0.89569	0	0	0.08226	-0.169899	0.035367	-0.161129	-0.028066	-0.178319	0.003661	-0.19314	0.013174	-0.149208	0.008693	-0.106085	-0.085773	-0.17658	0.062088	-0.256095	-0.046198	-0.282689	0.040766	-0.295193	0.084827	-0.232115	0.086876	-0.22368	0.051559	-0.262739	0.114614	-0.395061	-0.138773	0.045336	-0.114967	0.02464	
0.892638	0	0	0.0807527	-0.165639	0.056109	-0.16872	-0.0289138	-0.175923	0.0090485	-0.190803	0.011036	-0.143166	0.0163015	-0.104943	-0.0766577	-0.180338	0.0674125	-0.25282	-0.0453705	-0.285028	0.040766	-0.295193	0.0673142	-0.220672	0.100832	-0.235791	0.0494503	-0.256779	0.111665	-0.386726	-0.0846188	-0.0056535	-0.116215	0.0281677	
0.894164	0	0	0.0792455	-0.16138	0.076851	-0.17631	-0.0297615	-0.173527	0.014436	-0.188466	0.008898	-0.137124	0.02391	-0.1038	-0.0675425	-0.184096	0.072737	-0.249545	-0.044543	-0.287367	0.040766	-0.295193	0.0498015	-0.209229	0.114788	-0.247903	0.0473415	-0.250819	0.108715	-0.378392	-0.0304645	-0.056643	-0.117463	0.0316955	
0.89569	0	0	0.0777382	-0.15712	0.097593	-0.183901	-0.0306092	-0.171131	0.0198235	-0.186129	0.00676	-0.131081	0.0315185	-0.102658	-0.0584273	-0.187854	0.0780615	-0.24627	-0.0437155	-0.289705	0.040766	-0.295193	0.0322887	-0.197786	0.128744	-0.260014	0.0452328	-0.24486	0.105766	-0.370058	0.0236897	-0.107633	-0.118712	0.0352232	
0.894164	0	0	0.076231	-0.15286	0.118335	-0.191492	-0.031457	-0.168735	0.025211	-0.183792	0.004622	-0.125039	0.039127	-0.101516	-0.049312	-0.191612	0.083386	-0.242995	-0.042888	-0.292044	0.040766	-0.295193	0.014776	-0.186343	0.1427	-0.272126	0.043124	-0.2389	0.102817	-0.361723	0.077844	-0.158622	-0.11996	0.038751	
0.892638	0	0	0.074723	-0.148598	0.114214	-0.179846	-0.0227535	-0.17258	0.022513	-0.176167	0.00141225	-0.115968	0.0349015	-0.089574	-0.0411975	-0.192516	0.0728785	-0.231622	-0.042888	-0.292044	0.0399245	-0.292815	0.03397	-0.202538	0.1427	-0.272126	0.0260335	-0.232315	0.112463	-0.361612	0.0308717	-0.127929	-0.117464	0.0316968	
0.89569	0	0	0.073215	-0.144336	0.110093	-0.1682	-0.01405	-0.176424	0.019815	-0.168542	-0.0017975	-0.106897	0.030676	-0.077632	-0.033083	-0.19342	0.062371	-0.22025	-0.042888	-0.292044	0.039083	-0.290437	0.053164	-0.218732	0.1427	-0.272126	0.008943	-0.225729	0.122108	-0.361501	-0.0161005	-0.0972365	-0.114968	0.0246425	
0.894164	0	0	0.071707	-0.140075	0.105973	-0.156554	-0.0053465	-0.180269	0.017117	-0.160916	-0.00500725	-0.0978253	0.0264505	-0.06569	-0.0249685	-0.194323	0.0518635	-0.208877	-0.042888	-0.292044	0.0382415	-0.288059	0.072358	-0.234927	0.1427	-0.272126	-0.0081475	-0.219143	0.131753	-0.361389	-0.0630728	-0.0665437	-0.112472	0.0175882	
0.891112	0	0	0.070199	-0.135813	0.101852	-0.144908	0.003357	-0.184114	0.014419	-0.153291	-0.008217	-0.088754	0.022225	-0.053748	-0.016854	-0.195227	0.041356	-0.197505	-0.042888	-0.292044	0.0374	-0.285681	0.091552	-0.251122	0.1427	-0.272126	-0.025238	-0.212558	0.141399	-0.361278	-0.110045	-0.035851	-0.109976	0.010534	
0.891112	0	0	0.0686902	-0.131549	0.088726	-0.133344	0.002509	-0.181717	0.012619	-0.148204	-0.00069425	-0.0866885	0.0165822	-0.0378005	-0.0300318	-0.180013	0.0466755	-0.194215	-0.0344128	-0.295784	0.034032	-0.276163	0.0881885	-0.241616	0.139945	-0.26434	-0.0081475	-0.219143	0.139922	-0.357104	-0.110045	-0.035851	-0.111224	0.0140605	
0.89569	0	0	0.0671815	-0.127285	0.0756	-0.121781	0.001661	-0.17932	0.010819	-0.143117	0.0068285	-0.084623	0.0109395	-0.021853	-0.0432095	-0.1648	0.051995	-0.190926	-0.0259375	-0.299524	0.030664	-0.266644	0.084825	-0.23211	0.13719	-0.256553	0.008943	-0.225729	0.138445	-0.35293	-0.110045	-0.035851	-0.112472	0.017587	
0.894164	0	0	0.0656728	-0.123021	0.062474	-0.110217	0.000813	-0.176922	0.009019	-0.138029	0.0143512	-0.0825575	0.00529675	-0.0059055	-0.0563872	-0.149587	0.0573145	-0.187637	-0.0174623	-0.303263	0.027296	-0.257126	0.0814615	-0.222605	0.134435	-0.248767	0.0260335	-0.232315	0.136968	-0.348756	-0.110045	-0.035851	-0.113719	0.0211135	
0.894164	0	0	0.064164	-0.118757	0.049348	-0.098653	-3.5E-05	-0.174525	0.007219	-0.132942	0.021874	-0.080492	-0.000346	0.010042	-0.069565	-0.134373	0.062634	-0.184347	-0.008987	-0.307003	0.023928	-0.247607	0.078098	-0.213099	0.13168	-0.240981	0.043124	-0.2389	0.135491	-0.344582	-0.110045	-0.035851	-0.114967	0.02464	
0.894164	0	0	0.0656728	-0.123021	0.062474	-0.110217	-0.0078905	-0.173077	3.575E-05	-0.130204	0.0122095	-0.076505	-0.000346	0.010042	-0.0685517	-0.137237	0.0531622	-0.175901	-0.007332	-0.31168	0.0264545	-0.254747	0.0797802	-0.217853	0.133058	-0.244875	0.041014	-0.232936	0.132535	-0.336228	-0.0630728	-0.0665438	-0.126818	0.0350957	
0.889586	0	0	0.0671815	-0.127285	0.0756	-0.121781	-0.015746	-0.17163	-0.0071475	-0.127467	0.002545	-0.072518	-0.000346	0.010042	-0.0675385	-0.140101	0.0436905	-0.167456	-0.005677	-0.316357	0.028981	-0.261887	0.0814625	-0.222607	0.134435	-0.248769	0.038904	-0.226972	0.129579	-0.327874	-0.0161005	-0.0972365	-0.138669	0.0455515	
0.894164	0	0	0.0686902	-0.131549	0.088726	-0.133344	-0.0236015	-0.170183	-0.0143307	-0.124729	-0.0071195	-0.068531	-0.000346	0.010042	-0.0665253	-0.142964	0.0342188	-0.15901	-0.004022	-0.321034	0.0315075	-0.269026	0.0831448	-0.227361	0.135813	-0.252663	0.036794	-0.221009	0.126623	-0.319519	0.0308718	-0.127929	-0.15052	0.0560072	
0.892638	0	0	0.070199	-0.135813	0.101852	-0.144908	-0.031457	-0.168735	-0.021514	-0.121991	-0.016784	-0.064544	-0.000346	0.010042	-0.065512	-0.145828	0.024747	-0.150564	-0.002367	-0.325711	0.034034	-0.276166	0.084827	-0.232115	0.137191	-0.256557	0.034684	-0.215045	0.123667	-0.311165	0.077844	-0.158622	-0.162371	0.066463	
0.891112	0	0	0.067181	-0.127283	0.0991018	-0.137136	-0.0227535	-0.17258	-0.0242153	-0.114357	-0.0071195	-0.068531	-0.0121808	0.0208435	-0.067539	-0.1401	0.0395435	-0.155717	-0.0116697	-0.319632	0.03235	-0.271407	0.0831448	-0.227361	0.135813	-0.252663	0.034684	-0.215045	0.122188	-0.306985	0.0272827	-0.117787	-0.142401	0.0561272	
0.892638	0	0	0.064163	-0.118753	0.0963515	-0.129363	-0.01405	-0.176424	-0.0269165	-0.106722	0.002545	-0.072518	-0.0240155	0.031645	-0.069566	-0.134372	0.05434	-0.16087	-0.0209725	-0.313554	0.030666	-0.266648	0.0814625	-0.222607	0.134435	-0.248769	0.034684	-0.215045	0.120709	-0.302805	-0.0232785	-0.076951	-0.122431	0.0457915	
0.894164	0	0	0.061145	-0.110224	0.0936012	-0.121591	-0.0053465	-0.180269	-0.0296177	-0.0990882	0.0122095	-0.076505	-0.0358503	0.0424465	-0.071593	-0.128643	0.0691365	-0.166023	-0.0302753	-0.307476	0.028982	-0.261888	0.0797802	-0.217853	0.133058	-0.244875	0.034684	-0.215045	0.11923	-0.298625	-0.0738398	-0.0361155	-0.102461	0.0354558	
0.894164	0	0	0.058127	-0.101694	0.090851	-0.113818	0.003357	-0.184114	-0.032319	-0.091454	0.021874	-0.080492	-0.047685	0.053248	-0.07362	-0.122915	0.083933	-0.171176	-0.039578	-0.301397	0.027298	-0.257129	0.078098	-0.213099	0.13168	-0.240981	0.034684	-0.215045	0.117751	-0.294445	-0.124401	0.00472	-0.082491	0.02512	
0.892638	0	0	0.058127	-0.101694	0.089475	-0.109929	-0.0053465	-0.180269	-0.03322	-0.088908	0.0186575	-0.0714025	-0.042918	0.0624207	-0.074634	-0.120049	0.0797725	-0.159417	-0.032758	-0.300459	0.0290613	-0.24546	0.073046	-0.198822	0.126163	-0.225389	0.0497018	-0.215679	0.127407	-0.294323	-0.127994	0.014874	-0.0968562	0.0426528	
0.889586	0	0	0.058127	-0.101694	0.088099	-0.106041	-0.01405	-0.176424	-0.034121	-0.086362	0.015441	-0.062313	-0.038151	0.0715935	-0.075648	-0.117183	0.075612	-0.147659	-0.025938	-0.299521	0.0308245	-0.233791	0.067994	-0.184544	0.120645	-0.209796	0.0647195	-0.216313	0.137063	-0.2942	-0.131587	0.025028	-0.111222	0.0601855	
0.89569	0	0	0.058127	-0.101694	0.086723	-0.102152	-0.0227535	-0.17258	-0.035022	-0.083816	0.0122245	-0.0532235	-0.033384	0.0807663	-0.076662	-0.114318	0.0714515	-0.135901	-0.019118	-0.298584	0.0325877	-0.222122	0.062942	-0.170266	0.115128	-0.194204	0.0797373	-0.216947	0.146718	-0.294077	-0.13518	0.035182	-0.125587	0.0777183	
0.894164	0	0	0.058127	-0.101694	0.085347	-0.098263	-0.031457	-0.168735	-0.035923	-0.08127	0.009008	-0.044134	-0.028617	0.089939	-0.077676	-0.111452	0.067291	-0.124142	-0.012298	-0.297646	0.034351	-0.210453	0.05789	-0.155989	0.109611	-0.178612	0.094755	-0.217581	0.156374	-0.293955	-0.138773	0.045336	-0.139952	0.095251	
0.892638	0	0	0.0566168	-0.097426	0.085347	-0.098263	-0.031457	-0.168735	-0.035923	-0.08127	-0.0017275	-0.037119	-0.0376247	0.0927508	-0.0797047	-0.105718	0.0652085	-0.118257	-0.0106427	-0.302324	0.034351	-0.210453	0.061259	-0.16551	0.110991	-0.182512	0.0776255	-0.210979	0.159334	-0.302321	-0.0918005	0.0146433	-0.130587	0.091849	
0.889586	0	0	0.0551065	-0.093158	0.085347	-0.098263	-0.031457	-0.168735	-0.035923	-0.08127	-0.012463	-0.030104	-0.0466325	0.0955625	-0.0817335	-0.0999845	0.063126	-0.112371	-0.0089875	-0.307003	0.034351	-0.210453	0.064628	-0.17503	0.112371	-0.186413	0.060496	-0.204378	0.162294	-0.310687	-0.044828	-0.0160495	-0.121221	0.088447	
0.892638	0	0	0.0535962	-0.08889	0.085347	-0.098263	-0.031457	-0.168735	-0.035923	-0.08127	-0.0231985	-0.023089	-0.0556402	0.0983742	-0.0837623	-0.0942507	0.0610435	-0.106486	-0.00733225	-0.311681	0.034351	-0.210453	0.067997	-0.184551	0.113752	-0.190313	0.0433665	-0.197777	0.165254	-0.319053	0.0021445	-0.0467422	-0.111856	0.085045	
0.894164	0	0	0.052086	-0.084622	0.085347	-0.098263	-0.031457	-0.168735	-0.035923	-0.08127	-0.033934	-0.016074	-0.064648	0.101186	-0.085791	-0.088517	0.058961	-0.100601	-0.005677	-0.316359	0.034351	-0.210453	0.071366	-0.194072	0.115132	-0.194214	0.026237	-0.191175	0.168214	-0.327419	0.049117	-0.077435	-0.102491	0.081643	
0.894164	0	0	0.0505753	-0.0803523	0.0825933	-0.0904802	-0.0236015	-0.170183	-0.0377257	-0.0761755	-0.0253445	-0.017024	-0.064648	0.101186	-0.086806	-0.0856485	0.0547923	-0.0888193	-0.00733225	-0.311681	0.040334	-0.210695	0.069682	-0.189313	0.127729	-0.202446	0.026237	-0.191175	0.169693	-0.331599	0.0021445	-0.0467422	-0.106246	0.0922557	
0.889586	0	0	0.0490645	-0.0760825	0.0798395	-0.0826975	-0.015746	-0.17163	-0.0395285	-0.071081	-0.016755	-0.017974	-0.064648	0.101186	-0.087821	-0.08278	0.0506235	-0.0770375	-0.0089875	-0.307003	0.046317	-0.210936	0.067998	-0.184554	0.140326	-0.210677	0.026237	-0.191175	0.171172	-0.335779	-0.044828	-0.0160495	-0.110001	0.102869	
0.892638	0	0	0.0475537	-0.0718128	0.0770857	-0.0749148	-0.0078905	-0.173077	-0.0413312	-0.0659865	-0.0081655	-0.018924	-0.064648	0.101186	-0.088836	-0.0799115	0.0464547	-0.0652558	-0.0106427	-0.302324	0.0523	-0.211178	0.066314	-0.179795	0.152924	-0.218909	0.026237	-0.191175	0.172651	-0.339959	-0.0918005	0.0146432	-0.113756	0.113481	
0.892638	0	0	0.046043	-0.067543	0.074332	-0.067132	-3.5E-05	-0.174525	-0.043134	-0.060892	0.000424	-0.019874	-0.064648	0.101186	-0.089851	-0.077043	0.042286	-0.053474	-0.012298	-0.297646	0.058283	-0.21142	0.06463	-0.175036	0.165521	-0.22714	0.026237	-0.191175	0.17413	-0.344139	-0.138773	0.045336	-0.117511	0.124094	
0.894164	0	0	0.049064	-0.0760808	0.0874765	-0.0787132	0.001661	-0.179319	-0.0476055	-0.065801	-0.0103115	-0.012859	-0.0632338	0.0971895	-0.0908662	-0.0741737	0.050736	-0.0589955	-0.013126	-0.295306	0.0557493	-0.204259	0.0788078	-0.176976	0.151543	-0.215008	0.024124	-0.185203	0.172651	-0.339959	-0.0953975	0.024809	-0.110642	0.127774	
0.892638	0	0	0.052085	-0.0846185	0.100621	-0.0902945	0.003357	-0.184113	-0.052077	-0.07071	-0.021047	-0.005844	-0.0618195	0.093193	-0.0918815	-0.0713045	0.059186	-0.064517	-0.013954	-0.292966	0.0532155	-0.197099	0.0929855	-0.178917	0.137566	-0.202876	0.022011	-0.179231	0.171172	-0.335779	-0.052022	0.004282	-0.103772	0.131454	
0.889586	0	0	0.055106	-0.0931563	0.113765	-0.101876	0.005053	-0.188906	-0.0565485	-0.075619	-0.0317825	0.001171	-0.0604053	0.0891965	-0.0928968	-0.0684353	0.067636	-0.0700385	-0.014782	-0.290626	0.0506818	-0.189938	0.107163	-0.180858	0.123589	-0.190744	0.019898	-0.17326	0.169693	-0.331599	-0.0086465	-0.016245	-0.0969025	0.135134	
0.891112	0	0	0.058127	-0.101694	0.12691	-0.113457	0.006749	-0.1937	-0.06102	-0.080528	-0.042518	0.008186	-0.058991	0.0852	-0.093912	-0.065566	0.076086	-0.07556	-0.01561	-0.288286	0.048148	-0.182777	0.121341	-0.182798	0.109611	-0.178612	0.017785	-0.167288	0.168214	-0.327419	0.034729	-0.036772	-0.090033	0.138814	
0.891112	0	0	0.058127	-0.101694	0.116519	-0.109659	0.00759675	-0.196096	-0.0592195	-0.0856168	-0.040372	0.002121	-0.065162	0.0800225	-0.0928968	-0.0684353	0.066593	-0.0670908	-0.0139543	-0.292965	0.0498375	-0.187551	0.107163	-0.180858	0.112371	-0.186412	0.019898	-0.17326	0.162987	-0.340056	0.038326	-0.0469378	-0.090033	0.138814	
0.889586	0	0	0.058127	-0.101694	0.106129	-0.10586	0.0084445	-0.198491	-0.057419	-0.0907055	-0.038226	-0.003944	-0.071333	0.074845	-0.0918815	-0.0713045	0.0571	-0.0586215	-0.0122985	-0.297644	0.051527	-0.192326	0.0929855	-0.178917	0.11513	-0.194211	0.022011	-0.179231	0.157759	-0.352693	0.041923	-0.0571035	-0.090033	0.138814	
0.891112	0	0	0.058127	-0.101694	0.0957378	-0.102061	0.00929225	-0.200887	-0.0556185	-0.0957942	-0.03608	-0.010009	-0.077504	0.0696675	-0.0908662	-0.0741737	0.047607	-0.0501522	-0.0106427	-0.302324	0.0532165	-0.197101	0.0788078	-0.176976	0.11789	-0.20201	0.024124	-0.185203	0.152531	-0.36533	0.04552	-0.0672693	-0.090033	0.138814	
0.894164	0	0	0.058127	-0.101694	0.085347	-0.098263	0.01014	-0.203283	-0.053818	-0.100883	-0.033934	-0.016074	-0.083675	0.06449	-0.089851	-0.077043	0.038114	-0.041683	-0.008987	-0.307003	0.054906	-0.201875	0.06463	-0.175036	0.12065	-0.20981	0.026237	-0.191175	0.147304	-0.377967	0.049117	-0.077435	-0.090033	0.138814	
0.892638	0	0	0.0566168	-0.097426	0.085347	-0.098263	-0.00025925	-0.194646	-0.0475427	-0.101071	-0.0328618	-0.019105	-0.083675	0.06449	-0.089851	-0.077043	0.0370705	-0.038734	-0.00981475	-0.304664	0.0608945	-0.202118	0.062945	-0.170274	0.12065	-0.20981	0.026237	-0.191175	0.161395	-0.390381	0.04552	-0.0672693	-0.0912873	0.142358	
0.892638	0	0	0.0551065	-0.093158	0.085347	-0.098263	-0.0106585	-0.186009	-0.0412675	-0.10126	-0.0317895	-0.022136	-0.083675	0.06449	-0.089851	-0.077043	0.036027	-0.035785	-0.0106425	-0.302324	0.066883	-0.20236	0.06126	-0.165513	0.12065	-0.20981	0.026237	-0.191175	0.175487	-0.402794	0.041923	-0.0571035	-0.0925415	0.145903	
0.894164	0	0	0.0535962	-0.08889	0.085347	-0.098263	-0.0210577	-0.177372	-0.0349923	-0.101448	-0.0307173	-0.025167	-0.083675	0.06449	-0.089851	-0.077043	0.0349835	-0.032836	-0.0114702	-0.299985	0.0728715	-0.202602	0.059575	-0.160751	0.12065	-0.20981	0.026237	-0.191175	0.189578	-0.415208	0.038326	-0.0469378	-0.0937957	0.149447	
0.892638	0	0	0.052086	-0.084622	0.085347	-0.098263	-0.031457	-0.168735	-0.028717	-0.101636	-0.029645	-0.028198	-0.083675	0.06449	-0.089851	-0.077043	0.03394	-0.029887	-0.012298	-0.297646	0.07886	-0.202845	0.05789	-0.155989	0.12065	-0.20981	0.026237	-0.191175	0.20367	-0.427622	0.034729	-0.036772	-0.09505	0.152992	
0.892638	0	0	0.0535962	-0.08889	0.0880983	-0.106039	-0.0289142	-0.175921	-0.0331928	-0.106534	-0.037152	-0.0302782	-0.0884293	0.0553363	-0.0868073	-0.0856453	0.0360265	-0.0357838	-0.0114702	-0.299985	0.070337	-0.19544	0.05789	-0.155989	0.12065	-0.20981	0.047591	-0.209716	0.192529	-0.423547	0.034729	-0.036772	-0.0963047	0.156538	
0.889586	0	0	0.0551065	-0.093158	0.0908495	-0.113815	-0.0263715	-0.183107	-0.0376685	-0.111431	-0.044659	-0.0323585	-0.0931835	0.0461825	-0.0837635	-0.0942475	0.038113	-0.0416805	-0.0106425	-0.302324	0.061814	-0.188035	0.05789	-0.155989	0.12065	-0.20981	0.068945	-0.228257	0.181388	-0.419471	0.034729	-0.036772	-0.0975595	0.160084	
0.889586	0	0	0.0566168	-0.097426	0.0936007	-0.12159	-0.0238287	-0.190292	-0.0421443	-0.116329	-0.052166	-0.0344388	-0.0979378	0.0370287	-0.0807197	-0.10285	0.0401995	-0.0475773	-0.00981475	-0.304664	0.053291	-0.18063	0.05789	-0.155989	0.12065	-0.20981	0.090299	-0.246798	0.170247	-0.415396	0.034729	-0.036772	-0.0988143	0.16363	
0.891112	0	0	0.058127	-0.101694	0.096352	-0.129366	-0.021286	-0.197478	-0.04662	-0.121226	-0.059673	-0.036519	-0.102692	0.027875	-0.077676	-0.111452	0.042286	-0.053474	-0.008987	-0.307003	0.044768	-0.173225	0.05789	-0.155989	0.12065	-0.20981	0.111653	-0.265339	0.159106	-0.411321	0.034729	-0.036772	-0.100069	0.167176	
0.892638	0	0	0.058127	-0.101694	0.096352	-0.129366	-0.021286	-0.197478	-0.0457205	-0.123768	-0.056461	-0.0455965	-0.101283	0.0238928	-0.076662	-0.114318	0.034887	-0.050905	-0.0081595	-0.309342	0.045613	-0.175613	0.059575	-0.160751	0.112206	-0.213278	0.113763	-0.271303	0.163527	-0.423814	0.034729	-0.036772	-0.0988143	0.16363	
0.889586	0	0	0.058127	-0.101694	0.096352	-0.129366	-0.021286	-0.197478	-0.044821	-0.12631	-0.053249	-0.054674	-0.099874	0.0199105	-0.075648	-0.117183	0.027488	-0.048336	-0.007332	-0.311681	0.046458	-0.178001	0.06126	-0.165513	0.103763	-0.216745	0.115874	-0.277266	0.167947	-0.436307	0.034729	-0.036772	-0.0975595	0.160084	
0.892638	0	0	0.058127	-0.101694	0.096352	-0.129366	-0.021286	-0.197478	-0.0439215	-0.128851	-0.050037	-0.0637515	-0.098465	0.0159283	-0.074634	-0.120049	0.020089	-0.045767	-0.0065045	-0.31402	0.047303	-0.180389	0.062945	-0.170274	0.0953195	-0.220212	0.117984	-0.283229	0.172368	-0.448801	0.034729	-0.036772	-0.0963047	0.156538	
0.889586	0	0	0.058127	-0.101694	0.096352	-0.129366	-0.021286	-0.197478	-0.043022	-0.131393	-0.046825	-0.072829	-0.097056	0.011946	-0.07362	-0.122915	0.01269	-0.043198	-0.005677	-0.316359	0.048148	-0.182777	0.06463	-0.175036	0.086876	-0.22368	0.120094	-0.289193	0.176789	-0.461294	0.034729	-0.036772	-0.09505	0.152992	
0.891112	0	0	0.058127	-0.101694	0.08735	-0.129457	-0.021286	-0.197478	-0.050191	-0.128662	-0.046825	-0.072829	-0.0956475	0.00796525	-0.08172	-0.122026	0.0147745	-0.049089	-0.005677	-0.316359	0.0489928	-0.185165	0.062945	-0.170274	0.100832	-0.235791	0.100852	-0.27662	0.178261	-0.465454	0.0819602	-0.067634	-0.104425	0.156393	
0.892638	0	0	0.058127	-0.101694	0.078348	-0.129548	-0.021286	-0.197478	-0.05736	-0.125932	-0.046825	-0.072829	-0.094239	0.0039845	-0.08982	-0.121137	0.016859	-0.05498	-0.005677	-0.316359	0.0498375	-0.187553	0.06126	-0.165513	0.114788	-0.247903	0.081609	-0.264046	0.179733	-0.469615	0.129191	-0.098496	-0.1138	0.159793	
0.889586	0	0	0.058127	-0.101694	0.069346	-0.129638	-0.021286	-0.197478	-0.064529	-0.123201	-0.046825	-0.072829	-0.0928305	3.75E-06	-0.09792	-0.120249	0.0189435	-0.060871	-0.005677	-0.316359	0.0506823	-0.18994	0.059575	-0.160751	0.128744	-0.260014	0.0623665	-0.251473	0.181205	-0.473776	0.176423	-0.129358	-0.123175	0.163194	
0.892638	0	0	0.058127	-0.101694	0.060344	-0.129729	-0.021286	-0.197478	-0.071698	-0.12047	-0.046825	-0.072829	-0.091422	-0.003977	-0.10602	-0.11936	0.021028	-0.066762	-0.005677	-0.316359	0.051527	-0.192328	0.05789	-0.155989	0.1427	-0.272126	0.043124	-0.2389	0.182677	-0.477936	0.223654	-0.16022	-0.13255	0.166595	
0.891112	0	0	0.061145	-0.110224	0.0630905	-0.137491	-0.0187455	-0.204658	-0.0761648	-0.12536	-0.0532565	-0.0779202	-0.0857943	-0.0198818	-0.113097	-0.121336	0.023111	-0.072649	-0.0116717	-0.319629	0.047233	-0.196859	0.062942	-0.170266	0.135624	-0.279458	0.041014	-0.232936	0.17008	-0.469705	0.18002	-0.139524	-0.130043	0.15951	
0.894164	0	0	0.064163	-0.118753	0.065837	-0.145254	-0.016205	-0.211838	-0.0806315	-0.13025	-0.059688	-0.0830115	-0.0801665	-0.0357865	-0.120174	-0.123312	0.025194	-0.078536	-0.0176665	-0.3229	0.042939	-0.201391	0.067994	-0.184544	0.128548	-0.28679	0.038904	-0.226972	0.157482	-0.461473	0.136385	-0.118828	-0.127536	0.152425	
0.892638	0	0	0.067181	-0.127283	0.0685835	-0.153016	-0.0136645	-0.219017	-0.0850983	-0.13514	-0.0661195	-0.0881028	-0.0745388	-0.0516913	-0.127251	-0.125289	0.027277	-0.084423	-0.0236613	-0.32617	0.038645	-0.205922	0.073046	-0.198822	0.121472	-0.294123	0.036794	-0.221009	0.144885	-0.453242	0.0927512	-0.0981313	-0.125029	0.14534	
0.892638	0	0	0.070199	-0.135813	0.07133	-0.160778	-0.011124	-0.226197	-0.089565	-0.14003	-0.072551	-0.093194	-0.068911	-0.067596	-0.134328	-0.127265	0.02936	-0.09031	-0.029656	-0.32944	0.034351	-0.210453	0.078098	-0.213099	0.114396	-0.301455	0.034684	-0.215045	0.132288	-0.445011	0.049117	-0.077435	-0.122522	0.138255	
0.889586	0	0	0.070199	-0.135813	0.0637105	-0.164741	-0.0102778	-0.228589	-0.0877695	-0.145104	-0.0693467	-0.10225	-0.0778902	-0.0647825	-0.131293	-0.135842	0.0240488	-0.0936228	-0.0263512	-0.338779	0.038567	-0.222368	0.0797802	-0.217853	0.117144	-0.309221	0.0560365	-0.233582	0.13523	-0.453326	-0.0014525	-0.0365765	-0.129382	0.134575	
0.891112	0	0	0.070199	-0.135813	0.056091	-0.168704	-0.0094315	-0.230981	-0.085974	-0.150178	-0.0661425	-0.111306	-0.0868695	-0.061969	-0.128258	-0.14442	0.0187375	-0.0969355	-0.0230465	-0.348118	0.042783	-0.234284	0.0814625	-0.222607	0.119891	-0.316986	0.077389	-0.252119	0.138172	-0.461641	-0.052022	0.004282	-0.136241	0.130895	
0.894164	0	0	0.070199	-0.135813	0.0484715	-0.172667	-0.00858525	-0.233373	-0.0841785	-0.155253	-0.0629383	-0.120362	-0.0958488	-0.0591555	-0.125223	-0.152998	0.0134263	-0.100248	-0.0197417	-0.357458	0.046999	-0.246199	0.0831448	-0.227361	0.122639	-0.324752	0.0987415	-0.270656	0.141115	-0.469957	-0.102592	0.0451405	-0.143101	0.127215	
0.892638	0	0	0.070199	-0.135813	0.040852	-0.17663	-0.007739	-0.235765	-0.082383	-0.160327	-0.059734	-0.129418	-0.104828	-0.056342	-0.122188	-0.161575	0.008115	-0.103561	-0.016437	-0.366797	0.051215	-0.258114	0.084827	-0.232115	0.125387	-0.332518	0.120094	-0.289193	0.144057	-0.478272	-0.153161	0.085999	-0.14996	0.123535	
0.891112	0	0	0.071707	-0.140075	0.044962	-0.188246	-0.0155878	-0.234313	-0.0805885	-0.165398	-0.069362	-0.125446	-0.103423	-0.060312	-0.129259	-0.163543	0.011234	-0.112376	-0.0156115	-0.36913	0.0435507	-0.253106	0.0831448	-0.227361	0.125387	-0.332518	0.10296	-0.282579	0.153712	-0.478188	-0.0553602	0.0142785	-0.160563	0.130463	
0.891112	0	0	0.073215	-0.144336	0.049072	-0.199862	-0.0234365	-0.232861	-0.078794	-0.170469	-0.07899	-0.121474	-0.102019	-0.064282	-0.13633	-0.165511	0.014353	-0.12119	-0.014786	-0.371464	0.0358865	-0.248098	0.0814625	-0.222607	0.125387	-0.332518	0.0858265	-0.275966	0.163367	-0.478104	0.0424405	-0.057442	-0.171165	0.137391	
0.892638	0	0	0.074723	-0.148598	0.053182	-0.211477	-0.0312853	-0.231409	-0.0769995	-0.175541	-0.088618	-0.117501	-0.100614	-0.068252	-0.143401	-0.167478	0.017472	-0.130004	-0.0139605	-0.373797	0.0282222	-0.24309	0.0797802	-0.217853	0.125387	-0.332518	0.0686927	-0.269352	0.173022	-0.47802	0.140241	-0.129163	-0.181768	0.144319	
0.88806	0	0	0.076231	-0.15286	0.057292	-0.223093	-0.039134	-0.229957	-0.075205	-0.180612	-0.098246	-0.113529	-0.099209	-0.072222	-0.150472	-0.169446	0.020591	-0.138819	-0.013135	-0.37613	0.020558	-0.238082	0.078098	-0.213099	0.125387	-0.332518	0.051559	-0.262739	0.182677	-0.477936	0.238042	-0.200883	-0.192371	0.151247	
0.892638	0	0	0.063343	-0.147713	0.0600292	-0.230829	-0.0374428	-0.234736	-0.0805685	-0.182951	-0.0961122	-0.119559	-0.0978047	-0.0761903	-0.157534	-0.171413	0.0226685	-0.14469	-0.0191272	-0.379385	0.0247685	-0.249982	0.0831418	-0.227354	0.128132	-0.340277	0.0494503	-0.256779	0.182677	-0.477936	0.194404	-0.180175	-0.19112	0.147711	
0.88806	0	0	0.050455	-0.142567	0.0627665	-0.238564	-0.0357515	-0.239516	-0.085932	-0.185291	-0.0939785	-0.125589	-0.0964005	-0.0801585	-0.164596	-0.17338	0.024746	-0.150562	-0.0251195	-0.38264	0.028979	-0.261881	0.0881855	-0.241609	0.130878	-0.348036	0.0473415	-0.250819	0.182677	-0.477936	0.150765	-0.159468	-0.189868	0.144175	
0.892638	0	0	0.037567	-0.137421	0.0655037	-0.2463	-0.0340603	-0.244295	-0.0912955	-0.187631	-0.0918448	-0.13162	-0.0949963	-0.0841268	-0.171657	-0.175348	0.0268235	-0.156434	-0.0311118	-0.385895	0.0331895	-0.273781	0.0932292	-0.255863	0.133624	-0.355795	0.0452328	-0.24486	0.182677	-0.477936	0.107127	-0.13876	-0.188617	0.140639	
0.892638	0	0	0.024679	-0.132274	0.068241	-0.254035	-0.032369	-0.249075	-0.096659	-0.18997	-0.089711	-0.13765	-0.093592	-0.088095	-0.178719	-0.177315	0.028901	-0.162305	-0.037104	-0.38915	0.0374	-0.285681	0.098273	-0.270118	0.136369	-0.363554	0.043124	-0.2389	0.182677	-0.477936	0.063489	-0.118052	-0.187366	0.137103	
0.889586	0	0	0.037567	-0.137421	0.068241	-0.254035	-0.0332145	-0.246686	-0.0895022	-0.192699	-0.0918448	-0.13162	-0.0949963	-0.0841268	-0.168628	-0.183909	0.020476	-0.1568	-0.0362795	-0.39148	0.0382415	-0.288059	0.098273	-0.270118	0.137741	-0.367431	0.041014	-0.232936	0.178259	-0.465449	0.0165165	-0.087359	-0.188617	0.140639	
0.889586	0	0	0.050455	-0.142567	0.068241	-0.254035	-0.03406	-0.244296	-0.0823455	-0.195428	-0.0939785	-0.125589	-0.0964005	-0.0801585	-0.158537	-0.190503	0.012051	-0.151295	-0.035455	-0.39381	0.039083	-0.290437	0.098273	-0.270118	0.139113	-0.371308	0.038904	-0.226972	0.17384	-0.452962	-0.030456	-0.056666	-0.189868	0.144175	
0.889586	0	0	0.063343	-0.147713	0.068241	-0.254035	-0.0349055	-0.241906	-0.0751887	-0.198157	-0.0961122	-0.119559	-0.0978047	-0.0761903	-0.148446	-0.197096	0.003626	-0.14579	-0.0346305	-0.39614	0.0399245	-0.292815	0.098273	-0.270118	0.140484	-0.375185	0.036794	-0.221009	0.169422	-0.440474	-0.0774285	-0.025973	-0.19112	0.147711	
0.891112	0	0	0.076231	-0.15286	0.068241	-0.254035	-0.035751	-0.239517	-0.068032	-0.200886	-0.098246	-0.113529	-0.099209	-0.072222	-0.138355	-0.20369	-0.004799	-0.140285	-0.033806	-0.39847	0.040766	-0.295193	0.098273	-0.270118	0.141856	-0.379062	0.034684	-0.215045	0.165003	-0.427987	-0.124401	0.00472	-0.192371	0.151247	
0.891112	0	0	0.0777382	-0.15712	0.0709758	-0.261764	-0.0349055	-0.241906	-0.059075	-0.208686	-0.0993135	-0.110512	-0.0916345	-0.0710655	-0.148446	-0.197096	-0.004799	-0.140285	-0.0439133	-0.390074	0.0399245	-0.292815	0.0949115	-0.260617	0.151691	-0.379526	0.034684	-0.215045	0.162054	-0.419652	-0.127994	0.014874	-0.196128	0.161864	
0.891112	0	0	0.0792455	-0.16138	0.0737105	-0.269493	-0.03406	-0.244296	-0.050118	-0.216486	-0.100381	-0.107496	-0.08406	-0.069909	-0.158537	-0.190503	-0.004799	-0.140285	-0.0540205	-0.381679	0.039083	-0.290437	0.09155	-0.251117	0.161525	-0.379989	0.034684	-0.215045	0.159105	-0.411318	-0.131587	0.025028	-0.199884	0.172481	
0.891112	0	0	0.0807527	-0.165639	0.0764452	-0.277221	-0.0332145	-0.246686	-0.041161	-0.224286	-0.101448	-0.10448	-0.0764855	-0.0687525	-0.168628	-0.183909	-0.004799	-0.140285	-0.0641277	-0.373283	0.0382415	-0.288059	0.0881885	-0.241616	0.17136	-0.380453	0.034684	-0.215045	0.156156	-0.402983	-0.13518	0.035182	-0.203641	0.183098	
0.892638	0	0	0.08226	-0.169899	0.07918	-0.28495	-0.032369	-0.249075	-0.032204	-0.232086	-0.102516	-0.101463	-0.068911	-0.067596	-0.178719	-0.177315	-0.004799	-0.140285	-0.074235	-0.364888	0.0374	-0.285681	0.084827	-0.232115	0.181195	-0.380917	0.034684	-0.215045	0.153207	-0.394648	-0.138773	0.045336	-0.207398	0.193715	
0.891112	0	0	0.08226	-0.169899	0.0688275	-0.281154	-0.021983	-0.257698	-0.031308	-0.234618	-0.103584	-0.0984455	-0.0778902	-0.0647825	-0.17771	-0.180167	-0.00376075	-0.143219	-0.0633035	-0.375613	0.047588	-0.297821	0.084827	-0.232115	0.169988	-0.376576	0.034684	-0.215045	0.153207	-0.394648	-0.13518	0.035182	-0.195542	0.183247	
0.894164	0	0	0.08226	-0.169899	0.058475	-0.277359	-0.011597	-0.266321	-0.030412	-0.237151	-0.104652	-0.095428	-0.0868695	-0.061969	-0.176701	-0.183019	-0.0027225	-0.146153	-0.052372	-0.386339	0.057776	-0.309961	0.084827	-0.232115	0.158782	-0.372235	0.034684	-0.215045	0.153207	-0.394648	-0.131587	0.025028	-0.183687	0.172778	
0.891112	0	0	0.08226	-0.169899	0.0481225	-0.273564	-0.001211	-0.274944	-0.029516	-0.239683	-0.105719	-0.0924105	-0.0958488	-0.0591555	-0.175692	-0.18587	-0.00168425	-0.149088	-0.0414405	-0.397064	0.067964	-0.322101	0.084827	-0.232115	0.147575	-0.367895	0.034684	-0.215045	0.153207	-0.394648	-0.127994	0.014874	-0.171831	0.162309	
0.894164	0	0	0.08226	-0.169899	0.03777	-0.269768	0.009175	-0.283567	-0.02862	-0.242216	-0.106787	-0.089393	-0.104828	-0.056342	-0.174683	-0.188722	-0.000646	-0.152022	-0.030509	-0.407789	0.078152	-0.334241	0.084827	-0.232115	0.136369	-0.363554	0.034684	-0.215045	0.153207	-0.394648	-0.124401	0.00472	-0.159975	0.151841	
0.892638	0	0	0.0663575	-0.156233	0.0467552	-0.2697	-0.003748	-0.267774	-0.031309	-0.234617	-0.108924	-0.0833548	-0.0972548	-0.055182	-0.176702	-0.183017	0.00570225	-0.151658	-0.030509	-0.407789	0.0696467	-0.326856	0.084827	-0.232115	0.146202	-0.364014	0.0325722	-0.209077	0.164347	-0.398721	-0.0810215	-0.0158187	-0.173084	0.165851	
0.891112	0	0	0.050455	-0.142567	0.0557405	-0.269632	-0.016671	-0.25198	-0.033998	-0.227017	-0.11106	-0.0773165	-0.0896815	-0.054022	-0.17872	-0.177313	0.0120505	-0.151293	-0.030509	-0.407789	0.0611415	-0.319472	0.084827	-0.232115	0.156035	-0.364475	0.0304605	-0.20311	0.175488	-0.402794	-0.037642	-0.0363575	-0.186193	0.179862	
0.891112	0	0	0.0345525	-0.128901	0.0647257	-0.269564	-0.029594	-0.236187	-0.036687	-0.219417	-0.113197	-0.0712783	-0.0821083	-0.052862	-0.180738	-0.171608	0.0183988	-0.150928	-0.030509	-0.407789	0.0526362	-0.312087	0.084827	-0.232115	0.165869	-0.364935	0.0283487	-0.197142	0.186628	-0.406868	0.0057375	-0.0568963	-0.199302	0.193872	
0.894164	0	0	0.01865	-0.115235	0.073711	-0.269496	-0.042517	-0.220394	-0.039376	-0.211818	-0.115333	-0.06524	-0.074535	-0.051702	-0.182757	-0.165904	0.024747	-0.150564	-0.030509	-0.407789	0.044131	-0.304702	0.084827	-0.232115	0.175702	-0.365395	0.026237	-0.191175	0.197768	-0.410941	0.049117	-0.077435	-0.212411	0.207882	
0.892638	0	0	0.01865	-0.115235	0.0633593	-0.265702	-0.0329762	-0.226628	-0.0384792	-0.214352	-0.129223	-0.0491948	-0.0773488	-0.0437495	-0.194856	-0.15361	0.015283	-0.142123	-0.0422653	-0.394733	0.049271	-0.302576	0.0797778	-0.217845	0.159001	-0.345525	0.024124	-0.185203	0.180721	-0.390175	-0.0014525	-0.0365765	-0.214919	0.21497	
0.892638	0	0	0.01865	-0.115235	0.0530075	-0.261908	-0.0234355	-0.232863	-0.0375825	-0.216886	-0.143113	-0.0331495	-0.0801625	-0.035797	-0.206956	-0.141315	0.005819	-0.133681	-0.0540215	-0.381677	0.054411	-0.30045	0.0747285	-0.203575	0.142299	-0.325655	0.022011	-0.179231	0.163675	-0.369409	-0.052022	0.004282	-0.217427	0.222058	
0.89569	0	0	0.01865	-0.115235	0.0426557	-0.258114	-0.0138947	-0.239097	-0.0366858	-0.21942	-0.157002	-0.0171043	-0.0829763	-0.0278445	-0.219055	-0.129021	-0.003645	-0.12524	-0.0657777	-0.368621	0.059551	-0.298324	0.0696792	-0.189306	0.125598	-0.305784	0.019898	-0.17326	0.146628	-0.348643	-0.102592	0.0451405	-0.219935	0.229145	
0.89569	0	0	0.01865	-0.115235	0.032304	-0.25432	-0.004354	-0.245331	-0.035789	-0.221954	-0.170892	-0.001059	-0.08579	-0.019892	-0.231154	-0.116727	-0.013109	-0.116798	-0.077534	-0.355565	0.064691	-0.296198	0.06463	-0.175036	0.108897	-0.285914	0.017785	-0.167288	0.129581	-0.327877	-0.153161	0.085999	-0.222443	0.236233	
0.894164	0	0	0.017142	-0.110973	0.0309367	-0.250456	-0.00689325	-0.238155	-0.0304115	-0.219622	-0.16235	-0.0019905	-0.0886065	-0.0119325	-0.223096	-0.117601	-0.015188	-0.110923	-0.077534	-0.355565	0.0570268	-0.29119	0.062945	-0.170274	0.121476	-0.294133	-0.00141425	-0.154743	0.143675	-0.340297	-0.149564	0.0758333	-0.221189	0.232688	
0.892638	0	0	0.015634	-0.106712	0.0295695	-0.246593	-0.0094325	-0.230979	-0.025034	-0.21729	-0.153808	-0.002922	-0.091423	-0.003973	-0.215037	-0.118475	-0.017267	-0.105048	-0.077534	-0.355565	0.0493625	-0.286182	0.06126	-0.165513	0.134054	-0.302353	-0.0206135	-0.142198	0.157768	-0.352716	-0.145967	0.0656675	-0.219935	0.229144	
0.89569	0	0	0.014126	-0.10245	0.0282023	-0.242729	-0.0119717	-0.223803	-0.0196565	-0.214958	-0.145266	-0.0038535	-0.0942395	0.0039865	-0.206979	-0.119349	-0.019346	-0.0991723	-0.077534	-0.355565	0.0416982	-0.281174	0.059575	-0.160751	0.146633	-0.310572	-0.0398128	-0.129652	0.171862	-0.365135	-0.14237	0.0555018	-0.21868	0.2256	
0.897216	0	0	0.012618	-0.098188	0.026835	-0.238866	-0.014511	-0.216627	-0.014279	-0.212626	-0.136724	-0.004785	-0.097056	0.011946	-0.198921	-0.120223	-0.021425	-0.093297	-0.077534	-0.355565	0.034034	-0.276166	0.05789	-0.155989	0.159212	-0.318791	-0.059012	-0.117107	0.185955	-0.377555	-0.138773	0.045336	-0.217426	0.222055	
0.89569	0	0	0.022485	-0.0947965	0.0254675	-0.235001	-0.0187475	-0.204654	-0.0187683	-0.199939	-0.139937	0.00429525	-0.088068	0.0091345	-0.201955	-0.111648	-0.016121	-0.0899817	-0.0707268	-0.354634	0.0400143	-0.276415	0.0545175	-0.146458	0.145258	-0.306685	-0.059012	-0.117107	0.173339	-0.369312	-0.0989985	0.0349863	-0.225509	0.22189	
0.891112	0	0	0.032352	-0.091405	0.0241	-0.231135	-0.022984	-0.192681	-0.0232575	-0.187252	-0.14315	0.0133755	-0.07908	0.006323	-0.204989	-0.103073	-0.010817	-0.0866665	-0.0639195	-0.353704	0.0459945	-0.276664	0.051145	-0.136927	0.131303	-0.294578	-0.059012	-0.117107	0.160723	-0.361069	-0.059224	0.0246365	-0.233592	0.221724	
0.894164	0	0	0.042219	-0.0880135	0.0227325	-0.22727	-0.0272205	-0.180708	-0.0277468	-0.174564	-0.146363	0.0224558	-0.070092	0.0035115	-0.208023	-0.0944987	-0.005513	-0.0833513	-0.0571123	-0.352773	0.0519748	-0.276912	0.0477725	-0.127396	0.117349	-0.282472	-0.059012	-0.117107	0.148107	-0.352825	-0.0194495	0.0142868	-0.241674	0.221558	
0.89569	0	0	0.052086	-0.084622	0.021365	-0.223405	-0.031457	-0.168735	-0.032236	-0.161877	-0.149576	0.031536	-0.061104	0.0007	-0.211057	-0.085924	-0.000209	-0.080036	-0.050305	-0.351842	0.057955	-0.277161	0.0444	-0.117865	0.103395	-0.270366	-0.059012	-0.117107	0.135491	-0.344582	0.020325	0.003937	-0.249757	0.221393	
0.894164	0	0	0.0361797	-0.070946	0.021365	-0.223405	-0.0323048	-0.166339	-0.0304395	-0.166954	-0.148504	0.0285083	-0.070092	0.0035115	-0.212069	-0.083064	-0.009675	-0.0715887	-0.0511308	-0.349509	0.0494482	-0.269772	0.0444	-0.117865	0.0894588	-0.25827	-0.0611263	-0.111131	0.134014	-0.340406	0.020325	0.003937	-0.260334	0.228304	
0.894164	0	0	0.0202735	-0.05727	0.021365	-0.223405	-0.0331525	-0.163942	-0.028643	-0.172032	-0.147433	0.0254805	-0.07908	0.006323	-0.213081	-0.080204	-0.019141	-0.0631415	-0.0519565	-0.347175	0.0409415	-0.262384	0.0444	-0.117865	0.0755225	-0.246174	-0.0632405	-0.105156	0.132536	-0.336229	0.020325	0.003937	-0.27091	0.235216	
0.89569	0	0	0.00436725	-0.043594	0.021365	-0.223405	-0.0340002	-0.161546	-0.0268465	-0.177109	-0.146362	0.0224528	-0.088068	0.0091345	-0.214093	-0.077344	-0.028607	-0.0546942	-0.0527823	-0.344842	0.0324347	-0.254995	0.0444	-0.117865	0.0615862	-0.234078	-0.0653548	-0.0991805	0.131058	-0.332053	0.020325	0.003937	-0.281487	0.242127	
0.894164	0	0	-0.011539	-0.029918	0.021365	-0.223405	-0.034848	-0.159149	-0.02505	-0.182186	-0.14529	0.019425	-0.097056	0.011946	-0.215105	-0.074484	-0.038073	-0.046247	-0.053608	-0.342509	0.023928	-0.247607	0.0444	-0.117865	0.04765	-0.221982	-0.067469	-0.093205	0.129581	-0.327877	0.020325	0.003937	-0.292064	0.249038	
0.89569	0	0	-0.0130505	-0.025646	0.009662	-0.215758	-0.0365448	-0.154354	-0.033118	-0.176914	-0.155972	0.026405	-0.0852502	0.0011715	-0.227209	-0.062175	-0.037032	-0.0491893	-0.0628905	-0.336444	0.0256125	-0.252368	0.0444	-0.117865	0.0504012	-0.229758	-0.0653548	-0.0991805	0.132536	-0.336227	0.020325	0.003937	-0.288307	0.238421	
0.894164	0	0	-0.014562	-0.021374	-0.002041	-0.208111	-0.0382415	-0.149559	-0.041186	-0.171642	-0.166654	0.033385	-0.0734445	-0.009603	-0.239313	-0.049866	-0.035991	-0.0521315	-0.072173	-0.330378	0.027297	-0.257128	0.0444	-0.117865	0.0531525	-0.237534	-0.0632405	-0.105156	0.13549	-0.344577	0.020325	0.003937	-0.284551	0.227804	
0.89569	0	0	-0.0160735	-0.017102	-0.013744	-0.200464	-0.0399382	-0.144764	-0.049254	-0.16637	-0.177337	0.040365	-0.0616388	-0.0203775	-0.251418	-0.037557	-0.03495	-0.0550737	-0.0814555	-0.324313	0.0289815	-0.261889	0.0444	-0.117865	0.0559038	-0.245309	-0.0611263	-0.111131	0.138444	-0.352928	0.020325	0.003937	-0.280795	0.217187	
0.89569	0	0	-0.017585	-0.01283	-0.025447	-0.192817	-0.041635	-0.139969	-0.057322	-0.161098	-0.188019	0.047345	-0.049833	-0.031152	-0.263522	-0.025248	-0.033909	-0.058016	-0.090738	-0.318247	0.030666	-0.266649	0.0444	-0.117865	0.058655	-0.253085	-0.059012	-0.117107	0.141399	-0.361278	0.020325	0.003937	-0.277038	0.20657	
0.89569	0	0	-0.0190975	-0.008556	-0.0240795	-0.196682	-0.0433325	-0.135171	-0.0591185	-0.156021	-0.188019	0.047345	-0.0630477	-0.0163953	-0.254456	-0.0289713	-0.03495	-0.0550737	-0.09239	-0.313578	0.0289815	-0.261889	0.0427125	-0.113096	0.058655	-0.253085	-0.059012	-0.117107	0.141399	-0.361278	-0.0266475	0.0346298	-0.273286	0.195966	
0.89569	0	0	-0.02061	-0.004282	-0.022712	-0.200547	-0.04503	-0.130374	-0.060915	-0.150944	-0.188019	0.047345	-0.0762625	-0.0016385	-0.245389	-0.0326945	-0.035991	-0.0521315	-0.094042	-0.30891	0.027297	-0.257128	0.041025	-0.108326	0.058655	-0.253085	-0.059012	-0.117107	0.141399	-0.361278	-0.07362	0.0653225	-0.269533	0.185362	
0.89569	0	0	-0.0221225	-8E-06	-0.0213445	-0.204413	-0.0467275	-0.125577	-0.0627115	-0.145867	-0.188019	0.047345	-0.0894773	0.0131182	-0.236323	-0.0364177	-0.037032	-0.0491893	-0.095694	-0.304241	0.0256125	-0.252368	0.0393375	-0.103556	0.058655	-0.253085	-0.059012	-0.117107	0.141399	-0.361278	-0.120593	0.0960152	-0.265781	0.174757	
0.897216	0	0	-0.023635	0.004266	-0.019977	-0.208278	-0.048425	-0.120779	-0.064508	-0.14079	-0.188019	0.047345	-0.102692	0.027875	-0.227257	-0.040141	-0.038073	-0.046247	-0.097346	-0.299573	0.023928	-0.247607	0.03765	-0.098787	0.058655	-0.253085	-0.059012	-0.117107	0.141399	-0.361278	-0.167565	0.126708	-0.262029	0.164153	
0.89569	0	0	-0.025148	0.00854225	-0.030297	-0.204505	-0.048425	-0.120779	-0.0636097	-0.143329	-0.184807	0.0382675	-0.0984665	0.0159332	-0.236323	-0.0364177	-0.0433678	-0.0495708	-0.104141	-0.300516	0.0281375	-0.259503	0.03765	-0.098787	0.061404	-0.260854	-0.059012	-0.117107	0.139922	-0.357104	-0.167565	0.126708	-0.25953	0.15709	
0.894164	0	0	-0.026661	0.0128185	-0.040617	-0.200732	-0.048425	-0.120779	-0.0627115	-0.145867	-0.181595	0.02919	-0.094241	0.0039915	-0.245389	-0.0326945	-0.0486625	-0.0528945	-0.110936	-0.301459	0.032347	-0.2714	0.03765	-0.098787	0.064153	-0.268623	-0.059012	-0.117107	0.138445	-0.35293	-0.167565	0.126708	-0.257031	0.150028	
0.897216	0	0	-0.028174	0.0170948	-0.050937	-0.196959	-0.048425	-0.120779	-0.0618133	-0.148406	-0.178384	0.0201125	-0.0900155	-0.00795025	-0.254456	-0.0289713	-0.0539572	-0.0562182	-0.117731	-0.302402	0.0365565	-0.283297	0.03765	-0.098787	0.066902	-0.276392	-0.059012	-0.117107	0.136968	-0.348756	-0.167565	0.126708	-0.254532	0.142965	
0.897216	0	0	-0.029687	0.021371	-0.061257	-0.193186	-0.048425	-0.120779	-0.060915	-0.150945	-0.175172	0.011035	-0.08579	-0.019892	-0.263522	-0.025248	-0.059252	-0.059542	-0.124526	-0.303345	0.040766	-0.295193	0.03765	-0.098787	0.069651	-0.284161	-0.059012	-0.117107	0.135491	-0.344582	-0.167565	0.126708	-0.252033	0.135903	
0.897216	0	0	-0.0312008	0.025649	-0.0598905	-0.197048	-0.048425	-0.120779	-0.0519488	-0.158755	-0.183701	0.01196	-0.0829763	-0.0278445	-0.271564	-0.0243927	-0.0571725	-0.0654192	-0.122875	-0.308009	0.0347907	-0.294943	0.021825	-0.0921133	0.0584828	-0.279848	-0.059012	-0.117107	0.122894	-0.33635	-0.21068	0.147056	-0.258852	0.132222	
0.89569	0	0	-0.0327145	0.029927	-0.058524	-0.20091	-0.048425	-0.120779	-0.0429825	-0.166565	-0.19223	0.012885	-0.0801625	-0.035797	-0.279607	-0.0235375	-0.055093	-0.0712965	-0.121225	-0.312674	0.0288155	-0.294694	0.006	-0.0854395	0.0473145	-0.275535	-0.059012	-0.117107	0.110296	-0.328119	-0.253796	0.167405	-0.265671	0.128542	
0.897216	0	0	-0.0342283	0.034205	-0.0571575	-0.204772	-0.048425	-0.120779	-0.0340162	-0.174376	-0.20076	0.01381	-0.0773488	-0.0437495	-0.28765	-0.0226823	-0.0530135	-0.0771737	-0.119575	-0.317338	0.0228402	-0.294444	-0.009825	-0.0787657	0.0361463	-0.271222	-0.059012	-0.117107	0.0976993	-0.319887	-0.296911	0.187753	-0.272489	0.124861	
0.897216	0	0	-0.035742	0.038483	-0.055791	-0.208634	-0.048425	-0.120779	-0.02505	-0.182186	-0.209289	0.014735	-0.074535	-0.051702	-0.295692	-0.021827	-0.050934	-0.083051	-0.117924	-0.322003	0.016865	-0.294195	-0.02565	-0.072092	0.024978	-0.266909	-0.059012	-0.117107	0.085102	-0.311656	-0.340027	0.208101	-0.279308	0.12118	
0.894164	0	0	-0.0327153	0.0299288	-0.050331	-0.224065	-0.05542	-0.12174	-0.0295282	-0.187059	-0.207151	0.0086925	-0.0924802	-0.0460848	-0.293668	-0.0275463	-0.0646257	-0.0808765	-0.119575	-0.317338	0.0092145	-0.289196	-0.0307155	-0.0577763	0.0222303	-0.259143	-0.0611263	-0.111131	0.0962217	-0.315711	-0.38649	0.238461	-0.287365	0.121025	
0.897216	0	0	-0.0296885	0.0213745	-0.044871	-0.239496	-0.062415	-0.122701	-0.0340065	-0.191933	-0.205013	0.00265	-0.110426	-0.0404675	-0.291644	-0.0332655	-0.0783175	-0.078702	-0.121225	-0.312674	0.001564	-0.284197	-0.035781	-0.0434605	0.0194825	-0.251378	-0.0632405	-0.105156	0.107342	-0.319766	-0.432953	0.268821	-0.295422	0.12087	
0.894164	0	0	-0.0266618	0.0128202	-0.039411	-0.254926	-0.06941	-0.123663	-0.0384847	-0.196806	-0.202875	-0.0033925	-0.128371	-0.0348502	-0.289621	-0.0389847	-0.0920093	-0.0765275	-0.122875	-0.308009	-0.0060865	-0.279198	-0.0408465	-0.0291448	0.0167347	-0.243612	-0.0653548	-0.0991805	0.118461	-0.323822	-0.479417	0.299182	-0.303478	0.120716	
0.898741	0	0	-0.023635	0.004266	-0.033951	-0.270357	-0.076405	-0.124624	-0.042963	-0.20168	-0.200737	-0.009435	-0.146316	-0.029233	-0.287597	-0.044704	-0.105701	-0.074353	-0.124526	-0.303345	-0.013737	-0.274199	-0.045912	-0.014829	0.013987	-0.235846	-0.067469	-0.093205	0.129581	-0.327877	-0.52588	0.329542	-0.311535	0.120561	
0.89569	0	0	-0.0364937	0.0093825	-0.029862	-0.281913	-0.0747088	-0.129417	-0.0474378	-0.206547	-0.207121	-0.0145448	-0.139298	-0.0490655	-0.29462	-0.0467053	-0.108905	-0.0835315	-0.130488	-0.306619	-0.00869575	-0.288446	-0.0425343	-0.0243755	0.0181077	-0.247492	-0.084511	-0.0866635	0.119938	-0.327996	-0.42551	0.248337	-0.32886	0.123761	
0.897216	0	0	-0.0493525	0.014499	-0.025773	-0.293468	-0.0730125	-0.134211	-0.0519125	-0.211414	-0.213505	-0.0196545	-0.132281	-0.068898	-0.301643	-0.0487065	-0.112109	-0.09271	-0.136451	-0.309894	-0.0036545	-0.302693	-0.0391565	-0.033922	0.0222285	-0.259138	-0.101553	-0.080122	0.110295	-0.328115	-0.32514	0.167131	-0.346186	0.126962	
0.89569	0	0	-0.0622112	0.0196155	-0.021684	-0.305024	-0.0713162	-0.139005	-0.0563872	-0.216281	-0.219889	-0.0247643	-0.125263	-0.0887305	-0.308665	-0.0507077	-0.115313	-0.101888	-0.142413	-0.313168	0.00138675	-0.31694	-0.0357787	-0.0434685	0.0263493	-0.270784	-0.118595	-0.0735805	0.100653	-0.328234	-0.224771	0.0859255	-0.363511	0.130162	
0.894164	0	0	-0.07507	0.024732	-0.017595	-0.316579	-0.06962	-0.143798	-0.060862	-0.221148	-0.226273	-0.029874	-0.118246	-0.108563	-0.315688	-0.052709	-0.118517	-0.111067	-0.148375	-0.316443	0.006428	-0.331187	-0.032401	-0.053015	0.03047	-0.28243	-0.135637	-0.067039	0.09101	-0.328353	-0.124401	0.00472	-0.380836	0.133362	
0.89569	0	0	-0.0765825	0.029006	-0.0162333	-0.320428	-0.0791503	-0.137571	-0.0599662	-0.22368	-0.233716	-0.0319635	-0.123003	-0.117628	-0.322702	-0.05471	-0.122757	-0.117301	-0.155979	-0.315057	0.00130175	-0.333307	-0.0481903	-0.0463645	0.0318425	-0.286309	-0.135637	-0.067039	0.0939617	-0.336696	-0.120812	-0.00542275	-0.378347	0.126327	
0.89569	0	0	-0.078095	0.03328	-0.0148715	-0.324276	-0.0886805	-0.131344	-0.0590705	-0.226212	-0.241158	-0.034053	-0.127759	-0.126694	-0.329715	-0.056711	-0.126997	-0.123535	-0.163583	-0.313671	-0.0038245	-0.335428	-0.0639795	-0.039714	0.033215	-0.290188	-0.135637	-0.067039	0.0969135	-0.345038	-0.117223	-0.0155655	-0.375858	0.119292	
0.89569	0	0	-0.0796075	0.037554	-0.0135098	-0.328125	-0.0982107	-0.125116	-0.0581747	-0.228743	-0.248601	-0.0361425	-0.132516	-0.135759	-0.336728	-0.058712	-0.131236	-0.129769	-0.171186	-0.312285	-0.00895075	-0.337549	-0.0797687	-0.0330635	0.0345875	-0.294066	-0.135637	-0.067039	0.0998653	-0.35338	-0.113634	-0.0257083	-0.373368	0.112258	
0.898741	0	0	-0.08112	0.041828	-0.012148	-0.331974	-0.107741	-0.118889	-0.057279	-0.231275	-0.256043	-0.038232	-0.137272	-0.144824	-0.343742	-0.060713	-0.135476	-0.136003	-0.17879	-0.310899	-0.014077	-0.339669	-0.095558	-0.026413	0.03596	-0.297945	-0.135637	-0.067039	0.102817	-0.361723	-0.110045	-0.035851	-0.370879	0.105223	
0.897216	0	0	-0.075075	0.0247442	-0.0300332	-0.33211	-0.103504	-0.130862	-0.0581747	-0.246241	-0.263476	-0.0403213	-0.152361	-0.147117	-0.350747	-0.0627132	-0.138679	-0.145149	-0.177142	-0.315557	-0.0191983	-0.341788	-0.0972455	-0.0216435	0.03596	-0.297945	-0.135637	-0.067039	0.0887628	-0.349334	-0.203225	0.0250347	-0.360354	0.098346	
0.898741	0	0	-0.06903	0.0076605	-0.0479185	-0.332245	-0.099268	-0.142835	-0.0590705	-0.261207	-0.270908	-0.0424105	-0.167449	-0.149409	-0.357752	-0.0647135	-0.141881	-0.154295	-0.175494	-0.320214	-0.0243195	-0.343908	-0.098933	-0.016874	0.03596	-0.297945	-0.135637	-0.067039	0.0747085	-0.336944	-0.296405	0.0859205	-0.34983	0.091469	
0.89569	0	0	-0.062985	-0.00942325	-0.0658037	-0.33238	-0.0950315	-0.154808	-0.0599662	-0.276172	-0.27834	-0.0444997	-0.182537	-0.151701	-0.364757	-0.0667138	-0.145084	-0.163441	-0.173846	-0.324871	-0.0294408	-0.346027	-0.100621	-0.0121045	0.03596	-0.297945	-0.135637	-0.067039	0.0606543	-0.324555	-0.389584	0.146806	-0.339305	0.084592	
0.89569	0	0	-0.05694	-0.026507	-0.083689	-0.332516	-0.090795	-0.166781	-0.060862	-0.291138	-0.285773	-0.046589	-0.197626	-0.153994	-0.371762	-0.068714	-0.148287	-0.172587	-0.172198	-0.329529	-0.034562	-0.348146	-0.102308	-0.007335	0.03596	-0.297945	-0.135637	-0.067039	0.0466	-0.312165	-0.482764	0.207692	-0.32878	0.077715	
0.89569	0	0	-0.0554305	-0.0307727	-0.070675	-0.343972	-0.0882557	-0.173957	-0.058182	-0.298712	-0.281516	-0.0586207	-0.183104	-0.172583	-0.36773	-0.0801088	-0.152523	-0.178797	-0.177324	-0.335123	-0.030374	-0.359982	-0.098934	-0.0168713	0.0373317	-0.301822	-0.133524	-0.0730105	0.065077	-0.337054	-0.386	0.136675	-0.339305	0.084592	
0.89569	0	0	-0.053921	-0.0350385	-0.057661	-0.355428	-0.0857165	-0.181133	-0.055502	-0.306285	-0.277258	-0.0706525	-0.168581	-0.191172	-0.363698	-0.0915035	-0.156758	-0.185007	-0.182451	-0.340716	-0.026186	-0.371819	-0.09556	-0.0264075	0.0387035	-0.305698	-0.131411	-0.078982	0.083554	-0.361942	-0.289235	0.0656585	-0.34983	0.091469	
0.894164	0	0	-0.0524115	-0.0393042	-0.044647	-0.366885	-0.0831773	-0.188309	-0.052822	-0.313859	-0.273	-0.0826842	-0.154058	-0.209762	-0.359666	-0.102898	-0.160993	-0.191218	-0.187577	-0.34631	-0.021998	-0.383656	-0.092186	-0.0359437	0.0400752	-0.309575	-0.129298	-0.0849535	0.102031	-0.386831	-0.192471	-0.00535825	-0.360354	0.098346	
0.898741	0	0	-0.050902	-0.04357	-0.031633	-0.378341	-0.080638	-0.195485	-0.050142	-0.321433	-0.268743	-0.094716	-0.139536	-0.228351	-0.355634	-0.114293	-0.165229	-0.197428	-0.192703	-0.351904	-0.01781	-0.395492	-0.088812	-0.04548	0.041447	-0.313452	-0.127185	-0.090925	0.120508	-0.411719	-0.095706	-0.076375	-0.370879	0.105223	
0.897216	0	0	-0.0652493	-0.0341952	-0.0329918	-0.374501	-0.0814843	-0.193094	-0.0519282	-0.316385	-0.268743	-0.094716	-0.14987	-0.221598	-0.35362	-0.119985	-0.164197	-0.200345	-0.191058	-0.356553	-0.0237662	-0.395236	-0.088812	-0.04548	0.0289232	-0.305269	-0.125074	-0.0968927	0.107929	-0.4035	-0.138842	-0.0559692	-0.370879	0.105223	
0.892638	0	0	-0.0795965	-0.0248205	-0.0343505	-0.370661	-0.0823305	-0.190702	-0.0537145	-0.311336	-0.268743	-0.094716	-0.160205	-0.214845	-0.351606	-0.125676	-0.163164	-0.203262	-0.189413	-0.361202	-0.0297225	-0.394981	-0.088812	-0.04548	0.0163995	-0.297086	-0.122962	-0.10286	0.0953505	-0.395281	-0.181978	-0.0355635	-0.370879	0.105223	
0.891112	0	0	-0.0939437	-0.0154458	-0.0357092	-0.36682	-0.0831767	-0.188311	-0.0555008	-0.306287	-0.268743	-0.094716	-0.17054	-0.208093	-0.349592	-0.131368	-0.162132	-0.206179	-0.187768	-0.36585	-0.0356787	-0.394726	-0.088812	-0.04548	0.00387575	-0.288902	-0.12085	-0.108828	0.0827718	-0.387061	-0.225113	-0.0151577	-0.370879	0.105223	
0.89569	0	0	-0.108291	-0.006071	-0.037068	-0.36298	-0.084023	-0.18592	-0.057287	-0.301239	-0.268743	-0.094716	-0.180874	-0.20134	-0.347578	-0.13706	-0.1611	-0.209096	-0.186123	-0.370499	-0.041635	-0.39447	-0.088812	-0.04548	-0.008648	-0.280719	-0.118739	-0.114796	0.070193	-0.378842	-0.268249	0.005248	-0.370879	0.105223	
0.89569	0	0	-0.105274	-0.0145968	-0.0357092	-0.36682	-0.082331	-0.190702	-0.0555008	-0.306287	-0.27617	-0.0967925	-0.175298	-0.217097	-0.35458	-0.139043	-0.148607	-0.226222	-0.191247	-0.376078	-0.0366192	-0.408645	-0.0837573	-0.059765	0.0066175	-0.296651	-0.12085	-0.108828	0.0716658	-0.383005	-0.268249	0.005248	-0.373368	0.112258	
0.897216	0	0	-0.102258	-0.0231225	-0.0343505	-0.370661	-0.080639	-0.195484	-0.0537145	-0.311336	-0.283597	-0.098869	-0.169722	-0.232855	-0.361582	-0.141027	-0.136114	-0.243348	-0.196371	-0.381657	-0.0316035	-0.422821	-0.0787025	-0.07405	0.021883	-0.312584	-0.122962	-0.10286	0.0731385	-0.387167	-0.268249	0.005248	-0.375858	0.119292	
0.894164	0	0	-0.0992408	-0.0316483	-0.0329918	-0.374501	-0.078947	-0.200266	-0.0519282	-0.316385	-0.291024	-0.100945	-0.164147	-0.248612	-0.368583	-0.143011	-0.123622	-0.260475	-0.201495	-0.387236	-0.0265878	-0.436997	-0.0736477	-0.088335	0.0371485	-0.328516	-0.125074	-0.0968927	0.0746113	-0.391329	-0.268249	0.005248	-0.378347	0.126327	
0.89569	0	0	-0.096224	-0.040174	-0.031633	-0.378341	-0.077255	-0.205048	-0.050142	-0.321433	-0.298451	-0.103022	-0.158571	-0.26437	-0.375585	-0.144994	-0.111129	-0.277601	-0.206619	-0.392815	-0.021572	-0.451172	-0.068593	-0.10262	0.052414	-0.344448	-0.127185	-0.090925	0.076084	-0.395492	-0.268249	0.005248	-0.380836	0.133362	
0.897216	0	0	-0.0947168	-0.0444338	-0.031633	-0.378341	-0.085929	-0.201218	-0.0492493	-0.323956	-0.296327	-0.109026	-0.155787	-0.272238	-0.37458	-0.147836	-0.117436	-0.277957	-0.204156	-0.399775	-0.025856	-0.455629	-0.0652278	-0.112131	0.0412605	-0.340137	-0.122963	-0.102857	0.0664673	-0.395604	-0.2611	-0.014957	-0.369066	0.122967	
0.897216	0	0	-0.0932095	-0.0486935	-0.031633	-0.378341	-0.094603	-0.197387	-0.0483565	-0.326479	-0.294202	-0.11503	-0.153003	-0.280107	-0.373574	-0.150678	-0.123743	-0.278313	-0.201693	-0.406734	-0.03014	-0.460086	-0.0618625	-0.121642	0.030107	-0.335825	-0.118741	-0.114788	0.0568505	-0.395715	-0.253951	-0.035162	-0.357297	0.112572	
0.897216	0	0	-0.0917022	-0.0529533	-0.031633	-0.378341	-0.103277	-0.193557	-0.0474637	-0.329002	-0.292077	-0.121033	-0.150219	-0.287975	-0.372568	-0.15352	-0.13005	-0.27867	-0.199231	-0.413694	-0.034424	-0.464542	-0.0584973	-0.131152	0.0189535	-0.331514	-0.11452	-0.126719	0.0472337	-0.395827	-0.246801	-0.055367	-0.345527	0.102177	
0.89569	0	0	-0.090195	-0.057213	-0.031633	-0.378341	-0.111951	-0.189727	-0.046571	-0.331525	-0.289953	-0.127037	-0.147435	-0.295844	-0.371563	-0.156362	-0.136357	-0.279026	-0.196768	-0.420654	-0.038708	-0.468999	-0.055132	-0.140663	0.0078	-0.327203	-0.110298	-0.138651	0.037617	-0.395939	-0.239652	-0.075572	-0.333757	0.091782	
0.897216	0	0	-0.0886885	-0.0614708	-0.0302748	-0.38218	-0.111105	-0.192116	-0.0394108	-0.334264	-0.291015	-0.124036	-0.138492	-0.298663	-0.381572	-0.149822	-0.134298	-0.284846	-0.195128	-0.425291	-0.0378735	-0.471357	-0.0534507	-0.145415	0.0189535	-0.331514	-0.108189	-0.144611	0.0501775	-0.404146	-0.243225	-0.0654752	-0.345527	0.102177	
0.898741	0	0	-0.087182	-0.0657285	-0.0289165	-0.386018	-0.11026	-0.194506	-0.0322505	-0.337003	-0.292077	-0.121034	-0.12955	-0.301482	-0.39158	-0.143282	-0.132238	-0.290666	-0.193487	-0.429928	-0.037039	-0.473715	-0.0517695	-0.150167	0.030107	-0.335825	-0.10608	-0.15057	0.062738	-0.412353	-0.246798	-0.0553785	-0.357297	0.112572	
0.894164	0	0	-0.0856755	-0.0699862	-0.0275582	-0.389856	-0.109414	-0.196896	-0.0250903	-0.339742	-0.293139	-0.118032	-0.120607	-0.304302	-0.401589	-0.136742	-0.130179	-0.296485	-0.191846	-0.434565	-0.0362045	-0.476072	-0.0500883	-0.154918	0.0412605	-0.340137	-0.103972	-0.156529	0.0752985	-0.420561	-0.25037	-0.0452818	-0.369066	0.122967	
0.89569	0	0	-0.084169	-0.074244	-0.0262	-0.393695	-0.108569	-0.199285	-0.01793	-0.342481	-0.294201	-0.115031	-0.111664	-0.307121	-0.411598	-0.130202	-0.128119	-0.302305	-0.190206	-0.439202	-0.03537	-0.47843	-0.048407	-0.15967	0.052414	-0.344448	-0.101863	-0.162489	0.087859	-0.428768	-0.253943	-0.035185	-0.380836	0.133362	
0.892638	0	0	-0.0826632	-0.0784998	-0.0364975	-0.389916	-0.106879	-0.204062	-0.0152525	-0.350048	-0.292077	-0.121033	-0.110272	-0.311055	-0.409588	-0.135883	-0.13442	-0.302659	-0.19615	-0.442442	-0.029536	-0.494918	-0.0624885	-0.157769	0.0314933	-0.339704	-0.123085	-0.14404	0.0863875	-0.424609	-0.25037	-0.0452818	-0.382081	0.136881	
0.894164	0	0	-0.0811575	-0.0827555	-0.046795	-0.386138	-0.105188	-0.208839	-0.012575	-0.357615	-0.289954	-0.127034	-0.10888	-0.314988	-0.407578	-0.141564	-0.140722	-0.303013	-0.202093	-0.445682	-0.023702	-0.511406	-0.07657	-0.155868	0.0105725	-0.33496	-0.144308	-0.125591	0.084916	-0.420451	-0.246798	-0.0553785	-0.383327	0.140401	
0.894164	0	0	-0.0796517	-0.0870112	-0.0570925	-0.382359	-0.103497	-0.213616	-0.0098975	-0.365183	-0.28783	-0.133036	-0.107489	-0.318921	-0.405567	-0.147245	-0.147024	-0.303367	-0.208037	-0.448923	-0.017868	-0.527894	-0.0906515	-0.153967	-0.0103483	-0.330217	-0.16553	-0.107143	0.0834445	-0.416293	-0.243225	-0.0654752	-0.384572	0.143921	
0.894164	0	0	-0.078146	-0.091267	-0.06739	-0.37858	-0.101807	-0.218393	-0.00722	-0.37275	-0.285707	-0.139038	-0.106097	-0.322855	-0.403557	-0.152926	-0.153325	-0.303721	-0.213981	-0.452163	-0.012034	-0.544382	-0.104733	-0.152066	-0.031269	-0.325473	-0.186752	-0.088694	0.081973	-0.412134	-0.239652	-0.075572	-0.385817	0.14744	
0.894164	0	0	-0.0924693	-0.0819078	-0.0584508	-0.37852	-0.101807	-0.218393	-0.00900475	-0.367706	-0.285707	-0.139038	-0.108881	-0.314987	-0.392544	-0.162305	-0.154354	-0.300814	-0.212343	-0.456792	-0.018818	-0.541758	-0.101377	-0.161552	-0.0187635	-0.333644	-0.16553	-0.107143	0.0679405	-0.399766	-0.286115	-0.0452118	-0.384572	0.143921	
0.897216	0	0	-0.106792	-0.0725485	-0.0495115	-0.37846	-0.101807	-0.218393	-0.0107895	-0.362662	-0.285707	-0.139038	-0.111665	-0.307118	-0.38153	-0.171685	-0.155382	-0.297906	-0.210705	-0.461422	-0.025602	-0.539134	-0.0980205	-0.171037	-0.006258	-0.341815	-0.144308	-0.125591	0.053908	-0.387398	-0.332578	-0.0148515	-0.383327	0.140401	
0.892638	0	0	-0.121116	-0.0631893	-0.0405723	-0.378401	-0.101807	-0.218393	-0.0125743	-0.357617	-0.285707	-0.139038	-0.114449	-0.29925	-0.370517	-0.181064	-0.156411	-0.294998	-0.209066	-0.466052	-0.032386	-0.53651	-0.0946643	-0.180523	0.0062475	-0.349987	-0.123085	-0.14404	0.0398755	-0.375031	-0.379042	0.0155087	-0.382081	0.136881	
0.894164	0	0	-0.135439	-0.05383	-0.031633	-0.378341	-0.101807	-0.218393	-0.014359	-0.352573	-0.285707	-0.139038	-0.117233	-0.291381	-0.359504	-0.190443	-0.15744	-0.292091	-0.207428	-0.470681	-0.03917	-0.533886	-0.091308	-0.190008	0.018753	-0.358158	-0.101863	-0.162489	0.025843	-0.362663	-0.425505	0.045869	-0.380836	0.133362	
0.897216	0	0	-0.133934	-0.0580838	-0.0302748	-0.38218	-0.110472	-0.214567	-0.022412	-0.347311	-0.28783	-0.133036	-0.122809	-0.275624	-0.370517	-0.181064	-0.159499	-0.286273	-0.21746	-0.462347	-0.0340518	-0.531802	-0.0929855	-0.185267	0.013274	-0.342674	-0.123085	-0.14404	0.0450865	-0.362428	-0.379042	0.0155088	-0.384573	0.143925	
0.89569	0	0	-0.132429	-0.0623375	-0.0289165	-0.386018	-0.119136	-0.210741	-0.030465	-0.342049	-0.289954	-0.127034	-0.128385	-0.259866	-0.38153	-0.171685	-0.161557	-0.280455	-0.227492	-0.454013	-0.0289335	-0.529718	-0.094663	-0.180525	0.007795	-0.32719	-0.144308	-0.125591	0.06433	-0.362193	-0.332578	-0.0148515	-0.388311	0.154487	
0.894164	0	0	-0.130923	-0.0665913	-0.0275582	-0.389856	-0.127801	-0.206915	-0.038518	-0.336787	-0.292077	-0.121033	-0.13396	-0.244109	-0.392544	-0.162305	-0.163616	-0.274637	-0.237523	-0.445678	-0.0238152	-0.527635	-0.0963405	-0.175784	0.002316	-0.311705	-0.16553	-0.107143	0.0835735	-0.361958	-0.286115	-0.0452117	-0.392048	0.165049	
0.89569	0	0	-0.129418	-0.070845	-0.0262	-0.393695	-0.136465	-0.203089	-0.046571	-0.331525	-0.294201	-0.115031	-0.139536	-0.228351	-0.403557	-0.152926	-0.165675	-0.268819	-0.247555	-0.437344	-0.018697	-0.525551	-0.098018	-0.171042	-0.003163	-0.296221	-0.186752	-0.088694	0.102817	-0.361723	-0.239652	-0.075572	-0.395785	0.175612	
0.89569	0	0	-0.115095	-0.080204	-0.028917	-0.386016	-0.126956	-0.209303	-0.0483568	-0.326478	-0.295264	-0.112029	-0.133377	-0.223276	-0.404562	-0.150086	-0.159376	-0.268459	-0.237523	-0.445678	-0.0263135	-0.520574	-0.098018	-0.171042	-0.00453425	-0.292346	-0.186752	-0.088694	0.0983883	-0.349206	-0.239652	-0.075572	-0.392048	0.165049	
0.89569	0	0	-0.100771	-0.089563	-0.031634	-0.378337	-0.117447	-0.215516	-0.0501425	-0.321431	-0.296326	-0.109026	-0.127219	-0.2182	-0.405567	-0.147246	-0.153076	-0.268099	-0.227492	-0.454013	-0.03393	-0.515597	-0.098018	-0.171042	-0.0059055	-0.28847	-0.186752	-0.088694	0.0939595	-0.336689	-0.239652	-0.075572	-0.388311	0.154487	
0.89569	0	0	-0.0864483	-0.098922	-0.034351	-0.370659	-0.107937	-0.221729	-0.0519282	-0.316384	-0.297389	-0.106024	-0.12106	-0.213124	-0.406572	-0.144406	-0.146776	-0.26774	-0.21746	-0.462347	-0.0415465	-0.510621	-0.098018	-0.171042	-0.00727675	-0.284594	-0.186752	-0.088694	0.0895307	-0.324173	-0.239652	-0.075572	-0.384573	0.143925	
0.89569	0	0	-0.072125	-0.108281	-0.037068	-0.36298	-0.098428	-0.227943	-0.053714	-0.311337	-0.298451	-0.103022	-0.114901	-0.208049	-0.407577	-0.141566	-0.140477	-0.26738	-0.207428	-0.470681	-0.049163	-0.505644	-0.098018	-0.171042	-0.008648	-0.280719	-0.186752	-0.088694	0.085102	-0.311656	-0.239652	-0.075572	-0.380836	0.133362	
0.89569	0	0	-0.0879535	-0.0946683	-0.0397875	-0.355295	-0.101809	-0.218389	-0.05013	-0.303969	-0.291024	-0.100945	-0.110134	-0.199012	-0.400585	-0.13958	-0.135202	-0.264108	-0.208247	-0.468367	-0.0432133	-0.50591	-0.098018	-0.171042	-0.0113922	-0.272964	-0.186752	-0.088694	0.090304	-0.298987	-0.236084	-0.0856573	-0.382081	0.136881	
0.892638	0	0	-0.103782	-0.0810555	-0.042507	-0.347609	-0.105189	-0.208835	-0.046546	-0.296601	-0.283597	-0.098869	-0.105368	-0.189974	-0.393593	-0.137595	-0.129927	-0.260835	-0.209066	-0.466052	-0.0372635	-0.506177	-0.098018	-0.171042	-0.0141365	-0.265208	-0.186752	-0.088694	0.095506	-0.286319	-0.232515	-0.0957425	-0.383327	0.140401	
0.894164	0	0	-0.119611	-0.0674427	-0.0452265	-0.339923	-0.10857	-0.199281	-0.042962	-0.289234	-0.27617	-0.0967925	-0.100601	-0.180937	-0.386601	-0.135609	-0.124652	-0.257563	-0.209885	-0.463738	-0.0313138	-0.506444	-0.098018	-0.171042	-0.0168807	-0.257452	-0.186752	-0.088694	0.100708	-0.273651	-0.228946	-0.105828	-0.384572	0.143921	
0.897216	0	0	-0.135439	-0.05383	-0.047946	-0.332238	-0.111951	-0.189727	-0.039378	-0.281866	-0.268743	-0.094716	-0.095834	-0.1719	-0.379609	-0.133623	-0.119377	-0.254291	-0.210704	-0.461423	-0.025364	-0.50671	-0.098018	-0.171042	-0.019625	-0.249697	-0.186752	-0.088694	0.10591	-0.260982	-0.225378	-0.115913	-0.385817	0.14744	
0.89569	0	0	-0.121116	-0.0631893	-0.0596013	-0.324622	-0.111105	-0.192116	-0.0366957	-0.289446	-0.270871	-0.0887022	-0.101437	-0.156066	-0.381622	-0.127935	-0.122472	-0.245543	-0.212342	-0.456792	-0.0287	-0.497282	-0.0839348	-0.172948	-0.011222	-0.246234	-0.17186	-0.0892517	0.108144	-0.239883	-0.232519	-0.095731	-0.381526	0.158181	
0.89569	0	0	-0.106792	-0.0725485	-0.0712565	-0.317006	-0.11026	-0.194506	-0.0340135	-0.297026	-0.272999	-0.0826885	-0.10704	-0.140232	-0.383634	-0.122246	-0.125568	-0.236794	-0.213981	-0.452161	-0.032036	-0.487854	-0.0698515	-0.174854	-0.002819	-0.242772	-0.156969	-0.0898095	0.110377	-0.218783	-0.23966	-0.075549	-0.377235	0.168922	
0.892638	0	0	-0.0924693	-0.0819078	-0.0829118	-0.30939	-0.109414	-0.196896	-0.0313313	-0.304606	-0.275127	-0.0766747	-0.112643	-0.124397	-0.385647	-0.116558	-0.128663	-0.228046	-0.21562	-0.447531	-0.035372	-0.478427	-0.0557682	-0.17676	0.005584	-0.239309	-0.142077	-0.0903673	0.112611	-0.197684	-0.246802	-0.055367	-0.372944	0.179663	
0.897216	0	0	-0.078146	-0.091267	-0.094567	-0.301774	-0.108569	-0.199285	-0.028649	-0.312186	-0.277255	-0.070661	-0.118246	-0.108563	-0.38766	-0.11087	-0.131759	-0.219298	-0.217258	-0.4429	-0.038708	-0.468999	-0.041685	-0.178666	0.013987	-0.235846	-0.127185	-0.090925	0.114844	-0.176585	-0.253943	-0.035185	-0.368653	0.190404	
0.892638	0	0	-0.078146	-0.091267	-0.0842722	-0.305545	-0.108569	-0.199285	-0.029543	-0.30966	-0.278319	-0.0676525	-0.119648	-0.1046	-0.389674	-0.105178	-0.126482	-0.216014	-0.217258	-0.4429	-0.031919	-0.471622	-0.057447	-0.172016	0.012612	-0.231961	-0.127185	-0.090925	0.110384	-0.16398	-0.203654	-0.0758072	-0.358115	0.183518	
0.89569	0	0	-0.078146	-0.091267	-0.0739775	-0.309315	-0.108569	-0.199285	-0.030437	-0.307134	-0.279384	-0.064644	-0.121051	-0.100637	-0.391688	-0.0994865	-0.121205	-0.21273	-0.217258	-0.4429	-0.02513	-0.474244	-0.073209	-0.165366	0.011237	-0.228075	-0.127185	-0.090925	0.105924	-0.151375	-0.153364	-0.116429	-0.347577	0.176632	
0.894164	0	0	-0.078146	-0.091267	-0.0636827	-0.313086	-0.108569	-0.199285	-0.031331	-0.304608	-0.280448	-0.0616355	-0.122453	-0.096674	-0.393702	-0.0937947	-0.115928	-0.209446	-0.217258	-0.4429	-0.018341	-0.476866	-0.088971	-0.158716	0.009862	-0.224189	-0.127185	-0.090925	0.101463	-0.138771	-0.103075	-0.157052	-0.33704	0.169747	
0.892638	0	0	-0.078146	-0.091267	-0.053388	-0.316857	-0.108569	-0.199285	-0.032225	-0.302082	-0.281513	-0.058627	-0.123855	-0.092711	-0.395716	-0.088103	-0.110651	-0.206162	-0.217258	-0.4429	-0.011552	-0.479489	-0.104733	-0.152066	0.008487	-0.220304	-0.127185	-0.090925	0.097003	-0.126166	-0.052786	-0.197674	-0.326502	0.162861	
0.894164	0	0	-0.0811582	-0.0827535	-0.0574732	-0.305311	-0.111106	-0.192115	-0.027742	-0.297238	-0.275146	-0.0535282	-0.108714	-0.0904043	-0.388719	-0.0861058	-0.107438	-0.197026	-0.218897	-0.438267	-0.015728	-0.467687	-0.106413	-0.147319	0.004359	-0.208638	-0.131412	-0.0789777	0.10219	-0.113374	-0.103075	-0.157052	-0.320947	0.170087	
0.891112	0	0	-0.0841705	-0.07424	-0.0615585	-0.293766	-0.113643	-0.184945	-0.023259	-0.292394	-0.268778	-0.0484295	-0.093572	-0.0880975	-0.381722	-0.0841085	-0.104225	-0.18789	-0.220537	-0.433634	-0.019904	-0.455885	-0.108092	-0.142573	0.000231	-0.196971	-0.135639	-0.0670305	0.107377	-0.100581	-0.153364	-0.116429	-0.315393	0.177312	
0.89569	0	0	-0.0871828	-0.0657265	-0.0656438	-0.28222	-0.11618	-0.177774	-0.018776	-0.28755	-0.26241	-0.0433308	-0.0784305	-0.0857907	-0.374725	-0.0821112	-0.101012	-0.178754	-0.222176	-0.429	-0.02408	-0.444083	-0.109771	-0.137827	-0.003897	-0.185305	-0.139867	-0.0550833	0.112564	-0.0877892	-0.203654	-0.0758072	-0.309839	0.184537	
0.900267	0	0	-0.090195	-0.057213	-0.069729	-0.270674	-0.118717	-0.170604	-0.014293	-0.282706	-0.256043	-0.038232	-0.063289	-0.083484	-0.367728	-0.080114	-0.097799	-0.169618	-0.223816	-0.424367	-0.028256	-0.432281	-0.111451	-0.13308	-0.008025	-0.173639	-0.144094	-0.043136	0.117751	-0.074997	-0.253943	-0.035185	-0.304284	0.191763	
0.897216	0	0	-0.090195	-0.057213	-0.071092	-0.266822	-0.117871	-0.172995	-0.0223535	-0.277439	-0.257109	-0.0352185	-0.0736737	-0.0766985	-0.369745	-0.074413	-0.100906	-0.160838	-0.225456	-0.419731	-0.0316007	-0.422828	-0.09569	-0.139728	-0.0135372	-0.15806	-0.129171	-0.04369	0.116954	-0.0452532	-0.303983	0.0052835	-0.311793	0.212984	
0.89569	0	0	-0.090195	-0.057213	-0.072455	-0.26297	-0.117025	-0.175385	-0.030414	-0.272172	-0.258176	-0.032205	-0.0840585	-0.069913	-0.371762	-0.068712	-0.104013	-0.152058	-0.227096	-0.415096	-0.0349455	-0.413376	-0.079929	-0.146375	-0.0190495	-0.142481	-0.114248	-0.044244	0.116157	-0.0155095	-0.354023	0.045752	-0.319302	0.234206	
0.898741	0	0	-0.090195	-0.057213	-0.073818	-0.259118	-0.116179	-0.177776	-0.0384745	-0.266905	-0.259242	-0.0291915	-0.0944433	-0.0631275	-0.37378	-0.063011	-0.107119	-0.143279	-0.228737	-0.41046	-0.0382902	-0.403923	-0.064168	-0.153023	-0.0245618	-0.126902	-0.0993243	-0.044798	0.11536	0.0142343	-0.404062	0.0862205	-0.32681	0.255427	
0.892638	0	0	-0.090195	-0.057213	-0.075181	-0.255266	-0.115333	-0.180167	-0.046535	-0.261638	-0.260308	-0.026178	-0.104828	-0.056342	-0.375797	-0.05731	-0.110226	-0.134499	-0.230377	-0.405824	-0.041635	-0.39447	-0.048407	-0.15967	-0.030074	-0.111323	-0.084401	-0.045352	0.114563	0.043978	-0.454102	0.126689	-0.334319	0.276648	
0.89569	0	0	-0.078863	-0.0580662	-0.0792733	-0.2437	-0.117025	-0.175385	-0.0429522	-0.25425	-0.263509	-0.0171315	-0.110453	-0.040444	-0.377815	-0.0516055	-0.107019	-0.12533	-0.231198	-0.403505	-0.038191	-0.387625	-0.0658482	-0.148273	-0.0216727	-0.107816	-0.0886398	-0.0333725	0.108567	0.060924	-0.407639	0.0963287	-0.319449	0.280557	
0.89569	0	0	-0.067531	-0.0589195	-0.0833655	-0.232135	-0.118718	-0.170602	-0.0393695	-0.246862	-0.26671	-0.008085	-0.116079	-0.024546	-0.379834	-0.045901	-0.103811	-0.116162	-0.232018	-0.401187	-0.034747	-0.380781	-0.0832895	-0.136877	-0.0132715	-0.104309	-0.0928785	-0.021393	0.102571	0.07787	-0.361175	0.0659685	-0.30458	0.284467	
0.894164	0	0	-0.056199	-0.0597727	-0.0874578	-0.22057	-0.12041	-0.16582	-0.0357868	-0.239474	-0.269911	0.0009615	-0.121704	-0.008648	-0.381853	-0.0401965	-0.100603	-0.106993	-0.232839	-0.398868	-0.031303	-0.373937	-0.100731	-0.12548	-0.00487025	-0.100803	-0.0971173	-0.0094135	0.096575	0.094816	-0.314712	0.0356083	-0.28971	0.288376	
0.892638	0	0	-0.044867	-0.060626	-0.09155	-0.209004	-0.122102	-0.161038	-0.032204	-0.232086	-0.273112	0.010008	-0.127329	0.00725	-0.383871	-0.034492	-0.097396	-0.097824	-0.233659	-0.396549	-0.027859	-0.367092	-0.118172	-0.114083	0.003531	-0.097296	-0.101356	0.002566	0.090579	0.111762	-0.268249	0.005248	-0.274841	0.292285	
0.894164	0	0	-0.0478852	-0.0520962	-0.0853438	-0.201186	-0.124642	-0.15386	-0.02862	-0.224685	-0.267812	0.0181522	-0.131554	0.0191918	-0.378891	-0.0267698	-0.0952285	-0.0856982	-0.228542	-0.390973	-0.0260917	-0.355493	-0.107461	-0.106458	-0.0047665	-0.073846	-0.109851	0.0265727	0.0897175	0.141729	-0.275415	0.0254987	-0.26119	0.299751	
0.897216	0	0	-0.0509035	-0.0435665	-0.0791375	-0.193368	-0.127182	-0.146682	-0.025036	-0.217284	-0.262512	0.0262965	-0.13578	0.0311335	-0.373911	-0.0190475	-0.093061	-0.0735725	-0.223424	-0.385397	-0.0243245	-0.343895	-0.0967505	-0.0988335	-0.013064	-0.050396	-0.118346	0.0505795	0.088856	0.171696	-0.28258	0.0457495	-0.247539	0.307218	
0.898741	0	0	-0.0539217	-0.0350368	-0.0729313	-0.18555	-0.129721	-0.139504	-0.021452	-0.209883	-0.257212	0.0344407	-0.140006	0.0430753	-0.36893	-0.0113252	-0.0908935	-0.0614467	-0.218307	-0.37982	-0.0225573	-0.332296	-0.0860397	-0.0912088	-0.0213615	-0.026946	-0.12684	0.0745863	0.0879945	0.201662	-0.289745	0.0660002	-0.233888	0.314684	
0.89569	0	0	-0.05694	-0.026507	-0.066725	-0.177732	-0.132261	-0.132326	-0.017868	-0.202482	-0.251912	0.042585	-0.144231	0.055017	-0.36395	-0.003603	-0.088726	-0.049321	-0.21319	-0.374244	-0.02079	-0.320698	-0.075329	-0.083584	-0.029659	-0.003496	-0.135335	0.098593	0.087133	0.231629	-0.296911	0.086251	-0.220237	0.32215	
0.897216	0	0	-0.05845	-0.022239	-0.0708297	-0.166131	-0.133956	-0.127537	-0.02146	-0.192331	-0.252982	0.0456078	-0.133846	0.0482315	-0.365973	0.0021145	-0.092888	-0.0375588	-0.214012	-0.371922	-0.0148252	-0.320947	-0.0770137	-0.0788223	-0.0198693	-0.00387275	-0.143852	0.122665	0.0907692	0.248926	-0.3005	0.0963938	-0.230321	0.350648	
0.897216	0	0	-0.05996	-0.017971	-0.0749345	-0.154531	-0.13565	-0.122749	-0.025052	-0.182179	-0.254051	0.0486305	-0.123462	0.041446	-0.367996	0.007832	-0.09705	-0.0257965	-0.214834	-0.369599	-0.0088605	-0.321197	-0.0786985	-0.0740605	-0.0100795	-0.0042495	-0.15237	0.146736	0.0944055	0.266222	-0.304089	0.106536	-0.240405	0.379146	
0.898741	0	0	-0.06147	-0.013703	-0.0790393	-0.14293	-0.137344	-0.11796	-0.028644	-0.172028	-0.25512	0.0516532	-0.113077	0.0346605	-0.370019	0.0135495	-0.101212	-0.0140343	-0.215655	-0.367277	-0.00289575	-0.321446	-0.0803833	-0.0692987	-0.00028975	-0.00462625	-0.160888	0.170808	0.0980418	0.283519	-0.307678	0.116679	-0.250488	0.407645	
0.891112	0	0	-0.06298	-0.009435	-0.083144	-0.131329	-0.139039	-0.113172	-0.032236	-0.161877	-0.25619	0.054676	-0.102692	0.027875	-0.372042	0.019267	-0.105374	-0.002272	-0.216477	-0.364954	0.003069	-0.321696	-0.082068	-0.064537	0.0095	-0.005003	-0.169405	0.19488	0.101678	0.300816	-0.311267	0.126822	-0.260572	0.436143	
0.897216	0	0	-0.0660025	-0.00089325	-0.0886252	-0.115838	-0.131215	-0.114601	-0.027756	-0.156991	-0.25726	0.0576998	-0.101283	0.0238928	-0.364022	0.0184253	-0.10009	0.00106575	-0.208066	-0.368664	-0.00029175	-0.312198	-0.083754	-0.0597727	0.00533925	0.0067555	-0.175808	0.212977	0.105307	0.318174	-0.27174	0.116616	-0.256275	0.447064	
0.89569	0	0	-0.069025	0.0076485	-0.0941065	-0.100347	-0.12339	-0.11603	-0.023276	-0.152106	-0.25833	0.0607235	-0.099874	0.0199105	-0.356003	0.0175835	-0.094807	0.0044035	-0.199656	-0.372374	-0.0036525	-0.3027	-0.08544	-0.0550085	0.0011785	0.018514	-0.182211	0.231073	0.108936	0.335532	-0.232214	0.10641	-0.251978	0.457985	
0.897216	0	0	-0.0720475	0.0161903	-0.0995878	-0.084856	-0.115566	-0.11746	-0.018796	-0.14722	-0.2594	0.0637473	-0.098465	0.0159283	-0.347984	0.0167417	-0.0895235	0.00774125	-0.191246	-0.376083	-0.00701325	-0.293201	-0.087126	-0.0502442	-0.00298225	0.0302725	-0.188614	0.249169	0.112565	0.35289	-0.192688	0.0962048	-0.24768	0.468905	
0.894164	0	0	-0.07507	0.024732	-0.105069	-0.069365	-0.107741	-0.118889	-0.014316	-0.142334	-0.26047	0.066771	-0.097056	0.011946	-0.339964	0.0159	-0.08424	0.011079	-0.182835	-0.379793	-0.010374	-0.283703	-0.088812	-0.04548	-0.007143	0.042031	-0.195017	0.267266	0.116194	0.370248	-0.153161	0.085999	-0.243383	0.479826	
0.898741	0	0	-0.0780955	0.0332822	-0.0961262	-0.069246	-0.109437	-0.114095	-0.0197177	-0.127068	-0.251955	0.065859	-0.098465	0.0159282	-0.340977	0.0187618	-0.079995	0.017369	-0.186948	-0.368169	-0.0086135	-0.272056	-0.078087	-0.0378172	-0.0140895	0.061663	-0.186519	0.284963	0.128	0.392235	-0.160367	0.106365	-0.241621	0.497941	
0.900267	0	0	-0.081121	0.0418325	-0.0871835	-0.069127	-0.111133	-0.109302	-0.0251195	-0.111802	-0.243441	0.064947	-0.099874	0.0199105	-0.34199	0.0216235	-0.07575	0.023659	-0.191061	-0.356545	-0.006853	-0.260409	-0.067362	-0.0301545	-0.021036	0.081295	-0.17802	0.30266	0.139805	0.414222	-0.167573	0.126731	-0.23986	0.516057	
0.900267	0	0	-0.0841465	0.0503827	-0.0782407	-0.069008	-0.11283	-0.104509	-0.0305212	-0.096536	-0.234926	0.064035	-0.101283	0.0238927	-0.343002	0.0244853	-0.071505	0.029949	-0.195174	-0.344922	-0.0050925	-0.248762	-0.056637	-0.0224918	-0.0279825	0.100927	-0.169522	0.320358	0.151611	0.436208	-0.17478	0.147098	-0.238098	0.534172	
0.897216	0	0	-0.087172	0.058933	-0.069298	-0.068889	-0.114526	-0.099715	-0.035923	-0.08127	-0.226411	0.063123	-0.102692	0.027875	-0.344015	0.027347	-0.06726	0.036239	-0.199287	-0.333298	-0.003332	-0.237115	-0.045912	-0.014829	-0.034929	0.120559	-0.161024	0.338055	0.163416	0.458195	-0.181986	0.167464	-0.236336	0.552288	
0.900267	0	0	-0.087172	0.058933	-0.070671	-0.0650088	-0.115374	-0.097317	-0.0377257	-0.0761755	-0.233856	0.0610113	-0.101283	0.0238928	-0.343002	0.0244853	-0.0683037	0.0391888	-0.209343	-0.324939	0.003483	-0.239738	-0.045912	-0.014829	-0.025133	0.120205	-0.14822	0.343676	0.141523	0.492372	-0.181986	0.167464	-0.233314	0.566871	
0.898741	0	0	-0.087172	0.058933	-0.072044	-0.0611285	-0.116223	-0.094919	-0.0395285	-0.071081	-0.2413	0.0588995	-0.099874	0.0199105	-0.34199	0.0216235	-0.0693475	0.0421385	-0.219398	-0.31658	0.010298	-0.242361	-0.045912	-0.014829	-0.015337	0.11985	-0.135415	0.349298	0.119629	0.52655	-0.181986	0.167464	-0.230292	0.581454	
0.901793	0	0	-0.087172	0.058933	-0.073417	-0.0572483	-0.117071	-0.092521	-0.0413312	-0.0659865	-0.248745	0.0567877	-0.098465	0.0159283	-0.340977	0.0187618	-0.0703913	0.0450882	-0.229454	-0.30822	0.017113	-0.244984	-0.045912	-0.014829	-0.005541	0.119496	-0.122611	0.354919	0.0977362	0.560728	-0.181986	0.167464	-0.22727	0.596036	
0.89569	0	0	-0.087172	0.058933	-0.07479	-0.053368	-0.117919	-0.090123	-0.043134	-0.060892	-0.25619	0.054676	-0.097056	0.011946	-0.339964	0.0159	-0.071435	0.048038	-0.23951	-0.299861	0.023928	-0.247607	-0.045912	-0.014829	0.004255	0.119142	-0.109807	0.36054	0.075843	0.594905	-0.181986	0.167464	-0.224248	0.610619	
0.898741	0	0	-0.0902002	0.0674913	-0.0775377	-0.0456022	-0.110087	-0.0915527	-0.0386587	-0.0559763	-0.25512	0.0516532	-0.0956475	0.00796525	-0.338952	0.013039	-0.0650985	0.0484355	-0.231101	-0.303566	0.0213998	-0.240461	-0.0492935	-0.0052725	0.0014695	0.127014	-0.118412	0.384858	0.0809482	0.608173	-0.185595	0.177665	-0.218683	0.618043	
0.901793	0	0	-0.0932285	0.0760495	-0.0802855	-0.0378365	-0.102254	-0.0929825	-0.0341835	-0.0510605	-0.254051	0.0486305	-0.094239	0.0039845	-0.33794	0.010178	-0.058762	0.048833	-0.222691	-0.307272	0.0188715	-0.233316	-0.052675	0.004284	-0.001316	0.134885	-0.127016	0.409175	0.0860535	0.621441	-0.189204	0.187865	-0.213118	0.625468	
0.903319	0	0	-0.0962568	0.0846077	-0.0830333	-0.0300708	-0.0944215	-0.0944123	-0.0297082	-0.0461447	-0.252982	0.0456078	-0.0928305	3.75E-06	-0.336927	0.007317	-0.0524255	0.0492305	-0.214282	-0.310978	0.0163433	-0.22617	-0.0560565	0.0138405	-0.0041015	0.142757	-0.135621	0.433493	0.0911587	0.63471	-0.192814	0.198066	-0.207553	0.632892	
0.897216	0	0	-0.099285	0.093166	-0.085781	-0.022305	-0.086589	-0.095842	-0.025233	-0.041229	-0.251912	0.042585	-0.091422	-0.003977	-0.335915	0.004456	-0.046089	0.049628	-0.205873	-0.314683	0.013815	-0.219025	-0.059438	0.023397	-0.006887	0.150629	-0.144225	0.45781	0.096264	0.647978	-0.196423	0.208266	-0.201988	0.640316	
0.898741	0	0	-0.0977705	0.0888857	-0.085781	-0.022305	-0.0944215	-0.0944123	-0.0306097	-0.0435965	-0.248706	0.033523	-0.100399	-0.00117025	-0.342924	0.00244125	-0.0534695	0.0521812	-0.208345	-0.307698	0.00875225	-0.204717	-0.062823	0.0329637	-0.012465	0.166393	-0.148536	0.469994	0.0983	0.669961	-0.203654	0.228702	-0.197694	0.651361	
0.898741	0	0	-0.096256	0.0846055	-0.085781	-0.022305	-0.102254	-0.0929825	-0.0359865	-0.045964	-0.245499	0.024461	-0.109376	0.0016365	-0.349932	0.0004265	-0.06085	0.0547345	-0.210817	-0.300712	0.0036895	-0.190409	-0.066208	0.0425305	-0.018043	0.182158	-0.152847	0.482178	0.100336	0.691944	-0.210886	0.249139	-0.1934	0.662405	
0.900267	0	0	-0.0947415	0.0803253	-0.085781	-0.022305	-0.110087	-0.0915527	-0.0413632	-0.0483315	-0.242292	0.015399	-0.118352	0.00444325	-0.356941	-0.00158825	-0.0682305	0.0572877	-0.213288	-0.293727	-0.00137325	-0.176101	-0.069593	0.0520972	-0.023621	0.197923	-0.157158	0.494361	0.102372	0.713927	-0.218117	0.269575	-0.189106	0.67345	
0.900267	0	0	-0.093227	0.076045	-0.085781	-0.022305	-0.117919	-0.090123	-0.04674	-0.050699	-0.239086	0.006337	-0.127329	0.00725	-0.36395	-0.003603	-0.075611	0.059841	-0.21576	-0.286742	-0.006436	-0.161793	-0.072978	0.061664	-0.029199	0.213687	-0.161469	0.506545	0.104408	0.73591	-0.225348	0.290011	-0.184812	0.684495	
0.901793	0	0	-0.093227	0.076045	-0.0830333	-0.0300708	-0.117919	-0.090123	-0.04674	-0.050699	-0.245458	0.00122275	-0.133481	0.00210125	-0.360918	-0.0121722	-0.0724797	0.0509915	-0.214936	-0.289071	-0.0047475	-0.166565	-0.072978	0.061664	-0.029199	0.213687	-0.163627	0.512643	0.104408	0.73591	-0.171144	0.238882	-0.184812	0.684495	
0.901793	0	0	-0.093227	0.076045	-0.0802855	-0.0378365	-0.117919	-0.090123	-0.04674	-0.050699	-0.251831	-0.0038915	-0.139633	-0.0030475	-0.357886	-0.0207415	-0.0693485	0.042142	-0.214112	-0.2914	-0.003059	-0.171337	-0.072978	0.061664	-0.029199	0.213687	-0.165785	0.518741	0.104408	0.73591	-0.116941	0.187753	-0.184812	0.684495	
0.903319	0	0	-0.093227	0.076045	-0.0775377	-0.0456022	-0.117919	-0.090123	-0.04674	-0.050699	-0.258203	-0.00900575	-0.145785	-0.00819625	-0.354854	-0.0293107	-0.0662173	0.0332925	-0.213287	-0.293729	-0.0013705	-0.176109	-0.072978	0.061664	-0.029199	0.213687	-0.167942	0.524839	0.104408	0.73591	-0.0627375	0.136624	-0.184812	0.684495	
0.901793	0	0	-0.093227	0.076045	-0.07479	-0.053368	-0.117919	-0.090123	-0.04674	-0.050699	-0.264575	-0.01412	-0.151937	-0.013345	-0.351822	-0.03788	-0.063086	0.024443	-0.212463	-0.296058	0.000318	-0.180881	-0.072978	0.061664	-0.029199	0.213687	-0.1701	0.530937	0.104408	0.73591	-0.008534	0.085495	-0.184812	0.684495	
0.906371	0	0	-0.093227	0.076045	-0.086477	-0.0457313	-0.118768	-0.0877247	-0.0548157	-0.045422	-0.261376	-0.0231608	-0.149127	-0.021287	-0.349802	-0.0435882	-0.0610003	0.0185482	-0.212463	-0.296058	0.000318	-0.180881	-0.092149	0.077871	-0.029199	0.213687	-0.1701	0.530937	0.104408	0.73591	-0.0591197	0.1264	-0.175406	0.681122	
0.901793	0	0	-0.093227	0.076045	-0.098164	-0.0380945	-0.119617	-0.0853265	-0.0628915	-0.040145	-0.258177	-0.0322015	-0.146317	-0.029229	-0.347782	-0.0492965	-0.0589145	0.0126535	-0.212463	-0.296058	0.000318	-0.180881	-0.11132	0.094078	-0.029199	0.213687	-0.1701	0.530937	0.104408	0.73591	-0.109705	0.167305	-0.166	0.67775	
0.901793	0	0	-0.093227	0.076045	-0.109851	-0.0304577	-0.120465	-0.0829283	-0.0709673	-0.034868	-0.254978	-0.0412423	-0.143507	-0.037171	-0.345762	-0.0550048	-0.0568287	0.00675875	-0.212463	-0.296058	0.000318	-0.180881	-0.130491	0.110285	-0.029199	0.213687	-0.1701	0.530937	0.104408	0.73591	-0.160291	0.20821	-0.156595	0.674377	
0.901793	0	0	-0.093227	0.076045	-0.121538	-0.022821	-0.121314	-0.08053	-0.079043	-0.029591	-0.251779	-0.050283	-0.140697	-0.045113	-0.343742	-0.060713	-0.054743	0.000864	-0.212463	-0.296058	0.000318	-0.180881	-0.149662	0.126492	-0.029199	0.213687	-0.1701	0.530937	0.104408	0.73591	-0.210877	0.249115	-0.147189	0.671005	
0.904845	0	0	-0.104547	0.0768655	-0.116049	-0.0383322	-0.127441	-0.0838995	-0.0745372	-0.0423253	-0.244327	-0.071342	-0.144042	-0.0581675	-0.338698	-0.0749677	-0.065319	-0.005803	-0.209169	-0.305368	-0.003965	-0.185413	-0.127106	0.100718	-0.0403822	0.217963	-0.1701	0.530937	0.105943	0.731571	-0.163905	0.218422	-0.156595	0.674377	
0.903319	0	0	-0.115867	0.077686	-0.110561	-0.0538435	-0.133567	-0.087269	-0.0700315	-0.0550595	-0.236876	-0.092401	-0.147387	-0.071222	-0.333654	-0.0892225	-0.075895	-0.01247	-0.205875	-0.314678	-0.008248	-0.189946	-0.10455	0.0749445	-0.0515655	0.222238	-0.1701	0.530937	0.107478	0.727233	-0.116932	0.187729	-0.166	0.67775	
0.903319	0	0	-0.127188	0.0785065	-0.105072	-0.0693547	-0.139693	-0.0906385	-0.0655257	-0.0677937	-0.229425	-0.11346	-0.150732	-0.0842765	-0.328611	-0.103477	-0.086471	-0.019137	-0.202581	-0.323988	-0.012531	-0.194478	-0.081994	0.0491707	-0.0627487	0.226513	-0.1701	0.530937	0.109013	0.722894	-0.0699595	0.157037	-0.175406	0.681122	
0.903319	0	0	-0.138508	0.079327	-0.099584	-0.084866	-0.14582	-0.094008	-0.06102	-0.080528	-0.221973	-0.134519	-0.154077	-0.097331	-0.323567	-0.117732	-0.097047	-0.025804	-0.199287	-0.333298	-0.016814	-0.199011	-0.059438	0.023397	-0.073932	0.230789	-0.1701	0.530937	0.110548	0.718556	-0.022987	0.126344	-0.184812	0.684495	
0.903319	0	0	-0.136996	0.075053	-0.0968435	-0.0926115	-0.144125	-0.098799	-0.0672875	-0.0803448	-0.228352	-0.139585	-0.149876	-0.109204	-0.330577	-0.119719	-0.101288	-0.0320698	-0.205229	-0.336565	-0.020252	-0.205918	-0.0577467	0.0186173	-0.0683565	0.215031	-0.1465	0.506143	0.103915	0.709565	-0.109453	0.16715	-0.18226	0.677284	
0.901793	0	0	-0.135483	0.070779	-0.094103	-0.100357	-0.142429	-0.10359	-0.073555	-0.0801615	-0.234731	-0.144651	-0.145674	-0.121078	-0.337587	-0.121705	-0.105529	-0.0383355	-0.21117	-0.339833	-0.02369	-0.212825	-0.0560555	0.0138375	-0.062781	0.199274	-0.1229	0.48135	0.097282	0.700574	-0.19592	0.207955	-0.179709	0.670073	
0.903319	0	0	-0.133971	0.066505	-0.0913625	-0.108103	-0.140734	-0.108381	-0.0798225	-0.0799783	-0.24111	-0.149718	-0.141473	-0.132951	-0.344596	-0.123692	-0.10977	-0.0446013	-0.217112	-0.343101	-0.027128	-0.219732	-0.0543642	0.00905775	-0.0572055	0.183516	-0.0993008	0.456557	0.090649	0.691584	-0.282386	0.24876	-0.177158	0.662863	
0.903319	0	0	-0.132459	0.062231	-0.088622	-0.115848	-0.139039	-0.113172	-0.08609	-0.079795	-0.247489	-0.154784	-0.137272	-0.144824	-0.351606	-0.125678	-0.114011	-0.050867	-0.223054	-0.346368	-0.030566	-0.226639	-0.052673	0.004278	-0.05163	0.167759	-0.075701	0.431763	0.084016	0.682593	-0.368852	0.289566	-0.174606	0.655652	
0.900267	0	0	-0.127926	0.0494212	-0.0948188	-0.123693	-0.14516	-0.116533	-0.0815933	-0.092504	-0.254921	-0.156845	-0.144821	-0.14597	-0.357601	-0.130507	-0.109857	-0.0626063	-0.229811	-0.347311	-0.0356848	-0.22878	-0.0509828	-0.00049875	-0.05163	0.167759	-0.0906785	0.432189	0.0886077	0.669616	-0.325745	0.269241	-0.172057	0.648447	
0.903319	0	0	-0.123394	0.0366115	-0.101016	-0.131538	-0.151282	-0.119894	-0.0770965	-0.105213	-0.262354	-0.158907	-0.152371	-0.147116	-0.363595	-0.135336	-0.105704	-0.0743455	-0.236567	-0.348253	-0.0408035	-0.230922	-0.0492925	-0.0052755	-0.05163	0.167759	-0.105656	0.432616	0.0931995	0.656638	-0.282637	0.248916	-0.169507	0.641242	
0.906371	0	0	-0.118861	0.0238018	-0.107212	-0.139382	-0.157403	-0.123255	-0.0725997	-0.117922	-0.269786	-0.160968	-0.15992	-0.148261	-0.36959	-0.140165	-0.10155	-0.0860847	-0.243324	-0.349195	-0.0459222	-0.233063	-0.0476022	-0.0100522	-0.05163	0.167759	-0.120634	0.433042	0.0977912	0.64366	-0.23953	0.228591	-0.166958	0.634037	
0.901793	0	0	-0.114329	0.010992	-0.113409	-0.147227	-0.163524	-0.126616	-0.068103	-0.130631	-0.277218	-0.163029	-0.167469	-0.149407	-0.375585	-0.144994	-0.097396	-0.097824	-0.250081	-0.350138	-0.051041	-0.235204	-0.045912	-0.014829	-0.05163	0.167759	-0.135611	0.433468	0.102383	0.630683	-0.196423	0.208266	-0.164408	0.626832	
0.904845	0	0	-0.111311	0.00246225	-0.120965	-0.151197	-0.16014	-0.13618	-0.071673	-0.138055	-0.272978	-0.175013	-0.161881	-0.165199	-0.372569	-0.153517	-0.100603	-0.106993	-0.245155	-0.364059	-0.0519545	-0.249215	-0.03916	-0.0339115	-0.0572345	0.156308	-0.127013	0.409167	0.0987998	0.613114	-0.235925	0.218402	-0.160588	0.616035	
0.903319	0	0	-0.108292	-0.0060675	-0.128521	-0.155167	-0.156755	-0.145744	-0.075243	-0.145479	-0.268738	-0.186996	-0.156293	-0.180991	-0.369553	-0.16204	-0.103811	-0.116162	-0.240229	-0.377981	-0.052868	-0.263226	-0.032408	-0.052994	-0.062839	0.144858	-0.118414	0.384866	0.0952165	0.595545	-0.275427	0.228539	-0.156768	0.605239	
0.901793	0	0	-0.105274	-0.0145973	-0.136077	-0.159137	-0.153371	-0.155309	-0.078813	-0.152903	-0.264497	-0.19898	-0.150705	-0.196784	-0.366538	-0.170563	-0.107019	-0.12533	-0.235303	-0.391903	-0.0537815	-0.277238	-0.025656	-0.0720765	-0.0684435	0.133407	-0.109816	0.360565	0.0916332	0.577976	-0.314929	0.238675	-0.152947	0.594442	
0.904845	0	0	-0.102256	-0.023127	-0.143633	-0.163107	-0.149987	-0.164873	-0.082383	-0.160327	-0.260257	-0.210963	-0.145117	-0.212576	-0.363522	-0.179086	-0.110226	-0.134499	-0.230377	-0.405824	-0.054695	-0.291249	-0.018904	-0.091159	-0.074048	0.121956	-0.101217	0.336264	0.08805	0.560407	-0.354431	0.248811	-0.149127	0.583645	
0.901793	0	0	-0.100748	-0.0273888	-0.142268	-0.166965	-0.149142	-0.167262	-0.0814857	-0.162863	-0.259198	-0.213956	-0.145117	-0.212576	-0.361513	-0.184763	-0.108155	-0.140353	-0.23631	-0.409073	-0.0505002	-0.303104	-0.0330102	-0.0892653	-0.069882	0.110182	-0.116169	0.336712	0.082938	0.547199	-0.307715	0.218285	-0.158524	0.58702	
0.904845	0	0	-0.09924	-0.0316505	-0.140902	-0.170824	-0.148296	-0.169652	-0.0805885	-0.165399	-0.258139	-0.21695	-0.145117	-0.212576	-0.359505	-0.190441	-0.106083	-0.146207	-0.242243	-0.412323	-0.0463055	-0.31496	-0.0471165	-0.0873715	-0.065716	0.098408	-0.131121	0.33716	0.077826	0.533991	-0.260998	0.187759	-0.16792	0.590396	
0.904845	0	0	-0.097732	-0.0359122	-0.139537	-0.174683	-0.147451	-0.172042	-0.0796913	-0.167935	-0.257079	-0.219943	-0.145117	-0.212576	-0.357496	-0.196119	-0.104012	-0.152062	-0.248176	-0.415572	-0.0421108	-0.326815	-0.0612227	-0.0854778	-0.06155	0.086634	-0.146072	0.337607	0.072714	0.520784	-0.214281	0.157234	-0.177316	0.593772	
0.904845	0	0	-0.096224	-0.040174	-0.138172	-0.178541	-0.146605	-0.174431	-0.078794	-0.170471	-0.25602	-0.222936	-0.145117	-0.212576	-0.355487	-0.201796	-0.10194	-0.157916	-0.254109	-0.418821	-0.037916	-0.33867	-0.075329	-0.083584	-0.057384	0.07486	-0.161024	0.338055	0.067602	0.507576	-0.167565	0.126708	-0.186713	0.597147	
0.903319	0	0	-0.106028	-0.043588	-0.145719	-0.182501	-0.142381	-0.186369	-0.0796775	-0.185471	-0.254961	-0.225928	-0.142327	-0.220462	-0.354483	-0.204633	-0.0988355	-0.16669	-0.242439	-0.431786	-0.0438697	-0.338422	-0.073645	-0.088343	-0.0559965	0.0709387	-0.156739	0.325946	0.0706432	0.498981	-0.116991	0.085838	-0.189258	0.60434	
0.903319	0	0	-0.115832	-0.047002	-0.153266	-0.186461	-0.138157	-0.198306	-0.080561	-0.200472	-0.253903	-0.22892	-0.139537	-0.228347	-0.353479	-0.207471	-0.095731	-0.175464	-0.230768	-0.444751	-0.0498235	-0.338174	-0.071961	-0.093102	-0.054609	0.0670175	-0.152454	0.313836	0.0736845	0.490386	-0.066418	0.044968	-0.191804	0.611533	
0.903319	0	0	-0.125635	-0.050416	-0.160813	-0.190421	-0.133933	-0.210244	-0.0814445	-0.215472	-0.252844	-0.231913	-0.136746	-0.236233	-0.352475	-0.210308	-0.0926265	-0.184238	-0.219098	-0.457716	-0.0557773	-0.337926	-0.070277	-0.097861	-0.0532215	0.0630962	-0.14817	0.301727	0.0767258	0.48179	-0.0158445	0.004098	-0.194349	0.618727	
0.900267	0	0	-0.135439	-0.05383	-0.16836	-0.194381	-0.129709	-0.222182	-0.082328	-0.230472	-0.251785	-0.234905	-0.133956	-0.244119	-0.351471	-0.213145	-0.089522	-0.193012	-0.207428	-0.470681	-0.061731	-0.337678	-0.068593	-0.10262	-0.051834	0.059175	-0.143885	0.289618	0.079767	0.473195	0.034729	-0.036772	-0.196895	0.62592	
0.900267	0	0	-0.130926	-0.066585	-0.165635	-0.202083	-0.136676	-0.22313	-0.072485	-0.240792	-0.250727	-0.237896	-0.131168	-0.251998	-0.349464	-0.218817	-0.0864205	-0.201777	-0.212549	-0.476225	-0.056707	-0.351876	-0.0635465	-0.116883	-0.0602172	0.055617	-0.137469	0.271485	0.0746482	0.460047	-0.0086465	-0.016245	-0.194349	0.618727	
0.901793	0	0	-0.126413	-0.07934	-0.162909	-0.209786	-0.143643	-0.224079	-0.062642	-0.251113	-0.249668	-0.240888	-0.128381	-0.259877	-0.347457	-0.224489	-0.083319	-0.210543	-0.21767	-0.481769	-0.051683	-0.366074	-0.0585	-0.131145	-0.0686005	0.052059	-0.131053	0.253352	0.0695295	0.4469	-0.052022	0.004282	-0.191804	0.611533	
0.901793	0	0	-0.121899	-0.092095	-0.160184	-0.217488	-0.150609	-0.225027	-0.052799	-0.261433	-0.24861	-0.243879	-0.125593	-0.267755	-0.34545	-0.230161	-0.0802175	-0.219308	-0.222792	-0.487312	-0.046659	-0.380272	-0.0534535	-0.145408	-0.0769837	0.048501	-0.124637	0.235218	0.0644108	0.433752	-0.0953975	0.024809	-0.189258	0.60434	
0.897216	0	0	-0.117386	-0.10485	-0.157459	-0.22519	-0.157576	-0.225975	-0.042956	-0.271753	-0.247552	-0.24687	-0.122805	-0.275634	-0.343443	-0.235833	-0.077116	-0.228074	-0.227913	-0.492856	-0.041635	-0.39447	-0.048407	-0.15967	-0.085367	0.044943	-0.118221	0.217085	0.059292	0.420604	-0.138773	0.045336	-0.186713	0.597147	
0.903319	0	0	-0.117386	-0.10485	-0.145819	-0.232795	-0.157576	-0.225975	-0.0447458	-0.266695	-0.24861	-0.243879	-0.124199	-0.271695	-0.343443	-0.235833	-0.0781495	-0.225153	-0.225461	-0.499787	-0.0391263	-0.40156	-0.048407	-0.15967	-0.07144	0.0328332	-0.113951	0.205017	0.0623232	0.412038	-0.0918005	0.0146433	-0.187985	0.600743	
0.900267	0	0	-0.117386	-0.10485	-0.13418	-0.240401	-0.157576	-0.225975	-0.0465355	-0.261637	-0.249668	-0.240888	-0.125592	-0.267757	-0.343443	-0.235833	-0.079183	-0.222232	-0.223008	-0.506718	-0.0366175	-0.408651	-0.048407	-0.15967	-0.057513	0.0207235	-0.109681	0.192948	0.0653545	0.403471	-0.044828	-0.0160495	-0.189258	0.604339	
0.900267	0	0	-0.117386	-0.10485	-0.12254	-0.248007	-0.157576	-0.225975	-0.0483253	-0.256578	-0.250727	-0.237896	-0.126986	-0.263819	-0.343443	-0.235833	-0.0802165	-0.219312	-0.220555	-0.513649	-0.0341088	-0.415741	-0.048407	-0.15967	-0.043586	0.00861375	-0.10541	0.18088	0.0683857	0.394904	0.0021445	-0.0467422	-0.19053	0.607934	
0.904845	0	0	-0.117386	-0.10485	-0.110901	-0.255612	-0.157576	-0.225975	-0.050115	-0.25152	-0.251785	-0.234905	-0.12838	-0.25988	-0.343443	-0.235833	-0.08125	-0.216391	-0.218103	-0.52058	-0.0316	-0.422832	-0.048407	-0.15967	-0.029659	-0.003496	-0.10114	0.168812	0.071417	0.386338	0.049117	-0.077435	-0.191803	0.61153	
0.901793	0	0	-0.114381	-0.113343	-0.109539	-0.25946	-0.155047	-0.233124	-0.0483253	-0.256578	-0.249668	-0.240887	-0.126986	-0.263819	-0.341437	-0.241501	-0.0791833	-0.222232	-0.217286	-0.522889	-0.032436	-0.420469	-0.064168	-0.153023	-0.031044	0.0004185	-0.099007	0.162784	0.0699017	0.39062	-0.0014525	-0.0365765	-0.18368	0.611755	
0.900267	0	0	-0.111376	-0.121837	-0.108178	-0.263309	-0.152517	-0.240274	-0.0465355	-0.261637	-0.247552	-0.246868	-0.125592	-0.267757	-0.339431	-0.24717	-0.0771165	-0.228073	-0.216469	-0.525199	-0.033272	-0.418106	-0.079929	-0.146375	-0.032429	0.004333	-0.096874	0.156755	0.0683865	0.394903	-0.052022	0.004282	-0.175558	0.61198	
0.903319	0	0	-0.10837	-0.13033	-0.106816	-0.267158	-0.149987	-0.247423	-0.0447458	-0.266695	-0.245436	-0.25285	-0.124199	-0.271695	-0.337426	-0.252838	-0.0750497	-0.233913	-0.215652	-0.527508	-0.034108	-0.415744	-0.09569	-0.139728	-0.033814	0.0082475	-0.094741	0.150727	0.0668712	0.399185	-0.102592	0.0451405	-0.167436	0.612205	
0.903319	0	0	-0.105365	-0.138823	-0.105454	-0.271006	-0.147458	-0.254572	-0.042956	-0.271753	-0.243319	-0.258832	-0.122805	-0.275634	-0.33542	-0.258507	-0.072983	-0.239754	-0.214835	-0.529817	-0.034944	-0.413381	-0.111451	-0.13308	-0.035199	0.012162	-0.092608	0.144699	0.065356	0.403467	-0.153161	0.085999	-0.159313	0.61243	
0.903319	0	0	-0.105365	-0.138823	-0.118455	-0.259552	-0.148301	-0.25219	-0.0447458	-0.266695	-0.245436	-0.25285	-0.115246	-0.274516	-0.336423	-0.255673	-0.0750497	-0.233913	-0.223221	-0.526112	-0.034944	-0.413381	-0.0906515	-0.153967	-0.047741	0.0203573	-0.0904765	0.138675	0.0541807	0.407477	-0.149564	0.0758333	-0.159313	0.61243	
0.900267	0	0	-0.105365	-0.138823	-0.131457	-0.248098	-0.149144	-0.249807	-0.0465355	-0.261637	-0.247552	-0.246868	-0.107687	-0.273398	-0.337425	-0.252839	-0.0771165	-0.228073	-0.231607	-0.522407	-0.034944	-0.413381	-0.069852	-0.174854	-0.060283	0.0285525	-0.088345	0.132651	0.0430055	0.411487	-0.145967	0.0656675	-0.159313	0.61243	
0.901793	0	0	-0.105365	-0.138823	-0.144458	-0.236644	-0.149987	-0.247425	-0.0483253	-0.256578	-0.249668	-0.240887	-0.100128	-0.272281	-0.338428	-0.250006	-0.0791833	-0.222232	-0.239993	-0.518703	-0.034944	-0.413381	-0.0490525	-0.195741	-0.072825	0.0367477	-0.0862135	0.126627	0.0318302	0.415497	-0.14237	0.0555018	-0.159313	0.61243	
0.901793	0	0	-0.105365	-0.138823	-0.157459	-0.22519	-0.15083	-0.245042	-0.050115	-0.25152	-0.251785	-0.234905	-0.092569	-0.271163	-0.339431	-0.247172	-0.08125	-0.216391	-0.248379	-0.514998	-0.034944	-0.413381	-0.028253	-0.216628	-0.085367	0.044943	-0.084082	0.120603	0.020655	0.419507	-0.138773	0.045336	-0.159313	0.61243	
0.898741	0	0	-0.10837	-0.13033	-0.148545	-0.225093	-0.15336	-0.237891	-0.0545942	-0.238862	-0.257082	-0.219934	-0.098152	-0.255385	-0.331417	-0.248049	-0.0769953	-0.210181	-0.24081	-0.516393	-0.0382905	-0.403923	-0.031611	-0.207137	-0.0769838	0.048501	-0.084082	0.120603	0.0191398	0.423789	-0.145971	0.065679	-0.160587	0.616031	
0.898741	0	0	-0.111376	-0.121837	-0.13963	-0.224996	-0.15589	-0.23074	-0.0590735	-0.226203	-0.26238	-0.204962	-0.103735	-0.239606	-0.323403	-0.248926	-0.0727405	-0.203972	-0.233241	-0.517789	-0.041637	-0.394465	-0.034969	-0.197647	-0.0686005	0.052059	-0.084082	0.120603	0.0176245	0.428072	-0.153169	0.086022	-0.161861	0.619631	
0.898741	0	0	-0.114381	-0.113343	-0.130716	-0.2249	-0.158421	-0.223589	-0.0635527	-0.213545	-0.267678	-0.189991	-0.109318	-0.223828	-0.315389	-0.249804	-0.0684857	-0.197762	-0.225672	-0.519185	-0.0449835	-0.385007	-0.038327	-0.188157	-0.0602172	0.055617	-0.084082	0.120603	0.0161092	0.432354	-0.160367	0.106365	-0.163134	0.623231	
0.900267	0	0	-0.117386	-0.10485	-0.121802	-0.224803	-0.160951	-0.216438	-0.068032	-0.200886	-0.272975	-0.175019	-0.114901	-0.208049	-0.307375	-0.250681	-0.064231	-0.191552	-0.218103	-0.52058	-0.04833	-0.375549	-0.041685	-0.178666	-0.051834	0.059175	-0.084082	0.120603	0.014594	0.436636	-0.167565	0.126708	-0.164408	0.626832	
0.903319	0	0	-0.117386	-0.10485	-0.121802	-0.224803	-0.161795	-0.214053	-0.060868	-0.203619	-0.26342	-0.178958	-0.105939	-0.210869	-0.309383	-0.245007	-0.0579015	-0.191189	-0.218103	-0.52058	-0.0491672	-0.373183	-0.0433655	-0.173917	-0.064376	0.0673702	-0.0862135	0.126627	0.013078	0.44092	-0.214281	0.157234	-0.164408	0.626832	
0.900267	0	0	-0.117386	-0.10485	-0.121802	-0.224803	-0.162639	-0.211668	-0.053704	-0.206352	-0.253864	-0.182897	-0.0969765	-0.21369	-0.31139	-0.239333	-0.051572	-0.190825	-0.218103	-0.52058	-0.0500045	-0.370817	-0.045046	-0.169168	-0.076918	0.0755655	-0.088345	0.132651	0.011562	0.445205	-0.260998	0.187759	-0.164408	0.626832	
0.898741	0	0	-0.117386	-0.10485	-0.121802	-0.224803	-0.163483	-0.209283	-0.04654	-0.209085	-0.244309	-0.186837	-0.0880143	-0.21651	-0.313397	-0.23366	-0.0452425	-0.190462	-0.218103	-0.52058	-0.0508418	-0.368451	-0.0467265	-0.164419	-0.08946	0.0837607	-0.0904765	0.138675	0.010046	0.449489	-0.307715	0.218285	-0.164408	0.626832	
0.901793	0	0	-0.117386	-0.10485	-0.121802	-0.224803	-0.164327	-0.206898	-0.039376	-0.211818	-0.234754	-0.190776	-0.079052	-0.21933	-0.315405	-0.227986	-0.038913	-0.190099	-0.218103	-0.52058	-0.051679	-0.366085	-0.048407	-0.15967	-0.102002	0.091956	-0.092608	0.144699	0.00853	0.453773	-0.354431	0.248811	-0.164408	0.626832	
0.903319	0	0	-0.11889	-0.1006	-0.112874	-0.22471	-0.158206	-0.203558	-0.0420673	-0.204212	-0.236876	-0.184778	-0.0818485	-0.211427	-0.307382	-0.228864	-0.0430587	-0.178383	-0.229758	-0.507636	-0.0525165	-0.363718	-0.0500883	-0.154918	-0.102002	0.091956	-0.0904765	0.138675	0.0227365	0.441196	-0.35083	0.238633	-0.171257	0.623007	
0.898741	0	0	-0.120394	-0.0963505	-0.103947	-0.224617	-0.152085	-0.200218	-0.0447585	-0.196607	-0.238998	-0.178781	-0.084645	-0.203523	-0.299358	-0.229741	-0.0472045	-0.166667	-0.241414	-0.494692	-0.053354	-0.361351	-0.0517695	-0.150167	-0.102002	0.091956	-0.088345	0.132651	0.036943	0.42862	-0.347229	0.228456	-0.178105	0.619181	
0.900267	0	0	-0.121897	-0.0921007	-0.0950195	-0.224524	-0.145965	-0.196879	-0.0474497	-0.189001	-0.24112	-0.172783	-0.0874415	-0.19562	-0.291335	-0.230619	-0.0513503	-0.154951	-0.253069	-0.481747	-0.0541915	-0.358985	-0.0534507	-0.145415	-0.102002	0.091956	-0.0862135	0.126627	0.0511495	0.416044	-0.343628	0.218279	-0.184954	0.615355	
0.898741	0	0	-0.123401	-0.087851	-0.086092	-0.224431	-0.139844	-0.193539	-0.050141	-0.181395	-0.243242	-0.166785	-0.090238	-0.187717	-0.283312	-0.231497	-0.055496	-0.143235	-0.264724	-0.468803	-0.055029	-0.356618	-0.055132	-0.140663	-0.102002	0.091956	-0.084082	0.120603	0.065356	0.403467	-0.340027	0.208101	-0.191803	0.61153	
0.898741	0	0	-0.112087	-0.088705	-0.100477	-0.2091	-0.14238	-0.186372	-0.0519362	-0.176321	-0.236862	-0.161723	-0.0854662	-0.178667	-0.276284	-0.229537	-0.059647	-0.131503	-0.257976	-0.46788	-0.0515893	-0.349761	-0.0568142	-0.135909	-0.0908475	0.087682	-0.084082	0.120603	0.0526655	0.411759	-0.293311	0.177575	-0.187988	0.600747	
0.900267	0	0	-0.100773	-0.089559	-0.114863	-0.193769	-0.144916	-0.179206	-0.0537315	-0.171246	-0.230481	-0.156661	-0.0806945	-0.169617	-0.269256	-0.227577	-0.063798	-0.119772	-0.251227	-0.466957	-0.0481495	-0.342904	-0.0584965	-0.131155	-0.079693	0.083408	-0.084082	0.120603	0.039975	0.420052	-0.246594	0.14705	-0.184172	0.589963	
0.900267	0	0	-0.0894597	-0.090413	-0.129248	-0.178438	-0.147451	-0.172039	-0.0555267	-0.166172	-0.224101	-0.151599	-0.0759228	-0.160567	-0.262228	-0.225617	-0.067949	-0.108041	-0.244478	-0.466034	-0.0447097	-0.336047	-0.0601788	-0.126401	-0.0685385	0.079134	-0.084082	0.120603	0.0272845	0.428344	-0.199877	0.116525	-0.180357	0.579179	
0.900267	0	0	-0.078146	-0.091267	-0.143633	-0.163107	-0.149987	-0.164873	-0.057322	-0.161098	-0.21772	-0.146537	-0.071151	-0.151517	-0.2552	-0.223657	-0.0721	-0.096309	-0.23773	-0.465111	-0.04127	-0.32919	-0.061861	-0.121647	-0.057384	0.07486	-0.084082	0.120603	0.014594	0.436636	-0.153161	0.085999	-0.176541	0.568396	
0.901793	0	0	-0.078146	-0.091267	-0.153907	-0.15936	-0.150833	-0.162483	-0.0635872	-0.160905	-0.21772	-0.146537	-0.071151	-0.151517	-0.26625	-0.214251	-0.0647303	-0.098868	-0.238548	-0.462798	-0.0404315	-0.33156	-0.061861	-0.121647	-0.0671517	0.0752145	-0.084082	0.120603	0.0161092	0.432354	-0.109789	0.0654835	-0.192758	0.567955	
0.900267	0	0	-0.078146	-0.091267	-0.164181	-0.155613	-0.151678	-0.160093	-0.0698525	-0.160712	-0.21772	-0.146537	-0.071151	-0.151517	-0.2773	-0.204846	-0.0573605	-0.101427	-0.239367	-0.460484	-0.039593	-0.33393	-0.061861	-0.121647	-0.0769195	0.075569	-0.084082	0.120603	0.0176245	0.428072	-0.066418	0.044968	-0.208976	0.567514	
0.900267	0	0	-0.078146	-0.091267	-0.174455	-0.151866	-0.152524	-0.157703	-0.0761177	-0.16052	-0.21772	-0.146537	-0.071151	-0.151517	-0.288349	-0.19544	-0.0499908	-0.103986	-0.240185	-0.458171	-0.0387545	-0.3363	-0.061861	-0.121647	-0.0866872	0.0759235	-0.084082	0.120603	0.0191398	0.423789	-0.0230465	0.0244525	-0.225193	0.567072	
0.900267	0	0	-0.078146	-0.091267	-0.184729	-0.148119	-0.15337	-0.155313	-0.082383	-0.160327	-0.21772	-0.146537	-0.071151	-0.151517	-0.299399	-0.186034	-0.042621	-0.106545	-0.241004	-0.455858	-0.037916	-0.33867	-0.061861	-0.121647	-0.096455	0.076278	-0.084082	0.120603	0.020655	0.419507	0.020325	0.003937	-0.241411	0.566631	
0.900267	0	0	-0.0826655	-0.0784938	-0.175821	-0.148006	-0.147246	-0.151959	-0.077016	-0.157981	-0.21772	-0.146537	-0.073955	-0.143593	-0.290361	-0.189753	-0.0531075	-0.0951773	-0.243461	-0.448914	-0.0472233	-0.328944	-0.063544	-0.11689	-0.108979	0.0844613	-0.084082	0.120603	0.0221695	0.415227	0.020325	0.003937	-0.257584	0.566178	
0.901793	0	0	-0.087185	-0.0657205	-0.166913	-0.147892	-0.141122	-0.148606	-0.071649	-0.155636	-0.21772	-0.146537	-0.076759	-0.135668	-0.281324	-0.193472	-0.063594	-0.0838095	-0.245918	-0.44197	-0.0565305	-0.319218	-0.065227	-0.112133	-0.121502	0.0926445	-0.084082	0.120603	0.023684	0.410946	0.020325	0.003937	-0.273757	0.565725	
0.897216	0	0	-0.0917045	-0.0529473	-0.158004	-0.147779	-0.134998	-0.145253	-0.066282	-0.15329	-0.21772	-0.146537	-0.079563	-0.127744	-0.272286	-0.197192	-0.0740805	-0.0724417	-0.248375	-0.435027	-0.0658378	-0.309492	-0.06691	-0.107377	-0.134026	0.100828	-0.084082	0.120603	0.0251985	0.406666	0.020325	0.003937	-0.28993	0.565273	
0.898741	0	0	-0.096224	-0.040174	-0.149096	-0.147666	-0.128874	-0.141899	-0.060915	-0.150945	-0.21772	-0.146537	-0.082367	-0.11982	-0.263248	-0.200911	-0.084567	-0.061074	-0.250832	-0.428083	-0.075145	-0.299766	-0.068593	-0.10262	-0.146549	0.109011	-0.084082	0.120603	0.026713	0.402386	0.020325	0.003937	-0.306103	0.56482	
0.898741	0	0	-0.097732	-0.0359122	-0.146365	-0.155385	-0.128874	-0.141899	-0.0689755	-0.145678	-0.218783	-0.143533	-0.0733852	-0.122641	-0.263248	-0.200911	-0.0761587	-0.0665682	-0.245718	-0.422518	-0.071712	-0.29289	-0.0753343	-0.0835683	-0.138188	0.112591	-0.105413	0.139172	0.0251985	0.406666	0.020325	0.003937	-0.292954	0.550724	
0.898741	0	0	-0.09924	-0.0316505	-0.143634	-0.163104	-0.128874	-0.141899	-0.077036	-0.140411	-0.219847	-0.140528	-0.0644035	-0.125462	-0.263248	-0.200911	-0.0677505	-0.0720625	-0.240604	-0.416953	-0.068279	-0.286014	-0.0820755	-0.0645165	-0.129827	0.116172	-0.126744	0.157742	0.023684	0.410946	0.020325	0.003937	-0.279805	0.536629	
0.901793	0	0	-0.100748	-0.0273888	-0.140903	-0.170822	-0.128874	-0.141899	-0.0850965	-0.135144	-0.22091	-0.137523	-0.0554217	-0.128282	-0.263248	-0.200911	-0.0593422	-0.0775568	-0.235491	-0.411389	-0.064846	-0.279138	-0.0888167	-0.0454648	-0.121465	0.119752	-0.148074	0.176311	0.0221695	0.415227	0.020325	0.003937	-0.266656	0.522533	
0.897216	0	0	-0.102256	-0.023127	-0.138172	-0.178541	-0.128874	-0.141899	-0.093157	-0.129877	-0.221973	-0.134519	-0.04644	-0.131103	-0.263248	-0.200911	-0.050934	-0.083051	-0.230377	-0.405824	-0.061413	-0.272262	-0.095558	-0.026413	-0.113104	0.123333	-0.169405	0.19488	0.020655	0.419507	0.020325	0.003937	-0.253507	0.508438	
0.900267	0	0	-0.103765	-0.018863	-0.139537	-0.174683	-0.129721	-0.139506	-0.0940555	-0.127338	-0.22091	-0.137523	-0.0554217	-0.128282	-0.253192	-0.207482	-0.050934	-0.083051	-0.231198	-0.403505	-0.0673638	-0.272023	-0.0972455	-0.0216435	-0.12424	0.127593	-0.152339	0.188363	0.0221695	0.415227	-0.0266475	0.0346298	-0.269666	0.508002	
0.897216	0	0	-0.105273	-0.014599	-0.140902	-0.170824	-0.130568	-0.137112	-0.094954	-0.124799	-0.219847	-0.140528	-0.0644035	-0.125462	-0.243136	-0.214052	-0.050934	-0.083051	-0.232018	-0.401187	-0.0733145	-0.271784	-0.098933	-0.016874	-0.135376	0.131854	-0.135272	0.181846	0.023684	0.410946	-0.07362	0.0653225	-0.285825	0.507567	
0.900267	0	0	-0.106782	-0.010335	-0.142268	-0.166965	-0.131414	-0.134719	-0.0958525	-0.122261	-0.218783	-0.143533	-0.0733852	-0.122641	-0.233081	-0.220622	-0.050934	-0.083051	-0.232839	-0.398868	-0.0792653	-0.271545	-0.100621	-0.0121045	-0.146511	0.136114	-0.118206	0.175329	0.0251985	0.406666	-0.120593	0.0960152	-0.301984	0.507132	
0.901793	0	0	-0.108291	-0.006071	-0.143633	-0.163107	-0.132261	-0.132326	-0.096751	-0.119722	-0.21772	-0.146537	-0.082367	-0.11982	-0.223025	-0.227193	-0.050934	-0.083051	-0.233659	-0.396549	-0.085216	-0.271306	-0.102308	-0.007335	-0.157647	0.140374	-0.10114	0.168812	0.026713	0.402386	-0.167565	0.126708	-0.318143	0.506696	
0.898741	0	0	-0.0954533	-0.01118	-0.146365	-0.155385	-0.133108	-0.129932	-0.100347	-0.109559	-0.216658	-0.14954	-0.082367	-0.11982	-0.221013	-0.23288	-0.057264	-0.0834302	-0.23448	-0.39423	-0.0860555	-0.268933	-0.0848312	-0.018755	-0.146511	0.136114	-0.10114	0.168812	0.037889	0.398374	-0.163964	0.116531	-0.316879	0.503124	
0.897216	0	0	-0.0826155	-0.016289	-0.149097	-0.147663	-0.133955	-0.127538	-0.103943	-0.099396	-0.215595	-0.152543	-0.082367	-0.11982	-0.219001	-0.238566	-0.063594	-0.0838095	-0.235301	-0.39191	-0.086895	-0.26656	-0.0673545	-0.030175	-0.135376	0.131854	-0.10114	0.168812	0.049065	0.394362	-0.160363	0.106353	-0.315615	0.499553	
0.898741	0	0	-0.0697777	-0.021398	-0.15183	-0.13994	-0.134802	-0.125145	-0.107539	-0.089233	-0.214532	-0.155547	-0.082367	-0.11982	-0.216989	-0.244252	-0.069924	-0.0841888	-0.236121	-0.389591	-0.0877345	-0.264187	-0.0498777	-0.041595	-0.12424	0.127593	-0.10114	0.168812	0.060241	0.39035	-0.156762	0.0961763	-0.314352	0.495982	
0.898741	0	0	-0.05694	-0.026507	-0.154562	-0.132218	-0.135649	-0.122751	-0.111135	-0.07907	-0.21347	-0.15855	-0.082367	-0.11982	-0.214977	-0.249939	-0.076254	-0.084568	-0.236942	-0.387272	-0.088574	-0.261814	-0.032401	-0.053015	-0.113104	0.123333	-0.10114	0.168812	0.071417	0.386338	-0.153161	0.085999	-0.313088	0.49241	
0.901793	0	0	-0.0554305	-0.0307727	-0.153196	-0.13608	-0.133955	-0.127538	-0.110236	-0.081612	-0.210284	-0.167554	-0.078162	-0.131704	-0.211961	-0.258462	-0.0794648	-0.0937458	-0.236942	-0.387272	-0.088574	-0.261814	-0.0532558	-0.0320488	-0.115882	0.131184	-0.103274	0.174844	0.0541787	0.407483	-0.156762	0.0961763	-0.305013	0.492626	
0.901793	0	0	-0.053921	-0.0350385	-0.151829	-0.139942	-0.132261	-0.132325	-0.109336	-0.084154	-0.207098	-0.176559	-0.073957	-0.143588	-0.208946	-0.266985	-0.0826755	-0.102924	-0.236942	-0.387272	-0.088574	-0.261814	-0.0741105	-0.0110825	-0.11866	0.139035	-0.105408	0.180876	0.0369405	0.428628	-0.160363	0.106353	-0.296938	0.492843	
0.898741	0	0	-0.0524115	-0.0393042	-0.150462	-0.143804	-0.130568	-0.137112	-0.108436	-0.086696	-0.203912	-0.185563	-0.069752	-0.155471	-0.20593	-0.275508	-0.0858862	-0.112101	-0.236942	-0.387272	-0.088574	-0.261814	-0.0949653	0.00988375	-0.121438	0.146886	-0.107543	0.186908	0.0197022	0.449773	-0.163964	0.116531	-0.288863	0.493059	
0.898741	0	0	-0.050902	-0.04357	-0.149096	-0.147666	-0.128874	-0.141899	-0.107537	-0.089238	-0.200726	-0.194567	-0.065547	-0.167355	-0.202914	-0.284031	-0.089097	-0.121279	-0.236942	-0.387272	-0.088574	-0.261814	-0.11582	0.03085	-0.124216	0.154737	-0.109677	0.19294	0.002464	0.470918	-0.167565	0.126708	-0.280788	0.493275	
0.898741	0	0	-0.050902	-0.04357	-0.150462	-0.143804	-0.127181	-0.146684	-0.0994765	-0.0945047	-0.207112	-0.199613	-0.0717197	-0.172446	-0.208953	-0.288811	-0.0849512	-0.132995	-0.234481	-0.394228	-0.0928402	-0.266321	-0.112442	0.0213037	-0.124216	0.154737	-0.128876	0.205485	0.0151545	0.462626	-0.167565	0.126708	-0.290127	0.49663	
0.900267	0	0	-0.050902	-0.04357	-0.151829	-0.139942	-0.125488	-0.151469	-0.091416	-0.0997715	-0.213498	-0.204659	-0.0778925	-0.177536	-0.214993	-0.293592	-0.0808055	-0.144711	-0.232019	-0.401184	-0.0971065	-0.270827	-0.109064	0.0117575	-0.124216	0.154737	-0.148075	0.218031	0.027845	0.454334	-0.167565	0.126708	-0.299465	0.499986	
0.900267	0	0	-0.050902	-0.04357	-0.153196	-0.13608	-0.123795	-0.156253	-0.0833555	-0.105038	-0.219884	-0.209705	-0.0840652	-0.182626	-0.221032	-0.298372	-0.0766597	-0.156427	-0.229557	-0.408141	-0.101373	-0.275334	-0.105686	0.00221125	-0.124216	0.154737	-0.167275	0.230576	0.0405355	0.446041	-0.167565	0.126708	-0.308804	0.503341	
0.897216	0	0	-0.050902	-0.04357	-0.154562	-0.132218	-0.122102	-0.161038	-0.075295	-0.110305	-0.22627	-0.214751	-0.090238	-0.187717	-0.227071	-0.303153	-0.072514	-0.168143	-0.227096	-0.415097	-0.105639	-0.279841	-0.102308	-0.007335	-0.124216	0.154737	-0.186474	0.243121	0.053226	0.437749	-0.167565	0.126708	-0.318143	0.506696	
0.903319	0	0	-0.050902	-0.04357	-0.155929	-0.128355	-0.131611	-0.154824	-0.078894	-0.100134	-0.22521	-0.217746	-0.101997	-0.176994	-0.225065	-0.308823	-0.0788352	-0.168512	-0.225456	-0.419731	-0.0980155	-0.284822	-0.103996	-0.00256325	-0.126997	0.162595	-0.169411	0.236612	0.0501905	0.446328	-0.17117	0.136897	-0.300718	0.503554	
0.900267	0	0	-0.050902	-0.04357	-0.157296	-0.124491	-0.14112	-0.148611	-0.082493	-0.089962	-0.224151	-0.220741	-0.113755	-0.16627	-0.223058	-0.314493	-0.0851565	-0.16888	-0.223817	-0.424366	-0.090392	-0.289803	-0.105685	0.0022085	-0.129777	0.170453	-0.152347	0.230103	0.047155	0.454907	-0.174776	0.147086	-0.283293	0.500413	
0.900267	0	0	-0.050902	-0.04357	-0.158663	-0.120627	-0.150629	-0.142398	-0.086092	-0.0797905	-0.223091	-0.223737	-0.125514	-0.155547	-0.221052	-0.320164	-0.0914777	-0.169249	-0.222177	-0.429	-0.0827685	-0.294785	-0.107374	0.00698025	-0.132557	0.178311	-0.135284	0.223594	0.0441195	0.463486	-0.178381	0.157275	-0.265869	0.497271	
0.901793	0	0	-0.050902	-0.04357	-0.16003	-0.116764	-0.160138	-0.136184	-0.089691	-0.069619	-0.222031	-0.226732	-0.137272	-0.144824	-0.219046	-0.325834	-0.097799	-0.169618	-0.220537	-0.433634	-0.075145	-0.299766	-0.109062	0.011752	-0.135338	0.186169	-0.118221	0.217085	0.041084	0.472065	-0.181986	0.167464	-0.248444	0.494129	
0.898741	0	0	-0.0637405	-0.0384593	-0.16003	-0.116764	-0.148937	-0.14718	-0.089691	-0.069619	-0.217795	-0.238703	-0.124115	-0.1595	-0.214035	-0.339994	-0.0936618	-0.181311	-0.225654	-0.43919	-0.078577	-0.30663	-0.102314	-0.00732025	-0.133947	0.182239	-0.118221	0.217085	0.0268745	0.48465	-0.178381	0.157275	-0.254778	0.51203	
0.901793	0	0	-0.076579	-0.0333485	-0.16003	-0.116764	-0.137736	-0.158175	-0.089691	-0.069619	-0.213559	-0.250675	-0.110958	-0.174176	-0.209025	-0.354154	-0.0895245	-0.193004	-0.23077	-0.444746	-0.082009	-0.313495	-0.095565	-0.0263925	-0.132557	0.178309	-0.118221	0.217085	0.012665	0.497235	-0.174776	0.147086	-0.261112	0.52993	
0.898741	0	0	-0.0894175	-0.0282377	-0.16003	-0.116764	-0.126534	-0.169171	-0.089691	-0.069619	-0.209323	-0.262646	-0.097801	-0.188851	-0.204014	-0.368314	-0.0853872	-0.204698	-0.235887	-0.450302	-0.085441	-0.32036	-0.0888165	-0.0454647	-0.131167	0.174379	-0.118221	0.217085	-0.0015445	0.509819	-0.17117	0.136897	-0.267446	0.54783	
0.901793	0	0	-0.102256	-0.023127	-0.16003	-0.116764	-0.115333	-0.180167	-0.089691	-0.069619	-0.205087	-0.274617	-0.084644	-0.203527	-0.199004	-0.382474	-0.08125	-0.216391	-0.241004	-0.455858	-0.088873	-0.327224	-0.082068	-0.064537	-0.129776	0.170449	-0.118221	0.217085	-0.015754	0.522404	-0.167565	0.126708	-0.27378	0.565731	
0.901793	0	0	-0.102256	-0.023127	-0.152479	-0.112779	-0.123151	-0.178733	-0.092393	-0.0619828	-0.204029	-0.277608	-0.0860425	-0.199575	-0.207046	-0.381569	-0.0791833	-0.222232	-0.237731	-0.465108	-0.0871977	-0.331958	-0.0786992	-0.0740578	-0.129776	0.170449	-0.120358	0.223125	-0.0030635	0.514112	-0.124198	0.106204	-0.278856	0.580078	
0.901793	0	0	-0.102256	-0.023127	-0.144929	-0.108795	-0.130969	-0.177299	-0.095095	-0.0543465	-0.202971	-0.280598	-0.087441	-0.195622	-0.215088	-0.380663	-0.0771165	-0.228073	-0.234459	-0.474357	-0.0855225	-0.336692	-0.0753305	-0.0835785	-0.129776	0.170449	-0.122496	0.229165	0.009627	0.505819	-0.0808305	0.0857005	-0.283933	0.594424	
0.901793	0	0	-0.102256	-0.023127	-0.137379	-0.10481	-0.138787	-0.175865	-0.097797	-0.0467102	-0.201913	-0.283588	-0.0888395	-0.191669	-0.22313	-0.379758	-0.0750497	-0.233913	-0.231186	-0.483606	-0.0838472	-0.341426	-0.0719618	-0.0930992	-0.129776	0.170449	-0.124633	0.235206	0.0223175	0.497527	-0.0374633	0.0651967	-0.289009	0.60877	
0.900267	0	0	-0.102256	-0.023127	-0.129828	-0.100825	-0.146605	-0.174431	-0.100499	-0.039074	-0.200855	-0.286579	-0.090238	-0.187717	-0.231172	-0.378853	-0.072983	-0.239754	-0.227913	-0.492856	-0.082172	-0.34616	-0.068593	-0.10262	-0.129776	0.170449	-0.12677	0.241246	0.035008	0.489235	0.005904	0.044693	-0.294085	0.623117	
0.904845	0	0	-0.0977342	-0.0359063	-0.129828	-0.100825	-0.144915	-0.179208	-0.114811	-0.0336367	-0.200855	-0.286579	-0.091637	-0.183763	-0.228172	-0.387333	-0.0709175	-0.245591	-0.235481	-0.491464	-0.082172	-0.34616	-0.0843513	-0.0959803	-0.120016	0.170115	-0.12677	0.241246	0.0334885	0.493529	-0.0446777	0.0855863	-0.280443	0.63078	
0.904845	0	0	-0.0932125	-0.0486855	-0.129828	-0.100825	-0.143225	-0.183985	-0.129123	-0.0281995	-0.200855	-0.286579	-0.093036	-0.179808	-0.225171	-0.395813	-0.068852	-0.251428	-0.243048	-0.490072	-0.082172	-0.34616	-0.100109	-0.0893405	-0.110256	0.169781	-0.12677	0.241246	0.031969	0.497824	-0.0952595	0.12648	-0.266801	0.638444	
0.901793	0	0	-0.0886907	-0.0614648	-0.129828	-0.100825	-0.141534	-0.188762	-0.143435	-0.0227622	-0.200855	-0.286579	-0.094435	-0.175854	-0.222171	-0.404292	-0.0667865	-0.257265	-0.250615	-0.48868	-0.082172	-0.34616	-0.115868	-0.0827008	-0.100495	0.169448	-0.12677	0.241246	0.0304495	0.502119	-0.145841	0.167373	-0.253159	0.646108	
0.903319	0	0	-0.084169	-0.074244	-0.129828	-0.100825	-0.139844	-0.193539	-0.157747	-0.017325	-0.200855	-0.286579	-0.095834	-0.1719	-0.219171	-0.412772	-0.064721	-0.263102	-0.258183	-0.487288	-0.082172	-0.34616	-0.131626	-0.076061	-0.090735	0.169114	-0.12677	0.241246	0.02893	0.506413	-0.196423	0.208266	-0.239517	0.653771	
0.901793	0	0	-0.0796537	-0.087005	-0.129828	-0.100825	-0.145965	-0.196879	-0.154147	-0.0274992	-0.209356	-0.28562	-0.094435	-0.175854	-0.216173	-0.421243	-0.063689	-0.266019	-0.254915	-0.496524	-0.0771522	-0.360347	-0.126582	-0.0903158	-0.0865632	0.157324	-0.12677	0.241246	0.017759	0.510411	-0.200037	0.218478	-0.233958	0.661212	
0.898741	0	0	-0.0751385	-0.099766	-0.129828	-0.100825	-0.152085	-0.200218	-0.150547	-0.0376735	-0.217857	-0.28466	-0.093036	-0.179808	-0.213176	-0.429715	-0.062657	-0.268936	-0.251648	-0.505759	-0.0721325	-0.374534	-0.121538	-0.104571	-0.0823915	0.145535	-0.12677	0.241246	0.006588	0.514409	-0.20365	0.228691	-0.2284	0.668654	
0.900267	0	0	-0.0706232	-0.112527	-0.129828	-0.100825	-0.158206	-0.203558	-0.146947	-0.0478477	-0.226358	-0.283701	-0.091637	-0.183763	-0.210178	-0.438186	-0.061625	-0.271853	-0.24838	-0.514995	-0.0671127	-0.38872	-0.116495	-0.118825	-0.0782198	0.133745	-0.12677	0.241246	-0.004583	0.518406	-0.207263	0.238903	-0.222841	0.676095	
0.901793	0	0	-0.066108	-0.125288	-0.129828	-0.100825	-0.164327	-0.206898	-0.143347	-0.058022	-0.234859	-0.282742	-0.090238	-0.187717	-0.20718	-0.446658	-0.060593	-0.27477	-0.245112	-0.52423	-0.062093	-0.402907	-0.111451	-0.13308	-0.074048	0.121956	-0.12677	0.241246	-0.015754	0.522404	-0.210877	0.249115	-0.217282	0.683537	
0.900267	0	0	-0.0804312	-0.115929	-0.133938	-0.0892093	-0.164327	-0.206898	-0.144246	-0.0554795	-0.224243	-0.289679	-0.0930368	-0.179807	-0.20718	-0.446658	-0.052201	-0.280254	-0.25104	-0.527449	-0.0604215	-0.407631	-0.108093	-0.14257	-0.0726587	0.118029	-0.143832	0.247751	-0.012717	0.513821	-0.210877	0.249115	-0.212996	0.694603	
0.898741	0	0	-0.0947545	-0.10657	-0.138049	-0.0775935	-0.164327	-0.206898	-0.145146	-0.052937	-0.213627	-0.296616	-0.0958355	-0.171897	-0.20718	-0.446658	-0.043809	-0.285737	-0.256969	-0.530668	-0.05875	-0.412355	-0.104734	-0.152061	-0.0712695	0.114103	-0.160893	0.254256	-0.00968	0.505238	-0.210877	0.249115	-0.208709	0.70567	
0.903319	0	0	-0.109078	-0.0972102	-0.142159	-0.0659778	-0.164327	-0.206898	-0.146045	-0.0503945	-0.203011	-0.303552	-0.0986342	-0.163986	-0.20718	-0.446658	-0.035417	-0.29122	-0.262898	-0.533886	-0.0570785	-0.417079	-0.101376	-0.161552	-0.0698803	0.110176	-0.177955	0.260761	-0.006643	0.496655	-0.210877	0.249115	-0.204423	0.716736	
0.904845	0	0	-0.123401	-0.087851	-0.146269	-0.054362	-0.164327	-0.206898	-0.146945	-0.047852	-0.192395	-0.310489	-0.101433	-0.156076	-0.20718	-0.446658	-0.027025	-0.296704	-0.268826	-0.537105	-0.055407	-0.421803	-0.098018	-0.171042	-0.068491	0.10625	-0.195017	0.267266	-0.003606	0.488072	-0.210877	0.249115	-0.200136	0.727803	
0.901793	0	0	-0.11739	-0.104838	-0.144898	-0.0582355	-0.16011	-0.218816	-0.149596	-0.0578393	-0.203011	-0.303552	-0.102833	-0.152118	-0.20718	-0.446658	-0.035417	-0.29122	-0.257187	-0.550025	-0.0638593	-0.414465	-0.0963405	-0.175784	-0.0698803	0.110176	-0.177955	0.260761	0.004528	0.492657	-0.214495	0.259339	-0.19713	0.742517	
0.897216	0	0	-0.11138	-0.121824	-0.143528	-0.062109	-0.155892	-0.230735	-0.152248	-0.0678265	-0.213627	-0.296616	-0.104234	-0.148161	-0.20718	-0.446658	-0.043809	-0.285737	-0.245548	-0.562945	-0.0723115	-0.407126	-0.094663	-0.180525	-0.0712695	0.114103	-0.160893	0.254256	0.012662	0.497243	-0.218112	0.269563	-0.194124	0.757231	
0.900267	0	0	-0.10537	-0.138811	-0.142157	-0.0659825	-0.151675	-0.242654	-0.154899	-0.0778138	-0.224243	-0.289679	-0.105635	-0.144203	-0.20718	-0.446658	-0.052201	-0.280254	-0.233909	-0.575865	-0.0807637	-0.399787	-0.0929855	-0.185267	-0.0726587	0.118029	-0.143832	0.247751	0.020796	0.501828	-0.22173	0.279787	-0.191118	0.771945	
0.900267	0	0	-0.099359	-0.155797	-0.140786	-0.069856	-0.147458	-0.254572	-0.157551	-0.087801	-0.234859	-0.282742	-0.107035	-0.140245	-0.20718	-0.446658	-0.060593	-0.27477	-0.22227	-0.588785	-0.089216	-0.392449	-0.091308	-0.190008	-0.074048	0.121956	-0.12677	0.241246	0.02893	0.506413	-0.225348	0.290011	-0.188112	0.786659	
0.900267	0	0	-0.0978583	-0.160039	-0.155183	-0.0544913	-0.146615	-0.256954	-0.154857	-0.0954133	-0.234859	-0.282742	-0.105635	-0.144203	-0.20718	-0.446658	-0.053233	-0.277336	-0.229019	-0.589686	-0.0790933	-0.404509	-0.0879552	-0.199483	-0.0684945	0.106261	-0.12677	0.241246	0.020796	0.501828	-0.22897	0.300247	-0.178698	0.783291	
0.898741	0	0	-0.0963575	-0.16428	-0.16958	-0.0391265	-0.145772	-0.259335	-0.152164	-0.103025	-0.234859	-0.282742	-0.104234	-0.148161	-0.20718	-0.446658	-0.045873	-0.279903	-0.235767	-0.590587	-0.0689705	-0.416569	-0.0846025	-0.208958	-0.062941	0.0905655	-0.12677	0.241246	0.012662	0.497243	-0.232592	0.310482	-0.169283	0.779923	
0.901793	0	0	-0.0948567	-0.168521	-0.183978	-0.0237617	-0.14493	-0.261717	-0.149471	-0.110638	-0.234859	-0.282742	-0.102833	-0.152118	-0.20718	-0.446658	-0.038513	-0.28247	-0.242516	-0.591488	-0.0588477	-0.428629	-0.0812497	-0.218434	-0.0573875	0.0748702	-0.12677	0.241246	0.004528	0.492657	-0.236213	0.320717	-0.159868	0.776555	
0.900267	0	0	-0.093356	-0.172763	-0.198375	-0.008397	-0.144087	-0.264099	-0.146777	-0.11825	-0.234859	-0.282742	-0.101433	-0.156076	-0.20718	-0.446658	-0.031153	-0.285036	-0.249265	-0.592389	-0.048725	-0.440689	-0.077897	-0.227909	-0.051834	0.059175	-0.12677	0.241246	-0.003606	0.488072	-0.239835	0.330953	-0.150454	0.773187	
0.900267	0	0	-0.093356	-0.172763	-0.190837	-0.004377	-0.14493	-0.261717	-0.154815	-0.112998	-0.235916	-0.279754	-0.0924615	-0.158896	-0.208179	-0.443835	-0.0248183	-0.284688	-0.248451	-0.59469	-0.04789	-0.443049	-0.0936277	-0.22127	-0.061603	0.059533	-0.12677	0.241246	-0.000572	0.479497	-0.192862	0.30026	-0.155584	0.787685	
0.898741	0	0	-0.093356	-0.172763	-0.183299	-0.000357	-0.145772	-0.259335	-0.162853	-0.107746	-0.236974	-0.276765	-0.08349	-0.161716	-0.209178	-0.441012	-0.0184835	-0.28434	-0.247636	-0.596992	-0.047055	-0.445408	-0.109358	-0.21463	-0.071372	0.059891	-0.12677	0.241246	0.002462	0.470923	-0.14589	0.269568	-0.160714	0.802183	
0.901793	0	0	-0.093356	-0.172763	-0.175761	0.003663	-0.146615	-0.256954	-0.170891	-0.102494	-0.238031	-0.273777	-0.0745185	-0.164535	-0.210177	-0.438189	-0.0121487	-0.283992	-0.246822	-0.599293	-0.04622	-0.447768	-0.125089	-0.20799	-0.081141	0.060249	-0.12677	0.241246	0.005496	0.462348	-0.0989175	0.238875	-0.165844	0.81668	
0.900267	0	0	-0.093356	-0.172763	-0.168223	0.007683	-0.147458	-0.254572	-0.178929	-0.097242	-0.239088	-0.270789	-0.065547	-0.167355	-0.211176	-0.435366	-0.005814	-0.283644	-0.246008	-0.601594	-0.045385	-0.450128	-0.14082	-0.201351	-0.09091	0.060607	-0.12677	0.241246	0.00853	0.453773	-0.051945	0.208182	-0.170974	0.831178	
0.900267	0	0	-0.0903565	-0.18124	-0.16685	0.00380275	-0.14493	-0.261715	-0.165511	-0.117699	-0.236974	-0.276764	-0.0820792	-0.165677	-0.211176	-0.435366	-0.0131813	-0.281074	-0.254377	-0.597894	-0.0445502	-0.452487	-0.139146	-0.206083	-0.0895242	0.056691	-0.128909	0.24729	0.0070135	0.458059	-0.059201	0.228689	-0.165403	0.838702	
0.900267	0	0	-0.087357	-0.189717	-0.165477	-7.75E-05	-0.142402	-0.268859	-0.152093	-0.138157	-0.234859	-0.28274	-0.0986115	-0.163998	-0.211176	-0.435366	-0.0205485	-0.278504	-0.262746	-0.594195	-0.0437155	-0.454846	-0.137472	-0.210814	-0.0881385	0.052775	-0.131047	0.253335	0.005497	0.462345	-0.066457	0.249195	-0.159832	0.846225	
0.903319	0	0	-0.0843575	-0.198194	-0.164104	-0.00395775	-0.139875	-0.276003	-0.138674	-0.158614	-0.232745	-0.288716	-0.115144	-0.16232	-0.211176	-0.435366	-0.0279158	-0.275934	-0.271115	-0.590495	-0.0428808	-0.457205	-0.135798	-0.215546	-0.0867528	0.048859	-0.133186	0.259379	0.0039805	0.466632	-0.073713	0.269702	-0.154262	0.853749	
0.901793	0	0	-0.081358	-0.206671	-0.162731	-0.007838	-0.137347	-0.283146	-0.125256	-0.179072	-0.230631	-0.294691	-0.131676	-0.160641	-0.211176	-0.435366	-0.035283	-0.273364	-0.279484	-0.586796	-0.042046	-0.459564	-0.134124	-0.220277	-0.085367	0.044943	-0.135325	0.265424	0.002464	0.470918	-0.080969	0.290208	-0.148691	0.861273	
0.901793	0	0	-0.0783612	-0.21514	-0.159987	-0.0155935	-0.136505	-0.285526	-0.12078	-0.191723	-0.228518	-0.300663	-0.127482	-0.172493	-0.212175	-0.432542	-0.035283	-0.273364	-0.27623	-0.595993	-0.0463257	-0.464018	-0.111701	-0.24583	-0.0923542	0.037479	-0.131049	0.253339	0.00701175	0.458065	-0.080969	0.290208	-0.148691	0.861273	
0.901793	0	0	-0.0753645	-0.223609	-0.157243	-0.023349	-0.135663	-0.287906	-0.116303	-0.204375	-0.226405	-0.306634	-0.123288	-0.184345	-0.213174	-0.429719	-0.035283	-0.273364	-0.272975	-0.60519	-0.0506055	-0.468471	-0.0892775	-0.271382	-0.0993415	0.030015	-0.126773	0.241254	0.0115595	0.445213	-0.080969	0.290208	-0.148691	0.861273	
0.901793	0	0	-0.0723678	-0.232078	-0.154498	-0.0311045	-0.134821	-0.290286	-0.111826	-0.217026	-0.224292	-0.312606	-0.119095	-0.196197	-0.214173	-0.426895	-0.035283	-0.273364	-0.26972	-0.614388	-0.0548853	-0.472925	-0.0668543	-0.296935	-0.106329	0.022551	-0.122497	0.22917	0.0161073	0.43236	-0.080969	0.290208	-0.148691	0.861273	
0.904845	0	0	-0.069371	-0.240547	-0.151754	-0.03886	-0.133979	-0.292666	-0.10735	-0.229677	-0.222179	-0.318578	-0.114901	-0.208049	-0.215172	-0.424071	-0.035283	-0.273364	-0.266466	-0.623585	-0.059165	-0.477379	-0.044431	-0.322488	-0.113316	0.015087	-0.118221	0.217085	0.020655	0.419507	-0.080969	0.290208	-0.148691	0.861273	
0.903319	0	0	-0.069371	-0.240547	-0.150383	-0.0427355	-0.133979	-0.292666	-0.115388	-0.224425	-0.222179	-0.318578	-0.104542	-0.214818	-0.216172	-0.421246	-0.028949	-0.273014	-0.265653	-0.625883	-0.0498813	-0.487067	-0.0461025	-0.317764	-0.110551	0.00727375	-0.120358	0.223125	0.020655	0.419507	-0.080969	0.290208	-0.148691	0.861273	
0.903319	0	0	-0.069371	-0.240547	-0.149012	-0.046611	-0.133979	-0.292666	-0.123426	-0.219172	-0.222179	-0.318578	-0.094182	-0.221587	-0.217172	-0.418422	-0.022615	-0.272664	-0.26484	-0.628181	-0.0405975	-0.496756	-0.047774	-0.31304	-0.107787	-0.0005395	-0.122496	0.229165	0.020655	0.419507	-0.080969	0.290208	-0.148691	0.861273	
