3.50494	0	0	-0.144702	-0.463138	-0.386678	-0.388083	-0.337797	-0.412006	-0.258071	-0.015363	-0.375918	-0.291406	-0.212293	-0.091241	-0.371508	-0.083705	-0.322187	-0.290181	-0.475838	-0.106415	-0.306588	-0.294122	-0.436327	0.184558	-0.311202	0.100215	-0.28465	-0.228981	-0.169122	-0.242832	-0.032179	0.151326	0.304265	-0.197651	
3.50799	0	0	-0.141479	-0.472246	-0.38451	-0.39421	-0.335811	-0.417619	-0.255072	-0.0238375	-0.382489	-0.295182	-0.221686	-0.0892505	-0.375086	-0.0923962	-0.320853	-0.29395	-0.484653	-0.100655	-0.328934	-0.266045	-0.437827	0.188798	-0.321648	0.129738	-0.286707	-0.223169	-0.179593	-0.213239	-0.082456	0.193008	0.30159	-0.190089	
3.50647	0	0	-0.138257	-0.481355	-0.382342	-0.400338	-0.333824	-0.423233	-0.252074	-0.032312	-0.38906	-0.298958	-0.231079	-0.08726	-0.378665	-0.101087	-0.31952	-0.297719	-0.493468	-0.0948955	-0.35128	-0.237968	-0.439327	0.193037	-0.332094	0.15926	-0.288763	-0.217357	-0.190064	-0.183647	-0.132733	0.234691	0.298914	-0.182528	
3.50189	0	0	-0.135034	-0.490463	-0.380174	-0.406465	-0.331838	-0.428846	-0.249076	-0.0407865	-0.395631	-0.302734	-0.240473	-0.0852695	-0.382244	-0.109779	-0.318186	-0.301488	-0.502282	-0.0891357	-0.373627	-0.209891	-0.440828	0.197276	-0.342541	0.188782	-0.29082	-0.211544	-0.200535	-0.154054	-0.18301	0.276373	0.296239	-0.174966	
3.50494	0	0	-0.131811	-0.499571	-0.378006	-0.412592	-0.329852	-0.434459	-0.246077	-0.049261	-0.402202	-0.30651	-0.249866	-0.083279	-0.385822	-0.11847	-0.316852	-0.305257	-0.511097	-0.083376	-0.395973	-0.181814	-0.442328	0.201516	-0.352987	0.218305	-0.292876	-0.205732	-0.211006	-0.124462	-0.233287	0.318056	0.293563	-0.167404	
3.49884	0	0	-0.131811	-0.499571	-0.382344	-0.400333	-0.328859	-0.437264	-0.239357	-0.051481	-0.398492	-0.316994	-0.247958	-0.0886703	-0.391426	-0.121417	-0.310558	-0.303574	-0.516294	-0.0878198	-0.394939	-0.184738	-0.454198	0.202755	-0.3399	0.206507	-0.294934	-0.199916	-0.215504	-0.111749	-0.229223	0.30657	0.289545	-0.156049	
3.49731	0	0	-0.131811	-0.499571	-0.386681	-0.388074	-0.327867	-0.44007	-0.232636	-0.053701	-0.394783	-0.327478	-0.246051	-0.0940615	-0.39703	-0.124365	-0.304263	-0.301891	-0.521492	-0.0922635	-0.393904	-0.187661	-0.466068	0.203994	-0.326814	0.194709	-0.296992	-0.194099	-0.220002	-0.0990365	-0.225158	0.295083	0.285528	-0.144694	
3.49731	0	0	-0.131811	-0.499571	-0.391018	-0.375816	-0.326875	-0.442875	-0.225916	-0.055921	-0.391073	-0.337962	-0.244143	-0.0994528	-0.402634	-0.127312	-0.297968	-0.300207	-0.52669	-0.0967073	-0.392869	-0.190585	-0.477939	0.205234	-0.313727	0.182911	-0.29905	-0.188283	-0.224501	-0.0863238	-0.221094	0.283597	0.28151	-0.133339	
3.49121	0	0	-0.131811	-0.499571	-0.395356	-0.363557	-0.325882	-0.44568	-0.219196	-0.058141	-0.387363	-0.348446	-0.242235	-0.104844	-0.408238	-0.130259	-0.291674	-0.298524	-0.531887	-0.101151	-0.391835	-0.193509	-0.489809	0.206473	-0.300641	0.171113	-0.301108	-0.182467	-0.228999	-0.073611	-0.21703	0.272111	0.277492	-0.121984	
3.49121	0	0	-0.133422	-0.495018	-0.384487	-0.361222	-0.328861	-0.437262	-0.208737	-0.05411	-0.387363	-0.348446	-0.246052	-0.0940583	-0.397566	-0.141635	-0.298353	-0.279647	-0.528283	-0.111337	-0.399895	-0.188242	-0.483818	0.189543	-0.307754	0.166029	-0.31447	-0.182676	-0.224501	-0.0863238	-0.21703	0.272111	0.278832	-0.125771	
3.49274	0	0	-0.135033	-0.490465	-0.373617	-0.358886	-0.33184	-0.428843	-0.198278	-0.050079	-0.387363	-0.348446	-0.249868	-0.0832725	-0.386894	-0.153011	-0.305032	-0.260771	-0.524679	-0.121523	-0.407956	-0.182975	-0.477828	0.172613	-0.314867	0.160945	-0.327833	-0.182885	-0.220002	-0.0990365	-0.21703	0.272111	0.280172	-0.129557	
3.49121	0	0	-0.136644	-0.485912	-0.362748	-0.356551	-0.334818	-0.420424	-0.187819	-0.046048	-0.387363	-0.348446	-0.253684	-0.0724868	-0.376221	-0.164387	-0.311712	-0.241894	-0.521074	-0.131709	-0.416017	-0.177708	-0.471838	0.155683	-0.32198	0.155861	-0.341195	-0.183093	-0.215504	-0.111749	-0.21703	0.272111	0.281511	-0.133344	
3.48663	0	0	-0.138255	-0.481359	-0.351879	-0.354216	-0.337797	-0.412006	-0.17736	-0.042017	-0.387363	-0.348446	-0.257501	-0.061701	-0.365549	-0.175763	-0.318391	-0.223017	-0.51747	-0.141895	-0.424077	-0.172441	-0.465847	0.138753	-0.329093	0.150777	-0.354558	-0.183302	-0.211006	-0.124462	-0.21703	0.272111	0.282851	-0.137131	
3.48816	0	0	-0.139867	-0.476804	-0.358406	-0.335771	-0.331184	-0.409849	-0.182368	-0.0278615	-0.389836	-0.341458	-0.251933	-0.052883	-0.367575	-0.170037	-0.317453	-0.206174	-0.51657	-0.14444	-0.425111	-0.169517	-0.480691	0.148452	-0.327601	0.146562	-0.350449	-0.194915	-0.205018	-0.141384	-0.212971	0.26064	0.273991	-0.134251	
3.48663	0	0	-0.141479	-0.472248	-0.364932	-0.317325	-0.324572	-0.407691	-0.187377	-0.013706	-0.392308	-0.33447	-0.246364	-0.044065	-0.369602	-0.16431	-0.316515	-0.189331	-0.51567	-0.146984	-0.426146	-0.166594	-0.495535	0.158152	-0.32611	0.142346	-0.34634	-0.206529	-0.199031	-0.158306	-0.208912	0.249168	0.265131	-0.131372	
3.48205	0	0	-0.14309	-0.467693	-0.371459	-0.29888	-0.317959	-0.405534	-0.192385	0.0004495	-0.394781	-0.327482	-0.240795	-0.035247	-0.371628	-0.158583	-0.315578	-0.172489	-0.514769	-0.149529	-0.427181	-0.16367	-0.510379	0.167851	-0.324619	0.13813	-0.34223	-0.218142	-0.193044	-0.175228	-0.204853	0.237697	0.256271	-0.128493	
3.48358	0	0	-0.144702	-0.463138	-0.377986	-0.280435	-0.311346	-0.403377	-0.197394	0.014605	-0.397253	-0.320494	-0.235227	-0.026429	-0.373654	-0.152857	-0.31464	-0.155646	-0.513869	-0.152074	-0.428215	-0.160746	-0.525223	0.177551	-0.323127	0.133915	-0.338121	-0.229755	-0.187056	-0.19215	-0.200794	0.226225	0.247411	-0.125613	
3.48358	0	0	-0.147928	-0.45402	-0.384526	-0.261952	-0.316322	-0.389315	-0.207435	0.042983	-0.400966	-0.310002	-0.233489	-0.006753	-0.369056	-0.147048	-0.313713	-0.138752	-0.514769	-0.149529	-0.439374	-0.146707	-0.510379	0.167851	-0.337688	0.149913	-0.338121	-0.229755	-0.187056	-0.19215	-0.204853	0.237697	0.24875	-0.129396	
3.48205	0	0	-0.151154	-0.444903	-0.391066	-0.243468	-0.321297	-0.375254	-0.217476	0.071361	-0.404679	-0.299509	-0.23175	0.012923	-0.364458	-0.141239	-0.312786	-0.121858	-0.51567	-0.146984	-0.450533	-0.132668	-0.495535	0.158152	-0.352248	0.16591	-0.338121	-0.229755	-0.187056	-0.19215	-0.208912	0.249168	0.250088	-0.13318	
3.48053	0	0	-0.15438	-0.435785	-0.397606	-0.224984	-0.326272	-0.361192	-0.227518	0.099739	-0.408391	-0.289017	-0.230012	0.032599	-0.35986	-0.13543	-0.31186	-0.104963	-0.51657	-0.14444	-0.461691	-0.118629	-0.480691	0.148452	-0.366808	0.181907	-0.338121	-0.229755	-0.187056	-0.19215	-0.212971	0.26064	0.251427	-0.136963	
3.48358	0	0	-0.157606	-0.426668	-0.404146	-0.206501	-0.331248	-0.34713	-0.237559	0.128117	-0.412104	-0.278525	-0.228274	0.052275	-0.355262	-0.129621	-0.310933	-0.088069	-0.51747	-0.141895	-0.47285	-0.10459	-0.465847	0.138753	-0.381369	0.197905	-0.338121	-0.229755	-0.187056	-0.19215	-0.21703	0.272111	0.252766	-0.140746	
3.48358	0	0	-0.157606	-0.426668	-0.406329	-0.200331	-0.33324	-0.341499	-0.241585	0.139493	-0.415821	-0.26802	-0.234035	0.068557	-0.36034	-0.11527	-0.317661	-0.0690557	-0.528969	-0.128508	-0.466869	-0.103996	-0.483685	0.156913	-0.372779	0.198781	-0.338121	-0.229755	-0.188552	-0.187922	-0.258936	0.290674	0.260287	-0.139842	
3.48663	0	0	-0.157606	-0.426668	-0.408513	-0.194161	-0.335233	-0.335868	-0.24561	0.15087	-0.419538	-0.257516	-0.239796	0.084839	-0.365418	-0.100919	-0.324388	-0.0500425	-0.540469	-0.115122	-0.460888	-0.103402	-0.501522	0.175074	-0.364189	0.199658	-0.338121	-0.229755	-0.190047	-0.183695	-0.300842	0.309237	0.267809	-0.138939	
3.48816	0	0	-0.157606	-0.426668	-0.410696	-0.187992	-0.337226	-0.330237	-0.249636	0.162247	-0.423254	-0.247011	-0.245557	0.101121	-0.370495	-0.086568	-0.331116	-0.0310292	-0.551968	-0.101735	-0.454907	-0.102808	-0.51936	0.193235	-0.355599	0.200535	-0.338121	-0.229755	-0.191543	-0.179468	-0.342748	0.3278	0.27533	-0.138035	
3.48816	0	0	-0.157606	-0.426668	-0.412879	-0.181822	-0.339218	-0.324606	-0.253661	0.173623	-0.426971	-0.236507	-0.251318	0.117403	-0.375573	-0.072217	-0.337844	-0.012016	-0.563468	-0.088349	-0.448926	-0.102214	-0.537198	0.211395	-0.347009	0.201411	-0.338121	-0.229755	-0.193039	-0.17524	-0.384654	0.346363	0.282851	-0.137131	
3.49274	0	0	-0.151157	-0.444894	-0.406334	-0.200318	-0.343834	-0.332408	-0.254353	0.158777	-0.434765	-0.236799	-0.262635	0.124797	-0.382196	-0.072305	-0.346825	-0.0061475	-0.563468	-0.088349	-0.458016	-0.0940225	-0.540195	0.219864	-0.349999	0.20986	-0.340175	-0.22395	-0.197531	-0.162546	-0.392777	0.369321	0.281511	-0.133344	
3.49274	0	0	-0.144709	-0.46312	-0.39979	-0.218815	-0.348449	-0.340209	-0.255046	0.143931	-0.442559	-0.237092	-0.273952	0.132192	-0.388818	-0.072393	-0.355806	-0.000279	-0.563468	-0.088349	-0.467106	-0.085831	-0.543192	0.228333	-0.352989	0.218309	-0.342229	-0.218145	-0.202022	-0.149851	-0.4009	0.392278	0.280172	-0.129557	
3.49731	0	0	-0.13826	-0.481345	-0.393245	-0.237311	-0.353065	-0.348011	-0.255738	0.129084	-0.450354	-0.237384	-0.285269	0.139587	-0.39544	-0.072481	-0.364787	0.0055895	-0.563468	-0.088349	-0.476195	-0.0776395	-0.546188	0.236802	-0.355978	0.226758	-0.344283	-0.212341	-0.206514	-0.137157	-0.409024	0.415236	0.278832	-0.125771	
3.50189	0	0	-0.131811	-0.499571	-0.3867	-0.255807	-0.35768	-0.355812	-0.25643	0.114238	-0.458148	-0.237676	-0.296586	0.146981	-0.402063	-0.072569	-0.373768	0.011458	-0.563468	-0.088349	-0.485285	-0.069448	-0.549185	0.245271	-0.358968	0.235207	-0.346337	-0.206536	-0.211006	-0.124462	-0.417147	0.438194	0.277492	-0.121984	
3.50952	0	0	-0.140732	-0.504232	-0.367105	-0.278075	-0.353703	-0.367053	-0.250407	0.0972165	-0.460985	-0.251952	-0.298292	0.127246	-0.405635	-0.0812612	-0.378702	0.0059075	-0.567752	-0.095334	-0.486081	-0.0846772	-0.543195	0.228341	-0.360093	0.213235	-0.346337	-0.206536	-0.211006	-0.124462	-0.409024	0.415236	0.277492	-0.121984	
3.5141	0	0	-0.149653	-0.508893	-0.347509	-0.300343	-0.349726	-0.378293	-0.244385	0.080195	-0.463821	-0.266228	-0.299998	0.107511	-0.409206	-0.0899535	-0.383635	0.000357	-0.572037	-0.102319	-0.486878	-0.0999065	-0.537204	0.211411	-0.361218	0.191263	-0.346337	-0.206536	-0.211006	-0.124462	-0.4009	0.392278	0.277492	-0.121984	
3.5202	0	0	-0.158573	-0.513554	-0.327913	-0.32261	-0.345748	-0.389534	-0.238362	0.0631735	-0.466658	-0.280504	-0.301703	0.087776	-0.412778	-0.0986458	-0.388568	-0.0051935	-0.576321	-0.109304	-0.487675	-0.115136	-0.531214	0.194481	-0.362344	0.16929	-0.346337	-0.206536	-0.211006	-0.124462	-0.392777	0.369321	0.277492	-0.121984	
3.53088	0	0	-0.167494	-0.518215	-0.308318	-0.344878	-0.341771	-0.400774	-0.232339	0.046152	-0.469494	-0.29478	-0.303409	0.068041	-0.416349	-0.107338	-0.393502	-0.010744	-0.580606	-0.116289	-0.488471	-0.130365	-0.525223	0.177551	-0.363469	0.147318	-0.346337	-0.206536	-0.211006	-0.124462	-0.384654	0.346363	0.277492	-0.121984	
3.53393	0	0	-0.150531	-0.536284	-0.321382	-0.341068	-0.340778	-0.403582	-0.231336	0.0433183	-0.473569	-0.30553	-0.297665	0.0518085	-0.413308	-0.115932	-0.389469	-0.0221422	-0.576109	-0.128998	-0.497307	-0.140305	-0.519244	0.160653	-0.366099	0.129633	-0.357621	-0.212542	-0.210419	-0.15084	-0.3806	0.334906	0.273986	-0.134237	
3.54004	0	0	-0.133567	-0.554353	-0.334446	-0.337259	-0.339784	-0.40639	-0.230333	0.0404845	-0.477644	-0.316279	-0.291922	0.035576	-0.410267	-0.124526	-0.385436	-0.0335405	-0.571612	-0.141707	-0.506143	-0.150245	-0.513265	0.143755	-0.368729	0.111948	-0.368904	-0.218548	-0.209832	-0.177218	-0.376546	0.32345	0.27048	-0.146489	
3.55072	0	0	-0.116603	-0.572422	-0.347511	-0.333449	-0.33879	-0.409198	-0.229331	0.0376507	-0.481719	-0.327028	-0.286178	0.0193435	-0.407226	-0.13312	-0.381402	-0.0449387	-0.567116	-0.154416	-0.514979	-0.160185	-0.507286	0.126857	-0.37136	0.0942623	-0.380188	-0.224555	-0.209245	-0.203596	-0.372492	0.311993	0.266974	-0.158742	
3.55835	0	0	-0.09964	-0.590491	-0.360575	-0.329639	-0.337797	-0.412006	-0.228328	0.034817	-0.485794	-0.337778	-0.280434	0.003111	-0.404185	-0.141714	-0.377369	-0.056337	-0.562619	-0.167125	-0.523815	-0.170125	-0.501307	0.109959	-0.37399	0.076577	-0.391471	-0.230561	-0.208658	-0.229974	-0.368438	0.300536	0.263468	-0.170994	
3.56598	0	0	-0.111783	-0.586046	-0.345335	-0.339597	-0.346387	-0.408551	-0.236055	0.0398657	-0.483328	-0.344747	-0.271045	0.00113375	-0.410797	-0.141795	-0.377369	-0.056337	-0.551136	-0.180484	-0.525652	-0.182365	-0.49683	0.0973062	-0.366567	0.0555983	-0.383279	-0.253712	-0.209588	-0.252031	-0.314381	0.247632	0.258626	-0.179442	
3.57056	0	0	-0.123926	-0.581601	-0.330095	-0.349555	-0.354978	-0.405096	-0.243781	0.0449145	-0.480862	-0.351716	-0.261657	-0.0008435	-0.417408	-0.141876	-0.377369	-0.056337	-0.539653	-0.193843	-0.527489	-0.194605	-0.492353	0.0846535	-0.359144	0.0346195	-0.375088	-0.276863	-0.210518	-0.274088	-0.260324	0.194727	0.253783	-0.18789	
3.57971	0	0	-0.136068	-0.577156	-0.314856	-0.359513	-0.363568	-0.401641	-0.251507	0.0499633	-0.478397	-0.358685	-0.252269	-0.00282075	-0.424019	-0.141957	-0.377369	-0.056337	-0.52817	-0.207201	-0.529326	-0.206845	-0.487876	0.0720008	-0.351721	0.0136408	-0.366896	-0.300015	-0.211449	-0.296144	-0.206267	0.141823	0.248941	-0.196338	
3.58887	0	0	-0.148211	-0.572711	-0.299616	-0.369471	-0.372158	-0.398186	-0.259234	0.055012	-0.475931	-0.365654	-0.24288	-0.004798	-0.430631	-0.142038	-0.377369	-0.056337	-0.516687	-0.22056	-0.531163	-0.219085	-0.483399	0.059348	-0.344298	-0.007338	-0.358704	-0.323166	-0.212379	-0.318201	-0.15221	0.088919	0.244098	-0.204786	
3.59955	0	0	-0.146606	-0.577248	-0.314856	-0.359513	-0.372158	-0.398186	-0.253513	0.0556318	-0.475931	-0.365654	-0.256097	0.00799775	-0.429619	-0.144899	-0.386331	-0.050481	-0.523679	-0.219892	-0.538149	-0.216758	-0.496727	0.0648172	-0.332737	-0.014892	-0.354616	-0.334719	-0.207919	-0.330806	-0.198175	0.118953	0.249434	-0.219865	
3.60412	0	0	-0.145001	-0.581784	-0.330095	-0.349555	-0.372158	-0.398186	-0.247793	0.0562515	-0.475931	-0.365654	-0.269313	0.0207935	-0.428607	-0.14776	-0.395293	-0.044625	-0.530671	-0.219224	-0.545134	-0.214431	-0.510054	0.0702865	-0.321176	-0.022446	-0.350528	-0.346272	-0.203459	-0.343411	-0.24414	0.148988	0.254769	-0.234944	
3.60412	0	0	-0.143395	-0.586321	-0.345335	-0.339597	-0.372158	-0.398186	-0.242072	0.0568712	-0.475931	-0.365654	-0.282529	0.0335893	-0.427594	-0.150621	-0.404256	-0.038769	-0.537664	-0.218557	-0.552119	-0.212104	-0.523381	0.0757558	-0.309615	-0.03	-0.34644	-0.357825	-0.198999	-0.356016	-0.290105	0.179023	0.260105	-0.250023	
3.61328	0	0	-0.14179	-0.590858	-0.360575	-0.329639	-0.372158	-0.398186	-0.236351	0.057491	-0.475931	-0.365654	-0.295746	0.046385	-0.426582	-0.153482	-0.413218	-0.032913	-0.544656	-0.217889	-0.559105	-0.209777	-0.536709	0.081225	-0.298054	-0.037554	-0.342352	-0.369378	-0.194539	-0.368621	-0.33607	0.209057	0.265441	-0.265102	
3.61633	0	0	-0.14179	-0.590858	-0.362751	-0.323491	-0.374145	-0.392571	-0.240366	0.0688385	-0.479631	-0.355198	-0.294034	0.0661035	-0.428607	-0.147759	-0.408289	-0.0273707	-0.545554	-0.215352	-0.552119	-0.212104	-0.524873	0.0799715	-0.287961	-0.0409267	-0.32491	-0.380775	-0.194539	-0.368621	-0.33607	0.209057	0.264108	-0.261335	
3.62244	0	0	-0.14179	-0.590858	-0.364926	-0.317342	-0.376132	-0.386956	-0.244382	0.080186	-0.48333	-0.344743	-0.292323	0.085822	-0.430632	-0.142037	-0.40336	-0.0218285	-0.546452	-0.212815	-0.545134	-0.214431	-0.513037	0.078718	-0.277867	-0.0442995	-0.307469	-0.392172	-0.194539	-0.368621	-0.33607	0.209057	0.262775	-0.257568	
3.62396	0	0	-0.14179	-0.590858	-0.367102	-0.311194	-0.378118	-0.381341	-0.248397	0.0915335	-0.48703	-0.334288	-0.290611	0.105541	-0.432657	-0.136314	-0.398431	-0.0162862	-0.547349	-0.210279	-0.538149	-0.216758	-0.501201	0.0774645	-0.267774	-0.0476722	-0.290027	-0.403568	-0.194539	-0.368621	-0.33607	0.209057	0.261441	-0.2538	
3.63006	0	0	-0.14179	-0.590858	-0.369278	-0.305045	-0.380105	-0.375726	-0.252412	0.102881	-0.490729	-0.323832	-0.288899	0.125259	-0.434682	-0.130591	-0.393502	-0.010744	-0.548247	-0.207742	-0.531163	-0.219085	-0.489365	0.076211	-0.257681	-0.051045	-0.272586	-0.414965	-0.194539	-0.368621	-0.33607	0.209057	0.260108	-0.250033	
3.63312	0	0	-0.145001	-0.581782	-0.373634	-0.292736	-0.382093	-0.370108	-0.258444	0.119929	-0.487893	-0.309581	-0.287202	0.14505	-0.438736	-0.119134	-0.391263	0.00242325	-0.550043	-0.202666	-0.530358	-0.203928	-0.479	0.07917	-0.255003	-0.0334275	-0.274629	-0.40919	-0.189125	-0.359235	-0.340113	0.220484	0.258775	-0.246264	
3.63464	0	0	-0.148212	-0.572707	-0.377989	-0.280426	-0.384081	-0.364489	-0.264477	0.136978	-0.485057	-0.29533	-0.285505	0.164842	-0.44279	-0.107677	-0.389025	0.0155905	-0.551839	-0.197591	-0.529554	-0.188771	-0.468635	0.082129	-0.252325	-0.01581	-0.276673	-0.403415	-0.183711	-0.349848	-0.344157	0.231912	0.257441	-0.242495	
3.63769	0	0	-0.151424	-0.563631	-0.382344	-0.268116	-0.386069	-0.35887	-0.270509	0.154027	-0.482221	-0.281079	-0.283807	0.184633	-0.446844	-0.09622	-0.386787	0.0287577	-0.553635	-0.192515	-0.528749	-0.173614	-0.45827	0.085088	-0.249646	0.0018075	-0.278717	-0.397641	-0.178298	-0.340461	-0.348201	0.24334	0.256107	-0.238726	
3.64227	0	0	-0.154635	-0.554555	-0.3867	-0.255807	-0.388057	-0.353252	-0.276541	0.171075	-0.479385	-0.266828	-0.28211	0.204424	-0.450898	-0.084763	-0.384548	0.041925	-0.555431	-0.187439	-0.527944	-0.158457	-0.447905	0.088047	-0.246968	0.019425	-0.28076	-0.391866	-0.172884	-0.331075	-0.352244	0.254767	0.254774	-0.234957	
3.64075	0	0	-0.153029	-0.559094	-0.3867	-0.255807	-0.387063	-0.356062	-0.285274	0.178968	-0.488054	-0.242327	-0.28236	0.229752	-0.44632	-0.0789352	-0.392647	0.0648142	-0.550238	-0.183021	-0.535179	-0.138011	-0.455384	0.109185	-0.245791	0.041321	-0.286898	-0.37452	-0.160552	-0.316458	-0.352244	0.254767	0.260957	-0.230297	
3.63922	0	0	-0.151423	-0.563633	-0.3867	-0.255807	-0.386068	-0.358872	-0.294007	0.186862	-0.496723	-0.217826	-0.28261	0.255081	-0.441742	-0.0731075	-0.400747	0.0877035	-0.545046	-0.178603	-0.542413	-0.117564	-0.462863	0.130322	-0.244615	0.063217	-0.293036	-0.357173	-0.148219	-0.301841	-0.352244	0.254767	0.26714	-0.225637	
3.6438	0	0	-0.149817	-0.568172	-0.3867	-0.255807	-0.385074	-0.361681	-0.30274	0.194755	-0.505393	-0.193325	-0.282861	0.280409	-0.437163	-0.0672797	-0.408846	0.110593	-0.539853	-0.174186	-0.549647	-0.0971183	-0.470343	0.151459	-0.243439	0.085113	-0.299173	-0.339826	-0.135886	-0.287224	-0.352244	0.254767	0.273323	-0.220977	
3.64075	0	0	-0.148211	-0.572711	-0.3867	-0.255807	-0.38408	-0.364491	-0.311473	0.202648	-0.514062	-0.168824	-0.283111	0.305738	-0.432585	-0.061452	-0.416945	0.133482	-0.53466	-0.169768	-0.556882	-0.076672	-0.477822	0.172597	-0.242262	0.107009	-0.305311	-0.32248	-0.123554	-0.272607	-0.352244	0.254767	0.279506	-0.216317	
3.64227	0	0	-0.146606	-0.577248	-0.37364	-0.259604	-0.38408	-0.364491	-0.31248	0.205493	-0.512822	-0.172328	-0.285046	0.311205	-0.439192	-0.061546	-0.407964	0.127613	-0.544347	-0.161484	-0.554029	-0.0672863	-0.480819	0.181066	-0.246743	0.119674	-0.30941	-0.310897	-0.122618	-0.250468	-0.360347	0.277666	0.274159	-0.201206	
3.64075	0	0	-0.145001	-0.581784	-0.36058	-0.263401	-0.38408	-0.364491	-0.313487	0.208339	-0.511583	-0.175833	-0.28698	0.316672	-0.445799	-0.06164	-0.398983	0.121745	-0.554034	-0.1532	-0.551177	-0.0579005	-0.483816	0.189535	-0.251225	0.132338	-0.313508	-0.299314	-0.121682	-0.228329	-0.368449	0.300565	0.268812	-0.186095	
3.63769	0	0	-0.143395	-0.586321	-0.34752	-0.267198	-0.38408	-0.364491	-0.314493	0.211184	-0.510343	-0.179337	-0.288915	0.322139	-0.452406	-0.061734	-0.390001	0.115876	-0.563721	-0.144916	-0.548324	-0.0485147	-0.486812	0.198004	-0.255706	0.145003	-0.317607	-0.28773	-0.120746	-0.20619	-0.376551	0.323464	0.263465	-0.170984	
3.64227	0	0	-0.14179	-0.590858	-0.33446	-0.270995	-0.38408	-0.364491	-0.3155	0.21403	-0.509103	-0.182841	-0.290849	0.327606	-0.459013	-0.061828	-0.38102	0.110008	-0.573408	-0.136632	-0.545472	-0.039129	-0.489809	0.206473	-0.260187	0.157667	-0.321705	-0.276147	-0.11981	-0.184051	-0.384654	0.346363	0.258118	-0.155873	
3.63769	0	0	-0.131252	-0.590766	-0.341009	-0.252486	-0.37947	-0.356696	-0.306088	0.22102	-0.510343	-0.179337	-0.281438	0.325663	-0.459013	-0.061828	-0.376087	0.1156	-0.572509	-0.139174	-0.547546	-0.033269	-0.486812	0.198004	-0.268807	0.156807	-0.321705	-0.276147	-0.134215	-0.168124	-0.384654	0.346363	0.258118	-0.155873	
3.63617	0	0	-0.120715	-0.590674	-0.347558	-0.233977	-0.374861	-0.348901	-0.296677	0.228011	-0.511583	-0.175833	-0.272027	0.323719	-0.459013	-0.061828	-0.371154	0.121192	-0.571609	-0.141715	-0.549619	-0.027409	-0.483816	0.189535	-0.277427	0.155947	-0.321705	-0.276147	-0.14862	-0.152198	-0.384654	0.346363	0.258118	-0.155873	
3.63312	0	0	-0.110178	-0.590583	-0.354108	-0.215468	-0.370252	-0.341105	-0.287265	0.235001	-0.512822	-0.172328	-0.262616	0.321775	-0.459013	-0.061828	-0.36622	0.126784	-0.57071	-0.144257	-0.551692	-0.021549	-0.480819	0.181066	-0.286046	0.155087	-0.321705	-0.276147	-0.163026	-0.136271	-0.384654	0.346363	0.258118	-0.155873	
3.63617	0	0	-0.09964	-0.590491	-0.360657	-0.196959	-0.365642	-0.33331	-0.277853	0.241991	-0.514062	-0.168824	-0.253205	0.319832	-0.459013	-0.061828	-0.361287	0.132376	-0.569811	-0.146799	-0.553766	-0.015689	-0.477822	0.172597	-0.294666	0.154227	-0.321705	-0.276147	-0.177431	-0.120345	-0.384654	0.346363	0.258118	-0.155873	
3.63159	0	0	-0.106073	-0.572311	-0.36941	-0.17222	-0.372619	-0.313592	-0.277183	0.256916	-0.508767	-0.161498	-0.259019	0.336263	-0.454437	-0.0559928	-0.377052	0.157394	-0.57071	-0.144257	-0.555841	-0.00982525	-0.477822	0.172597	-0.290189	0.141574	-0.319655	-0.28194	-0.174433	-0.128818	-0.384654	0.346363	0.249269	-0.152997	
3.63006	0	0	-0.112505	-0.554132	-0.378164	-0.147482	-0.379595	-0.293875	-0.276513	0.27184	-0.503471	-0.154171	-0.264833	0.352695	-0.449862	-0.0501575	-0.392816	0.182413	-0.571609	-0.141715	-0.557916	-0.0039615	-0.477822	0.172597	-0.285712	0.128921	-0.317605	-0.287734	-0.171434	-0.137291	-0.384654	0.346363	0.240419	-0.15012	
3.63006	0	0	-0.118938	-0.535953	-0.386918	-0.122743	-0.386572	-0.274157	-0.275843	0.286764	-0.498175	-0.146844	-0.270648	0.369127	-0.445287	-0.0443223	-0.408581	0.207431	-0.572509	-0.139174	-0.55999	0.00190225	-0.477822	0.172597	-0.281235	0.116269	-0.315556	-0.293527	-0.168436	-0.145764	-0.384654	0.346363	0.23157	-0.147244	
3.62396	0	0	-0.12537	-0.517773	-0.395671	-0.098005	-0.393549	-0.25444	-0.275173	0.301689	-0.49288	-0.139518	-0.276462	0.385558	-0.440711	-0.038487	-0.424345	0.23245	-0.573408	-0.136632	-0.562065	0.007766	-0.477822	0.172597	-0.276758	0.103616	-0.313506	-0.299321	-0.165438	-0.154237	-0.384654	0.346363	0.22272	-0.144368	
3.63006	0	0	-0.118045	-0.508555	-0.386985	-0.0893817	-0.389947	-0.243774	-0.267771	0.314451	-0.497852	-0.125465	-0.272869	0.40009	-0.445796	-0.0241175	-0.420784	0.24192	-0.574308	-0.13409	-0.557142	0.011317	-0.477822	0.172597	-0.26515	0.0960312	-0.313506	-0.299321	-0.16394	-0.158471	-0.384654	0.346363	0.234244	-0.154803	
3.62854	0	0	-0.110719	-0.499337	-0.378299	-0.0807585	-0.386346	-0.233107	-0.26037	0.327214	-0.502825	-0.111412	-0.269276	0.414622	-0.45088	-0.009748	-0.417223	0.25139	-0.575208	-0.131547	-0.552219	0.014868	-0.477822	0.172597	-0.253542	0.0884465	-0.313506	-0.299321	-0.162442	-0.162704	-0.384654	0.346363	0.245768	-0.165238	
3.62854	0	0	-0.103393	-0.490119	-0.369613	-0.0721352	-0.382744	-0.222441	-0.252968	0.339977	-0.507797	-0.0973598	-0.265683	0.429154	-0.455964	0.0046215	-0.413662	0.26086	-0.576107	-0.129004	-0.547296	0.018419	-0.477822	0.172597	-0.241934	0.0808617	-0.313506	-0.299321	-0.160944	-0.166937	-0.384654	0.346363	0.257292	-0.175673	
3.61938	0	0	-0.096068	-0.480901	-0.360927	-0.063512	-0.379142	-0.211775	-0.245566	0.352739	-0.512769	-0.083307	-0.26209	0.443686	-0.461049	0.018991	-0.410101	0.27033	-0.577007	-0.126462	-0.542373	0.02197	-0.477822	0.172597	-0.230326	0.073277	-0.313506	-0.299321	-0.159446	-0.171171	-0.384654	0.346363	0.268816	-0.186108	
3.62244	0	0	-0.100911	-0.467214	-0.363124	-0.0573038	-0.385146	-0.194807	-0.252671	0.372817	-0.507477	-0.0759443	-0.265981	0.454684	-0.457495	0.027734	-0.40654	0.27982	-0.57182	-0.122027	-0.545491	0.0307815	-0.480819	0.181066	-0.231818	0.0774925	-0.311457	-0.305111	-0.151036	-0.170155	-0.342748	0.3278	0.267479	-0.18233	
3.61786	0	0	-0.105754	-0.453527	-0.36532	-0.0510955	-0.391149	-0.17784	-0.259775	0.392896	-0.502185	-0.0685815	-0.269873	0.465682	-0.453942	0.036477	-0.402979	0.289311	-0.566634	-0.117591	-0.548609	0.039593	-0.483816	0.189535	-0.23331	0.081708	-0.309408	-0.310901	-0.142626	-0.16914	-0.300842	0.309237	0.266142	-0.178551	
3.62244	0	0	-0.110597	-0.439841	-0.367517	-0.0448872	-0.397153	-0.160873	-0.266879	0.412974	-0.496892	-0.0612188	-0.273765	0.476681	-0.450388	0.04522	-0.399417	0.298801	-0.561447	-0.113156	-0.551726	0.0484045	-0.486812	0.198004	-0.234801	0.0859235	-0.30736	-0.31669	-0.134215	-0.168125	-0.258936	0.290674	0.264805	-0.174772	
3.62091	0	0	-0.11544	-0.426154	-0.369714	-0.038679	-0.403157	-0.143905	-0.273984	0.433052	-0.4916	-0.053856	-0.277656	0.487679	-0.446835	0.053963	-0.395856	0.308291	-0.55626	-0.108721	-0.554844	0.057216	-0.489809	0.206473	-0.236293	0.090139	-0.305311	-0.32248	-0.125805	-0.167109	-0.21703	0.272111	0.263468	-0.170994	
3.61938	0	0	-0.113825	-0.430719	-0.369714	-0.038679	-0.403157	-0.143905	-0.281738	0.438119	-0.504366	-0.0400978	-0.279604	0.493183	-0.450915	0.0654937	-0.407579	0.321867	-0.55197	-0.101731	-0.560048	0.0719215	-0.480941	0.213719	-0.230643	0.099426	-0.30736	-0.31669	-0.118883	-0.161854	-0.267059	0.313632	0.270992	-0.170097	
3.62396	0	0	-0.11221	-0.435283	-0.369714	-0.038679	-0.403157	-0.143905	-0.289493	0.443186	-0.517131	-0.0263395	-0.281552	0.498688	-0.454995	0.0770245	-0.419302	0.335444	-0.547681	-0.094741	-0.565251	0.086627	-0.472073	0.220965	-0.224992	0.108713	-0.309408	-0.310901	-0.111961	-0.156599	-0.317088	0.355152	0.278516	-0.169199	
3.62091	0	0	-0.110594	-0.439847	-0.369714	-0.038679	-0.403157	-0.143905	-0.297247	0.448253	-0.529897	-0.0125813	-0.283499	0.504192	-0.459075	0.0885553	-0.431025	0.34902	-0.543392	-0.087751	-0.570454	0.101333	-0.463205	0.228211	-0.219342	0.118	-0.311457	-0.305111	-0.105039	-0.151344	-0.367118	0.396673	0.286039	-0.168301	
3.62701	0	0	-0.108979	-0.444412	-0.369714	-0.038679	-0.403157	-0.143905	-0.305001	0.45332	-0.542663	0.001177	-0.285447	0.509696	-0.463155	0.100086	-0.442748	0.362596	-0.539102	-0.080761	-0.575658	0.116038	-0.454337	0.235457	-0.213692	0.127287	-0.313506	-0.299321	-0.098117	-0.146089	-0.417147	0.438194	0.293563	-0.167404	
3.63159	0	0	-0.107365	-0.448974	-0.382784	-0.0349115	-0.412751	-0.137636	-0.309702	0.449772	-0.546694	-0.009723	-0.289025	0.495124	-0.467721	0.0942048	-0.437304	0.347212	-0.546095	-0.0801105	-0.580573	0.112464	-0.452836	0.231213	-0.222328	0.126437	-0.315556	-0.293527	-0.114046	-0.125889	-0.425291	0.461211	0.292224	-0.163621	
3.63464	0	0	-0.10575	-0.453537	-0.395854	-0.031144	-0.422345	-0.131367	-0.314403	0.446223	-0.550725	-0.020623	-0.292604	0.480551	-0.472287	0.0883235	-0.431861	0.331827	-0.553088	-0.07946	-0.585487	0.10889	-0.451334	0.226969	-0.230963	0.125587	-0.317605	-0.287734	-0.129975	-0.105688	-0.433435	0.484228	0.290886	-0.159837	
3.64075	0	0	-0.104136	-0.458099	-0.408925	-0.0273765	-0.43194	-0.125098	-0.319103	0.442675	-0.554757	-0.031523	-0.296183	0.465978	-0.476853	0.0824422	-0.426418	0.316443	-0.560081	-0.0788095	-0.590402	0.105316	-0.449832	0.222726	-0.239598	0.124737	-0.319655	-0.28194	-0.145904	-0.0854883	-0.44158	0.507245	0.289547	-0.156053	
3.64685	0	0	-0.102522	-0.462661	-0.421995	-0.023609	-0.441534	-0.118829	-0.323804	0.439127	-0.558788	-0.042423	-0.299761	0.451406	-0.481419	0.076561	-0.420974	0.301059	-0.567074	-0.078159	-0.595317	0.101742	-0.448331	0.218482	-0.248234	0.123887	-0.321705	-0.276147	-0.161833	-0.065288	-0.449724	0.530262	0.288208	-0.15227	
3.656	0	0	-0.102522	-0.462661	-0.424192	-0.0174007	-0.433943	-0.119435	-0.319103	0.442675	-0.555056	-0.0529688	-0.293936	0.434944	-0.4804	0.0736805	-0.423173	0.28774	-0.565271	-0.0832535	-0.590119	0.087051	-0.443831	0.205764	-0.242266	0.107021	-0.319655	-0.28194	-0.145904	-0.0854883	-0.395615	0.47721	0.279348	-0.149389	
3.66058	0	0	-0.102522	-0.462661	-0.426389	-0.0111925	-0.426353	-0.120041	-0.314403	0.446223	-0.551325	-0.0635145	-0.288111	0.418482	-0.47938	0.0708	-0.425373	0.274421	-0.563469	-0.088348	-0.58492	0.07236	-0.43933	0.193045	-0.236298	0.090155	-0.317605	-0.287734	-0.129975	-0.105688	-0.341506	0.424159	0.270487	-0.146508	
3.66669	0	0	-0.102522	-0.462661	-0.428585	-0.00498425	-0.418762	-0.120647	-0.309702	0.449772	-0.547593	-0.0740602	-0.282287	0.40202	-0.478361	0.0679195	-0.427572	0.261103	-0.561667	-0.0934425	-0.579722	0.057669	-0.43483	0.180327	-0.23033	0.073289	-0.315556	-0.293527	-0.114046	-0.125889	-0.287396	0.371108	0.261626	-0.143627	
3.67126	0	0	-0.102522	-0.462661	-0.430782	0.001224	-0.411172	-0.121253	-0.305001	0.45332	-0.543862	-0.084606	-0.276462	0.385558	-0.477342	0.065039	-0.429771	0.247784	-0.559864	-0.098537	-0.574524	0.042978	-0.43033	0.167608	-0.224362	0.056423	-0.313506	-0.299321	-0.098117	-0.146089	-0.233287	0.318056	0.252766	-0.140746	
3.68042	0	0	-0.116293	-0.453663	-0.402419	-0.012533	-0.422771	-0.109317	-0.309068	0.464813	-0.543862	-0.084606	-0.291691	0.403944	-0.477342	0.065039	-0.428415	0.243951	-0.558963	-0.101083	-0.571409	0.034175	-0.43033	0.167608	-0.222872	0.0522115	-0.30941	-0.310897	-0.10354	-0.155579	-0.279252	0.34809	0.264303	-0.151192	
3.6911	0	0	-0.130064	-0.444665	-0.374055	-0.02629	-0.43437	-0.0973815	-0.313135	0.476307	-0.543862	-0.084606	-0.30692	0.422329	-0.477342	0.065039	-0.427058	0.240117	-0.558062	-0.103629	-0.568295	0.025372	-0.43033	0.167608	-0.221382	0.048	-0.305314	-0.322472	-0.108963	-0.16507	-0.325217	0.378125	0.27584	-0.161639	
3.6911	0	0	-0.143835	-0.435666	-0.345692	-0.040047	-0.44597	-0.0854458	-0.317202	0.487801	-0.543862	-0.084606	-0.322148	0.440715	-0.477342	0.065039	-0.425702	0.236283	-0.557161	-0.106175	-0.56518	0.016569	-0.43033	0.167608	-0.219892	0.0437885	-0.301218	-0.334047	-0.114387	-0.174561	-0.371182	0.40816	0.287378	-0.172085	
3.69568	0	0	-0.157606	-0.426668	-0.317329	-0.053804	-0.457569	-0.07351	-0.321269	0.499294	-0.543862	-0.084606	-0.337377	0.4591	-0.477342	0.065039	-0.424345	0.23245	-0.55626	-0.108721	-0.562065	0.007766	-0.43033	0.167608	-0.218402	0.039577	-0.297122	-0.345623	-0.11981	-0.184051	-0.417147	0.438194	0.298915	-0.182531	
3.70331	0	0	-0.147937	-0.453993	-0.339107	-0.058659	-0.45914	-0.089893	-0.318859	0.47565	-0.552867	-0.0814223	-0.344827	0.455533	-0.483942	0.064925	-0.426552	0.219174	-0.55626	-0.108721	-0.565947	0.0012895	-0.433329	0.176085	-0.2315	0.0513733	-0.295076	-0.351405	-0.109886	-0.187279	-0.375252	0.419661	0.290053	-0.179647	
3.70483	0	0	-0.138269	-0.481317	-0.360884	-0.063514	-0.460711	-0.106276	-0.316449	0.452006	-0.561872	-0.0782385	-0.352276	0.451966	-0.490542	0.064811	-0.42876	0.205899	-0.55626	-0.108721	-0.569829	-0.005187	-0.436329	0.184562	-0.244598	0.0631695	-0.29303	-0.357187	-0.0999625	-0.190507	-0.333356	0.401127	0.281191	-0.176762	
3.70788	0	0	-0.128601	-0.508642	-0.382661	-0.068369	-0.462282	-0.122659	-0.314038	0.428362	-0.570877	-0.0750548	-0.359726	0.448399	-0.497142	0.064697	-0.430967	0.192624	-0.55626	-0.108721	-0.573711	-0.0116635	-0.439329	0.193039	-0.257696	0.0749657	-0.290984	-0.36297	-0.0900388	-0.193736	-0.291461	0.382594	0.27233	-0.173878	
3.70788	0	0	-0.118932	-0.535967	-0.404439	-0.073224	-0.463853	-0.139042	-0.311628	0.404718	-0.579882	-0.071871	-0.367176	0.444832	-0.503742	0.064583	-0.433174	0.179348	-0.55626	-0.108721	-0.577593	-0.01814	-0.442328	0.201516	-0.270794	0.086762	-0.288938	-0.368752	-0.080115	-0.196964	-0.249565	0.364061	0.263468	-0.170994	
3.71246	0	0	-0.123042	-0.554224	-0.39568	-0.0979795	-0.465433	-0.155374	-0.324703	0.391263	-0.582671	-0.086229	-0.366875	0.419394	-0.50525	0.0500973	-0.438951	0.156711	-0.55086	-0.123983	-0.576302	-0.03922	-0.439329	0.193039	-0.264838	0.0699278	-0.288938	-0.368752	-0.0900388	-0.193736	-0.245496	0.35256	0.264805	-0.174772	
3.71399	0	0	-0.127152	-0.572481	-0.386921	-0.122735	-0.467014	-0.171707	-0.337778	0.377808	-0.58546	-0.100587	-0.366574	0.393956	-0.506758	0.0356115	-0.444729	0.134074	-0.54546	-0.139244	-0.575012	-0.0603	-0.436329	0.184562	-0.258881	0.0530935	-0.288938	-0.368752	-0.0999625	-0.190507	-0.241426	0.341059	0.266142	-0.178551	
3.71246	0	0	-0.131262	-0.590739	-0.378161	-0.147491	-0.468595	-0.188039	-0.350854	0.364353	-0.588249	-0.114945	-0.366273	0.368517	-0.508266	0.0211257	-0.450507	0.111436	-0.54006	-0.154506	-0.573721	-0.08138	-0.433329	0.176085	-0.252924	0.0362592	-0.288938	-0.368752	-0.109886	-0.187279	-0.237356	0.329557	0.267479	-0.18233	
3.71246	0	0	-0.135372	-0.608996	-0.369402	-0.172246	-0.470175	-0.204372	-0.363929	0.350898	-0.591038	-0.129303	-0.365972	0.343079	-0.509774	0.00664	-0.456284	0.088799	-0.53466	-0.169768	-0.57243	-0.10246	-0.43033	0.167608	-0.246968	0.019425	-0.288938	-0.368752	-0.11981	-0.184051	-0.233287	0.318056	0.268816	-0.186108	
3.71551	0	0	-0.127362	-0.631634	-0.375907	-0.186975	-0.473756	-0.215027	-0.356861	0.330922	-0.584845	-0.146804	-0.367625	0.323195	-0.512303	-0.00494025	-0.453127	0.060425	-0.545938	-0.176062	-0.563144	-0.128705	-0.437713	0.156167	-0.248163	-0.00238425	-0.300249	-0.374679	-0.110833	-0.209422	-0.178951	0.264902	0.265305	-0.19832	
3.71246	0	0	-0.119352	-0.654272	-0.382411	-0.201704	-0.477337	-0.225683	-0.349793	0.310947	-0.578653	-0.164305	-0.369278	0.303311	-0.514833	-0.0165205	-0.449971	0.032051	-0.557216	-0.182356	-0.553857	-0.15495	-0.445097	0.144726	-0.249358	-0.0241935	-0.311561	-0.380607	-0.101856	-0.234793	-0.124615	0.211748	0.261795	-0.210533	
3.71094	0	0	-0.111342	-0.676909	-0.388915	-0.216433	-0.480918	-0.236338	-0.342725	0.290971	-0.572461	-0.181805	-0.370931	0.283426	-0.517362	-0.0281008	-0.446814	0.003677	-0.568493	-0.18865	-0.54457	-0.181195	-0.45248	0.133284	-0.250553	-0.0460027	-0.322873	-0.386535	-0.0928782	-0.260164	-0.070279	0.158593	0.258285	-0.222745	
3.71246	0	0	-0.103332	-0.699547	-0.39542	-0.231162	-0.484499	-0.246993	-0.335657	0.270995	-0.566268	-0.199306	-0.372584	0.263542	-0.519891	-0.039681	-0.443657	-0.024697	-0.579771	-0.194944	-0.535284	-0.20744	-0.459863	0.121843	-0.251748	-0.067812	-0.334184	-0.392462	-0.083901	-0.285535	-0.015943	0.105439	0.254774	-0.234957	
3.70788	0	0	-0.112263	-0.704133	-0.39324	-0.237323	-0.480518	-0.258244	-0.34136	0.27034	-0.566268	-0.199306	-0.370658	0.258098	-0.51685	-0.048275	-0.439631	-0.036076	-0.575287	-0.207617	-0.538152	-0.21675	-0.442004	0.103678	-0.248784	-0.0761895	-0.312663	-0.415389	-0.0878465	-0.299169	-0.0621557	0.135636	0.258773	-0.246259	
3.71094	0	0	-0.121193	-0.708719	-0.39106	-0.243484	-0.476537	-0.269495	-0.347062	0.269684	-0.566268	-0.199306	-0.368732	0.252655	-0.51381	-0.056869	-0.435605	-0.047455	-0.570803	-0.220289	-0.54102	-0.22606	-0.424145	0.0855125	-0.24582	-0.084567	-0.291141	-0.438317	-0.091792	-0.312803	-0.108368	0.165832	0.262772	-0.257561	
3.70788	0	0	-0.130124	-0.713304	-0.38888	-0.249646	-0.472556	-0.280746	-0.352765	0.269029	-0.566268	-0.199306	-0.366806	0.247211	-0.510769	-0.065463	-0.431578	-0.058834	-0.566319	-0.232962	-0.543888	-0.235369	-0.406285	0.0673472	-0.242855	-0.0929445	-0.26962	-0.461245	-0.0957375	-0.326437	-0.154581	0.196028	0.266771	-0.268864	
3.70331	0	0	-0.139054	-0.71789	-0.3867	-0.255807	-0.468575	-0.291997	-0.358468	0.268374	-0.566268	-0.199306	-0.36488	0.241767	-0.507728	-0.074057	-0.427552	-0.070213	-0.561835	-0.245635	-0.546756	-0.244679	-0.388426	0.049182	-0.239891	-0.101322	-0.248098	-0.484172	-0.099683	-0.340071	-0.200794	0.226225	0.27077	-0.280166	
3.70178	0	0	-0.146375	-0.726977	-0.397557	-0.258176	-0.473157	-0.2998	-0.371871	0.272753	-0.568743	-0.19231	-0.366806	0.247211	-0.508741	-0.0711932	-0.442748	-0.0661092	-0.560043	-0.250699	-0.545728	-0.247586	-0.388426	0.049182	-0.239891	-0.101322	-0.24606	-0.489932	-0.101174	-0.335858	-0.200794	0.226225	0.27077	-0.280166	
3.70331	0	0	-0.153697	-0.736063	-0.408415	-0.260545	-0.477739	-0.307603	-0.385273	0.277132	-0.571219	-0.185314	-0.368732	0.252655	-0.509754	-0.0683295	-0.457945	-0.0620055	-0.558251	-0.255764	-0.544699	-0.250493	-0.388426	0.049182	-0.239891	-0.101322	-0.244022	-0.495691	-0.102665	-0.331644	-0.200794	0.226225	0.27077	-0.280166	
3.69873	0	0	-0.161018	-0.74515	-0.419272	-0.262915	-0.482322	-0.315406	-0.398676	0.281511	-0.573694	-0.178317	-0.370658	0.258098	-0.510768	-0.0654658	-0.473141	-0.0579018	-0.556459	-0.260828	-0.54367	-0.253399	-0.388426	0.049182	-0.239891	-0.101322	-0.241984	-0.501451	-0.104156	-0.32743	-0.200794	0.226225	0.27077	-0.280166	
3.69568	0	0	-0.168339	-0.754236	-0.430129	-0.265284	-0.486904	-0.323209	-0.412079	0.28589	-0.57617	-0.171321	-0.372584	0.263542	-0.511781	-0.062602	-0.488338	-0.053798	-0.554667	-0.265892	-0.542642	-0.256306	-0.388426	0.049182	-0.239891	-0.101322	-0.239946	-0.507211	-0.105647	-0.323217	-0.200794	0.226225	0.27077	-0.280166	
3.69568	0	0	-0.158787	-0.78123	-0.434452	-0.286061	-0.487519	-0.342199	-0.40972	0.262497	-0.578973	-0.185613	-0.381684	0.240246	-0.512295	-0.0798598	-0.48656	-0.0782137	-0.558962	-0.272809	-0.539558	-0.26502	-0.386932	0.0449605	-0.23841	-0.105508	-0.241984	-0.501451	-0.108631	-0.314784	-0.238656	0.233361	0.269438	-0.2764	
3.6911	0	0	-0.149235	-0.808225	-0.438775	-0.306838	-0.488135	-0.361188	-0.407362	0.239104	-0.581776	-0.199904	-0.390784	0.216949	-0.512809	-0.0971175	-0.484783	-0.10263	-0.563256	-0.279726	-0.536475	-0.273734	-0.385439	0.040739	-0.236928	-0.109694	-0.244022	-0.495691	-0.111615	-0.306351	-0.276519	0.240496	0.268105	-0.272634	
3.68957	0	0	-0.139684	-0.835219	-0.443099	-0.327615	-0.488751	-0.380178	-0.405003	0.215712	-0.584578	-0.214196	-0.399885	0.193653	-0.513322	-0.114375	-0.483005	-0.127045	-0.567551	-0.286644	-0.533392	-0.282448	-0.383945	0.0365175	-0.235447	-0.11388	-0.24606	-0.489932	-0.114598	-0.297918	-0.314381	0.247632	0.266773	-0.268868	
3.68805	0	0	-0.130132	-0.862213	-0.447422	-0.348392	-0.489366	-0.399167	-0.402645	0.192319	-0.587381	-0.228488	-0.408985	0.170356	-0.513836	-0.131633	-0.481227	-0.151461	-0.571845	-0.293561	-0.530308	-0.291162	-0.382451	0.032296	-0.233966	-0.118066	-0.248098	-0.484172	-0.117582	-0.289485	-0.352244	0.254767	0.265441	-0.265102	
3.68194	0	0	-0.12378	-0.880164	-0.443087	-0.360642	-0.484419	-0.413149	-0.390932	0.175945	-0.582444	-0.242442	-0.412577	0.156049	-0.507777	-0.148758	-0.474556	-0.170314	-0.566483	-0.308715	-0.532158	-0.303333	-0.376483	0.01543	-0.225094	-0.14314	-0.241988	-0.50144	-0.120031	-0.307316	-0.302235	0.213305	0.269437	-0.276395	
3.68042	0	0	-0.117428	-0.898114	-0.438752	-0.372893	-0.479471	-0.427131	-0.37922	0.15957	-0.577507	-0.256396	-0.416169	0.141742	-0.501718	-0.165882	-0.467886	-0.189167	-0.561122	-0.323869	-0.534008	-0.315503	-0.370515	-0.001436	-0.216222	-0.168214	-0.235878	-0.518709	-0.122479	-0.325148	-0.252227	0.171843	0.273432	-0.287687	
3.67889	0	0	-0.111077	-0.916065	-0.434418	-0.385144	-0.474523	-0.441114	-0.367507	0.143195	-0.572569	-0.27035	-0.419761	0.127434	-0.495658	-0.183007	-0.461215	-0.208019	-0.55576	-0.339022	-0.535858	-0.327673	-0.364548	-0.018302	-0.207349	-0.193289	-0.229768	-0.535977	-0.124928	-0.342979	-0.202219	0.130381	0.277428	-0.29898	
3.67584	0	0	-0.104725	-0.934016	-0.430083	-0.397394	-0.469576	-0.455096	-0.355795	0.126821	-0.567632	-0.284304	-0.423353	0.113127	-0.489599	-0.200132	-0.454544	-0.226872	-0.550398	-0.354176	-0.537708	-0.339844	-0.35858	-0.035168	-0.198477	-0.218363	-0.223658	-0.553245	-0.127377	-0.360811	-0.15221	0.088919	0.281424	-0.310273	
3.67126	0	0	-0.101554	-0.942978	-0.427918	-0.403513	-0.478118	-0.451663	-0.357801	0.132491	-0.566399	-0.287789	-0.410182	0.100364	-0.497193	-0.197362	-0.451879	-0.234402	-0.545937	-0.366785	-0.534634	-0.348533	-0.352623	-0.0520025	-0.192576	-0.23504	-0.235001	-0.559083	-0.108551	-0.389263	-0.148172	0.0775062	0.27524	-0.314903	
3.66516	0	0	-0.098383	-0.95194	-0.425752	-0.409632	-0.48666	-0.44823	-0.359807	0.138161	-0.565165	-0.291274	-0.397011	0.0876	-0.504787	-0.194592	-0.449215	-0.241932	-0.541475	-0.379393	-0.531559	-0.357221	-0.346666	-0.068837	-0.186675	-0.251717	-0.246344	-0.564922	-0.089726	-0.417714	-0.144134	0.0660935	0.269055	-0.319532	
3.66669	0	0	-0.095212	-0.960902	-0.423587	-0.41575	-0.495201	-0.444796	-0.361814	0.143832	-0.563932	-0.29476	-0.383841	0.0748365	-0.51238	-0.191821	-0.446551	-0.249462	-0.537014	-0.392002	-0.528485	-0.36591	-0.34071	-0.0856715	-0.180775	-0.268394	-0.257687	-0.57076	-0.0709005	-0.446166	-0.140095	0.0546808	0.262871	-0.324162	
3.65906	0	0	-0.092041	-0.969864	-0.421422	-0.421869	-0.503743	-0.441363	-0.36382	0.149502	-0.562699	-0.298245	-0.37067	0.062073	-0.519974	-0.189051	-0.443886	-0.256992	-0.532552	-0.40461	-0.525411	-0.374599	-0.334753	-0.102506	-0.174874	-0.285071	-0.26903	-0.576598	-0.052075	-0.474618	-0.136057	0.043268	0.256686	-0.328792	
3.65753	0	0	-0.102556	-0.969876	-0.417096	-0.434094	-0.510299	-0.443519	-0.372522	0.157369	-0.562699	-0.298245	-0.381927	0.0694287	-0.520983	-0.1862	-0.45147	-0.254929	-0.530769	-0.409649	-0.522339	-0.383279	-0.346649	-0.101195	-0.182032	-0.289994	-0.249558	-0.593732	-0.0505905	-0.478814	-0.132024	0.0318698	0.256686	-0.328792	
3.65143	0	0	-0.113071	-0.969888	-0.412771	-0.44632	-0.516854	-0.445675	-0.381224	0.165235	-0.562699	-0.298245	-0.393185	0.0767845	-0.521991	-0.183349	-0.459055	-0.252866	-0.528987	-0.414687	-0.519268	-0.39196	-0.358545	-0.099884	-0.18919	-0.294917	-0.230086	-0.610866	-0.049106	-0.483009	-0.127991	0.0204715	0.256686	-0.328792	
3.65143	0	0	-0.123587	-0.969901	-0.408445	-0.458545	-0.52341	-0.447831	-0.389927	0.173102	-0.562699	-0.298245	-0.404443	0.0841402	-0.523	-0.180498	-0.466639	-0.250803	-0.527204	-0.419725	-0.516197	-0.40064	-0.37044	-0.098573	-0.196348	-0.29984	-0.210615	-0.628001	-0.0476215	-0.487205	-0.123957	0.00907325	0.256686	-0.328792	
3.64532	0	0	-0.134102	-0.969913	-0.404119	-0.470771	-0.529966	-0.449987	-0.398629	0.180969	-0.562699	-0.298245	-0.4157	0.091496	-0.524009	-0.177647	-0.474223	-0.24874	-0.525421	-0.424764	-0.513125	-0.40932	-0.382336	-0.097262	-0.203506	-0.304763	-0.191143	-0.645135	-0.046137	-0.491401	-0.119924	-0.002325	0.256686	-0.328792	
3.6438	0	0	-0.141437	-0.978865	-0.412801	-0.479172	-0.524047	-0.466716	-0.390609	0.158303	-0.567982	-0.305499	-0.409967	0.075293	-0.518968	-0.191893	-0.476481	-0.26171	-0.522749	-0.432316	-0.517035	-0.415653	-0.36598	-0.111178	-0.202035	-0.308922	-0.189114	-0.650869	-0.0575287	-0.483957	-0.115896	-0.013709	0.258015	-0.332548	
3.64075	0	0	-0.148772	-0.987818	-0.421482	-0.487573	-0.518128	-0.483445	-0.382588	0.135636	-0.573266	-0.312754	-0.404234	0.05909	-0.513927	-0.206139	-0.478739	-0.27468	-0.520077	-0.439868	-0.520945	-0.421986	-0.349625	-0.125093	-0.200563	-0.31308	-0.187086	-0.656603	-0.0689205	-0.476513	-0.111868	-0.025093	0.259344	-0.336305	
3.63617	0	0	-0.156107	-0.996771	-0.430163	-0.495975	-0.512208	-0.500174	-0.374568	0.11297	-0.57855	-0.320009	-0.3985	0.042887	-0.508887	-0.220384	-0.480998	-0.287649	-0.517404	-0.447421	-0.524854	-0.428319	-0.333269	-0.139009	-0.199091	-0.317239	-0.185057	-0.662337	-0.0803123	-0.46907	-0.10784	-0.036477	0.260674	-0.340061	
3.63464	0	0	-0.163442	-1.00572	-0.438845	-0.504376	-0.506289	-0.516903	-0.366548	0.090304	-0.583833	-0.327263	-0.392767	0.026684	-0.503846	-0.23463	-0.483256	-0.300619	-0.514732	-0.454973	-0.528764	-0.434652	-0.316913	-0.152925	-0.19762	-0.321398	-0.183028	-0.668071	-0.091704	-0.461626	-0.103812	-0.047861	0.262003	-0.343817	
3.63159	0	0	-0.145044	-1.02804	-0.430229	-0.528727	-0.502349	-0.528038	-0.367239	0.0755437	-0.575228	-0.351583	-0.403802	0.0090485	-0.506402	-0.246079	-0.484193	-0.3173	-0.519044	-0.461821	-0.528592	-0.452506	-0.325846	-0.159988	-0.190273	-0.342162	-0.200469	-0.656674	-0.091704	-0.461626	-0.103812	-0.047861	0.260674	-0.340061	
3.62701	0	0	-0.126646	-1.05035	-0.421613	-0.553077	-0.498409	-0.539174	-0.36793	0.0607835	-0.566623	-0.375903	-0.414837	-0.008587	-0.508957	-0.257528	-0.485131	-0.333982	-0.523356	-0.46867	-0.52842	-0.47036	-0.334778	-0.16705	-0.182925	-0.362926	-0.217911	-0.645278	-0.091704	-0.461626	-0.103812	-0.047861	0.259344	-0.336305	
3.62396	0	0	-0.108249	-1.07266	-0.412997	-0.577428	-0.494468	-0.55031	-0.36862	0.0460233	-0.558017	-0.400222	-0.425872	-0.0262225	-0.511513	-0.268978	-0.486069	-0.350664	-0.527668	-0.475519	-0.528247	-0.488213	-0.343711	-0.174113	-0.175578	-0.383689	-0.235352	-0.633881	-0.091704	-0.461626	-0.103812	-0.047861	0.258015	-0.332548	
3.61938	0	0	-0.089851	-1.09497	-0.404381	-0.601779	-0.490528	-0.561445	-0.369311	0.031263	-0.549412	-0.424542	-0.436907	-0.043858	-0.514069	-0.280427	-0.487006	-0.367345	-0.53198	-0.482367	-0.528075	-0.506067	-0.352644	-0.181176	-0.168231	-0.404453	-0.252793	-0.622485	-0.091704	-0.461626	-0.103812	-0.047861	0.256686	-0.328792	
3.61481	0	0	-0.089851	-1.09497	-0.404381	-0.601779	-0.490528	-0.561445	-0.363618	0.0318857	-0.544505	-0.438409	-0.433104	-0.0546048	-0.501456	-0.297401	-0.483034	-0.378571	-0.527537	-0.494922	-0.536911	-0.515779	-0.345238	-0.202105	-0.170998	-0.421752	-0.231298	-0.645338	-0.0986313	-0.466768	-0.145754	-0.0291957	0.255356	-0.325034	
3.61328	0	0	-0.089851	-1.09497	-0.404381	-0.601779	-0.490528	-0.561445	-0.357925	0.0325085	-0.539598	-0.452276	-0.429302	-0.0653515	-0.488843	-0.314375	-0.479061	-0.389798	-0.523095	-0.507478	-0.545748	-0.525491	-0.337832	-0.223035	-0.173765	-0.439052	-0.209803	-0.668192	-0.105558	-0.471909	-0.187696	-0.0105305	0.254027	-0.321276	
3.6087	0	0	-0.089851	-1.09497	-0.404381	-0.601779	-0.490528	-0.561445	-0.352232	0.0331313	-0.534692	-0.466144	-0.425499	-0.0760983	-0.47623	-0.331349	-0.475088	-0.401024	-0.518652	-0.520033	-0.554584	-0.535203	-0.330427	-0.243965	-0.176532	-0.456351	-0.188307	-0.691045	-0.112486	-0.47705	-0.229638	0.00813475	0.252698	-0.317519	
3.60565	0	0	-0.089851	-1.09497	-0.404381	-0.601779	-0.490528	-0.561445	-0.346539	0.033754	-0.529785	-0.480011	-0.421696	-0.086845	-0.463617	-0.348323	-0.471116	-0.41225	-0.51421	-0.532588	-0.56342	-0.544915	-0.323021	-0.264894	-0.179299	-0.47365	-0.166812	-0.713898	-0.119413	-0.482192	-0.27158	0.0268	0.251368	-0.313761	
3.60412	0	0	-0.0793247	-1.09499	-0.412997	-0.577428	-0.483963	-0.559315	-0.33814	0.0434872	-0.520799	-0.483218	-0.414271	-0.0834348	-0.465626	-0.342645	-0.47244	-0.408509	-0.512435	-0.537605	-0.552392	-0.558747	-0.320064	-0.273252	-0.176373	-0.481919	-0.182228	-0.708224	-0.11645	-0.490566	-0.225615	-0.0032345	0.252698	-0.317519	
3.5965	0	0	-0.0687985	-1.09501	-0.421613	-0.553077	-0.477398	-0.557185	-0.329742	0.0532205	-0.511814	-0.486426	-0.406845	-0.0800245	-0.467635	-0.336968	-0.473764	-0.404769	-0.51066	-0.542623	-0.541365	-0.572579	-0.317107	-0.28161	-0.173447	-0.490188	-0.197645	-0.702551	-0.113487	-0.498939	-0.17965	-0.033269	0.254027	-0.321276	
3.5965	0	0	-0.0582722	-1.09503	-0.430229	-0.528727	-0.470833	-0.555055	-0.321343	0.0629538	-0.502829	-0.489633	-0.39942	-0.0766143	-0.469644	-0.33129	-0.475087	-0.401029	-0.508884	-0.54764	-0.530337	-0.586411	-0.314149	-0.289968	-0.170522	-0.498457	-0.213061	-0.696877	-0.110524	-0.507313	-0.133685	-0.0633035	0.255356	-0.325034	
3.59192	0	0	-0.047746	-1.09505	-0.438845	-0.504376	-0.464268	-0.552925	-0.312944	0.072687	-0.493843	-0.492841	-0.391995	-0.073204	-0.471653	-0.325613	-0.476411	-0.397288	-0.507109	-0.552657	-0.519309	-0.600243	-0.311192	-0.298326	-0.167596	-0.506726	-0.228478	-0.691203	-0.107561	-0.515687	-0.08772	-0.093338	0.256686	-0.328792	
3.59192	0	0	-0.054069	-1.07718	-0.414978	-0.505897	-0.459668	-0.545218	-0.308552	0.0938045	-0.489756	-0.482177	-0.380931	-0.0555878	-0.468078	-0.317025	-0.47414	-0.384375	-0.507109	-0.552657	-0.519309	-0.600243	-0.31267	-0.294148	-0.158961	-0.506011	-0.228478	-0.691203	-0.0961842	-0.523121	-0.0837023	-0.104693	0.252696	-0.317514	
3.58734	0	0	-0.060392	-1.05931	-0.391111	-0.507419	-0.455068	-0.537511	-0.30416	0.114922	-0.48567	-0.471513	-0.369866	-0.0379715	-0.464503	-0.308437	-0.471869	-0.371463	-0.507109	-0.552657	-0.519309	-0.600243	-0.314149	-0.28997	-0.150326	-0.505296	-0.228478	-0.691203	-0.0848075	-0.530555	-0.0796845	-0.116047	0.248705	-0.306235	
3.58276	0	0	-0.066715	-1.04144	-0.367243	-0.508941	-0.450469	-0.529804	-0.299768	0.136039	-0.481583	-0.460849	-0.358801	-0.0203553	-0.460929	-0.299848	-0.469597	-0.35855	-0.507109	-0.552657	-0.519309	-0.600243	-0.315627	-0.285792	-0.14169	-0.504581	-0.228478	-0.691203	-0.0734308	-0.537989	-0.0756668	-0.127402	0.244715	-0.294957	
3.58276	0	0	-0.073038	-1.02357	-0.343376	-0.510462	-0.445869	-0.522097	-0.295376	0.157157	-0.477497	-0.450185	-0.347737	-0.002739	-0.457354	-0.29126	-0.467326	-0.345637	-0.507109	-0.552657	-0.519309	-0.600243	-0.317105	-0.281614	-0.133055	-0.503866	-0.228478	-0.691203	-0.062054	-0.545423	-0.071649	-0.138757	0.240724	-0.283679	
3.57818	0	0	-0.073038	-1.02357	-0.360724	-0.494428	-0.443896	-0.527673	-0.295376	0.157157	-0.481185	-0.439762	-0.35347	0.013464	-0.460375	-0.282724	-0.469981	-0.338136	-0.507996	-0.550149	-0.51234	-0.602589	-0.306675	-0.278784	-0.137449	-0.491448	-0.215088	-0.69115	-0.0551075	-0.540303	-0.033477	-0.146229	0.24557	-0.275267	
3.57818	0	0	-0.073038	-1.02357	-0.378072	-0.478395	-0.441923	-0.53325	-0.295376	0.157157	-0.484873	-0.429339	-0.359204	0.029667	-0.463395	-0.274187	-0.472635	-0.330634	-0.508884	-0.54764	-0.50537	-0.604934	-0.296244	-0.275954	-0.141843	-0.47903	-0.201698	-0.691098	-0.048161	-0.535183	0.004695	-0.153701	0.250416	-0.266856	
3.57208	0	0	-0.073038	-1.02357	-0.39542	-0.462361	-0.43995	-0.538826	-0.295376	0.157157	-0.488561	-0.418917	-0.364937	0.04587	-0.466415	-0.265651	-0.475289	-0.323132	-0.509772	-0.545132	-0.498401	-0.60728	-0.285813	-0.273125	-0.146237	-0.466612	-0.188308	-0.691045	-0.0412145	-0.530063	0.042867	-0.161174	0.255262	-0.258445	
3.57208	0	0	-0.073038	-1.02357	-0.412768	-0.446328	-0.437977	-0.544402	-0.295376	0.157157	-0.492249	-0.408494	-0.37067	0.062073	-0.469436	-0.257114	-0.477944	-0.315631	-0.510659	-0.542624	-0.491432	-0.609626	-0.275383	-0.270295	-0.150631	-0.454194	-0.174918	-0.690992	-0.034268	-0.524943	0.081039	-0.168646	0.260108	-0.250033	
3.57208	0	0	-0.073038	-1.02357	-0.414932	-0.440213	-0.436005	-0.549975	-0.301086	0.15652	-0.487333	-0.422388	-0.366847	0.0512678	-0.464404	-0.271337	-0.473963	-0.326881	-0.509772	-0.545132	-0.498401	-0.60728	-0.275383	-0.270295	-0.165125	-0.438352	-0.174918	-0.690992	-0.040205	-0.508164	0.0348263	-0.13845	0.266293	-0.245378	
3.56903	0	0	-0.073038	-1.02357	-0.417095	-0.434098	-0.434033	-0.555548	-0.306795	0.155883	-0.482417	-0.436283	-0.363023	0.0404625	-0.459371	-0.28556	-0.469982	-0.338131	-0.508884	-0.54764	-0.50537	-0.604934	-0.275383	-0.270295	-0.179619	-0.422509	-0.174918	-0.690992	-0.046142	-0.491386	-0.0113865	-0.108254	0.272478	-0.240723	
3.56903	0	0	-0.073038	-1.02357	-0.419259	-0.427984	-0.432061	-0.561121	-0.312505	0.155246	-0.4775	-0.450177	-0.3592	0.0296573	-0.454338	-0.299783	-0.466002	-0.349381	-0.507996	-0.550149	-0.51234	-0.602589	-0.275383	-0.270295	-0.194112	-0.406667	-0.174918	-0.690992	-0.052079	-0.474607	-0.0575992	-0.0780572	0.278662	-0.236067	
3.5675	0	0	-0.073038	-1.02357	-0.421422	-0.421869	-0.430089	-0.566694	-0.318214	0.154609	-0.472584	-0.464071	-0.355377	0.018852	-0.449306	-0.314006	-0.462021	-0.360631	-0.507109	-0.552657	-0.519309	-0.600243	-0.275383	-0.270295	-0.208606	-0.390825	-0.174918	-0.690992	-0.058016	-0.457828	-0.103812	-0.047861	0.284847	-0.231412	
3.5675	0	0	-0.060916	-1.02805	-0.406236	-0.431792	-0.430089	-0.566694	-0.30949	0.146726	-0.470129	-0.47101	-0.351558	0.00805975	-0.454893	-0.316908	-0.458045	-0.371867	-0.503561	-0.562683	-0.513219	-0.617456	-0.287293	-0.268945	-0.201279	-0.411531	-0.176945	-0.685262	-0.0609887	-0.449427	-0.103812	-0.047861	0.280839	-0.220086	
3.57056	0	0	-0.048794	-1.03253	-0.391051	-0.441715	-0.430089	-0.566694	-0.300766	0.138843	-0.467673	-0.47795	-0.347739	-0.0027325	-0.460479	-0.319809	-0.45407	-0.383103	-0.500013	-0.572708	-0.507128	-0.634668	-0.299202	-0.267595	-0.193952	-0.432237	-0.178973	-0.679531	-0.0639615	-0.441026	-0.103812	-0.047861	0.276832	-0.20876	
3.57208	0	0	-0.036672	-1.03701	-0.375865	-0.451638	-0.430089	-0.566694	-0.292041	0.130959	-0.465218	-0.484889	-0.343921	-0.0135247	-0.466066	-0.322711	-0.450094	-0.394338	-0.496466	-0.582734	-0.501038	-0.651881	-0.311111	-0.266244	-0.186626	-0.452944	-0.181001	-0.673801	-0.0669343	-0.432624	-0.103812	-0.047861	0.272824	-0.197434	
3.5675	0	0	-0.02455	-1.0415	-0.360679	-0.461561	-0.430089	-0.566694	-0.283317	0.123076	-0.462762	-0.491828	-0.340102	-0.024317	-0.471653	-0.325613	-0.446118	-0.405574	-0.492918	-0.59276	-0.494947	-0.669094	-0.323021	-0.264894	-0.179299	-0.47365	-0.183028	-0.668071	-0.069907	-0.424223	-0.103812	-0.047861	0.268816	-0.186108	
3.56903	0	0	-0.029303	-1.02806	-0.369348	-0.43706	-0.433047	-0.558333	-0.280617	0.132232	-0.463989	-0.488359	-0.338195	-0.0297082	-0.46305	-0.331234	-0.446118	-0.405574	-0.498127	-0.597056	-0.499884	-0.672475	-0.305194	-0.282968	-0.184995	-0.482636	-0.163523	-0.685221	-0.076841	-0.429378	-0.10784	-0.036477	0.270153	-0.189885	
3.56903	0	0	-0.034056	-1.01463	-0.378018	-0.412559	-0.436005	-0.549972	-0.277917	0.141389	-0.465217	-0.48489	-0.336287	-0.0350995	-0.454448	-0.336855	-0.446118	-0.405574	-0.503335	-0.601352	-0.504821	-0.675856	-0.287366	-0.301042	-0.190692	-0.491623	-0.144019	-0.702371	-0.083775	-0.434533	-0.111868	-0.025093	0.271489	-0.193662	
3.5675	0	0	-0.038809	-1.0012	-0.386687	-0.388058	-0.438964	-0.541612	-0.275217	0.150545	-0.466444	-0.481421	-0.334379	-0.0404907	-0.445846	-0.342477	-0.446118	-0.405574	-0.508544	-0.605648	-0.509758	-0.679237	-0.269539	-0.319117	-0.196388	-0.500609	-0.124515	-0.719521	-0.090709	-0.439688	-0.115896	-0.013709	0.272825	-0.197439	
3.5675	0	0	-0.043562	-0.987765	-0.395356	-0.363557	-0.441922	-0.533251	-0.272517	0.159701	-0.467672	-0.477952	-0.332472	-0.045882	-0.437243	-0.348098	-0.446118	-0.405574	-0.513752	-0.609944	-0.514695	-0.682618	-0.251712	-0.337191	-0.202084	-0.509595	-0.10501	-0.736671	-0.097643	-0.444843	-0.119924	-0.002325	0.274162	-0.201216	
3.5675	0	0	-0.0377727	-0.974302	-0.375773	-0.352735	-0.438306	-0.522741	-0.266111	0.175216	-0.462351	-0.470751	-0.326926	-0.037064	-0.441265	-0.336732	-0.439862	-0.403905	-0.505885	-0.61316	-0.515709	-0.679754	-0.25319	-0.333013	-0.192	-0.513009	-0.12046	-0.730978	-0.0832825	-0.460676	-0.123957	0.00907325	0.283025	-0.204103	
3.5675	0	0	-0.0319835	-0.960838	-0.356191	-0.341912	-0.43469	-0.51223	-0.259704	0.190731	-0.457029	-0.463551	-0.32138	-0.028246	-0.445286	-0.325367	-0.433605	-0.402235	-0.498019	-0.616376	-0.516722	-0.67689	-0.254669	-0.328835	-0.181916	-0.516424	-0.135911	-0.725284	-0.068922	-0.476509	-0.127991	0.0204715	0.291888	-0.206991	
3.56903	0	0	-0.0261942	-0.947375	-0.336608	-0.33109	-0.431075	-0.501719	-0.253298	0.206245	-0.451708	-0.45635	-0.315834	-0.019428	-0.449307	-0.314001	-0.427349	-0.400566	-0.490152	-0.619593	-0.517736	-0.674027	-0.256148	-0.324657	-0.171832	-0.519838	-0.151361	-0.719591	-0.0545615	-0.492343	-0.132024	0.0318698	0.30075	-0.209878	
3.56598	0	0	-0.020405	-0.933911	-0.317026	-0.320267	-0.427459	-0.491209	-0.246891	0.22176	-0.446387	-0.44915	-0.310288	-0.01061	-0.453329	-0.302635	-0.421092	-0.398897	-0.482286	-0.622809	-0.518749	-0.671163	-0.257626	-0.320479	-0.161748	-0.523252	-0.166812	-0.713898	-0.040201	-0.508176	-0.136057	0.043268	0.309613	-0.212765	
3.56903	0	0	-0.0267695	-0.915924	-0.325749	-0.295614	-0.431415	-0.480028	-0.253962	0.241742	-0.442293	-0.438454	-0.317939	0.0110137	-0.448744	-0.296882	-0.425071	-0.387652	-0.484944	-0.615297	-0.506842	-0.67013	-0.260585	-0.312117	-0.164672	-0.514987	-0.153389	-0.713861	-0.0431695	-0.499786	-0.144139	0.0661083	0.306939	-0.205207	
3.56293	0	0	-0.033134	-0.897937	-0.334472	-0.27096	-0.435371	-0.468847	-0.261032	0.261725	-0.438198	-0.427759	-0.325591	0.0326375	-0.44416	-0.291128	-0.42905	-0.376406	-0.487602	-0.607784	-0.494934	-0.669096	-0.263544	-0.303755	-0.167597	-0.506722	-0.139966	-0.713824	-0.046138	-0.491397	-0.152221	0.0889485	0.304264	-0.197648	
3.56293	0	0	-0.0394985	-0.87995	-0.343196	-0.246307	-0.439327	-0.457667	-0.268103	0.281707	-0.434104	-0.417064	-0.333242	0.0542612	-0.439576	-0.285374	-0.433029	-0.365161	-0.49026	-0.600272	-0.483027	-0.668063	-0.266502	-0.295393	-0.170521	-0.498457	-0.126543	-0.713787	-0.0491065	-0.483007	-0.160302	0.111789	0.30159	-0.190089	
3.5614	0	0	-0.045863	-0.861963	-0.351919	-0.221654	-0.443283	-0.446486	-0.275173	0.301689	-0.43001	-0.406368	-0.340894	0.075885	-0.434991	-0.279621	-0.437008	-0.353916	-0.492918	-0.59276	-0.47112	-0.66703	-0.269461	-0.287031	-0.173446	-0.490192	-0.11312	-0.71375	-0.052075	-0.474618	-0.168384	0.134629	0.298915	-0.182531	
3.55987	0	0	-0.0442707	-0.866463	-0.349736	-0.227824	-0.440315	-0.454873	-0.277861	0.292469	-0.437795	-0.406633	-0.348338	0.072432	-0.432977	-0.285313	-0.44061	-0.363087	-0.493805	-0.590255	-0.481136	-0.656075	-0.273904	-0.274473	-0.176373	-0.481919	-0.117179	-0.702279	-0.0595085	-0.45361	-0.172432	0.146071	0.30511	-0.177853	
3.55987	0	0	-0.0426785	-0.870963	-0.347553	-0.233993	-0.437348	-0.463259	-0.28055	0.283249	-0.44558	-0.406897	-0.355782	0.068979	-0.430963	-0.291005	-0.444213	-0.372258	-0.494691	-0.587749	-0.491152	-0.645119	-0.278348	-0.261915	-0.1793	-0.473646	-0.121238	-0.690807	-0.066942	-0.432602	-0.176481	0.157514	0.311306	-0.173175	
3.55835	0	0	-0.0410863	-0.875463	-0.34537	-0.240163	-0.434381	-0.471646	-0.283239	0.27403	-0.453365	-0.407162	-0.363226	0.065526	-0.428949	-0.296697	-0.447815	-0.381428	-0.495578	-0.585244	-0.501167	-0.634163	-0.282792	-0.249358	-0.182228	-0.465373	-0.125297	-0.679335	-0.0743755	-0.411594	-0.18053	0.168956	0.317501	-0.168498	
3.55835	0	0	-0.039494	-0.879963	-0.343187	-0.246333	-0.431413	-0.480033	-0.285927	0.26481	-0.46115	-0.407426	-0.37067	0.062073	-0.426935	-0.302389	-0.451417	-0.390599	-0.496464	-0.582739	-0.511183	-0.623208	-0.287235	-0.2368	-0.185155	-0.4571	-0.129356	-0.667864	-0.081809	-0.390586	-0.184578	0.180398	0.323696	-0.16382	
3.55682	0	0	-0.039494	-0.879963	-0.341005	-0.252499	-0.430424	-0.482827	-0.283909	0.259105	-0.466466	-0.414643	-0.363028	0.0404755	-0.431522	-0.308135	-0.455019	-0.399751	-0.49292	-0.592757	-0.505096	-0.64041	-0.269376	-0.254907	-0.189387	-0.470224	-0.129356	-0.667864	-0.0832978	-0.386378	-0.188632	0.191855	0.322356	-0.160033	
3.5553	0	0	-0.039494	-0.879963	-0.338823	-0.258664	-0.429436	-0.485621	-0.28189	0.253401	-0.471781	-0.42186	-0.355386	0.018878	-0.436109	-0.313882	-0.45862	-0.408902	-0.489375	-0.602774	-0.499009	-0.657612	-0.251518	-0.273014	-0.193619	-0.483348	-0.129356	-0.667864	-0.0847865	-0.38217	-0.192686	0.203312	0.321016	-0.156247	
3.55224	0	0	-0.039494	-0.879963	-0.336642	-0.264829	-0.428447	-0.488415	-0.279871	0.247696	-0.477097	-0.429077	-0.347744	-0.0027195	-0.440696	-0.319628	-0.462222	-0.418054	-0.48583	-0.612791	-0.492923	-0.674813	-0.233659	-0.291121	-0.197852	-0.496471	-0.129356	-0.667864	-0.0862752	-0.377963	-0.19674	0.214768	0.319677	-0.15246	
3.5553	0	0	-0.039494	-0.879963	-0.33446	-0.270995	-0.427459	-0.491209	-0.277853	0.241991	-0.482413	-0.436294	-0.340102	-0.024317	-0.445283	-0.325374	-0.465824	-0.427206	-0.482286	-0.622809	-0.486836	-0.692015	-0.2158	-0.309228	-0.202084	-0.509595	-0.129356	-0.667864	-0.087764	-0.373755	-0.200794	0.226225	0.318337	-0.148674	
3.55072	0	0	-0.039494	-0.879963	-0.33446	-0.270995	-0.428447	-0.488415	-0.272131	0.242638	-0.479956	-0.443238	-0.336288	-0.0350962	-0.435667	-0.333842	-0.461859	-0.438414	-0.486613	-0.629596	-0.489751	-0.701111	-0.226256	-0.312041	-0.194788	-0.530215	-0.125297	-0.679335	-0.081813	-0.390574	-0.19674	0.214768	0.309466	-0.145788	
3.55072	0	0	-0.039494	-0.879963	-0.33446	-0.270995	-0.429436	-0.485621	-0.266409	0.243285	-0.477498	-0.450183	-0.332474	-0.0458755	-0.42605	-0.342309	-0.457893	-0.449622	-0.490939	-0.636383	-0.492665	-0.710208	-0.236713	-0.314854	-0.187492	-0.550836	-0.121238	-0.690807	-0.075862	-0.407392	-0.192686	0.203312	0.300594	-0.142902	
3.54919	0	0	-0.039494	-0.879963	-0.33446	-0.270995	-0.430424	-0.482827	-0.260687	0.243932	-0.475041	-0.457127	-0.32866	-0.0566547	-0.416434	-0.350776	-0.453927	-0.460829	-0.495266	-0.643171	-0.49558	-0.719305	-0.24717	-0.317666	-0.180196	-0.571456	-0.117179	-0.702279	-0.069911	-0.42421	-0.188632	0.191855	0.291722	-0.140017	
3.54919	0	0	-0.039494	-0.879963	-0.33446	-0.270995	-0.431413	-0.480033	-0.254965	0.244579	-0.472584	-0.464071	-0.324846	-0.067434	-0.406818	-0.359244	-0.449962	-0.472037	-0.499593	-0.649958	-0.498495	-0.728401	-0.257626	-0.320479	-0.1729	-0.592076	-0.11312	-0.71375	-0.06396	-0.441029	-0.184578	0.180398	0.282851	-0.137131	
3.54919	0	0	-0.0289305	-0.879944	-0.338825	-0.25866	-0.434381	-0.471646	-0.259006	0.255999	-0.46112	-0.474229	-0.326753	-0.062046	-0.406818	-0.359244	-0.449962	-0.472037	-0.498709	-0.652457	-0.495461	-0.736976	-0.241252	-0.33439	-0.171443	-0.596194	-0.111092	-0.71948	-0.0609888	-0.449426	-0.184578	0.180398	0.28419	-0.140916	
3.54919	0	0	-0.018367	-0.879926	-0.343189	-0.246325	-0.437348	-0.463259	-0.263047	0.26742	-0.449657	-0.484388	-0.328659	-0.056658	-0.406818	-0.359244	-0.449962	-0.472037	-0.497825	-0.654956	-0.492427	-0.745551	-0.224878	-0.348301	-0.169986	-0.600313	-0.109065	-0.72521	-0.0580175	-0.457823	-0.184578	0.180398	0.285529	-0.144701	
3.54309	0	0	-0.0078035	-0.879907	-0.347554	-0.233989	-0.440315	-0.454873	-0.267088	0.27884	-0.438193	-0.494546	-0.330566	-0.05127	-0.406818	-0.359244	-0.449962	-0.472037	-0.49694	-0.657456	-0.489393	-0.754125	-0.208504	-0.362212	-0.168528	-0.604431	-0.107038	-0.730941	-0.0550463	-0.466221	-0.184578	0.180398	0.286869	-0.148485	
3.54462	0	0	0.00276	-0.879888	-0.351919	-0.221654	-0.443283	-0.446486	-0.271129	0.29026	-0.426729	-0.504705	-0.332472	-0.045882	-0.406818	-0.359244	-0.449962	-0.472037	-0.496056	-0.659955	-0.486359	-0.7627	-0.19213	-0.376123	-0.167071	-0.608549	-0.10501	-0.736671	-0.052075	-0.474618	-0.184578	0.180398	0.288208	-0.15227	
3.54309	0	0	-0.0004285	-0.870876	-0.354104	-0.21548	-0.448235	-0.43249	-0.264738	0.30588	-0.420166	-0.500987	-0.326926	-0.037064	-0.409834	-0.350718	-0.452605	-0.464567	-0.488189	-0.663175	-0.479392	-0.765056	-0.208504	-0.362212	-0.159899	-0.603733	-0.107038	-0.730941	-0.0505905	-0.478814	-0.188632	0.191855	0.29574	-0.151371	
3.54156	0	0	-0.003617	-0.861865	-0.356288	-0.209307	-0.453187	-0.418494	-0.258348	0.3215	-0.413603	-0.497269	-0.32138	-0.028246	-0.412851	-0.342193	-0.455249	-0.457097	-0.480321	-0.666394	-0.472425	-0.767412	-0.224878	-0.348301	-0.152728	-0.598916	-0.109065	-0.72521	-0.049106	-0.483009	-0.192686	0.203312	0.303273	-0.150472	
3.54156	0	0	-0.0068055	-0.852853	-0.358472	-0.203133	-0.45814	-0.404499	-0.251957	0.337119	-0.40704	-0.49355	-0.315834	-0.019428	-0.415868	-0.333668	-0.457892	-0.449626	-0.472453	-0.669613	-0.465458	-0.769767	-0.241252	-0.33439	-0.145556	-0.5941	-0.111092	-0.71948	-0.0476215	-0.487205	-0.19674	0.214768	0.310805	-0.149573	
3.54004	0	0	-0.009994	-0.843841	-0.360657	-0.196959	-0.463092	-0.390503	-0.245566	0.352739	-0.400477	-0.489832	-0.310288	-0.01061	-0.418884	-0.325142	-0.460535	-0.442156	-0.464586	-0.672833	-0.458491	-0.772123	-0.257626	-0.320479	-0.138384	-0.589283	-0.11312	-0.71375	-0.046137	-0.491401	-0.200794	0.226225	0.318337	-0.148674	
3.53699	0	0	-0.0253385	-0.830348	-0.375897	-0.187001	-0.464083	-0.387701	-0.257378	0.369274	-0.404167	-0.479405	-0.317939	0.0110137	-0.413284	-0.32224	-0.45296	-0.444232	-0.474222	-0.664614	-0.460514	-0.766405	-0.24717	-0.317666	-0.145687	-0.568644	-0.11312	-0.71375	-0.0406725	-0.48206	-0.15864	0.2075	0.314314	-0.137305	
3.53241	0	0	-0.040683	-0.816855	-0.391137	-0.177042	-0.465075	-0.3849	-0.26919	0.385808	-0.407856	-0.468978	-0.325591	0.0326375	-0.407683	-0.319339	-0.445385	-0.446308	-0.483858	-0.656396	-0.462537	-0.760688	-0.236713	-0.314854	-0.15299	-0.548005	-0.11312	-0.71375	-0.035208	-0.472719	-0.116486	0.188775	0.310291	-0.125936	
3.53393	0	0	-0.0560275	-0.803362	-0.406377	-0.167084	-0.466066	-0.382098	-0.281002	0.402343	-0.411546	-0.458551	-0.333242	0.0542612	-0.402083	-0.316437	-0.437811	-0.448385	-0.493495	-0.648177	-0.46456	-0.75497	-0.226256	-0.312041	-0.160293	-0.527365	-0.11312	-0.71375	-0.0297435	-0.463378	-0.0743327	0.170051	0.306269	-0.114566	
3.53088	0	0	-0.071372	-0.789869	-0.421617	-0.157126	-0.467058	-0.379296	-0.292814	0.418878	-0.415235	-0.448124	-0.340894	0.075885	-0.396483	-0.313536	-0.430236	-0.450461	-0.503131	-0.639959	-0.466583	-0.749253	-0.2158	-0.309228	-0.167596	-0.506726	-0.11312	-0.71375	-0.024279	-0.454037	-0.032179	0.151326	0.302246	-0.103197	
3.53088	0	0	-0.0665878	-0.80339	-0.430281	-0.165695	-0.471645	-0.387062	-0.292451	0.401019	-0.421794	-0.451855	-0.338979	0.0704742	-0.403089	-0.313594	-0.436489	-0.45212	-0.494379	-0.645678	-0.466583	-0.749253	-0.232177	-0.295309	-0.171986	-0.49432	-0.115149	-0.708016	-0.0302327	-0.437211	-0.0362432	0.162812	0.296874	-0.0880153	
3.52783	0	0	-0.0618035	-0.816911	-0.438945	-0.174263	-0.476232	-0.394828	-0.292088	0.383161	-0.428352	-0.455585	-0.337064	0.0650635	-0.409696	-0.313651	-0.442742	-0.45378	-0.485627	-0.651396	-0.466583	-0.749253	-0.248553	-0.28139	-0.176375	-0.481913	-0.117177	-0.702282	-0.0361865	-0.420385	-0.0403075	0.174298	0.291502	-0.0728335	
3.5263	0	0	-0.0570193	-0.830432	-0.447608	-0.182832	-0.480819	-0.402594	-0.291725	0.365302	-0.43491	-0.459316	-0.33515	0.0596527	-0.416302	-0.313709	-0.448994	-0.455439	-0.476876	-0.657115	-0.466583	-0.749253	-0.26493	-0.267471	-0.180765	-0.469506	-0.119206	-0.696549	-0.0421402	-0.403558	-0.0443718	0.185785	0.28613	-0.0576518	
3.52325	0	0	-0.052235	-0.843953	-0.456272	-0.191401	-0.485406	-0.41036	-0.291362	0.347443	-0.441469	-0.463047	-0.333235	0.054242	-0.422909	-0.313767	-0.455247	-0.457099	-0.468124	-0.662834	-0.466583	-0.749253	-0.281307	-0.253552	-0.185155	-0.4571	-0.121235	-0.690815	-0.048094	-0.386732	-0.048436	0.197271	0.280758	-0.04247	
3.52325	0	0	-0.0458675	-0.861949	-0.449736	-0.209872	-0.470919	-0.430572	-0.296727	0.328985	-0.444339	-0.477176	-0.336861	0.0399967	-0.425488	-0.325189	-0.451285	-0.468297	-0.471572	-0.672103	-0.460518	-0.766394	-0.275387	-0.270284	-0.179303	-0.473638	-0.123265	-0.685077	-0.048094	-0.386732	-0.0905845	0.215981	0.288292	-0.0415497	
3.52173	0	0	-0.0395	-0.879945	-0.4432	-0.228343	-0.456433	-0.450785	-0.302092	0.310527	-0.447209	-0.491305	-0.340486	0.0257515	-0.428067	-0.336611	-0.447323	-0.479495	-0.47502	-0.681373	-0.454453	-0.783535	-0.269466	-0.287015	-0.173451	-0.490176	-0.125296	-0.679339	-0.048094	-0.386732	-0.132733	0.234691	0.295826	-0.0406295	
3.52173	0	0	-0.0331325	-0.897941	-0.436665	-0.246813	-0.441946	-0.470997	-0.307457	0.292069	-0.450079	-0.505434	-0.344112	0.0115063	-0.430645	-0.348032	-0.44336	-0.490694	-0.478469	-0.690643	-0.448387	-0.800677	-0.263546	-0.303747	-0.1676	-0.506714	-0.127326	-0.673602	-0.048094	-0.386732	-0.174881	0.253401	0.303361	-0.0397093	
3.51868	0	0	-0.026765	-0.915937	-0.430129	-0.265284	-0.427459	-0.491209	-0.312822	0.273611	-0.452949	-0.519563	-0.347737	-0.002739	-0.433224	-0.359454	-0.439398	-0.501892	-0.481917	-0.699912	-0.442322	-0.817818	-0.257626	-0.320479	-0.161748	-0.523252	-0.129356	-0.667864	-0.048094	-0.386732	-0.21703	0.272111	0.310895	-0.038789	
3.52173	0	0	-0.025175	-0.920431	-0.425779	-0.277577	-0.425483	-0.496794	-0.308788	0.262209	-0.449272	-0.529953	-0.340109	-0.0242975	-0.430212	-0.367966	-0.436759	-0.50935	-0.477504	-0.712383	-0.442231	-0.835409	-0.251717	-0.33718	-0.163079	-0.544576	-0.140746	-0.673646	-0.0550347	-0.391901	-0.212971	0.26064	0.302016	-0.0359097	
3.5202	0	0	-0.023585	-0.924924	-0.42143	-0.289869	-0.423507	-0.502379	-0.304754	0.250807	-0.445596	-0.540343	-0.332481	-0.045856	-0.4272	-0.376478	-0.43412	-0.516807	-0.473091	-0.724854	-0.44214	-0.853	-0.245808	-0.35388	-0.164409	-0.565901	-0.152137	-0.679428	-0.0619755	-0.39707	-0.208912	0.249168	0.293138	-0.0330305	
3.52173	0	0	-0.021995	-0.929418	-0.417081	-0.302162	-0.42153	-0.507964	-0.300719	0.239405	-0.44192	-0.550734	-0.324852	-0.0674145	-0.424189	-0.384991	-0.431481	-0.524265	-0.468679	-0.737326	-0.44205	-0.870591	-0.239898	-0.37058	-0.16574	-0.587225	-0.163527	-0.68521	-0.0689162	-0.402239	-0.204853	0.237697	0.284259	-0.0301513	
3.5202	0	0	-0.020405	-0.933911	-0.412731	-0.314454	-0.419554	-0.513549	-0.296685	0.228003	-0.438243	-0.561124	-0.317224	-0.088973	-0.421177	-0.393503	-0.428842	-0.531723	-0.464266	-0.749797	-0.441959	-0.888182	-0.233989	-0.387281	-0.167071	-0.608549	-0.174918	-0.690992	-0.075857	-0.407408	-0.200794	0.226225	0.275381	-0.027272	
3.51868	0	0	-0.0188157	-0.938402	-0.410558	-0.320594	-0.418566	-0.51634	-0.287944	0.220102	-0.428007	-0.567812	-0.31532	-0.0943545	-0.411562	-0.401965	-0.428842	-0.531723	-0.46074	-0.759761	-0.445903	-0.894354	-0.229564	-0.399786	-0.161249	-0.625004	-0.168843	-0.708161	-0.0768517	-0.429348	-0.200794	0.226225	0.276725	-0.0310715	
3.51868	0	0	-0.0172265	-0.942893	-0.408386	-0.326734	-0.417578	-0.519132	-0.279203	0.212201	-0.417771	-0.5745	-0.313416	-0.099736	-0.401948	-0.410428	-0.428842	-0.531723	-0.457214	-0.769726	-0.449847	-0.900526	-0.225139	-0.412291	-0.155426	-0.641458	-0.162768	-0.725329	-0.0778465	-0.451288	-0.200794	0.226225	0.278069	-0.034871	
3.52173	0	0	-0.0156372	-0.947384	-0.406213	-0.332874	-0.416591	-0.521923	-0.270461	0.204299	-0.407536	-0.581189	-0.311512	-0.105118	-0.392334	-0.41889	-0.428842	-0.531723	-0.453689	-0.779691	-0.453791	-0.906698	-0.220715	-0.424795	-0.149604	-0.657913	-0.156693	-0.742498	-0.0788413	-0.473228	-0.200794	0.226225	0.279414	-0.0386705	
3.51715	0	0	-0.014048	-0.951875	-0.40404	-0.339014	-0.415603	-0.524714	-0.26172	0.196398	-0.3973	-0.587877	-0.309608	-0.110499	-0.382719	-0.427352	-0.428842	-0.531723	-0.450163	-0.789655	-0.457735	-0.91287	-0.21629	-0.4373	-0.143782	-0.674367	-0.150618	-0.759667	-0.079836	-0.495168	-0.200794	0.226225	0.280758	-0.04247	
3.5202	0	0	-0.0156372	-0.947384	-0.391	-0.342814	-0.415603	-0.524714	-0.263736	0.202095	-0.399751	-0.580951	-0.30024	-0.112483	-0.392334	-0.41889	-0.430161	-0.527995	-0.457144	-0.78892	-0.446748	-0.926604	-0.214817	-0.441465	-0.140875	-0.682583	-0.148595	-0.765382	-0.0724303	-0.516097	-0.19674	0.214768	0.282102	-0.0462677	
3.51868	0	0	-0.0172265	-0.942893	-0.37796	-0.346615	-0.415603	-0.524714	-0.265752	0.207792	-0.402201	-0.574026	-0.290872	-0.114466	-0.401948	-0.410428	-0.43148	-0.524267	-0.464126	-0.788185	-0.43576	-0.940338	-0.213343	-0.445629	-0.137968	-0.690799	-0.146573	-0.771098	-0.0650245	-0.537027	-0.192686	0.203312	0.283446	-0.0500655	
3.5202	0	0	-0.0188157	-0.938402	-0.364919	-0.350415	-0.415603	-0.524714	-0.267768	0.21349	-0.404651	-0.567101	-0.281504	-0.11645	-0.411562	-0.401965	-0.4328	-0.520539	-0.471108	-0.78745	-0.424772	-0.954071	-0.211869	-0.449793	-0.135061	-0.699014	-0.14455	-0.776814	-0.0576188	-0.557956	-0.188632	0.191855	0.284789	-0.0538633	
3.51562	0	0	-0.020405	-0.933911	-0.351879	-0.354216	-0.415603	-0.524714	-0.269784	0.219187	-0.407102	-0.560175	-0.272136	-0.118434	-0.421177	-0.393503	-0.434119	-0.516811	-0.478089	-0.786715	-0.413785	-0.967805	-0.210396	-0.453958	-0.132154	-0.70723	-0.142528	-0.782529	-0.050213	-0.578886	-0.184578	0.180398	0.286133	-0.057661	
3.51715	0	0	-0.020405	-0.933911	-0.351879	-0.354216	-0.414616	-0.527504	-0.26507	0.222682	-0.410781	-0.549777	-0.264661	-0.115036	-0.414573	-0.393456	-0.425222	-0.522625	-0.478089	-0.786715	-0.415796	-0.962122	-0.211869	-0.449793	-0.120608	-0.714774	-0.142528	-0.782529	-0.050213	-0.578886	-0.134317	0.13876	0.284789	-0.0538633	
3.51868	0	0	-0.020405	-0.933911	-0.351879	-0.354216	-0.413629	-0.530295	-0.260356	0.226177	-0.414461	-0.539378	-0.257186	-0.111639	-0.407969	-0.393408	-0.416324	-0.528438	-0.478089	-0.786715	-0.417807	-0.956439	-0.213343	-0.445629	-0.109063	-0.722318	-0.142528	-0.782529	-0.050213	-0.578886	-0.0840555	0.097121	0.283446	-0.0500655	
3.51868	0	0	-0.020405	-0.933911	-0.351879	-0.354216	-0.412641	-0.533085	-0.255641	0.229673	-0.41814	-0.528979	-0.24971	-0.108242	-0.401366	-0.393361	-0.407427	-0.534251	-0.478089	-0.786715	-0.419818	-0.950757	-0.214817	-0.441465	-0.0975175	-0.729862	-0.142528	-0.782529	-0.050213	-0.578886	-0.0337942	0.0554825	0.282102	-0.0462677	
3.51868	0	0	-0.020405	-0.933911	-0.351879	-0.354216	-0.411654	-0.535875	-0.250927	0.233168	-0.421819	-0.518581	-0.242235	-0.104844	-0.394762	-0.393314	-0.39853	-0.540065	-0.478089	-0.786715	-0.421829	-0.945074	-0.21629	-0.4373	-0.085972	-0.737406	-0.142528	-0.782529	-0.050213	-0.578886	0.016467	0.013844	0.280758	-0.04247	
3.51868	0	0	-0.0309545	-0.933922	-0.362748	-0.356551	-0.426779	-0.534566	-0.263375	0.234726	-0.424274	-0.511642	-0.25543	-0.0920777	-0.395766	-0.390476	-0.408747	-0.530522	-0.469346	-0.792428	-0.423841	-0.939388	-0.205819	-0.434528	-0.0903338	-0.725079	-0.125051	-0.793949	-0.050213	-0.578886	-0.0337942	0.0554825	0.279414	-0.0386705	
3.51562	0	0	-0.041504	-0.933932	-0.373617	-0.358886	-0.441904	-0.533258	-0.275822	0.236284	-0.42673	-0.504703	-0.268624	-0.0793115	-0.396771	-0.387637	-0.418964	-0.520979	-0.460603	-0.798141	-0.425853	-0.933701	-0.195348	-0.431756	-0.0946955	-0.712753	-0.107574	-0.805369	-0.050213	-0.578886	-0.0840555	0.097121	0.278069	-0.034871	
3.5141	0	0	-0.0520535	-0.933943	-0.384487	-0.361222	-0.457028	-0.53195	-0.28827	0.237842	-0.429185	-0.497764	-0.281819	-0.0665453	-0.397775	-0.384799	-0.429181	-0.511435	-0.451861	-0.803854	-0.427865	-0.928014	-0.184877	-0.428985	-0.0990572	-0.700427	-0.090097	-0.816788	-0.050213	-0.578886	-0.134317	0.13876	0.276725	-0.0310715	
3.51715	0	0	-0.062603	-0.933953	-0.395356	-0.363557	-0.472153	-0.530641	-0.300717	0.2394	-0.431641	-0.490825	-0.295014	-0.053779	-0.398779	-0.381961	-0.439398	-0.501892	-0.443118	-0.809567	-0.429877	-0.922328	-0.174406	-0.426213	-0.103419	-0.6881	-0.07262	-0.828208	-0.050213	-0.578886	-0.184578	0.180398	0.275381	-0.027272	
3.51715	0	0	-0.0683783	-0.947408	-0.391018	-0.375816	-0.465259	-0.550125	-0.301393	0.224524	-0.434516	-0.504938	-0.298662	-0.067959	-0.407967	-0.393394	-0.43906	-0.522159	-0.458835	-0.803122	-0.428871	-0.925172	-0.189302	-0.41648	-0.103419	-0.6881	-0.07262	-0.828208	-0.0417812	-0.577964	-0.142419	0.161658	0.274036	-0.023471	
3.51868	0	0	-0.0741535	-0.960864	-0.386681	-0.388074	-0.458365	-0.569608	-0.302069	0.209647	-0.437392	-0.51905	-0.302311	-0.082139	-0.417156	-0.404827	-0.438721	-0.542426	-0.474551	-0.796678	-0.427864	-0.928015	-0.204198	-0.406747	-0.103419	-0.6881	-0.07262	-0.828208	-0.0333495	-0.577042	-0.100261	0.142919	0.272691	-0.01967	
3.52478	0	0	-0.0799288	-0.97432	-0.382344	-0.400333	-0.451471	-0.589092	-0.302746	0.194771	-0.440268	-0.533163	-0.305959	-0.096319	-0.426345	-0.41626	-0.438383	-0.562694	-0.490267	-0.790233	-0.426858	-0.930859	-0.219093	-0.397014	-0.103419	-0.6881	-0.07262	-0.828208	-0.0249178	-0.57612	-0.0581018	0.124179	0.271346	-0.015869	
3.52325	0	0	-0.085704	-0.987775	-0.378006	-0.412592	-0.444577	-0.608576	-0.303422	0.179895	-0.443143	-0.547276	-0.309608	-0.110499	-0.435533	-0.427693	-0.438045	-0.582961	-0.505984	-0.783788	-0.425852	-0.933702	-0.233989	-0.387281	-0.103419	-0.6881	-0.07262	-0.828208	-0.016486	-0.575198	-0.015943	0.105439	0.270001	-0.012068	
3.52936	0	0	-0.0672507	-1.01015	-0.373674	-0.424834	-0.449181	-0.616247	-0.30712	0.173573	-0.444801	-0.564802	-0.31326	-0.124637	-0.428528	-0.447492	-0.430158	-0.60525	-0.49983	-0.80118	-0.418818	-0.953582	-0.241488	-0.398396	-0.0932512	-0.716836	-0.0860563	-0.828209	-0.0263975	-0.571938	-0.0581017	0.124179	0.271346	-0.015869	
3.53546	0	0	-0.0487975	-1.03252	-0.369343	-0.437076	-0.453786	-0.623918	-0.310818	0.167252	-0.44646	-0.582329	-0.316912	-0.138774	-0.421522	-0.46729	-0.422271	-0.627539	-0.493676	-0.818572	-0.411783	-0.973463	-0.248986	-0.409512	-0.0830835	-0.745571	-0.0994925	-0.828209	-0.036309	-0.568678	-0.10026	0.142919	0.272691	-0.01967	
3.53851	0	0	-0.0303443	-1.0549	-0.365011	-0.449319	-0.45839	-0.631588	-0.314516	0.160931	-0.448118	-0.599855	-0.320564	-0.152912	-0.414517	-0.487089	-0.414384	-0.649829	-0.487522	-0.835963	-0.404749	-0.993343	-0.256485	-0.420627	-0.0729158	-0.774307	-0.112929	-0.82821	-0.0462205	-0.565418	-0.142419	0.161658	0.274036	-0.023471	
3.54767	0	0	-0.011891	-1.07727	-0.360679	-0.461561	-0.462994	-0.639259	-0.318214	0.154609	-0.449776	-0.617382	-0.324216	-0.16705	-0.407511	-0.506888	-0.406497	-0.672118	-0.481368	-0.853355	-0.397714	-1.01322	-0.263984	-0.431743	-0.062748	-0.803042	-0.126365	-0.82821	-0.056132	-0.562158	-0.184578	0.180398	0.275381	-0.027272	
3.54919	0	0	-0.0224343	-1.07725	-0.373701	-0.457753	-0.46103	-0.64481	-0.316205	0.148931	-0.434668	-0.637865	-0.32042	-0.177778	-0.403515	-0.518182	-0.410129	-0.681145	-0.476103	-0.868235	-0.399668	-1.02502	-0.258099	-0.448373	-0.0641583	-0.824141	-0.137755	-0.833916	-0.0443135	-0.595559	-0.176486	0.157528	0.260344	-0.0291235	
3.55377	0	0	-0.0329775	-1.07723	-0.386723	-0.453944	-0.459067	-0.65036	-0.314196	0.143254	-0.419561	-0.658349	-0.316624	-0.188505	-0.399518	-0.529475	-0.413761	-0.690173	-0.470838	-0.883115	-0.401621	-1.03682	-0.252215	-0.465004	-0.0655685	-0.845241	-0.149145	-0.839622	-0.032495	-0.62896	-0.168394	0.134659	0.245308	-0.030975	
3.5553	0	0	-0.0435207	-1.07721	-0.399746	-0.450136	-0.457103	-0.65591	-0.312187	0.137576	-0.404453	-0.678832	-0.312829	-0.199233	-0.395522	-0.540769	-0.417393	-0.6992	-0.465573	-0.897996	-0.403575	-1.04861	-0.246331	-0.481635	-0.0669788	-0.86634	-0.160534	-0.845329	-0.0206765	-0.662361	-0.160302	0.111789	0.230272	-0.0328265	
3.55835	0	0	-0.054064	-1.07719	-0.412768	-0.446328	-0.455139	-0.661461	-0.310178	0.131899	-0.389345	-0.699315	-0.309033	-0.20996	-0.391526	-0.552063	-0.421025	-0.708227	-0.460308	-0.912876	-0.405528	-1.06041	-0.240446	-0.498265	-0.068389	-0.887439	-0.171924	-0.851035	-0.008858	-0.695762	-0.15221	0.088919	0.215235	-0.034678	
3.56293	0	0	-0.0524845	-1.08166	-0.393259	-0.468468	-0.452195	-0.66978	-0.310178	0.131899	-0.39713	-0.699528	-0.293984	-0.22803	-0.397126	-0.554909	-0.415787	-0.723031	-0.456803	-0.922782	-0.408486	-1.06935	-0.22117	-0.520434	-0.074142	-0.896232	-0.148442	-0.879502	-0.0227618	-0.705873	-0.144139	0.066108	0.2206	-0.0498403	
3.56293	0	0	-0.050905	-1.08612	-0.37375	-0.490607	-0.449252	-0.678099	-0.310178	0.131899	-0.404914	-0.699742	-0.278936	-0.2461	-0.402726	-0.557754	-0.410548	-0.737835	-0.453298	-0.932689	-0.411443	-1.0783	-0.201894	-0.542602	-0.079895	-0.905025	-0.124961	-0.907968	-0.0366655	-0.715985	-0.136067	0.043297	0.225965	-0.0650025	
3.5675	0	0	-0.0493255	-1.09058	-0.354242	-0.512747	-0.446308	-0.686418	-0.310178	0.131899	-0.412698	-0.699955	-0.263887	-0.264171	-0.408327	-0.560599	-0.40531	-0.752639	-0.449792	-0.942595	-0.414401	-1.08724	-0.182618	-0.564771	-0.085648	-0.913817	-0.101479	-0.936435	-0.0505693	-0.726096	-0.127996	0.020486	0.23133	-0.0801647	
3.57056	0	0	-0.047746	-1.09505	-0.334733	-0.534887	-0.443364	-0.694737	-0.310178	0.131899	-0.420483	-0.700168	-0.248839	-0.282241	-0.413927	-0.563445	-0.400072	-0.767443	-0.446287	-0.952501	-0.417359	-1.09618	-0.163342	-0.58694	-0.091401	-0.92261	-0.077997	-0.964902	-0.064473	-0.736207	-0.119924	-0.002325	0.236695	-0.095327	
3.57208	0	0	-0.0461672	-1.09951	-0.34776	-0.531066	-0.443364	-0.694737	-0.310178	0.131899	-0.418046	-0.707056	-0.248839	-0.282241	-0.411933	-0.569081	-0.405019	-0.772734	-0.443661	-0.959924	-0.413361	-1.10749	-0.161874	-0.591087	-0.0885165	-0.930762	-0.0739767	-0.976264	-0.0585965	-0.752814	-0.161861	0.0163255	0.239374	-0.102899	
3.57361	0	0	-0.0445885	-1.10397	-0.360787	-0.527246	-0.443364	-0.694737	-0.310178	0.131899	-0.415608	-0.713944	-0.248839	-0.282241	-0.409938	-0.574717	-0.409965	-0.778026	-0.441034	-0.967346	-0.409362	-1.11879	-0.160407	-0.595234	-0.085632	-0.938914	-0.0699565	-0.987626	-0.05272	-0.769421	-0.203798	0.034976	0.242053	-0.11047	
3.57361	0	0	-0.0430097	-1.10844	-0.373813	-0.523425	-0.443364	-0.694737	-0.310178	0.131899	-0.413171	-0.720833	-0.248839	-0.282241	-0.407944	-0.580354	-0.414911	-0.783317	-0.438407	-0.974769	-0.405363	-1.13009	-0.15894	-0.599381	-0.0827475	-0.947066	-0.0659363	-0.998989	-0.0468435	-0.786029	-0.245735	0.0536265	0.244732	-0.118041	
3.57513	0	0	-0.041431	-1.1129	-0.38684	-0.519605	-0.443364	-0.694737	-0.310178	0.131899	-0.410734	-0.727721	-0.248839	-0.282241	-0.40595	-0.58599	-0.419858	-0.788609	-0.435781	-0.982191	-0.401365	-1.14139	-0.157472	-0.603528	-0.079863	-0.955218	-0.061916	-1.01035	-0.040967	-0.802636	-0.287672	0.072277	0.247411	-0.125613	
3.57666	0	0	-0.0382758	-1.12181	-0.399841	-0.515798	-0.442383	-0.697509	-0.310178	0.131899	-0.411952	-0.724277	-0.25263	-0.271527	-0.406947	-0.583172	-0.418552	-0.792301	-0.444506	-0.97649	-0.398369	-1.14985	-0.156005	-0.607673	-0.079863	-0.955218	-0.061916	-1.01035	-0.040967	-0.802636	-0.241707	0.0422425	0.246072	-0.121828	
3.57513	0	0	-0.0351205	-1.13073	-0.412843	-0.511991	-0.441403	-0.70028	-0.310178	0.131899	-0.41317	-0.720834	-0.256422	-0.260812	-0.407944	-0.580354	-0.417245	-0.795994	-0.453232	-0.970789	-0.395374	-1.15832	-0.154538	-0.611819	-0.079863	-0.955218	-0.061916	-1.01035	-0.040967	-0.802636	-0.195742	0.012208	0.244732	-0.118043	
3.57818	0	0	-0.0319653	-1.13965	-0.425844	-0.508183	-0.440422	-0.703051	-0.310178	0.131899	-0.414389	-0.717391	-0.260213	-0.250098	-0.408941	-0.577537	-0.415938	-0.799686	-0.461957	-0.965087	-0.392378	-1.16679	-0.153072	-0.615964	-0.079863	-0.955218	-0.061916	-1.01035	-0.040967	-0.802636	-0.149777	-0.0178265	0.243393	-0.114258	
3.57513	0	0	-0.02881	-1.14857	-0.438845	-0.504376	-0.439442	-0.705823	-0.310178	0.131899	-0.415607	-0.713947	-0.264004	-0.239383	-0.409938	-0.574719	-0.414632	-0.803379	-0.470682	-0.959386	-0.389382	-1.17525	-0.151605	-0.620109	-0.079863	-0.955218	-0.061916	-1.01035	-0.040967	-0.802636	-0.103812	-0.047861	0.242054	-0.110473	
3.57361	0	0	-0.039341	-1.14853	-0.432381	-0.522645	-0.445032	-0.710686	-0.329281	0.13566	-0.418045	-0.707056	-0.265901	-0.234021	-0.409938	-0.574719	-0.413326	-0.80707	-0.469807	-0.961859	-0.388384	-1.17807	-0.154539	-0.611817	-0.0726607	-0.950521	-0.061916	-1.01035	-0.0211653	-0.809194	-0.0616273	-0.0666735	0.240714	-0.106687	
3.57361	0	0	-0.049872	-1.1485	-0.425917	-0.540914	-0.450622	-0.71555	-0.348384	0.139421	-0.420484	-0.700165	-0.267798	-0.228658	-0.409938	-0.574719	-0.412019	-0.810761	-0.468932	-0.964332	-0.387386	-1.18089	-0.157473	-0.603525	-0.0654585	-0.945824	-0.061916	-1.01035	-0.0013635	-0.815752	-0.0194425	-0.085486	0.239374	-0.1029	
3.57056	0	0	-0.060403	-1.14847	-0.419452	-0.559184	-0.456211	-0.720413	-0.367486	0.143182	-0.422922	-0.693275	-0.269696	-0.223296	-0.409938	-0.574719	-0.410713	-0.814453	-0.468057	-0.966805	-0.386388	-1.18371	-0.160408	-0.595232	-0.0582563	-0.941127	-0.061916	-1.01035	0.0184382	-0.82231	0.0227423	-0.104299	0.238035	-0.0991135	
3.56903	0	0	-0.070934	-1.14844	-0.412988	-0.577453	-0.461801	-0.725276	-0.386589	0.146943	-0.42536	-0.686384	-0.271593	-0.217934	-0.409938	-0.574719	-0.409407	-0.818144	-0.467182	-0.969278	-0.38539	-1.18653	-0.163342	-0.58694	-0.051054	-0.93643	-0.061916	-1.01035	0.03824	-0.828868	0.064927	-0.123111	0.236695	-0.095327	
3.56903	0	0	-0.0646392	-1.16623	-0.417376	-0.597931	-0.455931	-0.741865	-0.38227	0.118023	-0.420486	-0.70016	-0.277162	-0.226655	-0.414537	-0.580375	-0.404188	-0.832893	-0.466307	-0.97175	-0.383395	-1.19217	-0.163342	-0.58694	-0.051054	-0.93643	-0.0464485	-1.01609	0.0338298	-0.816404	0.0187143	-0.0929145	0.234013	-0.087749	
3.56598	0	0	-0.0583445	-1.18402	-0.421764	-0.618409	-0.450061	-0.758455	-0.37795	0.089103	-0.415611	-0.713937	-0.28273	-0.235376	-0.419136	-0.58603	-0.398969	-0.847642	-0.465433	-0.974222	-0.3814	-1.19781	-0.163342	-0.58694	-0.051054	-0.93643	-0.030981	-1.02183	0.0294195	-0.80394	-0.0274985	-0.062718	0.231332	-0.080171	
3.56598	0	0	-0.0520497	-1.20181	-0.426151	-0.638887	-0.444191	-0.775044	-0.37363	0.060183	-0.410737	-0.727714	-0.288299	-0.244097	-0.423735	-0.591685	-0.393751	-0.862391	-0.464558	-0.976694	-0.379405	-1.20345	-0.163342	-0.58694	-0.051054	-0.93643	-0.0155135	-1.02757	0.0250093	-0.791476	-0.0737112	-0.0325215	0.228651	-0.072593	
3.56445	0	0	-0.045755	-1.2196	-0.430539	-0.659365	-0.438321	-0.791633	-0.369311	0.031263	-0.405862	-0.74149	-0.293868	-0.252818	-0.428334	-0.597341	-0.388532	-0.87714	-0.463683	-0.979166	-0.37741	-1.20909	-0.163342	-0.58694	-0.051054	-0.93643	-4.6E-05	-1.03331	0.020599	-0.779012	-0.119924	-0.002325	0.225969	-0.065015	
3.56293	0	0	-0.041042	-1.23292	-0.408977	-0.687423	-0.442936	-0.799227	-0.368017	0.0109095	-0.408776	-0.755443	-0.293764	-0.277539	-0.428954	-0.614225	-0.390881	-0.889753	-0.45844	-0.993985	-0.376404	-1.22922	-0.156012	-0.607656	-0.0539343	-0.953341	-0.0155135	-1.02757	0.020599	-0.779012	-0.119924	-0.002325	0.217123	-0.0621483	
3.5614	0	0	-0.036329	-1.24623	-0.387416	-0.71548	-0.447551	-0.806822	-0.366723	-0.009444	-0.411689	-0.769395	-0.29366	-0.302259	-0.429573	-0.631109	-0.39323	-0.902365	-0.453197	-1.0088	-0.375399	-1.24934	-0.148681	-0.628372	-0.0568145	-0.970252	-0.030981	-1.02183	0.020599	-0.779012	-0.119924	-0.002325	0.208277	-0.0592815	
3.55987	0	0	-0.031616	-1.25955	-0.365855	-0.743538	-0.452167	-0.814416	-0.36543	-0.0297975	-0.414602	-0.783347	-0.293557	-0.326979	-0.430193	-0.647993	-0.395579	-0.914977	-0.447953	-1.02362	-0.374393	-1.26947	-0.141351	-0.649087	-0.0596948	-0.987164	-0.0464485	-1.01609	0.020599	-0.779012	-0.119924	-0.002325	0.199431	-0.0564147	
3.55682	0	0	-0.026903	-1.27287	-0.344293	-0.771596	-0.456782	-0.82201	-0.364136	-0.050151	-0.417516	-0.7973	-0.293453	-0.3517	-0.430813	-0.664877	-0.397928	-0.92759	-0.44271	-1.03844	-0.373387	-1.2896	-0.134021	-0.669803	-0.062575	-1.00408	-0.061916	-1.01035	0.020599	-0.779012	-0.119924	-0.002325	0.190585	-0.053548	
3.55377	0	0	-0.023765	-1.28174	-0.357285	-0.767757	-0.454831	-0.827524	-0.358164	-0.0670277	-0.411447	-0.814451	-0.282147	-0.383652	-0.424858	-0.681706	-0.39143	-0.945955	-0.44532	-1.05	-0.372399	-1.30966	-0.141578	-0.680755	-0.069792	-1.03368	-0.0599077	-1.01603	0.0195032	-0.800634	-0.107855	-0.036433	0.193265	-0.0611228	
3.55377	0	0	-0.020627	-1.29061	-0.370277	-0.763918	-0.452879	-0.833039	-0.352193	-0.0839045	-0.405378	-0.831602	-0.270841	-0.415604	-0.418903	-0.698535	-0.384932	-0.964319	-0.44793	-1.06156	-0.371412	-1.32972	-0.149135	-0.691707	-0.077009	-1.06329	-0.0578995	-1.0217	0.0184075	-0.822256	-0.0957865	-0.070541	0.195945	-0.0686975	
3.54919	0	0	-0.017489	-1.29948	-0.383269	-0.760078	-0.450928	-0.838554	-0.346221	-0.100781	-0.39931	-0.848753	-0.259535	-0.447556	-0.412949	-0.715364	-0.378434	-0.982683	-0.45054	-1.07313	-0.370424	-1.34979	-0.156691	-0.702658	-0.084226	-1.09289	-0.0558913	-1.02738	0.0173118	-0.843879	-0.0837178	-0.104649	0.198626	-0.0762722	
3.54614	0	0	-0.014351	-1.30835	-0.396261	-0.756239	-0.448977	-0.844068	-0.340249	-0.117658	-0.393241	-0.865904	-0.248229	-0.479508	-0.406994	-0.732193	-0.371936	-1.00105	-0.45315	-1.08469	-0.369436	-1.36985	-0.164248	-0.71361	-0.091443	-1.1225	-0.053883	-1.03305	0.016216	-0.865501	-0.071649	-0.138757	0.201306	-0.083847	
3.54309	0	0	-0.011216	-1.31721	-0.394122	-0.762284	-0.447027	-0.849579	-0.341967	-0.129486	-0.394964	-0.883196	-0.257531	-0.501978	-0.409618	-0.743392	-0.364156	-1.02304	-0.457503	-1.0913	-0.363526	-1.4038	-0.15841	-0.73011	-0.0944037	-1.164	-0.0458628	-1.05572	-0.0017355	-0.888728	-0.109594	-0.131389	0.196485	-0.0923288	
3.54156	0	0	-0.008081	-1.32607	-0.391983	-0.768328	-0.445077	-0.85509	-0.343685	-0.141314	-0.396686	-0.900488	-0.266833	-0.524448	-0.412243	-0.75459	-0.356376	-1.04502	-0.461856	-1.09792	-0.357617	-1.43776	-0.152571	-0.74661	-0.0973645	-1.2055	-0.0378425	-1.07839	-0.019687	-0.911955	-0.147539	-0.124021	0.191663	-0.10081	
3.54004	0	0	-0.004946	-1.33493	-0.389845	-0.774373	-0.443127	-0.860601	-0.345402	-0.153142	-0.398408	-0.91778	-0.276134	-0.546919	-0.414868	-0.765789	-0.348596	-1.06701	-0.466209	-1.10454	-0.351707	-1.47172	-0.146733	-0.76311	-0.100325	-1.247	-0.0298223	-1.10105	-0.0376385	-0.935181	-0.185483	-0.116653	0.186841	-0.109292	
3.53393	0	0	-0.001811	-1.34379	-0.387706	-0.780417	-0.441177	-0.866112	-0.34712	-0.16497	-0.400131	-0.935072	-0.285436	-0.569389	-0.417492	-0.776988	-0.340816	-1.089	-0.470562	-1.11115	-0.345797	-1.50567	-0.140895	-0.77961	-0.103286	-1.2885	-0.021802	-1.12372	-0.05559	-0.958408	-0.223428	-0.109285	0.18202	-0.117774	
3.53546	0	0	-0.00024475	-1.34821	-0.383433	-0.792493	-0.431678	-0.872318	-0.343152	-0.176182	-0.396505	-0.945319	-0.289151	-0.583222	-0.412548	-0.790961	-0.33564	-1.10363	-0.458375	-1.12668	-0.333973	-1.53909	-0.13798	-0.787848	-0.107726	-1.32568	-0.0158002	-1.14068	-0.0523513	-0.992149	-0.219425	-0.120597	0.177201	-0.126238	
3.53393	0	0	0.0013215	-1.35264	-0.37916	-0.80457	-0.42218	-0.878525	-0.339185	-0.187395	-0.39288	-0.955567	-0.292866	-0.597054	-0.407604	-0.804935	-0.330464	-1.11825	-0.446188	-1.1422	-0.322149	-1.5725	-0.135065	-0.796087	-0.112166	-1.36287	-0.0097985	-1.15764	-0.0491125	-1.02589	-0.215423	-0.131908	0.172383	-0.134702	
3.52936	0	0	0.00288775	-1.35707	-0.374887	-0.816647	-0.412682	-0.884732	-0.335218	-0.198607	-0.389254	-0.965815	-0.29658	-0.610886	-0.402659	-0.818909	-0.325288	-1.13288	-0.434002	-1.15772	-0.310324	-1.60592	-0.13215	-0.804326	-0.116606	-1.40006	-0.00379675	-1.17461	-0.0458737	-1.05963	-0.21142	-0.14322	0.167565	-0.143165	
3.53088	0	0	0.004454	-1.36149	-0.370614	-0.828723	-0.403183	-0.890938	-0.33125	-0.209819	-0.385628	-0.976062	-0.300295	-0.624719	-0.397715	-0.832882	-0.320112	-1.14751	-0.421815	-1.17324	-0.2985	-1.63934	-0.129235	-0.812564	-0.121046	-1.43724	0.002205	-1.19157	-0.042635	-1.09337	-0.207418	-0.154532	0.162746	-0.151629	
3.52173	0	0	0.0165708	-1.36601	-0.370614	-0.828723	-0.396599	-0.888884	-0.323572	-0.214836	-0.386836	-0.972647	-0.300295	-0.624719	-0.396727	-0.835674	-0.317527	-1.15482	-0.420946	-1.1757	-0.299557	-1.65359	-0.127778	-0.81668	-0.121167	-1.46172	0.002205	-1.19157	-0.0452357	-1.11058	-0.207418	-0.154532	0.155264	-0.152539	
3.52173	0	0	0.0286875	-1.37052	-0.370614	-0.828723	-0.390016	-0.886829	-0.315894	-0.219853	-0.388044	-0.969233	-0.300295	-0.624719	-0.395739	-0.838467	-0.314943	-1.16212	-0.420077	-1.17816	-0.300613	-1.66784	-0.126322	-0.820796	-0.121289	-1.48619	0.002205	-1.19157	-0.0478365	-1.12778	-0.207418	-0.154532	0.147782	-0.153449	
3.52173	0	0	0.0408043	-1.37503	-0.370614	-0.828723	-0.383432	-0.884775	-0.308216	-0.22487	-0.389252	-0.965819	-0.300295	-0.624719	-0.394751	-0.841259	-0.312358	-1.16943	-0.419208	-1.18061	-0.30167	-1.68209	-0.124866	-0.824913	-0.121411	-1.51067	0.002205	-1.19157	-0.0504373	-1.14499	-0.207418	-0.154532	0.1403	-0.154359	
3.51562	0	0	0.052921	-1.37955	-0.370614	-0.828723	-0.376848	-0.882721	-0.300538	-0.229887	-0.39046	-0.962404	-0.300295	-0.624719	-0.393763	-0.844051	-0.309773	-1.17673	-0.418339	-1.18307	-0.302727	-1.69634	-0.123409	-0.829029	-0.121532	-1.53514	0.002205	-1.19157	-0.053038	-1.1622	-0.207418	-0.154532	0.132818	-0.155269	
3.51562	0	0	0.0482175	-1.36626	-0.377026	-0.810602	-0.37221	-0.875145	-0.307484	-0.210256	-0.383888	-0.958817	-0.304035	-0.61415	-0.395739	-0.838466	-0.302204	-1.17887	-0.411361	-1.18385	-0.291851	-1.70984	-0.126323	-0.820794	-0.135882	-1.54412	0.0176828	-1.19734	-0.05159	-1.16629	-0.25714	-0.113346	0.132818	-0.155269	
3.51562	0	0	0.043514	-1.35296	-0.383437	-0.792481	-0.367572	-0.867568	-0.314431	-0.190626	-0.377316	-0.95523	-0.307774	-0.603581	-0.397715	-0.832881	-0.294636	-1.18101	-0.404384	-1.18463	-0.280974	-1.72334	-0.129237	-0.812559	-0.150232	-1.5531	0.0331605	-1.20311	-0.050142	-1.17038	-0.306863	-0.07216	0.132818	-0.155269	
3.5141	0	0	0.0388105	-1.33967	-0.389849	-0.77436	-0.362935	-0.859992	-0.321377	-0.170995	-0.370744	-0.951643	-0.311514	-0.593013	-0.399692	-0.827295	-0.287068	-1.18315	-0.397406	-1.18541	-0.270097	-1.73684	-0.13215	-0.804325	-0.164582	-1.56208	0.0486383	-1.20888	-0.048694	-1.17447	-0.356585	-0.030974	0.132818	-0.155269	
3.50647	0	0	0.034107	-1.32638	-0.396261	-0.756239	-0.358297	-0.852416	-0.328323	-0.151364	-0.364172	-0.948056	-0.315254	-0.582444	-0.401668	-0.82171	-0.279499	-1.18528	-0.390428	-1.1862	-0.259221	-1.75035	-0.135064	-0.79609	-0.178932	-1.57106	0.064116	-1.21464	-0.047246	-1.17856	-0.406308	0.010212	0.132818	-0.155269	
3.51257	0	0	0.0431015	-1.32202	-0.389698	-0.741908	-0.354635	-0.842059	-0.329591	-0.131082	-0.361228	-0.934191	-0.311548	-0.568586	-0.397056	-0.816128	-0.280792	-1.18163	-0.385183	-1.18206	-0.260202	-1.74757	-0.109674	-0.803173	-0.186093	-1.57555	0.0601135	-1.20333	-0.0402897	-1.17367	-0.364596	-0.00833625	0.137629	-0.14681	
3.50799	0	0	0.052096	-1.31766	-0.383135	-0.727577	-0.350973	-0.831702	-0.330859	-0.1108	-0.358283	-0.920325	-0.307842	-0.554728	-0.392444	-0.810546	-0.282084	-1.17798	-0.379938	-1.17793	-0.261182	-1.7448	-0.084284	-0.810256	-0.193254	-1.58003	0.056111	-1.19202	-0.0333335	-1.16877	-0.322883	-0.0268845	0.14244	-0.138351	
3.50494	0	0	0.0610905	-1.3133	-0.376573	-0.713247	-0.34731	-0.821345	-0.332128	-0.0905187	-0.355339	-0.906459	-0.304136	-0.540871	-0.387832	-0.804964	-0.283377	-1.17432	-0.374693	-1.17379	-0.262163	-1.74203	-0.058894	-0.81734	-0.200414	-1.58451	0.0521085	-1.18071	-0.0263773	-1.16387	-0.281171	-0.0454327	0.147251	-0.129892	
3.50342	0	0	0.070085	-1.30895	-0.37001	-0.698916	-0.343648	-0.810988	-0.333396	-0.070237	-0.352395	-0.892594	-0.30043	-0.527013	-0.38322	-0.799382	-0.28467	-1.17067	-0.369448	-1.16966	-0.263144	-1.73926	-0.033504	-0.824423	-0.207575	-1.58899	0.048106	-1.1694	-0.019421	-1.15898	-0.239459	-0.063981	0.152062	-0.121433	
3.50342	0	0	0.0669407	-1.30006	-0.372156	-0.692851	-0.355137	-0.799226	-0.330689	-0.0611745	-0.359679	-0.872009	-0.296727	-0.513114	-0.393768	-0.788188	-0.278388	-1.16915	-0.372932	-1.15981	-0.266087	-1.73094	-0.055706	-0.794041	-0.20898	-1.58502	0.0420928	-1.1524	-0.037979	-1.13109	-0.25554	-0.0185325	0.146713	-0.106316	
3.49884	0	0	0.0637965	-1.29117	-0.374302	-0.686786	-0.366625	-0.787464	-0.327983	-0.052112	-0.366963	-0.851423	-0.293025	-0.499216	-0.404316	-0.776994	-0.272105	-1.16764	-0.376416	-1.14997	-0.269031	-1.72262	-0.077908	-0.763659	-0.210385	-1.58105	0.0360795	-1.13541	-0.056537	-1.1032	-0.271622	0.026916	0.141364	-0.091198	
3.50036	0	0	0.0606522	-1.28229	-0.376448	-0.680721	-0.378114	-0.775701	-0.325276	-0.0430495	-0.374247	-0.830838	-0.289322	-0.485317	-0.414864	-0.765799	-0.265822	-1.16612	-0.3799	-1.14012	-0.271975	-1.7143	-0.10011	-0.733277	-0.211789	-1.57708	0.0300663	-1.11842	-0.075095	-1.0753	-0.287703	0.0723645	0.136014	-0.0760805	
3.49884	0	0	0.057508	-1.2734	-0.378594	-0.674656	-0.389603	-0.763939	-0.322569	-0.033987	-0.381531	-0.810253	-0.285619	-0.471419	-0.425412	-0.754605	-0.25954	-1.16461	-0.383384	-1.13027	-0.274918	-1.70598	-0.122312	-0.702895	-0.213194	-1.57311	0.024053	-1.10142	-0.093653	-1.04741	-0.303784	0.117813	0.130665	-0.060963	
3.49274	0	0	0.0590805	-1.27785	-0.378594	-0.674656	-0.386666	-0.77224	-0.332961	-0.038028	-0.381531	-0.810253	-0.296832	-0.464092	-0.423432	-0.760201	-0.263238	-1.17343	-0.376393	-1.13105	-0.2759	-1.70321	-0.125239	-0.694622	-0.225961	-1.56172	0.0200378	-1.09007	-0.0797635	-1.03752	-0.257819	0.0877785	0.123966	-0.0420303	
3.49731	0	0	0.060653	-1.28229	-0.378594	-0.674656	-0.383729	-0.780541	-0.343353	-0.042069	-0.381531	-0.810253	-0.308045	-0.456765	-0.421452	-0.765796	-0.266935	-1.18225	-0.369403	-1.13183	-0.276882	-1.70043	-0.128167	-0.686349	-0.238728	-1.55032	0.0160225	-1.07873	-0.065874	-1.02763	-0.211854	0.057744	0.117267	-0.0230975	
3.50036	0	0	0.0622255	-1.28674	-0.378594	-0.674656	-0.380791	-0.788843	-0.353744	-0.04611	-0.381531	-0.810253	-0.319259	-0.449439	-0.419472	-0.771392	-0.270633	-1.19107	-0.362413	-1.13261	-0.277864	-1.69766	-0.131094	-0.678076	-0.251495	-1.53892	0.0120073	-1.06738	-0.0519845	-1.01774	-0.165889	0.0277095	0.110568	-0.00416475	
3.49579	0	0	0.063798	-1.29118	-0.378594	-0.674656	-0.377854	-0.797144	-0.364136	-0.050151	-0.381531	-0.810253	-0.330472	-0.442112	-0.417492	-0.776988	-0.274331	-1.19989	-0.355422	-1.13339	-0.278846	-1.69488	-0.134021	-0.669803	-0.264262	-1.52753	0.007992	-1.05603	-0.038095	-1.00785	-0.119924	-0.002325	0.103869	0.014768	
3.49579	0	0	0.0669405	-1.30006	-0.376448	-0.680721	-0.37492	-0.805437	-0.35717	-0.0698375	-0.376673	-0.823982	-0.341595	-0.459306	-0.419132	-0.790952	-0.274161	-1.21962	-0.362413	-1.13261	-0.27296	-1.71152	-0.131094	-0.678076	-0.268588	-1.53995	0.023495	-1.06179	-0.0552447	-0.983971	-0.123957	0.00907325	0.0998428	0.026147	
3.49731	0	0	0.070083	-1.30894	-0.374302	-0.686786	-0.371985	-0.81373	-0.350204	-0.089524	-0.371815	-0.837711	-0.352719	-0.4765	-0.420771	-0.804916	-0.273991	-1.23935	-0.369403	-1.13183	-0.267073	-1.72816	-0.128167	-0.686349	-0.272915	-1.55238	0.038998	-1.06756	-0.0723945	-0.960091	-0.127991	0.0204715	0.0958165	0.037526	
3.50036	0	0	0.0732255	-1.31782	-0.372156	-0.692851	-0.369051	-0.822024	-0.343238	-0.109211	-0.366958	-0.851439	-0.363843	-0.493694	-0.422411	-0.81888	-0.273821	-1.25909	-0.376393	-1.13105	-0.261186	-1.74479	-0.125239	-0.694622	-0.277241	-1.56481	0.054501	-1.07332	-0.0895442	-0.936212	-0.132024	0.0318698	0.0917902	0.048905	
3.50189	0	0	0.076368	-1.32671	-0.37001	-0.698916	-0.366116	-0.830317	-0.336272	-0.128897	-0.3621	-0.865168	-0.374966	-0.510888	-0.424051	-0.832844	-0.273651	-1.27882	-0.383384	-1.13027	-0.2553	-1.76143	-0.122312	-0.702895	-0.281567	-1.57724	0.070004	-1.07909	-0.106694	-0.912333	-0.136057	0.043268	0.087764	0.060284	
3.50036	0	0	0.076368	-1.32671	-0.356997	-0.702756	-0.358542	-0.831016	-0.336272	-0.128897	-0.35725	-0.878876	-0.367482	-0.532038	-0.420104	-0.844	-0.274782	-1.29485	-0.3799	-1.14012	-0.25638	-1.77561	-0.116466	-0.719418	-0.283096	-1.59754	0.054501	-1.07332	-0.102318	-0.9247	-0.182022	0.0733025	0.0965835	0.0574395	
3.50799	0	0	0.076368	-1.32671	-0.343983	-0.706597	-0.350967	-0.831716	-0.336272	-0.128897	-0.352399	-0.892583	-0.359998	-0.553188	-0.416156	-0.855157	-0.275914	-1.31088	-0.376416	-1.14997	-0.25746	-1.7898	-0.11062	-0.73594	-0.284625	-1.61784	0.038998	-1.06756	-0.0979425	-0.937066	-0.227987	0.103337	0.105403	0.054595	
3.50952	0	0	0.076368	-1.32671	-0.33097	-0.710437	-0.343393	-0.832415	-0.336272	-0.128897	-0.347549	-0.906291	-0.352515	-0.574338	-0.412208	-0.866313	-0.277046	-1.32692	-0.372932	-1.15981	-0.258541	-1.80398	-0.104773	-0.752463	-0.286154	-1.63814	0.023495	-1.06179	-0.0935668	-0.949432	-0.273952	0.133372	0.114223	0.0517505	
3.50952	0	0	0.076368	-1.32671	-0.317957	-0.714277	-0.335819	-0.833114	-0.336272	-0.128897	-0.342699	-0.919999	-0.345031	-0.595488	-0.408261	-0.877469	-0.278177	-1.34295	-0.369448	-1.16966	-0.259621	-1.81817	-0.098927	-0.768986	-0.287683	-1.65844	0.007992	-1.05603	-0.089191	-0.961799	-0.319917	0.163406	0.123042	0.048906	
3.51105	0	0	0.0747973	-1.32227	-0.304918	-0.718131	-0.335819	-0.833114	-0.320896	-0.138944	-0.343911	-0.916574	-0.343163	-0.600768	-0.409247	-0.874681	-0.275608	-1.35021	-0.367707	-1.17458	-0.255711	-1.82922	-0.0960078	-0.777236	-0.293412	-1.66683	0.0140128	-1.07305	-0.0961233	-0.966763	-0.315884	0.152008	0.114223	0.0517505	
3.51257	0	0	0.0732265	-1.31783	-0.29188	-0.721985	-0.335819	-0.833114	-0.305519	-0.148991	-0.345122	-0.913149	-0.341295	-0.606048	-0.410234	-0.871894	-0.273039	-1.35747	-0.365967	-1.1795	-0.251802	-1.84027	-0.0930885	-0.785486	-0.299141	-1.67523	0.0200335	-1.09006	-0.103055	-0.971728	-0.311851	0.140609	0.105403	0.054595	
3.51257	0	0	0.0716557	-1.31339	-0.278842	-0.725839	-0.335819	-0.833114	-0.290143	-0.159039	-0.346334	-0.909724	-0.339426	-0.611327	-0.41122	-0.869106	-0.270469	-1.36473	-0.364227	-1.18442	-0.247893	-1.85132	-0.0901692	-0.793736	-0.304869	-1.68363	0.0260543	-1.10708	-0.109988	-0.976692	-0.307817	0.129211	0.0965835	0.0574395	
3.51257	0	0	0.070085	-1.30895	-0.265803	-0.729693	-0.335819	-0.833114	-0.274766	-0.169086	-0.347546	-0.906299	-0.337558	-0.616607	-0.412206	-0.866318	-0.2679	-1.37199	-0.362486	-1.18934	-0.243983	-1.86237	-0.08725	-0.801986	-0.310598	-1.69203	0.032075	-1.12409	-0.11692	-0.981656	-0.303784	0.117813	0.087764	0.060284	
3.51562	0	0	0.0685132	-1.30451	-0.280989	-0.71977	-0.345349	-0.826887	-0.274766	-0.169086	-0.347546	-0.906299	-0.326374	-0.623915	-0.403647	-0.871911	-0.269185	-1.36836	-0.360746	-1.19425	-0.243006	-1.86512	-0.0857915	-0.806108	-0.311994	-1.68808	0.0515922	-1.1412	-0.11692	-0.981656	-0.345476	0.136303	0.0952397	0.0612373	
3.5141	0	0	0.0669415	-1.30006	-0.296175	-0.709847	-0.35488	-0.820659	-0.274766	-0.169086	-0.347546	-0.906299	-0.315191	-0.631223	-0.395087	-0.877504	-0.270469	-1.36474	-0.359007	-1.19917	-0.24203	-1.86789	-0.084333	-0.81023	-0.31339	-1.68413	0.0711095	-1.15831	-0.11692	-0.981656	-0.387167	0.154794	0.102715	0.0621905	
3.51562	0	0	0.0653697	-1.29562	-0.311361	-0.699924	-0.36441	-0.814432	-0.274766	-0.169086	-0.347546	-0.906299	-0.304007	-0.63853	-0.386528	-0.883097	-0.271753	-1.36111	-0.357268	-1.20408	-0.241053	-1.87065	-0.0828745	-0.814353	-0.314786	-1.68019	0.0906268	-1.17542	-0.11692	-0.981656	-0.428859	0.173285	0.110191	0.0631437	
3.51562	0	0	0.063798	-1.29118	-0.326547	-0.690001	-0.37394	-0.808205	-0.274766	-0.169086	-0.347546	-0.906299	-0.292823	-0.645838	-0.377968	-0.88869	-0.273038	-1.35748	-0.355528	-1.209	-0.240076	-1.8734	-0.081416	-0.818475	-0.316182	-1.67624	0.110144	-1.19253	-0.11692	-0.981656	-0.470551	0.191775	0.117667	0.064097	
3.5141	0	0	0.0516647	-1.28667	-0.322253	-0.702135	-0.382482	-0.804749	-0.29484	-0.162445	-0.347546	-0.906299	-0.292823	-0.645838	-0.387514	-0.880308	-0.273038	-1.35748	-0.354658	-1.21146	-0.248003	-1.86823	-0.081416	-0.818475	-0.310456	-1.66784	0.0906268	-1.17542	-0.107074	-0.984927	-0.424831	0.161901	0.114978	0.0716975	
3.5141	0	0	0.0395315	-1.28215	-0.31796	-0.714269	-0.391023	-0.801293	-0.314914	-0.155805	-0.347546	-0.906299	-0.292823	-0.645838	-0.397061	-0.871927	-0.273038	-1.35748	-0.353789	-1.21391	-0.255929	-1.86305	-0.081416	-0.818475	-0.304729	-1.65943	0.0711095	-1.15831	-0.097228	-0.988197	-0.379111	0.132026	0.112288	0.079298	
3.51562	0	0	0.0273982	-1.27764	-0.313667	-0.726403	-0.399564	-0.797837	-0.334988	-0.149165	-0.347546	-0.906299	-0.292823	-0.645838	-0.406607	-0.863545	-0.273038	-1.35748	-0.352919	-1.21637	-0.263856	-1.85787	-0.081416	-0.818475	-0.299003	-1.65103	0.0515923	-1.1412	-0.087382	-0.991467	-0.333392	0.102151	0.109599	0.0868985	
3.51257	0	0	0.015265	-1.27313	-0.309373	-0.738537	-0.408106	-0.794381	-0.355062	-0.142524	-0.347546	-0.906299	-0.292823	-0.645838	-0.416153	-0.855163	-0.273038	-1.35748	-0.35205	-1.21883	-0.271782	-1.85269	-0.081416	-0.818475	-0.293277	-1.64263	0.032075	-1.12409	-0.077536	-0.994738	-0.287672	0.072277	0.10691	0.094499	
3.51257	0	0	0.021544	-1.29087	-0.331095	-0.742962	-0.401267	-0.813708	-0.359492	-0.163323	-0.347546	-0.906299	-0.304007	-0.63853	-0.41714	-0.852374	-0.280596	-1.35533	-0.350312	-1.22374	-0.271782	-1.85269	-0.0828745	-0.814353	-0.300279	-1.62284	0.047582	-1.12987	-0.0848255	-0.974137	-0.2917	0.083661	0.105565	0.0983017	
3.50647	0	0	0.027823	-1.30862	-0.352817	-0.747388	-0.394429	-0.833036	-0.363922	-0.184121	-0.347546	-0.906299	-0.315191	-0.631223	-0.418127	-0.849584	-0.288154	-1.35318	-0.348573	-1.22865	-0.271782	-1.85269	-0.084333	-0.81023	-0.307281	-1.60305	0.063089	-1.13564	-0.092115	-0.953535	-0.295728	0.095045	0.104219	0.102105	
3.50799	0	0	0.034102	-1.32636	-0.374539	-0.751814	-0.38759	-0.852363	-0.368353	-0.20492	-0.347546	-0.906299	-0.326374	-0.623915	-0.419114	-0.846795	-0.295711	-1.35103	-0.346835	-1.23357	-0.271782	-1.85269	-0.0857915	-0.806108	-0.314283	-1.58326	0.078596	-1.14142	-0.0994045	-0.932934	-0.299756	0.106429	0.102873	0.105907	
3.50799	0	0	0.040381	-1.34411	-0.396261	-0.756239	-0.380751	-0.87169	-0.372783	-0.225719	-0.347546	-0.906299	-0.337558	-0.616607	-0.420101	-0.844005	-0.303269	-1.34888	-0.345097	-1.23848	-0.271782	-1.85269	-0.08725	-0.801986	-0.321285	-1.56347	0.094103	-1.14719	-0.106694	-0.912333	-0.303784	0.117813	0.101528	0.10971	
3.50952	0	0	0.0450823	-1.3574	-0.400687	-0.77655	-0.38441	-0.88201	-0.364875	-0.248066	-0.351703	-0.916738	-0.34313	-0.625129	-0.415169	-0.857944	-0.298137	-1.36339	-0.352085	-1.23769	-0.272759	-1.84993	-0.0887092	-0.797862	-0.318376	-1.54707	0.0745835	-1.13008	-0.0913517	-0.906483	-0.257819	0.0877785	0.09614	0.124937	
3.50647	0	0	0.0497835	-1.37068	-0.405114	-0.79686	-0.38807	-0.892329	-0.356968	-0.270414	-0.355859	-0.927177	-0.348701	-0.633651	-0.410237	-0.871883	-0.293005	-1.37789	-0.359073	-1.2369	-0.273735	-1.84717	-0.0901685	-0.793738	-0.315467	-1.53067	0.055064	-1.11296	-0.0760095	-0.900633	-0.211854	0.057744	0.090752	0.140163	
3.50494	0	0	0.0544847	-1.38397	-0.40954	-0.817171	-0.391729	-0.902649	-0.34906	-0.292762	-0.360015	-0.937617	-0.354272	-0.642173	-0.405305	-0.885821	-0.287873	-1.39239	-0.366061	-1.2361	-0.274711	-1.84441	-0.0916278	-0.789614	-0.312558	-1.51427	0.0355445	-1.09585	-0.0606672	-0.894784	-0.165889	0.0277095	0.085364	0.15539	
3.50494	0	0	0.059186	-1.39725	-0.413967	-0.837482	-0.395388	-0.912969	-0.341153	-0.315109	-0.364172	-0.948056	-0.359844	-0.650695	-0.400373	-0.89976	-0.282741	-1.4069	-0.373049	-1.23531	-0.275688	-1.84165	-0.093087	-0.78549	-0.309649	-1.49787	0.016025	-1.07873	-0.045325	-0.888934	-0.119924	-0.002325	0.079976	0.170617	
3.50342	0	0	0.059186	-1.39725	-0.398861	-0.847352	-0.382958	-0.927438	-0.333489	-0.320117	-0.360545	-0.958307	-0.346811	-0.663261	-0.396433	-0.910895	-0.28146	-1.41052	-0.367843	-1.25002	-0.273735	-1.84717	-0.0887113	-0.797856	-0.308244	-1.50184	0.0140168	-1.07306	-0.0526483	-0.868237	-0.169922	0.0391077	0.0772788	0.17824	
3.50036	0	0	0.059186	-1.39725	-0.383756	-0.857223	-0.370528	-0.941906	-0.325824	-0.325125	-0.356917	-0.968558	-0.333778	-0.675826	-0.392493	-0.922031	-0.280178	-1.41414	-0.362637	-1.26474	-0.271782	-1.85269	-0.0843355	-0.810223	-0.306839	-1.50581	0.0120085	-1.06738	-0.0599715	-0.847541	-0.219921	0.0805405	0.0745815	0.185864	
3.49731	0	0	0.059186	-1.39725	-0.36865	-0.867093	-0.358098	-0.956375	-0.31816	-0.330133	-0.35329	-0.97881	-0.320745	-0.688392	-0.388553	-0.933167	-0.278896	-1.41776	-0.357431	-1.27945	-0.269829	-1.85821	-0.0799597	-0.822589	-0.305433	-1.50979	0.0100003	-1.06171	-0.0672948	-0.826844	-0.269919	0.121973	0.0718842	0.193487	
3.49731	0	0	0.059186	-1.39725	-0.353544	-0.876964	-0.345668	-0.970843	-0.310496	-0.335141	-0.349663	-0.989061	-0.307712	-0.700957	-0.384613	-0.944302	-0.277615	-1.42139	-0.352225	-1.29416	-0.267876	-1.86373	-0.075584	-0.834955	-0.304028	-1.51376	0.007992	-1.05603	-0.074618	-0.806148	-0.319917	0.163406	0.069187	0.20111	
3.49731	0	0	0.0560527	-1.3884	-0.355677	-0.870936	-0.348589	-0.962588	-0.301076	-0.328415	-0.34066	-0.992318	-0.289058	-0.705045	-0.384613	-0.944302	-0.271337	-1.41992	-0.347893	-1.30641	-0.2669	-1.86648	-0.0726702	-0.84319	-0.291277	-1.52514	0.0120073	-1.06738	-0.0716868	-0.814432	-0.269919	0.121973	0.070536	0.197298	
3.48968	0	0	0.0529195	-1.37954	-0.35781	-0.864907	-0.351509	-0.954333	-0.291655	-0.321689	-0.331657	-0.995575	-0.270404	-0.709132	-0.384613	-0.944302	-0.265058	-1.41845	-0.343561	-1.31865	-0.265924	-1.86924	-0.0697565	-0.851425	-0.278525	-1.53653	0.0160225	-1.07873	-0.0687555	-0.822716	-0.219921	0.0805405	0.071885	0.193486	
3.48816	0	0	0.0497863	-1.37069	-0.359943	-0.858879	-0.35443	-0.946078	-0.282235	-0.314963	-0.322655	-0.998831	-0.251751	-0.71322	-0.384613	-0.944302	-0.25878	-1.41698	-0.33923	-1.33089	-0.264948	-1.872	-0.0668428	-0.859659	-0.265773	-1.54791	0.0200378	-1.09007	-0.0658243	-0.831001	-0.169922	0.0391077	0.073234	0.189673	
3.48511	0	0	0.046653	-1.36183	-0.362076	-0.852851	-0.357351	-0.937823	-0.272815	-0.308237	-0.313652	-1.00209	-0.233097	-0.717307	-0.384613	-0.944302	-0.252502	-1.41551	-0.334898	-1.34313	-0.263972	-1.87476	-0.063929	-0.867894	-0.253022	-1.5593	0.024053	-1.10142	-0.062893	-0.839285	-0.119924	-0.002325	0.074583	0.185861	
3.48663	0	0	0.0435165	-1.35297	-0.366346	-0.840783	-0.3593	-0.932315	-0.273052	-0.290869	-0.307057	-0.998513	-0.240567	-0.696195	-0.379008	-0.941545	-0.248785	-1.40679	-0.334032	-1.34558	-0.258975	-1.87166	-0.0624733	-0.872009	-0.245876	-1.5548	0.0260585	-1.10709	-0.0599643	-0.847562	-0.157838	0.00495625	0.0759313	0.18205	
3.48358	0	0	0.04038	-1.34411	-0.370617	-0.828715	-0.361249	-0.926808	-0.273289	-0.273501	-0.300462	-0.994938	-0.248038	-0.675082	-0.373403	-0.938787	-0.245067	-1.39806	-0.333167	-1.34802	-0.253977	-1.86856	-0.0610175	-0.876124	-0.238731	-1.55031	0.028064	-1.11276	-0.0570355	-0.855838	-0.195752	0.0122375	0.0772795	0.178239	
3.48053	0	0	0.0372435	-1.33524	-0.374887	-0.816646	-0.363198	-0.9213	-0.273527	-0.256133	-0.293868	-0.991363	-0.255509	-0.653969	-0.367798	-0.93603	-0.24135	-1.38934	-0.332302	-1.35047	-0.24898	-1.86546	-0.0595617	-0.880238	-0.231585	-1.54582	0.0300695	-1.11843	-0.0541068	-0.864115	-0.233666	0.0195188	0.0786277	0.174428	
3.479	0	0	0.034107	-1.32638	-0.379157	-0.804578	-0.365147	-0.915792	-0.273764	-0.238765	-0.287273	-0.987788	-0.262979	-0.632857	-0.362193	-0.933273	-0.237633	-1.38061	-0.331436	-1.35292	-0.243983	-1.86237	-0.058106	-0.884353	-0.224439	-1.54133	0.032075	-1.12409	-0.051178	-0.872392	-0.27158	0.0268	0.079976	0.170617	
3.47748	0	0	0.0325375	-1.32194	-0.383433	-0.792493	-0.367097	-0.910281	-0.265322	-0.229185	-0.283094	-0.977358	-0.259254	-0.619022	-0.356582	-0.930513	-0.244062	-1.36244	-0.340152	-1.34722	-0.239959	-1.8565	-0.0610182	-0.876122	-0.217284	-1.53683	0.032075	-1.12409	-0.0541068	-0.864115	-0.275603	0.0381693	0.081324	0.166808	
3.47595	0	0	0.030968	-1.31751	-0.387709	-0.780409	-0.369047	-0.90477	-0.25688	-0.219604	-0.278915	-0.966928	-0.255528	-0.605186	-0.350971	-0.927754	-0.250491	-1.34427	-0.348869	-1.34153	-0.235934	-1.85063	-0.0639305	-0.867891	-0.210129	-1.53233	0.032075	-1.12409	-0.0570355	-0.855838	-0.279626	0.0495385	0.082672	0.162999	
3.47137	0	0	0.0293985	-1.31307	-0.391985	-0.768324	-0.370997	-0.899259	-0.248438	-0.210024	-0.274737	-0.956498	-0.251803	-0.591351	-0.345361	-0.924995	-0.256921	-1.3261	-0.357585	-1.33583	-0.23191	-1.84477	-0.0668427	-0.85966	-0.202974	-1.52784	0.032075	-1.12409	-0.0599643	-0.847562	-0.283649	0.0609077	0.08402	0.15919	
3.46832	0	0	0.027829	-1.30864	-0.396261	-0.756239	-0.372947	-0.893748	-0.239996	-0.200443	-0.270558	-0.946068	-0.248078	-0.577515	-0.33975	-0.922235	-0.26335	-1.30793	-0.366301	-1.33014	-0.227886	-1.8389	-0.069755	-0.851429	-0.195819	-1.52334	0.032075	-1.12409	-0.062893	-0.839285	-0.287672	0.072277	0.085368	0.155381	
3.46832	0	0	0.0293985	-1.31307	-0.396261	-0.756239	-0.371972	-0.896504	-0.249683	-0.189794	-0.274198	-0.935781	-0.240601	-0.574252	-0.34271	-0.913869	-0.264637	-1.30429	-0.357585	-1.33583	-0.230822	-1.83061	-0.0712123	-0.84731	-0.188655	-1.51884	0.0300695	-1.11843	-0.0643583	-0.835144	-0.283649	0.0609077	0.0867152	0.151573	
3.46527	0	0	0.030968	-1.31751	-0.396261	-0.756239	-0.370996	-0.89926	-0.25937	-0.179146	-0.277838	-0.925494	-0.233124	-0.570988	-0.34567	-0.905504	-0.265925	-1.30065	-0.348869	-1.34153	-0.233757	-1.82231	-0.0726695	-0.843192	-0.18149	-1.51433	0.028064	-1.11276	-0.0658235	-0.831002	-0.279626	0.0495385	0.0880625	0.147766	
3.46069	0	0	0.0325375	-1.32194	-0.396261	-0.756239	-0.370021	-0.902016	-0.269056	-0.168497	-0.281477	-0.915208	-0.225647	-0.567724	-0.34863	-0.897138	-0.267212	-1.29701	-0.340152	-1.34722	-0.236693	-1.81402	-0.0741267	-0.839074	-0.174325	-1.50983	0.0260585	-1.10709	-0.0672887	-0.826861	-0.275603	0.0381693	0.0894098	0.143958	
3.46222	0	0	0.034107	-1.32638	-0.396261	-0.756239	-0.369046	-0.904772	-0.278743	-0.157848	-0.285117	-0.904921	-0.21817	-0.564461	-0.35159	-0.888772	-0.268499	-1.29338	-0.331436	-1.35292	-0.239628	-1.80572	-0.075584	-0.834955	-0.167161	-1.50533	0.024053	-1.10142	-0.068754	-0.82272	-0.27158	0.0268	0.090757	0.140151	
3.46069	0	0	0.0251275	-1.33073	-0.389849	-0.77436	-0.372711	-0.915076	-0.287167	-0.16745	-0.286331	-0.901489	-0.233153	-0.546512	-0.35159	-0.888772	-0.269787	-1.28974	-0.341018	-1.34477	-0.241587	-1.80019	-0.077042	-0.830835	-0.161399	-1.49682	0.0395585	-1.10719	-0.0618072	-0.817699	-0.321323	0.0680438	0.090757	0.140151	
3.45917	0	0	0.016148	-1.33508	-0.383437	-0.792481	-0.376375	-0.92538	-0.295591	-0.177052	-0.287546	-0.898058	-0.248136	-0.528563	-0.35159	-0.888772	-0.271075	-1.2861	-0.3506	-1.33663	-0.243545	-1.79465	-0.0785	-0.826715	-0.155637	-1.48832	0.055064	-1.11296	-0.0548605	-0.812678	-0.371065	0.109288	0.090757	0.140151	
3.45306	0	0	0.0071685	-1.33943	-0.377026	-0.810602	-0.380039	-0.935685	-0.304015	-0.186653	-0.28876	-0.894626	-0.263119	-0.510613	-0.35159	-0.888772	-0.272363	-1.28246	-0.360181	-1.32849	-0.245503	-1.78912	-0.079958	-0.822595	-0.149876	-1.47982	0.0705695	-1.11873	-0.0479138	-0.807657	-0.420808	0.150531	0.090757	0.140151	
3.45306	0	0	-0.001811	-1.34379	-0.370614	-0.828723	-0.383704	-0.945989	-0.312439	-0.196255	-0.289974	-0.891195	-0.278102	-0.492664	-0.35159	-0.888772	-0.273651	-1.27882	-0.369763	-1.32035	-0.247462	-1.78358	-0.081416	-0.818475	-0.144114	-1.47132	0.086075	-1.12451	-0.040967	-0.802636	-0.470551	0.191775	0.090757	0.140151	
3.45306	0	0	0.00132075	-1.35264	-0.381452	-0.830913	-0.380786	-0.954236	-0.313179	-0.210844	-0.297782	-0.891369	-0.272471	-0.508578	-0.356212	-0.894326	-0.277354	-1.28758	-0.361913	-1.3236	-0.250402	-1.77527	-0.0977443	-0.804636	-0.148355	-1.45934	0.0645447	-1.10171	-0.0354818	-0.793453	-0.378866	0.131866	0.0792468	0.150599	
3.44543	0	0	0.0044525	-1.36149	-0.39229	-0.833102	-0.377868	-0.962484	-0.31392	-0.225434	-0.30559	-0.891542	-0.26684	-0.524493	-0.360834	-0.89988	-0.281056	-1.29635	-0.354063	-1.32685	-0.253341	-1.76696	-0.114072	-0.790798	-0.152595	-1.44735	0.0430145	-1.07891	-0.0299965	-0.784269	-0.287181	0.071957	0.0677365	0.161047	
3.44849	0	0	0.00758425	-1.37034	-0.403129	-0.835292	-0.374949	-0.970732	-0.314661	-0.240023	-0.313398	-0.891715	-0.261209	-0.540407	-0.365456	-0.905434	-0.284759	-1.30512	-0.346212	-1.33009	-0.256281	-1.75865	-0.130401	-0.77696	-0.156835	-1.43537	0.0214842	-1.05611	-0.0245113	-0.775086	-0.195497	0.012048	0.0562262	0.171495	
3.44849	0	0	0.010716	-1.37919	-0.413967	-0.837482	-0.372031	-0.978979	-0.315401	-0.254612	-0.321206	-0.891889	-0.255578	-0.556321	-0.370078	-0.910988	-0.288462	-1.31388	-0.338362	-1.33334	-0.259221	-1.75035	-0.146729	-0.763121	-0.161076	-1.42338	-4.6E-05	-1.03331	-0.019026	-0.765903	-0.103812	-0.047861	0.044716	0.181943	
3.44543	0	0	0.010716	-1.37919	-0.400994	-0.841324	-0.373003	-0.976231	-0.314411	-0.257409	-0.31878	-0.898745	-0.248085	-0.577496	-0.367121	-0.919343	-0.284606	-1.32478	-0.345347	-1.33254	-0.256281	-1.75865	-0.142355	-0.775482	-0.169656	-1.42392	-0.004069	-1.02194	-0.0249133	-0.749265	-0.10784	-0.036477	0.0332172	0.192385	
3.44543	0	0	0.010716	-1.37919	-0.388022	-0.845166	-0.373976	-0.973482	-0.313422	-0.260207	-0.316353	-0.905602	-0.240593	-0.598671	-0.364165	-0.927699	-0.28075	-1.33568	-0.352332	-1.33174	-0.253341	-1.76696	-0.137982	-0.787843	-0.178235	-1.42446	-0.008092	-1.01057	-0.0308005	-0.732627	-0.111868	-0.025093	0.0217185	0.202827	
3.44391	0	0	0.010716	-1.37919	-0.375049	-0.849009	-0.374949	-0.970734	-0.312432	-0.263004	-0.313927	-0.912459	-0.2331	-0.619846	-0.361209	-0.936055	-0.276894	-1.34658	-0.359316	-1.33094	-0.250402	-1.77527	-0.133608	-0.800203	-0.186814	-1.425	-0.012115	-0.999205	-0.0366878	-0.715988	-0.115896	-0.013709	0.0102197	0.213269	
3.43933	0	0	0.010716	-1.37919	-0.362076	-0.852851	-0.375921	-0.967985	-0.311442	-0.265801	-0.311501	-0.919315	-0.225607	-0.641021	-0.358252	-0.94441	-0.273038	-1.35748	-0.366301	-1.33014	-0.247462	-1.78358	-0.129235	-0.812564	-0.195394	-1.42553	-0.016138	-0.987836	-0.042575	-0.69935	-0.119924	-0.002325	-0.001279	0.223711	
3.43933	0	0	0.006017	-1.36591	-0.366346	-0.840783	-0.370305	-0.963197	-0.308716	-0.256823	-0.301265	-0.926003	-0.223737	-0.646307	-0.350669	-0.947224	-0.274323	-1.35384	-0.357585	-1.33583	-0.253437	-1.78393	-0.112908	-0.826396	-0.203961	-1.42608	-0.0101055	-1.00488	-0.0480495	-0.708564	-0.161861	0.0163255	0.011567	0.209461	
3.44238	0	0	0.001318	-1.35263	-0.370617	-0.828715	-0.364688	-0.958409	-0.30599	-0.247844	-0.291029	-0.932692	-0.221866	-0.651593	-0.343086	-0.950039	-0.275608	-1.35021	-0.348869	-1.34153	-0.259412	-1.78428	-0.096582	-0.840229	-0.212528	-1.42662	-0.004073	-1.02193	-0.053524	-0.717778	-0.203798	0.034976	0.024413	0.195212	
3.44238	0	0	-0.003381	-1.33935	-0.374887	-0.816646	-0.359072	-0.953621	-0.303264	-0.238866	-0.280794	-0.93938	-0.219996	-0.656879	-0.335503	-0.952854	-0.276892	-1.34658	-0.340152	-1.34722	-0.265388	-1.78463	-0.0802555	-0.854062	-0.221094	-1.42716	0.0019595	-1.03898	-0.0589985	-0.726993	-0.245735	0.0536265	0.037259	0.180962	
3.4378	0	0	-0.00808	-1.32607	-0.379157	-0.804578	-0.353456	-0.948833	-0.300538	-0.229887	-0.270558	-0.946068	-0.218126	-0.662165	-0.32792	-0.955668	-0.278177	-1.34295	-0.331436	-1.35292	-0.271363	-1.78498	-0.063929	-0.867894	-0.229661	-1.4277	0.007992	-1.05603	-0.064473	-0.736207	-0.287672	0.072277	0.050105	0.166713	
3.43475	0	0	0.00089725	-1.32171	-0.370441	-0.796332	-0.359304	-0.932305	-0.298806	-0.218085	-0.274198	-0.935781	-0.22374	-0.646298	-0.330877	-0.94731	-0.279462	-1.33932	-0.341018	-1.34477	-0.264408	-1.7874	-0.077343	-0.862293	-0.218269	-1.43514	0.0275128	-1.07315	-0.0600648	-0.748665	-0.287672	0.072277	0.0426467	0.165736	
3.43323	0	0	0.0098745	-1.31735	-0.361725	-0.788087	-0.365152	-0.915777	-0.297074	-0.206282	-0.277838	-0.925494	-0.229355	-0.630431	-0.333835	-0.938951	-0.280748	-1.33569	-0.3506	-1.33663	-0.257454	-1.78982	-0.090757	-0.856691	-0.206877	-1.44259	0.0470335	-1.09027	-0.0556565	-0.761123	-0.287672	0.072277	0.0351885	0.164759	
3.4317	0	0	0.0188517	-1.31299	-0.353009	-0.779841	-0.371	-0.899249	-0.295342	-0.194479	-0.281477	-0.915208	-0.234969	-0.614563	-0.336792	-0.930593	-0.282033	-1.33205	-0.360181	-1.32849	-0.250499	-1.79223	-0.104171	-0.85109	-0.195485	-1.45003	0.0665542	-1.10739	-0.0512483	-0.773582	-0.287672	0.072277	0.0277302	0.163781	
3.42407	0	0	0.027829	-1.30864	-0.344293	-0.771596	-0.376848	-0.882721	-0.29361	-0.182677	-0.285117	-0.904921	-0.240584	-0.598696	-0.33975	-0.922235	-0.283318	-1.32842	-0.369763	-1.32035	-0.243544	-1.79465	-0.117585	-0.845488	-0.184093	-1.45747	0.086075	-1.12451	-0.04684	-0.78604	-0.287672	0.072277	0.020272	0.162804	
3.42865	0	0	0.0110048	-1.29082	-0.348577	-0.759487	-0.379776	-0.874445	-0.289893	-0.17647	-0.289977	-0.891187	-0.221862	-0.602785	-0.344685	-0.908288	-0.277039	-1.32694	-0.361047	-1.32604	-0.244524	-1.79188	-0.104171	-0.85109	-0.188332	-1.44549	0.0685625	-1.11306	-0.036947	-0.789313	-0.287672	0.072277	0.020272	0.162804	
3.42865	0	0	-0.0058195	-1.273	-0.352862	-0.747378	-0.382705	-0.86617	-0.286177	-0.170262	-0.294837	-0.877453	-0.20314	-0.606874	-0.34962	-0.89434	-0.27076	-1.32545	-0.35233	-1.33174	-0.245503	-1.78912	-0.090757	-0.856691	-0.192571	-1.43351	0.05105	-1.10162	-0.027054	-0.792586	-0.287672	0.072277	0.020272	0.162804	
3.4256	0	0	-0.0226437	-1.25518	-0.357147	-0.735268	-0.385633	-0.857895	-0.28246	-0.164055	-0.299696	-0.863719	-0.184418	-0.610963	-0.354555	-0.880393	-0.264481	-1.32396	-0.343614	-1.33744	-0.246482	-1.78635	-0.077343	-0.862293	-0.196809	-1.42153	0.0335375	-1.09018	-0.017161	-0.79586	-0.287672	0.072277	0.020272	0.162804	
3.42407	0	0	-0.039468	-1.23736	-0.361431	-0.723159	-0.388561	-0.849619	-0.278743	-0.157848	-0.304556	-0.849985	-0.165696	-0.615052	-0.35949	-0.866445	-0.258202	-1.32248	-0.334898	-1.34313	-0.247462	-1.78358	-0.063929	-0.867894	-0.201048	-1.40955	0.016025	-1.07873	-0.007268	-0.799133	-0.287672	0.072277	0.020272	0.162804	
3.42102	0	0	-0.0347573	-1.25068	-0.357147	-0.735268	-0.393191	-0.857194	-0.281467	-0.166861	-0.306989	-0.84311	-0.178815	-0.602404	-0.352889	-0.866464	-0.267053	-1.31669	-0.345346	-1.33254	-0.250402	-1.77527	-0.0653855	-0.863778	-0.196718	-1.39701	0.0315293	-1.0845	-0.0116783	-0.786669	-0.295733	0.0950592	0.0290767	0.159975	
3.41949	0	0	-0.0300465	-1.26399	-0.352862	-0.747378	-0.397821	-0.864769	-0.284191	-0.175875	-0.309422	-0.836235	-0.191933	-0.589757	-0.346289	-0.866483	-0.275904	-1.31091	-0.355795	-1.32195	-0.253341	-1.76696	-0.066842	-0.859662	-0.192388	-1.38446	0.0470335	-1.09027	-0.0160885	-0.774204	-0.303794	0.117841	0.0378815	0.157147	
