4.39148	0	0	-0.335608	-0.469096	-0.013972	0.30756	-0.276352	-0.424115	0.007247	0.638071	0.03018	0.162057	0.150234	0.973782	0.071458	-0.299284	0.210263	0.921806	-0.313492	-0.572016	0.393524	0.964143	-0.048624	-0.005405	0.203603	0.83847	0.224957	0.242758	0.292596	0.577245	-0.156934	0.076759	-0.20453	0.303496	
4.39148	0	0	-0.344298	-0.473527	-0.022548	0.310152	-0.28256	-0.42584	-0.00284025	0.647248	0.0225075	0.16202	0.165837	0.955183	0.0659697	-0.301779	0.217782	0.920152	-0.324575	-0.578551	0.401631	0.958846	-0.0441858	-0.017948	0.205031	0.834434	0.220182	0.256252	0.294275	0.596704	-0.160231	0.0860762	-0.211826	0.324116	
4.38843	0	0	-0.352988	-0.477959	-0.031124	0.312744	-0.288769	-0.427565	-0.0129275	0.656424	0.014835	0.161984	0.18144	0.936585	0.0604815	-0.304273	0.225301	0.918498	-0.335657	-0.585086	0.409737	0.95355	-0.0397475	-0.030491	0.20646	0.830397	0.215408	0.269745	0.295955	0.616163	-0.163528	0.0953935	-0.219122	0.344736	
4.3869	0	0	-0.361677	-0.48239	-0.0397	0.315335	-0.294978	-0.42929	-0.0230147	0.665601	0.0071625	0.161947	0.197042	0.917986	0.0549933	-0.306767	0.232819	0.916845	-0.34674	-0.591621	0.417843	0.948253	-0.0353093	-0.043034	0.207888	0.826361	0.210633	0.283239	0.297634	0.635622	-0.166825	0.104711	-0.226419	0.365356	
4.38537	0	0	-0.370367	-0.486821	-0.048276	0.317927	-0.301186	-0.431015	-0.033102	0.674778	-0.00051	0.16191	0.212645	0.899387	0.049505	-0.309262	0.240338	0.915191	-0.357823	-0.598156	0.42595	0.942956	-0.030871	-0.055577	0.209316	0.822324	0.205858	0.296732	0.299313	0.655081	-0.170122	0.114028	-0.233715	0.385976	
4.37927	0	0	-0.357024	-0.495539	-0.0596127	0.328347	-0.310933	-0.422719	-0.0390585	0.691612	-0.00051	0.16191	0.208777	0.910318	0.049505	-0.309262	0.237336	0.923676	-0.361097	-0.607804	0.42595	0.942956	-0.0392655	-0.0573152	0.209316	0.822324	0.196522	0.292459	0.30247	0.646159	-0.163532	0.095403	-0.243189	0.369983	
4.38385	0	0	-0.343682	-0.504258	-0.0709495	0.338766	-0.320681	-0.414424	-0.045015	0.708446	-0.00051	0.16191	0.204909	0.921249	0.049505	-0.309262	0.234334	0.932161	-0.364371	-0.617452	0.42595	0.942956	-0.04766	-0.0590535	0.209316	0.822324	0.187186	0.288185	0.305627	0.637238	-0.156942	0.076778	-0.252664	0.35399	
4.37927	0	0	-0.33034	-0.512976	-0.0822863	0.349186	-0.330428	-0.406128	-0.0509715	0.725281	-0.00051	0.16191	0.201042	0.93218	0.049505	-0.309262	0.231331	0.940647	-0.367644	-0.627099	0.42595	0.942956	-0.0560545	-0.0607918	0.209316	0.822324	0.177849	0.283912	0.308784	0.628316	-0.150351	0.058153	-0.262138	0.337998	
4.38385	0	0	-0.316997	-0.521694	-0.093623	0.359606	-0.340175	-0.397832	-0.056928	0.742115	-0.00051	0.16191	0.197174	0.943111	0.049505	-0.309262	0.228329	0.949132	-0.370918	-0.636747	0.42595	0.942956	-0.064449	-0.06253	0.209316	0.822324	0.168513	0.279639	0.311941	0.619394	-0.143761	0.039528	-0.271612	0.322005	
4.38232	0	0	-0.323202	-0.504157	-0.087835	0.364868	-0.341062	-0.395325	-0.056389	0.759923	0.0071625	0.161947	0.191363	0.959533	0.0485725	-0.306626	0.213297	0.97202	-0.369112	-0.641852	0.415459	0.954993	-0.064449	-0.06253	0.206459	0.830399	0.16078	0.270885	0.303954	0.617761	-0.175369	0.0458928	-0.274165	0.307871	
4.38385	0	0	-0.329407	-0.486621	-0.082047	0.37013	-0.341949	-0.392819	-0.05585	0.77773	0.014835	0.161984	0.185553	0.975954	0.04764	-0.303991	0.198265	0.994907	-0.367306	-0.646956	0.404968	0.967029	-0.064449	-0.06253	0.203601	0.838474	0.153047	0.26213	0.295968	0.616127	-0.206977	0.0522575	-0.276717	0.293737	
4.38537	0	0	-0.335613	-0.469084	-0.076259	0.375391	-0.342836	-0.390312	-0.055311	0.795538	0.0225075	0.16202	0.179742	0.992375	0.0467075	-0.301355	0.183232	1.01779	-0.365499	-0.65206	0.394476	0.979066	-0.064449	-0.06253	0.200744	0.846548	0.145314	0.253376	0.287981	0.614494	-0.238586	0.0586223	-0.27927	0.279604	
4.38843	0	0	-0.341818	-0.451547	-0.070471	0.380653	-0.343723	-0.387805	-0.054772	0.813346	0.03018	0.162057	0.173932	1.0088	0.045775	-0.29872	0.1682	1.04068	-0.363693	-0.657165	0.383985	0.991103	-0.064449	-0.06253	0.197887	0.854623	0.137581	0.244621	0.279994	0.612861	-0.270194	0.064987	-0.281822	0.26547	
4.38995	0	0	-0.352056	-0.451601	-0.077646	0.379311	-0.358756	-0.383762	-0.061279	0.812404	0.03018	0.162057	0.171993	1.01428	0.038429	-0.295946	0.160695	1.04232	-0.372383	-0.651487	0.375886	0.996395	-0.0655567	-0.059399	0.20648	0.855222	0.135993	0.249108	0.28157	0.608408	-0.266911	0.0557085	-0.283275	0.269577	
4.39453	0	0	-0.362294	-0.451656	-0.084821	0.377969	-0.373789	-0.379719	-0.067786	0.811462	0.03018	0.162057	0.170053	1.01976	0.031083	-0.293172	0.15319	1.04395	-0.381072	-0.645809	0.367788	1.00169	-0.0666645	-0.056268	0.215074	0.85582	0.134406	0.253594	0.283146	0.603954	-0.263628	0.04643	-0.284728	0.273684	
4.40216	0	0	-0.372533	-0.451711	-0.091996	0.376626	-0.388822	-0.375676	-0.074293	0.810521	0.03018	0.162057	0.168114	1.02524	0.023737	-0.290398	0.145685	1.04559	-0.389762	-0.640131	0.359689	1.00698	-0.0677723	-0.053137	0.223667	0.856418	0.132819	0.25808	0.284721	0.599501	-0.260345	0.0371515	-0.286182	0.277791	
4.40521	0	0	-0.382771	-0.451765	-0.099171	0.375284	-0.403855	-0.371633	-0.0808	0.809579	0.03018	0.162057	0.166175	1.03072	0.016391	-0.287624	0.13818	1.04722	-0.398452	-0.634453	0.35159	1.01227	-0.06888	-0.050006	0.23226	0.857017	0.131231	0.262567	0.286297	0.595048	-0.257062	0.027873	-0.287635	0.281898	
4.40979	0	0	-0.388346	-0.464955	-0.103566	0.366111	-0.417969	-0.37011	-0.08372	0.798521	0.02483	0.155456	0.170052	1.01976	0.0201185	-0.298158	0.133689	1.04036	-0.40623	-0.631332	0.349203	1.01902	-0.0816912	-0.0392273	0.220807	0.864501	0.142141	0.262342	0.276746	0.597867	-0.257062	0.027873	-0.275249	0.289614	
4.41894	0	0	-0.39392	-0.478144	-0.107961	0.356938	-0.432082	-0.368587	-0.08664	0.787462	0.01948	0.148855	0.17393	1.0088	0.023846	-0.308693	0.129198	1.0335	-0.414009	-0.628211	0.346816	1.02576	-0.0945025	-0.0284485	0.209354	0.871984	0.153052	0.262116	0.267195	0.600686	-0.257062	0.027873	-0.262863	0.29733	
4.39758	0	0	-0.399494	-0.491334	-0.112357	0.347764	-0.446196	-0.367065	-0.08956	0.776404	0.01413	0.142254	0.177807	0.997846	0.0275735	-0.319227	0.124707	1.02664	-0.421787	-0.625089	0.34443	1.03251	-0.107314	-0.0176698	0.197902	0.879468	0.163962	0.261891	0.257644	0.603505	-0.257062	0.027873	-0.250478	0.305045	
4.43573	0	0	-0.405069	-0.504523	-0.116752	0.338591	-0.460309	-0.365542	-0.09248	0.765345	0.00878	0.135653	0.181684	0.986888	0.031301	-0.329762	0.120216	1.01978	-0.429565	-0.621968	0.342043	1.03925	-0.120125	-0.006891	0.186449	0.886951	0.174872	0.261666	0.248093	0.606324	-0.257062	0.027873	-0.238092	0.312761	
4.44336	0	0	-0.403522	-0.508895	-0.115367	0.334678	-0.457654	-0.373046	-0.0812083	0.7528	0.0022755	0.13234	0.197308	0.968265	0.0258233	-0.332251	0.160801	1.00305	-0.424154	-0.63726	0.374484	1.01805	-0.113482	-0.0256658	0.183583	0.870201	0.149897	0.271081	0.243273	0.595803	-0.257062	0.027873	-0.235537	0.326937	
4.44183	0	0	-0.401975	-0.513267	-0.113983	0.330765	-0.454999	-0.380549	-0.0699365	0.740255	-0.004229	0.129028	0.212931	0.949642	0.0203455	-0.334739	0.201387	0.986329	-0.418743	-0.652552	0.406925	0.996857	-0.106839	-0.0444405	0.180717	0.85345	0.124922	0.280497	0.238453	0.585283	-0.257062	0.027873	-0.232982	0.341113	
4.44794	0	0	-0.400428	-0.51764	-0.112598	0.326853	-0.452344	-0.388053	-0.0586648	0.72771	-0.0107335	0.125716	0.228555	0.93102	0.0148678	-0.337228	0.241972	0.969606	-0.413333	-0.667845	0.439365	0.975659	-0.100195	-0.0632153	0.17785	0.8367	0.099947	0.289913	0.233634	0.574763	-0.257062	0.027873	-0.230428	0.355289	
4.46014	0	0	-0.398881	-0.522012	-0.111214	0.32294	-0.449689	-0.395557	-0.047393	0.715165	-0.017238	0.122403	0.244179	0.912397	0.00939	-0.339716	0.282558	0.952883	-0.407922	-0.683137	0.471806	0.954462	-0.093552	-0.08199	0.174984	0.819949	0.074972	0.299328	0.228814	0.564242	-0.257062	0.027873	-0.227873	0.369465	
4.46167	0	0	-0.405074	-0.50451	-0.113983	0.330767	-0.450574	-0.393056	-0.0254433	0.711186	-0.00957275	0.122435	0.281655	0.908964	0.0231463	-0.342637	0.338618	0.952293	-0.412992	-0.68765	0.5229	0.934057	-0.0913405	-0.0882397	0.180685	0.803836	0.0720262	0.277144	0.231827	0.531614	-0.205779	-0.0340958	-0.228971	0.351173	
4.47082	0	0	-0.411267	-0.487008	-0.116753	0.338594	-0.451458	-0.390556	-0.0034935	0.707207	-0.0019075	0.122468	0.319131	0.90553	0.0369025	-0.345558	0.394679	0.951703	-0.418062	-0.692164	0.573994	0.913653	-0.089129	-0.0944895	0.186387	0.787723	0.0690805	0.25496	0.234841	0.498986	-0.154496	-0.0960645	-0.230069	0.332881	
4.47388	0	0	-0.41746	-0.469505	-0.119523	0.346421	-0.452343	-0.388055	0.0184563	0.703229	0.00575775	0.1225	0.356607	0.902096	0.0506588	-0.348479	0.45074	0.951113	-0.423132	-0.696678	0.625087	0.893249	-0.0869175	-0.100739	0.192088	0.77161	0.0661347	0.232777	0.237854	0.466359	-0.103212	-0.158033	-0.231168	0.314588	
4.47845	0	0	-0.423653	-0.452003	-0.122292	0.354248	-0.453228	-0.385555	0.040406	0.69925	0.013423	0.122532	0.394083	0.898663	0.064415	-0.3514	0.5068	0.950523	-0.428202	-0.701191	0.676181	0.872844	-0.084706	-0.106989	0.197789	0.755497	0.063189	0.210593	0.240868	0.433731	-0.051929	-0.220002	-0.232266	0.296296	
4.48456	0	0	-0.432965	-0.425685	-0.136378	0.372488	-0.456769	-0.375546	0.0564505	0.712141	0.0164495	0.1357	0.416012	0.913919	0.0671087	-0.341008	0.554201	0.955781	-0.430903	-0.693557	0.724049	0.862387	-0.0869175	-0.100739	0.207802	0.752049	0.0586502	0.192961	0.242276	0.405674	-0.1216	-0.188663	-0.198323	0.264632	
4.49219	0	0	-0.442277	-0.399366	-0.150465	0.390729	-0.460311	-0.365536	0.072495	0.725032	0.019476	0.148867	0.437941	0.929175	0.0698025	-0.330616	0.601602	0.96104	-0.433605	-0.685923	0.771917	0.85193	-0.089129	-0.0944895	0.217815	0.748601	0.0541115	0.175329	0.243683	0.377617	-0.191272	-0.157324	-0.16438	0.232967	
4.49524	0	0	-0.45159	-0.373048	-0.164551	0.408969	-0.463853	-0.355527	0.0885395	0.737924	0.0225025	0.162034	0.459871	0.94443	0.0724963	-0.320225	0.649003	0.966298	-0.436306	-0.678289	0.819784	0.841474	-0.0913405	-0.0882397	0.227829	0.745153	0.0495727	0.157698	0.24509	0.34956	-0.260943	-0.125984	-0.130438	0.201303	
4.49982	0	0	-0.460902	-0.34673	-0.178637	0.427209	-0.467394	-0.345518	0.104584	0.750815	0.025529	0.175202	0.4818	0.959686	0.07519	-0.309833	0.696404	0.971556	-0.439007	-0.670655	0.867652	0.831017	-0.093552	-0.08199	0.237842	0.741705	0.045034	0.140066	0.246498	0.321503	-0.330614	-0.094645	-0.096495	0.169639	
4.50134	0	0	-0.457795	-0.355511	-0.175864	0.419372	-0.474437	-0.344764	0.10937	0.737289	0.0143687	0.185022	0.477899	0.970711	0.0723898	-0.301919	0.697988	0.987053	-0.448571	-0.662448	0.875729	0.84401	-0.0968717	-0.0726075	0.243591	0.750342	0.0497632	0.1267	0.236987	0.324333	-0.289339	-0.128697	-0.0880678	0.167293	
4.50592	0	0	-0.454688	-0.364293	-0.173091	0.411535	-0.481481	-0.34401	0.114156	0.723763	0.0032085	0.194842	0.473998	0.981737	0.0695895	-0.294006	0.699572	1.00255	-0.458136	-0.654241	0.883805	0.857003	-0.100191	-0.063225	0.24934	0.758979	0.0544925	0.113335	0.227476	0.327163	-0.248065	-0.162749	-0.0796405	0.164946	
4.50745	0	0	-0.451581	-0.373074	-0.170318	0.403697	-0.488525	-0.343257	0.118942	0.710236	-0.00795175	0.204661	0.470097	0.992762	0.0667893	-0.286092	0.701156	1.01805	-0.4677	-0.646034	0.891881	0.869996	-0.103511	-0.0538425	0.255089	0.767615	0.0592217	0.0999687	0.217966	0.329992	-0.20679	-0.1968	-0.0712132	0.1626	
4.5166	0	0	-0.448474	-0.381856	-0.167545	0.39586	-0.495568	-0.342503	0.123728	0.69671	-0.019112	0.214481	0.466196	1.00379	0.063989	-0.278178	0.70274	1.03354	-0.477264	-0.637827	0.899958	0.882989	-0.106831	-0.04446	0.260838	0.776252	0.063951	0.086603	0.208455	0.332822	-0.165515	-0.230852	-0.062786	0.160254	
4.5166	0	0	-0.4704	-0.377643	-0.164774	0.38803	-0.502603	-0.341752	0.10051	0.704093	-0.0144615	0.201338	0.464075	0.984003	0.067722	-0.288728	0.695011	1.01546	-0.482317	-0.642352	0.873206	0.869179	-0.115198	-0.046206	0.2465	0.76704	0.0499552	0.0957483	0.200514	0.331246	-0.168774	-0.22164	-0.0869057	0.185504	
4.52118	0	0	-0.492327	-0.37343	-0.162003	0.3802	-0.509639	-0.341002	0.0772915	0.711475	-0.009811	0.188196	0.461954	0.964217	0.071455	-0.299278	0.687283	0.997377	-0.487369	-0.646877	0.846453	0.855368	-0.123565	-0.047952	0.232161	0.757827	0.0359595	0.104894	0.192574	0.32967	-0.172034	-0.212429	-0.111025	0.210754	
4.51202	0	0	-0.514253	-0.369217	-0.159233	0.372369	-0.516675	-0.340251	0.0540732	0.718858	-0.0051605	0.175053	0.459833	0.944432	0.075188	-0.309828	0.679554	0.979294	-0.492422	-0.651402	0.8197	0.841558	-0.131933	-0.049698	0.217823	0.748614	0.0219638	0.114039	0.184633	0.328095	-0.175293	-0.203217	-0.135145	0.236004	
4.52881	0	0	-0.536179	-0.365004	-0.156462	0.364539	-0.52371	-0.3395	0.030855	0.72624	-0.00051	0.16191	0.457712	0.924647	0.078921	-0.320378	0.671825	0.96121	-0.497474	-0.655927	0.792948	0.827748	-0.1403	-0.051444	0.203484	0.739402	0.007968	0.123184	0.176692	0.326519	-0.178553	-0.194005	-0.159265	0.261254	
4.51965	0	0	-0.539281	-0.356235	-0.174898	0.373578	-0.526366	-0.331994	0.0154205	0.731138	-0.00817275	0.161871	0.441805	0.918151	0.078921	-0.320378	0.627544	0.967088	-0.494775	-0.663555	0.758158	0.819331	-0.146446	-0.0594335	0.189184	0.730215	-0.0011085	0.0881655	0.173242	0.288327	-0.159047	-0.249132	-0.176855	0.22543	
4.52576	0	0	-0.542384	-0.347467	-0.193334	0.382616	-0.529022	-0.324489	-1.4E-05	0.736036	-0.0158355	0.161831	0.425898	0.911655	0.078921	-0.320378	0.583262	0.972967	-0.492076	-0.671182	0.723369	0.810914	-0.152591	-0.067423	0.174883	0.721029	-0.010185	0.053147	0.169792	0.250134	-0.139541	-0.30426	-0.194445	0.189607	
4.51813	0	0	-0.545486	-0.338699	-0.211771	0.391655	-0.531678	-0.316983	-0.0154485	0.740933	-0.0234983	0.161792	0.40999	0.905159	0.078921	-0.320378	0.53898	0.978845	-0.489377	-0.678809	0.68858	0.802497	-0.158737	-0.0754125	0.160582	0.711842	-0.0192615	0.0181285	0.166342	0.211942	-0.120034	-0.359387	-0.212036	0.153783	
4.51813	0	0	-0.548589	-0.32993	-0.230207	0.400693	-0.534334	-0.309477	-0.030883	0.745831	-0.031161	0.161752	0.394083	0.898663	0.078921	-0.320378	0.494699	0.984723	-0.486678	-0.686437	0.65379	0.79408	-0.164883	-0.083402	0.146282	0.702655	-0.028338	-0.01689	0.162892	0.17375	-0.100528	-0.414514	-0.229626	0.117959	
4.52423	0	0	-0.522686	-0.316439	-0.231592	0.404606	-0.52647	-0.293415	-0.0486683	0.757452	-0.0223368	0.158509	0.376285	0.897652	0.0761218	-0.312467	0.487097	0.986403	-0.495324	-0.680788	0.636476	0.789872	-0.174331	-0.0820248	0.153372	0.682618	-0.0374355	-0.0516517	0.151692	0.157584	-0.132068	-0.407975	-0.227886	0.0917185	
4.52118	0	0	-0.496782	-0.302948	-0.232976	0.408519	-0.518607	-0.277354	-0.0664535	0.769073	-0.0135125	0.155266	0.358487	0.896641	0.0733225	-0.304555	0.479495	0.988082	-0.50397	-0.675138	0.619162	0.785663	-0.183779	-0.0806475	0.160462	0.662581	-0.046533	-0.0864135	0.140491	0.141419	-0.163608	-0.401435	-0.226147	0.065478	
4.5227	0	0	-0.470878	-0.289457	-0.23436	0.412431	-0.510744	-0.261292	-0.0842388	0.780695	-0.00468825	0.152022	0.340689	0.895631	0.0705233	-0.296644	0.471894	0.989762	-0.512616	-0.669489	0.601848	0.781454	-0.193226	-0.0792703	0.167552	0.642543	-0.0556305	-0.121175	0.129291	0.125253	-0.195148	-0.394895	-0.224407	0.0392375	
4.52576	0	0	-0.444975	-0.275966	-0.235745	0.416344	-0.50288	-0.245231	-0.102024	0.792316	0.004136	0.148779	0.322891	0.89462	0.067724	-0.288733	0.464292	0.991442	-0.521262	-0.66384	0.584534	0.777246	-0.202674	-0.077893	0.174642	0.622506	-0.064728	-0.155937	0.118091	0.109087	-0.226688	-0.388356	-0.222667	0.012997	
4.5227	0	0	-0.46217	-0.22737	-0.23713	0.420258	-0.494119	-0.231626	-0.117387	0.797171	0.0029745	0.152062	0.305148	0.893597	0.063053	-0.275532	0.465804	0.987168	-0.513516	-0.666948	0.574209	0.771085	-0.201571	-0.0810108	0.167496	0.617949	-0.0692845	-0.173223	0.111729	0.103204	-0.223455	-0.397492	-0.226995	0.025228	
4.51965	0	0	-0.479365	-0.178774	-0.238515	0.424173	-0.485359	-0.218021	-0.132749	0.802025	0.001813	0.155344	0.287404	0.892574	0.058382	-0.262331	0.467317	0.982894	-0.505769	-0.670055	0.563883	0.764924	-0.200467	-0.0841285	0.160351	0.613392	-0.073841	-0.190508	0.105367	0.097321	-0.220222	-0.406628	-0.231322	0.037459	
4.51965	0	0	-0.496561	-0.130178	-0.2399	0.428087	-0.476598	-0.204416	-0.148112	0.806879	0.0006515	0.158627	0.26966	0.891551	0.053711	-0.249129	0.468829	0.97862	-0.498022	-0.673162	0.553558	0.758763	-0.199364	-0.0872462	0.153205	0.608835	-0.0783975	-0.207794	0.0990043	0.091438	-0.21699	-0.415764	-0.23565	0.04969	
4.5166	0	0	-0.513756	-0.081582	-0.241285	0.432001	-0.467837	-0.190811	-0.163474	0.811734	-0.00051	0.16191	0.251917	0.890528	0.04904	-0.235928	0.470341	0.974346	-0.490276	-0.67627	0.543232	0.752602	-0.198261	-0.090364	0.14606	0.604278	-0.082954	-0.22508	0.092642	0.085555	-0.213757	-0.4249	-0.239978	0.061921	
4.5166	0	0	-0.490187	-0.0901678	-0.227227	0.413791	-0.432515	-0.175069	-0.160432	0.783887	0.0167107	0.17848	0.226366	0.886246	0.046234	-0.227998	0.467278	0.96322	-0.498922	-0.670621	0.543409	0.734456	-0.207695	-0.0889905	0.128974	0.60316	-0.084422	-0.251046	0.0847497	0.0840268	-0.248375	-0.409297	-0.234498	0.067756	
4.51507	0	0	-0.466618	-0.0987535	-0.213169	0.395582	-0.397193	-0.159326	-0.15739	0.756039	0.0339315	0.195049	0.200816	0.881965	0.043428	-0.220068	0.464215	0.952094	-0.507568	-0.664971	0.543586	0.716309	-0.21713	-0.087617	0.111889	0.602042	-0.08589	-0.277011	0.0768575	0.0824985	-0.282994	-0.393693	-0.229017	0.073591	
4.51202	0	0	-0.443049	-0.107339	-0.199111	0.377372	-0.361871	-0.143584	-0.154349	0.728192	0.0511522	0.211619	0.175265	0.877683	0.040622	-0.212138	0.461152	0.940967	-0.516214	-0.659322	0.543762	0.698163	-0.226565	-0.0862435	0.0948027	0.600923	-0.087358	-0.302976	0.0689653	0.0809702	-0.317612	-0.378089	-0.223537	0.079426	
4.51202	0	0	-0.41948	-0.115925	-0.185053	0.359162	-0.326549	-0.127841	-0.151307	0.700345	0.068373	0.228189	0.149715	0.873401	0.037816	-0.204208	0.458089	0.929841	-0.52486	-0.653672	0.543939	0.680017	-0.235999	-0.08487	0.077717	0.599805	-0.088826	-0.328942	0.061073	0.079442	-0.35223	-0.362486	-0.218057	0.085261	
4.50745	0	0	-0.398973	-0.115675	-0.173754	0.348773	-0.215746	-0.0307563	-0.159511	0.685087	0.162461	0.515011	0.133875	0.841988	0.0442385	-0.204337	0.458035	0.910232	-0.533497	-0.648028	0.535995	0.667224	-0.258128	-0.0728045	0.063499	0.590713	-0.111844	-0.323971	0.057996	0.088138	-0.317612	-0.378089	-0.214336	0.117466	
4.50592	0	0	-0.378467	-0.115425	-0.162455	0.338384	-0.104944	0.0663285	-0.167715	0.66983	0.256549	0.801833	0.118035	0.810576	0.050661	-0.204466	0.457981	0.890623	-0.542134	-0.642385	0.528052	0.654432	-0.280258	-0.060739	0.049281	0.581622	-0.134863	-0.318999	0.054919	0.096834	-0.282994	-0.393693	-0.210616	0.149671	
4.50592	0	0	-0.35796	-0.115175	-0.151155	0.327996	0.0058585	0.163413	-0.175919	0.654573	0.350638	1.08866	0.102195	0.779163	0.0570835	-0.204596	0.457927	0.871013	-0.550772	-0.636741	0.520108	0.641639	-0.302388	-0.0486735	0.035063	0.57253	-0.157882	-0.314028	0.051842	0.10553	-0.248375	-0.409297	-0.206896	0.181876	
4.50287	0	0	-0.337453	-0.114925	-0.139856	0.317607	0.116661	0.260498	-0.184123	0.639315	0.444726	1.37548	0.086355	0.74775	0.063506	-0.204725	0.457873	0.851404	-0.559409	-0.631097	0.512165	0.628846	-0.324517	-0.036608	0.020845	0.563438	-0.1809	-0.309057	0.048765	0.114226	-0.213757	-0.4249	-0.203175	0.214081	
4.49982	0	0	-0.331084	-0.0745367	-0.144008	0.32934	0.685451	0.304201	-0.189405	0.63505	0.740418	1.62555	0.0745372	0.730536	0.0505265	-0.186065	0.468473	0.841209	-0.568937	-0.622916	0.505408	0.612766	-0.332805	-0.0383703	0.00099	0.545883	-0.188524	-0.317478	0.0190183	0.126978	-0.254837	-0.391034	-0.181199	0.237706	
4.49982	0	0	-0.324715	-0.0341485	-0.148159	0.341073	1.25424	0.347904	-0.194687	0.630786	1.03611	1.87563	0.0627195	0.713321	0.037547	-0.167405	0.479073	0.831014	-0.578465	-0.614736	0.498652	0.596687	-0.341094	-0.0401325	-0.018865	0.528328	-0.196149	-0.3259	-0.0107285	0.13973	-0.295917	-0.357167	-0.159222	0.261331	
4.49676	0	0	-0.318346	0.00623975	-0.15231	0.352806	1.82303	0.391607	-0.199969	0.626521	1.3318	2.1257	0.0509018	0.696107	0.0245675	-0.148744	0.489672	0.820819	-0.587993	-0.606556	0.491895	0.580607	-0.349383	-0.0418948	-0.03872	0.510774	-0.203773	-0.334321	-0.0404753	0.152481	-0.336998	-0.3233	-0.137246	0.284957	
4.49524	0	0	-0.311977	0.046628	-0.156462	0.364539	2.39182	0.43531	-0.205251	0.622257	1.62749	2.37577	0.039084	0.678893	0.011588	-0.130084	0.500272	0.810624	-0.597521	-0.598375	0.485138	0.564527	-0.357671	-0.043657	-0.058575	0.493219	-0.211397	-0.342742	-0.070222	0.165233	-0.378078	-0.289434	-0.11527	0.308582	
4.49066	0	0	-0.310439	0.100854	-0.150473	0.390779	2.36134	0.499887	-0.206434	0.625601	1.61766	2.30864	0.0369927	0.659548	0.0178538	-0.111731	0.497263	0.81913	-0.593394	-0.59129	0.477209	0.551824	-0.355471	-0.049876	-0.067116	0.468407	-0.241877	-0.346218	-0.0952412	0.164897	-0.409297	-0.283075	-0.145265	0.350437	
4.48913	0	0	-0.308902	0.15508	-0.144485	0.417018	2.33086	0.564463	-0.207618	0.628945	1.60784	2.24151	0.0349015	0.640203	0.0241195	-0.093378	0.494253	0.827635	-0.589268	-0.584205	0.46928	0.539122	-0.35327	-0.056095	-0.075657	0.443595	-0.272358	-0.349695	-0.120261	0.16456	-0.440516	-0.276717	-0.17526	0.392292	
4.48761	0	0	-0.307365	0.209305	-0.138496	0.443257	2.30038	0.629039	-0.208801	0.63229	1.59801	2.17438	0.0328102	0.620859	0.0303853	-0.075025	0.491243	0.83614	-0.585141	-0.577119	0.461352	0.52642	-0.351069	-0.062314	-0.084198	0.418783	-0.302838	-0.353172	-0.14528	0.164223	-0.471735	-0.270358	-0.205256	0.434147	
4.48608	0	0	-0.305827	0.263531	-0.132507	0.469497	2.2699	0.693616	-0.209984	0.635634	1.58818	2.10725	0.030719	0.601514	0.036651	-0.056672	0.488234	0.844646	-0.581015	-0.570034	0.453423	0.513717	-0.348869	-0.068533	-0.092739	0.393971	-0.333318	-0.356648	-0.170299	0.163887	-0.502954	-0.263999	-0.235251	0.476002	
4.47845	0	0	-0.290857	0.309428	-0.132307	0.490553	2.13118	0.680501	-0.219992	0.644745	1.47992	1.99201	-0.00421775	0.599571	0.0345965	-0.0328087	0.491243	0.83614	-0.578691	-0.557834	0.440962	0.496393	-0.349969	-0.065424	-0.0914448	0.365886	-0.346849	-0.407596	-0.178425	0.116076	-0.486856	-0.309494	-0.234505	0.431076	
4.47998	0	0	-0.275888	0.355324	-0.132107	0.511608	1.99246	0.667386	-0.229999	0.653857	1.37166	1.87676	-0.0391545	0.597628	0.032542	-0.0089455	0.494253	0.827635	-0.576368	-0.545635	0.428501	0.479069	-0.351069	-0.062315	-0.0901505	0.337801	-0.36038	-0.458543	-0.186551	0.068265	-0.470758	-0.354988	-0.233758	0.386149	
4.47388	0	0	-0.260918	0.40122	-0.131908	0.532663	1.85374	0.654271	-0.240007	0.662968	1.2634	1.76151	-0.0740913	0.595685	0.0304875	0.0149178	0.497263	0.81913	-0.574045	-0.533435	0.416041	0.461744	-0.352169	-0.059206	-0.0888562	0.309716	-0.373912	-0.509491	-0.194676	0.020454	-0.454661	-0.400483	-0.233012	0.341222	
4.4693	0	0	-0.245948	0.447117	-0.131708	0.553719	1.71502	0.641156	-0.250014	0.672079	1.15515	1.64626	-0.109028	0.593742	0.028433	0.038781	0.500272	0.810624	-0.571721	-0.521235	0.40358	0.44442	-0.353269	-0.056097	-0.087562	0.281631	-0.387443	-0.560439	-0.202802	-0.027357	-0.438563	-0.445978	-0.232266	0.296296	
4.46625	0	0	-0.236516	0.479496	-0.130128	0.570898	1.59001	0.639293	-0.251198	0.675426	1.06299	1.56284	-0.114888	0.585219	0.022765	0.0548	0.472959	0.808891	-0.570306	-0.506448	0.379622	0.442304	-0.356572	-0.0467635	-0.094622	0.277188	-0.370744	-0.607634	-0.204723	-0.0689615	-0.425744	-0.482208	-0.242867	0.262214	
4.46167	0	0	-0.227084	0.511876	-0.128547	0.588077	1.46499	0.637431	-0.252383	0.678772	0.970833	1.47943	-0.120749	0.576696	0.017097	0.070819	0.445647	0.807159	-0.568891	-0.491662	0.355664	0.440187	-0.359874	-0.03743	-0.101682	0.272745	-0.354044	-0.654829	-0.206645	-0.110566	-0.412925	-0.518437	-0.253468	0.228133	
4.46167	0	0	-0.217652	0.544256	-0.126967	0.605256	1.33997	0.635568	-0.253567	0.682118	0.878676	1.39601	-0.126609	0.568173	0.011429	0.086838	0.418334	0.805427	-0.567477	-0.476876	0.331707	0.438071	-0.363177	-0.0280965	-0.108742	0.268303	-0.337344	-0.702025	-0.208566	-0.152171	-0.400105	-0.554666	-0.26407	0.194051	
4.45862	0	0	-0.20822	0.576635	-0.125387	0.622435	1.21495	0.633706	-0.254751	0.685465	0.786519	1.31259	-0.132469	0.55965	0.005761	0.102857	0.391021	0.803694	-0.566062	-0.462089	0.307749	0.435955	-0.36648	-0.018763	-0.115802	0.26386	-0.320645	-0.74922	-0.210487	-0.193775	-0.387286	-0.590896	-0.274671	0.159969	
4.45251	0	0	-0.231535	0.612984	-0.139548	0.640813	1.11306	0.634168	-0.272372	0.696979	0.720064	1.25221	-0.140214	0.556488	8.25E-05	0.118905	0.369872	0.804491	-0.572403	-0.444169	0.295225	0.436537	-0.359296	-0.0138777	-0.132665	0.262823	-0.316106	-0.762048	-0.210719	-0.216591	-0.356008	-0.597421	-0.273224	0.155879	
4.45099	0	0	-0.254849	0.649332	-0.15371	0.65919	1.01117	0.634629	-0.289992	0.708492	0.65361	1.19182	-0.14796	0.553327	-0.005596	0.134953	0.348723	0.805289	-0.578743	-0.426249	0.2827	0.437119	-0.352113	-0.0089925	-0.149528	0.261786	-0.311567	-0.774876	-0.210952	-0.239407	-0.32473	-0.603946	-0.271776	0.151789	
4.44946	0	0	-0.278164	0.685681	-0.167872	0.677567	0.909274	0.635091	-0.307613	0.720006	0.587155	1.13144	-0.155705	0.550166	-0.0112745	0.151	0.327574	0.806086	-0.585084	-0.408328	0.270176	0.437701	-0.344929	-0.00410725	-0.16639	0.260748	-0.307028	-0.787705	-0.211184	-0.262223	-0.293452	-0.610472	-0.270329	0.147699	
4.44794	0	0	-0.301478	0.72203	-0.182033	0.695945	0.807382	0.635553	-0.325234	0.73152	0.520701	1.07105	-0.16345	0.547004	-0.016953	0.167048	0.306425	0.806883	-0.591425	-0.390408	0.257651	0.438283	-0.337746	0.000778	-0.183253	0.259711	-0.302489	-0.800533	-0.211416	-0.285039	-0.262174	-0.616997	-0.268882	0.143609	
4.44794	0	0	-0.296615	0.708287	-0.179233	0.688031	0.744241	0.611324	-0.325751	0.713868	0.464624	1.0289	-0.180795	0.546023	-0.0271585	0.177834	0.29436	0.80177	-0.580461	-0.383768	0.243988	0.442147	-0.343266	0.0163772	-0.193051	0.263103	-0.320668	-0.778792	-0.219192	-0.286506	-0.271803	-0.589784	-0.257936	0.155345	
4.44488	0	0	-0.291753	0.694544	-0.176432	0.680118	0.6811	0.587095	-0.326268	0.696215	0.408547	0.986742	-0.19814	0.545041	-0.037364	0.18862	0.282295	0.796656	-0.569496	-0.377128	0.230325	0.446012	-0.348785	0.0319765	-0.20285	0.266495	-0.338846	-0.757051	-0.226968	-0.287973	-0.281432	-0.56257	-0.246991	0.16708	
4.44336	0	0	-0.28689	0.680802	-0.173632	0.672204	0.617959	0.562867	-0.326784	0.678563	0.352471	0.944586	-0.215486	0.544059	-0.0475695	0.199406	0.270229	0.791543	-0.558531	-0.370488	0.216662	0.449877	-0.354304	0.0475757	-0.212648	0.269886	-0.357025	-0.735311	-0.234744	-0.289441	-0.291062	-0.535357	-0.236045	0.178816	
4.44183	0	0	-0.282027	0.667059	-0.170832	0.66429	0.554818	0.538638	-0.327301	0.660911	0.296394	0.902431	-0.232831	0.543078	-0.057775	0.210192	0.258164	0.786429	-0.547567	-0.363848	0.202999	0.453741	-0.359824	0.063175	-0.222446	0.273278	-0.375204	-0.71357	-0.24252	-0.290908	-0.300691	-0.508143	-0.225099	0.190552	
4.43878	0	0	-0.280408	0.662483	-0.179384	0.666838	0.509745	0.525452	-0.340146	0.659045	0.265287	0.857776	-0.246359	0.53144	-0.0689225	0.223657	0.246125	0.781323	-0.554414	-0.363321	0.194016	0.444443	-0.356511	0.0538122	-0.223933	0.253212	-0.36611	-0.709636	-0.251791	-0.288123	-0.269279	-0.514685	-0.235271	0.219301	
4.44031	0	0	-0.278788	0.657906	-0.187935	0.669385	0.464671	0.512266	-0.35299	0.657179	0.23418	0.813122	-0.259886	0.519803	-0.08007	0.237121	0.234087	0.776217	-0.56126	-0.362795	0.185034	0.435145	-0.353198	0.0444495	-0.225419	0.233146	-0.357016	-0.705701	-0.261061	-0.285337	-0.237868	-0.521227	-0.245444	0.24805	
4.43573	0	0	-0.277168	0.65333	-0.196487	0.671933	0.419598	0.499079	-0.365835	0.655313	0.203073	0.768468	-0.273413	0.508166	-0.0912175	0.250586	0.222048	0.77111	-0.568107	-0.362268	0.176051	0.425847	-0.349885	0.0350867	-0.226906	0.213079	-0.347922	-0.701767	-0.270332	-0.282552	-0.206456	-0.527768	-0.255616	0.276798	
4.43115	0	0	-0.275549	0.648754	-0.205038	0.674481	0.374524	0.485893	-0.37868	0.653447	0.171966	0.723813	-0.286941	0.496528	-0.102365	0.264051	0.210009	0.766004	-0.574954	-0.361741	0.167068	0.416549	-0.346572	0.025724	-0.228393	0.193013	-0.338828	-0.697833	-0.279602	-0.279766	-0.175044	-0.53431	-0.265788	0.305547	
4.4281	0	0	-0.268435	0.658189	-0.199287	0.679847	0.331542	0.487715	-0.38104	0.660117	0.14281	0.696456	-0.296512	0.498694	-0.104263	0.269415	0.193528	0.773533	-0.579978	-0.366345	0.1581	0.407275	-0.355958	0.027062	-0.234028	0.184702	-0.352468	-0.718507	-0.284597	-0.312389	-0.165395	-0.561579	-0.272354	0.281434	
4.42352	0	0	-0.261321	0.667624	-0.193535	0.685213	0.28856	0.489537	-0.3834	0.666786	0.113654	0.669099	-0.306084	0.50086	-0.10616	0.274778	0.177048	0.781063	-0.585003	-0.370949	0.149131	0.398002	-0.365343	0.0284	-0.239664	0.176392	-0.366108	-0.739181	-0.289592	-0.345012	-0.155747	-0.588848	-0.278921	0.257321	
4.42505	0	0	-0.254206	0.677059	-0.187784	0.690579	0.245578	0.491359	-0.38576	0.673456	0.084498	0.641743	-0.315655	0.503026	-0.108058	0.280142	0.160568	0.788593	-0.590028	-0.375553	0.140162	0.388728	-0.374729	0.029738	-0.245299	0.168081	-0.379748	-0.759856	-0.294586	-0.377635	-0.146098	-0.616117	-0.285487	0.233208	
4.41742	0	0	-0.247092	0.686494	-0.182033	0.695945	0.202596	0.493181	-0.38812	0.680126	0.055342	0.614386	-0.325226	0.505192	-0.109956	0.285506	0.144087	0.796122	-0.595052	-0.380157	0.131194	0.379454	-0.384115	0.031076	-0.250934	0.159771	-0.393388	-0.78053	-0.299581	-0.410258	-0.136449	-0.643386	-0.292053	0.209095	
4.41742	0	0	-0.255213	0.709446	-0.186238	0.707829	0.175345	0.490853	-0.410376	0.704935	0.028125	0.603963	-0.340428	0.523303	-0.102603	0.282764	0.135115	0.801984	-0.591426	-0.390404	0.11529	0.389846	-0.383012	0.0279595	-0.250934	0.159771	-0.384342	-0.806094	-0.292102	-0.431396	-0.123629	-0.679616	-0.301517	0.193268	
4.41437	0	0	-0.263335	0.732398	-0.190443	0.719712	0.148095	0.488525	-0.432632	0.729744	0.000908	0.593541	-0.35563	0.541415	-0.0952495	0.280022	0.126143	0.807847	-0.5878	-0.400652	0.099385	0.400238	-0.381909	0.024843	-0.250934	0.159771	-0.375297	-0.831659	-0.284623	-0.452533	-0.11081	-0.715846	-0.31098	0.177441	
4.40979	0	0	-0.271456	0.755349	-0.194648	0.731596	0.120844	0.486197	-0.454887	0.754553	-0.026309	0.583118	-0.370831	0.559527	-0.0878963	0.27728	0.117172	0.813709	-0.584175	-0.410899	0.0834805	0.410631	-0.380806	0.0217265	-0.250934	0.159771	-0.366251	-0.857224	-0.277143	-0.47367	-0.0979905	-0.752075	-0.320444	0.161614	
4.40979	0	0	-0.279577	0.778301	-0.198853	0.74348	0.093594	0.483869	-0.477143	0.779362	-0.053526	0.572695	-0.386033	0.577638	-0.080543	0.274538	0.1082	0.819571	-0.580549	-0.421146	0.067576	0.421023	-0.379703	0.01861	-0.250934	0.159771	-0.357205	-0.882788	-0.269664	-0.494808	-0.085171	-0.788305	-0.329908	0.145787	
4.40521	0	0	-0.296428	0.796382	-0.210207	0.753947	0.0564817	0.490048	-0.498186	0.800822	-0.064147	0.559193	-0.391688	0.593619	-0.0897953	0.282647	0.0977468	0.829641	-0.585573	-0.425732	0.0640952	0.43086	-0.380806	0.0217265	-0.245299	0.168081	-0.358711	-0.878533	-0.272653	-0.486359	-0.126219	-0.754531	-0.320116	0.139389	
4.40216	0	0	-0.313279	0.814464	-0.22156	0.764413	0.0193695	0.496227	-0.51923	0.822282	-0.074768	0.545692	-0.397342	0.6096	-0.0990475	0.290756	0.0872935	0.839711	-0.590597	-0.430319	0.0606145	0.440697	-0.381909	0.024843	-0.239664	0.176392	-0.360216	-0.874277	-0.275643	-0.47791	-0.167266	-0.720757	-0.310325	0.132991	
4.39911	0	0	-0.330129	0.832546	-0.232913	0.774879	-0.0177428	0.502407	-0.540273	0.843742	-0.085389	0.532191	-0.402996	0.62558	-0.1083	0.298864	0.0768402	0.84978	-0.595621	-0.434905	0.0571337	0.450535	-0.383012	0.0279595	-0.234028	0.184702	-0.361722	-0.870022	-0.278633	-0.469461	-0.208313	-0.686983	-0.300534	0.126593	
4.39148	0	0	-0.34698	0.850627	-0.244267	0.785346	-0.054855	0.508586	-0.561317	0.865202	-0.09601	0.518689	-0.408651	0.641561	-0.117552	0.306973	0.066387	0.85985	-0.600645	-0.439491	0.053653	0.460372	-0.384115	0.031076	-0.228393	0.193013	-0.363228	-0.865766	-0.281622	-0.461012	-0.249361	-0.653209	-0.290742	0.120195	
4.393	0	0	-0.344317	0.813605	-0.249999	0.779952	-0.0681843	0.487283	-0.564139	0.854201	-0.116586	0.511753	-0.408651	0.641561	-0.12205	0.301662	0.0604153	0.857275	-0.615197	-0.435878	0.058117	0.465027	-0.385218	0.0341938	-0.235306	0.21255	-0.354132	-0.861885	-0.278359	-0.446878	-0.173498	-0.702779	-0.288172	0.134231	
4.38995	0	0	-0.341653	0.776583	-0.255732	0.774557	-0.0815135	0.465981	-0.566961	0.843199	-0.137161	0.504817	-0.408651	0.641561	-0.126548	0.296351	0.0544435	0.8547	-0.629749	-0.432265	0.062581	0.469681	-0.386321	0.0373115	-0.24222	0.232088	-0.345036	-0.858004	-0.275096	-0.432744	-0.097635	-0.75235	-0.285602	0.148266	
4.38385	0	0	-0.338989	0.739561	-0.261464	0.769162	-0.0948428	0.444678	-0.569783	0.832198	-0.157737	0.49788	-0.408651	0.641561	-0.131045	0.291041	0.0484718	0.852125	-0.644302	-0.428653	0.067045	0.474336	-0.387424	0.0404292	-0.249133	0.251626	-0.33594	-0.854122	-0.271834	-0.418611	-0.021772	-0.80192	-0.283032	0.162301	
4.38232	0	0	-0.336326	0.702539	-0.267196	0.763768	-0.108172	0.423376	-0.572605	0.821197	-0.178313	0.490944	-0.408651	0.641561	-0.135543	0.28573	0.0425	0.84955	-0.658854	-0.42504	0.071509	0.47899	-0.388527	0.043547	-0.256046	0.271163	-0.326844	-0.850241	-0.268571	-0.404477	0.054091	-0.85149	-0.280462	0.176337	
4.37927	0	0	-0.338562	0.67941	-0.262995	0.751895	-0.125137	0.412535	-0.578968	0.820224	-0.177756	0.467724	-0.420073	0.649025	-0.138143	0.275073	0.0365345	0.846977	-0.658445	-0.444923	0.0738325	0.472423	-0.395693	0.0386473	-0.25743	0.275076	-0.348013	-0.820003	-0.257543	-0.388846	0.0508878	-0.842437	-0.287712	0.196825	
4.37927	0	0	-0.340797	0.656281	-0.258794	0.740022	-0.142102	0.401695	-0.585332	0.81925	-0.177198	0.444503	-0.431496	0.656489	-0.140742	0.264416	0.030569	0.844404	-0.658037	-0.464807	0.076156	0.465857	-0.40286	0.0337475	-0.258815	0.278988	-0.369182	-0.789766	-0.246515	-0.373215	0.0476845	-0.833384	-0.294961	0.217313	
4.37622	0	0	-0.343033	0.633153	-0.254592	0.728149	-0.159068	0.390854	-0.591695	0.818277	-0.17664	0.421283	-0.442918	0.663952	-0.143342	0.253758	0.0246035	0.84183	-0.657628	-0.48469	0.0784795	0.45929	-0.410026	0.0288478	-0.260199	0.282901	-0.39035	-0.759529	-0.235487	-0.357583	0.0444812	-0.824332	-0.30221	0.2378	
4.37622	0	0	-0.345269	0.610024	-0.250391	0.716276	-0.176033	0.380014	-0.598058	0.817304	-0.176083	0.398062	-0.45434	0.671416	-0.145942	0.243101	0.018638	0.839257	-0.657219	-0.504574	0.080803	0.452723	-0.417192	0.023948	-0.261583	0.286814	-0.411519	-0.729291	-0.224459	-0.341952	0.041278	-0.815279	-0.30946	0.258288	
4.37317	0	0	-0.352352	0.60064	-0.261718	0.726719	-0.196599	0.379536	-0.609136	0.829674	-0.187815	0.388003	-0.45434	0.671416	-0.149489	0.235139	0.018638	0.839257	-0.66543	-0.518769	0.0751763	0.451355	-0.412788	0.0115013	-0.260199	0.282901	-0.408497	-0.737833	-0.238245	-0.326406	-0.0313817	-0.774761	-0.324703	0.258793	
4.37469	0	0	-0.359435	0.591257	-0.273045	0.737162	-0.217166	0.379058	-0.620214	0.842044	-0.199547	0.377945	-0.45434	0.671416	-0.153036	0.227178	0.018638	0.839257	-0.673641	-0.532965	0.0695495	0.449987	-0.408384	-0.0009455	-0.258815	0.278988	-0.405474	-0.746374	-0.25203	-0.310859	-0.104041	-0.734244	-0.339945	0.259298	
4.36554	0	0	-0.366518	0.581873	-0.284373	0.747604	-0.237733	0.37858	-0.631292	0.854414	-0.211279	0.367886	-0.45434	0.671416	-0.156584	0.219216	0.018638	0.839257	-0.681852	-0.54716	0.0639228	0.448619	-0.40398	-0.0133922	-0.25743	0.275076	-0.402451	-0.754916	-0.265816	-0.295312	-0.176701	-0.693727	-0.355187	0.259803	
4.36096	0	0	-0.373601	0.572489	-0.2957	0.758047	-0.258299	0.378102	-0.64237	0.866784	-0.223011	0.357827	-0.45434	0.671416	-0.160131	0.211254	0.018638	0.839257	-0.690063	-0.561356	0.058296	0.447251	-0.399576	-0.025839	-0.256046	0.271163	-0.399429	-0.763458	-0.279602	-0.279766	-0.249361	-0.653209	-0.37043	0.260308	
4.36096	0	0	-0.383892	0.572218	-0.288574	0.759477	-0.259966	0.363321	-0.645916	0.876805	-0.220684	0.351251	-0.461895	0.692768	-0.165566	0.208645	0.0141695	0.851886	-0.682879	-0.581658	0.0524883	0.463665	-0.397376	-0.032056	-0.247646	0.271692	-0.406989	-0.771633	-0.276593	-0.288271	-0.233394	-0.698336	-0.37696	0.236288	
4.35181	0	0	-0.394183	0.571948	-0.281448	0.760908	-0.261634	0.348541	-0.649462	0.886826	-0.218357	0.344674	-0.46945	0.71412	-0.171002	0.206037	0.009701	0.864515	-0.675696	-0.601961	0.0466805	0.480078	-0.395176	-0.038273	-0.239246	0.27222	-0.414549	-0.779808	-0.273583	-0.296776	-0.217426	-0.743463	-0.383491	0.212269	
4.34875	0	0	-0.404474	0.571677	-0.274322	0.762338	-0.263302	0.333761	-0.653008	0.896847	-0.21603	0.338098	-0.477006	0.735473	-0.176437	0.203428	0.0052325	0.877143	-0.668512	-0.622263	0.0408727	0.496492	-0.392977	-0.04449	-0.230846	0.272749	-0.422109	-0.787984	-0.270574	-0.305282	-0.201458	-0.788589	-0.390022	0.188249	
4.34875	0	0	-0.414765	0.571406	-0.267196	0.763768	-0.264969	0.31898	-0.656554	0.906868	-0.213703	0.331522	-0.484561	0.756825	-0.181872	0.200819	0.000764	0.889772	-0.661328	-0.642566	0.035065	0.512905	-0.390777	-0.050707	-0.222446	0.273278	-0.429669	-0.796159	-0.267564	-0.313787	-0.185491	-0.833716	-0.396552	0.16423	
4.34723	0	0	-0.413156	0.56686	-0.27	0.771692	-0.271197	0.317107	-0.654941	0.921249	-0.214866	0.334809	-0.473068	0.774012	-0.180928	0.19815	-0.0007435	0.913465	-0.674026	-0.644006	0.0369872	0.542029	-0.390777	-0.050707	-0.230769	0.2968	-0.425149	-0.808932	-0.259797	-0.312323	-0.179126	-0.851703	-0.399101	0.15023	
4.3457	0	0	-0.411548	0.562314	-0.272803	0.779616	-0.277424	0.315235	-0.653329	0.93563	-0.216029	0.338097	-0.461575	0.7912	-0.179983	0.19548	-0.002251	0.937157	-0.686724	-0.645447	0.0389095	0.571152	-0.390777	-0.050707	-0.239092	0.320323	-0.420629	-0.821705	-0.252031	-0.310859	-0.172762	-0.86969	-0.401649	0.136231	
4.3457	0	0	-0.40994	0.557768	-0.275607	0.787541	-0.283652	0.313362	-0.651717	0.950011	-0.217193	0.341384	-0.450082	0.808387	-0.179038	0.19281	-0.0037585	0.96085	-0.699421	-0.646888	0.0408317	0.600276	-0.390777	-0.050707	-0.247416	0.343845	-0.41611	-0.834479	-0.244264	-0.309395	-0.166397	-0.887677	-0.404197	0.122231	
4.34265	0	0	-0.408331	0.553222	-0.278411	0.795465	-0.289879	0.31149	-0.650104	0.964392	-0.218356	0.344672	-0.438589	0.825574	-0.178094	0.190141	-0.005266	0.984542	-0.712119	-0.648328	0.042754	0.6294	-0.390777	-0.050707	-0.255739	0.367367	-0.41159	-0.847252	-0.236497	-0.307931	-0.160032	-0.905664	-0.406746	0.108232	
4.34418	0	0	-0.413159	0.566867	-0.285432	0.815306	-0.300655	0.322492	-0.653254	0.992252	-0.205455	0.351426	-0.442356	0.861104	-0.181874	0.200823	0.0051275	1.01359	-0.7198	-0.645255	0.0570863	0.658199	-0.405638	-0.0338258	-0.234669	0.380815	-0.41611	-0.834479	-0.233243	-0.293683	-0.156855	-0.914644	-0.394429	0.115848	
4.34112	0	0	-0.417987	0.580512	-0.292453	0.835147	-0.31143	0.333493	-0.656404	1.02011	-0.192554	0.358181	-0.446123	0.896633	-0.185654	0.211506	0.015521	1.04263	-0.727481	-0.642181	0.0714185	0.686999	-0.420499	-0.0169445	-0.213599	0.394262	-0.420629	-0.821705	-0.22999	-0.279434	-0.153678	-0.923624	-0.382111	0.123464	
4.33807	0	0	-0.422815	0.594157	-0.299473	0.854989	-0.322206	0.344495	-0.659554	1.04797	-0.179653	0.364935	-0.44989	0.932163	-0.189434	0.222189	0.0259145	1.07168	-0.735162	-0.639108	0.0857508	0.715799	-0.43536	-6.325E-05	-0.19253	0.40771	-0.425149	-0.808932	-0.226737	-0.265186	-0.1505	-0.932604	-0.369793	0.13108	
4.33044	0	0	-0.427643	0.607802	-0.306494	0.87483	-0.332982	0.355497	-0.662704	1.07583	-0.166752	0.371689	-0.453657	0.967692	-0.193214	0.232871	0.036308	1.10072	-0.742843	-0.636035	0.100083	0.744598	-0.450221	0.016818	-0.17146	0.421158	-0.429669	-0.796159	-0.223483	-0.250937	-0.147323	-0.941584	-0.357476	0.138696	
4.33197	0	0	-0.434092	0.626027	-0.303591	0.888221	-0.326765	0.35738	-0.648395	1.09238	-0.168472	0.398195	-0.449833	1.00675	-0.198892	0.248919	0.0391345	1.15133	-0.736058	-0.636576	0.101694	0.792194	-0.444168	0.0248305	-0.175609	0.45728	-0.42362	-0.783714	-0.204643	-0.233675	-0.156865	-0.914617	-0.350923	0.162701	
4.33044	0	0	-0.440541	0.644253	-0.300689	0.901612	-0.320549	0.359264	-0.634086	1.10893	-0.170191	0.4247	-0.44601	1.04582	-0.20457	0.264966	0.041961	1.20195	-0.729272	-0.637118	0.103304	0.839789	-0.438115	0.032843	-0.179758	0.493401	-0.417571	-0.771268	-0.185803	-0.216413	-0.166407	-0.88765	-0.34437	0.186706	
4.32892	0	0	-0.44699	0.662478	-0.297786	0.915004	-0.314333	0.361147	-0.619778	1.12548	-0.171911	0.451205	-0.442186	1.08488	-0.210249	0.281014	0.0447875	1.25256	-0.722487	-0.63766	0.104915	0.887385	-0.432063	0.0408555	-0.183908	0.529523	-0.411521	-0.758823	-0.166963	-0.19915	-0.175949	-0.860683	-0.337817	0.210711	
4.32281	0	0	-0.453439	0.680704	-0.294883	0.928395	-0.308116	0.36303	-0.605469	1.14203	-0.173631	0.477711	-0.438363	1.12394	-0.215927	0.297062	0.047614	1.30318	-0.715702	-0.638201	0.106526	0.934981	-0.42601	0.048868	-0.188057	0.565644	-0.405472	-0.746378	-0.148123	-0.181888	-0.185491	-0.833716	-0.331264	0.234716	
4.31671	0	0	-0.465315	0.684958	-0.296223	0.953802	-0.321453	0.361839	-0.612642	1.1623	-0.179488	0.494264	-0.423065	1.15576	-0.213345	0.307735	0.0503395	1.35426	-0.727864	-0.622463	0.120552	0.982579	-0.419951	0.0568973	-0.183827	0.602576	-0.391845	-0.725667	-0.155518	-0.137427	-0.191868	-0.815693	-0.310886	0.262466	
4.31671	0	0	-0.47719	0.689213	-0.297563	0.97921	-0.33479	0.360648	-0.619816	1.18258	-0.185345	0.510818	-0.407766	1.18758	-0.210763	0.318407	0.053065	1.40534	-0.740027	-0.606724	0.134579	1.03018	-0.413892	0.0649265	-0.179597	0.639507	-0.378218	-0.704956	-0.162913	-0.092965	-0.198245	-0.797669	-0.290509	0.290216	
4.31518	0	0	-0.489066	0.693467	-0.298903	1.00462	-0.348128	0.359457	-0.62699	1.20285	-0.191203	0.527371	-0.392467	1.21939	-0.208181	0.329079	0.0557905	1.45643	-0.75219	-0.590986	0.148606	1.07778	-0.407833	0.0729557	-0.175367	0.676438	-0.364591	-0.684245	-0.170308	-0.0485035	-0.204623	-0.779645	-0.270131	0.317966	
4.31824	0	0	-0.500942	0.697721	-0.300243	1.03002	-0.361465	0.358266	-0.634163	1.22312	-0.19706	0.543925	-0.377169	1.25121	-0.205599	0.339752	0.058516	1.50751	-0.764352	-0.575248	0.162632	1.12537	-0.401774	0.080985	-0.171137	0.71337	-0.350964	-0.663534	-0.177703	-0.004042	-0.211	-0.761622	-0.249753	0.345716	
4.30908	0	0	-0.496107	0.684055	-0.287384	1.037	-0.374772	0.357069	-0.623823	1.23199	-0.198233	0.547239	-0.365666	1.26891	-0.199219	0.339708	0.0794225	1.5271	-0.773817	-0.567114	0.159609	1.16893	-0.407301	0.0966063	-0.183847	0.749292	-0.352517	-0.629463	-0.171254	0.024944	-0.258271	-0.709897	-0.237723	0.375981	
4.31518	0	0	-0.491271	0.670389	-0.274525	1.04397	-0.388078	0.355872	-0.613482	1.24085	-0.199406	0.550554	-0.354163	1.2866	-0.192838	0.339664	0.100329	1.54669	-0.783282	-0.55898	0.156585	1.21248	-0.412829	0.112227	-0.196558	0.785214	-0.35407	-0.595392	-0.164804	0.05393	-0.305543	-0.658172	-0.225693	0.406246	
4.31213	0	0	-0.486435	0.656724	-0.261667	1.05095	-0.401385	0.354676	-0.603141	1.24972	-0.200578	0.553868	-0.34266	1.3043	-0.186458	0.33962	0.121235	1.56627	-0.792748	-0.550846	0.153562	1.25604	-0.418357	0.127849	-0.209269	0.821136	-0.355623	-0.561321	-0.158355	0.082916	-0.352815	-0.606447	-0.213663	0.436511	
4.31518	0	0	-0.4816	0.643058	-0.248808	1.05792	-0.414692	0.353479	-0.592801	1.25858	-0.201751	0.557183	-0.331157	1.32199	-0.180078	0.339576	0.142142	1.58586	-0.802213	-0.542712	0.150539	1.29959	-0.423884	0.14347	-0.221979	0.857058	-0.357176	-0.52725	-0.151905	0.111902	-0.400086	-0.554722	-0.201633	0.466776	
4.31366	0	0	-0.493458	0.647308	-0.248757	1.07948	-0.413782	0.350908	-0.584847	1.27427	-0.204098	0.563816	-0.319634	1.33976	-0.175592	0.344902	0.143385	1.62181	-0.798626	-0.552849	0.157071	1.31621	-0.433248	0.144782	-0.214955	0.861699	-0.361754	-0.51431	-0.156504	0.124898	-0.359205	-0.588387	-0.218844	0.49397	
4.31518	0	0	-0.505316	0.651558	-0.248707	1.10103	-0.412872	0.348337	-0.576892	1.28996	-0.206445	0.570448	-0.308112	1.35754	-0.171105	0.350228	0.144628	1.65776	-0.795039	-0.562986	0.163603	1.33283	-0.442613	0.146095	-0.207931	0.86634	-0.366333	-0.50137	-0.161102	0.137895	-0.318323	-0.622053	-0.236055	0.521165	
4.31824	0	0	-0.517174	0.655807	-0.248657	1.12258	-0.411963	0.345766	-0.568937	1.30564	-0.208791	0.57708	-0.29659	1.37531	-0.166619	0.355553	0.145871	1.69371	-0.791453	-0.573123	0.170135	1.34944	-0.451977	0.147407	-0.200907	0.87098	-0.370912	-0.488431	-0.165701	0.150891	-0.277442	-0.655718	-0.253265	0.548359	
4.31213	0	0	-0.529032	0.660057	-0.248606	1.14413	-0.411053	0.343195	-0.560983	1.32133	-0.211138	0.583713	-0.285067	1.39309	-0.162133	0.360879	0.147114	1.72965	-0.787866	-0.58326	0.176667	1.36606	-0.461342	0.14872	-0.193883	0.875621	-0.37549	-0.475491	-0.170299	0.163887	-0.236561	-0.689383	-0.270476	0.575553	
4.31671	0	0	-0.533865	0.673716	-0.252873	1.15619	-0.422699	0.356736	-0.559415	1.33601	-0.19823	0.590598	-0.283197	1.41302	-0.165938	0.371632	0.162068	1.74674	-0.794634	-0.582731	0.177522	1.38121	-0.449765	0.141156	-0.1953	0.879626	-0.386098	-0.475193	-0.176573	0.157995	-0.264661	-0.691837	-0.282842	0.567685	
4.31671	0	0	-0.538698	0.687374	-0.25714	1.16825	-0.434345	0.370277	-0.557846	1.35069	-0.185322	0.597483	-0.281327	1.43296	-0.169743	0.382385	0.177021	1.76383	-0.801401	-0.582202	0.178377	1.39635	-0.438188	0.133592	-0.196718	0.883632	-0.396706	-0.474895	-0.182846	0.152102	-0.292762	-0.694292	-0.295209	0.559817	
4.31824	0	0	-0.543531	0.701033	-0.261408	1.18031	-0.44599	0.383818	-0.556277	1.36537	-0.172413	0.604368	-0.279457	1.4529	-0.173548	0.393139	0.191974	1.78092	-0.808169	-0.581673	0.179232	1.4115	-0.426612	0.126027	-0.198136	0.887637	-0.407315	-0.474597	-0.189119	0.146209	-0.320863	-0.696746	-0.307576	0.55195	
4.32129	0	0	-0.548364	0.714692	-0.265675	1.19237	-0.457636	0.397359	-0.554709	1.38005	-0.159505	0.611253	-0.277587	1.47283	-0.177353	0.403892	0.206928	1.79801	-0.814937	-0.581144	0.180087	1.42665	-0.415035	0.118463	-0.199553	0.891643	-0.417923	-0.474299	-0.195393	0.140317	-0.348963	-0.699201	-0.319942	0.544082	
4.31671	0	0	-0.55967	0.746644	-0.269948	1.20445	-0.467226	0.463225	-0.546752	1.39585	-0.118116	0.778646	-0.252437	1.47762	-0.172868	0.409238	0.205196	1.82273	-0.82528	-0.570492	0.189032	1.43654	-0.428824	0.132279	-0.193942	0.900308	-0.402736	-0.487537	-0.201659	0.134435	-0.345776	-0.708208	-0.307163	0.529363	
4.31671	0	0	-0.570975	0.778597	-0.274222	1.21653	-0.476816	0.52909	-0.538795	1.41165	-0.076726	0.946039	-0.227287	1.48241	-0.168383	0.414585	0.203464	1.84745	-0.835623	-0.559841	0.197976	1.44644	-0.442612	0.146095	-0.188331	0.908974	-0.387549	-0.500775	-0.207925	0.128553	-0.342589	-0.717215	-0.294384	0.514644	
4.31824	0	0	-0.582281	0.810549	-0.278495	1.2286	-0.486405	0.594955	-0.530838	1.42744	-0.0353365	1.11343	-0.202136	1.4872	-0.163898	0.419931	0.201733	1.87216	-0.845966	-0.549189	0.206921	1.45634	-0.456401	0.159911	-0.182719	0.91764	-0.372363	-0.514012	-0.214191	0.12267	-0.339402	-0.726222	-0.281605	0.499924	
4.31976	0	0	-0.593587	0.842501	-0.282768	1.24068	-0.495995	0.660821	-0.522881	1.44324	0.006053	1.28083	-0.176986	1.49199	-0.159413	0.425277	0.200001	1.89688	-0.856309	-0.538538	0.215866	1.46623	-0.47019	0.173727	-0.177108	0.926305	-0.357176	-0.52725	-0.220457	0.116788	-0.336215	-0.735229	-0.268826	0.485205	
4.31671	0	0	-0.59309	0.870358	-0.287047	1.25277	-0.219525	0.773676	-0.52375	1.46487	0.286015	1.46239	-0.186785	1.51968	-0.164181	0.438753	0.198241	1.9217	-0.851345	-0.533988	0.213074	1.49174	-0.475727	0.189376	-0.174339	0.943035	-0.361754	-0.51431	-0.204851	0.119897	-0.301721	-0.750843	-0.273224	0.497634	
4.31976	0	0	-0.592592	0.898215	-0.291326	1.26487	0.0569455	0.886531	-0.52462	1.4865	0.565977	1.64395	-0.196583	1.54738	-0.16895	0.452229	0.196482	1.94652	-0.84638	-0.529439	0.210282	1.51724	-0.481264	0.205024	-0.17157	0.959766	-0.366333	-0.50137	-0.189246	0.123005	-0.267227	-0.766458	-0.277622	0.510064	
4.31976	0	0	-0.592095	0.926071	-0.295604	1.27696	0.333416	0.999386	-0.525489	1.50813	0.84594	1.82552	-0.206381	1.57507	-0.173718	0.465705	0.194722	1.97134	-0.841416	-0.52489	0.207489	1.54274	-0.486801	0.220672	-0.168801	0.976496	-0.370912	-0.488431	-0.17364	0.126113	-0.232733	-0.782073	-0.28202	0.522494	
4.31671	0	0	-0.591598	0.953928	-0.299883	1.28905	0.609886	1.11224	-0.526358	1.52975	1.1259	2.00708	-0.21618	1.60276	-0.178486	0.479181	0.192962	1.99616	-0.836452	-0.52034	0.204697	1.56825	-0.492338	0.236321	-0.166032	0.993226	-0.37549	-0.475491	-0.158034	0.129222	-0.198239	-0.797687	-0.286418	0.534923	
4.31976	0	0	-0.599732	0.976915	-0.294171	1.29463	1.53175	1.86615	-0.526031	1.54802	2.22308	2.67748	-0.206591	1.62641	-0.190601	0.495397	0.200328	2.0151	-0.840941	-0.507653	0.215691	1.59012	-0.48853	0.250711	-0.154797	1.01068	-0.372516	-0.454166	-0.162511	0.165525	-0.245501	-0.745989	-0.268565	0.548805	
4.31824	0	0	-0.607865	0.999902	-0.288459	1.30021	2.45362	2.62006	-0.525704	1.56629	3.32026	3.34788	-0.197001	1.65006	-0.202715	0.511612	0.207695	2.03404	-0.84543	-0.494966	0.226684	1.61199	-0.484721	0.2651	-0.143561	1.02814	-0.369542	-0.432841	-0.166987	0.201827	-0.292763	-0.694292	-0.250711	0.562686	
4.31671	0	0	-0.615999	1.02289	-0.282746	1.30578	3.37549	3.37397	-0.525377	1.58456	4.41744	4.01828	-0.187412	1.67371	-0.21483	0.527828	0.215061	2.05297	-0.84992	-0.482278	0.237677	1.63386	-0.480912	0.27949	-0.132326	1.04559	-0.366569	-0.411516	-0.171464	0.23813	-0.340024	-0.642594	-0.232858	0.576568	
4.31366	0	0	-0.624133	1.04588	-0.277034	1.31136	4.29736	4.12788	-0.52505	1.60282	5.51462	4.68868	-0.177823	1.69736	-0.226944	0.544043	0.222427	2.07191	-0.854409	-0.469591	0.248671	1.65573	-0.477104	0.29388	-0.12109	1.06305	-0.363595	-0.390191	-0.17594	0.274433	-0.387286	-0.590896	-0.215005	0.590449	
4.31518	0	0	-0.61925	1.03208	-0.278463	1.3154	5.79742	4.92447	-0.527485	1.60971	6.96496	5.5078	-0.193455	1.71615	-0.225033	0.538644	0.219297	2.08076	-0.864757	-0.458923	0.247048	1.678	-0.480439	0.303305	-0.13111	1.09137	-0.372803	-0.364167	-0.171112	0.308182	-0.362424	-0.579288	-0.216914	0.617339	
4.31366	0	0	-0.614367	1.01828	-0.279893	1.31944	7.29749	5.72106	-0.529919	1.61659	8.4153	6.32692	-0.209087	1.73493	-0.223123	0.533244	0.216167	2.08961	-0.875106	-0.448256	0.245424	1.70026	-0.483774	0.312731	-0.14113	1.11969	-0.382012	-0.338143	-0.166284	0.341931	-0.337562	-0.567681	-0.218823	0.644228	
4.31366	0	0	-0.609485	1.00448	-0.281323	1.32348	8.79756	6.51766	-0.532354	1.62347	9.86564	7.14605	-0.224719	1.75372	-0.221213	0.527845	0.213036	2.09845	-0.885455	-0.437588	0.243801	1.72253	-0.48711	0.322156	-0.151151	1.14801	-0.39122	-0.312119	-0.161456	0.375681	-0.312701	-0.556073	-0.220732	0.671118	
4.30603	0	0	-0.604602	0.990679	-0.282752	1.32752	10.2976	7.31425	-0.534788	1.63035	11.316	7.96517	-0.240351	1.7725	-0.219302	0.522445	0.209906	2.1073	-0.895803	-0.426921	0.242177	1.7448	-0.490445	0.331581	-0.161171	1.17633	-0.400428	-0.286095	-0.156628	0.40943	-0.287839	-0.544465	-0.222641	0.698008	
4.30603	0	0	-0.601351	0.981491	-0.284182	1.33156	11.7926	8.0366	-0.513109	1.62677	12.7172	8.83993	-0.220911	1.76838	-0.224725	0.519767	0.221973	2.11304	-0.90165	-0.428958	0.252359	1.75143	-0.502022	0.339145	-0.162605	1.18038	-0.394286	-0.303453	-0.165993	0.412187	-0.281423	-0.562598	-0.231056	0.700296	
4.31213	0	0	-0.5981	0.972303	-0.285612	1.3356	13.2877	8.75895	-0.49143	1.6232	14.1185	9.71469	-0.201471	1.76426	-0.230148	0.517089	0.23404	2.11877	-0.907496	-0.430995	0.262541	1.75807	-0.513598	0.34671	-0.164039	1.18443	-0.388145	-0.32081	-0.175359	0.414943	-0.275007	-0.580731	-0.239472	0.702585	
4.30908	0	0	-0.594849	0.963116	-0.287043	1.33965	14.7827	9.48131	-0.46975	1.61962	15.5198	10.5894	-0.182031	1.76014	-0.235571	0.51441	0.246107	2.12451	-0.913343	-0.433032	0.272722	1.7647	-0.525174	0.354275	-0.165473	1.18848	-0.382003	-0.338168	-0.184725	0.4177	-0.26859	-0.598864	-0.247888	0.704873	
4.30603	0	0	-0.591598	0.953928	-0.288473	1.34369	16.2777	10.2037	-0.448071	1.61605	16.921	11.4642	-0.162591	1.75602	-0.240994	0.511732	0.258174	2.13025	-0.91919	-0.435069	0.282904	1.77134	-0.536751	0.361839	-0.166907	1.19254	-0.375861	-0.355526	-0.19409	0.420456	-0.262174	-0.616997	-0.256303	0.707162	
4.3045	0	0	-0.584614	0.963499	-0.2942	1.35987	17.7024	11.0556	-0.431206	1.62626	18.358	12.3186	-0.149034	1.76867	-0.243858	0.519825	0.2716	2.15223	-0.91919	-0.435069	0.29637	1.78652	-0.525174	0.354275	-0.169777	1.20065	-0.400139	-0.346325	-0.184725	0.4177	-0.26859	-0.598864	-0.259259	0.715516	
4.3045	0	0	-0.57763	0.97307	-0.299928	1.37606	19.1271	11.9075	-0.414342	1.63647	19.795	13.173	-0.135476	1.78131	-0.246721	0.527918	0.285027	2.1742	-0.91919	-0.435069	0.309836	1.80171	-0.513598	0.34671	-0.172648	1.20876	-0.424416	-0.337124	-0.175359	0.414943	-0.275007	-0.580731	-0.262215	0.72387	
4.30298	0	0	-0.570646	0.982641	-0.305655	1.39225	20.5518	12.7594	-0.397477	1.64669	21.2319	14.0274	-0.121918	1.79396	-0.249585	0.536011	0.298453	2.19618	-0.91919	-0.435069	0.323303	1.81689	-0.502022	0.339145	-0.175518	1.21687	-0.448694	-0.327922	-0.165993	0.412187	-0.281423	-0.562598	-0.265171	0.732224	
4.2984	0	0	-0.563662	0.992212	-0.311382	1.40843	21.9766	13.6113	-0.380613	1.6569	22.6689	14.8819	-0.108361	1.8066	-0.252448	0.544104	0.311879	2.21816	-0.91919	-0.435069	0.336769	1.83207	-0.490445	0.331581	-0.178388	1.22498	-0.472972	-0.318721	-0.156628	0.40943	-0.287839	-0.544465	-0.268127	0.740578	
4.29993	0	0	-0.563203	1.02027	-0.308547	1.42217	23.4992	14.4511	-0.371385	1.6695	24.1353	15.562	-0.0947703	1.81929	-0.257227	0.557609	0.317681	2.24182	-0.929521	-0.424414	0.356007	1.84893	-0.49267	0.33787	-0.172789	1.23381	-0.462377	-0.318981	-0.164379	0.431335	-0.291052	-0.535384	-0.247298	0.746272	
4.30145	0	0	-0.562743	1.04832	-0.305712	1.4359	25.0218	15.2909	-0.362156	1.6821	25.6016	16.2422	-0.0811795	1.83198	-0.262005	0.571113	0.323483	2.26547	-0.939852	-0.41376	0.375246	1.86579	-0.494896	0.34416	-0.16719	1.24264	-0.451782	-0.319242	-0.172129	0.45324	-0.294265	-0.526304	-0.226469	0.751965	
4.2984	0	0	-0.562283	1.07638	-0.302877	1.44963	26.5444	16.1307	-0.352928	1.6947	27.068	16.9223	-0.0675888	1.84467	-0.266784	0.584618	0.329284	2.28913	-0.950183	-0.403105	0.394484	1.88264	-0.497121	0.350449	-0.161592	1.25147	-0.441188	-0.319503	-0.17988	0.475144	-0.297478	-0.517224	-0.205639	0.757659	
4.2984	0	0	-0.561824	1.10444	-0.300042	1.46337	28.067	16.9705	-0.3437	1.7073	28.5343	17.6025	-0.053998	1.85736	-0.271562	0.598122	0.335086	2.31279	-0.960514	-0.39245	0.413722	1.8995	-0.499346	0.356738	-0.155993	1.26031	-0.430593	-0.319763	-0.187631	0.497049	-0.300691	-0.508143	-0.18481	0.763353	
4.29687	0	0	-0.558556	1.0952	-0.298606	1.45931	29.5978	17.6957	-0.323407	1.68872	29.8551	18.4355	-0.0637772	1.85943	-0.279841	0.603531	0.337983	2.32466	-0.961413	-0.38991	0.413288	1.91857	-0.510923	0.364302	-0.158871	1.26844	-0.436735	-0.302405	-0.182918	0.507471	-0.313576	-0.471729	-0.179807	0.792378	
4.29535	0	0	-0.555289	1.08597	-0.297169	1.45525	31.1287	18.4208	-0.303114	1.67013	31.1758	19.2685	-0.0735565	1.8615	-0.288119	0.608941	0.34088	2.33654	-0.962311	-0.387369	0.412854	1.93765	-0.522499	0.371867	-0.161749	1.27657	-0.442877	-0.285048	-0.178205	0.517894	-0.32646	-0.435314	-0.174804	0.821403	
4.29535	0	0	-0.552021	1.07673	-0.295733	1.45119	32.6595	19.146	-0.28282	1.65154	32.4965	20.1016	-0.0833358	1.86357	-0.296397	0.614351	0.343776	2.34841	-0.96321	-0.384829	0.41242	1.95672	-0.534076	0.379432	-0.164627	1.28471	-0.449018	-0.26769	-0.173492	0.528316	-0.339345	-0.3989	-0.1698	0.850429	
4.2923	0	0	-0.548753	1.0675	-0.294297	1.44713	34.1903	19.8712	-0.262527	1.63295	33.8172	20.9346	-0.093115	1.86564	-0.304676	0.61976	0.346673	2.36028	-0.964109	-0.382288	0.411986	1.9758	-0.545652	0.386996	-0.167505	1.29284	-0.45516	-0.250332	-0.168779	0.538739	-0.35223	-0.362486	-0.164797	0.879454	
4.2923	0	0	-0.54712	1.06288	-0.285713	1.44464	35.7756	20.5321	-0.251142	1.62019	35.0834	21.7729	-0.079361	1.85234	-0.30372	0.617058	0.352743	2.36321	-0.968143	-0.389412	0.415695	1.96532	-0.541203	0.374422	-0.170226	1.27587	-0.459774	-0.237291	-0.181262	0.550275	-0.317612	-0.378089	-0.176738	0.913202	
4.29077	0	0	-0.545488	1.05827	-0.277128	1.44216	37.3609	21.1929	-0.239758	1.60742	36.3495	22.6111	-0.065607	1.83903	-0.302763	0.614355	0.358812	2.36614	-0.972176	-0.396536	0.419405	1.95483	-0.536754	0.361848	-0.172947	1.25891	-0.464388	-0.224251	-0.193744	0.561811	-0.282994	-0.393693	-0.18868	0.946951	
4.29535	0	0	-0.543855	1.05365	-0.268544	1.43967	38.9462	21.8538	-0.228373	1.59466	37.6157	23.4494	-0.051853	1.82573	-0.301807	0.611652	0.364882	2.36907	-0.97621	-0.403659	0.423115	1.94435	-0.532305	0.349274	-0.175667	1.24195	-0.469003	-0.21121	-0.206227	0.573348	-0.248375	-0.409297	-0.200622	0.980699	
4.29077	0	0	-0.542222	1.04904	-0.25996	1.43718	40.5315	22.5147	-0.216988	1.5819	38.8819	24.2876	-0.038099	1.81242	-0.300851	0.60895	0.370952	2.37199	-0.980244	-0.410783	0.426824	1.93386	-0.527856	0.3367	-0.178388	1.22498	-0.473617	-0.198169	-0.21871	0.584884	-0.213757	-0.4249	-0.212563	1.01445	
4.29077	0	0	-0.538499	1.06792	-0.261397	1.44124	41.9978	23.282	-0.201542	1.57713	40.2818	25.0875	-0.0361135	1.80681	-0.311034	0.61976	0.37544	2.37941	-0.990096	-0.419932	0.429295	1.92688	-0.5443	0.332971	-0.182549	1.21212	-0.476522	-0.219641	-0.2281	0.564029	-0.241926	-0.427522	-0.213542	0.995618	
4.2923	0	0	-0.534776	1.08679	-0.262834	1.4453	43.4642	24.0494	-0.186096	1.57236	41.6816	25.8874	-0.034128	1.8012	-0.321218	0.63057	0.379927	2.38683	-0.999948	-0.42908	0.431766	1.9199	-0.560745	0.329241	-0.186711	1.19926	-0.479428	-0.241113	-0.237491	0.543174	-0.270095	-0.430145	-0.214521	0.976789	
4.28619	0	0	-0.531052	1.10567	-0.26427	1.44936	44.9305	24.8167	-0.17065	1.56759	43.0814	26.6872	-0.0321425	1.79559	-0.331402	0.64138	0.384415	2.39426	-1.0098	-0.438229	0.434236	1.91292	-0.57719	0.325512	-0.190872	1.1864	-0.482333	-0.262584	-0.246882	0.522319	-0.298265	-0.432767	-0.215499	0.957961	
4.28619	0	0	-0.527329	1.12455	-0.265707	1.45342	46.3968	25.584	-0.155204	1.56282	44.4812	27.4871	-0.030157	1.78998	-0.341585	0.65219	0.388903	2.40168	-1.01965	-0.447378	0.436707	1.90593	-0.593634	0.321782	-0.195033	1.17354	-0.485238	-0.284056	-0.256272	0.501464	-0.326434	-0.435389	-0.216478	0.939132	
4.28772	0	0	-0.537168	1.15236	-0.265707	1.45342	47.9193	26.2163	-0.164157	1.56867	45.8611	28.1718	-0.0379567	1.78646	-0.342542	0.654894	0.378061	2.41222	-1.02457	-0.451943	0.429727	1.90781	-0.591416	0.315515	-0.190739	1.16141	-0.504835	-0.287895	-0.243898	0.466494	-0.316785	-0.462658	-0.218958	0.924571	
4.28772	0	0	-0.547007	1.18017	-0.265707	1.45342	49.4417	26.8485	-0.17311	1.57452	47.2409	28.8566	-0.0457565	1.78293	-0.343499	0.657598	0.367218	2.42275	-1.02949	-0.456509	0.422746	1.90969	-0.589198	0.309248	-0.186445	1.14927	-0.524432	-0.291735	-0.231524	0.431523	-0.307137	-0.489927	-0.221438	0.910011	
4.2923	0	0	-0.556846	1.20797	-0.265707	1.45342	50.9642	27.4807	-0.182063	1.58037	48.6208	29.5413	-0.0535562	1.77941	-0.344455	0.660303	0.356375	2.43329	-1.03441	-0.461074	0.415766	1.91157	-0.586981	0.302981	-0.18215	1.13713	-0.544028	-0.295575	-0.21915	0.396553	-0.297488	-0.517196	-0.223918	0.89545	
4.28924	0	0	-0.566685	1.23578	-0.265707	1.45342	52.4867	28.1129	-0.191016	1.58622	50.0006	30.2261	-0.061356	1.77588	-0.345412	0.663007	0.345533	2.44383	-1.03933	-0.46564	0.408785	1.91345	-0.584763	0.296714	-0.177856	1.12499	-0.563625	-0.299414	-0.206776	0.361582	-0.287839	-0.544465	-0.226398	0.880889	
4.28619	0	0	-0.583503	1.25391	-0.279993	1.45028	53.9613	28.6862	-0.205219	1.58752	51.3	30.9277	-0.0573938	1.76469	-0.352718	0.665702	0.33629	2.44987	-1.04514	-0.467673	0.411253	1.90648	-0.583655	0.293582	-0.184884	1.12027	-0.54542	-0.321277	-0.217746	0.345311	-0.315901	-0.547029	-0.221938	0.868284	
4.28772	0	0	-0.600322	1.27204	-0.29428	1.44713	55.4359	29.2595	-0.219421	1.58881	52.5995	31.6292	-0.0534315	1.75349	-0.360023	0.668397	0.327048	2.45591	-1.05095	-0.469707	0.41372	1.8995	-0.582547	0.29045	-0.191912	1.11554	-0.527215	-0.34314	-0.228716	0.329041	-0.343963	-0.549594	-0.217478	0.855679	
4.28619	0	0	-0.617141	1.29017	-0.308566	1.44399	56.9105	29.8328	-0.233624	1.59011	53.899	32.3308	-0.0494692	1.74229	-0.367329	0.671091	0.317805	2.46195	-1.05676	-0.471741	0.416188	1.89253	-0.581439	0.287318	-0.19894	1.11082	-0.509009	-0.365003	-0.239686	0.312771	-0.372024	-0.552158	-0.213018	0.843074	
4.28772	0	0	-0.633959	1.3083	-0.322852	1.44085	58.3851	30.406	-0.247827	1.5914	55.1984	33.0324	-0.045507	1.73109	-0.374635	0.673786	0.308563	2.46799	-1.06257	-0.473774	0.418656	1.88555	-0.580331	0.284186	-0.205968	1.10609	-0.490804	-0.386866	-0.250656	0.2965	-0.400086	-0.554722	-0.208558	0.830469	
4.28467	0	0	-0.635981	1.28466	-0.348459	1.42648	59.8494	31.1816	-0.246139	1.54787	56.651	33.5688	-0.0707105	1.7004	-0.383492	0.662964	0.302805	2.44417	-1.05989	-0.48135	0.409641	1.87538	-0.591861	0.29172	-0.211561	1.09734	-0.504422	-0.377968	-0.246044	0.283466	-0.403289	-0.545669	-0.213018	0.843074	
4.28314	0	0	-0.638004	1.26102	-0.374065	1.41212	61.3136	31.9571	-0.244451	1.50434	58.1037	34.1053	-0.095914	1.66971	-0.392349	0.652143	0.297046	2.42034	-1.0572	-0.488926	0.400626	1.86521	-0.60339	0.299254	-0.217153	1.08859	-0.51804	-0.369069	-0.241432	0.270431	-0.406492	-0.536617	-0.217478	0.855679	
4.28314	0	0	-0.640027	1.23738	-0.399672	1.39776	62.7778	32.7327	-0.242763	1.4608	59.5563	34.6417	-0.121118	1.63902	-0.401206	0.641321	0.291288	2.39652	-1.05452	-0.496501	0.391612	1.85504	-0.61492	0.306788	-0.222746	1.07984	-0.531658	-0.360171	-0.23682	0.257397	-0.409695	-0.527564	-0.221938	0.868284	
4.27704	0	0	-0.642049	1.21375	-0.425279	1.38339	64.2421	33.5082	-0.241075	1.41727	61.009	35.1781	-0.146321	1.60833	-0.410063	0.630499	0.28553	2.37269	-1.05184	-0.504077	0.382597	1.84487	-0.62645	0.314322	-0.228339	1.07109	-0.545276	-0.351273	-0.232208	0.244363	-0.412898	-0.518511	-0.226398	0.880889	
4.28009	0	0	-0.625264	1.19566	-0.435189	1.36819	65.9776	33.845	-0.239049	1.39219	62.3769	35.6449	-0.148123	1.56267	-0.420812	0.625092	0.278183	2.35344	-1.06345	-0.508128	0.383007	1.82592	-0.620915	0.298679	-0.232504	1.05834	-0.5604	-0.33807	-0.243066	0.251458	-0.378424	-0.534071	-0.232355	0.897723	
4.27704	0	0	-0.608479	1.17758	-0.445099	1.35298	67.713	34.1817	-0.237023	1.36712	63.7448	36.1118	-0.149925	1.51702	-0.43156	0.619684	0.270836	2.3342	-1.07505	-0.51218	0.383418	1.80696	-0.61538	0.283036	-0.236669	1.04559	-0.575525	-0.324866	-0.253924	0.258553	-0.343949	-0.54963	-0.238311	0.914558	
4.27856	0	0	-0.591694	1.1595	-0.455009	1.33777	69.4485	34.5185	-0.234998	1.34204	65.1127	36.5786	-0.151726	1.47136	-0.442308	0.614277	0.263488	2.31495	-1.08666	-0.516232	0.383828	1.788	-0.609845	0.267393	-0.240835	1.03284	-0.59065	-0.311662	-0.264782	0.265648	-0.309474	-0.56519	-0.244268	0.931392	
4.27551	0	0	-0.574909	1.14142	-0.464919	1.32256	71.184	34.8552	-0.232972	1.31696	66.4806	37.0454	-0.153528	1.4257	-0.453057	0.60887	0.256141	2.2957	-1.09826	-0.520283	0.384238	1.76904	-0.60431	0.25175	-0.245	1.02008	-0.605774	-0.298459	-0.27564	0.272743	-0.275	-0.580749	-0.250225	0.948226	
4.27246	0	0	-0.581461	1.15993	-0.463496	1.31854	72.7291	35.2361	-0.224066	1.31115	67.6459	37.6879	-0.155433	1.40576	-0.459375	0.60886	0.260873	2.28233	-1.10984	-0.524331	0.382184	1.75707	-0.600993	0.242377	-0.250586	1.01138	-0.593568	-0.332956	-0.28658	0.256567	-0.334198	-0.576832	-0.256659	0.923345	
4.27399	0	0	-0.588014	1.17845	-0.462073	1.31452	74.2742	35.617	-0.215159	1.30533	68.8111	38.3304	-0.157338	1.38582	-0.465693	0.60885	0.265604	2.26896	-1.12142	-0.528378	0.380131	1.74509	-0.597677	0.233005	-0.256172	1.00267	-0.581361	-0.367454	-0.297519	0.24039	-0.393395	-0.572914	-0.263093	0.898463	
4.26941	0	0	-0.594566	1.19697	-0.46065	1.3105	75.8192	35.9979	-0.206253	1.29951	69.9764	38.973	-0.159244	1.36588	-0.472012	0.60884	0.270336	2.25558	-1.133	-0.532425	0.378077	1.73311	-0.594361	0.223632	-0.261758	0.993971	-0.569155	-0.401951	-0.308459	0.224214	-0.452592	-0.568997	-0.269527	0.873582	
4.27093	0	0	-0.601119	1.21549	-0.459227	1.30648	77.3643	36.3788	-0.197346	1.29369	71.1417	39.6155	-0.161149	1.34594	-0.47833	0.60883	0.275067	2.24221	-1.14458	-0.536473	0.376023	1.72114	-0.591044	0.214259	-0.267344	0.985267	-0.556948	-0.436449	-0.319399	0.208037	-0.51179	-0.56508	-0.275961	0.8487	
4.26788	0	0	-0.599087	1.23915	-0.46065	1.3105	79.2554	36.594	-0.2022	1.30741	72.1926	40.2619	-0.157257	1.33494	-0.486545	0.614198	0.273491	2.24667	-1.13345	-0.549543	0.376023	1.72114	-0.600349	0.21554	-0.267344	0.985267	-0.574952	-0.444509	-0.314809	0.195066	-0.467896	-0.607617	-0.275481	0.82585	
4.26636	0	0	-0.597055	1.26281	-0.462073	1.31452	81.1465	36.8091	-0.207054	1.32112	73.2434	40.9082	-0.153366	1.32394	-0.49476	0.619565	0.271915	2.25112	-1.12232	-0.562614	0.376023	1.72114	-0.609655	0.21682	-0.267344	0.985267	-0.592956	-0.452569	-0.31022	0.182095	-0.424002	-0.650154	-0.275002	0.802999	
4.26941	0	0	-0.595023	1.28646	-0.463496	1.31854	83.0376	37.0242	-0.211908	1.33484	74.2943	41.5546	-0.149474	1.31295	-0.502975	0.624933	0.270338	2.25558	-1.1112	-0.575685	0.376023	1.72114	-0.618961	0.218101	-0.267344	0.985267	-0.61096	-0.46063	-0.305631	0.169124	-0.380109	-0.692692	-0.274523	0.780149	
4.26483	0	0	-0.592991	1.31012	-0.464919	1.32256	84.9287	37.2393	-0.216762	1.34856	75.3451	42.201	-0.145583	1.30195	-0.51119	0.630301	0.268762	2.26003	-1.10007	-0.588755	0.376023	1.72114	-0.628266	0.219382	-0.267344	0.985267	-0.628964	-0.46869	-0.301041	0.156153	-0.336215	-0.735229	-0.274043	0.757298	
4.26483	0	0	-0.590979	1.33389	-0.487611	1.34358	86.4485	37.5096	-0.205	1.35408	76.4682	42.691	-0.159167	1.31505	-0.51119	0.630301	0.265607	2.26895	-1.10853	-0.583228	0.38053	1.72618	-0.62937	0.222503	-0.260335	0.989951	-0.624412	-0.481555	-0.305631	0.169124	-0.333031	-0.744227	-0.271085	0.74894	
4.26178	0	0	-0.588968	1.35765	-0.510302	1.3646	87.9684	37.7798	-0.193237	1.3596	77.5912	43.181	-0.172752	1.32815	-0.51119	0.630301	0.262452	2.27787	-1.11698	-0.577702	0.385038	1.73122	-0.630475	0.225624	-0.253327	0.994635	-0.61986	-0.49442	-0.31022	0.182095	-0.329847	-0.753225	-0.268128	0.740582	
4.2572	0	0	-0.586957	1.38141	-0.532994	1.38561	89.4882	38.05	-0.181475	1.36512	78.7142	43.671	-0.186336	1.34126	-0.51119	0.630301	0.259296	2.28678	-1.12544	-0.572175	0.389545	1.73626	-0.631579	0.228745	-0.246318	0.999319	-0.615307	-0.507285	-0.314809	0.195066	-0.326664	-0.762223	-0.26517	0.732224	
4.25873	0	0	-0.584945	1.40517	-0.555686	1.40663	91.0081	38.3203	-0.169712	1.37064	79.8373	44.161	-0.199921	1.35436	-0.51119	0.630301	0.256141	2.2957	-1.1339	-0.566648	0.394052	1.74131	-0.632683	0.231866	-0.23931	1.004	-0.610755	-0.52015	-0.319399	0.208037	-0.32348	-0.771221	-0.262213	0.723866	
4.25873	0	0	-0.594871	1.43323	-0.541547	1.40978	92.6054	38.4868	-0.178241	1.39474	80.9296	44.6323	-0.196074	1.36878	-0.512142	0.632992	0.249821	2.31356	-1.14324	-0.558613	0.394877	1.75677	-0.623379	0.230588	-0.235142	1.01675	-0.601754	-0.516141	-0.309996	0.228556	-0.360996	-0.746707	-0.259718	0.738312	
4.25262	0	0	-0.604798	1.46128	-0.527407	1.41293	94.2027	38.6534	-0.18677	1.41885	82.022	45.1037	-0.192228	1.38319	-0.513095	0.635684	0.243501	2.33142	-1.15258	-0.550577	0.395703	1.77224	-0.614074	0.229309	-0.230973	1.02949	-0.592753	-0.512132	-0.300593	0.249075	-0.398512	-0.722194	-0.257224	0.752757	
4.25262	0	0	-0.614725	1.48934	-0.513267	1.41609	95.8001	38.8199	-0.195299	1.44295	83.1143	45.5751	-0.188382	1.39761	-0.514047	0.638375	0.237181	2.34928	-1.16192	-0.542542	0.396529	1.7877	-0.604769	0.22803	-0.226805	1.04223	-0.583752	-0.508123	-0.29119	0.269594	-0.436029	-0.69768	-0.254729	0.767203	
4.2511	0	0	-0.624651	1.51739	-0.499128	1.41924	97.3974	38.9865	-0.203828	1.46706	84.2067	46.0464	-0.184535	1.41203	-0.514999	0.641066	0.230861	2.36715	-1.17126	-0.534507	0.397354	1.80317	-0.595465	0.226752	-0.222637	1.05498	-0.574751	-0.504114	-0.281787	0.290113	-0.473545	-0.673166	-0.252235	0.781648	
4.24805	0	0	-0.622995	1.51271	-0.510483	1.42976	99.0155	38.9053	-0.213973	1.47634	84.7185	46.6715	-0.190392	1.42858	-0.525112	0.651814	0.226113	2.38057	-1.17393	-0.526961	0.401446	1.82725	-0.599889	0.239255	-0.222758	1.07988	-0.582353	-0.482631	-0.267669	0.321078	-0.44559	-0.670659	-0.245776	0.806458	
4.24652	0	0	-0.621338	1.50803	-0.521838	1.44028	100.634	38.8242	-0.224118	1.48562	85.2304	47.2967	-0.19625	1.44514	-0.535224	0.662561	0.221365	2.39398	-1.1766	-0.519416	0.405538	1.85133	-0.604313	0.251758	-0.22288	1.10477	-0.589954	-0.461147	-0.253551	0.352043	-0.417635	-0.668151	-0.239316	0.831268	
4.24805	0	0	-0.619681	1.50335	-0.533193	1.45081	102.252	38.743	-0.234264	1.4949	85.7422	47.9218	-0.202107	1.46169	-0.545337	0.673308	0.216616	2.4074	-1.17927	-0.51187	0.40963	1.87541	-0.608737	0.264262	-0.223001	1.12967	-0.597555	-0.439664	-0.239432	0.383008	-0.38968	-0.665643	-0.232857	0.856079	
4.24194	0	0	-0.618025	1.49866	-0.544548	1.46133	103.87	38.6619	-0.244409	1.50418	86.254	48.5469	-0.207964	1.47825	-0.55545	0.684056	0.211868	2.42082	-1.18194	-0.504324	0.413722	1.8995	-0.613161	0.276765	-0.223123	1.15457	-0.605157	-0.418181	-0.225314	0.413973	-0.361725	-0.663136	-0.226398	0.880889	
4.24194	0	0	-0.616369	1.49398	-0.530398	1.4645	105.168	38.7304	-0.232658	1.50977	86.935	48.9537	-0.200219	1.48168	-0.561744	0.684029	0.223941	2.42671	-1.19216	-0.493774	0.410812	1.92557	-0.617591	0.289286	-0.223271	1.17958	-0.591715	-0.397135	-0.234576	0.463832	-0.336837	-0.651601	-0.217478	0.920465	
4.24042	0	0	-0.614714	1.4893	-0.516248	1.46768	106.466	38.7988	-0.220907	1.51537	87.6159	49.3605	-0.192475	1.48512	-0.568038	0.684002	0.236014	2.4326	-1.20238	-0.483224	0.407903	1.95164	-0.622022	0.301807	-0.223419	1.20459	-0.578273	-0.376088	-0.243839	0.51369	-0.311949	-0.640066	-0.208558	0.960041	
4.23889	0	0	-0.613058	1.48463	-0.502099	1.47085	107.765	38.8673	-0.209157	1.52096	88.2969	49.7673	-0.184731	1.48856	-0.574332	0.683975	0.248088	2.4385	-1.21261	-0.472673	0.404994	1.97771	-0.626452	0.314328	-0.223567	1.22959	-0.564831	-0.355042	-0.253101	0.563549	-0.287062	-0.628532	-0.199639	0.999617	
4.23889	0	0	-0.611402	1.47995	-0.487949	1.47403	109.063	38.9358	-0.197406	1.52656	88.9778	50.174	-0.176986	1.49199	-0.580626	0.683948	0.260161	2.44439	-1.22283	-0.462123	0.402084	2.00379	-0.630883	0.326849	-0.223715	1.2546	-0.551389	-0.333995	-0.262364	0.613408	-0.262174	-0.616997	-0.190719	1.03919	
4.23431	0	0	-0.602797	1.48512	-0.489463	1.49993	110.845	38.5799	-0.180345	1.5367	89.8249	50.4454	-0.182861	1.5086	-0.576238	0.689363	0.259846	2.46531	-1.22016	-0.469673	0.40411	2.01593	-0.63686	0.318724	-0.223715	1.2546	-0.572639	-0.303482	-0.265485	0.645939	-0.26859	-0.598864	-0.194264	1.07086	
4.23126	0	0	-0.594192	1.4903	-0.490978	1.52583	112.627	38.2241	-0.163285	1.54684	90.672	50.7168	-0.188737	1.5252	-0.571851	0.694778	0.259532	2.48624	-1.21749	-0.477224	0.406135	2.02807	-0.642837	0.3106	-0.223715	1.2546	-0.593888	-0.272969	-0.268605	0.67847	-0.275007	-0.580731	-0.197809	1.10252	
4.23126	0	0	-0.585587	1.49547	-0.492492	1.55173	114.409	37.8682	-0.146225	1.55698	91.519	50.9882	-0.194612	1.54181	-0.567463	0.700193	0.259217	2.50717	-1.21482	-0.484774	0.408161	2.04021	-0.648815	0.302475	-0.223715	1.2546	-0.615138	-0.242456	-0.271725	0.711001	-0.281423	-0.562598	-0.201355	1.13419	
4.23126	0	0	-0.576982	1.50065	-0.494006	1.57763	116.192	37.5124	-0.129164	1.56712	92.3661	51.2596	-0.200487	1.55841	-0.563075	0.705608	0.258903	2.52809	-1.21214	-0.492324	0.410187	2.05235	-0.654792	0.29435	-0.223715	1.2546	-0.636387	-0.211943	-0.274846	0.743532	-0.287839	-0.544465	-0.2049	1.16585	
4.22821	0	0	-0.575013	1.52462	-0.487018	1.60119	118.718	36.6398	-0.133715	1.59948	93.5171	51.1182	-0.198633	1.57853	-0.560594	0.716429	0.272271	2.55056	-1.21969	-0.489329	0.41796	2.06617	-0.653686	0.291224	-0.225151	1.25866	-0.618197	-0.233811	-0.273284	0.739116	-0.284629	-0.553536	-0.208852	1.15537	
4.22516	0	0	-0.573043	1.5486	-0.480029	1.62476	121.244	35.7671	-0.138266	1.63183	94.6681	50.9768	-0.196778	1.59865	-0.558113	0.727249	0.285639	2.57303	-1.22723	-0.486333	0.425733	2.07998	-0.65258	0.288098	-0.226587	1.26272	-0.600006	-0.255679	-0.271721	0.734701	-0.28142	-0.562607	-0.212803	1.1449	
4.22516	0	0	-0.571074	1.57257	-0.473041	1.64832	123.77	34.8945	-0.142817	1.66419	95.8191	50.8354	-0.194924	1.61876	-0.555633	0.73807	0.299006	2.59549	-1.23477	-0.483338	0.433506	2.0938	-0.651473	0.284971	-0.228023	1.26677	-0.581816	-0.277546	-0.270159	0.730286	-0.27821	-0.571678	-0.216755	1.13442	
4.22363	0	0	-0.569104	1.59655	-0.466053	1.67189	126.297	34.0219	-0.147368	1.69654	96.9701	50.694	-0.19307	1.63888	-0.553152	0.748891	0.312374	2.61796	-1.24232	-0.480343	0.441279	2.10762	-0.650367	0.281845	-0.229459	1.27083	-0.563625	-0.299414	-0.268597	0.72587	-0.275	-0.580749	-0.220707	1.12394	
4.22058	0	0	-0.582445	1.63425	-0.459072	1.69558	127.877	33.7129	-0.14174	1.71968	97.4786	51.0321	-0.189258	1.6535	-0.551631	0.762441	0.310422	2.6436	-1.2441	-0.475312	0.447812	2.12501	-0.662972	0.292485	-0.222439	1.27562	-0.586209	-0.294625	-0.263914	0.712636	-0.26859	-0.598864	-0.216207	1.11122	
4.21905	0	0	-0.595785	1.67195	-0.452091	1.71926	129.457	33.4039	-0.136112	1.74282	97.9871	51.3702	-0.185447	1.66812	-0.55011	0.775991	0.308471	2.66924	-1.24588	-0.47028	0.454345	2.1424	-0.675577	0.303125	-0.215419	1.2804	-0.608793	-0.289835	-0.259232	0.699402	-0.262181	-0.616979	-0.211706	1.09851	
4.21753	0	0	-0.609125	1.70965	-0.445109	1.74295	131.037	33.0949	-0.130484	1.76597	98.4956	51.7083	-0.181635	1.68274	-0.548588	0.789541	0.30652	2.69488	-1.24766	-0.465249	0.460878	2.15979	-0.688183	0.313765	-0.2084	1.28518	-0.631376	-0.285046	-0.254549	0.686169	-0.255771	-0.635094	-0.207206	1.08579	
4.21753	0	0	-0.622466	1.74735	-0.438128	1.76663	132.617	32.7859	-0.124856	1.78911	99.0041	52.0464	-0.177823	1.69736	-0.547067	0.803091	0.304568	2.72052	-1.24944	-0.460218	0.467411	2.17718	-0.700788	0.324405	-0.20138	1.28996	-0.65396	-0.280256	-0.249866	0.672935	-0.249361	-0.653209	-0.202706	1.07307	
4.21753	0	0	-0.608605	1.76741	-0.455371	1.79365	134.789	32.0058	-0.128569	1.7996	99.5653	52.4227	-0.173883	1.68623	-0.551857	0.816628	0.315088	2.7311	-1.25389	-0.447627	0.477698	2.18402	-0.693718	0.329408	-0.21559	1.3055	-0.650905	-0.288889	-0.257661	0.671254	-0.290245	-0.619535	-0.194243	1.0708	
4.21295	0	0	-0.594745	1.78746	-0.472614	1.82066	136.96	31.2257	-0.132281	1.81009	100.127	52.7989	-0.169942	1.67509	-0.556647	0.830166	0.325609	2.74168	-1.25835	-0.435037	0.487984	2.19087	-0.686648	0.334411	-0.229799	1.32104	-0.64785	-0.297521	-0.265457	0.669574	-0.331129	-0.58586	-0.185781	1.06853	
4.21142	0	0	-0.580884	1.80751	-0.489857	1.84767	139.132	30.4457	-0.135993	1.82059	100.688	53.1751	-0.166002	1.66396	-0.561437	0.843703	0.33613	2.75227	-1.2628	-0.422446	0.498271	2.19772	-0.679578	0.339414	-0.244009	1.33657	-0.644796	-0.306154	-0.273253	0.667893	-0.372014	-0.552185	-0.177318	1.06625	
4.20837	0	0	-0.567023	1.82756	-0.5071	1.87468	141.304	29.6656	-0.139706	1.83108	101.249	53.5514	-0.162062	1.65282	-0.566227	0.85724	0.34665	2.76285	-1.26726	-0.409855	0.508558	2.20457	-0.672508	0.344417	-0.258219	1.35211	-0.641741	-0.314787	-0.281048	0.666212	-0.412898	-0.518511	-0.168855	1.06398	
4.20685	0	0	-0.580663	1.83647	-0.522709	1.87543	144.54	28.073	-0.146553	1.81138	101.063	54.0769	-0.190943	1.60782	-0.574442	0.862608	0.354685	2.74014	-1.27351	-0.392198	0.518087	2.19563	-0.686223	0.358196	-0.266658	1.35137	-0.628166	-0.323657	-0.285721	0.655737	-0.416104	-0.509449	-0.163384	1.07019	
4.20837	0	0	-0.594302	1.84538	-0.538319	1.87617	147.776	26.4804	-0.1534	1.79168	100.877	54.6023	-0.219824	1.56283	-0.582657	0.867976	0.362719	2.71744	-1.27975	-0.374541	0.527616	2.18669	-0.699939	0.371974	-0.275096	1.35064	-0.614591	-0.332527	-0.290394	0.645261	-0.419311	-0.500387	-0.157912	1.0764	
4.2038	0	0	-0.607942	1.8543	-0.553929	1.87692	151.012	24.8878	-0.160248	1.77199	100.691	55.1278	-0.248706	1.51783	-0.590872	0.873344	0.370754	2.69473	-1.286	-0.356885	0.537145	2.17775	-0.713654	0.385752	-0.283535	1.3499	-0.601017	-0.341398	-0.295067	0.634786	-0.422517	-0.491325	-0.15244	1.0826	
4.2038	0	0	-0.621581	1.86321	-0.569538	1.87767	154.247	23.2953	-0.167095	1.75229	100.505	55.6533	-0.277587	1.47283	-0.599087	0.878712	0.378788	2.67202	-1.29225	-0.339228	0.546674	2.1688	-0.72737	0.399531	-0.291974	1.34916	-0.587442	-0.350268	-0.29974	0.624311	-0.425724	-0.482263	-0.146969	1.08881	
4.20227	0	0	-0.624939	1.8727	-0.566642	1.86949	154.076	23.7781	-0.176403	1.73963	101.317	55.5519	-0.300553	1.41197	-0.605378	0.878657	0.402492	2.62522	-1.29314	-0.336703	0.560394	2.13003	-0.725153	0.393266	-0.318651	1.35098	-0.590497	-0.341635	-0.307517	0.622638	-0.428934	-0.473192	-0.152982	1.10581	
4.20227	0	0	-0.628297	1.88219	-0.563746	1.8613	153.906	24.261	-0.185712	1.72697	102.13	55.4505	-0.323518	1.35111	-0.611668	0.878602	0.426195	2.57842	-1.29404	-0.334178	0.574114	2.09125	-0.722936	0.387001	-0.345329	1.35281	-0.593552	-0.333002	-0.315294	0.620966	-0.432144	-0.46412	-0.158996	1.1228	
4.20227	0	0	-0.631656	1.89168	-0.560849	1.85312	153.735	24.7438	-0.195021	1.71432	102.942	55.3491	-0.346484	1.29026	-0.617959	0.878548	0.449899	2.53162	-1.29493	-0.331652	0.587834	2.05248	-0.72072	0.380736	-0.372007	1.35463	-0.596606	-0.32437	-0.323071	0.619293	-0.435353	-0.455049	-0.16501	1.13979	
4.19769	0	0	-0.635014	1.90117	-0.557953	1.84493	153.564	25.2267	-0.204329	1.70166	103.754	55.2477	-0.36945	1.2294	-0.624249	0.878493	0.473602	2.48482	-1.29582	-0.329127	0.601554	2.0137	-0.718503	0.374471	-0.398684	1.35645	-0.599661	-0.315737	-0.330848	0.617621	-0.438563	-0.445978	-0.171023	1.15679	
4.19769	0	0	-0.63147	1.92079	-0.569363	1.85553	115.173	18.92	-0.209593	1.69708	104.688	55.0953	-0.409592	1.19304	-0.629575	0.875731	0.470962	2.45193	-1.30335	-0.326147	0.609414	1.9735	-0.725558	0.369458	-0.408295	1.33473	-0.614588	-0.332492	-0.344834	0.586372	-0.428944	-0.473164	-0.178944	1.13586	
4.19922	0	0	-0.627927	1.94041	-0.580773	1.86613	76.782	12.6133	-0.214856	1.6925	105.622	54.9429	-0.449734	1.15668	-0.634902	0.872969	0.468322	2.41903	-1.31089	-0.323167	0.617274	1.9333	-0.732612	0.364445	-0.417905	1.313	-0.629516	-0.349247	-0.35882	0.555124	-0.419324	-0.50035	-0.186864	1.11493	
4.19617	0	0	-0.624383	1.96003	-0.592183	1.87673	38.391	6.30667	-0.220119	1.68793	106.556	54.7905	-0.489876	1.12032	-0.640228	0.870206	0.465683	2.38613	-1.31842	-0.320187	0.625133	1.8931	-0.739667	0.359432	-0.427516	1.29128	-0.644443	-0.366002	-0.372806	0.523875	-0.409705	-0.527536	-0.194785	1.094	
4.19617	0	0	-0.620839	1.97965	-0.603593	1.88734	0	0	-0.225383	1.68335	107.49	54.6382	-0.530018	1.08396	-0.645554	0.867444	0.463043	2.35323	-1.32595	-0.317207	0.632993	1.8529	-0.746722	0.354419	-0.437127	1.26955	-0.65937	-0.382757	-0.386792	0.492627	-0.400086	-0.554722	-0.202706	1.07307	
4.19311	0	0	-0.607006	1.99997	-0.603593	1.88734	0	0	-0.224154	1.67988	107.379	54.9516	-0.541428	1.04176	-0.647469	0.872857	0.464877	2.3279	-1.31842	-0.320187	0.642883	1.82495	-0.755978	0.355661	-0.441217	1.25672	-0.672743	-0.40372	-0.382216	0.456161	-0.428012	-0.557312	-0.210626	1.05224	
4.19617	0	0	-0.593173	2.02029	-0.603593	1.88734	0	0	-0.222925	1.6764	107.268	55.2649	-0.552837	0.999551	-0.649384	0.878269	0.466712	2.30257	-1.31089	-0.323167	0.652774	1.797	-0.765234	0.356903	-0.445307	1.24388	-0.686115	-0.424682	-0.37764	0.419696	-0.455938	-0.559901	-0.218546	1.03141	
4.19006	0	0	-0.57934	2.0406	-0.603593	1.88734	0	0	-0.221697	1.67293	107.157	55.5783	-0.564247	0.957344	-0.651299	0.883682	0.468546	2.27724	-1.30335	-0.326147	0.662664	1.76905	-0.77449	0.358145	-0.449397	1.23105	-0.699488	-0.445644	-0.373063	0.38323	-0.483864	-0.562491	-0.226466	1.01057	
4.19311	0	0	-0.565507	2.06092	-0.603593	1.88734	0	0	-0.220468	1.66946	107.046	55.8917	-0.575657	0.915137	-0.653214	0.889094	0.470381	2.2519	-1.29582	-0.329127	0.672554	1.7411	-0.783746	0.359387	-0.453487	1.21821	-0.712861	-0.466607	-0.368487	0.346765	-0.51179	-0.56508	-0.234386	0.989742	
4.19311	0	0	-0.572178	2.10955	-0.614992	1.89793	0	0	-0.221697	1.67293	106.931	56.2165	-0.594641	0.894632	-0.663322	0.899862	0.459776	2.24165	-1.30604	-0.318569	0.673788	1.73761	-0.783746	0.359387	-0.452061	1.21418	-0.718781	-0.479183	-0.371629	0.332141	-0.502229	-0.592102	-0.218479	0.966382	
4.18854	0	0	-0.57885	2.15818	-0.626391	1.90853	0	0	-0.222925	1.6764	106.816	56.5413	-0.613625	0.874127	-0.67343	0.910631	0.449171	2.23139	-1.31625	-0.308011	0.675022	1.73412	-0.783746	0.359387	-0.450635	1.21015	-0.724702	-0.49176	-0.37477	0.317517	-0.492667	-0.619123	-0.202572	0.943021	
4.18548	0	0	-0.585521	2.20681	-0.63779	1.91912	0	0	-0.224154	1.67988	106.701	56.8661	-0.632609	0.853621	-0.683538	0.921399	0.438566	2.22114	-1.32646	-0.297454	0.676257	1.73063	-0.783746	0.359387	-0.44921	1.20612	-0.730622	-0.504336	-0.377911	0.302893	-0.483106	-0.646145	-0.186665	0.91966	
4.19006	0	0	-0.592192	2.25544	-0.649189	1.92972	0	0	-0.225383	1.68335	106.586	57.1909	-0.651593	0.833116	-0.693646	0.932167	0.427961	2.21088	-1.33668	-0.286896	0.677491	1.72715	-0.783746	0.359387	-0.447784	1.20209	-0.736543	-0.516913	-0.381053	0.288269	-0.473545	-0.673166	-0.170758	0.8963	
4.18854	0	0	-0.605849	2.29404	-0.647741	1.92563	0	0	-0.250957	1.69739	106.586	57.1909	-0.676158	0.828679	-0.697482	0.943008	0.421877	2.20799	-1.34115	-0.274252	0.675022	1.73412	-0.788172	0.371895	-0.452063	1.21419	-0.736543	-0.516913	-0.376375	0.29855	-0.476729	-0.664168	-0.168269	0.910886	
4.18396	0	0	-0.619506	2.33264	-0.646292	1.92153	0	0	-0.276531	1.71143	106.586	57.1909	-0.700724	0.824241	-0.701318	0.95385	0.415793	2.20511	-1.34562	-0.261607	0.672554	1.7411	-0.792598	0.384402	-0.456342	1.22628	-0.736543	-0.516913	-0.371696	0.308832	-0.479912	-0.655169	-0.16578	0.925472	
4.18396	0	0	-0.633164	2.37124	-0.644844	1.91744	0	0	-0.302105	1.72547	106.586	57.1909	-0.725289	0.819804	-0.705154	0.964692	0.409708	2.20222	-1.3501	-0.248963	0.670085	1.74808	-0.797023	0.39691	-0.460621	1.23837	-0.736543	-0.516913	-0.367018	0.319113	-0.483096	-0.646171	-0.163291	0.940057	
4.18243	0	0	-0.646821	2.40984	-0.643395	1.91334	0	0	-0.327679	1.73951	106.586	57.1909	-0.749854	0.815367	-0.70899	0.975533	0.403624	2.19933	-1.35457	-0.236319	0.667616	1.75505	-0.801449	0.409418	-0.4649	1.25046	-0.736543	-0.516913	-0.36234	0.329394	-0.48628	-0.637173	-0.160802	0.954643	
4.18396	0	0	-0.648532	2.41467	-0.67173	1.92871	0	0	-0.323995	1.7291	106.467	57.5279	-0.77056	0.800315	-0.716214	0.978169	0.403848	2.17864	-1.35726	-0.228724	0.672188	1.76012	-0.803664	0.415679	-0.460816	1.26332	-0.732139	-0.500052	-0.366909	0.365839	-0.458335	-0.634638	-0.164315	0.986217	
4.18548	0	0	-0.650244	2.41951	-0.700065	1.94408	0	0	-0.320312	1.71869	106.348	57.8649	-0.791266	0.785262	-0.723438	0.980804	0.404072	2.15795	-1.35995	-0.221129	0.676759	1.76519	-0.805879	0.421939	-0.456733	1.27617	-0.727734	-0.483191	-0.371478	0.402283	-0.430389	-0.632103	-0.167828	1.01779	
4.18243	0	0	-0.651956	2.42435	-0.7284	1.95945	0	0	-0.316628	1.70828	106.229	58.202	-0.811972	0.77021	-0.730663	0.98344	0.404295	2.13726	-1.36263	-0.213534	0.681331	1.77025	-0.808095	0.4282	-0.45265	1.28903	-0.723329	-0.466331	-0.376047	0.438727	-0.402444	-0.629569	-0.171342	1.04937	
4.18091	0	5	-0.653667	2.42918	-0.756735	1.97482	0	0	-0.312945	1.69787	106.109	58.539	-0.832678	0.755158	-0.737887	0.986076	0.404519	2.11656	-1.36532	-0.205939	0.685903	1.77532	-0.81031	0.43446	-0.448566	1.30188	-0.718925	-0.44947	-0.380616	0.475172	-0.374499	-0.627034	-0.174855	1.08094	
4.18396	0	5	-0.643366	2.42989	-0.748267	1.97243	0	0	-0.305247	1.69551	105.985	58.8893	-0.845815	0.743399	-0.737887	0.986076	0.39687	2.11814	-1.37105	-0.208034	0.68961	1.76484	-0.817334	0.429427	-0.454077	1.29306	-0.736967	-0.42779	-0.403821	0.517219	-0.421615	-0.575389	-0.186882	1.11493	
4.17938	0	5	-0.633064	2.4306	-0.739799	1.97004	0	0	-0.29755	1.69314	105.861	59.2396	-0.858952	0.73164	-0.737887	0.986076	0.38922	2.11972	-1.37678	-0.21013	0.693317	1.75437	-0.824358	0.424394	-0.459588	1.28424	-0.755008	-0.406111	-0.427025	0.559267	-0.468732	-0.523745	-0.198908	1.14892	
4.17633	0	5	-0.622762	2.43132	-0.73133	1.96766	0	0	-0.289852	1.69078	105.738	59.5898	-0.872089	0.719881	-0.737887	0.986076	0.381571	2.1213	-1.38251	-0.212225	0.697023	1.74389	-0.831382	0.419361	-0.465099	1.27542	-0.773049	-0.384432	-0.45023	0.601314	-0.515848	-0.4721	-0.210934	1.18291	
4.17938	0	5	-0.612461	2.43203	-0.722862	1.96527	0	0	-0.282154	1.68842	105.614	59.9401	-0.885226	0.708122	-0.737887	0.986076	0.373922	2.12288	-1.38824	-0.21432	0.70073	1.73342	-0.838406	0.414328	-0.47061	1.2666	-0.791091	-0.362752	-0.473434	0.643362	-0.562964	-0.420455	-0.222961	1.2169	
4.17633	0	5	-0.609011	2.45215	-0.710245	1.97278	0	0	-0.280594	1.70342	106.806	59.4412	-0.879621	0.692283	-0.741727	0.996927	0.381571	2.1213	-1.37893	-0.22235	0.701964	1.72993	-0.835089	0.404952	-0.478969	1.26586	-0.795461	-0.379664	-0.478058	0.632928	-0.550171	-0.456611	-0.215439	1.19564	
4.1748	0	5	-0.60556	2.47227	-0.697628	1.98028	0	0	-0.279035	1.71843	107.999	58.9423	-0.874017	0.676443	-0.745567	1.00778	0.38922	2.11972	-1.36961	-0.23038	0.703199	1.72644	-0.831771	0.395576	-0.487327	1.26512	-0.799832	-0.396575	-0.482682	0.622494	-0.537377	-0.492768	-0.207917	1.17438	
4.1748	0	5	-0.60211	2.49239	-0.68501	1.98779	0	0	-0.277475	1.73343	109.191	58.4434	-0.868413	0.660604	-0.749406	1.01863	0.39687	2.11814	-1.3603	-0.23841	0.704433	1.72295	-0.828453	0.3862	-0.495686	1.26438	-0.804202	-0.413486	-0.487306	0.612059	-0.524583	-0.528924	-0.200395	1.15312	
4.17328	0	5	-0.59866	2.51252	-0.672393	1.9953	0	0	-0.275915	1.74843	110.383	57.9445	-0.862808	0.644765	-0.753246	1.02948	0.404519	2.11656	-1.35099	-0.24644	0.705668	1.71946	-0.825136	0.376824	-0.504044	1.26364	-0.808572	-0.430398	-0.49193	0.601625	-0.51179	-0.56508	-0.192873	1.13186	
4.17633	0	5	-0.610718	2.54659	-0.696617	2.02059	0	0	-0.279609	1.75887	110.249	58.3246	-0.874036	0.652102	-0.748906	1.035	0.40137	2.12546	-1.35189	-0.24391	0.711485	1.72103	-0.835468	0.381174	-0.494258	1.26035	-0.811438	-0.451516	-0.476476	0.581452	-0.51179	-0.56508	-0.18387	1.10642	
4.17023	0	5	-0.622775	2.58067	-0.720841	2.04589	0	0	-0.283303	1.76931	110.114	58.7047	-0.885263	0.659438	-0.744567	1.04052	0.398221	2.13436	-1.35278	-0.241379	0.717302	1.72259	-0.845801	0.385524	-0.484472	1.25705	-0.814303	-0.472633	-0.461023	0.56128	-0.51179	-0.56508	-0.174868	1.08098	
4.17023	0	5	-0.634833	2.61475	-0.745065	2.07118	0	0	-0.286996	1.77975	109.98	59.0847	-0.896491	0.666775	-0.740228	1.04603	0.395072	2.14326	-1.35368	-0.238849	0.723119	1.72415	-0.856133	0.389875	-0.474686	1.25376	-0.817169	-0.49375	-0.445569	0.541108	-0.51179	-0.56508	-0.165865	1.05553	
4.17023	0	5	-0.646891	2.64882	-0.769289	2.09648	0	0	-0.29069	1.79019	109.845	59.4648	-0.907719	0.674111	-0.735888	1.05155	0.391923	2.15216	-1.35457	-0.236319	0.728936	1.72572	-0.866466	0.394225	-0.4649	1.25046	-0.820035	-0.514868	-0.430115	0.520935	-0.51179	-0.56508	-0.156862	1.03009	
4.16717	0	5	-0.655532	2.67324	-0.779205	2.10296	0	0	-0.299624	1.79603	109.705	59.8618	-0.917066	0.676165	-0.737812	1.05699	0.390347	2.15661	-1.35547	-0.233788	0.726464	1.73271	-0.866466	0.394225	-0.4649	1.25046	-0.818526	-0.519132	-0.439388	0.523639	-0.505412	-0.583103	-0.155364	1.02586	
4.16717	0	5	-0.664173	2.69766	-0.789122	2.10944	0	0	-0.308559	1.80187	109.565	60.2588	-0.926414	0.678218	-0.739735	1.06242	0.388772	2.16107	-1.35636	-0.231257	0.723993	1.73969	-0.866466	0.394225	-0.4649	1.25046	-0.817017	-0.523396	-0.448661	0.526344	-0.499035	-0.601127	-0.153866	1.02162	
4.16717	0	5	-0.672814	2.72208	-0.799038	2.11592	0	0	-0.317493	1.8077	109.424	60.6558	-0.935761	0.680271	-0.741659	1.06786	0.387196	2.16552	-1.35726	-0.228726	0.721521	1.74668	-0.866466	0.394225	-0.4649	1.25046	-0.815509	-0.527659	-0.457933	0.529048	-0.492657	-0.61915	-0.152368	1.01739	
4.16717	0	5	-0.681455	2.7465	-0.808954	2.1224	0	0	-0.326427	1.81354	109.284	61.0527	-0.945108	0.682325	-0.743583	1.0733	0.38562	2.16997	-1.35815	-0.226195	0.719049	1.75366	-0.866466	0.394225	-0.4649	1.25046	-0.814	-0.531923	-0.467206	0.531752	-0.48628	-0.637173	-0.15087	1.01316	
4.1626	0	5	-0.686563	2.73107	-0.793229	2.0995	0	0	-0.324284	1.78809	110.847	60.0315	-0.960038	0.675887	-0.744545	1.07602	0.379548	2.1671	-1.36926	-0.213098	0.715338	1.76415	-0.868676	0.400473	-0.477541	1.26183	-0.815509	-0.527659	-0.456389	0.524684	-0.489467	-0.628166	-0.153867	1.02162	
4.16565	0	5	-0.691671	2.71563	-0.777504	2.07661	0	0	-0.322141	1.76264	112.409	59.0102	-0.974967	0.66945	-0.745508	1.07874	0.373476	2.16422	-1.38036	-0.200001	0.711627	1.77464	-0.870887	0.40672	-0.490181	1.27319	-0.817017	-0.523396	-0.445572	0.517616	-0.492654	-0.619159	-0.156863	1.03009	
4.15954	0	5	-0.696779	2.70019	-0.761779	2.05371	0	0	-0.319997	1.73719	113.972	57.989	-0.989897	0.663013	-0.746471	1.08146	0.367404	2.16134	-1.39147	-0.186904	0.707916	1.78512	-0.873097	0.412967	-0.502822	1.28455	-0.818526	-0.519132	-0.434755	0.510548	-0.495842	-0.610152	-0.15986	1.03856	
4.16107	0	5	-0.701887	2.68476	-0.746054	2.03082	0	0	-0.317854	1.71175	115.535	56.9677	-1.00483	0.656575	-0.747433	1.08418	0.361332	2.15846	-1.40257	-0.173807	0.704205	1.79561	-0.875308	0.419215	-0.515463	1.29591	-0.820035	-0.514868	-0.423938	0.50348	-0.499029	-0.601145	-0.162857	1.04703	
4.15802	0	5	-0.694991	2.66527	-0.733226	2.01613	0	0	-0.311722	1.69442	115.388	57.3831	-1.0067	0.637614	-0.75273	1.08137	0.355267	2.15559	-1.40437	-0.168738	0.69925	1.80962	-0.876414	0.42234	-0.51832	1.30398	-0.827589	-0.493518	-0.427027	0.51221	-0.467896	-0.607617	-0.173368	1.07674	
4.15802	0	5	-0.688095	2.64578	-0.720398	2.00145	0	0	-0.30559	1.67708	115.241	57.7986	-1.00858	0.618654	-0.758028	1.07856	0.349201	2.15271	-1.40616	-0.16367	0.694295	1.82362	-0.87752	0.425465	-0.521177	1.31206	-0.835144	-0.472168	-0.430116	0.520939	-0.436764	-0.614089	-0.183879	1.10644	
4.15649	0	5	-0.6812	2.62629	-0.70757	1.98676	0	0	-0.299457	1.65975	115.094	58.214	-1.01046	0.599694	-0.763325	1.07575	0.343136	2.14984	-1.40795	-0.158602	0.68934	1.83762	-0.878625	0.428591	-0.524034	1.32013	-0.842699	-0.450819	-0.433205	0.529669	-0.405632	-0.620562	-0.194389	1.13615	
4.15802	0	5	-0.674304	2.6068	-0.694742	1.97208	0	0	-0.293325	1.64242	114.947	58.6295	-1.01234	0.580733	-0.768623	1.07294	0.337071	2.14696	-1.40975	-0.153533	0.684385	1.85163	-0.879731	0.431716	-0.526891	1.32821	-0.850253	-0.429469	-0.436294	0.538399	-0.374499	-0.627034	-0.2049	1.16585	
4.15497	0	5	-0.664001	2.60756	-0.696192	1.97618	0	0	-0.2921	1.63896	114.947	58.6295	-1.01423	0.56184	-0.768623	1.07294	0.347856	2.1365	-1.41546	-0.155641	0.678577	1.85004	-0.887837	0.429807	-0.532378	1.31938	-0.85631	-0.412353	-0.439386	0.547137	-0.377696	-0.618	-0.202456	1.18061	
4.15344	0	5	-0.653698	2.60831	-0.697642	1.98027	0	0	-0.290875	1.6355	114.947	58.6295	-1.01612	0.542947	-0.768623	1.07294	0.358642	2.12603	-1.42118	-0.157748	0.672769	1.84845	-0.895943	0.427898	-0.537864	1.31056	-0.862366	-0.395236	-0.442478	0.555876	-0.380893	-0.608965	-0.200011	1.19537	
4.15649	0	5	-0.643395	2.60907	-0.699092	1.98437	0	0	-0.28965	1.63204	114.947	58.6295	-1.01801	0.524054	-0.768623	1.07294	0.369427	2.11557	-1.4269	-0.159855	0.666961	1.84686	-0.904049	0.425989	-0.543351	1.30173	-0.868422	-0.378119	-0.44557	0.564615	-0.384089	-0.59993	-0.197566	1.21014	
4.15344	0	5	-0.633092	2.60982	-0.700542	1.98847	0	0	-0.288425	1.62857	114.947	58.6295	-1.0199	0.505161	-0.768623	1.07294	0.380212	2.10511	-1.43262	-0.161963	0.661153	1.84527	-0.912155	0.42408	-0.548838	1.29291	-0.874479	-0.361003	-0.448662	0.573353	-0.387286	-0.590896	-0.195122	1.2249	
4.15192	0	5	-0.629682	2.63011	-0.713371	2.00316	0	0	-0.292102	1.63896	114.793	59.0652	-1.0162	0.49471	-0.763325	1.07575	0.375492	2.11845	-1.43262	-0.161963	0.659914	1.84877	-0.899628	0.413494	-0.545986	1.28485	-0.878825	-0.377893	-0.461016	0.561291	-0.458958	-0.551009	-0.204522	1.20815	
4.15192	0	5	-0.626271	2.65039	-0.726201	2.01784	0	0	-0.295778	1.64935	114.639	59.5009	-1.0125	0.484258	-0.758028	1.07856	0.370772	2.13178	-1.43262	-0.161963	0.658675	1.85227	-0.887101	0.402909	-0.543135	1.27679	-0.88317	-0.394783	-0.473369	0.549229	-0.530631	-0.511123	-0.213922	1.1914	
4.15039	0	5	-0.62286	2.67067	-0.73903	2.03253	0	0	-0.299454	1.65975	114.485	59.9367	-1.00881	0.473807	-0.75273	1.08137	0.366052	2.14512	-1.43262	-0.161963	0.657436	1.85577	-0.874574	0.392323	-0.540283	1.26873	-0.887516	-0.411672	-0.485723	0.537166	-0.602303	-0.471237	-0.223322	1.17465	
4.14886	0	5	-0.61945	2.69095	-0.751859	2.04722	0	0	-0.303131	1.67014	114.331	60.3724	-1.00511	0.463356	-0.747433	1.08418	0.361332	2.15846	-1.43262	-0.161963	0.656197	1.85927	-0.862047	0.381737	-0.537431	1.26067	-0.891861	-0.428562	-0.498076	0.525104	-0.673975	-0.43135	-0.232722	1.1579	
4.14734	0	5	-0.619524	2.72113	-0.746289	2.05305	0	0	-0.300343	1.68165	114.331	60.3724	-1.00696	0.46858	-0.750322	1.09234	0.362673	2.17471	-1.43352	-0.15943	0.659523	1.86788	-0.873469	0.389201	-0.527658	1.25738	-0.887331	-0.441366	-0.491913	0.507687	-0.630239	-0.473799	-0.228218	1.14517	
4.15039	0	5	-0.619598	2.75131	-0.740719	2.05888	0	0	-0.297555	1.69316	114.331	60.3724	-1.00881	0.473804	-0.753211	1.10051	0.364013	2.19096	-1.43441	-0.156896	0.662848	1.87648	-0.884891	0.396664	-0.517885	1.25409	-0.8828	-0.45417	-0.48575	0.49027	-0.586502	-0.516247	-0.223713	1.13244	
4.14581	0	5	-0.619672	2.78149	-0.735149	2.0647	0	0	-0.294767	1.70467	114.331	60.3724	-1.01065	0.479029	-0.756099	1.10867	0.365353	2.20721	-1.43531	-0.154363	0.666174	1.88509	-0.896314	0.404128	-0.508112	1.2508	-0.87827	-0.466973	-0.479588	0.472852	-0.542766	-0.558696	-0.219209	1.11971	
4.15192	0	5	-0.619746	2.81167	-0.729579	2.07053	0	0	-0.291979	1.71619	114.331	60.3724	-1.0125	0.484253	-0.758988	1.11684	0.366694	2.22346	-1.43621	-0.15183	0.6695	1.89369	-0.907736	0.411592	-0.498339	1.24752	-0.873739	-0.479777	-0.473425	0.455435	-0.499029	-0.601145	-0.214704	1.10698	
4.15039	0	5	-0.630186	2.84117	-0.732487	2.07875	0	0	-0.295667	1.72661	114.169	60.8305	-1.01435	0.48948	-0.753688	1.11965	0.360374	2.24132	-1.438	-0.146761	0.669095	1.91286	-0.899629	0.413498	-0.50262	1.25961	-0.858804	-0.492814	-0.474965	0.459786	-0.499029	-0.601145	-0.204742	1.10047	
4.15192	0	5	-0.640627	2.87068	-0.735396	2.08697	0	0	-0.299355	1.73703	114.006	61.2886	-1.0162	0.494707	-0.748388	1.12247	0.354054	2.25919	-1.43979	-0.141693	0.668689	1.93203	-0.891522	0.415404	-0.506901	1.27171	-0.84387	-0.50585	-0.476504	0.464137	-0.499029	-0.601145	-0.194779	1.09396	
4.15649	0	5	-0.651068	2.90019	-0.738305	2.09519	0	0	-0.303043	1.74745	113.844	61.7466	-1.01805	0.499934	-0.743088	1.12529	0.347734	2.27705	-1.44159	-0.136625	0.668284	1.9512	-0.883415	0.417309	-0.511182	1.28381	-0.828935	-0.518887	-0.478043	0.468489	-0.499029	-0.601145	-0.184817	1.08745	
4.15954	0	5	-0.661508	2.92969	-0.741213	2.10341	0	0	-0.306731	1.75788	113.682	62.2047	-1.0199	0.505161	-0.737788	1.12811	0.341414	2.29491	-1.44338	-0.131556	0.667879	1.97036	-0.875308	0.419215	-0.515463	1.29591	-0.814	-0.531923	-0.479583	0.47284	-0.499029	-0.601145	-0.174855	1.08094	
4.15802	0	5	-0.658024	2.91985	-0.733947	2.08288	0	0	-0.309512	1.74634	113.844	61.7466	-1.02175	0.510391	-0.746944	1.13619	0.341414	2.29491	-1.44517	-0.126485	0.660403	1.99149	-0.87752	0.425467	-0.52261	1.31611	-0.830444	-0.514621	-0.473403	0.478847	-0.464703	-0.616643	-0.170889	1.0914	
4.15954	0	5	-0.65454	2.91	-0.726681	2.06234	0	0	-0.312292	1.73481	114.006	61.2886	-1.0236	0.515621	-0.7561	1.14427	0.341414	2.29491	-1.44697	-0.121414	0.652926	2.01262	-0.879732	0.431719	-0.529758	1.33631	-0.846888	-0.497318	-0.467223	0.484853	-0.430377	-0.63214	-0.166923	1.10186	
4.16717	0	5	-0.651056	2.90015	-0.719415	2.04181	0	0	-0.315073	1.72328	114.169	60.8305	-1.02545	0.520852	-0.765256	1.15235	0.341414	2.29491	-1.44876	-0.116342	0.64545	2.03375	-0.881944	0.43797	-0.536906	1.35651	-0.863333	-0.480015	-0.461043	0.49086	-0.396051	-0.647638	-0.162956	1.11232	
4.1687	0	5	-0.647572	2.89031	-0.712149	2.02127	0	0	-0.317854	1.71175	114.331	60.3724	-1.0273	0.526082	-0.774412	1.16043	0.341414	2.29491	-1.45056	-0.111271	0.637973	2.05488	-0.884156	0.444222	-0.544053	1.37671	-0.879777	-0.462713	-0.454863	0.496867	-0.361725	-0.663136	-0.15899	1.12278	
4.1748	0	5	-0.656146	2.88457	-0.717725	2.01546	0	0	-0.312947	1.69788	114.169	60.8305	-1.02176	0.510401	-0.769593	1.14681	0.32614	2.29802	-1.45806	-0.108318	0.624684	2.07442	-0.8989	0.461071	-0.537136	1.38153	-0.872396	-0.454402	-0.46413	0.523057	-0.405632	-0.620562	-0.159546	1.14605	
4.17633	0	5	-0.664721	2.87883	-0.723301	2.00965	0	0	-0.308041	1.68401	114.006	61.2886	-1.01621	0.494719	-0.764773	1.13319	0.310866	2.30113	-1.46556	-0.105366	0.611396	2.09395	-0.913643	0.477921	-0.53022	1.38634	-0.865015	-0.446091	-0.473396	0.549246	-0.449538	-0.577989	-0.160101	1.16931	
4.17633	0	5	-0.673296	2.8731	-0.728877	2.00384	0	0	-0.303134	1.67014	113.844	61.7466	-1.01066	0.479038	-0.759954	1.11957	0.295592	2.30424	-1.47307	-0.102413	0.598108	2.11348	-0.928387	0.49477	-0.523303	1.39116	-0.857634	-0.43778	-0.482663	0.575435	-0.493445	-0.535415	-0.160656	1.19258	
4.17938	0	0	-0.68187	2.86736	-0.734453	1.99803	0	0	-0.298227	1.65628	113.682	62.2047	-1.00511	0.463356	-0.755135	1.10595	0.280318	2.30735	-1.48057	-0.09946	0.584819	2.13302	-0.94313	0.511619	-0.516386	1.39597	-0.850253	-0.429469	-0.49193	0.601625	-0.537351	-0.492841	-0.161212	1.21585	
4.18243	0	0	-0.680132	2.86245	-0.744369	2.00451	0	0	-0.300679	1.66321	113.682	62.2047	-0.995803	0.461291	-0.753209	1.1005	0.281898	2.30289	-1.48448	-0.106646	0.577782	2.1349	-0.92728	0.491643	-0.523303	1.39116	-0.857825	-0.408068	-0.501224	0.627891	-0.54696	-0.465682	-0.161791	1.2392	
4.18854	0	0	-0.678395	2.85754	-0.754285	2.01099	0	0	-0.303132	1.67014	113.682	62.2047	-0.986496	0.459227	-0.751284	1.09506	0.283477	2.29842	-1.48839	-0.113832	0.570744	2.13679	-0.911431	0.471668	-0.53022	1.38634	-0.865398	-0.386667	-0.510518	0.654157	-0.55657	-0.438524	-0.16237	1.26256	
4.18854	0	0	-0.676657	2.85263	-0.764201	2.01746	0	0	-0.305585	1.67707	113.682	62.2047	-0.97719	0.457163	-0.749359	1.08962	0.285057	2.29396	-1.4923	-0.121017	0.563707	2.13867	-0.895581	0.451692	-0.537136	1.38153	-0.87297	-0.365267	-0.519812	0.680424	-0.56618	-0.411365	-0.162949	1.28592	
4.19464	0	0	-0.674919	2.84772	-0.774117	2.02394	0	0	-0.308037	1.684	113.682	62.2047	-0.967884	0.455098	-0.747433	1.08418	0.286637	2.2895	-1.49621	-0.128203	0.55667	2.14055	-0.879731	0.431716	-0.544053	1.37671	-0.880542	-0.343866	-0.529106	0.70669	-0.575789	-0.384207	-0.163528	1.30927	
4.19311	0	0	-0.681876	2.86738	-0.777018	2.03214	0	0	-0.298776	1.69663	113.682	62.2047	-0.954789	0.466658	-0.74213	1.08699	0.281896	2.30289	-1.49173	-0.140854	0.547142	2.14949	-0.876415	0.422343	-0.544053	1.37671	-0.869946	-0.373813	-0.524455	0.693547	-0.569379	-0.402322	-0.15748	1.29218	
4.19769	0	0	-0.688832	2.88704	-0.779918	2.04034	0	0	-0.289516	1.70926	113.682	62.2047	-0.941695	0.478218	-0.736827	1.0898	0.277154	2.31629	-1.48725	-0.153506	0.537614	2.15843	-0.873098	0.412971	-0.544053	1.37671	-0.859349	-0.403759	-0.519805	0.680405	-0.56297	-0.420436	-0.151432	1.27509	
4.20074	0	0	-0.695788	2.9067	-0.782818	2.04853	0	0	-0.280255	1.72189	113.682	62.2047	-0.928601	0.489779	-0.731525	1.09261	0.272413	2.32969	-1.48278	-0.166157	0.528086	2.16737	-0.869782	0.403598	-0.544053	1.37671	-0.848753	-0.433706	-0.515154	0.667262	-0.556561	-0.438551	-0.145385	1.258	
4.19922	0	0	-0.702745	2.92636	-0.785719	2.05673	0	0	-0.270994	1.73453	113.682	62.2047	-0.915506	0.501339	-0.726222	1.09543	0.267672	2.34309	-1.4783	-0.178808	0.518558	2.17631	-0.866466	0.394225	-0.544053	1.37671	-0.838157	-0.463653	-0.510504	0.654119	-0.550151	-0.456666	-0.139337	1.24091	
4.20074	0	0	-0.702911	2.95679	-0.783065	2.07078	0	0	-0.266657	1.76115	115.595	60.9548	-0.909829	0.533988	-0.722843	1.10369	0.265794	2.36842	-1.48009	-0.17375	0.528869	2.18316	-0.868676	0.400473	-0.525909	1.37419	-0.832118	-0.48072	-0.508956	0.649742	-0.540561	-0.48377	-0.137827	1.23664	
4.2038	0	0	-0.703077	2.98723	-0.780412	2.08482	0	0	-0.26232	1.78778	117.508	59.7049	-0.904151	0.566638	-0.719465	1.11196	0.263916	2.39374	-1.48188	-0.168691	0.539181	2.19001	-0.870887	0.40672	-0.507764	1.37167	-0.826078	-0.497788	-0.507407	0.645366	-0.530971	-0.510873	-0.136317	1.23237	
4.2038	0	0	-0.703243	3.01767	-0.777759	2.09887	0	0	-0.257983	1.81441	119.421	58.455	-0.898474	0.599287	-0.716087	1.12022	0.262039	2.41906	-1.48367	-0.163632	0.549492	2.19686	-0.873097	0.412967	-0.489619	1.36915	-0.820039	-0.514856	-0.505858	0.640989	-0.52138	-0.537977	-0.134806	1.2281	
4.2038	0	0	-0.703409	3.04811	-0.775105	2.11292	0	0	-0.253646	1.84103	121.334	57.205	-0.892796	0.631936	-0.712708	1.12849	0.260161	2.44439	-1.48546	-0.158574	0.559804	2.20371	-0.875308	0.419215	-0.471475	1.36663	-0.814	-0.531923	-0.50431	0.636612	-0.51179	-0.56508	-0.133296	1.22384	
4.20227	0	0	-0.715674	3.08277	-0.778015	2.12114	0	0	-0.254582	1.86315	121.163	57.6879	-0.885275	0.659504	-0.709329	1.13677	0.258254	2.46981	-1.47886	-0.158996	0.556811	2.23019	-0.867189	0.421121	-0.478648	1.3869	-0.815509	-0.527659	-0.496591	0.6383	-0.477467	-0.580569	-0.120825	1.23211	
4.20227	0	0	-0.727939	3.11743	-0.780925	2.12936	0	0	-0.255517	1.88527	120.992	58.1707	-0.877754	0.687071	-0.70595	1.14505	0.256347	2.49524	-1.47226	-0.159419	0.553817	2.25667	-0.859071	0.423026	-0.485822	1.40717	-0.817017	-0.523396	-0.488872	0.639987	-0.443144	-0.596057	-0.108354	1.24038	
4.20532	0	0	-0.740203	3.1521	-0.783834	2.13759	0	0	-0.256453	1.90739	120.821	58.6536	-0.870234	0.714639	-0.70257	1.15334	0.254441	2.52067	-1.46566	-0.159841	0.550824	2.28316	-0.850952	0.424932	-0.492995	1.42745	-0.818526	-0.519132	-0.481153	0.641674	-0.408822	-0.611545	-0.095883	1.24865	
4.20227	0	5	-0.752468	3.18676	-0.786744	2.14581	0	0	-0.257389	1.92951	120.65	59.1364	-0.862713	0.742206	-0.699191	1.16162	0.252534	2.5461	-1.45905	-0.160264	0.547831	2.30964	-0.842833	0.426838	-0.500169	1.44772	-0.820035	-0.514868	-0.473434	0.643362	-0.374499	-0.627034	-0.083412	1.25693	
4.20532	0	5	-0.745454	3.16694	-0.776817	2.13932	0	0	-0.25615	1.926	120.65	59.1364	-0.85708	0.750746	-0.699191	1.16162	0.250941	2.5506	-1.46834	-0.152249	0.541542	2.32741	-0.845047	0.433096	-0.507359	1.46804	-0.811118	-0.510851	-0.481192	0.665288	-0.380896	-0.608956	-0.0824732	1.27607	
4.20685	0	5	-0.73844	3.14711	-0.766889	2.13284	0	0	-0.254911	1.9225	120.65	59.1364	-0.851447	0.759286	-0.699191	1.16162	0.249347	2.5551	-1.47763	-0.144234	0.535254	2.34518	-0.847262	0.439354	-0.514549	1.48836	-0.802202	-0.506833	-0.488951	0.687215	-0.387293	-0.590878	-0.0815345	1.29521	
4.20227	0	5	-0.731425	3.12729	-0.756961	2.12635	0	0	-0.253672	1.919	120.65	59.1364	-0.845815	0.767825	-0.699191	1.16162	0.247754	2.5596	-1.48692	-0.136218	0.528965	2.36295	-0.849476	0.445613	-0.521739	1.50868	-0.793285	-0.502816	-0.496709	0.709141	-0.393689	-0.5728	-0.0805958	1.31436	
4.20532	0	5	-0.724411	3.10746	-0.747034	2.11986	0	0	-0.252433	1.9155	120.65	59.1364	-0.840182	0.776365	-0.699191	1.16162	0.246161	2.56411	-1.49621	-0.128203	0.522677	2.38073	-0.85169	0.451871	-0.528929	1.529	-0.784369	-0.498799	-0.504467	0.731067	-0.400086	-0.554722	-0.079657	1.3335	
4.20532	0	5	-0.707094	3.08854	-0.74849	2.12398	0	0	-0.236959	1.91077	120.65	59.1364	-0.82891	0.768999	-0.699191	1.16162	0.2538	2.56258	-1.50101	-0.132847	0.525194	2.37361	-0.847263	0.439359	-0.521739	1.50868	-0.791777	-0.50708	-0.505976	0.71183	-0.428012	-0.557312	-0.0851392	1.3272	
4.2038	0	5	-0.689777	3.06962	-0.749945	2.12809	0	0	-0.221485	1.90605	120.65	59.1364	-0.817638	0.761634	-0.699191	1.16162	0.261439	2.56105	-1.50581	-0.137491	0.52771	2.3665	-0.842835	0.426847	-0.514549	1.48836	-0.799184	-0.515361	-0.507486	0.692593	-0.455938	-0.559901	-0.0906215	1.32089	
4.19922	0	5	-0.672461	3.0507	-0.751401	2.13221	0	0	-0.20601	1.90132	120.65	59.1364	-0.806365	0.754269	-0.699191	1.16162	0.269077	2.55952	-1.51061	-0.142136	0.530227	2.35939	-0.838408	0.414334	-0.507359	1.46804	-0.806592	-0.523642	-0.508995	0.673356	-0.483864	-0.562491	-0.0961038	1.31459	
4.20227	0	5	-0.655144	3.03177	-0.752857	2.13632	0	0	-0.190536	1.89659	120.65	59.1364	-0.795093	0.746903	-0.699191	1.16162	0.276716	2.55799	-1.51541	-0.14678	0.532744	2.35227	-0.833981	0.401822	-0.500169	1.44772	-0.814	-0.531923	-0.510504	0.654119	-0.51179	-0.56508	-0.101586	1.30829	
4.20074	0	5	-0.670709	3.04575	-0.745832	2.13806	0	0	-0.193016	1.9036	120.65	59.1364	-0.785683	0.744833	-0.692909	1.16172	0.281172	2.56548	-1.50435	-0.159842	0.534002	2.34872	-0.830665	0.392449	-0.495863	1.43555	-0.816885	-0.55294	-0.499679	0.623527	-0.502229	-0.592102	-0.102526	1.28917	
4.19922	0	5	-0.686275	3.05972	-0.738806	2.1398	0	0	-0.195497	1.91061	120.65	59.1364	-0.776273	0.742762	-0.686627	1.16181	0.285628	2.57297	-1.49328	-0.172905	0.535259	2.34517	-0.827349	0.383077	-0.491557	1.42338	-0.81977	-0.573958	-0.488855	0.592936	-0.492667	-0.619123	-0.103466	1.27006	
4.19617	0	5	-0.70184	3.07369	-0.731781	2.14154	0	0	-0.197977	1.91762	120.65	59.1364	-0.766863	0.740691	-0.680346	1.16191	0.290084	2.58046	-1.48221	-0.185968	0.536517	2.34161	-0.824032	0.373704	-0.487251	1.41121	-0.822656	-0.594975	-0.478031	0.562344	-0.483106	-0.646145	-0.104406	1.25094	
4.19922	0	5	-0.717406	3.08767	-0.724756	2.14328	0	0	-0.200457	1.92463	120.65	59.1364	-0.757453	0.738621	-0.674064	1.162	0.29454	2.58795	-1.47114	-0.19903	0.537775	2.33806	-0.820716	0.364331	-0.482945	1.39904	-0.825541	-0.615992	-0.467206	0.531752	-0.473545	-0.673166	-0.105346	1.23183	
4.19769	0	5	-0.708847	3.0935	-0.723299	2.13916	0	0	-0.191466	1.91876	120.65	59.1364	-0.757453	0.738621	-0.675031	1.16474	0.298999	2.59545	-1.46936	-0.204083	0.535259	2.34517	-0.821821	0.367454	-0.470268	1.38764	-0.834439	-0.619969	-0.4703	0.517024	-0.473545	-0.673166	-0.110824	1.22556	
4.19311	0	5	-0.700288	3.09932	-0.721842	2.13504	0	0	-0.182476	1.91288	120.65	59.1364	-0.757453	0.738621	-0.675998	1.16747	0.303457	2.60295	-1.46757	-0.209136	0.532744	2.35228	-0.822926	0.370578	-0.457592	1.37624	-0.843337	-0.623947	-0.473394	0.502296	-0.473545	-0.673166	-0.116303	1.2193	
4.19617	0	5	-0.691729	3.10515	-0.720384	2.13093	0	0	-0.173486	1.90701	120.65	59.1364	-0.757453	0.738621	-0.676965	1.1702	0.307916	2.61045	-1.46578	-0.214188	0.530228	2.35939	-0.824031	0.373701	-0.444915	1.36484	-0.852236	-0.627924	-0.476489	0.487568	-0.473545	-0.673166	-0.121781	1.21304	
4.19464	0	5	-0.68317	3.11098	-0.718927	2.12681	0	0	-0.164495	1.90114	120.65	59.1364	-0.757453	0.738621	-0.677932	1.17294	0.312374	2.61796	-1.46399	-0.219241	0.527712	2.3665	-0.825136	0.376824	-0.432238	1.35345	-0.861134	-0.631902	-0.479583	0.47284	-0.473545	-0.673166	-0.127259	1.20677	
4.19006	0	5	-0.684734	3.08538	-0.723044	2.11685	0	0	-0.163576	1.879	120.65	59.1364	-0.7537	0.728015	-0.683247	1.17011	0.306318	2.61497	-1.47059	-0.218812	0.527712	2.3665	-0.824031	0.373701	-0.432238	1.35345	-0.84923	-0.636417	-0.478043	0.468489	-0.470364	-0.682155	-0.11876	1.2045	
4.18701	0	5	-0.686298	3.05979	-0.727161	2.10689	0	0	-0.162656	1.85687	120.65	59.1364	-0.749947	0.717409	-0.688562	1.16728	0.300262	2.61198	-1.47719	-0.218384	0.527712	2.3665	-0.822926	0.370578	-0.432238	1.35345	-0.837327	-0.640933	-0.476504	0.464137	-0.467183	-0.691144	-0.110261	1.20222	
4.18854	0	5	-0.687862	3.03419	-0.731278	2.09693	0	0	-0.161737	1.83474	120.65	59.1364	-0.746195	0.706802	-0.693876	1.16445	0.294207	2.60899	-1.48378	-0.217955	0.527712	2.3665	-0.821821	0.367454	-0.432238	1.35345	-0.825423	-0.645448	-0.474965	0.459786	-0.464003	-0.700133	-0.101761	1.19995	
4.18548	0	5	-0.689426	3.00859	-0.735395	2.08697	0	0	-0.160818	1.81261	120.65	59.1364	-0.742442	0.696196	-0.699191	1.16162	0.288151	2.606	-1.49038	-0.217527	0.527712	2.3665	-0.820716	0.364331	-0.432238	1.35345	-0.81352	-0.649964	-0.473425	0.455435	-0.460822	-0.709122	-0.093262	1.19768	
4.18243	0	5	-0.691015	2.98311	-0.729584	2.07054	0	0	-0.161154	1.79404	120.65	59.1364	-0.742497	0.671827	-0.693398	1.14525	0.283697	2.59851	-1.49162	-0.232225	0.526959	2.3506	-0.827737	0.359323	-0.448979	1.35194	-0.828427	-0.63696	-0.473425	0.455435	-0.464003	-0.700133	-0.104781	1.20848	
4.17938	0	5	-0.692605	2.95764	-0.723772	2.05412	0	0	-0.161489	1.77548	120.65	59.1364	-0.742552	0.647458	-0.687605	1.12888	0.279244	2.59101	-1.49286	-0.246923	0.526206	2.33471	-0.834758	0.354315	-0.46572	1.35042	-0.843334	-0.623955	-0.473425	0.455435	-0.467183	-0.691144	-0.1163	1.21929	
4.18091	0	5	-0.694194	2.93216	-0.717961	2.0377	0	0	-0.161824	1.75691	120.65	59.1364	-0.742606	0.62309	-0.681813	1.11251	0.27479	2.58352	-1.4941	-0.261621	0.525453	2.31882	-0.841779	0.349307	-0.48246	1.34891	-0.858242	-0.61095	-0.473425	0.455435	-0.470364	-0.682155	-0.127818	1.2301	
4.17786	0	5	-0.695783	2.90668	-0.712149	2.02127	0	0	-0.16216	1.73835	120.65	59.1364	-0.742661	0.598721	-0.67602	1.09613	0.270337	2.57602	-1.49534	-0.276319	0.5247	2.30292	-0.8488	0.344299	-0.499201	1.3474	-0.873149	-0.597946	-0.473425	0.455435	-0.473545	-0.673166	-0.139337	1.24091	
4.17633	0	5	-0.678512	2.88784	-0.716276	2.01137	0	0	-0.148249	1.71854	120.65	59.1364	-0.746467	0.584986	-0.670238	1.07979	0.276711	2.55801	-1.50494	-0.285515	0.523937	2.28707	-0.854711	0.336185	-0.490626	1.32317	-0.870145	-0.606435	-0.4796	0.449445	-0.470364	-0.682155	-0.1563	1.24543	
4.17633	0	5	-0.66124	2.869	-0.720403	2.00146	0	0	-0.134338	1.69874	120.65	59.1364	-0.750273	0.571252	-0.664455	1.06345	0.283085	2.53999	-1.51455	-0.29471	0.523175	2.27122	-0.860621	0.328071	-0.48205	1.29893	-0.867142	-0.614924	-0.485776	0.443454	-0.467183	-0.691144	-0.173262	1.24995	
4.1748	0	5	-0.643968	2.85015	-0.724529	1.99155	0	0	-0.120428	1.67894	120.65	59.1364	-0.754079	0.557517	-0.658673	1.04711	0.28946	2.52198	-1.52415	-0.303906	0.522412	2.25537	-0.866532	0.319957	-0.473475	1.2747	-0.864138	-0.623413	-0.491951	0.437464	-0.464003	-0.700133	-0.190225	1.25448	
4.17023	0	5	-0.626697	2.83131	-0.728656	1.98164	0	0	-0.106517	1.65914	120.65	59.1364	-0.757885	0.543783	-0.652891	1.03077	0.295834	2.50396	-1.53376	-0.313102	0.521649	2.23953	-0.872442	0.311843	-0.4649	1.25046	-0.861134	-0.631902	-0.498127	0.431474	-0.460822	-0.709122	-0.207188	1.259	
4.17023	0	5	-0.628436	2.83622	-0.727208	1.97755	0	0	-0.114267	1.66153	120.65	59.1364	-0.756021	0.538516	-0.650966	1.02533	0.295834	2.50396	-1.52932	-0.325657	0.526655	2.22538	-0.869139	0.302509	-0.450819	1.23506	-0.865524	-0.648576	-0.491985	0.414116	-0.488652	-0.711628	-0.195138	1.22495	
4.17175	0	5	-0.630174	2.84114	-0.725759	1.97346	0	0	-0.122016	1.66392	120.65	59.1364	-0.754158	0.533249	-0.649041	1.01989	0.295834	2.50396	-1.52487	-0.338213	0.531661	2.21123	-0.865837	0.293176	-0.436738	1.21966	-0.869914	-0.66525	-0.485843	0.396759	-0.516482	-0.714133	-0.183089	1.19089	
4.1687	0	5	-0.631913	2.84605	-0.72431	1.96936	0	0	-0.129766	1.66631	120.65	59.1364	-0.752294	0.527981	-0.647116	1.01445	0.295834	2.50396	-1.52043	-0.350768	0.536667	2.19708	-0.862534	0.283842	-0.422656	1.20426	-0.874303	-0.681923	-0.479701	0.379401	-0.544312	-0.716639	-0.17104	1.15684	
4.16717	0	5	-0.633652	2.85096	-0.722862	1.96527	0	0	-0.137516	1.6687	120.65	59.1364	-0.75043	0.522714	-0.645191	1.00901	0.295834	2.50396	-1.51599	-0.363323	0.541673	2.18294	-0.859231	0.274509	-0.408575	1.18886	-0.878693	-0.698597	-0.473559	0.362043	-0.572142	-0.719145	-0.15899	1.12278	
4.16412	0	5	-0.642359	2.87557	-0.734227	1.97584	0	0	-0.133463	1.67676	120.47	59.6469	-0.746619	0.536436	-0.636976	1.00364	0.300297	2.51143	-1.50674	-0.371294	0.536667	2.19708	-0.848909	0.270155	-0.424084	1.2083	-0.860821	-0.720025	-0.464304	0.359329	-0.531621	-0.752505	-0.165959	1.12081	
4.16412	0	5	-0.651067	2.90018	-0.745591	1.98642	0	0	-0.12941	1.68481	120.289	60.1574	-0.742809	0.550158	-0.628761	0.99827	0.30476	2.5189	-1.49749	-0.379265	0.531661	2.21123	-0.838588	0.265802	-0.439592	1.22773	-0.84295	-0.741453	-0.455048	0.356615	-0.491101	-0.785865	-0.172927	1.11883	
4.16412	0	5	-0.659775	2.92479	-0.756956	1.99699	0	0	-0.125356	1.69287	120.109	60.6678	-0.738999	0.56388	-0.620545	0.992902	0.309223	2.52637	-1.48825	-0.387236	0.526655	2.22538	-0.828266	0.261449	-0.455101	1.24717	-0.825078	-0.762881	-0.445793	0.353901	-0.45058	-0.819225	-0.179895	1.11686	
4.15954	0	5	-0.668482	2.9494	-0.76832	2.00756	0	0	-0.121303	1.70093	119.928	61.1783	-0.735188	0.577602	-0.61233	0.987534	0.313686	2.53384	-1.479	-0.395207	0.521649	2.23953	-0.817944	0.257095	-0.47061	1.2666	-0.807206	-0.784309	-0.436538	0.351187	-0.410059	-0.852585	-0.186864	1.11488	
4.15649	0	5	-0.677214	2.97408	-0.756956	1.99699	0	0	-0.117248	1.709	119.928	61.1783	-0.729509	0.586075	-0.62536	1.00651	0.308899	2.54736	-1.48433	-0.380143	0.521156	2.25892	-0.823452	0.272662	-0.458151	1.28021	-0.810197	-0.775856	-0.436496	0.374541	-0.410059	-0.852585	-0.172918	1.11883	
4.15344	0	5	-0.685945	2.99875	-0.745591	1.98642	0	0	-0.113193	1.71708	119.928	61.1783	-0.723829	0.594548	-0.63839	1.02548	0.304113	2.56089	-1.48966	-0.365078	0.520663	2.27832	-0.82896	0.288228	-0.445692	1.29382	-0.813188	-0.767403	-0.436454	0.397895	-0.410059	-0.852585	-0.158973	1.12279	
4.15039	0	5	-0.694677	3.02343	-0.734227	1.97584	0	0	-0.109138	1.72515	119.928	61.1783	-0.71815	0.603022	-0.65142	1.04446	0.299327	2.57442	-1.49499	-0.350014	0.52017	2.29772	-0.834468	0.303795	-0.433232	1.30743	-0.816179	-0.75895	-0.436412	0.421249	-0.410059	-0.852585	-0.145027	1.12674	
4.14886	0	5	-0.703409	3.04811	-0.722862	1.96527	0	0	-0.105083	1.73323	119.928	61.1783	-0.712471	0.611495	-0.66445	1.06344	0.29454	2.58795	-1.50032	-0.33495	0.519677	2.31712	-0.839976	0.319362	-0.420773	1.32105	-0.81917	-0.750497	-0.43637	0.444603	-0.410059	-0.852585	-0.131081	1.13069	
4.15192	0	5	-0.713707	3.04724	-0.739788	1.97004	0	0	-0.111605	1.73212	119.928	61.1783	-0.718089	0.627372	-0.657199	1.06079	0.298999	2.59545	-1.50388	-0.324893	0.520427	2.33302	-0.835161	0.330604	-0.418122	1.33801	-0.813255	-0.738088	-0.42552	0.460975	-0.378882	-0.859184	-0.123136	1.1517	
4.14581	0	5	-0.724004	3.04638	-0.756713	1.97481	0	0	-0.118126	1.73102	119.928	61.1783	-0.723707	0.643249	-0.649948	1.05815	0.303457	2.60295	-1.50744	-0.314836	0.521177	2.34892	-0.830346	0.341846	-0.415471	1.35498	-0.80734	-0.72568	-0.414671	0.477347	-0.347704	-0.865783	-0.115192	1.17272	
4.14429	0	5	-0.734301	3.04551	-0.773639	1.97958	0	0	-0.124648	1.72992	119.928	61.1783	-0.729324	0.659125	-0.642696	1.0555	0.307916	2.61045	-1.511	-0.304779	0.521927	2.36482	-0.825531	0.353089	-0.412821	1.37195	-0.801425	-0.713272	-0.403821	0.493719	-0.316527	-0.872382	-0.107247	1.19373	
4.14429	0	5	-0.744599	3.04464	-0.790564	1.98435	0	0	-0.13117	1.72882	119.928	61.1783	-0.734942	0.675002	-0.635445	1.05286	0.312374	2.61796	-1.51456	-0.294722	0.522677	2.38073	-0.820716	0.364331	-0.41017	1.38891	-0.79551	-0.700863	-0.392972	0.510091	-0.28535	-0.878981	-0.099302	1.21475	
4.14429	0	5	-0.729059	3.0307	-0.789118	1.98026	0	0	-0.123414	1.72643	119.928	61.1783	-0.721766	0.662322	-0.636409	1.05558	0.320037	2.61643	-1.52291	-0.28926	0.521418	2.38429	-0.832153	0.371804	-0.411606	1.39297	-0.7926	-0.679917	-0.397618	0.546782	-0.298066	-0.843043	-0.0913568	1.23586	
4.14276	0	5	-0.71352	3.01675	-0.787671	1.97617	0	0	-0.115657	1.72404	119.928	61.1783	-0.708591	0.649641	-0.637374	1.05831	0.3277	2.61489	-1.53127	-0.283798	0.520158	2.38784	-0.843591	0.379278	-0.413043	1.39703	-0.78969	-0.658971	-0.402263	0.583474	-0.310782	-0.807105	-0.0834115	1.25698	
4.13818	0	5	-0.697981	3.0028	-0.786224	1.97208	0	0	-0.107901	1.72166	119.928	61.1783	-0.695415	0.636961	-0.638338	1.06103	0.335363	2.61336	-1.53963	-0.278336	0.518899	2.3914	-0.855028	0.386752	-0.41448	1.40109	-0.786779	-0.638024	-0.406909	0.620166	-0.323499	-0.771167	-0.0754662	1.27809	
4.13666	0	0	-0.682441	2.98885	-0.784778	1.96799	0	0	-0.100145	1.71927	119.928	61.1783	-0.68224	0.624281	-0.639302	1.06376	0.343026	2.61183	-1.54799	-0.272874	0.51764	2.39496	-0.866466	0.394225	-0.415916	1.40515	-0.783869	-0.617078	-0.411555	0.656857	-0.336215	-0.735229	-0.067521	1.2992	
4.1336	0	0	-0.672119	2.9897	-0.766404	1.95913	0	0	-0.102615	1.72625	119.928	61.1783	-0.674672	0.62748	-0.632043	1.06111	0.347495	2.61935	-1.54621	-0.277904	0.513859	2.40565	-0.865361	0.391103	-0.415916	1.40515	-0.792784	-0.621054	-0.410002	0.65247	-0.333031	-0.744227	-0.074522	1.29719	
4.1336	0	0	-0.661798	2.99054	-0.74803	1.95027	0	0	-0.105084	1.73323	119.928	61.1783	-0.667103	0.63068	-0.624785	1.05846	0.351963	2.62686	-1.54443	-0.282934	0.510078	2.41633	-0.864256	0.387981	-0.415916	1.40515	-0.801699	-0.62503	-0.40845	0.648083	-0.329847	-0.753225	-0.081523	1.29518	
4.13208	0	0	-0.651476	2.99139	-0.729655	1.9414	0	0	-0.107554	1.74021	119.928	61.1783	-0.659535	0.633879	-0.617526	1.05582	0.356432	2.63438	-1.54265	-0.287963	0.506298	2.42702	-0.863152	0.384859	-0.415916	1.40515	-0.810614	-0.629006	-0.406898	0.643695	-0.326664	-0.762223	-0.088524	1.29317	
4.13055	0	0	-0.641154	2.99224	-0.711281	1.93254	0	0	-0.110024	1.74719	119.928	61.1783	-0.651967	0.637078	-0.610267	1.05317	0.360901	2.6419	-1.54087	-0.292993	0.502517	2.4377	-0.862047	0.381737	-0.415916	1.40515	-0.819529	-0.632982	-0.405345	0.639308	-0.32348	-0.771221	-0.095525	1.29116	
4.13055	0	0	-0.646402	3.00707	-0.701354	1.92605	0	0	-0.104732	1.75179	119.928	61.1783	-0.653843	0.642379	-0.604931	1.05597	0.365373	2.64943	-1.53998	-0.295507	0.507035	2.44297	-0.85061	0.374263	-0.407519	1.40592	-0.816525	-0.641471	-0.403793	0.634923	-0.320299	-0.78021	-0.0824645	1.27604	
4.12903	0	0	-0.651649	3.0219	-0.691426	1.91957	0	0	-0.09944	1.75639	119.928	61.1783	-0.655719	0.647681	-0.599595	1.05878	0.369845	2.65696	-1.53909	-0.298021	0.511552	2.44825	-0.839172	0.36679	-0.399122	1.40668	-0.813522	-0.64996	-0.402242	0.630537	-0.317118	-0.789199	-0.069404	1.26093	
4.12445	0	0	-0.656897	3.03673	-0.681499	1.91308	0	0	-0.094148	1.76099	119.928	61.1783	-0.657595	0.652983	-0.59426	1.06158	0.374316	2.66449	-1.5382	-0.300535	0.516069	2.45352	-0.827735	0.359317	-0.390726	1.40744	-0.810518	-0.65845	-0.40069	0.626152	-0.313938	-0.798188	-0.0563435	1.24582	
4.12903	0	0	-0.662145	3.05156	-0.671571	1.90659	0	0	-0.088856	1.76559	119.928	61.1783	-0.659471	0.658284	-0.588924	1.06438	0.378788	2.67202	-1.53731	-0.303049	0.520587	2.45879	-0.816297	0.351843	-0.382329	1.4082	-0.807514	-0.666939	-0.399138	0.621767	-0.310757	-0.807177	-0.043283	1.2307	
4.12445	0	0	-0.658829	3.07225	-0.691415	1.91956	0	0	-0.0835593	1.77019	119.928	61.1783	-0.651895	0.661492	-0.576303	1.06453	0.381655	2.68411	-1.53163	-0.300967	0.520048	2.47837	-0.820718	0.364338	-0.388087	1.42447	-0.812021	-0.654202	-0.391384	0.623445	-0.348273	-0.782663	-0.0362675	1.2327	
4.1214	0	0	-0.655512	3.09295	-0.711259	1.93253	0	0	-0.0782625	1.7748	119.928	61.1783	-0.644318	0.6647	-0.563681	1.06468	0.384521	2.6962	-1.52594	-0.298886	0.519509	2.49795	-0.825139	0.376833	-0.393846	1.44075	-0.816527	-0.641466	-0.38363	0.625123	-0.38579	-0.75815	-0.029252	1.23469	
4.12292	0	0	-0.652196	3.11364	-0.731102	1.94549	0	0	-0.0729658	1.7794	119.928	61.1783	-0.636741	0.667909	-0.55106	1.06483	0.387387	2.70829	-1.52025	-0.296804	0.51897	2.51753	-0.82956	0.389327	-0.399604	1.45702	-0.821034	-0.628729	-0.375876	0.6268	-0.423306	-0.733636	-0.0222365	1.23669	
4.1214	0	0	-0.64888	3.13433	-0.750946	1.95846	0	0	-0.067669	1.78401	119.928	61.1783	-0.629165	0.671117	-0.538439	1.06498	0.390254	2.72038	-1.51456	-0.294722	0.518431	2.53711	-0.833981	0.401822	-0.405363	1.4733	-0.825541	-0.615992	-0.368122	0.628478	-0.460822	-0.709122	-0.015221	1.23869	
4.11987	0	0	-0.64888	3.13433	-0.746608	1.9462	0	0	-0.0729658	1.7794	119.928	61.1783	-0.617818	0.663703	-0.547652	1.0731	0.396339	2.72339	-1.51901	-0.282135	0.524932	2.5549	-0.839516	0.417465	-0.404179	1.49447	-0.806194	-0.612283	-0.365024	0.643343	-0.432857	-0.706642	-0.015787	1.26213	
4.11529	0	0	-0.64888	3.13433	-0.742271	1.93394	0	0	-0.0782625	1.7748	119.928	61.1783	-0.606472	0.656289	-0.556866	1.08122	0.402424	2.72641	-1.52346	-0.269548	0.531434	2.5727	-0.845052	0.433108	-0.402994	1.51565	-0.786846	-0.608574	-0.361926	0.658209	-0.404892	-0.704161	-0.016353	1.28558	
4.11224	0	0	-0.64888	3.13433	-0.737933	1.92168	0	0	-0.0835593	1.77019	119.928	61.1783	-0.595125	0.648875	-0.56608	1.08934	0.408509	2.72942	-1.52792	-0.256961	0.537935	2.59049	-0.850587	0.448751	-0.40181	1.53683	-0.767498	-0.604865	-0.358828	0.673075	-0.376928	-0.701681	-0.016919	1.30903	
4.11224	0	5	-0.64888	3.13433	-0.733595	1.90942	0	0	-0.088856	1.76559	119.928	61.1783	-0.583778	0.641461	-0.575293	1.09746	0.414594	2.73244	-1.53237	-0.244374	0.544436	2.60828	-0.856122	0.464394	-0.400626	1.558	-0.748151	-0.601156	-0.35573	0.68794	-0.348963	-0.699201	-0.017485	1.33248	
