4.63104	0	0	-0.145715	0.187623	-0.228919	0.194654	-0.171021	0.051204	-0.11321	0.108104	-0.11996	-0.043266	-0.339832	-0.182667	-0.19616	-0.223816	-0.050677	-0.746506	-0.120339	0.042781	0.052768	-0.397888	-0.049542	0.058166	-0.511717	-0.214172	0.094385	0.296674	-0.283573	0.050686	-0.217988	-0.207606	-0.554023	-0.104255	
4.62952	0	0	-0.151597	0.204246	-0.224265	0.214205	-0.175485	0.0638197	-0.122809	0.135232	-0.114629	-0.0373703	-0.339832	-0.182667	-0.200533	-0.211459	-0.0494892	-0.749863	-0.121925	0.0472632	0.0633063	-0.410883	-0.049542	0.058166	-0.508989	-0.221881	0.0751185	0.313458	-0.284972	0.0546382	-0.262753	-0.178356	-0.556473	-0.097332	
4.63714	0	0	-0.157479	0.220869	-0.21961	0.233756	-0.179949	0.0764355	-0.132408	0.162361	-0.109297	-0.0314745	-0.339832	-0.182667	-0.204905	-0.199101	-0.0483015	-0.753219	-0.123511	0.0517455	0.0738445	-0.423878	-0.049542	0.058166	-0.506261	-0.22959	0.055852	0.330243	-0.28637	0.0585905	-0.307518	-0.149105	-0.558922	-0.090409	
4.64325	0	0	-0.16336	0.237491	-0.214955	0.253307	-0.184413	0.0890512	-0.142006	0.189489	-0.103966	-0.0255787	-0.339832	-0.182667	-0.209278	-0.186744	-0.0471138	-0.756576	-0.125097	0.0562277	0.0843828	-0.436873	-0.049542	0.058166	-0.503534	-0.237298	0.0365855	0.347028	-0.287768	0.0625427	-0.352283	-0.119855	-0.561372	-0.083486	
4.64935	0	0	-0.169242	0.254114	-0.210301	0.272858	-0.188877	0.101667	-0.151605	0.216617	-0.098635	-0.019683	-0.339832	-0.182667	-0.21365	-0.174387	-0.045926	-0.759933	-0.126683	0.06071	0.094921	-0.449868	-0.049542	0.058166	-0.500806	-0.245007	0.017319	0.363812	-0.289167	0.066495	-0.397048	-0.090604	-0.563821	-0.076563	
4.65546	0	0	-0.16777	0.249955	-0.223271	0.276809	-0.186198	0.0940955	-0.156326	0.213438	-0.099715	-0.0166302	-0.361926	-0.168231	-0.214525	-0.171913	-0.0447388	-0.763289	-0.129063	0.0674373	0.0871945	-0.444819	-0.0523055	0.065976	-0.514806	-0.229933	0.0153868	0.369273	-0.285	0.0789855	-0.359879	-0.0983867	-0.560327	-0.0655225	
4.66156	0	0	-0.166299	0.245797	-0.236241	0.280759	-0.183519	0.086524	-0.161046	0.210259	-0.100795	-0.0135775	-0.38402	-0.153794	-0.2154	-0.16944	-0.0435515	-0.766644	-0.131444	0.0741645	0.079468	-0.439771	-0.055069	0.073786	-0.528806	-0.214859	0.0134545	0.374733	-0.280833	0.091476	-0.322711	-0.106169	-0.556833	-0.054482	
4.66461	0	0	-0.164828	0.241638	-0.249212	0.28471	-0.180839	0.0789525	-0.165766	0.207079	-0.101875	-0.0105247	-0.406114	-0.139357	-0.216276	-0.166966	-0.0423642	-0.769999	-0.133824	0.0808917	0.0717415	-0.434723	-0.0578325	0.081596	-0.542805	-0.199784	0.0115222	0.380194	-0.276665	0.103967	-0.285542	-0.113952	-0.553338	-0.0434415	
4.66614	0	0	-0.163356	0.237479	-0.262182	0.28866	-0.17816	0.071381	-0.170487	0.2039	-0.102955	-0.007472	-0.428208	-0.124921	-0.217151	-0.164493	-0.041177	-0.773355	-0.136205	0.087619	0.064015	-0.429674	-0.060596	0.089406	-0.556805	-0.18471	0.00959	0.385654	-0.272498	0.116457	-0.248373	-0.121735	-0.549844	-0.032401	
4.67224	0	0	-0.161885	0.233322	-0.262182	0.28866	-0.184493	0.0697028	-0.175203	0.200724	-0.101875	-0.0105247	-0.42476	-0.134665	-0.225319	-0.159156	-0.04861	-0.771077	-0.142841	0.0885067	0.0619118	-0.440502	-0.0750642	0.0988597	-0.566698	-0.18121	0.00765675	0.391118	-0.278111	0.13232	-0.248373	-0.121735	-0.566845	-0.00526925	
4.67529	0	0	-0.160415	0.229166	-0.262182	0.28866	-0.190826	0.0680245	-0.179919	0.197548	-0.100795	-0.0135775	-0.421312	-0.144409	-0.233487	-0.153818	-0.056043	-0.768799	-0.149477	0.0893945	0.0598085	-0.451329	-0.0895325	0.108314	-0.576591	-0.177709	0.0057235	0.396582	-0.283724	0.148182	-0.248373	-0.121735	-0.583846	0.0218625	
4.67377	0	0	-0.158944	0.22501	-0.262182	0.28866	-0.197158	0.0663462	-0.184635	0.194372	-0.099715	-0.0166302	-0.417865	-0.154153	-0.241655	-0.148481	-0.063476	-0.766521	-0.156112	0.0902823	0.0577052	-0.462157	-0.104001	0.117767	-0.586485	-0.174208	0.00379025	0.402045	-0.289336	0.164045	-0.248373	-0.121735	-0.600848	0.0489943	
4.67834	0	0	-0.157473	0.220853	-0.262182	0.28866	-0.203491	0.064668	-0.189351	0.191196	-0.098635	-0.019683	-0.414417	-0.163897	-0.249823	-0.143144	-0.070909	-0.764243	-0.162748	0.09117	0.055602	-0.472985	-0.118469	0.127221	-0.596378	-0.170708	0.001857	0.407509	-0.294949	0.179907	-0.248373	-0.121735	-0.617849	0.076126	
4.67987	0	0	-0.157473	0.220853	-0.266348	0.300434	-0.211599	0.0680285	-0.188392	0.188484	-0.098635	-0.019683	-0.421998	-0.166426	-0.24253	-0.146007	-0.0732832	-0.757533	-0.161162	0.0866868	0.0506937	-0.475871	-0.115706	0.119411	-0.595015	-0.174562	-0.0135102	0.41335	-0.294949	0.179907	-0.293138	-0.0924845	-0.609453	0.073314	
4.67834	0	0	-0.157473	0.220853	-0.270514	0.312208	-0.219708	0.071389	-0.187433	0.185773	-0.098635	-0.019683	-0.42958	-0.168955	-0.235238	-0.14887	-0.0756575	-0.750823	-0.159575	0.0822035	0.0457855	-0.478757	-0.112942	0.111601	-0.593651	-0.178415	-0.0288775	0.419191	-0.294949	0.179907	-0.337902	-0.063234	-0.601058	0.070502	
4.67377	0	0	-0.157473	0.220853	-0.274681	0.323982	-0.227816	0.0747495	-0.186473	0.183062	-0.098635	-0.019683	-0.437161	-0.171485	-0.227945	-0.151733	-0.0780318	-0.744114	-0.157989	0.0777202	0.0408773	-0.481643	-0.110178	0.103792	-0.592287	-0.182268	-0.0442447	0.425031	-0.294949	0.179907	-0.382667	-0.0339835	-0.592662	0.06769	
4.67682	0	0	-0.157473	0.220853	-0.278847	0.335756	-0.235924	0.07811	-0.185514	0.18035	-0.098635	-0.019683	-0.444743	-0.174014	-0.220653	-0.154596	-0.080406	-0.737404	-0.156403	0.073237	0.035969	-0.484529	-0.107415	0.095982	-0.590924	-0.186122	-0.059612	0.430872	-0.294949	0.179907	-0.427432	-0.004733	-0.584266	0.064878	
4.67377	0	0	-0.160415	0.229168	-0.267966	0.33771	-0.228708	0.0772705	-0.178877	0.178098	-0.0922175	-0.0168333	-0.435439	-0.176353	-0.223281	-0.147169	-0.0702905	-0.728515	-0.156403	0.073237	0.0436815	-0.489568	-0.107415	0.095982	-0.592287	-0.182268	-0.0442447	0.425031	-0.28517	0.176569	-0.427432	-0.004733	-0.580789	0.0759927	
4.67377	0	0	-0.163357	0.237484	-0.257085	0.339664	-0.221492	0.076431	-0.17224	0.175846	-0.0858	-0.0139835	-0.426135	-0.178692	-0.225909	-0.139742	-0.060175	-0.719626	-0.156403	0.073237	0.051394	-0.494608	-0.107415	0.095982	-0.593651	-0.178415	-0.0288775	0.419191	-0.27539	0.173232	-0.427432	-0.004733	-0.577313	0.0871075	
4.67071	0	0	-0.1663	0.245799	-0.246204	0.341618	-0.214275	0.0755915	-0.165603	0.173594	-0.0793825	-0.0111337	-0.416831	-0.181031	-0.228536	-0.132316	-0.0500595	-0.710737	-0.156403	0.073237	0.0591065	-0.499648	-0.107415	0.095982	-0.595015	-0.174562	-0.0135103	0.41335	-0.265611	0.169894	-0.427432	-0.004733	-0.573836	0.0982223	
4.66766	0	0	-0.169242	0.254114	-0.235323	0.343572	-0.207059	0.074752	-0.158966	0.171342	-0.072965	-0.008284	-0.407527	-0.18337	-0.231164	-0.124889	-0.039944	-0.701848	-0.156403	0.073237	0.066819	-0.504687	-0.107415	0.095982	-0.596378	-0.170708	0.001857	0.407509	-0.255832	0.166556	-0.427432	-0.004733	-0.57036	0.109337	
4.67071	0	0	-0.170714	0.258275	-0.237411	0.349472	-0.206167	0.072231	-0.158966	0.171342	-0.0762098	0.0008865	-0.400969	-0.153898	-0.232917	-0.119934	-0.0456218	-0.667036	-0.156403	0.073237	0.0565245	-0.475593	-0.110178	0.103792	-0.576229	-0.154177	0.001857	0.407509	-0.241862	0.175769	-0.435047	0.0167865	-0.538085	0.123175	
4.65546	0	0	-0.172186	0.262435	-0.239499	0.355373	-0.205275	0.06971	-0.158966	0.171342	-0.0794545	0.010057	-0.394412	-0.124425	-0.234671	-0.11498	-0.0512995	-0.632224	-0.156403	0.073237	0.04623	-0.446499	-0.112942	0.111601	-0.55608	-0.137647	0.001857	0.407509	-0.227892	0.184982	-0.442661	0.038306	-0.50581	0.137012	
4.65851	0	0	-0.173658	0.266595	-0.241586	0.361274	-0.204383	0.067189	-0.158966	0.171342	-0.0826993	0.0192275	-0.387854	-0.0949533	-0.236424	-0.110025	-0.0569773	-0.597413	-0.156403	0.073237	0.0359355	-0.417404	-0.115706	0.119411	-0.535932	-0.121116	0.001857	0.407509	-0.213922	0.194195	-0.450275	0.0598255	-0.473535	0.150849	
4.65393	0	0	-0.17513	0.270756	-0.243674	0.367174	-0.203491	0.064668	-0.158966	0.171342	-0.085944	0.028398	-0.381297	-0.065481	-0.238177	-0.105071	-0.062655	-0.562601	-0.156403	0.073237	0.025641	-0.38831	-0.118469	0.127221	-0.515783	-0.104585	0.001857	0.407509	-0.199952	0.203408	-0.45789	0.081345	-0.44126	0.164687	
4.6463	0	0	-0.188329	0.27938	-0.243674	0.367174	-0.209816	0.0629902	-0.171274	0.173132	-0.0956033	0.0347095	-0.380629	-0.0433202	-0.246345	-0.0997337	-0.067188	-0.531004	-0.156403	0.073237	0.0249125	-0.369479	-0.106767	0.125584	-0.495238	-0.0642302	0.013271	0.450659	-0.195949	0.265376	-0.45408	0.0705787	-0.444759	0.153519	
4.64783	0	0	-0.201527	0.288004	-0.243674	0.367174	-0.216141	0.0613125	-0.183583	0.174923	-0.105263	0.041021	-0.379962	-0.0211595	-0.254513	-0.0943965	-0.071721	-0.499408	-0.156403	0.073237	0.024184	-0.350648	-0.095064	0.123947	-0.474693	-0.0238755	0.024685	0.493808	-0.191945	0.327344	-0.450271	0.0598125	-0.448259	0.142351	
4.66156	0	0	-0.214725	0.296629	-0.243674	0.367174	-0.222467	0.0596348	-0.195891	0.176713	-0.114922	0.0473325	-0.379294	0.00100125	-0.262681	-0.0890593	-0.076254	-0.467811	-0.156403	0.073237	0.0234555	-0.331817	-0.0833615	0.12231	-0.454148	0.0164793	0.036099	0.536958	-0.187942	0.389311	-0.446462	0.0490462	-0.451759	0.131184	
4.66614	5	0	-0.227924	0.305253	-0.243674	0.367174	-0.228792	0.057957	-0.2082	0.178504	-0.124581	0.053644	-0.378626	0.023162	-0.270849	-0.083722	-0.080787	-0.436214	-0.156403	0.073237	0.022727	-0.312986	-0.071659	0.120673	-0.433603	0.056834	0.047513	0.580108	-0.183939	0.451279	-0.442652	0.03828	-0.455258	0.120016	
4.66003	5	0	-0.213253	0.292468	-0.243674	0.367174	-0.211674	0.048708	-0.200539	0.156854	-0.119253	0.0595747	-0.3821	0.0329813	-0.269972	-0.0861998	-0.0892025	-0.412431	-0.17124	0.0794867	0.012371	-0.283718	-0.0902805	0.141865	-0.430251	0.096765	0.053208	0.601831	-0.172915	0.493693	-0.442652	0.03828	-0.456495	0.123513	
4.65851	5	0	-0.198583	0.279683	-0.243674	0.367174	-0.194556	0.039459	-0.192879	0.135204	-0.113926	0.0655055	-0.385575	0.0428005	-0.269096	-0.0886775	-0.097618	-0.388648	-0.186076	0.0857365	0.002015	-0.254451	-0.108902	0.163056	-0.426899	0.136696	0.058903	0.623555	-0.16189	0.536107	-0.442652	0.03828	-0.457733	0.127011	
4.64935	5	0	-0.183913	0.266899	-0.243674	0.367174	-0.177438	0.03021	-0.185219	0.113554	-0.108599	0.0714363	-0.389049	0.0526198	-0.268219	-0.0911552	-0.106034	-0.364864	-0.200913	0.0919863	-0.008341	-0.225184	-0.127524	0.184248	-0.423546	0.176627	0.064598	0.645278	-0.150866	0.57852	-0.442652	0.03828	-0.458971	0.130508	
4.6402	5	0	-0.169242	0.254114	-0.243674	0.367174	-0.16032	0.020961	-0.177558	0.091904	-0.103271	0.077367	-0.392523	0.062439	-0.267342	-0.093633	-0.114449	-0.341081	-0.21575	0.098236	-0.018697	-0.195916	-0.146145	0.20544	-0.420194	0.216558	0.070293	0.667001	-0.139842	0.620934	-0.442652	0.03828	-0.460208	0.134006	
4.6402	5	0	-0.16777	0.249955	-0.243674	0.367174	-0.153976	0.0226287	-0.180362	0.0833543	-0.107609	0.0896258	-0.401854	0.0647605	-0.27375	-0.093254	-0.126708	-0.325219	-0.208335	0.0951133	-0.02625	-0.17457	-0.135835	0.20774	-0.411316	0.241003	0.0430947	0.706049	-0.123083	0.647433	-0.405511	0.030575	-0.471367	0.165544	
4.63562	5	0	-0.166299	0.245797	-0.243674	0.367174	-0.147633	0.0242965	-0.183167	0.0748045	-0.111947	0.101884	-0.411185	0.067082	-0.280158	-0.092875	-0.138967	-0.309358	-0.200921	0.0919905	-0.033803	-0.153224	-0.125526	0.210039	-0.402437	0.265447	0.0158965	0.745097	-0.106324	0.673933	-0.36837	0.02287	-0.482527	0.197082	
4.62494	5	0	-0.164828	0.241638	-0.243674	0.367174	-0.14129	0.0259643	-0.185971	0.0662548	-0.116284	0.114143	-0.420515	0.0694035	-0.286565	-0.092496	-0.151227	-0.293497	-0.193506	0.0888677	-0.041356	-0.131878	-0.115216	0.212338	-0.393559	0.289891	-0.0113017	0.784145	-0.089565	0.700432	-0.331228	0.015165	-0.493687	0.228621	
4.62646	5	0	-0.163356	0.237479	-0.243674	0.367174	-0.134946	0.027632	-0.188775	0.057705	-0.120622	0.126402	-0.429846	0.071725	-0.292973	-0.092117	-0.163486	-0.277635	-0.186091	0.085745	-0.048909	-0.110532	-0.104907	0.214638	-0.38468	0.314336	-0.0385	0.823193	-0.072806	0.726931	-0.294087	0.00746	-0.504846	0.260159	
4.62341	5	0	-0.153081	0.237161	-0.215579	0.353355	-0.129488	0.0318237	-0.194442	0.0572592	-0.112037	0.123151	-0.4409	0.078948	-0.292973	-0.092117	-0.174535	-0.265177	-0.196678	0.0978317	-0.0583758	-0.0837778	-0.12354	0.235861	-0.375803	0.338915	-0.026984	0.828466	-0.0773273	0.764394	-0.354154	0.0799577	-0.49665	0.279136	
4.61578	5	0	-0.142806	0.236843	-0.187483	0.339537	-0.124031	0.0360155	-0.200109	0.0568135	-0.103453	0.119899	-0.451954	0.086171	-0.292973	-0.092117	-0.185584	-0.252718	-0.207264	0.109919	-0.0678425	-0.0570235	-0.142172	0.257083	-0.366925	0.363494	-0.015468	0.833738	-0.0818485	0.801858	-0.414222	0.152455	-0.488455	0.298113	
4.61273	5	0	-0.13253	0.236524	-0.159387	0.325718	-0.118573	0.0402072	-0.205776	0.0563678	-0.0948678	0.116648	-0.463008	0.093394	-0.292973	-0.092117	-0.196632	-0.24026	-0.217851	0.122005	-0.0773092	-0.0302693	-0.160805	0.278305	-0.358047	0.388072	-0.003952	0.839011	-0.0863697	0.839322	-0.474289	0.224953	-0.480259	0.317091	
4.60968	5	0	-0.122255	0.236206	-0.131292	0.311899	-0.113115	0.044399	-0.211443	0.055922	-0.086283	0.113397	-0.474062	0.100617	-0.292973	-0.092117	-0.207681	-0.227801	-0.228437	0.134092	-0.086776	-0.003515	-0.179438	0.299528	-0.34917	0.412651	0.007564	0.844284	-0.090891	0.876785	-0.534357	0.297451	-0.472063	0.336068	
4.60205	5	0	-0.122255	0.236206	-0.131292	0.311899	-0.115795	0.0519748	-0.203867	0.0509717	-0.0894465	0.101327	-0.468855	0.0859002	-0.284813	-0.097449	-0.208887	-0.224392	-0.230818	0.140821	-0.0943698	0.0179463	-0.182217	0.307383	-0.358994	0.440416	-0.009842	0.855657	-0.0782713	0.89059	-0.459969	0.282255	-0.478596	0.375636	
4.59442	5	0	-0.122255	0.236206	-0.131292	0.311899	-0.118476	0.0595505	-0.19629	0.0460215	-0.09261	0.0892575	-0.463647	0.0711835	-0.276652	-0.102781	-0.210093	-0.220982	-0.233199	0.147551	-0.101964	0.0394075	-0.184997	0.315237	-0.368819	0.468182	-0.027248	0.867031	-0.0656515	0.904396	-0.385581	0.267058	-0.485129	0.415204	
4.58374	5	0	-0.122255	0.236206	-0.131292	0.311899	-0.121157	0.0671262	-0.188714	0.0410713	-0.0957735	0.0771877	-0.45844	0.0564668	-0.268492	-0.108113	-0.2113	-0.217573	-0.23558	0.15428	-0.109557	0.0608688	-0.187776	0.323092	-0.378643	0.495947	-0.044654	0.878404	-0.0530317	0.918201	-0.311194	0.251862	-0.491661	0.454773	
4.58374	5	0	-0.122255	0.236206	-0.131292	0.311899	-0.123837	0.074702	-0.181138	0.036121	-0.098937	0.065118	-0.453233	0.04175	-0.260332	-0.113445	-0.212506	-0.214164	-0.237961	0.161009	-0.117151	0.08233	-0.190555	0.330946	-0.388468	0.523713	-0.06206	0.889777	-0.040412	0.932006	-0.236806	0.236666	-0.498194	0.494341	
4.58984	5	0	-0.13253	0.236524	-0.148488	0.327678	-0.125625	0.079756	-0.17642	0.0392615	-0.0935253	0.0498232	-0.435249	0.0149423	-0.253916	-0.113829	-0.213713	-0.210753	-0.238755	0.163253	-0.121907	0.0957695	-0.191945	0.334876	-0.378421	0.520203	-0.0715797	0.87894	-0.0547095	0.947662	-0.252258	0.280336	-0.493805	0.524219	
4.59595	5	0	-0.142806	0.236843	-0.165685	0.343456	-0.127414	0.08481	-0.171701	0.042402	-0.0881135	0.0345285	-0.417265	-0.0118655	-0.247501	-0.114213	-0.214919	-0.207343	-0.239549	0.165497	-0.126662	0.109209	-0.193336	0.338806	-0.368374	0.516693	-0.0810995	0.868102	-0.069007	0.963318	-0.267711	0.324007	-0.489416	0.554098	
4.599	5	0	-0.153081	0.237161	-0.182881	0.359235	-0.129202	0.089864	-0.166982	0.0455425	-0.0827017	0.0192337	-0.399281	-0.0386732	-0.241086	-0.114597	-0.216126	-0.203933	-0.240343	0.167741	-0.131417	0.122648	-0.194727	0.342736	-0.358327	0.513183	-0.0906193	0.857265	-0.0833045	0.978973	-0.283163	0.367677	-0.485026	0.583976	
4.6112	5	0	-0.163356	0.237479	-0.200077	0.375014	-0.13099	0.094918	-0.162264	0.048683	-0.07729	0.003939	-0.381297	-0.065481	-0.23467	-0.114981	-0.217333	-0.200522	-0.241137	0.169985	-0.136173	0.136088	-0.196117	0.346666	-0.34828	0.509673	-0.100139	0.846428	-0.097602	0.994629	-0.298615	0.411348	-0.480637	0.613854	
4.62036	5	0	-0.163356	0.237479	-0.191252	0.382893	-0.13457	0.105035	-0.162326	0.0653475	-0.0740472	-0.00522525	-0.365041	-0.0873735	-0.23088	-0.107928	-0.202465	-0.20499	-0.24352	0.176721	-0.130351	0.136421	-0.196117	0.346666	-0.345469	0.501728	-0.109643	0.835622	-0.101719	0.981547	-0.257253	0.39274	-0.479715	0.632426	
4.63714	5	0	-0.163356	0.237479	-0.182426	0.390771	-0.138149	0.115152	-0.162387	0.082012	-0.0708045	-0.0143895	-0.348785	-0.109266	-0.227089	-0.100876	-0.187596	-0.209458	-0.245904	0.183456	-0.124528	0.136754	-0.196117	0.346666	-0.342657	0.493783	-0.119148	0.824817	-0.105837	0.968465	-0.215891	0.374132	-0.478793	0.650998	
4.6524	5	0	-0.163356	0.237479	-0.1736	0.398649	-0.141729	0.125268	-0.162449	0.0986765	-0.0675618	-0.0235537	-0.33253	-0.131159	-0.223299	-0.0938235	-0.172728	-0.213926	-0.248287	0.190192	-0.118706	0.137087	-0.196117	0.346666	-0.339846	0.485837	-0.128652	0.814011	-0.109955	0.955383	-0.174528	0.355524	-0.477872	0.66957	
4.67071	5	0	-0.163356	0.237479	-0.164775	0.406528	-0.145309	0.135385	-0.162511	0.115341	-0.064319	-0.032718	-0.316274	-0.153051	-0.219509	-0.086771	-0.15786	-0.218394	-0.250671	0.196928	-0.112884	0.13742	-0.196117	0.346666	-0.337035	0.477892	-0.138156	0.803206	-0.114072	0.942301	-0.133166	0.336916	-0.47695	0.688142	
4.68902	5	0	-0.169246	0.254125	-0.166871	0.412452	-0.148893	0.145513	-0.158747	0.121209	-0.0718183	-0.0325107	-0.294094	-0.167544	-0.21396	-0.0846733	-0.156652	-0.221807	-0.252261	0.201422	-0.112884	0.13742	-0.1989	0.354531	-0.337035	0.477892	-0.138468	0.841755	-0.108502	0.951276	-0.170658	0.344586	-0.470644	0.67032	
4.70886	5	0	-0.175136	0.270771	-0.168967	0.418376	-0.152477	0.155641	-0.154983	0.127077	-0.0793175	-0.0323035	-0.271915	-0.182036	-0.20841	-0.0825755	-0.155444	-0.22522	-0.253851	0.205915	-0.112884	0.13742	-0.201682	0.362395	-0.337035	0.477892	-0.138781	0.880303	-0.102931	0.960251	-0.208151	0.352256	-0.464337	0.652498	
4.72565	5	0	-0.181026	0.287417	-0.171064	0.4243	-0.15606	0.16577	-0.15122	0.132945	-0.0868167	-0.0320962	-0.249735	-0.196529	-0.202861	-0.0804778	-0.154237	-0.228634	-0.255441	0.210408	-0.112884	0.13742	-0.204465	0.37026	-0.337035	0.477892	-0.139094	0.918852	-0.0973605	0.969226	-0.245643	0.359927	-0.458031	0.634676	
4.74548	5	0	-0.186916	0.304063	-0.17316	0.430224	-0.159644	0.175898	-0.147456	0.138813	-0.094316	-0.031889	-0.227556	-0.211022	-0.197312	-0.07838	-0.153029	-0.232047	-0.257031	0.214902	-0.112884	0.13742	-0.207248	0.378125	-0.337035	0.477892	-0.139406	0.957401	-0.09179	0.978201	-0.283135	0.367597	-0.451725	0.616854	
4.76227	5	0	-0.182553	0.320453	-0.166426	0.444072	-0.169569	0.184331	-0.153136	0.138359	-0.094316	-0.031889	-0.2352	-0.213531	-0.199949	-0.0709285	-0.150615	-0.23887	-0.258622	0.219398	-0.11098	0.132039	-0.210033	0.385997	-0.334008	0.494256	-0.122376	0.984833	-0.083553	1.00446	-0.312701	0.353384	-0.466172	0.615352	
4.776	5	0	-0.17819	0.336843	-0.159693	0.45792	-0.179494	0.192765	-0.158815	0.137905	-0.094316	-0.031889	-0.242843	-0.21604	-0.202585	-0.063477	-0.148201	-0.245692	-0.260213	0.223894	-0.109075	0.126657	-0.212819	0.393869	-0.330982	0.51062	-0.105347	1.01227	-0.075316	1.03072	-0.342268	0.339171	-0.480619	0.613851	
4.79126	5	0	-0.173826	0.353233	-0.152959	0.471768	-0.189419	0.201198	-0.164494	0.137451	-0.094316	-0.031889	-0.250487	-0.21855	-0.205222	-0.0560255	-0.145787	-0.252514	-0.261803	0.228389	-0.107171	0.121275	-0.215605	0.401741	-0.327956	0.526983	-0.0883175	1.0397	-0.067079	1.05697	-0.371834	0.324957	-0.495066	0.612349	
4.80194	5	0	-0.169463	0.369623	-0.146225	0.485616	-0.199344	0.209631	-0.170174	0.136997	-0.094316	-0.031889	-0.25813	-0.221059	-0.207859	-0.048574	-0.143373	-0.259337	-0.263394	0.232885	-0.105267	0.115894	-0.21839	0.409613	-0.324929	0.543347	-0.071288	1.06713	-0.058842	1.08323	-0.4014	0.310744	-0.509513	0.610848	
4.80957	5	0	-0.169463	0.369623	-0.163461	0.501448	-0.202092	0.197802	-0.175779	0.119873	-0.101806	-0.0316847	-0.265763	-0.223567	-0.216043	-0.0432265	-0.148401	-0.263911	-0.272389	0.240491	-0.113946	0.123633	-0.222573	0.421434	-0.323323	0.563758	-0.0657335	1.08933	-0.0535458	1.11793	-0.442318	0.329123	-0.505741	0.600189	
4.81872	5	0	-0.169463	0.369623	-0.180696	0.517279	-0.20484	0.185974	-0.181385	0.102749	-0.109295	-0.0314805	-0.273396	-0.226075	-0.224226	-0.037879	-0.153429	-0.268486	-0.281384	0.248097	-0.122624	0.131372	-0.226755	0.433254	-0.321716	0.584169	-0.060179	1.11153	-0.0482495	1.15263	-0.483237	0.347503	-0.50197	0.58953	
4.83093	5	0	-0.169463	0.369623	-0.197931	0.533111	-0.207589	0.174145	-0.186991	0.0856258	-0.116785	-0.0312762	-0.281028	-0.228582	-0.23241	-0.0325315	-0.158458	-0.273061	-0.290379	0.255704	-0.131302	0.139111	-0.230937	0.445075	-0.320109	0.604579	-0.0546245	1.13373	-0.0429532	1.18733	-0.524155	0.365882	-0.498198	0.578871	
4.83398	5	0	-0.169463	0.369623	-0.215167	0.548942	-0.210337	0.162316	-0.192596	0.068502	-0.124275	-0.031072	-0.288661	-0.23109	-0.240594	-0.027184	-0.163486	-0.277635	-0.299374	0.26331	-0.139981	0.14685	-0.23512	0.456896	-0.318503	0.62499	-0.04907	1.15592	-0.037657	1.22203	-0.565073	0.384261	-0.494427	0.568212	
4.84009	5	0	-0.166508	0.361273	-0.197931	0.533111	-0.212195	0.147992	-0.191586	0.0491882	-0.123196	-0.0341205	-0.288661	-0.23109	-0.237957	-0.0346355	-0.179547	-0.269759	-0.298578	0.261061	-0.156365	0.159625	-0.223443	0.455331	-0.308234	0.645971	-0.0455183	1.18386	-0.0123685	1.2503	-0.549733	0.340909	-0.516039	0.565974	
4.84772	5	0	-0.163554	0.352923	-0.180696	0.517279	-0.214053	0.133668	-0.190577	0.0298745	-0.122117	-0.037169	-0.288661	-0.23109	-0.23532	-0.042087	-0.195608	-0.261882	-0.297782	0.258813	-0.172749	0.1724	-0.211766	0.453767	-0.297966	0.666953	-0.0419665	1.21179	0.01292	1.27857	-0.534393	0.297557	-0.537651	0.563735	
4.85077	5	0	-0.160599	0.344572	-0.163461	0.501448	-0.215911	0.119345	-0.189567	0.0105608	-0.121039	-0.0402175	-0.288661	-0.23109	-0.232684	-0.0495385	-0.211669	-0.254005	-0.296987	0.256564	-0.189133	0.185174	-0.20009	0.452202	-0.287697	0.687934	-0.0384147	1.23973	0.0382085	1.30683	-0.519054	0.254204	-0.559262	0.561497	
4.84924	5	0	-0.157644	0.336222	-0.146225	0.485616	-0.217769	0.105021	-0.188558	-0.008753	-0.11996	-0.043266	-0.288661	-0.23109	-0.230047	-0.05699	-0.22773	-0.246129	-0.296191	0.254315	-0.205517	0.197949	-0.188413	0.450637	-0.277429	0.708915	-0.034863	1.26766	0.063497	1.3351	-0.503714	0.210852	-0.580874	0.559258	
4.8584	5	0	-0.154692	0.327879	-0.142023	0.47374	-0.220525	0.093255	-0.185701	-0.0168265	-0.118882	-0.0463135	-0.279303	-0.233458	-0.233833	-0.064053	-0.22773	-0.246129	-0.301997	0.252925	-0.212271	0.200293	-0.202881	0.460091	-0.274424	0.725474	-0.025335	1.27878	0.0672775	1.37448	-0.529176	0.186054	-0.595237	0.557758	
4.8584	5	0	-0.151741	0.319537	-0.137821	0.461865	-0.22328	0.081489	-0.182845	-0.0249	-0.117804	-0.049361	-0.269945	-0.235826	-0.23762	-0.071116	-0.22773	-0.246129	-0.307802	0.251535	-0.219024	0.202636	-0.21735	0.469545	-0.271419	0.742034	-0.015807	1.28991	0.071058	1.41387	-0.554638	0.161256	-0.6096	0.556258	
4.85687	5	0	-0.148789	0.311195	-0.133619	0.449989	-0.226036	0.069723	-0.179988	-0.0329735	-0.116725	-0.0524085	-0.260586	-0.238195	-0.241406	-0.078179	-0.22773	-0.246129	-0.313608	0.250145	-0.225777	0.20498	-0.231818	0.478999	-0.268415	0.758593	-0.006279	1.30103	0.0748385	1.45325	-0.5801	0.136458	-0.623962	0.554757	
4.85535	5	0	-0.145837	0.302852	-0.129417	0.438113	-0.228792	0.057957	-0.177131	-0.041047	-0.115647	-0.055456	-0.251228	-0.240563	-0.245193	-0.085242	-0.22773	-0.246129	-0.319414	0.248755	-0.232531	0.207324	-0.246286	0.488453	-0.26541	0.775152	0.003249	1.31215	0.078619	1.49264	-0.605562	0.11166	-0.638325	0.553257	
4.85229	5	0	-0.144362	0.298684	-0.129417	0.438113	-0.236001	0.058796	-0.172411	-0.037924	-0.116725	-0.0524085	-0.24531	-0.233178	-0.234386	-0.0980193	-0.221512	-0.244955	-0.316236	0.239773	-0.238326	0.206975	-0.2421	0.476622	-0.263987	0.771132	0.005247	1.30651	0.0972632	1.49015	-0.594175	0.0794777	-0.648906	0.541163	
4.85382	5	0	-0.142887	0.294516	-0.129417	0.438113	-0.243209	0.059635	-0.167692	-0.034801	-0.117804	-0.049361	-0.239392	-0.225793	-0.223579	-0.110796	-0.215293	-0.243781	-0.313057	0.230791	-0.244121	0.206625	-0.237913	0.46479	-0.262565	0.767112	0.007245	1.30086	0.115907	1.48766	-0.582787	0.0472955	-0.659487	0.52907	
4.85687	5	0	-0.141412	0.290347	-0.129417	0.438113	-0.250418	0.060474	-0.162973	-0.031678	-0.118882	-0.0463135	-0.233474	-0.218407	-0.212773	-0.123574	-0.209075	-0.242607	-0.309879	0.221808	-0.249916	0.206276	-0.233727	0.452959	-0.261142	0.763092	0.009243	1.29521	0.134552	1.48518	-0.571399	0.0151133	-0.670068	0.516976	
4.85229	5	0	-0.139937	0.286179	-0.129417	0.438113	-0.257627	0.061313	-0.158253	-0.028555	-0.11996	-0.043266	-0.227556	-0.211022	-0.201966	-0.136351	-0.202857	-0.241433	-0.306701	0.212826	-0.255711	0.205926	-0.229541	0.441128	-0.25972	0.759072	0.011241	1.28957	0.153196	1.48269	-0.560012	-0.017069	-0.680649	0.504882	
4.84924	5	0	-0.141412	0.290347	-0.114258	0.428208	-0.248636	0.0554383	-0.157346	-0.0146433	-0.113549	-0.0404217	-0.201097	-0.213279	-0.210142	-0.131008	-0.206476	-0.231205	-0.312503	0.211443	-0.253808	0.200549	-0.241197	0.442687	-0.246753	0.74751	0.0037	1.27283	0.157658	1.47008	-0.608105	0.0225935	-0.684063	0.493568	
4.84314	5	0	-0.142887	0.294516	-0.099099	0.418303	-0.239646	0.0495635	-0.156439	-0.0007315	-0.107138	-0.0375775	-0.174638	-0.215536	-0.218318	-0.125666	-0.210095	-0.220977	-0.318306	0.21006	-0.251906	0.195173	-0.252853	0.444246	-0.233786	0.735947	-0.003841	1.25609	0.16212	1.45747	-0.656199	0.062256	-0.687477	0.482255	
4.83856	5	0	-0.144362	0.298684	-0.08394	0.408397	-0.230656	0.0436887	-0.155532	0.0131803	-0.100727	-0.0347333	-0.148178	-0.217793	-0.226494	-0.120323	-0.213714	-0.21075	-0.324108	0.208676	-0.250003	0.189797	-0.264509	0.445806	-0.220818	0.724385	-0.011382	1.23935	0.166582	1.44486	-0.704292	0.101919	-0.690892	0.470941	
4.82788	5	0	-0.145837	0.302852	-0.068781	0.398492	-0.221665	0.037814	-0.154625	0.027092	-0.094316	-0.031889	-0.121719	-0.22005	-0.23467	-0.114981	-0.217333	-0.200522	-0.32991	0.207293	-0.248101	0.18442	-0.276165	0.447365	-0.207851	0.712823	-0.018923	1.22261	0.171044	1.43224	-0.752386	0.141581	-0.694306	0.459627	
4.82635	5	0	-0.145837	0.302852	-0.0860402	0.414333	-0.232437	0.0487242	-0.149958	0.0468973	-0.0900595	-0.022932	-0.12097	-0.19793	-0.227371	-0.117846	-0.213528	-0.19251	-0.337292	0.210393	-0.244208	0.190146	-0.260328	0.43399	-0.219396	0.720367	-0.0069985	1.18891	0.1755	1.41965	-0.763787	0.173802	-0.68715	0.460366	
4.81872	5	0	-0.145837	0.302852	-0.103299	0.430174	-0.243209	0.0596345	-0.145291	0.0667025	-0.085803	-0.013975	-0.120221	-0.17581	-0.220071	-0.12071	-0.209722	-0.184499	-0.344675	0.213493	-0.240316	0.195872	-0.244492	0.420616	-0.230942	0.727911	0.004926	1.15521	0.179956	1.40706	-0.775188	0.206023	-0.679994	0.461105	
4.81262	5	0	-0.145837	0.302852	-0.120559	0.446015	-0.253982	0.0705448	-0.140624	0.0865078	-0.0815465	-0.005018	-0.119473	-0.153689	-0.212772	-0.123575	-0.205917	-0.176487	-0.352057	0.216592	-0.236423	0.201598	-0.228655	0.407241	-0.242488	0.735455	0.0168505	1.12151	0.184412	1.39447	-0.786589	0.238244	-0.672838	0.461843	
4.80499	5	0	-0.145837	0.302852	-0.137818	0.461856	-0.264754	0.081455	-0.135957	0.106313	-0.07729	0.003939	-0.118724	-0.131569	-0.205473	-0.12644	-0.202111	-0.168475	-0.35944	0.219692	-0.232531	0.207324	-0.212818	0.393866	-0.254033	0.742999	0.028775	1.08781	0.188868	1.38187	-0.79799	0.270465	-0.665682	0.462582	
4.80041	5	0	-0.147313	0.307022	-0.137818	0.461856	-0.267429	0.0890138	-0.124643	0.12394	-0.084869	0.025359	-0.121483	-0.0995038	-0.20986	-0.114042	-0.199515	-0.157026	-0.35944	0.219692	-0.229589	0.215753	-0.228655	0.407241	-0.245332	0.743493	0.0152627	1.08803	0.177307	1.38943	-0.76513	0.273855	-0.662262	0.473903	
4.78973	5	0	-0.148788	0.311192	-0.137818	0.461856	-0.270103	0.0965725	-0.113328	0.141567	-0.092448	0.046779	-0.124242	-0.0674385	-0.214247	-0.101643	-0.19692	-0.145577	-0.35944	0.219692	-0.226648	0.224182	-0.244492	0.420616	-0.236631	0.743988	0.0017505	1.08824	0.165746	1.39698	-0.73227	0.277245	-0.658842	0.485223	
4.77905	5	0	-0.150263	0.315363	-0.137818	0.461856	-0.272778	0.104131	-0.102014	0.159193	-0.100027	0.068199	-0.127001	-0.0353732	-0.218634	-0.0892452	-0.194324	-0.134128	-0.35944	0.219692	-0.223706	0.23261	-0.260328	0.43399	-0.227929	0.744482	-0.0117617	1.08846	0.154185	1.40454	-0.69941	0.280634	-0.655421	0.496543	
4.776	5	0	-0.151739	0.319533	-0.137818	0.461856	-0.275453	0.11169	-0.0907	0.17682	-0.107606	0.089619	-0.12976	-0.003308	-0.223021	-0.076847	-0.191728	-0.122679	-0.35944	0.219692	-0.220764	0.241039	-0.276165	0.447365	-0.219228	0.744976	-0.025274	1.08867	0.142624	1.41209	-0.66655	0.284024	-0.652001	0.507864	
4.77142	5	0	-0.148789	0.311195	-0.137818	0.461856	-0.277237	0.116733	-0.0831468	0.188615	-0.102275	0.0955635	-0.116114	0.0067575	-0.218351	-0.0722633	-0.196577	-0.108977	-0.353645	0.221079	-0.220689	0.257584	-0.278953	0.455244	-0.223499	0.757047	-0.021314	1.07748	0.155669	1.40034	-0.678034	0.316479	-0.653592	0.533371	
4.76379	5	0	-0.145838	0.302856	-0.137818	0.461856	-0.279022	0.121775	-0.0755935	0.20041	-0.0969445	0.101508	-0.102468	0.016823	-0.213681	-0.0676795	-0.201425	-0.095274	-0.34785	0.222465	-0.220614	0.274129	-0.281741	0.463122	-0.22777	0.769119	-0.017354	1.06629	0.168714	1.38859	-0.689518	0.348935	-0.655183	0.558878	
4.75464	5	0	-0.142888	0.294517	-0.137818	0.461856	-0.280806	0.126817	-0.0680402	0.212205	-0.0916137	0.107453	-0.0888227	0.0268885	-0.209012	-0.0630958	-0.206273	-0.0815715	-0.342055	0.223852	-0.220539	0.290674	-0.284528	0.471001	-0.232042	0.78119	-0.013394	1.0551	0.181759	1.37685	-0.701002	0.38139	-0.656774	0.584385	
4.74548	5	0	-0.139937	0.286179	-0.137818	0.461856	-0.28259	0.13186	-0.060487	0.224	-0.086283	0.113397	-0.075177	0.036954	-0.204342	-0.058512	-0.211122	-0.067869	-0.33626	0.225239	-0.220464	0.307219	-0.287316	0.47888	-0.236313	0.793261	-0.009434	1.04391	0.194804	1.3651	-0.712486	0.413845	-0.658365	0.609892	
4.73633	5	0	-0.139937	0.286179	-0.124761	0.457891	-0.267278	0.127674	-0.0529253	0.23583	-0.086283	0.113397	-0.0881255	0.0492178	-0.205221	-0.0560275	-0.204894	-0.066665	-0.33626	0.225239	-0.225247	0.320736	-0.272872	0.469442	-0.249283	0.804832	-0.00547925	1.03273	0.184726	1.36846	-0.630868	0.377199	-0.659986	0.635506	
4.7287	5	0	-0.139937	0.286179	-0.111703	0.453925	-0.251966	0.123488	-0.0453635	0.247661	-0.086283	0.113397	-0.101074	0.0614815	-0.2061	-0.053543	-0.198666	-0.065461	-0.33626	0.225239	-0.230029	0.334253	-0.258429	0.460004	-0.262254	0.816404	-0.0015245	1.02155	0.174648	1.37182	-0.54925	0.340553	-0.661606	0.661119	
4.72259	5	0	-0.139937	0.286179	-0.0986462	0.44996	-0.236653	0.119302	-0.0378017	0.259491	-0.086283	0.113397	-0.114022	0.0737452	-0.20698	-0.0510585	-0.192439	-0.064257	-0.33626	0.225239	-0.234812	0.34777	-0.243985	0.450566	-0.275224	0.827975	0.00243025	1.01037	0.164571	1.37519	-0.467632	0.303906	-0.663226	0.686732	
4.71496	5	0	-0.139937	0.286179	-0.085589	0.445995	-0.221341	0.115116	-0.03024	0.271322	-0.086283	0.113397	-0.126971	0.086009	-0.207859	-0.048574	-0.186211	-0.063053	-0.33626	0.225239	-0.239595	0.361287	-0.229541	0.441128	-0.288195	0.839546	0.006385	0.999197	0.154493	1.37855	-0.386014	0.26726	-0.664847	0.712346	
4.71039	5	0	-0.128172	0.281696	-0.0919028	0.463838	-0.216801	0.121859	-0.0246075	0.288664	-0.0755167	0.104004	-0.115773	0.0786915	-0.209618	-0.0436027	-0.181192	-0.0584153	-0.335466	0.222996	-0.233791	0.361655	-0.239804	0.43875	-0.282499	0.823447	-0.00316125	0.988281	0.163378	1.35344	-0.430779	0.29651	-0.660191	0.720245	
4.70428	5	0	-0.116408	0.277214	-0.0982165	0.481681	-0.21226	0.128602	-0.018975	0.306005	-0.0647505	0.094611	-0.104574	0.071374	-0.211377	-0.0386315	-0.176173	-0.0537775	-0.334672	0.220752	-0.227986	0.362024	-0.250067	0.436372	-0.276802	0.807349	-0.0127075	0.977365	0.172262	1.32833	-0.475544	0.325761	-0.655535	0.728144	
4.69818	5	0	-0.104644	0.272731	-0.10453	0.499525	-0.20772	0.135345	-0.0133425	0.323346	-0.0539842	0.085218	-0.0933755	0.0640565	-0.213136	-0.0336603	-0.171153	-0.0491397	-0.333878	0.218508	-0.222182	0.362392	-0.26033	0.433995	-0.271106	0.79125	-0.0222538	0.96645	0.181146	1.30322	-0.520308	0.355011	-0.650879	0.736044	
4.69818	5	0	-0.092879	0.268248	-0.110844	0.517368	-0.203179	0.142088	-0.00771	0.340688	-0.043218	0.075825	-0.082177	0.056739	-0.214895	-0.028689	-0.166134	-0.044502	-0.333084	0.216265	-0.216378	0.36276	-0.270593	0.431617	-0.26541	0.775152	-0.0318	0.955534	0.190031	1.27811	-0.565073	0.384261	-0.646223	0.743943	
4.70123	5	0	-0.095831	0.27659	-0.104096	0.531292	-0.20855	0.157268	-0.003052	0.360843	-0.0443033	0.0788922	-0.0744672	0.059313	-0.211105	-0.0216017	-0.169782	-0.0341915	-0.333084	0.216265	-0.203793	0.360783	-0.269201	0.427682	-0.259724	0.759083	-0.0239248	0.933277	0.187345	1.26062	-0.565073	0.384261	-0.640302	0.748292	
4.70276	5	0	-0.098783	0.284933	-0.0973475	0.545216	-0.213921	0.172447	0.001606	0.380999	-0.0453885	0.0819595	-0.0667575	0.061887	-0.207315	-0.0145145	-0.17343	-0.023881	-0.333084	0.216265	-0.191208	0.358807	-0.267809	0.423747	-0.254038	0.743013	-0.0160495	0.91102	0.18466	1.24312	-0.565073	0.384261	-0.634381	0.752641	
4.70886	5	0	-0.101735	0.293276	-0.0905992	0.55914	-0.219293	0.187626	0.006264	0.401154	-0.0464737	0.0850268	-0.0590478	0.064461	-0.203525	-0.00742725	-0.177079	-0.0135705	-0.333084	0.216265	-0.178623	0.35683	-0.266416	0.419812	-0.248352	0.726944	-0.00817425	0.888763	0.181975	1.22562	-0.565073	0.384261	-0.628461	0.756989	
4.71649	5	0	-0.104687	0.301618	-0.083851	0.573064	-0.224664	0.202806	0.010922	0.421309	-0.047559	0.088094	-0.051338	0.067035	-0.199735	-0.00034	-0.180727	-0.00326	-0.333084	0.216265	-0.166038	0.354853	-0.265024	0.415877	-0.242666	0.710875	-0.000299	0.866506	0.179289	1.20813	-0.565073	0.384261	-0.62254	0.761338	
4.72107	5	0	-0.11645	0.306097	-0.0796292	0.561133	-0.227353	0.210405	0.0099495	0.424057	-0.047559	0.088094	-0.0625513	0.074362	-0.202379	0.00713225	-0.173272	-0.00548725	-0.327282	0.21765	-0.162135	0.36064	-0.25058	0.406439	-0.242666	0.710875	0.00363125	0.855398	0.183709	1.19564	-0.572771	0.406017	-0.617876	0.769263	
4.73175	5	0	-0.128213	0.310576	-0.0754075	0.549202	-0.230042	0.218005	0.008977	0.426806	-0.047559	0.088094	-0.0737645	0.081689	-0.205023	0.0146045	-0.165817	-0.0077145	-0.321481	0.219035	-0.158232	0.366427	-0.236136	0.397001	-0.242666	0.710875	0.0075615	0.844291	0.18813	1.18314	-0.580469	0.427772	-0.613212	0.777187	
4.73785	5	0	-0.139976	0.315054	-0.0711857	0.53727	-0.23273	0.225604	0.0080045	0.429554	-0.047559	0.088094	-0.0849777	0.089016	-0.207667	0.0220767	-0.158361	-0.00994175	-0.31568	0.22042	-0.154329	0.372214	-0.221692	0.387563	-0.242666	0.710875	0.0114917	0.833183	0.192551	1.17065	-0.588167	0.449528	-0.608548	0.785112	
4.75311	5	0	-0.151739	0.319533	-0.066964	0.525339	-0.235419	0.233204	0.007032	0.432302	-0.047559	0.088094	-0.096191	0.096343	-0.210311	0.029549	-0.150906	-0.012169	-0.309878	0.221805	-0.150426	0.378001	-0.207248	0.378125	-0.242666	0.710875	0.015422	0.822075	0.196971	1.15816	-0.595865	0.471283	-0.603884	0.793037	
4.76074	5	0	-0.147314	0.307028	-0.0800412	0.529302	-0.233626	0.228137	-0.000532	0.42036	-0.0507335	0.0760315	-0.0968912	0.0739905	-0.209429	0.0270575	-0.147256	-0.0224835	-0.310673	0.22405	-0.142679	0.372939	-0.2203	0.38363	-0.23699	0.694834	0.0193475	0.810981	0.188385	1.15737	-0.595865	0.471283	-0.608942	0.807331	
4.7699	5	0	-0.14289	0.294523	-0.0931185	0.533265	-0.231833	0.22307	-0.008096	0.408417	-0.053908	0.063969	-0.0975915	0.051638	-0.208548	0.024566	-0.143607	-0.032798	-0.311467	0.226295	-0.134932	0.367876	-0.233352	0.389134	-0.231314	0.678794	0.023273	0.799887	0.179798	1.15659	-0.595865	0.471283	-0.614	0.821626	
4.77753	5	0	-0.138465	0.282018	-0.106196	0.537228	-0.230041	0.218003	-0.01566	0.396475	-0.0570825	0.0519065	-0.0982917	0.0292855	-0.207667	0.0220745	-0.139957	-0.0431125	-0.312261	0.228541	-0.127184	0.362814	-0.246405	0.394639	-0.225639	0.662753	0.0271985	0.788794	0.171212	1.1558	-0.595865	0.471283	-0.619058	0.835921	
4.7821	5	0	-0.13404	0.269513	-0.119273	0.541191	-0.228248	0.212936	-0.023224	0.384533	-0.060257	0.039844	-0.098992	0.006933	-0.206785	0.019583	-0.136307	-0.053427	-0.313056	0.230786	-0.119437	0.357752	-0.259457	0.400144	-0.219963	0.646712	0.031124	0.7777	0.162626	1.15502	-0.595865	0.471283	-0.624116	0.850215	
4.78821	5	0	-0.138428	0.253193	-0.119273	0.541191	-0.23457	0.211228	-0.0250655	0.3731	-0.0559267	0.027606	-0.0997123	-0.0153307	-0.205904	0.0170922	-0.135092	-0.0568625	-0.319651	0.231644	-0.109763	0.347261	-0.252507	0.380503	-0.234513	0.637763	0.0332725	0.73381	0.15868	1.11617	-0.5511	0.442033	-0.63045	0.868116	
4.78821	5	0	-0.142816	0.236874	-0.119273	0.541191	-0.240892	0.209519	-0.026907	0.361667	-0.0515965	0.015368	-0.100433	-0.0375945	-0.205022	0.0146015	-0.133876	-0.060298	-0.326246	0.232501	-0.100089	0.33677	-0.245557	0.360863	-0.249063	0.628813	0.035421	0.68992	0.154733	1.07732	-0.506336	0.412782	-0.636784	0.886016	
4.79431	5	0	-0.147204	0.220554	-0.119273	0.541191	-0.247214	0.207811	-0.0287485	0.350233	-0.0472663	0.00313	-0.101153	-0.0598582	-0.204141	0.0121107	-0.132661	-0.0637335	-0.332841	0.233358	-0.0904157	0.326279	-0.238608	0.341222	-0.263612	0.619864	0.0375695	0.646029	0.150787	1.03847	-0.461571	0.383532	-0.643118	0.903917	
4.79126	5	0	-0.151592	0.204234	-0.119273	0.541191	-0.253536	0.206103	-0.03059	0.3388	-0.042936	-0.009108	-0.101873	-0.082122	-0.20326	0.00962	-0.131445	-0.067169	-0.339436	0.234216	-0.080742	0.315788	-0.231658	0.321582	-0.278162	0.610915	0.039718	0.602139	0.146841	0.99962	-0.416806	0.354282	-0.649452	0.921818	
4.79126	5	0	-0.155984	0.18797	-0.110418	0.549159	-0.253536	0.206103	-0.0247848	0.322393	-0.034337	-0.0123757	-0.109562	-0.084659	-0.197705	0.0117368	-0.132661	-0.0637335	-0.339436	0.234216	-0.080742	0.315788	-0.227496	0.309818	-0.271101	0.590958	0.0225078	0.57537	0.139933	0.969274	-0.371806	0.324878	-0.63888	0.934223	
4.79431	5	0	-0.160377	0.171706	-0.101562	0.557127	-0.253536	0.206103	-0.0189795	0.305987	-0.025738	-0.0156435	-0.117252	-0.087196	-0.192151	0.0138535	-0.133876	-0.060298	-0.339436	0.234216	-0.080742	0.315788	-0.223334	0.298054	-0.264039	0.571002	0.0052975	0.548601	0.133026	0.938927	-0.326806	0.295474	-0.628308	0.946628	
4.79431	5	0	-0.164769	0.155443	-0.0927065	0.565096	-0.253536	0.206103	-0.0131742	0.28958	-0.017139	-0.0189113	-0.124941	-0.089733	-0.186596	0.0159702	-0.135092	-0.0568625	-0.339436	0.234216	-0.080742	0.315788	-0.219171	0.286291	-0.256978	0.551046	-0.0119127	0.521833	0.126118	0.908581	-0.281806	0.26607	-0.617736	0.959033	
4.79584	5	0	-0.169161	0.139179	-0.083851	0.573064	-0.253536	0.206103	-0.007369	0.273174	-0.00854	-0.022179	-0.13263	-0.09227	-0.181041	0.018087	-0.136307	-0.053427	-0.339436	0.234216	-0.080742	0.315788	-0.215009	0.274527	-0.249916	0.531089	-0.029123	0.495064	0.119211	0.878235	-0.236806	0.236666	-0.607164	0.971438	
4.79584	5	0	-0.185254	0.127439	-0.0707513	0.569095	-0.245422	0.202747	-0.0111552	0.267252	-0.00426375	-0.0132065	-0.143785	-0.0849813	-0.182805	0.0230735	-0.128842	-0.0556625	-0.332047	0.231113	-0.0749	0.31614	-0.213623	0.270609	-0.249916	0.531089	-0.0194448	0.467712	0.117926	0.856983	-0.240662	0.247564	-0.593186	0.99554	
4.79278	5	0	-0.201348	0.115699	-0.0576515	0.565127	-0.237308	0.199391	-0.0149415	0.26133	1.25E-05	-0.004234	-0.15494	-0.0776925	-0.184569	0.02806	-0.121377	-0.057898	-0.324657	0.228011	-0.069058	0.316493	-0.212236	0.266691	-0.249916	0.531089	-0.0097665	0.440359	0.116641	0.835731	-0.244518	0.258462	-0.579209	1.01964	
4.78973	5	0	-0.217441	0.10396	-0.0445518	0.561158	-0.229194	0.196035	-0.0187277	0.255409	0.00428875	0.0047385	-0.166094	-0.0704038	-0.186334	0.0330465	-0.113913	-0.0601335	-0.317267	0.224908	-0.063216	0.316846	-0.21085	0.262774	-0.249916	0.531089	-8.825E-05	0.413006	0.115356	0.814479	-0.248374	0.269359	-0.565231	1.04374	
4.79278	5	0	-0.233534	0.09222	-0.031452	0.557189	-0.22108	0.192679	-0.022514	0.249487	0.008565	0.013711	-0.177249	-0.063115	-0.188098	0.038033	-0.106448	-0.062369	-0.309878	0.221805	-0.057374	0.317198	-0.209464	0.258856	-0.249916	0.531089	0.00959	0.385654	0.114071	0.793227	-0.25223	0.280257	-0.551253	1.06784	
4.78973	5	0	-0.235006	0.0678352	-0.029339	0.551217	-0.2175	0.182559	-0.01667	0.216363	0.016099	0.0135002	-0.184913	-0.0656603	-0.186334	0.0330465	-0.105232	-0.0658057	-0.310673	0.22405	-0.057374	0.317198	-0.223884	0.268278	-0.251327	0.535077	0.0115222	0.380194	0.105533	0.792507	-0.29723	0.309661	-0.527435	1.08568	
4.78515	5	0	-0.236478	0.0434505	-0.027226	0.545246	-0.213919	0.17244	-0.010826	0.183239	0.023633	0.0132895	-0.192577	-0.0682055	-0.184569	0.02806	-0.104016	-0.0692425	-0.311467	0.226295	-0.057374	0.317198	-0.238303	0.2777	-0.252738	0.539065	0.0134545	0.374733	0.096994	0.791788	-0.34223	0.339064	-0.503618	1.10351	
4.78515	5	0	-0.23795	0.0190657	-0.025113	0.539274	-0.210338	0.162321	-0.004982	0.150116	0.031167	0.0130788	-0.200241	-0.0707508	-0.182805	0.0230735	-0.102799	-0.0726793	-0.312261	0.228541	-0.057374	0.317198	-0.252723	0.287122	-0.254149	0.543052	0.0153868	0.369273	0.0884555	0.791068	-0.38723	0.368468	-0.479801	1.12135	
4.77905	5	0	-0.239422	-0.005319	-0.023	0.533302	-0.206758	0.152201	0.000862	0.116992	0.038701	0.012868	-0.207905	-0.073296	-0.181041	0.018087	-0.101583	-0.076116	-0.313056	0.230786	-0.057374	0.317198	-0.267142	0.296544	-0.25556	0.54704	0.017319	0.363812	0.079917	0.790348	-0.43223	0.397872	-0.455983	1.13918	
4.776	5	0	-0.232153	-0.0258633	-0.0056485	0.517376	-0.202288	0.139568	-0.00480625	0.0998395	0.0494992	0.0034555	-0.210357	-0.0905408	-0.177515	0.00812275	-0.105405	-0.0841777	-0.308292	0.217323	-0.056508	0.297887	-0.261603	0.28089	-0.247103	0.52314	0.00194925	0.36966	0.079917	0.790348	-0.341993	0.338909	-0.456447	1.16184	
4.77295	5	0	-0.224884	-0.0464075	0.011703	0.501451	-0.197817	0.126934	-0.0104745	0.082687	0.0602975	-0.005957	-0.212808	-0.107786	-0.17399	-0.0018415	-0.109226	-0.0922395	-0.303528	0.203859	-0.055642	0.278577	-0.256064	0.265236	-0.238647	0.49924	-0.0134205	0.375507	0.079917	0.790348	-0.251756	0.279946	-0.45691	1.1845	
4.76684	5	0	-0.217614	-0.0669518	0.0290545	0.485525	-0.193347	0.1143	-0.0161428	0.0655345	0.0710957	-0.0153695	-0.215259	-0.12503	-0.170464	-0.0118058	-0.113047	-0.100301	-0.298765	0.190396	-0.054776	0.259267	-0.250525	0.249582	-0.23019	0.47534	-0.0287902	0.381354	0.079917	0.790348	-0.161518	0.220984	-0.457374	1.20715	
4.76379	5	0	-0.210345	-0.087496	0.046406	0.469599	-0.188877	0.101667	-0.021811	0.048382	0.081894	-0.024782	-0.217711	-0.142275	-0.166938	-0.02177	-0.116869	-0.108363	-0.294001	0.176933	-0.05391	0.239956	-0.244986	0.233928	-0.221733	0.45144	-0.04416	0.387202	0.079917	0.790348	-0.071281	0.162021	-0.457838	1.22981	
4.75616	5	0	-0.219109	-0.0912285	0.0201723	0.477574	-0.187984	0.0991425	-0.0322623	0.044807	0.0786392	-0.015583	-0.225359	-0.144801	-0.166057	-0.0242595	-0.121901	-0.112983	-0.299806	0.175557	-0.0453062	0.215641	-0.253852	0.227708	-0.224798	0.435117	-0.0422302	0.381748	0.0757307	0.777362	-0.120379	0.202491	-0.449769	1.24978	
4.75006	5	0	-0.227874	-0.094961	-0.0060615	0.485549	-0.18709	0.096618	-0.0427135	0.041232	0.0753845	-0.006384	-0.233008	-0.147328	-0.165176	-0.026749	-0.126934	-0.117603	-0.30561	0.17418	-0.0367025	0.191325	-0.262719	0.221488	-0.227863	0.418795	-0.0403005	0.376294	0.0715445	0.764375	-0.169477	0.242961	-0.4417	1.26974	
4.74701	5	0	-0.236638	-0.0986935	-0.0322952	0.493525	-0.186197	0.0940935	-0.0531648	0.037657	0.0721298	0.002815	-0.240656	-0.149855	-0.164295	-0.0292385	-0.131966	-0.122223	-0.311414	0.172803	-0.0280987	0.167009	-0.271585	0.215267	-0.230928	0.402473	-0.0383708	0.370841	0.0673583	0.751389	-0.218575	0.28343	-0.433631	1.2897	
4.74396	5	0	-0.245402	-0.102426	-0.058529	0.5015	-0.185304	0.091569	-0.063616	0.034082	0.068875	0.012014	-0.248305	-0.152381	-0.163414	-0.031728	-0.136998	-0.126843	-0.317219	0.171427	-0.019495	0.142694	-0.280451	0.209047	-0.233993	0.38615	-0.036441	0.365387	0.063172	0.738402	-0.267673	0.3239	-0.425562	1.30967	
4.73633	5	0	-0.241054	-0.114713	-0.0280762	0.481601	-0.176285	0.0856757	-0.0569565	0.03181	0.0753415	0.014868	-0.248305	-0.152381	-0.164295	-0.0292385	-0.134574	-0.133694	-0.314841	0.164708	-0.028321	0.133956	-0.27907	0.205145	-0.231187	0.378219	-0.0306587	0.349046	0.0689488	0.722075	-0.263812	0.312989	-0.409714	1.30775	
4.73175	5	0	-0.236706	-0.127	0.0023765	0.461703	-0.167266	0.0797825	-0.050297	0.029538	0.081808	0.017722	-0.248305	-0.152381	-0.165176	-0.026749	-0.13215	-0.140545	-0.312464	0.157989	-0.037147	0.125219	-0.277689	0.201242	-0.22838	0.370287	-0.0248765	0.332704	0.0747255	0.705749	-0.259952	0.302079	-0.393865	1.30582	
4.72259	5	0	-0.232359	-0.139287	0.0328293	0.441804	-0.158247	0.0738893	-0.0436375	0.027266	0.0882745	0.020576	-0.248305	-0.152381	-0.166057	-0.0242595	-0.129725	-0.147397	-0.310086	0.15127	-0.045973	0.116482	-0.276308	0.19734	-0.225573	0.362356	-0.0190943	0.316362	0.0805022	0.689423	-0.256091	0.291168	-0.378017	1.3039	
4.71802	5	0	-0.228011	-0.151574	0.063282	0.421906	-0.149228	0.067996	-0.036978	0.024994	0.094741	0.02343	-0.248305	-0.152381	-0.166938	-0.02177	-0.127301	-0.154248	-0.307709	0.144551	-0.054799	0.107744	-0.274927	0.193437	-0.222767	0.354425	-0.013312	0.300021	0.086279	0.673096	-0.25223	0.280257	-0.362169	1.30198	
4.71496	5	0	-0.226563	-0.155666	0.0653893	0.41595	-0.154676	0.063798	-0.0312697	0.0254252	0.0936543	0.0265015	-0.24239	-0.144957	-0.167819	-0.01928	-0.135964	-0.148587	-0.307709	0.144551	-0.0528943	0.102361	-0.273547	0.189536	-0.221365	0.350462	-0.00754025	0.28371	0.0791977	0.668324	-0.210853	0.261609	-0.358766	1.31383	
4.70734	5	0	-0.225115	-0.159758	0.0674965	0.409995	-0.160125	0.0596	-0.0255615	0.0258565	0.0925675	0.029573	-0.236474	-0.137533	-0.1687	-0.01679	-0.144628	-0.142927	-0.307709	0.144551	-0.0509895	0.096978	-0.272167	0.185636	-0.219963	0.346499	-0.0017685	0.267398	0.0721165	0.663553	-0.169477	0.24296	-0.355364	1.32569	
4.69971	5	0	-0.223668	-0.16385	0.0696037	0.404039	-0.165573	0.055402	-0.0198532	0.0262877	0.0914807	0.0326445	-0.230558	-0.130109	-0.169581	-0.0143	-0.153291	-0.137266	-0.307709	0.144551	-0.0490847	0.091595	-0.270787	0.181735	-0.21856	0.342536	0.00400325	0.251086	0.0650352	0.658782	-0.128101	0.224312	-0.351962	1.33754	
4.69513	5	0	-0.22222	-0.167942	0.071711	0.398083	-0.171021	0.051204	-0.014145	0.026719	0.090394	0.035716	-0.224643	-0.122685	-0.170462	-0.01181	-0.161955	-0.131605	-0.307709	0.144551	-0.04718	0.086212	-0.269407	0.177835	-0.217158	0.338573	0.009775	0.234775	0.057954	0.65401	-0.086724	0.205664	-0.348559	1.3494	
4.68597	5	0	-0.21055	-0.172422	0.0564713	0.408041	-0.168346	0.0436433	-0.0256023	0.042535	0.079582	0.045143	-0.233322	-0.098157	-0.164018	-0.0121908	-0.166805	-0.117897	-0.300318	0.141443	-0.056825	0.0966527	-0.272168	0.185638	-0.211272	0.346922	0.00785225	0.240209	0.066478	0.654705	-0.0905892	0.216588	-0.345159	1.36128	
4.67834	5	0	-0.19888	-0.176901	0.0412315	0.417999	-0.16567	0.0360825	-0.0370595	0.058351	0.06877	0.05457	-0.242001	-0.073629	-0.157574	-0.0125715	-0.171655	-0.104189	-0.292926	0.138335	-0.06647	0.107094	-0.274929	0.193441	-0.205385	0.355271	0.0059295	0.245643	0.075002	0.655399	-0.0944545	0.227513	-0.341758	1.37317	
4.67377	5	0	-0.18721	-0.181381	0.0259917	0.427957	-0.162995	0.0285217	-0.0485167	0.074167	0.057958	0.063997	-0.25068	-0.049101	-0.151129	-0.0129522	-0.176506	-0.0904817	-0.285535	0.135226	-0.076115	0.117534	-0.27769	0.201244	-0.199499	0.36362	0.00400675	0.251076	0.083526	0.656093	-0.0983197	0.238437	-0.338357	1.38505	
4.66919	5	0	-0.17554	-0.18586	0.010752	0.437915	-0.16032	0.020961	-0.059974	0.089983	0.047146	0.073424	-0.259359	-0.024573	-0.144685	-0.013333	-0.181356	-0.076774	-0.278144	0.132118	-0.08576	0.127975	-0.280451	0.209047	-0.193613	0.371969	0.002084	0.25651	0.09205	0.656788	-0.102185	0.249361	-0.334957	1.39694	
4.66461	5	0	-0.178438	-0.177671	0.0217757	0.439872	-0.157647	0.0134065	-0.0647728	0.103545	0.0449703	0.0795725	-0.255194	-0.012172	-0.148214	-0.00336025	-0.179982	-0.0618337	-0.281315	0.14108	-0.0914813	0.144144	-0.284597	0.220764	-0.189129	0.384313	-0.001765	0.267388	0.0933603	0.677902	-0.072217	0.263477	-0.335469	1.4199	
4.65851	5	0	-0.181335	-0.169481	0.0327995	0.44183	-0.154974	0.005852	-0.0695715	0.117107	0.0427945	0.085721	-0.251028	0.000229	-0.151743	0.0066125	-0.178608	-0.0468935	-0.284486	0.150041	-0.0972025	0.160312	-0.288743	0.232482	-0.184644	0.396657	-0.005614	0.278265	0.0946705	0.699017	-0.042249	0.277592	-0.33598	1.44287	
4.65698	5	0	-0.184233	-0.161291	0.0438233	0.443788	-0.152301	-0.0017025	-0.0743702	0.130669	0.0406187	0.0918695	-0.246862	0.01263	-0.155271	0.0165852	-0.177234	-0.0319533	-0.287657	0.159003	-0.102924	0.176481	-0.292889	0.244199	-0.18016	0.409001	-0.009463	0.289143	0.0959808	0.720131	-0.012281	0.291708	-0.336491	1.46583	
4.65088	5	0	-0.187131	-0.153102	0.054847	0.445745	-0.149628	-0.009257	-0.079169	0.144231	0.038443	0.098018	-0.242697	0.025031	-0.1588	0.026558	-0.17586	-0.017013	-0.290828	0.167965	-0.108645	0.19265	-0.297035	0.255916	-0.175676	0.421345	-0.013312	0.300021	0.097291	0.741245	0.017687	0.305823	-0.337003	1.4888	
4.64783	5	0	-0.185682	-0.157198	0.0506252	0.457676	-0.157747	-0.00588675	-0.07539	0.150114	0.038443	0.098018	-0.238532	0.037466	-0.152351	0.0261807	-0.183166	0.00363575	-0.293208	0.174693	-0.118203	0.219664	-0.285407	0.25433	-0.175427	0.445692	-0.0037235	0.310511	0.0985842	0.762441	-0.0394723	0.368554	-0.315581	1.51459	
4.6463	5	0	-0.184232	-0.161293	0.0464035	0.469608	-0.165865	-0.0025165	-0.071611	0.155998	0.038443	0.098018	-0.234368	0.049901	-0.145902	0.0258035	-0.190473	0.0242845	-0.295588	0.18142	-0.127762	0.246677	-0.273778	0.252744	-0.175177	0.470039	0.005865	0.321002	0.0998775	0.783637	-0.0966315	0.431284	-0.294159	1.54037	
4.6402	5	0	-0.182783	-0.165389	0.0421818	0.481539	-0.173984	0.00085375	-0.067832	0.161881	0.038443	0.098018	-0.230203	0.062336	-0.139452	0.0254262	-0.197779	0.0449333	-0.297969	0.188147	-0.13732	0.273691	-0.262149	0.251158	-0.174928	0.494386	0.0154535	0.331492	0.101171	0.804834	-0.153791	0.494015	-0.272737	1.56616	
4.63714	5	0	-0.181334	-0.169485	0.03796	0.49347	-0.182103	0.004224	-0.064053	0.167764	0.038443	0.098018	-0.226038	0.074771	-0.133003	0.025049	-0.205086	0.065582	-0.300349	0.194875	-0.146878	0.300704	-0.250521	0.249572	-0.174679	0.518733	0.025042	0.341983	0.102464	0.82603	-0.21095	0.556746	-0.251315	1.59195	
4.63867	5	0	-0.171095	-0.169876	0.0447665	0.507405	-0.176657	0.00840825	-0.0488447	0.174562	0.0287292	0.104365	-0.208956	0.0749983	-0.135654	0.03254	-0.199948	0.0887643	-0.292951	0.191766	-0.152627	0.316951	-0.249137	0.245661	-0.174679	0.518733	0.021179	0.352901	0.106651	0.839081	-0.177198	0.560168	-0.247159	1.62352	
4.63257	5	0	-0.160857	-0.170268	0.051573	0.521339	-0.171211	0.0125925	-0.0336365	0.18136	0.0190155	0.110712	-0.191873	0.0752255	-0.138304	0.040031	-0.194809	0.111947	-0.285554	0.188657	-0.158376	0.333199	-0.247754	0.24175	-0.174679	0.518733	0.017316	0.363818	0.110838	0.852132	-0.143446	0.56359	-0.243004	1.65509	
4.63104	5	0	-0.150618	-0.170659	0.0583795	0.535274	-0.165766	0.0167767	-0.0184283	0.188159	0.00930175	0.11706	-0.174791	0.0754527	-0.140955	0.047522	-0.18967	0.135129	-0.278157	0.185548	-0.164125	0.349446	-0.24637	0.237839	-0.174679	0.518733	0.013453	0.374736	0.115024	0.865184	-0.109694	0.567012	-0.238848	1.68666	
4.62646	5	0	-0.140379	-0.17105	0.065186	0.549209	-0.16032	0.020961	-0.00322	0.194957	-0.000412	0.123407	-0.157709	0.07568	-0.143605	0.055013	-0.184532	0.158311	-0.270759	0.182439	-0.169874	0.365693	-0.244986	0.233928	-0.174679	0.518733	0.00959	0.385654	0.119211	0.878235	-0.075942	0.570434	-0.234692	1.71823	
4.62494	5	0	-0.137389	-0.150912	0.0809415	0.571202	-0.15844	0.0352442	0.0091305	0.209965	0.00712475	0.123212	-0.151776	0.0832113	-0.14069	0.064641	-0.179406	0.181604	-0.273937	0.191419	-0.161106	0.374565	-0.24637	0.237839	-0.16596	0.519177	0.00572225	0.396585	0.114844	0.890578	-0.0837833	0.592594	-0.215265	1.72849	
4.62341	5	0	-0.134399	-0.130775	0.096697	0.593195	-0.15656	0.0495275	0.021481	0.224973	0.0146615	0.123018	-0.145842	0.0907425	-0.137775	0.074269	-0.17428	0.204897	-0.277114	0.200399	-0.152339	0.383438	-0.247754	0.24175	-0.157241	0.519621	0.0018545	0.407516	0.110476	0.902922	-0.0916245	0.614754	-0.195838	1.73875	
4.62036	5	0	-0.131408	-0.110637	0.112452	0.615188	-0.154681	0.0638107	0.0338315	0.239982	0.0221982	0.122823	-0.139909	0.0982737	-0.13486	0.083897	-0.169154	0.22819	-0.280292	0.209379	-0.143572	0.392311	-0.249137	0.245661	-0.148522	0.520065	-0.00201325	0.418447	0.106108	0.915266	-0.0994657	0.636915	-0.176411	1.74901	
4.62341	5	0	-0.128418	-0.090499	0.128208	0.637181	-0.152801	0.078094	0.046182	0.25499	0.029735	0.122628	-0.133976	0.105805	-0.131945	0.093525	-0.164028	0.251483	-0.283469	0.218359	-0.134804	0.401183	-0.250521	0.249572	-0.139803	0.520509	-0.005881	0.429378	0.101741	0.927609	-0.107307	0.659075	-0.156984	1.75927	
4.62341	5	0	-0.123981	-0.0744057	0.141864	0.665345	-0.150928	0.0924167	0.0499028	0.277824	0.0275565	0.128785	-0.120335	0.115947	-0.129031	0.103173	-0.160148	0.278375	-0.279246	0.224239	-0.139568	0.431496	-0.25329	0.257399	-0.135319	0.532956	-0.00781675	0.434848	0.110294	0.928354	-0.065515	0.640301	-0.151515	1.78738	
4.62036	5	0	-0.119544	-0.0583125	0.15552	0.693509	-0.149055	0.10674	0.0536235	0.300658	0.025378	0.134942	-0.106693	0.126089	-0.126117	0.112821	-0.156268	0.305266	-0.275023	0.230119	-0.144333	0.461808	-0.25606	0.265226	-0.130835	0.545403	-0.0097525	0.440319	0.118847	0.929099	-0.023723	0.621528	-0.146046	1.81549	
4.62189	5	0	-0.115107	-0.0422192	0.169176	0.721673	-0.147182	0.121062	0.0573442	0.323492	0.0231995	0.141099	-0.0930523	0.136232	-0.123203	0.122469	-0.152388	0.332157	-0.270799	0.235999	-0.149097	0.492121	-0.25883	0.273053	-0.126352	0.55785	-0.0116883	0.44579	0.1274	0.929844	0.018069	0.602754	-0.140577	1.8436	
4.62494	5	0	-0.11067	-0.026126	0.182832	0.749837	-0.145309	0.135385	0.061065	0.346326	0.021021	0.147256	-0.079411	0.146374	-0.120289	0.132117	-0.148508	0.359049	-0.266576	0.241879	-0.153861	0.522433	-0.261599	0.28088	-0.121868	0.570297	-0.013624	0.45126	0.135953	0.930589	0.059861	0.583981	-0.135108	1.87172	
4.62494	5	0	-0.11067	-0.026126	0.174263	0.774056	-0.148893	0.145513	0.061947	0.360531	0.0166595	0.159582	-0.0734573	0.153943	-0.125615	0.147169	-0.150907	0.384787	-0.263147	0.25002	-0.149931	0.545069	-0.252726	0.287133	-0.131803	0.598374	-0.0174988	0.462211	0.130115	0.947089	0.048048	0.617366	-0.120927	1.89719	
4.62646	5	0	-0.11067	-0.026126	0.165693	0.798274	-0.152477	0.155641	0.062829	0.374735	0.012298	0.171909	-0.0675035	0.161511	-0.13094	0.16222	-0.153307	0.410525	-0.259718	0.258162	-0.146001	0.567704	-0.243853	0.293385	-0.141738	0.626452	-0.0213735	0.473162	0.124276	0.963589	0.036235	0.650751	-0.106746	1.92265	
4.63104	5	0	-0.11067	-0.026126	0.157124	0.822492	-0.15606	0.16577	0.063711	0.38894	0.0079365	0.184235	-0.0615498	0.169079	-0.136266	0.177271	-0.155706	0.436264	-0.256289	0.266303	-0.142071	0.59034	-0.234979	0.299638	-0.151672	0.654529	-0.0252482	0.484113	0.118438	0.980089	0.024422	0.684137	-0.0925658	1.94812	
4.62952	5	0	-0.11067	-0.026126	0.148555	0.846711	-0.159644	0.175898	0.064593	0.403145	0.003575	0.196562	-0.055596	0.176648	-0.141592	0.192323	-0.158106	0.462002	-0.25286	0.274444	-0.138141	0.612975	-0.226106	0.30589	-0.161607	0.682606	-0.029123	0.495064	0.1126	0.996589	0.012609	0.717522	-0.078385	1.97359	
4.62799	5	0	-0.12239	-0.021637	0.148555	0.846711	-0.160541	0.178432	0.0521475	0.404938	0.0079365	0.184235	-0.0615498	0.169079	-0.133353	0.186939	-0.153089	0.4668	-0.255252	0.281204	-0.144927	0.632154	-0.227494	0.309813	-0.142706	0.679527	-0.0310622	0.500544	0.119698	1.00148	-0.0410107	0.769723	-0.0715988	1.99824	
4.62646	5	0	-0.134109	-0.017148	0.148555	0.846711	-0.161437	0.180966	0.039702	0.406732	0.012298	0.171909	-0.0675035	0.161511	-0.125114	0.181556	-0.148071	0.471597	-0.257644	0.287963	-0.151714	0.651333	-0.228882	0.313736	-0.123804	0.676449	-0.0330015	0.506025	0.126796	1.00637	-0.0946305	0.821924	-0.0648125	2.02288	
4.63409	5	0	-0.145829	-0.012659	0.148555	0.846711	-0.162333	0.1835	0.0272565	0.408525	0.0166595	0.159582	-0.0734573	0.153943	-0.116876	0.176173	-0.143054	0.476394	-0.260035	0.294722	-0.1585	0.670512	-0.23027	0.317659	-0.104903	0.67337	-0.0349407	0.511505	0.133893	1.01126	-0.14825	0.874124	-0.0580263	2.04753	
4.63104	5	0	-0.157549	-0.00817	0.148555	0.846711	-0.16323	0.186034	0.014811	0.410319	0.021021	0.147256	-0.079411	0.146374	-0.108637	0.170789	-0.138037	0.481192	-0.262427	0.301482	-0.165286	0.689691	-0.231658	0.321582	-0.086002	0.670291	-0.03688	0.516986	0.140991	1.01615	-0.20187	0.926325	-0.05124	2.07217	
4.62799	5	0	-0.159007	-0.004048	0.150699	0.84065	-0.16323	0.186034	0.0196673	0.396594	0.0156628	0.141294	-0.0706408	0.121588	-0.115987	0.173662	-0.140517	0.488202	-0.263225	0.303737	-0.165286	0.689691	-0.23027	0.317659	-0.0947485	0.669824	-0.0349407	0.511505	0.133893	1.01126	-0.205827	0.937509	-0.0377352	2.07794	
4.62799	5	0	-0.160466	7.4E-05	0.152844	0.834589	-0.16323	0.186034	0.0245235	0.38287	0.0103045	0.135331	-0.0618705	0.096801	-0.123338	0.176535	-0.142998	0.495212	-0.264023	0.305991	-0.165286	0.689691	-0.228882	0.313736	-0.103495	0.669356	-0.0330015	0.506025	0.126796	1.00637	-0.209785	0.948693	-0.0242305	2.0837	
4.62952	5	0	-0.161924	0.004196	0.154989	0.828529	-0.16323	0.186034	0.0293798	0.369146	0.00494625	0.129369	-0.0531003	0.0720145	-0.130688	0.179408	-0.145479	0.502222	-0.26482	0.308246	-0.165286	0.689691	-0.227494	0.309813	-0.112241	0.668889	-0.0310622	0.500544	0.119698	1.00148	-0.213743	0.959878	-0.0107257	2.08946	
4.62494	5	0	-0.163383	0.008318	0.157133	0.822468	-0.16323	0.186034	0.034236	0.355421	-0.000412	0.123407	-0.04433	0.047228	-0.138039	0.182281	-0.147959	0.509232	-0.265618	0.3105	-0.165286	0.689691	-0.226106	0.30589	-0.120988	0.668422	-0.029123	0.495064	0.1126	0.996589	-0.2177	0.971062	0.002779	2.09522	
4.62494	5	0	-0.161924	0.004196	0.154989	0.828529	-0.162333	0.1835	0.029475	0.352209	0.0017635	0.117259	-0.0520417	0.0446595	-0.1298	0.176898	-0.1492	0.512739	-0.256605	0.302878	-0.15654	0.681868	-0.223332	0.298049	-0.119566	0.664404	-0.0444855	0.500891	0.11698	0.984211	-0.168023	0.930003	0.007525	2.10381	
4.62036	5	0	-0.160466	7.4E-05	0.152844	0.834589	-0.161437	0.180966	0.024714	0.348996	0.003939	0.11111	-0.0597535	0.042091	-0.121561	0.171515	-0.150441	0.516246	-0.247592	0.295255	-0.147794	0.674045	-0.220558	0.290208	-0.118144	0.660385	-0.059848	0.506718	0.12136	0.971834	-0.118346	0.888945	0.012271	2.1124	
4.61731	5	0	-0.159007	-0.004048	0.150699	0.84065	-0.160541	0.178432	0.019953	0.345784	0.0061145	0.104961	-0.0674653	0.0395225	-0.113323	0.166131	-0.151681	0.519753	-0.23858	0.287632	-0.139049	0.666222	-0.217783	0.282368	-0.116723	0.656367	-0.0752105	0.512546	0.125739	0.959456	-0.0686683	0.847886	0.017017	2.12099	
4.61731	5	0	-0.157549	-0.00817	0.148555	0.846711	-0.159644	0.175898	0.015192	0.342572	0.00829	0.098813	-0.075177	0.036954	-0.105084	0.160748	-0.152922	0.52326	-0.229567	0.28001	-0.130303	0.658399	-0.215009	0.274527	-0.115301	0.652349	-0.090573	0.518373	0.130119	0.947078	-0.018991	0.806828	0.021763	2.12958	
4.61883	5	0	-0.157549	-0.00817	0.150699	0.84065	-0.159644	0.175898	0.0248018	0.332081	0.00829	0.098813	-0.082878	0.034387	-0.113323	0.166131	-0.151681	0.519753	-0.23858	0.287632	-0.128363	0.652917	-0.217783	0.282368	-0.11388	0.648332	-0.0732725	0.507068	0.131578	0.942956	-0.0229482	0.818012	0.0251628	2.142	
4.61578	5	0	-0.157549	-0.00817	0.152844	0.834589	-0.159644	0.175898	0.0344115	0.321589	0.00829	0.098813	-0.090579	0.03182	-0.121561	0.171515	-0.150441	0.516246	-0.247592	0.295255	-0.126423	0.647434	-0.220558	0.290208	-0.112459	0.644316	-0.055972	0.495764	0.133036	0.938833	-0.0269055	0.829197	0.0285625	2.15442	
4.6112	5	0	-0.157549	-0.00817	0.154989	0.828529	-0.159644	0.175898	0.0440212	0.311098	0.00829	0.098813	-0.09828	0.029253	-0.1298	0.176898	-0.1492	0.512739	-0.256605	0.302878	-0.124484	0.641952	-0.223332	0.298049	-0.111037	0.6403	-0.0386715	0.484459	0.134494	0.934711	-0.0308627	0.840381	0.0319622	2.16685	
4.6112	5	0	-0.157549	-0.00817	0.157133	0.822468	-0.159644	0.175898	0.053631	0.300607	0.00829	0.098813	-0.105981	0.026686	-0.138039	0.182281	-0.147959	0.509232	-0.265618	0.3105	-0.122544	0.63647	-0.226106	0.30589	-0.109616	0.636283	-0.021371	0.473155	0.135953	0.930589	-0.03482	0.851565	0.035362	2.17927	
4.60815	5	0	-0.153177	-0.020525	0.15032	0.808313	-0.164193	0.169139	0.050868	0.275096	-0.0003255	0.10208	-0.110182	0.0142575	-0.144494	0.182641	-0.149258	0.493926	-0.258201	0.307387	-0.123539	0.622389	-0.226106	0.30589	-0.106776	0.628256	-0.0252482	0.484113	0.140325	0.918234	-0.0269102	0.829211	0.0414625	2.18408	
4.6051	5	0	-0.148805	-0.03288	0.143507	0.794158	-0.168743	0.16238	0.048105	0.249586	-0.008941	0.105348	-0.114382	0.001829	-0.150949	0.183001	-0.150557	0.478619	-0.250783	0.304274	-0.124534	0.608308	-0.226106	0.30589	-0.103936	0.620228	-0.0291255	0.49507	0.144697	0.905879	-0.0190005	0.806856	0.047563	2.18889	
4.60052	5	0	-0.144434	-0.045235	0.136694	0.780004	-0.173292	0.155621	0.045342	0.224075	-0.0175565	0.108616	-0.118583	-0.0105995	-0.157404	0.18336	-0.151855	0.463313	-0.243366	0.301161	-0.12553	0.594228	-0.226106	0.30589	-0.101095	0.6122	-0.0330028	0.506028	0.149068	0.893524	-0.0110907	0.784501	0.0536635	2.19371	
4.59747	5	0	-0.140062	-0.05759	0.129881	0.765849	-0.177841	0.148862	0.042579	0.198564	-0.026172	0.111883	-0.122783	-0.023028	-0.163859	0.18372	-0.153154	0.448007	-0.235949	0.298048	-0.126525	0.580147	-0.226106	0.30589	-0.098255	0.604173	-0.03688	0.516986	0.15344	0.881169	-0.003181	0.762147	0.059764	2.19852	
4.59747	5	0	-0.145948	-0.069546	0.137963	0.709659	-0.167023	0.137904	0.0341117	0.156033	-0.0260958	0.0906095	-0.15317	-0.0822853	-0.164104	0.166544	-0.135993	0.380549	-0.236747	0.300303	-0.107233	0.525625	-0.237751	0.307471	-0.124656	0.578378	-0.0503033	0.517333	0.145047	0.855086	-0.0110907	0.784501	0.052314	2.19752	
4.59595	5	0	-0.151833	-0.081502	0.146045	0.653469	-0.156204	0.126946	0.0256445	0.113501	-0.0260195	0.069336	-0.183557	-0.141542	-0.164348	0.149368	-0.118831	0.313091	-0.237545	0.302558	-0.0879415	0.471104	-0.249397	0.309053	-0.151057	0.552584	-0.0637265	0.517679	0.136655	0.829003	-0.0190005	0.806856	0.044864	2.19652	
4.59289	5	0	-0.157718	-0.093458	0.154127	0.597278	-0.145386	0.115989	0.0171773	0.0709702	-0.0259433	0.0480625	-0.213944	-0.2008	-0.164593	0.132193	-0.101669	0.245634	-0.238344	0.304814	-0.0686497	0.416583	-0.261042	0.310634	-0.177457	0.526789	-0.0771498	0.518026	0.128263	0.80292	-0.0269103	0.829211	0.037414	2.19552	
4.58679	5	0	-0.163604	-0.105414	0.162209	0.541088	-0.134568	0.105031	0.00871	0.028439	-0.025867	0.026789	-0.244331	-0.260057	-0.164837	0.115017	-0.084508	0.178176	-0.239142	0.307069	-0.049358	0.362061	-0.272687	0.312215	-0.203858	0.500994	-0.090573	0.518373	0.11987	0.776837	-0.03482	0.851565	0.029964	2.19452	
4.58526	5	0	-0.159248	-0.117723	0.128555	0.503395	-0.130007	0.111777	0.00305175	-0.0217948	-0.0268905	0.0086475	-0.269507	-0.332919	-0.171535	0.098265	-0.080087	0.108925	-0.230919	0.301696	-0.0439237	0.296112	-0.269915	0.304381	-0.236246	0.442924	-0.0752105	0.512546	0.097319	0.741365	-0.03482	0.851565	0.009018	2.18771	
4.58069	5	0	-0.154892	-0.130033	0.0949015	0.465703	-0.125445	0.118523	-0.0026065	-0.0720285	-0.027914	-0.009494	-0.294683	-0.40578	-0.178233	0.081513	-0.075666	0.039674	-0.222696	0.296323	-0.0384895	0.230164	-0.267143	0.296548	-0.268635	0.384854	-0.059848	0.506718	0.074768	0.705893	-0.03482	0.851565	-0.011928	2.1809	
4.58069	5	0	-0.150537	-0.142343	0.0612478	0.42801	-0.120884	0.125268	-0.00826475	-0.122262	-0.0289375	-0.0276355	-0.319859	-0.478641	-0.18493	0.064761	-0.071245	-0.029577	-0.214473	0.29095	-0.0330553	0.164215	-0.264371	0.288714	-0.301023	0.326784	-0.0444855	0.500891	0.052217	0.670422	-0.03482	0.851565	-0.032874	2.17408	
4.57306	5	0	-0.146181	-0.154652	0.027594	0.390317	-0.116323	0.132014	-0.013923	-0.172496	-0.029961	-0.045777	-0.345035	-0.551503	-0.191628	0.048009	-0.066824	-0.098828	-0.20625	0.285577	-0.027621	0.098266	-0.261599	0.28088	-0.333412	0.268714	-0.029123	0.495064	0.029666	0.63495	-0.03482	0.851565	-0.05382	2.16727	
4.57916	5	0	-0.144731	-0.158752	-0.00377875	0.347118	-0.102702	0.132853	-0.041424	-0.193671	-0.0267205	-0.054935	-0.361014	-0.577935	-0.196299	0.043394	-0.0773065	-0.14461	-0.193774	0.286102	-0.0444457	0.0618025	-0.24718	0.271458	-0.342631	0.220415	-0.0425487	0.495418	0.0156623	0.600468	-0.0387825	0.862763	-0.063266	2.15009	
4.57916	5	0	-0.14328	-0.162851	-0.0351515	0.303918	-0.08908	0.133693	-0.068925	-0.214846	-0.02348	-0.064093	-0.376993	-0.604367	-0.200969	0.038779	-0.087789	-0.190393	-0.181298	0.286626	-0.0612705	0.025339	-0.23276	0.262036	-0.35185	0.172116	-0.0559745	0.495771	0.0016585	0.565986	-0.042745	0.873962	-0.072712	2.13291	
4.57306	5	0	-0.141829	-0.166951	-0.0665242	0.260719	-0.0754585	0.134532	-0.096426	-0.236021	-0.0202395	-0.073251	-0.392972	-0.6308	-0.20564	0.034164	-0.0982715	-0.236175	-0.168821	0.287151	-0.0780953	-0.0111245	-0.21834	0.252614	-0.36107	0.123817	-0.0694002	0.496124	-0.0123452	0.531505	-0.0467075	0.88516	-0.082158	2.11573	
4.57458	5	0	-0.140379	-0.17105	-0.097897	0.21752	-0.061837	0.135372	-0.123927	-0.257196	-0.016999	-0.082409	-0.408951	-0.657232	-0.210311	0.029549	-0.108754	-0.281957	-0.156345	0.287675	-0.09492	-0.047588	-0.203921	0.243192	-0.370289	0.075518	-0.082826	0.496478	-0.026349	0.497023	-0.05067	0.896358	-0.091604	2.09855	
4.56695	5	0	-0.141829	-0.166951	-0.11145	0.19024	-0.0572595	0.142135	-0.139984	-0.26107	-0.0277488	-0.0730387	-0.414833	-0.664412	-0.210311	0.029549	-0.121447	-0.302439	-0.146243	0.29498	-0.103873	-0.0725125	-0.193636	0.245507	-0.367861	0.0439365	-0.0655255	0.485173	-0.020569	0.456067	-0.0126445	0.888762	-0.0949843	2.0862	
4.56848	5	0	-0.14328	-0.162851	-0.125003	0.162961	-0.052682	0.148898	-0.15604	-0.264944	-0.0384985	-0.0636685	-0.420714	-0.671593	-0.210311	0.029549	-0.134141	-0.322921	-0.136142	0.302285	-0.112826	-0.097437	-0.183351	0.247823	-0.365432	0.012355	-0.048225	0.473869	-0.014789	0.41511	0.025381	0.881166	-0.0983645	2.07386	
4.55932	5	0	-0.144731	-0.158752	-0.138557	0.135681	-0.0481045	0.155661	-0.172097	-0.268818	-0.0492483	-0.0542982	-0.426596	-0.678773	-0.210311	0.029549	-0.146835	-0.343404	-0.12604	0.309589	-0.121778	-0.122362	-0.173066	0.250138	-0.363004	-0.0192265	-0.0309245	0.462564	-0.009009	0.374154	0.0634065	0.87357	-0.101745	2.06151	
4.5578	5	0	-0.146181	-0.154652	-0.15211	0.108401	-0.043527	0.162424	-0.188154	-0.272692	-0.059998	-0.044928	-0.432478	-0.685953	-0.210311	0.029549	-0.159528	-0.363886	-0.115939	0.316894	-0.130731	-0.147286	-0.162781	0.252453	-0.360576	-0.050808	-0.013624	0.45126	-0.003229	0.333198	0.101432	0.865974	-0.105125	2.04916	
4.5578	5	0	-0.147632	-0.150551	-0.171839	0.0988032	-0.047123	0.172587	-0.197577	-0.278824	-0.0610783	-0.0418755	-0.452657	-0.676438	-0.209429	0.0270575	-0.164784	-0.386508	-0.11008	0.318287	-0.145318	-0.156154	-0.168334	0.268148	-0.367808	-0.0550553	-0.013624	0.45126	-0.00602425	0.31651	0.089485	0.899738	-0.121235	2.05097	
4.55475	5	0	-0.149084	-0.14645	-0.191567	0.0892055	-0.050719	0.18275	-0.207	-0.284957	-0.0621585	-0.038823	-0.472836	-0.666924	-0.208548	0.024566	-0.17004	-0.40913	-0.10422	0.319681	-0.159904	-0.165021	-0.173888	0.283844	-0.375039	-0.0593025	-0.013624	0.45126	-0.0088195	0.299822	0.077538	0.933503	-0.137346	2.05278	
4.55627	5	0	-0.150535	-0.142348	-0.211295	0.0796078	-0.054315	0.192912	-0.216422	-0.29109	-0.0632387	-0.0357705	-0.493015	-0.657409	-0.207667	0.0220745	-0.175297	-0.431751	-0.0983612	0.321074	-0.17449	-0.173889	-0.179442	0.299539	-0.382271	-0.0635498	-0.013624	0.45126	-0.0116148	0.283135	0.065591	0.967267	-0.153456	2.05459	
4.55932	5	0	-0.151986	-0.138247	-0.231024	0.07001	-0.057911	0.203075	-0.225845	-0.297222	-0.064319	-0.032718	-0.513194	-0.647894	-0.206785	0.019583	-0.180553	-0.454373	-0.092502	0.322467	-0.189077	-0.182756	-0.184995	0.315234	-0.389503	-0.067797	-0.013624	0.45126	-0.01441	0.266447	0.053644	1.00103	-0.169567	2.0564	
4.56238	5	0	-0.157875	-0.15015	-0.23159	0.039019	-0.0633818	0.198836	-0.240888	-0.303744	-0.0707388	-0.0355612	-0.515674	-0.664597	-0.196823	0.00924475	-0.195606	-0.467903	-0.092502	0.322467	-0.192053	-0.191012	-0.171916	0.309708	-0.390879	-0.0639082	0.00371175	0.439933	-0.0200437	0.257813	0.053644	1.00103	-0.169567	2.0564	
4.56543	5	0	-0.163763	-0.162054	-0.232156	0.008028	-0.0688525	0.194598	-0.255931	-0.310267	-0.0771585	-0.0384045	-0.518154	-0.6813	-0.186862	-0.0010935	-0.210659	-0.481433	-0.092502	0.322467	-0.19503	-0.199267	-0.158838	0.304183	-0.392255	-0.0600195	0.0210475	0.428605	-0.0256775	0.249178	0.053644	1.00103	-0.169567	2.0564	
4.56543	5	0	-0.169652	-0.173957	-0.232722	-0.022963	-0.0743233	0.19036	-0.270974	-0.31679	-0.0835782	-0.0412477	-0.520634	-0.698003	-0.1769	-0.0114318	-0.225713	-0.494963	-0.092502	0.322467	-0.198007	-0.207522	-0.145759	0.298657	-0.393631	-0.0561307	0.0383833	0.417277	-0.0313112	0.240544	0.053644	1.00103	-0.169567	2.0564	
4.57153	5	0	-0.17554	-0.18586	-0.233288	-0.053954	-0.079794	0.186121	-0.286017	-0.323312	-0.089998	-0.044091	-0.523114	-0.714706	-0.166938	-0.02177	-0.240766	-0.508493	-0.092502	0.322467	-0.200983	-0.215778	-0.132681	0.293131	-0.395007	-0.052242	0.055719	0.40595	-0.036945	0.23191	0.053644	1.00103	-0.169567	2.0564	
4.57764	5	0	-0.171199	-0.19813	-0.252939	-0.0634265	-0.0788955	0.183582	-0.309437	-0.338564	-0.081376	-0.0684582	-0.555651	-0.740858	-0.163416	-0.0317235	-0.252214	-0.532045	-0.0890435	0.330663	-0.215522	-0.2246	-0.138247	0.308861	-0.398107	-0.0681352	0.055719	0.40595	-0.0552597	0.234655	0.0918667	0.993415	-0.175603	2.05163	
4.58679	5	0	-0.166857	-0.2104	-0.272591	-0.072899	-0.077997	0.181043	-0.332858	-0.353816	-0.072754	-0.0928255	-0.588189	-0.767011	-0.159894	-0.041677	-0.263661	-0.555597	-0.085585	0.338859	-0.230061	-0.233422	-0.143813	0.324591	-0.401207	-0.0840285	0.055719	0.40595	-0.0735745	0.237401	0.130089	0.985799	-0.18164	2.04687	
4.59289	5	0	-0.162516	-0.22267	-0.292243	-0.0823715	-0.0770985	0.178504	-0.356278	-0.369068	-0.064132	-0.117193	-0.620726	-0.793164	-0.156372	-0.0516305	-0.275109	-0.579148	-0.0821265	0.347054	-0.244601	-0.242244	-0.149379	0.34032	-0.404306	-0.0999218	0.055719	0.40595	-0.0918892	0.240146	0.168312	0.978183	-0.187676	2.04211	
4.60358	5	0	-0.158174	-0.23494	-0.311894	-0.091844	-0.0762	0.175965	-0.379698	-0.38432	-0.05551	-0.14156	-0.653264	-0.819316	-0.15285	-0.061584	-0.286557	-0.6027	-0.078668	0.35525	-0.25914	-0.251066	-0.154945	0.35605	-0.407406	-0.115815	0.055719	0.40595	-0.110204	0.242891	0.206535	0.970567	-0.193712	2.03734	
4.6112	5	0	-0.15962	-0.230852	-0.288755	-0.124762	-0.0662352	0.167502	-0.392769	-0.396074	-0.050133	-0.156756	-0.654073	-0.84056	-0.139069	-0.0648507	-0.303909	-0.609399	-0.0736017	0.358919	-0.277375	-0.249309	-0.157731	0.363925	-0.417366	-0.112289	0.0345085	0.428229	-0.110204	0.242891	0.198525	0.993205	-0.202409	2.04013	
4.61578	5	0	-0.161067	-0.226764	-0.265616	-0.157681	-0.0562705	0.15904	-0.40584	-0.407829	-0.044756	-0.171952	-0.654883	-0.861805	-0.125287	-0.0681175	-0.32126	-0.616099	-0.0685355	0.362588	-0.295611	-0.247551	-0.160518	0.3718	-0.427325	-0.108763	0.013298	0.450507	-0.110204	0.242891	0.190515	1.01584	-0.211107	2.04291	
4.61883	5	0	-0.162514	-0.222676	-0.242476	-0.190599	-0.0463057	0.150578	-0.41891	-0.419583	-0.039379	-0.187148	-0.655693	-0.883049	-0.111506	-0.0713842	-0.338611	-0.622799	-0.0634693	0.366256	-0.313846	-0.245793	-0.163304	0.379676	-0.437284	-0.105238	-0.0079125	0.472785	-0.110204	0.242891	0.182505	1.03848	-0.219805	2.04569	
4.62494	5	0	-0.16396	-0.218588	-0.219337	-0.223517	-0.036341	0.142115	-0.431981	-0.431337	-0.034002	-0.202344	-0.656502	-0.904293	-0.097725	-0.074651	-0.355963	-0.629498	-0.058403	0.369925	-0.332082	-0.244036	-0.166091	0.387551	-0.447244	-0.101712	-0.029123	0.495064	-0.110204	0.242891	0.174495	1.06112	-0.228502	2.04847	
4.63409	5	0	-0.158065	-0.206704	-0.22343	-0.211949	-0.0445098	0.145502	-0.447823	-0.418959	-0.0350767	-0.199307	-0.652348	-0.892499	-0.0856777	-0.0729485	-0.375392	-0.611654	-0.043429	0.363633	-0.355866	-0.226465	-0.151598	0.378081	-0.438657	-0.101357	-0.005977	0.467315	-0.115811	0.234278	0.166465	1.08381	-0.229195	2.02866	
4.63562	5	0	-0.15217	-0.194819	-0.227523	-0.200381	-0.0526785	0.148889	-0.463664	-0.406581	-0.0361515	-0.196269	-0.648195	-0.880706	-0.0736305	-0.071246	-0.394822	-0.593809	-0.028455	0.357341	-0.379651	-0.208893	-0.137105	0.368611	-0.430071	-0.101002	0.017169	0.439566	-0.121418	0.225665	0.158434	1.10651	-0.229888	2.00885	
4.6402	5	0	-0.146274	-0.182934	-0.231617	-0.188813	-0.0608472	0.152276	-0.479505	-0.394203	-0.0372263	-0.193232	-0.644042	-0.868912	-0.0615832	-0.0695435	-0.414251	-0.575965	-0.013481	0.351049	-0.403435	-0.191321	-0.122613	0.359142	-0.421484	-0.100648	0.040315	0.411817	-0.127025	0.217052	0.150403	1.1292	-0.230581	1.98904	
4.6463	5	0	-0.140379	-0.17105	-0.23571	-0.177245	-0.069016	0.155663	-0.495347	-0.381825	-0.038301	-0.190195	-0.639888	-0.857118	-0.049536	-0.067841	-0.433681	-0.558121	0.001493	0.344757	-0.427219	-0.17375	-0.10812	0.349672	-0.412898	-0.100293	0.063461	0.384068	-0.132632	0.208439	0.142373	1.1519	-0.231274	1.96922	
4.65088	5	0	-0.147638	-0.150534	-0.233663	-0.183031	-0.0681185	0.153126	-0.513964	-0.361547	-0.0286418	-0.196507	-0.63741	-0.840559	-0.0356975	-0.0711322	-0.442198	-0.552556	0.000689	0.347029	-0.444288	-0.158534	-0.094997	0.344126	-0.417021	-0.088642	0.0653955	0.378601	-0.125583	0.188518	0.142373	1.1519	-0.243307	1.95976	
4.65088	5	0	-0.154898	-0.130018	-0.231616	-0.188817	-0.067221	0.150589	-0.532581	-0.34127	-0.0189825	-0.202818	-0.634932	-0.824001	-0.021859	-0.0744235	-0.450715	-0.54699	-0.000115	0.349301	-0.461357	-0.143318	-0.081874	0.33858	-0.421144	-0.076991	0.06733	0.373134	-0.118535	0.168597	0.142373	1.1519	-0.255339	1.9503	
4.6524	5	0	-0.162157	-0.109502	-0.229568	-0.194603	-0.0663235	0.148053	-0.551198	-0.320992	-0.00932325	-0.209129	-0.632454	-0.807442	-0.0080205	-0.0777147	-0.459232	-0.541425	-0.000919	0.351573	-0.478427	-0.128102	-0.068751	0.333035	-0.425266	-0.06534	0.0692645	0.367666	-0.111486	0.148676	0.142373	1.1519	-0.267372	1.94084	
4.65546	5	0	-0.169416	-0.088986	-0.227521	-0.200389	-0.065426	0.145516	-0.569815	-0.300714	0.000336	-0.215441	-0.629976	-0.790883	0.005818	-0.081006	-0.467749	-0.53586	-0.001723	0.353845	-0.495496	-0.112886	-0.055628	0.327489	-0.429389	-0.053689	0.071199	0.362199	-0.104437	0.128755	0.142373	1.1519	-0.279405	1.93138	
4.65698	5	0	-0.17087	-0.0848773	-0.22343	-0.21195	-0.0708952	0.141294	-0.569815	-0.300714	-0.00502675	-0.221272	-0.639145	-0.788531	0.005818	-0.081006	-0.482388	-0.531443	-0.000919	0.351573	-0.507864	-0.110897	-0.07154	0.340917	-0.429389	-0.053689	0.071199	0.362199	-0.111458	0.12417	0.192854	1.11018	-0.290087	1.9182	
4.66003	5	0	-0.172324	-0.0807685	-0.21934	-0.22351	-0.0763645	0.137072	-0.569815	-0.300714	-0.0103895	-0.227102	-0.648315	-0.786179	0.005818	-0.081006	-0.497028	-0.527027	-0.000115	0.349301	-0.520232	-0.108908	-0.087452	0.354345	-0.429389	-0.053689	0.071199	0.362199	-0.118479	0.119585	0.243335	1.06847	-0.30077	1.90503	
4.65393	5	0	-0.173778	-0.0766597	-0.215249	-0.23507	-0.0818338	0.132851	-0.569815	-0.300714	-0.0157522	-0.232933	-0.657485	-0.783827	0.005818	-0.081006	-0.511667	-0.52261	0.000689	0.347029	-0.532601	-0.10692	-0.103364	0.367773	-0.429389	-0.053689	0.071199	0.362199	-0.125499	0.114999	0.293816	1.02675	-0.311453	1.89185	
4.65393	5	0	-0.175232	-0.072551	-0.211158	-0.246631	-0.087303	0.128629	-0.569815	-0.300714	-0.021115	-0.238764	-0.666654	-0.781475	0.005818	-0.081006	-0.526306	-0.518193	0.001493	0.344757	-0.544969	-0.104931	-0.119276	0.381201	-0.429389	-0.053689	0.071199	0.362199	-0.13252	0.110414	0.344297	0.985039	-0.322135	1.87868	
4.65393	5	0	-0.173778	-0.0766597	-0.236942	-0.238659	-0.0918713	0.121882	-0.580005	-0.304196	-0.0275447	-0.241556	-0.670793	-0.793309	0.0140728	-0.0863997	-0.548205	-0.511599	0.001493	0.344757	-0.565809	-0.0953725	-0.122067	0.38909	-0.430764	-0.0498017	0.0731325	0.356735	-0.129709	0.102469	0.336257	1.00776	-0.336759	1.87674	
4.65393	5	0	-0.172324	-0.0807685	-0.262726	-0.230688	-0.0964395	0.115136	-0.590195	-0.307677	-0.0339745	-0.244347	-0.674932	-0.805143	0.0223275	-0.0917935	-0.570104	-0.505006	0.001493	0.344757	-0.58665	-0.085814	-0.124859	0.39698	-0.43214	-0.0459145	0.075066	0.351271	-0.126897	0.0945235	0.328216	1.03049	-0.351384	1.87481	
4.6524	5	0	-0.17087	-0.0848773	-0.28851	-0.222716	-0.101008	0.108389	-0.600385	-0.311159	-0.0404043	-0.247139	-0.679072	-0.816976	0.0305823	-0.0971873	-0.592002	-0.498413	0.001493	0.344757	-0.60749	-0.0762555	-0.127651	0.404869	-0.433515	-0.0420273	0.0769995	0.345808	-0.124086	0.0865782	0.320176	1.05321	-0.366008	1.87287	
4.65546	5	0	-0.169416	-0.088986	-0.314294	-0.214745	-0.105576	0.101642	-0.610575	-0.314641	-0.046834	-0.24993	-0.683211	-0.82881	0.038837	-0.102581	-0.613901	-0.491819	0.001493	0.344757	-0.62833	-0.066697	-0.130442	0.412758	-0.43489	-0.03814	0.078933	0.340344	-0.121274	0.078633	0.312135	1.07594	-0.380632	1.87094	
4.65088	5	0	-0.179648	-0.0886135	-0.308176	-0.232036	-0.110141	0.094907	-0.622569	-0.329059	-0.0532563	-0.252719	-0.707277	-0.831215	0.037071	-0.0975905	-0.632186	-0.495277	-0.00921425	0.356995	-0.639703	-0.0673768	-0.134634	0.424605	-0.447598	-0.026847	0.0731295	0.356745	-0.13672	0.09789	0.308107	1.08732	-0.38925	1.8737	
4.64935	5	0	-0.189881	-0.088241	-0.302058	-0.249327	-0.114707	0.088172	-0.634563	-0.343477	-0.0596785	-0.255509	-0.731343	-0.833619	0.035305	-0.0926	-0.65047	-0.498735	-0.0199215	0.369233	-0.651076	-0.0680565	-0.138826	0.436451	-0.460306	-0.015554	0.067326	0.373147	-0.152166	0.117147	0.304079	1.0987	-0.397869	1.87646	
4.64172	5	0	-0.200113	-0.0878685	-0.29594	-0.266617	-0.119272	0.081437	-0.646557	-0.357895	-0.0661007	-0.258298	-0.755408	-0.836024	0.033539	-0.0876095	-0.668754	-0.502194	-0.0306287	0.381471	-0.662448	-0.0687362	-0.143018	0.448298	-0.473013	-0.004261	0.0615225	0.389548	-0.167612	0.136404	0.300051	1.11009	-0.406487	1.87922	
4.64325	5	0	-0.210345	-0.087496	-0.289822	-0.283908	-0.123837	0.074702	-0.658551	-0.372313	-0.072523	-0.261087	-0.779474	-0.838429	0.031773	-0.082619	-0.687039	-0.505652	-0.041336	0.393709	-0.673821	-0.069416	-0.14721	0.460145	-0.485721	0.007032	0.055719	0.40595	-0.183058	0.155661	0.296023	1.12147	-0.415105	1.88199	
4.63867	5	0	-0.203021	-0.079649	-0.289822	-0.283908	-0.122943	0.072176	-0.669628	-0.37315	-0.071452	-0.264114	-0.781141	-0.833718	0.037385	-0.080527	-0.701554	-0.501295	-0.032237	0.386016	-0.706809	-0.057986	-0.148609	0.464098	-0.495662	0.010538	0.051844	0.416901	-0.188691	0.17158	0.287951	1.14428	-0.416426	1.88572	
4.63867	5	0	-0.195697	-0.071802	-0.289822	-0.283908	-0.12205	0.06965	-0.680704	-0.373988	-0.070381	-0.267141	-0.782808	-0.829006	0.042997	-0.078435	-0.716069	-0.496939	-0.023138	0.378323	-0.739797	-0.046556	-0.150007	0.46805	-0.505602	0.014044	0.047969	0.427852	-0.194323	0.187499	0.27988	1.16709	-0.417747	1.88945	
4.63104	5	0	-0.188374	-0.063955	-0.289822	-0.283908	-0.121156	0.067124	-0.69178	-0.374826	-0.06931	-0.270167	-0.784475	-0.824294	0.048609	-0.076343	-0.730584	-0.492582	-0.014039	0.370629	-0.772785	-0.035126	-0.151405	0.472002	-0.515543	0.01755	0.044094	0.438803	-0.199956	0.203419	0.271809	1.1899	-0.419067	1.89318	
4.62646	5	0	-0.18105	-0.056108	-0.289822	-0.283908	-0.120262	0.064598	-0.702857	-0.375663	-0.068239	-0.273194	-0.786142	-0.819583	0.054221	-0.074251	-0.745099	-0.488225	-0.00494	0.362936	-0.805773	-0.023696	-0.152804	0.475955	-0.525484	0.021056	0.040219	0.449754	-0.205589	0.219338	0.263737	1.21272	-0.420388	1.89692	
4.62036	5	0	-0.176633	-0.0400015	-0.293899	-0.272384	-0.122944	0.072178	-0.710294	-0.354644	-0.0703815	-0.267139	-0.789479	-0.810153	0.0755193	-0.0804813	-0.754704	-0.479386	-0.00333175	0.358391	-0.8227	-0.024766	-0.136888	0.462517	-0.543948	0.0241598	0.044094	0.438803	-0.222368	0.218063	0.259694	1.22414	-0.415108	1.88199	
4.61426	5	0	-0.172216	-0.023895	-0.297976	-0.260861	-0.125626	0.079758	-0.717731	-0.333624	-0.072524	-0.261085	-0.792816	-0.800723	0.0968175	-0.0867115	-0.764309	-0.470546	-0.0017235	0.353846	-0.839627	-0.025836	-0.120972	0.449079	-0.562413	0.0272635	0.047969	0.427852	-0.239146	0.216788	0.25565	1.23557	-0.409828	1.86707	
4.60815	5	0	-0.1678	-0.0077885	-0.302054	-0.249337	-0.128308	0.087338	-0.725169	-0.312605	-0.0746665	-0.25503	-0.796153	-0.791292	0.118116	-0.0929417	-0.773913	-0.461707	-0.00011525	0.349302	-0.856553	-0.026906	-0.105057	0.43564	-0.580878	0.0303672	0.051844	0.416901	-0.255925	0.215513	0.251607	1.247	-0.404548	1.85215	
4.60663	5	0	-0.163383	0.008318	-0.306131	-0.237814	-0.13099	0.094918	-0.732606	-0.291586	-0.076809	-0.248976	-0.79949	-0.781862	0.139414	-0.099172	-0.783518	-0.452868	0.001493	0.344757	-0.87348	-0.027976	-0.089141	0.422202	-0.599342	0.033471	0.055719	0.40595	-0.272704	0.214238	0.247563	1.25843	-0.399268	1.83723	
4.6051	5	0	-0.157508	0.0203463	-0.29938	-0.224473	-0.126427	0.10166	-0.721596	-0.274469	-0.0736072	-0.237085	-0.802083	-0.751091	0.133214	-0.0816487	-0.789423	-0.436178	-0.004391	0.343364	-0.8819	-0.020454	-0.10226	0.427737	-0.589429	0.0299795	0.0576545	0.400479	-0.271297	0.210263	0.247563	1.25843	-0.396632	1.82978	
4.60358	5	0	-0.151633	0.0323745	-0.292629	-0.211131	-0.121865	0.108402	-0.710587	-0.257352	-0.0704055	-0.225193	-0.804676	-0.72032	0.127013	-0.0641255	-0.795329	-0.419488	-0.010275	0.341971	-0.89032	-0.012932	-0.115379	0.433272	-0.579516	0.026488	0.05959	0.395009	-0.269891	0.206288	0.247563	1.25843	-0.393995	1.82233	
4.59747	5	0	-0.145757	0.0444027	-0.285878	-0.19779	-0.117303	0.115145	-0.699577	-0.240236	-0.0672038	-0.213302	-0.807268	-0.689548	0.120813	-0.0466023	-0.801234	-0.402799	-0.016159	0.340578	-0.89874	-0.00541	-0.128499	0.438807	-0.569604	0.0229965	0.0615255	0.389539	-0.268485	0.202312	0.247563	1.25843	-0.391358	1.81488	
4.58984	5	0	-0.139882	0.056431	-0.279127	-0.184449	-0.11274	0.121887	-0.688567	-0.223119	-0.064002	-0.20141	-0.809861	-0.658777	0.114612	-0.029079	-0.807139	-0.386109	-0.022043	0.339185	-0.90716	0.002112	-0.141618	0.444342	-0.559691	0.019505	0.063461	0.384068	-0.267078	0.198337	0.247563	1.25843	-0.388722	1.80742	
4.58832	5	0	-0.141345	0.0605645	-0.285269	-0.167091	-0.11274	0.121887	-0.696985	-0.199329	-0.0629555	-0.183405	-0.810814	-0.63261	0.11847	-0.0219613	-0.807	-0.368196	-0.020437	0.334646	-0.911813	0.0152625	-0.131296	0.446713	-0.566571	0.038949	0.0576505	0.400489	-0.264328	0.214898	0.29428	1.2279	-0.391358	1.81488	
4.58679	5	0	-0.142807	0.064698	-0.291411	-0.149733	-0.11274	0.121887	-0.705403	-0.175538	-0.061909	-0.165401	-0.811767	-0.606443	0.122329	-0.0148435	-0.806862	-0.350283	-0.018831	0.330107	-0.916466	0.028413	-0.120974	0.449085	-0.573451	0.058393	0.05184	0.416911	-0.261579	0.231459	0.340996	1.19738	-0.393995	1.82233	
4.57764	5	0	-0.144269	0.0688315	-0.297553	-0.132376	-0.11274	0.121887	-0.713821	-0.151748	-0.0608625	-0.147396	-0.812721	-0.580277	0.126187	-0.00772575	-0.806723	-0.332371	-0.017225	0.325568	-0.921119	0.0415635	-0.110653	0.451457	-0.580331	0.077837	0.0460295	0.433333	-0.258829	0.248021	0.387713	1.16685	-0.396632	1.82978	
4.58069	5	0	-0.145732	0.072965	-0.303695	-0.115018	-0.11274	0.121887	-0.722239	-0.127958	-0.059816	-0.129391	-0.813674	-0.55411	0.130045	-0.000608	-0.806584	-0.314458	-0.015619	0.321029	-0.925772	0.054714	-0.100331	0.453828	-0.587211	0.097281	0.040219	0.449754	-0.25608	0.264582	0.434429	1.13632	-0.399268	1.83723	
4.57458	5	0	-0.142808	0.0646998	-0.288747	-0.124785	-0.118197	0.117673	-0.714827	-0.132801	-0.0587395	-0.132433	-0.802857	-0.561178	0.123526	-0.00020525	-0.80777	-0.311107	-0.0206957	0.317372	-0.935119	0.0648698	-0.100331	0.453828	-0.582804	0.109383	0.0363395	0.460718	-0.256168	0.289193	0.434429	1.13632	-0.403227	1.84842	
4.57306	5	0	-0.139883	0.0564345	-0.273799	-0.134552	-0.123654	0.113459	-0.707414	-0.137645	-0.057663	-0.135475	-0.79204	-0.568246	0.117006	0.0001975	-0.808955	-0.307757	-0.0257725	0.313716	-0.944465	0.0750255	-0.100331	0.453828	-0.578398	0.121484	0.03246	0.471683	-0.256255	0.313804	0.434429	1.13632	-0.407187	1.85961	
4.56848	5	0	-0.136958	0.0481693	-0.258852	-0.144319	-0.129111	0.109245	-0.700001	-0.142488	-0.0565865	-0.138518	-0.781223	-0.575315	0.110487	0.00060025	-0.81014	-0.304407	-0.0308492	0.310059	-0.953812	0.0851813	-0.100331	0.453828	-0.573991	0.133586	0.0285805	0.482648	-0.256343	0.338414	0.434429	1.13632	-0.411146	1.8708	
4.56543	5	0	-0.134034	0.039904	-0.243904	-0.154086	-0.134568	0.105031	-0.692589	-0.147331	-0.05551	-0.14156	-0.770406	-0.582383	0.103968	0.001003	-0.811326	-0.301056	-0.035926	0.306402	-0.963159	0.095337	-0.100331	0.453828	-0.569584	0.145687	0.024701	0.493612	-0.256431	0.363025	0.434429	1.13632	-0.415105	1.88199	
4.56085	5	0	-0.134034	0.039904	-0.245954	-0.148292	-0.132779	0.0999755	-0.6954	-0.139387	-0.0576632	-0.135474	-0.775458	-0.568105	0.105742	-0.0040115	-0.814885	-0.290997	-0.040197	0.300486	-0.956608	0.093081	-0.0961355	0.441971	-0.566824	0.137887	0.0478893	0.46582	-0.252189	0.351035	0.438472	1.1249	-0.411146	1.8708	
4.5578	5	0	-0.134034	0.039904	-0.248004	-0.142499	-0.130991	0.09492	-0.698211	-0.131443	-0.0598165	-0.129389	-0.78051	-0.553827	0.107517	-0.009026	-0.818445	-0.280938	-0.044468	0.294569	-0.950056	0.090825	-0.09194	0.430114	-0.564064	0.130088	0.0710775	0.438028	-0.247946	0.339045	0.442516	1.11347	-0.407187	1.85961	
4.55475	5	0	-0.134034	0.039904	-0.250054	-0.136706	-0.129202	0.0898645	-0.701022	-0.123499	-0.0619697	-0.123303	-0.785562	-0.53955	0.109291	-0.0140405	-0.822004	-0.27088	-0.048739	0.288652	-0.943504	0.088569	-0.0877445	0.418256	-0.561304	0.122288	0.0942658	0.410236	-0.243704	0.327055	0.446559	1.10204	-0.403227	1.84842	
4.55017	5	0	-0.134034	0.039904	-0.252104	-0.130912	-0.127413	0.084809	-0.703833	-0.115555	-0.064123	-0.117218	-0.790614	-0.525272	0.111065	-0.019055	-0.825563	-0.260821	-0.05301	0.282736	-0.936953	0.086313	-0.083549	0.406399	-0.558544	0.114488	0.117454	0.382444	-0.239461	0.315065	0.450603	1.09061	-0.399268	1.83723	
4.54254	5	0	-0.136958	0.0481693	-0.241234	-0.129098	-0.127413	0.084809	-0.702044	-0.104493	-0.058775	-0.111346	-0.777377	-0.515588	0.117585	-0.0194605	-0.82426	-0.24618	-0.0498075	0.273685	-0.938818	0.0915833	-0.080755	0.398503	-0.537275	0.103588	0.10202	0.388321	-0.235224	0.303091	0.462702	1.05642	-0.395314	1.82605	
4.53949	5	0	-0.139883	0.0564345	-0.230364	-0.127284	-0.127413	0.084809	-0.700254	-0.093431	-0.053427	-0.105473	-0.764139	-0.505904	0.124105	-0.019866	-0.822957	-0.231539	-0.046605	0.264635	-0.940683	0.0968535	-0.077961	0.390606	-0.516007	0.092688	0.0865865	0.394197	-0.230987	0.291117	0.474802	1.02222	-0.39136	1.81488	
4.53644	5	0	-0.142808	0.0646998	-0.219495	-0.12547	-0.127413	0.084809	-0.698465	-0.082369	-0.048079	-0.0996013	-0.750902	-0.496221	0.130626	-0.0202715	-0.821654	-0.216897	-0.0434025	0.255584	-0.942547	0.102124	-0.075167	0.38271	-0.494738	0.081788	0.0711528	0.400073	-0.22675	0.279143	0.486901	0.988029	-0.387406	1.8037	
4.53186	5	0	-0.145732	0.072965	-0.208625	-0.123656	-0.127413	0.084809	-0.696675	-0.071307	-0.042731	-0.093729	-0.737665	-0.486537	0.137146	-0.020677	-0.820351	-0.202256	-0.0402	0.246534	-0.944412	0.107394	-0.072373	0.374814	-0.473469	0.070888	0.055719	0.40595	-0.222513	0.267169	0.499001	0.953834	-0.383452	1.79253	
4.52728	5	0	-0.145732	0.072965	-0.219495	-0.12547	-0.125625	0.0797563	-0.696675	-0.071307	-0.042731	-0.093729	-0.741047	-0.476981	0.136259	-0.0181688	-0.816672	-0.194312	-0.0386	0.242012	-0.947211	0.115306	-0.056435	0.361366	-0.474849	0.0747888	0.055719	0.40595	-0.212697	0.263822	0.499001	0.953834	-0.389431	1.78786	
4.52576	5	0	-0.145732	0.072965	-0.230364	-0.127284	-0.123837	0.0747035	-0.696675	-0.071307	-0.042731	-0.093729	-0.744428	-0.467424	0.135371	-0.0156605	-0.812993	-0.186368	-0.037	0.23749	-0.950011	0.123217	-0.040497	0.347919	-0.476229	0.0786895	0.055719	0.40595	-0.202881	0.260475	0.499001	0.953834	-0.395409	1.78318	
4.5166	5	0	-0.145732	0.072965	-0.241234	-0.129098	-0.12205	0.0696507	-0.696675	-0.071307	-0.042731	-0.093729	-0.74781	-0.457867	0.134483	-0.0131523	-0.809314	-0.178424	-0.0354	0.232968	-0.952811	0.131129	-0.024559	0.334471	-0.47761	0.0825903	0.055719	0.40595	-0.193065	0.257128	0.499001	0.953834	-0.401388	1.77851	
4.51507	5	0	-0.145732	0.072965	-0.252104	-0.130912	-0.120262	0.064598	-0.696675	-0.071307	-0.042731	-0.093729	-0.751191	-0.448311	0.133596	-0.010644	-0.805635	-0.17048	-0.0338	0.228446	-0.95561	0.13904	-0.008621	0.321024	-0.47899	0.086491	0.055719	0.40595	-0.183249	0.253781	0.499001	0.953834	-0.407366	1.77383	
4.51202	5	0	-0.138426	0.0523163	-0.245958	-0.148281	-0.123933	0.0553565	-0.69659	-0.0876658	-0.0437738	-0.111768	-0.739372	-0.481714	0.124108	-0.0198557	-0.809314	-0.178424	-0.0282065	0.212638	-0.950014	0.123224	-0.0293167	0.316375	-0.469341	0.059222	0.0730898	0.394599	-0.191654	0.25314	0.468345	0.938969	-0.412024	1.76545	
4.50745	5	0	-0.131119	0.0316675	-0.239812	-0.165651	-0.127604	0.046115	-0.696505	-0.104024	-0.0448165	-0.129808	-0.727553	-0.515118	0.11462	-0.0290675	-0.812993	-0.186368	-0.022613	0.196829	-0.944417	0.107408	-0.0500125	0.311727	-0.459692	0.031953	0.0904605	0.383249	-0.200059	0.252499	0.437689	0.924103	-0.416683	1.75707	
4.50439	5	0	-0.123813	0.0110188	-0.233667	-0.18302	-0.131275	0.0368735	-0.696421	-0.120383	-0.0458592	-0.147847	-0.715733	-0.548521	0.105132	-0.0382793	-0.816672	-0.194312	-0.0170195	0.181021	-0.938821	0.0915928	-0.0707083	0.307078	-0.450043	0.004684	0.107831	0.371898	-0.208464	0.251859	0.407034	0.909238	-0.421341	1.74869	
4.49676	5	0	-0.116507	-0.00963	-0.227521	-0.200389	-0.134946	0.027632	-0.696336	-0.136742	-0.046902	-0.165886	-0.703914	-0.581924	0.095644	-0.047491	-0.820351	-0.202256	-0.011426	0.165213	-0.933225	0.075777	-0.091404	0.30243	-0.440394	-0.022585	0.125202	0.360548	-0.216869	0.251218	0.376378	0.894373	-0.425999	1.74031	
4.49676	5	0	-0.122396	-0.02162	-0.22343	-0.21195	-0.131379	0.0175522	-0.696263	-0.153055	-0.046885	-0.186897	-0.710457	-0.610525	0.101837	-0.0649945	-0.814408	-0.219052	-0.0223755	0.160236	-0.924849	0.052106	-0.0830628	0.278856	-0.439363	-0.050119	0.117498	0.344579	-0.205603	0.21938	0.337915	0.902124	-0.424105	1.71344	
4.49219	5	0	-0.128284	-0.03361	-0.21934	-0.22351	-0.127812	0.0074725	-0.696189	-0.169368	-0.046868	-0.207908	-0.717001	-0.639126	0.108031	-0.082498	-0.808465	-0.235848	-0.033325	0.155258	-0.916473	0.028435	-0.0747215	0.255282	-0.438333	-0.077653	0.109794	0.328611	-0.194338	0.187542	0.299451	0.909875	-0.422212	1.68657	
4.48456	5	0	-0.134173	-0.0456	-0.215249	-0.23507	-0.124246	-0.00260725	-0.696115	-0.185681	-0.046851	-0.228919	-0.723544	-0.667728	0.114225	-0.100001	-0.802522	-0.252645	-0.0442745	0.150281	-0.908098	0.004764	-0.0663803	0.231709	-0.437302	-0.105187	0.102089	0.312642	-0.183072	0.155704	0.260988	0.917626	-0.420318	1.6597	
4.48303	5	0	-0.140062	-0.05759	-0.211158	-0.246631	-0.120679	-0.012687	-0.696042	-0.201994	-0.046834	-0.24993	-0.730087	-0.696329	0.120418	-0.117505	-0.796579	-0.269441	-0.055224	0.145304	-0.899722	-0.018907	-0.058039	0.208135	-0.436271	-0.132721	0.094385	0.296674	-0.171807	0.123866	0.222525	0.925377	-0.418424	1.63283	
4.47693	5	0	-0.137151	-0.0658172	-0.226106	-0.236864	-0.119788	-0.015205	-0.691372	-0.215191	-0.042548	-0.262043	-0.739227	-0.694	0.11479	-0.119587	-0.802638	-0.27064	-0.0520378	0.136299	-0.896007	-0.0294075	-0.0393592	0.186885	-0.430792	-0.148205	0.100171	0.280322	-0.173196	0.103427	0.234487	0.891571	-0.421782	1.62082	
4.47693	5	0	-0.13424	-0.0740445	-0.241054	-0.227097	-0.118897	-0.017723	-0.686702	-0.228388	-0.038262	-0.274157	-0.748368	-0.691671	0.109162	-0.121668	-0.808697	-0.27184	-0.0488515	0.127294	-0.892291	-0.039908	-0.0206795	0.165636	-0.425314	-0.163689	0.105956	0.263971	-0.174584	0.0829885	0.246449	0.857764	-0.425139	1.60881	
4.4693	5	0	-0.131329	-0.0822718	-0.256001	-0.21733	-0.118006	-0.020241	-0.682033	-0.241586	-0.033976	-0.28627	-0.757508	-0.689342	0.103534	-0.12375	-0.814756	-0.273039	-0.0456653	0.118289	-0.888575	-0.0504085	-0.00199975	0.144387	-0.419835	-0.179174	0.111742	0.247619	-0.175973	0.0625498	0.258411	0.823958	-0.428497	1.59681	
4.4693	5	0	-0.128418	-0.090499	-0.270949	-0.207563	-0.117115	-0.022759	-0.677363	-0.254783	-0.02969	-0.298383	-0.766648	-0.687013	0.097906	-0.125832	-0.820815	-0.274238	-0.042479	0.109284	-0.88486	-0.060909	0.01668	0.123137	-0.414356	-0.194658	0.117528	0.231268	-0.177362	0.042111	0.270373	0.790151	-0.431854	1.5848	
4.46625	5	0	-0.129873	-0.0863862	-0.253958	-0.223105	-0.116224	-0.0252765	-0.68757	-0.242028	-0.030761	-0.295356	-0.773361	-0.668042	0.103534	-0.12375	-0.815944	-0.269682	-0.0334202	0.101635	-0.876442	-0.0684265	0.00216275	0.132623	-0.393046	-0.205608	0.119454	0.225824	-0.174561	0.034194	0.324786	0.737324	-0.426635	1.57005	
4.46167	5	0	-0.131329	-0.0822735	-0.236967	-0.238647	-0.115334	-0.027794	-0.697777	-0.229272	-0.031832	-0.29233	-0.780073	-0.649071	0.109162	-0.121668	-0.811072	-0.265126	-0.0243615	0.0939865	-0.868024	-0.075944	-0.0123545	0.142108	-0.371737	-0.216558	0.121381	0.220381	-0.171759	0.026277	0.379199	0.684497	-0.421416	1.5553	
4.45557	5	0	-0.132784	-0.0781608	-0.219976	-0.254188	-0.114443	-0.0303115	-0.707984	-0.216517	-0.032903	-0.289303	-0.786786	-0.6301	0.11479	-0.119587	-0.806201	-0.26057	-0.0153028	0.0863377	-0.859605	-0.0834615	-0.0268717	0.151594	-0.350427	-0.227508	0.123307	0.214937	-0.168957	0.01836	0.433612	0.63167	-0.416198	1.54055	
4.45404	5	0	-0.134239	-0.074048	-0.202985	-0.26973	-0.113552	-0.032829	-0.718191	-0.203762	-0.033974	-0.286276	-0.793499	-0.611129	0.120418	-0.117505	-0.80133	-0.256014	-0.006244	0.078689	-0.851187	-0.090979	-0.041389	0.16108	-0.329117	-0.238458	0.125233	0.209493	-0.166156	0.010443	0.488025	0.578843	-0.410979	1.5258	
4.44794	5	0	-0.131329	-0.0822715	-0.211811	-0.277265	-0.110881	-0.040377	-0.71539	-0.211678	-0.033974	-0.286276	-0.787726	-0.603943	0.120418	-0.117505	-0.803707	-0.249297	-0.006244	0.078689	-0.844619	-0.0932543	-0.0282585	0.155514	-0.329117	-0.238458	0.125233	0.209493	-0.154943	0.003116	0.538709	0.537105	-0.419557	1.52858	
4.44488	5	0	-0.128419	-0.090495	-0.220636	-0.284799	-0.108211	-0.047925	-0.712589	-0.219594	-0.033974	-0.286276	-0.781953	-0.596756	0.120418	-0.117505	-0.806083	-0.24258	-0.006244	0.078689	-0.83805	-0.0955295	-0.015128	0.149948	-0.329117	-0.238458	0.125233	0.209493	-0.14373	-0.004211	0.589392	0.495367	-0.428136	1.53135	
4.44183	5	0	-0.12551	-0.0987185	-0.229461	-0.292334	-0.10554	-0.055473	-0.709788	-0.22751	-0.033974	-0.286276	-0.776179	-0.589569	0.120418	-0.117505	-0.80846	-0.235862	-0.006244	0.078689	-0.831481	-0.0978047	-0.0019975	0.144381	-0.329117	-0.238458	0.125233	0.209493	-0.132516	-0.011538	0.640076	0.45363	-0.436715	1.53412	
4.43573	5	0	-0.1226	-0.106942	-0.238287	-0.299869	-0.102869	-0.063021	-0.706987	-0.235426	-0.033974	-0.286276	-0.770406	-0.582383	0.120418	-0.117505	-0.810837	-0.229145	-0.006244	0.078689	-0.824913	-0.10008	0.011133	0.138815	-0.329117	-0.238458	0.125233	0.209493	-0.121303	-0.018865	0.69076	0.411892	-0.445293	1.5369	
4.43268	5	0	-0.110988	-0.13976	-0.248505	-0.368084	-0.092951	-0.071435	-0.694849	-0.285807	-0.0361452	-0.321995	-0.799216	-0.618179	0.109717	-0.141172	-0.786978	-0.278233	-0.007351	0.0638652	-0.824066	-0.118762	-0.00818175	0.13037	-0.352178	-0.247146	0.111746	0.209943	-0.128319	-0.0234007	0.644043	0.442417	-0.441386	1.52586	
4.42657	5	0	-0.0993755	-0.172578	-0.258723	-0.4363	-0.083033	-0.079849	-0.682711	-0.336189	-0.0383165	-0.357714	-0.828026	-0.653975	0.0990165	-0.164839	-0.763119	-0.327321	-0.008458	0.0490415	-0.823219	-0.137444	-0.0274965	0.121925	-0.375239	-0.255835	0.0982595	0.210393	-0.135334	-0.0279365	0.597327	0.472943	-0.437479	1.51482	
4.42657	5	0	-0.0877633	-0.205396	-0.268941	-0.504516	-0.073115	-0.088263	-0.670573	-0.38657	-0.0404878	-0.393432	-0.856835	-0.68977	0.0883157	-0.188507	-0.73926	-0.376409	-0.009565	0.0342177	-0.822372	-0.156127	-0.0468112	0.113481	-0.3983	-0.264524	0.0847728	0.210842	-0.14235	-0.0324723	0.550611	0.503468	-0.433572	1.50377	
4.422	5	0	-0.076151	-0.238214	-0.279159	-0.572731	-0.063197	-0.096677	-0.658435	-0.436951	-0.042659	-0.429151	-0.885645	-0.725566	0.077615	-0.212174	-0.715401	-0.425497	-0.010672	0.019394	-0.821525	-0.174809	-0.066126	0.105036	-0.421361	-0.273212	0.071286	0.211292	-0.149366	-0.037008	0.503894	0.533994	-0.429665	1.49273	
4.41894	5	0	-0.082073	-0.250067	-0.283936	-0.591482	-0.0695575	-0.0983172	-0.651949	-0.455281	-0.0469992	-0.458646	-0.883068	-0.756204	0.0716558	-0.231185	-0.712034	-0.453354	-0.0125797	0.0068505	-0.81228	-0.200937	-0.0578393	0.0816165	-0.430335	-0.296929	0.071286	0.211292	-0.168953	-0.0302825	0.47325	0.519645	-0.428364	1.48906	
4.41742	5	0	-0.087995	-0.261919	-0.288713	-0.610233	-0.075918	-0.0999575	-0.645463	-0.473611	-0.0513395	-0.488142	-0.880491	-0.786843	0.0656965	-0.250196	-0.708667	-0.481211	-0.0144875	-0.005693	-0.803034	-0.227066	-0.0495525	0.058197	-0.43931	-0.320647	0.071286	0.211292	-0.18854	-0.023557	0.442607	0.505296	-0.427063	1.48538	
4.40826	5	0	-0.093917	-0.273772	-0.293491	-0.628984	-0.0822785	-0.101598	-0.638978	-0.491941	-0.0556798	-0.517637	-0.877914	-0.817481	0.0597372	-0.269208	-0.7053	-0.509068	-0.0163953	-0.0182365	-0.793789	-0.253194	-0.0412658	0.0347775	-0.448284	-0.344364	0.071286	0.211292	-0.208128	-0.0168315	0.411963	0.490947	-0.425761	1.4817	
4.40674	5	0	-0.099839	-0.285624	-0.298268	-0.647735	-0.088639	-0.103238	-0.632492	-0.510271	-0.06002	-0.547132	-0.875337	-0.848119	0.053778	-0.288219	-0.701933	-0.536925	-0.018303	-0.03078	-0.784544	-0.279322	-0.032979	0.011358	-0.457258	-0.368081	0.071286	0.211292	-0.227715	-0.010106	0.38132	0.476598	-0.42446	1.47802	
4.40521	5	0	-0.086681	-0.294222	-0.304304	-0.630675	-0.0796105	-0.109137	-0.621391	-0.509476	-0.0589597	-0.550129	-0.877	-0.84342	0.0546548	-0.290697	-0.698399	-0.546913	-0.023381	-0.0343467	-0.779931	-0.292357	-0.028844	-0.0003285	-0.447762	-0.394917	0.0770508	0.195	-0.230514	-0.026465	0.33905	0.495652	-0.417962	1.45966	
4.39911	5	0	-0.073523	-0.302819	-0.310341	-0.613616	-0.070582	-0.115036	-0.61029	-0.508681	-0.0578995	-0.553125	-0.878662	-0.838721	0.0555315	-0.293176	-0.694865	-0.556901	-0.028459	-0.0379135	-0.775319	-0.305393	-0.024709	-0.012015	-0.438267	-0.421753	0.0828155	0.178708	-0.233312	-0.042824	0.296779	0.514706	-0.411464	1.44129	
4.39606	5	0	-0.060365	-0.311416	-0.316377	-0.596557	-0.0615535	-0.120936	-0.599188	-0.507885	-0.0568393	-0.556121	-0.880324	-0.834022	0.0564083	-0.295654	-0.691331	-0.566888	-0.033537	-0.0414802	-0.770707	-0.318428	-0.020574	-0.0237015	-0.428771	-0.448589	0.0885802	0.162417	-0.236111	-0.059183	0.254509	0.533761	-0.404966	1.42293	
4.38995	5	0	-0.047207	-0.320014	-0.322413	-0.579497	-0.052525	-0.126835	-0.588087	-0.50709	-0.055779	-0.559118	-0.881987	-0.829323	0.057285	-0.298132	-0.687797	-0.576876	-0.038615	-0.045047	-0.766094	-0.331463	-0.016439	-0.035388	-0.419275	-0.475425	0.094345	0.146125	-0.238909	-0.075542	0.212239	0.552815	-0.398468	1.40457	
4.38843	5	0	-0.0500992	-0.31184	-0.317655	-0.560692	-0.046155	-0.125201	-0.589026	-0.488332	-0.053603	-0.544399	-0.881233	-0.8081	0.0593883	-0.286158	-0.693689	-0.560224	-0.0319523	-0.045959	-0.760441	-0.33115	-0.0178167	-0.0314943	-0.421985	-0.467766	0.0962642	0.140701	-0.226347	-0.086777	0.304915	0.492258	-0.40315	1.39635	
4.38843	5	0	-0.0529915	-0.303666	-0.312897	-0.541886	-0.039785	-0.123567	-0.589965	-0.469574	-0.051427	-0.529679	-0.880478	-0.786878	0.0614915	-0.274184	-0.699581	-0.543572	-0.0252895	-0.046871	-0.754789	-0.330836	-0.0191945	-0.0276005	-0.424696	-0.460106	0.0981835	0.135277	-0.213784	-0.098012	0.397591	0.431702	-0.407832	1.38814	
4.38232	5	0	-0.0558838	-0.295491	-0.308139	-0.523081	-0.033415	-0.121933	-0.590903	-0.450815	-0.049251	-0.51496	-0.879724	-0.765655	0.0635948	-0.26221	-0.705473	-0.526919	-0.0186268	-0.047783	-0.749137	-0.330523	-0.0205723	-0.0237068	-0.427406	-0.452447	0.100103	0.129853	-0.201222	-0.109247	0.490268	0.371146	-0.412513	1.37992	
4.38232	5	0	-0.058776	-0.287317	-0.303381	-0.504276	-0.027045	-0.120299	-0.591842	-0.432057	-0.047075	-0.50024	-0.87897	-0.744432	0.065698	-0.250236	-0.711365	-0.510267	-0.011964	-0.048695	-0.743484	-0.33021	-0.02195	-0.019813	-0.430116	-0.444788	0.102022	0.124429	-0.18866	-0.120482	0.582944	0.310589	-0.417195	1.37171	
4.3808	5	0	-0.0660188	-0.266848	-0.300657	-0.479666	-0.0314963	-0.107719	-0.5891	-0.407555	-0.0481025	-0.476444	-0.870807	-0.720704	0.0677973	-0.238233	-0.712374	-0.489075	-0.0135488	-0.0442162	-0.743368	-0.314235	-0.0102148	-0.02149	-0.426973	-0.429146	0.100103	0.129853	-0.183052	-0.112032	0.536481	0.340949	-0.409918	1.37259	
4.38232	5	0	-0.0732615	-0.246379	-0.297934	-0.455055	-0.0359475	-0.095139	-0.586358	-0.383053	-0.04913	-0.452647	-0.862644	-0.696976	0.0698965	-0.226231	-0.713383	-0.467882	-0.0151335	-0.0397375	-0.743253	-0.29826	0.0015205	-0.023167	-0.42383	-0.413504	0.0981835	0.135277	-0.177444	-0.103582	0.490017	0.371309	-0.40264	1.37347	
4.38232	5	0	-0.0805042	-0.22591	-0.29521	-0.430445	-0.0403987	-0.082559	-0.583616	-0.35855	-0.0501575	-0.428851	-0.85448	-0.673249	0.0719957	-0.214228	-0.714392	-0.44669	-0.0167183	-0.0352587	-0.743137	-0.282284	0.0132557	-0.024844	-0.420688	-0.397863	0.0962642	0.140701	-0.171835	-0.0951328	0.443554	0.401669	-0.395363	1.37435	
4.37927	5	0	-0.087747	-0.205441	-0.292486	-0.405835	-0.04485	-0.069979	-0.580874	-0.334048	-0.051185	-0.405055	-0.846317	-0.649521	0.074095	-0.202225	-0.715401	-0.425497	-0.018303	-0.03078	-0.743021	-0.266309	0.024991	-0.026521	-0.417545	-0.382221	0.094345	0.146125	-0.166227	-0.086683	0.397091	0.432029	-0.388086	1.37522	
4.37775	5	0	-0.0935533	-0.189032	-0.300609	-0.382877	-0.0402602	-0.063293	-0.583719	-0.309862	-0.0426002	-0.387461	-0.847278	-0.623363	0.0744255	-0.185207	-0.711533	-0.399691	-0.0132202	-0.0272097	-0.739109	-0.244719	0.019469	-0.010915	-0.404455	-0.370072	0.090503	0.156983	-0.162012	-0.0742643	0.397091	0.432029	-0.382098	1.37977	
4.37164	5	0	-0.0993595	-0.172623	-0.308733	-0.35992	-0.0356705	-0.056607	-0.586563	-0.285675	-0.0340155	-0.369868	-0.848238	-0.597206	0.074756	-0.168189	-0.707666	-0.373884	-0.0081375	-0.0236395	-0.735196	-0.223128	0.013947	0.004691	-0.391365	-0.357923	0.086661	0.167841	-0.157797	-0.0618455	0.397091	0.432029	-0.376111	1.38432	
4.37012	5	0	-0.105166	-0.156214	-0.316856	-0.336962	-0.0310808	-0.049921	-0.589407	-0.261489	-0.0254308	-0.352274	-0.849198	-0.571048	0.0750865	-0.151172	-0.703798	-0.348077	-0.00305475	-0.0200693	-0.731283	-0.201538	0.008425	0.020297	-0.378274	-0.345774	0.082819	0.178698	-0.153581	-0.0494267	0.397091	0.432029	-0.370123	1.38887	
4.36859	5	0	-0.110972	-0.139805	-0.324979	-0.314004	-0.026491	-0.043235	-0.592252	-0.237302	-0.016846	-0.33468	-0.850159	-0.54489	0.075417	-0.134154	-0.69993	-0.322271	0.002028	-0.016499	-0.727371	-0.179947	0.002903	0.035903	-0.365184	-0.333625	0.078977	0.189556	-0.149366	-0.037008	0.397091	0.432029	-0.364135	1.39342	
4.36401	5	0	-0.096341	-0.152521	-0.329049	-0.302503	-0.0346463	-0.0398443	-0.592252	-0.237302	-0.023271	-0.316522	-0.844405	-0.537679	0.0718855	-0.124173	-0.69979	-0.304271	-0.000353	-0.00976975	-0.728209	-0.161233	-0.00124475	0.0476255	-0.363409	-0.31402	0.090541	0.19454	-0.149359	-0.0126662	0.389201	0.454328	-0.369335	1.40811	
4.36096	5	0	-0.08171	-0.165237	-0.333118	-0.291002	-0.0428015	-0.0364535	-0.592252	-0.237302	-0.029696	-0.298364	-0.83865	-0.530469	0.068354	-0.114192	-0.69965	-0.28627	-0.002734	-0.0030405	-0.729047	-0.142519	-0.0053925	0.059348	-0.361634	-0.294415	0.102105	0.199524	-0.149351	0.0116755	0.38131	0.476627	-0.374534	1.42281	
4.36249	5	0	-0.067079	-0.177953	-0.337187	-0.2795	-0.0509567	-0.0330628	-0.592252	-0.237302	-0.036121	-0.280207	-0.832896	-0.523258	0.0648225	-0.104211	-0.699511	-0.26827	-0.005115	0.00368875	-0.729885	-0.123806	-0.00954025	0.0710705	-0.35986	-0.274809	0.113669	0.204509	-0.149343	0.0360173	0.37342	0.498925	-0.379734	1.4375	
4.35486	5	0	-0.052448	-0.190669	-0.341257	-0.267999	-0.059112	-0.029672	-0.592252	-0.237302	-0.042546	-0.262049	-0.827142	-0.516047	0.061291	-0.09423	-0.699371	-0.25027	-0.007496	0.010418	-0.730723	-0.105092	-0.013688	0.082793	-0.358085	-0.255204	0.125233	0.209493	-0.149336	0.060359	0.36553	0.521224	-0.384933	1.45219	
4.35333	5	0	-0.0509962	-0.194772	-0.330436	-0.266216	-0.049173	-0.038104	-0.583878	-0.244806	-0.043618	-0.259019	-0.827142	-0.516047	0.068678	-0.097137	-0.704139	-0.236795	-0.00908425	0.0149067	-0.736309	-0.0893043	-0.0150718	0.086704	-0.374891	-0.232329	0.121379	0.220384	-0.147946	0.0808253	0.36553	0.521224	-0.36904	1.4503	
4.35486	5	0	-0.0495445	-0.198875	-0.319615	-0.264433	-0.039234	-0.046536	-0.575504	-0.25231	-0.04469	-0.255989	-0.827142	-0.516047	0.076065	-0.100044	-0.708907	-0.22332	-0.0106725	0.0193955	-0.741896	-0.0735165	-0.0164555	0.090615	-0.391697	-0.209453	0.117526	0.231275	-0.146556	0.101292	0.36553	0.521224	-0.353148	1.4484	
4.35486	5	0	-0.0480928	-0.202979	-0.308795	-0.262651	-0.029295	-0.054968	-0.567131	-0.259815	-0.045762	-0.25296	-0.827142	-0.516047	0.083452	-0.102951	-0.713675	-0.209844	-0.0122608	0.0238842	-0.747482	-0.0577287	-0.0178393	0.094526	-0.408503	-0.186578	0.113672	0.242166	-0.145165	0.121758	0.36553	0.521224	-0.337256	1.4465	
4.35181	5	0	-0.046641	-0.207082	-0.297974	-0.260868	-0.019356	-0.0634	-0.558757	-0.267319	-0.046834	-0.24993	-0.827142	-0.516047	0.090839	-0.105858	-0.718443	-0.196369	-0.013849	0.028373	-0.753068	-0.041941	-0.019223	0.098437	-0.425309	-0.163703	0.109818	0.253057	-0.143775	0.142224	0.36553	0.521224	-0.321363	1.4446	
4.3457	5	0	-0.0509985	-0.194767	-0.291218	-0.247542	-0.0229245	-0.0533145	-0.55412	-0.264249	-0.0393312	-0.250171	-0.827142	-0.516047	0.095581	-0.101272	-0.714743	-0.188411	-0.0154383	0.0328642	-0.757731	-0.0287632	-0.00609025	0.0928637	-0.426679	-0.159831	0.109818	0.253057	-0.145183	0.146203	0.361577	0.532394	-0.321363	1.4446	
4.34418	5	0	-0.055356	-0.182451	-0.284462	-0.234215	-0.026493	-0.043229	-0.549483	-0.261178	-0.0318285	-0.250413	-0.827142	-0.516047	0.100323	-0.096687	-0.711044	-0.180454	-0.0170275	0.0373555	-0.762393	-0.0155855	0.0070425	0.0872905	-0.428049	-0.155959	0.109818	0.253057	-0.146591	0.150181	0.357625	0.543564	-0.321363	1.4446	
4.34112	5	0	-0.0597135	-0.170136	-0.277705	-0.220889	-0.0300615	-0.0331435	-0.544846	-0.258108	-0.0243258	-0.250655	-0.827142	-0.516047	0.105065	-0.0921015	-0.707344	-0.172496	-0.0186167	0.0418468	-0.767056	-0.00240775	0.0201752	0.0817173	-0.429419	-0.152087	0.109818	0.253057	-0.147999	0.15416	0.353673	0.554734	-0.321363	1.4446	
4.33807	5	0	-0.064071	-0.157821	-0.270949	-0.207563	-0.03363	-0.023058	-0.540209	-0.255038	-0.016823	-0.250896	-0.827142	-0.516047	0.109807	-0.087516	-0.703644	-0.164539	-0.020206	0.046338	-0.771719	0.01077	0.033308	0.076144	-0.430789	-0.148215	0.109818	0.253057	-0.149407	0.158139	0.34972	0.565904	-0.321363	1.4446	
4.33655	5	0	-0.0552363	-0.154113	-0.266238	-0.1884	-0.0299335	-0.0138267	-0.537443	-0.246666	-0.0189698	-0.244829	-0.822093	-0.530317	0.109807	-0.087516	-0.668466	-0.19012	-0.0210007	0.0485842	-0.742584	-0.0224465	0.0229422	0.073897	-0.455478	-0.176598	0.107889	0.258507	-0.154995	0.125172	0.319288	0.551503	-0.328162	1.4208	
4.33197	5	0	-0.0464015	-0.150405	-0.261526	-0.169237	-0.026237	-0.0045955	-0.534677	-0.238294	-0.0211165	-0.238762	-0.817044	-0.544587	0.109807	-0.087516	-0.633287	-0.215702	-0.0217955	0.0508305	-0.71345	-0.055663	0.0125765	0.07165	-0.480167	-0.204981	0.105961	0.263957	-0.160583	0.092206	0.288855	0.537103	-0.334961	1.397	
4.33044	5	0	-0.0375668	-0.146697	-0.256815	-0.150075	-0.0225405	0.00463575	-0.531911	-0.229923	-0.0232632	-0.232695	-0.811994	-0.558857	0.109807	-0.087516	-0.598109	-0.241284	-0.0225902	0.0530767	-0.684316	-0.0888795	0.00221075	0.069403	-0.504857	-0.233365	0.104032	0.269408	-0.16617	0.0592395	0.258422	0.522702	-0.34176	1.3732	
4.32892	5	0	-0.028732	-0.142989	-0.252104	-0.130912	-0.018844	0.013867	-0.529145	-0.221551	-0.02541	-0.226628	-0.806945	-0.573127	0.109807	-0.087516	-0.56293	-0.266865	-0.023385	0.055323	-0.655181	-0.122096	-0.008155	0.067156	-0.529546	-0.261748	0.102104	0.274858	-0.171758	0.026273	0.22799	0.508301	-0.348559	1.3494	
4.32892	5	0	-0.0345595	-0.12652	-0.269103	-0.115348	-0.0142513	0.020587	-0.523563	-0.221122	-0.027558	-0.220557	-0.791087	-0.594442	0.102413	-0.0846062	-0.537539	-0.301596	-0.0249755	0.0598175	-0.631705	-0.155623	-0.008155	0.067156	-0.54427	-0.293416	0.115614	0.274419	-0.192728	0.01264	0.235851	0.486086	-0.36781	1.33946	
4.32892	5	0	-0.040387	-0.11005	-0.286102	-0.0997835	-0.0096585	0.027307	-0.517981	-0.220694	-0.029706	-0.214486	-0.775229	-0.615757	0.0950185	-0.0816965	-0.512147	-0.336326	-0.026566	0.064312	-0.608228	-0.189151	-0.008155	0.067156	-0.558995	-0.325084	0.129124	0.273979	-0.213699	-0.000993	0.243712	0.46387	-0.387061	1.32953	
4.33197	5	0	-0.0462145	-0.0935805	-0.3031	-0.0842192	-0.00506575	0.034027	-0.5124	-0.220266	-0.031854	-0.208415	-0.759371	-0.637073	0.0876243	-0.0787868	-0.486756	-0.371057	-0.0281565	0.0688065	-0.584751	-0.222679	-0.008155	0.067156	-0.573719	-0.356752	0.142634	0.27354	-0.234669	-0.014626	0.251572	0.441655	-0.406311	1.3196	
4.33349	5	0	-0.052042	-0.077111	-0.320099	-0.068655	-0.000473	0.040747	-0.506818	-0.219837	-0.034002	-0.202344	-0.743513	-0.658388	0.08023	-0.075877	-0.461364	-0.405788	-0.029747	0.073301	-0.561275	-0.256206	-0.008155	0.067156	-0.588444	-0.38842	0.156144	0.273101	-0.25564	-0.028259	0.259433	0.419439	-0.425562	1.30967	
4.33655	5	0	-0.052042	-0.077111	-0.375142	-0.138863	0.00422875	0.0669198	-0.530844	-0.281168	-0.031854	-0.208415	-0.791285	-0.710571	0.0672325	-0.0750663	-0.458223	-0.451695	-0.0219748	0.0872583	-0.543676	-0.305944	-0.0178502	0.0945565	-0.639679	-0.413499	0.138773	0.284451	-0.270976	-0.0575317	0.20954	0.460574	-0.429769	1.27879	
4.33655	5	0	-0.052042	-0.077111	-0.430185	-0.209071	0.0089305	0.0930925	-0.554871	-0.3425	-0.029706	-0.214486	-0.839056	-0.762755	0.054235	-0.0742555	-0.455082	-0.497602	-0.0142025	0.101215	-0.526076	-0.355683	-0.0275455	0.121957	-0.690913	-0.438578	0.121402	0.295801	-0.286312	-0.0868045	0.159647	0.50171	-0.433975	1.24791	
4.33807	5	0	-0.052042	-0.077111	-0.485229	-0.279278	0.0136323	0.119265	-0.578897	-0.403831	-0.027558	-0.220557	-0.886828	-0.814938	0.0412375	-0.0734448	-0.45194	-0.54351	-0.00643025	0.115173	-0.508477	-0.405421	-0.0372407	0.149358	-0.742148	-0.463658	0.104032	0.307152	-0.301648	-0.116077	0.109754	0.542845	-0.438182	1.21703	
4.34112	5	0	-0.052042	-0.077111	-0.540272	-0.349486	0.018334	0.145438	-0.602923	-0.465162	-0.02541	-0.226628	-0.9346	-0.867121	0.02824	-0.072634	-0.448799	-0.589417	0.001342	0.12913	-0.490878	-0.455159	-0.046936	0.176758	-0.793383	-0.488737	0.086661	0.318502	-0.316984	-0.14535	0.059861	0.583981	-0.442389	1.18615	
4.3457	5	0	-0.052042	-0.077111	-0.547584	-0.392828	0.0311345	0.148807	-0.602934	-0.513365	-0.0254092	-0.247592	-0.949281	-0.918526	0.0208688	-0.0697365	-0.446928	-0.63166	0.00563	0.134998	-0.48277	-0.49449	-0.0524898	0.192453	-0.815013	-0.523987	0.104032	0.307152	-0.325351	-0.169956	0.063789	0.57288	-0.451751	1.16994	
4.34723	5	0	-0.052042	-0.077111	-0.554895	-0.436171	0.043935	0.152176	-0.602944	-0.561567	-0.0254085	-0.268557	-0.963963	-0.96993	0.0134975	-0.066839	-0.445057	-0.673902	0.009918	0.140866	-0.474662	-0.533822	-0.0580435	0.208149	-0.836644	-0.559237	0.121402	0.295801	-0.333718	-0.194562	0.067717	0.561779	-0.461114	1.15373	
4.35181	5	0	-0.052042	-0.077111	-0.562206	-0.479513	0.0567355	0.155545	-0.602954	-0.60977	-0.0254077	-0.289521	-0.978644	-1.02133	0.00612625	-0.0639415	-0.443186	-0.716145	0.014206	0.146734	-0.466554	-0.573153	-0.0635972	0.223844	-0.858275	-0.594487	0.138773	0.284451	-0.342085	-0.219169	0.071645	0.550678	-0.470477	1.13752	
4.35028	0	5	-0.052042	-0.077111	-0.569518	-0.522855	0.069536	0.158914	-0.602965	-0.657972	-0.025407	-0.310486	-0.993325	-1.07274	-0.001245	-0.061044	-0.441315	-0.758388	0.018494	0.152602	-0.458446	-0.612485	-0.069151	0.239539	-0.879905	-0.629737	0.156144	0.273101	-0.350452	-0.243775	0.075573	0.539577	-0.479839	1.12131	
4.35181	0	5	-0.038823	-0.0857485	-0.578196	-0.53025	0.0804518	0.147868	-0.603943	-0.687292	-0.0264925	-0.328358	-0.992493	-1.09824	-0.001245	-0.061044	-0.435721	-0.792649	0.018494	0.152602	-0.457952	-0.646674	-0.0518558	0.222202	-0.894429	-0.660651	0.138773	0.284451	-0.365705	-0.248796	0.121538	0.509543	-0.491748	1.11239	
4.35486	0	5	-0.025604	-0.094386	-0.586874	-0.537644	0.0913675	0.136822	-0.604922	-0.716613	-0.027578	-0.34623	-0.991661	-1.12375	-0.001245	-0.061044	-0.430126	-0.82691	0.018494	0.152602	-0.457458	-0.680862	-0.0345605	0.204865	-0.908952	-0.691565	0.121402	0.295801	-0.380958	-0.253817	0.167503	0.479508	-0.503657	1.10348	
4.35638	0	5	-0.012385	-0.103023	-0.595553	-0.545039	0.102283	0.125776	-0.6059	-0.745934	-0.0286635	-0.364103	-0.990828	-1.14925	-0.001245	-0.061044	-0.424532	-0.861171	0.018494	0.152602	-0.456963	-0.715051	-0.0172652	0.187528	-0.923476	-0.722479	0.104032	0.307152	-0.396211	-0.258838	0.213468	0.449473	-0.515566	1.09456	
4.35791	0	5	0.000834	-0.111661	-0.604231	-0.552434	0.113199	0.11473	-0.606878	-0.775254	-0.029749	-0.381975	-0.989996	-1.17475	-0.001245	-0.061044	-0.418938	-0.895432	0.018494	0.152602	-0.456469	-0.74924	3E-05	0.170191	-0.937999	-0.753393	0.086661	0.318502	-0.411464	-0.263859	0.259433	0.419439	-0.527475	1.08564	
4.35638	0	5	-0.00208375	-0.103415	-0.616895	-0.548508	0.113199	0.11473	-0.604128	-0.783028	-0.0286815	-0.384991	-0.984259	-1.16782	-0.005664	-0.0485555	-0.415426	-0.905357	0.018494	0.152602	-0.455784	-0.767549	0.00141825	0.166268	-0.941074	-0.768627	0.088592	0.313045	-0.418386	-0.268313	0.171671	0.468261	-0.532142	1.07758	
4.35791	0	5	-0.0050015	-0.095169	-0.62956	-0.544583	0.113199	0.11473	-0.601377	-0.790801	-0.027614	-0.388008	-0.978522	-1.16088	-0.010083	-0.036067	-0.411914	-0.915281	0.018494	0.152602	-0.455099	-0.785858	0.0028065	0.162345	-0.944149	-0.783861	0.090523	0.307588	-0.425309	-0.272766	0.083909	0.517083	-0.536809	1.06952	
4.35486	0	5	-0.00791925	-0.086923	-0.642224	-0.540658	0.113199	0.11473	-0.598626	-0.798575	-0.0265465	-0.391024	-0.972784	-1.15394	-0.014502	-0.0235785	-0.408403	-0.925206	0.018494	0.152602	-0.454415	-0.804167	0.00419475	0.158422	-0.947225	-0.799095	0.092454	0.302131	-0.432231	-0.27722	-0.003853	0.565905	-0.541476	1.06146	
4.35791	0	5	-0.010837	-0.078677	-0.654888	-0.536732	0.113199	0.11473	-0.595876	-0.806349	-0.025479	-0.394041	-0.967047	-1.14701	-0.018921	-0.01109	-0.404891	-0.93513	0.018494	0.152602	-0.45373	-0.822476	0.005583	0.154499	-0.9503	-0.814329	0.094385	0.296674	-0.439154	-0.281673	-0.091615	0.614727	-0.546143	1.0534	
4.35486	0	5	-0.0137575	-0.070423	-0.646231	-0.529331	0.114099	0.112186	-0.58753	-0.797849	-0.0286822	-0.384988	-0.960497	-1.11913	-0.0168632	0.00102975	-0.409574	-0.921895	0.00941675	0.160268	-0.448019	-0.822242	0.005583	0.154499	-0.944577	-0.806578	0.100171	0.280322	-0.439154	-0.281673	-0.041977	0.573779	-0.526571	1.04061	
4.35791	0	5	-0.016678	-0.062169	-0.637574	-0.521931	0.115	0.109643	-0.579185	-0.789349	-0.0318855	-0.375935	-0.953947	-1.09125	-0.0148055	0.0131495	-0.414258	-0.908659	0.0003395	0.167935	-0.442308	-0.822009	0.005583	0.154499	-0.938855	-0.798826	0.105956	0.263971	-0.439154	-0.281673	0.007661	0.532832	-0.507	1.02783	
4.34875	0	5	-0.0195985	-0.053915	-0.628918	-0.514531	0.1159	0.107099	-0.57084	-0.78085	-0.0350888	-0.366883	-0.947396	-1.06337	-0.0127478	0.0252692	-0.418941	-0.895424	-0.00873775	0.175601	-0.436596	-0.821775	0.005583	0.154499	-0.933132	-0.791075	0.111742	0.247619	-0.439154	-0.281673	0.057299	0.491884	-0.487428	1.01504	
4.34723	0	5	-0.022519	-0.045661	-0.620261	-0.50713	0.1168	0.104555	-0.562494	-0.77235	-0.038292	-0.35783	-0.940846	-1.03549	-0.01069	0.037389	-0.423624	-0.882189	-0.017815	0.183268	-0.430885	-0.821542	0.005583	0.154499	-0.927409	-0.783324	0.117528	0.231268	-0.439154	-0.281673	0.106937	0.450936	-0.467856	1.00225	
4.34112	0	5	-0.0254422	-0.0373998	-0.615611	-0.488351	0.1177	0.102012	-0.553178	-0.750446	-0.0340005	-0.349019	-0.926904	-1.00509	-0.0086365	0.0495377	-0.423345	-0.864529	-0.0119335	0.184634	-0.439111	-0.798296	0.00280625	0.162347	-0.928315	-0.756807	0.1156	0.236715	-0.434989	-0.269427	0.106937	0.450936	-0.461888	1.00668	
4.33655	0	5	-0.0283655	-0.0291385	-0.610961	-0.469573	0.118599	0.0994685	-0.543862	-0.728542	-0.029709	-0.340207	-0.912962	-0.974692	-0.006583	0.0616865	-0.423065	-0.846868	-0.006052	0.185999	-0.447337	-0.775049	2.95E-05	0.170194	-0.929222	-0.73029	0.113673	0.242163	-0.430824	-0.25718	0.106937	0.450936	-0.455919	1.01111	
4.33044	0	5	-0.0312888	-0.0208772	-0.60631	-0.450794	0.119499	0.0969252	-0.534546	-0.706639	-0.0254175	-0.331396	-0.89902	-0.944292	-0.0045295	0.0738353	-0.422785	-0.829207	-0.0001705	0.187365	-0.455562	-0.751802	-0.00274725	0.178042	-0.930128	-0.703772	0.111745	0.24761	-0.426659	-0.244933	0.106937	0.450936	-0.44995	1.01554	
4.32739	0	5	-0.034212	-0.012616	-0.60166	-0.432016	0.120399	0.094382	-0.52523	-0.684735	-0.021126	-0.322585	-0.885078	-0.913892	-0.002476	0.085984	-0.422506	-0.811547	0.005711	0.188731	-0.463788	-0.728556	-0.005524	0.18589	-0.931034	-0.677255	0.109818	0.253057	-0.422494	-0.232687	0.106937	0.450936	-0.443982	1.01997	
4.32281	0	5	-0.037138	-0.004347	-0.609716	-0.409249	0.116798	0.104559	-0.532605	-0.647786	-0.0211232	-0.30163	-0.880216	-0.880952	-0.0069185	0.0985392	-0.416087	-0.792732	0.00251175	0.197772	-0.460824	-0.720544	-0.00830325	0.193744	-0.932362	-0.6735	0.100163	0.280342	-0.43079	-0.233257	0.069039	0.458705	-0.44995	1.01554	
4.31518	0	5	-0.040064	0.003922	-0.617772	-0.386481	0.113197	0.114736	-0.539981	-0.610837	-0.0211205	-0.280674	-0.875354	-0.848013	-0.011361	0.111094	-0.409668	-0.773916	-0.0006875	0.206814	-0.45786	-0.712531	-0.0110825	0.201599	-0.933691	-0.669746	0.0905085	0.307628	-0.439087	-0.233827	0.031141	0.466474	-0.455919	1.01111	
4.31213	0	5	-0.04299	0.012191	-0.625828	-0.363714	0.109596	0.124914	-0.547357	-0.573887	-0.0211177	-0.259719	-0.870491	-0.815073	-0.0158035	0.12365	-0.40325	-0.7551	-0.00388675	0.215855	-0.454896	-0.704518	-0.0138617	0.209454	-0.93502	-0.665991	0.0808538	0.334913	-0.447383	-0.234397	-0.006757	0.474243	-0.461888	1.00668	
4.31518	0	5	-0.045916	0.02046	-0.633884	-0.340946	0.105995	0.135091	-0.554732	-0.536938	-0.021115	-0.238764	-0.865629	-0.782133	-0.020246	0.136205	-0.396831	-0.736285	-0.007086	0.224896	-0.451932	-0.696506	-0.016641	0.217308	-0.936348	-0.662236	0.071199	0.362199	-0.45568	-0.234967	-0.044655	0.482012	-0.467856	1.00225	
4.30908	0	5	-0.0591347	0.0290975	-0.629266	-0.322021	0.104193	0.140184	-0.551024	-0.515164	-0.023285	-0.211645	-0.864154	-0.739505	-0.0182055	0.148408	-0.400122	-0.708477	-0.00360425	0.233061	-0.447843	-0.675241	-0.0062725	0.219601	-0.935957	-0.639355	0.0808248	0.372737	-0.452905	-0.218791	-0.0901322	0.511728	-0.454632	1.0075	
4.31518	0	5	-0.0723535	0.037735	-0.624649	-0.303096	0.10239	0.145277	-0.547316	-0.49339	-0.025455	-0.184525	-0.862679	-0.696877	-0.016165	0.160611	-0.403414	-0.68067	-0.0001225	0.241225	-0.443754	-0.653976	0.004096	0.221894	-0.935566	-0.616474	0.0904505	0.383275	-0.450131	-0.202615	-0.135609	0.541443	-0.441408	1.01275	
4.32434	0	5	-0.0855723	0.0463725	-0.620032	-0.28417	0.100588	0.15037	-0.543609	-0.471616	-0.027625	-0.157406	-0.861203	-0.654248	-0.0141245	0.172814	-0.406705	-0.652862	0.00335925	0.24939	-0.439666	-0.632712	0.0144645	0.224186	-0.935174	-0.593593	0.100076	0.393814	-0.447356	-0.186439	-0.181087	0.571159	-0.428185	1.018	
4.31824	0	5	-0.098791	0.05501	-0.615414	-0.265245	0.098786	0.155463	-0.539901	-0.449842	-0.029795	-0.130286	-0.859728	-0.61162	-0.012084	0.185017	-0.409997	-0.625054	0.006841	0.257554	-0.435577	-0.611447	0.024833	0.226479	-0.934783	-0.570712	0.109702	0.404352	-0.444582	-0.170263	-0.226564	0.600875	-0.414961	1.02324	
