3.37219	0	0	-0.164945	0.045654	-0.047276	-0.201868	-0.000411	-0.145385	0.126526	-0.401942	-0.001569	-0.323301	0.015963	-0.350144	-0.107895	-0.56604	-0.041939	-0.567489	-0.126827	-0.61556	-0.04941	-0.432516	0.027326	-0.377452	-0.120654	-0.351888	0.023867	-0.246473	-0.07963	-0.136467	-0.074369	-0.323893	-0.117989	-0.236677	
3.37829	0	0	-0.173539	0.045579	-0.0439232	-0.211343	0.016396	-0.165753	0.097152	-0.392692	-0.00915775	-0.325535	0.0201902	-0.362091	-0.104389	-0.575949	-0.0479905	-0.572261	-0.132136	-0.617466	-0.0551268	-0.436704	0.0206768	-0.381007	-0.127256	-0.356674	0.018908	-0.253733	-0.0739618	-0.152486	-0.081588	-0.337141	-0.130111	-0.244133	
3.37372	0	0	-0.182133	0.045504	-0.0405705	-0.220819	0.033203	-0.186121	0.067778	-0.383441	-0.0167465	-0.327769	0.0244175	-0.374038	-0.100882	-0.585858	-0.054042	-0.577033	-0.137445	-0.619371	-0.0608435	-0.440892	0.0140275	-0.384561	-0.133857	-0.36146	0.013949	-0.260992	-0.0682935	-0.168505	-0.088807	-0.35039	-0.142233	-0.251589	
3.37372	0	0	-0.190727	0.045429	-0.0372178	-0.230294	0.05001	-0.206489	0.038404	-0.37419	-0.0243353	-0.330004	0.0286448	-0.385986	-0.0973762	-0.595767	-0.0600935	-0.581804	-0.142754	-0.621277	-0.0665602	-0.44508	0.00737825	-0.388116	-0.140459	-0.366247	0.00899	-0.268251	-0.0626252	-0.184524	-0.096026	-0.363639	-0.154355	-0.259045	
3.37524	0	0	-0.199321	0.045354	-0.033865	-0.239769	0.066817	-0.226857	0.00903	-0.36494	-0.031924	-0.332238	0.032872	-0.397933	-0.09387	-0.605676	-0.066145	-0.586576	-0.148063	-0.623182	-0.072277	-0.449268	0.000729	-0.39167	-0.147061	-0.371033	0.004031	-0.275511	-0.056957	-0.200543	-0.103245	-0.376887	-0.166477	-0.266501	
3.37524	0	0	-0.198012	0.0416552	-0.0305158	-0.249235	0.0557685	-0.222764	0.0135998	-0.377855	-0.0221278	-0.336242	0.021007	-0.39018	-0.0921185	-0.610626	-0.0634705	-0.594135	-0.147239	-0.625511	-0.072277	-0.449268	-0.0029065	-0.381395	-0.136271	-0.378083	0.0176832	-0.29282	-0.063676	-0.203531	-0.100493	-0.384663	-0.161768	-0.27981	
3.37524	0	0	-0.196704	0.0379565	-0.0271665	-0.2587	0.04472	-0.21867	0.0181695	-0.390769	-0.0123315	-0.340247	0.009142	-0.382428	-0.090367	-0.615577	-0.060796	-0.601693	-0.146415	-0.62784	-0.072277	-0.449268	-0.006542	-0.371121	-0.125481	-0.385134	0.0313355	-0.310129	-0.070395	-0.206519	-0.097742	-0.392439	-0.157058	-0.29312	
3.37524	0	0	-0.195395	0.0342578	-0.0238172	-0.268166	0.0336715	-0.214577	0.0227392	-0.403684	-0.00253525	-0.344251	-0.002723	-0.374675	-0.0886155	-0.620528	-0.0581215	-0.609251	-0.14559	-0.630169	-0.072277	-0.449268	-0.0101775	-0.360846	-0.114692	-0.392184	0.0449877	-0.327438	-0.077114	-0.209508	-0.0949905	-0.400214	-0.152349	-0.30643	
3.37524	0	0	-0.194086	0.030559	-0.020468	-0.277631	0.022623	-0.210483	0.027309	-0.416599	0.007261	-0.348255	-0.014588	-0.366922	-0.086864	-0.625478	-0.055447	-0.61681	-0.144766	-0.632498	-0.072277	-0.449268	-0.013813	-0.350571	-0.103902	-0.399234	0.05864	-0.344747	-0.083833	-0.212496	-0.092239	-0.40799	-0.14764	-0.319739	
3.37067	0	0	-0.201361	0.0267893	-0.01378	-0.296532	0.0394222	-0.230829	0.0149472	-0.418436	0.0116713	-0.360719	-0.0208088	-0.375085	-0.0897442	-0.635001	-0.058826	-0.629108	-0.148424	-0.639053	-0.0662082	-0.466419	-0.0089665	-0.364268	-0.106332	-0.415809	0.051741	-0.346524	-0.0882843	-0.221868	-0.103576	-0.40954	-0.157398	-0.333781	
3.37219	0	0	-0.208637	0.0230195	-0.007092	-0.315433	0.0562215	-0.251175	0.0025855	-0.420273	0.0160815	-0.373184	-0.0270295	-0.383248	-0.0926245	-0.644524	-0.062205	-0.641406	-0.152083	-0.645609	-0.0601395	-0.483571	-0.00412	-0.377966	-0.108762	-0.432385	0.044842	-0.3483	-0.0927355	-0.231239	-0.114914	-0.411089	-0.167157	-0.347824	
3.37219	0	0	-0.215913	0.0192497	-0.000404	-0.334333	0.0730207	-0.27152	-0.00977625	-0.42211	0.0204917	-0.385648	-0.0332502	-0.39141	-0.0955047	-0.654047	-0.065584	-0.653705	-0.155741	-0.652164	-0.0540708	-0.500722	0.0007265	-0.391663	-0.111192	-0.44896	0.037943	-0.350077	-0.0971868	-0.240611	-0.126251	-0.412639	-0.176916	-0.361866	
3.36914	0	0	-0.223188	0.01548	0.006284	-0.353234	0.08982	-0.291866	-0.022138	-0.423947	0.024902	-0.398112	-0.039471	-0.399573	-0.098385	-0.66357	-0.068963	-0.666003	-0.159399	-0.658719	-0.048002	-0.517873	0.005573	-0.40536	-0.113622	-0.465536	0.031044	-0.351853	-0.101638	-0.249983	-0.137588	-0.414188	-0.186674	-0.375908	
3.36761	0	0	-0.221882	0.0117875	-0.0151892	-0.346457	0.0802043	-0.291822	-0.0006565	-0.447884	0.0282058	-0.407449	-0.0352567	-0.411483	-0.0940172	-0.675914	-0.073676	-0.674507	-0.162234	-0.667586	-0.05372	-0.522036	0.0079935	-0.412201	-0.120227	-0.470284	0.0260785	-0.35907	-0.10496	-0.262519	-0.115269	-0.443674	-0.179644	-0.395776	
3.37219	0	0	-0.220575	0.008095	-0.0366625	-0.33968	0.0705885	-0.291777	0.020825	-0.47182	0.0315095	-0.416786	-0.0310425	-0.423393	-0.0896495	-0.688257	-0.078389	-0.68301	-0.165069	-0.676453	-0.059438	-0.526199	0.010414	-0.419042	-0.126831	-0.475032	0.021113	-0.366287	-0.108283	-0.275056	-0.0929505	-0.473161	-0.172614	-0.415643	
3.36761	0	0	-0.219268	0.0044025	-0.0581357	-0.332902	0.0609727	-0.291733	0.0423065	-0.495757	0.0348132	-0.426122	-0.0268282	-0.435303	-0.0852818	-0.7006	-0.083102	-0.691514	-0.167903	-0.68532	-0.065156	-0.530362	0.0128345	-0.425882	-0.133435	-0.479781	0.0161475	-0.373503	-0.111605	-0.287592	-0.0706317	-0.502648	-0.165584	-0.435511	
3.36609	0	0	-0.217962	0.00071	-0.079609	-0.326125	0.051357	-0.291688	0.063788	-0.519694	0.038117	-0.435459	-0.022614	-0.447213	-0.080914	-0.712944	-0.087815	-0.700017	-0.170738	-0.694187	-0.070874	-0.534525	0.015255	-0.432723	-0.14004	-0.484529	0.011182	-0.38072	-0.114927	-0.300128	-0.048313	-0.532134	-0.158554	-0.455379	
3.37067	0	0	-0.22784	0.00432675	-0.0729425	-0.344966	0.0652787	-0.303902	0.046863	-0.508635	0.0392175	-0.438569	-0.0240182	-0.443245	-0.0765525	-0.725271	-0.0951847	-0.700986	-0.168274	-0.701151	-0.0777957	-0.535263	0.014045	-0.429303	-0.138651	-0.488455	0.00622025	-0.387923	-0.109297	-0.316038	-0.0596645	-0.533643	-0.170653	-0.462713	
3.36609	0	0	-0.237717	0.0079435	-0.066276	-0.363807	0.0792005	-0.316117	0.029938	-0.497576	0.040318	-0.441679	-0.0254225	-0.439277	-0.072191	-0.737597	-0.102554	-0.701954	-0.16581	-0.708114	-0.0847175	-0.536002	0.012835	-0.425884	-0.137261	-0.492382	0.0012585	-0.395126	-0.103667	-0.331949	-0.071016	-0.535152	-0.182752	-0.470048	
3.36456	0	0	-0.247595	0.0115602	-0.0596095	-0.382648	0.0931223	-0.328331	0.013013	-0.486517	0.0414185	-0.444789	-0.0268267	-0.435308	-0.0678295	-0.749923	-0.109924	-0.702923	-0.163347	-0.715078	-0.0916393	-0.53674	0.011625	-0.422464	-0.135872	-0.496308	-0.00370325	-0.40233	-0.0980378	-0.347859	-0.0823675	-0.536661	-0.194852	-0.477382	
3.36609	0	0	-0.257473	0.015177	-0.052943	-0.401489	0.107044	-0.340545	-0.003912	-0.475458	0.042519	-0.447899	-0.028231	-0.43134	-0.063468	-0.76225	-0.117294	-0.703891	-0.160883	-0.722041	-0.098561	-0.537478	0.010415	-0.419044	-0.134483	-0.500235	-0.008665	-0.409533	-0.092408	-0.36377	-0.093719	-0.53817	-0.206951	-0.484717	
3.36609	0	0	-0.243679	0.0004915	-0.024803	-0.427107	0.101721	-0.352632	0.0051815	-0.501158	0.0349185	-0.450101	-0.0344503	-0.439471	-0.0727375	-0.771328	-0.120669	-0.716125	-0.155961	-0.735952	-0.104265	-0.541635	0.0207	-0.425764	-0.142469	-0.50105	-0.005784	-0.417675	-0.0991143	-0.366717	-0.107783	-0.531953	-0.221355	-0.485447	
3.36914	0	0	-0.229884	-0.014194	0.003337	-0.452725	0.0963975	-0.364719	0.014275	-0.526857	0.027318	-0.452302	-0.0406695	-0.447602	-0.082007	-0.780407	-0.124044	-0.728359	-0.151038	-0.749862	-0.10997	-0.545791	0.030985	-0.432485	-0.150454	-0.501865	-0.002903	-0.425817	-0.105821	-0.369663	-0.121846	-0.525737	-0.235758	-0.486177	
3.36456	0	0	-0.216089	-0.0288795	0.031477	-0.478343	0.0910742	-0.376805	0.0233685	-0.552557	0.0197175	-0.454504	-0.0468887	-0.455733	-0.0912765	-0.789486	-0.127419	-0.740592	-0.146116	-0.763772	-0.115674	-0.549948	0.04127	-0.439205	-0.15844	-0.50268	-2.2E-05	-0.43396	-0.112527	-0.37261	-0.135909	-0.51952	-0.250161	-0.486907	
3.37219	0	0	-0.202295	-0.043565	0.059617	-0.503961	0.085751	-0.388892	0.032462	-0.578256	0.012117	-0.456706	-0.053108	-0.463864	-0.100546	-0.798564	-0.130794	-0.752826	-0.141194	-0.777683	-0.121379	-0.554105	0.051555	-0.445925	-0.166426	-0.503495	0.002859	-0.442102	-0.119233	-0.375557	-0.149973	-0.513303	-0.264565	-0.487637	
3.36761	0	0	-0.191097	-0.0508822	0.0629415	-0.513357	0.0900415	-0.401018	0.036999	-0.591078	0.025214	-0.470039	-0.0517065	-0.467825	-0.0962	-0.810847	-0.134171	-0.765028	-0.143223	-0.788813	-0.11534	-0.571171	0.0461072	-0.452876	-0.162266	-0.515254	0.00957125	-0.461071	-0.122565	-0.388014	-0.129074	-0.538837	-0.257576	-0.507387	
3.36914	0	0	-0.179898	-0.0581995	0.066266	-0.522752	0.094332	-0.413143	0.041536	-0.6039	0.038311	-0.483371	-0.050305	-0.471786	-0.091854	-0.823129	-0.137548	-0.77723	-0.145251	-0.799944	-0.109301	-0.588237	0.0406595	-0.459827	-0.158105	-0.527012	0.0162835	-0.480041	-0.125897	-0.40047	-0.108175	-0.564372	-0.250588	-0.527138	
3.37067	5	0	-0.1687	-0.0655167	0.0695905	-0.532148	0.0986225	-0.425269	0.046073	-0.616722	0.051408	-0.496704	-0.0489035	-0.475748	-0.087508	-0.835411	-0.140925	-0.789433	-0.14728	-0.811074	-0.103263	-0.605303	0.0352117	-0.466777	-0.153944	-0.538771	0.0229957	-0.499011	-0.129229	-0.412927	-0.087276	-0.589907	-0.243599	-0.546888	
3.37524	0	0	-0.157501	-0.072834	0.072915	-0.541544	0.102913	-0.437395	0.05061	-0.629544	0.064505	-0.510036	-0.047502	-0.479709	-0.083162	-0.847694	-0.144302	-0.801635	-0.149309	-0.822204	-0.097224	-0.622369	0.029764	-0.473728	-0.149784	-0.550529	0.029708	-0.51798	-0.132561	-0.425384	-0.066377	-0.615441	-0.236611	-0.566639	
3.37524	0	0	-0.157501	-0.072834	0.0481032	-0.525332	0.102913	-0.437395	0.0652672	-0.634194	0.0634065	-0.506931	-0.047502	-0.479709	-0.0886637	-0.849758	-0.141653	-0.809121	-0.152975	-0.828692	-0.10293	-0.626501	0.0309722	-0.477142	-0.147013	-0.55836	0.0209077	-0.514311	-0.128079	-0.438051	-0.079079	-0.613073	-0.215214	-0.585674	
3.37829	0	0	-0.157501	-0.072834	0.0232915	-0.509119	0.102913	-0.437395	0.0799245	-0.638845	0.062308	-0.503826	-0.047502	-0.479709	-0.0941655	-0.851823	-0.139005	-0.816607	-0.156641	-0.835179	-0.108635	-0.630633	0.0321805	-0.480557	-0.144242	-0.56619	0.0121075	-0.510641	-0.123596	-0.450719	-0.091781	-0.610704	-0.193817	-0.60471	
3.37982	0	0	-0.157501	-0.072834	-0.00152025	-0.492907	0.102913	-0.437395	0.0945818	-0.643495	0.0612095	-0.500722	-0.047502	-0.479709	-0.0996672	-0.853888	-0.136356	-0.824092	-0.160306	-0.841667	-0.11434	-0.634765	0.0333888	-0.483971	-0.141472	-0.574021	0.00330725	-0.506972	-0.119114	-0.463386	-0.104483	-0.608336	-0.172419	-0.623746	
3.37982	0	0	-0.157501	-0.072834	-0.026332	-0.476694	0.102913	-0.437395	0.109239	-0.648146	0.060111	-0.497617	-0.047502	-0.479709	-0.105169	-0.855952	-0.133707	-0.831578	-0.163972	-0.848155	-0.120046	-0.638897	0.034597	-0.487386	-0.138701	-0.581851	-0.005493	-0.503302	-0.114632	-0.476054	-0.117185	-0.605968	-0.151022	-0.642781	
3.38287	0	0	-0.166091	-0.0728883	-0.0196935	-0.495455	0.107198	-0.449504	0.0822208	-0.645262	0.0481125	-0.487389	-0.046101	-0.483669	-0.110665	-0.858016	-0.151043	-0.826001	-0.160705	-0.857388	-0.126949	-0.639621	0.044882	-0.494106	-0.148066	-0.57874	-0.00836725	-0.49518	-0.116872	-0.469722	-0.103118	-0.612195	-0.172419	-0.623746	
3.38135	0	0	-0.174681	-0.0729425	-0.013055	-0.514217	0.111483	-0.461614	0.0552025	-0.642378	0.036114	-0.477162	-0.0447	-0.487628	-0.116161	-0.860079	-0.168378	-0.820423	-0.157438	-0.866621	-0.133853	-0.640346	0.055167	-0.500827	-0.157431	-0.575628	-0.0112415	-0.487058	-0.119113	-0.463391	-0.0890505	-0.618421	-0.193817	-0.60471	
3.38592	0	0	-0.183272	-0.0729967	-0.0064165	-0.532979	0.115767	-0.473723	0.0281842	-0.639494	0.0241155	-0.466934	-0.043299	-0.491588	-0.121657	-0.862143	-0.185714	-0.814846	-0.154171	-0.875854	-0.140756	-0.64107	0.065452	-0.507547	-0.166795	-0.572517	-0.0141158	-0.478935	-0.121354	-0.45706	-0.0749833	-0.624648	-0.215214	-0.585674	
3.38592	0	0	-0.191862	-0.073051	0.000222	-0.55174	0.120052	-0.485832	0.001166	-0.63661	0.012117	-0.456706	-0.041898	-0.495547	-0.127153	-0.864206	-0.20305	-0.809269	-0.150904	-0.885087	-0.147659	-0.641794	0.075737	-0.514267	-0.17616	-0.569406	-0.01699	-0.470813	-0.123594	-0.450728	-0.060916	-0.630875	-0.236611	-0.566639	
3.38898	0	0	-0.20044	-0.0731088	0.000222	-0.55174	0.120052	-0.485832	0.0203203	-0.654042	0.0143145	-0.462917	-0.0509138	-0.49574	-0.130911	-0.871165	-0.197764	-0.824209	-0.145195	-0.901222	-0.141644	-0.658795	0.07028	-0.521192	-0.182746	-0.574119	-0.0189073	-0.465394	-0.132529	-0.447324	-0.0777132	-0.616933	-0.21754	-0.579101	
3.38592	0	0	-0.209018	-0.0731665	0.000222	-0.55174	0.120052	-0.485832	0.0394745	-0.671474	0.016512	-0.469127	-0.0599295	-0.495933	-0.134669	-0.878123	-0.192477	-0.839149	-0.139486	-0.917356	-0.135628	-0.675796	0.064823	-0.528116	-0.189332	-0.578831	-0.0208245	-0.459974	-0.141464	-0.44392	-0.0945105	-0.60299	-0.198468	-0.591562	
3.38898	0	0	-0.217595	-0.0732243	0.000222	-0.55174	0.120052	-0.485832	0.0586288	-0.688907	0.0187095	-0.475337	-0.0689452	-0.496126	-0.138428	-0.885082	-0.187191	-0.85409	-0.133777	-0.933491	-0.129612	-0.692797	0.059366	-0.535041	-0.195918	-0.583544	-0.0227418	-0.454555	-0.1504	-0.440515	-0.111308	-0.589048	-0.179397	-0.604023	
3.38898	0	0	-0.226173	-0.073282	0.000222	-0.55174	0.120052	-0.485832	0.077783	-0.706339	0.020907	-0.481548	-0.077961	-0.496319	-0.142186	-0.89204	-0.181904	-0.86903	-0.128068	-0.949626	-0.123597	-0.709798	0.053909	-0.541965	-0.202504	-0.588257	-0.024659	-0.449136	-0.159335	-0.437111	-0.128105	-0.575106	-0.160326	-0.616485	
3.39203	0	0	-0.23604	-0.069664	0.00353625	-0.561106	0.106155	-0.47365	0.0755203	-0.699944	0.0198085	-0.478443	-0.077961	-0.496319	-0.147673	-0.894097	-0.179264	-0.876491	-0.132558	-0.95377	-0.119993	-0.719983	0.053909	-0.541965	-0.189005	-0.603082	-0.0158602	-0.452801	-0.159335	-0.437111	-0.112673	-0.58519	-0.158	-0.623059	
3.39355	0	0	-0.245907	-0.066046	0.0068505	-0.570472	0.092259	-0.461468	0.0732575	-0.693549	0.01871	-0.475338	-0.077961	-0.496319	-0.153159	-0.896154	-0.176625	-0.883952	-0.137047	-0.957915	-0.11639	-0.730168	0.053909	-0.541965	-0.175506	-0.617907	-0.0070615	-0.456467	-0.159335	-0.437111	-0.097241	-0.595274	-0.155674	-0.629633	
3.39966	0	0	-0.255774	-0.062428	0.0101648	-0.579839	0.0783625	-0.449285	0.0709947	-0.687154	0.0176115	-0.472234	-0.077961	-0.496319	-0.158645	-0.898212	-0.173985	-0.891412	-0.141537	-0.962059	-0.112786	-0.740353	0.053909	-0.541965	-0.162007	-0.632731	0.00173725	-0.460132	-0.159335	-0.437111	-0.081809	-0.605357	-0.153348	-0.636207	
3.40118	0	0	-0.265641	-0.05881	0.013479	-0.589205	0.064466	-0.437103	0.068732	-0.680759	0.016513	-0.469129	-0.077961	-0.496319	-0.164132	-0.900269	-0.171345	-0.898873	-0.146027	-0.966204	-0.109182	-0.750538	0.053909	-0.541965	-0.148508	-0.647556	0.010536	-0.463798	-0.159335	-0.437111	-0.066377	-0.615441	-0.151022	-0.642781	
3.40729	0	0	-0.275494	-0.0552002	-0.0145753	-0.563673	0.0630378	-0.433067	0.0811265	-0.679014	0.012115	-0.4567	-0.0807613	-0.488405	-0.164132	-0.900269	-0.173985	-0.891412	-0.152953	-0.963446	-0.111584	-0.743749	0.0581577	-0.531626	-0.152654	-0.635839	0.00765675	-0.455661	-0.160455	-0.433945	-0.0845412	-0.597635	-0.151022	-0.642781	
3.41186	0	0	-0.285347	-0.0515905	-0.0426295	-0.538142	0.0616095	-0.42903	0.093521	-0.677269	0.007717	-0.44427	-0.0835615	-0.480492	-0.164132	-0.900269	-0.176625	-0.883952	-0.15988	-0.960689	-0.113986	-0.736961	0.0624065	-0.521287	-0.1568	-0.624121	0.0047775	-0.447523	-0.161575	-0.430778	-0.102706	-0.579829	-0.151022	-0.642781	
3.42102	0	0	-0.2952	-0.0479808	-0.0706838	-0.51261	0.0601812	-0.424994	0.105915	-0.675525	0.003319	-0.43184	-0.0863618	-0.472578	-0.164132	-0.900269	-0.179264	-0.876491	-0.166806	-0.957931	-0.116388	-0.730172	0.0666552	-0.510948	-0.160946	-0.612404	0.00189825	-0.439386	-0.162696	-0.427612	-0.12087	-0.562024	-0.151022	-0.642781	
3.4256	0	0	-0.305053	-0.044371	-0.098738	-0.487078	0.058753	-0.420958	0.11831	-0.67378	-0.001079	-0.419411	-0.089162	-0.464664	-0.164132	-0.900269	-0.181904	-0.86903	-0.173732	-0.955174	-0.11879	-0.723383	0.070904	-0.500609	-0.165092	-0.600687	-0.000981	-0.431249	-0.163816	-0.424445	-0.139034	-0.544218	-0.151022	-0.642781	
3.4378	0	0	-0.312291	-0.0481193	-0.098738	-0.487078	0.0683635	-0.421027	0.0991172	-0.656312	0.00872	-0.423423	-0.078747	-0.468425	-0.170478	-0.899882	-0.183225	-0.865297	-0.169666	-0.966666	-0.129295	-0.713908	0.0684862	-0.493776	-0.15711	-0.59989	-0.00386275	-0.423104	-0.164937	-0.421278	-0.141769	-0.536489	-0.148698	-0.64935	
3.44543	0	0	-0.31953	-0.0518675	-0.098738	-0.487078	0.077974	-0.421096	0.0799245	-0.638845	0.018519	-0.427435	-0.068332	-0.472187	-0.176823	-0.899494	-0.184546	-0.861565	-0.1656	-0.978158	-0.139799	-0.704433	0.0660685	-0.486943	-0.149127	-0.599094	-0.0067445	-0.41496	-0.166057	-0.41811	-0.144504	-0.52876	-0.146373	-0.655919	
3.45154	0	0	-0.326769	-0.0556157	-0.098738	-0.487078	0.0875845	-0.421165	0.0607317	-0.621377	0.028318	-0.431447	-0.057917	-0.475948	-0.183169	-0.899107	-0.185867	-0.857832	-0.161533	-0.989651	-0.150304	-0.694959	0.0636508	-0.480111	-0.141145	-0.598297	-0.00962625	-0.406815	-0.167178	-0.414943	-0.147238	-0.521032	-0.144049	-0.662488	
3.4668	0	0	-0.334007	-0.059364	-0.098738	-0.487078	0.097195	-0.421234	0.041539	-0.603909	0.038117	-0.435459	-0.047502	-0.479709	-0.189515	-0.898719	-0.187188	-0.854099	-0.157467	-1.00114	-0.160808	-0.685484	0.061233	-0.473278	-0.133163	-0.597501	-0.012508	-0.398671	-0.168299	-0.411776	-0.149973	-0.513303	-0.141725	-0.669057	
3.47442	0	0	-0.342534	-0.0594385	-0.102056	-0.477702	0.103958	-0.413215	0.0516513	-0.595714	0.0370163	-0.432348	-0.0607195	-0.468027	-0.18865	-0.901163	-0.198483	-0.843848	-0.162763	-1.00298	-0.152707	-0.688165	0.0666893	-0.466325	-0.134547	-0.593588	-0.0213053	-0.39501	-0.177222	-0.40838	-0.147238	-0.521032	-0.160796	-0.656595	
3.48663	0	0	-0.351061	-0.059513	-0.105374	-0.468326	0.11072	-0.405196	0.0617635	-0.587519	0.0359155	-0.429237	-0.073937	-0.456345	-0.187785	-0.903606	-0.209778	-0.833597	-0.168059	-1.00481	-0.144607	-0.690846	0.0721455	-0.459371	-0.135932	-0.589676	-0.0301025	-0.39135	-0.186146	-0.404985	-0.144504	-0.52876	-0.179867	-0.644134	
3.49426	0	0	-0.359588	-0.0595875	-0.108691	-0.45895	0.117482	-0.397177	0.0718758	-0.579325	0.0348147	-0.426125	-0.0871545	-0.444663	-0.186921	-0.90605	-0.221073	-0.823345	-0.173355	-1.00665	-0.136507	-0.693527	0.0776017	-0.452418	-0.137317	-0.585763	-0.0388998	-0.38769	-0.195069	-0.401589	-0.141769	-0.536489	-0.198938	-0.631672	
3.50189	0	0	-0.368115	-0.059662	-0.112009	-0.449574	0.124245	-0.389158	0.081988	-0.57113	0.033714	-0.423014	-0.100372	-0.432981	-0.186056	-0.908494	-0.232368	-0.813094	-0.178651	-1.00848	-0.128406	-0.696208	0.083058	-0.445465	-0.138701	-0.581851	-0.047697	-0.384029	-0.203992	-0.398194	-0.139034	-0.544218	-0.218009	-0.619211	
3.50952	0	0	-0.37663	-0.0597398	-0.112009	-0.449574	0.121379	-0.381057	0.077438	-0.558271	0.030409	-0.413674	-0.103177	-0.425053	-0.184327	-0.91338	-0.225039	-0.812138	-0.178651	-1.00848	-0.129608	-0.692809	0.089732	-0.441927	-0.142858	-0.570103	-0.047697	-0.384029	-0.193948	-0.404757	-0.154438	-0.534153	-0.215686	-0.625775	
3.51715	0	0	-0.385145	-0.0598175	-0.112009	-0.449574	0.118513	-0.372957	0.072888	-0.545412	0.027104	-0.404334	-0.105983	-0.417126	-0.182598	-0.918265	-0.217709	-0.811181	-0.178651	-1.00848	-0.130811	-0.68941	0.096406	-0.438388	-0.147015	-0.558354	-0.047697	-0.384029	-0.183904	-0.41132	-0.169843	-0.524087	-0.213363	-0.63234	
3.52478	0	0	-0.39366	-0.0598952	-0.112009	-0.449574	0.115647	-0.364857	0.068338	-0.532553	0.023799	-0.394994	-0.108788	-0.409198	-0.18087	-0.92315	-0.210379	-0.810225	-0.178651	-1.00848	-0.132014	-0.686011	0.10308	-0.43485	-0.151172	-0.546606	-0.047697	-0.384029	-0.17386	-0.417882	-0.185247	-0.514021	-0.211041	-0.638904	
3.5263	0	0	-0.402175	-0.059973	-0.112009	-0.449574	0.112781	-0.356756	0.063788	-0.519694	0.020494	-0.385654	-0.111593	-0.40127	-0.179141	-0.928036	-0.20305	-0.809269	-0.178651	-1.00848	-0.133216	-0.682612	0.109754	-0.431312	-0.155329	-0.534858	-0.047697	-0.384029	-0.163816	-0.424445	-0.200651	-0.503956	-0.208718	-0.645468	
3.53241	0	0	-0.408085	-0.0673803	-0.108691	-0.45895	0.115647	-0.364857	0.049139	-0.515067	0.023799	-0.394994	-0.111593	-0.40127	-0.182892	-0.934966	-0.210379	-0.810225	-0.182319	-1.0149	-0.141316	-0.679932	0.112178	-0.438163	-0.164692	-0.531752	-0.0536033	-0.388515	-0.161576	-0.430777	-0.183881	-0.517883	-0.225426	-0.639594	
3.53393	0	0	-0.413995	-0.0747875	-0.105374	-0.468326	0.118513	-0.372957	0.03449	-0.510439	0.027104	-0.404334	-0.111593	-0.40127	-0.186642	-0.941896	-0.217709	-0.811181	-0.185988	-1.02132	-0.149417	-0.677253	0.114602	-0.445014	-0.174055	-0.528646	-0.0595095	-0.393	-0.159335	-0.437108	-0.16711	-0.531811	-0.242134	-0.633719	
3.54004	0	0	-0.419906	-0.0821947	-0.102056	-0.477702	0.121379	-0.381057	0.019841	-0.505812	0.030409	-0.413674	-0.111593	-0.40127	-0.190393	-0.948826	-0.225039	-0.812138	-0.189657	-1.02774	-0.157517	-0.674573	0.117027	-0.451866	-0.183418	-0.52554	-0.0654157	-0.397486	-0.157095	-0.443439	-0.150339	-0.545739	-0.258842	-0.627845	
3.54462	0	0	-0.425816	-0.089602	-0.098738	-0.487078	0.124245	-0.389158	0.005192	-0.501185	0.033714	-0.423014	-0.111593	-0.40127	-0.194144	-0.955756	-0.232368	-0.813094	-0.193325	-1.03416	-0.165617	-0.671893	0.119451	-0.458717	-0.192781	-0.522434	-0.071322	-0.401972	-0.154855	-0.449771	-0.133569	-0.559666	-0.27555	-0.62197	
3.54614	0	0	-0.430427	-0.10065	-0.0921133	-0.5058	0.117482	-0.397177	0.007466	-0.507612	0.0272155	-0.42833	-0.108788	-0.409198	-0.18811	-0.972811	-0.228406	-0.824292	-0.189272	-1.04562	-0.162012	-0.682082	0.113984	-0.465667	-0.177876	-0.541201	-0.0733902	-0.41728	-0.160423	-0.455858	-0.126745	-0.57895	-0.266283	-0.648159	
3.54614	0	0	-0.435038	-0.111697	-0.0854885	-0.524523	0.11072	-0.405196	0.00974	-0.514039	0.020717	-0.433646	-0.105983	-0.417126	-0.182075	-0.989866	-0.224443	-0.83549	-0.185219	-1.05707	-0.158407	-0.692271	0.108518	-0.472618	-0.162972	-0.559967	-0.0754585	-0.432588	-0.165991	-0.461944	-0.119921	-0.598235	-0.257016	-0.674349	
3.54767	0	0	-0.43965	-0.122744	-0.0788637	-0.543245	0.103958	-0.413215	0.012014	-0.520467	0.0142185	-0.438963	-0.103177	-0.425053	-0.17604	-1.00692	-0.220481	-0.846689	-0.181167	-1.06852	-0.154801	-0.70246	0.103051	-0.479568	-0.148068	-0.578734	-0.0775268	-0.447895	-0.171559	-0.468031	-0.113098	-0.617519	-0.247749	-0.700539	
3.55224	0	0	-0.444261	-0.133792	-0.072239	-0.561967	0.097195	-0.421234	0.014288	-0.526894	0.00772	-0.444279	-0.100372	-0.432981	-0.170006	-1.02398	-0.216519	-0.857887	-0.177114	-1.07998	-0.151196	-0.712649	0.097584	-0.486518	-0.133163	-0.597501	-0.079595	-0.463203	-0.177127	-0.474118	-0.106274	-0.636803	-0.238482	-0.726728	
3.55072	0	0	-0.447581	-0.148457	-0.0656282	-0.58065	0.0904402	-0.429236	0.0357565	-0.550793	0.00881925	-0.447386	-0.101774	-0.429018	-0.172903	-1.0333	-0.215199	-0.861617	-0.173875	-1.08913	-0.149995	-0.716043	0.0987935	-0.489936	-0.130396	-0.605321	-0.0729013	-0.482121	-0.181573	-0.483349	-0.11623	-0.642135	-0.21483	-0.752228	
3.55377	0	0	-0.450902	-0.163123	-0.0590175	-0.599333	0.0836855	-0.437238	0.057225	-0.574693	0.0099185	-0.450492	-0.103177	-0.425055	-0.1758	-1.04263	-0.21388	-0.865346	-0.170636	-1.09828	-0.148794	-0.719437	0.100003	-0.493355	-0.127629	-0.613142	-0.0662075	-0.501039	-0.18602	-0.492581	-0.126186	-0.647467	-0.191178	-0.777728	
3.55682	0	0	-0.454222	-0.177788	-0.0524068	-0.618017	0.0769308	-0.44524	0.0786935	-0.598593	0.0110177	-0.453599	-0.104579	-0.421092	-0.178698	-1.05195	-0.21256	-0.869076	-0.167398	-1.10744	-0.147593	-0.72283	0.101212	-0.496773	-0.124862	-0.620962	-0.0595137	-0.519957	-0.190466	-0.501812	-0.136142	-0.652799	-0.167526	-0.803227	
3.55835	0	0	-0.457542	-0.192453	-0.045796	-0.6367	0.070176	-0.453242	0.100162	-0.622492	0.012117	-0.456706	-0.105981	-0.417129	-0.181595	-1.06128	-0.21124	-0.872805	-0.164159	-1.11659	-0.146392	-0.726224	0.102422	-0.500191	-0.122095	-0.628782	-0.05282	-0.538875	-0.194912	-0.511044	-0.146098	-0.658131	-0.143874	-0.828727	
3.5614	0	0	-0.459581	-0.21071	-0.0671647	-0.629908	0.078728	-0.477411	0.102431	-0.628906	0.0143145	-0.462917	-0.117781	-0.409419	-0.183635	-1.07301	-0.208602	-0.880259	-0.167835	-1.12297	-0.145192	-0.729616	0.0945425	-0.500296	-0.131462	-0.625666	-0.0490012	-0.549667	-0.19268	-0.517351	-0.158754	-0.655772	-0.141565	-0.835253	
3.5675	0	0	-0.461619	-0.228967	-0.0885335	-0.623116	0.08728	-0.50158	0.104701	-0.635319	0.016512	-0.469127	-0.129581	-0.401709	-0.185675	-1.08474	-0.205964	-0.887714	-0.171511	-1.12935	-0.143991	-0.733008	0.086663	-0.5004	-0.140828	-0.622549	-0.0451825	-0.560459	-0.190449	-0.523658	-0.17141	-0.653414	-0.139256	-0.841778	
3.56445	0	0	-0.463658	-0.247223	-0.109902	-0.616323	0.095832	-0.52575	0.10697	-0.641733	0.0187095	-0.475337	-0.14138	-0.393999	-0.187714	-1.09647	-0.203327	-0.895169	-0.175187	-1.13574	-0.142791	-0.736401	0.0787835	-0.500505	-0.150195	-0.619433	-0.0413638	-0.571252	-0.188217	-0.529965	-0.184066	-0.651056	-0.136947	-0.848304	
3.57208	0	0	-0.465696	-0.26548	-0.131271	-0.609531	0.104384	-0.549919	0.109239	-0.648146	0.020907	-0.481548	-0.15318	-0.386289	-0.189754	-1.10821	-0.200689	-0.902623	-0.178863	-1.14212	-0.141591	-0.739793	0.070904	-0.500609	-0.159561	-0.616317	-0.037545	-0.582044	-0.185985	-0.536272	-0.196722	-0.648697	-0.134638	-0.85483	
3.57513	0	0	-0.470312	-0.276421	-0.127974	-0.618848	0.110073	-0.565996	0.0968477	-0.6499	0.0133147	-0.483742	-0.148975	-0.398172	-0.192654	-1.11749	-0.206699	-0.907284	-0.18173	-1.15078	-0.136794	-0.75335	0.075734	-0.514259	-0.155417	-0.628029	-0.0415505	-0.591854	-0.190433	-0.545472	-0.191288	-0.664055	-0.125419	-0.880886	
3.58276	0	0	-0.474928	-0.287363	-0.124677	-0.628166	0.115761	-0.582072	0.0844565	-0.651653	0.0057225	-0.485937	-0.14477	-0.410056	-0.195555	-1.12677	-0.212709	-0.911944	-0.184597	-1.15943	-0.131997	-0.766907	0.080564	-0.52791	-0.151273	-0.639741	-0.045556	-0.601663	-0.194881	-0.554673	-0.185854	-0.679413	-0.116199	-0.906942	
3.58887	0	0	-0.479543	-0.298305	-0.121381	-0.637483	0.12145	-0.598149	0.0720652	-0.653407	-0.00186975	-0.488131	-0.140565	-0.42194	-0.198455	-1.13606	-0.218718	-0.916605	-0.187465	-1.16808	-0.1272	-0.780464	0.085394	-0.54156	-0.147128	-0.651454	-0.0495615	-0.611472	-0.19933	-0.563873	-0.18042	-0.694771	-0.10698	-0.932997	
3.59192	0	0	-0.484159	-0.309246	-0.118084	-0.6468	0.127138	-0.614226	0.059674	-0.655161	-0.009462	-0.490326	-0.13636	-0.433823	-0.201355	-1.14534	-0.224728	-0.921266	-0.190332	-1.17674	-0.122403	-0.794021	0.090224	-0.55521	-0.142984	-0.663166	-0.053567	-0.621282	-0.203778	-0.573073	-0.174986	-0.710129	-0.09776	-0.959053	
3.59802	0	0	-0.491337	-0.312917	-0.111501	-0.665406	0.114687	-0.60609	0.059674	-0.655161	-0.008365	-0.493426	-0.124561	-0.441533	-0.205112	-1.15219	-0.223412	-0.924986	-0.1802	-1.18862	-0.130497	-0.791335	0.0938415	-0.565434	-0.140224	-0.670965	-0.0516627	-0.626664	-0.201552	-0.579365	-0.15554	-0.731677	-0.112189	-0.959619	
3.60565	0	0	-0.498514	-0.316588	-0.104917	-0.684011	0.102237	-0.597954	0.059674	-0.655161	-0.007268	-0.496527	-0.112761	-0.449244	-0.208869	-1.15904	-0.222095	-0.928706	-0.170067	-1.2005	-0.138592	-0.788649	0.097459	-0.575657	-0.137464	-0.678765	-0.0497585	-0.632045	-0.199326	-0.585656	-0.136094	-0.753225	-0.126618	-0.960184	
3.60565	0	0	-0.505691	-0.320259	-0.0983342	-0.702616	0.0897857	-0.589819	0.059674	-0.655161	-0.006171	-0.499627	-0.100962	-0.456954	-0.212625	-1.16588	-0.220778	-0.932427	-0.159934	-1.21237	-0.146686	-0.785963	0.101076	-0.585881	-0.134705	-0.686565	-0.0478543	-0.637427	-0.1971	-0.591947	-0.116647	-0.774774	-0.141047	-0.96075	
3.61328	0	0	-0.512869	-0.32393	-0.091751	-0.721222	0.077335	-0.581683	0.059674	-0.655161	-0.005074	-0.502728	-0.089162	-0.464664	-0.216382	-1.17273	-0.219462	-0.936147	-0.149802	-1.22425	-0.154781	-0.783277	0.104694	-0.596105	-0.131945	-0.694364	-0.04595	-0.642808	-0.194874	-0.598239	-0.097201	-0.796322	-0.155476	-0.961315	
3.61786	0	0	-0.520037	-0.327597	-0.091751	-0.721222	0.077335	-0.581683	0.0619385	-0.66156	-0.005074	-0.502728	-0.0919645	-0.456743	-0.214671	-1.17757	-0.218146	-0.939866	-0.148996	-1.22653	-0.154781	-0.783277	0.104694	-0.596105	-0.131945	-0.694364	-0.0488067	-0.634734	-0.175934	-0.608197	-0.097201	-0.796322	-0.176762	-0.942411	
3.62854	0	0	-0.527205	-0.331264	-0.091751	-0.721222	0.077335	-0.581683	0.064203	-0.66796	-0.005074	-0.502728	-0.094767	-0.448823	-0.21296	-1.1824	-0.21683	-0.943585	-0.14819	-1.22881	-0.154781	-0.783277	0.104694	-0.596105	-0.131945	-0.694364	-0.0516635	-0.626661	-0.156994	-0.618154	-0.097201	-0.796322	-0.198047	-0.923508	
3.63617	0	0	-0.534373	-0.334932	-0.091751	-0.721222	0.077335	-0.581683	0.0664675	-0.67436	-0.005074	-0.502728	-0.0975695	-0.440902	-0.211249	-1.18724	-0.215515	-0.947303	-0.147383	-1.23109	-0.154781	-0.783277	0.104694	-0.596105	-0.131945	-0.694364	-0.0545202	-0.618588	-0.138055	-0.628111	-0.097201	-0.796322	-0.219333	-0.904605	
3.64075	0	0	-0.541541	-0.338599	-0.091751	-0.721222	0.077335	-0.581683	0.068732	-0.680759	-0.005074	-0.502728	-0.100372	-0.432981	-0.209538	-1.19207	-0.214199	-0.951022	-0.146577	-1.23337	-0.154781	-0.783277	0.104694	-0.596105	-0.131945	-0.694364	-0.057377	-0.610514	-0.119115	-0.638069	-0.097201	-0.796322	-0.240619	-0.885701	
3.64685	0	0	-0.537702	-0.349448	-0.0884642	-0.73051	0.0912065	-0.593833	0.068732	-0.680759	-0.00178525	-0.512022	-0.0975695	-0.440902	-0.206119	-1.20173	-0.210255	-0.962169	-0.145771	-1.23565	-0.144291	-0.792734	0.104694	-0.596105	-0.130566	-0.698261	-0.051465	-0.606093	-0.121342	-0.631776	-0.0999135	-0.788656	-0.221632	-0.898107	
3.65295	0	0	-0.533864	-0.360297	-0.0851775	-0.739798	0.105078	-0.605984	0.068732	-0.680759	0.0015035	-0.521317	-0.094767	-0.448823	-0.2027	-1.2114	-0.206311	-0.973316	-0.144965	-1.23792	-0.1338	-0.802191	0.104694	-0.596105	-0.129187	-0.702158	-0.045553	-0.601671	-0.123569	-0.625482	-0.102626	-0.780991	-0.202646	-0.910513	
3.65906	0	0	-0.530025	-0.371146	-0.0818907	-0.749086	0.118949	-0.618134	0.068732	-0.680759	0.00479225	-0.530612	-0.0919645	-0.456743	-0.199281	-1.22106	-0.202366	-0.984463	-0.144159	-1.2402	-0.12331	-0.811647	0.104694	-0.596105	-0.127808	-0.706056	-0.039641	-0.597249	-0.125796	-0.619188	-0.105339	-0.773325	-0.183659	-0.92292	
3.66363	0	0	-0.526186	-0.381995	-0.078604	-0.758374	0.132821	-0.630284	0.068732	-0.680759	0.008081	-0.539906	-0.089162	-0.464664	-0.195862	-1.23072	-0.198422	-0.99561	-0.143353	-1.24248	-0.11282	-0.821104	0.104694	-0.596105	-0.126429	-0.709953	-0.033729	-0.592828	-0.128023	-0.612895	-0.108051	-0.76566	-0.164672	-0.935326	
3.67889	0	0	-0.527465	-0.37838	-0.078604	-0.758374	0.128557	-0.618235	0.068732	-0.680759	0.005889	-0.533711	-0.089162	-0.464664	-0.196717	-1.22831	-0.198422	-0.99561	-0.13644	-1.24524	-0.114018	-0.817719	0.11258	-0.596019	-0.138544	-0.699041	-0.0287657	-0.585701	-0.131366	-0.603446	-0.123427	-0.755613	-0.162373	-0.941823	
3.68042	0	0	-0.528744	-0.374765	-0.078604	-0.758374	0.124294	-0.606186	0.068732	-0.680759	0.003697	-0.527516	-0.089162	-0.464664	-0.197571	-1.22589	-0.198422	-0.99561	-0.129526	-1.24801	-0.115215	-0.814334	0.120466	-0.595932	-0.150659	-0.688128	-0.0238025	-0.578574	-0.134709	-0.593997	-0.138804	-0.745565	-0.160074	-0.948321	
3.68805	0	0	-0.530023	-0.371151	-0.078604	-0.758374	0.12003	-0.594136	0.068732	-0.680759	0.001505	-0.52132	-0.089162	-0.464664	-0.198426	-1.22348	-0.198422	-0.99561	-0.122613	-1.25078	-0.116413	-0.81095	0.128352	-0.595846	-0.162773	-0.677216	-0.0188393	-0.571448	-0.138053	-0.584549	-0.15418	-0.735517	-0.157775	-0.954818	
3.69263	0	0	-0.531302	-0.367536	-0.078604	-0.758374	0.115766	-0.582087	0.068732	-0.680759	-0.000687	-0.515125	-0.089162	-0.464664	-0.19928	-1.22106	-0.198422	-0.99561	-0.1157	-1.25354	-0.117611	-0.807565	0.136238	-0.59576	-0.174888	-0.666304	-0.013876	-0.564321	-0.141396	-0.5751	-0.169557	-0.72547	-0.155476	-0.961315	
3.69568	0	0	-0.532582	-0.363919	-0.078604	-0.758374	0.122541	-0.574143	0.0811265	-0.679014	0.00580975	-0.509834	-0.0947697	-0.448816	-0.201845	-1.21382	-0.191089	-0.99469	-0.118119	-1.24671	-0.110705	-0.80687	0.130202	-0.578701	-0.156163	-0.672543	-0.0117802	-0.549066	-0.146976	-0.55933	-0.156895	-0.727845	-0.143349	-0.954242	
3.69415	0	0	-0.533861	-0.360303	-0.078604	-0.758374	0.129317	-0.566199	0.093521	-0.677269	0.0123065	-0.504544	-0.100378	-0.432967	-0.204409	-1.20657	-0.183755	-0.993769	-0.120538	-1.23987	-0.103799	-0.806175	0.124165	-0.561641	-0.137438	-0.678783	-0.0096845	-0.533811	-0.152556	-0.54356	-0.144234	-0.73022	-0.131222	-0.94717	
3.6972	0	0	-0.535141	-0.356687	-0.078604	-0.758374	0.136093	-0.558256	0.105915	-0.675525	0.0188033	-0.499253	-0.105985	-0.417119	-0.206974	-1.19932	-0.176422	-0.992849	-0.122958	-1.23303	-0.096893	-0.805481	0.118129	-0.544582	-0.118713	-0.685022	-0.00758875	-0.518557	-0.158136	-0.52779	-0.131572	-0.732595	-0.119096	-0.940098	
3.69415	0	0	-0.536421	-0.35307	-0.078604	-0.758374	0.142868	-0.550312	0.11831	-0.67378	0.0253	-0.493962	-0.111593	-0.40127	-0.209538	-1.19207	-0.169089	-0.991929	-0.125377	-1.22619	-0.089987	-0.804786	0.112093	-0.527523	-0.099988	-0.691261	-0.005493	-0.503302	-0.163716	-0.51202	-0.11891	-0.73497	-0.106969	-0.933025	
3.69263	0	0	-0.537701	-0.349452	-0.078604	-0.758374	0.138591	-0.538225	0.116042	-0.667372	0.0263977	-0.497065	-0.11019	-0.405235	-0.210393	-1.18965	-0.167774	-0.995645	-0.11765	-1.23124	-0.0794755	-0.814258	0.112093	-0.527523	-0.099988	-0.691261	-0.0102845	-0.489761	-0.159262	-0.502785	-0.120268	-0.731132	-0.109273	-0.926513	
3.6972	0	0	-0.538981	-0.345834	-0.078604	-0.758374	0.134314	-0.526138	0.113775	-0.660963	0.0274955	-0.500167	-0.108787	-0.4092	-0.211249	-1.18724	-0.166459	-0.99936	-0.109924	-1.23629	-0.068964	-0.823731	0.112093	-0.527523	-0.099988	-0.691261	-0.015076	-0.476219	-0.154808	-0.49355	-0.121626	-0.727293	-0.111577	-0.920002	
3.69568	0	0	-0.540261	-0.342217	-0.078604	-0.758374	0.130037	-0.51405	0.111507	-0.654555	0.0285933	-0.50327	-0.107384	-0.413164	-0.212104	-1.18482	-0.165145	-1.00308	-0.102197	-1.24134	-0.0584525	-0.833203	0.112093	-0.527523	-0.099988	-0.691261	-0.0198675	-0.462677	-0.150354	-0.484315	-0.122985	-0.723455	-0.113882	-0.91349	
3.6972	0	0	-0.541541	-0.338599	-0.078604	-0.758374	0.12576	-0.501963	0.109239	-0.648146	0.029691	-0.506372	-0.105981	-0.417129	-0.212959	-1.1824	-0.16383	-1.00679	-0.094471	-1.24639	-0.047941	-0.842676	0.112093	-0.527523	-0.099988	-0.691261	-0.024659	-0.449136	-0.1459	-0.47508	-0.124343	-0.719616	-0.116186	-0.906979	
3.70026	0	0	-0.542822	-0.33498	-0.078604	-0.758374	0.135393	-0.502055	0.10697	-0.641733	0.0307885	-0.509474	-0.105981	-0.417129	-0.205777	-1.18524	-0.16383	-1.00679	-0.094471	-1.24639	-0.047941	-0.842676	0.122402	-0.534259	-0.099988	-0.691261	-0.0158602	-0.452801	-0.138083	-0.475324	-0.106223	-0.737357	-0.13291	-0.901057	
3.69873	0	0	-0.544103	-0.331361	-0.078604	-0.758374	0.145026	-0.502147	0.104701	-0.635319	0.031886	-0.512575	-0.105981	-0.417129	-0.198595	-1.18807	-0.16383	-1.00679	-0.094471	-1.24639	-0.047941	-0.842676	0.132712	-0.540996	-0.099988	-0.691261	-0.0070615	-0.456467	-0.130266	-0.475567	-0.0881025	-0.755098	-0.149635	-0.895134	
3.69568	0	0	-0.545383	-0.327741	-0.078604	-0.758374	0.154658	-0.502239	0.102431	-0.628906	0.0329835	-0.515676	-0.105981	-0.417129	-0.191412	-1.19091	-0.16383	-1.00679	-0.094471	-1.24639	-0.047941	-0.842676	0.143021	-0.547732	-0.099988	-0.691261	0.00173725	-0.460132	-0.122449	-0.47581	-0.0699822	-0.772839	-0.166359	-0.889212	
3.69568	0	0	-0.546664	-0.324122	-0.078604	-0.758374	0.164291	-0.502331	0.100162	-0.622492	0.034081	-0.518778	-0.105981	-0.417129	-0.18423	-1.19374	-0.16383	-1.00679	-0.094471	-1.24639	-0.047941	-0.842676	0.153331	-0.554469	-0.099988	-0.691261	0.010536	-0.463798	-0.114632	-0.476054	-0.051862	-0.79058	-0.183084	-0.88329	
3.6972	0	0	-0.545383	-0.327741	-0.0539352	-0.774493	0.161434	-0.494256	0.11712	-0.633573	0.0329835	-0.515676	-0.105981	-0.417129	-0.18423	-1.19374	-0.16383	-1.00679	-0.0936645	-1.24867	-0.0491395	-0.839289	0.150913	-0.547636	-0.101369	-0.687358	0.00173725	-0.460132	-0.115752	-0.472889	-0.051862	-0.79058	-0.183084	-0.88329	
3.69415	0	0	-0.544103	-0.331361	-0.0292665	-0.790612	0.158577	-0.486181	0.134078	-0.644654	0.031886	-0.512575	-0.105981	-0.417129	-0.18423	-1.19374	-0.16383	-1.00679	-0.092858	-1.25095	-0.050338	-0.835901	0.148496	-0.540803	-0.102749	-0.683456	-0.0070615	-0.456467	-0.116872	-0.469723	-0.051862	-0.79058	-0.183084	-0.88329	
3.69415	0	0	-0.542822	-0.33498	-0.00459775	-0.806732	0.155719	-0.478107	0.151037	-0.655735	0.0307885	-0.509474	-0.105981	-0.417129	-0.18423	-1.19374	-0.16383	-1.00679	-0.0920515	-1.25323	-0.0515365	-0.832514	0.146078	-0.53397	-0.10413	-0.679554	-0.0158603	-0.452801	-0.117992	-0.466558	-0.051862	-0.79058	-0.183084	-0.88329	
3.69263	0	0	-0.541541	-0.338599	0.020071	-0.822851	0.152862	-0.470032	0.167995	-0.666816	0.029691	-0.506372	-0.105981	-0.417129	-0.18423	-1.19374	-0.16383	-1.00679	-0.091245	-1.25551	-0.052735	-0.829127	0.14366	-0.527137	-0.105511	-0.675651	-0.024659	-0.449136	-0.119112	-0.463393	-0.051862	-0.79058	-0.183084	-0.88329	
3.6911	0	0	-0.549979	-0.338647	0.020071	-0.822851	0.154291	-0.47407	0.153306	-0.662149	0.0340782	-0.518772	-0.101776	-0.429013	-0.180809	-1.20341	-0.169851	-1.01142	-0.0880205	-1.26462	-0.0479435	-0.842668	0.157608	-0.544129	-0.101371	-0.687353	-0.0208253	-0.459971	-0.115753	-0.472885	-0.0645527	-0.788183	-0.178481	-0.896299	
3.6911	0	0	-0.558417	-0.338695	0.020071	-0.822851	0.15572	-0.478108	0.138617	-0.657481	0.0384655	-0.531171	-0.0975715	-0.440897	-0.177389	-1.21308	-0.175872	-1.01605	-0.084796	-1.27373	-0.043152	-0.85621	0.171556	-0.561121	-0.09723	-0.699055	-0.0169915	-0.470806	-0.112395	-0.482378	-0.0772435	-0.785787	-0.173878	-0.909308	
3.68957	0	0	-0.566854	-0.338744	0.020071	-0.822851	0.157149	-0.482147	0.123928	-0.652813	0.0428527	-0.54357	-0.0933667	-0.45278	-0.173968	-1.22274	-0.181894	-1.02068	-0.0815715	-1.28285	-0.0383605	-0.869752	0.185504	-0.578113	-0.0930895	-0.710757	-0.0131578	-0.481641	-0.109036	-0.49187	-0.0899342	-0.78339	-0.169275	-0.922317	
3.685	0	0	-0.575292	-0.338792	0.020071	-0.822851	0.158578	-0.486185	0.109239	-0.648146	0.04724	-0.55597	-0.089162	-0.464664	-0.170547	-1.23241	-0.187915	-1.0253	-0.078347	-1.29196	-0.033569	-0.883293	0.199452	-0.595105	-0.088949	-0.722459	-0.009324	-0.492476	-0.105678	-0.501362	-0.102625	-0.780994	-0.164672	-0.935326	
3.68042	0	0	-0.574013	-0.342407	0.0233543	-0.832129	0.171083	-0.494356	0.113773	-0.660959	0.0494315	-0.562163	-0.0995613	-0.460912	-0.167984	-1.23965	-0.181358	-1.04384	-0.0836573	-1.29374	-0.0287848	-0.896814	0.191545	-0.595186	-0.0848137	-0.734146	-0.013329	-0.502335	-0.111261	-0.507432	-0.0972047	-0.796312	-0.160076	-0.948316	
3.68042	0	0	-0.572734	-0.346021	0.0266375	-0.841408	0.183588	-0.502528	0.118306	-0.673771	0.051623	-0.568356	-0.10996	-0.457159	-0.16542	-1.2469	-0.1748	-1.06237	-0.0889675	-1.29552	-0.0240005	-0.910335	0.183638	-0.595266	-0.0806785	-0.745832	-0.017334	-0.512193	-0.116844	-0.513502	-0.0917845	-0.811631	-0.155479	-0.961305	
3.68194	0	0	-0.571454	-0.349636	0.0299207	-0.850687	0.196094	-0.510699	0.12284	-0.686584	0.0538145	-0.574549	-0.12036	-0.453406	-0.162857	-1.25414	-0.168243	-1.0809	-0.0942777	-1.2973	-0.0192163	-0.923855	0.175731	-0.595347	-0.0765433	-0.757519	-0.021339	-0.522052	-0.122426	-0.519572	-0.0863643	-0.82695	-0.150883	-0.974295	
3.67432	0	0	-0.570175	-0.353251	0.033204	-0.859965	0.208599	-0.51887	0.127374	-0.699397	0.056006	-0.580742	-0.130759	-0.449654	-0.160294	-1.26139	-0.161686	-1.09943	-0.099588	-1.29908	-0.014432	-0.937376	0.167824	-0.595427	-0.072408	-0.769206	-0.025344	-0.53191	-0.128009	-0.525642	-0.080944	-0.842268	-0.146287	-0.987285	
3.67584	0	0	-0.567619	-0.360476	0.0364835	-0.869234	0.197522	-0.514735	0.144332	-0.710478	0.0549105	-0.577646	-0.12796	-0.457564	-0.158586	-1.26621	-0.159067	-1.10684	-0.098783	-1.30135	-0.014432	-0.937376	0.175731	-0.595347	-0.072408	-0.769206	-0.01273	-0.546382	-0.125775	-0.531956	-0.0782373	-0.849917	-0.143991	-0.993773	
3.67126	0	0	-0.565062	-0.367702	0.039763	-0.878503	0.186445	-0.510601	0.161291	-0.721559	0.053815	-0.57455	-0.125161	-0.465475	-0.156878	-1.27104	-0.156448	-1.11424	-0.097978	-1.30363	-0.014432	-0.937376	0.183638	-0.595266	-0.072408	-0.769206	-0.000116	-0.560854	-0.123541	-0.538269	-0.0755305	-0.857567	-0.141696	-1.00026	
3.67126	0	0	-0.562505	-0.374928	0.0430425	-0.887772	0.175368	-0.506466	0.178249	-0.73264	0.0527195	-0.571454	-0.122362	-0.473385	-0.155171	-1.27587	-0.153828	-1.12164	-0.097173	-1.3059	-0.014432	-0.937376	0.191545	-0.595186	-0.072408	-0.769206	0.012498	-0.575325	-0.121307	-0.544583	-0.0728237	-0.865216	-0.1394	-1.00675	
3.66516	0	0	-0.559949	-0.382153	0.046322	-0.897041	0.164291	-0.502331	0.195207	-0.743721	0.051624	-0.568358	-0.119563	-0.481295	-0.153463	-1.28069	-0.151209	-1.12904	-0.096368	-1.30818	-0.014432	-0.937376	0.199452	-0.595105	-0.072408	-0.769206	0.025112	-0.589797	-0.119073	-0.550896	-0.070117	-0.872865	-0.137104	-1.01324	
3.66516	0	0	-0.558671	-0.385764	0.0249295	-0.890181	0.179651	-0.51857	0.182776	-0.745434	0.0570978	-0.583828	-0.116766	-0.489198	-0.157236	-1.28749	-0.155928	-1.13732	-0.0939542	-1.315	-0.0177747	-0.948163	0.192752	-0.598596	-0.0669027	-0.784764	0.0298845	-0.603285	-0.11461	-0.56351	-0.0967873	-0.86425	-0.132518	-1.0262	
3.66363	0	0	-0.557394	-0.389374	0.003537	-0.883321	0.19501	-0.534809	0.170345	-0.747148	0.0625715	-0.599297	-0.11397	-0.497101	-0.161009	-1.29429	-0.160647	-1.14561	-0.0915405	-1.32182	-0.0211175	-0.958951	0.186051	-0.602087	-0.0613975	-0.800323	0.034657	-0.616774	-0.110147	-0.576124	-0.123457	-0.855635	-0.127932	-1.03916	
3.66516	0	0	-0.556117	-0.392984	-0.0178555	-0.876461	0.21037	-0.551047	0.157914	-0.748861	0.0680453	-0.614766	-0.111174	-0.505005	-0.164782	-1.3011	-0.165366	-1.15389	-0.0891268	-1.32864	-0.0244603	-0.969738	0.179351	-0.605578	-0.0558923	-0.815881	0.0394295	-0.630262	-0.105683	-0.588738	-0.150128	-0.847019	-0.123345	-1.05212	
3.66058	0	0	-0.554839	-0.396595	-0.039248	-0.869601	0.22573	-0.567286	0.145483	-0.750575	0.073519	-0.630236	-0.108377	-0.512908	-0.168555	-1.3079	-0.170085	-1.16218	-0.086713	-1.33546	-0.027803	-0.980525	0.172651	-0.609069	-0.050387	-0.83144	0.044202	-0.64375	-0.10122	-0.601352	-0.176798	-0.838404	-0.118759	-1.06508	
3.66211	0	0	-0.553562	-0.400204	-0.0113062	-0.89497	0.227156	-0.571317	0.164703	-0.768046	0.0767987	-0.639505	-0.104187	-0.524749	-0.164296	-1.31993	-0.164862	-1.17694	-0.0928242	-1.33497	-0.0149135	-0.996718	0.177474	-0.622699	-0.0570135	-0.836067	0.0401728	-0.65354	-0.096763	-0.613948	-0.157398	-0.859881	-0.128593	-1.07854	
3.66058	0	0	-0.552285	-0.403813	0.0166355	-0.920339	0.228583	-0.575347	0.183922	-0.785518	0.0800785	-0.648774	-0.099997	-0.536591	-0.160037	-1.33197	-0.159638	-1.1917	-0.0989355	-1.33447	-0.002024	-1.01291	0.182296	-0.636328	-0.06364	-0.840694	0.0361435	-0.663331	-0.092306	-0.626544	-0.137999	-0.881357	-0.138427	-1.09201	
3.65753	0	0	-0.551008	-0.407422	0.0445773	-0.945708	0.23001	-0.579378	0.203142	-0.80299	0.0833583	-0.658043	-0.095807	-0.548433	-0.155777	-1.34401	-0.154415	-1.20646	-0.105047	-1.33397	0.0108655	-1.02911	0.187118	-0.649957	-0.0702665	-0.845322	0.0321142	-0.673121	-0.087849	-0.63914	-0.118599	-0.902833	-0.148261	-1.10547	
3.65448	0	0	-0.549731	-0.411031	0.072519	-0.971077	0.231436	-0.583409	0.222361	-0.820461	0.086638	-0.667312	-0.091617	-0.560274	-0.151518	-1.35605	-0.149192	-1.22122	-0.111158	-1.33347	0.023755	-1.0453	0.191941	-0.663587	-0.076893	-0.849949	0.028085	-0.682911	-0.083392	-0.651736	-0.0992	-0.92431	-0.158095	-1.11893	
3.65448	0	0	-0.558162	-0.411068	0.04785	-0.954958	0.221781	-0.583294	0.226879	-0.833228	0.086638	-0.667312	-0.0902215	-0.564218	-0.156996	-1.35801	-0.143977	-1.23596	-0.118067	-1.3307	0.0249462	-1.04867	0.189531	-0.656775	-0.07552	-0.85383	0.0299888	-0.688291	-0.0889852	-0.657751	-0.0965025	-0.931933	-0.153529	-1.13183	
3.65448	0	0	-0.566593	-0.411105	0.023181	-0.938838	0.212126	-0.583179	0.231396	-0.845995	0.086638	-0.667312	-0.088826	-0.568161	-0.162473	-1.35998	-0.138763	-1.25069	-0.124976	-1.32793	0.0261375	-1.05203	0.18712	-0.649962	-0.074147	-0.85771	0.0318925	-0.693671	-0.0945785	-0.663766	-0.093805	-0.939556	-0.148962	-1.14474	
3.65448	0	0	-0.575023	-0.411142	-0.001488	-0.922719	0.202472	-0.583065	0.235913	-0.858762	0.086638	-0.667312	-0.0874305	-0.572105	-0.167951	-1.36195	-0.133549	-1.26543	-0.131884	-1.32516	0.0273287	-1.0554	0.18471	-0.64315	-0.072774	-0.86159	0.0337962	-0.69905	-0.100172	-0.669782	-0.0911075	-0.94718	-0.144396	-1.15764	
3.65143	0	0	-0.583454	-0.411179	-0.026157	-0.9066	0.192817	-0.58295	0.240431	-0.871529	0.086638	-0.667312	-0.086035	-0.576049	-0.173428	-1.36392	-0.128334	-1.28017	-0.138793	-1.3224	0.02852	-1.05877	0.1823	-0.636338	-0.071401	-0.865471	0.0357	-0.70443	-0.105765	-0.675797	-0.08841	-0.954803	-0.139829	-1.17055	
3.6499	0	0	-0.580904	-0.418387	-0.0228875	-0.91584	0.197088	-0.595021	0.227984	-0.873197	0.0910055	-0.679655	-0.0804595	-0.591807	-0.170027	-1.37353	-0.130468	-1.29573	-0.13558	-1.33148	0.0158543	-1.06342	0.178013	-0.646622	-0.0739113	-0.881703	0.0376025	-0.709807	-0.111353	-0.681802	-0.0843683	-0.966225	-0.135269	-1.18344	
3.65143	0	0	-0.578353	-0.425595	-0.019618	-0.92508	0.201359	-0.607092	0.215536	-0.874865	0.095373	-0.691999	-0.074884	-0.607564	-0.166627	-1.38314	-0.132601	-1.3113	-0.132367	-1.34056	0.0031885	-1.06807	0.173725	-0.656906	-0.0764215	-0.897934	0.039505	-0.715183	-0.116941	-0.687808	-0.0803265	-0.977648	-0.130709	-1.19632	
3.65143	0	0	-0.575802	-0.432803	-0.0163485	-0.934321	0.20563	-0.619163	0.203089	-0.876533	0.0997405	-0.704343	-0.0693085	-0.623321	-0.163226	-1.39275	-0.134734	-1.32687	-0.129154	-1.34964	-0.00947725	-1.07272	0.169438	-0.66719	-0.0789317	-0.914166	0.0414075	-0.72056	-0.122528	-0.693813	-0.0762847	-0.989071	-0.126149	-1.20921	
3.6499	0	0	-0.573252	-0.440011	-0.013079	-0.943561	0.209901	-0.631234	0.190641	-0.878201	0.104108	-0.716686	-0.063733	-0.639079	-0.159826	-1.40236	-0.136868	-1.34243	-0.125941	-1.35872	-0.022143	-1.07737	0.165151	-0.677474	-0.081442	-0.930398	0.04331	-0.725937	-0.128116	-0.699819	-0.072243	-1.00049	-0.121589	-1.2221	
3.64838	0	0	-0.573252	-0.440011	-0.00655	-0.962012	0.209901	-0.631234	0.195146	-0.890931	0.105199	-0.719769	-0.0623405	-0.643014	-0.157278	-1.40956	-0.131675	-1.35711	-0.124336	-1.36325	-0.0185783	-1.08745	0.167557	-0.684273	-0.0880595	-0.934992	0.0530567	-0.732306	-0.125896	-0.706093	-0.0695515	-1.0081	-0.133706	-1.22901	
3.6438	0	0	-0.573252	-0.440011	-2.1E-05	-0.980464	0.209901	-0.631234	0.199651	-0.903662	0.10629	-0.722853	-0.060948	-0.646949	-0.154729	-1.41676	-0.126482	-1.37178	-0.12273	-1.36779	-0.0150135	-1.09752	0.169963	-0.691072	-0.094677	-0.939587	0.0628035	-0.738675	-0.123676	-0.712366	-0.06686	-1.01571	-0.145823	-1.23593	
3.64532	0	0	-0.573252	-0.440011	0.006508	-0.998915	0.209901	-0.631234	0.204155	-0.916393	0.107381	-0.725936	-0.0595555	-0.650885	-0.152181	-1.42396	-0.121289	-1.38646	-0.121125	-1.37233	-0.0114488	-1.10759	0.172368	-0.697871	-0.101294	-0.944182	0.0725502	-0.745043	-0.121457	-0.71864	-0.0641685	-1.02331	-0.157941	-1.24285	
3.6438	0	0	-0.573252	-0.440011	0.013037	-1.01737	0.209901	-0.631234	0.20866	-0.929123	0.108472	-0.729019	-0.058163	-0.65482	-0.149633	-1.43116	-0.116096	-1.40114	-0.11952	-1.37687	-0.007884	-1.11767	0.174774	-0.70467	-0.107912	-0.948776	0.082297	-0.751412	-0.119237	-0.724914	-0.061477	-1.03092	-0.170058	-1.24976	
3.64227	0	0	-0.571978	-0.443613	-0.0115613	-1.00129	0.211323	-0.635254	0.193985	-0.924423	0.107381	-0.725936	-0.0553802	-0.662685	-0.148784	-1.43356	-0.12343	-1.40198	-0.121125	-1.37233	-0.0171767	-1.1116	0.172368	-0.697871	-0.0971897	-0.955782	0.0706477	-0.739667	-0.109205	-0.731469	-0.0628225	-1.02712	-0.165514	-1.2626	
3.63922	0	0	-0.570703	-0.447214	-0.0361595	-0.985221	0.212746	-0.639274	0.17931	-0.919722	0.10629	-0.722853	-0.0525975	-0.670549	-0.147935	-1.43596	-0.130765	-1.40282	-0.12273	-1.36779	-0.0264695	-1.10552	0.169963	-0.691072	-0.0864675	-0.962788	0.0589985	-0.727921	-0.0991725	-0.738024	-0.064168	-1.02332	-0.160971	-1.27544	
3.64227	0	0	-0.569429	-0.450816	-0.0607578	-0.969148	0.214169	-0.643295	0.164635	-0.915022	0.105199	-0.719769	-0.0498147	-0.678414	-0.147087	-1.43836	-0.138099	-1.40366	-0.124336	-1.36325	-0.0357622	-1.09945	0.167557	-0.684273	-0.0757453	-0.969794	0.0473493	-0.716175	-0.0891403	-0.744579	-0.0655135	-1.01951	-0.156427	-1.28828	
3.64075	0	0	-0.568154	-0.454418	-0.085356	-0.953075	0.215591	-0.647315	0.14996	-0.910321	0.104108	-0.716686	-0.047032	-0.686279	-0.146238	-1.44076	-0.145433	-1.40451	-0.125941	-1.35872	-0.045055	-1.09338	0.165151	-0.677474	-0.065023	-0.9768	0.0357	-0.70443	-0.079108	-0.751134	-0.066859	-1.01571	-0.151884	-1.30113	
3.63922	0	0	-0.568154	-0.454418	-0.0788405	-0.971489	0.215591	-0.647315	0.152208	-0.916675	0.10738	-0.725933	-0.0546455	-0.690364	-0.143693	-1.44795	-0.150169	-1.41267	-0.132844	-1.35595	-0.0426807	-1.10009	0.168759	-0.687671	-0.0609235	-0.988386	0.0435432	-0.705419	-0.0880307	-0.747714	-0.068205	-1.01191	-0.147347	-1.31395	
3.63769	0	0	-0.568154	-0.454418	-0.072325	-0.989902	0.215591	-0.647315	0.154456	-0.923029	0.110651	-0.735179	-0.062259	-0.694449	-0.141148	-1.45515	-0.154905	-1.42083	-0.139746	-1.35319	-0.0403065	-1.1068	0.172367	-0.697867	-0.056824	-0.999972	0.0513865	-0.706408	-0.0969535	-0.744294	-0.069551	-1.0081	-0.14281	-1.32677	
3.63617	0	0	-0.568154	-0.454418	-0.0658095	-1.00832	0.215591	-0.647315	0.156705	-0.929383	0.113923	-0.744425	-0.0698725	-0.698533	-0.138602	-1.46234	-0.15964	-1.42899	-0.146649	-1.35042	-0.0379323	-1.11351	0.175975	-0.708063	-0.0527245	-1.01156	0.0592297	-0.707397	-0.105876	-0.740874	-0.070897	-1.0043	-0.138273	-1.33959	
3.63159	0	0	-0.568154	-0.454418	-0.059294	-1.02673	0.215591	-0.647315	0.158953	-0.935737	0.117195	-0.753672	-0.077486	-0.702618	-0.136057	-1.46953	-0.164376	-1.43715	-0.153552	-1.34765	-0.035558	-1.12022	0.179583	-0.71826	-0.048625	-1.02314	0.067073	-0.708386	-0.114799	-0.737454	-0.072243	-1.00049	-0.133736	-1.35241	
3.63312	0	0	-0.568154	-0.454418	-0.0560413	-1.03592	0.215591	-0.647315	0.163445	-0.948432	0.119374	-0.759831	-0.0747093	-0.710466	-0.142384	-1.46908	-0.160496	-1.44811	-0.152749	-1.34992	-0.0331857	-1.12692	0.171689	-0.718323	-0.0566173	-1.02385	0.068025	-0.711077	-0.112582	-0.743721	-0.0835555	-1.00187	-0.148109	-1.35287	
3.63159	0	0	-0.568154	-0.454418	-0.0527885	-1.04512	0.215591	-0.647315	0.167936	-0.961126	0.121553	-0.76599	-0.0719325	-0.718314	-0.148711	-1.46863	-0.156616	-1.45908	-0.151947	-1.35219	-0.0308135	-1.13363	0.163795	-0.718386	-0.0646095	-1.02456	0.068977	-0.713767	-0.110364	-0.749988	-0.094868	-1.00325	-0.162481	-1.35332	
3.63159	0	0	-0.568154	-0.454418	-0.0495357	-1.05431	0.215591	-0.647315	0.172428	-0.97382	0.123733	-0.772149	-0.0691557	-0.726161	-0.155038	-1.46818	-0.152737	-1.47004	-0.151145	-1.35446	-0.0284412	-1.14033	0.1559	-0.718449	-0.0726017	-1.02527	0.069929	-0.716457	-0.108146	-0.756256	-0.10618	-1.00463	-0.176853	-1.35377	
3.63006	0	0	-0.568154	-0.454418	-0.046283	-1.0635	0.215591	-0.647315	0.17692	-0.986515	0.125912	-0.778308	-0.066379	-0.734009	-0.161365	-1.46773	-0.148857	-1.48101	-0.150342	-1.35672	-0.026069	-1.14704	0.148006	-0.718512	-0.080594	-1.02598	0.070881	-0.719148	-0.105929	-0.762523	-0.117493	-1.00601	-0.191226	-1.35422	
3.63006	0	0	-0.579123	-0.44725	-0.0430337	-1.07268	0.215591	-0.647315	0.179164	-0.992856	0.122643	-0.769068	-0.0677673	-0.730086	-0.163061	-1.46294	-0.147565	-1.48466	-0.151947	-1.35219	-0.0365375	-1.13762	0.1559	-0.718449	-0.0819587	-1.02212	0.0661185	-0.705688	-0.108146	-0.756256	-0.120183	-0.998404	-0.17006	-1.37297	
3.62549	0	0	-0.590093	-0.440083	-0.0397845	-1.08187	0.215591	-0.647315	0.181407	-0.999196	0.119373	-0.759828	-0.0691555	-0.726163	-0.164757	-1.45815	-0.146272	-1.48831	-0.153553	-1.34765	-0.047006	-1.1282	0.163795	-0.718386	-0.0833235	-1.01827	0.061356	-0.692228	-0.110364	-0.749988	-0.122874	-0.9908	-0.148895	-1.39172	
3.62701	0	0	-0.601062	-0.432916	-0.0365353	-1.09105	0.215591	-0.647315	0.18365	-1.00554	0.116103	-0.750588	-0.0705437	-0.72224	-0.166452	-1.45336	-0.14498	-1.49196	-0.155158	-1.34311	-0.0574745	-1.11879	0.171689	-0.718323	-0.0846883	-1.01441	0.0565935	-0.678768	-0.112582	-0.743721	-0.125564	-0.983197	-0.127729	-1.41046	
3.62396	0	0	-0.612031	-0.425748	-0.033286	-1.10023	0.215591	-0.647315	0.185894	-1.01188	0.112834	-0.741348	-0.071932	-0.718317	-0.168148	-1.44856	-0.143688	-1.49561	-0.156763	-1.33858	-0.067943	-1.10937	0.179583	-0.71826	-0.086053	-1.01055	0.051831	-0.665308	-0.114799	-0.737454	-0.128255	-0.975593	-0.106563	-1.42921	
3.62244	0	0	-0.609484	-0.432947	-0.03004	-1.10941	0.217013	-0.651333	0.207301	-1.0356	0.115014	-0.747509	-0.0677695	-0.730081	-0.15843	-1.4586	-0.148429	-1.50374	-0.158369	-1.33404	-0.078402	-1.09996	0.175975	-0.708063	-0.0874183	-1.00669	0.0480158	-0.654526	-0.117018	-0.731183	-0.130948	-0.967983	-0.125466	-1.41686	
3.62091	0	0	-0.606936	-0.440146	-0.026794	-1.11858	0.218435	-0.655351	0.228709	-1.05933	0.117195	-0.75367	-0.063607	-0.741845	-0.148711	-1.46863	-0.153171	-1.51186	-0.159975	-1.3295	-0.088861	-1.09055	0.172367	-0.697867	-0.0887835	-1.00283	0.0442005	-0.643744	-0.119237	-0.724911	-0.13364	-0.960373	-0.144369	-1.4045	
3.61786	0	0	-0.604389	-0.447345	-0.023548	-1.12775	0.219857	-0.65937	0.250116	-1.08306	0.119375	-0.759831	-0.0594445	-0.753608	-0.138992	-1.47867	-0.157913	-1.51998	-0.161582	-1.32496	-0.09932	-1.08113	0.168759	-0.687671	-0.0901487	-0.998976	0.0403852	-0.632961	-0.121457	-0.718639	-0.136333	-0.952762	-0.163272	-1.39215	
3.61938	0	0	-0.601842	-0.454544	-0.020302	-1.13693	0.221279	-0.663388	0.271523	-1.10678	0.121555	-0.765992	-0.055282	-0.765372	-0.129274	-1.4887	-0.162654	-1.5281	-0.163188	-1.32042	-0.109779	-1.07172	0.165151	-0.677474	-0.091514	-0.995118	0.03657	-0.622179	-0.123676	-0.712368	-0.139026	-0.945152	-0.182175	-1.3798	
3.61786	0	0	-0.603116	-0.450945	-0.020302	-1.13693	0.219857	-0.65937	0.254598	-1.09572	0.120465	-0.762912	-0.0538957	-0.76929	-0.138145	-1.48106	-0.161364	-1.53174	-0.163991	-1.31815	-0.100506	-1.07778	0.160334	-0.66386	-0.0821575	-0.998264	0.0346605	-0.616783	-0.113644	-0.718923	-0.139026	-0.945152	-0.179914	-1.38619	
3.62091	0	0	-0.604389	-0.447346	-0.020302	-1.13693	0.218435	-0.655351	0.237673	-1.08467	0.119375	-0.759832	-0.0525095	-0.773208	-0.147015	-1.47343	-0.160075	-1.53539	-0.164795	-1.31588	-0.091234	-1.08384	0.155517	-0.650246	-0.072801	-1.00141	0.032751	-0.611387	-0.103611	-0.725479	-0.139026	-0.945152	-0.177652	-1.39258	
3.62244	0	0	-0.605662	-0.443748	-0.020302	-1.13693	0.217013	-0.651333	0.220748	-1.07361	0.118285	-0.756752	-0.0511233	-0.777125	-0.155886	-1.46579	-0.158785	-1.53903	-0.165598	-1.31361	-0.0819615	-1.0899	0.1507	-0.636633	-0.0634445	-1.00456	0.0308415	-0.60599	-0.0935793	-0.732034	-0.139026	-0.945152	-0.175391	-1.39897	
3.62549	0	0	-0.606936	-0.440149	-0.020302	-1.13693	0.215591	-0.647315	0.203823	-1.06255	0.117195	-0.753672	-0.049737	-0.781043	-0.164756	-1.45815	-0.157495	-1.54268	-0.166401	-1.31134	-0.072689	-1.09596	0.145883	-0.623019	-0.054088	-1.0077	0.028932	-0.600594	-0.083547	-0.738589	-0.139026	-0.945152	-0.17313	-1.40536	
3.63312	0	0	-0.609484	-0.432947	-0.020302	-1.13693	0.222403	-0.639395	0.199341	-1.04988	0.11174	-0.738256	-0.0628905	-0.769436	-0.159278	-1.4562	-0.161365	-1.53174	-0.162715	-1.30501	-0.0762508	-1.08589	0.148953	-0.609296	-0.0595575	-0.992245	0.0251098	-0.589792	-0.0946893	-0.728897	-0.157043	-0.927524	-0.156488	-1.41132	
3.63006	0	0	-0.612032	-0.425745	-0.020302	-1.13693	0.229214	-0.631475	0.194858	-1.03721	0.106286	-0.72284	-0.076044	-0.75783	-0.1538	-1.45425	-0.165235	-1.5208	-0.159029	-1.29869	-0.0798125	-1.07582	0.152024	-0.595573	-0.065027	-0.976787	0.0212875	-0.57899	-0.105831	-0.719204	-0.17506	-0.909895	-0.139847	-1.41729	
3.63769	0	0	-0.614581	-0.418543	-0.020302	-1.13693	0.236026	-0.623555	0.190376	-1.02454	0.100831	-0.707424	-0.0891975	-0.746223	-0.148321	-1.4523	-0.169106	-1.50986	-0.155344	-1.29236	-0.0833742	-1.06576	0.155094	-0.58185	-0.0704965	-0.96133	0.0174653	-0.568188	-0.116974	-0.709511	-0.193076	-0.892267	-0.123205	-1.42325	
3.6438	0	0	-0.617129	-0.411341	-0.020302	-1.13693	0.242838	-0.615635	0.185894	-1.01188	0.095376	-0.692008	-0.102351	-0.734616	-0.142843	-1.45035	-0.172976	-1.49892	-0.151658	-1.28604	-0.086936	-1.05569	0.158164	-0.568127	-0.075966	-0.945872	0.013643	-0.557386	-0.128116	-0.699819	-0.211093	-0.874639	-0.106563	-1.42921	
3.6499	0	0	-0.629359	-0.400579	-0.023548	-1.12775	0.237134	-0.599515	0.19833	-1.01025	0.0899117	-0.676565	-0.0919705	-0.738386	-0.154262	-1.43551	-0.166946	-1.49444	-0.155683	-1.27466	-0.082409	-1.04832	0.157596	-0.544094	-0.0720805	-0.933527	0.00981625	-0.546571	-0.131449	-0.6904	-0.202519	-0.86558	-0.113356	-1.41001	
3.66211	0	0	-0.64159	-0.389818	-0.026794	-1.11858	0.23143	-0.583395	0.210766	-1.00862	0.0844475	-0.661122	-0.08159	-0.742155	-0.165681	-1.42067	-0.160916	-1.48997	-0.159708	-1.26329	-0.077882	-1.04094	0.157027	-0.520062	-0.068195	-0.921183	0.0059895	-0.535756	-0.134781	-0.680981	-0.193945	-0.856522	-0.120149	-1.39081	
3.66669	0	0	-0.65382	-0.379056	-0.03004	-1.10941	0.225726	-0.567274	0.223203	-1.007	0.0789833	-0.645679	-0.0712095	-0.745924	-0.1771	-1.40583	-0.154887	-1.48549	-0.163733	-1.25191	-0.073355	-1.03357	0.156459	-0.496029	-0.0643095	-0.908838	0.00216275	-0.52494	-0.138114	-0.671563	-0.185372	-0.847463	-0.126943	-1.37161	
3.67584	0	0	-0.66605	-0.368294	-0.033286	-1.10023	0.220022	-0.551154	0.235639	-1.00537	0.073519	-0.630236	-0.060829	-0.749694	-0.188519	-1.39099	-0.148857	-1.48101	-0.167758	-1.24054	-0.068828	-1.02619	0.155891	-0.471996	-0.060424	-0.896493	-0.001664	-0.514125	-0.141447	-0.662144	-0.176798	-0.838404	-0.133736	-1.35241	
3.68347	0	0	-0.657646	-0.368242	-0.0365353	-1.09105	0.215737	-0.539045	0.214219	-0.981609	0.08223	-0.631174	-0.0739838	-0.738084	-0.189368	-1.38859	-0.15015	-1.47735	-0.170175	-1.23371	-0.0712083	-1.01947	0.158944	-0.458171	-0.0645412	-0.884857	-0.004537	-0.506005	-0.143671	-0.655859	-0.166857	-0.833148	-0.142816	-1.32675	
3.69415	0	0	-0.649242	-0.36819	-0.0397845	-1.08187	0.211453	-0.526936	0.1928	-0.957847	0.090941	-0.632111	-0.0871385	-0.726473	-0.190218	-1.38619	-0.151442	-1.4737	-0.172592	-1.22687	-0.0735885	-1.01274	0.161998	-0.444346	-0.0686585	-0.873221	-0.00741	-0.497886	-0.145894	-0.649574	-0.156917	-0.827892	-0.151897	-1.30109	
3.70788	0	0	-0.640839	-0.368137	-0.0430337	-1.07268	0.207169	-0.514826	0.17138	-0.934084	0.099652	-0.633049	-0.100293	-0.714863	-0.191068	-1.38379	-0.152735	-1.47005	-0.17501	-1.22004	-0.0759688	-1.00601	0.165052	-0.430522	-0.0727758	-0.861585	-0.010283	-0.489766	-0.148118	-0.64329	-0.146977	-0.822636	-0.160977	-1.27542	
3.72009	0	0	-0.632435	-0.368085	-0.046283	-1.0635	0.202884	-0.502717	0.14996	-0.910321	0.108363	-0.633986	-0.113448	-0.703253	-0.191917	-1.38139	-0.154028	-1.46639	-0.177427	-1.21321	-0.078349	-0.999286	0.168105	-0.416697	-0.076893	-0.849949	-0.013156	-0.481646	-0.150342	-0.637005	-0.137036	-0.81738	-0.170058	-1.24976	
3.73535	0	0	-0.634988	-0.360868	-0.0281935	-1.06118	0.208254	-0.490682	0.16013	-0.902291	0.105078	-0.624701	-0.104457	-0.703094	-0.193617	-1.37659	-0.146699	-1.46556	-0.172134	-1.21141	-0.0912055	-0.98312	0.160807	-0.396072	-0.0810157	-0.838298	-0.0238613	-0.472569	-0.151454	-0.633861	-0.139744	-0.809727	-0.193511	-1.22455	
3.75061	0	0	-0.637542	-0.353652	-0.010104	-1.05886	0.213623	-0.478646	0.170301	-0.894261	0.101793	-0.615416	-0.095467	-0.702935	-0.195317	-1.37178	-0.13937	-1.46473	-0.166841	-1.20961	-0.104062	-0.966954	0.153509	-0.375447	-0.0851385	-0.826647	-0.0345665	-0.463492	-0.152567	-0.630717	-0.142452	-0.802075	-0.216964	-1.19934	
3.76587	0	0	-0.640096	-0.346435	0.0079855	-1.05653	0.218993	-0.466611	0.180471	-0.886231	0.0985073	-0.606131	-0.0864765	-0.702777	-0.197016	-1.36698	-0.13204	-1.4639	-0.161548	-1.20782	-0.116919	-0.950788	0.146211	-0.354823	-0.0892613	-0.814996	-0.0452717	-0.454414	-0.15368	-0.627573	-0.145159	-0.794423	-0.240417	-1.17413	
3.78418	0	0	-0.642649	-0.339218	0.026075	-1.05421	0.224362	-0.454576	0.190641	-0.878201	0.095222	-0.596846	-0.077486	-0.702618	-0.198716	-1.36217	-0.124711	-1.46307	-0.156255	-1.20602	-0.129775	-0.934622	0.138913	-0.334198	-0.093384	-0.803345	-0.055977	-0.445337	-0.154792	-0.624429	-0.147867	-0.78677	-0.26387	-1.14892	
3.79791	0	0	-0.643927	-0.335608	0.0162865	-1.02655	0.215755	-0.430253	0.181613	-0.852685	0.0875428	-0.575144	-0.083047	-0.686902	-0.194096	-1.3578	-0.131188	-1.44476	-0.159484	-1.19689	-0.122878	-0.933947	0.140725	-0.316836	-0.08814	-0.79481	-0.0491067	-0.443576	-0.157018	-0.618138	-0.153289	-0.771445	-0.235142	-1.14788	
3.81012	0	0	-0.645204	-0.331997	0.006498	-0.998887	0.207149	-0.40593	0.172584	-0.827169	0.0798635	-0.553441	-0.088608	-0.671186	-0.189476	-1.35343	-0.137664	-1.42646	-0.162712	-1.18777	-0.11598	-0.933272	0.142536	-0.299474	-0.082896	-0.786275	-0.0422365	-0.441815	-0.159245	-0.611846	-0.158712	-0.75612	-0.206414	-1.14683	
3.82843	0	0	-0.646481	-0.328387	-0.0032905	-0.971224	0.198543	-0.381607	0.163555	-0.801653	0.0721843	-0.531739	-0.094169	-0.655471	-0.184855	-1.34905	-0.144141	-1.40815	-0.165941	-1.17864	-0.109082	-0.932598	0.144348	-0.282112	-0.077652	-0.777741	-0.0353663	-0.440054	-0.161471	-0.605554	-0.164135	-0.740795	-0.177686	-1.14579	
3.84064	0	0	-0.647759	-0.324776	-0.013079	-0.943561	0.189936	-0.357284	0.154527	-0.776137	0.064505	-0.510036	-0.09973	-0.639755	-0.180235	-1.34468	-0.150618	-1.38985	-0.169169	-1.16952	-0.102185	-0.931923	0.146159	-0.26475	-0.072408	-0.769206	-0.028496	-0.438293	-0.163697	-0.599263	-0.169557	-0.72547	-0.148958	-1.14475	
3.85742	0	0	-0.647759	-0.324776	-0.0163485	-0.934321	0.198166	-0.353293	0.164697	-0.768033	0.064505	-0.510036	-0.102514	-0.631887	-0.186556	-1.34425	-0.153213	-1.38252	-0.168361	-1.1718	-0.102185	-0.931923	0.144938	-0.261299	-0.072408	-0.769206	-0.0392025	-0.429213	-0.155893	-0.599522	-0.172272	-0.717798	-0.158104	-1.1189	
3.86505	0	0	-0.647759	-0.324776	-0.019618	-0.92508	0.206396	-0.349301	0.174867	-0.759929	0.064505	-0.510036	-0.105298	-0.624018	-0.192877	-1.34381	-0.155807	-1.37519	-0.167554	-1.17408	-0.102185	-0.931923	0.143717	-0.257848	-0.072408	-0.769206	-0.049909	-0.420133	-0.148088	-0.599782	-0.174986	-0.710125	-0.167251	-1.09305	
3.87421	0	0	-0.647759	-0.324776	-0.0228875	-0.91584	0.214626	-0.34531	0.185037	-0.751825	0.064505	-0.510036	-0.108083	-0.616149	-0.199198	-1.34338	-0.158402	-1.36785	-0.166747	-1.17637	-0.102185	-0.931923	0.142495	-0.254396	-0.072408	-0.769206	-0.0606155	-0.411052	-0.140284	-0.600042	-0.177701	-0.702453	-0.176397	-1.0672	
3.88183	0	0	-0.647759	-0.324776	-0.026157	-0.9066	0.222856	-0.341319	0.195207	-0.743721	0.064505	-0.510036	-0.110867	-0.608281	-0.205519	-1.34295	-0.160996	-1.36052	-0.165939	-1.17865	-0.102185	-0.931923	0.141274	-0.250945	-0.072408	-0.769206	-0.071322	-0.401972	-0.132479	-0.600301	-0.180416	-0.694781	-0.185543	-1.04135	
3.88641	0	0	-0.638068	-0.328331	-0.032706	-0.888091	0.218538	-0.329116	0.188404	-0.724495	0.064505	-0.510036	-0.10187	-0.608105	-0.203818	-1.34775	-0.160996	-1.36052	-0.171231	-1.18045	-0.100992	-0.935294	0.142495	-0.254396	-0.072408	-0.769206	-0.0703625	-0.404683	-0.131365	-0.603449	-0.16504	-0.704828	-0.20907	-1.01602	
3.89404	0	0	-0.628377	-0.331887	-0.039255	-0.869582	0.21422	-0.316913	0.181601	-0.705268	0.064505	-0.510036	-0.092873	-0.60793	-0.202118	-1.35256	-0.160996	-1.36052	-0.176522	-1.18225	-0.0997995	-0.938665	0.143717	-0.257848	-0.072408	-0.769206	-0.069403	-0.407395	-0.130251	-0.606598	-0.149663	-0.714875	-0.232598	-0.990691	
3.90167	0	0	-0.618685	-0.335443	-0.045804	-0.851073	0.209903	-0.30471	0.174798	-0.686042	0.064505	-0.510036	-0.083876	-0.607754	-0.200417	-1.35737	-0.160996	-1.36052	-0.181813	-1.18406	-0.0986067	-0.942035	0.144938	-0.261299	-0.072408	-0.769206	-0.0684435	-0.410107	-0.129137	-0.609746	-0.134287	-0.724923	-0.256126	-0.96536	
3.90625	0	0	-0.608994	-0.338998	-0.052353	-0.832564	0.205585	-0.292507	0.167995	-0.666816	0.064505	-0.510036	-0.074879	-0.607578	-0.198716	-1.36217	-0.160996	-1.36052	-0.187105	-1.18586	-0.097414	-0.945406	0.146159	-0.26475	-0.072408	-0.769206	-0.067484	-0.412818	-0.128023	-0.612895	-0.11891	-0.73497	-0.279653	-0.940029	
3.9093	0	0	-0.619963	-0.331831	-0.0556327	-0.823295	0.202703	-0.284362	0.180444	-0.665078	0.0612083	-0.500719	-0.0894515	-0.591996	-0.197866	-1.36458	-0.152367	-1.36334	-0.192391	-1.18766	-0.09503	-0.952144	0.146159	-0.26475	-0.08178	-0.766074	-0.0665247	-0.415529	-0.138055	-0.60634	-0.134287	-0.724923	-0.263002	-0.945925	
3.91083	0	0	-0.630933	-0.324663	-0.0589125	-0.814026	0.199821	-0.276218	0.192892	-0.663341	0.0579115	-0.491402	-0.104024	-0.576415	-0.197016	-1.36698	-0.143737	-1.36616	-0.197678	-1.18946	-0.092646	-0.958881	0.146159	-0.26475	-0.091152	-0.762943	-0.0655655	-0.418239	-0.148087	-0.599784	-0.149663	-0.714875	-0.246352	-0.95182	
3.91083	0	0	-0.641902	-0.317495	-0.0621923	-0.804758	0.196939	-0.268073	0.205341	-0.661604	0.0546148	-0.482084	-0.118597	-0.560833	-0.196166	-1.36938	-0.135107	-1.36898	-0.202964	-1.19127	-0.090262	-0.965618	0.146159	-0.26475	-0.100524	-0.759811	-0.0646063	-0.42095	-0.158119	-0.593229	-0.16504	-0.704828	-0.229702	-0.957716	
3.90625	0	0	-0.652871	-0.310328	-0.065472	-0.795489	0.194057	-0.259928	0.217789	-0.659866	0.051318	-0.472767	-0.133169	-0.545251	-0.195316	-1.37178	-0.126478	-1.3718	-0.20825	-1.19307	-0.087878	-0.972356	0.146159	-0.26475	-0.109896	-0.75668	-0.063647	-0.423661	-0.168151	-0.586674	-0.180416	-0.694781	-0.213051	-0.963612	
3.90777	0	0	-0.649038	-0.321159	-0.0621923	-0.804758	0.195498	-0.264001	0.20307	-0.655185	0.0393187	-0.462537	-0.137357	-0.533415	-0.201632	-1.37135	-0.13381	-1.37264	-0.198932	-1.20266	-0.0959693	-0.969658	0.146159	-0.26475	-0.108519	-0.76057	-0.0586987	-0.416468	-0.170379	-0.580376	-0.198482	-0.677072	-0.200956	-0.956541	
3.90777	0	0	-0.645206	-0.331991	-0.0589125	-0.814026	0.196939	-0.268074	0.188351	-0.650505	0.0273195	-0.452307	-0.141545	-0.521578	-0.207948	-1.37091	-0.141142	-1.37349	-0.189615	-1.21225	-0.104061	-0.966959	0.146159	-0.26475	-0.107143	-0.76446	-0.0537505	-0.409274	-0.172608	-0.574078	-0.216548	-0.659364	-0.188862	-0.949469	
3.90625	0	0	-0.641374	-0.342823	-0.0556327	-0.823295	0.198381	-0.272148	0.173631	-0.645825	0.0153203	-0.442077	-0.145734	-0.509741	-0.214264	-1.37048	-0.148474	-1.37434	-0.180297	-1.22184	-0.112152	-0.96426	0.146159	-0.26475	-0.105766	-0.768351	-0.0488022	-0.402081	-0.174837	-0.56778	-0.234615	-0.641656	-0.176767	-0.942397	
3.90167	0	0	-0.637541	-0.353654	-0.052353	-0.832564	0.199822	-0.276221	0.158912	-0.641144	0.003321	-0.431847	-0.149922	-0.497905	-0.22058	-1.37004	-0.155806	-1.37519	-0.17098	-1.23143	-0.120243	-0.961562	0.146159	-0.26475	-0.104389	-0.772241	-0.043854	-0.394888	-0.177065	-0.561482	-0.252681	-0.623947	-0.164672	-0.935326	
3.90167	0	0	-0.637541	-0.353654	-0.052353	-0.832564	0.210941	-0.280355	0.156639	-0.634722	0.003321	-0.431847	-0.138138	-0.505605	-0.212565	-1.37528	-0.163129	-1.37604	-0.175464	-1.2355	-0.125944	-0.965596	0.14982	-0.275096	-0.112373	-0.773002	-0.0526408	-0.391233	-0.165918	-0.571187	-0.234615	-0.641656	-0.18136	-0.929417	
3.89709	0	0	-0.637541	-0.353654	-0.052353	-0.832564	0.22206	-0.284489	0.154367	-0.628299	0.003321	-0.431847	-0.126355	-0.513304	-0.204549	-1.38052	-0.170452	-1.37689	-0.179949	-1.23957	-0.131645	-0.96963	0.153481	-0.285442	-0.120358	-0.773763	-0.0614275	-0.387579	-0.154772	-0.580892	-0.216548	-0.659364	-0.198047	-0.923508	
3.89557	0	0	-0.637541	-0.353654	-0.052353	-0.832564	0.233179	-0.288623	0.152094	-0.621876	0.003321	-0.431847	-0.114572	-0.521004	-0.196534	-1.38576	-0.177774	-1.37774	-0.184434	-1.24364	-0.137347	-0.973664	0.157142	-0.295789	-0.128342	-0.774524	-0.0702143	-0.383924	-0.143626	-0.590596	-0.198482	-0.677072	-0.214735	-0.917599	
3.89709	0	0	-0.637541	-0.353654	-0.052353	-0.832564	0.244298	-0.292757	0.149821	-0.615454	0.003321	-0.431847	-0.102788	-0.528704	-0.188519	-1.39099	-0.185097	-1.37859	-0.188918	-1.2477	-0.143048	-0.977698	0.160803	-0.306135	-0.136326	-0.775285	-0.079001	-0.380269	-0.132479	-0.600301	-0.180416	-0.694781	-0.231423	-0.91169	
3.89709	0	0	-0.627849	-0.357213	-0.0556327	-0.823295	0.241414	-0.284605	0.164539	-0.62013	0.01202	-0.43275	-0.104185	-0.524755	-0.196534	-1.38576	-0.183801	-1.38225	-0.188918	-1.2477	-0.143048	-0.977698	0.159583	-0.302688	-0.134951	-0.77917	-0.071175	-0.381209	-0.142511	-0.593746	-0.16504	-0.704828	-0.24807	-0.905804	
3.90777	0	0	-0.618156	-0.360771	-0.0589125	-0.814026	0.238529	-0.276453	0.179257	-0.624805	0.020719	-0.433653	-0.105582	-0.520806	-0.204549	-1.38052	-0.182505	-1.38591	-0.188918	-1.2477	-0.143048	-0.977698	0.158363	-0.299241	-0.133576	-0.783056	-0.063349	-0.382149	-0.152543	-0.58719	-0.149663	-0.714875	-0.264717	-0.899917	
3.9093	0	0	-0.608464	-0.364329	-0.0621923	-0.804758	0.235644	-0.268301	0.193975	-0.629481	0.029418	-0.434556	-0.10698	-0.516857	-0.212565	-1.37528	-0.181209	-1.38958	-0.188918	-1.2477	-0.143048	-0.977698	0.157143	-0.295793	-0.132202	-0.786941	-0.055523	-0.383089	-0.162575	-0.580635	-0.134287	-0.724923	-0.281365	-0.894031	
3.92151	0	0	-0.598772	-0.367888	-0.065472	-0.795489	0.23276	-0.260149	0.208693	-0.634157	0.038117	-0.435459	-0.108377	-0.512908	-0.22058	-1.37004	-0.179913	-1.39324	-0.188918	-1.2477	-0.143048	-0.977698	0.155923	-0.292346	-0.130827	-0.790827	-0.047697	-0.384029	-0.172607	-0.57408	-0.11891	-0.73497	-0.298012	-0.888145	
3.93219	0	0	-0.596218	-0.375105	-0.058916	-0.814017	0.235644	-0.268301	0.21324	-0.647007	0.0436155	-0.450998	-0.104187	-0.524749	-0.210017	-1.38248	-0.174735	-1.40787	-0.194203	-1.2495	-0.139481	-0.98778	0.148015	-0.292478	-0.128079	-0.798593	-0.049619	-0.378597	-0.172607	-0.57408	-0.148278	-0.71873	-0.279067	-0.900524	
3.93982	0	0	-0.593665	-0.382321	-0.05236	-0.832545	0.238529	-0.276453	0.217786	-0.659857	0.049114	-0.466538	-0.099997	-0.536591	-0.199454	-1.39492	-0.169557	-1.42251	-0.199487	-1.25129	-0.135914	-0.997861	0.140107	-0.292611	-0.125331	-0.806358	-0.051541	-0.373165	-0.172607	-0.57408	-0.177646	-0.702491	-0.260123	-0.912902	
3.95508	0	0	-0.591112	-0.389538	-0.045804	-0.851073	0.241414	-0.284605	0.222333	-0.672706	0.0546125	-0.482077	-0.095807	-0.548433	-0.188892	-1.40735	-0.164379	-1.43714	-0.204772	-1.25308	-0.132346	-1.00794	0.1322	-0.292744	-0.122584	-0.814124	-0.053463	-0.367732	-0.172607	-0.57408	-0.207014	-0.686251	-0.241178	-0.925281	
3.97491	0	0	-0.588558	-0.396755	-0.039248	-0.869601	0.244298	-0.292757	0.22688	-0.685556	0.060111	-0.497617	-0.091617	-0.560274	-0.178329	-1.41979	-0.159201	-1.45178	-0.210057	-1.25487	-0.128779	-1.01802	0.124292	-0.292876	-0.119836	-0.82189	-0.055385	-0.3623	-0.172607	-0.57408	-0.236382	-0.670011	-0.222233	-0.93766	
3.99628	0	0	-0.600804	-0.38598	-0.039248	-0.869601	0.245739	-0.29683	0.229151	-0.691974	0.0612095	-0.500722	-0.099216	-0.564401	-0.185496	-1.41695	-0.165227	-1.45626	-0.208449	-1.25941	-0.126403	-1.02474	0.127947	-0.303207	-0.126441	-0.82652	-0.053463	-0.367732	-0.169266	-0.583522	-0.216963	-0.691542	-0.234296	-0.944731	
4.01764	0	0	-0.61305	-0.375205	-0.039248	-0.869601	0.247181	-0.300903	0.231422	-0.698392	0.062308	-0.503826	-0.106815	-0.568527	-0.192663	-1.41411	-0.171254	-1.46075	-0.206841	-1.26396	-0.124027	-1.03145	0.131603	-0.313537	-0.133046	-0.831149	-0.051541	-0.373165	-0.165925	-0.592964	-0.197545	-0.713072	-0.246359	-0.951801	
4.03137	0	0	-0.625295	-0.364429	-0.039248	-0.869601	0.248622	-0.304977	0.233692	-0.70481	0.0634065	-0.506931	-0.114414	-0.572653	-0.199829	-1.41127	-0.177281	-1.46524	-0.205233	-1.2685	-0.121651	-1.03817	0.135258	-0.323867	-0.139651	-0.835779	-0.049619	-0.378597	-0.162584	-0.602406	-0.178126	-0.734603	-0.258421	-0.958872	
4.04816	0	0	-0.637541	-0.353654	-0.039248	-0.869601	0.250064	-0.30905	0.235963	-0.711228	0.064505	-0.510036	-0.122013	-0.57678	-0.206996	-1.40843	-0.183307	-1.46973	-0.203625	-1.27305	-0.119275	-1.04488	0.138913	-0.334198	-0.146256	-0.840409	-0.047697	-0.384029	-0.159243	-0.611848	-0.158707	-0.756133	-0.270484	-0.965943	
4.06799	0	0	-0.634988	-0.360868	-0.0359753	-0.878851	0.240384	-0.308984	0.2405	-0.72405	0.064505	-0.510036	-0.122013	-0.57678	-0.196436	-1.42086	-0.182015	-1.47338	-0.193516	-1.28489	-0.118088	-1.04824	0.14926	-0.340959	-0.146256	-0.840409	-0.045776	-0.389458	-0.168151	-0.608446	-0.185313	-0.747578	-0.249249	-0.984796	
4.08172	0	0	-0.632436	-0.368082	-0.0327025	-0.8881	0.230704	-0.308917	0.245037	-0.736872	0.064505	-0.510036	-0.122013	-0.57678	-0.185876	-1.43329	-0.180723	-1.47703	-0.183407	-1.29673	-0.116901	-1.05159	0.159607	-0.347719	-0.146256	-0.840409	-0.043855	-0.394887	-0.177059	-0.605043	-0.21192	-0.739024	-0.228014	-1.00365	
4.09851	0	0	-0.629884	-0.375295	-0.0294297	-0.89735	0.221024	-0.308851	0.249574	-0.749694	0.064505	-0.510036	-0.122013	-0.57678	-0.175316	-1.44572	-0.179432	-1.48068	-0.173297	-1.30858	-0.115713	-1.05495	0.169954	-0.35448	-0.146256	-0.840409	-0.041934	-0.400316	-0.185966	-0.601641	-0.238527	-0.730469	-0.206778	-1.0225	
4.10919	0	0	-0.627331	-0.382509	-0.026157	-0.9066	0.211344	-0.308785	0.254111	-0.762516	0.064505	-0.510036	-0.122013	-0.57678	-0.164756	-1.45815	-0.17814	-1.48433	-0.163188	-1.32042	-0.114526	-1.05831	0.180301	-0.361241	-0.146256	-0.840409	-0.040013	-0.405745	-0.194874	-0.598239	-0.265133	-0.721914	-0.185543	-1.04135	
4.1275	0	0	-0.626055	-0.386114	-0.0228875	-0.91584	0.218534	-0.329105	0.226954	-0.759531	0.0590925	-0.518421	-0.12821	-0.584835	-0.168535	-1.46489	-0.174268	-1.49527	-0.166071	-1.329	-0.117859	-1.06901	0.169346	-0.375217	-0.139406	-0.859768	-0.050866	-0.417404	-0.189315	-0.613948	-0.258371	-0.741025	-0.193059	-1.06127	
4.13971	0	0	-0.62478	-0.389718	-0.019618	-0.92508	0.225724	-0.349425	0.199797	-0.756545	0.05368	-0.526806	-0.134406	-0.592889	-0.172314	-1.47162	-0.170397	-1.50621	-0.168954	-1.33758	-0.121192	-1.07972	0.158392	-0.389192	-0.132555	-0.879128	-0.061719	-0.429063	-0.183757	-0.629657	-0.251609	-0.760136	-0.200575	-1.08119	
4.14581	0	0	-0.623505	-0.393323	-0.0163485	-0.934321	0.232914	-0.369745	0.17264	-0.75356	0.0482675	-0.535192	-0.140603	-0.600944	-0.176093	-1.47836	-0.166525	-1.51716	-0.171836	-1.34616	-0.124524	-1.09042	0.147437	-0.403168	-0.125705	-0.898487	-0.072572	-0.440721	-0.178198	-0.645366	-0.244846	-0.779248	-0.208091	-1.10111	
4.15039	0	0	-0.622229	-0.396928	-0.013079	-0.943561	0.240104	-0.390065	0.145483	-0.750575	0.042855	-0.543577	-0.146799	-0.608999	-0.179872	-1.48509	-0.162654	-1.5281	-0.174719	-1.35474	-0.127857	-1.10113	0.136483	-0.417144	-0.118855	-0.917847	-0.083425	-0.45238	-0.17264	-0.661075	-0.238084	-0.798359	-0.215607	-1.12103	
4.15497	0	0	-0.620954	-0.400531	-0.00981275	-0.952792	0.247278	-0.410339	0.150004	-0.763351	0.0483325	-0.559057	-0.142628	-0.620788	-0.183649	-1.49182	-0.167392	-1.5362	-0.170712	-1.36607	-0.123121	-1.11451	0.151669	-0.43761	-0.124094	-0.926307	-0.076729	-0.471304	-0.175991	-0.67335	-0.246631	-0.807435	-0.20877	-1.14036	
4.15954	0	0	-0.619679	-0.404135	-0.0065465	-0.962022	0.254451	-0.430613	0.154524	-0.776127	0.05381	-0.574537	-0.138456	-0.632578	-0.187426	-1.49854	-0.17213	-1.54431	-0.166704	-1.37739	-0.118386	-1.1279	0.166856	-0.458075	-0.129334	-0.934767	-0.070033	-0.490227	-0.179343	-0.685624	-0.255177	-0.816512	-0.201933	-1.15968	
4.16412	0	0	-0.618404	-0.407738	-0.00328025	-0.971252	0.261625	-0.450886	0.159044	-0.788904	0.0592875	-0.590018	-0.134285	-0.644367	-0.191203	-1.50526	-0.176869	-1.55241	-0.162696	-1.38872	-0.11365	-1.14128	0.182042	-0.478541	-0.134573	-0.943228	-0.063337	-0.509151	-0.182694	-0.697898	-0.263723	-0.825589	-0.195095	-1.179	
4.16412	0	0	-0.617129	-0.411341	-1.4E-05	-0.980483	0.268799	-0.47116	0.163565	-0.80168	0.064765	-0.605498	-0.130113	-0.656157	-0.19498	-1.51199	-0.181607	-1.56051	-0.158689	-1.40004	-0.108914	-1.15467	0.197229	-0.499007	-0.139813	-0.951688	-0.056641	-0.528075	-0.186046	-0.710173	-0.27227	-0.834665	-0.188258	-1.19833	
4.16565	0	0	-0.613307	-0.422142	-0.01809	-0.982843	0.264844	-0.487233	0.172587	-0.827178	0.0571615	-0.60766	-0.137698	-0.660253	-0.18991	-1.52632	-0.187628	-1.56497	-0.161578	-1.40859	-0.114619	-1.15865	0.181417	-0.499201	-0.135717	-0.963264	-0.0684447	-0.536951	-0.181615	-0.722694	-0.264192	-0.857496	-0.200338	-1.20526	
4.16565	0	0	-0.609486	-0.432943	-0.036166	-0.985202	0.260888	-0.503305	0.181609	-0.852675	0.049558	-0.609822	-0.145283	-0.664348	-0.184841	-1.54064	-0.193649	-1.56942	-0.164467	-1.41714	-0.120325	-1.16262	0.165605	-0.499396	-0.131621	-0.974839	-0.0802485	-0.545827	-0.177185	-0.735215	-0.256113	-0.880327	-0.212419	-1.21219	
4.1687	0	0	-0.605664	-0.443743	-0.054242	-0.987561	0.256933	-0.519378	0.190632	-0.878173	0.0419545	-0.611985	-0.152868	-0.668443	-0.179772	-1.55497	-0.19967	-1.57388	-0.167357	-1.42568	-0.12603	-1.1666	0.149794	-0.49959	-0.127525	-0.986414	-0.0920523	-0.554704	-0.172755	-0.747736	-0.248035	-0.903157	-0.224499	-1.21912	
4.1687	0	0	-0.601842	-0.454544	-0.072318	-0.989921	0.252978	-0.53545	0.199654	-0.903671	0.034351	-0.614147	-0.160453	-0.672539	-0.174702	-1.5693	-0.205691	-1.57833	-0.170246	-1.43423	-0.131735	-1.17058	0.133982	-0.499785	-0.123429	-0.99799	-0.103856	-0.56358	-0.168324	-0.760257	-0.239957	-0.925988	-0.236579	-1.22605	
4.16717	0	0	-0.60898	-0.458174	-0.06256	-1.0175	0.250443	-0.555496	0.20865	-0.929096	0.0333045	-0.634811	-0.153522	-0.692128	-0.183107	-1.5803	-0.195419	-1.60736	-0.179217	-1.44226	-0.122295	-1.19726	0.143649	-0.527106	-0.125949	-1.01411	-0.0943377	-0.590479	-0.170583	-0.775594	-0.262406	-0.928826	-0.244102	-1.24577	
4.17023	0	0	-0.616118	-0.461804	-0.052802	-1.04508	0.247908	-0.575543	0.217646	-0.954522	0.032258	-0.655476	-0.146591	-0.711717	-0.191511	-1.59129	-0.185146	-1.63639	-0.188188	-1.45028	-0.112855	-1.22394	0.153316	-0.554427	-0.128468	-1.03023	-0.0848195	-0.617379	-0.172841	-0.790931	-0.284855	-0.931665	-0.251625	-1.26549	
4.16717	0	0	-0.623256	-0.465433	-0.043044	-1.07265	0.245373	-0.595589	0.226643	-0.979947	0.0312115	-0.676141	-0.139659	-0.731306	-0.199915	-1.60229	-0.174874	-1.66542	-0.197159	-1.45831	-0.103416	-1.25062	0.162984	-0.581748	-0.130988	-1.04634	-0.0753013	-0.644278	-0.1751	-0.806269	-0.307305	-0.934504	-0.259148	-1.2852	
4.16565	0	0	-0.630394	-0.469063	-0.033286	-1.10023	0.242838	-0.615635	0.235639	-1.00537	0.030165	-0.696805	-0.132728	-0.750895	-0.20832	-1.61329	-0.164602	-1.69445	-0.20613	-1.46633	-0.093976	-1.2773	0.172651	-0.609069	-0.133508	-1.06246	-0.065783	-0.671177	-0.177359	-0.821606	-0.329754	-0.937342	-0.266671	-1.30492	
4.17023	0	0	-0.629123	-0.472656	-0.03004	-1.10941	0.237448	-0.627573	0.225445	-1.01333	0.0356105	-0.712195	-0.138929	-0.758867	-0.20243	-1.62993	-0.168069	-1.7061	-0.202142	-1.47761	-0.0973327	-1.28789	0.170776	-0.62617	-0.136035	-1.07853	-0.067892	-0.686298	-0.180726	-0.833784	-0.324394	-0.952491	-0.27645	-1.31818	
4.17023	0	0	-0.627852	-0.476249	-0.026794	-1.11858	0.232059	-0.639512	0.215251	-1.0213	0.041056	-0.727584	-0.14513	-0.76684	-0.19654	-1.64658	-0.171536	-1.71775	-0.198153	-1.48888	-0.10069	-1.29848	0.168901	-0.643271	-0.138562	-1.09459	-0.070001	-0.70142	-0.184094	-0.845962	-0.319033	-0.967641	-0.286228	-1.33143	
4.16717	0	0	-0.62658	-0.479842	-0.023548	-1.12775	0.226669	-0.65145	0.205056	-1.02926	0.0465015	-0.742973	-0.15133	-0.774812	-0.19065	-1.66322	-0.175004	-1.72939	-0.194165	-1.50015	-0.104046	-1.30908	0.167026	-0.660373	-0.14109	-1.11066	-0.07211	-0.716541	-0.187462	-0.85814	-0.313672	-0.98279	-0.296006	-1.34469	
4.16717	0	0	-0.625309	-0.483435	-0.020302	-1.13693	0.221279	-0.663388	0.194862	-1.03722	0.051947	-0.758363	-0.157531	-0.782784	-0.18476	-1.67987	-0.178471	-1.74104	-0.190176	-1.51142	-0.107403	-1.31967	0.165151	-0.677474	-0.143617	-1.12673	-0.074219	-0.731662	-0.190829	-0.870318	-0.308312	-0.997939	-0.305785	-1.35794	
4.17023	0	0	-0.621498	-0.494206	-0.01382	-1.15525	0.220143	-0.68731	0.186922	-1.05148	0.0552098	-0.767584	-0.153387	-0.794496	-0.188545	-1.68652	-0.18194	-1.75266	-0.193864	-1.51767	-0.111935	-1.32693	0.167557	-0.684273	-0.151572	-1.12743	-0.070429	-0.742374	-0.186425	-0.882765	-0.304298	-1.00928	-0.299021	-1.37706	
4.16565	0	0	-0.617687	-0.504976	-0.007338	-1.17357	0.219008	-0.711232	0.178982	-1.06574	0.0584725	-0.776806	-0.149243	-0.806208	-0.19233	-1.69318	-0.185408	-1.76428	-0.197551	-1.52391	-0.116467	-1.33418	0.169963	-0.691072	-0.159528	-1.12812	-0.066639	-0.753085	-0.182021	-0.895212	-0.300283	-1.02063	-0.292256	-1.39618	
4.16412	0	0	-0.613875	-0.515746	-0.000856	-1.19188	0.217872	-0.735153	0.171043	-1.08001	0.0617352	-0.786027	-0.145099	-0.817921	-0.196115	-1.69983	-0.188877	-1.77589	-0.201239	-1.53016	-0.120999	-1.34143	0.172368	-0.697871	-0.167484	-1.12882	-0.062849	-0.763796	-0.177617	-0.907659	-0.296269	-1.03197	-0.285492	-1.41529	
4.1626	0	0	-0.610064	-0.526517	0.005626	-1.2102	0.216736	-0.759075	0.163103	-1.09427	0.064998	-0.795248	-0.140955	-0.829633	-0.1999	-1.70648	-0.192346	-1.78751	-0.204927	-1.5364	-0.125531	-1.34868	0.174774	-0.70467	-0.175439	-1.12952	-0.059059	-0.774508	-0.173213	-0.920106	-0.292255	-1.04332	-0.278728	-1.43441	
4.16412	0	0	-0.608795	-0.530104	-0.012433	-1.21246	0.22381	-0.779067	0.17203	-1.1195	0.0595702	-0.8035	-0.135438	-0.845225	-0.202845	-1.71549	-0.184695	-1.80913	-0.207818	-1.54488	-0.127716	-1.36254	0.172883	-0.721698	-0.177968	-1.14552	-0.0621292	-0.786889	-0.176592	-0.932226	-0.302123	-1.04848	-0.267486	-1.46618	
4.16565	0	0	-0.607526	-0.533691	-0.030492	-1.21471	0.230884	-0.79906	0.180956	-1.14472	0.0541425	-0.811752	-0.12992	-0.860818	-0.20579	-1.72451	-0.177043	-1.83076	-0.210709	-1.55337	-0.129901	-1.37641	0.170992	-0.738726	-0.180497	-1.16153	-0.0651995	-0.79927	-0.179971	-0.944347	-0.311991	-1.05365	-0.256245	-1.49795	
4.1687	0	0	-0.606256	-0.537279	-0.048551	-1.21697	0.237958	-0.819052	0.189883	-1.16995	0.0487148	-0.820005	-0.124403	-0.87641	-0.208735	-1.73352	-0.169392	-1.85238	-0.2136	-1.56185	-0.132086	-1.39027	0.1691	-0.755753	-0.183025	-1.17753	-0.0682698	-0.811651	-0.18335	-0.956468	-0.32186	-1.05881	-0.245003	-1.52972	
4.17328	0	0	-0.604987	-0.540866	-0.06661	-1.21922	0.245032	-0.839044	0.198809	-1.19518	0.043287	-0.828257	-0.118886	-0.892003	-0.21168	-1.74253	-0.161741	-1.87401	-0.216491	-1.57033	-0.134271	-1.40414	0.167209	-0.772781	-0.185554	-1.19354	-0.07134	-0.824032	-0.186729	-0.968588	-0.331728	-1.06398	-0.233762	-1.56149	
4.17633	0	0	-0.606256	-0.537279	-0.06661	-1.21922	0.235388	-0.838881	0.184178	-1.19046	0.0454567	-0.834388	-0.114754	-0.903679	-0.208329	-1.752	-0.166498	-1.88196	-0.213313	-1.57931	-0.1388	-1.41135	0.172002	-0.786328	-0.180148	-1.20882	-0.0675623	-0.834708	-0.18234	-0.980992	-0.341578	-1.06913	-0.229277	-1.57417	
4.17938	0	0	-0.607526	-0.533691	-0.06661	-1.21922	0.225745	-0.838718	0.169548	-1.18574	0.0476265	-0.84052	-0.110623	-0.915356	-0.204978	-1.76147	-0.171256	-1.88991	-0.210135	-1.5883	-0.14333	-1.41857	0.176795	-0.799874	-0.174741	-1.2241	-0.0637845	-0.845384	-0.177951	-0.993395	-0.351429	-1.07429	-0.224792	-1.58684	
4.17938	0	0	-0.608795	-0.530104	-0.06661	-1.21922	0.216101	-0.838555	0.154917	-1.18102	0.0497963	-0.846652	-0.106491	-0.927033	-0.201627	-1.77094	-0.176013	-1.89786	-0.206956	-1.59728	-0.14786	-1.42578	0.181589	-0.81342	-0.169335	-1.23938	-0.0600067	-0.856061	-0.173562	-1.0058	-0.361279	-1.07945	-0.220306	-1.59952	
4.18091	0	0	-0.610064	-0.526517	-0.06661	-1.21922	0.206457	-0.838392	0.140286	-1.1763	0.051966	-0.852783	-0.102359	-0.938709	-0.198276	-1.78041	-0.18077	-1.90581	-0.203778	-1.60626	-0.152389	-1.433	0.186382	-0.826967	-0.163929	-1.25466	-0.056229	-0.866737	-0.169173	-1.0182	-0.371129	-1.0846	-0.215821	-1.6122	
4.18091	0	0	-0.618467	-0.526541	-0.0356267	-1.25349	0.201058	-0.850186	0.149181	-1.20144	0.054134	-0.85891	-0.109952	-0.942713	-0.194929	-1.78987	-0.185524	-1.91375	-0.209054	-1.60799	-0.15005	-1.43961	0.188776	-0.833732	-0.171872	-1.25533	-0.0474813	-0.870402	-0.169173	-1.0182	-0.372462	-1.08083	-0.230121	-1.61259	
4.18243	0	0	-0.626871	-0.526565	-0.0046435	-1.28776	0.195659	-0.861981	0.158077	-1.22658	0.056302	-0.865038	-0.117545	-0.946716	-0.191581	-1.79933	-0.190278	-1.92169	-0.21433	-1.60971	-0.147711	-1.44622	0.191169	-0.840498	-0.179814	-1.25601	-0.0387335	-0.874067	-0.169173	-1.0182	-0.373795	-1.07707	-0.24442	-1.61297	
4.18548	0	0	-0.635274	-0.526589	0.0263397	-1.32204	0.19026	-0.873775	0.166972	-1.25172	0.05847	-0.871166	-0.125138	-0.95072	-0.188233	-1.80879	-0.195032	-1.92962	-0.219605	-1.61144	-0.145372	-1.45283	0.193563	-0.847264	-0.187756	-1.25668	-0.0299857	-0.877732	-0.169173	-1.0182	-0.375128	-1.0733	-0.258719	-1.61336	
4.18548	0	0	-0.643677	-0.526613	0.057323	-1.35631	0.184861	-0.885569	0.175867	-1.27686	0.060638	-0.877293	-0.132731	-0.954724	-0.184886	-1.81825	-0.199786	-1.93756	-0.224881	-1.61317	-0.143033	-1.45944	0.195957	-0.854029	-0.195699	-1.25736	-0.021238	-0.881397	-0.169173	-1.0182	-0.376461	-1.06953	-0.273019	-1.61375	
4.18243	0	0	-0.642409	-0.530197	0.01478	-1.34251	0.190491	-0.901481	0.182522	-1.29566	0.0552072	-0.885507	-0.12861	-0.96637	-0.187842	-1.82722	-0.203269	-1.94906	-0.228566	-1.61938	-0.146396	-1.46993	0.18257	-0.860863	-0.18896	-1.2764	-0.029042	-0.880399	-0.165885	-1.02749	-0.371132	-1.08459	-0.282817	-1.62677	
4.18548	0	0	-0.641141	-0.533782	-0.027763	-1.3287	0.196122	-0.917393	0.189177	-1.31447	0.0497765	-0.893721	-0.124489	-0.978016	-0.190798	-1.83618	-0.206753	-1.96056	-0.232251	-1.62558	-0.149759	-1.48042	0.169184	-0.867696	-0.182221	-1.29545	-0.036846	-0.879401	-0.162598	-1.03679	-0.365804	-1.09965	-0.292616	-1.63979	
4.18243	0	0	-0.639872	-0.537366	-0.070306	-1.3149	0.201752	-0.933304	0.195832	-1.33328	0.0443457	-0.901935	-0.120368	-0.989662	-0.193755	-1.84514	-0.210236	-1.97207	-0.235937	-1.63179	-0.153121	-1.49091	0.155798	-0.874529	-0.175482	-1.3145	-0.04465	-0.878403	-0.15931	-1.04608	-0.360475	-1.11471	-0.302415	-1.65281	
4.18701	0	0	-0.638604	-0.540951	-0.112849	-1.3011	0.207382	-0.949216	0.202487	-1.35209	0.038915	-0.910149	-0.116247	-1.00131	-0.196711	-1.85411	-0.21372	-1.98357	-0.239622	-1.638	-0.156484	-1.5014	0.142411	-0.881363	-0.168743	-1.33354	-0.052454	-0.877405	-0.156023	-1.05537	-0.355146	-1.12977	-0.312213	-1.66583	
4.19006	0	0	-0.638604	-0.540951	-0.0883913	-1.31708	0.208788	-0.95319	0.204702	-1.35835	0.0399967	-0.913206	-0.126578	-0.99754	-0.20217	-1.85598	-0.211187	-1.99073	-0.238037	-1.64248	-0.152985	-1.51129	0.144798	-0.888108	-0.175336	-1.338	-0.052454	-0.877405	-0.163795	-1.05505	-0.370305	-1.11987	-0.289015	-1.69068	
4.18854	0	0	-0.638604	-0.540951	-0.0639335	-1.33307	0.210194	-0.957164	0.206917	-1.36461	0.0410785	-0.916262	-0.136908	-0.993772	-0.207629	-1.85785	-0.208654	-1.99789	-0.236453	-1.64696	-0.149487	-1.52118	0.147184	-0.894853	-0.181928	-1.34247	-0.052454	-0.877405	-0.171567	-1.05473	-0.385464	-1.10996	-0.265818	-1.71553	
4.19159	0	0	-0.638604	-0.540951	-0.0394758	-1.34905	0.2116	-0.961137	0.209132	-1.37087	0.0421603	-0.919319	-0.147239	-0.990003	-0.213088	-1.85973	-0.206121	-2.00504	-0.234868	-1.65144	-0.145988	-1.53107	0.149571	-0.901599	-0.188521	-1.34693	-0.052454	-0.877405	-0.17934	-1.05441	-0.400623	-1.10006	-0.24262	-1.74037	
4.19159	5	0	-0.638604	-0.540951	-0.015018	-1.36503	0.213006	-0.965111	0.211347	-1.37713	0.043242	-0.922376	-0.15757	-0.986235	-0.218547	-1.8616	-0.203588	-2.0122	-0.233283	-1.65591	-0.142489	-1.54096	0.151958	-0.908344	-0.195113	-1.35139	-0.052454	-0.877405	-0.187112	-1.05409	-0.415782	-1.09015	-0.219422	-1.76522	
4.19464	5	0	-0.649531	-0.533811	-0.0362595	-1.35814	0.204788	-0.968897	0.198947	-1.37864	0.0530048	-0.926405	-0.144495	-0.997759	-0.218547	-1.8616	-0.201057	-2.01936	-0.234868	-1.65144	-0.144821	-1.53437	0.149571	-0.901599	-0.196458	-1.34759	-0.0474835	-0.870395	-0.189302	-1.0479	-0.403286	-1.09253	-0.217194	-1.77152	
4.19769	5	0	-0.660458	-0.526671	-0.057501	-1.35125	0.196569	-0.972683	0.186548	-1.38016	0.0627675	-0.930434	-0.13142	-1.00928	-0.218547	-1.8616	-0.198526	-2.02651	-0.236453	-1.64696	-0.147153	-1.52778	0.147184	-0.894853	-0.197803	-1.34379	-0.042513	-0.863384	-0.191492	-1.04171	-0.39079	-1.09491	-0.214967	-1.77781	
4.19922	5	0	-0.671386	-0.51953	-0.0787425	-1.34435	0.18835	-0.976469	0.174149	-1.38167	0.0725303	-0.934463	-0.118345	-1.02081	-0.218547	-1.8616	-0.195995	-2.03366	-0.238037	-1.64248	-0.149486	-1.52118	0.144798	-0.888108	-0.199148	-1.33999	-0.0375425	-0.856374	-0.193682	-1.03552	-0.378295	-1.09729	-0.212739	-1.78411	
4.19922	5	0	-0.682313	-0.51239	-0.099984	-1.33746	0.180132	-0.980255	0.161749	-1.38318	0.082293	-0.938492	-0.10527	-1.03233	-0.218547	-1.8616	-0.193464	-2.04081	-0.239622	-1.638	-0.151818	-1.51459	0.142411	-0.881363	-0.200493	-1.33619	-0.032572	-0.849364	-0.195872	-1.02933	-0.365799	-1.09966	-0.210511	-1.79041	
4.19769	5	0	-0.681045	-0.515973	-0.096771	-1.34654	0.193968	-0.992345	0.151584	-1.39094	0.0736115	-0.937519	-0.102528	-1.04008	-0.216879	-1.86632	-0.199485	-2.04512	-0.239622	-1.638	-0.157514	-1.51847	0.143605	-0.884736	-0.197804	-1.34379	-0.0441545	-0.837688	-0.184814	-1.03893	-0.378295	-1.09729	-0.210511	-1.79041	
4.2038	5	0	-0.679777	-0.519556	-0.093558	-1.35562	0.207805	-1.00444	0.141419	-1.3987	0.06493	-0.936546	-0.0997865	-1.04783	-0.21521	-1.87103	-0.205506	-2.04943	-0.239622	-1.638	-0.163209	-1.52235	0.144798	-0.888109	-0.195114	-1.35139	-0.055737	-0.826013	-0.173757	-1.04854	-0.39079	-1.09491	-0.210511	-1.79041	
4.20227	5	0	-0.67851	-0.523139	-0.090345	-1.3647	0.221641	-1.01653	0.131253	-1.40645	0.0562485	-0.935572	-0.0970447	-1.05558	-0.213541	-1.87575	-0.211528	-2.05373	-0.239622	-1.638	-0.168905	-1.52623	0.145992	-0.891483	-0.192425	-1.35899	-0.0673195	-0.814337	-0.162699	-1.05814	-0.403286	-1.09253	-0.210511	-1.79041	
4.20074	5	0	-0.677242	-0.526722	-0.087132	-1.37378	0.235477	-1.02862	0.121088	-1.41421	0.047567	-0.934599	-0.094303	-1.06333	-0.211873	-1.88046	-0.217549	-2.05804	-0.239622	-1.638	-0.1746	-1.5301	0.147186	-0.894856	-0.189736	-1.36659	-0.078902	-0.802661	-0.151642	-1.06775	-0.415782	-1.09015	-0.210511	-1.79041	
4.2038	5	0	-0.679778	-0.519555	-0.087132	-1.37378	0.223044	-1.02049	0.13788	-1.42518	0.0594922	-0.94474	-0.092933	-1.0672	-0.211039	-1.88282	-0.206472	-2.06802	-0.241207	-1.63352	-0.1746	-1.5301	0.155071	-0.894821	-0.188392	-1.37039	-0.072048	-0.800974	-0.162699	-1.05814	-0.417113	-1.08639	-0.208285	-1.7967	
4.20227	5	0	-0.682314	-0.512387	-0.087132	-1.37378	0.210612	-1.01237	0.154672	-1.43615	0.0714175	-0.954881	-0.091563	-1.07107	-0.210205	-1.88518	-0.195394	-2.07801	-0.242793	-1.62904	-0.1746	-1.5301	0.162956	-0.894785	-0.187049	-1.37418	-0.065194	-0.799286	-0.173757	-1.04854	-0.418445	-1.08263	-0.206059	-1.80299	
4.2038	5	0	-0.68485	-0.50522	-0.087132	-1.37378	0.198179	-1.00425	0.171465	-1.44713	0.0833428	-0.965021	-0.090193	-1.07494	-0.209372	-1.88753	-0.184317	-2.08799	-0.244378	-1.62456	-0.1746	-1.5301	0.170841	-0.894749	-0.185705	-1.37798	-0.05834	-0.797598	-0.184814	-1.03893	-0.419776	-1.07886	-0.203833	-1.80928	
4.2038	5	0	-0.687386	-0.498052	-0.087132	-1.37378	0.185746	-0.996121	0.188257	-1.4581	0.095268	-0.975162	-0.088823	-1.07881	-0.208538	-1.88989	-0.17324	-2.09797	-0.245964	-1.62007	-0.1746	-1.5301	0.178726	-0.894714	-0.184361	-1.38178	-0.051486	-0.795911	-0.195872	-1.02933	-0.421108	-1.0751	-0.201607	-1.81557	
4.19769	5	0	-0.687386	-0.498052	-0.0594645	-1.39884	0.187149	-1.00009	0.190463	-1.46433	0.094187	-0.972107	-0.0874535	-1.08268	-0.208538	-1.88989	-0.171977	-2.10154	-0.249137	-1.61111	-0.176931	-1.52351	0.18423	-0.887924	-0.197665	-1.36725	-0.0533792	-0.79056	-0.189197	-1.02655	-0.408613	-1.07748	-0.220344	-1.80333	
4.19769	5	0	-0.687386	-0.498052	-0.031797	-1.42389	0.188551	-1.00405	0.192669	-1.47057	0.093106	-0.969052	-0.086084	-1.08655	-0.208538	-1.88989	-0.170714	-2.10511	-0.252311	-1.60214	-0.179262	-1.51693	0.189735	-0.881134	-0.21097	-1.35271	-0.0552725	-0.78521	-0.182522	-1.02377	-0.396118	-1.07985	-0.239082	-1.79108	
4.19617	5	0	-0.687386	-0.498052	-0.0041295	-1.44894	0.189954	-1.00802	0.194875	-1.4768	0.092025	-0.965998	-0.0847145	-1.09042	-0.208538	-1.88989	-0.169452	-2.10868	-0.255485	-1.59317	-0.181594	-1.51034	0.195239	-0.874343	-0.224274	-1.33818	-0.0571658	-0.779859	-0.175848	-1.02098	-0.383624	-1.08223	-0.257819	-1.77884	
4.19617	5	0	-0.687386	-0.498052	0.023538	-1.47399	0.191357	-1.01198	0.197081	-1.48304	0.090944	-0.962943	-0.083345	-1.0943	-0.208538	-1.88989	-0.168189	-2.11225	-0.258658	-1.5842	-0.183925	-1.50375	0.200743	-0.867553	-0.237578	-1.32364	-0.059059	-0.774508	-0.169173	-1.0182	-0.371129	-1.0846	-0.276557	-1.7666	
4.20227	5	0	-0.688655	-0.494466	-0.00092	-1.45801	0.191357	-1.01198	0.182493	-1.47829	0.0833412	-0.965018	-0.080608	-1.10203	-0.213994	-1.89176	-0.175479	-2.11297	-0.258658	-1.5842	-0.190777	-1.50434	0.190458	-0.860833	-0.225617	-1.33438	-0.0609535	-0.769154	-0.169173	-1.0182	-0.386288	-1.0747	-0.276557	-1.7666	
4.20837	5	0	-0.689924	-0.49088	-0.025378	-1.44203	0.191357	-1.01198	0.167905	-1.47355	0.0757385	-0.967094	-0.077871	-1.10977	-0.219449	-1.89363	-0.182769	-2.11369	-0.258658	-1.5842	-0.197628	-1.50493	0.180173	-0.854112	-0.213657	-1.34512	-0.062848	-0.7638	-0.169173	-1.0182	-0.401447	-1.06479	-0.276557	-1.7666	
4.22363	5	0	-0.691192	-0.487295	-0.049836	-1.42605	0.191357	-1.01198	0.153318	-1.46881	0.0681357	-0.969169	-0.075134	-1.1175	-0.224905	-1.89549	-0.190059	-2.11441	-0.258658	-1.5842	-0.20448	-1.50551	0.169888	-0.847391	-0.201697	-1.35585	-0.0647425	-0.758446	-0.169173	-1.0182	-0.416607	-1.05489	-0.276557	-1.7666	
4.24194	5	0	-0.692461	-0.483709	-0.074294	-1.41007	0.191357	-1.01198	0.13873	-1.46407	0.060533	-0.971244	-0.072397	-1.12524	-0.23036	-1.89736	-0.197349	-2.11513	-0.258658	-1.5842	-0.211332	-1.5061	0.159603	-0.840671	-0.189736	-1.36659	-0.066637	-0.753092	-0.169173	-1.0182	-0.431766	-1.04498	-0.276557	-1.7666	
4.25262	5	0	-0.696271	-0.472943	-0.098682	-1.39413	0.199579	-1.0082	0.136525	-1.45784	0.0616128	-0.974295	-0.0841	-1.11759	-0.220738	-1.90727	-0.197349	-2.11513	-0.259452	-1.58196	-0.200984	-1.51539	0.15721	-0.833908	-0.189736	-1.36659	-0.0656898	-0.755769	-0.168077	-1.0213	-0.430433	-1.04875	-0.276557	-1.7666	
4.27551	5	0	-0.70008	-0.462176	-0.12307	-1.3782	0.207802	-1.00443	0.134321	-1.45161	0.0626925	-0.977347	-0.095803	-1.10994	-0.211116	-1.91717	-0.197349	-2.11513	-0.260246	-1.57971	-0.190636	-1.52469	0.154817	-0.827145	-0.189736	-1.36659	-0.0647425	-0.758447	-0.16698	-1.0244	-0.429101	-1.05251	-0.276557	-1.7666	
4.29993	5	0	-0.703889	-0.45141	-0.147458	-1.36226	0.216025	-1.00065	0.132116	-1.44538	0.0637723	-0.980399	-0.107506	-1.1023	-0.201495	-1.92708	-0.197349	-2.11513	-0.261039	-1.57747	-0.180288	-1.53398	0.152424	-0.820382	-0.189736	-1.36659	-0.0637952	-0.761124	-0.165884	-1.0275	-0.427768	-1.05628	-0.276557	-1.7666	
4.32739	5	0	-0.707699	-0.440644	-0.171846	-1.34632	0.224247	-0.996878	0.129912	-1.43915	0.064852	-0.98345	-0.119209	-1.09465	-0.191873	-1.93699	-0.197349	-2.11513	-0.261833	-1.57523	-0.16994	-1.54327	0.150031	-0.813619	-0.189736	-1.36659	-0.062848	-0.763801	-0.164788	-1.03059	-0.426436	-1.06004	-0.276557	-1.7666	
4.35333	5	0	-0.711513	-0.429865	-0.150668	-1.35319	0.220031	-0.984962	0.125499	-1.42668	0.0702938	-0.975268	-0.121946	-1.08691	-0.192706	-1.93463	-0.199873	-2.10799	-0.26501	-1.56625	-0.164243	-1.5394	0.151926	-0.796628	-0.195117	-1.35138	-0.0656907	-0.755766	-0.168078	-1.0213	-0.433104	-1.0412	-0.264502	-1.75995	
4.37775	5	0	-0.715328	-0.419085	-0.129489	-1.36005	0.215815	-0.973047	0.121085	-1.4142	0.0757355	-0.967085	-0.124683	-1.07918	-0.193539	-1.93228	-0.202397	-2.10086	-0.268188	-1.55727	-0.158547	-1.53552	0.153821	-0.779638	-0.200498	-1.33617	-0.0685335	-0.747731	-0.171368	-1.012	-0.439772	-1.02235	-0.252448	-1.75331	
4.39911	5	0	-0.719142	-0.408306	-0.108311	-1.36692	0.211598	-0.961132	0.116672	-1.40173	0.0811773	-0.958902	-0.12742	-1.07144	-0.194371	-1.92993	-0.204921	-2.09373	-0.271365	-1.54829	-0.15285	-1.53165	0.155716	-0.762648	-0.205879	-1.32097	-0.0713763	-0.739697	-0.174658	-1.0027	-0.44644	-1.00351	-0.240393	-1.74667	
4.422	5	0	-0.722956	-0.397527	-0.087132	-1.37378	0.207382	-0.949216	0.112259	-1.38926	0.086619	-0.95072	-0.130157	-1.06371	-0.195204	-1.92757	-0.207445	-2.08659	-0.274543	-1.53931	-0.147153	-1.52778	0.157611	-0.745657	-0.21126	-1.30576	-0.074219	-0.731662	-0.177948	-0.993404	-0.453108	-0.984665	-0.228339	-1.74002	
4.44031	5	0	-0.715847	-0.393875	-0.0658873	-1.38068	0.20316	-0.937285	0.126842	-1.39399	0.086619	-0.95072	-0.128788	-1.06758	-0.195204	-1.92757	-0.206183	-2.09016	-0.267687	-1.54206	-0.15518	-1.52506	0.165507	-0.745599	-0.21126	-1.30576	-0.0761157	-0.726302	-0.177948	-0.993404	-0.439284	-0.990796	-0.235036	-1.72109	
4.45709	5	0	-0.708739	-0.390223	-0.0446425	-1.38759	0.198939	-0.925353	0.141425	-1.39872	0.086619	-0.95072	-0.127419	-1.07144	-0.195204	-1.92757	-0.204921	-2.09373	-0.260831	-1.54481	-0.163207	-1.52235	0.173403	-0.745542	-0.21126	-1.30576	-0.0780125	-0.720941	-0.177948	-0.993404	-0.425461	-0.996928	-0.241733	-1.70217	
4.47388	5	0	-0.70163	-0.386571	-0.0233978	-1.39449	0.194717	-0.913422	0.156009	-1.40344	0.086619	-0.95072	-0.126051	-1.07531	-0.195204	-1.92757	-0.203658	-2.0973	-0.253976	-1.54756	-0.171234	-1.51964	0.181299	-0.745484	-0.21126	-1.30576	-0.0799093	-0.71558	-0.177948	-0.993404	-0.411637	-1.00306	-0.248431	-1.68324	
4.48303	5	0	-0.694521	-0.382919	-0.002153	-1.40139	0.190495	-0.901491	0.170592	-1.40817	0.086619	-0.95072	-0.124682	-1.07918	-0.195204	-1.92757	-0.202396	-2.10086	-0.24712	-1.55032	-0.179261	-1.51693	0.189195	-0.745426	-0.21126	-1.30576	-0.081806	-0.71022	-0.177948	-0.993404	-0.397813	-1.00919	-0.255128	-1.66431	
4.49982	5	0	-0.702172	-0.361295	-0.00858875	-1.3832	0.194486	-0.885716	0.163956	-1.38942	0.083373	-0.941546	-0.126051	-1.07531	-0.196037	-1.92522	-0.203658	-2.0973	-0.247915	-1.54807	-0.170068	-1.52294	0.186792	-0.738635	-0.212607	-1.30195	-0.0808575	-0.712901	-0.177948	-0.993404	-0.399149	-1.00542	-0.255128	-1.66431	
4.5105	5	0	-0.709824	-0.339672	-0.0150245	-1.36501	0.198476	-0.869942	0.157319	-1.37066	0.080127	-0.932373	-0.127419	-1.07144	-0.19687	-1.92286	-0.204921	-2.09373	-0.248711	-1.54582	-0.160875	-1.52894	0.184389	-0.731843	-0.213953	-1.29815	-0.079909	-0.715581	-0.177948	-0.993404	-0.400485	-1.00164	-0.255128	-1.66431	
4.51355	5	0	-0.717475	-0.318048	-0.0214603	-1.34682	0.202466	-0.854167	0.150682	-1.35191	0.076881	-0.923199	-0.128788	-1.06758	-0.197703	-1.92051	-0.206183	-2.09016	-0.249506	-1.54358	-0.151682	-1.53495	0.181986	-0.725051	-0.2153	-1.29434	-0.0789605	-0.718262	-0.177948	-0.993404	-0.40182	-0.997864	-0.255128	-1.66431	
4.51813	5	0	-0.725126	-0.296424	-0.027896	-1.32863	0.206457	-0.838392	0.144046	-1.33315	0.073635	-0.914025	-0.130157	-1.06371	-0.198536	-1.91816	-0.207445	-2.08659	-0.250301	-1.54133	-0.142489	-1.54096	0.179583	-0.71826	-0.216646	-1.29054	-0.078012	-0.720943	-0.177948	-0.993404	-0.403156	-0.994089	-0.255128	-1.66431	
4.5227	5	0	-0.719296	-0.289128	-0.031119	-1.31952	0.202218	-0.826412	0.141831	-1.32689	0.0703857	-0.904842	-0.121193	-1.06361	-0.197703	-1.92051	-0.208708	-2.08303	-0.252687	-1.53458	-0.154014	-1.52836	0.174771	-0.704662	-0.210061	-1.28605	-0.0799095	-0.715581	-0.180143	-0.9872	-0.40583	-0.986533	-0.259601	-1.65167	
4.5227	5	0	-0.713466	-0.281833	-0.034342	-1.31042	0.19798	-0.814433	0.139616	-1.32063	0.0671365	-0.895659	-0.11223	-1.06352	-0.19687	-1.92286	-0.209971	-2.07946	-0.255074	-1.52784	-0.16554	-1.51576	0.16996	-0.691064	-0.203475	-1.28157	-0.081807	-0.710219	-0.182339	-0.980996	-0.408503	-0.978978	-0.264074	-1.63903	
4.52423	5	0	-0.707636	-0.274537	-0.037565	-1.30131	0.193741	-0.802454	0.137401	-1.31437	0.0638873	-0.886476	-0.103266	-1.06342	-0.196037	-1.92522	-0.211233	-2.07589	-0.25746	-1.5211	-0.177065	-1.50316	0.165149	-0.677466	-0.196889	-1.27709	-0.0837045	-0.704857	-0.184534	-0.974792	-0.411177	-0.971423	-0.268546	-1.62639	
4.52576	5	0	-0.701806	-0.267241	-0.040788	-1.2922	0.189502	-0.790474	0.135186	-1.30811	0.060638	-0.877293	-0.094303	-1.06333	-0.195204	-1.92757	-0.212496	-2.07232	-0.259846	-1.51435	-0.18859	-1.49057	0.160337	-0.663868	-0.190304	-1.27261	-0.085602	-0.699495	-0.186729	-0.968588	-0.41385	-0.963867	-0.273019	-1.61375	
4.5227	5	0	-0.708207	-0.249152	-0.0652457	-1.27622	0.185258	-0.778479	0.132969	-1.30185	0.0497937	-0.870207	-0.106006	-1.05568	-0.194371	-1.92993	-0.213759	-2.06875	-0.265906	-1.51385	-0.186258	-1.49716	0.162744	-0.67067	-0.198237	-1.27328	-0.084653	-0.702176	-0.185631	-0.971691	-0.412513	-0.967646	-0.270782	-1.62007	
4.51965	5	0	-0.714608	-0.231063	-0.0897035	-1.26024	0.181013	-0.766483	0.130752	-1.29558	0.0389495	-0.863121	-0.117709	-1.04803	-0.193539	-1.93228	-0.215023	-2.06518	-0.271965	-1.51335	-0.183926	-1.50375	0.165151	-0.677471	-0.20617	-1.27396	-0.083704	-0.704857	-0.184534	-0.974793	-0.411176	-0.971425	-0.268545	-1.6264	
4.5166	5	0	-0.721008	-0.212974	-0.114161	-1.24426	0.176768	-0.754488	0.128536	-1.28932	0.0281052	-0.856035	-0.129412	-1.04038	-0.192706	-1.93463	-0.216286	-2.06161	-0.278025	-1.51284	-0.181593	-1.51034	0.167557	-0.684272	-0.214102	-1.27463	-0.082755	-0.707539	-0.183436	-0.977896	-0.409839	-0.975203	-0.266308	-1.63272	
4.51507	5	0	-0.727409	-0.194885	-0.138619	-1.22828	0.172524	-0.742493	0.126319	-1.28305	0.017261	-0.848949	-0.141115	-1.03274	-0.191873	-1.93699	-0.217549	-2.05804	-0.284084	-1.51234	-0.179261	-1.51693	0.169964	-0.691074	-0.222035	-1.27531	-0.081806	-0.71022	-0.182338	-0.980998	-0.408502	-0.978982	-0.264071	-1.63904	
4.5105	5	0	-0.732539	-0.180387	-0.141845	-1.21916	0.166856	-0.726474	0.138706	-1.2815	0.017261	-0.848949	-0.141115	-1.03274	-0.191041	-1.93934	-0.216286	-2.06161	-0.282494	-1.51684	-0.178096	-1.52022	0.173571	-0.701267	-0.219341	-1.28292	-0.0789615	-0.71826	-0.18124	-0.9841	-0.422324	-0.972854	-0.261835	-1.64536	
4.50287	5	0	-0.737669	-0.165889	-0.145071	-1.21004	0.161188	-0.710455	0.151093	-1.27995	0.017261	-0.848949	-0.141115	-1.03274	-0.190208	-1.94169	-0.215023	-2.06518	-0.280903	-1.52133	-0.17693	-1.52352	0.177177	-0.71146	-0.216647	-1.29053	-0.076117	-0.726299	-0.180143	-0.987201	-0.436147	-0.966725	-0.259599	-1.65168	
4.49982	5	0	-0.742798	-0.151392	-0.148297	-1.20092	0.15552	-0.694436	0.16348	-1.27841	0.017261	-0.848949	-0.141115	-1.03274	-0.189375	-1.94405	-0.213759	-2.06875	-0.279313	-1.52583	-0.175765	-1.52681	0.180783	-0.721653	-0.213954	-1.29815	-0.0732725	-0.734339	-0.179045	-0.990302	-0.449969	-0.960596	-0.257364	-1.65799	
4.49524	0	0	-0.747928	-0.136894	-0.151523	-1.19181	0.149852	-0.678417	0.175867	-1.27686	0.017261	-0.848949	-0.141115	-1.03274	-0.188543	-1.9464	-0.212496	-2.07232	-0.277723	-1.53032	-0.1746	-1.5301	0.18439	-0.731846	-0.21126	-1.30576	-0.070428	-0.742379	-0.177948	-0.993404	-0.463792	-0.954468	-0.255128	-1.66431	
4.48761	0	0	-0.751781	-0.126005	-0.154752	-1.18268	0.147014	-0.670397	0.190504	-1.28159	0.0129232	-0.83669	-0.130782	-1.03651	-0.188543	-1.9464	-0.212496	-2.07232	-0.278518	-1.52807	-0.184949	-1.52081	0.183188	-0.728449	-0.212607	-1.30195	-0.0713758	-0.7397	-0.179045	-0.990302	-0.466465	-0.946913	-0.240822	-1.66394	
4.48303	0	0	-0.755634	-0.115116	-0.157982	-1.17355	0.144176	-0.662377	0.205141	-1.28633	0.0085855	-0.824431	-0.12045	-1.04028	-0.188543	-1.9464	-0.212496	-2.07232	-0.279313	-1.52583	-0.195297	-1.51151	0.181986	-0.725053	-0.213953	-1.29815	-0.0723235	-0.737021	-0.180143	-0.987201	-0.469139	-0.939357	-0.226517	-1.66357	
4.4754	0	0	-0.759486	-0.104228	-0.161212	-1.16442	0.141338	-0.654356	0.219777	-1.29107	0.00424775	-0.812172	-0.110117	-1.04406	-0.188543	-1.9464	-0.212496	-2.07232	-0.280108	-1.52358	-0.205645	-1.50222	0.180785	-0.721657	-0.2153	-1.29434	-0.0732712	-0.734341	-0.18124	-0.9841	-0.471813	-0.931801	-0.212211	-1.6632	
4.4693	0	0	-0.763339	-0.093339	-0.164441	-1.1553	0.1385	-0.646336	0.234414	-1.29581	-9E-05	-0.799913	-0.099785	-1.04783	-0.188543	-1.9464	-0.212496	-2.07232	-0.280903	-1.52133	-0.215994	-1.49293	0.179583	-0.71826	-0.216646	-1.29054	-0.074219	-0.731662	-0.182338	-0.980998	-0.474486	-0.924246	-0.197905	-1.66283	
4.46777	0	0	-0.764625	-0.0897065	-0.161212	-1.16442	0.1385	-0.646336	0.217556	-1.28479	0.0020795	-0.806045	-0.108747	-1.04793	-0.186047	-1.95345	-0.217251	-2.08018	-0.284574	-1.52757	-0.211335	-1.50609	0.166204	-0.72517	-0.220534	-1.30261	-0.0848592	-0.72265	-0.190106	-0.980691	-0.475824	-0.920466	-0.197905	-1.66283	
4.46167	0	0	-0.76591	-0.086074	-0.157982	-1.17355	0.1385	-0.646336	0.200698	-1.27377	0.004249	-0.812176	-0.11771	-1.04803	-0.183551	-1.96051	-0.222005	-2.08804	-0.288244	-1.5338	-0.206676	-1.51926	0.152826	-0.732079	-0.224423	-1.31469	-0.0954995	-0.713637	-0.197873	-0.980383	-0.477161	-0.916686	-0.197905	-1.66283	
4.45862	0	0	-0.767195	-0.0824415	-0.154752	-1.18268	0.1385	-0.646336	0.183839	-1.26276	0.0064185	-0.818308	-0.126672	-1.04813	-0.181054	-1.96756	-0.22676	-2.0959	-0.291914	-1.54004	-0.202017	-1.53243	0.139448	-0.738989	-0.228312	-1.32677	-0.10614	-0.704624	-0.205641	-0.980075	-0.478498	-0.912906	-0.197905	-1.66283	
4.45709	0	0	-0.768481	-0.078809	-0.151523	-1.19181	0.1385	-0.646336	0.166981	-1.25174	0.008588	-0.82444	-0.135635	-1.04823	-0.178558	-1.97462	-0.231515	-2.10376	-0.295585	-1.54627	-0.197358	-1.5456	0.126069	-0.745899	-0.2322	-1.33884	-0.11678	-0.695612	-0.213409	-0.979768	-0.479836	-0.909126	-0.197905	-1.66283	
4.45404	0	0	-0.771053	-0.0715395	-0.127065	-1.20779	0.13566	-0.638309	0.164758	-1.24546	0.008588	-0.82444	-0.137005	-1.04435	-0.177726	-1.97697	-0.228994	-2.11089	-0.294791	-1.54852	-0.204204	-1.54618	0.129665	-0.756061	-0.229513	-1.34644	-0.11678	-0.695612	-0.20235	-0.989377	-0.478498	-0.912906	-0.193432	-1.67547	
4.45099	0	0	-0.773625	-0.06427	-0.102607	-1.22377	0.132819	-0.630281	0.162535	-1.23918	0.008588	-0.82444	-0.138375	-1.04048	-0.176895	-1.97932	-0.226473	-2.11801	-0.293996	-1.55076	-0.211051	-1.54676	0.133261	-0.766223	-0.226826	-1.35403	-0.11678	-0.695612	-0.191291	-0.998985	-0.477161	-0.916686	-0.18896	-1.68811	
4.45099	0	0	-0.776198	-0.0570005	-0.0781497	-1.23975	0.129978	-0.622254	0.160312	-1.2329	0.008588	-0.82444	-0.139745	-1.03661	-0.176063	-1.98167	-0.223952	-2.12514	-0.293202	-1.553	-0.217897	-1.54734	0.136856	-0.776385	-0.224139	-1.36162	-0.11678	-0.695612	-0.180232	-1.00859	-0.475824	-0.920466	-0.184487	-1.70075	
4.45099	0	0	-0.77877	-0.049731	-0.053692	-1.25573	0.127138	-0.614226	0.158089	-1.22661	0.008588	-0.82444	-0.141115	-1.03274	-0.175231	-1.98402	-0.221431	-2.13226	-0.292408	-1.55525	-0.224743	-1.54792	0.140452	-0.786547	-0.221452	-1.36922	-0.11678	-0.695612	-0.169173	-1.0182	-0.474486	-0.924246	-0.180014	-1.71339	
4.45099	0	0	-0.780057	-0.046094	-0.0781497	-1.23975	0.125717	-0.61021	0.158089	-1.22661	0.00533325	-0.815241	-0.129412	-1.04038	-0.175231	-1.98402	-0.221431	-2.13226	-0.299251	-1.5525	-0.224743	-1.54792	0.128981	-0.776448	-0.232055	-1.36229	-0.108985	-0.696583	-0.169173	-1.0182	-0.4785	-0.912901	-0.18225	-1.70708	
4.45099	0	0	-0.781343	-0.042457	-0.102607	-1.22377	0.124296	-0.606193	0.158089	-1.22661	0.0020785	-0.806042	-0.117709	-1.04803	-0.175231	-1.98402	-0.221431	-2.13226	-0.306094	-1.54975	-0.224743	-1.54792	0.11751	-0.76635	-0.242658	-1.35536	-0.101191	-0.697553	-0.169173	-1.0182	-0.482515	-0.901555	-0.184485	-1.70076	
4.45404	0	0	-0.78263	-0.03882	-0.127065	-1.20779	0.122875	-0.602177	0.158089	-1.22661	-0.00117625	-0.796843	-0.106006	-1.05568	-0.175231	-1.98402	-0.221431	-2.13226	-0.312938	-1.54701	-0.224743	-1.54792	0.10604	-0.756251	-0.25326	-1.34843	-0.0933965	-0.698524	-0.169173	-1.0182	-0.48653	-0.89021	-0.186721	-1.69444	
4.45404	5	0	-0.783917	-0.035183	-0.151523	-1.19181	0.121454	-0.59816	0.158089	-1.22661	-0.004431	-0.787644	-0.094303	-1.06333	-0.175231	-1.98402	-0.221431	-2.13226	-0.319781	-1.54426	-0.224743	-1.54792	0.094569	-0.746153	-0.263863	-1.34151	-0.085602	-0.699495	-0.169173	-1.0182	-0.490544	-0.878865	-0.188956	-1.68812	
4.46167	5	0	-0.78263	-0.03882	-0.151523	-1.19181	0.124296	-0.606191	0.141264	-1.21562	-0.00226075	-0.793778	-0.103266	-1.06342	-0.173568	-1.98872	-0.226187	-2.1401	-0.32503	-1.546	-0.220094	-1.56106	0.098162	-0.756307	-0.259837	-1.35289	-0.0933965	-0.698524	-0.166981	-1.0244	-0.489205	-0.882648	-0.203265	-1.68848	
4.46472	5	0	-0.781343	-0.042457	-0.151523	-1.19181	0.127138	-0.614222	0.124439	-1.20463	-9.05E-05	-0.799911	-0.11223	-1.06352	-0.171905	-1.99342	-0.230942	-2.14793	-0.33028	-1.54774	-0.215446	-1.5742	0.101755	-0.766461	-0.25581	-1.36426	-0.101191	-0.697553	-0.164789	-1.03059	-0.487866	-0.886432	-0.217574	-1.68884	
4.46167	5	0	-0.780057	-0.046094	-0.151523	-1.19181	0.129979	-0.622253	0.107613	-1.19363	0.00207975	-0.806045	-0.121193	-1.06361	-0.170243	-1.99812	-0.235698	-2.15576	-0.335529	-1.54949	-0.210797	-1.58734	0.105348	-0.776616	-0.251784	-1.37564	-0.108985	-0.696583	-0.162597	-1.03679	-0.486528	-0.890216	-0.231883	-1.68921	
4.46625	5	0	-0.77877	-0.049731	-0.151523	-1.19181	0.132821	-0.630284	0.090788	-1.18264	0.00425	-0.812179	-0.130157	-1.06371	-0.16858	-2.00282	-0.240454	-2.1636	-0.340779	-1.55123	-0.206148	-1.60048	0.108941	-0.78677	-0.247758	-1.38702	-0.11678	-0.695612	-0.160405	-1.04298	-0.485189	-0.893999	-0.246192	-1.68957	
4.47082	5	0	-0.77877	-0.049731	-0.151523	-1.19181	0.12037	-0.622148	0.107613	-1.19363	0.0053345	-0.815244	-0.130157	-1.06371	-0.174874	-2.00231	-0.239196	-2.16715	-0.332356	-1.55845	-0.220983	-1.59835	0.108941	-0.78677	-0.255667	-1.38768	-0.114884	-0.700971	-0.169272	-1.03957	-0.481176	-0.905339	-0.241729	-1.70218	
4.47082	5	0	-0.77877	-0.049731	-0.151523	-1.19181	0.107919	-0.614013	0.124439	-1.20463	0.006419	-0.81831	-0.130157	-1.06371	-0.181168	-2.00181	-0.237938	-2.17071	-0.323933	-1.56568	-0.235818	-1.59622	0.108941	-0.78677	-0.263575	-1.38834	-0.112987	-0.70633	-0.178138	-1.03616	-0.477163	-0.916679	-0.237265	-1.71479	
4.47388	5	0	-0.77877	-0.049731	-0.151523	-1.19181	0.095468	-0.605877	0.141264	-1.21562	0.0075035	-0.821375	-0.130157	-1.06371	-0.187462	-2.00131	-0.236681	-2.17426	-0.31551	-1.57291	-0.250654	-1.59409	0.108941	-0.78677	-0.271483	-1.389	-0.111091	-0.711688	-0.187005	-1.03274	-0.473151	-0.92802	-0.232802	-1.72741	
4.47693	5	0	-0.77877	-0.049731	-0.151523	-1.19181	0.083017	-0.597742	0.158089	-1.22661	0.008588	-0.82444	-0.130157	-1.06371	-0.193756	-2.00081	-0.235423	-2.17782	-0.307087	-1.58014	-0.265489	-1.59197	0.108941	-0.78677	-0.279392	-1.38966	-0.109195	-0.717047	-0.195872	-1.02933	-0.469138	-0.93936	-0.228339	-1.74002	
4.47693	5	0	-0.785853	-0.0534837	-0.123839	-1.2169	0.0872747	-0.609775	0.145708	-1.22818	-0.0022425	-0.817363	-0.128788	-1.06758	-0.198384	-2.005	-0.231653	-2.18847	-0.312339	-1.58187	-0.26317	-1.59852	0.106546	-0.780002	-0.279392	-1.38966	-0.108247	-0.719725	-0.184814	-1.03893	-0.469138	-0.93936	-0.23057	-1.73372	
4.47693	5	0	-0.792937	-0.0572365	-0.0961555	-1.242	0.0915325	-0.621808	0.133327	-1.22975	-0.013073	-0.810286	-0.127419	-1.07144	-0.203011	-2.00919	-0.227883	-2.19913	-0.317591	-1.58361	-0.26085	-1.60507	0.104151	-0.773233	-0.279392	-1.38966	-0.107299	-0.722403	-0.173757	-1.04854	-0.469138	-0.93936	-0.232801	-1.72741	
4.4754	5	0	-0.800021	-0.0609892	-0.0684717	-1.2671	0.0957902	-0.633841	0.120947	-1.23131	-0.0239035	-0.803209	-0.126051	-1.07531	-0.207639	-2.01338	-0.224113	-2.20978	-0.322843	-1.58534	-0.258531	-1.61163	0.101756	-0.766465	-0.279392	-1.38966	-0.106352	-0.725082	-0.162699	-1.05814	-0.469138	-0.93936	-0.235032	-1.72111	
4.47693	5	0	-0.807104	-0.064742	-0.040788	-1.2922	0.100048	-0.645874	0.108566	-1.23288	-0.034734	-0.796132	-0.124682	-1.07918	-0.212266	-2.01758	-0.220343	-2.22044	-0.328095	-1.58708	-0.256212	-1.61818	0.099361	-0.759697	-0.279392	-1.38966	-0.105404	-0.72776	-0.151642	-1.06775	-0.469138	-0.93936	-0.237263	-1.7148	
4.4754	5	0	-0.801968	-0.0792573	-0.037565	-1.30131	0.0918672	-0.649767	0.127611	-1.25015	-0.0303995	-0.808383	-0.120579	-1.09078	-0.207291	-2.03164	-0.234873	-2.22185	-0.331759	-1.59328	-0.250421	-1.63455	0.0938888	-0.766524	-0.272698	-1.40857	-0.108459	-0.740159	-0.166085	-1.0702	-0.480263	-0.940798	-0.247086	-1.72775	
4.47235	5	0	-0.796832	-0.0937725	-0.034342	-1.31042	0.0836865	-0.65366	0.146656	-1.26741	-0.026065	-0.820633	-0.116476	-1.10237	-0.202316	-2.0457	-0.249402	-2.22326	-0.335423	-1.59949	-0.244631	-1.65091	0.0884165	-0.773351	-0.266005	-1.42749	-0.111514	-0.752559	-0.180528	-1.07264	-0.491387	-0.942237	-0.25691	-1.7407	
4.47082	5	0	-0.791696	-0.108288	-0.031119	-1.31952	0.0755057	-0.657553	0.165701	-1.28468	-0.0217305	-0.832883	-0.112373	-1.11397	-0.197341	-2.05976	-0.263931	-2.22467	-0.339087	-1.6057	-0.23884	-1.66728	0.0829442	-0.780178	-0.259312	-1.44641	-0.11457	-0.764958	-0.194971	-1.07509	-0.502512	-0.943676	-0.266734	-1.75365	
4.46625	5	0	-0.78656	-0.122803	-0.027896	-1.32863	0.067325	-0.661446	0.184746	-1.30195	-0.017396	-0.845134	-0.10827	-1.12556	-0.192366	-2.07382	-0.278461	-2.22609	-0.342751	-1.61191	-0.233049	-1.68365	0.077472	-0.787005	-0.252618	-1.46532	-0.117625	-0.777358	-0.209414	-1.07754	-0.513637	-0.945114	-0.276557	-1.7666	
4.4693	5	0	-0.794922	-0.122912	-0.0491343	-1.32175	0.068741	-0.665448	0.170139	-1.29723	-0.0152307	-0.851253	-0.117225	-1.12565	-0.196167	-2.08033	-0.274702	-2.23671	-0.339587	-1.62085	-0.237568	-1.69074	0.0901235	-0.800467	-0.251281	-1.4691	-0.113845	-0.788041	-0.205045	-1.08989	-0.509634	-0.956426	-0.274332	-1.77288	
4.46625	5	0	-0.803284	-0.123021	-0.0703725	-1.31487	0.070157	-0.66945	0.155532	-1.2925	-0.0130655	-0.857371	-0.126179	-1.12574	-0.199968	-2.08684	-0.270942	-2.24734	-0.336423	-1.62979	-0.242087	-1.69784	0.102775	-0.813929	-0.249944	-1.47288	-0.110065	-0.798723	-0.200676	-1.10223	-0.505632	-0.967737	-0.272108	-1.77917	
4.46167	5	0	-0.811647	-0.123129	-0.0916108	-1.30799	0.071573	-0.673452	0.140926	-1.28778	-0.0109003	-0.86349	-0.135133	-1.12582	-0.20377	-2.09335	-0.267182	-2.25796	-0.333259	-1.63874	-0.246606	-1.70493	0.115427	-0.827392	-0.248607	-1.47666	-0.106286	-0.809405	-0.196306	-1.11458	-0.501629	-0.979048	-0.269883	-1.78546	
4.46014	5	0	-0.820009	-0.123238	-0.112849	-1.3011	0.072989	-0.677454	0.126319	-1.28305	-0.008735	-0.869609	-0.144088	-1.12591	-0.207571	-2.09986	-0.263423	-2.26859	-0.330095	-1.64768	-0.251125	-1.71203	0.128078	-0.840854	-0.24727	-1.48044	-0.102506	-0.820088	-0.191937	-1.12693	-0.497627	-0.99036	-0.267659	-1.79174	
4.45557	5	0	-0.813606	-0.141335	-0.112849	-1.3011	0.078647	-0.693445	0.130751	-1.29558	-0.01847	-0.865599	-0.141358	-1.13362	-0.210544	-2.1087	-0.269426	-2.27282	-0.334551	-1.65163	-0.256795	-1.71585	0.115427	-0.827392	-0.245933	-1.48421	-0.100618	-0.825425	-0.200785	-1.12352	-0.481162	-1.00402	-0.265436	-1.79803	
4.44946	5	0	-0.807203	-0.159431	-0.112849	-1.3011	0.084305	-0.709435	0.135182	-1.3081	-0.028205	-0.861589	-0.138628	-1.14134	-0.213517	-2.11753	-0.275429	-2.27706	-0.339006	-1.65559	-0.262465	-1.71967	0.102775	-0.813929	-0.244597	-1.48799	-0.0987295	-0.830761	-0.209632	-1.12011	-0.464696	-1.01767	-0.263213	-1.80431	
4.45251	5	0	-0.8008	-0.177528	-0.112849	-1.3011	0.089963	-0.725425	0.139614	-1.32063	-0.03794	-0.857579	-0.135898	-1.14905	-0.21649	-2.12637	-0.281431	-2.2813	-0.343462	-1.65955	-0.268135	-1.72349	0.0901235	-0.800467	-0.24326	-1.49177	-0.0968412	-0.836098	-0.21848	-1.1167	-0.448231	-1.03133	-0.26099	-1.81059	
4.44946	5	0	-0.794397	-0.195624	-0.112849	-1.3011	0.095621	-0.741416	0.144046	-1.33315	-0.047675	-0.853569	-0.133168	-1.15677	-0.219463	-2.13521	-0.287434	-2.28553	-0.347918	-1.6635	-0.273805	-1.72732	0.077472	-0.787005	-0.241924	-1.49554	-0.094953	-0.841434	-0.227328	-1.11329	-0.431766	-1.04498	-0.258767	-1.81688	
4.44183	5	0	-0.802752	-0.195721	-0.10642	-1.31927	0.087443	-0.745278	0.148472	-1.34566	-0.0433508	-0.86579	-0.140749	-1.1607	-0.222436	-2.14402	-0.290932	-2.29683	-0.343183	-1.67688	-0.277164	-1.73765	0.0925128	-0.80722	-0.248495	-1.49995	-0.089295	-0.857424	-0.221877	-1.12869	-0.442902	-1.04639	-0.254326	-1.82943	
4.44336	5	0	-0.811108	-0.195819	-0.0999905	-1.33744	0.079265	-0.749139	0.152898	-1.35817	-0.0390265	-0.878011	-0.14833	-1.16464	-0.22541	-2.15284	-0.294431	-2.30812	-0.338448	-1.69027	-0.280523	-1.74798	0.107553	-0.827435	-0.255066	-1.50436	-0.083637	-0.873414	-0.216426	-1.1441	-0.454039	-1.04779	-0.249885	-1.84198	
4.44336	5	0	-0.819464	-0.195916	-0.0935612	-1.35561	0.071087	-0.753001	0.157323	-1.37068	-0.0347023	-0.890232	-0.15591	-1.16857	-0.228384	-2.16166	-0.297929	-2.31941	-0.333712	-1.70365	-0.283882	-1.75831	0.122594	-0.84765	-0.261637	-1.50877	-0.077979	-0.889405	-0.210975	-1.15951	-0.465176	-1.0492	-0.245443	-1.85453	
4.44031	5	0	-0.827819	-0.196013	-0.087132	-1.37378	0.062909	-0.756863	0.161749	-1.38318	-0.030378	-0.902453	-0.163491	-1.1725	-0.231357	-2.17048	-0.301427	-2.3307	-0.328977	-1.71703	-0.287241	-1.76864	0.137635	-0.867865	-0.268208	-1.51319	-0.072321	-0.905395	-0.205524	-1.17491	-0.476312	-1.0506	-0.241002	-1.86708	
4.43878	5	0	-0.827819	-0.196013	-0.087132	-1.37378	0.0753238	-0.764975	0.161749	-1.38318	-0.030378	-0.902453	-0.150457	-1.18398	-0.228884	-2.17747	-0.300179	-2.33423	-0.325824	-1.72594	-0.284938	-1.77515	0.128569	-0.864535	-0.266874	-1.51696	-0.0694957	-0.91338	-0.213274	-1.17458	-0.473651	-1.05812	-0.236567	-1.87962	
4.43725	5	0	-0.827819	-0.196013	-0.087132	-1.37378	0.0877385	-0.773087	0.161749	-1.38318	-0.030378	-0.902453	-0.137424	-1.19546	-0.22641	-2.18446	-0.29893	-2.33775	-0.322671	-1.73485	-0.282635	-1.78166	0.119503	-0.861206	-0.26554	-1.52073	-0.0666705	-0.921364	-0.221024	-1.17425	-0.47099	-1.06564	-0.232132	-1.89215	
4.43268	5	0	-0.827819	-0.196013	-0.087132	-1.37378	0.100153	-0.7812	0.161749	-1.38318	-0.030378	-0.902453	-0.124391	-1.20693	-0.223936	-2.19145	-0.297682	-2.34128	-0.319519	-1.74376	-0.280332	-1.78817	0.110436	-0.857876	-0.264205	-1.5245	-0.0638452	-0.929348	-0.228773	-1.17392	-0.468329	-1.07316	-0.227697	-1.90468	
4.42963	5	0	-0.827819	-0.196013	-0.087132	-1.37378	0.112568	-0.789312	0.161749	-1.38318	-0.030378	-0.902453	-0.111357	-1.21841	-0.221463	-2.19844	-0.296434	-2.34481	-0.316366	-1.75267	-0.278029	-1.79468	0.10137	-0.854546	-0.262871	-1.52827	-0.06102	-0.937333	-0.236523	-1.17358	-0.465668	-1.08068	-0.223262	-1.91722	
4.4281	5	0	-0.826541	-0.199625	-0.11152	-1.35785	0.111157	-0.785322	0.161749	-1.38318	-0.0314585	-0.899399	-0.111357	-1.21841	-0.227734	-2.19792	-0.295186	-2.34834	-0.315578	-1.7549	-0.278029	-1.79468	0.110436	-0.857876	-0.264205	-1.5245	-0.0629032	-0.932011	-0.226596	-1.18007	-0.451866	-1.08681	-0.241959	-1.905	
4.42505	5	0	-0.825263	-0.203237	-0.135908	-1.34191	0.109745	-0.781332	0.161749	-1.38318	-0.032539	-0.896346	-0.111357	-1.21841	-0.234005	-2.19741	-0.293938	-2.35186	-0.31479	-1.75713	-0.278029	-1.79468	0.119503	-0.861206	-0.26554	-1.52073	-0.0647865	-0.926689	-0.216668	-1.18656	-0.438064	-1.09294	-0.260655	-1.89278	
4.42352	5	0	-0.823985	-0.206849	-0.160297	-1.32598	0.108333	-0.777343	0.161749	-1.38318	-0.0336195	-0.893292	-0.111357	-1.21841	-0.240276	-2.19689	-0.292691	-2.35539	-0.314003	-1.75935	-0.278029	-1.79468	0.128569	-0.864535	-0.266874	-1.51696	-0.0666697	-0.921366	-0.20674	-1.19304	-0.424261	-1.09907	-0.279352	-1.88057	
4.41742	5	0	-0.822707	-0.210461	-0.184685	-1.31004	0.106922	-0.773353	0.161749	-1.38318	-0.0347	-0.890238	-0.111357	-1.21841	-0.246547	-2.19637	-0.291443	-2.35892	-0.313215	-1.76158	-0.278029	-1.79468	0.137635	-0.867865	-0.268208	-1.51319	-0.068553	-0.916044	-0.196813	-1.19953	-0.410459	-1.1052	-0.298049	-1.86835	
4.42047	5	0	-0.831052	-0.210559	-0.157087	-1.33505	0.0973298	-0.773218	0.161749	-1.38318	-0.0433427	-0.889285	-0.121666	-1.21463	-0.243254	-2.20568	-0.287703	-2.36949	-0.310853	-1.76825	-0.274577	-1.80443	0.130956	-0.87128	-0.26554	-1.52072	-0.0704373	-0.910719	-0.20674	-1.19304	-0.442028	-1.08168	-0.279352	-1.88057	
4.41742	5	0	-0.839397	-0.210656	-0.129489	-1.36005	0.0877375	-0.773084	0.161749	-1.38318	-0.0519855	-0.888332	-0.131975	-1.21086	-0.23996	-2.21499	-0.283963	-2.38006	-0.308491	-1.77493	-0.271126	-1.81419	0.124276	-0.874696	-0.262873	-1.52826	-0.0723215	-0.905393	-0.216668	-1.18656	-0.473597	-1.05816	-0.260655	-1.89278	
