2.78931	0	0	0.130857	0.597483	0.828892	1.23122	-0.194226	-0.109039	-0.219505	0.889607	0.318928	0.538682	-0.276676	1.3012	0.005884	0.074463	-0.176454	0.236813	-0.088795	0.092745	-0.215994	0.458164	-0.002201	0.028478	0.220653	0.165818	-0.067838	-0.07653	0.12742	0.142581	0.004502	-0.143874	0.273018	-0.138615	
2.79083	0	0	0.126094	0.580733	0.803604	1.19595	-0.193387	-0.111411	-0.181026	0.866414	0.307292	0.527692	-0.22698	1.26873	0.0015145	0.0670075	-0.146765	0.221828	-0.088795	0.092745	-0.190332	0.450481	-0.002201	0.028478	0.211001	0.16612	-0.067838	-0.07653	0.11822	0.142331	0.0079055	-0.153492	0.273018	-0.138615	
2.78778	0	0	0.121331	0.563983	0.778316	1.16068	-0.192547	-0.113783	-0.142546	0.843222	0.295655	0.516702	-0.177285	1.23626	-0.002855	0.059552	-0.117076	0.206842	-0.088795	0.092745	-0.16467	0.442799	-0.002201	0.028478	0.20135	0.166423	-0.067838	-0.07653	0.109019	0.142082	0.011309	-0.16311	0.273018	-0.138615	
2.78625	0	0	0.116567	0.547233	0.753028	1.12541	-0.191708	-0.116156	-0.104067	0.820029	0.284019	0.505711	-0.12759	1.20378	-0.0072245	0.0520965	-0.087387	0.191856	-0.088795	0.092745	-0.139009	0.435117	-0.002201	0.028478	0.191698	0.166725	-0.067838	-0.07653	0.0998185	0.141832	0.0147125	-0.172729	0.273018	-0.138615	
2.78625	0	0	0.111804	0.530483	0.72774	1.09014	-0.190868	-0.118528	-0.065587	0.796836	0.272383	0.494721	-0.077894	1.17131	-0.011594	0.044641	-0.057698	0.176871	-0.088795	0.092745	-0.113347	0.427434	-0.002201	0.028478	0.182047	0.167027	-0.067838	-0.07653	0.090618	0.141582	0.018116	-0.182347	0.273018	-0.138615	
2.78625	0	0	0.11007	0.505222	0.704026	1.05103	-0.198266	-0.11734	-0.0391808	0.773731	0.266093	0.468723	-0.039496	1.12788	-0.004016	0.0232248	-0.039762	0.160738	-0.0864443	0.086101	-0.096713	0.41293	0.0045225	0.00947675	0.179303	0.147846	-0.0859425	-0.0647003	0.096374	0.125315	0.0680977	-0.229771	0.258852	-0.142978	
2.78168	0	0	0.108335	0.479962	0.680312	1.01192	-0.205664	-0.116152	-0.0127745	0.750626	0.259803	0.442724	-0.001098	1.08445	0.003562	0.0018085	-0.021826	0.144604	-0.0840935	0.079457	-0.080079	0.398425	0.011246	-0.0095245	0.176559	0.128666	-0.104047	-0.0528705	0.10213	0.109048	0.11808	-0.277195	0.244685	-0.147342	
2.77862	0	0	0.106601	0.454701	0.656598	0.972813	-0.213062	-0.114965	0.0136317	0.727521	0.253514	0.416725	0.0373	1.04102	0.01114	-0.0196077	-0.00389	0.12847	-0.0817428	0.072813	-0.063445	0.38392	0.0179695	-0.0285258	0.173816	0.109485	-0.122151	-0.0410408	0.107886	0.092781	0.168061	-0.32462	0.230518	-0.151705	
2.77862	0	0	0.104866	0.42944	0.632884	0.933703	-0.22046	-0.113777	0.040038	0.704416	0.247224	0.390727	0.075698	0.997586	0.018718	-0.041024	0.014046	0.112337	-0.079392	0.066169	-0.046811	0.369416	0.024693	-0.047527	0.171072	0.090305	-0.140256	-0.029211	0.113642	0.076514	0.218043	-0.372044	0.216352	-0.156068	
2.77862	0	0	0.100086	0.412834	0.611122	0.916003	-0.212223	-0.117336	0.0708613	0.686225	0.245666	0.373283	0.089919	0.979141	0.0042995	-0.0398205	0.016076	0.106599	-0.0864803	0.0673975	-0.0376485	0.359795	0.009312	-0.0411238	0.177949	0.0708695	-0.120126	-0.0467637	0.108757	0.0641058	0.181638	-0.36299	0.209908	-0.160016	
2.77557	0	0	0.0953065	0.396227	0.58936	0.898304	-0.203985	-0.120896	0.101685	0.668034	0.244108	0.355839	0.10414	0.960697	-0.010119	-0.038617	0.018106	0.100862	-0.0935685	0.068626	-0.028486	0.350174	-0.006069	-0.0347205	0.184826	0.051434	-0.099997	-0.0643165	0.103872	0.0516975	0.145232	-0.353935	0.203464	-0.163965	
2.77099	0	0	0.0905268	0.379621	0.567598	0.880605	-0.195748	-0.124455	0.132508	0.649843	0.24255	0.338394	0.118361	0.942252	-0.0245375	-0.0374135	0.020136	0.0951245	-0.100657	0.0698545	-0.0193235	0.340554	-0.02145	-0.0283172	0.191703	0.0319985	-0.0798675	-0.0818693	0.0989862	0.0392892	0.108827	-0.344881	0.19702	-0.167913	
2.77405	0	0	0.085747	0.363015	0.545836	0.862905	-0.187511	-0.128015	0.163331	0.631652	0.240992	0.32095	0.132582	0.923808	-0.038956	-0.03621	0.022166	0.089387	-0.107745	0.071083	-0.010161	0.330933	-0.036831	-0.021914	0.19858	0.012563	-0.059738	-0.099422	0.094101	0.026881	0.072422	-0.335827	0.190576	-0.171861	
2.77252	0	0	0.0779485	0.354989	0.533324	0.845652	-0.197427	-0.119713	0.17128	0.626458	0.234129	0.318524	0.135387	0.91588	-0.0289157	-0.0448233	0.0142103	0.0945855	-0.100657	0.0698545	-0.0143437	0.342754	-0.02145	-0.0283172	0.187575	0.0167697	-0.059738	-0.099422	0.08492	0.0266497	0.115608	-0.364046	0.190576	-0.171861	
2.76642	0	0	0.07015	0.346963	0.520811	0.828399	-0.207342	-0.11141	0.179228	0.621264	0.227266	0.316098	0.138192	0.907952	-0.0188755	-0.0534365	0.0062545	0.099784	-0.0935685	0.068626	-0.0185265	0.354575	-0.006069	-0.0347205	0.176569	0.0209765	-0.059738	-0.099422	0.075739	0.0264185	0.158795	-0.392265	0.190576	-0.171861	
2.76642	0	0	0.0623515	0.338938	0.508299	0.811146	-0.217258	-0.103108	0.187176	0.616071	0.220402	0.313671	0.140997	0.900025	-0.00883525	-0.0620498	-0.00170125	0.104983	-0.0864803	0.0673975	-0.0227093	0.366395	0.009312	-0.0411238	0.165564	0.0251833	-0.059738	-0.099422	0.066558	0.0261872	0.201981	-0.420483	0.190576	-0.171861	
2.76489	0	0	0.054553	0.330912	0.495787	0.793893	-0.227173	-0.094806	0.195125	0.610877	0.213539	0.311245	0.143802	0.892097	0.001205	-0.070663	-0.009657	0.110181	-0.079392	0.066169	-0.026892	0.378216	0.024693	-0.047527	0.154558	0.02939	-0.059738	-0.099422	0.057377	0.025956	0.245167	-0.448702	0.190576	-0.171861	
2.76337	0	0	0.0467652	0.322904	0.490997	0.781177	-0.228852	-0.0900607	0.195125	0.610877	0.206684	0.30882	0.146605	0.884176	-0.00694575	-0.0673892	-0.0086425	0.107314	-0.0801753	0.068383	-0.0285665	0.382949	0.009312	-0.0411238	0.144942	0.029708	-0.0637892	-0.0879725	0.057377	0.025956	0.238386	-0.429538	0.179138	-0.161669	
2.75726	0	0	0.0389775	0.314897	0.486208	0.768461	-0.230531	-0.0853155	0.195125	0.610877	0.199829	0.306395	0.149408	0.876256	-0.0150965	-0.0641155	-0.007628	0.104446	-0.0809585	0.070597	-0.030241	0.387682	-0.006069	-0.0347205	0.135327	0.030026	-0.0678405	-0.076523	0.057377	0.025956	0.231605	-0.410373	0.1677	-0.151476	
2.76031	0	0	0.0311897	0.306889	0.481419	0.755746	-0.23221	-0.0805703	0.195125	0.610877	0.192975	0.303971	0.15221	0.868335	-0.0232473	-0.0608417	-0.0066135	0.101578	-0.0817418	0.072811	-0.0319155	0.392414	-0.02145	-0.0283172	0.125711	0.030344	-0.0718918	-0.0650735	0.057377	0.025956	0.224824	-0.391208	0.156261	-0.141284	
2.75574	0	0	0.023402	0.298881	0.476629	0.74303	-0.233889	-0.075825	0.195125	0.610877	0.18612	0.301546	0.155013	0.860414	-0.031398	-0.057568	-0.005599	0.098711	-0.082525	0.075025	-0.03359	0.397147	-0.036831	-0.021914	0.116095	0.030662	-0.075943	-0.053624	0.057377	0.025956	0.218043	-0.372044	0.144823	-0.131091	
2.75879	0	0	0.024907	0.294627	0.452515	0.758787	-0.219088	-0.0781943	0.205655	0.615706	0.185061	0.304538	0.163633	0.857826	-0.0232473	-0.0608417	-0.0076285	0.104447	-0.082525	0.075025	-0.0352655	0.401882	-0.036831	-0.021914	0.116095	0.030662	-0.075943	-0.053624	0.057377	0.025956	0.224824	-0.391208	0.134648	-0.124443	
2.75574	0	0	0.026412	0.290374	0.428401	0.774543	-0.204287	-0.0805635	0.216185	0.620536	0.184003	0.30753	0.172252	0.855238	-0.0150965	-0.0641155	-0.009658	0.110182	-0.082525	0.075025	-0.036941	0.406617	-0.036831	-0.021914	0.116095	0.030662	-0.075943	-0.053624	0.057377	0.025956	0.231605	-0.410373	0.124473	-0.117794	
2.75116	0	0	0.027917	0.28612	0.404288	0.790299	-0.189485	-0.0829327	0.226714	0.625366	0.182944	0.310523	0.180871	0.85265	-0.00694575	-0.0673892	-0.0116875	0.115918	-0.082525	0.075025	-0.0386165	0.411353	-0.036831	-0.021914	0.116095	0.030662	-0.075943	-0.053624	0.057377	0.025956	0.238386	-0.429538	0.114298	-0.111146	
2.74963	0	0	0.029422	0.281867	0.380174	0.806056	-0.174684	-0.085302	0.237244	0.630195	0.181885	0.313515	0.189491	0.850062	0.001205	-0.070663	-0.013717	0.121654	-0.082525	0.075025	-0.040292	0.416088	-0.036831	-0.021914	0.116095	0.030662	-0.075943	-0.053624	0.057377	0.025956	0.245167	-0.448702	0.104123	-0.104497	
2.74658	0	0	0.0171332	0.286628	0.38163	0.80194	-0.184611	-0.0769893	0.235446	0.635278	0.179766	0.319503	0.183881	0.865917	-0.00068475	-0.0653217	-0.0167638	0.130265	-0.0848765	0.0816708	-0.0436457	0.425566	-0.0418695	-0.0076745	0.0996328	0.0503685	-0.0779705	-0.0478937	0.042478	0.0419215	0.201981	-0.420483	0.1168	-0.118217	
2.74811	0	0	0.0048445	0.291389	0.383087	0.797823	-0.194537	-0.0686765	0.233647	0.64036	0.177648	0.325491	0.17827	0.881773	-0.0025745	-0.0599805	-0.0198105	0.138875	-0.087228	0.0883165	-0.0469995	0.435044	-0.046908	0.006565	0.0831705	0.070075	-0.079998	-0.0421635	0.027579	0.057887	0.158795	-0.392265	0.129477	-0.131936	
2.74963	5	0	-0.00744425	0.29615	0.384544	0.793706	-0.204463	-0.0603638	0.231849	0.645443	0.175529	0.331478	0.172659	0.897628	-0.00446425	-0.0546393	-0.0228572	0.147486	-0.0895795	0.0949622	-0.0503533	0.444521	-0.0519465	0.0208045	0.0667082	0.0897815	-0.0820255	-0.0364333	0.01268	0.0738525	0.115608	-0.364046	0.142154	-0.145655	
2.75268	5	0	-0.019733	0.300911	0.386	0.78959	-0.21439	-0.052051	0.23005	0.650526	0.17341	0.337466	0.167049	0.913483	-0.006354	-0.049298	-0.025904	0.156096	-0.091931	0.101608	-0.053707	0.453999	-0.056985	0.035044	0.050246	0.109488	-0.084053	-0.030703	-0.002219	0.089818	0.072422	-0.335827	0.154831	-0.159375	
2.75574	5	0	-0.0274935	0.292923	0.379788	0.781005	-0.221785	-0.050872	0.231849	0.645443	0.168684	0.329052	0.179888	0.898997	-0.0107268	-0.056702	-0.0308057	0.152679	-0.0816998	0.0915163	-0.054546	0.45637	-0.056985	0.035044	0.0557122	0.120858	-0.086082	-0.024969	0.00694225	0.0900678	0.072422	-0.335827	0.145906	-0.15626	
2.75116	5	0	-0.035254	0.284935	0.373576	0.77242	-0.22918	-0.049693	0.233647	0.64036	0.163957	0.320638	0.192726	0.88451	-0.0150995	-0.064106	-0.0357075	0.149263	-0.0714685	0.0814245	-0.055385	0.458742	-0.056985	0.035044	0.0611785	0.132228	-0.088111	-0.019235	0.0161035	0.0903175	0.072422	-0.335827	0.136982	-0.153144	
2.74963	5	0	-0.0430145	0.276947	0.367364	0.763835	-0.236575	-0.048514	0.235446	0.635278	0.15923	0.312224	0.205565	0.870024	-0.0194722	-0.07151	-0.0406092	0.145846	-0.0612373	0.0713328	-0.056224	0.461113	-0.056985	0.035044	0.0666448	0.143598	-0.09014	-0.013501	0.0252647	0.0905672	0.072422	-0.335827	0.128057	-0.150029	
2.74353	5	0	-0.050775	0.268959	0.361152	0.75525	-0.24397	-0.047335	0.237244	0.630195	0.154504	0.30381	0.218404	0.855538	-0.023845	-0.078914	-0.045511	0.142429	-0.051006	0.061241	-0.057063	0.463484	-0.056985	0.035044	0.072111	0.154968	-0.092169	-0.007767	0.034426	0.090817	0.072422	-0.335827	0.119132	-0.146914	
2.74353	5	0	-0.0600238	0.265224	0.335317	0.75006	-0.234894	-0.0532655	0.237244	0.630195	0.158733	0.291859	0.212577	0.85021	-0.0210148	-0.0869127	-0.060371	0.149934	-0.0502225	0.0590262	-0.0695205	0.466157	-0.0399255	0.023897	0.0707337	0.15886	-0.0740263	-0.019622	0.02383	0.094622	0.118994	-0.373613	0.115213	-0.157919	
2.73437	5	0	-0.0692725	0.26149	0.309481	0.744869	-0.225818	-0.059196	0.237244	0.630195	0.162962	0.279907	0.206749	0.844881	-0.0181845	-0.0949115	-0.075231	0.157438	-0.049439	0.0568115	-0.081978	0.46883	-0.022866	0.01275	0.0693565	0.162752	-0.0558835	-0.031477	0.013234	0.098427	0.165565	-0.411398	0.111294	-0.168924	
2.74353	5	0	-0.0785213	0.257755	0.283646	0.739679	-0.216741	-0.0651265	0.237244	0.630195	0.167191	0.267956	0.200922	0.839552	-0.0153542	-0.10291	-0.090091	0.164943	-0.0486555	0.0545967	-0.0944355	0.471502	-0.0058065	0.001603	0.0679792	0.166645	-0.0377408	-0.043332	0.002638	0.102232	0.212137	-0.449183	0.107374	-0.179929	
2.7359	5	0	-0.08777	0.25402	0.257811	0.734489	-0.207665	-0.071057	0.237244	0.630195	0.17142	0.256005	0.195095	0.834224	-0.012524	-0.110909	-0.104951	0.172448	-0.047872	0.052382	-0.106893	0.474175	0.011253	-0.009544	0.066602	0.170537	-0.019598	-0.055187	-0.007958	0.106037	0.258708	-0.486969	0.103455	-0.190934	
2.73132	5	0	-0.0847732	0.245551	0.254528	0.717772	-0.220946	-0.0532427	0.243416	0.630069	0.163523	0.256575	0.203726	0.831628	-0.0216098	-0.104972	-0.106981	0.178185	-0.0502232	0.0590275	-0.111088	0.48603	0.00957175	-0.0047925	0.066602	0.170537	-0.0357118	-0.049066	-0.002223	0.089829	0.268842	-0.515608	0.0844125	-0.181201	
2.73285	5	0	-0.0817765	0.237082	0.251245	0.701056	-0.234228	-0.0354285	0.249589	0.629944	0.155627	0.257146	0.212357	0.829033	-0.0306955	-0.0990355	-0.109012	0.183923	-0.0525745	0.065673	-0.115283	0.497885	0.0078905	-4.1E-05	0.066602	0.170537	-0.0518255	-0.042945	0.003512	0.073621	0.278975	-0.544247	0.06537	-0.171468	
2.73285	5	0	-0.0787798	0.228613	0.247962	0.684339	-0.247509	-0.0176142	0.255761	0.629818	0.147731	0.257716	0.220988	0.826437	-0.0397813	-0.0930988	-0.111042	0.18966	-0.0549258	0.0723185	-0.119477	0.509741	0.00620925	0.0047105	0.066602	0.170537	-0.0679393	-0.036824	0.009247	0.057413	0.289108	-0.572886	0.0463275	-0.161736	
2.7298	5	0	-0.075783	0.220144	0.244679	0.667622	-0.26079	0.0002	0.261933	0.629693	0.139834	0.258286	0.229619	0.823841	-0.048867	-0.087162	-0.113072	0.195398	-0.057277	0.078964	-0.123672	0.521596	0.004528	0.009462	0.066602	0.170537	-0.084053	-0.030703	0.014982	0.041205	0.299242	-0.601525	0.027285	-0.152003	
2.73132	5	0	-0.09723	0.221155	0.226177	0.642142	-0.255082	0.00378775	0.26463	0.62207	0.134057	0.252891	0.246662	0.797498	-0.0479243	-0.0898265	-0.115103	0.201139	-0.0612	0.090051	-0.118708	0.523827	0.00116275	0.0189728	0.062467	0.182223	-0.084053	-0.030703	0.0015345	0.053105	0.289108	-0.572886	0.0413335	-0.147622	
2.7298	5	0	-0.118677	0.222165	0.207675	0.616662	-0.249374	0.0073755	0.267328	0.614447	0.128281	0.247496	0.263705	0.771156	-0.0469815	-0.092491	-0.117135	0.20688	-0.065123	0.101138	-0.113744	0.526057	-0.0022025	0.0284835	0.058332	0.19391	-0.084053	-0.030703	-0.011913	0.065005	0.278975	-0.544247	0.055382	-0.143241	
2.73285	5	0	-0.140124	0.223175	0.189173	0.591182	-0.243665	0.0109632	0.270025	0.606824	0.122504	0.2421	0.280747	0.744813	-0.0460387	-0.0951555	-0.119167	0.212622	-0.069046	0.112225	-0.10878	0.528288	-0.00556775	0.0379943	0.054197	0.205597	-0.084053	-0.030703	-0.0253605	0.076905	0.268842	-0.515608	0.0694305	-0.13886	
2.72827	5	0	-0.161571	0.224186	0.170671	0.565702	-0.237957	0.014551	0.272722	0.599201	0.116727	0.236705	0.29779	0.71847	-0.045096	-0.09782	-0.121198	0.218363	-0.072969	0.123312	-0.103816	0.530519	-0.008933	0.047505	0.050062	0.217283	-0.084053	-0.030703	-0.038808	0.088805	0.258708	-0.486969	0.083479	-0.134479	
2.72827	5	0	-0.158583	0.215741	0.154069	0.560957	-0.239642	0.019314	0.26565	0.601869	0.116727	0.236705	0.299188	0.714519	-0.0541722	-0.0918895	-0.121198	0.218363	-0.065082	0.119864	-0.117936	0.537921	-0.012302	0.057026	0.0445398	0.232889	-0.0820255	-0.0364333	-0.0459815	0.109079	0.295339	-0.496187	0.078477	-0.120343	
2.72827	5	0	-0.155595	0.207296	0.137466	0.556212	-0.241328	0.024077	0.258578	0.604538	0.116727	0.236705	0.300586	0.710569	-0.0632485	-0.085959	-0.121198	0.218363	-0.057195	0.116417	-0.132057	0.545322	-0.015671	0.066547	0.0390175	0.248496	-0.079998	-0.0421635	-0.053155	0.129352	0.33197	-0.505405	0.073475	-0.106206	
2.72827	5	0	-0.152607	0.198851	0.120864	0.551467	-0.243013	0.02884	0.251506	0.607206	0.116727	0.236705	0.301984	0.706618	-0.0723247	-0.0800285	-0.121198	0.218363	-0.049308	0.11297	-0.146178	0.552723	-0.01904	0.076068	0.0334953	0.264102	-0.0779705	-0.0478937	-0.0603285	0.149626	0.368601	-0.514622	0.068473	-0.0920702	
2.73437	5	0	-0.149619	0.190406	0.104262	0.546722	-0.244698	0.033603	0.244434	0.609875	0.116727	0.236705	0.303382	0.702667	-0.081401	-0.074098	-0.121198	0.218363	-0.041421	0.109522	-0.160298	0.560125	-0.022409	0.085589	0.027973	0.279708	-0.075943	-0.053624	-0.067502	0.1699	0.405232	-0.52384	0.063471	-0.077934	
2.742	5	0	-0.151113	0.194628	0.108966	0.559242	-0.247228	0.0407523	0.231975	0.627784	0.121448	0.245084	0.292181	0.734322	-0.0723247	-0.0800285	-0.134209	0.237912	-0.042992	0.113962	-0.153661	0.557613	-0.0257812	0.09512	0.033418	0.291177	-0.0659182	-0.0425357	-0.0564095	0.190797	0.398444	-0.504655	0.068473	-0.0920702	
2.75116	5	0	-0.152606	0.198849	0.113671	0.571761	-0.249758	0.0479015	0.219516	0.645693	0.126169	0.253464	0.28098	0.765977	-0.0632485	-0.085959	-0.14722	0.25746	-0.044563	0.118401	-0.147024	0.555102	-0.0291535	0.104651	0.038863	0.302646	-0.0558935	-0.0314475	-0.045317	0.211694	0.391655	-0.485471	0.073475	-0.106206	
2.76184	5	0	-0.1541	0.20307	0.118375	0.58428	-0.252287	0.0550507	0.207057	0.663601	0.130889	0.261844	0.26978	0.797631	-0.0541722	-0.0918895	-0.16023	0.277009	-0.046134	0.122841	-0.140387	0.55259	-0.0325257	0.114182	0.044308	0.314115	-0.0458687	-0.0203593	-0.0342245	0.23259	0.384867	-0.466286	0.078477	-0.120343	
2.77252	5	0	-0.155593	0.207292	0.12308	0.5968	-0.254817	0.0622	0.194598	0.68151	0.13561	0.270223	0.258579	0.829286	-0.045096	-0.09782	-0.173241	0.296558	-0.047705	0.127281	-0.13375	0.550079	-0.035898	0.123713	0.049753	0.325584	-0.035844	-0.009271	-0.023132	0.253487	0.378079	-0.447101	0.083479	-0.134479	
2.78931	5	0	-0.172266	0.224682	0.109761	0.608626	-0.255661	0.0645842	0.185742	0.689252	0.131383	0.28217	0.254578	0.862442	-0.0532295	-0.0945533	-0.171427	0.308652	-0.0421685	0.130495	-0.139637	0.566716	-0.0255602	0.131636	0.0414337	0.349096	-0.0419465	0.007975	-0.0105775	0.270398	0.374679	-0.437493	0.0669355	-0.131809	
2.81219	5	0	-0.188939	0.242071	0.0964425	0.620451	-0.256504	0.0669685	0.176887	0.696994	0.127156	0.294118	0.250576	0.895598	-0.061363	-0.0912865	-0.169612	0.320747	-0.036632	0.133709	-0.145524	0.583353	-0.0152225	0.13956	0.0331145	0.372607	-0.048049	0.025221	0.001977	0.28731	0.371279	-0.427885	0.050392	-0.129138	
2.82745	5	0	-0.205611	0.259461	0.0831237	0.632277	-0.257348	0.0693527	0.168031	0.704735	0.122928	0.306065	0.246575	0.928755	-0.0694965	-0.0880197	-0.167798	0.332842	-0.0310955	0.136923	-0.151411	0.599991	-0.00488475	0.147483	0.0247952	0.396119	-0.0541515	0.042467	0.0145315	0.304222	0.36788	-0.418277	0.0338485	-0.126468	
2.85034	5	0	-0.222284	0.276851	0.069805	0.644103	-0.258191	0.071737	0.159175	0.712477	0.118701	0.318012	0.242574	0.961911	-0.07763	-0.084753	-0.165984	0.344936	-0.025559	0.140137	-0.157298	0.616628	0.005453	0.155406	0.016476	0.419631	-0.060254	0.059713	0.027086	0.321133	0.36448	-0.408669	0.017305	-0.123798	
2.87323	5	0	-0.222284	0.276851	0.0831237	0.632277	-0.26558	0.0728995	0.153026	0.712585	0.118701	0.318012	0.235522	0.981841	-0.0757458	-0.0900785	-0.168024	0.350701	-0.0247725	0.137914	-0.154774	0.609494	0.005453	0.155406	0.026077	0.419393	-0.0522695	0.0766508	0.0290192	0.341921	0.324475	-0.389915	0.0274438	-0.130423	
2.88696	5	0	-0.222284	0.276851	0.0964425	0.620451	-0.272969	0.074062	0.146877	0.712693	0.118701	0.318012	0.22847	1.00177	-0.0738615	-0.095404	-0.170064	0.356467	-0.023986	0.135692	-0.152249	0.60236	0.005453	0.155406	0.035678	0.419156	-0.044285	0.0935885	0.0309525	0.362708	0.28447	-0.371162	0.0375825	-0.137048	
2.90832	5	0	-0.222284	0.276851	0.109761	0.608626	-0.280359	0.0752245	0.140728	0.712801	0.118701	0.318012	0.221418	1.0217	-0.0719773	-0.100729	-0.172104	0.362233	-0.0231995	0.13347	-0.149725	0.595226	0.005453	0.155406	0.045279	0.418919	-0.0363005	0.110526	0.0328858	0.383496	0.244464	-0.352408	0.0477212	-0.143673	
2.92358	5	0	-0.222284	0.276851	0.12308	0.5968	-0.287748	0.076387	0.134579	0.712909	0.118701	0.318012	0.214366	1.04163	-0.070093	-0.106055	-0.174144	0.367998	-0.022413	0.131247	-0.147201	0.588092	0.005453	0.155406	0.05488	0.418681	-0.028316	0.127464	0.034819	0.404284	0.204459	-0.333654	0.05786	-0.150298	
2.94342	5	0	0.735265	0.630919	0.12308	0.5968	-0.286062	0.0716215	0.127537	0.715556	0.12871	0.311472	0.211541	1.04962	-0.070093	-0.106055	-0.168251	0.368583	-0.022413	0.131247	-0.153837	0.590601	0.00883275	0.145854	0.0672767	0.410581	-0.0444553	0.133573	0.036271	0.400181	0.247864	-0.362016	0.068011	-0.156931	
2.95563	5	0	1.69281	0.984986	0.12308	0.5968	-0.284376	0.066856	0.120496	0.718203	0.138718	0.304932	0.208716	1.0576	-0.070093	-0.106055	-0.162359	0.369168	-0.022413	0.131247	-0.160473	0.593109	0.0122125	0.136303	0.0796735	0.40248	-0.0605945	0.139682	0.037723	0.396078	0.291269	-0.390378	0.078162	-0.163563	
2.96478	5	0	2.65036	1.33905	0.12308	0.5968	-0.282689	0.0620905	0.113454	0.72085	0.148726	0.298392	0.205891	1.06558	-0.070093	-0.106055	-0.156467	0.369753	-0.022413	0.131247	-0.167109	0.595618	0.0155922	0.126751	0.0920703	0.394379	-0.0767338	0.145791	0.039175	0.391975	0.334674	-0.418739	0.088313	-0.170196	
2.97546	5	0	3.60791	1.69312	0.12308	0.5968	-0.281003	0.057325	0.106412	0.723497	0.158735	0.291852	0.203066	1.07357	-0.070093	-0.106055	-0.150574	0.370338	-0.022413	0.131247	-0.173745	0.598127	0.018972	0.1172	0.104467	0.386279	-0.092873	0.1519	0.040627	0.387872	0.378079	-0.447101	0.098464	-0.176829	
2.9892	5	0	3.60285	1.848	0.121643	0.600862	-0.296599	0.062024	0.0826328	0.739035	0.158735	0.291852	0.191597	1.08413	-0.071035	-0.103393	-0.167456	0.383587	-0.023986	0.135692	-0.182057	0.605385	0.0155922	0.126751	0.101687	0.394137	-0.086755	0.134609	0.0420783	0.383771	0.327871	-0.399513	0.107379	-0.179942	
2.99682	5	0	3.59779	2.00287	0.120205	0.604924	-0.312195	0.066723	0.0588535	0.754573	0.158735	0.291852	0.180127	1.0947	-0.071977	-0.100731	-0.184337	0.396837	-0.025559	0.140137	-0.190368	0.612644	0.0122125	0.136303	0.0989065	0.401995	-0.080637	0.117319	0.0435295	0.379669	0.277663	-0.351925	0.116293	-0.183055	
3.00445	5	0	3.59273	2.15775	0.118767	0.608986	-0.32779	0.071422	0.0350743	0.770111	0.158735	0.291852	0.168658	1.10526	-0.072919	-0.0980682	-0.201218	0.410086	-0.027132	0.144583	-0.19868	0.619902	0.00883275	0.145854	0.0961262	0.409853	-0.074519	0.100029	0.0449807	0.375568	0.227455	-0.304337	0.125208	-0.186168	
3.00598	5	0	3.58767	2.31263	0.11733	0.613048	-0.343386	0.076121	0.011295	0.785649	0.158735	0.291852	0.157189	1.11583	-0.073861	-0.095406	-0.2181	0.423335	-0.028705	0.149028	-0.206991	0.62716	0.005453	0.155406	0.093346	0.417711	-0.068401	0.082738	0.046432	0.371467	0.177247	-0.256749	0.134123	-0.189281	
3.00751	5	0	3.34493	2.20446	0.129228	0.605274	-0.346544	0.0653867	0.01489	0.775489	0.150841	0.292416	0.151384	1.11041	-0.081044	-0.0948053	-0.220916	0.414089	-0.0294918	0.151251	-0.211093	0.622534	0.003762	0.160185	0.090563	0.425576	-0.0502198	0.0708577	0.046432	0.371467	0.254046	-0.284699	0.150737	-0.191994	
3.01208	5	0	3.1022	2.09629	0.141126	0.5975	-0.349701	0.0546525	0.018485	0.765329	0.142946	0.29298	0.145578	1.105	-0.088227	-0.0942045	-0.223733	0.404843	-0.0302785	0.153475	-0.215194	0.617908	0.002071	0.164965	0.08778	0.433441	-0.0320385	0.0589775	0.046432	0.371467	0.330844	-0.31265	0.167351	-0.194708	
3.01666	5	0	2.85947	1.98812	0.153024	0.589725	-0.352859	0.0439182	0.02208	0.755169	0.135052	0.293545	0.139773	1.09958	-0.09541	-0.0936037	-0.226549	0.395597	-0.0310652	0.155699	-0.219296	0.613282	0.00038	0.169745	0.084997	0.441306	-0.0138573	0.0470973	0.046432	0.371467	0.407643	-0.340601	0.183966	-0.197421	
3.01514	5	0	2.61673	1.87995	0.164922	0.581951	-0.356016	0.033184	0.025675	0.745009	0.127158	0.294109	0.133968	1.09417	-0.102593	-0.093003	-0.229366	0.386351	-0.031852	0.157922	-0.223397	0.608656	-0.001311	0.174524	0.082214	0.449171	0.004324	0.035217	0.046432	0.371467	0.484442	-0.368551	0.20058	-0.200134	
3.01819	5	0	2.43311	1.80018	0.166359	0.577889	-0.360853	0.0272185	0.01614	0.737592	0.12455	0.279758	0.135212	1.06885	-0.0997695	-0.100983	-0.235002	0.367915	-0.0294922	0.151253	-0.229077	0.592316	0.00038	0.169745	0.084997	0.441306	0.014384	0.0463735	0.0358	0.375262	0.494674	-0.397468	0.195389	-0.207597	
3.01514	5	0	2.24948	1.72041	0.167797	0.573827	-0.365691	0.021253	0.006605	0.730174	0.121942	0.265407	0.136455	1.04354	-0.096946	-0.108963	-0.240638	0.349478	-0.0271325	0.144585	-0.234757	0.575976	0.002071	0.164965	0.08778	0.433441	0.024444	0.05753	0.025168	0.379057	0.504906	-0.426385	0.190198	-0.21506	
3.01514	5	0	2.06585	1.64063	0.169234	0.569764	-0.370528	0.0152875	-0.00293	0.722757	0.119335	0.251056	0.137699	1.01823	-0.0941225	-0.116942	-0.246274	0.331041	-0.0247727	0.137916	-0.240437	0.559636	0.003762	0.160185	0.090563	0.425576	0.034504	0.0686865	0.014536	0.382853	0.515138	-0.455303	0.185007	-0.222523	
3.01056	5	0	1.88222	1.56086	0.170671	0.565702	-0.375366	0.009322	-0.012465	0.71534	0.116727	0.236705	0.138942	0.992919	-0.091299	-0.124922	-0.25191	0.312605	-0.022413	0.131247	-0.246117	0.543296	0.005453	0.155406	0.093346	0.417711	0.044564	0.079843	0.003904	0.386648	0.52537	-0.48422	0.179816	-0.229986	
3.01361	5	0	1.76692	1.49799	0.173544	0.557584	-0.364649	-0.0013275	-0.014988	0.705312	0.110956	0.231318	0.118749	0.984749	-0.089418	-0.130238	-0.266446	0.302257	-0.0295217	0.132476	-0.260065	0.534232	0.00714325	0.150629	0.093346	0.417711	0.0546415	0.0910335	0.00680325	0.378455	0.54235	-0.532208	0.168202	-0.241352	
3.00598	5	0	1.65162	1.43513	0.176416	0.549465	-0.353933	-0.011977	-0.017511	0.695284	0.105186	0.225932	0.098556	0.976578	-0.087537	-0.135553	-0.280981	0.291908	-0.0366305	0.133706	-0.274013	0.525168	0.0088335	0.145852	0.093346	0.417711	0.064719	0.102224	0.0097025	0.370262	0.55933	-0.580197	0.156588	-0.252719	
3.00751	5	0	1.53632	1.37226	0.179289	0.541347	-0.343217	-0.0226265	-0.020034	0.685256	0.0994155	0.220545	0.078363	0.968407	-0.085656	-0.140869	-0.295517	0.281559	-0.0437392	0.134935	-0.287961	0.516104	0.0105237	0.141075	0.093346	0.417711	0.0747965	0.113415	0.0126018	0.362069	0.57631	-0.628185	0.144974	-0.264085	
3.00445	5	0	1.42102	1.30939	0.182162	0.533228	-0.3325	-0.033276	-0.022557	0.675228	0.093645	0.215158	0.05817	0.960237	-0.083775	-0.146185	-0.310052	0.271211	-0.050848	0.136164	-0.301909	0.50704	0.012214	0.136298	0.093346	0.417711	0.084874	0.124605	0.015501	0.353876	0.59329	-0.676173	0.13336	-0.275451	
3.00293	5	0	1.32439	1.26463	0.1879	0.517012	-0.340699	-0.0297415	-0.025082	0.665221	0.097854	0.203262	0.056589	0.94301	-0.082835	-0.148842	-0.317698	0.258614	-0.042953	0.132713	-0.304325	0.497735	0.012214	0.136298	0.0961262	0.409853	0.0686625	0.13075	0.0164485	0.324983	0.553049	-0.657234	0.116802	-0.272739	
2.99682	5	0	1.22777	1.21986	0.193637	0.500797	-0.348898	-0.026207	-0.027607	0.655215	0.102063	0.191367	0.055008	0.925783	-0.081895	-0.151499	-0.325345	0.246017	-0.035058	0.129262	-0.306741	0.48843	0.012214	0.136298	0.0989065	0.401995	0.052451	0.136895	0.017396	0.29609	0.512809	-0.638294	0.100244	-0.270027	
2.99835	5	0	1.13114	1.17509	0.199375	0.484581	-0.357097	-0.0226725	-0.030132	0.645208	0.106272	0.179472	0.053427	0.908557	-0.080955	-0.154155	-0.332991	0.23342	-0.027163	0.125811	-0.309157	0.479125	0.012214	0.136298	0.101687	0.394137	0.0362395	0.143039	0.0183435	0.267197	0.472568	-0.619355	0.0836853	-0.267315	
2.99225	5	0	1.03451	1.13033	0.205113	0.468366	-0.365296	-0.019138	-0.032657	0.635201	0.110481	0.167576	0.051846	0.89133	-0.080015	-0.156812	-0.340638	0.220823	-0.019268	0.12236	-0.311573	0.46982	0.012214	0.136298	0.104467	0.386279	0.020028	0.149184	0.019291	0.238304	0.432327	-0.600416	0.067127	-0.264603	
2.99072	5	0	0.973064	1.08468	0.18992	0.459636	-0.360267	-0.0333512	-0.0394938	0.620284	0.105761	0.159246	0.0416868	0.876726	-0.0862535	-0.15886	-0.341431	0.205984	-0.027163	0.125811	-0.322236	0.467731	0.0105238	0.141075	0.0948482	0.386528	0.0241185	0.137624	0.00529525	0.225539	0.382149	-0.55291	0.070854	-0.275137	
2.98614	5	0	0.911616	1.03902	0.174728	0.450906	-0.355237	-0.0475645	-0.0463305	0.605368	0.101041	0.150916	0.0315275	0.862122	-0.092492	-0.160907	-0.342224	0.191144	-0.035058	0.129262	-0.332899	0.465642	0.0088335	0.145852	0.0852295	0.386777	0.028209	0.126063	-0.0087005	0.212774	0.33197	-0.505405	0.074581	-0.28567	
2.98157	5	0	0.850168	0.993374	0.159535	0.442176	-0.350208	-0.0617778	-0.0531672	0.590451	0.0963202	0.142586	0.0213682	0.847518	-0.0987305	-0.162955	-0.343016	0.176305	-0.042953	0.132713	-0.343562	0.463552	0.00714325	0.150629	0.0756108	0.387027	0.0322995	0.114503	-0.0226963	0.200008	0.281792	-0.457899	0.078308	-0.296203	
2.98004	5	0	0.78872	0.947723	0.144343	0.433446	-0.345179	-0.075991	-0.060004	0.575534	0.0916	0.134256	0.011209	0.832914	-0.104969	-0.165002	-0.343809	0.161466	-0.050848	0.136164	-0.354225	0.461463	0.005453	0.155406	0.065992	0.387276	0.03639	0.102942	-0.036692	0.187243	0.231613	-0.410394	0.082035	-0.306737	
2.97394	5	0	0.745473	0.914862	0.136763	0.42909	-0.340994	-0.087818	-0.0546633	0.56044	0.0858343	0.128905	0.0068315	0.823665	-0.103091	-0.170308	-0.351451	0.14895	-0.0461365	0.122848	-0.362373	0.452321	0.0105212	0.141083	0.0591617	0.379683	0.0263355	0.0917708	-0.0400885	0.170737	0.315251	-0.457674	0.0617932	-0.293511	
2.97088	5	0	0.702225	0.882	0.129183	0.424733	-0.336809	-0.099645	-0.0493225	0.545346	0.0800685	0.123555	0.002454	0.814417	-0.101214	-0.175615	-0.359093	0.136435	-0.041425	0.109532	-0.370521	0.44318	0.0155895	0.126759	0.0523315	0.37209	0.016281	0.0805995	-0.043485	0.154232	0.39889	-0.504954	0.0415515	-0.280284	
2.96936	5	0	0.658978	0.849139	0.121602	0.420377	-0.332625	-0.111472	-0.0439818	0.530253	0.0743028	0.118204	-0.0019235	0.805168	-0.0993358	-0.180921	-0.366735	0.123919	-0.0367135	0.096216	-0.378668	0.434038	0.0206577	0.112436	0.0455012	0.364498	0.0062265	0.0694282	-0.0468815	0.137727	0.482528	-0.552235	0.0213098	-0.267057	
2.96173	5	0	0.615731	0.816278	0.114022	0.416021	-0.32844	-0.123299	-0.038641	0.515159	0.068537	0.112854	-0.006301	0.795919	-0.097458	-0.186227	-0.374377	0.111403	-0.032002	0.0829	-0.386816	0.424896	0.025726	0.098113	0.038671	0.356905	-0.003828	0.058257	-0.050278	0.121221	0.566166	-0.599515	0.001068	-0.253831	
2.95715	5	0	0.588708	0.800213	0.124459	0.412303	-0.338305	-0.115036	-0.0482885	0.525329	0.0774507	0.109308	-0.01624	0.802414	-0.0965198	-0.188879	-0.380205	0.110841	-0.0383208	0.081916	-0.390885	0.420334	0.01032	0.104513	0.0414415	0.349075	0.00228225	0.0409888	-0.052251	0.100729	0.566166	-0.599515	-0.00903525	-0.247229	
2.95257	5	0	0.561686	0.784148	0.134897	0.408585	-0.34817	-0.106772	-0.057936	0.535499	0.0863645	0.105762	-0.026179	0.808908	-0.0955815	-0.191531	-0.386033	0.110279	-0.0446395	0.080932	-0.394955	0.415771	-0.005086	0.110913	0.044212	0.341244	0.0083925	0.0237205	-0.054224	0.0802365	0.566166	-0.599515	-0.0191385	-0.240628	
2.95105	5	0	0.534663	0.768084	0.145334	0.404866	-0.358034	-0.0985085	-0.0675835	0.545668	0.0952783	0.102216	-0.036118	0.815403	-0.0946432	-0.194183	-0.391861	0.109716	-0.0509583	0.079948	-0.399025	0.411209	-0.020492	0.117313	0.0469825	0.333414	0.0145028	0.00645225	-0.056197	0.0597443	0.566166	-0.599515	-0.0292417	-0.234026	
2.948	5	0	0.50764	0.752019	0.155771	0.401148	-0.367899	-0.090245	-0.077231	0.555838	0.104192	0.09867	-0.046057	0.821897	-0.093705	-0.196835	-0.397689	0.109154	-0.057277	0.078964	-0.403094	0.406647	-0.035898	0.123713	0.049753	0.325584	0.020613	-0.010816	-0.05817	0.039252	0.566166	-0.599515	-0.039345	-0.227425	
2.94647	5	0	0.476126	0.749104	0.152914	0.409222	-0.367899	-0.090245	-0.0816835	0.568422	0.101044	0.107566	-0.0516303	0.837647	-0.096521	-0.188877	-0.406527	0.117114	-0.0659405	0.084625	-0.403925	0.408994	-0.035898	0.123713	0.048368	0.329498	0.00853	-0.016171	-0.0658642	0.034966	0.515744	-0.551804	-0.032969	-0.223493	
2.94342	5	0	0.444612	0.746188	0.150057	0.417297	-0.367899	-0.090245	-0.086136	0.581005	0.097896	0.116463	-0.0572035	0.853398	-0.099337	-0.180919	-0.415365	0.125074	-0.074604	0.090286	-0.404755	0.411342	-0.035898	0.123713	0.046983	0.333413	-0.003553	-0.021526	-0.0735585	0.03068	0.465323	-0.504092	-0.026593	-0.219561	
2.94189	5	0	0.413098	0.743273	0.1472	0.425372	-0.367899	-0.090245	-0.0905885	0.593589	0.094748	0.125359	-0.0627767	0.869148	-0.102153	-0.17296	-0.424202	0.133033	-0.0832675	0.095947	-0.405586	0.413689	-0.035898	0.123713	0.045598	0.337327	-0.015636	-0.026881	-0.0812527	0.026394	0.414902	-0.456381	-0.020217	-0.215629	
2.94342	5	0	0.381584	0.740357	0.144343	0.433446	-0.367899	-0.090245	-0.095041	0.606172	0.0916	0.134256	-0.06835	0.884899	-0.104969	-0.165002	-0.43304	0.140993	-0.091931	0.101608	-0.406417	0.416037	-0.035898	0.123713	0.044213	0.341241	-0.027719	-0.032236	-0.088947	0.022108	0.36448	-0.408669	-0.013841	-0.211697	
2.948	5	0	0.365797	0.723905	0.144343	0.433446	-0.367062	-0.0926093	-0.108974	0.611405	0.0894998	0.140192	-0.0725362	0.89673	-0.114016	-0.15909	-0.434046	0.143836	-0.0824835	0.0937313	-0.416297	0.427909	-0.0375858	0.128482	0.0414412	0.349075	-0.0075075	-0.0498538	-0.100912	0.0299258	0.401296	-0.417928	-0.0099475	-0.200723	
2.95257	5	0	0.350011	0.707453	0.144343	0.433446	-0.366226	-0.0949735	-0.122908	0.616637	0.0873995	0.146127	-0.0767225	0.908562	-0.123064	-0.153178	-0.435052	0.146678	-0.073036	0.0858545	-0.426176	0.439782	-0.0392735	0.133251	0.0386695	0.356909	0.012704	-0.0674715	-0.112876	0.0377435	0.438111	-0.427187	-0.006054	-0.189749	
2.95868	5	0	0.334224	0.691002	0.144343	0.433446	-0.36539	-0.0973378	-0.136841	0.62187	0.0852992	0.152063	-0.0809088	0.920393	-0.132111	-0.147267	-0.436058	0.149521	-0.0635885	0.0779777	-0.436056	0.451655	-0.0409612	0.138021	0.0358978	0.364743	0.0329155	-0.0850893	-0.124841	0.0455613	0.474927	-0.436446	-0.0021605	-0.178775	
2.9602	5	0	0.318437	0.67455	0.144343	0.433446	-0.364553	-0.099702	-0.150774	0.627103	0.083199	0.157999	-0.085095	0.932224	-0.141158	-0.141355	-0.437064	0.152364	-0.054141	0.070101	-0.445936	0.463527	-0.042649	0.14279	0.033126	0.372577	0.053127	-0.102707	-0.136805	0.053379	0.511742	-0.445705	0.001733	-0.167801	
2.96936	5	0	0.313627	0.657686	0.144343	0.433446	-0.363717	-0.102066	-0.151665	0.62962	0.0810972	0.163939	-0.0978165	0.946607	-0.132111	-0.147267	-0.439077	0.158052	-0.0604538	0.069118	-0.452485	0.466	-0.0409612	0.138021	0.022151	0.376736	0.0410285	-0.108018	-0.131099	0.0372515	0.464705	-0.40756	-0.00075925	-0.160758	
2.97241	5	0	0.308816	0.640823	0.144343	0.433446	-0.36288	-0.104429	-0.152556	0.632138	0.0789955	0.169879	-0.110538	0.96099	-0.123064	-0.153178	-0.44109	0.163741	-0.0667665	0.068135	-0.459035	0.468473	-0.0392735	0.133251	0.011176	0.380895	0.02893	-0.113328	-0.125392	0.021124	0.417669	-0.369415	-0.0032515	-0.153715	
2.98004	5	0	0.304005	0.623959	0.144343	0.433446	-0.362044	-0.106792	-0.153446	0.634656	0.0768937	0.175819	-0.123259	0.975373	-0.114016	-0.15909	-0.443102	0.169429	-0.0730793	0.067152	-0.465584	0.470947	-0.0375858	0.128482	0.000201	0.385055	0.0168315	-0.118639	-0.119686	0.0049965	0.370633	-0.33127	-0.00574375	-0.146672	
2.98157	5	0	0.299195	0.607095	0.144343	0.433446	-0.361208	-0.109156	-0.154337	0.637173	0.074792	0.181759	-0.135981	0.989756	-0.104969	-0.165002	-0.445115	0.175117	-0.079392	0.066169	-0.472133	0.47342	-0.035898	0.123713	-0.010774	0.389214	0.004733	-0.12395	-0.113979	-0.011131	0.323596	-0.293125	-0.008236	-0.139629	
2.98767	5	0	0.27735	0.608063	0.142913	0.437486	-0.362881	-0.104428	-0.157903	0.64725	0.0726887	0.187703	-0.12885	0.991172	-0.107788	-0.157037	-0.440304	0.178538	-0.0786088	0.0639555	-0.472133	0.47342	-0.0325257	0.114182	-0.010774	0.389214	0.00878175	-0.135392	-0.10686	-0.0312495	0.363808	-0.311982	-0.00185075	-0.135671	
2.98767	5	0	0.255505	0.609031	0.141484	0.441526	-0.364553	-0.0997005	-0.161468	0.657326	0.0705855	0.193646	-0.121719	0.992588	-0.110606	-0.149071	-0.435493	0.18196	-0.0778255	0.061742	-0.472133	0.47342	-0.0291535	0.104651	-0.010774	0.389214	0.0128305	-0.146834	-0.0997415	-0.051368	0.404019	-0.330838	0.0045345	-0.131714	
2.99377	5	0	0.233661	0.609999	0.140054	0.445567	-0.366226	-0.0949728	-0.165033	0.667403	0.0684822	0.19959	-0.114588	0.994005	-0.113424	-0.141105	-0.430682	0.185382	-0.0770422	0.0595285	-0.472133	0.47342	-0.0257812	0.09512	-0.010774	0.389214	0.0168792	-0.158276	-0.0926228	-0.0714865	0.44423	-0.349695	0.0109197	-0.127756	
2.99682	5	0	0.211816	0.610967	0.138625	0.449607	-0.367899	-0.090245	-0.168599	0.67748	0.066379	0.205534	-0.107457	0.995421	-0.116243	-0.13314	-0.425871	0.188803	-0.076259	0.057315	-0.472133	0.47342	-0.022409	0.085589	-0.010774	0.389214	0.020928	-0.169718	-0.085504	-0.091605	0.484442	-0.368551	0.017305	-0.123798	
2.99835	5	0	0.203978	0.602809	0.138625	0.449607	-0.377755	-0.081987	-0.177338	0.685128	0.0731955	0.20794	-0.121584	1.01378	-0.119064	-0.125168	-0.427887	0.1945	-0.0754757	0.055102	-0.472133	0.47342	-0.022409	0.085589	-0.010774	0.389214	0.00682875	-0.169291	-0.0946087	-0.0918328	0.440816	-0.340045	0.0236975	-0.119835	
3.0014	5	0	0.19614	0.59465	0.138625	0.449607	-0.38761	-0.073729	-0.186077	0.692776	0.080012	0.210346	-0.135711	1.03213	-0.121885	-0.117195	-0.429903	0.200198	-0.0746925	0.052889	-0.472133	0.47342	-0.022409	0.085589	-0.010774	0.389214	-0.0072705	-0.168863	-0.103714	-0.0920605	0.397191	-0.311539	0.03009	-0.115873	
2.99682	5	0	0.188301	0.586491	0.138625	0.449607	-0.397466	-0.065471	-0.194815	0.700425	0.0868285	0.212752	-0.149837	1.05049	-0.124706	-0.109223	-0.431919	0.205895	-0.0739092	0.050676	-0.472133	0.47342	-0.022409	0.085589	-0.010774	0.389214	-0.0213698	-0.168436	-0.112818	-0.0922883	0.353565	-0.283033	0.0364825	-0.11191	
2.99988	5	0	0.180463	0.578333	0.138625	0.449607	-0.407322	-0.057213	-0.203554	0.708073	0.093645	0.215158	-0.163964	1.06884	-0.127527	-0.10125	-0.433935	0.211592	-0.073126	0.048463	-0.472133	0.47342	-0.022409	0.085589	-0.010774	0.389214	-0.035469	-0.168009	-0.121923	-0.092516	0.309939	-0.254527	0.042875	-0.107947	
2.9953	5	0	0.174159	0.565888	0.131047	0.445245	-0.405649	-0.061942	-0.200879	0.700512	0.0857765	0.215725	-0.159765	1.05697	-0.126586	-0.103908	-0.441767	0.21671	-0.0888613	0.0553432	-0.471302	0.471071	-0.0377838	0.0919743	-0.00800325	0.381383	-0.0334492	-0.173717	-0.117663	-0.104555	0.346725	-0.263703	0.0339853	-0.104853	
2.9953	5	0	0.167855	0.553443	0.123468	0.440883	-0.403976	-0.066671	-0.198203	0.692951	0.077908	0.216293	-0.155565	1.0451	-0.125645	-0.106567	-0.4496	0.221828	-0.104596	0.0622235	-0.470471	0.468723	-0.0531585	0.0983595	-0.0052325	0.373553	-0.0314295	-0.179426	-0.113404	-0.116593	0.383511	-0.272879	0.0250955	-0.101759	
2.99377	5	0	0.161551	0.540999	0.11589	0.436521	-0.402302	-0.0714	-0.195527	0.685391	0.0700395	0.216861	-0.151366	1.03324	-0.124705	-0.109225	-0.457432	0.226945	-0.120332	0.0691037	-0.46964	0.466375	-0.0685332	0.104745	-0.00246175	0.365723	-0.0294098	-0.185134	-0.109144	-0.128632	0.420297	-0.282054	0.0162057	-0.0986643	
2.99377	5	0	0.155247	0.528554	0.108311	0.432159	-0.400629	-0.076129	-0.192852	0.67783	0.062171	0.217428	-0.147167	1.02137	-0.123764	-0.111883	-0.465264	0.232063	-0.136067	0.075984	-0.468809	0.464026	-0.083908	0.11113	0.000309	0.357892	-0.02739	-0.190842	-0.104884	-0.140671	0.457083	-0.29123	0.007316	-0.09557	
2.99225	5	0	0.158291	0.51995	0.109739	0.428125	-0.399793	-0.0784925	-0.193744	0.68035	0.0642747	0.211482	-0.147167	1.02137	-0.123764	-0.111883	-0.473089	0.237176	-0.125074	0.063702	-0.472861	0.459456	-0.0805407	0.101614	-0.009266	0.358134	-0.0193238	-0.213639	-0.109728	-0.152903	0.376892	-0.253692	-0.00031375	-0.0960098	
2.98614	5	0	0.161335	0.511346	0.111167	0.42409	-0.398957	-0.080856	-0.194635	0.682869	0.0663785	0.205536	-0.147167	1.02137	-0.123764	-0.111883	-0.480915	0.242289	-0.114082	0.05142	-0.476913	0.454886	-0.0771735	0.0920985	-0.018841	0.358375	-0.0112575	-0.236435	-0.114572	-0.165135	0.296701	-0.216155	-0.0079435	-0.0964495	
2.98309	5	0	0.16438	0.502743	0.112594	0.420055	-0.39812	-0.0832195	-0.195526	0.685388	0.0684822	0.19959	-0.147167	1.02137	-0.123764	-0.111883	-0.48874	0.247403	-0.103089	0.039138	-0.480966	0.450316	-0.0738063	0.0825827	-0.028416	0.358617	-0.00319125	-0.259232	-0.119417	-0.177367	0.21651	-0.178618	-0.0155733	-0.0968892	
2.97851	5	0	0.167424	0.494139	0.114022	0.416021	-0.397284	-0.085583	-0.196418	0.687908	0.070586	0.193644	-0.147167	1.02137	-0.123764	-0.111883	-0.496565	0.252516	-0.092096	0.026856	-0.485018	0.445746	-0.070439	0.073067	-0.037991	0.358859	0.004875	-0.282028	-0.124261	-0.189599	0.136319	-0.14108	-0.023203	-0.097329	
2.97546	5	0	0.168945	0.48984	0.114022	0.416021	-0.398957	-0.0808555	-0.191248	0.690344	0.070586	0.193644	-0.159882	1.03576	-0.124705	-0.109225	-0.48874	0.247403	-0.09996	0.0302957	-0.492386	0.45056	-0.070439	0.073067	-0.036608	0.35495	0.0068885	-0.287718	-0.131931	-0.193809	0.21651	-0.178618	-0.02833	-0.104817	
2.97088	5	0	0.170466	0.485541	0.114022	0.416021	-0.400629	-0.076128	-0.186077	0.692779	0.070586	0.193644	-0.172597	1.05015	-0.125645	-0.106567	-0.480915	0.242289	-0.107824	0.0337355	-0.499753	0.455375	-0.070439	0.073067	-0.035225	0.351041	0.008902	-0.293408	-0.139601	-0.19802	0.296701	-0.216155	-0.033457	-0.112305	
2.96631	5	0	0.171987	0.481243	0.114022	0.416021	-0.402302	-0.0714005	-0.180906	0.695215	0.070586	0.193644	-0.185312	1.06454	-0.126586	-0.103908	-0.473089	0.237176	-0.115688	0.0371752	-0.507121	0.460189	-0.070439	0.073067	-0.033842	0.347132	0.0109155	-0.299099	-0.147271	-0.20223	0.376892	-0.253692	-0.038584	-0.119793	
2.96173	5	0	0.173508	0.476944	0.114022	0.416021	-0.403975	-0.066673	-0.175736	0.697651	0.070586	0.193644	-0.198027	1.07893	-0.127527	-0.10125	-0.465264	0.232063	-0.123552	0.040615	-0.514489	0.465004	-0.070439	0.073067	-0.032459	0.343223	0.012929	-0.304789	-0.154941	-0.20644	0.457083	-0.29123	-0.043711	-0.127281	
2.95715	5	0	0.164162	0.473146	0.116875	0.407957	-0.402302	-0.0714005	-0.181798	0.697736	0.0606237	0.200154	-0.198027	1.07893	-0.128468	-0.098591	-0.465264	0.232063	-0.12277	0.0384058	-0.507121	0.460189	-0.0874648	0.084192	-0.0214988	0.339067	-0.0031635	-0.298646	-0.141613	-0.21822	0.460505	-0.300901	-0.0513228	-0.12772	
2.9541	5	0	0.154815	0.469349	0.119728	0.399894	-0.400629	-0.076128	-0.18786	0.69782	0.0506615	0.206663	-0.198027	1.07893	-0.129408	-0.095932	-0.465264	0.232063	-0.121988	0.0361965	-0.499753	0.455375	-0.104491	0.095317	-0.0105385	0.33491	-0.019256	-0.292502	-0.128285	-0.23	0.463927	-0.310571	-0.0589345	-0.128158	
2.95105	5	0	0.145469	0.465551	0.122582	0.39183	-0.398957	-0.0808555	-0.193923	0.697904	0.0406992	0.213172	-0.198027	1.07893	-0.130349	-0.093273	-0.465264	0.232063	-0.121207	0.0339872	-0.492386	0.45056	-0.121516	0.106442	0.00042175	0.330754	-0.0353485	-0.286358	-0.114957	-0.241781	0.467348	-0.320241	-0.0665463	-0.128597	
2.94342	5	0	0.136123	0.461753	0.125435	0.383766	-0.397284	-0.085583	-0.199985	0.697989	0.030737	0.219682	-0.198027	1.07893	-0.13129	-0.090614	-0.465264	0.232063	-0.120425	0.031778	-0.485018	0.445746	-0.138542	0.117567	0.011382	0.326598	-0.051441	-0.280215	-0.101629	-0.253561	0.47077	-0.329912	-0.074158	-0.129035	
2.94189	5	0	0.137641	0.457462	0.1373	0.376013	-0.403786	-0.086783	-0.199093	0.695469	0.0328395	0.21374	-0.198027	1.07893	-0.139396	-0.0873613	-0.471073	0.231479	-0.1173	0.0229468	-0.489067	0.441182	-0.116473	0.0921872	0.0141478	0.318781	-0.0474205	-0.291577	-0.0973922	-0.265535	0.474188	-0.339572	-0.07803	-0.140018	
2.93579	5	0	0.139159	0.453172	0.149165	0.36826	-0.410288	-0.087983	-0.198202	0.692948	0.034942	0.207798	-0.198027	1.07893	-0.147503	-0.0841085	-0.476882	0.230895	-0.114175	0.0141155	-0.493117	0.436618	-0.094403	0.0668075	0.0169135	0.310964	-0.0434	-0.302939	-0.0931555	-0.277509	0.477606	-0.349232	-0.081902	-0.151001	
2.93579	5	0	0.140678	0.448882	0.16103	0.360507	-0.416789	-0.089183	-0.19731	0.690428	0.0370445	0.201857	-0.198027	1.07893	-0.15561	-0.0808558	-0.482692	0.23031	-0.111051	0.00528425	-0.497167	0.432054	-0.0723335	0.0414278	0.0196792	0.303148	-0.0393795	-0.314301	-0.0889187	-0.289483	0.481024	-0.358891	-0.085774	-0.161983	
2.92816	5	0	0.142196	0.444591	0.172895	0.352754	-0.423291	-0.090383	-0.196418	0.687908	0.039147	0.195915	-0.198027	1.07893	-0.163716	-0.077603	-0.488501	0.229726	-0.107926	-0.003547	-0.501216	0.42749	-0.050264	0.016048	0.022445	0.295331	-0.035359	-0.325663	-0.084682	-0.301457	0.484442	-0.368551	-0.089646	-0.172966	
2.92511	5	0	0.142196	0.444591	0.156749	0.372605	-0.424962	-0.085659	-0.206041	0.698072	0.039147	0.195915	-0.200829	1.08684	-0.164657	-0.0749438	-0.489509	0.232574	-0.107145	-0.00575325	-0.499558	0.422804	-0.0485845	0.0113015	0.0114838	0.29949	-0.0152465	-0.343168	-0.093775	-0.301646	0.484442	-0.368551	-0.0947588	-0.180416	
2.92358	5	0	0.142196	0.444591	0.140603	0.392456	-0.426634	-0.080935	-0.215665	0.708236	0.039147	0.195915	-0.20363	1.09476	-0.165598	-0.0722845	-0.490517	0.235423	-0.106365	-0.0079595	-0.4979	0.418119	-0.046905	0.006555	0.0005225	0.30365	0.004866	-0.360674	-0.102868	-0.301834	0.484442	-0.368551	-0.0998715	-0.187866	
2.91595	5	0	0.142196	0.444591	0.124457	0.412308	-0.428306	-0.076211	-0.225288	0.718399	0.039147	0.195915	-0.206431	1.10268	-0.166539	-0.0696252	-0.491524	0.238271	-0.105584	-0.0101657	-0.496242	0.413434	-0.0452255	0.0018085	-0.0104387	0.30781	0.0249785	-0.37818	-0.111961	-0.302022	0.484442	-0.368551	-0.104984	-0.195317	
2.91595	5	0	0.142196	0.444591	0.108311	0.432159	-0.429977	-0.071487	-0.234911	0.728563	0.039147	0.195915	-0.209233	1.1106	-0.16748	-0.066966	-0.492532	0.241119	-0.104803	-0.012372	-0.494584	0.408748	-0.043546	-0.002938	-0.0214	0.311969	0.045091	-0.395685	-0.121054	-0.302211	0.484442	-0.368551	-0.110097	-0.202767	
2.90985	5	0	0.129831	0.449374	0.106883	0.436196	-0.439813	-0.0632433	-0.237589	0.73613	0.038096	0.198885	-0.210635	1.11456	-0.160315	-0.0675572	-0.50035	0.246227	-0.11344	-0.00672825	-0.495413	0.411091	-0.0452255	0.0018085	-0.0118212	0.311717	0.0289935	-0.389527	-0.121054	-0.302211	0.397411	-0.311683	-0.116445	-0.206702	
2.90375	5	0	0.117466	0.454157	0.105455	0.440232	-0.449649	-0.0549995	-0.240266	0.743697	0.037045	0.201856	-0.212036	1.11852	-0.15315	-0.0681485	-0.508169	0.251336	-0.122078	-0.0010845	-0.496242	0.413433	-0.046905	0.006555	-0.0022425	0.311465	0.012896	-0.38337	-0.121054	-0.302211	0.310381	-0.254816	-0.122792	-0.210636	
2.90832	5	0	0.1051	0.458939	0.104026	0.444269	-0.459485	-0.0467557	-0.242944	0.751265	0.035994	0.204827	-0.213438	1.12248	-0.145986	-0.0687398	-0.515987	0.256444	-0.130715	0.00455925	-0.49707	0.415775	-0.0485845	0.0113015	0.00733625	0.311213	-0.0032015	-0.377212	-0.121054	-0.302211	0.22335	-0.197948	-0.12914	-0.21457	
2.90527	5	0	0.092735	0.463722	0.102598	0.448305	-0.469321	-0.038512	-0.245622	0.758832	0.034943	0.207797	-0.214839	1.12644	-0.138821	-0.069331	-0.523805	0.261553	-0.139352	0.010203	-0.497899	0.418118	-0.050264	0.016048	0.016915	0.310961	-0.019299	-0.371054	-0.121054	-0.302211	0.136319	-0.14108	-0.135488	-0.218505	
2.90375	5	0	0.0942517	0.459436	0.111605	0.44863	-0.469321	-0.038512	-0.237783	0.75371	0.027094	0.208359	-0.212037	1.11852	-0.146927	-0.06608	-0.521789	0.255857	-0.137791	0.00579175	-0.505261	0.422928	-0.050264	0.016048	0.0031885	0.322935	-0.019299	-0.371054	-0.123875	-0.294237	0.183138	-0.179091	-0.144305	-0.215436	
2.89917	5	0	0.0957685	0.455149	0.120611	0.448956	-0.469321	-0.038512	-0.229943	0.748587	0.019245	0.208921	-0.209234	1.1106	-0.155033	-0.062829	-0.519774	0.250162	-0.136231	0.0013805	-0.512622	0.427738	-0.050264	0.016048	-0.010538	0.33491	-0.019299	-0.371054	-0.126696	-0.286264	0.229957	-0.217103	-0.153121	-0.212367	
2.89307	5	0	0.0972853	0.450863	0.129618	0.449282	-0.469321	-0.038512	-0.222104	0.743464	0.011396	0.209483	-0.206431	1.10268	-0.163139	-0.059578	-0.517759	0.244467	-0.13467	-0.00303075	-0.519983	0.432548	-0.050264	0.016048	-0.0242645	0.346884	-0.019299	-0.371054	-0.129518	-0.27829	0.276777	-0.255114	-0.161938	-0.209297	
2.89764	5	0	0.098802	0.446577	0.138625	0.449607	-0.469321	-0.038512	-0.214264	0.738342	0.003547	0.210045	-0.203629	1.09476	-0.171245	-0.056327	-0.515743	0.238771	-0.133109	-0.007442	-0.527345	0.437358	-0.050264	0.016048	-0.037991	0.358859	-0.019299	-0.371054	-0.132339	-0.270316	0.323596	-0.293125	-0.170755	-0.206228	
2.89459	5	0	0.095768	0.455152	0.1329	0.465785	-0.470157	-0.0361485	-0.216944	0.745916	0.012447	0.206513	-0.214935	1.10519	-0.171245	-0.056327	-0.516751	0.241618	-0.131549	-0.0118513	-0.520813	0.434891	-0.0485845	0.0113015	-0.0270315	0.354704	-0.0172932	-0.376723	-0.119014	-0.282089	0.330414	-0.312393	-0.177085	-0.210162	
2.89001	5	0	0.092734	0.463727	0.127175	0.481964	-0.470993	-0.033785	-0.219623	0.753489	0.021347	0.20298	-0.22624	1.11562	-0.171245	-0.056327	-0.517758	0.244466	-0.129989	-0.0162605	-0.51428	0.432424	-0.046905	0.006555	-0.016072	0.35055	-0.0152875	-0.382391	-0.105689	-0.293862	0.337232	-0.331661	-0.183414	-0.214095	
2.88696	5	0	0.0897	0.472301	0.121451	0.498143	-0.47183	-0.0314215	-0.222303	0.761062	0.030247	0.199447	-0.237545	1.12605	-0.171245	-0.056327	-0.518765	0.247313	-0.128428	-0.0206698	-0.507748	0.429957	-0.0452255	0.0018085	-0.0051125	0.346396	-0.0132818	-0.38806	-0.0923633	-0.305635	0.344049	-0.350928	-0.189744	-0.218028	
2.88238	5	0	0.086666	0.480876	0.115726	0.514321	-0.472666	-0.029058	-0.224983	0.768636	0.039147	0.195915	-0.248851	1.13648	-0.171245	-0.056327	-0.519773	0.25016	-0.126868	-0.025079	-0.501216	0.42749	-0.043546	-0.002938	0.005847	0.342241	-0.011276	-0.393728	-0.079038	-0.317408	0.350867	-0.370196	-0.196074	-0.221962	
2.88696	5	0	0.0975115	0.480388	0.121872	0.522765	-0.467013	-0.0254785	-0.23998	0.793986	0.0370445	0.201857	-0.254461	1.15234	-0.164081	-0.0569165	-0.522798	0.258707	-0.127648	-0.0228747	-0.504534	0.436868	-0.0452255	0.0018085	0.00169175	0.353984	-0.011276	-0.393728	-0.0818605	-0.30943	0.264276	-0.313616	-0.203632	-0.222397	
2.87933	5	0	0.108357	0.4799	0.128019	0.53121	-0.461361	-0.021899	-0.254977	0.819337	0.034942	0.207798	-0.260072	1.16819	-0.156916	-0.057506	-0.525822	0.267255	-0.128428	-0.0206705	-0.507853	0.446247	-0.046905	0.006555	-0.0024635	0.365727	-0.011276	-0.393728	-0.084683	-0.301453	0.177684	-0.257035	-0.211191	-0.222833	
2.88086	5	0	0.119203	0.479411	0.134165	0.539655	-0.455709	-0.0183195	-0.269974	0.844688	0.0328395	0.21374	-0.265682	1.18405	-0.149751	-0.0580955	-0.528846	0.275803	-0.129208	-0.0184663	-0.511171	0.455625	-0.0485845	0.0113015	-0.00661875	0.377471	-0.011276	-0.393728	-0.0875055	-0.293476	0.0910933	-0.200455	-0.21875	-0.223268	
2.87781	5	0	0.130048	0.478923	0.140312	0.548099	-0.450056	-0.01474	-0.284971	0.870038	0.030737	0.219682	-0.271292	1.1999	-0.142587	-0.058685	-0.531871	0.28435	-0.129988	-0.016262	-0.514489	0.465004	-0.050264	0.016048	-0.010774	0.389214	-0.011276	-0.393728	-0.090328	-0.285498	0.004502	-0.143874	-0.226308	-0.223704	
2.87475	5	0	0.127008	0.487514	0.136004	0.560274	-0.451731	-0.010006	-0.28251	0.880116	0.026528	0.231578	-0.268414	1.21329	-0.144472	-0.0533597	-0.5291	0.293505	-0.123692	-0.0152895	-0.512937	0.476625	-0.0553078	0.0303027	-0.0039615	0.396818	-0.011276	-0.393728	-0.0945668	-0.273519	0.131312	-0.219332	-0.225072	-0.227197	
2.87628	5	0	0.123968	0.496105	0.131696	0.57245	-0.453407	-0.005272	-0.280049	0.890195	0.022319	0.243473	-0.265536	1.22668	-0.146356	-0.0480345	-0.526329	0.30266	-0.117395	-0.014317	-0.511385	0.488247	-0.0603515	0.0445575	0.002851	0.404423	-0.011276	-0.393728	-0.0988055	-0.261539	0.258122	-0.29479	-0.223836	-0.23069	
2.87475	5	0	0.120928	0.504697	0.127388	0.584625	-0.455082	-0.000538	-0.277588	0.900274	0.01811	0.255369	-0.262659	1.24007	-0.14824	-0.0427093	-0.523558	0.311816	-0.111099	-0.0133445	-0.509833	0.499868	-0.0653953	0.0588122	0.0096635	0.412027	-0.011276	-0.393728	-0.103044	-0.24956	0.384932	-0.370247	-0.2226	-0.234184	
2.87628	5	0	0.117888	0.513288	0.12308	0.5968	-0.456757	0.004196	-0.275127	0.910352	0.013901	0.267265	-0.259781	1.25345	-0.150125	-0.037384	-0.520787	0.320971	-0.104803	-0.012372	-0.508281	0.51149	-0.070439	0.073067	0.016476	0.419631	-0.011276	-0.393728	-0.107283	-0.237581	0.511742	-0.445705	-0.221364	-0.237677	
2.87323	5	0	0.102485	0.526658	0.133541	0.593088	-0.457595	0.006564	-0.284762	0.920547	0.013901	0.267265	-0.261188	1.25743	-0.150125	-0.037384	-0.521798	0.323827	-0.105584	-0.0101657	-0.509945	0.516192	-0.068757	0.068313	0.016476	0.419631	-0.011276	-0.393728	-0.110112	-0.229586	0.388336	-0.379866	-0.220129	-0.241169	
2.87475	5	0	0.087081	0.540027	0.144001	0.589376	-0.458433	0.008932	-0.294396	0.930743	0.013901	0.267265	-0.262595	1.26141	-0.150125	-0.037384	-0.522808	0.326682	-0.106365	-0.0079595	-0.511608	0.520893	-0.067075	0.063559	0.016476	0.419631	-0.011276	-0.393728	-0.112941	-0.221591	0.264929	-0.314026	-0.218893	-0.244661	
2.87323	5	0	0.0716775	0.553397	0.154462	0.585663	-0.45927	0.0113	-0.304031	0.940938	0.013901	0.267265	-0.264003	1.26539	-0.150125	-0.037384	-0.523818	0.329537	-0.107145	-0.00575325	-0.513271	0.525594	-0.065393	0.058805	0.016476	0.419631	-0.011276	-0.393728	-0.11577	-0.213596	0.141522	-0.248187	-0.217658	-0.248153	
2.87323	5	0	0.056274	0.566767	0.164922	0.581951	-0.460108	0.013668	-0.313665	0.951133	0.013901	0.267265	-0.26541	1.26936	-0.150125	-0.037384	-0.524829	0.332393	-0.107926	-0.003547	-0.514935	0.530296	-0.063711	0.054051	0.016476	0.419631	-0.011276	-0.393728	-0.118599	-0.205601	0.018116	-0.182347	-0.216422	-0.251645	
2.87323	5	0	0.0547523	0.571068	0.150148	0.597855	-0.461784	0.0184055	-0.310317	0.958705	0.0128477	0.270241	-0.25831	1.27084	-0.150125	-0.037384	-0.520037	0.335852	-0.115782	-0.0001095	-0.516599	0.535	-0.0466513	0.0429038	0.00272625	0.431633	-0.00726825	-0.405054	-0.11577	-0.213596	0.104707	-0.238928	-0.232747	-0.249025	
2.87323	5	0	0.0532305	0.575368	0.135373	0.613759	-0.46346	0.023143	-0.30697	0.966277	0.0117945	0.273218	-0.251211	1.27232	-0.150125	-0.037384	-0.515244	0.339311	-0.123639	0.003328	-0.518264	0.539704	-0.0295915	0.0317565	-0.0110235	0.443634	-0.0032605	-0.41638	-0.112941	-0.221591	0.191298	-0.295508	-0.249073	-0.246405	
2.87323	5	0	0.0517087	0.579669	0.120598	0.629663	-0.465137	0.0278805	-0.303622	0.973849	0.0107413	0.276194	-0.244111	1.2738	-0.150125	-0.037384	-0.510452	0.34277	-0.131495	0.0067655	-0.519929	0.544408	-0.0125317	0.0206092	-0.0247733	0.455636	0.00074725	-0.427706	-0.110112	-0.229586	0.277889	-0.352089	-0.265398	-0.243785	
2.87018	5	0	0.050187	0.58397	0.105824	0.645567	-0.466813	0.032618	-0.300274	0.981421	0.009688	0.27917	-0.237011	1.27528	-0.150125	-0.037384	-0.50566	0.346229	-0.139352	0.010203	-0.521593	0.549112	0.004528	0.009462	-0.038523	0.467638	0.004755	-0.439032	-0.107283	-0.237581	0.36448	-0.408669	-0.281723	-0.241165	
2.8717	5	0	0.0486645	0.588273	0.117722	0.637793	-0.46849	0.0373583	-0.302072	0.986504	0.00758075	0.285126	-0.23842	1.27926	-0.151068	-0.0347203	-0.515509	0.357061	-0.140914	0.0146163	-0.524925	0.558528	0.00284575	0.014216	-0.0289413	0.467415	0.004755	-0.439032	-0.107283	-0.237581	0.317672	-0.370689	-0.279256	-0.248136	
2.8717	5	0	0.047142	0.592576	0.12962	0.630019	-0.470168	0.0420985	-0.303871	0.991586	0.0054735	0.291081	-0.23983	1.28325	-0.15201	-0.0320565	-0.525358	0.367893	-0.142476	0.0190295	-0.528256	0.567943	0.0011635	0.01897	-0.0193595	0.467193	0.004755	-0.439032	-0.107283	-0.237581	0.270864	-0.332709	-0.27679	-0.255108	
2.8717	5	0	0.0456195	0.596879	0.141518	0.622244	-0.471846	0.0468387	-0.30567	0.996669	0.00336625	0.297037	-0.241239	1.28723	-0.152952	-0.0293927	-0.535207	0.378726	-0.144037	0.0234427	-0.531587	0.577358	-0.00051875	0.023724	-0.00977775	0.466971	0.004755	-0.439032	-0.107283	-0.237581	0.224055	-0.294729	-0.274323	-0.262079	
2.87628	5	0	0.044097	0.601182	0.153416	0.61447	-0.473523	0.051579	-0.307468	1.00175	0.001259	0.302993	-0.242648	1.29121	-0.153895	-0.026729	-0.545056	0.389558	-0.145599	0.027856	-0.534919	0.586774	-0.002201	0.028478	-0.000196	0.466748	0.004755	-0.439032	-0.107283	-0.237581	0.177247	-0.256749	-0.271856	-0.269051	
2.8717	5	0	0.0471412	0.592578	0.144395	0.614115	-0.472684	0.0492087	-0.30567	0.996669	0.0044195	0.294061	-0.231311	1.28074	-0.162	-0.023481	-0.545056	0.389558	-0.1354	0.017799	-0.524213	0.57254	-0.0175785	0.0348712	-0.0056135	0.455202	-0.009309	-0.438539	-0.103044	-0.24956	0.227455	-0.304337	-0.276925	-0.276446	
2.87323	5	0	0.0501855	0.583975	0.135373	0.613759	-0.471846	0.0468385	-0.303871	0.991586	0.00758	0.285129	-0.219975	1.27027	-0.170104	-0.020233	-0.545056	0.389558	-0.125201	0.007742	-0.513508	0.558307	-0.032956	0.0412645	-0.011031	0.443655	-0.023373	-0.438045	-0.0988055	-0.261539	0.277663	-0.351925	-0.281994	-0.28384	
2.8717	5	0	0.0532297	0.575371	0.126352	0.613403	-0.471007	0.0444683	-0.302072	0.986504	0.0107405	0.276197	-0.208638	1.2598	-0.178209	-0.016985	-0.545056	0.389558	-0.115002	-0.002315	-0.502802	0.544073	-0.0483335	0.0476577	-0.0164485	0.432109	-0.037437	-0.437552	-0.0945668	-0.273519	0.327871	-0.399513	-0.287064	-0.291235	
2.87323	5	0	0.056274	0.566767	0.11733	0.613048	-0.470168	0.042098	-0.300274	0.981421	0.013901	0.267265	-0.197301	1.24934	-0.186314	-0.013737	-0.545056	0.389558	-0.104803	-0.012372	-0.492096	0.529839	-0.063711	0.054051	-0.021866	0.420563	-0.051501	-0.437059	-0.090328	-0.285498	0.378079	-0.447101	-0.292133	-0.29863	
2.8717	5	0	0.0454553	0.567228	0.114063	0.596467	-0.479168	0.0479788	-0.267946	0.958344	0.010262	0.255929	-0.173188	1.2244	-0.176324	-0.0223117	-0.527375	0.373608	-0.109539	-0.0177525	-0.483051	0.520312	-0.0586698	0.0398037	-0.0258973	0.405137	-0.0294372	-0.460161	-0.0951905	-0.297643	0.33807	-0.428337	-0.285984	-0.316008	
2.87018	5	0	0.0346365	0.567689	0.110796	0.579885	-0.488167	0.0538595	-0.235617	0.935267	0.006623	0.244594	-0.149074	1.19947	-0.166335	-0.0308865	-0.509694	0.357658	-0.114276	-0.023133	-0.474006	0.510786	-0.0536285	0.0255565	-0.0299285	0.389711	-0.0073735	-0.483264	-0.100053	-0.309787	0.298061	-0.409573	-0.279834	-0.333386	
2.86713	5	0	0.0238178	0.568151	0.107529	0.563304	-0.497167	0.0597402	-0.203288	0.912189	0.002984	0.233259	-0.124961	1.17454	-0.156346	-0.0394613	-0.492012	0.341707	-0.119012	-0.0285135	-0.464962	0.501259	-0.0485872	0.0113092	-0.0339597	0.374285	0.0146903	-0.506366	-0.104915	-0.321932	0.258052	-0.390808	-0.273685	-0.350764	
2.86865	5	0	0.012999	0.568612	0.104262	0.546722	-0.506167	0.065621	-0.17096	0.889112	-0.000655	0.221923	-0.100848	1.1496	-0.146356	-0.048036	-0.474331	0.325757	-0.123749	-0.033894	-0.455917	0.491732	-0.043546	-0.002938	-0.037991	0.358859	0.036754	-0.529468	-0.109778	-0.334077	0.218043	-0.372044	-0.267536	-0.368142	
2.86407	5	0	0.006752	0.556202	0.084448	0.525487	-0.513481	0.0667565	-0.142821	0.860969	-0.012126	0.211176	-0.0667087	1.11813	-0.160675	-0.046863	-0.455612	0.306936	-0.13004	-0.0348637	-0.438642	0.475023	-0.0401898	-0.0124235	-0.0324617	0.343232	0.0407465	-0.540751	-0.104148	-0.349989	0.268229	-0.41957	-0.273838	-0.372028	
2.86102	5	0	0.000505	0.543791	0.064634	0.504253	-0.520795	0.067892	-0.114682	0.832826	-0.023597	0.20043	-0.0325695	1.08666	-0.174994	-0.04569	-0.436893	0.288114	-0.13633	-0.0358335	-0.421366	0.458314	-0.0368335	-0.021909	-0.0269325	0.327606	0.044739	-0.552034	-0.0985175	-0.365901	0.318415	-0.467097	-0.280139	-0.375914	
2.86102	5	0	-0.005742	0.531381	0.04482	0.483019	-0.528108	0.0690275	-0.0865438	0.804683	-0.035068	0.189683	0.00156975	1.05519	-0.189312	-0.044517	-0.418173	0.269292	-0.14262	-0.0368033	-0.404091	0.441605	-0.0334773	-0.0313945	-0.0214032	0.311979	0.0487315	-0.563317	-0.0928873	-0.381813	0.368601	-0.514623	-0.286441	-0.3798	
2.86255	5	0	-0.011989	0.51897	0.025006	0.461784	-0.535422	0.070163	-0.058405	0.77654	-0.046539	0.178936	0.035709	1.02371	-0.203631	-0.043344	-0.399454	0.250471	-0.148911	-0.037773	-0.386816	0.424896	-0.030121	-0.04088	-0.015874	0.296353	0.052724	-0.5746	-0.087257	-0.397725	0.418787	-0.562149	-0.292743	-0.383686	
2.86255	5	0	-0.018232	0.506596	0.0066805	0.436662	-0.531234	0.0583265	-0.0354317	0.745947	-0.0459915	0.155844	0.0697342	0.971022	-0.207018	-0.0533875	-0.392388	0.230501	-0.145018	-0.0487752	-0.372773	0.401284	-0.025093	-0.0550892	-0.0199237	0.281018	0.036652	-0.568431	-0.0816368	-0.413609	0.375382	-0.533787	-0.307774	-0.384522	
2.86102	5	0	-0.024475	0.494223	-0.011645	0.411541	-0.527046	0.04649	-0.0124585	0.715353	-0.045444	0.132752	0.10376	0.918328	-0.210406	-0.063431	-0.385323	0.210532	-0.141125	-0.0597775	-0.358729	0.377673	-0.020065	-0.0692985	-0.0239735	0.265683	0.02058	-0.562263	-0.0760165	-0.429492	0.331977	-0.505425	-0.322805	-0.385357	
2.85644	5	0	-0.030718	0.481849	-0.0299705	0.38642	-0.522857	0.0346535	0.0105148	0.68476	-0.0448965	0.10966	0.137785	0.865635	-0.213793	-0.0734745	-0.378257	0.190562	-0.137232	-0.0707798	-0.344685	0.354062	-0.015037	-0.0835077	-0.0280232	0.250349	0.004508	-0.556095	-0.0703962	-0.445376	0.288572	-0.477064	-0.337836	-0.386192	
2.85644	5	0	-0.036961	0.469475	-0.048296	0.361298	-0.518669	0.022817	0.033488	0.654167	-0.044349	0.086568	0.17181	0.812942	-0.21718	-0.083518	-0.371191	0.170593	-0.133339	-0.081782	-0.330642	0.33045	-0.010009	-0.097717	-0.032073	0.235014	-0.011564	-0.549926	-0.064776	-0.46126	0.245167	-0.448702	-0.352867	-0.387028	
2.85492	5	0	-0.0431998	0.457138	-0.0604833	0.344642	-0.525977	0.0239553	0.0705473	0.618288	-0.0547592	0.0729735	0.203034	0.768269	-0.213425	-0.0941307	-0.357293	0.14838	-0.145904	-0.0837077	-0.317434	0.309214	-0.022015	-0.100779	-0.0361267	0.219728	-0.009571	-0.555559	-0.0710638	-0.469341	0.212125	-0.449153	-0.350417	-0.393951	
2.85492	5	0	-0.0494385	0.444801	-0.0726705	0.327986	-0.533284	0.0250935	0.107606	0.58241	-0.0651695	0.059379	0.234257	0.723595	-0.20967	-0.104743	-0.343395	0.126167	-0.15847	-0.0856335	-0.304226	0.287977	-0.034021	-0.103841	-0.0401805	0.204443	-0.007578	-0.561191	-0.0773515	-0.477422	0.179084	-0.449603	-0.347968	-0.400873	
2.85034	5	0	-0.0556772	0.432465	-0.0848578	0.31133	-0.540592	0.0262317	0.144666	0.546531	-0.0755798	0.0457845	0.265481	0.678922	-0.205915	-0.115356	-0.329498	0.103954	-0.171036	-0.0875592	-0.291018	0.26674	-0.046027	-0.106903	-0.0442342	0.189158	-0.005585	-0.566823	-0.0836392	-0.485503	0.146042	-0.450054	-0.345519	-0.407796	
2.85034	5	0	-0.061916	0.420128	-0.097045	0.294674	-0.547899	0.02737	0.181725	0.510652	-0.08599	0.03219	0.296704	0.634248	-0.20216	-0.125969	-0.3156	0.081741	-0.183601	-0.089485	-0.27781	0.245504	-0.058033	-0.109965	-0.048288	0.173872	-0.003592	-0.572456	-0.089927	-0.493584	0.113	-0.450505	-0.343069	-0.414719	
2.84881	5	0	-0.0498665	0.386074	-0.111065	0.25791	-0.54539	0.0202795	0.194215	0.475353	-0.0932685	0.009844	0.301968	0.597575	-0.215501	-0.127437	-0.292834	0.0515765	-0.179719	-0.100458	-0.248936	0.212259	-0.0666762	-0.122457	-0.0496062	0.150894	-0.00160025	-0.578085	-0.0906177	-0.517447	0.169662	-0.516807	-0.346744	-0.404333	
2.84576	5	0	-0.037817	0.352021	-0.125085	0.221145	-0.542881	0.013189	0.206705	0.440055	-0.100547	-0.012502	0.307231	0.560902	-0.228841	-0.128905	-0.270068	0.021412	-0.175836	-0.11143	-0.220062	0.179013	-0.0753195	-0.134948	-0.0509245	0.127916	0.0003915	-0.583714	-0.0913085	-0.541311	0.226324	-0.58311	-0.350419	-0.393946	
2.84729	5	0	-0.0257675	0.317967	-0.139105	0.184381	-0.540372	0.0060985	0.219195	0.404756	-0.107825	-0.034848	0.312495	0.524228	-0.242182	-0.130373	-0.247302	-0.0087525	-0.171953	-0.122403	-0.191187	0.145767	-0.0839628	-0.14744	-0.0522427	0.104937	0.00238325	-0.589344	-0.0919993	-0.565174	0.282985	-0.649412	-0.354095	-0.38356	
2.84424	5	0	-0.013718	0.283913	-0.153125	0.147617	-0.537863	-0.000992	0.231685	0.369457	-0.115104	-0.057194	0.317759	0.487555	-0.255522	-0.131841	-0.224536	-0.038917	-0.168071	-0.133376	-0.162313	0.112522	-0.092606	-0.159932	-0.053561	0.081959	0.004375	-0.594973	-0.09269	-0.589037	0.339647	-0.715715	-0.35777	-0.373174	
2.84424	5	0	-0.0339882	0.251581	-0.175096	0.08309	-0.529718	-0.0044975	0.240658	0.309639	-0.133792	-0.0899163	0.316352	0.404599	-0.256102	-0.149758	-0.210509	-0.0785582	-0.172021	-0.140904	-0.153236	0.0868695	-0.0842792	-0.183465	-0.0603397	0.0478247	0.008355	-0.60622	-0.0975807	-0.600994	0.296461	-0.687496	-0.343969	-0.368863	
2.84576	5	0	-0.0542585	0.219249	-0.197067	0.018563	-0.521573	-0.008003	0.24963	0.249821	-0.152479	-0.122639	0.314944	0.321642	-0.256681	-0.167674	-0.196483	-0.118199	-0.175971	-0.148432	-0.144159	0.061217	-0.0759525	-0.206997	-0.0671185	0.0136905	0.012335	-0.617468	-0.102471	-0.612951	0.253274	-0.659277	-0.330167	-0.364552	
2.84729	5	0	-0.0745287	0.186917	-0.219037	-0.045964	-0.513428	-0.0115085	0.258603	0.190002	-0.171167	-0.155361	0.313536	0.238685	-0.257261	-0.18559	-0.182456	-0.157841	-0.179921	-0.155961	-0.135083	0.0355645	-0.0676257	-0.230529	-0.0738972	-0.0204438	0.016315	-0.628715	-0.107362	-0.624908	0.210088	-0.631058	-0.316366	-0.360241	
2.84881	5	0	-0.094799	0.154585	-0.241008	-0.110491	-0.505283	-0.015014	0.267576	0.130184	-0.189855	-0.188083	0.312129	0.155729	-0.25784	-0.203507	-0.168429	-0.197482	-0.183871	-0.163489	-0.126006	0.009912	-0.059299	-0.254062	-0.080676	-0.054578	0.020295	-0.639963	-0.112253	-0.636865	0.166902	-0.602839	-0.302565	-0.35593	
2.84424	5	0	-0.117978	0.130905	-0.265209	-0.142774	-0.498802	-0.0137962	0.251805	0.106026	-0.194049	-0.21885	0.299592	0.104631	-0.259364	-0.218732	-0.167313	-0.217732	-0.189367	-0.166629	-0.123559	-0.013137	-0.072933	-0.252377	-0.0833977	-0.0734753	0.008227	-0.645028	-0.108076	-0.64867	0.160171	-0.583817	-0.291191	-0.344658	
2.84271	5	0	-0.141158	0.107225	-0.28941	-0.175058	-0.492321	-0.0125785	0.236034	0.0818685	-0.198244	-0.249617	0.287055	0.0535325	-0.260889	-0.233958	-0.166197	-0.237981	-0.194862	-0.169769	-0.121112	-0.036186	-0.086567	-0.250692	-0.0861195	-0.0923725	-0.003841	-0.650092	-0.103899	-0.660475	0.153441	-0.564796	-0.279817	-0.333385	
2.84271	5	0	-0.164337	0.0835443	-0.313611	-0.207341	-0.48584	-0.0113607	0.220263	0.0577108	-0.202439	-0.280385	0.274518	0.00243425	-0.262414	-0.249184	-0.165081	-0.258231	-0.200358	-0.172909	-0.118664	-0.059235	-0.100201	-0.249006	-0.0888413	-0.11127	-0.015909	-0.655157	-0.099722	-0.672281	0.14671	-0.545775	-0.268443	-0.322113	
2.84576	5	0	-0.187517	0.059864	-0.337812	-0.239624	-0.479359	-0.010143	0.204492	0.033553	-0.206633	-0.311152	0.261981	-0.048664	-0.263938	-0.264409	-0.163965	-0.278481	-0.205854	-0.176049	-0.116217	-0.082284	-0.113835	-0.247321	-0.091563	-0.130167	-0.027977	-0.660222	-0.095545	-0.684086	0.13998	-0.526753	-0.257069	-0.31084	
2.84576	5	0	-0.202917	0.0441638	-0.351251	-0.251779	-0.475384	-0.00182175	0.19662	0.0215295	-0.214374	-0.310549	0.250278	-0.058705	-0.271056	-0.263808	-0.175695	-0.279474	-0.200358	-0.172909	-0.13929	-0.081471	-0.101865	-0.244305	-0.103783	-0.122182	-0.0259927	-0.66583	-0.086464	-0.683971	0.173043	-0.526363	-0.229303	-0.302174	
2.84881	5	0	-0.218317	0.0284635	-0.364691	-0.263935	-0.471409	0.0064995	0.188748	0.009506	-0.222115	-0.309947	0.238575	-0.068746	-0.278173	-0.263207	-0.187425	-0.280467	-0.194862	-0.169769	-0.162362	-0.080658	-0.0898945	-0.241289	-0.116003	-0.114197	-0.0240085	-0.671438	-0.077383	-0.683855	0.206107	-0.525974	-0.201537	-0.293508	
2.85644	5	0	-0.233717	0.0127633	-0.37813	-0.276091	-0.467435	0.0148207	0.180877	-0.0025175	-0.229856	-0.309344	0.226872	-0.078787	-0.285291	-0.262605	-0.199155	-0.281461	-0.189367	-0.166629	-0.185435	-0.079845	-0.0779243	-0.238272	-0.128223	-0.106212	-0.0220242	-0.677046	-0.068302	-0.683739	0.23917	-0.525585	-0.17377	-0.284842	
2.8656	5	0	-0.249117	-0.002937	-0.391569	-0.288246	-0.46346	0.023142	0.173005	-0.014541	-0.237597	-0.308741	0.215169	-0.088828	-0.292408	-0.262004	-0.210885	-0.282454	-0.183871	-0.163489	-0.208507	-0.079032	-0.065954	-0.235256	-0.140443	-0.098227	-0.02004	-0.682654	-0.059221	-0.683624	0.272234	-0.525195	-0.146004	-0.276176	
2.87323	5	0	-0.256801	-0.0107612	-0.373997	-0.287772	-0.46346	0.023142	0.152905	-0.0090235	-0.238072	-0.286125	0.207028	-0.0658208	-0.29334	-0.259371	-0.22943	-0.281144	-0.179145	-0.158154	-0.22001	-0.078636	-0.0589618	-0.218097	-0.133657	-0.090854	-0.00995625	-0.671981	-0.0731785	-0.644178	0.295295	-0.496063	-0.121824	-0.256967	
2.88696	5	0	-0.264485	-0.0185855	-0.356424	-0.287298	-0.46346	0.023142	0.132806	-0.003506	-0.238546	-0.263508	0.198887	-0.0428135	-0.294272	-0.256738	-0.247974	-0.279834	-0.17442	-0.152818	-0.231513	-0.07824	-0.0519695	-0.200939	-0.126871	-0.083481	0.0001275	-0.661308	-0.087136	-0.604731	0.318357	-0.466932	-0.097643	-0.237758	
2.9068	5	0	-0.27217	-0.0264097	-0.338851	-0.286824	-0.46346	0.023142	0.112706	0.0020115	-0.239021	-0.240892	0.190747	-0.0198063	-0.295203	-0.254104	-0.266518	-0.278524	-0.169694	-0.147482	-0.243016	-0.077844	-0.0449772	-0.18378	-0.120085	-0.076108	0.0102112	-0.650636	-0.101094	-0.565285	0.341419	-0.4378	-0.0734625	-0.21855	
2.92663	5	0	-0.279854	-0.034234	-0.321279	-0.28635	-0.46346	0.023142	0.092607	0.007529	-0.239496	-0.218276	0.182606	0.003201	-0.296135	-0.251471	-0.285063	-0.277214	-0.164968	-0.142147	-0.254519	-0.077448	-0.037985	-0.166622	-0.113299	-0.068735	0.020295	-0.639963	-0.115051	-0.525839	0.36448	-0.408669	-0.049282	-0.199341	
2.94647	5	0	-0.291953	-0.029536	-0.310558	-0.266378	-0.465137	0.027881	0.079494	0.0275245	-0.222418	-0.202572	0.166261	0.0493938	-0.295203	-0.254104	-0.296733	-0.278222	-0.157909	-0.143388	-0.266	-0.0770592	-0.042997	-0.152458	-0.107868	-0.0574967	0.0143232	-0.623086	-0.103886	-0.505726	0.354259	-0.379783	-0.0288935	-0.19103	
2.96936	5	0	-0.304051	-0.024838	-0.299836	-0.246406	-0.466814	0.03262	0.066381	0.04752	-0.20534	-0.186868	0.149917	0.0955865	-0.294272	-0.256738	-0.308402	-0.279231	-0.150849	-0.144628	-0.277481	-0.0766705	-0.048009	-0.138293	-0.102436	-0.0462585	0.0083515	-0.606209	-0.092722	-0.485613	0.344038	-0.350897	-0.008505	-0.182719	
2.99377	5	0	-0.316149	-0.02014	-0.289115	-0.226434	-0.468491	0.037359	0.053268	0.0675155	-0.188262	-0.171164	0.133572	0.141779	-0.29334	-0.259371	-0.320072	-0.280239	-0.14379	-0.145868	-0.288961	-0.0762818	-0.053021	-0.124129	-0.0970045	-0.0350203	0.00237975	-0.589333	-0.0815575	-0.4655	0.333817	-0.322011	0.0118835	-0.174409	
3.01514	5	0	-0.328248	-0.015442	-0.278394	-0.206462	-0.470168	0.042098	0.040155	0.087511	-0.171184	-0.15546	0.117227	0.187972	-0.292408	-0.262004	-0.331741	-0.281247	-0.136731	-0.147109	-0.300442	-0.075893	-0.058033	-0.109965	-0.091573	-0.023782	-0.003592	-0.572456	-0.070393	-0.445387	0.323596	-0.293125	0.032272	-0.166098	
3.03497	5	0	-0.328248	-0.015442	-0.276493	-0.186648	-0.463675	0.043324	0.0244028	0.11498	-0.16548	-0.150209	0.114829	0.216295	-0.286823	-0.277787	-0.342396	-0.285062	-0.137507	-0.144915	-0.318439	-0.073014	-0.0477023	-0.102169	-0.0929737	0.006804	0.0124813	-0.578628	-0.0549852	-0.437121	0.36039	-0.302322	0.0285303	-0.155523	
3.05939	5	0	-0.328248	-0.015442	-0.274592	-0.166834	-0.457183	0.04455	0.0086505	0.14245	-0.159776	-0.144959	0.11243	0.244617	-0.281239	-0.29357	-0.353051	-0.288876	-0.138284	-0.142721	-0.336437	-0.070135	-0.0373715	-0.0943735	-0.0943745	0.03739	0.0285545	-0.584801	-0.0395775	-0.428856	0.397183	-0.311519	0.0247885	-0.144948	
3.07617	5	0	-0.328248	-0.015442	-0.272691	-0.14702	-0.45069	0.045776	-0.00710175	0.169919	-0.154071	-0.139708	0.110032	0.27294	-0.275654	-0.309353	-0.363705	-0.292691	-0.13906	-0.140527	-0.354434	-0.067256	-0.0270408	-0.0865778	-0.0957753	0.067976	0.0446278	-0.590973	-0.0241697	-0.42059	0.433976	-0.320715	0.0210468	-0.134373	
3.09448	5	0	-0.328248	-0.015442	-0.27079	-0.127206	-0.444198	0.047002	-0.022854	0.197388	-0.148367	-0.134458	0.107634	0.301262	-0.270069	-0.325136	-0.37436	-0.296505	-0.139836	-0.138333	-0.372431	-0.064377	-0.01671	-0.078782	-0.097176	0.098562	0.060701	-0.597145	-0.008762	-0.412325	0.47077	-0.329912	0.017305	-0.123798	
3.10821	5	0	-0.349435	-0.0144133	-0.27961	-0.127465	-0.45069	0.045776	-0.0376462	0.205143	-0.147334	-0.137379	0.107634	0.301262	-0.280572	-0.334418	-0.386844	-0.311997	-0.131993	-0.141771	-0.384673	-0.0617012	-0.0200627	-0.0693065	-0.0890115	0.102153	0.0587068	-0.591509	-0.0129895	-0.400377	0.507772	-0.339212	0.0249468	-0.123366	
3.12347	5	0	-0.370621	-0.0133845	-0.28843	-0.127725	-0.457183	0.04455	-0.0524385	0.212898	-0.1463	-0.140299	0.107634	0.301262	-0.291076	-0.3437	-0.399328	-0.327489	-0.124149	-0.145209	-0.396914	-0.0590255	-0.0234155	-0.059831	-0.080847	0.105745	0.0567125	-0.585873	-0.017217	-0.38843	0.544774	-0.348513	0.0325885	-0.122934	
3.13415	5	0	-0.391808	-0.0123558	-0.297251	-0.127984	-0.463675	0.043324	-0.0672308	0.220653	-0.145266	-0.14322	0.107634	0.301262	-0.301579	-0.352983	-0.411813	-0.34298	-0.116306	-0.148646	-0.409156	-0.0563498	-0.0267683	-0.0503555	-0.0726825	0.109337	0.0547182	-0.580236	-0.0214445	-0.376482	0.581775	-0.357814	0.0402302	-0.122502	
3.14941	5	0	-0.412995	-0.011327	-0.306071	-0.128243	-0.470168	0.042098	-0.082023	0.228408	-0.144233	-0.146141	0.107634	0.301262	-0.312082	-0.362265	-0.424297	-0.358472	-0.108463	-0.152084	-0.421397	-0.053674	-0.030121	-0.04088	-0.064518	0.112928	0.052724	-0.5746	-0.025672	-0.364535	0.618777	-0.367114	0.047872	-0.12207	
3.16162	5	0	-0.408579	-0.0238088	-0.312111	-0.136326	-0.477491	0.0432397	-0.080265	0.22344	-0.141134	-0.154898	0.104565	0.28839	-0.314547	-0.37475	-0.432934	-0.367836	-0.108463	-0.152084	-0.418133	-0.0628975	-0.028444	-0.045619	-0.0740513	0.113205	0.0728227	-0.592066	-0.022853	-0.372502	0.574928	-0.338462	0.065687	-0.128281	
3.17535	5	0	-0.404162	-0.0362905	-0.318151	-0.144408	-0.484814	0.0443815	-0.078507	0.218471	-0.138036	-0.163655	0.101496	0.275518	-0.317013	-0.387236	-0.44157	-0.3772	-0.108463	-0.152084	-0.41487	-0.072121	-0.026767	-0.050358	-0.0835845	0.113482	0.0929215	-0.609533	-0.020034	-0.380468	0.531079	-0.30981	0.083502	-0.134492	
3.19061	5	0	-0.399746	-0.0487723	-0.324191	-0.152491	-0.492137	0.0455233	-0.076749	0.213503	-0.134938	-0.172412	0.0984277	0.262647	-0.319478	-0.399721	-0.450207	-0.386563	-0.108463	-0.152084	-0.411606	-0.0813445	-0.02509	-0.055097	-0.0931177	0.113759	0.11302	-0.626999	-0.017215	-0.388435	0.48723	-0.281159	0.101317	-0.140703	
3.20129	5	0	-0.39533	-0.061254	-0.330231	-0.160574	-0.49946	0.046665	-0.074991	0.208535	-0.131839	-0.181169	0.095359	0.249775	-0.321943	-0.412206	-0.458844	-0.395927	-0.108463	-0.152084	-0.408342	-0.090568	-0.023413	-0.059836	-0.102651	0.114036	0.133119	-0.644465	-0.014396	-0.396402	0.443381	-0.252507	0.119132	-0.146914	
3.20892	5	0	-0.398274	-0.0529348	-0.332998	-0.152754	-0.503654	0.058517	-0.0828163	0.213648	-0.135971	-0.169491	0.0878488	0.227985	-0.317623	-0.404963	-0.454034	-0.392643	-0.116238	-0.130109	-0.407527	-0.0928722	-0.0113865	-0.0567587	-0.113482	0.0914295	0.118999	-0.643897	-0.0332788	-0.420698	0.439952	-0.242815	0.138244	-0.156685	
3.21808	5	0	-0.401217	-0.0446155	-0.335765	-0.144934	-0.507848	0.070369	-0.0906415	0.218761	-0.140103	-0.157813	0.0803385	0.206194	-0.313302	-0.397721	-0.449224	-0.389358	-0.124014	-0.108134	-0.406712	-0.0951765	0.00064	-0.0536815	-0.124313	0.068823	0.10488	-0.643328	-0.0521615	-0.444993	0.436523	-0.233124	0.157356	-0.166457	
3.22265	5	0	-0.404161	-0.0362963	-0.338532	-0.137114	-0.512041	0.082221	-0.0984667	0.223874	-0.144235	-0.146136	0.0728282	0.184403	-0.308982	-0.390478	-0.444414	-0.386073	-0.13179	-0.0861598	-0.405896	-0.0974808	0.0126665	-0.0506043	-0.135144	0.0462165	0.0907605	-0.64276	-0.0710443	-0.469288	0.433093	-0.223432	0.176467	-0.176229	
3.22571	5	0	-0.407104	-0.027977	-0.341299	-0.129294	-0.516235	0.094073	-0.106292	0.228987	-0.148367	-0.134458	0.065318	0.162613	-0.304662	-0.383235	-0.439604	-0.382789	-0.139565	-0.064185	-0.405081	-0.099785	0.024693	-0.047527	-0.145975	0.02361	0.076641	-0.642192	-0.089927	-0.493584	0.429664	-0.213741	0.195579	-0.186	
3.23181	5	0	-0.400943	-0.0159872	-0.325059	-0.124852	-0.500979	0.109682	-0.116653	0.224311	-0.144204	-0.103406	0.043872	0.158885	-0.301598	-0.352927	-0.440591	-0.38	-0.12848	-0.0392145	-0.403451	-0.104392	0.0300112	-0.0254175	-0.150026	0.0085085	0.0585745	-0.630387	-0.080133	-0.521263	0.466643	-0.222978	0.204528	-0.18913	
3.23639	5	0	-0.394783	-0.0039975	-0.308818	-0.120411	-0.485723	0.125292	-0.127014	0.219635	-0.140041	-0.072355	0.022426	0.155158	-0.298535	-0.32262	-0.441577	-0.377212	-0.117394	-0.014244	-0.401821	-0.108999	0.0353295	-0.003308	-0.154077	-0.006593	0.040508	-0.618583	-0.070339	-0.548943	0.503623	-0.232216	0.213476	-0.192259	
3.23486	5	0	-0.388622	0.00799225	-0.292577	-0.11597	-0.470467	0.140901	-0.137374	0.214958	-0.135877	-0.0413035	0.00098	0.15143	-0.295471	-0.292312	-0.442564	-0.374423	-0.106309	0.0107265	-0.40019	-0.113606	0.0406477	0.0188015	-0.158129	-0.0216945	0.0224415	-0.606778	-0.060545	-0.576623	0.540602	-0.241453	0.222424	-0.195389	
3.24249	5	0	-0.382461	0.019982	-0.276337	-0.111528	-0.455211	0.15651	-0.147735	0.210282	-0.131714	-0.010252	-0.020466	0.147702	-0.292408	-0.262004	-0.443551	-0.371634	-0.095224	0.035697	-0.39856	-0.118213	0.045966	0.040911	-0.16218	-0.036796	0.004375	-0.594973	-0.050751	-0.604302	0.577582	-0.250691	0.231373	-0.198519	
3.24249	5	0	-0.379256	0.0403722	-0.253975	-0.0989605	-0.443891	0.163772	-0.165866	0.210702	-0.119777	0.020425	-0.031673	0.157978	-0.288441	-0.234167	-0.452307	-0.363768	-0.0983238	0.0632618	-0.406711	-0.111116	0.0307615	0.083881	-0.170306	-0.0403433	0.0184565	-0.595516	-0.0626323	-0.596538	0.574142	-0.240968	0.248053	-0.201259	
3.24402	5	0	-0.376051	0.0607625	-0.231613	-0.086393	-0.432571	0.171035	-0.183997	0.211122	-0.107841	0.051102	-0.04288	0.168255	-0.284474	-0.206329	-0.461062	-0.355903	-0.101423	0.0908265	-0.414863	-0.104019	0.015557	0.126851	-0.178432	-0.0438905	0.032538	-0.596059	-0.0745135	-0.588775	0.570701	-0.231245	0.264733	-0.203999	
3.24249	5	0	-0.372847	0.0811527	-0.209252	-0.0738255	-0.421252	0.178297	-0.202127	0.211542	-0.0959037	0.081779	-0.054087	0.178532	-0.280508	-0.178492	-0.469817	-0.348037	-0.104523	0.118391	-0.423014	-0.096922	0.0003525	0.169821	-0.186559	-0.0474378	0.0466195	-0.596602	-0.0863947	-0.581012	0.567261	-0.221522	0.281412	-0.206739	
3.23944	5	0	-0.369642	0.101543	-0.18689	-0.061258	-0.409932	0.185559	-0.220258	0.211962	-0.083967	0.112456	-0.065294	0.188808	-0.276541	-0.150655	-0.478573	-0.340172	-0.107623	0.145956	-0.431165	-0.089825	-0.014852	0.212791	-0.194685	-0.050985	0.060701	-0.597145	-0.098276	-0.573248	0.563821	-0.211799	0.298092	-0.209479	
3.23181	5	0	-0.354339	0.117331	-0.174725	-0.044957	-0.401975	0.202406	-0.226289	0.212098	-0.0720275	0.143348	-0.0792123	0.206771	-0.273539	-0.12001	-0.474756	-0.334081	-0.0934047	0.1623	-0.43768	-0.0873388	-0.00790125	0.230361	-0.200088	-0.0621913	0.0587068	-0.591509	-0.092693	-0.589026	0.553477	-0.182566	0.310832	-0.223244	
3.23181	5	0	-0.339037	0.133119	-0.162559	-0.028656	-0.394018	0.219254	-0.23232	0.212234	-0.060088	0.174239	-0.0931305	0.224734	-0.270537	-0.0893645	-0.470939	-0.32799	-0.0791865	0.178644	-0.444196	-0.0848525	-0.0009505	0.247931	-0.205491	-0.0733975	0.0567125	-0.585873	-0.08711	-0.604804	0.543133	-0.153334	0.323572	-0.237009	
3.2196	5	0	-0.323734	0.148907	-0.150394	-0.012355	-0.38606	0.236101	-0.238352	0.212371	-0.0481485	0.205131	-0.107049	0.242697	-0.267535	-0.0587193	-0.467121	-0.3219	-0.0649683	0.194988	-0.450711	-0.0823663	0.00600025	0.265502	-0.210894	-0.0846038	0.0547182	-0.580236	-0.081527	-0.620583	0.53279	-0.124101	0.336311	-0.250773	
3.21808	5	0	-0.308431	0.164695	-0.138229	0.003946	-0.378103	0.252949	-0.244383	0.212507	-0.036209	0.236023	-0.120967	0.26066	-0.264533	-0.028074	-0.463304	-0.315809	-0.05075	0.211332	-0.457226	-0.07988	0.012951	0.283072	-0.216297	-0.09581	0.052724	-0.5746	-0.075944	-0.636361	0.522446	-0.094869	0.349051	-0.264538	
3.20892	5	0	-0.303744	0.181036	-0.118531	0.0245592	-0.384037	0.26972	-0.254786	0.225012	-0.0331725	0.270657	-0.130512	0.287635	-0.252527	-0.0031565	-0.46825	-0.301831	-0.0523212	0.234653	-0.458856	-0.075273	0.004445	0.307111	-0.213588	-0.103466	0.0507285	-0.56896	-0.0850212	-0.636487	0.515532	-0.075327	0.364549	-0.26378	
3.20434	5	0	-0.299057	0.197378	-0.098833	0.0451725	-0.389972	0.286491	-0.265188	0.237517	-0.030136	0.30529	-0.140057	0.31461	-0.240521	0.021761	-0.473196	-0.287853	-0.0538925	0.257974	-0.460486	-0.070666	-0.004061	0.331151	-0.210879	-0.111121	0.048733	-0.563321	-0.0940985	-0.636613	0.508617	-0.055785	0.380048	-0.263022	
3.19672	5	0	-0.29437	0.21372	-0.079135	0.0657858	-0.395906	0.303262	-0.275591	0.250023	-0.0270995	0.339923	-0.149601	0.341585	-0.228514	0.0466785	-0.478142	-0.273875	-0.0554638	0.281295	-0.462116	-0.066059	-0.012567	0.35519	-0.20817	-0.118777	0.0467375	-0.557681	-0.103176	-0.636739	0.501702	-0.036243	0.395547	-0.262263	
3.19061	5	0	-0.289683	0.230061	-0.059437	0.086399	-0.40184	0.320033	-0.285994	0.262528	-0.024063	0.374557	-0.159146	0.36856	-0.216508	0.071596	-0.483088	-0.259897	-0.057035	0.304616	-0.463746	-0.061452	-0.021073	0.379229	-0.205461	-0.126433	0.044742	-0.552041	-0.112253	-0.636865	0.494788	-0.016701	0.411045	-0.261505	
3.18146	5	0	-0.295651	0.246927	-0.0528493	0.11881	-0.400992	0.317635	-0.298897	0.265251	-0.0189477	0.403416	-0.174438	0.390431	-0.20976	0.0918618	-0.493828	-0.246423	-0.0562523	0.321303	-0.472701	-0.0520572	-0.0141485	0.396948	-0.206815	-0.122606	0.042745	-0.546398	-0.116436	-0.625044	0.487858	0.0028835	0.431856	-0.253281	
3.17535	5	0	-0.301619	0.263793	-0.0462615	0.151221	-0.400143	0.315238	-0.3118	0.267973	-0.0138325	0.432275	-0.189731	0.412301	-0.203012	0.112127	-0.504568	-0.23295	-0.0554695	0.33799	-0.481656	-0.0426625	-0.007224	0.414666	-0.20817	-0.118779	0.040748	-0.540755	-0.120618	-0.613224	0.480928	0.022468	0.452667	-0.245057	
3.16772	5	0	-0.307586	0.280659	-0.0396737	0.183632	-0.399294	0.31284	-0.324702	0.270696	-0.00871725	0.461134	-0.205023	0.434172	-0.196265	0.132393	-0.515307	-0.219476	-0.0546867	0.354678	-0.49061	-0.0332677	-0.0002995	0.432385	-0.209524	-0.114952	0.038751	-0.535111	-0.124801	-0.601403	0.473998	0.0420525	0.473478	-0.236834	
3.16315	5	0	-0.313554	0.297525	-0.033086	0.216043	-0.398446	0.310442	-0.337605	0.273419	-0.003602	0.489993	-0.220315	0.456043	-0.189517	0.152659	-0.526047	-0.206003	-0.053904	0.371365	-0.499565	-0.023873	0.006625	0.450104	-0.210878	-0.111125	0.036754	-0.529468	-0.128984	-0.589582	0.467068	0.061637	0.494289	-0.22861	
3.15704	5	0	-0.293729	0.300813	-0.0236865	0.240648	-0.388531	0.302121	-0.351356	0.278602	0.0057515	0.506975	-0.224421	0.467649	-0.188995	0.170882	-0.527038	-0.203202	-0.0562825	0.378088	-0.496304	-0.0330893	0.00320525	0.459769	-0.206817	-0.122602	0.0327568	-0.518171	-0.117119	-0.597335	0.507672	0.0426462	0.507367	-0.220743	
3.15094	5	0	-0.273904	0.304102	-0.014287	0.265253	-0.378617	0.293799	-0.365108	0.283785	0.015105	0.523957	-0.228528	0.479254	-0.188472	0.189105	-0.528029	-0.200402	-0.058661	0.38481	-0.493043	-0.0423055	-0.0002145	0.469434	-0.202757	-0.134078	0.0287595	-0.506873	-0.105254	-0.605088	0.548276	0.0236555	0.520444	-0.212877	
3.15399	5	0	-0.254079	0.307391	-0.0048875	0.289858	-0.368702	0.285477	-0.37886	0.288968	0.0244585	0.540939	-0.232635	0.49086	-0.18795	0.207329	-0.52902	-0.197601	-0.0610395	0.391533	-0.489782	-0.0515217	-0.00363425	0.4791	-0.198696	-0.145555	0.0247622	-0.495576	-0.093389	-0.612841	0.58888	0.00466475	0.533522	-0.20501	
3.15094	5	0	-0.234254	0.310679	0.004512	0.314463	-0.358787	0.277156	-0.392611	0.294151	0.033812	0.557921	-0.236741	0.502466	-0.187428	0.225552	-0.530011	-0.1948	-0.063418	0.398255	-0.486521	-0.060738	-0.007054	0.488765	-0.194635	-0.157031	0.020765	-0.484278	-0.081524	-0.620594	0.629484	-0.014326	0.5466	-0.197143	
3.15246	5	0	-0.231067	0.331401	0.0214678	0.343562	-0.361332	0.284349	-0.404728	0.31158	0.0331557	0.581522	-0.253411	0.528255	-0.18692	0.243835	-0.532986	-0.186392	-0.0602678	0.408271	-0.495468	-0.0513495	-0.012191	0.503282	-0.206803	-0.14908	0.0187642	-0.478624	-0.0947843	-0.608897	0.626009	-0.00450675	0.55971	-0.189258	
3.14941	5	0	-0.22788	0.352123	0.0384235	0.372661	-0.363878	0.291543	-0.416846	0.329008	0.0324995	0.605122	-0.270081	0.554044	-0.186411	0.262117	-0.535961	-0.177984	-0.0571175	0.418286	-0.504416	-0.041961	-0.017328	0.517799	-0.218971	-0.141129	0.0167635	-0.47297	-0.108044	-0.597201	0.622535	0.0053125	0.57282	-0.181372	
3.15857	5	0	-0.224692	0.372845	0.0553792	0.401759	-0.366423	0.298736	-0.428963	0.346436	0.0318433	0.628722	-0.286751	0.579833	-0.185902	0.2804	-0.538936	-0.169576	-0.0539673	0.428302	-0.513363	-0.0325725	-0.022465	0.532317	-0.231139	-0.133178	0.0147627	-0.467316	-0.121305	-0.585504	0.619061	0.0151317	0.585929	-0.173486	
3.16315	5	0	-0.221505	0.393567	0.072335	0.430858	-0.368968	0.305929	-0.441081	0.363865	0.031187	0.652323	-0.303421	0.605622	-0.185394	0.298682	-0.541911	-0.161168	-0.050817	0.438317	-0.522311	-0.023184	-0.027602	0.546834	-0.243307	-0.125227	0.012762	-0.461662	-0.134565	-0.573807	0.615586	0.024951	0.599039	-0.165601	
3.16315	5	0	-0.212309	0.397354	0.078472	0.439258	-0.372099	0.295078	-0.447063	0.363968	0.0290497	0.658363	-0.314597	0.615908	-0.186347	0.301376	-0.545706	-0.167305	-0.0524065	0.442809	-0.528807	-0.0207105	-0.031031	0.556526	-0.233845	-0.125528	0.0107603	-0.456005	-0.12689	-0.569718	0.612108	0.034781	0.610913	-0.154117	
3.16772	5	0	-0.203113	0.401142	0.084609	0.447658	-0.375229	0.284226	-0.453044	0.36407	0.0269125	0.664403	-0.325773	0.626193	-0.1873	0.304071	-0.549502	-0.173442	-0.053996	0.447302	-0.535303	-0.018237	-0.03446	0.566217	-0.224384	-0.12583	0.0087585	-0.450347	-0.119216	-0.56563	0.608629	0.044611	0.622788	-0.142632	
3.17078	5	0	-0.193916	0.404929	0.090746	0.456058	-0.37836	0.273375	-0.459026	0.364173	0.0247752	0.670444	-0.336948	0.636478	-0.188254	0.306765	-0.553297	-0.17958	-0.0555855	0.451794	-0.541799	-0.0157635	-0.037889	0.575909	-0.214923	-0.126132	0.00675675	-0.444689	-0.111541	-0.561541	0.605151	0.054441	0.634663	-0.131148	
3.18146	5	0	-0.18472	0.408717	0.096883	0.464458	-0.381491	0.262524	-0.465008	0.364276	0.022638	0.676484	-0.348124	0.646764	-0.189207	0.309459	-0.557092	-0.185717	-0.057175	0.456286	-0.548295	-0.01329	-0.041318	0.5856	-0.205461	-0.126433	0.004755	-0.439032	-0.103866	-0.557452	0.601673	0.064271	0.646537	-0.119664	
3.18603	5	0	-0.18472	0.408717	0.096883	0.464458	-0.386315	0.256479	-0.470109	0.361904	0.0279785	0.661391	-0.349687	0.629905	-0.194471	0.304617	-0.567643	-0.189579	-0.06191	0.450749	-0.543408	-0.0271002	-0.0344635	0.566228	-0.197348	-0.149361	0.0107567	-0.455994	-0.0968855	-0.577179	0.594705	0.0839635	0.663516	-0.122494	
3.18756	5	0	-0.18472	0.408717	0.096883	0.464458	-0.391139	0.250433	-0.475209	0.359533	0.033319	0.646298	-0.351249	0.613047	-0.199736	0.299775	-0.578194	-0.193441	-0.066645	0.445213	-0.538522	-0.0409105	-0.027609	0.546855	-0.189235	-0.17229	0.0167585	-0.472956	-0.089905	-0.596907	0.587737	0.103656	0.680494	-0.125325	
3.19672	5	0	-0.18472	0.408717	0.096883	0.464458	-0.395963	0.244388	-0.48031	0.357161	0.0386595	0.631205	-0.352812	0.596188	-0.205001	0.294933	-0.588746	-0.197304	-0.07138	0.439676	-0.533636	-0.0547207	-0.0207545	0.527483	-0.181122	-0.195219	0.0227602	-0.489918	-0.0829245	-0.616634	0.580769	0.123348	0.697472	-0.128155	
3.19824	5	0	-0.18472	0.408717	0.096883	0.464458	-0.400787	0.238343	-0.485411	0.354789	0.044	0.616112	-0.354374	0.579329	-0.210265	0.290091	-0.599297	-0.201166	-0.076115	0.434139	-0.528749	-0.068531	-0.0139	0.508111	-0.173009	-0.218147	0.028762	-0.50688	-0.075944	-0.636361	0.573801	0.143041	0.714451	-0.130985	
3.19672	5	0	-0.177209	0.387489	0.093598	0.447998	-0.398855	0.213225	-0.481913	0.344905	0.0378375	0.590061	-0.35868	0.570249	-0.201288	0.245022	-0.604739	-0.236194	-0.0681855	0.411728	-0.533602	-0.086545	-0.00706025	0.488781	-0.171659	-0.221963	0.032757	-0.51817	-0.070371	-0.652112	0.628549	0.0845705	0.710643	-0.120223	
3.20129	5	0	-0.169698	0.366262	0.090313	0.431538	-0.396923	0.188107	-0.478416	0.33502	0.031675	0.56401	-0.362986	0.561168	-0.192311	0.199952	-0.610181	-0.271222	-0.060256	0.389317	-0.538455	-0.104559	-0.0002205	0.46945	-0.170309	-0.225778	0.036752	-0.529461	-0.064798	-0.667863	0.683298	0.0261	0.706835	-0.109461	
3.19519	5	0	-0.162186	0.345034	0.087028	0.415078	-0.394991	0.16299	-0.474918	0.325136	0.0255125	0.537959	-0.367292	0.552088	-0.183334	0.154882	-0.615622	-0.30625	-0.0523265	0.366907	-0.543309	-0.122573	0.00661925	0.45012	-0.168959	-0.229594	0.040747	-0.540751	-0.059225	-0.683613	0.738047	-0.0323705	0.703027	-0.098699	
3.21503	5	0	-0.154675	0.323806	0.083743	0.398618	-0.393059	0.137872	-0.471421	0.315251	0.01935	0.511908	-0.371598	0.543008	-0.174357	0.109813	-0.621064	-0.341278	-0.044397	0.344496	-0.548162	-0.140587	0.013459	0.43079	-0.167609	-0.233409	0.044742	-0.552041	-0.053652	-0.699364	0.792795	-0.090841	0.699219	-0.087937	
3.21503	5	0	-0.160886	0.311584	0.0771527	0.365862	-0.404388	0.130635	-0.474774	0.307955	0.0178535	0.494442	-0.356353	0.521173	-0.181118	0.0895857	-0.631438	-0.362232	-0.031732	0.327622	-0.554639	-0.15396	0.0168735	0.421141	-0.162214	-0.248656	0.064842	-0.569511	-0.067636	-0.711366	0.785834	-0.07117	0.699219	-0.087937	
3.2135	5	0	-0.167098	0.299361	0.0705625	0.333105	-0.415716	0.123398	-0.478127	0.300658	0.016357	0.476975	-0.341108	0.499339	-0.18788	0.0693585	-0.641812	-0.383185	-0.019067	0.310748	-0.561115	-0.167332	0.020288	0.411491	-0.15682	-0.263902	0.084942	-0.586981	-0.08162	-0.723367	0.778874	-0.051499	0.699219	-0.087937	
3.21197	5	0	-0.17331	0.287138	0.0639723	0.300349	-0.427044	0.116161	-0.48148	0.293362	0.0148605	0.459509	-0.325863	0.477504	-0.194641	0.0491313	-0.652186	-0.404139	-0.006402	0.293875	-0.567592	-0.180705	0.0237025	0.401841	-0.151425	-0.279149	0.105042	-0.60445	-0.095604	-0.735369	0.771914	-0.031828	0.699219	-0.087937	
3.21655	5	0	-0.179521	0.274916	0.057382	0.267593	-0.438373	0.108924	-0.484833	0.286066	0.013364	0.442043	-0.310618	0.455669	-0.201402	0.028904	-0.66256	-0.425092	0.006263	0.277001	-0.574068	-0.194078	0.027117	0.392192	-0.14603	-0.294395	0.125142	-0.62192	-0.109588	-0.747371	0.764953	-0.012157	0.699219	-0.087937	
3.20434	5	0	-0.188717	0.271174	0.049355	0.239039	-0.439829	0.0934435	-0.491536	0.271511	0.00868425	0.433598	-0.324712	0.453025	-0.201959	0.010842	-0.672923	-0.445941	0.0165608	0.266836	-0.574881	-0.207598	0.0443135	0.380956	-0.155504	-0.294058	0.125142	-0.62192	-0.11726	-0.751398	0.764953	-0.012157	0.697949	-0.0843467	
3.2074	5	0	-0.197912	0.267432	0.041328	0.210485	-0.441285	0.077963	-0.49824	0.256956	0.0040045	0.425154	-0.338807	0.450382	-0.202516	-0.00722	-0.683285	-0.46679	0.0268585	0.256671	-0.575694	-0.221117	0.06151	0.369719	-0.164979	-0.29372	0.125142	-0.62192	-0.124932	-0.755426	0.764953	-0.012157	0.696678	-0.0807565	
3.20587	5	0	-0.207108	0.263691	0.033301	0.181931	-0.442742	0.0624825	-0.504943	0.242402	-0.00067525	0.41671	-0.352901	0.447739	-0.203074	-0.025282	-0.693648	-0.487639	0.0371563	0.246506	-0.576508	-0.234637	0.0787065	0.358482	-0.174453	-0.293382	0.125142	-0.62192	-0.132603	-0.759453	0.764953	-0.012157	0.695407	-0.0771663	
3.20587	5	0	-0.216304	0.259949	0.025274	0.153377	-0.444198	0.047002	-0.511647	0.227847	-0.005355	0.408265	-0.366995	0.445095	-0.203631	-0.043344	-0.704011	-0.508488	0.047454	0.236341	-0.577321	-0.248157	0.095903	0.347246	-0.183927	-0.293045	0.125142	-0.62192	-0.140275	-0.76348	0.764953	-0.012157	0.694137	-0.073576	
3.19824	5	0	-0.216304	0.259949	0.0309118	0.137444	-0.45069	0.045776	-0.515866	0.223045	0.007791	0.392783	-0.365633	0.441245	-0.195173	-0.0672475	-0.701945	-0.531009	0.0434778	0.22864	-0.578141	-0.261644	0.0993135	0.337607	-0.190697	-0.300313	0.127136	-0.627556	-0.138889	-0.767396	0.761467	-0.00230525	0.692866	-0.0699845	
3.19824	5	0	-0.216304	0.259949	0.0365495	0.121511	-0.457183	0.04455	-0.520085	0.218243	0.020937	0.377301	-0.36427	0.437395	-0.186716	-0.091151	-0.699879	-0.55353	0.0395015	0.22094	-0.578961	-0.275131	0.102724	0.327968	-0.197466	-0.307581	0.12913	-0.633193	-0.137504	-0.771312	0.757981	0.0075465	0.691596	-0.066393	
3.20129	5	0	-0.216304	0.259949	0.0421872	0.105577	-0.463675	0.043324	-0.524305	0.21344	0.034083	0.361819	-0.362907	0.433544	-0.178258	-0.115055	-0.697813	-0.576051	0.0355253	0.213239	-0.579781	-0.288617	0.106135	0.318329	-0.204236	-0.314848	0.131125	-0.638829	-0.136118	-0.775228	0.754496	0.0173982	0.690325	-0.0628015	
3.19366	5	0	-0.216304	0.259949	0.047825	0.089644	-0.470168	0.042098	-0.528524	0.208638	0.047229	0.346337	-0.361545	0.429694	-0.1698	-0.138958	-0.695747	-0.598572	0.031549	0.205539	-0.580601	-0.302104	0.109545	0.30869	-0.211006	-0.322116	0.133119	-0.644465	-0.134732	-0.779144	0.75101	0.02725	0.689054	-0.05921	
3.20587	5	0	-0.202621	0.251008	0.0327445	0.0811648	-0.470168	0.042098	-0.525917	0.20127	0.0503977	0.337381	-0.347692	0.41177	-0.164174	-0.154858	-0.687974	-0.620541	0.0426325	0.193153	-0.580624	-0.31783	0.111249	0.303874	-0.216426	-0.333161	0.149267	-0.650683	-0.136865	-0.798788	0.792052	0.00801425	0.674621	-0.0635745	
3.20434	5	0	-0.188937	0.242067	0.017664	0.0726855	-0.470168	0.042098	-0.523311	0.193903	0.0535665	0.328425	-0.33384	0.393846	-0.158548	-0.170758	-0.6802	-0.642511	0.053716	0.180767	-0.580647	-0.333556	0.112953	0.299059	-0.221847	-0.344205	0.165416	-0.656902	-0.138998	-0.818431	0.833095	-0.0112215	0.660189	-0.067939	
3.21197	5	0	-0.175254	0.233127	0.0025835	0.0642062	-0.470168	0.042098	-0.520704	0.186535	0.0567353	0.319469	-0.319987	0.375922	-0.152921	-0.186659	-0.672427	-0.664481	0.0647995	0.168381	-0.58067	-0.349283	0.114657	0.294243	-0.227268	-0.35525	0.181564	-0.663121	-0.141132	-0.838075	0.874138	-0.0304573	0.645757	-0.0723035	
3.21808	5	0	-0.161571	0.224186	-0.012497	0.055727	-0.470168	0.042098	-0.518097	0.179168	0.059904	0.310513	-0.306134	0.357998	-0.147295	-0.202559	-0.664653	-0.68645	0.075883	0.155995	-0.580693	-0.365009	0.116361	0.289427	-0.232688	-0.366295	0.197713	-0.669339	-0.143265	-0.857719	0.91518	-0.049693	0.631324	-0.076668	
3.23028	5	0	-0.17376	0.228903	-0.0040815	0.031944	-0.469329	0.039728	-0.517229	0.176713	0.0609598	0.30753	-0.303415	0.350312	-0.142614	-0.215787	-0.656898	-0.708366	0.0861855	0.145837	-0.582331	-0.376157	0.118064	0.284614	-0.238105	-0.37731	0.203692	-0.686237	-0.146789	-0.873398	0.870648	-0.0205948	0.635127	-0.087417	
3.23944	5	0	-0.185949	0.233621	0.004334	0.008161	-0.46849	0.037358	-0.51636	0.174259	0.0620155	0.304546	-0.300696	0.342627	-0.137933	-0.229016	-0.649144	-0.730282	0.096488	0.135678	-0.58397	-0.387304	0.119767	0.279801	-0.243523	-0.388326	0.209671	-0.703135	-0.150313	-0.889076	0.826116	0.0085035	0.638931	-0.098166	
3.25317	5	0	-0.198137	0.238338	0.0127495	-0.015622	-0.467652	0.034988	-0.515491	0.171804	0.0630712	0.301563	-0.297976	0.334942	-0.133253	-0.242245	-0.641389	-0.752197	0.106791	0.12552	-0.585608	-0.398452	0.12147	0.274988	-0.24894	-0.399342	0.21565	-0.720033	-0.153837	-0.904754	0.781583	0.0376018	0.642734	-0.108915	
3.2608	5	0	-0.210326	0.243055	0.021165	-0.039405	-0.466813	0.032618	-0.514623	0.16935	0.064127	0.29858	-0.295257	0.327256	-0.128572	-0.255473	-0.633634	-0.774113	0.117093	0.115361	-0.587246	-0.4096	0.123173	0.270175	-0.254357	-0.410357	0.221629	-0.736931	-0.157361	-0.920433	0.737051	0.0667	0.646537	-0.119664	
3.28674	5	0	-0.205847	0.230397	0.0075005	-0.051747	-0.472461	0.029026	-0.512887	0.164443	0.0662372	0.292616	-0.282759	0.313186	-0.132927	-0.262783	-0.626865	-0.793245	0.117093	0.115361	-0.575172	-0.427945	0.12147	0.274988	-0.249008	-0.425474	0.22362	-0.742557	-0.150481	-0.939877	0.778089	0.0474752	0.646537	-0.119664	
3.30047	5	0	-0.201368	0.217738	-0.006164	-0.064089	-0.478109	0.025434	-0.511151	0.159536	0.0683475	0.286652	-0.270262	0.299117	-0.137282	-0.270092	-0.620095	-0.812377	0.117093	0.115361	-0.563098	-0.44629	0.119767	0.279801	-0.243659	-0.440592	0.22561	-0.748182	-0.143601	-0.959321	0.819128	0.0282505	0.646537	-0.119664	
3.31421	5	0	-0.196889	0.205079	-0.0198285	-0.076431	-0.483758	0.021842	-0.509414	0.15463	0.0704577	0.280689	-0.257765	0.285047	-0.141636	-0.277401	-0.613325	-0.831509	0.117093	0.115361	-0.551025	-0.464634	0.118064	0.284614	-0.23831	-0.455709	0.227601	-0.753807	-0.136721	-0.978765	0.860167	0.00902575	0.646537	-0.119664	
3.33862	5	0	-0.19241	0.192421	-0.033493	-0.088773	-0.489406	0.01825	-0.507678	0.149723	0.072568	0.274725	-0.245267	0.270977	-0.145991	-0.284711	-0.606556	-0.850641	0.117093	0.115361	-0.538951	-0.482979	0.116361	0.289427	-0.232961	-0.470826	0.229592	-0.759433	-0.129841	-0.998209	0.901205	-0.010199	0.646537	-0.119664	
3.35541	5	0	-0.200109	0.184498	-0.0532313	-0.109168	-0.486894	0.0111517	-0.507568	0.132701	0.0657568	0.272304	-0.244202	0.246718	-0.142257	-0.295264	-0.613209	-0.865159	0.116305	0.117589	-0.549464	-0.48481	0.114657	0.294243	-0.238387	-0.481781	0.209458	-0.741953	-0.137504	-1.00216	0.849674	0.038679	0.655655	-0.122868	
3.36914	5	0	-0.207808	0.176574	-0.0729695	-0.129562	-0.484382	0.0040535	-0.507459	0.115679	0.0589455	0.269883	-0.243138	0.222459	-0.138522	-0.305817	-0.619862	-0.879676	0.115516	0.119818	-0.559976	-0.486642	0.112953	0.299059	-0.243812	-0.492735	0.189325	-0.724473	-0.145166	-1.0061	0.798143	0.087557	0.664772	-0.126072	
3.37982	5	0	-0.215507	0.168651	-0.0927078	-0.149957	-0.481871	-0.00304475	-0.507349	0.098657	0.0521343	0.267463	-0.242073	0.1982	-0.134788	-0.316371	-0.626514	-0.894194	0.114727	0.122047	-0.570489	-0.488474	0.111249	0.303874	-0.249238	-0.50369	0.169191	-0.706992	-0.152829	-1.01005	0.746612	0.136435	0.67389	-0.129275	
3.40118	5	0	-0.223206	0.160727	-0.112446	-0.170352	-0.479359	-0.010143	-0.507239	0.081635	0.045323	0.265042	-0.241008	0.173941	-0.131054	-0.326924	-0.633167	-0.908712	0.113939	0.124275	-0.581002	-0.490305	0.109545	0.30869	-0.254664	-0.514645	0.149058	-0.689512	-0.160491	-1.01399	0.695081	0.185313	0.683007	-0.132479	
3.41034	5	0	-0.220229	0.152314	-0.114389	-0.190185	-0.476849	-0.0172353	-0.502049	0.0669667	0.049535	0.253138	-0.248379	0.152345	-0.128256	-0.33483	-0.635049	-0.92003	0.10679	0.12552	-0.581056	-0.505904	0.112952	0.299061	-0.268163	-0.528961	0.153038	-0.700759	-0.165402	-1.02568	0.780873	0.136871	0.672622	-0.125694	
3.42102	5	0	-0.217252	0.1439	-0.116332	-0.210018	-0.47434	-0.0243275	-0.496859	0.0522985	0.053747	0.241235	-0.255749	0.130748	-0.125459	-0.342737	-0.636931	-0.931348	0.099642	0.126765	-0.58111	-0.521502	0.116359	0.289432	-0.281662	-0.543277	0.157018	-0.712007	-0.170314	-1.03737	0.866665	0.0884285	0.662238	-0.118908	
3.43933	5	0	-0.214275	0.135487	-0.118275	-0.229851	-0.47183	-0.0314197	-0.491669	0.0376302	0.057959	0.229332	-0.26312	0.109152	-0.122661	-0.350643	-0.638814	-0.942666	0.0924935	0.128009	-0.581164	-0.5371	0.119766	0.279804	-0.295161	-0.557593	0.160998	-0.723255	-0.175225	-1.04906	0.952457	0.0399863	0.651853	-0.112122	
3.45001	5	0	-0.211298	0.127074	-0.120218	-0.249684	-0.469321	-0.038512	-0.486479	0.022962	0.062171	0.217428	-0.270491	0.087556	-0.119863	-0.35855	-0.640696	-0.953984	0.085345	0.129254	-0.581218	-0.552699	0.123173	0.270175	-0.30866	-0.571909	0.164978	-0.734502	-0.180136	-1.06074	1.03825	-0.008456	0.641468	-0.105337	
3.47137	5	0	-0.206838	0.114469	-0.111917	-0.273144	-0.466813	-0.045599	-0.479572	0.0034415	0.0637625	0.191284	-0.257403	0.029389	-0.114275	-0.374342	-0.627274	-0.975279	0.098009	0.112422	-0.579689	-0.572758	0.129976	0.250949	-0.316834	-0.601128	0.172923	-0.756955	-0.185865	-1.09558	0.952457	0.0399863	0.637428	-0.116453	
3.48663	5	0	-0.202378	0.101864	-0.103615	-0.296604	-0.464306	-0.052686	-0.472664	-0.016079	0.065354	0.165141	-0.244314	-0.028778	-0.108687	-0.390135	-0.613852	-0.996574	0.110673	0.095589	-0.57816	-0.592816	0.136779	0.231722	-0.325008	-0.630346	0.180867	-0.779408	-0.191595	-1.13042	0.866665	0.0884285	0.633387	-0.12757	
3.50036	5	0	-0.197918	0.089259	-0.0953142	-0.320065	-0.461799	-0.059773	-0.465757	-0.0355995	0.0669455	0.138997	-0.231226	-0.086945	-0.1031	-0.405927	-0.60043	-1.01787	0.123337	0.0787565	-0.576631	-0.612874	0.143582	0.212496	-0.333182	-0.659564	0.188811	-0.80186	-0.197325	-1.16525	0.780873	0.136871	0.629347	-0.138686	
3.52325	5	0	-0.193458	0.076654	-0.087013	-0.343525	-0.459291	-0.06686	-0.45885	-0.05512	0.068537	0.112854	-0.218138	-0.145112	-0.097512	-0.42172	-0.587008	-1.03916	0.136001	0.061924	-0.575102	-0.632933	0.150385	0.19327	-0.341356	-0.688783	0.196756	-0.824313	-0.203054	-1.20009	0.695081	0.185313	0.625306	-0.149802	
3.53546	5	0	-0.205894	0.0525762	-0.118909	-0.379488	-0.46077	-0.0822123	-0.452766	-0.0890118	0.064335	0.081515	-0.213599	-0.200223	-0.100953	-0.431591	-0.583171	-1.05001	0.13121	0.0565078	-0.571123	-0.644179	0.136584	0.194909	-0.354809	-0.702936	0.202701	-0.841116	-0.214241	-1.21936	0.736108	0.166121	0.618739	-0.153752	
3.56445	5	0	-0.21833	0.0284985	-0.150805	-0.415451	-0.46225	-0.0975645	-0.446682	-0.122903	0.060133	0.050176	-0.20906	-0.255335	-0.104394	-0.441462	-0.579333	-1.06085	0.126418	0.0510915	-0.567144	-0.655425	0.122784	0.196548	-0.368262	-0.717089	0.208647	-0.857919	-0.225429	-1.23864	0.777135	0.146929	0.612173	-0.157701	
3.58581	5	0	-0.230765	0.00442075	-0.1827	-0.451413	-0.46373	-0.112917	-0.440598	-0.156795	0.055931	0.018837	-0.20452	-0.310446	-0.107834	-0.451334	-0.575496	-1.0717	0.121626	0.0456753	-0.563164	-0.666672	0.108983	0.198187	-0.381714	-0.731242	0.214593	-0.874721	-0.236616	-1.25791	0.818162	0.127737	0.605606	-0.161651	
3.61481	5	0	-0.243201	-0.019657	-0.214596	-0.487376	-0.465209	-0.128269	-0.434514	-0.190687	0.051729	-0.012502	-0.199981	-0.365558	-0.111275	-0.461205	-0.571659	-1.08254	0.116835	0.040259	-0.559185	-0.677918	0.095183	0.199826	-0.395167	-0.745395	0.220538	-0.891524	-0.247803	-1.27718	0.859189	0.108545	0.599039	-0.165601	
3.62854	5	0	-0.242045	-0.0524657	-0.219938	-0.522482	-0.466697	-0.143577	-0.445528	-0.20956	0.0412605	-0.0260317	-0.228579	-0.390026	-0.106634	-0.474321	-0.580263	-1.09149	0.112047	0.034851	-0.561654	-0.686666	0.0968798	0.195031	-0.403197	-0.748732	0.218558	-0.885926	-0.264385	-1.28107	0.818162	0.127737	0.599039	-0.165601	
3.63617	5	0	-0.240889	-0.0852745	-0.22528	-0.557589	-0.468186	-0.158885	-0.456543	-0.228434	0.030792	-0.0395615	-0.257176	-0.414493	-0.101993	-0.487437	-0.588866	-1.10043	0.10726	0.029443	-0.564123	-0.695414	0.0985765	0.190236	-0.411227	-0.752069	0.216577	-0.880329	-0.280966	-1.28496	0.777135	0.146929	0.599039	-0.165601	
3.656	5	0	-0.239732	-0.118083	-0.230622	-0.592695	-0.469674	-0.174193	-0.467558	-0.247307	0.0203235	-0.0530912	-0.285774	-0.43896	-0.097352	-0.500553	-0.59747	-1.10938	0.102472	0.024035	-0.566591	-0.704161	0.100273	0.185441	-0.419258	-0.755405	0.214596	-0.874731	-0.297547	-1.28885	0.736108	0.166121	0.599039	-0.165601	
3.66363	5	0	-0.238576	-0.150892	-0.235964	-0.627801	-0.471162	-0.189501	-0.478572	-0.26618	0.009855	-0.066621	-0.314372	-0.463428	-0.092711	-0.513669	-0.606074	-1.11832	0.097685	0.018627	-0.56906	-0.712909	0.10197	0.180646	-0.427288	-0.758742	0.212616	-0.869134	-0.314129	-1.29274	0.695081	0.185313	0.599039	-0.165601	
3.67584	5	0	-0.231226	-0.171665	-0.253563	-0.628135	-0.472658	-0.204765	-0.48281	-0.270842	0.0150515	-0.081307	-0.324453	-0.476887	-0.0970865	-0.520879	-0.603205	-1.12643	0.103177	0.00310525	-0.577962	-0.71916	0.107054	0.166276	-0.432679	-0.769502	0.220531	-0.891502	-0.314972	-1.31568	0.736108	0.166121	0.573086	-0.159614	
3.68347	5	0	-0.223875	-0.192439	-0.271161	-0.628468	-0.474155	-0.220029	-0.487047	-0.275503	0.020248	-0.095993	-0.334534	-0.490346	-0.101462	-0.528088	-0.600337	-1.13454	0.10867	-0.0124165	-0.586863	-0.725411	0.112139	0.151907	-0.43807	-0.780263	0.228445	-0.913871	-0.315814	-1.33862	0.777135	0.146929	0.547132	-0.153628	
3.69873	5	0	-0.216525	-0.213212	-0.28876	-0.628802	-0.475651	-0.235293	-0.491285	-0.280165	0.0254445	-0.110679	-0.344616	-0.503805	-0.105838	-0.535297	-0.597468	-1.14264	0.114162	-0.0279383	-0.595765	-0.731663	0.117224	0.137538	-0.44346	-0.791024	0.23636	-0.93624	-0.316657	-1.36157	0.818162	0.127737	0.521178	-0.147642	
3.70331	5	0	-0.209174	-0.233986	-0.306358	-0.629135	-0.477147	-0.250557	-0.495522	-0.284826	0.030641	-0.125365	-0.354697	-0.517264	-0.110213	-0.542507	-0.594599	-1.15075	0.119654	-0.04346	-0.604667	-0.737914	0.122308	0.123168	-0.448851	-0.801784	0.244275	-0.958608	-0.3175	-1.38451	0.859189	0.108545	0.495225	-0.141655	
3.70941	5	0	-0.218346	-0.237557	-0.297565	-0.628966	-0.47383	-0.25993	-0.489574	-0.284998	0.0316792	-0.128299	-0.352066	-0.5247	-0.0993518	-0.553627	-0.593643	-1.15345	0.114864	-0.048841	-0.609509	-0.739916	0.129075	0.104045	-0.444913	-0.812913	0.230121	-0.957941	-0.329987	-1.39976	0.910961	0.059493	0.488698	-0.145607	
3.71551	5	0	-0.227519	-0.241128	-0.288772	-0.628798	-0.470514	-0.269304	-0.483626	-0.28517	0.0327175	-0.131234	-0.349434	-0.532136	-0.0884905	-0.564747	-0.592688	-1.15615	0.110073	-0.054222	-0.61435	-0.741918	0.135841	0.0849215	-0.440975	-0.824041	0.215966	-0.957275	-0.342475	-1.41501	0.962732	0.010441	0.48217	-0.14956	
3.71704	5	0	-0.236691	-0.244699	-0.27998	-0.62863	-0.467197	-0.278678	-0.477678	-0.285343	0.0337558	-0.134168	-0.346803	-0.539572	-0.0776292	-0.575868	-0.591732	-1.15885	0.105283	-0.059603	-0.619191	-0.74392	0.142607	0.0657983	-0.437038	-0.83517	0.201811	-0.956608	-0.354962	-1.43027	1.0145	-0.038611	0.475643	-0.153512	
3.72467	5	0	-0.245864	-0.24827	-0.271187	-0.628461	-0.46388	-0.288051	-0.47173	-0.285515	0.034794	-0.137102	-0.344172	-0.547008	-0.066768	-0.586988	-0.590776	-1.16155	0.100493	-0.064984	-0.624033	-0.745922	0.149374	0.046675	-0.4331	-0.846298	0.187657	-0.955941	-0.367449	-1.44552	1.06628	-0.087663	0.469115	-0.157464	
3.73077	5	0	-0.238541	-0.268967	-0.256935	-0.643687	-0.467047	-0.298575	-0.477678	-0.285343	0.0379068	-0.145899	-0.360807	-0.54185	-0.0649172	-0.592218	-0.589821	-1.16425	0.105969	-0.0804597	-0.629662	-0.745686	0.152752	0.0371288	-0.442425	-0.845903	0.191602	-0.967091	-0.369658	-1.4645	1.02501	-0.068297	0.458818	-0.150736	
3.74145	5	0	-0.231218	-0.289663	-0.242684	-0.658913	-0.470213	-0.309098	-0.483626	-0.28517	0.0410195	-0.154697	-0.377442	-0.536693	-0.0630665	-0.597449	-0.588866	-1.16695	0.111445	-0.0959355	-0.63529	-0.745449	0.15613	0.0275825	-0.45175	-0.845507	0.195547	-0.97824	-0.371868	-1.48348	0.98374	-0.048931	0.44852	-0.144008	
3.75061	5	0	-0.223894	-0.31036	-0.228433	-0.674139	-0.47338	-0.319622	-0.489574	-0.284998	0.0441322	-0.163494	-0.394077	-0.531535	-0.0612157	-0.602679	-0.58791	-1.16965	0.116921	-0.111411	-0.640919	-0.745212	0.159507	0.0180362	-0.461076	-0.845112	0.199492	-0.98939	-0.374077	-1.50245	0.942473	-0.029565	0.438223	-0.137279	
3.76434	5	0	-0.216571	-0.331057	-0.214181	-0.689365	-0.476546	-0.330146	-0.495522	-0.284826	0.047245	-0.172291	-0.410712	-0.526377	-0.059365	-0.607909	-0.586955	-1.17236	0.122397	-0.126887	-0.646548	-0.744976	0.162885	0.00849	-0.470401	-0.844716	0.203437	-1.00054	-0.376286	-1.52143	0.901205	-0.010199	0.427926	-0.130551	
3.76739	5	0	-0.206347	-0.359952	-0.220274	-0.697195	-0.477238	-0.347644	-0.492106	-0.294481	0.0466605	-0.192159	-0.400218	-0.556034	-0.0510505	-0.631407	-0.582182	-1.18584	0.119945	-0.138857	-0.643382	-0.753922	0.152468	0.000642	-0.467781	-0.852121	0.205408	-1.00611	-0.385198	-1.52143	0.904699	-0.0200725	0.439483	-0.14084	
3.7857	5	0	-0.196123	-0.388846	-0.226367	-0.705026	-0.477929	-0.365142	-0.488689	-0.304136	0.046076	-0.212026	-0.389725	-0.585692	-0.042736	-0.654906	-0.57741	-1.19933	0.117493	-0.150827	-0.640217	-0.762868	0.142051	-0.007206	-0.465161	-0.859526	0.207379	-1.01168	-0.39411	-1.52143	0.908192	-0.029946	0.45104	-0.151128	
3.79486	5	0	-0.185899	-0.417741	-0.232461	-0.712857	-0.478621	-0.38264	-0.485273	-0.31379	0.0454915	-0.231894	-0.379231	-0.615349	-0.0344215	-0.678404	-0.572637	-1.21282	0.115041	-0.162796	-0.637051	-0.771815	0.131634	-0.015054	-0.462541	-0.866931	0.209349	-1.01725	-0.403022	-1.52143	0.911686	-0.0398195	0.462597	-0.161416	
3.80249	5	0	-0.175675	-0.446636	-0.238554	-0.720687	-0.479312	-0.400138	-0.481857	-0.323445	0.044907	-0.251761	-0.368737	-0.645007	-0.026107	-0.701902	-0.567864	-1.22631	0.112589	-0.174766	-0.633886	-0.780761	0.121217	-0.022902	-0.459921	-0.874336	0.21132	-1.02282	-0.411934	-1.52143	0.91518	-0.049693	0.474154	-0.171705	
3.80554	5	0	-0.183401	-0.454249	-0.237196	-0.724524	-0.484133	-0.405945	-0.466535	-0.333456	0.0422435	-0.26573	-0.352569	-0.669783	-0.027744	-0.716851	-0.564051	-1.23708	0.109355	-0.184507	-0.630724	-0.789698	0.129628	-0.0466725	-0.444047	-0.893239	0.197191	-1.02214	-0.402571	-1.54789	0.877623	-0.040309	0.470373	-0.16102	
3.81622	5	0	-0.191127	-0.461863	-0.235839	-0.728361	-0.488954	-0.411752	-0.451213	-0.343468	0.03958	-0.279698	-0.336402	-0.694559	-0.029381	-0.731799	-0.560238	-1.24786	0.106121	-0.194247	-0.627561	-0.798636	0.138039	-0.070443	-0.428173	-0.912142	0.183063	-1.02146	-0.393208	-1.57435	0.840067	-0.030925	0.466593	-0.150336	
3.82538	5	0	-0.198852	-0.469477	-0.234481	-0.732198	-0.493775	-0.417559	-0.435892	-0.35348	0.0369165	-0.293666	-0.320234	-0.719336	-0.031018	-0.746748	-0.556425	-1.25864	0.102886	-0.203987	-0.624399	-0.807573	0.146449	-0.0942135	-0.412299	-0.931045	0.168934	-1.02079	-0.383845	-1.60081	0.80251	-0.021541	0.462812	-0.139651	
3.83453	5	0	-0.206578	-0.47709	-0.233123	-0.736035	-0.498596	-0.423366	-0.42057	-0.363491	0.034253	-0.307635	-0.304066	-0.744112	-0.032655	-0.761696	-0.552612	-1.26941	0.099652	-0.213728	-0.621237	-0.81651	0.15486	-0.117984	-0.396425	-0.949948	0.154805	-1.02011	-0.374482	-1.62728	0.764953	-0.012157	0.459031	-0.128966	
3.83911	5	0	-0.203668	-0.485314	-0.212764	-0.743437	-0.495302	-0.432676	-0.416315	-0.358849	0.0441462	-0.314099	-0.294429	-0.750409	-0.0335758	-0.759094	-0.540164	-1.27133	0.0948623	-0.219053	-0.607596	-0.823707	0.144445	-0.125764	-0.39381	-0.957338	0.158738	-1.03122	-0.370478	-1.63859	0.81992	-0.0707455	0.473352	-0.124611	
3.84827	5	0	-0.200759	-0.493537	-0.192404	-0.750839	-0.492008	-0.441986	-0.41206	-0.354206	0.0540395	-0.320564	-0.284791	-0.756706	-0.0344965	-0.756492	-0.527715	-1.27326	0.0900725	-0.224377	-0.593954	-0.830903	0.13403	-0.133543	-0.391196	-0.964728	0.16267	-1.04234	-0.366474	-1.64991	0.874888	-0.129334	0.487672	-0.120256	
3.85589	5	0	-0.197849	-0.501761	-0.172045	-0.758242	-0.488714	-0.451296	-0.407806	-0.349564	0.0639328	-0.327028	-0.275154	-0.763004	-0.0354173	-0.75389	-0.515266	-1.27518	0.0852827	-0.229702	-0.580313	-0.838099	0.123615	-0.141323	-0.388581	-0.972118	0.166603	-1.05345	-0.36247	-1.66122	0.929855	-0.187923	0.501993	-0.115901	
3.862	5	0	-0.194939	-0.509984	-0.151686	-0.765644	-0.48542	-0.460606	-0.403551	-0.344922	0.073826	-0.333493	-0.265517	-0.769301	-0.036338	-0.751288	-0.502818	-1.2771	0.080493	-0.235026	-0.566671	-0.845296	0.1132	-0.149102	-0.385966	-0.979508	0.170536	-1.06457	-0.358466	-1.67254	0.984822	-0.246511	0.516313	-0.111546	
3.862	5	0	-0.190579	-0.522305	-0.160515	-0.765776	-0.474115	-0.453671	-0.385626	-0.362202	0.0758888	-0.339322	-0.260294	-0.784062	-0.0273285	-0.757175	-0.480758	-1.28944	0.0828252	-0.241618	-0.560237	-0.847783	0.118225	-0.163304	-0.387476	-1.0012	0.172501	-1.07012	-0.355799	-1.68008	0.947227	-0.237019	0.505991	-0.104802	
3.86505	5	0	-0.186219	-0.534625	-0.169345	-0.765907	-0.462811	-0.446735	-0.3677	-0.379483	0.0779515	-0.345151	-0.25507	-0.798824	-0.018319	-0.763062	-0.458699	-1.30178	0.0851575	-0.248209	-0.553802	-0.85027	0.12325	-0.177506	-0.388986	-1.02289	0.174465	-1.07567	-0.353133	-1.68761	0.909632	-0.227527	0.495669	-0.098057	
3.86658	5	0	-0.18186	-0.546946	-0.178175	-0.766039	-0.451506	-0.4398	-0.349774	-0.396764	0.0800142	-0.350981	-0.249847	-0.813585	-0.0093095	-0.768949	-0.436639	-1.31412	0.0874898	-0.254801	-0.547368	-0.852757	0.128275	-0.191707	-0.390496	-1.04458	0.17643	-1.08123	-0.350466	-1.69515	0.872037	-0.218034	0.485347	-0.0913125	
3.86505	5	0	-0.1775	-0.559267	-0.187004	-0.766171	-0.440201	-0.432864	-0.331849	-0.414044	0.082077	-0.35681	-0.244624	-0.828346	-0.0003	-0.774836	-0.414579	-1.32647	0.089822	-0.261393	-0.540933	-0.855244	0.1333	-0.205909	-0.392006	-1.06627	0.178395	-1.08678	-0.347799	-1.70269	0.834442	-0.208542	0.475025	-0.084568	
3.86047	5	0	-0.173146	-0.571571	-0.193109	-0.773969	-0.440201	-0.432864	-0.337827	-0.413847	0.0841382	-0.362635	-0.240712	-0.839401	0.001541	-0.780039	-0.407848	-1.32879	0.0921528	-0.26798	-0.536866	-0.851027	0.136646	-0.215364	-0.402635	-1.06216	0.194497	-1.09303	-0.362042	-1.68759	0.79014	-0.179594	0.480075	-0.0988398	
3.86047	5	0	-0.168793	-0.583875	-0.199214	-0.781766	-0.440201	-0.432864	-0.343805	-0.413651	0.0861995	-0.368461	-0.236801	-0.850456	0.003382	-0.785241	-0.401117	-1.33112	0.0944835	-0.274566	-0.532798	-0.84681	0.139991	-0.22482	-0.413264	-1.05804	0.210598	-1.09928	-0.376286	-1.67248	0.745837	-0.150646	0.485125	-0.113112	
3.84827	0	5	-0.16444	-0.596179	-0.205319	-0.789563	-0.440201	-0.432864	-0.349782	-0.413454	0.0882607	-0.374287	-0.232889	-0.861511	0.005223	-0.790444	-0.394386	-1.33344	0.0968142	-0.281153	-0.528731	-0.842593	0.143337	-0.234275	-0.423892	-1.05393	0.2267	-1.10554	-0.390529	-1.65738	0.701535	-0.121698	0.490175	-0.127383	
3.84674	0	5	-0.160086	-0.608483	-0.211424	-0.797361	-0.440201	-0.432864	-0.35576	-0.413257	0.090322	-0.380112	-0.228978	-0.872566	0.007064	-0.795647	-0.387655	-1.33577	0.099145	-0.28774	-0.524664	-0.838376	0.146683	-0.24373	-0.434521	-1.04981	0.242802	-1.11179	-0.404772	-1.64228	0.657233	-0.09275	0.495225	-0.141655	
3.84064	0	5	-0.158636	-0.61258	-0.210069	-0.80119	-0.438552	-0.437525	-0.35576	-0.413257	0.092382	-0.385934	-0.225071	-0.883607	0.0116615	-0.808641	-0.379009	-1.34349	0.0935778	-0.290848	-0.518219	-0.840868	0.134601	-0.246725	-0.433219	-1.05349	0.218835	-1.08331	-0.399872	-1.63098	0.701535	-0.121698	0.47714	-0.135317	
3.83758	0	5	-0.157187	-0.616678	-0.208714	-0.805018	-0.436902	-0.442186	-0.35576	-0.413257	0.094442	-0.391756	-0.221164	-0.894648	0.016259	-0.821635	-0.370364	-1.35121	0.0880105	-0.293957	-0.511773	-0.84336	0.12252	-0.24972	-0.431917	-1.05717	0.194867	-1.05482	-0.394972	-1.61967	0.745837	-0.150646	0.459055	-0.128979	
3.8269	0	5	-0.155737	-0.620776	-0.20736	-0.808847	-0.435253	-0.446847	-0.35576	-0.413257	0.096502	-0.397577	-0.217257	-0.90569	0.0208565	-0.834628	-0.361719	-1.35894	0.0824432	-0.297065	-0.505328	-0.845853	0.110438	-0.252715	-0.430616	-1.06085	0.1709	-1.02634	-0.390072	-1.60837	0.79014	-0.179594	0.44097	-0.122642	
3.81927	0	5	-0.154287	-0.624873	-0.206005	-0.812676	-0.433604	-0.451508	-0.35576	-0.413257	0.098562	-0.403399	-0.21335	-0.916731	0.025454	-0.847622	-0.353073	-1.36666	0.076876	-0.300173	-0.498882	-0.848345	0.098356	-0.25571	-0.429314	-1.06453	0.146933	-0.997861	-0.385172	-1.59707	0.834442	-0.208542	0.422885	-0.116304	
3.81317	0	5	-0.143634	-0.625532	-0.208715	-0.805017	-0.434428	-0.449178	-0.352345	-0.406212	0.108466	-0.409871	-0.203702	-0.923035	0.0363103	-0.858707	-0.354981	-1.36126	0.0697637	-0.298896	-0.500466	-0.84387	0.101693	-0.265141	-0.436027	-1.07144	0.159087	-0.992957	-0.381164	-1.60839	0.803969	-0.218678	0.412395	-0.131324	
3.81012	0	5	-0.132981	-0.626191	-0.211425	-0.797358	-0.435253	-0.446848	-0.34893	-0.399166	0.118371	-0.416343	-0.194053	-0.929339	0.0471665	-0.869793	-0.356889	-1.35587	0.0626515	-0.29762	-0.502049	-0.839394	0.105029	-0.274571	-0.442739	-1.07836	0.171241	-0.988054	-0.377157	-1.61972	0.773496	-0.228814	0.401906	-0.146344	
3.80401	0	5	-0.122328	-0.62685	-0.214135	-0.789699	-0.436078	-0.444517	-0.345514	-0.392121	0.128275	-0.422815	-0.184405	-0.935644	0.0580227	-0.880879	-0.358797	-1.35048	0.0555392	-0.296343	-0.503633	-0.834919	0.108366	-0.284002	-0.449452	-1.08527	0.183396	-0.983151	-0.373149	-1.63104	0.743023	-0.238949	0.391416	-0.161364	
3.79333	0	5	-0.111675	-0.627509	-0.216845	-0.78204	-0.436902	-0.442187	-0.342099	-0.385076	0.13818	-0.429287	-0.174757	-0.941948	0.068879	-0.891964	-0.360705	-1.34509	0.048427	-0.295066	-0.505216	-0.830443	0.111703	-0.293432	-0.456165	-1.09219	0.19555	-0.978247	-0.369141	-1.64237	0.71255	-0.249085	0.380926	-0.176384	
3.7857	0	5	-0.123778	-0.622753	-0.230383	-0.793781	-0.428052	-0.428233	-0.342103	-0.401763	0.143324	-0.443825	-0.156001	-0.97397	0.0734672	-0.904931	-0.33958	-1.37132	0.0570905	-0.300727	-0.489931	-0.842151	0.116702	-0.307559	-0.448379	-1.11419	0.207731	-0.973337	-0.358884	-1.64617	0.682245	-0.259199	0.385948	-0.190577	
3.77807	0	5	-0.135881	-0.617996	-0.243922	-0.805522	-0.419202	-0.414278	-0.342106	-0.418449	0.148468	-0.458363	-0.137244	-1.00599	0.0780555	-0.917898	-0.318454	-1.39755	0.065754	-0.306388	-0.474646	-0.853859	0.121701	-0.321686	-0.440592	-1.1362	0.219913	-0.968427	-0.348627	-1.64997	0.65194	-0.269313	0.390969	-0.204769	
3.76892	0	5	-0.147983	-0.613239	-0.25746	-0.817263	-0.410352	-0.400324	-0.34211	-0.435136	0.153612	-0.4729	-0.118488	-1.03801	0.0826438	-0.930866	-0.297329	-1.42379	0.0744175	-0.312049	-0.459362	-0.865567	0.126699	-0.335813	-0.432806	-1.1582	0.232094	-0.963518	-0.33837	-1.65377	0.621634	-0.279427	0.395991	-0.218962	
3.76282	0	5	-0.160086	-0.608483	-0.270998	-0.829004	-0.401502	-0.38637	-0.342114	-0.451823	0.158756	-0.487438	-0.099732	-1.07004	0.087232	-0.943833	-0.276204	-1.45002	0.083081	-0.31771	-0.444077	-0.877275	0.131698	-0.34994	-0.42502	-1.18021	0.244275	-0.958608	-0.328113	-1.65757	0.591329	-0.289541	0.401013	-0.233154	
3.75976	0	5	-0.158636	-0.61258	-0.284503	-0.840705	-0.390153	-0.379395	-0.342129	-0.468462	0.153987	-0.49548	-0.102909	-1.08204	0.0927292	-0.959369	-0.27915	-1.45844	0.089426	-0.3168	-0.437613	-0.879778	0.130032	-0.345233	-0.421134	-1.19119	0.234378	-0.930639	-0.325868	-1.6387	0.587892	-0.279828	0.392007	-0.229994	
3.75061	0	5	-0.157187	-0.616678	-0.298007	-0.852406	-0.378804	-0.372421	-0.342144	-0.485101	0.149219	-0.503522	-0.106086	-1.09405	0.0982265	-0.974905	-0.282095	-1.46686	0.095771	-0.315889	-0.43115	-0.882281	0.128367	-0.340527	-0.417248	-1.20217	0.224482	-0.90267	-0.323623	-1.61982	0.584456	-0.270116	0.383001	-0.226834	
3.75061	0	5	-0.155737	-0.620776	-0.311512	-0.864107	-0.367456	-0.365447	-0.34216	-0.50174	0.14445	-0.511565	-0.109263	-1.10606	0.103724	-0.990441	-0.285041	-1.47527	0.102116	-0.314978	-0.424687	-0.884784	0.126702	-0.335821	-0.413362	-1.21316	0.214585	-0.8747	-0.321378	-1.60094	0.581019	-0.260404	0.373995	-0.223675	
3.74451	0	5	-0.154287	-0.624873	-0.325017	-0.875808	-0.356107	-0.358472	-0.342175	-0.518379	0.139681	-0.519607	-0.11244	-1.11807	0.109221	-1.00598	-0.287987	-1.48369	0.108461	-0.314068	-0.418223	-0.887287	0.125036	-0.331114	-0.409476	-1.22414	0.204688	-0.846731	-0.319133	-1.58207	0.577582	-0.250691	0.364989	-0.220515	
3.74756	0	5	-0.154287	-0.624873	-0.33243	-0.879742	-0.343904	-0.35383	-0.343051	-0.532572	0.151638	-0.531878	-0.11562	-1.13004	0.11288	-1.01632	-0.284185	-1.49444	0.106132	-0.307486	-0.412546	-0.887554	0.121703	-0.321694	-0.429374	-1.21957	0.210914	-0.824906	-0.307949	-1.56313	0.625093	-0.289203	0.358713	-0.202778	
3.75061	0	5	-0.154287	-0.624873	-0.339842	-0.883676	-0.331701	-0.349187	-0.343926	-0.546765	0.163594	-0.544149	-0.118799	-1.14202	0.11654	-1.02666	-0.280382	-1.50518	0.103803	-0.300904	-0.406868	-0.887822	0.11837	-0.312273	-0.449272	-1.215	0.21714	-0.803082	-0.296765	-1.5442	0.672604	-0.327715	0.352437	-0.185041	
3.76129	0	5	-0.154287	-0.624873	-0.347255	-0.887611	-0.319499	-0.344545	-0.344801	-0.560958	0.17555	-0.55642	-0.121978	-1.154	0.1202	-1.037	-0.276579	-1.51593	0.101474	-0.294322	-0.401191	-0.888089	0.115036	-0.302853	-0.46917	-1.21043	0.223366	-0.781258	-0.285581	-1.52526	0.720115	-0.366226	0.346161	-0.167304	
3.77502	0	5	-0.154287	-0.624873	-0.354668	-0.891545	-0.307296	-0.339903	-0.345677	-0.575151	0.187507	-0.568691	-0.125158	-1.16597	0.123859	-1.04735	-0.272777	-1.52668	0.099145	-0.28774	-0.395513	-0.888356	0.111703	-0.293432	-0.489068	-1.20586	0.229592	-0.759433	-0.274397	-1.50632	0.767626	-0.404738	0.339885	-0.149567	
3.79028	0	5	-0.155737	-0.620776	-0.343215	-0.899029	-0.297562	-0.3282	-0.34656	-0.589307	0.188532	-0.571589	-0.117413	-1.18786	0.131058	-1.04808	-0.269928	-1.53473	0.113408	-0.290307	-0.393929	-0.892834	0.118366	-0.312263	-0.48132	-1.22776	0.21763	-0.725626	-0.281127	-1.4873	0.686565	-0.36668	0.346374	-0.145612	
3.80401	0	5	-0.157187	-0.616678	-0.331762	-0.906512	-0.287829	-0.316497	-0.347443	-0.603463	0.189558	-0.574488	-0.109668	-1.20975	0.138257	-1.04881	-0.267079	-1.54278	0.12767	-0.292874	-0.392344	-0.897311	0.12503	-0.331094	-0.473572	-1.24966	0.205668	-0.69182	-0.287858	-1.46828	0.605503	-0.328622	0.352862	-0.141657	
3.82233	0	5	-0.158636	-0.61258	-0.32031	-0.913996	-0.278095	-0.304794	-0.348326	-0.61762	0.190584	-0.577386	-0.101923	-1.23164	0.145456	-1.04954	-0.26423	-1.55083	0.141933	-0.295441	-0.39076	-0.901788	0.131693	-0.349925	-0.465823	-1.27156	0.193705	-0.658014	-0.294589	-1.44926	0.524442	-0.290565	0.359351	-0.137703	
3.83911	0	5	-0.160086	-0.608483	-0.308857	-0.921479	-0.268361	-0.293091	-0.349209	-0.631776	0.191609	-0.580284	-0.094178	-1.25353	0.152655	-1.05027	-0.261381	-1.55888	0.156196	-0.298008	-0.389176	-0.906266	0.138356	-0.368756	-0.458075	-1.29346	0.181743	-0.624207	-0.301319	-1.43024	0.443381	-0.252507	0.365839	-0.133748	
3.85437	0	5	-0.161536	-0.604383	-0.327712	-0.917925	-0.261116	-0.274272	-0.35179	-0.641119	0.191609	-0.580284	-0.0973757	-1.26543	0.16891	-1.05691	-0.259483	-1.56425	0.157112	-0.281695	-0.380325	-0.91549	0.119632	-0.352905	-0.45292	-1.30802	0.187917	-0.602152	-0.297759	-1.41497	0.450228	-0.271858	0.368354	-0.140855	
