4.44031	0	5	1.25086	0.505667	0.467783	0.102473	0.816627	0.920306	0.209072	0.034209	0.189845	-0.104632	0.385171	0.497793	0.17217	-0.09379	0.184931	-0.040603	-0.441146	-0.096137	0.346802	-0.381577	-0.255198	0.72576	-0.336015	-0.317784	-0.440669	0.414558	-0.031387	0.070719	-2.17118	-1.55771	-1.17729	-0.383251	
4.44031	0	5	1.25086	0.505667	0.435834	0.104197	0.810829	0.924095	0.199116	0.0407148	0.177369	-0.0948333	0.390565	0.500372	0.164309	-0.0870115	0.188108	-0.034126	-0.446358	-0.102452	0.353598	-0.381817	-0.254338	0.723329	-0.327632	-0.321029	-0.441537	0.399214	-0.0326277	0.0613845	-2.12799	-1.58593	-1.18717	-0.370863	
4.44336	0	5	1.25086	0.505667	0.403886	0.105922	0.805031	0.927883	0.18916	0.0472205	0.164892	-0.0850345	0.395959	0.502951	0.156448	-0.080233	0.191285	-0.027649	-0.451571	-0.108767	0.360395	-0.382057	-0.253478	0.720899	-0.31925	-0.324274	-0.442406	0.38387	-0.0338685	0.05205	-2.08481	-1.61415	-1.19704	-0.358475	
4.43725	0	5	1.25086	0.505667	0.371937	0.107646	0.799233	0.931672	0.179203	0.0537263	0.152416	-0.0752357	0.401353	0.505531	0.148587	-0.0734545	0.194463	-0.021172	-0.456784	-0.115081	0.367191	-0.382298	-0.252618	0.718468	-0.310868	-0.327519	-0.443274	0.368526	-0.0351093	0.0427155	-2.04162	-1.64237	-1.20691	-0.346087	
4.43878	0	5	1.25086	0.505667	0.339988	0.109371	0.793435	0.935461	0.169247	0.060232	0.139939	-0.065437	0.406747	0.50811	0.140726	-0.066676	0.19764	-0.014695	-0.461996	-0.121396	0.373987	-0.382538	-0.251758	0.716038	-0.302485	-0.330764	-0.444142	0.353182	-0.03635	0.033381	-1.99843	-1.67059	-1.21679	-0.333699	
4.44794	0	5	1.24272	0.49533	0.345265	0.0944577	0.790374	0.918941	0.17567	0.0420802	0.123581	-0.0531015	0.404518	0.505497	0.132871	-0.059901	0.200412	-0.0147937	-0.46936	-0.132109	0.37302	-0.379805	-0.250039	0.711179	-0.303513	-0.327859	-0.443803	0.334444	-0.0458255	0.0345055	-2.00379	-1.65544	-1.21101	-0.334501	
4.44031	0	5	1.23458	0.484993	0.350542	0.0795445	0.787314	0.902421	0.182092	0.0239285	0.107222	-0.040766	0.402288	0.502884	0.125016	-0.053126	0.203183	-0.0148925	-0.476724	-0.142822	0.372053	-0.377072	-0.248319	0.70632	-0.30454	-0.324955	-0.443464	0.315705	-0.055301	0.03563	-2.00915	-1.64029	-1.20524	-0.335303	
4.45251	0	5	1.22643	0.474657	0.355819	0.0646313	0.784254	0.8859	0.188515	0.00577675	0.0908635	-0.0284305	0.400058	0.50027	0.11716	-0.046351	0.205954	-0.0149912	-0.484087	-0.153535	0.371086	-0.374338	-0.2466	0.701462	-0.305568	-0.32205	-0.443126	0.296967	-0.0647765	0.0367545	-2.01451	-1.62514	-1.19946	-0.336106	
4.44794	0	5	1.21829	0.46432	0.361096	0.049718	0.781193	0.86938	0.194938	-0.012375	0.074505	-0.016095	0.397829	0.497657	0.109305	-0.039576	0.208726	-0.01509	-0.491451	-0.164248	0.370119	-0.371605	-0.244881	0.696603	-0.306596	-0.319145	-0.442787	0.278229	-0.074252	0.037879	-2.01987	-1.60999	-1.19369	-0.336908	
4.45404	0	5	1.20204	0.443732	0.348358	0.0504083	0.768458	0.855133	0.1843	-0.014711	0.05656	-0.007662	0.398045	0.479232	0.0966355	-0.0345818	0.209891	-0.0261168	-0.499182	-0.184349	0.368653	-0.376949	-0.251071	0.680138	-0.30514	-0.333484	-0.446996	0.254613	-0.0720013	0.0187033	-2.02256	-1.60241	-1.19673	-0.343828	
4.44641	0	5	1.18579	0.423143	0.33562	0.0510985	0.755723	0.840887	0.173661	-0.017047	0.038615	0.000771	0.398261	0.460806	0.083966	-0.0295875	0.211056	-0.0371435	-0.506912	-0.204451	0.367188	-0.382294	-0.257261	0.663674	-0.303685	-0.347823	-0.451205	0.230997	-0.0697505	-0.0004725	-2.02524	-1.59482	-1.19977	-0.350747	
4.45251	0	5	1.16953	0.402555	0.322882	0.0517887	0.742988	0.82664	0.163022	-0.019383	0.02067	0.009204	0.398477	0.442381	0.0712965	-0.0245932	0.212222	-0.0481702	-0.514643	-0.224553	0.365723	-0.387638	-0.26345	0.647209	-0.302229	-0.362162	-0.455414	0.207381	-0.0674997	-0.0196482	-2.02793	-1.58724	-1.20282	-0.357667	
4.44641	0	5	1.15328	0.381966	0.310144	0.052479	0.730253	0.812393	0.152384	-0.021719	0.002725	0.017637	0.398693	0.423955	0.058627	-0.019599	0.213387	-0.059197	-0.522374	-0.244654	0.364257	-0.392982	-0.26964	0.630745	-0.300774	-0.376501	-0.459623	0.183765	-0.065249	-0.038824	-2.03061	-1.57965	-1.20586	-0.364587	
4.43573	0	5	1.14517	0.371714	0.321124	0.056757	0.723426	0.806621	0.152754	-0.0335525	-0.00580475	0.0248565	0.399262	0.413447	0.0480068	-0.0126592	0.209792	-0.0722172	-0.522753	-0.254056	0.368623	-0.395835	-0.276618	0.627862	-0.301376	-0.385018	-0.469886	0.177326	-0.0676568	-0.0448247	-2.05239	-1.61193	-1.27965	-0.387209	
4.43725	0	5	1.13706	0.361462	0.332104	0.061035	0.716598	0.800849	0.153124	-0.045386	-0.0143345	0.032076	0.39983	0.402938	0.0373865	-0.0057195	0.206197	-0.0852375	-0.523132	-0.263458	0.372989	-0.398687	-0.283596	0.624979	-0.301979	-0.393535	-0.480148	0.170886	-0.0700645	-0.0508255	-2.07417	-1.64421	-1.35345	-0.40983	
4.42963	0	5	1.12895	0.35121	0.343084	0.065313	0.70977	0.795076	0.153494	-0.0572195	-0.0228642	0.0392955	0.400399	0.392429	0.0267662	0.00122025	0.202601	-0.0982578	-0.52351	-0.272861	0.377354	-0.40154	-0.290574	0.622096	-0.302582	-0.402052	-0.490411	0.164446	-0.0724723	-0.0568262	-2.09595	-1.67648	-1.42725	-0.432452	
4.41742	0	5	1.12084	0.340958	0.354064	0.069591	0.702943	0.789304	0.153864	-0.069053	-0.031394	0.046515	0.400968	0.381921	0.016146	0.00816	0.199006	-0.111278	-0.523889	-0.282263	0.38172	-0.404393	-0.297552	0.619213	-0.303184	-0.410569	-0.500674	0.158007	-0.07488	-0.062827	-2.11773	-1.70876	-1.50105	-0.455074	
4.4281	0	5	1.1056	0.350916	0.378498	0.053625	0.704825	0.783985	0.153523	-0.089646	-0.0360352	0.0511945	0.404132	0.38188	0.011097	0.0147433	0.193471	-0.111072	-0.526931	-0.284131	0.383652	-0.409853	-0.296696	0.616795	-0.304812	-0.416181	-0.506402	0.156499	-0.0689862	-0.066678	-2.12328	-1.73981	-1.57655	-0.470042	
4.43115	0	5	1.09036	0.360874	0.402933	0.037659	0.706707	0.778666	0.153181	-0.110239	-0.0406765	0.055874	0.407297	0.381838	0.006048	0.0213265	0.187935	-0.110866	-0.529974	-0.285999	0.385584	-0.415314	-0.29584	0.614376	-0.306441	-0.421792	-0.51213	0.154991	-0.0630925	-0.070529	-2.12884	-1.77085	-1.65205	-0.485009	
4.43725	0	5	1.07512	0.370832	0.427368	0.021693	0.708589	0.773347	0.15284	-0.130832	-0.0453178	0.0605535	0.410461	0.381796	0.000999	0.0279098	0.1824	-0.110659	-0.533017	-0.287868	0.387517	-0.420774	-0.294985	0.611958	-0.308069	-0.427403	-0.517858	0.153482	-0.0571988	-0.07438	-2.13439	-1.8019	-1.72756	-0.499977	
4.44183	0	5	1.05988	0.38079	0.451802	0.005727	0.710471	0.768028	0.152499	-0.151425	-0.049959	0.065233	0.413625	0.381755	-0.00405	0.034493	0.176865	-0.110453	-0.536059	-0.289736	0.389449	-0.426235	-0.294129	0.609539	-0.309698	-0.433015	-0.523586	0.151974	-0.051305	-0.078231	-2.13994	-1.83295	-1.80306	-0.514945	
4.44794	0	5	1.07274	0.37757	0.442531	-0.00348075	0.717178	0.761602	0.145069	-0.162717	-0.0538405	0.0677693	0.411956	0.368675	-0.01112	0.0391128	0.173272	-0.123433	-0.539482	-0.300979	0.386509	-0.436892	-0.300244	0.604245	-0.311935	-0.447104	-0.518758	0.138329	-0.0537168	-0.0842207	-2.17485	-1.82741	-1.83271	-0.521702	
4.44794	0	5	1.08559	0.374349	0.43326	-0.0126885	0.723886	0.755175	0.137639	-0.174009	-0.057722	0.0703055	0.410286	0.355595	-0.01819	0.0437325	0.16968	-0.136413	-0.542904	-0.312221	0.383568	-0.447549	-0.30636	0.598952	-0.314172	-0.461193	-0.51393	0.124685	-0.0561285	-0.0902105	-2.20977	-1.82187	-1.86237	-0.528459	
4.45709	0	5	1.09845	0.371129	0.423988	-0.0218963	0.730594	0.748749	0.13021	-0.1853	-0.0616035	0.0728417	0.408617	0.342515	-0.02526	0.0483522	0.166087	-0.149393	-0.546327	-0.323464	0.380628	-0.458207	-0.312475	0.593659	-0.31641	-0.475283	-0.509102	0.11104	-0.0585403	-0.0962003	-2.24468	-1.81633	-1.89202	-0.535216	
4.46167	0	5	1.11131	0.367908	0.414717	-0.031104	0.737301	0.742322	0.12278	-0.196592	-0.065485	0.075378	0.406948	0.329435	-0.03233	0.052972	0.162495	-0.162373	-0.54975	-0.334707	0.377688	-0.468864	-0.31859	0.588365	-0.318647	-0.489372	-0.504274	0.097395	-0.060952	-0.10219	-2.27959	-1.81079	-1.92168	-0.541973	
4.46472	0	5	1.11369	0.361171	0.386367	-0.039213	0.737301	0.742322	0.127019	-0.208571	-0.073243	0.0804472	0.408435	0.31634	-0.0393942	0.0575878	0.160099	-0.171006	-0.553174	-0.345922	0.378143	-0.479626	-0.313467	0.573887	-0.310889	-0.501096	-0.492513	0.081853	-0.052739	-0.112596	-2.23144	-1.85374	-1.90941	-0.56157	
4.47082	0	5	1.11607	0.354433	0.358016	-0.047322	0.737301	0.742322	0.131257	-0.220551	-0.081001	0.0855165	0.409921	0.303246	-0.0464585	0.0622035	0.157702	-0.17964	-0.556598	-0.357138	0.378598	-0.490387	-0.308345	0.559409	-0.30313	-0.512819	-0.480752	0.066311	-0.044526	-0.123001	-2.18329	-1.8967	-1.89715	-0.581166	
4.47693	0	5	1.11846	0.347695	0.329666	-0.055431	0.737301	0.742322	0.135496	-0.232531	-0.088759	0.0905858	0.411408	0.290151	-0.0535228	0.0668192	0.155306	-0.188273	-0.560022	-0.368354	0.379052	-0.501149	-0.303222	0.544931	-0.295372	-0.524543	-0.468991	0.050769	-0.036313	-0.133407	-2.13514	-1.93965	-1.88488	-0.600762	
4.47693	0	5	1.12084	0.340958	0.301315	-0.06354	0.737301	0.742322	0.139735	-0.24451	-0.096517	0.095655	0.412895	0.277056	-0.060587	0.071435	0.15291	-0.196906	-0.563446	-0.379569	0.379507	-0.511911	-0.298099	0.530453	-0.287613	-0.536266	-0.45723	0.035227	-0.0281	-0.143813	-2.08699	-1.9826	-1.87262	-0.620359	
4.48608	0	5	1.12084	0.340958	0.265048	-0.0663732	0.733414	0.740776	0.133017	-0.24702	-0.108141	0.10325	0.41159	0.271855	-0.0676453	0.0760472	0.153274	-0.205631	-0.568636	-0.385771	0.382393	-0.520068	-0.29554	0.523223	-0.285573	-0.542031	-0.447873	0.0264957	-0.022202	-0.147667	-2.08963	-1.97513	-1.85312	-0.630207	
4.48608	0	5	1.12084	0.340958	0.228781	-0.0692065	0.729528	0.739229	0.126299	-0.249529	-0.119764	0.110845	0.410285	0.266654	-0.0747035	0.0806595	0.153637	-0.214357	-0.573825	-0.391973	0.385279	-0.528225	-0.292982	0.515992	-0.283533	-0.547797	-0.438516	0.0177645	-0.016304	-0.151521	-2.09227	-1.96766	-1.83362	-0.640055	
4.48761	0	5	1.12084	0.340958	0.192515	-0.0720397	0.725642	0.737683	0.119581	-0.252038	-0.131387	0.11844	0.408981	0.261453	-0.0817617	0.0852718	0.154	-0.223082	-0.579015	-0.398175	0.388166	-0.536382	-0.290424	0.508762	-0.281493	-0.553562	-0.429158	0.00903325	-0.010406	-0.155374	-2.09492	-1.96019	-1.81412	-0.649903	
4.49066	0	5	1.12084	0.340958	0.156248	-0.074873	0.721755	0.736137	0.112863	-0.254548	-0.143011	0.126035	0.407676	0.256252	-0.08882	0.089884	0.154364	-0.231807	-0.584205	-0.404377	0.391052	-0.544539	-0.287865	0.501532	-0.279453	-0.559327	-0.419801	0.000302	-0.004508	-0.159228	-2.09756	-1.95272	-1.79462	-0.659751	
4.49676	0	5	1.1256	0.327498	0.137979	-0.0931315	0.720688	0.726631	0.118148	-0.269485	-0.154619	0.13362	0.413241	0.240524	-0.0958727	0.0944922	0.153944	-0.238316	-0.586748	-0.418037	0.391497	-0.555269	-0.286244	0.485671	-0.279055	-0.570656	-0.41619	-0.0099025	0.00371125	-0.169634	-2.07869	-1.9593	-1.78203	-0.665079	
4.49982	0	5	1.13037	0.314038	0.119709	-0.11139	0.719621	0.717125	0.123434	-0.284421	-0.166227	0.141205	0.418806	0.224797	-0.102926	0.0991005	0.153524	-0.244824	-0.58929	-0.431696	0.391943	-0.565999	-0.284623	0.469811	-0.278656	-0.581985	-0.412579	-0.020107	0.0119305	-0.18004	-2.05983	-1.96588	-1.76945	-0.670406	
4.50134	0	5	1.13513	0.300578	0.10144	-0.129648	0.718554	0.707619	0.128719	-0.299357	-0.177835	0.14879	0.424371	0.20907	-0.109978	0.103709	0.153104	-0.251333	-0.591833	-0.445356	0.392389	-0.57673	-0.283001	0.45395	-0.278258	-0.593313	-0.408969	-0.0303115	0.0201498	-0.190447	-2.04096	-1.97246	-1.75687	-0.675733	
4.50134	0	5	1.13989	0.287118	0.083171	-0.147907	0.717487	0.698113	0.134004	-0.314294	-0.189443	0.156375	0.429936	0.193342	-0.117031	0.108317	0.152684	-0.257841	-0.594376	-0.459016	0.392834	-0.58746	-0.28138	0.43809	-0.27786	-0.604642	-0.405358	-0.040516	0.028369	-0.200853	-2.0221	-1.97904	-1.74428	-0.681061	
4.50134	0	5	1.13989	0.287118	0.078613	-0.152457	0.712535	0.687089	0.130453	-0.325728	-0.204138	0.16433	0.422845	0.177871	-0.123322	0.110785	0.153396	-0.275234	-0.598681	-0.467672	0.388919	-0.595325	-0.281468	0.427068	-0.278484	-0.613077	-0.401751	-0.0507088	0.023512	-0.212763	-2.00053	-1.99313	-1.72337	-0.694729	
4.50439	0	5	1.13989	0.287118	0.074055	-0.157007	0.707584	0.676065	0.126902	-0.337162	-0.218833	0.172285	0.415755	0.162399	-0.129613	0.113254	0.154108	-0.292627	-0.602986	-0.476327	0.385004	-0.60319	-0.281556	0.416045	-0.279108	-0.621511	-0.398145	-0.0609015	0.018655	-0.224673	-1.97896	-2.00723	-1.70245	-0.708396	
4.50287	0	0	1.13989	0.287118	0.069497	-0.161557	0.702632	0.665042	0.12335	-0.348596	-0.233528	0.180241	0.408664	0.146927	-0.135904	0.115722	0.15482	-0.310019	-0.607292	-0.484982	0.38109	-0.611056	-0.281644	0.405023	-0.279731	-0.629945	-0.394539	-0.0710942	0.013798	-0.236584	-1.9574	-2.02132	-1.68153	-0.722063	
4.50745	0	0	1.13989	0.287118	0.064939	-0.166107	0.697681	0.654018	0.119799	-0.36003	-0.248223	0.188196	0.401573	0.131456	-0.142195	0.11819	0.155532	-0.327412	-0.611597	-0.493638	0.377175	-0.618921	-0.281732	0.394001	-0.280355	-0.63838	-0.390932	-0.081287	0.008941	-0.248494	-1.93583	-2.03541	-1.66061	-0.735731	
4.5105	0	0	1.13989	0.287118	0.054106	-0.170305	0.694738	0.649839	0.120853	-0.363009	-0.248223	0.188196	0.404344	0.123625	-0.142195	0.11819	0.152347	-0.333779	-0.610718	-0.496122	0.38005	-0.627046	-0.280034	0.389202	-0.275662	-0.641447	-0.382772	-0.0866192	0.0124065	-0.258288	-1.93583	-2.03541	-1.65795	-0.743261	
4.51507	0	0	1.13989	0.287118	0.043273	-0.174504	0.691795	0.64566	0.121907	-0.365987	-0.248223	0.188196	0.407115	0.115795	-0.142195	0.11819	0.149163	-0.340147	-0.609839	-0.498606	0.382925	-0.635171	-0.278336	0.384404	-0.270969	-0.644513	-0.374611	-0.0919515	0.015872	-0.268082	-1.93583	-2.03541	-1.65529	-0.750791	
4.51813	0	0	1.13989	0.287118	0.03244	-0.178702	0.688852	0.641481	0.12296	-0.368966	-0.248223	0.188196	0.409885	0.107964	-0.142195	0.11819	0.145978	-0.346514	-0.60896	-0.501089	0.3858	-0.643296	-0.276638	0.379605	-0.266275	-0.64758	-0.366451	-0.0972838	0.0193375	-0.277876	-1.93583	-2.03541	-1.65262	-0.758321	
4.5227	0	0	1.13989	0.287118	0.021607	-0.1829	0.685909	0.637302	0.124014	-0.371944	-0.248223	0.188196	0.412656	0.100134	-0.142195	0.11819	0.142793	-0.352881	-0.608081	-0.503573	0.388675	-0.651421	-0.27494	0.374806	-0.261582	-0.650647	-0.358291	-0.102616	0.022803	-0.28767	-1.93583	-2.03541	-1.64996	-0.765851	
4.52423	0	0	1.15516	0.277142	0.0062595	-0.191626	0.691518	0.621449	0.128226	-0.383847	-0.252082	0.190718	0.415424	0.0923105	-0.146472	0.122627	0.14159	-0.357158	-0.60896	-0.501089	0.386238	-0.653989	-0.27494	0.374806	-0.266275	-0.64758	-0.344351	-0.106501	0.0239572	-0.290932	-1.93319	-2.04289	-1.66422	-0.770981	
4.53186	0	0	1.17043	0.267166	-0.009088	-0.200351	0.697128	0.605596	0.132438	-0.395751	-0.255941	0.193239	0.418193	0.084487	-0.150749	0.127064	0.140386	-0.361436	-0.609839	-0.498606	0.3838	-0.656558	-0.27494	0.374806	-0.270969	-0.644513	-0.330411	-0.110387	0.0251115	-0.294195	-1.93054	-2.05036	-1.67849	-0.77611	
4.53644	0	0	1.18569	0.257191	-0.0244355	-0.209076	0.702738	0.589743	0.13665	-0.407654	-0.259799	0.195761	0.420961	0.0766635	-0.155026	0.131502	0.139182	-0.365713	-0.610718	-0.496122	0.381362	-0.659126	-0.27494	0.374806	-0.275662	-0.641447	-0.31647	-0.114272	0.0262658	-0.297457	-1.9279	-2.05784	-1.69276	-0.78124	
4.54254	0	0	1.20096	0.247215	-0.039783	-0.217802	0.708347	0.57389	0.140862	-0.419557	-0.263658	0.198282	0.423729	0.06884	-0.159303	0.135939	0.137979	-0.36999	-0.611597	-0.493638	0.378925	-0.661694	-0.27494	0.374806	-0.280355	-0.63838	-0.30253	-0.118158	0.02742	-0.30072	-1.92525	-2.06532	-1.70702	-0.78637	
4.54254	0	0	1.20096	0.247215	-0.0624067	-0.240374	0.716899	0.562216	0.151796	-0.428988	-0.263658	0.198282	0.42689	0.068779	-0.155782	0.133638	0.140736	-0.370104	-0.615506	-0.492993	0.379882	-0.664399	-0.278427	0.373397	-0.283013	-0.64106	-0.301328	-0.121556	0.0392197	-0.30843	-1.90099	-2.08691	-1.73381	-0.786169	
4.54559	0	0	1.20096	0.247215	-0.0850305	-0.262946	0.725451	0.550542	0.162729	-0.438418	-0.263658	0.198282	0.43005	0.068718	-0.152261	0.131337	0.143494	-0.370219	-0.619414	-0.492349	0.380839	-0.667104	-0.281915	0.371988	-0.285671	-0.643739	-0.300126	-0.124953	0.0510195	-0.31614	-1.87672	-2.10851	-1.76059	-0.785969	
4.54864	0	0	1.20096	0.247215	-0.107654	-0.285518	0.734004	0.538867	0.173663	-0.447848	-0.263658	0.198282	0.43321	0.068657	-0.148739	0.129036	0.146252	-0.370333	-0.623323	-0.491704	0.381797	-0.669809	-0.285402	0.37058	-0.288329	-0.646419	-0.298923	-0.128351	0.0628193	-0.32385	-1.85246	-2.13011	-1.78738	-0.785768	
4.55017	0	0	1.20096	0.247215	-0.130278	-0.30809	0.742556	0.527193	0.184597	-0.457279	-0.263658	0.198282	0.436371	0.068596	-0.145218	0.126735	0.149009	-0.370447	-0.627232	-0.491059	0.382754	-0.672514	-0.288889	0.369171	-0.290987	-0.649099	-0.297721	-0.131749	0.074619	-0.33156	-1.8282	-2.1517	-1.81416	-0.785567	
4.5517	0	0	1.19858	0.253942	-0.176503	-0.315038	0.742556	0.527193	0.192386	-0.457796	-0.263658	0.198282	0.439533	0.0685348	-0.141695	0.124433	0.145475	-0.368138	-0.626354	-0.493542	0.375012	-0.669534	-0.288889	0.369171	-0.292003	-0.646227	-0.280144	-0.145845	0.0769263	-0.338081	-1.83348	-2.13676	-1.83524	-0.786179	
4.5578	0	0	1.1962	0.260669	-0.222727	-0.321987	0.742556	0.527193	0.200175	-0.458313	-0.263658	0.198282	0.442696	0.0684735	-0.138173	0.122131	0.14194	-0.365829	-0.625475	-0.496026	0.36727	-0.666555	-0.288889	0.369171	-0.293019	-0.643355	-0.262567	-0.159942	0.0792335	-0.344602	-1.83877	-2.12181	-1.85632	-0.786792	
4.55627	0	0	1.19382	0.267397	-0.268952	-0.328935	0.742556	0.527193	0.207963	-0.458829	-0.263658	0.198282	0.445858	0.0684122	-0.13465	0.11983	0.138406	-0.363519	-0.624596	-0.498509	0.359529	-0.663575	-0.288889	0.369171	-0.294036	-0.640483	-0.24499	-0.174038	0.0815408	-0.351123	-1.84406	-2.10686	-1.87739	-0.787404	
4.5578	0	0	1.19144	0.274124	-0.315176	-0.335884	0.742556	0.527193	0.215752	-0.459346	-0.263658	0.198282	0.44902	0.068351	-0.131127	0.117528	0.134872	-0.36121	-0.623718	-0.500992	0.351787	-0.660596	-0.288889	0.369171	-0.295052	-0.637611	-0.227413	-0.188134	0.083848	-0.357644	-1.84935	-2.09192	-1.89847	-0.788016	
4.55932	0	0	1.18429	0.294337	-0.350449	-0.338724	0.737738	0.528314	0.200916	-0.449652	-0.237367	0.18275	0.442697	0.0684732	-0.117022	0.108311	0.132892	-0.363291	-0.621567	-0.496669	0.349354	-0.663162	-0.281912	0.371989	-0.292395	-0.634929	-0.228615	-0.184737	0.0861538	-0.36416	-1.83562	-2.08361	-1.89847	-0.788016	
4.57001	0	0	1.17713	0.314549	-0.385722	-0.341563	0.732919	0.529435	0.186081	-0.439958	-0.211077	0.167218	0.436374	0.0685955	-0.102917	0.0990945	0.130912	-0.365372	-0.619416	-0.492345	0.346921	-0.665728	-0.274935	0.374807	-0.289737	-0.632248	-0.229817	-0.181341	0.0884595	-0.370677	-1.8219	-2.07531	-1.89847	-0.788016	
4.57916	0	0	1.16998	0.334762	-0.420996	-0.344403	0.728101	0.530556	0.171245	-0.430264	-0.184786	0.151685	0.430052	0.0687177	-0.088812	0.0898777	0.128933	-0.367453	-0.617264	-0.488022	0.344487	-0.668294	-0.267959	0.377624	-0.28708	-0.629566	-0.231018	-0.177945	0.0907653	-0.377194	-1.80817	-2.06701	-1.89847	-0.788016	
4.58984	0	0	1.16283	0.354975	-0.456269	-0.347242	0.723283	0.531677	0.15641	-0.42057	-0.158495	0.136153	0.423729	0.06884	-0.074707	0.080661	0.126953	-0.369534	-0.615113	-0.483699	0.342054	-0.67086	-0.260982	0.380442	-0.284423	-0.626884	-0.23222	-0.174548	0.093071	-0.38371	-1.79445	-2.0587	-1.89847	-0.788016	
4.60358	0	0	1.14995	0.358208	-0.479101	-0.350755	0.720333	0.527526	0.161352	-0.423799	-0.138365	0.121353	0.419256	0.0637512	-0.0668897	0.0739107	0.124198	-0.36942	-0.612962	-0.479372	0.33528	-0.670588	-0.25749	0.381852	-0.28544	-0.624009	-0.225223	-0.176508	0.093071	-0.38371	-1.77803	-2.05789	-1.90935	-0.772279	
4.61883	0	0	1.13707	0.361441	-0.501933	-0.354268	0.717383	0.523375	0.166295	-0.427029	-0.118234	0.106552	0.414782	0.0586625	-0.0590725	0.0671605	0.121443	-0.369307	-0.61081	-0.475044	0.328507	-0.670315	-0.253999	0.383262	-0.286458	-0.621134	-0.218226	-0.178469	0.093071	-0.38371	-1.76161	-2.05708	-1.92023	-0.756541	
4.63257	0	0	1.12419	0.364675	-0.524764	-0.357781	0.714434	0.519224	0.171237	-0.430258	-0.0981035	0.0917515	0.410309	0.0535738	-0.0512552	0.0604102	0.118688	-0.369194	-0.608658	-0.470716	0.321733	-0.670042	-0.250507	0.384671	-0.287475	-0.61826	-0.211229	-0.180429	0.093071	-0.38371	-1.74519	-2.05627	-1.93112	-0.740804	
4.64172	0	0	1.11131	0.367908	-0.547596	-0.361294	0.711484	0.515073	0.176179	-0.433488	-0.077973	0.076951	0.405836	0.048485	-0.043438	0.05366	0.115933	-0.36908	-0.606507	-0.466389	0.314959	-0.66977	-0.247015	0.386081	-0.288492	-0.615385	-0.204232	-0.182389	0.093071	-0.38371	-1.72877	-2.05546	-1.942	-0.725067	
4.65393	0	0	1.11131	0.367908	-0.564237	-0.36513	0.717232	0.511317	0.171966	-0.42158	-0.0624432	0.0668035	0.406757	0.0458817	-0.0363708	0.0490422	0.115157	-0.366886	-0.602594	-0.467034	0.311575	-0.669635	-0.241821	0.382687	-0.286458	-0.621134	-0.194823	-0.191149	0.0965265	-0.393475	-1.73143	-2.04794	-1.95051	-0.731006	
4.66614	0	0	1.11131	0.367908	-0.580878	-0.368966	0.722979	0.507561	0.167752	-0.409673	-0.0469135	0.056656	0.407678	0.0432785	-0.0293035	0.0444245	0.11438	-0.364692	-0.598681	-0.467678	0.308191	-0.669499	-0.236627	0.379294	-0.284424	-0.626883	-0.185413	-0.19991	0.099982	-0.403241	-1.73409	-2.04043	-1.95902	-0.736946	
4.67529	0	0	1.11131	0.367908	-0.597519	-0.372802	0.728726	0.503806	0.163539	-0.397765	-0.0313838	0.0465085	0.4086	0.0406753	-0.0222362	0.0398068	0.113604	-0.362498	-0.594768	-0.468323	0.304807	-0.669364	-0.231433	0.3759	-0.282389	-0.632631	-0.176003	-0.20867	0.103438	-0.413006	-1.73675	-2.03292	-1.96753	-0.742885	
4.6936	0	0	1.11131	0.367908	-0.61416	-0.376638	0.734474	0.50005	0.159326	-0.385858	-0.015854	0.036361	0.409521	0.038072	-0.015169	0.035189	0.112828	-0.360304	-0.590855	-0.468968	0.301423	-0.669229	-0.226239	0.372506	-0.280355	-0.63838	-0.166594	-0.21743	0.106893	-0.422772	-1.73941	-2.0254	-1.97604	-0.748824	
4.70428	0	0	1.10892	0.37465	-0.630752	-0.380475	0.743183	0.500438	0.173849	-0.383888	-0.004188	0.0287382	0.4086	0.0406753	-0.0123893	0.035015	0.112828	-0.360304	-0.586939	-0.469614	0.301423	-0.669229	-0.220193	0.366709	-0.279339	-0.641253	-0.165392	-0.220826	0.105593	-0.43192	-1.71762	-2.03964	-1.96914	-0.753332	
4.7287	0	0	1.10653	0.381393	-0.647344	-0.384311	0.751892	0.500826	0.188372	-0.381918	0.007478	0.0211155	0.407678	0.0432785	-0.0096095	0.034841	0.112828	-0.360304	-0.583024	-0.470259	0.301423	-0.669229	-0.214146	0.360912	-0.278322	-0.644126	-0.16419	-0.224222	0.104292	-0.441068	-1.69584	-2.05387	-1.96224	-0.75784	
4.74396	0	0	1.10415	0.388136	-0.663936	-0.388148	0.760601	0.501214	0.202896	-0.379947	0.019144	0.0134927	0.406757	0.0458817	-0.00682975	0.034667	0.112828	-0.360304	-0.579109	-0.470905	0.301423	-0.669229	-0.208099	0.355116	-0.277305	-0.646999	-0.162989	-0.227619	0.102991	-0.450215	-1.67405	-2.06811	-1.95534	-0.762348	
4.76074	0	0	1.10176	0.394878	-0.680528	-0.391985	0.76931	0.501602	0.217419	-0.377977	0.03081	0.00587	0.405836	0.048485	-0.00405	0.034493	0.112828	-0.360304	-0.575193	-0.471551	0.301423	-0.669229	-0.202053	0.349319	-0.276289	-0.649872	-0.161787	-0.231015	0.101691	-0.459363	-1.65227	-2.08234	-1.94844	-0.766856	
4.77753	0	0	1.09938	0.401626	-0.704818	-0.39076	0.764487	0.502726	0.209296	-0.365784	0.0456312	-0.00216775	0.40715	0.053634	0.003026	0.0298695	0.114029	-0.356027	-0.571275	-0.472198	0.298996	-0.671793	-0.196853	0.345921	-0.272612	-0.650066	-0.158185	-0.241196	0.096789	-0.471129	-1.66026	-2.05976	-1.95827	-0.769046	
4.78821	0	0	1.09699	0.408374	-0.729108	-0.389535	0.759665	0.50385	0.201174	-0.353591	0.0604525	-0.0102055	0.408465	0.058783	0.010102	0.025246	0.11523	-0.351749	-0.567357	-0.472845	0.296569	-0.674357	-0.191653	0.342523	-0.268935	-0.650259	-0.154582	-0.251377	0.091887	-0.482895	-1.66825	-2.03718	-1.9681	-0.771236	
4.80041	0	0	1.0946	0.415121	-0.753399	-0.388311	0.754843	0.504975	0.193051	-0.341398	0.0752738	-0.0182432	0.409779	0.063932	0.017178	0.0206225	0.116432	-0.347471	-0.563439	-0.473491	0.294141	-0.67692	-0.186452	0.339125	-0.265259	-0.650453	-0.150979	-0.261559	0.086985	-0.49466	-1.67624	-2.0146	-1.97793	-0.773427	
4.80499	0	0	1.09221	0.421869	-0.777689	-0.387086	0.75002	0.506099	0.184928	-0.329205	0.090095	-0.026281	0.411093	0.069081	0.024254	0.015999	0.117633	-0.343194	-0.559521	-0.474138	0.291714	-0.679484	-0.181252	0.335727	-0.261582	-0.650647	-0.147377	-0.27174	0.082083	-0.506426	-1.68423	-1.99202	-1.98776	-0.775617	
4.81415	0	0	1.0946	0.415121	-0.789797	-0.386486	0.751885	0.500829	0.194838	-0.335681	0.101798	-0.033928	0.409779	0.063932	0.0348788	0.0090565	0.123146	-0.343419	-0.558641	-0.476627	0.291714	-0.679484	-0.1752	0.329927	-0.261582	-0.650647	-0.148392	-0.286705	0.064124	-0.519568	-1.70335	-1.98532	-1.97073	-0.763751	
4.81567	0	0	1.09699	0.408374	-0.801906	-0.385886	0.75375	0.495559	0.204748	-0.342156	0.113501	-0.041575	0.408465	0.058783	0.0455035	0.002114	0.128659	-0.343644	-0.55776	-0.479115	0.291714	-0.679484	-0.169147	0.324126	-0.261582	-0.650647	-0.149406	-0.301669	0.046165	-0.532709	-1.72247	-1.97862	-1.95371	-0.751885	
4.81262	0	0	1.09938	0.401626	-0.814015	-0.385286	0.755614	0.490288	0.214659	-0.348632	0.125204	-0.049222	0.40715	0.053634	0.0561283	-0.0048285	0.134171	-0.343869	-0.556879	-0.481604	0.291714	-0.679484	-0.163094	0.318326	-0.261582	-0.650647	-0.15042	-0.316634	0.028206	-0.545851	-1.74159	-1.97191	-1.93668	-0.74002	
4.81415	0	0	1.10176	0.394878	-0.826123	-0.384686	0.757479	0.485018	0.224569	-0.355108	0.136907	-0.056869	0.405836	0.048485	0.066753	-0.011771	0.139684	-0.344094	-0.555999	-0.484092	0.291714	-0.679484	-0.157042	0.312526	-0.261582	-0.650647	-0.151435	-0.331599	0.010247	-0.558992	-1.7607	-1.96521	-1.91965	-0.728154	
4.80804	0	0	1.09129	0.391356	-0.7931	-0.376969	0.762302	0.483892	0.228143	-0.343652	0.136149	-0.0547268	0.403601	0.0459435	0.0695415	-0.0119505	0.138481	-0.348373	-0.555999	-0.484092	0.296051	-0.682318	-0.153647	0.302931	-0.260565	-0.65352	-0.158261	-0.34792	-0.00651425	-0.5753	-1.75804	-1.97274	-1.86054	-0.729254	
4.80194	0	0	1.08082	0.387834	-0.760077	-0.369253	0.767125	0.482766	0.231718	-0.332197	0.135391	-0.0525845	0.401365	0.043402	0.07233	-0.01213	0.137278	-0.352652	-0.555999	-0.484092	0.300388	-0.685152	-0.150251	0.293336	-0.259548	-0.656393	-0.165087	-0.364242	-0.0232755	-0.591608	-1.75538	-1.98027	-1.80143	-0.730355	
4.79126	0	0	1.07035	0.384312	-0.727055	-0.361537	0.771948	0.481641	0.235292	-0.320741	0.134633	-0.0504423	0.39913	0.0408605	0.0751185	-0.0123095	0.136075	-0.356931	-0.555999	-0.484092	0.304726	-0.687986	-0.146856	0.28374	-0.258532	-0.659266	-0.171914	-0.380563	-0.0400367	-0.607915	-1.75272	-1.98779	-1.74231	-0.731456	
4.78973	0	0	1.05988	0.38079	-0.694032	-0.35382	0.776771	0.480515	0.238867	-0.309285	0.133875	-0.0483	0.396895	0.038319	0.077907	-0.012489	0.134872	-0.36121	-0.555999	-0.484092	0.309063	-0.69082	-0.143461	0.274145	-0.257515	-0.662139	-0.17874	-0.396885	-0.056798	-0.624223	-1.75005	-1.99532	-1.6832	-0.732556	
4.78668	0	0	1.06227	0.374058	-0.651962	-0.337133	0.777865	0.489937	0.247411	-0.301049	0.134633	-0.0504423	0.395581	0.0331787	0.078663	-0.0146257	0.133241	-0.371948	-0.55384	-0.479761	0.313923	-0.685693	-0.142613	0.271748	-0.254852	-0.659461	-0.183344	-0.401653	-0.0628065	-0.632652	-1.73093	-2.00203	-1.6389	-0.72086	
4.78363	0	0	1.06465	0.367325	-0.609892	-0.320445	0.778958	0.49936	0.255955	-0.292812	0.135391	-0.0525845	0.394266	0.0280385	0.079419	-0.0167625	0.131609	-0.382686	-0.551681	-0.47543	0.318783	-0.680567	-0.141765	0.269351	-0.25219	-0.656782	-0.187949	-0.406422	-0.068815	-0.641081	-1.71181	-2.00874	-1.59459	-0.709164	
4.78821	0	0	1.06703	0.360592	-0.567823	-0.303758	0.780052	0.508782	0.264499	-0.284576	0.136149	-0.0547268	0.392952	0.0228982	0.080175	-0.0188992	0.129978	-0.393424	-0.549523	-0.4711	0.323643	-0.67544	-0.140917	0.266954	-0.249528	-0.654104	-0.192553	-0.411191	-0.0748235	-0.64951	-1.69269	-2.01544	-1.55029	-0.697468	
4.79126	0	0	1.06941	0.35386	-0.525753	-0.28707	0.781146	0.518204	0.273043	-0.27634	0.136907	-0.056869	0.391638	0.017758	0.080931	-0.021036	0.128347	-0.404162	-0.547364	-0.466769	0.328503	-0.670314	-0.140069	0.264557	-0.246865	-0.651425	-0.197157	-0.415959	-0.080832	-0.657939	-1.67356	-2.02215	-1.50599	-0.685772	
4.79736	0	0	1.06941	0.35386	-0.504596	-0.278699	0.78208	0.515566	0.27092	-0.27034	0.140812	-0.0594205	0.385724	0.025621	0.080931	-0.021036	0.130327	-0.402085	-0.544811	-0.453103	0.334843	-0.659904	-0.144312	0.276549	-0.23887	-0.643378	-0.197157	-0.415959	-0.0866735	-0.654122	-1.67623	-2.01462	-1.45291	-0.682503	
4.79889	0	0	1.06941	0.35386	-0.48344	-0.270328	0.783013	0.512927	0.268797	-0.26434	0.144716	-0.061972	0.37981	0.033484	0.080931	-0.021036	0.132307	-0.400009	-0.542258	-0.439437	0.341183	-0.649494	-0.148556	0.288542	-0.230875	-0.635331	-0.197157	-0.415959	-0.092515	-0.650305	-1.6789	-2.00709	-1.39982	-0.679234	
4.80499	0	0	1.06941	0.35386	-0.462283	-0.261957	0.783946	0.510289	0.266674	-0.258341	0.14862	-0.0645235	0.373897	0.041347	0.080931	-0.021036	0.134287	-0.397933	-0.539706	-0.425771	0.347523	-0.639084	-0.152799	0.300534	-0.22288	-0.627283	-0.197157	-0.415959	-0.0983565	-0.646489	-1.68156	-1.99955	-1.34673	-0.675964	
4.80957	0	0	1.06941	0.35386	-0.441126	-0.253586	0.78488	0.50765	0.264551	-0.252341	0.152525	-0.067075	0.367983	0.04921	0.080931	-0.021036	0.136267	-0.395856	-0.537153	-0.412105	0.353863	-0.628674	-0.157042	0.312526	-0.214885	-0.619236	-0.197157	-0.415959	-0.104198	-0.642672	-1.68423	-1.99202	-1.29365	-0.672695	
4.81262	0	0	1.05182	0.370533	-0.423311	-0.235521	0.782078	0.515568	0.266338	-0.246584	0.159581	-0.0700387	0.368372	0.05696	0.0943678	-0.028173	0.13988	-0.383028	-0.528906	-0.404049	0.364566	-0.621084	-0.153534	0.313925	-0.208529	-0.616744	-0.195965	-0.419328	-0.103062	-0.645883	-1.66505	-1.99875	-1.27606	-0.660724	
4.81415	0	0	1.03422	0.387206	-0.405496	-0.217455	0.779277	0.523486	0.268125	-0.240826	0.166638	-0.0730025	0.368761	0.06471	0.107804	-0.03531	0.143492	-0.370201	-0.520658	-0.395992	0.375269	-0.613493	-0.150027	0.315325	-0.202172	-0.614252	-0.194773	-0.422698	-0.101926	-0.649093	-1.64588	-2.00548	-1.25848	-0.648753	
4.81415	0	0	1.01663	0.403879	-0.38768	-0.19939	0.776475	0.531405	0.269912	-0.235069	0.173695	-0.0759662	0.369151	0.07246	0.121241	-0.042447	0.147105	-0.357374	-0.51241	-0.387936	0.385971	-0.605903	-0.146519	0.316724	-0.195815	-0.61176	-0.19358	-0.426067	-0.10079	-0.652304	-1.62671	-2.01222	-1.24089	-0.636781	
4.80652	0	0	0.999031	0.420552	-0.369865	-0.181325	0.773673	0.539323	0.271699	-0.229312	0.180751	-0.07893	0.36954	0.08021	0.134678	-0.049584	0.150718	-0.344546	-0.504163	-0.37988	0.396674	-0.598313	-0.143011	0.318123	-0.189459	-0.609268	-0.192388	-0.429436	-0.099654	-0.655514	-1.60753	-2.01895	-1.2233	-0.62481	
4.80957	0	0	0.996647	0.427289	-0.341312	-0.158925	0.773825	0.551415	0.269227	-0.211512	0.196401	-0.0891562	0.372159	0.0905232	0.152452	-0.061198	0.159074	-0.329703	-0.497677	-0.366792	0.407916	-0.582678	-0.137691	0.325732	-0.188204	-0.592336	-0.19358	-0.426067	-0.101927	-0.649092	-1.62671	-2.01222	-1.21449	-0.618808	
4.80804	0	0	0.994263	0.434027	-0.312759	-0.136525	0.773977	0.563508	0.266754	-0.193712	0.212052	-0.0993825	0.374777	0.100836	0.170227	-0.072812	0.16743	-0.31486	-0.491191	-0.353705	0.419158	-0.567044	-0.132371	0.333342	-0.186949	-0.575403	-0.194773	-0.422698	-0.104199	-0.642669	-1.64588	-2.00548	-1.20567	-0.612807	
4.80041	0	0	0.991879	0.440765	-0.284207	-0.114126	0.774129	0.5756	0.264282	-0.175912	0.227702	-0.109609	0.377395	0.11115	0.188001	-0.084426	0.175787	-0.300018	-0.484705	-0.340618	0.430399	-0.551409	-0.127051	0.340952	-0.185694	-0.55847	-0.195965	-0.419328	-0.106471	-0.636247	-1.66505	-1.99875	-1.19686	-0.606805	
4.79431	0	0	0.989495	0.447502	-0.255654	-0.091726	0.774281	0.587692	0.261809	-0.158112	0.243352	-0.119835	0.380014	0.121463	0.205775	-0.09604	0.184143	-0.285175	-0.478219	-0.32753	0.441641	-0.535775	-0.121731	0.348561	-0.184439	-0.541538	-0.197157	-0.415959	-0.108744	-0.629824	-1.68423	-1.99202	-1.18804	-0.600804	
4.78821	0	0	1.01517	0.441094	-0.225218	-0.074075	0.772408	0.592984	0.272492	-0.155827	0.251946	-0.127098	0.377625	0.137079	0.217969	-0.107293	0.18974	-0.270168	-0.472618	-0.311887	0.447557	-0.514484	-0.118965	0.363416	-0.1758	-0.524927	-0.201931	-0.402469	-0.107452	-0.620782	-1.66772	-1.99121	-1.17615	-0.587943	
4.78363	0	0	1.04085	0.434686	-0.194782	-0.056424	0.770536	0.598276	0.283176	-0.153542	0.26054	-0.13436	0.375235	0.152696	0.230163	-0.118546	0.195336	-0.255161	-0.467017	-0.296245	0.453473	-0.493193	-0.116198	0.378271	-0.167161	-0.508317	-0.206704	-0.388979	-0.106161	-0.61174	-1.65122	-1.99039	-1.16426	-0.575081	
4.78363	0	0	1.06653	0.428277	-0.164346	-0.038773	0.768663	0.603569	0.293859	-0.151257	0.269134	-0.141622	0.372845	0.168312	0.242357	-0.129799	0.200933	-0.240155	-0.461417	-0.280602	0.45939	-0.471901	-0.113432	0.393125	-0.158522	-0.491706	-0.211477	-0.375488	-0.10487	-0.602698	-1.63472	-1.98958	-1.15237	-0.562219	
4.77447	0	0	1.09221	0.421869	-0.13391	-0.021122	0.76679	0.608861	0.304542	-0.148972	0.277728	-0.148885	0.370456	0.183928	0.254551	-0.141052	0.20653	-0.225148	-0.455816	-0.26496	0.465306	-0.45061	-0.110665	0.40798	-0.149883	-0.475096	-0.216251	-0.361998	-0.103578	-0.593656	-1.61822	-1.98876	-1.14048	-0.549358	
4.7699	0	0	1.08743	0.43538	-0.10156	-0.008299	0.775517	0.609266	0.304192	-0.137144	0.289495	-0.156574	0.374918	0.189057	0.265247	-0.148041	0.216467	-0.21463	-0.450597	-0.258698	0.472645	-0.442793	-0.107149	0.409391	-0.14556	-0.466766	-0.216251	-0.361998	-0.105856	-0.58722	-1.64006	-1.97449	-1.13163	-0.543323	
4.76684	0	0	1.08265	0.44889	-0.0692105	0.004524	0.784243	0.609671	0.303841	-0.125315	0.301262	-0.164263	0.37938	0.194186	0.275942	-0.155029	0.226405	-0.204112	-0.445379	-0.252437	0.479985	-0.434975	-0.103634	0.410802	-0.141238	-0.458435	-0.216251	-0.361998	-0.108133	-0.580783	-1.6619	-1.96022	-1.12278	-0.537288	
4.76074	0	0	1.07787	0.462401	-0.0368607	0.017347	0.79297	0.610077	0.30349	-0.113486	0.31303	-0.171952	0.383842	0.199314	0.286637	-0.162018	0.236342	-0.193593	-0.44016	-0.246175	0.487324	-0.427157	-0.100118	0.412213	-0.136915	-0.450105	-0.216251	-0.361998	-0.11041	-0.574346	-1.68374	-1.94595	-1.11393	-0.531252	
4.76074	0	0	1.07309	0.475912	-0.004511	0.03017	0.801697	0.610482	0.30314	-0.101658	0.324797	-0.179641	0.388304	0.204443	0.297333	-0.169007	0.246279	-0.183075	-0.434941	-0.239914	0.494663	-0.41934	-0.096603	0.413624	-0.132593	-0.441775	-0.216251	-0.361998	-0.112688	-0.56791	-1.70558	-1.93168	-1.10508	-0.525217	
4.75464	0	0	1.07309	0.475912	0.002825	0.0443165	0.797006	0.623738	0.306707	-0.0900432	0.329481	-0.184348	0.389609	0.209629	0.305227	-0.175806	0.248689	-0.174423	-0.433667	-0.232999	0.498592	-0.411378	-0.0956482	0.422279	-0.129298	-0.430518	-0.21864	-0.355245	-0.111402	-0.558843	-1.68641	-1.9384	-1.10338	-0.514493	
4.75769	0	0	1.07309	0.475912	0.010161	0.058463	0.792316	0.636994	0.310274	-0.0784285	0.334165	-0.189055	0.390914	0.214815	0.31312	-0.182606	0.251099	-0.16577	-0.432394	-0.226084	0.50252	-0.403416	-0.0946935	0.430935	-0.126002	-0.419261	-0.221029	-0.348492	-0.110117	-0.549775	-1.66724	-1.94512	-1.10167	-0.503769	
4.75616	0	0	1.07309	0.475912	0.017497	0.0726095	0.787626	0.65025	0.313841	-0.0668138	0.338849	-0.193762	0.39222	0.220002	0.321014	-0.189406	0.253509	-0.157118	-0.431121	-0.219169	0.506448	-0.395455	-0.0937388	0.43959	-0.122707	-0.408005	-0.223419	-0.341739	-0.108831	-0.540708	-1.64807	-1.95183	-1.09997	-0.493045	
4.76227	0	0	1.07309	0.475912	0.024833	0.086756	0.782935	0.663506	0.317408	-0.055199	0.343533	-0.198469	0.393525	0.225188	0.328907	-0.196205	0.255919	-0.148466	-0.429847	-0.212254	0.510377	-0.387493	-0.092784	0.448246	-0.119412	-0.396748	-0.225808	-0.334986	-0.107545	-0.531641	-1.62891	-1.95855	-1.09827	-0.482321	
4.76532	0	0	1.05785	0.48587	0.0293775	0.0913775	0.784812	0.658201	0.322405	-0.0584642	0.340364	-0.198045	0.390367	0.225238	0.325338	-0.193873	0.255134	-0.146247	-0.430739	-0.209733	0.509407	-0.384751	-0.096205	0.457914	-0.118796	-0.388196	-0.221212	-0.330195	-0.109827	-0.525191	-1.6561	-1.92916	-1.09213	-0.468534	
4.76684	0	0	1.04261	0.495828	0.033922	0.095999	0.786689	0.652896	0.327403	-0.0617295	0.337196	-0.197622	0.387209	0.225288	0.321768	-0.191541	0.254348	-0.144027	-0.431631	-0.207212	0.508437	-0.38201	-0.099626	0.467581	-0.118179	-0.379644	-0.216616	-0.325404	-0.11211	-0.518741	-1.68329	-1.89976	-1.086	-0.454747	
4.76837	0	0	1.02737	0.505786	0.0384665	0.100621	0.788566	0.647592	0.3324	-0.0649948	0.334028	-0.197198	0.38405	0.225338	0.318198	-0.189208	0.253563	-0.141808	-0.432523	-0.204691	0.507467	-0.379269	-0.103047	0.477249	-0.117563	-0.371093	-0.212019	-0.320612	-0.114392	-0.51229	-1.71048	-1.87037	-1.07987	-0.44096	
4.7699	0	0	1.01213	0.515744	0.043011	0.105242	0.790443	0.642287	0.337397	-0.06826	0.330859	-0.196774	0.380892	0.225388	0.314629	-0.186876	0.252778	-0.139589	-0.433415	-0.20217	0.506497	-0.376527	-0.106468	0.486917	-0.116947	-0.362541	-0.207423	-0.315821	-0.116674	-0.50584	-1.73767	-1.84097	-1.07373	-0.427173	
4.76532	0	0	1.02498	0.512549	0.049308	0.104926	0.790443	0.642287	0.341326	-0.0685002	0.323013	-0.191647	0.377736	0.225438	0.307494	-0.182214	0.250004	-0.139483	-0.437742	-0.210963	0.504049	-0.379142	-0.108272	0.480664	-0.114886	-0.368367	-0.206227	-0.319202	-0.115533	-0.509066	-1.73767	-1.84097	-1.07647	-0.419444	
4.76379	0	0	1.03782	0.509354	0.055605	0.104609	0.790443	0.642287	0.345255	-0.0687405	0.315166	-0.18652	0.374579	0.225487	0.30036	-0.177551	0.24723	-0.139376	-0.442069	-0.219756	0.5016	-0.381756	-0.110077	0.47441	-0.112824	-0.374193	-0.205031	-0.322582	-0.114392	-0.512291	-1.73767	-1.84097	-1.0792	-0.411716	
4.76227	0	0	1.05067	0.506159	0.061902	0.104293	0.790443	0.642287	0.349184	-0.0689808	0.307319	-0.181392	0.371422	0.225537	0.293225	-0.172889	0.244456	-0.139269	-0.446396	-0.22855	0.499151	-0.384371	-0.111881	0.468157	-0.110763	-0.380018	-0.203834	-0.325963	-0.11325	-0.515517	-1.73767	-1.84097	-1.08194	-0.403987	
4.75464	0	0	1.06352	0.502964	0.068199	0.103977	0.790443	0.642287	0.353113	-0.069221	0.299473	-0.176265	0.368266	0.225586	0.28609	-0.168227	0.241682	-0.139163	-0.450723	-0.237343	0.496703	-0.386986	-0.113686	0.461904	-0.108702	-0.385844	-0.202638	-0.329344	-0.112109	-0.518743	-1.73767	-1.84097	-1.08467	-0.396258	
4.75006	0	0	1.06352	0.502964	0.0601535	0.109234	0.788566	0.647592	0.349898	-0.0601345	0.292391	-0.173284	0.372349	0.222918	0.279717	-0.165704	0.236922	-0.141168	-0.454159	-0.24863	0.491809	-0.39221	-0.117199	0.460486	-0.116114	-0.385476	-0.203834	-0.325963	-0.112109	-0.518743	-1.71316	-1.86281	-1.08604	-0.392391	
4.74701	0	0	1.06352	0.502964	0.052108	0.114491	0.786689	0.652896	0.346683	-0.051048	0.285309	-0.170302	0.376433	0.22025	0.273343	-0.163181	0.232162	-0.143174	-0.457595	-0.259917	0.486916	-0.397434	-0.120713	0.459069	-0.123526	-0.385109	-0.205031	-0.322582	-0.112109	-0.518743	-1.68864	-1.88465	-1.08741	-0.388524	
4.74243	0	0	1.06352	0.502964	0.0440625	0.119748	0.784812	0.658201	0.343467	-0.0419615	0.278227	-0.167321	0.380516	0.217582	0.266969	-0.160659	0.227403	-0.145179	-0.461032	-0.271204	0.482022	-0.402658	-0.124226	0.457651	-0.130939	-0.384741	-0.206227	-0.319202	-0.112109	-0.518743	-1.66412	-1.90648	-1.08878	-0.384657	
4.73328	0	0	1.06352	0.502964	0.036017	0.125005	0.782935	0.663506	0.340252	-0.032875	0.271145	-0.164339	0.384599	0.214914	0.260596	-0.158136	0.222643	-0.147184	-0.464468	-0.282491	0.477128	-0.407882	-0.12774	0.456234	-0.138351	-0.384373	-0.207423	-0.315821	-0.112109	-0.518743	-1.6396	-1.92832	-1.09014	-0.38079	
4.73022	0	0	1.05067	0.506159	0.0251907	0.12069	0.772199	0.656258	0.334541	-0.038456	0.25082	-0.149412	0.381063	0.207168	0.242044	-0.144372	0.220239	-0.155832	-0.476661	-0.289957	0.467861	-0.410239	-0.135613	0.455812	-0.141025	-0.387099	-0.209817	-0.309055	-0.115534	-0.509062	-1.66412	-1.90648	-1.08845	-0.369991	
4.72565	0	0	1.03782	0.509354	0.0143645	0.116375	0.761463	0.649009	0.32883	-0.044037	0.230495	-0.134486	0.377528	0.199421	0.223492	-0.130609	0.217834	-0.164481	-0.488855	-0.297423	0.458595	-0.412595	-0.143487	0.455391	-0.143699	-0.389825	-0.212211	-0.302289	-0.11896	-0.499381	-1.68864	-1.88465	-1.08676	-0.359193	
4.71954	0	0	1.02498	0.512549	0.00353825	0.11206	0.750727	0.64176	0.323119	-0.049618	0.21017	-0.119559	0.373992	0.191674	0.204941	-0.116845	0.215429	-0.173129	-0.501049	-0.304888	0.449329	-0.414952	-0.15136	0.45497	-0.146372	-0.39255	-0.214605	-0.295524	-0.122386	-0.4897	-1.71316	-1.86281	-1.08507	-0.348394	
4.71191	0	0	1.01213	0.515744	-0.007288	0.107745	0.739991	0.634512	0.317408	-0.055199	0.189845	-0.104632	0.370456	0.183928	0.186389	-0.103081	0.213025	-0.181777	-0.513242	-0.312354	0.440062	-0.417308	-0.159233	0.454548	-0.149046	-0.395276	-0.216999	-0.288758	-0.125811	-0.480019	-1.73767	-1.84097	-1.08338	-0.337595	
4.70581	0	0	1.01691	0.502233	-0.0180932	0.103435	0.740928	0.631865	0.314555	-0.0579863	0.174223	-0.0944245	0.370456	0.183928	0.176484	-0.0982507	0.209055	-0.185987	-0.515787	-0.32609	0.435181	-0.42252	-0.16539	0.449304	-0.154389	-0.400722	-0.219395	-0.281988	-0.128097	-0.473559	-1.735	-1.84854	-1.08644	-0.344525	
4.69971	0	0	1.02169	0.488722	-0.0288985	0.099125	0.741864	0.629217	0.311702	-0.0607735	0.158602	-0.084217	0.370456	0.183928	0.16658	-0.0934205	0.205084	-0.190198	-0.518331	-0.339825	0.4303	-0.427732	-0.171548	0.444061	-0.159732	-0.406167	-0.221791	-0.275217	-0.130382	-0.4671	-1.73232	-1.8561	-1.0895	-0.351455	
4.69818	0	0	1.02647	0.475212	-0.0397037	0.094815	0.742801	0.62657	0.308849	-0.0635607	0.14298	-0.0740095	0.370456	0.183928	0.156676	-0.0885903	0.201114	-0.194408	-0.520876	-0.35356	0.42542	-0.432943	-0.177705	0.438818	-0.165076	-0.411612	-0.224186	-0.268447	-0.132667	-0.46064	-1.72964	-1.86367	-1.09256	-0.358386	
4.68902	0	0	1.03125	0.461701	-0.050509	0.090505	0.743738	0.623923	0.305996	-0.066348	0.127358	-0.063802	0.370456	0.183928	0.146771	-0.08376	0.197143	-0.198618	-0.523421	-0.367296	0.420539	-0.438155	-0.183862	0.433574	-0.170419	-0.417058	-0.226582	-0.261676	-0.134953	-0.45418	-1.72697	-1.87123	-1.09562	-0.365316	
4.6875	0	0	1.01843	0.464894	-0.0630332	0.091119	0.731287	0.634094	0.293876	-0.0537768	0.119558	-0.058705	0.372687	0.186492	0.135369	-0.074668	0.193594	-0.196299	-0.529505	-0.371007	0.4181	-0.440758	-0.189069	0.436976	-0.174116	-0.416875	-0.221988	-0.256863	-0.127826	-0.448893	-1.7078	-1.87794	-1.10721	-0.363692	
4.68445	0	0	1.0056	0.468086	-0.0755575	0.091733	0.718836	0.644265	0.281755	-0.0412055	0.111758	-0.053608	0.374917	0.189055	0.123967	-0.065576	0.190045	-0.19398	-0.535588	-0.374719	0.415662	-0.443362	-0.194275	0.440378	-0.177813	-0.416691	-0.217393	-0.25205	-0.1207	-0.443607	-1.68864	-1.88465	-1.11879	-0.362069	
4.67834	0	0	0.992777	0.471279	-0.0880818	0.092347	0.706385	0.654436	0.269634	-0.0286342	0.103957	-0.048511	0.377147	0.191618	0.112564	-0.056484	0.186496	-0.191661	-0.541671	-0.37843	0.413223	-0.445965	-0.199482	0.44378	-0.18151	-0.416508	-0.212799	-0.247236	-0.113573	-0.438321	-1.66947	-1.89135	-1.13038	-0.360445	
4.67377	0	0	0.979952	0.474472	-0.100606	0.092961	0.693934	0.664607	0.257514	-0.016063	0.096157	-0.043414	0.379378	0.194182	0.101162	-0.047392	0.182947	-0.189342	-0.547755	-0.382141	0.410784	-0.448568	-0.204688	0.447182	-0.185207	-0.416325	-0.208204	-0.242423	-0.106447	-0.433034	-1.65031	-1.89806	-1.14196	-0.358821	
4.67224	0	0	0.979952	0.474472	-0.115869	0.0840463	0.693799	0.652493	0.256809	-0.0249023	0.080578	-0.0332342	0.380304	0.191567	0.0905283	-0.0404438	0.183729	-0.191553	-0.549911	-0.386491	0.407381	-0.448442	-0.202984	0.442365	-0.188902	-0.416142	-0.207211	-0.227414	-0.107466	-0.417426	-1.67751	-1.86864	-1.1447	-0.351085	
4.67071	0	0	0.979952	0.474472	-0.131132	0.0751315	0.693663	0.640379	0.256104	-0.0337415	0.064999	-0.0230545	0.381229	0.188951	0.0798945	-0.0334955	0.184512	-0.193765	-0.552067	-0.390842	0.403979	-0.448316	-0.20128	0.437548	-0.192597	-0.41596	-0.206218	-0.212406	-0.108486	-0.401818	-1.70471	-1.83922	-1.14744	-0.34335	
4.66461	0	0	0.979952	0.474472	-0.146396	0.0662167	0.693528	0.628266	0.255398	-0.0425808	0.04942	-0.0128748	0.382154	0.186335	0.0692607	-0.0265472	0.185295	-0.195976	-0.554223	-0.395192	0.400576	-0.44819	-0.199575	0.432731	-0.196291	-0.415778	-0.205225	-0.197398	-0.109506	-0.38621	-1.73191	-1.8098	-1.15018	-0.335614	
4.66156	0	0	0.979952	0.474472	-0.161659	0.057302	0.693393	0.616152	0.254693	-0.05142	0.033841	-0.002695	0.38308	0.18372	0.058627	-0.019599	0.186077	-0.198187	-0.556379	-0.399542	0.397173	-0.448064	-0.197871	0.427914	-0.199986	-0.415595	-0.204232	-0.182389	-0.110525	-0.370602	-1.75911	-1.78038	-1.15291	-0.327879	
4.66156	0	0	0.982338	0.46773	-0.172389	0.053005	0.682837	0.621018	0.2458	-0.0479323	0.0299505	-0.000153	0.388471	0.186231	0.0578715	-0.0174632	0.192814	-0.194084	-0.5603	-0.398899	0.39961	-0.445461	-0.202222	0.428907	-0.198959	-0.418497	-0.199634	-0.177551	-0.109257	-0.361451	-1.74264	-1.77947	-1.15596	-0.334806	
4.65851	0	0	0.984724	0.460987	-0.183118	0.048708	0.672281	0.625884	0.236907	-0.0444445	0.02606	0.002389	0.393862	0.188743	0.057116	-0.0153275	0.199551	-0.189982	-0.564221	-0.398255	0.402047	-0.442858	-0.206573	0.429899	-0.197933	-0.421399	-0.195036	-0.172713	-0.107988	-0.352301	-1.72617	-1.77857	-1.15901	-0.341733	
4.6524	0	0	0.987109	0.454244	-0.193848	0.044411	0.661724	0.63075	0.228014	-0.0409568	0.0221695	0.004931	0.399253	0.191254	0.0563605	-0.0131917	0.206288	-0.18588	-0.568141	-0.397612	0.404484	-0.440255	-0.210925	0.430891	-0.196906	-0.424301	-0.190438	-0.167875	-0.106719	-0.343151	-1.7097	-1.77766	-1.16206	-0.34866	
4.64783	0	0	0.989495	0.447502	-0.204577	0.040114	0.651168	0.635616	0.219121	-0.037469	0.018279	0.007473	0.404644	0.193766	0.055605	-0.011056	0.213025	-0.181777	-0.572062	-0.396969	0.406921	-0.437652	-0.215276	0.431884	-0.195879	-0.427203	-0.18584	-0.163037	-0.105451	-0.334	-1.69323	-1.77676	-1.16511	-0.355587	
4.64783	0	0	0.987109	0.454244	-0.224958	0.0459027	0.640627	0.640473	0.214144	-0.034217	0.0136327	0.0121552	0.407258	0.204142	0.055605	-0.011056	0.21386	-0.168693	-0.564218	-0.398257	0.410832	-0.429708	-0.211777	0.4333	-0.193211	-0.424484	-0.18365	-0.151378	-0.104185	-0.324833	-1.69592	-1.76916	-1.17225	-0.350917	
4.64325	0	0	0.984724	0.460987	-0.245339	0.0516915	0.630086	0.64533	0.209168	-0.030965	0.0089865	0.0168375	0.409872	0.214517	0.055605	-0.011056	0.214695	-0.15561	-0.556374	-0.399544	0.414742	-0.421763	-0.208278	0.434716	-0.190543	-0.421764	-0.181459	-0.139719	-0.102919	-0.315667	-1.69861	-1.76157	-1.1794	-0.346247	
4.64477	0	0	0.982338	0.46773	-0.265719	0.0574803	0.619545	0.650186	0.204191	-0.027713	0.00434025	0.0215198	0.412487	0.224893	0.055605	-0.011056	0.215531	-0.142527	-0.54853	-0.400832	0.418652	-0.413818	-0.204778	0.436131	-0.187875	-0.419044	-0.179269	-0.128061	-0.101654	-0.3065	-1.70129	-1.75397	-1.18654	-0.341578	
4.64172	0	0	0.979952	0.474472	-0.2861	0.063269	0.609004	0.655043	0.199214	-0.024461	-0.000306	0.026202	0.415101	0.235269	0.055605	-0.011056	0.216366	-0.129443	-0.540686	-0.40212	0.422563	-0.405874	-0.201279	0.437547	-0.185207	-0.416325	-0.177079	-0.116402	-0.100388	-0.297333	-1.70398	-1.74637	-1.19369	-0.336908	
4.63714	0	0	0.964766	0.484395	-0.279182	0.0437168	0.608874	0.642954	0.188574	-0.0267933	-0.004193	0.0287417	0.415101	0.235269	0.059148	-0.013371	0.223898	-0.12754	-0.539803	-0.404616	0.428412	-0.403388	-0.203075	0.431318	-0.185207	-0.416325	-0.180699	-0.10617	-0.103842	-0.287571	-1.72851	-1.7245	-1.19506	-0.333043	
4.6402	0	0	0.94958	0.494318	-0.272263	0.0241645	0.608745	0.630866	0.177934	-0.0291255	-0.00808	0.0312815	0.415101	0.235269	0.062691	-0.015686	0.23143	-0.125636	-0.538919	-0.407112	0.434261	-0.400902	-0.204872	0.42509	-0.185207	-0.416325	-0.184319	-0.0959385	-0.107296	-0.277809	-1.75305	-1.70262	-1.19643	-0.329178	
4.63714	0	0	0.934394	0.50424	-0.265344	0.00461225	0.608615	0.618777	0.167295	-0.0314577	-0.011967	0.0338212	0.415101	0.235269	0.066234	-0.018001	0.238962	-0.123733	-0.538036	-0.409609	0.440109	-0.398416	-0.206668	0.418861	-0.185207	-0.416325	-0.18794	-0.0857067	-0.11075	-0.268047	-1.77758	-1.68075	-1.19779	-0.325312	
4.63562	0	0	0.919208	0.514163	-0.258426	-0.01494	0.608486	0.606688	0.156655	-0.03379	-0.015854	0.036361	0.415101	0.235269	0.069777	-0.020316	0.246494	-0.12183	-0.537153	-0.412105	0.445958	-0.39593	-0.208464	0.412632	-0.185207	-0.416325	-0.19156	-0.075475	-0.114204	-0.258285	-1.80211	-1.65887	-1.19916	-0.321447	
4.63867	0	0	0.919208	0.514163	-0.275302	-0.018912	0.603691	0.607795	0.152757	-0.033562	-0.019739	0.0388995	0.417336	0.237842	0.0733215	-0.0226322	0.249686	-0.115375	-0.534994	-0.407756	0.450844	-0.390703	-0.204112	0.411638	-0.185207	-0.416325	-0.184545	-0.0774347	-0.115356	-0.255029	-1.75837	-1.68745	-1.2107	-0.319848	
4.63257	0	0	0.919208	0.514163	-0.292178	-0.022884	0.598895	0.608901	0.148859	-0.033334	-0.023624	0.041438	0.41957	0.240414	0.076866	-0.0249485	0.252879	-0.108921	-0.532836	-0.403408	0.45573	-0.385477	-0.199761	0.410644	-0.185207	-0.416325	-0.17753	-0.0793945	-0.116509	-0.251773	-1.71463	-1.71603	-1.22224	-0.318249	
4.63257	0	0	0.919208	0.514163	-0.309054	-0.026856	0.5941	0.610008	0.144962	-0.033106	-0.027509	0.0439765	0.421805	0.242986	0.0804105	-0.0272648	0.256071	-0.102466	-0.530677	-0.39906	0.460616	-0.380251	-0.195409	0.409651	-0.185207	-0.416325	-0.170514	-0.0813543	-0.117661	-0.248516	-1.6709	-1.74461	-1.23378	-0.31665	
4.63104	0	0	0.919208	0.514163	-0.32593	-0.030828	0.589304	0.611114	0.141064	-0.032878	-0.031394	0.046515	0.42404	0.245559	0.083955	-0.029581	0.259263	-0.096011	-0.528518	-0.394711	0.465502	-0.375024	-0.191057	0.408657	-0.185207	-0.416325	-0.163499	-0.083314	-0.118813	-0.24526	-1.62716	-1.77319	-1.24533	-0.315051	
4.63104	0	0	0.919208	0.514163	-0.336579	-0.0350975	0.577859	0.618593	0.136101	-0.0296355	-0.031394	0.046515	0.429441	0.248083	0.083955	-0.029581	0.260466	-0.0916675	-0.52459	-0.395357	0.472333	-0.375274	-0.191057	0.408657	-0.18151	-0.416508	-0.165916	-0.0764838	-0.119966	-0.242003	-1.67359	-1.737	-1.24396	-0.318913	
4.63257	0	0	0.919208	0.514163	-0.347228	-0.039367	0.566414	0.626072	0.131139	-0.026393	-0.031394	0.046515	0.434843	0.250607	0.083955	-0.029581	0.261668	-0.087324	-0.520663	-0.396002	0.479163	-0.375524	-0.191057	0.408657	-0.177813	-0.416691	-0.168332	-0.0696535	-0.121119	-0.238745	-1.72002	-1.70081	-1.24259	-0.322775	
4.62799	0	0	0.919208	0.514163	-0.357876	-0.0436365	0.554968	0.63355	0.126176	-0.0231505	-0.031394	0.046515	0.440244	0.253132	0.083955	-0.029581	0.262871	-0.0829805	-0.516735	-0.396648	0.485993	-0.375773	-0.191057	0.408657	-0.174116	-0.416875	-0.170749	-0.0628232	-0.122271	-0.235487	-1.76645	-1.66462	-1.24123	-0.326636	
4.62341	0	0	0.919208	0.514163	-0.368525	-0.047906	0.543523	0.641029	0.121214	-0.019908	-0.031394	0.046515	0.445646	0.255656	0.083955	-0.029581	0.264074	-0.078637	-0.512807	-0.397294	0.492824	-0.376023	-0.191057	0.408657	-0.170419	-0.417058	-0.173166	-0.055993	-0.123424	-0.23223	-1.81288	-1.62843	-1.23986	-0.330498	
4.62189	0	0	0.921594	0.507421	-0.371263	-0.0573265	0.542466	0.631594	0.116629	-0.0284962	-0.039159	0.0515888	0.445265	0.247834	0.0804105	-0.0272648	0.265648	-0.0830857	-0.516735	-0.396648	0.491854	-0.373281	-0.19626	0.412057	-0.178838	-0.413789	-0.173166	-0.055993	-0.12929	-0.228397	-1.76645	-1.66462	-1.24699	-0.32584	
4.62036	0	0	0.92398	0.500678	-0.374001	-0.066747	0.541409	0.62216	0.112045	-0.0370845	-0.046924	0.0566625	0.444885	0.240013	0.076866	-0.0249485	0.267222	-0.0875345	-0.520663	-0.396002	0.490884	-0.37054	-0.201464	0.415457	-0.187256	-0.410521	-0.173166	-0.055993	-0.135155	-0.224565	-1.72002	-1.70081	-1.25412	-0.321182	
4.62036	0	0	0.926366	0.493935	-0.376739	-0.0761675	0.540353	0.612726	0.107461	-0.0456727	-0.054689	0.0617362	0.444505	0.232191	0.0733215	-0.0226322	0.268797	-0.0919833	-0.52459	-0.395357	0.489914	-0.367799	-0.206667	0.418857	-0.195675	-0.407253	-0.173166	-0.055993	-0.14102	-0.220732	-1.67359	-1.737	-1.26125	-0.316524	
4.61426	0	0	0.928752	0.487193	-0.379477	-0.085588	0.539296	0.603291	0.102876	-0.054261	-0.062454	0.06681	0.444124	0.224369	0.069777	-0.020316	0.270371	-0.096432	-0.528518	-0.394711	0.488944	-0.365057	-0.21187	0.422257	-0.204094	-0.403984	-0.173166	-0.055993	-0.146886	-0.216899	-1.62716	-1.77319	-1.26838	-0.311866	
4.61883	0	0	0.918359	0.483628	-0.383932	-0.0901395	0.534514	0.604392	0.103941	-0.0572715	-0.062454	0.06681	0.440959	0.224421	0.069777	-0.020316	0.269584	-0.094208	-0.527634	-0.397209	0.492362	-0.365182	-0.211018	0.419851	-0.203067	-0.406887	-0.18018	-0.0540358	-0.149291	-0.222838	-1.65175	-1.75127	-1.26974	-0.308004	
4.61578	0	0	0.907966	0.480063	-0.388387	-0.094691	0.529732	0.605494	0.105007	-0.060282	-0.062454	0.06681	0.437794	0.224473	0.069777	-0.020316	0.268797	-0.091984	-0.526751	-0.399706	0.49578	-0.365307	-0.210167	0.417444	-0.20204	-0.40979	-0.187195	-0.0520785	-0.151695	-0.228777	-1.67634	-1.72935	-1.27111	-0.304142	
4.61426	0	0	0.897573	0.476499	-0.392843	-0.0992425	0.524951	0.606595	0.106072	-0.0632925	-0.062454	0.06681	0.434629	0.224525	0.069777	-0.020316	0.26801	-0.08976	-0.525867	-0.402204	0.499197	-0.365432	-0.209316	0.415038	-0.201013	-0.412692	-0.194209	-0.0501212	-0.1541	-0.234716	-1.70093	-1.70743	-1.27247	-0.30028	
4.6112	0	0	0.88718	0.472934	-0.397298	-0.103794	0.520169	0.607696	0.107137	-0.066303	-0.062454	0.06681	0.431464	0.224577	0.069777	-0.020316	0.267223	-0.087536	-0.524983	-0.404702	0.502615	-0.365557	-0.208464	0.412632	-0.199986	-0.415595	-0.201224	-0.048164	-0.156505	-0.240655	-1.72552	-1.68552	-1.27384	-0.296418	
4.60815	0	0	0.902339	0.463029	-0.389408	-0.10895	0.524019	0.609227	0.109963	-0.0635197	-0.0616963	0.0646687	0.433701	0.227148	0.0740773	-0.024768	0.267223	-0.087536	-0.530676	-0.399062	0.505064	-0.362938	-0.216219	0.42325	-0.197319	-0.412874	-0.200016	-0.0515785	-0.167065	-0.236257	-1.72821	-1.6779	-1.26808	-0.297212	
4.6051	0	0	0.917498	0.453124	-0.381518	-0.114105	0.527869	0.610758	0.112788	-0.0607365	-0.0609385	0.0625275	0.435937	0.229719	0.0783775	-0.02922	0.267223	-0.087536	-0.536369	-0.393421	0.507513	-0.36032	-0.223974	0.433869	-0.194652	-0.410153	-0.198807	-0.054993	-0.177625	-0.231859	-1.73091	-1.67028	-1.26232	-0.298007	
4.60663	0	0	0.932657	0.443218	-0.373628	-0.11926	0.53172	0.612289	0.115614	-0.0579532	-0.0601807	0.0603862	0.438174	0.232291	0.0826777	-0.033672	0.267223	-0.087536	-0.542062	-0.387781	0.509962	-0.357702	-0.231729	0.444488	-0.191984	-0.407431	-0.197599	-0.0584075	-0.188184	-0.227461	-1.7336	-1.66267	-1.25656	-0.298801	
4.60663	0	0	0.947816	0.433313	-0.365738	-0.124416	0.53557	0.61382	0.11844	-0.05517	-0.059423	0.058245	0.440411	0.234862	0.086978	-0.038124	0.267223	-0.087536	-0.547755	-0.382141	0.512411	-0.355083	-0.239484	0.455106	-0.189317	-0.40471	-0.196391	-0.061822	-0.198744	-0.223063	-1.7363	-1.65505	-1.25079	-0.299596	
4.6051	0	0	0.932657	0.443218	-0.385955	-0.118661	0.527872	0.610758	0.11066	-0.0547165	-0.0601807	0.0603862	0.440411	0.234862	0.0862223	-0.0359882	0.26801	-0.08976	-0.548639	-0.379642	0.512411	-0.355083	-0.242041	0.462332	-0.190345	-0.401805	-0.197599	-0.0584075	-0.205745	-0.215987	-1.7336	-1.66267	-1.2549	-0.287995	
4.599	0	0	0.917498	0.453124	-0.406172	-0.112905	0.520174	0.607697	0.102881	-0.054263	-0.0609385	0.0625275	0.440411	0.234862	0.0854665	-0.0338525	0.268797	-0.091984	-0.549523	-0.377144	0.512411	-0.355083	-0.244598	0.469558	-0.191373	-0.3989	-0.198807	-0.054993	-0.212746	-0.20891	-1.73091	-1.67028	-1.259	-0.276395	
4.599	0	0	0.902339	0.463029	-0.42639	-0.107149	0.512476	0.604636	0.0951015	-0.0538095	-0.0616963	0.0646687	0.440411	0.234862	0.0847108	-0.0317168	0.269584	-0.094208	-0.550407	-0.374646	0.512411	-0.355083	-0.247155	0.476785	-0.1924	-0.395996	-0.200016	-0.0515785	-0.219746	-0.201834	-1.72821	-1.6779	-1.26311	-0.264794	
4.60205	0	0	0.88718	0.472934	-0.446607	-0.101394	0.504778	0.601574	0.087322	-0.053356	-0.062454	0.06681	0.440411	0.234862	0.083955	-0.029581	0.270371	-0.096432	-0.551291	-0.372147	0.512411	-0.355083	-0.249712	0.484011	-0.193428	-0.393091	-0.201224	-0.048164	-0.226747	-0.194758	-1.72552	-1.68552	-1.26721	-0.253194	
4.60052	0	0	0.88718	0.472934	-0.440446	-0.101693	0.504778	0.601574	0.0961672	-0.056821	-0.0616963	0.0646687	0.440411	0.234862	0.0847108	-0.0317168	0.271158	-0.0986555	-0.547366	-0.372791	0.50802	-0.352214	-0.246218	0.485434	-0.193428	-0.393091	-0.208231	-0.0462105	-0.225596	-0.198012	-1.72552	-1.68552	-1.27297	-0.252404	
4.60052	0	0	0.88718	0.472934	-0.434286	-0.101992	0.504778	0.601574	0.105013	-0.060286	-0.0609385	0.0625275	0.440411	0.234862	0.0854665	-0.0338525	0.271944	-0.100879	-0.543441	-0.373434	0.50363	-0.349345	-0.242723	0.486857	-0.193428	-0.393091	-0.215237	-0.044257	-0.224444	-0.201266	-1.72552	-1.68552	-1.27873	-0.251614	
4.60663	0	0	0.88718	0.472934	-0.428125	-0.102291	0.504778	0.601574	0.113858	-0.063751	-0.0601807	0.0603862	0.440411	0.234862	0.0862223	-0.0359882	0.272731	-0.103102	-0.539517	-0.374078	0.499239	-0.346477	-0.239229	0.48828	-0.193428	-0.393091	-0.222244	-0.0423035	-0.223293	-0.20452	-1.72552	-1.68552	-1.28449	-0.250825	
4.60663	0	0	0.88718	0.472934	-0.421965	-0.10259	0.504778	0.601574	0.122703	-0.067216	-0.059423	0.058245	0.440411	0.234862	0.086978	-0.038124	0.273518	-0.105326	-0.535592	-0.374721	0.494849	-0.343608	-0.235735	0.489703	-0.193428	-0.393091	-0.229251	-0.04035	-0.222142	-0.207774	-1.72552	-1.68552	-1.29025	-0.250035	
4.60815	0	0	0.874428	0.476095	-0.421965	-0.10259	0.500122	0.614733	0.118439	-0.055164	-0.059423	0.058245	0.443958	0.242637	0.090524	-0.040441	0.269168	-0.100774	-0.534319	-0.367862	0.493878	-0.340863	-0.233092	0.493539	-0.191789	-0.387458	-0.230459	-0.0369357	-0.229139	-0.2007	-1.72821	-1.6779	-1.29025	-0.250035	
4.60358	0	0	0.861676	0.479255	-0.421965	-0.10259	0.495466	0.627891	0.114174	-0.043112	-0.059423	0.058245	0.447504	0.250412	0.09407	-0.042758	0.264817	-0.0962215	-0.533047	-0.361003	0.492907	-0.338118	-0.230449	0.497375	-0.19015	-0.381826	-0.231667	-0.0335215	-0.236135	-0.193626	-1.73091	-1.67028	-1.29025	-0.250035	
4.6051	0	0	0.848924	0.482415	-0.421965	-0.10259	0.49081	0.64105	0.10991	-0.03106	-0.059423	0.058245	0.45105	0.258187	0.097616	-0.045075	0.260466	-0.0916693	-0.531775	-0.354143	0.491935	-0.335373	-0.227806	0.501211	-0.188511	-0.376193	-0.232876	-0.0301073	-0.243132	-0.186553	-1.7336	-1.66267	-1.29025	-0.250035	
4.6051	0	0	0.836172	0.485576	-0.421965	-0.10259	0.486154	0.654208	0.105645	-0.019008	-0.059423	0.058245	0.454597	0.265962	0.101162	-0.047392	0.256116	-0.087117	-0.530502	-0.347284	0.490964	-0.332628	-0.225163	0.505047	-0.186872	-0.37056	-0.234084	-0.026693	-0.250129	-0.179479	-1.7363	-1.65505	-1.29025	-0.250035	
4.6051	0	0	0.851305	0.475688	-0.406192	-0.112896	0.487086	0.651575	0.106712	-0.0220225	-0.0640605	0.0629215	0.452737	0.271218	0.097616	-0.045075	0.256116	-0.087117	-0.528345	-0.34292	0.490964	-0.332628	-0.223374	0.511302	-0.188931	-0.364742	-0.245918	-0.0110788	-0.252433	-0.172967	-1.7336	-1.66267	-1.29874	-0.241512	
4.6051	0	0	0.866437	0.465801	-0.39042	-0.123202	0.488017	0.648942	0.107778	-0.025037	-0.068698	0.067598	0.450877	0.276474	0.09407	-0.042758	0.256116	-0.087117	-0.526188	-0.338556	0.490964	-0.332628	-0.221585	0.517558	-0.19099	-0.358924	-0.257753	0.0045355	-0.254737	-0.166456	-1.73091	-1.67028	-1.30724	-0.23299	
4.60358	0	0	0.88157	0.455913	-0.374648	-0.133509	0.488949	0.646308	0.108844	-0.0280515	-0.0733355	0.0722745	0.449018	0.281731	0.090524	-0.040441	0.256116	-0.087117	-0.52403	-0.334192	0.490964	-0.332628	-0.219795	0.523814	-0.193048	-0.353106	-0.269587	0.0201498	-0.257041	-0.159945	-1.72821	-1.6779	-1.31573	-0.224467	
4.60358	0	0	0.896702	0.446025	-0.358875	-0.143815	0.489881	0.643675	0.109911	-0.031066	-0.077973	0.076951	0.447158	0.286987	0.086978	-0.038124	0.256116	-0.087117	-0.521873	-0.329828	0.490964	-0.332628	-0.218006	0.530069	-0.195107	-0.347288	-0.281422	0.035764	-0.259345	-0.153433	-1.72552	-1.68552	-1.32422	-0.215944	
4.6051	0	0	0.883948	0.44919	-0.366765	-0.138659	0.488017	0.648942	0.113804	-0.0312923	-0.0733355	0.0722745	0.449396	0.289568	0.0862223	-0.0359882	0.256903	-0.0893405	-0.514008	-0.331115	0.490964	-0.332628	-0.213651	0.529081	-0.195107	-0.347288	-0.280212	0.0323455	-0.26872	-0.152313	-1.76107	-1.67982	-1.33161	-0.225973	
4.60358	0	0	0.871194	0.452356	-0.374655	-0.133504	0.486154	0.654209	0.117697	-0.0315185	-0.068698	0.067598	0.451634	0.29215	0.0854665	-0.0338525	0.25769	-0.091564	-0.506144	-0.332402	0.490964	-0.332628	-0.209296	0.528093	-0.195107	-0.347288	-0.279003	0.028927	-0.278095	-0.151194	-1.79662	-1.67413	-1.339	-0.236003	
4.60663	0	0	0.858441	0.455521	-0.382544	-0.128349	0.48429	0.659477	0.121589	-0.0317448	-0.0640605	0.0629215	0.453871	0.294731	0.0847108	-0.0317168	0.258476	-0.0937875	-0.498279	-0.333689	0.490964	-0.332628	-0.204942	0.527104	-0.195107	-0.347288	-0.277794	0.0255085	-0.287471	-0.150074	-1.83218	-1.66843	-1.34639	-0.246032	
4.60815	0	0	0.845687	0.458686	-0.390434	-0.123193	0.482426	0.664744	0.125482	-0.031971	-0.059423	0.058245	0.456109	0.297312	0.083955	-0.029581	0.259263	-0.096011	-0.490415	-0.334976	0.490964	-0.332628	-0.200587	0.526116	-0.195107	-0.347288	-0.276584	0.02209	-0.296846	-0.148954	-1.86773	-1.66274	-1.35378	-0.256061	
4.60663	0	0	0.843308	0.465409	-0.400033	-0.113193	0.477762	0.677925	0.117321	-0.0196805	-0.056299	0.05785	0.457416	0.302528	0.087501	-0.031898	0.26005	-0.098234	-0.492189	-0.329963	0.491935	-0.335373	-0.202297	0.53095	-0.19244	-0.344555	-0.283574	0.0240305	-0.299227	-0.154901	-1.84058	-1.69215	-1.35815	-0.259137	
4.60815	0	0	0.840929	0.472131	-0.409632	-0.103192	0.473098	0.691107	0.109159	-0.00739	-0.053175	0.057455	0.458723	0.307743	0.091047	-0.034215	0.260836	-0.100457	-0.493962	-0.324951	0.492907	-0.338118	-0.204008	0.535784	-0.189773	-0.341822	-0.290565	0.025971	-0.301607	-0.160848	-1.81342	-1.72156	-1.36253	-0.262213	
4.60815	0	0	0.838551	0.478853	-0.41923	-0.0931915	0.468433	0.704289	0.100998	0.0049005	-0.050051	0.05706	0.46003	0.312959	0.094593	-0.036532	0.261622	-0.10268	-0.495736	-0.319938	0.493878	-0.340863	-0.205718	0.540618	-0.187106	-0.339089	-0.297555	0.0279115	-0.303987	-0.166794	-1.78627	-1.75097	-1.3669	-0.265289	
4.60205	0	0	0.836172	0.485576	-0.428829	-0.083191	0.463769	0.71747	0.092836	0.017191	-0.046927	0.056665	0.461337	0.318174	0.098139	-0.038849	0.262409	-0.104903	-0.49751	-0.314925	0.494849	-0.343608	-0.207428	0.545452	-0.184439	-0.336356	-0.304545	0.029852	-0.306368	-0.172741	-1.75911	-1.78038	-1.37128	-0.268365	
4.599	0	0	0.838551	0.478853	-0.420946	-0.0883417	0.45993	0.715923	0.0910815	0.01138	-0.0515665	0.0613433	0.457236	0.320854	0.093837	-0.0343958	0.259633	-0.104798	-0.498397	-0.312417	0.497297	-0.340986	-0.20914	0.550288	-0.183833	-0.327792	-0.311528	0.0317887	-0.325065	-0.170514	-1.76448	-1.7652	-1.37401	-0.260646	
4.599	0	0	0.840929	0.472131	-0.413064	-0.0934925	0.456091	0.714376	0.089327	0.005569	-0.056206	0.0660215	0.453136	0.323533	0.089535	-0.0299425	0.256857	-0.104692	-0.499285	-0.30991	0.499744	-0.338364	-0.210851	0.555125	-0.183227	-0.319227	-0.318511	0.0337255	-0.343761	-0.168288	-1.76985	-1.75003	-1.37674	-0.252928	
4.59747	0	0	0.843308	0.465409	-0.405181	-0.0986433	0.452252	0.71283	0.0875725	-0.000242	-0.0608455	0.0706998	0.449035	0.326213	0.085233	-0.0254892	0.254082	-0.104587	-0.500172	-0.307402	0.502192	-0.335742	-0.212562	0.559961	-0.182622	-0.310662	-0.325494	0.0356622	-0.362458	-0.166061	-1.77522	-1.73485	-1.37947	-0.245209	
4.59595	0	0	0.845687	0.458686	-0.397298	-0.103794	0.448413	0.711283	0.085818	-0.006053	-0.065485	0.075378	0.444934	0.328892	0.080931	-0.021036	0.251306	-0.104482	-0.501059	-0.304894	0.50464	-0.33312	-0.214274	0.564797	-0.182016	-0.302098	-0.332477	0.037599	-0.381155	-0.163834	-1.78059	-1.71968	-1.3822	-0.23749	
4.59595	0	0	0.845687	0.458686	-0.389408	-0.10895	0.448413	0.711283	0.0886403	-0.00325975	-0.0616035	0.0728417	0.444934	0.328892	0.084477	-0.023353	0.254082	-0.104587	-0.499285	-0.309909	0.505611	-0.335866	-0.212562	0.559961	-0.178316	-0.302274	-0.335831	0.0292965	-0.388187	-0.169215	-1.79701	-1.72062	-1.3781	-0.249065	
4.59137	0	0	0.845687	0.458686	-0.381518	-0.114105	0.448413	0.711283	0.0914625	-0.0004665	-0.057722	0.0703055	0.444934	0.328892	0.088023	-0.02567	0.256857	-0.104692	-0.497511	-0.314923	0.506583	-0.338612	-0.210851	0.555125	-0.174615	-0.30245	-0.339184	0.020994	-0.39522	-0.174596	-1.81342	-1.72156	-1.37401	-0.260641	
4.58984	0	0	0.845687	0.458686	-0.373628	-0.11926	0.448413	0.711283	0.0942848	0.00232675	-0.0538405	0.0677693	0.444934	0.328892	0.091569	-0.027987	0.259633	-0.104798	-0.495736	-0.319937	0.507555	-0.341358	-0.20914	0.550288	-0.170914	-0.302626	-0.342538	0.0126915	-0.402252	-0.179976	-1.82984	-1.7225	-1.36991	-0.272216	
4.58832	0	0	0.845687	0.458686	-0.365738	-0.124416	0.448413	0.711283	0.097107	0.00512	-0.049959	0.065233	0.444934	0.328892	0.095115	-0.030304	0.262409	-0.104903	-0.493962	-0.324952	0.508526	-0.344104	-0.207428	0.545452	-0.167214	-0.302802	-0.345892	0.004389	-0.409284	-0.185357	-1.84625	-1.72344	-1.36582	-0.283792	
4.58526	0	0	0.830581	0.468556	-0.364714	-0.110151	0.44945	0.720748	0.0967242	0.0169777	-0.0429485	0.0622993	0.447171	0.33148	0.101456	-0.032804	0.263613	-0.100561	-0.495736	-0.319937	0.514398	-0.341606	-0.210852	0.555127	-0.16661	-0.294222	-0.356482	0.0165537	-0.405769	-0.182668	-1.84357	-1.73102	-1.37864	-0.278373	
4.58374	0	0	0.815476	0.478427	-0.363691	-0.095887	0.450488	0.730214	0.0963415	0.0288355	-0.035938	0.0593655	0.449408	0.334068	0.107796	-0.035304	0.264816	-0.0962195	-0.497511	-0.314923	0.520271	-0.339109	-0.214276	0.564803	-0.166006	-0.285641	-0.367072	0.0287185	-0.402254	-0.179978	-1.84089	-1.73859	-1.39147	-0.272954	
4.58526	0	0	0.80037	0.488297	-0.362667	-0.0816225	0.451525	0.739679	0.0959587	0.0406933	-0.0289275	0.0564317	0.451645	0.336655	0.114137	-0.037804	0.266019	-0.0918778	-0.499285	-0.309909	0.526143	-0.336611	-0.217699	0.574479	-0.165402	-0.277061	-0.377662	0.0408832	-0.398739	-0.177289	-1.83821	-1.74617	-1.4043	-0.267536	
4.58679	0	0	0.785264	0.498168	-0.361643	-0.067358	0.452562	0.749144	0.095576	0.052551	-0.021917	0.053498	0.453882	0.339243	0.120477	-0.040304	0.267223	-0.087536	-0.501059	-0.304894	0.532015	-0.334113	-0.221123	0.584154	-0.164798	-0.268481	-0.388252	0.053048	-0.395224	-0.1746	-1.83553	-1.75375	-1.41713	-0.262117	
4.59289	0	0	0.785264	0.498168	-0.363364	-0.062495	0.452562	0.749144	0.0945062	0.0555738	-0.0180302	0.0509582	0.447916	0.347193	0.120477	-0.040304	0.269214	-0.0854157	-0.4989	-0.300519	0.529097	-0.325865	-0.215836	0.591873	-0.166266	-0.254037	-0.38491	0.0613662	-0.397455	-0.155662	-1.8409	-1.73859	-1.4185	-0.258262	
4.60358	0	0	0.785264	0.498168	-0.365084	-0.057632	0.452562	0.749144	0.0934365	0.0585965	-0.0141435	0.0484185	0.441951	0.355143	0.120477	-0.040304	0.271204	-0.0832955	-0.49674	-0.296143	0.526178	-0.317618	-0.21055	0.599592	-0.167735	-0.239593	-0.381568	0.0696845	-0.399687	-0.136724	-1.84626	-1.72342	-1.41986	-0.254407	
4.61426	0	0	0.785264	0.498168	-0.366804	-0.052769	0.452562	0.749144	0.0923667	0.0616193	-0.0102568	0.0458788	0.435986	0.363093	0.120477	-0.040304	0.273195	-0.0811753	-0.49458	-0.291767	0.52326	-0.30937	-0.205263	0.60731	-0.169204	-0.225149	-0.378225	0.0780027	-0.401918	-0.117787	-1.85162	-1.70826	-1.42122	-0.250552	
4.62494	0	0	0.785264	0.498168	-0.368525	-0.047906	0.452562	0.749144	0.091297	0.064642	-0.00637	0.043339	0.43002	0.371043	0.120477	-0.040304	0.275186	-0.079055	-0.492421	-0.287392	0.520342	-0.301123	-0.199977	0.615029	-0.170672	-0.210705	-0.374883	0.086321	-0.404149	-0.098849	-1.85699	-1.6931	-1.42259	-0.246697	
4.63562	0	0	0.797991	0.49502	-0.364065	-0.0433375	0.450693	0.754427	0.0969427	0.070256	-0.00248125	0.0407983	0.432255	0.373637	0.126823	-0.0428077	0.276804	-0.0681255	-0.493309	-0.284882	0.526218	-0.298616	-0.201693	0.619878	-0.165333	-0.205189	-0.369119	0.0878115	-0.390138	-0.100499	-1.85699	-1.6931	-1.41986	-0.254406	
4.64477	0	0	0.810718	0.491872	-0.359604	-0.038769	0.448824	0.75971	0.102588	0.07587	0.0014075	0.0382575	0.434489	0.376231	0.133169	-0.0453115	0.278421	-0.057196	-0.494198	-0.282371	0.532093	-0.296109	-0.203409	0.624728	-0.159995	-0.199673	-0.363355	0.089302	-0.376128	-0.102149	-1.85699	-1.6931	-1.41713	-0.262115	
4.6524	0	0	0.823445	0.488724	-0.355144	-0.0342005	0.446954	0.764992	0.108234	0.081484	0.00529625	0.0357167	0.436724	0.378824	0.139515	-0.0478153	0.280039	-0.0462665	-0.495086	-0.279861	0.537969	-0.293602	-0.205125	0.629578	-0.154657	-0.194157	-0.35759	0.0907925	-0.362117	-0.103799	-1.85699	-1.6931	-1.4144	-0.269823	
4.66156	0	0	0.836172	0.485576	-0.350684	-0.029632	0.445085	0.770275	0.11388	0.087098	0.009185	0.033176	0.438959	0.381418	0.145861	-0.050319	0.281657	-0.035337	-0.495974	-0.277351	0.543845	-0.291095	-0.206841	0.634427	-0.149318	-0.188641	-0.351826	0.092283	-0.348106	-0.105449	-1.85699	-1.6931	-1.41168	-0.277532	
4.66461	0	0	0.833792	0.492303	-0.347945	-0.0201812	0.440407	0.783496	0.117385	0.098786	0.0169675	0.0280905	0.439327	0.389293	0.153725	-0.0571008	0.284851	-0.0288495	-0.494704	-0.270456	0.547776	-0.283073	-0.206776	0.645582	-0.146051	-0.177247	-0.356671	0.105975	-0.348042	-0.0929645	-1.86236	-1.67791	-1.41304	-0.273678	
4.66766	0	0	0.831411	0.49903	-0.345206	-0.0107305	0.435729	0.796717	0.120891	0.110474	0.02475	0.023005	0.439694	0.397169	0.16159	-0.0638825	0.288045	-0.022362	-0.493434	-0.26356	0.551708	-0.275052	-0.20671	0.656736	-0.142785	-0.165853	-0.361515	0.119667	-0.347977	-0.08048	-1.86774	-1.66272	-1.4144	-0.269825	
4.67071	0	0	0.829031	0.505758	-0.342468	-0.00127975	0.431051	0.809937	0.124396	0.122162	0.0325325	0.0179195	0.440061	0.405045	0.169455	-0.0706642	0.29124	-0.0158745	-0.492164	-0.256665	0.55564	-0.267031	-0.206645	0.66789	-0.139518	-0.154459	-0.36636	0.133359	-0.347913	-0.0679955	-1.87311	-1.64754	-1.41577	-0.265971	
4.67071	0	0	0.826651	0.512485	-0.339729	0.008171	0.426373	0.823158	0.127902	0.13385	0.040315	0.012834	0.440429	0.41292	0.177319	-0.077446	0.294434	-0.009387	-0.490894	-0.249769	0.559571	-0.259009	-0.206579	0.679045	-0.136251	-0.143065	-0.371205	0.147051	-0.347848	-0.055511	-1.87849	-1.63235	-1.41713	-0.262117	
4.66919	0	0	0.824269	0.519217	-0.32561	0.00269575	0.433954	0.814137	0.132876	0.1306	0.040315	0.012834	0.43726	0.412961	0.177319	-0.077446	0.296427	-0.007256	-0.489116	-0.254795	0.555167	-0.256131	-0.212658	0.684885	-0.139369	-0.134253	-0.374843	0.157334	-0.346635	-0.0462665	-1.87849	-1.63235	-1.42695	-0.249774	
4.67224	0	0	0.821886	0.52595	-0.311491	-0.0027795	0.441535	0.805115	0.13785	0.12735	0.040315	0.012834	0.434092	0.413002	0.177319	-0.077446	0.298419	-0.005125	-0.487337	-0.259821	0.550763	-0.253254	-0.218737	0.690725	-0.142487	-0.125441	-0.378482	0.167617	-0.345421	-0.037022	-1.87849	-1.63235	-1.43676	-0.23743	
4.66614	0	0	0.819504	0.532682	-0.297371	-0.00825475	0.449117	0.796094	0.142824	0.1241	0.040315	0.012834	0.430924	0.413042	0.177319	-0.077446	0.300412	-0.002994	-0.485559	-0.264846	0.546359	-0.250376	-0.224815	0.696565	-0.145605	-0.11663	-0.382121	0.177899	-0.344207	-0.0277775	-1.87849	-1.63235	-1.44658	-0.225087	
4.66766	0	0	0.817122	0.539415	-0.283252	-0.01373	0.456698	0.787073	0.147798	0.12085	0.040315	0.012834	0.427755	0.413083	0.177319	-0.077446	0.302405	-0.000863	-0.483781	-0.269872	0.541955	-0.247498	-0.230894	0.702405	-0.148723	-0.107818	-0.385759	0.188182	-0.342994	-0.018533	-1.87849	-1.63235	-1.4564	-0.212744	
4.66308	0	0	0.832254	0.529527	-0.278774	-0.0091485	0.455762	0.789718	0.156681	0.117378	0.0364227	0.0153773	0.428689	0.410443	0.17452	-0.07726	0.303195	-0.003096	-0.492541	-0.266079	0.541955	-0.247498	-0.232614	0.707267	-0.150803	-0.101939	-0.386973	0.191612	-0.342994	-0.018533	-1.89753	-1.62575	-1.44794	-0.221232	
4.65698	0	0	0.847387	0.51964	-0.274296	-0.004567	0.454827	0.792363	0.165564	0.113906	0.0325305	0.0179205	0.429623	0.407804	0.171721	-0.077074	0.303985	-0.005329	-0.5013	-0.262286	0.541955	-0.247498	-0.234335	0.712128	-0.152884	-0.0960595	-0.388186	0.195043	-0.342994	-0.018533	-1.91657	-1.61914	-1.43949	-0.22972	
4.6524	0	0	0.862519	0.509752	-0.269817	1.45E-05	0.453891	0.795008	0.174446	0.110435	0.0286383	0.0204637	0.430557	0.405165	0.168922	-0.076888	0.304775	-0.007562	-0.510059	-0.258494	0.541955	-0.247498	-0.236055	0.716989	-0.154964	-0.0901803	-0.3894	0.198473	-0.342994	-0.018533	-1.93561	-1.61254	-1.43104	-0.238209	
4.64477	0	0	0.877651	0.499864	-0.265339	0.004596	0.452955	0.797653	0.183329	0.106963	0.024746	0.023007	0.431491	0.402525	0.166123	-0.076702	0.305565	-0.009795	-0.518819	-0.254701	0.541955	-0.247498	-0.237775	0.721851	-0.157044	-0.084301	-0.390614	0.201903	-0.342994	-0.018533	-1.95465	-1.60594	-1.42259	-0.246697	
4.64477	0	0	0.890426	0.496696	-0.271544	0.004896	0.452955	0.797653	0.172299	0.116504	0.017725	0.0259477	0.429257	0.399928	0.16257	-0.0743803	0.302369	-0.0162835	-0.520974	-0.259083	0.543905	-0.253011	-0.237775	0.721851	-0.152293	-0.0874053	-0.400012	0.210682	-0.345306	-0.0119975	-1.93561	-1.61254	-1.42259	-0.246697	
4.64172	0	0	0.903201	0.493528	-0.27775	0.005196	0.452955	0.797653	0.161268	0.126045	0.010704	0.0288885	0.427024	0.397331	0.159017	-0.0720585	0.299172	-0.022772	-0.52313	-0.263464	0.545856	-0.258524	-0.237775	0.721851	-0.147543	-0.0905095	-0.409409	0.219461	-0.347618	-0.005462	-1.91657	-1.61914	-1.42259	-0.246697	
4.64325	0	0	0.915977	0.490361	-0.283956	0.005496	0.452955	0.797653	0.150238	0.135585	0.003683	0.0318293	0.42479	0.394733	0.155463	-0.0697368	0.295976	-0.0292605	-0.525285	-0.267846	0.547807	-0.264036	-0.237775	0.721851	-0.142792	-0.0936137	-0.418807	0.22824	-0.349931	0.0010735	-1.89753	-1.62575	-1.42259	-0.246697	
4.6463	0	0	0.928752	0.487193	-0.290161	0.005796	0.452955	0.797653	0.139208	0.145126	-0.003338	0.03477	0.422556	0.392136	0.15191	-0.067415	0.29278	-0.035749	-0.52744	-0.272228	0.549757	-0.269549	-0.237775	0.721851	-0.138042	-0.096718	-0.428205	0.237019	-0.352243	0.007609	-1.87849	-1.63235	-1.42259	-0.246697	
4.64172	0	0	0.918359	0.483628	-0.288434	0.0009145	0.457631	0.784436	0.140672	0.130181	-0.0149932	0.0423857	0.419955	0.38168	0.141259	-0.0604553	0.285604	-0.046471	-0.533018	-0.287848	0.542403	-0.277442	-0.248256	0.717493	-0.143381	-0.102266	-0.426991	0.233588	-0.358077	0.0114208	-1.87849	-1.63235	-1.42395	-0.24284	
4.64935	0	0	0.907966	0.480063	-0.286706	-0.003967	0.462308	0.771219	0.142136	0.115237	-0.0266485	0.0500015	0.417354	0.371224	0.130607	-0.0534955	0.278427	-0.057193	-0.538595	-0.303468	0.535049	-0.285336	-0.258736	0.713135	-0.148721	-0.107814	-0.425777	0.230156	-0.363911	0.0152325	-1.87849	-1.63235	-1.42532	-0.238983	
4.65088	0	0	0.897573	0.476499	-0.284979	-0.0088485	0.466985	0.758003	0.1436	0.100292	-0.0383038	0.0576173	0.414754	0.360769	0.119956	-0.0465358	0.27125	-0.067915	-0.544172	-0.319087	0.527696	-0.293229	-0.269217	0.708777	-0.15406	-0.113362	-0.424563	0.226724	-0.369744	0.0190443	-1.87849	-1.63235	-1.42668	-0.235126	
4.65698	0	0	0.88718	0.472934	-0.283252	-0.01373	0.471661	0.744786	0.145064	0.085347	-0.049959	0.065233	0.412153	0.350313	0.109305	-0.039576	0.264074	-0.078637	-0.54975	-0.334707	0.520342	-0.301123	-0.279698	0.704419	-0.159399	-0.11891	-0.423349	0.223293	-0.375578	0.022856	-1.87849	-1.63235	-1.42805	-0.231269	
4.65393	0	0	0.88956	0.466207	-0.271867	-0.028669	0.46782	0.743235	0.141165	0.0855665	-0.0615985	0.0728385	0.404529	0.345181	0.098667	-0.0326248	0.258107	-0.0849932	-0.558862	-0.340286	0.520809	-0.311993	-0.282329	0.700542	-0.163105	-0.118746	-0.429098	0.221776	-0.374422	0.0195878	-1.8758	-1.63994	-1.4324	-0.23435	
4.65698	0	0	0.891941	0.45948	-0.260481	-0.043608	0.46398	0.741684	0.137265	0.085786	-0.073238	0.080444	0.396905	0.34005	0.088029	-0.0256735	0.25214	-0.0913495	-0.567973	-0.345865	0.521276	-0.322862	-0.28496	0.696664	-0.166812	-0.118581	-0.434847	0.220259	-0.373265	0.0163195	-1.87311	-1.64754	-1.43676	-0.237431	
4.66003	0	0	0.894321	0.452752	-0.249095	-0.058547	0.46014	0.740134	0.133366	0.0860055	-0.0848775	0.0880495	0.389281	0.334919	0.077391	-0.0187222	0.246174	-0.0977058	-0.577085	-0.351444	0.521744	-0.333732	-0.28759	0.692786	-0.170518	-0.118416	-0.440595	0.218743	-0.372109	0.0130513	-1.87042	-1.65514	-1.44112	-0.240512	
4.66003	0	0	0.896702	0.446025	-0.23771	-0.073486	0.456299	0.738583	0.129467	0.086225	-0.096517	0.095655	0.381657	0.329787	0.066753	-0.011771	0.240207	-0.104062	-0.586197	-0.357023	0.522211	-0.344602	-0.290221	0.688909	-0.174224	-0.118252	-0.446344	0.217226	-0.370952	0.009783	-1.86773	-1.66274	-1.44548	-0.243593	
4.66156	0	0	0.914239	0.429397	-0.23771	-0.073486	0.4591	0.730667	0.121676	0.086661	-0.108899	0.105393	0.379428	0.327203	0.0518335	-0.0003795	0.230692	-0.108085	-0.586582	-0.366367	0.516342	-0.347098	-0.290221	0.688909	-0.174224	-0.118252	-0.447557	0.220655	-0.373265	0.0163208	-1.88946	-1.64854	-1.44685	-0.239738	
4.65851	0	0	0.931777	0.41277	-0.23771	-0.073486	0.461901	0.722751	0.113886	0.087097	-0.12128	0.11513	0.377199	0.324618	0.036914	0.011012	0.221176	-0.112107	-0.586966	-0.375711	0.510472	-0.349593	-0.290221	0.688909	-0.174224	-0.118252	-0.448771	0.224083	-0.375579	0.0228585	-1.91119	-1.63434	-1.44821	-0.235882	
4.65546	0	0	0.949315	0.396142	-0.23771	-0.073486	0.464702	0.714835	0.106095	0.087533	-0.133661	0.124868	0.37497	0.322033	0.0219945	0.0224035	0.211661	-0.116129	-0.587351	-0.385056	0.504602	-0.352089	-0.290221	0.688909	-0.174224	-0.118252	-0.449984	0.227512	-0.377892	0.0293962	-1.93292	-1.62014	-1.44957	-0.232027	
4.65851	0	0	0.966852	0.379514	-0.23771	-0.073486	0.467503	0.706919	0.098304	0.087969	-0.146043	0.134605	0.372741	0.319449	0.007075	0.033795	0.202146	-0.120152	-0.587736	-0.3944	0.498733	-0.354584	-0.290221	0.688909	-0.174224	-0.118252	-0.451197	0.230941	-0.380205	0.035934	-1.95465	-1.60594	-1.45094	-0.228172	
4.65088	0	0	0.966852	0.379514	-0.242196	-0.078046	0.460759	0.701195	0.100445	0.0819182	-0.153026	0.13752	0.370142	0.309038	0.000758	0.0362797	0.20053	-0.131023	-0.598979	-0.404292	0.495778	-0.365297	-0.293766	0.676324	-0.174814	-0.126888	-0.456939	0.229422	-0.383721	0.0332055	-1.93292	-1.62014	-1.45802	-0.223545	
4.64783	0	0	0.966852	0.379514	-0.246682	-0.082606	0.454014	0.69547	0.102585	0.0758675	-0.160008	0.140435	0.367543	0.298627	-0.005559	0.0387645	0.198914	-0.141895	-0.610223	-0.414184	0.492823	-0.376011	-0.297311	0.663739	-0.175405	-0.135525	-0.462681	0.227903	-0.387238	0.030477	-1.91119	-1.63434	-1.4651	-0.218917	
4.6463	0	0	0.966852	0.379514	-0.251168	-0.087166	0.44727	0.689746	0.104726	0.0698168	-0.16699	0.143351	0.364944	0.288216	-0.011876	0.0412493	0.197299	-0.152766	-0.621467	-0.424076	0.489869	-0.386725	-0.300856	0.651155	-0.175995	-0.144161	-0.468423	0.226383	-0.390754	0.0277485	-1.88946	-1.64854	-1.47218	-0.214289	
4.64172	0	0	0.966852	0.379514	-0.255654	-0.091726	0.440526	0.684022	0.106867	0.063766	-0.173973	0.146266	0.362345	0.277805	-0.018193	0.043734	0.195683	-0.163637	-0.63271	-0.433968	0.486914	-0.397438	-0.304401	0.63857	-0.176586	-0.152798	-0.474165	0.224864	-0.39427	0.02502	-1.86773	-1.66274	-1.47927	-0.209662	
4.63867	0	0	0.969229	0.372797	-0.26358	-0.0865468	0.442389	0.678756	0.107937	0.0607425	-0.181706	0.151319	0.363273	0.275183	-0.02526	0.0483517	0.194483	-0.167958	-0.636126	-0.445114	0.486404	-0.405521	-0.30703	0.634708	-0.174512	-0.15866	-0.472953	0.221438	-0.400096	0.0288265	-1.88946	-1.64854	-1.47218	-0.214289	
4.63714	0	0	0.971606	0.36608	-0.271507	-0.0813675	0.444252	0.673491	0.109007	0.057719	-0.189439	0.156372	0.364201	0.27256	-0.032327	0.0529695	0.193282	-0.172279	-0.639541	-0.45626	0.485893	-0.413605	-0.309659	0.630846	-0.172437	-0.164521	-0.471741	0.218012	-0.405922	0.032633	-1.91119	-1.63434	-1.4651	-0.218917	
4.63257	0	0	0.973983	0.359362	-0.279434	-0.0761882	0.446115	0.668226	0.110077	0.0546955	-0.197173	0.161426	0.365129	0.269938	-0.039394	0.0575873	0.192081	-0.176599	-0.642956	-0.467406	0.485383	-0.421688	-0.312288	0.626984	-0.170363	-0.170383	-0.470528	0.214585	-0.411747	0.0364395	-1.93292	-1.62014	-1.45802	-0.223545	
4.62952	0	0	0.97636	0.352645	-0.28736	-0.071009	0.447978	0.66296	0.111147	0.051672	-0.204906	0.166479	0.366057	0.267316	-0.046461	0.062205	0.190881	-0.18092	-0.646372	-0.478552	0.484873	-0.429771	-0.314917	0.623122	-0.168289	-0.176245	-0.469316	0.211159	-0.417573	0.040246	-1.95465	-1.60594	-1.45094	-0.228172	
4.62494	0	0	0.97636	0.352645	-0.277711	-0.0810565	0.449722	0.645651	0.107637	0.040034	-0.21422	0.167626	0.363829	0.264742	-0.044194	0.055798	0.18968	-0.185237	-0.652421	-0.482232	0.481459	-0.429643	-0.319255	0.624098	-0.174066	-0.170217	-0.477477	0.216491	-0.416417	0.036979	-1.95197	-1.61353	-1.45094	-0.228172	
4.62341	0	0	0.97636	0.352645	-0.268062	-0.091104	0.451466	0.628343	0.104127	0.028396	-0.223534	0.168773	0.3616	0.262167	-0.041927	0.049391	0.188479	-0.189553	-0.65847	-0.485913	0.478046	-0.429515	-0.323593	0.625074	-0.179843	-0.164189	-0.485637	0.221824	-0.415261	0.033712	-1.94928	-1.62112	-1.45094	-0.228172	
4.62189	0	0	0.97636	0.352645	-0.258413	-0.101152	0.45321	0.611034	0.100617	0.016758	-0.232848	0.16992	0.359372	0.259593	-0.03966	0.042984	0.187278	-0.19387	-0.66452	-0.489594	0.474632	-0.429386	-0.327932	0.62605	-0.18562	-0.158162	-0.493798	0.227156	-0.414105	0.030445	-1.9466	-1.62871	-1.45094	-0.228172	
4.61578	0	0	0.97636	0.352645	-0.248764	-0.111199	0.454954	0.593725	0.097107	0.00512	-0.242162	0.171067	0.357144	0.257018	-0.037393	0.036577	0.186077	-0.198187	-0.670569	-0.493274	0.471218	-0.429258	-0.33227	0.627026	-0.191397	-0.152134	-0.501958	0.232488	-0.412949	0.027178	-1.94391	-1.6363	-1.45094	-0.228172	
4.61273	0	0	0.97636	0.352645	-0.247042	-0.116065	0.452046	0.589571	0.0921505	0.00835875	-0.246778	0.175729	0.35399	0.257065	-0.0381485	0.038712	0.185295	-0.195976	-0.671837	-0.50007	0.468773	-0.431864	-0.334041	0.620753	-0.189324	-0.157994	-0.497113	0.218796	-0.421123	0.0249893	-1.94391	-1.6363	-1.44385	-0.232803	
4.6112	0	0	0.97636	0.352645	-0.245321	-0.12093	0.449138	0.585418	0.087194	0.0115975	-0.251394	0.180391	0.350836	0.257111	-0.038904	0.040847	0.184512	-0.193765	-0.673104	-0.506865	0.466329	-0.434469	-0.335812	0.614479	-0.18725	-0.163854	-0.492268	0.205104	-0.429297	0.0228005	-1.94391	-1.6363	-1.43676	-0.237434	
4.6051	0	0	0.97636	0.352645	-0.2436	-0.125796	0.44623	0.581265	0.0822375	0.0148363	-0.256011	0.185054	0.347682	0.257157	-0.0396595	0.042982	0.183729	-0.191553	-0.674372	-0.513661	0.463884	-0.437075	-0.337582	0.608205	-0.185176	-0.169714	-0.487424	0.191412	-0.437471	0.0206117	-1.94391	-1.6363	-1.42968	-0.242066	
4.60358	0	0	0.97636	0.352645	-0.241878	-0.130661	0.443322	0.577111	0.077281	0.018075	-0.260627	0.189716	0.344528	0.257204	-0.040415	0.045117	0.182947	-0.189342	-0.67564	-0.520457	0.461439	-0.439681	-0.339353	0.601932	-0.183103	-0.175574	-0.482579	0.17772	-0.445645	0.018423	-1.94391	-1.6363	-1.42259	-0.246697	
4.599	0	0	0.97636	0.352645	-0.249804	-0.125481	0.436703	0.583453	0.075145	0.0241113	-0.260627	0.189716	0.346755	0.259778	-0.040415	0.045117	0.186914	-0.18513	-0.681681	-0.524126	0.463372	-0.445145	-0.342832	0.600493	-0.182067	-0.178503	-0.487103	0.172792	-0.447997	0.0124385	-1.92218	-1.6505	-1.41686	-0.247475	
4.60205	0	0	0.97636	0.352645	-0.257731	-0.120302	0.430084	0.589796	0.073009	0.0301475	-0.260627	0.189716	0.348982	0.262352	-0.040415	0.045117	0.190882	-0.180918	-0.687722	-0.527794	0.465305	-0.450608	-0.346311	0.599054	-0.18103	-0.181431	-0.491626	0.167863	-0.450349	0.006454	-1.90045	-1.6647	-1.41113	-0.248253	
4.59595	0	0	0.97636	0.352645	-0.265657	-0.115123	0.423466	0.596138	0.070873	0.0361838	-0.260627	0.189716	0.351208	0.264927	-0.040415	0.045117	0.19485	-0.176706	-0.693763	-0.531463	0.467239	-0.456072	-0.34979	0.597615	-0.179994	-0.18436	-0.49615	0.162935	-0.452701	0.0004695	-1.87872	-1.6789	-1.4054	-0.249031	
4.59747	0	0	0.97636	0.352645	-0.273583	-0.109943	0.416847	0.60248	0.068737	0.04222	-0.260627	0.189716	0.353435	0.267501	-0.040415	0.045117	0.198817	-0.172494	-0.699804	-0.535132	0.469172	-0.461536	-0.353269	0.596176	-0.178958	-0.187288	-0.500674	0.158007	-0.455053	-0.005515	-1.85699	-1.6931	-1.39967	-0.249809	
4.58984	0	0	0.97636	0.352645	-0.270143	-0.119666	0.414873	0.595704	0.070873	0.0361838	-0.26834	0.194755	0.358445	0.262212	-0.0411707	0.0472527	0.201586	-0.172601	-0.701947	-0.539438	0.465761	-0.461406	-0.3576	0.59715	-0.18266	-0.18712	-0.508819	0.163329	-0.45971	-0.0049775	-1.88141	-1.67131	-1.39967	-0.249809	
4.58984	0	0	0.97636	0.352645	-0.266703	-0.129389	0.412899	0.588929	0.073009	0.0301475	-0.276052	0.199795	0.363456	0.256923	-0.0419265	0.0493885	0.204354	-0.172708	-0.70409	-0.543745	0.46235	-0.461277	-0.36193	0.598124	-0.186362	-0.186952	-0.516964	0.168651	-0.464367	-0.00444	-1.90582	-1.64952	-1.39967	-0.249809	
4.59137	0	0	0.97636	0.352645	-0.263262	-0.139112	0.410924	0.582153	0.075145	0.0241113	-0.283764	0.204835	0.368467	0.251635	-0.0426822	0.0515243	0.207122	-0.172814	-0.706232	-0.548051	0.45894	-0.461147	-0.36626	0.599099	-0.190063	-0.186784	-0.525109	0.173973	-0.469023	-0.0039025	-1.93024	-1.62773	-1.39967	-0.249809	
4.58832	0	0	0.97636	0.352645	-0.259822	-0.148835	0.40895	0.575378	0.077281	0.018075	-0.291477	0.209874	0.373477	0.246346	-0.043438	0.05366	0.209891	-0.172921	-0.708375	-0.552357	0.455529	-0.461018	-0.370591	0.600073	-0.193765	-0.186616	-0.533254	0.179295	-0.47368	-0.003365	-1.95465	-1.60594	-1.39967	-0.249809	
4.58526	0	0	0.973983	0.359362	-0.266022	-0.148518	0.410805	0.570137	0.0794153	0.012043	-0.292235	0.212015	0.376634	0.246298	-0.0363708	0.0490422	0.213079	-0.166487	-0.711392	-0.554188	0.460872	-0.466608	-0.374065	0.598634	-0.195394	-0.192299	-0.537767	0.174369	-0.48068	-0.00880325	-1.93024	-1.62773	-1.4054	-0.249031	
4.58832	0	0	0.971606	0.36608	-0.272223	-0.148201	0.412659	0.564896	0.0815495	0.006011	-0.292992	0.214157	0.379792	0.246249	-0.0293035	0.0444245	0.216267	-0.160052	-0.714409	-0.556018	0.466215	-0.472198	-0.37754	0.597195	-0.197023	-0.197983	-0.542279	0.169442	-0.48768	-0.0142415	-1.90582	-1.64952	-1.41113	-0.248253	
4.58221	0	0	0.969229	0.372797	-0.278423	-0.147884	0.414513	0.559655	0.0836838	-2.1E-05	-0.29375	0.216299	0.382949	0.246201	-0.0222362	0.0398068	0.219455	-0.153618	-0.717425	-0.557848	0.471558	-0.477788	-0.381014	0.595756	-0.198652	-0.203666	-0.546791	0.164516	-0.49468	-0.0196798	-1.88141	-1.67131	-1.41686	-0.247475	
4.58069	0	0	0.966852	0.379514	-0.284623	-0.147567	0.416368	0.554414	0.085818	-0.006053	-0.294508	0.21844	0.386107	0.246152	-0.015169	0.035189	0.222643	-0.147184	-0.720442	-0.559679	0.476901	-0.483378	-0.384488	0.594317	-0.200281	-0.209349	-0.551304	0.159589	-0.50168	-0.025118	-1.85699	-1.6931	-1.42259	-0.246697	
4.57764	0	0	0.966852	0.379514	-0.284623	-0.147567	0.407903	0.56599	0.0875725	-0.000242	-0.29375	0.216299	0.386482	0.253973	-0.0116333	0.0328787	0.229391	-0.143066	-0.719568	-0.56215	0.474969	-0.477917	-0.385342	0.596729	-0.197616	-0.206593	-0.551304	0.159589	-0.502831	-0.021864	-1.88141	-1.67131	-1.4084	-0.255971	
4.57916	0	0	0.966852	0.379514	-0.284623	-0.147567	0.399438	0.577565	0.089327	0.005569	-0.292992	0.214157	0.386857	0.261794	-0.0080975	0.0305685	0.23614	-0.138948	-0.718693	-0.564622	0.473036	-0.472457	-0.386195	0.599141	-0.194951	-0.203836	-0.551304	0.159589	-0.503982	-0.01861	-1.90582	-1.64952	-1.3942	-0.265244	
4.57306	0	0	0.966852	0.379514	-0.284623	-0.147567	0.390973	0.589141	0.0910815	0.01138	-0.292235	0.212015	0.387232	0.269614	-0.00456175	0.0282582	0.242889	-0.134829	-0.717819	-0.567094	0.471104	-0.466996	-0.387049	0.601553	-0.192287	-0.201079	-0.551304	0.159589	-0.505134	-0.015356	-1.93024	-1.62773	-1.38001	-0.274518	
4.57001	0	0	0.966852	0.379514	-0.284623	-0.147567	0.382508	0.600717	0.092836	0.017191	-0.291477	0.209874	0.387607	0.277435	-0.001026	0.025948	0.249637	-0.130711	-0.716944	-0.569565	0.469172	-0.461536	-0.387902	0.603965	-0.189622	-0.198323	-0.551304	0.159589	-0.506285	-0.012102	-1.95465	-1.60594	-1.36582	-0.283792	
4.57458	0	0	0.984415	0.362874	-0.282905	-0.152422	0.390973	0.589141	0.0939038	0.0141733	-0.291477	0.209874	0.394858	0.274715	0.00251125	0.0236367	0.25718	-0.12881	-0.717819	-0.567094	0.475032	-0.459064	-0.387902	0.603965	-0.191694	-0.192469	-0.552512	0.163002	-0.506285	-0.012102	-1.91652	-1.61917	-1.37265	-0.264491	
4.57001	0	0	1.00198	0.346234	-0.281188	-0.157277	0.399438	0.577565	0.0949715	0.0111555	-0.291477	0.209874	0.402109	0.271995	0.0060485	0.0213255	0.264723	-0.126909	-0.718693	-0.564622	0.480893	-0.456591	-0.387902	0.603965	-0.193765	-0.186615	-0.55372	0.166415	-0.506285	-0.012102	-1.87838	-1.63241	-1.37948	-0.24519	
4.57153	0	5	1.01954	0.329594	-0.27947	-0.162132	0.407903	0.56599	0.0960392	0.00813775	-0.291477	0.209874	0.40936	0.269274	0.00958575	0.0190142	0.272266	-0.125008	-0.719568	-0.56215	0.486754	-0.454118	-0.387902	0.603965	-0.195836	-0.18076	-0.554927	0.169829	-0.506285	-0.012102	-1.84024	-1.64564	-1.3863	-0.225889	
4.56695	0	5	1.0371	0.312954	-0.277752	-0.166987	0.416368	0.554414	0.097107	0.00512	-0.291477	0.209874	0.416611	0.266554	0.013123	0.016703	0.279809	-0.123107	-0.720442	-0.559679	0.492614	-0.451646	-0.387902	0.603965	-0.197908	-0.174906	-0.556135	0.173242	-0.506285	-0.012102	-1.80211	-1.65887	-1.39313	-0.206588	
4.56695	0	5	1.03473	0.319671	-0.263624	-0.172486	0.421127	0.553318	0.104893	0.00467325	-0.291477	0.209874	0.420151	0.274339	0.0209575	0.00994175	0.287782	-0.114637	-0.718301	-0.555375	0.499963	-0.443827	-0.385283	0.607819	-0.19628	-0.169213	-0.560643	0.168318	-0.514424	-0.0142857	-1.82389	-1.64464	-1.38165	-0.208145	
4.5639	0	5	1.03235	0.326388	-0.249497	-0.177985	0.425887	0.552223	0.112679	0.0042265	-0.291477	0.209874	0.423691	0.282125	0.028792	0.0031805	0.295755	-0.106166	-0.716159	-0.551071	0.507313	-0.436009	-0.382663	0.611674	-0.194653	-0.16352	-0.56515	0.163394	-0.522563	-0.0164695	-1.84568	-1.6304	-1.37017	-0.209703	
4.5639	0	5	1.02997	0.333106	-0.235369	-0.183484	0.430647	0.551127	0.120465	0.00377975	-0.291477	0.209874	0.427231	0.28991	0.0366265	-0.00358075	0.303729	-0.0976955	-0.714017	-0.546767	0.514662	-0.42819	-0.380043	0.615529	-0.193025	-0.157827	-0.569658	0.158471	-0.530703	-0.0186533	-1.86746	-1.61617	-1.35869	-0.21126	
4.56695	0	5	1.0276	0.339823	-0.221241	-0.188983	0.435406	0.550032	0.128251	0.003333	-0.291477	0.209874	0.430771	0.297695	0.044461	-0.010342	0.311702	-0.089225	-0.711876	-0.542463	0.522011	-0.420371	-0.377424	0.619383	-0.191397	-0.152134	-0.574165	0.153547	-0.538842	-0.020837	-1.88925	-1.60193	-1.34721	-0.212817	
4.56238	0	5	1.02522	0.346545	-0.232606	-0.174086	0.428792	0.556368	0.114053	0.0219008	-0.287622	0.207355	0.432448	0.310762	0.0480025	-0.0126563	0.3169	-0.080629	-0.702817	-0.536961	0.524975	-0.409664	-0.373037	0.629522	-0.187104	-0.143663	-0.582287	0.158854	-0.542332	-0.0235533	-1.88925	-1.60193	-1.35569	-0.204302	
4.55932	0	5	1.02284	0.353267	-0.243971	-0.159189	0.422178	0.562705	0.0998555	0.0404685	-0.283767	0.204836	0.434125	0.323828	0.051544	-0.0149705	0.322098	-0.072033	-0.693758	-0.53146	0.527938	-0.398956	-0.368651	0.639661	-0.18281	-0.135193	-0.590409	0.164161	-0.545823	-0.0262695	-1.88925	-1.60193	-1.36417	-0.195787	
4.56543	0	5	1.02046	0.35999	-0.255336	-0.144292	0.415564	0.569041	0.0856578	0.0590363	-0.279911	0.202317	0.435802	0.336894	0.0550855	-0.0172847	0.327297	-0.063437	-0.684699	-0.525958	0.530902	-0.388248	-0.364264	0.6498	-0.178517	-0.126722	-0.59853	0.169468	-0.549314	-0.0289858	-1.88925	-1.60193	-1.37265	-0.187271	
4.5639	0	5	1.01808	0.366712	-0.266701	-0.129395	0.40895	0.575378	0.07146	0.077604	-0.276056	0.199798	0.437479	0.349961	0.058627	-0.019599	0.332495	-0.054841	-0.67564	-0.520457	0.533866	-0.377541	-0.359878	0.659939	-0.174224	-0.118252	-0.606652	0.174775	-0.552804	-0.031702	-1.88925	-1.60193	-1.38113	-0.178756	
4.5639	0	5	1.02046	0.35999	-0.250841	-0.139758	0.410805	0.570137	0.0813818	0.071121	-0.272199	0.197277	0.436547	0.352596	0.064959	-0.0220945	0.333702	-0.0504835	-0.672617	-0.518621	0.541687	-0.380542	-0.353831	0.654129	-0.169479	-0.121353	-0.609943	0.166448	-0.564409	-0.0365955	-1.88925	-1.60193	-1.38524	-0.16714	
4.56238	0	5	1.02284	0.353267	-0.234981	-0.150122	0.412659	0.564896	0.0913035	0.064638	-0.268342	0.194757	0.435615	0.355231	0.071291	-0.02459	0.334909	-0.046126	-0.669594	-0.516785	0.549508	-0.383543	-0.347785	0.648318	-0.164733	-0.124453	-0.613235	0.15812	-0.576014	-0.041489	-1.88925	-1.60193	-1.38935	-0.155525	
4.56238	0	5	1.02522	0.346545	-0.21912	-0.160485	0.414513	0.559655	0.101225	0.058155	-0.264484	0.192237	0.434682	0.357865	0.077623	-0.0270855	0.336116	-0.0417685	-0.666571	-0.51495	0.55733	-0.386544	-0.341739	0.642508	-0.159988	-0.127554	-0.616526	0.149792	-0.587619	-0.0463825	-1.88925	-1.60193	-1.39346	-0.143909	
4.56238	0	5	1.0276	0.339823	-0.20326	-0.170848	0.416368	0.554414	0.111147	0.051672	-0.260627	0.189716	0.43375	0.3605	0.083955	-0.029581	0.337323	-0.037411	-0.663548	-0.513114	0.565151	-0.389545	-0.335692	0.636697	-0.155243	-0.130655	-0.619818	0.141465	-0.599224	-0.051276	-1.88925	-1.60193	-1.39757	-0.132293	
4.56543	0	5	1.01716	0.336316	-0.195983	-0.15689	0.40686	0.5566	0.11183	0.0605285	-0.245939	0.181765	0.430584	0.360544	0.105253	-0.0434975	0.335743	-0.0329458	-0.658376	-0.506957	0.573497	-0.38444	-0.33221	0.638141	-0.152573	-0.127884	-0.635692	0.133539	-0.614278	-0.0588687	-1.88656	-1.60954	-1.39595	-0.121428	
4.56543	0	5	1.00673	0.332809	-0.188706	-0.142932	0.397351	0.558786	0.112513	0.069385	-0.231251	0.173814	0.427418	0.360587	0.126551	-0.057414	0.334163	-0.0284805	-0.653203	-0.500799	0.581843	-0.379336	-0.328728	0.639585	-0.149903	-0.125113	-0.651566	0.125613	-0.629331	-0.0664615	-1.88387	-1.61714	-1.39433	-0.110564	
4.57458	0	5	0.996294	0.329303	-0.181429	-0.128974	0.387842	0.560973	0.113197	0.0782415	-0.216563	0.165862	0.424251	0.36063	0.147849	-0.0713305	0.332583	-0.0240153	-0.648031	-0.494642	0.590189	-0.374231	-0.325246	0.641029	-0.147234	-0.122342	-0.667441	0.117688	-0.644384	-0.0740543	-1.88118	-1.62474	-1.3927	-0.0996995	
4.59137	0	5	0.98586	0.325796	-0.174152	-0.115016	0.378334	0.563159	0.11388	0.087098	-0.201875	0.157911	0.421085	0.360674	0.169147	-0.085247	0.331003	-0.01955	-0.642858	-0.488485	0.598535	-0.369127	-0.321764	0.642473	-0.144564	-0.119571	-0.683315	0.109762	-0.659438	-0.081647	-1.87849	-1.63235	-1.39108	-0.088835	
4.60815	0	5	0.975445	0.322292	-0.151594	-0.0921758	0.371616	0.557492	0.107843	0.0933702	-0.182529	0.145269	0.413088	0.347696	0.194062	-0.101527	0.330168	-0.032726	-0.637681	-0.482318	0.604431	-0.366637	-0.31828	0.643918	-0.13818	-0.116963	-0.693472	0.103359	-0.676771	-0.0951435	-1.88948	-1.6485	-1.37959	-0.0903738	
4.62952	0	5	0.965031	0.318788	-0.129037	-0.0693355	0.364898	0.551824	0.101807	0.0996425	-0.163182	0.132628	0.405091	0.334718	0.218976	-0.117807	0.329334	-0.045902	-0.632503	-0.47615	0.610326	-0.364147	-0.314796	0.645363	-0.131796	-0.114356	-0.70363	0.0969555	-0.694103	-0.10864	-1.90047	-1.66465	-1.3681	-0.0919125	
4.64783	0	5	0.954616	0.315284	-0.10648	-0.0464953	0.35818	0.546157	0.0957705	0.105915	-0.143836	0.119986	0.397093	0.321739	0.243891	-0.134086	0.328499	-0.059078	-0.627326	-0.469982	0.616222	-0.361657	-0.311311	0.646807	-0.125413	-0.111749	-0.713787	0.0905523	-0.711436	-0.122137	-1.91146	-1.6808	-1.35661	-0.0934512	
4.67224	0	5	0.944202	0.31178	-0.083922	-0.023655	0.351462	0.54049	0.089734	0.112187	-0.124489	0.107345	0.389096	0.308761	0.268806	-0.150366	0.327665	-0.072254	-0.622149	-0.463815	0.622118	-0.359167	-0.307827	0.648252	-0.119029	-0.109141	-0.723944	0.084149	-0.728769	-0.135633	-1.92245	-1.69695	-1.34511	-0.09499	
4.69055	0	5	0.938538	0.294909	-0.0640692	-0.0101987	0.339092	0.538531	0.089734	0.112187	-0.116738	0.10228	0.375728	0.293299	0.275938	-0.155026	0.319266	-0.0872967	-0.615206	-0.462615	0.625037	-0.367417	-0.304403	0.638574	-0.115909	-0.117959	-0.728417	0.079259	-0.746008	-0.136746	-1.94681	-1.67521	-1.32508	-0.105091	
4.71802	0	5	0.932874	0.278039	-0.0442165	0.0032575	0.326721	0.536572	0.089734	0.112187	-0.108987	0.097216	0.36236	0.277838	0.283069	-0.159687	0.310867	-0.102339	-0.608262	-0.461415	0.627957	-0.375667	-0.300978	0.628896	-0.112789	-0.126776	-0.732889	0.074369	-0.763248	-0.137858	-1.97116	-1.65347	-1.30505	-0.115192	
4.73328	0	5	0.92721	0.261168	-0.0243638	0.0167137	0.314351	0.534613	0.089734	0.112187	-0.101236	0.0921515	0.348993	0.262376	0.290201	-0.164347	0.302469	-0.117382	-0.601319	-0.460216	0.630876	-0.383916	-0.297553	0.619217	-0.109669	-0.135594	-0.737362	0.069479	-0.780488	-0.138971	-1.99552	-1.63173	-1.28502	-0.125292	
4.74701	0	5	0.921546	0.244298	-0.004511	0.03017	0.301981	0.532654	0.089734	0.112187	-0.093485	0.087087	0.335625	0.246914	0.297333	-0.169007	0.29407	-0.132425	-0.594376	-0.459016	0.633795	-0.392166	-0.294129	0.609539	-0.106549	-0.144411	-0.741834	0.064589	-0.797727	-0.140084	-2.01987	-1.60999	-1.265	-0.135393	
4.76074	0	5	0.911164	0.240819	0.0252152	0.0334807	0.301057	0.535265	0.094305	0.120851	-0.0803302	0.0751992	0.331726	0.23137	0.309553	-0.180275	0.291232	-0.147632	-0.587424	-0.457817	0.632303	-0.397528	-0.291563	0.602287	-0.108185	-0.150114	-0.746303	0.0597055	-0.797765	-0.152414	-2.01184	-1.6327	-1.24629	-0.141638	
4.76837	0	5	0.900782	0.237341	0.0549415	0.0367915	0.300133	0.537875	0.098876	0.129515	-0.0671755	0.0633115	0.327827	0.215826	0.321774	-0.191543	0.288393	-0.16284	-0.580472	-0.456618	0.63081	-0.40289	-0.288997	0.595036	-0.109822	-0.155817	-0.750773	0.054822	-0.797803	-0.164745	-2.0038	-1.65542	-1.22758	-0.147884	
4.7821	0	5	0.890399	0.233862	0.0846677	0.0401022	0.29921	0.540486	0.103447	0.138179	-0.0540207	0.0514238	0.323927	0.200283	0.333994	-0.202812	0.285555	-0.178047	-0.573521	-0.455419	0.629318	-0.408251	-0.286431	0.587784	-0.111458	-0.16152	-0.755242	0.0499385	-0.797841	-0.177075	-1.99576	-1.67813	-1.20888	-0.154129	
4.78973	0	5	0.880017	0.230383	0.114394	0.043413	0.298286	0.543097	0.108018	0.146843	-0.040866	0.039536	0.320028	0.184739	0.346214	-0.21408	0.282717	-0.193255	-0.566569	-0.45422	0.627826	-0.413613	-0.283865	0.580532	-0.113094	-0.167223	-0.759711	0.045055	-0.797879	-0.189406	-1.98773	-1.70085	-1.19017	-0.160374	
4.79889	0	5	0.884733	0.217054	0.131603	0.047366	0.290781	0.552017	0.114741	0.14945	-0.0338553	0.036601	0.309667	0.187495	0.349031	-0.214279	0.275175	-0.19514	-0.561373	-0.448036	0.628798	-0.416359	-0.275172	0.578568	-0.115172	-0.161352	-0.757319	0.0382947	-0.801328	-0.192088	-1.98773	-1.70085	-1.16393	-0.156552	
4.79889	0	5	0.88945	0.203725	0.148813	0.051319	0.283276	0.560938	0.121465	0.152056	-0.0268445	0.033666	0.299306	0.190251	0.351848	-0.214479	0.267633	-0.197024	-0.556177	-0.441851	0.629769	-0.419104	-0.266479	0.576604	-0.11725	-0.15548	-0.754927	0.0315345	-0.804777	-0.19477	-1.98773	-1.70085	-1.1377	-0.152729	
4.80499	0	5	0.894166	0.190395	0.166023	0.055272	0.275771	0.569858	0.128188	0.154663	-0.0198338	0.030731	0.288944	0.193008	0.354665	-0.214678	0.260091	-0.198909	-0.550981	-0.435666	0.630741	-0.42185	-0.257786	0.57464	-0.119327	-0.149609	-0.752534	0.0247742	-0.808226	-0.197452	-1.98773	-1.70085	-1.11147	-0.148907	
4.80957	0	5	0.898882	0.177066	0.183232	0.059225	0.268266	0.578778	0.134911	0.15727	-0.012823	0.027796	0.278583	0.195764	0.357482	-0.214877	0.252549	-0.200794	-0.545785	-0.429482	0.631712	-0.424596	-0.249093	0.572676	-0.121405	-0.143737	-0.750142	0.018014	-0.811675	-0.200134	-1.98773	-1.70085	-1.08523	-0.145085	
4.80957	0	5	0.886158	0.180262	0.176906	0.0595557	0.272073	0.580309	0.137738	0.160093	-0.012823	0.027796	0.275441	0.195811	0.356726	-0.212741	0.254116	-0.205222	-0.540979	-0.432622	0.629248	-0.427206	-0.242176	0.56444	-0.122002	-0.152372	-0.748947	0.0146355	-0.819701	-0.202287	-1.98773	-1.70085	-1.06303	-0.12953	
4.80957	0	5	0.873435	0.183457	0.170581	0.0598865	0.27588	0.58184	0.140565	0.162917	-0.012823	0.027796	0.272298	0.195858	0.355971	-0.210606	0.255682	-0.209649	-0.536172	-0.435763	0.626784	-0.429816	-0.235259	0.556204	-0.122598	-0.161007	-0.747752	0.011257	-0.827726	-0.20444	-1.98773	-1.70085	-1.04083	-0.113974	
4.80804	0	5	0.860711	0.186653	0.164255	0.0602172	0.279687	0.583371	0.143392	0.16574	-0.012823	0.027796	0.269155	0.195906	0.355215	-0.20847	0.257248	-0.214077	-0.531365	-0.438904	0.62432	-0.432425	-0.228342	0.547968	-0.123195	-0.169642	-0.746556	0.0078785	-0.835751	-0.206594	-1.98773	-1.70085	-1.01864	-0.0984192	
4.80347	0	5	0.847988	0.189849	0.15793	0.060548	0.283494	0.584902	0.146219	0.168564	-0.012823	0.027796	0.266013	0.195953	0.354459	-0.206334	0.258815	-0.218505	-0.526559	-0.442044	0.621856	-0.435035	-0.221425	0.539732	-0.123792	-0.178277	-0.745361	0.0045	-0.843777	-0.208747	-1.98773	-1.70085	-0.996438	-0.082864	
4.80194	0	5	0.860711	0.186653	0.165328	0.0747483	0.290189	0.590584	0.160774	0.170743	-0.016708	0.0303345	0.269527	0.203693	0.351642	-0.206135	0.260023	-0.214188	-0.524398	-0.437702	0.622827	-0.437778	-0.21707	0.538744	-0.120079	-0.178448	-0.745361	0.0045	-0.83693	-0.215685	-1.98773	-1.70085	-0.976935	-0.0593607	
4.80041	0	5	0.873435	0.183457	0.172727	0.0889485	0.296885	0.596266	0.17533	0.172923	-0.020593	0.032873	0.273041	0.211433	0.348826	-0.205936	0.26123	-0.20987	-0.522238	-0.43336	0.623798	-0.440522	-0.212716	0.537757	-0.116366	-0.178619	-0.745361	0.0045	-0.830083	-0.222623	-1.98773	-1.70085	-0.957431	-0.0358575	
4.79431	0	5	0.886158	0.180262	0.180125	0.103149	0.303581	0.601947	0.189886	0.175102	-0.024478	0.0354115	0.276556	0.219174	0.346009	-0.205738	0.262437	-0.205552	-0.520077	-0.429017	0.624768	-0.443265	-0.208362	0.53677	-0.112654	-0.178789	-0.745361	0.0045	-0.823235	-0.229561	-1.98773	-1.70085	-0.937928	-0.0123543	
4.78973	0	5	0.898882	0.177066	0.187524	0.117349	0.310276	0.607629	0.204441	0.177282	-0.028363	0.03795	0.28007	0.226914	0.343192	-0.205539	0.263645	-0.201235	-0.517916	-0.424675	0.625739	-0.446008	-0.204007	0.535782	-0.108941	-0.17896	-0.745361	0.0045	-0.816388	-0.236499	-1.98773	-1.70085	-0.918424	0.011149	
4.78363	0	5	0.881446	0.193581	0.201275	0.131275	0.309349	0.610247	0.203364	0.180327	-0.033004	0.0426287	0.281733	0.239903	0.342436	-0.203403	0.265274	-0.190369	-0.51094	-0.423474	0.622305	-0.445873	-0.192638	0.53765	-0.11473	-0.172922	-0.745361	0.0045	-0.820967	-0.23597	-1.97409	-1.6923	-0.885679	0.0292372	
4.78058	0	5	0.864009	0.210097	0.215026	0.145201	0.308423	0.612866	0.202287	0.183371	-0.037645	0.0473075	0.283396	0.252891	0.34168	-0.201267	0.266904	-0.179503	-0.503964	-0.422274	0.618872	-0.445738	-0.181269	0.539519	-0.120519	-0.166883	-0.745361	0.0045	-0.825547	-0.23544	-1.96045	-1.68375	-0.852933	0.0473255	
4.776	0	5	0.846573	0.226612	0.228777	0.159127	0.307497	0.615484	0.201209	0.186415	-0.042286	0.0519862	0.285058	0.26588	0.340925	-0.199132	0.268533	-0.168638	-0.496988	-0.421073	0.615438	-0.445602	-0.1699	0.541387	-0.126308	-0.160845	-0.745361	0.0045	-0.830126	-0.234911	-1.94681	-1.67519	-0.820187	0.0654137	
4.77142	0	5	0.829137	0.243127	0.242528	0.173053	0.30657	0.618103	0.200132	0.18946	-0.046927	0.056665	0.286721	0.278869	0.340169	-0.196996	0.270162	-0.157772	-0.490012	-0.419872	0.612004	-0.445467	-0.158531	0.543255	-0.132097	-0.154806	-0.745361	0.0045	-0.834706	-0.234382	-1.93318	-1.66664	-0.787442	0.083502	
4.76379	0	5	0.839496	0.246613	0.275444	0.186056	0.310384	0.619639	0.203647	0.201223	-0.046927	0.056665	0.290598	0.294475	0.340169	-0.196996	0.274985	-0.140423	-0.486079	-0.420521	0.607602	-0.442591	-0.149796	0.54127	-0.130021	-0.160674	-0.748637	-0.0037385	-0.83244	-0.240786	-1.93586	-1.65906	-0.782667	0.101738	
4.76074	0	5	0.849855	0.250099	0.30836	0.19906	0.314198	0.621175	0.207161	0.212986	-0.046927	0.056665	0.294476	0.310081	0.340169	-0.196996	0.279807	-0.123075	-0.482146	-0.421171	0.603201	-0.439715	-0.141062	0.539285	-0.127944	-0.166542	-0.751913	-0.011977	-0.830174	-0.24719	-1.93854	-1.65147	-0.777892	0.119973	
4.75159	0	0	0.860214	0.253585	0.341276	0.212063	0.318011	0.622711	0.210675	0.224749	-0.046927	0.056665	0.298353	0.325687	0.340169	-0.196996	0.284629	-0.105726	-0.478212	-0.42182	0.598799	-0.436838	-0.132327	0.5373	-0.125868	-0.172409	-0.755189	-0.0202155	-0.827908	-0.253595	-1.94123	-1.64389	-0.773118	0.138209	
4.74701	0	0	0.870573	0.257071	0.374192	0.225066	0.321825	0.624247	0.21419	0.236512	-0.046927	0.056665	0.30223	0.341293	0.340169	-0.196996	0.289452	-0.088377	-0.474279	-0.422469	0.594397	-0.433962	-0.123592	0.535315	-0.123792	-0.178277	-0.758465	-0.028454	-0.825642	-0.259999	-1.94391	-1.6363	-0.768343	0.156444	
4.74548	0	0	0.878586	0.267247	0.401968	0.253203	0.333283	0.628859	0.221624	0.248094	-0.046927	0.056665	0.308325	0.359546	0.343742	-0.19933	0.296264	-0.068834	-0.475163	-0.41997	0.592456	-0.428477	-0.121792	0.54159	-0.125868	-0.172409	-0.752799	-0.0269682	-0.827908	-0.253595	-1.95197	-1.61351	-0.766396	0.182727	
4.7409	0	0	0.886598	0.277423	0.429744	0.28134	0.34474	0.633471	0.229057	0.259676	-0.046927	0.056665	0.314419	0.3778	0.347314	-0.201665	0.303076	-0.049291	-0.476048	-0.417471	0.590515	-0.422991	-0.119993	0.547864	-0.127944	-0.166542	-0.747134	-0.0254825	-0.830174	-0.24719	-1.96004	-1.59072	-0.76445	0.20901	
4.7348	0	0	0.89461	0.287599	0.457519	0.309478	0.356198	0.638082	0.23649	0.271259	-0.046927	0.056665	0.320514	0.396054	0.350886	-0.204	0.309889	-0.029748	-0.476932	-0.414972	0.588574	-0.417505	-0.118193	0.554139	-0.130021	-0.160674	-0.741468	-0.0239968	-0.83244	-0.240786	-1.9681	-1.56793	-0.762503	0.235293	
4.73022	0	0	0.902623	0.297775	0.485295	0.337615	0.367655	0.642694	0.243924	0.282841	-0.046927	0.056665	0.326608	0.414307	0.354459	-0.206334	0.316701	-0.010205	-0.477816	-0.412473	0.586633	-0.41202	-0.116394	0.560414	-0.132097	-0.154806	-0.735803	-0.022511	-0.834706	-0.234382	-1.97617	-1.54514	-0.760556	0.261576	
4.7287	0	0	0.897886	0.311164	0.499234	0.351767	0.367655	0.642694	0.251773	0.282416	-0.050051	0.05706	0.326386	0.432699	0.355215	-0.20847	0.318728	0.00738225	-0.479585	-0.407473	0.586177	-0.401168	-0.115454	0.569125	-0.132543	-0.143224	-0.739388	-0.0123798	-0.823228	-0.229558	-1.95444	-1.55934	-0.763132	0.284767	
4.72565	0	0	0.893148	0.324553	0.513174	0.36592	0.367655	0.642694	0.259623	0.281991	-0.053175	0.057455	0.326164	0.45109	0.355971	-0.210606	0.320755	0.0249695	-0.481355	-0.402472	0.585721	-0.390315	-0.114514	0.577835	-0.132989	-0.131642	-0.742973	-0.0022485	-0.811749	-0.224735	-1.93271	-1.57353	-0.765707	0.307959	
4.71802	0	0	0.88841	0.337942	0.527114	0.380072	0.367655	0.642694	0.267473	0.281566	-0.056299	0.05785	0.325942	0.469482	0.356726	-0.212741	0.322782	0.0425568	-0.483124	-0.397471	0.585265	-0.379462	-0.113574	0.586545	-0.133434	-0.12006	-0.746557	0.00788275	-0.80027	-0.219911	-1.91098	-1.58773	-0.768282	0.33115	
4.71649	0	0	0.883673	0.351331	0.541053	0.394224	0.367655	0.642694	0.275322	0.281141	-0.059423	0.058245	0.32572	0.487874	0.357482	-0.214877	0.324809	0.060144	-0.484893	-0.392471	0.584809	-0.36861	-0.112634	0.595256	-0.13388	-0.108478	-0.750142	0.018014	-0.788792	-0.215087	-1.88925	-1.60193	-0.770858	0.354341	
4.71344	0	0	0.894061	0.354853	0.533895	0.414452	0.37148	0.644232	0.272072	0.290327	-0.059423	0.058245	0.326071	0.49577	0.361056	-0.217212	0.328414	0.0733002	-0.487057	-0.396823	0.585322	-0.360489	-0.111775	0.592829	-0.135961	-0.102597	-0.743277	0.0161265	-0.781884	-0.209725	-1.88925	-1.60193	-0.798481	0.384711	
4.71344	0	0	0.904448	0.358374	0.526738	0.434679	0.375304	0.645771	0.268821	0.299514	-0.059423	0.058245	0.326423	0.503665	0.36463	-0.219548	0.33202	0.0864565	-0.489221	-0.401174	0.585834	-0.352368	-0.110916	0.590402	-0.138042	-0.096716	-0.736412	0.014239	-0.774976	-0.204364	-1.88925	-1.60193	-0.826105	0.415082	
4.70428	0	0	0.914836	0.361895	0.519581	0.454907	0.379128	0.647309	0.26557	0.3087	-0.059423	0.058245	0.326774	0.511561	0.368204	-0.221883	0.335625	0.0996127	-0.491384	-0.405526	0.586346	-0.344248	-0.110057	0.587974	-0.140123	-0.090835	-0.729548	0.0123515	-0.768069	-0.199002	-1.88925	-1.60193	-0.853728	0.445453	
4.70581	0	0	0.925223	0.365417	0.512423	0.475135	0.382953	0.648848	0.26232	0.317887	-0.059423	0.058245	0.327125	0.519457	0.371778	-0.224218	0.33923	0.112769	-0.493548	-0.409878	0.586859	-0.336127	-0.109198	0.585547	-0.142204	-0.084954	-0.722683	0.010464	-0.761161	-0.19364	-1.88925	-1.60193	-0.881351	0.475823	
4.70276	0	0	0.920471	0.378846	0.51348	0.49003	0.38492	0.655645	0.265836	0.329736	-0.0625452	0.0586392	0.330632	0.527335	0.372534	-0.226353	0.341632	0.12156	-0.496595	-0.411728	0.590803	-0.32812	-0.116148	0.593821	-0.137904	-0.0764475	-0.718205	0.0153385	-0.756523	-0.181831	-1.89464	-1.58671	-0.889876	0.499916	
4.70886	0	0	0.91572	0.392276	0.514537	0.504926	0.386887	0.662443	0.269351	0.341586	-0.0656675	0.0590335	0.334139	0.535214	0.373289	-0.228488	0.344034	0.130352	-0.499642	-0.413579	0.594746	-0.320113	-0.123097	0.602094	-0.133603	-0.067941	-0.713727	0.020213	-0.751885	-0.170023	-1.90002	-1.57148	-0.898402	0.52401	
4.70886	0	5	0.910968	0.405705	0.515595	0.519821	0.388853	0.66924	0.272867	0.353436	-0.0687897	0.0594278	0.337645	0.543092	0.374045	-0.230624	0.346436	0.139143	-0.502689	-0.415429	0.598689	-0.312106	-0.130047	0.610367	-0.129302	-0.0594345	-0.709249	0.0250875	-0.747246	-0.158214	-1.90541	-1.55625	-0.906927	0.548103	
4.71191	0	5	0.906216	0.419135	0.516652	0.534717	0.39082	0.676037	0.276382	0.365285	-0.071912	0.059822	0.341152	0.550971	0.374801	-0.232759	0.348838	0.147934	-0.505736	-0.417279	0.602633	-0.304099	-0.136997	0.618641	-0.125002	-0.050928	-0.704771	0.029962	-0.742608	-0.146405	-1.9108	-1.54103	-0.915452	0.572196	
4.71344	0	5	0.918996	0.415952	0.523095	0.534409	0.39361	0.668151	0.277468	0.362216	-0.083541	0.0674205	0.339867	0.545707	0.367654	-0.228089	0.345252	0.150277	-0.518397	-0.412845	0.598224	-0.301218	-0.146592	0.623044	-0.127088	-0.0450332	-0.70029	0.0348432	-0.736827	-0.137791	-1.89441	-1.54001	-0.93416	0.609195	
4.71802	0	5	0.931777	0.412769	0.529538	0.534102	0.3964	0.660265	0.278554	0.359146	-0.09517	0.075019	0.338581	0.540443	0.360507	-0.223419	0.341666	0.15262	-0.531057	-0.408411	0.593816	-0.298338	-0.156188	0.627447	-0.129173	-0.0391385	-0.695808	0.0397245	-0.731047	-0.129178	-1.87802	-1.53899	-0.952867	0.646195	
4.71802	0	5	0.944558	0.409586	0.535981	0.533794	0.399191	0.65238	0.27964	0.356077	-0.106799	0.0826175	0.337295	0.535179	0.353361	-0.21875	0.33808	0.154964	-0.543718	-0.403976	0.589408	-0.295457	-0.165783	0.631851	-0.131259	-0.0332438	-0.691327	0.0446057	-0.725267	-0.120564	-1.86164	-1.53797	-0.971575	0.683194	
4.71954	0	5	0.957338	0.406403	0.542424	0.533486	0.401981	0.644494	0.280726	0.353007	-0.118428	0.090216	0.33601	0.529915	0.346214	-0.21408	0.334494	0.157307	-0.556379	-0.399542	0.584999	-0.292576	-0.175378	0.636254	-0.133345	-0.027349	-0.686845	0.049487	-0.719486	-0.11195	-1.84525	-1.53695	-0.990283	0.720193	
4.72107	0	5	0.972524	0.39648	0.532388	0.543948	0.40953	0.635522	0.285743	0.349728	-0.125415	0.0931358	0.336946	0.52727	0.339829	-0.211549	0.33409	0.150663	-0.552848	-0.409521	0.583516	-0.297959	-0.174519	0.633827	-0.133345	-0.027349	-0.693722	0.0513765	-0.720628	-0.108723	-1.84255	-1.54458	-1.00916	0.741842	
4.72259	0	5	0.98771	0.386557	0.522352	0.55441	0.417079	0.626551	0.290761	0.34645	-0.132401	0.0960555	0.337882	0.524625	0.333443	-0.209017	0.333685	0.144018	-0.549317	-0.419499	0.582034	-0.303343	-0.17366	0.6314	-0.133345	-0.027349	-0.7006	0.053266	-0.721769	-0.105496	-1.83985	-1.55221	-1.02804	0.763491	
4.72259	0	5	1.0029	0.376635	0.512316	0.564872	0.424629	0.61758	0.295778	0.343172	-0.139387	0.0989753	0.338818	0.521981	0.327058	-0.206486	0.33328	0.137374	-0.545787	-0.429478	0.580551	-0.308727	-0.172802	0.628973	-0.133345	-0.027349	-0.707477	0.0551555	-0.722911	-0.102269	-1.83715	-1.55984	-1.04692	0.78514	
4.71649	0	5	1.01808	0.366712	0.50228	0.575334	0.432178	0.608608	0.300796	0.339893	-0.146374	0.101895	0.339754	0.519336	0.320672	-0.203955	0.332876	0.130729	-0.542256	-0.439456	0.579068	-0.31411	-0.171943	0.626546	-0.133345	-0.027349	-0.714354	0.057045	-0.724053	-0.099042	-1.83445	-1.56747	-1.0658	0.806789	
4.71802	0	5	1.0029	0.376635	0.457387	0.577384	0.426488	0.612326	0.297537	0.349104	-0.150243	0.104423	0.338818	0.521981	0.313537	-0.199293	0.328094	0.128676	-0.546178	-0.43881	0.574156	-0.319361	-0.168435	0.627986	-0.12963	-0.0275095	-0.713156	0.053659	-0.721734	-0.0931098	-1.83175	-1.57509	-1.10965	0.804446	
4.71344	0	5	0.98771	0.386557	0.412493	0.579435	0.420797	0.616044	0.294277	0.358316	-0.154112	0.106952	0.337882	0.524625	0.306403	-0.194631	0.323312	0.126623	-0.550099	-0.438164	0.569244	-0.324612	-0.164928	0.629426	-0.125915	-0.02767	-0.711958	0.050273	-0.719414	-0.0871775	-1.82905	-1.58272	-1.1535	0.802103	
4.71039	0	5	0.972524	0.39648	0.3676	0.581486	0.415107	0.619763	0.291018	0.367528	-0.157982	0.10948	0.336946	0.52727	0.299268	-0.189969	0.31853	0.124571	-0.554021	-0.437517	0.564333	-0.329864	-0.16142	0.630867	-0.1222	-0.0278305	-0.71076	0.046887	-0.717094	-0.0812453	-1.82636	-1.59034	-1.19735	0.799761	
4.70428	0	5	0.957338	0.406403	0.322707	0.583536	0.409417	0.623481	0.287759	0.376739	-0.161851	0.112008	0.33601	0.529915	0.292133	-0.185307	0.313748	0.122518	-0.557943	-0.436871	0.559421	-0.335115	-0.157912	0.632307	-0.118485	-0.027991	-0.709562	0.043501	-0.714775	-0.075313	-1.82366	-1.59796	-1.2412	0.797418	
4.70581	0	5	0.946934	0.402869	0.265261	0.551408	0.404545	0.612548	0.282741	0.380018	-0.174206	0.121726	0.334724	0.524657	0.279931	-0.174051	0.30698	0.118321	-0.557457	-0.448676	0.55058	-0.348337	-0.154477	0.6226	-0.123828	-0.0335635	-0.715235	0.0420048	-0.717062	-0.0688485	-1.82096	-1.60558	-1.29333	0.803703	
4.70428	0	5	0.93653	0.399335	0.207815	0.519279	0.399672	0.601614	0.277724	0.383296	-0.186561	0.131445	0.333438	0.519399	0.267729	-0.162795	0.300212	0.114124	-0.556971	-0.460481	0.54174	-0.361559	-0.151042	0.612893	-0.12917	-0.039136	-0.720908	0.0405085	-0.71935	-0.062384	-1.81827	-1.6132	-1.34547	0.809989	
4.69971	0	5	0.926127	0.3958	0.150369	0.48715	0.3948	0.590681	0.272706	0.386574	-0.198915	0.141163	0.332152	0.514141	0.255527	-0.15154	0.293443	0.109926	-0.556485	-0.472287	0.5329	-0.37478	-0.147608	0.603186	-0.134513	-0.0447085	-0.726582	0.0390122	-0.721637	-0.0559195	-1.81557	-1.62081	-1.3976	0.816275	
4.69818	0	5	0.915723	0.392266	0.092923	0.455022	0.389928	0.579748	0.267688	0.389853	-0.21127	0.150882	0.330866	0.508883	0.243325	-0.140284	0.286675	0.105729	-0.555999	-0.484092	0.524059	-0.388002	-0.144173	0.593479	-0.139856	-0.050281	-0.732255	0.037516	-0.723924	-0.049455	-1.81288	-1.62843	-1.44973	0.82256	
4.70734	0	5	0.905339	0.388734	0.046081	0.44723	0.385176	0.580839	0.271618	0.389647	-0.219751	0.158069	0.332736	0.503599	0.239764	-0.137958	0.283488	0.0992025	-0.554239	-0.489067	0.517679	-0.398573	-0.145031	0.595905	-0.137772	-0.05617	-0.721794	0.025481	-0.723924	-0.049455	-1.82928	-1.62941	-1.4785	0.825977	
4.71344	0	5	0.894955	0.385203	-0.000761	0.439439	0.380424	0.581929	0.275549	0.389441	-0.228231	0.165256	0.334606	0.498314	0.236204	-0.135631	0.280301	0.092676	-0.552478	-0.494043	0.511298	-0.409144	-0.14589	0.59833	-0.135688	-0.062059	-0.711332	0.013446	-0.723924	-0.049455	-1.84568	-1.63039	-1.50727	0.829394	
4.72107	0	5	0.884571	0.381671	-0.047603	0.431648	0.375673	0.58302	0.279479	0.389235	-0.236711	0.172443	0.336475	0.49303	0.232643	-0.133304	0.277113	0.0861495	-0.550717	-0.499018	0.504918	-0.419715	-0.146748	0.600756	-0.133605	-0.067948	-0.700871	0.001411	-0.723924	-0.049455	-1.86208	-1.63137	-1.53605	0.83281	
4.73633	0	5	0.874187	0.37814	-0.094445	0.423856	0.370921	0.58411	0.28341	0.389029	-0.245192	0.17963	0.338345	0.487746	0.229082	-0.130978	0.273926	0.079623	-0.548957	-0.503993	0.498537	-0.430286	-0.147606	0.603182	-0.131521	-0.073837	-0.69041	-0.010624	-0.723924	-0.049455	-1.87849	-1.63235	-1.56482	0.836227	
4.74548	0	5	0.878928	0.364741	-0.094445	0.423856	0.368951	0.577346	0.280566	0.386163	-0.256763	0.187191	0.328881	0.487841	0.218409	-0.124004	0.263987	0.0689307	-0.548957	-0.503993	0.493642	-0.435496	-0.141519	0.59734	-0.128849	-0.0710555	-0.684727	-0.00913775	-0.723924	-0.049455	-1.8758	-1.63994	-1.54465	0.841511	
4.75311	0	5	0.883669	0.351341	-0.094445	0.423856	0.366981	0.570582	0.277723	0.383298	-0.268334	0.194752	0.319416	0.487935	0.207736	-0.11703	0.254049	0.0582385	-0.548957	-0.503993	0.488746	-0.440707	-0.135432	0.591498	-0.126176	-0.068274	-0.679045	-0.0076515	-0.723924	-0.049455	-1.87311	-1.64754	-1.52447	0.846795	
4.75769	0	5	0.888411	0.337942	-0.094445	0.423856	0.365012	0.563817	0.274879	0.380433	-0.279906	0.202313	0.309952	0.48803	0.197062	-0.110055	0.244111	0.0475462	-0.548957	-0.503993	0.483851	-0.445917	-0.129345	0.585655	-0.123504	-0.0654925	-0.673362	-0.00616525	-0.723924	-0.049455	-1.87042	-1.65514	-1.5043	0.852079	
4.76227	0	5	0.893152	0.324543	-0.094445	0.423856	0.363042	0.557053	0.272036	0.377567	-0.291477	0.209874	0.300488	0.488124	0.186389	-0.103081	0.234172	0.036854	-0.548957	-0.503993	0.478956	-0.451127	-0.123258	0.579813	-0.120832	-0.062711	-0.667679	-0.004679	-0.723924	-0.049455	-1.86773	-1.66274	-1.48413	0.857363	
4.76532	0	5	0.897886	0.311164	-0.0710723	0.427756	0.360147	0.552912	0.264182	0.377978	-0.314573	0.224965	0.300713	0.469741	0.164326	-0.087023	0.226614	0.019515	-0.549359	-0.513284	0.477926	-0.467241	-0.126854	0.567261	-0.120381	-0.0743185	-0.659596	-0.009961	-0.720494	-0.05915	-1.84595	-1.67697	-1.47837	0.856679	
4.76532	0	5	0.90262	0.297785	-0.0476995	0.431657	0.357252	0.548771	0.256329	0.378389	-0.337669	0.240057	0.300938	0.451358	0.142264	-0.070965	0.219056	0.002176	-0.549761	-0.522574	0.476896	-0.483354	-0.13045	0.554709	-0.11993	-0.085926	-0.651512	-0.015243	-0.717063	-0.068845	-1.82416	-1.69121	-1.4726	0.855994	
4.76532	0	5	0.907354	0.284405	-0.0243267	0.435558	0.354357	0.544631	0.248475	0.378801	-0.360765	0.255149	0.301163	0.432976	0.120202	-0.054907	0.211499	-0.015163	-0.550162	-0.531865	0.475865	-0.499467	-0.134046	0.542158	-0.11948	-0.0975335	-0.643429	-0.020525	-0.713633	-0.07854	-1.80238	-1.70544	-1.46684	0.85531	
4.76684	0	5	0.912088	0.271026	-0.000954	0.439458	0.351462	0.54049	0.240621	0.379212	-0.383861	0.27024	0.301388	0.414593	0.098139	-0.038849	0.203941	-0.032502	-0.550564	-0.541156	0.474835	-0.515581	-0.137642	0.529606	-0.119029	-0.109141	-0.635346	-0.025807	-0.710202	-0.088235	-1.78059	-1.71968	-1.46107	0.854626	
4.76074	0	5	0.912088	0.271026	-0.00901475	0.444725	0.358058	0.53417	0.236698	0.379416	-0.399981	0.28242	0.30103	0.406738	0.0875055	-0.0319007	0.199566	-0.0433165	-0.548807	-0.546121	0.474316	-0.52362	-0.14466	0.526753	-0.116948	-0.11502	-0.62965	-0.0243255	-0.711345	-0.0850045	-1.78059	-1.71968	-1.43654	0.847852	
4.75769	0	5	0.912088	0.271026	-0.0170755	0.449992	0.364654	0.527851	0.232775	0.379621	-0.416102	0.2946	0.300672	0.398883	0.076872	-0.0249525	0.19519	-0.054131	-0.54705	-0.551087	0.473797	-0.531659	-0.151677	0.5239	-0.114868	-0.120899	-0.623954	-0.022844	-0.712489	-0.081774	-1.78059	-1.71968	-1.41201	0.841078	
4.75616	0	5	0.912088	0.271026	-0.0251362	0.455259	0.371251	0.521531	0.228852	0.379825	-0.432223	0.306779	0.300314	0.391027	0.0662385	-0.0180042	0.190814	-0.0649455	-0.545293	-0.556053	0.473279	-0.539698	-0.158695	0.521047	-0.112787	-0.126779	-0.618257	-0.0213625	-0.713632	-0.0785435	-1.78059	-1.71968	-1.38748	0.834304	
4.75311	0	5	0.912088	0.271026	-0.033197	0.460526	0.377847	0.515211	0.224929	0.38003	-0.448343	0.318959	0.299956	0.383172	0.055605	-0.011056	0.186439	-0.07576	-0.543536	-0.561018	0.47276	-0.547737	-0.165713	0.518194	-0.110707	-0.132658	-0.612561	-0.019881	-0.714775	-0.075313	-1.78059	-1.71968	-1.36295	0.82753	
4.75006	0	5	0.916815	0.257667	-0.0296642	0.450542	0.377719	0.503249	0.225346	0.367975	-0.459847	0.326476	0.29366	0.383245	0.0442285	-0.00198	0.181691	-0.0777777	-0.546576	-0.562847	0.471276	-0.553045	-0.170929	0.521602	-0.114421	-0.132491	-0.60566	-0.021787	-0.710167	-0.0758395	-1.77791	-1.72727	-1.3426	0.83278	
4.74548	0	5	0.921542	0.244308	-0.0261315	0.440558	0.377592	0.491287	0.225764	0.355919	-0.471352	0.333993	0.287363	0.383319	0.032852	0.007096	0.176942	-0.0797955	-0.549616	-0.564677	0.469793	-0.558352	-0.176145	0.525011	-0.118135	-0.132323	-0.59876	-0.023693	-0.705559	-0.076366	-1.77522	-1.73486	-1.32225	0.83803	
4.74396	0	5	0.926269	0.230949	-0.0225988	0.430574	0.377464	0.479326	0.226181	0.343864	-0.482856	0.34151	0.281066	0.383392	0.0214755	0.016172	0.172193	-0.0818133	-0.552655	-0.566506	0.468309	-0.563659	-0.181361	0.528419	-0.121848	-0.132155	-0.591859	-0.025599	-0.700951	-0.0768925	-1.77253	-1.74245	-1.3019	0.84328	
