0.703	5.62134	0	0	0.748922	0.145067	0.215479	-0.11439	0.537608	-0.26159	0.890921	-0.556738	0.630577	-0.22697	-0.021487	-0.533303	0.256054	-0.153846	-0.585695	0.134252	-0.392469	-0.451153	0.125872	-0.137147	0.098295	-0.085092	-0.042965	0.094987	-0.039742	0.57357	0.254189	0.54628	-1.03902	0.074963	-1.543	0.372699	
0.702193	5.62134	0	0	0.746606	0.151612	0.19985	-0.104178	0.530973	-0.267891	0.879279	-0.568289	0.627727	-0.236766	-0.0214032	-0.550534	0.253124	-0.153574	-0.584182	0.129975	-0.398925	-0.464309	0.122943	-0.14741	0.105999	-0.106865	-0.0427298	0.0638462	-0.0502772	0.552754	0.252742	0.51245	-1.01085	0.039949	-1.55003	0.34789	
0.701595	5.62134	0	0	0.74429	0.158157	0.184221	-0.0939655	0.524339	-0.274193	0.867638	-0.57984	0.624878	-0.246562	-0.0213195	-0.567765	0.250194	-0.153301	-0.582669	0.125698	-0.40538	-0.477465	0.120013	-0.157672	0.113703	-0.128638	-0.0424945	0.0327055	-0.0608125	0.531938	0.251294	0.478619	-0.982671	0.004935	-1.55707	0.323082	
0.701194	5.61981	0	0	0.741974	0.164701	0.168592	-0.0837533	0.517705	-0.280494	0.855996	-0.591392	0.622029	-0.256358	-0.0212358	-0.584997	0.247263	-0.153029	-0.581155	0.121421	-0.411836	-0.490622	0.117084	-0.167935	0.121407	-0.150411	-0.0422592	0.00156475	-0.0713478	0.511122	0.249846	0.444789	-0.954496	-0.030079	-1.5641	0.298273	
0.70098	5.61676	0	0	0.739658	0.171246	0.152963	-0.073541	0.51107	-0.286795	0.844354	-0.602943	0.619179	-0.266154	-0.021152	-0.602228	0.244333	-0.152756	-0.579642	0.117144	-0.418291	-0.503778	0.114154	-0.178198	0.129111	-0.172184	-0.042024	-0.029576	-0.081883	0.490306	0.248399	0.410959	-0.926321	-0.065093	-1.57113	0.273464	
0.700942	5.61523	0	0	0.724992	0.180829	0.149675	-0.064248	0.509113	-0.281263	0.848363	-0.603171	0.617371	-0.269963	-0.016365	-0.607262	0.248019	-0.155165	-0.569515	0.110527	-0.420442	-0.508154	0.11602	-0.183472	0.133383	-0.184257	-0.0406017	-0.0437425	-0.085007	0.482303	0.238838	0.387538	-0.918697	-0.0866385	-1.53524	0.276473	
0.701069	5.61981	0	0	0.710325	0.190412	0.146386	-0.054955	0.507156	-0.275732	0.852372	-0.603399	0.615564	-0.273772	-0.011578	-0.612295	0.251705	-0.157574	-0.559388	0.10391	-0.422593	-0.51253	0.117886	-0.188745	0.137655	-0.196331	-0.0391795	-0.057909	-0.088131	0.474299	0.229277	0.364117	-0.911074	-0.108184	-1.49936	0.279482	
0.701349	5.61371	0	0	0.695659	0.199996	0.143098	-0.045662	0.505198	-0.270201	0.856382	-0.603627	0.613756	-0.277581	-0.006791	-0.617329	0.255392	-0.159982	-0.549261	0.0972922	-0.424743	-0.516907	0.119751	-0.194018	0.141927	-0.208404	-0.0377572	-0.0720755	-0.091255	0.466295	0.219716	0.340695	-0.903451	-0.129729	-1.46347	0.282491	
0.701773	5.61371	0	0	0.680993	0.209579	0.13981	-0.036369	0.503241	-0.264669	0.860391	-0.603855	0.611948	-0.28139	-0.002004	-0.622363	0.259078	-0.162391	-0.539134	0.090675	-0.426894	-0.521283	0.121617	-0.199292	0.146199	-0.220477	-0.036335	-0.086242	-0.094379	0.458292	0.210155	0.317274	-0.895827	-0.151275	-1.42759	0.2855	
0.702329	5.61371	0	0	0.686379	0.226224	0.141034	-0.0228577	0.502262	-0.261902	0.844369	-0.602948	0.603745	-0.27603	-0.002881	-0.619884	0.257566	-0.158118	-0.539891	0.0928135	-0.415999	-0.520692	0.120684	-0.196656	0.153132	-0.228716	-0.0316645	-0.0892938	-0.085477	0.449966	0.211166	0.301827	-0.89329	-0.158445	-1.36906	0.300478	
0.703007	5.60913	0	0	0.691765	0.242868	0.142259	-0.0093465	0.501283	-0.259135	0.828348	-0.602042	0.595541	-0.27067	-0.003758	-0.617405	0.256054	-0.153845	-0.540647	0.094952	-0.405104	-0.520101	0.119752	-0.19402	0.160064	-0.236955	-0.026994	-0.0923455	-0.076575	0.44164	0.212178	0.28638	-0.890753	-0.165615	-1.31052	0.315456	
0.703795	5.61066	0	0	0.69715	0.259513	0.143483	0.00416475	0.500304	-0.256368	0.812327	-0.601136	0.587338	-0.26531	-0.004635	-0.614926	0.254542	-0.149572	-0.541403	0.0970905	-0.394208	-0.519511	0.118819	-0.191383	0.166997	-0.245195	-0.0223235	-0.0953972	-0.067673	0.433315	0.213189	0.270932	-0.888215	-0.172786	-1.25199	0.330434	
0.704686	5.60455	0	0	0.702536	0.276158	0.144707	0.017676	0.499325	-0.253601	0.796305	-0.600229	0.579135	-0.25995	-0.005512	-0.612447	0.25303	-0.145299	-0.54216	0.099229	-0.383313	-0.51892	0.117886	-0.188747	0.17393	-0.253434	-0.017653	-0.098449	-0.058771	0.424989	0.2142	0.255485	-0.885678	-0.179956	-1.19346	0.345412	
0.705686	5.6076	0	0	0.70792	0.292863	0.144272	0.035891	0.503129	-0.25183	0.790507	-0.605989	0.581705	-0.258302	-0.004635	-0.614926	0.260407	-0.15012	-0.529396	0.0925327	-0.383823	-0.507005	0.124153	-0.178637	0.183537	-0.257857	-0.0202953	-0.101129	-0.0610807	0.431517	0.207277	0.262471	-0.890754	-0.16561	-1.16797	0.379401	
0.706813	5.60608	0	0	0.713304	0.309569	0.143838	0.054106	0.506933	-0.250059	0.784709	-0.611749	0.584275	-0.256655	-0.003758	-0.617405	0.267784	-0.15494	-0.516631	0.0858365	-0.384333	-0.49509	0.130419	-0.168527	0.193144	-0.26228	-0.0229375	-0.10381	-0.0633905	0.438045	0.200353	0.269458	-0.89583	-0.151263	-1.14247	0.41339	
0.708084	5.59997	0	0	0.718687	0.326274	0.143403	0.072321	0.510736	-0.248289	0.77891	-0.61751	0.586844	-0.255007	-0.002881	-0.619884	0.275162	-0.15976	-0.503866	0.0791402	-0.384844	-0.483176	0.136686	-0.158418	0.202751	-0.266703	-0.0255797	-0.106491	-0.0657003	0.444573	0.19343	0.276444	-0.900907	-0.136917	-1.11698	0.447379	
0.709514	5.59692	0	0	0.724071	0.342979	0.142968	0.090536	0.51454	-0.246518	0.773112	-0.62327	0.589414	-0.25336	-0.002004	-0.622363	0.282539	-0.164581	-0.491102	0.072444	-0.385354	-0.471261	0.142953	-0.148308	0.212358	-0.271126	-0.028222	-0.109171	-0.06801	0.451101	0.186506	0.28343	-0.905983	-0.122571	-1.09148	0.481368	
0.711122	5.59082	0	0	0.714736	0.369362	0.147035	0.113061	0.518229	-0.231876	0.77671	-0.611293	0.595596	-0.244078	0.004871	-0.607773	0.303953	-0.17693	-0.466662	0.0696428	-0.375842	-0.456193	0.150281	-0.122559	0.222947	-0.266908	-0.0239518	-0.100939	-0.0625673	0.452567	0.190029	0.286055	-0.913613	-0.101008	-1.06598	0.500686	
0.712926	5.59082	0	0	0.7054	0.395745	0.151103	0.135585	0.521918	-0.217234	0.780309	-0.599316	0.601778	-0.234795	0.011746	-0.593183	0.325367	-0.189279	-0.442222	0.0668415	-0.366331	-0.441125	0.15761	-0.0968105	0.233537	-0.262691	-0.0196815	-0.092707	-0.0571245	0.454033	0.193551	0.288681	-0.921242	-0.0794455	-1.04049	0.520003	
0.714955	5.58929	0	0	0.696065	0.422128	0.15517	0.15811	0.525608	-0.202592	0.783907	-0.587338	0.607961	-0.225513	0.018621	-0.578593	0.346781	-0.201629	-0.417782	0.0640402	-0.356819	-0.426057	0.164938	-0.0710617	0.244126	-0.258473	-0.0154113	-0.084475	-0.0516817	0.4555	0.197074	0.291306	-0.928872	-0.0578827	-1.01499	0.53932	
0.717238	5.58624	0	0	0.68673	0.448511	0.159237	0.180635	0.529297	-0.18795	0.787505	-0.575361	0.614143	-0.216231	0.025496	-0.564003	0.368195	-0.213978	-0.393342	0.061239	-0.347307	-0.410989	0.172266	-0.045313	0.254715	-0.254256	-0.011141	-0.076243	-0.046239	0.456966	0.200597	0.293931	-0.936502	-0.03632	-0.989492	0.558638	
0.719805	5.58624	0	0	0.694427	0.458733	0.16329	0.203261	0.534823	-0.165902	0.793592	-0.54819	0.6206	-0.198747	0.037095	-0.5371	0.390423	-0.228502	-0.369198	0.066916	-0.337414	-0.386377	0.184399	-0.0143645	0.261898	-0.240348	-0.001986	-0.051268	-0.0388133	0.469722	0.208904	0.308246	-0.926122	-0.020937	-0.975108	0.594478	
0.722687	5.58166	0	0	0.702124	0.468955	0.167343	0.225888	0.54035	-0.143854	0.799679	-0.521019	0.627057	-0.181262	0.048694	-0.510197	0.41265	-0.243026	-0.345054	0.072593	-0.327522	-0.361766	0.196532	0.016584	0.26908	-0.226439	0.007169	-0.026293	-0.0313875	0.482477	0.217212	0.322562	-0.915741	-0.005554	-0.960724	0.630319	
0.725913	5.58014	0	0	0.709821	0.479178	0.171397	0.248515	0.545876	-0.121807	0.805766	-0.493848	0.633514	-0.163778	0.060293	-0.483293	0.434877	-0.25755	-0.32091	0.07827	-0.317629	-0.337155	0.208665	0.0475325	0.276263	-0.212531	0.016324	-0.001318	-0.0239618	0.495232	0.225519	0.336877	-0.905361	0.009829	-0.946341	0.66616	
0.729452	5.57861	0	0	0.717518	0.4894	0.17545	0.271141	0.551402	-0.099759	0.811853	-0.466677	0.639971	-0.146294	0.071892	-0.45639	0.457105	-0.272074	-0.296766	0.083947	-0.307736	-0.312543	0.220798	0.078481	0.283445	-0.198623	0.025479	0.023657	-0.016536	0.507988	0.233826	0.351192	-0.894981	0.025212	-0.931957	0.702	
0.733169	5.57251	0	0	0.725225	0.49965	0.186166	0.275	0.555081	-0.085004	0.811435	-0.454386	0.639729	-0.127718	0.07218	-0.431566	0.47939	-0.286636	-0.275939	0.0918583	-0.300541	-0.280158	0.231985	0.112333	0.288913	-0.179808	0.0258335	0.0634332	-0.0180477	0.529154	0.23529	0.384923	-0.884584	0.0406557	-0.907676	0.725584	
0.736915	5.57403	0	0	0.732932	0.509899	0.196883	0.278859	0.55876	-0.070249	0.811017	-0.442095	0.639486	-0.109141	0.072468	-0.406742	0.501676	-0.301198	-0.255112	0.0997695	-0.293346	-0.247774	0.243172	0.146185	0.294381	-0.160992	0.026188	0.103209	-0.0195595	0.550321	0.236755	0.418655	-0.874187	0.0560995	-0.883395	0.749168	
0.740541	5.56793	0	0	0.740638	0.520149	0.207599	0.282717	0.562439	-0.055494	0.810599	-0.429804	0.639244	-0.0905645	0.072756	-0.381918	0.523961	-0.315759	-0.234285	0.107681	-0.28615	-0.215389	0.254359	0.180038	0.29985	-0.142177	0.0265425	0.142986	-0.0210712	0.571488	0.238219	0.452387	-0.86379	0.0715433	-0.859113	0.772753	
0.7439	5.56793	0	0	0.748345	0.530399	0.218315	0.286576	0.566118	-0.040739	0.810181	-0.417513	0.639002	-0.071988	0.073044	-0.357094	0.546247	-0.330321	-0.213458	0.115592	-0.278955	-0.183004	0.265546	0.21389	0.305318	-0.123362	0.026897	0.182762	-0.022583	0.592654	0.239683	0.486118	-0.853393	0.086987	-0.834832	0.796337	
0.746842	5.56488	0	0	0.741294	0.550326	0.227382	0.295159	0.574604	-0.0269285	0.820684	-0.402691	0.648027	-0.05269	0.0842477	-0.337377	0.567834	-0.342783	-0.191415	0.127768	-0.265098	-0.158705	0.282965	0.239766	0.302832	-0.104898	0.0364595	0.196605	-0.0194545	0.600721	0.245601	0.494682	-0.837841	0.087971	-0.819055	0.813472	
0.749276	5.56183	0	0	0.734244	0.570253	0.236448	0.303743	0.58309	-0.013118	0.831187	-0.387869	0.657053	-0.033392	0.0954515	-0.317659	0.589421	-0.355244	-0.169372	0.139944	-0.251241	-0.134407	0.300383	0.265643	0.300345	-0.086434	0.046022	0.210449	-0.016326	0.608788	0.251519	0.503247	-0.82229	0.088955	-0.803277	0.830608	
0.7512	5.55878	0	0	0.727193	0.59018	0.245514	0.312326	0.591576	0.0006925	0.84169	-0.373046	0.666079	-0.014094	0.106655	-0.297942	0.611008	-0.367706	-0.147329	0.152121	-0.237384	-0.110108	0.317802	0.291519	0.297859	-0.06797	0.0555845	0.224292	-0.0131975	0.616856	0.257437	0.511811	-0.806739	0.089939	-0.7875	0.847743	
0.752621	5.56183	0	0	0.720142	0.610107	0.254581	0.320909	0.600062	0.014503	0.852193	-0.358224	0.675104	0.005204	0.117859	-0.278224	0.632595	-0.380168	-0.125286	0.164297	-0.223527	-0.08581	0.33522	0.317395	0.295373	-0.049506	0.065147	0.238135	-0.010069	0.624923	0.263355	0.520375	-0.791187	0.090923	-0.771722	0.864879	
0.753547	5.5603	0	0	0.715432	0.623416	0.260311	0.338984	0.605575	0.0367932	0.856021	-0.324431	0.683359	0.0267875	0.123333	-0.250769	0.654241	-0.392668	-0.111954	0.178927	-0.209645	-0.061365	0.350259	0.340857	0.301686	-0.0329933	0.0742785	0.26354	-0.003811	0.641102	0.274058	0.54081	-0.775594	0.091898	-0.7559	0.882096	
0.753984	5.55572	0	0	0.710723	0.636726	0.266042	0.357059	0.611087	0.0590835	0.859849	-0.290637	0.691614	0.048371	0.128807	-0.223315	0.675886	-0.405168	-0.098622	0.193557	-0.195764	-0.03692	0.365298	0.364318	0.307999	-0.0164805	0.08341	0.288944	0.002447	0.657281	0.28476	0.561245	-0.76	0.092873	-0.740079	0.899313	
0.753942	5.5542	0	0	0.706014	0.650035	0.271772	0.375134	0.616599	0.0813738	0.863678	-0.256844	0.699869	0.0699545	0.134282	-0.19586	0.697531	-0.417667	-0.08529	0.208188	-0.181882	-0.012475	0.380337	0.38778	0.314312	3.225E-05	0.0925415	0.314349	0.008705	0.67346	0.295463	0.58168	-0.744406	0.093848	-0.724257	0.91653	
0.753483	5.55115	0	0	0.701304	0.663344	0.277502	0.393209	0.622112	0.103664	0.867506	-0.22305	0.708124	0.091538	0.139756	-0.168405	0.719177	-0.430167	-0.071958	0.222818	-0.168	0.01197	0.395376	0.411242	0.320625	0.016545	0.101673	0.339753	0.014963	0.689639	0.306165	0.602115	-0.728813	0.094823	-0.708436	0.933747	
0.752778	5.55267	0	0	0.698947	0.670006	0.283722	0.392788	0.622951	0.113933	0.869295	-0.216937	0.711206	0.109827	0.140877	-0.145772	0.734144	-0.439947	-0.0616455	0.231127	-0.160253	0.0326483	0.406552	0.42692	0.323389	0.0316702	0.105033	0.37133	0.0188782	0.7125	0.314646	0.641694	-0.736536	0.116649	-0.692571	0.951046	
0.752006	5.55572	0	0	0.696589	0.676669	0.289943	0.392366	0.623791	0.124203	0.871085	-0.210824	0.714289	0.128116	0.141999	-0.123138	0.749111	-0.449727	-0.051333	0.239436	-0.152506	0.0533265	0.417727	0.442597	0.326153	0.0467955	0.108392	0.402907	0.0227935	0.735362	0.323127	0.681272	-0.744259	0.138476	-0.676705	0.968346	
0.751346	5.55267	0	0	0.694232	0.683331	0.296164	0.391945	0.62463	0.134472	0.872874	-0.204711	0.717372	0.146405	0.143121	-0.100505	0.764078	-0.459506	-0.0410205	0.247745	-0.144758	0.0740048	0.428903	0.458275	0.328918	0.0619207	0.111752	0.434483	0.0267087	0.758223	0.331608	0.720851	-0.751982	0.160302	-0.66084	0.985645	
0.750979	5.55267	0	0	0.691875	0.689993	0.302384	0.391524	0.625469	0.144741	0.874663	-0.198598	0.720454	0.164694	0.144242	-0.077872	0.779045	-0.469286	-0.030708	0.256054	-0.137011	0.094683	0.440078	0.473953	0.331682	0.077046	0.115111	0.46606	0.030624	0.781084	0.340089	0.76043	-0.759705	0.182128	-0.644975	1.00294	
0.751083	5.54504	0	0	0.694232	0.683331	0.302384	0.391524	0.626304	0.15503	0.87824	-0.186348	0.725091	0.178629	0.148945	-0.0653227	0.790288	-0.476632	-0.0215182	0.260099	-0.129599	0.105728	0.447372	0.481754	0.32908	0.0843993	0.11938	0.474565	0.0349237	0.785918	0.350733	0.768581	-0.715515	0.147655	-0.633476	1.00159	
0.751738	5.54962	0	0	0.696589	0.676669	0.302384	0.391524	0.627139	0.165319	0.881817	-0.174098	0.729728	0.192565	0.153647	-0.0527735	0.80153	-0.483978	-0.0123285	0.264144	-0.122187	0.116773	0.454666	0.489555	0.326479	0.0917525	0.123648	0.48307	0.0392235	0.790753	0.361376	0.776733	-0.671324	0.113183	-0.621977	1.00024	
0.752843	5.54657	0	0	0.698947	0.670006	0.302384	0.391524	0.627974	0.175607	0.885395	-0.161848	0.734364	0.206501	0.15835	-0.0402243	0.812773	-0.491325	-0.00313875	0.268189	-0.114774	0.127818	0.461959	0.497356	0.323877	0.0991057	0.127917	0.491574	0.0435232	0.795588	0.37202	0.784884	-0.627134	0.0787097	-0.610479	0.998893	
0.754276	5.54809	0	0	0.701304	0.663344	0.302384	0.391524	0.628809	0.185896	0.888972	-0.149598	0.739001	0.220436	0.163052	-0.027675	0.824016	-0.498671	0.006051	0.272234	-0.107362	0.138863	0.469253	0.505157	0.321275	0.106459	0.132186	0.500079	0.047823	0.800422	0.382664	0.793035	-0.582944	0.044237	-0.59898	0.997543	
0.755913	5.54504	0	0	0.70366	0.656687	0.300706	0.396265	0.62964	0.196205	0.89321	-0.127986	0.742613	0.228275	0.166853	-0.0125413	0.828523	-0.50326	0.00873675	0.272155	-0.101194	0.142791	0.475087	0.507637	0.319539	0.111365	0.140157	0.508448	0.0533005	0.801944	0.391003	0.80778	-0.601202	0.0505738	-0.603314	0.994212	
0.757633	5.54199	0	0	0.706016	0.65003	0.299029	0.401007	0.630471	0.206513	0.897448	-0.106374	0.746225	0.236113	0.170654	0.0025925	0.833031	-0.507849	0.0114225	0.272077	-0.0950255	0.146718	0.48092	0.510118	0.317804	0.11627	0.148128	0.516818	0.058778	0.803465	0.399342	0.822525	-0.61946	0.0569105	-0.607648	0.990881	
0.759314	5.54504	0	0	0.708371	0.643373	0.297351	0.405749	0.631303	0.216822	0.901687	-0.084762	0.749838	0.243952	0.174454	0.0177263	0.837538	-0.512438	0.0141082	0.271998	-0.0888572	0.150646	0.486754	0.512598	0.316068	0.121175	0.1561	0.525187	0.0642555	0.804987	0.40768	0.83727	-0.637717	0.0632472	-0.611982	0.987549	
0.760871	5.54047	0	0	0.710727	0.636716	0.295673	0.41049	0.632134	0.22713	0.905925	-0.06315	0.75345	0.251791	0.178255	0.03286	0.842045	-0.517027	0.016794	0.27192	-0.082689	0.154574	0.492588	0.515079	0.314332	0.126081	0.164071	0.533556	0.069733	0.806509	0.416019	0.852015	-0.655975	0.069584	-0.616316	0.984218	
0.762304	5.54504	0	0	0.703041	0.626407	0.308608	0.391108	0.634133	0.221481	0.912208	-0.0696978	0.749296	0.254505	0.174644	0.0430632	0.833789	-0.509988	0.0145075	0.263362	-0.0836052	0.157164	0.484824	0.518054	0.306446	0.136895	0.160465	0.554058	0.08188	0.806231	0.416138	0.877263	-0.655975	0.069584	-0.620646	0.98089	
0.763627	5.54199	0	0	0.695355	0.616097	0.321543	0.371726	0.636131	0.215832	0.918492	-0.0762455	0.745141	0.25722	0.171034	0.0532665	0.825532	-0.502949	0.012221	0.254804	-0.0845215	0.159753	0.47706	0.521029	0.298561	0.147708	0.156859	0.57456	0.094027	0.805952	0.416258	0.90251	-0.655975	0.069584	-0.624977	0.977562	
0.764852	5.54047	0	0	0.687669	0.605788	0.334478	0.352344	0.63813	0.210184	0.924775	-0.0827932	0.740987	0.259935	0.167424	0.0634698	0.817276	-0.495911	0.0099345	0.246245	-0.0854378	0.162343	0.469296	0.524004	0.290675	0.158522	0.153252	0.595061	0.106174	0.805673	0.416377	0.927758	-0.655975	0.069584	-0.629308	0.974234	
0.765991	5.53741	0	0	0.679983	0.595479	0.347413	0.332962	0.640129	0.204535	0.931058	-0.089341	0.736833	0.262649	0.163813	0.073673	0.809019	-0.488872	0.007648	0.237687	-0.086354	0.164933	0.461532	0.526979	0.282789	0.169336	0.149646	0.615563	0.118321	0.805395	0.416496	0.953006	-0.655975	0.069584	-0.633638	0.970906	
0.767058	5.53436	0	0	0.684678	0.582209	0.344531	0.323933	0.635302	0.205518	0.92881	-0.082987	0.73166	0.259227	0.165619	0.06857	0.798538	-0.483667	0.00230275	0.222789	-0.090691	0.15583	0.459562	0.513598	0.276579	0.163961	0.149079	0.606855	0.112832	0.803875	0.421222	0.952456	-0.689778	0.0749187	-0.645197	0.95695	
0.768071	5.53284	0	0	0.689374	0.568939	0.341649	0.314904	0.630475	0.206502	0.926562	-0.076633	0.726488	0.255806	0.167424	0.063467	0.788057	-0.478463	-0.0030425	0.20789	-0.095028	0.146726	0.457592	0.500216	0.27037	0.158586	0.148512	0.598146	0.107343	0.802355	0.425947	0.951906	-0.723581	0.0802535	-0.656756	0.942994	
0.76907	5.53894	0	0	0.69407	0.55567	0.338767	0.305874	0.625649	0.207485	0.924313	-0.070279	0.721315	0.252385	0.16923	0.058364	0.777576	-0.473258	-0.00838775	0.192992	-0.099365	0.137623	0.455623	0.486835	0.264161	0.153211	0.147946	0.589438	0.101854	0.800835	0.430673	0.951355	-0.757384	0.0855883	-0.668314	0.929039	
0.770098	5.54199	0	0	0.698765	0.5424	0.335885	0.296845	0.620822	0.208469	0.922065	-0.063925	0.716143	0.248963	0.171036	0.053261	0.767095	-0.468053	-0.013733	0.178093	-0.103702	0.12852	0.453653	0.473454	0.257951	0.147836	0.147379	0.58073	0.096365	0.799315	0.435399	0.950805	-0.791187	0.090923	-0.679873	0.915083	
0.771199	5.54809	0	0	0.703453	0.52915	0.331332	0.292555	0.625649	0.207485	0.925639	-0.0515845	0.712538	0.241129	0.170133	0.0558123	0.755872	-0.46072	-0.0232888	0.16766	-0.112943	0.122642	0.446364	0.465669	0.253548	0.148828	0.150036	0.583532	0.105379	0.790873	0.43662	0.960167	-0.791187	0.090923	-0.687096	0.904481	
0.772418	5.55725	0	0	0.708141	0.5159	0.326778	0.288265	0.630475	0.206502	0.929212	-0.039244	0.708933	0.233296	0.169231	0.0583635	0.744649	-0.453387	-0.0328445	0.157227	-0.122183	0.116763	0.439074	0.457885	0.249145	0.14982	0.152693	0.586334	0.114393	0.782431	0.437842	0.969529	-0.791187	0.090923	-0.69432	0.893879	
0.773798	5.5664	0	0	0.71283	0.50265	0.322224	0.283975	0.635302	0.205518	0.932786	-0.0269035	0.705328	0.225462	0.168328	0.0609147	0.733426	-0.446053	-0.0424003	0.146794	-0.131423	0.110884	0.431785	0.4501	0.244742	0.150813	0.155349	0.589135	0.123406	0.77399	0.439063	0.978891	-0.791187	0.090923	-0.701543	0.883277	
0.775358	5.56946	0	0	0.717518	0.4894	0.317671	0.279685	0.640129	0.204535	0.93636	-0.014563	0.701723	0.217629	0.167425	0.063466	0.722203	-0.43872	-0.051956	0.136361	-0.140664	0.105006	0.424496	0.442315	0.240339	0.151805	0.158006	0.591937	0.13242	0.765548	0.440285	0.988253	-0.791187	0.090923	-0.708767	0.872675	
0.776969	5.56793	0	0	0.709821	0.479178	0.324348	0.260814	0.644123	0.193248	0.934573	-0.0207372	0.688043	0.211312	0.163995	0.055906	0.699801	-0.424082	-0.0656955	0.130364	-0.148977	0.0965618	0.416256	0.43726	0.227148	0.154772	0.153825	0.603754	0.130071	0.772188	0.44863	1.00317	-0.786057	0.0764253	-0.708767	0.872675	
0.778446	5.57556	0	0	0.702124	0.468955	0.331025	0.241944	0.648116	0.181961	0.932787	-0.0269115	0.674363	0.204996	0.160565	0.048346	0.677399	-0.409444	-0.079435	0.124368	-0.15729	0.0881175	0.408016	0.432205	0.213957	0.15774	0.149643	0.615571	0.127721	0.778828	0.456974	1.01808	-0.780927	0.0619275	-0.708767	0.872675	
0.779605	5.57861	0	0	0.694427	0.458733	0.337703	0.223073	0.65211	0.170675	0.931001	-0.0330858	0.660683	0.19868	0.157135	0.040786	0.654997	-0.394806	-0.0931745	0.118372	-0.165604	0.0796733	0.399776	0.42715	0.200767	0.160708	0.145462	0.627387	0.125372	0.785468	0.465318	1.03299	-0.775797	0.0474298	-0.708767	0.872675	
0.780261	5.58166	0	0	0.68673	0.448511	0.34438	0.204202	0.656104	0.159388	0.929214	-0.03926	0.647003	0.192363	0.153705	0.033226	0.632595	-0.380168	-0.106914	0.112375	-0.173917	0.071229	0.391536	0.422095	0.187576	0.163675	0.141281	0.639204	0.123023	0.792108	0.473663	1.04791	-0.770667	0.032932	-0.708767	0.872675	
0.780228	5.58014	0	0	0.689067	0.441908	0.347713	0.194781	0.659096	0.150932	0.933254	-0.0394533	0.639278	0.187259	0.15154	0.0307242	0.621416	-0.372864	-0.115291	0.106224	-0.181308	0.0602345	0.386689	0.416922	0.181394	0.158305	0.139672	0.633441	0.129694	0.790303	0.478403	1.04736	-0.773231	0.040178	-0.711672	0.865397	
0.779335	5.57861	0	0	0.691403	0.435305	0.351047	0.185361	0.662087	0.142477	0.937294	-0.0396465	0.631553	0.182155	0.149375	0.0282225	0.610237	-0.365559	-0.123668	0.100074	-0.1887	0.04924	0.381842	0.411749	0.175213	0.152935	0.138064	0.627677	0.136366	0.788497	0.483144	1.04681	-0.775795	0.047424	-0.714578	0.858118	
0.777591	5.57709	0	0	0.693739	0.428702	0.35438	0.17594	0.665079	0.134021	0.941333	-0.0398398	0.623829	0.177051	0.147209	0.0257208	0.599058	-0.358254	-0.132045	0.0939227	-0.196092	0.0382455	0.376995	0.406577	0.169032	0.147565	0.136455	0.621914	0.143037	0.786691	0.487884	1.04626	-0.778359	0.05467	-0.717483	0.850839	
0.775131	5.58014	0	0	0.696076	0.422099	0.357713	0.16652	0.668071	0.125565	0.945373	-0.040033	0.616104	0.171947	0.145044	0.023219	0.587879	-0.35095	-0.140422	0.087772	-0.203483	0.027251	0.372148	0.401404	0.16285	0.142195	0.134846	0.616151	0.149708	0.784886	0.492624	1.04572	-0.780923	0.061916	-0.720388	0.843561	
0.772097	5.57403	0	0	0.698411	0.415501	0.349823	0.171676	0.665079	0.134021	0.943778	-0.024294	0.616641	0.161459	0.148111	0.023173	0.577471	-0.345793	-0.140034	0.0792277	-0.210525	0.025928	0.368767	0.401529	0.158464	0.14318	0.141203	0.618812	0.156386	0.783077	0.497414	1.05791	-0.762757	0.0556215	-0.721795	0.847538	
0.768629	5.57251	0	0	0.700745	0.408903	0.341934	0.176831	0.662087	0.142477	0.942182	-0.008555	0.617178	0.150972	0.151178	0.023127	0.567063	-0.340635	-0.139647	0.0706835	-0.217567	0.024605	0.365387	0.401655	0.154079	0.144166	0.14756	0.621473	0.163064	0.781268	0.502203	1.0701	-0.744592	0.049327	-0.723202	0.851515	
0.764868	5.56946	0	0	0.703079	0.402304	0.334044	0.181986	0.659096	0.150932	0.940586	0.007184	0.617715	0.140485	0.154244	0.023081	0.556655	-0.335478	-0.139259	0.0621393	-0.22461	0.023282	0.362007	0.40178	0.149693	0.145151	0.153916	0.624134	0.169742	0.77946	0.506992	1.08229	-0.726427	0.0430325	-0.72461	0.855493	
0.760959	5.5664	0	0	0.705414	0.395706	0.326154	0.187142	0.656104	0.159388	0.938991	0.022923	0.618252	0.129997	0.157311	0.023035	0.546247	-0.330321	-0.138871	0.053595	-0.231652	0.021959	0.358626	0.401906	0.145307	0.146137	0.160273	0.626795	0.17642	0.777651	0.511782	1.09448	-0.708261	0.036738	-0.726017	0.85947	
0.757141	5.56488	0	0	0.690723	0.405306	0.329484	0.177731	0.65327	0.154739	0.936079	0.0199238	0.61466	0.122223	0.160914	0.012852	0.538056	-0.323325	-0.141535	0.0536787	-0.247525	0.0244387	0.355749	0.410038	0.133032	0.146642	0.148687	0.638912	0.186263	0.784007	0.514213	1.11337	-0.731561	0.057542	-0.721704	0.862771	
0.753747	5.55878	0	0	0.676032	0.414906	0.332813	0.168321	0.650437	0.15009	0.933166	0.0169245	0.611067	0.114449	0.164517	0.002669	0.529864	-0.316329	-0.144199	0.0537625	-0.263398	0.0269185	0.352871	0.418171	0.120757	0.147147	0.137101	0.651029	0.196107	0.790362	0.516644	1.13226	-0.75486	0.078346	-0.717392	0.866073	
0.751111	5.55572	0	0	0.66134	0.424505	0.336143	0.158911	0.647603	0.145441	0.930253	0.0139253	0.607475	0.106674	0.16812	-0.007514	0.521673	-0.309333	-0.146864	0.0538462	-0.279271	0.0293982	0.349993	0.426303	0.108483	0.147651	0.125515	0.663147	0.205951	0.796718	0.519076	1.15115	-0.77816	0.09915	-0.71308	0.869374	
0.749567	5.5542	0	0	0.646649	0.434105	0.339473	0.1495	0.644769	0.140792	0.927341	0.010926	0.603883	0.0989	0.171723	-0.017697	0.513482	-0.302337	-0.149528	0.05393	-0.295144	0.031878	0.347116	0.434435	0.096208	0.148156	0.113929	0.675264	0.215794	0.803074	0.521507	1.17004	-0.801459	0.119954	-0.708767	0.872675	
0.749451	5.55267	0	0	0.66134	0.424505	0.347363	0.144344	0.643772	0.14361	0.931382	0.0107362	0.597192	0.0999017	0.170823	-0.0151523	0.512725	-0.300199	-0.144961	0.0559183	-0.292423	0.024187	0.350996	0.442333	0.0900533	0.142794	0.112882	0.678223	0.213437	0.809736	0.531019	1.16895	-0.783297	0.113671	-0.707359	0.868694	
0.751074	5.54962	0	0	0.676032	0.414906	0.355253	0.139189	0.642775	0.146427	0.935423	0.0105465	0.5905	0.100904	0.169922	-0.0126075	0.511969	-0.298061	-0.140394	0.0579065	-0.289701	0.016496	0.354875	0.450231	0.0838985	0.137433	0.111835	0.681181	0.21108	0.816398	0.540532	1.16787	-0.765136	0.107388	-0.70595	0.864713	
0.754292	5.54809	0	0	0.690723	0.405306	0.363143	0.134033	0.641778	0.149245	0.939464	0.0103568	0.583809	0.101905	0.169022	-0.0100628	0.511212	-0.295922	-0.135828	0.0598947	-0.286979	0.008805	0.358754	0.458129	0.0777438	0.132071	0.110788	0.68414	0.208722	0.82306	0.550044	1.16678	-0.746975	0.101106	-0.704542	0.860733	
0.758522	5.55115	0	0	0.705414	0.395706	0.371033	0.128878	0.640781	0.152062	0.943505	0.010167	0.577118	0.102907	0.168122	-0.007518	0.510455	-0.293784	-0.131261	0.061883	-0.284258	0.001114	0.362634	0.466027	0.071589	0.126709	0.109741	0.687099	0.206365	0.829722	0.559556	1.1657	-0.728813	0.094823	-0.703133	0.856752	
0.763164	5.55725	0	0	0.703079	0.402304	0.363143	0.134033	0.638786	0.1577	0.93382	0.026307	0.573775	0.103407	0.171557	2.725E-05	0.511212	-0.295922	-0.124022	0.063788	-0.294901	0.0100388	0.367477	0.47122	0.0619915	0.131105	0.116092	0.689778	0.216222	0.836102	0.561954	1.17183	-0.710604	0.0885133	-0.697407	0.856071	
0.76762	5.5664	0	0	0.700745	0.408903	0.355253	0.139189	0.636791	0.163338	0.924135	0.042447	0.570431	0.103906	0.174992	0.0075725	0.511969	-0.298061	-0.116782	0.065693	-0.305543	0.0189635	0.37232	0.476413	0.052394	0.135501	0.122443	0.692456	0.226079	0.842483	0.564353	1.17797	-0.692394	0.0822035	-0.691681	0.85539	
0.771291	5.56793	0	0	0.698411	0.415501	0.347363	0.144344	0.634796	0.168976	0.914451	0.058587	0.567088	0.104406	0.178428	0.0151177	0.512725	-0.300199	-0.109543	0.067598	-0.316186	0.0278882	0.377163	0.481606	0.0427965	0.139897	0.128793	0.695134	0.235937	0.848863	0.566751	1.1841	-0.674184	0.0758937	-0.685954	0.854708	
0.773583	5.57403	0	0	0.696076	0.422099	0.339473	0.1495	0.632801	0.174614	0.904766	0.074727	0.563745	0.104906	0.181863	0.022663	0.513482	-0.302337	-0.102304	0.069503	-0.326829	0.036813	0.382006	0.486799	0.033199	0.144293	0.135144	0.697813	0.245794	0.855244	0.569149	1.19023	-0.655975	0.069584	-0.680228	0.854027	
0.774273	5.58166	0	0	0.696076	0.422099	0.342799	0.140099	0.640621	0.165169	0.91041	0.0587768	0.558614	0.101525	0.179695	0.0201622	0.512725	-0.300199	-0.0942908	0.0692475	-0.331693	0.039991	0.381044	0.489519	0.0288363	0.145269	0.125651	0.704016	0.251321	0.856768	0.571547	1.19638	-0.679331	0.0904385	-0.674497	0.853344	
0.773705	5.58472	0	0	0.696076	0.422099	0.346125	0.130698	0.648442	0.155725	0.916053	0.0428265	0.553483	0.098143	0.177526	0.0176615	0.511969	-0.298061	-0.0862775	0.068992	-0.336556	0.043169	0.380082	0.492239	0.0244735	0.146246	0.116157	0.71022	0.256847	0.858292	0.573945	1.20252	-0.702687	0.111293	-0.668765	0.85266	
0.772272	5.58624	0	0	0.696076	0.422099	0.349452	0.121298	0.656262	0.146281	0.921697	0.0268763	0.548351	0.0947615	0.175357	0.0151607	0.511212	-0.295922	-0.0782642	0.0687365	-0.34142	0.046347	0.379119	0.494958	0.0201108	0.147222	0.106664	0.716423	0.262374	0.859816	0.576344	1.20866	-0.726044	0.132148	-0.663034	0.851976	
0.770366	5.59082	0	0	0.696076	0.422099	0.352778	0.111897	0.664083	0.136836	0.927341	0.010926	0.54322	0.09138	0.173189	0.01266	0.510455	-0.293784	-0.070251	0.068481	-0.346284	0.049525	0.378157	0.497678	0.015748	0.148198	0.097171	0.722626	0.2679	0.86134	0.578742	1.21481	-0.7494	0.153002	-0.657302	0.851293	
0.768381	5.59997	0	0	0.698411	0.415501	0.352778	0.111897	0.662088	0.142474	0.931382	0.0107362	0.54656	0.0908808	0.176259	0.0126125	0.514172	-0.296212	-0.0645227	0.0747103	-0.346284	0.049525	0.382505	0.494837	0.0122505	0.146735	0.0945237	0.719803	0.2679	0.86134	0.576344	1.20866	-0.731194	0.146704	-0.651669	0.835374	
0.766709	5.5954	0	0	0.700745	0.408903	0.352778	0.111897	0.660093	0.148112	0.935423	0.0105465	0.5499	0.0903815	0.179329	0.012565	0.517888	-0.298641	-0.0587945	0.0809395	-0.346284	0.049525	0.386853	0.491996	0.008753	0.145273	0.0918765	0.716979	0.2679	0.86134	0.573945	1.20252	-0.712989	0.140406	-0.646037	0.819455	
0.765597	5.5954	0	0	0.703079	0.402304	0.352778	0.111897	0.658099	0.15375	0.939464	0.0103568	0.55324	0.0898822	0.182399	0.0125175	0.521605	-0.301069	-0.0530662	0.0871687	-0.346284	0.049525	0.391201	0.489154	0.0052555	0.143811	0.0892293	0.714156	0.2679	0.86134	0.571547	1.19638	-0.694783	0.134109	-0.640404	0.803536	
0.764973	5.59234	0	0	0.705414	0.395706	0.352778	0.111897	0.656104	0.159388	0.943505	0.010167	0.55658	0.089383	0.185469	0.01247	0.525322	-0.303498	-0.047338	0.093398	-0.346284	0.049525	0.395549	0.486313	0.001758	0.142348	0.086582	0.711333	0.2679	0.86134	0.569149	1.19023	-0.676578	0.127811	-0.634771	0.787617	
0.764719	5.59234	0	0	0.700743	0.408907	0.351115	0.116596	0.654108	0.165029	0.936729	0.0293178	0.556045	0.0998393	0.193612	0.0326618	0.53276	-0.308358	-0.0404585	0.103888	-0.344143	0.0540402	0.393624	0.491755	-0.00082975	0.149661	0.0987225	0.707953	0.273432	0.862864	0.575096	1.18635	-0.655746	0.114199	-0.627624	0.782947	
0.764718	5.59082	0	0	0.696072	0.422108	0.349452	0.121295	0.652111	0.170671	0.929952	0.0484685	0.555509	0.110295	0.201755	0.0528535	0.540198	-0.313218	-0.033579	0.114378	-0.342001	0.0585555	0.391698	0.497198	-0.0034175	0.156975	0.110863	0.704573	0.278964	0.864389	0.581043	1.18246	-0.634914	0.100586	-0.620478	0.778277	
0.764854	5.59234	0	0	0.691401	0.43531	0.34779	0.125994	0.650115	0.176313	0.923176	0.0676193	0.554974	0.120752	0.209898	0.0730453	0.547636	-0.318079	-0.0266995	0.124869	-0.339859	0.0630707	0.389772	0.50264	-0.00600525	0.164288	0.123003	0.701193	0.284496	0.865913	0.586989	1.17858	-0.614082	0.0869743	-0.613331	0.773608	
0.76501	5.58472	0	0	0.68673	0.448511	0.346127	0.130693	0.648119	0.181954	0.9164	0.08677	0.554439	0.131208	0.218041	0.093237	0.555074	-0.322939	-0.01982	0.135359	-0.337718	0.067586	0.387847	0.508082	-0.008593	0.171601	0.135144	0.697813	0.290028	0.867437	0.592936	1.17469	-0.59325	0.073362	-0.606184	0.768938	
0.765053	5.58472	0	0	0.68673	0.448511	0.346127	0.130693	0.654947	0.175324	0.926747	0.080009	0.560349	0.132405	0.227641	0.10074	0.562519	-0.327803	-0.0137025	0.14805	-0.334668	0.0695385	0.392197	0.505239	-0.009456	0.17404	0.125098	0.695275	0.296749	0.865616	0.591754	1.17803	-0.595829	0.0806493	-0.606184	0.768938	
0.764798	5.58166	0	0	0.68673	0.448511	0.346127	0.130693	0.661774	0.168693	0.937094	0.073248	0.56626	0.133602	0.237242	0.108244	0.569963	-0.332668	-0.007585	0.160742	-0.331617	0.071491	0.396547	0.502397	-0.010319	0.176479	0.115051	0.692737	0.30347	0.863795	0.590572	1.18137	-0.598407	0.0879365	-0.606184	0.768938	
0.764051	5.57709	0	0	0.68673	0.448511	0.346127	0.130693	0.668602	0.162063	0.947441	0.066487	0.57217	0.134799	0.246842	0.115748	0.577408	-0.337533	-0.0014675	0.173433	-0.328567	0.0734435	0.400898	0.499554	-0.011182	0.178918	0.105005	0.690198	0.310192	0.861975	0.589389	1.18472	-0.600985	0.0952237	-0.606184	0.768938	
0.762616	5.57556	0	0	0.68673	0.448511	0.346127	0.130693	0.67543	0.155433	0.957788	0.059726	0.57808	0.135996	0.256443	0.123251	0.584853	-0.342397	0.00465	0.186124	-0.325516	0.075396	0.405248	0.496711	-0.012045	0.181357	0.094958	0.68766	0.316913	0.860154	0.588207	1.18806	-0.603564	0.102511	-0.606184	0.768938	
0.760299	5.57556	0	0	0.682052	0.461732	0.360251	0.125079	0.676269	0.165736	0.962489	0.0689473	0.580887	0.14598	0.265152	0.133339	0.592304	-0.347266	0.0196095	0.19643	-0.324282	0.0824882	0.409136	0.504641	-0.009413	0.185266	0.100747	0.681604	0.316913	0.860154	0.585806	1.18192	-0.624396	0.116123	-0.596219	0.756315	
0.756904	5.56793	0	0	0.677374	0.474952	0.374374	0.119465	0.677109	0.176039	0.967191	0.0781685	0.583695	0.155965	0.273861	0.143428	0.599755	-0.352134	0.034569	0.206735	-0.323048	0.0895805	0.413025	0.512572	-0.006781	0.189174	0.106537	0.675547	0.316913	0.860154	0.583405	1.17579	-0.645228	0.129736	-0.586253	0.743692	
0.752364	5.56488	0	0	0.672696	0.488173	0.388498	0.113851	0.677948	0.186343	0.971892	0.0873898	0.586502	0.165949	0.28257	0.153517	0.607206	-0.357003	0.0495285	0.21704	-0.321814	0.0966728	0.416913	0.520503	-0.004149	0.193083	0.112326	0.66949	0.316913	0.860154	0.581004	1.16965	-0.666061	0.143348	-0.576288	0.73107	
0.747073	5.56488	0	0	0.668018	0.501394	0.402622	0.108237	0.678787	0.196646	0.976594	0.096611	0.589309	0.175933	0.291279	0.163605	0.614657	-0.361871	0.064488	0.227346	-0.32058	0.103765	0.420801	0.528433	-0.001517	0.196992	0.118115	0.663434	0.316913	0.860154	0.578603	1.16352	-0.686893	0.15696	-0.566323	0.718447	
0.741536	5.5603	0	0	0.692792	0.495385	0.405531	0.117192	0.689306	0.204993	0.970926	0.11263	0.592894	0.183737	0.293264	0.184063	0.626602	-0.37132	0.0725475	0.242219	-0.309595	0.104494	0.424691	0.536378	0.000251	0.203348	0.118672	0.67217	0.330376	0.856502	0.582186	1.16631	-0.668641	0.150641	-0.557759	0.709798	
0.736259	5.55725	0	0	0.717566	0.489376	0.408439	0.126146	0.699825	0.213341	0.965257	0.128649	0.596478	0.191542	0.295249	0.204521	0.638548	-0.38077	0.080607	0.257092	-0.298609	0.105224	0.428581	0.544323	0.002019	0.209705	0.11923	0.680905	0.343839	0.85285	0.58577	1.1691	-0.650389	0.144322	-0.549195	0.701148	
0.731745	5.55267	0	0	0.742339	0.483368	0.411347	0.1351	0.710344	0.221688	0.959589	0.144668	0.600063	0.199346	0.297233	0.22498	0.650494	-0.390219	0.0886665	0.271965	-0.287624	0.105954	0.43247	0.552269	0.003787	0.216062	0.119787	0.689641	0.357302	0.849197	0.589353	1.1719	-0.632138	0.138003	-0.540631	0.692499	
0.728498	5.55267	0	0	0.767113	0.477359	0.414256	0.144055	0.720863	0.230036	0.953921	0.160687	0.603648	0.20715	0.299218	0.245438	0.662439	-0.399669	0.096726	0.286838	-0.276639	0.106683	0.43636	0.560214	0.005555	0.222418	0.120344	0.698377	0.370765	0.845545	0.592936	1.17469	-0.613886	0.131684	-0.532067	0.68385	
0.726761	5.55115	0	0	0.764768	0.483986	0.422168	0.138885	0.723706	0.234712	0.96024	0.154093	0.604661	0.21326	0.298306	0.248015	0.665415	-0.39997	0.104419	0.29527	-0.276639	0.106683	0.442186	0.562707	0.005555	0.222418	0.125578	0.683584	0.361661	0.854067	0.586989	1.17858	-0.590423	0.110745	-0.532067	0.68385	
0.726183	5.54809	0	0	0.762423	0.490614	0.43008	0.133715	0.726548	0.239389	0.966558	0.1475	0.605675	0.219371	0.297395	0.250592	0.668392	-0.40027	0.112113	0.303702	-0.276639	0.106683	0.448011	0.5652	0.005555	0.222418	0.130812	0.668791	0.352557	0.86259	0.581043	1.18246	-0.566959	0.089807	-0.532067	0.68385	
0.726332	5.54657	0	0	0.760078	0.497242	0.437991	0.128546	0.729391	0.244065	0.972877	0.140906	0.606688	0.225482	0.296483	0.253169	0.671368	-0.400571	0.119807	0.312134	-0.276639	0.106683	0.453837	0.567694	0.005555	0.222418	0.136047	0.653997	0.343454	0.871112	0.575096	1.18635	-0.543496	0.0688685	-0.532067	0.68385	
0.726774	5.54352	0	0	0.757733	0.503869	0.445903	0.123376	0.732233	0.248742	0.979196	0.134312	0.607701	0.231592	0.295571	0.255746	0.674344	-0.400872	0.1275	0.320566	-0.276639	0.106683	0.459662	0.570187	0.005555	0.222418	0.141281	0.639204	0.33435	0.879635	0.569149	1.19023	-0.520032	0.04793	-0.532067	0.68385	
0.727075	5.54352	0	0	0.755386	0.510501	0.452155	0.122913	0.73993	0.252434	0.980979	0.140544	0.606141	0.236	0.29775	0.258287	0.675101	-0.40301	0.130575	0.326982	-0.27846	0.11183	0.463061	0.570067	0.003825	0.227307	0.138627	0.636394	0.335534	0.876287	0.566751	1.1841	-0.540915	0.0615752	-0.52069	0.667264	
0.726809	5.54199	0	0	0.753039	0.517134	0.458407	0.12245	0.747627	0.256126	0.982762	0.146776	0.604582	0.240408	0.299928	0.260827	0.675857	-0.405149	0.13365	0.333398	-0.280282	0.116978	0.46646	0.569948	0.002095	0.232197	0.135973	0.633585	0.336719	0.872939	0.564353	1.17797	-0.561798	0.0752205	-0.509313	0.650677	
0.725836	5.54352	0	0	0.750692	0.523767	0.464659	0.121987	0.755324	0.259817	0.984546	0.153008	0.603022	0.244816	0.302107	0.263368	0.676613	-0.407287	0.136724	0.339814	-0.282104	0.122125	0.469859	0.569828	0.000365	0.237086	0.133319	0.630776	0.337904	0.869592	0.561954	1.17183	-0.582681	0.0888658	-0.497936	0.634091	
0.724409	5.54504	0	0	0.748345	0.530399	0.470911	0.121524	0.763021	0.263509	0.986329	0.15924	0.601462	0.249224	0.304285	0.265909	0.67737	-0.409425	0.139799	0.34623	-0.283925	0.127273	0.473258	0.569708	-0.001365	0.241975	0.130665	0.627966	0.339088	0.866244	0.559556	1.1657	-0.603564	0.102511	-0.486559	0.617504	
0.722813	5.54657	0	0	0.745997	0.537036	0.461324	0.131412	0.752139	0.281537	0.982921	0.168872	0.599902	0.253634	0.305551	0.271032	0.676613	-0.407287	0.136322	0.348502	-0.283925	0.127273	0.471323	0.575177	0.00126675	0.245898	0.132273	0.633732	0.347007	0.861069	0.581034	1.16965	-0.600985	0.0952237	-0.473615	0.612096	
0.721332	5.54962	0	0	0.743648	0.543674	0.451737	0.141301	0.741257	0.299565	0.979513	0.178505	0.598341	0.258045	0.306818	0.276155	0.675857	-0.405149	0.132845	0.350774	-0.283925	0.127273	0.469388	0.580646	0.0038985	0.249821	0.133881	0.639498	0.354927	0.855895	0.602513	1.17359	-0.598407	0.0879365	-0.460672	0.606688	
0.72025	5.54657	0	0	0.7413	0.550312	0.44215	0.15119	0.730375	0.317592	0.976104	0.188137	0.59678	0.262455	0.308084	0.281278	0.675101	-0.40301	0.129368	0.353046	-0.283925	0.127273	0.467452	0.586115	0.00653025	0.253743	0.135488	0.645265	0.362846	0.85072	0.623991	1.17754	-0.595829	0.0806493	-0.447728	0.601279	
0.719841	5.55267	0	0	0.738951	0.556949	0.432563	0.161078	0.719493	0.33562	0.972696	0.197769	0.59522	0.266865	0.30935	0.286401	0.674344	-0.400872	0.125891	0.355318	-0.283925	0.127273	0.465517	0.591584	0.009162	0.257666	0.137096	0.651031	0.370765	0.845545	0.645469	1.18149	-0.59325	0.073362	-0.434784	0.595871	
0.720246	5.54962	0	0	0.726558	0.559944	0.429652	0.152113	0.725351	0.331792	0.966867	0.191706	0.59421	0.260746	0.30155	0.273662	0.66688	-0.395995	0.120896	0.346789	-0.285161	0.120168	0.462589	0.580892	0.00043925	0.259603	0.1297	0.651318	0.375136	0.850413	0.653886	1.1966	-0.569791	0.0524352	-0.43041	0.599116	
0.72151	5.54809	0	0	0.714165	0.56294	0.426741	0.143149	0.731208	0.327965	0.961039	0.185642	0.5932	0.254626	0.293751	0.260922	0.659416	-0.391118	0.115902	0.338261	-0.286397	0.113064	0.459662	0.570199	-0.0082835	0.261541	0.122304	0.651606	0.379507	0.855282	0.662303	1.21171	-0.546331	0.0315085	-0.426037	0.602361	
0.723675	5.54657	0	0	0.701771	0.565935	0.423831	0.134184	0.737066	0.324137	0.95521	0.179579	0.59219	0.248507	0.285952	0.248183	0.651951	-0.38624	0.110907	0.329732	-0.287633	0.105959	0.456734	0.559507	-0.0170062	0.263479	0.114908	0.651893	0.383879	0.86015	0.67072	1.22682	-0.522872	0.0105817	-0.421663	0.605607	
0.72678	5.54809	0	0	0.689378	0.56893	0.42092	0.125219	0.742923	0.32031	0.949382	0.173516	0.59118	0.242388	0.278152	0.235443	0.644487	-0.381363	0.105912	0.321203	-0.288869	0.098855	0.453806	0.548814	-0.025729	0.265416	0.107512	0.65218	0.38825	0.865018	0.679137	1.24193	-0.499412	-0.010345	-0.417289	0.608852	
0.730868	5.54809	0	0	0.706467	0.552665	0.422586	0.120512	0.748784	0.31648	0.958619	0.169947	0.588611	0.240679	0.276886	0.230335	0.63703	-0.37649	0.101694	0.310507	-0.291924	0.0968988	0.446519	0.540993	-0.0231335	0.258081	0.104862	0.649369	0.396184	0.859834	0.681548	1.2481	-0.517721	-0.003975	-0.415884	0.604882	
0.735943	5.54199	0	0	0.723556	0.5364	0.424251	0.115806	0.754646	0.31265	0.967855	0.166378	0.586041	0.238971	0.275621	0.225227	0.629572	-0.371617	0.0974755	0.29981	-0.29498	0.0949425	0.439233	0.533172	-0.020538	0.250746	0.102213	0.646558	0.404118	0.85465	0.68396	1.25427	-0.53603	0.002395	-0.41448	0.600912	
0.741693	5.54352	0	0	0.740644	0.520134	0.425917	0.1111	0.760508	0.30882	0.977092	0.162809	0.583472	0.237263	0.274355	0.220119	0.622115	-0.366744	0.0932572	0.289114	-0.298036	0.0929862	0.431946	0.525351	-0.0179425	0.24341	0.0995635	0.643747	0.412051	0.849466	0.686371	1.26044	-0.554338	0.008765	-0.413075	0.596941	
0.747651	5.54352	0	0	0.757733	0.503869	0.427582	0.106393	0.766369	0.30499	0.986329	0.15924	0.580902	0.235554	0.273089	0.215011	0.614657	-0.361871	0.089039	0.278418	-0.301091	0.09103	0.424659	0.51753	-0.015347	0.236075	0.096914	0.640936	0.419985	0.844282	0.688782	1.26661	-0.572647	0.015135	-0.41167	0.592971	
0.753346	5.54352	0	0	0.745336	0.506874	0.427582	0.106393	0.762343	0.316366	0.9847	0.175123	0.576776	0.23825	0.270358	0.222731	0.607206	-0.357003	0.0798145	0.274373	-0.300182	0.0884605	0.419806	0.512325	-0.0118515	0.23755	0.101168	0.649518	0.417613	0.850986	0.699594	1.27506	-0.575221	0.0224105	-0.404481	0.588274	
0.758308	5.53894	0	0	0.732939	0.50988	0.427582	0.106393	0.758318	0.327743	0.98307	0.191006	0.57265	0.240947	0.267626	0.230451	0.599755	-0.352134	0.07059	0.270329	-0.299273	0.085891	0.414953	0.507121	-0.008356	0.239025	0.105422	0.6581	0.415241	0.857691	0.710406	1.28351	-0.577796	0.029686	-0.397293	0.583577	
0.762069	5.54199	0	0	0.720542	0.512885	0.427582	0.106393	0.754293	0.339119	0.98144	0.206889	0.568523	0.243643	0.264894	0.238171	0.592304	-0.347266	0.0613655	0.266284	-0.298364	0.0833215	0.410101	0.501916	-0.0048605	0.2405	0.109675	0.666682	0.412868	0.864395	0.721217	1.29197	-0.58037	0.0369615	-0.390104	0.57888	
0.764197	5.53894	0	0	0.708145	0.51589	0.427582	0.106393	0.750267	0.350496	0.979811	0.222772	0.564397	0.246339	0.262163	0.245891	0.584853	-0.342397	0.052141	0.26224	-0.297455	0.080752	0.405248	0.496711	-0.001365	0.241975	0.113929	0.675264	0.410496	0.8711	0.732029	1.30042	-0.582944	0.044237	-0.382916	0.574183	
0.764728	5.53589	0	0	0.71283	0.50265	0.423006	0.102153	0.759152	0.33813	0.984359	0.209918	0.562609	0.242429	0.258725	0.238249	0.577408	-0.337533	0.047931	0.251584	-0.293489	0.0801363	0.398475	0.496953	-0.0083215	0.250282	0.113436	0.686966	0.408122	0.87781	0.730864	1.31673	-0.58037	0.0369615	-0.385726	0.582125	
0.764012	5.53284	0	0	0.717515	0.489409	0.418429	0.097912	0.768037	0.325763	0.988908	0.197064	0.560822	0.238519	0.255287	0.230606	0.569963	-0.332668	0.043721	0.240929	-0.289524	0.0795205	0.391703	0.497194	-0.015278	0.258588	0.112944	0.698668	0.405748	0.88452	0.729699	1.33304	-0.577796	0.029686	-0.388536	0.590067	
0.762401	5.53436	0	0	0.7222	0.476169	0.413852	0.0936715	0.776922	0.313397	0.993456	0.184209	0.559035	0.23461	0.251849	0.222964	0.562519	-0.327803	0.039511	0.230273	-0.285558	0.0789047	0.38493	0.497436	-0.0222345	0.266895	0.112452	0.710371	0.403373	0.891229	0.728535	1.34935	-0.575221	0.0224105	-0.391346	0.598008	
0.760249	5.53284	0	0	0.726885	0.462929	0.409276	0.089431	0.785807	0.301031	0.998004	0.171355	0.557247	0.2307	0.248411	0.215321	0.555074	-0.322939	0.035301	0.219618	-0.281592	0.078289	0.378157	0.497678	-0.029191	0.275202	0.111959	0.722073	0.400999	0.897939	0.72737	1.36566	-0.572647	0.015135	-0.394156	0.60595	
0.757909	5.53284	0	0	0.729225	0.456316	0.418843	0.0795667	0.785807	0.301031	1.00092	0.174386	0.55546	0.226794	0.244419	0.217929	0.548392	-0.320217	0.029553	0.213336	-0.277624	0.0776722	0.380082	0.492239	-0.0231	0.269341	0.116707	0.71897	0.411314	0.886041	0.728564	1.36229	-0.570075	0.0078655	-0.384151	0.593307	
0.755731	5.52521	0	0	0.731564	0.449703	0.428411	0.0697025	0.785807	0.301031	1.00385	0.177417	0.553673	0.222888	0.240428	0.220538	0.541711	-0.317495	0.023805	0.207054	-0.273655	0.0770555	0.382006	0.4868	-0.017009	0.26348	0.121455	0.715868	0.421629	0.874142	0.729758	1.35892	-0.567503	0.000596	-0.374146	0.580664	
0.753984	5.52368	0	0	0.733904	0.443091	0.437978	0.0598382	0.785807	0.301031	1.00677	0.180448	0.551886	0.218982	0.236436	0.223147	0.53503	-0.314773	0.018057	0.200772	-0.269687	0.0764387	0.383931	0.481362	-0.010918	0.257619	0.126203	0.712766	0.431945	0.862244	0.730952	1.35554	-0.56493	-0.0066735	-0.364142	0.568021	
0.752883	5.52368	0	0	0.736244	0.436478	0.447545	0.049974	0.785807	0.301031	1.00969	0.183479	0.550099	0.215076	0.232444	0.225755	0.528348	-0.312051	0.012309	0.19449	-0.265719	0.075822	0.385855	0.475923	-0.004827	0.251758	0.130951	0.709663	0.44226	0.850345	0.732146	1.35217	-0.562358	-0.013943	-0.354137	0.555378	
0.752638	5.52215	0	0	0.723866	0.439486	0.43964	0.055139	0.777929	0.310552	1.004	0.199562	0.5452	0.219968	0.23861	0.22568	0.523875	-0.307484	0.011932	0.188053	-0.266629	0.078393	0.38874	0.467771	0.00040175	0.248341	0.132555	0.715453	0.444632	0.84364	0.736949	1.35162	-0.544047	-0.020319	-0.358524	0.552145	
0.753461	5.52063	0	0	0.711487	0.442495	0.431736	0.060304	0.77005	0.320072	0.998305	0.215644	0.540301	0.224859	0.244775	0.225604	0.519402	-0.302918	0.011555	0.181615	-0.267539	0.080964	0.391624	0.459618	0.0056305	0.244925	0.134159	0.721242	0.447005	0.836936	0.741752	1.35108	-0.525737	-0.026695	-0.362911	0.548911	
0.755561	5.52063	0	0	0.699108	0.445503	0.423832	0.065469	0.762172	0.329593	0.992615	0.231727	0.535403	0.229751	0.250941	0.225529	0.514928	-0.298351	0.011178	0.175178	-0.268448	0.083535	0.394508	0.451466	0.0108593	0.241508	0.135762	0.727031	0.449377	0.830231	0.746554	1.35053	-0.507426	-0.033071	-0.367298	0.545678	
0.759131	5.52978	0	0	0.68673	0.448511	0.415927	0.070634	0.754294	0.339114	0.986924	0.247809	0.530504	0.234643	0.257107	0.225454	0.510455	-0.293784	0.010801	0.168741	-0.269358	0.086106	0.397393	0.443314	0.016088	0.238092	0.137366	0.732821	0.45175	0.823526	0.751357	1.34999	-0.489115	-0.039447	-0.371685	0.542444	
0.764006	5.52978	0	0	0.691401	0.43531	0.41925	0.0612432	0.756307	0.333426	0.99034	0.238156	0.530275	0.226343	0.25276	0.220389	0.50674	-0.291357	0.0085075	0.160226	-0.265388	0.0854888	0.390625	0.443561	0.0117248	0.239063	0.134216	0.741723	0.45175	0.823526	0.756163	1.34945	-0.486543	-0.0467165	-0.363088	0.533778	
0.769701	5.54047	0	0	0.696072	0.422108	0.422573	0.0518525	0.75832	0.327738	0.993755	0.228503	0.530046	0.218042	0.248413	0.215324	0.503025	-0.288929	0.006214	0.151711	-0.261417	0.0848715	0.383856	0.443809	0.0073615	0.240034	0.131066	0.750626	0.45175	0.823526	0.76097	1.3489	-0.48397	-0.053986	-0.35449	0.525112	
0.775721	5.54809	0	0	0.700743	0.408907	0.425895	0.0424618	0.760332	0.322049	0.99717	0.21885	0.529817	0.209741	0.244066	0.21026	0.49931	-0.286501	0.0039205	0.143197	-0.257447	0.0842543	0.377088	0.444056	0.00299825	0.241004	0.127916	0.759528	0.45175	0.823526	0.765777	1.34836	-0.481398	-0.0612555	-0.345892	0.516446	
0.78157	5.55878	0	0	0.705414	0.395706	0.429218	0.033071	0.762345	0.316361	1.00059	0.209197	0.529588	0.201441	0.239719	0.205195	0.495595	-0.284074	0.001627	0.134682	-0.253477	0.083637	0.37032	0.444304	-0.001365	0.241975	0.124766	0.768431	0.45175	0.823526	0.770583	1.34781	-0.478826	-0.068525	-0.337295	0.50778	
0.786753	5.5664	0	0	0.705414	0.395706	0.429218	0.033071	0.762345	0.316361	1.00059	0.209197	0.530365	0.199244	0.240628	0.202626	0.492638	-0.283786	-0.001822	0.136936	-0.249504	0.0830188	0.37032	0.444304	0.00386375	0.238559	0.126866	0.762495	0.452935	0.820176	0.762167	1.34553	-0.499709	-0.0548795	-0.33169	0.491939	
0.790776	5.57403	0	0	0.705414	0.395706	0.429218	0.033071	0.762345	0.316361	1.00059	0.209197	0.531142	0.197047	0.241536	0.200057	0.489681	-0.283497	-0.005271	0.139189	-0.245531	0.0824005	0.37032	0.444304	0.0090925	0.235142	0.128967	0.756559	0.454121	0.816825	0.753752	1.34324	-0.520592	-0.041234	-0.326084	0.476097	
0.793391	5.58014	0	0	0.705414	0.395706	0.429218	0.033071	0.762345	0.316361	1.00059	0.209197	0.53192	0.194851	0.242445	0.197489	0.486725	-0.283209	-0.00872	0.141443	-0.241558	0.0817823	0.37032	0.444304	0.0143213	0.231726	0.131067	0.750623	0.455307	0.813475	0.745336	1.34096	-0.541475	-0.0275885	-0.320479	0.460255	
0.794863	5.58777	0	0	0.705414	0.395706	0.429218	0.033071	0.762345	0.316361	1.00059	0.209197	0.532697	0.192654	0.243354	0.19492	0.483768	-0.282921	-0.012169	0.143697	-0.237585	0.081164	0.37032	0.444304	0.01955	0.228309	0.133167	0.744687	0.456492	0.810125	0.73692	1.33867	-0.562358	-0.013943	-0.314874	0.444414	
0.795524	5.59082	0	0	0.703079	0.402304	0.417998	0.047622	0.753464	0.328725	0.99717	0.21885	0.533705	0.198753	0.242799	0.205163	0.486725	-0.283209	-0.00910975	0.150041	-0.236343	0.088269	0.375165	0.449491	0.016953	0.235648	0.137423	0.753321	0.460882	0.814986	0.741723	1.33813	-0.541475	-0.0275885	-0.314874	0.444414	
0.795703	5.59234	0	0	0.700745	0.408903	0.406778	0.062173	0.744583	0.341089	0.993755	0.228503	0.534713	0.204852	0.242243	0.215407	0.489681	-0.283497	-0.0060505	0.156386	-0.2351	0.095374	0.380011	0.454677	0.014356	0.242988	0.141678	0.761954	0.465273	0.819848	0.746527	1.33758	-0.520592	-0.041234	-0.314874	0.444414	
0.79573	5.59387	0	0	0.698411	0.415501	0.395558	0.076724	0.735702	0.353452	0.99034	0.238156	0.535721	0.210951	0.241687	0.22565	0.492638	-0.283786	-0.00299125	0.16273	-0.233858	0.102479	0.384856	0.459863	0.011759	0.250327	0.145933	0.770588	0.469664	0.824709	0.75133	1.33704	-0.499709	-0.0548795	-0.314874	0.444414	
0.795936	5.59082	0	0	0.696076	0.422099	0.384338	0.091275	0.726821	0.365816	0.986924	0.247809	0.536729	0.21705	0.241132	0.235893	0.495595	-0.284074	6.8E-05	0.169074	-0.232616	0.109584	0.389702	0.46505	0.009162	0.257666	0.150189	0.779222	0.474054	0.82957	0.756133	1.33649	-0.478826	-0.068525	-0.314874	0.444414	
0.796603	5.59082	0	0	0.693739	0.428702	0.384338	0.091275	0.725814	0.368663	0.982869	0.247984	0.538515	0.220956	0.240222	0.238465	0.503027	-0.28893	0.00964675	0.179533	-0.225571	0.110925	0.392625	0.475688	0.0135277	0.256695	0.149137	0.782195	0.476071	0.841155	0.751354	1.35	-0.486549	-0.0466985	-0.313279	0.45555	
0.797718	5.58777	0	0	0.691403	0.435305	0.384338	0.091275	0.724807	0.371509	0.978814	0.248159	0.540301	0.224861	0.239312	0.241038	0.510458	-0.293786	0.0192255	0.189991	-0.218526	0.112265	0.395548	0.486325	0.0178935	0.255725	0.148085	0.785167	0.478089	0.852741	0.746576	1.3635	-0.494272	-0.024872	-0.311683	0.466687	
0.799153	5.58319	0	0	0.689067	0.441908	0.384338	0.091275	0.723799	0.374355	0.974759	0.248334	0.542086	0.228767	0.238401	0.243611	0.51789	-0.298642	0.0288042	0.20045	-0.211481	0.113605	0.398472	0.496963	0.0222593	0.254754	0.147034	0.788139	0.480106	0.864326	0.741797	1.37701	-0.501995	-0.0030455	-0.310087	0.477824	
0.800784	5.58014	0	0	0.68673	0.448511	0.384338	0.091275	0.722792	0.377202	0.970704	0.248509	0.543872	0.232673	0.237491	0.246183	0.525322	-0.303498	0.038383	0.210908	-0.204436	0.114946	0.401395	0.507601	0.026625	0.253783	0.145982	0.791112	0.482123	0.875911	0.737018	1.39052	-0.509718	0.018781	-0.308492	0.48896	
0.802482	5.57556	0	0	0.689739	0.471983	0.388482	0.113895	0.733329	0.385654	0.974255	0.261049	0.553359	0.241714	0.246186	0.256345	0.544686	-0.317795	0.0514213	0.234264	-0.201951	0.129197	0.414995	0.525981	0.0380058	0.255763	0.150238	0.799768	0.490916	0.885682	0.737018	1.39052	-0.493943	0.0196827	-0.28966	0.482752	
0.804121	5.57403	0	0	0.692747	0.495455	0.392626	0.136516	0.743867	0.394107	0.977807	0.27359	0.562846	0.250756	0.25488	0.266506	0.56405	-0.332091	0.0644595	0.25762	-0.199466	0.143448	0.428594	0.544361	0.0493865	0.257744	0.154494	0.808425	0.499708	0.895452	0.737018	1.39052	-0.478168	0.0205845	-0.270828	0.476544	
0.805573	5.57403	0	0	0.695756	0.518928	0.396771	0.159137	0.754405	0.402559	0.981358	0.286131	0.572333	0.259798	0.263574	0.276668	0.583414	-0.346388	0.0774978	0.280976	-0.196981	0.157698	0.442194	0.56274	0.0607673	0.259724	0.158749	0.817082	0.508501	0.905222	0.737018	1.39052	-0.462394	0.0214863	-0.251996	0.470336	
0.806679	5.56946	0	0	0.698765	0.5424	0.400915	0.181757	0.764942	0.411011	0.984909	0.298671	0.58182	0.268839	0.272269	0.286829	0.602778	-0.360685	0.090536	0.304332	-0.194496	0.171949	0.455794	0.58112	0.072148	0.261704	0.163005	0.825738	0.517294	0.914993	0.737018	1.39052	-0.446619	0.022388	-0.233164	0.464128	
0.807237	5.57098	0	0	0.689367	0.56896	0.400474	0.200194	0.764752	0.424309	0.98211	0.317878	0.588194	0.286748	0.272393	0.31257	0.620669	-0.370732	0.10204	0.332218	-0.188945	0.188217	0.4597	0.608052	0.0739547	0.279396	0.171522	0.843105	0.530508	0.929698	0.741842	1.40297	-0.438568	0.0452318	-0.227142	0.478518	
0.807045	5.57251	0	0	0.67997	0.595519	0.400033	0.218632	0.764563	0.437607	0.979312	0.337086	0.594568	0.304657	0.272517	0.338311	0.638561	-0.380779	0.113545	0.360105	-0.183393	0.204484	0.463607	0.634985	0.0757615	0.297088	0.180038	0.860472	0.543722	0.944403	0.746667	1.41542	-0.430518	0.0680755	-0.22112	0.492908	
0.805898	5.57251	0	0	0.670572	0.622078	0.399591	0.237069	0.764373	0.450905	0.976514	0.356293	0.600941	0.322566	0.272641	0.364053	0.656453	-0.390825	0.125049	0.387992	-0.177841	0.220751	0.467514	0.661917	0.0775683	0.31478	0.188555	0.877838	0.556937	0.959109	0.751491	1.42787	-0.422467	0.0909193	-0.215098	0.507299	
0.803594	5.57556	0	0	0.661174	0.648638	0.39915	0.255506	0.764183	0.464203	0.973715	0.3755	0.607315	0.340475	0.272765	0.389794	0.674344	-0.400872	0.136553	0.415878	-0.17229	0.237019	0.47142	0.688849	0.079375	0.332472	0.197072	0.895205	0.570151	0.973814	0.756316	1.44032	-0.414417	0.113763	-0.209076	0.521689	
0.79993	5.57709	0	0	0.654107	0.66861	0.392452	0.274437	0.759121	0.478508	0.975484	0.381805	0.612683	0.352291	0.272189	0.400128	0.689292	-0.410639	0.144209	0.43967	-0.167977	0.246166	0.479204	0.704902	0.081145	0.338879	0.201846	0.892085	0.572168	0.985497	0.756316	1.44032	-0.398569	0.114682	-0.206064	0.528902	
0.794842	5.57251	0	0	0.647041	0.688581	0.385753	0.293368	0.754059	0.492812	0.977253	0.388111	0.618051	0.364106	0.271612	0.410462	0.704239	-0.420406	0.151865	0.463462	-0.163664	0.255312	0.486988	0.720954	0.082915	0.345286	0.206621	0.888966	0.574184	0.99718	0.756316	1.44032	-0.382721	0.1156	-0.203053	0.536115	
0.78881	5.57709	0	0	0.639974	0.708552	0.379055	0.312298	0.748998	0.507117	0.979023	0.394416	0.62342	0.375922	0.271036	0.420797	0.719186	-0.430173	0.15952	0.487255	-0.159352	0.264459	0.494771	0.737007	0.084685	0.351693	0.211396	0.885846	0.576201	1.00886	0.756316	1.44032	-0.366874	0.116518	-0.200041	0.543328	
0.782436	5.57098	0	0	0.632907	0.728524	0.372356	0.331229	0.743936	0.521422	0.980792	0.400721	0.628788	0.387738	0.27046	0.431131	0.734134	-0.43994	0.167176	0.511047	-0.155039	0.273606	0.502555	0.753059	0.086455	0.3581	0.21617	0.882726	0.578218	1.02055	0.756316	1.44032	-0.351026	0.117437	-0.197029	0.550541	
0.776327	5.57403	0	0	0.640567	0.738907	0.373563	0.345025	0.742714	0.537647	0.984328	0.413357	0.637522	0.399097	0.269879	0.441483	0.749108	-0.449724	0.173683	0.530599	-0.154721	0.283385	0.508885	0.763759	0.091738	0.366009	0.217774	0.888572	0.580231	1.03226	0.755117	1.44371	-0.335135	0.118346	-0.186768	0.553029	
0.771088	5.57251	0	0	0.648226	0.749291	0.374769	0.358822	0.741491	0.553872	0.987865	0.425994	0.646257	0.410457	0.269298	0.451835	0.764081	-0.459508	0.18019	0.550152	-0.154403	0.293164	0.515214	0.774458	0.097021	0.373918	0.219378	0.894419	0.582244	1.04397	0.753918	1.4471	-0.319244	0.119254	-0.176506	0.555517	
0.767324	5.5664	0	0	0.655886	0.759675	0.375976	0.372619	0.740269	0.570097	0.991402	0.43863	0.654991	0.421816	0.268717	0.462186	0.779055	-0.469293	0.186696	0.569704	-0.154086	0.302943	0.521544	0.785158	0.102304	0.381826	0.220981	0.900266	0.584257	1.05568	0.75272	1.45048	-0.303352	0.120163	-0.166245	0.558005	
0.765513	5.5664	0	0	0.663545	0.770058	0.377182	0.386415	0.739047	0.586322	0.994938	0.451267	0.663725	0.433175	0.268136	0.472538	0.794029	-0.479077	0.193203	0.589256	-0.153768	0.312722	0.527874	0.795858	0.107587	0.389735	0.222585	0.906112	0.58627	1.06739	0.751521	1.45387	-0.287461	0.121072	-0.155983	0.560493	
0.765402	5.56488	0	0	0.661181	0.77674	0.373821	0.395916	0.740062	0.583453	0.990256	0.441868	0.662152	0.437621	0.257034	0.477797	0.793272	-0.476938	0.191635	0.593688	-0.154688	0.315322	0.523486	0.798725	0.105842	0.394666	0.220468	0.912096	0.591884	1.06894	0.749123	1.46065	-0.290063	0.128425	-0.152964	0.567726	
0.766478	5.56488	0	0	0.658817	0.783422	0.370459	0.405417	0.741078	0.580584	0.985574	0.432469	0.660578	0.442068	0.245932	0.483055	0.792515	-0.474799	0.190067	0.598121	-0.155608	0.317922	0.519097	0.801593	0.104097	0.399597	0.218351	0.918079	0.597498	1.07048	0.746725	1.46743	-0.292665	0.135778	-0.149946	0.574959	
0.768226	5.5603	0	0	0.656452	0.790104	0.367098	0.414917	0.742093	0.577714	0.980892	0.42307	0.659005	0.446514	0.234831	0.488314	0.791759	-0.47266	0.188498	0.602553	-0.156528	0.320523	0.514709	0.804461	0.102352	0.404529	0.216233	0.924063	0.603112	1.07203	0.744326	1.47421	-0.295267	0.143132	-0.146927	0.582192	
0.770133	5.5603	0	0	0.654088	0.796786	0.363736	0.424418	0.743108	0.574845	0.97621	0.413671	0.657432	0.45096	0.223729	0.493572	0.791002	-0.470521	0.18693	0.606985	-0.157448	0.323123	0.510321	0.807328	0.100607	0.40946	0.214116	0.930047	0.608726	1.07358	0.741928	1.48098	-0.297869	0.150485	-0.143908	0.589425	
0.771684	5.55878	0	0	0.651722	0.803473	0.371662	0.419239	0.743108	0.574845	0.9785	0.407197	0.654069	0.451449	0.219396	0.488427	0.791759	-0.47266	0.181509	0.60712	-0.164514	0.321744	0.50643	0.79927	0.0970945	0.407964	0.210912	0.918349	0.603112	1.07203	0.738308	1.46513	-0.295267	0.143132	-0.139671	0.577451	
0.772409	5.55878	0	0	0.649355	0.81016	0.379588	0.414059	0.743108	0.574845	0.980791	0.400724	0.650705	0.451937	0.215063	0.483282	0.792515	-0.474799	0.176088	0.607255	-0.171579	0.320366	0.502539	0.791212	0.093582	0.406469	0.207708	0.906651	0.597498	1.07048	0.734689	1.44927	-0.292665	0.135778	-0.135435	0.565478	
0.772272	5.55878	0	0	0.646989	0.816847	0.387515	0.40888	0.743108	0.574845	0.983082	0.39425	0.647342	0.452425	0.21073	0.478136	0.793272	-0.476938	0.170667	0.607389	-0.178645	0.318987	0.498648	0.783154	0.0900695	0.404973	0.204504	0.894954	0.591884	1.06894	0.731069	1.43341	-0.290063	0.128425	-0.131198	0.553504	
0.771493	5.5542	0	0	0.644623	0.823534	0.395441	0.4037	0.743108	0.574845	0.985372	0.387776	0.643978	0.452914	0.206397	0.472991	0.794029	-0.479077	0.165246	0.607524	-0.185711	0.317609	0.494757	0.775096	0.086557	0.403477	0.2013	0.883256	0.58627	1.06739	0.727449	1.41756	-0.287461	0.121072	-0.126961	0.54153	
0.770294	5.55267	0	0	0.65939	0.813885	0.387515	0.40888	0.73723	0.578686	0.988288	0.390848	0.642189	0.448958	0.206065	0.465241	0.786539	-0.474183	0.160255	0.598873	-0.193998	0.309055	0.486007	0.761774	0.0847895	0.397056	0.198094	0.871587	0.584257	1.05568	0.716642	1.40904	-0.282264	0.106383	-0.129985	0.534313	
0.768898	5.5542	0	0	0.674157	0.804235	0.379588	0.414059	0.731353	0.582526	0.991204	0.393919	0.6404	0.445001	0.205732	0.457491	0.779049	-0.469288	0.155264	0.590221	-0.202286	0.300501	0.477258	0.748452	0.083022	0.390634	0.194888	0.859919	0.582244	1.04397	0.705835	1.40052	-0.277066	0.091695	-0.13301	0.527096	
0.767528	5.5542	0	0	0.688925	0.794586	0.371662	0.419239	0.725475	0.586367	0.99412	0.396991	0.63861	0.441044	0.2054	0.44974	0.771558	-0.464394	0.150274	0.58157	-0.210573	0.291948	0.468508	0.73513	0.0812545	0.384213	0.191682	0.84825	0.580231	1.03226	0.695028	1.392	-0.271869	0.0770065	-0.136034	0.519879	
0.766397	5.55115	0	0	0.703692	0.784937	0.363736	0.424418	0.719597	0.590207	0.997036	0.400063	0.636821	0.437088	0.205068	0.44199	0.764068	-0.4595	0.145283	0.572919	-0.218861	0.283394	0.459758	0.721808	0.079487	0.377792	0.188476	0.836581	0.578218	1.02055	0.684221	1.38348	-0.266672	0.062318	-0.139058	0.512662	
0.765556	5.55115	0	0	0.693655	0.781217	0.362536	0.410601	0.720821	0.573986	0.990579	0.384396	0.628883	0.423514	0.196988	0.42144	0.745371	-0.447283	0.132611	0.555742	-0.225305	0.269686	0.448595	0.705904	0.073341	0.372349	0.178401	0.834004	0.568208	1.01409	0.680623	1.38065	-0.261483	0.0476537	-0.14349	0.509436	
0.76492	5.55115	0	0	0.683619	0.777497	0.361337	0.396784	0.722046	0.557765	0.984122	0.368729	0.620945	0.40994	0.188908	0.40089	0.726675	-0.435066	0.11994	0.538565	-0.23175	0.255978	0.437431	0.689999	0.067195	0.366907	0.168325	0.831427	0.558199	1.00763	0.677026	1.37781	-0.256294	0.0329895	-0.147921	0.506209	
0.7644	5.54962	0	0	0.673582	0.773778	0.360137	0.382968	0.72327	0.541544	0.977664	0.353062	0.613006	0.396365	0.180827	0.38034	0.707978	-0.422849	0.107269	0.521387	-0.238195	0.242271	0.426267	0.674095	0.061049	0.361465	0.158249	0.828849	0.548189	1.00117	0.673428	1.37498	-0.251106	0.0183253	-0.152353	0.502983	
0.763907	5.55267	0	0	0.663545	0.770058	0.358938	0.369151	0.724494	0.525323	0.971207	0.337395	0.605068	0.382791	0.172747	0.35979	0.689281	-0.410632	0.094597	0.50421	-0.244639	0.228563	0.415104	0.658191	0.054903	0.356022	0.148174	0.826272	0.538179	0.994705	0.669831	1.37214	-0.245917	0.003661	-0.156785	0.499757	
0.763353	5.55115	0	0	0.653527	0.766342	0.346476	0.370005	0.717819	0.51869	0.965383	0.331279	0.598924	0.373193	0.168993	0.344418	0.678083	-0.403315	0.0873385	0.486966	-0.250167	0.21232	0.40396	0.642352	0.0469992	0.344195	0.144422	0.805876	0.539744	0.972932	0.65903	1.35075	-0.261825	0.00280025	-0.155591	0.480643	
0.762651	5.55115	0	0	0.643508	0.762625	0.334014	0.37086	0.711144	0.512058	0.959558	0.325163	0.592781	0.363594	0.165238	0.329045	0.666884	-0.395998	0.08008	0.469722	-0.255695	0.196078	0.392817	0.626513	0.0390955	0.332367	0.140671	0.785479	0.541309	0.951159	0.64823	1.32935	-0.277733	0.0019395	-0.154396	0.46153	
0.761778	5.54962	0	0	0.63349	0.758908	0.321553	0.371714	0.704469	0.505425	0.953734	0.319047	0.586637	0.353996	0.161484	0.313673	0.655686	-0.38868	0.0728215	0.452478	-0.261223	0.179835	0.381673	0.610674	0.0311917	0.320539	0.136919	0.765083	0.542874	0.929386	0.637429	1.30796	-0.293641	0.00107875	-0.153201	0.442416	
0.760783	5.54657	0	0	0.623471	0.755192	0.309091	0.372568	0.697794	0.498793	0.947909	0.312931	0.580493	0.344398	0.157729	0.298301	0.644487	-0.381363	0.065563	0.435234	-0.266751	0.163593	0.370529	0.594835	0.023288	0.308712	0.133167	0.744687	0.544439	0.907613	0.626629	1.28657	-0.309549	0.000218	-0.152007	0.423302	
0.759718	5.54657	0	0	0.611113	0.758141	0.301194	0.377728	0.692944	0.499766	0.950821	0.315988	0.576921	0.336541	0.155567	0.295759	0.629579	-0.371621	0.0525182	0.426893	-0.275922	0.1577	0.365201	0.58155	0.0206555	0.304777	0.131564	0.738895	0.535634	0.897844	0.617056	1.27478	-0.283289	-0.028178	-0.153632	0.412168	
0.758634	5.54809	0	0	0.598756	0.76109	0.293297	0.382888	0.688093	0.500738	0.953732	0.319045	0.573349	0.328683	0.153404	0.293217	0.61467	-0.36188	0.0394735	0.418551	-0.285093	0.151807	0.359873	0.568265	0.018023	0.300843	0.129962	0.733102	0.526829	0.888076	0.607482	1.26299	-0.257028	-0.056574	-0.155256	0.401035	
0.757584	5.54504	0	0	0.586399	0.764039	0.285399	0.388049	0.683242	0.501711	0.956643	0.322101	0.569778	0.320825	0.151242	0.290675	0.599761	-0.352139	0.0264288	0.41021	-0.294264	0.145914	0.354545	0.55498	0.0153905	0.296908	0.128359	0.72731	0.518024	0.878308	0.597909	1.2512	-0.230768	-0.08497	-0.156881	0.389902	
0.756617	5.54199	0	0	0.574041	0.766988	0.277502	0.393209	0.678392	0.502684	0.959555	0.325158	0.566206	0.312968	0.14908	0.288133	0.584853	-0.342397	0.013384	0.401868	-0.303435	0.140021	0.349217	0.541695	0.012758	0.292973	0.126756	0.721518	0.509219	0.868539	0.588336	1.23941	-0.204508	-0.113366	-0.158505	0.378768	
0.755673	5.54199	0	0	0.578754	0.753669	0.284201	0.374278	0.679603	0.486536	0.953103	0.309559	0.558286	0.299497	0.147136	0.267691	0.570727	-0.334811	0.00805725	0.386845	-0.307721	0.130957	0.345345	0.533767	0.011859	0.284146	0.116713	0.718972	0.507197	0.856953	0.589521	1.23606	-0.201925	-0.120665	-0.170158	0.380293	
0.754552	5.54047	0	0	0.583466	0.740349	0.290899	0.355347	0.680813	0.470387	0.94665	0.293961	0.550366	0.286027	0.145192	0.24725	0.556601	-0.327224	0.0027305	0.371822	-0.312007	0.121893	0.341473	0.525839	0.01096	0.275319	0.106669	0.716425	0.505174	0.845366	0.590705	1.23272	-0.199342	-0.127964	-0.181812	0.381819	
0.753047	5.54047	0	0	0.588179	0.72703	0.297598	0.336417	0.682024	0.454238	0.940198	0.278363	0.542447	0.272556	0.143248	0.226808	0.542474	-0.319638	-0.00259625	0.356798	-0.316294	0.112829	0.337601	0.51791	0.010061	0.266493	0.0966255	0.713879	0.503152	0.833779	0.59189	1.22937	-0.19676	-0.135264	-0.193465	0.383344	
0.750949	5.53589	0	0	0.592892	0.713711	0.304296	0.317486	0.683235	0.43809	0.933745	0.262764	0.534527	0.259085	0.141304	0.206367	0.528348	-0.312051	-0.007923	0.341775	-0.32058	0.103765	0.333729	0.509982	0.009162	0.257666	0.086582	0.711333	0.50113	0.822193	0.593075	1.22602	-0.194177	-0.142563	-0.205118	0.384869	
0.74805	5.53436	0	0	0.599948	0.693769	0.317208	0.298154	0.685252	0.432391	0.936021	0.256332	0.532515	0.246871	0.140955	0.198717	0.521673	-0.309333	-0.00674475	0.330933	-0.321814	0.0966728	0.332274	0.504665	0.00303475	0.252268	0.0833825	0.699783	0.505875	0.808784	0.589457	1.21039	-0.210106	-0.143364	-0.19952	0.369049	
0.74415	5.53131	0	0	0.607004	0.673828	0.33012	0.278822	0.687268	0.426692	0.938297	0.2499	0.530502	0.234658	0.140605	0.191068	0.514997	-0.306615	-0.0055665	0.320091	-0.323048	0.0895805	0.330819	0.499349	-0.0030925	0.24687	0.080183	0.688233	0.51062	0.795374	0.585839	1.19477	-0.226036	-0.144165	-0.193922	0.353228	
0.739267	5.53131	0	0	0.614061	0.653886	0.343031	0.25949	0.689285	0.420993	0.940573	0.243468	0.52849	0.222444	0.140256	0.183418	0.508322	-0.303896	-0.00438825	0.309249	-0.324282	0.0824882	0.329365	0.494032	-0.00921975	0.241473	0.0769835	0.676683	0.515364	0.781965	0.582221	1.17914	-0.241965	-0.144965	-0.188325	0.337408	
0.733677	5.53131	0	0	0.621117	0.633944	0.355943	0.240158	0.691301	0.415294	0.942849	0.237036	0.526478	0.21023	0.139907	0.175768	0.501647	-0.301178	-0.00321	0.298407	-0.325516	0.075396	0.32791	0.488716	-0.015347	0.236075	0.073784	0.665133	0.520109	0.768556	0.578603	1.16352	-0.257894	-0.145766	-0.182727	0.321587	
0.727668	5.53284	0	0	0.608774	0.636906	0.340156	0.250474	0.686455	0.41627	0.935389	0.246856	0.523139	0.210723	0.14207	0.178293	0.492709	-0.29205	-0.00666575	0.300665	-0.325516	0.075396	0.328871	0.486	-0.0127535	0.228746	0.0795665	0.659084	0.514523	0.767057	0.582145	1.15351	-0.278931	-0.13202	-0.192967	0.31917	
0.721532	5.53284	0	0	0.596431	0.639868	0.324369	0.26079	0.681609	0.417247	0.927929	0.256675	0.5198	0.211215	0.144232	0.180818	0.48377	-0.282922	-0.0101215	0.302924	-0.325516	0.075396	0.329831	0.483285	-0.01016	0.221417	0.085349	0.653034	0.508937	0.765559	0.585686	1.1435	-0.299967	-0.118275	-0.203207	0.316754	
0.715559	5.54352	0	0	0.584088	0.642831	0.308581	0.271105	0.676764	0.418224	0.920468	0.266495	0.516461	0.211707	0.146395	0.183342	0.474832	-0.273795	-0.0135772	0.305182	-0.325516	0.075396	0.330792	0.480569	-0.0075665	0.214088	0.0911315	0.646985	0.50335	0.76406	0.589228	1.13349	-0.321004	-0.104529	-0.213447	0.314337	
0.710029	5.54504	0	0	0.571745	0.645793	0.292794	0.281421	0.671918	0.4192	0.913008	0.276314	0.513122	0.2122	0.148558	0.185867	0.465894	-0.264667	-0.017033	0.30744	-0.325516	0.075396	0.331753	0.477853	-0.004973	0.206759	0.096914	0.640936	0.497764	0.762561	0.59277	1.12348	-0.342041	-0.090783	-0.223687	0.31192	
0.705138	5.5542	0	0	0.574092	0.639161	0.28825	0.277136	0.666263	0.409772	0.911742	0.257383	0.508779	0.206598	0.146044	0.175703	0.462184	-0.262242	-0.0154895	0.303077	-0.324608	0.0728293	0.335132	0.477733	-0.00846775	0.205288	0.0884865	0.644173	0.497764	0.762561	0.586827	1.12736	-0.315854	-0.119086	-0.216474	0.307207	
0.701035	5.5603	0	0	0.576438	0.632529	0.283706	0.272852	0.660608	0.400343	0.910476	0.238453	0.504437	0.200995	0.14353	0.165539	0.458473	-0.259818	-0.013946	0.298714	-0.3237	0.0702625	0.33851	0.477614	-0.0119625	0.203818	0.080059	0.647409	0.497764	0.762561	0.580885	1.13124	-0.289666	-0.147388	-0.209261	0.302494	
0.697871	5.56946	0	0	0.578785	0.625896	0.279162	0.268567	0.654953	0.390914	0.90921	0.219523	0.500094	0.195393	0.141015	0.155374	0.454763	-0.257393	-0.0124025	0.294352	-0.322791	0.0676957	0.341888	0.477494	-0.0154573	0.202348	0.0716315	0.650646	0.497764	0.762561	0.574942	1.13512	-0.263479	-0.17569	-0.202048	0.297781	
0.695793	5.57098	0	0	0.581132	0.619264	0.274618	0.264282	0.649298	0.381486	0.907944	0.200592	0.495752	0.189791	0.138501	0.14521	0.451053	-0.254969	-0.010859	0.289989	-0.321883	0.065129	0.345267	0.477374	-0.018952	0.200877	0.063204	0.653883	0.497764	0.762561	0.568999	1.13901	-0.237291	-0.203993	-0.194835	0.293068	
0.694951	5.57556	0	0	0.583477	0.612637	0.271744	0.255294	0.650304	0.378644	0.905038	0.19756	0.495752	0.189791	0.137596	0.147768	0.450296	-0.25283	-0.00703375	0.2942	-0.322791	0.0676957	0.347686	0.479971	-0.0180885	0.198437	0.061604	0.648123	0.498948	0.759215	0.568955	1.12623	-0.258328	-0.190247	-0.196467	0.28201	
0.695318	5.58319	0	0	0.585822	0.606009	0.268869	0.246306	0.651309	0.375802	0.902133	0.194528	0.495752	0.189791	0.136691	0.150326	0.449539	-0.250692	-0.0032085	0.29841	-0.3237	0.0702625	0.350105	0.482568	-0.017225	0.195997	0.060004	0.642362	0.500132	0.755868	0.568911	1.11345	-0.279365	-0.176502	-0.198099	0.270951	
0.696444	5.58624	0	0	0.588168	0.599382	0.265995	0.237317	0.652315	0.372961	0.899227	0.191497	0.495752	0.189791	0.135786	0.152883	0.448783	-0.248553	0.00061675	0.302621	-0.324608	0.0728293	0.352524	0.485165	-0.0163615	0.193556	0.058404	0.636602	0.501317	0.752522	0.568866	1.10067	-0.300401	-0.162756	-0.199732	0.259892	
0.697814	5.58472	0	0	0.590513	0.592754	0.263121	0.228329	0.653321	0.370119	0.896321	0.188465	0.495752	0.189791	0.134881	0.155441	0.448026	-0.246414	0.004442	0.306831	-0.325516	0.075396	0.354943	0.487762	-0.015498	0.191116	0.056804	0.630842	0.502501	0.749175	0.568822	1.0879	-0.321438	-0.14901	-0.201364	0.248834	
0.698914	5.58777	0	0	0.592856	0.586131	0.25812	0.242463	0.657155	0.371984	0.903906	0.200781	0.491642	0.192477	0.145701	0.168066	0.448026	-0.246414	0.0105515	0.319642	-0.316354	0.0812608	0.357363	0.490361	-0.0189535	0.200881	0.0625798	0.624801	0.498947	0.759219	0.574761	1.08402	-0.324462	-0.18606	-0.216004	0.243274	
0.699229	5.58777	0	0	0.595199	0.579508	0.253119	0.256598	0.660989	0.373849	0.91149	0.213097	0.487531	0.195162	0.156521	0.180692	0.448026	-0.246414	0.016661	0.332453	-0.307192	0.0871255	0.359783	0.49296	-0.022409	0.210647	0.0683555	0.61876	0.495393	0.769262	0.5807	1.08014	-0.327485	-0.223111	-0.230645	0.237714	
0.698282	5.58166	0	0	0.597543	0.572886	0.248117	0.270732	0.664823	0.375714	0.919075	0.225414	0.483421	0.197848	0.167342	0.193317	0.448026	-0.246414	0.0227705	0.345264	-0.298031	0.0929902	0.362202	0.495559	-0.0258645	0.220413	0.0741313	0.612719	0.49184	0.779306	0.586638	1.07626	-0.330508	-0.260161	-0.245285	0.232154	
0.69622	5.58166	0	0	0.599886	0.566263	0.243116	0.284866	0.668657	0.377579	0.92666	0.23773	0.47931	0.200534	0.178162	0.205942	0.448026	-0.246414	0.02888	0.358075	-0.288869	0.098855	0.364622	0.498158	-0.02932	0.230178	0.079907	0.606678	0.488286	0.78935	0.592577	1.07238	-0.333532	-0.297212	-0.259926	0.226594	
0.693695	5.57861	0	0	0.597543	0.572886	0.248117	0.270732	0.672494	0.379445	0.924888	0.23148	0.474425	0.205413	0.18228	0.22894	0.456205	-0.253402	0.0373207	0.364346	-0.284252	0.117619	0.365117	0.506202	-0.0275272	0.247812	0.0757312	0.618479	0.481166	0.809472	0.596212	1.08794	-0.401648	-0.285979	-0.284702	0.21865	
0.691381	5.57403	0	0	0.595199	0.579508	0.253119	0.256598	0.67633	0.381311	0.923117	0.22523	0.46954	0.210292	0.186398	0.251937	0.464383	-0.260391	0.0457615	0.370617	-0.279635	0.136383	0.365611	0.514247	-0.0257345	0.265446	0.0715555	0.630281	0.474047	0.829593	0.599846	1.1035	-0.469764	-0.274746	-0.309477	0.210706	
0.689945	5.56946	0	0	0.592856	0.586131	0.25812	0.242463	0.680167	0.383177	0.921345	0.21898	0.464655	0.215172	0.190516	0.274935	0.472562	-0.267379	0.0542023	0.376889	-0.275019	0.155146	0.366106	0.522292	-0.0239417	0.283079	0.0673798	0.642082	0.466927	0.849715	0.60348	1.11906	-0.537879	-0.263513	-0.334253	0.202763	
0.690059	5.56946	0	0	0.590513	0.592754	0.263121	0.228329	0.684004	0.385043	0.919573	0.21273	0.45977	0.220051	0.194634	0.297933	0.480741	-0.274368	0.062643	0.38316	-0.270402	0.17391	0.366601	0.530336	-0.022149	0.300713	0.063204	0.653883	0.459807	0.869836	0.607115	1.13462	-0.605995	-0.25228	-0.359029	0.194819	
0.692193	5.56488	0	0	0.595814	0.609694	0.261455	0.233038	0.687651	0.40018	0.927025	0.202927	0.464104	0.225661	0.205478	0.310674	0.500081	-0.288649	0.0714633	0.39596	-0.272515	0.201121	0.375325	0.543501	-0.0238615	0.316914	0.0642485	0.650931	0.457053	0.894905	0.603605	1.15747	-0.619097	-0.260296	-0.394969	0.203263	
0.696147	5.56183	0	0	0.601114	0.626634	0.259788	0.237747	0.691299	0.415318	0.934477	0.193123	0.468437	0.231272	0.216321	0.323414	0.519421	-0.30293	0.0802835	0.408759	-0.274629	0.228331	0.384048	0.556666	-0.025574	0.333114	0.065293	0.647979	0.454299	0.919973	0.600095	1.18032	-0.632198	-0.268313	-0.430909	0.211707	
0.701575	5.56183	0	0	0.606415	0.643573	0.258122	0.242456	0.694946	0.430455	0.94193	0.183319	0.47277	0.236882	0.227164	0.336155	0.538761	-0.317211	0.0891037	0.421559	-0.276743	0.255542	0.392771	0.56983	-0.0272865	0.349314	0.0663375	0.645027	0.451545	0.945042	0.596585	1.20317	-0.6453	-0.276329	-0.46685	0.220151	
0.708134	5.5542	0	0	0.611716	0.660513	0.256456	0.247165	0.698593	0.445592	0.949382	0.173516	0.477104	0.242492	0.238008	0.348896	0.558101	-0.331492	0.097924	0.434359	-0.278856	0.282753	0.401495	0.582995	-0.028999	0.365515	0.067382	0.642075	0.448791	0.970111	0.593075	1.22602	-0.658402	-0.284345	-0.50279	0.228595	
0.71548	5.55115	0	0	0.619371	0.670853	0.259328	0.256161	0.708916	0.467413	0.949522	0.195656	0.484221	0.258144	0.256317	0.366779	0.580454	-0.346098	0.107899	0.451539	-0.269984	0.310881	0.414116	0.604197	-0.0254775	0.389686	0.0769248	0.65629	0.446008	0.995278	0.601464	1.24116	-0.676544	-0.278008	-0.522758	0.238639	
0.723269	5.55115	0	0	0.627027	0.681194	0.262199	0.265157	0.719238	0.489235	0.949662	0.217796	0.491339	0.273796	0.274627	0.384663	0.602807	-0.360704	0.117875	0.468719	-0.261112	0.339009	0.426738	0.625398	-0.021956	0.413857	0.0864675	0.670506	0.443225	1.02045	0.609852	1.25629	-0.694686	-0.27167	-0.542727	0.248683	
0.731249	5.54657	0	0	0.634682	0.691535	0.26507	0.274152	0.72956	0.511056	0.949802	0.239935	0.498456	0.289449	0.292937	0.402546	0.625161	-0.37531	0.127851	0.4859	-0.25224	0.367137	0.43936	0.6466	-0.0184345	0.438029	0.0960102	0.684721	0.440442	1.04561	0.61824	1.27143	-0.712829	-0.265332	-0.562696	0.258726	
0.739323	5.54352	0	0	0.642337	0.701875	0.267942	0.283148	0.739883	0.532877	0.949942	0.262075	0.505574	0.305101	0.311246	0.420429	0.647514	-0.389916	0.137826	0.50308	-0.243368	0.395265	0.451981	0.667802	-0.014913	0.4622	0.105553	0.698937	0.437659	1.07078	0.626629	1.28657	-0.730971	-0.258995	-0.582664	0.26877	
0.747411	5.54352	0	0	0.652363	0.705572	0.261258	0.302039	0.738439	0.562506	0.952973	0.287365	0.510348	0.327445	0.318796	0.451484	0.669169	-0.402422	0.143539	0.524829	-0.232361	0.4282	0.465108	0.697274	-0.008786	0.490479	0.116208	0.730771	0.432446	1.10283	0.633849	1.31808	-0.71029	-0.272508	-0.598251	0.281959	
0.755434	5.54657	0	0	0.662388	0.709268	0.254574	0.320929	0.736996	0.592135	0.956003	0.312655	0.515122	0.349789	0.326346	0.482539	0.690824	-0.414928	0.149253	0.546578	-0.221355	0.461135	0.478236	0.726746	-0.002659	0.518759	0.126863	0.762605	0.427232	1.13488	0.641069	1.34959	-0.689609	-0.286022	-0.613838	0.295148	
0.763312	5.54199	0	0	0.672413	0.712965	0.247889	0.33982	0.735553	0.621763	0.959033	0.337944	0.519895	0.372134	0.333897	0.513594	0.712479	-0.427434	0.154966	0.568328	-0.210348	0.494071	0.491363	0.756217	0.003468	0.547038	0.137519	0.794438	0.422018	1.16694	0.648288	1.38111	-0.668927	-0.299536	-0.629425	0.308337	
0.770964	5.54504	0	0	0.682439	0.716661	0.241205	0.358711	0.734109	0.651392	0.962064	0.363234	0.524669	0.394478	0.341447	0.544649	0.734134	-0.43994	0.160679	0.590077	-0.199341	0.527006	0.50449	0.785689	0.009595	0.575317	0.148174	0.826272	0.416805	1.19899	0.655508	1.41262	-0.648246	-0.313049	-0.645012	0.321526	
0.778251	5.54199	0	0	0.662973	0.739643	0.229982	0.373317	0.737732	0.666737	0.957488	0.376167	0.52666	0.406797	0.343959	0.555046	0.749108	-0.449724	0.164103	0.603174	-0.189553	0.552882	0.511774	0.812799	0.0130788	0.599741	0.143976	0.858831	0.411544	1.23119	0.655509	1.45165	-0.717765	-0.25106	-0.656257	0.337894	
0.784875	5.54504	0	0	0.643508	0.762625	0.218759	0.387923	0.741356	0.682082	0.952912	0.389101	0.52865	0.419115	0.346471	0.565442	0.764081	-0.459508	0.167527	0.616272	-0.179766	0.578758	0.519058	0.839909	0.0165625	0.624165	0.139778	0.891391	0.406282	1.26339	0.655509	1.49069	-0.787284	-0.189071	-0.667502	0.354262	
0.790507	5.54657	0	0	0.624043	0.785607	0.207536	0.40253	0.744979	0.697427	0.948335	0.402035	0.53064	0.431433	0.348984	0.575838	0.779055	-0.469293	0.170951	0.62937	-0.169979	0.604635	0.526343	0.867019	0.0200462	0.648589	0.13558	0.923951	0.401021	1.2956	0.65551	1.52972	-0.856802	-0.127082	-0.678747	0.37063	
0.794819	5.54504	0	0	0.604577	0.808589	0.196313	0.417136	0.748602	0.712772	0.943759	0.414968	0.532631	0.443752	0.351496	0.586235	0.794029	-0.479077	0.174375	0.642467	-0.160191	0.630511	0.533627	0.894129	0.02353	0.673013	0.131382	0.95651	0.39576	1.3278	0.655511	1.56875	-0.926321	-0.065093	-0.689992	0.386998	
0.797486	5.55115	0	0	0.614588	0.812325	0.192962	0.426606	0.755052	0.732987	0.951344	0.427447	0.542105	0.452915	0.360222	0.596617	0.809786	-0.491016	0.18287	0.648867	-0.157492	0.655081	0.54043	0.913149	0.026136	0.68853	0.137215	0.971112	0.395292	1.34648	0.657886	1.58811	-0.910832	-0.0641492	-0.70001	0.384524	
0.798179	5.54962	0	0	0.6246	0.816061	0.189611	0.436077	0.761502	0.753202	0.958929	0.439925	0.55158	0.462079	0.368949	0.606999	0.825542	-0.502956	0.191366	0.655267	-0.154794	0.67965	0.547233	0.93217	0.028742	0.704047	0.143047	0.985714	0.394823	1.36515	0.66026	1.60746	-0.895342	-0.0632055	-0.710028	0.38205	
0.796651	5.55572	0	0	0.634611	0.819798	0.186261	0.445547	0.767951	0.773418	0.966515	0.452404	0.561054	0.471242	0.377675	0.617381	0.841298	-0.514896	0.199861	0.661667	-0.152095	0.704219	0.554035	0.951191	0.031348	0.719563	0.14888	1.00032	0.394355	1.38382	0.662635	1.62682	-0.879852	-0.0622617	-0.720046	0.379575	
0.793361	5.55878	0	0	0.644623	0.823534	0.18291	0.455018	0.774401	0.793633	0.9741	0.464883	0.570528	0.480405	0.386401	0.627763	0.857055	-0.526835	0.208357	0.668067	-0.149396	0.728789	0.560838	0.970211	0.033954	0.73508	0.154713	1.01492	0.393887	1.4025	0.66501	1.64618	-0.864363	-0.061318	-0.730064	0.377101	
0.789137	5.56335	0	0	0.642255	0.830226	0.177877	0.469243	0.772104	0.812955	0.963753	0.494126	0.568374	0.49549	0.38924	0.646066	0.860809	-0.529288	0.203282	0.674801	-0.138016	0.739643	0.568157	0.978262	0.04183	0.747196	0.159483	1.03258	0.397039	1.41096	0.657773	1.66663	-0.861816	-0.0685173	-0.741445	0.378531	
0.78481	5.55878	0	0	0.639887	0.836919	0.172843	0.483467	0.769808	0.832278	0.953405	0.52337	0.566219	0.510574	0.392079	0.664369	0.864563	-0.531741	0.198208	0.681535	-0.126636	0.750497	0.575476	0.986312	0.049706	0.759313	0.164253	1.05023	0.400191	1.41942	0.650537	1.68708	-0.859268	-0.0757165	-0.752827	0.379961	
0.781213	5.56183	0	0	0.637519	0.843611	0.16781	0.497692	0.767512	0.8516	0.943057	0.552613	0.564064	0.525659	0.394918	0.682672	0.868317	-0.534194	0.193134	0.688269	-0.115257	0.761351	0.582795	0.994363	0.057582	0.771429	0.169023	1.06789	0.403342	1.42787	0.6433	1.70753	-0.856721	-0.0829157	-0.764208	0.381391	
0.779176	5.56335	0	0	0.635151	0.850303	0.162777	0.511916	0.765215	0.870922	0.93271	0.581857	0.56191	0.540743	0.397757	0.700975	0.872071	-0.536647	0.188059	0.695003	-0.103877	0.772205	0.590114	1.00241	0.065458	0.783545	0.173793	1.08555	0.406494	1.43633	0.636063	1.72798	-0.854174	-0.090115	-0.775589	0.382821	
0.779499	5.56183	0	0	0.620409	0.859936	0.158265	0.507572	0.762134	0.87963	0.93792	0.578453	0.558557	0.541223	0.396502	0.695741	0.868317	-0.534194	0.182282	0.688528	-0.103877	0.772205	0.593069	0.994064	0.065458	0.783545	0.172204	1.07965	0.398501	1.44156	0.632439	1.73823	-0.887659	-0.0848123	-0.784189	0.376443	
0.782246	5.56183	0	0	0.605668	0.869568	0.153753	0.503228	0.759052	0.888339	0.943129	0.575048	0.555204	0.541702	0.395247	0.690507	0.864563	-0.531741	0.176505	0.682053	-0.103877	0.772205	0.596024	0.985713	0.065458	0.783545	0.170614	1.07376	0.390508	1.44678	0.628814	1.74847	-0.921144	-0.0795095	-0.79279	0.370065	
0.786772	5.5603	0	0	0.590926	0.879201	0.149241	0.498883	0.75597	0.897047	0.948339	0.571644	0.551852	0.542182	0.393993	0.685273	0.860809	-0.529288	0.170728	0.675578	-0.103877	0.772205	0.598978	0.977363	0.065458	0.783545	0.169024	1.06787	0.382515	1.452	0.62519	1.75871	-0.954629	-0.0742068	-0.801391	0.363687	
0.792401	5.5542	0	0	0.576184	0.888834	0.144729	0.494539	0.752889	0.905756	0.953549	0.56824	0.548499	0.542662	0.392738	0.680039	0.857055	-0.526835	0.164951	0.669103	-0.103877	0.772205	0.601933	0.969013	0.065458	0.783545	0.167435	1.06197	0.374522	1.45722	0.621565	1.76896	-0.988114	-0.068904	-0.809991	0.357309	
0.798461	5.5542	0	0	0.580918	0.875455	0.138545	0.494937	0.756743	0.907705	0.948339	0.571644	0.546722	0.538692	0.390555	0.677432	0.849552	-0.521932	0.156119	0.656122	-0.109102	0.765452	0.595591	0.958202	0.0566748	0.785445	0.164783	1.05909	0.363399	1.45397	0.617981	1.76605	-1.00099	-0.0770305	-0.827152	0.344589	
0.804275	5.55267	0	0	0.585652	0.862075	0.13236	0.495334	0.760598	0.909653	0.943129	0.575048	0.544945	0.534722	0.388373	0.674826	0.842048	-0.51703	0.147286	0.643141	-0.114327	0.7587	0.589249	0.94739	0.0478915	0.787344	0.162131	1.05621	0.352277	1.45072	0.614397	1.76314	-1.01386	-0.085157	-0.844313	0.331869	
0.80917	5.54962	0	0	0.590386	0.848696	0.126176	0.495731	0.764452	0.911601	0.93792	0.578453	0.543169	0.530753	0.38619	0.672219	0.834545	-0.512127	0.138454	0.63016	-0.119553	0.751947	0.582906	0.936578	0.0391083	0.789243	0.159479	1.05332	0.341155	1.44747	0.610813	1.76023	-1.02673	-0.0932835	-0.861473	0.319149	
0.812643	5.54352	0	0	0.59512	0.835317	0.119992	0.496129	0.768306	0.91355	0.93271	0.581857	0.541392	0.526783	0.384007	0.669613	0.827042	-0.507224	0.129622	0.617179	-0.124778	0.745194	0.576564	0.925767	0.030325	0.791143	0.156827	1.05044	0.330032	1.44422	0.607229	1.75732	-1.0396	-0.10141	-0.878634	0.306429	
0.814807	5.53894	0	0	0.582768	0.838251	0.11099	0.487457	0.759574	0.912557	0.930956	0.5755	0.531147	0.519814	0.379644	0.664405	0.804571	-0.492541	0.115047	0.597822	-0.132141	0.733769	0.565353	0.909656	0.0268208	0.789595	0.156827	1.05044	0.326895	1.43577	0.608437	1.75391	-1.03201	-0.122869	-0.88171	0.284589	
0.81591	5.54047	0	0	0.570415	0.841185	0.101988	0.478785	0.750841	0.911563	0.929203	0.569144	0.520903	0.512845	0.375281	0.659198	0.782101	-0.477858	0.100473	0.578466	-0.139504	0.722344	0.554142	0.893545	0.0233165	0.788047	0.156827	1.05044	0.323758	1.42732	0.609644	1.75049	-1.02442	-0.144328	-0.884787	0.262749	
0.816198	5.54047	0	0	0.558063	0.844119	0.092986	0.470114	0.742109	0.91057	0.92745	0.562787	0.510658	0.505876	0.370918	0.653991	0.759631	-0.463176	0.0858985	0.559109	-0.146866	0.710919	0.542931	0.877434	0.0198122	0.786498	0.156827	1.05044	0.320621	1.41887	0.610851	1.74708	-1.01682	-0.165787	-0.887863	0.240909	
0.815921	5.53589	0	0	0.545711	0.847053	0.083984	0.461442	0.733376	0.909577	0.925696	0.556431	0.500413	0.498907	0.366555	0.648783	0.73716	-0.448493	0.071324	0.539752	-0.154229	0.699494	0.53172	0.861323	0.016308	0.78495	0.156827	1.05044	0.317484	1.41041	0.612059	1.74367	-1.00923	-0.187246	-0.890939	0.219069	
0.815326	5.53131	0	0	0.538102	0.836637	0.0844978	0.442958	0.726708	0.902782	0.91699	0.54714	0.490766	0.481365	0.361534	0.627945	0.71848	-0.436287	0.0572007	0.511786	-0.165863	0.678775	0.521021	0.834367	0.009333	0.770351	0.148349	1.03294	0.305668	1.39195	0.60493	1.72475	-0.999136	-0.215778	-0.912304	0.203333	
0.814656	5.52826	0	0	0.530493	0.82622	0.0850115	0.424473	0.720041	0.895987	0.908284	0.537848	0.48112	0.463823	0.356514	0.607107	0.6998	-0.424081	0.0430775	0.48382	-0.177498	0.658057	0.510323	0.807411	0.002358	0.755752	0.139871	1.01544	0.293852	1.37348	0.597801	1.70584	-0.98904	-0.24431	-0.933669	0.187597	
0.814058	5.52826	0	0	0.522884	0.815803	0.0855252	0.405989	0.713373	0.889193	0.899578	0.528557	0.471473	0.44628	0.351494	0.586269	0.681119	-0.411875	0.0289543	0.455853	-0.189132	0.637338	0.499624	0.780454	-0.004617	0.741153	0.131394	0.997937	0.282037	1.35502	0.590672	1.68693	-0.978945	-0.272843	-0.955033	0.171861	
0.813587	5.52521	0	0	0.515275	0.805387	0.086039	0.387504	0.706706	0.882398	0.890872	0.519266	0.461826	0.428738	0.346473	0.565431	0.662439	-0.399669	0.014831	0.427887	-0.200766	0.616619	0.488925	0.753498	-0.011592	0.726554	0.122916	0.980437	0.270221	1.33655	0.583543	1.66802	-0.968849	-0.301375	-0.976398	0.156125	
0.813294	5.52215	0	0	0.507675	0.794999	0.0753827	0.383601	0.703888	0.877557	0.887973	0.516174	0.451411	0.413475	0.344543	0.544657	0.637111	-0.384763	0.00109325	0.406581	-0.215444	0.593986	0.472895	0.732299	-0.0203193	0.71697	0.120793	0.965742	0.263954	1.31977	0.571614	1.66275	-1.02246	-0.282752	-0.980838	0.138315	
0.813232	5.52063	0	0	0.500076	0.78461	0.0647265	0.379697	0.70107	0.872717	0.885074	0.513082	0.440995	0.398213	0.342614	0.523883	0.611783	-0.369856	-0.0126445	0.385275	-0.230122	0.571352	0.456865	0.711099	-0.0290465	0.707385	0.118669	0.951048	0.257688	1.30299	0.559685	1.65748	-1.07607	-0.264128	-0.985279	0.120506	
0.813452	5.51758	0	0	0.492476	0.774222	0.0540703	0.375794	0.698251	0.867877	0.882175	0.509991	0.43058	0.382951	0.340684	0.50311	0.586455	-0.354949	-0.0263822	0.363968	-0.2448	0.548718	0.440834	0.6899	-0.0377738	0.697801	0.116546	0.936354	0.251422	1.28621	0.547755	1.65222	-1.12967	-0.245505	-0.98972	0.102696	
0.814006	5.5191	0	0	0.484876	0.763834	0.043414	0.37189	0.695433	0.863036	0.879276	0.506899	0.420165	0.367688	0.338754	0.482336	0.561127	-0.340043	-0.04012	0.342662	-0.259478	0.526085	0.424804	0.668701	-0.046501	0.688216	0.114423	0.921659	0.245155	1.26943	0.535826	1.64695	-1.18328	-0.226882	-0.99416	0.084886	
0.814895	5.51453	0	0	0.491927	0.743907	0.0422523	0.358187	0.696708	0.846637	0.879204	0.484554	0.411321	0.348091	0.324431	0.461761	0.538076	-0.323337	-0.0588108	0.328068	-0.275966	0.508786	0.406885	0.653077	-0.0543385	0.67618	0.0996265	0.922154	0.244416	1.25429	0.533455	1.64068	-1.15291	-0.268545	-0.997062	0.0779248	
0.815931	5.513	0	0	0.498978	0.723981	0.0410905	0.344484	0.697982	0.830238	0.879132	0.462209	0.402477	0.328494	0.310109	0.441186	0.515024	-0.306632	-0.0775015	0.313475	-0.292454	0.491487	0.388966	0.637453	-0.062176	0.664143	0.08483	0.92265	0.243677	1.23916	0.531084	1.6344	-1.12253	-0.310208	-0.999963	0.0709635	
0.816875	5.51605	0	0	0.506029	0.704054	0.0399287	0.330782	0.699257	0.813839	0.87906	0.439863	0.393633	0.308897	0.295786	0.420611	0.491972	-0.289926	-0.0961923	0.298882	-0.308941	0.474187	0.371046	0.621829	-0.0700135	0.652107	0.0700335	0.923146	0.242937	1.22403	0.528714	1.62813	-1.09215	-0.351871	-1.00286	0.0640023	
0.81749	5.50842	0	0	0.51308	0.684127	0.038767	0.317079	0.700532	0.79744	0.878988	0.417518	0.384789	0.2893	0.281463	0.400036	0.468921	-0.27322	-0.114883	0.284288	-0.325429	0.456888	0.353127	0.606205	-0.077851	0.640071	0.055237	0.923641	0.242198	1.2089	0.526343	1.62185	-1.06177	-0.393534	-1.00577	0.057041	
0.81754	5.5069	0	0	0.500785	0.687061	0.0420898	0.307688	0.698733	0.789737	0.875474	0.404926	0.37871	0.279777	0.277686	0.384606	0.458552	-0.268088	-0.11905	0.273647	-0.335782	0.443671	0.342501	0.598476	-0.087428	0.633014	0.0494277	0.909128	0.226827	1.20077	0.523995	1.60257	-1.05676	-0.407687	-1.02124	0.0553595	
0.816787	5.50842	0	0	0.488491	0.689995	0.0454125	0.298297	0.696934	0.782033	0.87196	0.392334	0.372631	0.270254	0.273908	0.369177	0.448182	-0.262956	-0.123217	0.263006	-0.346135	0.430454	0.331875	0.590747	-0.097005	0.625957	0.0436185	0.894616	0.211456	1.19264	0.521647	1.58328	-1.05176	-0.42184	-1.03671	0.053678	
0.815005	5.50384	0	0	0.476196	0.69293	0.0487353	0.288907	0.695134	0.77433	0.868447	0.379741	0.366552	0.26073	0.270131	0.353747	0.437812	-0.257823	-0.127384	0.252364	-0.356487	0.417236	0.321248	0.583017	-0.106582	0.618899	0.0378093	0.880103	0.196085	1.1845	0.519299	1.56399	-1.04675	-0.435993	-1.05218	0.0519965	
0.81223	5.50079	0	0	0.463902	0.695864	0.052058	0.279516	0.693335	0.766626	0.864933	0.367149	0.360473	0.251207	0.266354	0.338317	0.427443	-0.252691	-0.131551	0.241723	-0.36684	0.404019	0.310622	0.575288	-0.116159	0.611842	0.032	0.86559	0.180714	1.17637	0.516951	1.5447	-1.04174	-0.450146	-1.06766	0.050315	
0.808775	5.49927	0	0	0.463902	0.695864	0.044247	0.28462	0.695377	0.760857	0.860895	0.367309	0.35539	0.247791	0.265094	0.333185	0.415575	-0.243293	-0.134219	0.241798	-0.372927	0.40002	0.309172	0.569956	-0.117891	0.605377	0.0314647	0.856804	0.184292	1.16626	0.507428	1.54573	-1.04174	-0.450146	-1.06495	0.0426557	
0.804968	5.50079	0	0	0.463902	0.695864	0.036436	0.289724	0.697418	0.755088	0.856858	0.36747	0.350308	0.244374	0.263834	0.328053	0.403707	-0.233895	-0.136888	0.241873	-0.379014	0.39602	0.307723	0.564625	-0.119623	0.598912	0.0309295	0.848017	0.18787	1.15615	0.497905	1.54676	-1.04174	-0.450146	-1.06224	0.0349965	
0.801134	5.49469	0	0	0.463902	0.695864	0.028625	0.294827	0.69946	0.749318	0.85282	0.36763	0.345225	0.240957	0.262574	0.322921	0.39184	-0.224497	-0.139556	0.241948	-0.3851	0.392021	0.306273	0.559293	-0.121356	0.592447	0.0303943	0.839231	0.191448	1.14604	0.488381	1.54779	-1.04174	-0.450146	-1.05953	0.0273373	
0.797601	5.49927	0	5	0.463902	0.695864	0.020814	0.299931	0.701501	0.743549	0.848783	0.36779	0.340143	0.237541	0.261314	0.317789	0.379972	-0.215099	-0.142225	0.242023	-0.391187	0.388022	0.304823	0.553962	-0.123088	0.585982	0.029859	0.830445	0.195026	1.13593	0.478858	1.54881	-1.04174	-0.450146	-1.05682	0.019678	
0.794695	5.49469	0	5	0.478543	0.686297	0.0241333	0.29055	0.699698	0.735865	0.84124	0.355397	0.339152	0.231457	0.259704	0.304965	0.383674	-0.217518	-0.136887	0.241873	-0.393311	0.383434	0.304823	0.553962	-0.128298	0.578007	0.027189	0.807128	0.197409	1.12919	0.47293	1.53972	-1.03924	-0.457214	-1.06377	0.0242228	
0.792618	5.49927	0	5	0.493185	0.676731	0.0274525	0.281169	0.697895	0.728182	0.833696	0.343003	0.338161	0.225374	0.258093	0.292141	0.387376	-0.219937	-0.131548	0.241723	-0.395435	0.378846	0.304823	0.553962	-0.133509	0.570032	0.024519	0.78381	0.199792	1.12246	0.467002	1.53062	-1.03674	-0.464282	-1.07073	0.0287675	
0.791218	5.5069	0	5	0.507826	0.667164	0.0307718	0.271789	0.696092	0.720498	0.826153	0.33061	0.33717	0.21929	0.256483	0.279316	0.391078	-0.222356	-0.12621	0.241572	-0.39756	0.374257	0.304823	0.553962	-0.138719	0.562056	0.021849	0.760493	0.202175	1.11572	0.461074	1.52152	-1.03424	-0.47135	-1.07768	0.0333123	
0.790286	5.5069	0	5	0.522467	0.657597	0.034091	0.262408	0.694289	0.712814	0.81861	0.318216	0.336179	0.213206	0.254873	0.266492	0.39478	-0.224775	-0.120872	0.241422	-0.399684	0.369669	0.304823	0.553962	-0.143929	0.554081	0.019179	0.737176	0.204558	1.10899	0.455146	1.51242	-1.03174	-0.478418	-1.08464	0.037857	
0.78961	5.50995	0	5	0.52012	0.66423	0.034091	0.262408	0.694289	0.712814	0.826053	0.308412	0.337945	0.2171	0.254873	0.266492	0.401433	-0.227478	-0.115932	0.249889	-0.401517	0.374851	0.3082	0.553848	-0.143057	0.551616	0.0139065	0.731531	0.202175	1.11572	0.457531	1.50568	-1.05207	-0.465129	-1.08328	0.03403	
0.788979	5.513	0	5	0.517773	0.670862	0.034091	0.262408	0.694289	0.712814	0.833496	0.298607	0.339711	0.220994	0.254873	0.266492	0.408085	-0.230181	-0.110993	0.258356	-0.403351	0.380032	0.311576	0.553734	-0.142184	0.549152	0.008634	0.725885	0.199792	1.12246	0.459916	1.49894	-1.07241	-0.45184	-1.08193	0.030203	
0.788182	5.51758	0	5	0.515427	0.677494	0.034091	0.262408	0.694289	0.712814	0.840939	0.288803	0.341476	0.224888	0.254873	0.266492	0.414738	-0.232884	-0.106053	0.266824	-0.405185	0.385214	0.314952	0.55362	-0.141312	0.546687	0.0033615	0.720239	0.197409	1.12919	0.462301	1.4922	-1.09275	-0.43855	-1.08058	0.026376	
0.787033	5.52521	0	5	0.51308	0.684127	0.034091	0.262408	0.694289	0.712814	0.848382	0.278998	0.343242	0.228782	0.254873	0.266492	0.421391	-0.235587	-0.101114	0.275291	-0.407018	0.390396	0.318329	0.553506	-0.14044	0.544222	-0.001911	0.714594	0.195026	1.13593	0.464686	1.48546	-1.11309	-0.425261	-1.07922	0.022549	
0.785539	5.52826	0	5	0.510732	0.690764	0.0296033	0.258136	0.692485	0.705142	0.839072	0.260429	0.344017	0.226593	0.250878	0.269103	0.425855	-0.240148	-0.0973057	0.279494	-0.400936	0.394396	0.31978	0.558839	-0.142184	0.549152	-0.00400225	0.720504	0.204877	1.14245	0.469441	1.48495	-1.09775	-0.424408	-1.07227	0.018004	
0.783783	5.53589	0	5	0.508383	0.697402	0.0251155	0.253864	0.690681	0.69747	0.829762	0.24186	0.344791	0.224404	0.246882	0.271713	0.430318	-0.244708	-0.0934975	0.283698	-0.394853	0.398396	0.32123	0.564172	-0.143929	0.554082	-0.0060935	0.726414	0.214728	1.14898	0.474195	1.48443	-1.08242	-0.423556	-1.06531	0.013459	
0.78185	5.53894	0	5	0.506034	0.704039	0.0206278	0.249592	0.688877	0.689799	0.820452	0.22329	0.345565	0.222214	0.242887	0.274324	0.434781	-0.249269	-0.0896892	0.287902	-0.388771	0.402395	0.322681	0.569504	-0.145674	0.559012	-0.00818475	0.732325	0.224578	1.1555	0.47895	1.48391	-1.06709	-0.422704	-1.05836	0.008914	
0.779825	5.54047	0	5	0.503686	0.710676	0.01614	0.24532	0.687073	0.682127	0.811142	0.204721	0.34634	0.220025	0.238891	0.276935	0.439245	-0.253829	-0.085881	0.292105	-0.382689	0.406395	0.324132	0.574837	-0.147418	0.563942	-0.010276	0.738235	0.234429	1.16203	0.483705	1.4834	-1.05175	-0.421851	-1.0514	0.004369	
0.777795	5.54047	0	5	0.503686	0.710676	0.0116555	0.241054	0.689108	0.676377	0.812774	0.188905	0.354524	0.214678	0.238541	0.269247	0.446664	-0.258677	-0.0751707	0.291805	-0.383607	0.40899	0.328476	0.571999	-0.146546	0.561477	-0.0160845	0.723873	0.234429	1.16203	0.486094	1.46372	-1.05175	-0.421851	-1.04869	-0.00328025	
0.775842	5.54504	0	5	0.503686	0.710676	0.007171	0.236787	0.691142	0.670626	0.814406	0.17309	0.362707	0.209331	0.238191	0.261559	0.454083	-0.263525	-0.0644605	0.291505	-0.384525	0.411585	0.33282	0.56916	-0.145674	0.559011	-0.021893	0.709511	0.234429	1.16203	0.488483	1.44405	-1.05175	-0.421851	-1.04599	-0.0109295	
0.774032	5.54962	0	5	0.503686	0.710676	0.0026865	0.232521	0.693177	0.664875	0.816038	0.157274	0.370891	0.203983	0.237841	0.253871	0.461502	-0.268372	-0.0537502	0.291205	-0.385444	0.41418	0.337164	0.566322	-0.144801	0.556546	-0.0277015	0.695149	0.234429	1.16203	0.490873	1.42438	-1.05175	-0.421851	-1.04328	-0.0185787	
0.772416	5.5603	0	5	0.503686	0.710676	-0.001798	0.228254	0.695212	0.659125	0.81767	0.141458	0.379075	0.198636	0.237491	0.246183	0.468921	-0.27322	-0.04304	0.290905	-0.386362	0.416775	0.341508	0.563484	-0.143929	0.554081	-0.03351	0.680787	0.234429	1.16203	0.493262	1.4047	-1.05175	-0.421851	-1.04057	-0.026228	
0.771044	5.57403	0	5	0.501336	0.717318	0.004343	0.227839	0.703919	0.660068	0.820565	0.144479	0.382395	0.19815	0.241485	0.243573	0.480818	-0.282637	-0.0384493	0.292933	-0.385157	0.423974	0.342961	0.568821	-0.142197	0.560534	-0.0345535	0.683736	0.237567	1.17036	0.499209	1.40082	-1.05927	-0.400596	-1.03361	-0.0307765	
0.769968	5.5954	0	5	0.498985	0.723961	0.010484	0.227424	0.712625	0.661012	0.82346	0.1475	0.385715	0.197663	0.245479	0.240964	0.492714	-0.292054	-0.0338585	0.294961	-0.383952	0.431172	0.344413	0.574158	-0.140466	0.566987	-0.035597	0.686685	0.240706	1.1787	0.505155	1.39693	-1.06679	-0.379341	-1.02665	-0.035325	
0.769237	5.61676	0	5	0.496635	0.730603	0.016625	0.227008	0.721332	0.661956	0.826356	0.150521	0.389036	0.197177	0.249472	0.238355	0.504611	-0.301471	-0.0292678	0.29699	-0.382747	0.43837	0.345865	0.579495	-0.138734	0.57344	-0.0366405	0.689633	0.243845	1.18703	0.511102	1.39305	-1.07431	-0.358087	-1.01969	-0.0398735	
0.768896	5.64117	0	5	0.494285	0.737245	0.022766	0.226593	0.730038	0.662899	0.829251	0.153542	0.392356	0.19669	0.253466	0.235745	0.516508	-0.310888	-0.024677	0.299018	-0.381542	0.445569	0.347318	0.584832	-0.137002	0.579893	-0.037684	0.692582	0.246983	1.19537	0.517049	1.38916	-1.08184	-0.336832	-1.01273	-0.044422	
0.768815	5.65948	0	5	0.494285	0.737245	0.016625	0.227008	0.726192	0.66099	0.836029	0.134385	0.39313	0.194501	0.252202	0.230639	0.520224	-0.313316	-0.022766	0.301123	-0.384301	0.453367	0.345388	0.590288	-0.139623	0.587299	-0.0444885	0.701565	0.248924	1.20711	0.518239	1.39873	-1.06647	-0.335955	-1.0195	-0.0252863	
0.768661	5.67474	0	5	0.494285	0.737245	0.010484	0.227424	0.722345	0.65908	0.842808	0.115228	0.393905	0.192311	0.250939	0.225533	0.523941	-0.315745	-0.020855	0.303229	-0.387061	0.461166	0.343457	0.595743	-0.142244	0.594705	-0.051293	0.710547	0.250864	1.21885	0.519429	1.40829	-1.05111	-0.335078	-1.02627	-0.0061505	
0.768091	5.69305	0	5	0.494285	0.737245	0.004343	0.227839	0.718499	0.657171	0.849587	0.0960702	0.39468	0.190122	0.249675	0.220427	0.527658	-0.318173	-0.018944	0.305335	-0.38982	0.468965	0.341527	0.601198	-0.144864	0.602111	-0.0580975	0.71953	0.252804	1.23059	0.52062	1.41786	-1.03575	-0.3342	-1.03304	0.0129852	
0.766761	5.70221	0	5	0.494285	0.737245	-0.001798	0.228254	0.714653	0.655262	0.856365	0.076913	0.395454	0.187933	0.248411	0.215321	0.531374	-0.320602	-0.017033	0.30744	-0.392579	0.476763	0.339597	0.606654	-0.147485	0.609517	-0.064902	0.728513	0.254745	1.24232	0.52181	1.42742	-1.02039	-0.333323	-1.03981	0.032121	
0.764327	5.70831	0	5	0.494285	0.737245	-0.000143	0.223577	0.712618	0.661015	0.856365	0.076913	0.4021	0.186957	0.250585	0.217854	0.535092	-0.323032	-0.0112967	0.313764	-0.3935	0.479364	0.350716	0.603585	-0.149233	0.614458	-0.0617707	0.719664	0.259082	1.2473	0.525381	1.41733	-1.0229	-0.326215	-1.03149	0.0237385	
0.760454	5.71594	0	5	0.494285	0.737245	0.001512	0.2189	0.710582	0.666767	0.856365	0.076913	0.408747	0.18598	0.252759	0.220388	0.538811	-0.325461	-0.0055605	0.320087	-0.39442	0.481965	0.361836	0.600516	-0.150981	0.619399	-0.0586395	0.710814	0.263418	1.25229	0.528952	1.40724	-1.02542	-0.319108	-1.02317	0.015356	
0.755122	5.71442	0	5	0.494285	0.737245	0.003167	0.214223	0.708546	0.672519	0.856365	0.076913	0.415393	0.185004	0.254933	0.222921	0.542529	-0.327891	0.00017575	0.326411	-0.39534	0.484566	0.372955	0.597447	-0.15273	0.62434	-0.0555083	0.701964	0.267755	1.25727	0.532524	1.39715	-1.02793	-0.312001	-1.01485	0.0069735	
0.748785	5.71594	0	5	0.494285	0.737245	0.004822	0.209546	0.706511	0.678272	0.856365	0.076913	0.422039	0.184028	0.257107	0.225454	0.546247	-0.330321	0.005912	0.332735	-0.396261	0.487167	0.384075	0.594378	-0.154478	0.629281	-0.052377	0.693115	0.272092	1.26225	0.536095	1.38705	-1.03045	-0.304893	-1.00652	-0.001409	
0.741931	5.70679	0	5	0.489579	0.750545	-0.00014525	0.223584	0.707299	0.688826	0.858777	0.0925228	0.424813	0.194011	0.266723	0.233027	0.556655	-0.335478	0.0120195	0.345564	-0.390176	0.491195	0.386017	0.607818	-0.142291	0.628921	-0.0507915	0.698883	0.275231	1.27063	0.538479	1.39325	-1.01505	-0.304014	-1.00924	0.00625325	
0.735052	5.70221	0	5	0.484873	0.763844	-0.0051125	0.237622	0.708086	0.69938	0.86119	0.108132	0.427588	0.203993	0.276339	0.2406	0.567063	-0.340635	0.018127	0.358393	-0.384091	0.495223	0.38796	0.621257	-0.130105	0.628561	-0.049206	0.70465	0.278369	1.27902	0.540863	1.39946	-0.999647	-0.303134	-1.01195	0.0139155	
0.728638	5.6961	0	5	0.480167	0.777143	-0.0100797	0.25166	0.708873	0.709934	0.863602	0.123742	0.430362	0.213975	0.285955	0.248173	0.577471	-0.345793	0.0242345	0.371222	-0.378005	0.499252	0.389902	0.634696	-0.117918	0.628202	-0.0476205	0.710417	0.281508	1.2874	0.543247	1.40566	-0.984248	-0.302254	-1.01466	0.0215777	
0.723164	5.68695	0	5	0.475461	0.790443	-0.015047	0.265698	0.709661	0.720488	0.866014	0.139352	0.433136	0.223958	0.295571	0.255746	0.587879	-0.35095	0.030342	0.384051	-0.37192	0.50328	0.391844	0.648136	-0.105731	0.627842	-0.046035	0.716185	0.284647	1.29578	0.545631	1.41186	-0.968849	-0.301375	-1.01737	0.02924	
0.718851	5.68237	0	5	0.487772	0.787517	-0.02118	0.266106	0.709661	0.720488	0.868276	0.132959	0.435688	0.225664	0.299574	0.25313	0.590847	-0.351245	0.0368658	0.388213	-0.375609	0.513704	0.393781	0.661611	-0.116219	0.646116	-0.0559775	0.734035	0.27743	1.31618	0.544435	1.42819	-0.996853	-0.266632	-1.01583	0.040029	
0.715685	5.67779	0	5	0.500082	0.784591	-0.027313	0.266514	0.709661	0.720488	0.870538	0.126566	0.43824	0.227371	0.303577	0.250515	0.593816	-0.351541	0.0433895	0.392376	-0.379297	0.524127	0.395717	0.675086	-0.126708	0.66439	-0.06592	0.751886	0.270212	1.33658	0.54324	1.44451	-1.02486	-0.231888	-1.01428	0.050818	
0.713647	5.67169	0	5	0.512393	0.781665	-0.033446	0.266923	0.709661	0.720488	0.8728	0.120174	0.440792	0.229077	0.30758	0.247899	0.596784	-0.351836	0.0499132	0.396538	-0.382985	0.534551	0.397653	0.68856	-0.137196	0.682664	-0.0758625	0.769737	0.262995	1.35697	0.542045	1.46084	-1.05286	-0.197145	-1.01274	0.061607	
0.712717	5.66711	0	5	0.524704	0.778739	-0.039579	0.267331	0.709661	0.720488	0.875062	0.113781	0.443344	0.230784	0.311583	0.245284	0.599752	-0.352132	0.056437	0.400701	-0.386674	0.544975	0.39959	0.702035	-0.147684	0.700938	-0.085805	0.787587	0.255778	1.37737	0.540849	1.47716	-1.08086	-0.162402	-1.0112	0.072396	
0.712875	5.65948	0	5	0.505321	0.801651	-0.0351035	0.271607	0.711465	0.728177	0.882003	0.116619	0.445897	0.232491	0.315945	0.250364	0.611692	-0.361578	0.061414	0.409262	-0.385478	0.552216	0.402493	0.712798	-0.145084	0.704956	-0.0821345	0.787462	0.261317	1.37899	0.540849	1.47716	-1.06043	-0.175755	-1.01681	0.073113	
0.714064	5.65643	0	5	0.485938	0.824564	-0.030628	0.275883	0.71327	0.735866	0.888943	0.119457	0.44845	0.234198	0.320306	0.255444	0.623633	-0.371024	0.066391	0.417822	-0.384281	0.559458	0.405396	0.723561	-0.142483	0.708974	-0.078464	0.787336	0.266856	1.3806	0.540849	1.47716	-1.03999	-0.189107	-1.02243	0.07383	
0.715983	5.65643	0	5	0.466556	0.847476	-0.0261525	0.280159	0.715074	0.743554	0.895884	0.122295	0.451003	0.235906	0.324668	0.260525	0.635574	-0.38047	0.071368	0.426383	-0.383085	0.5667	0.408299	0.734324	-0.139883	0.712993	-0.0747935	0.787211	0.272395	1.38222	0.540849	1.47716	-1.01956	-0.20246	-1.02804	0.074547	
0.718236	5.64575	0	5	0.447173	0.870389	-0.021677	0.284435	0.716878	0.751243	0.902825	0.125133	0.453556	0.237613	0.32903	0.265605	0.647514	-0.389916	0.076345	0.434944	-0.381889	0.573941	0.411202	0.745087	-0.137283	0.717011	-0.071123	0.787086	0.277934	1.38383	0.540849	1.47716	-0.999124	-0.215813	-1.03365	0.075264	
0.720424	5.63965	0	5	0.457116	0.874155	-0.0327843	0.298901	0.717658	0.761834	0.904105	0.143998	0.456331	0.247627	0.333749	0.27841	0.650489	-0.390216	0.0778485	0.445795	-0.380694	0.581193	0.415077	0.753123	-0.134681	0.721033	-0.06587	0.792753	0.279858	1.39568	0.542034	1.48677	-1.00418	-0.201524	-1.03501	0.0791027	
0.722151	5.6366	0	5	0.467059	0.87792	-0.0438915	0.313367	0.718439	0.772424	0.905385	0.162862	0.459106	0.257641	0.338468	0.291215	0.653463	-0.390516	0.079352	0.456646	-0.3795	0.588445	0.418952	0.761159	-0.13208	0.725056	-0.060617	0.798421	0.281783	1.40753	0.543219	1.49638	-1.00924	-0.187235	-1.03637	0.0829415	
0.723019	5.63049	0	5	0.477002	0.881686	-0.0549987	0.327833	0.71922	0.783014	0.906664	0.181727	0.461882	0.267655	0.343186	0.304021	0.656438	-0.390815	0.0808555	0.467496	-0.378305	0.595697	0.422826	0.769194	-0.129478	0.729078	-0.055364	0.804088	0.283707	1.41938	0.544403	1.50599	-1.01429	-0.172946	-1.03773	0.0867803	
0.722796	5.63202	0	5	0.486945	0.885452	-0.066106	0.342299	0.72	0.793605	0.907944	0.200592	0.464657	0.277669	0.347905	0.316826	0.659412	-0.391115	0.082359	0.478347	-0.377111	0.602949	0.426701	0.77723	-0.126877	0.733101	-0.050111	0.809756	0.285631	1.43123	0.545588	1.5156	-1.01935	-0.158657	-1.03909	0.090619	
0.721814	5.62134	0	5	0.486945	0.885452	-0.0644467	0.33761	0.709247	0.798409	0.910213	0.194179	0.4631	0.282069	0.345159	0.324588	0.659412	-0.391115	0.0842782	0.480478	-0.375918	0.610211	0.427177	0.785385	-0.126913	0.744583	-0.0490528	0.8273	0.287551	1.4431	0.552724	1.53436	-1.02188	-0.151504	-1.03756	0.101434	
0.720522	5.61981	0	5	0.486945	0.885452	-0.0627875	0.332921	0.698495	0.803214	0.912482	0.187766	0.461543	0.286469	0.342412	0.33235	0.659412	-0.391115	0.0861975	0.482608	-0.374725	0.617474	0.427654	0.79354	-0.126948	0.756066	-0.0479945	0.844844	0.289471	1.45498	0.559861	1.55311	-1.02441	-0.144351	-1.03602	0.11225	
0.719369	5.61981	0	5	0.486945	0.885452	-0.0611283	0.328231	0.687742	0.808018	0.914752	0.181352	0.459986	0.29087	0.339666	0.340113	0.659412	-0.391115	0.0881168	0.484739	-0.373531	0.624736	0.42813	0.801694	-0.126984	0.767548	-0.0469362	0.862389	0.291391	1.46685	0.566998	1.57187	-1.02694	-0.137198	-1.03449	0.123065	
0.718806	5.61523	5	0	0.486945	0.885452	-0.059469	0.323542	0.676989	0.812823	0.917021	0.174939	0.458429	0.29527	0.336919	0.347875	0.659412	-0.391115	0.090036	0.48687	-0.372338	0.631998	0.428606	0.809849	-0.12702	0.77903	-0.045878	0.879933	0.293311	1.47873	0.574134	1.59062	-1.02947	-0.130045	-1.03296	0.13388	
0.719277	5.61371	5	0	0.486945	0.885452	-0.0672515	0.328627	0.682875	0.808977	0.915887	0.178145	0.46354	0.298702	0.338184	0.353021	0.667636	-0.398133	0.0892567	0.489072	-0.372338	0.631998	0.431031	0.812501	-0.12614	0.776544	-0.0437778	0.873997	0.284138	1.48735	0.566958	1.59792	-1.032	-0.122886	-1.04265	0.146131	
0.720932	5.61218	5	0	0.486945	0.885452	-0.075034	0.333712	0.68876	0.805131	0.914752	0.181351	0.46865	0.302133	0.33945	0.358167	0.67586	-0.40515	0.0884775	0.491274	-0.372338	0.631998	0.433455	0.815154	-0.12526	0.774058	-0.0416775	0.868061	0.274965	1.49597	0.559782	1.60522	-1.03454	-0.115727	-1.05235	0.158382	
0.723417	5.61371	5	0	0.486945	0.885452	-0.0828165	0.338798	0.694646	0.801286	0.913617	0.184557	0.473761	0.305565	0.340715	0.363313	0.684084	-0.412168	0.0876983	0.493476	-0.372338	0.631998	0.43588	0.817806	-0.124381	0.771572	-0.0395773	0.862125	0.265791	1.5046	0.552606	1.61251	-1.03707	-0.108569	-1.06204	0.170634	
0.726334	5.61066	5	0	0.486945	0.885452	-0.090599	0.343883	0.700532	0.79744	0.912483	0.187763	0.478872	0.308997	0.34198	0.368459	0.692308	-0.419186	0.086919	0.495678	-0.372338	0.631998	0.438305	0.820458	-0.123501	0.769086	-0.037477	0.856189	0.256618	1.51322	0.54543	1.61981	-1.0396	-0.10141	-1.07174	0.182885	
0.729283	5.61218	5	0	0.484581	0.892134	-0.0861357	0.348179	0.701306	0.80805	0.924124	0.199907	0.479869	0.315123	0.348529	0.376141	0.693821	-0.423461	0.086919	0.495678	-0.369293	0.634033	0.437329	0.823215	-0.12526	0.774058	-0.0348475	0.859034	0.256618	1.51322	0.541828	1.62999	-1.06257	-0.0808927	-1.07037	0.179036	
0.731864	5.61371	5	0	0.482216	0.898816	-0.0816725	0.352474	0.702079	0.818659	0.935766	0.212051	0.480866	0.32125	0.355077	0.383823	0.695333	-0.427736	0.086919	0.495678	-0.366248	0.636068	0.436354	0.825972	-0.12702	0.779031	-0.032218	0.86188	0.256618	1.51322	0.538225	1.64017	-1.08554	-0.0603755	-1.06901	0.175188	
0.733686	5.61371	5	0	0.479851	0.905498	-0.0772093	0.35677	0.702853	0.829268	0.947407	0.224195	0.481863	0.327376	0.361626	0.391506	0.696846	-0.432011	0.086919	0.495678	-0.363204	0.638103	0.435379	0.828728	-0.128779	0.784004	-0.0295885	0.864726	0.256618	1.51322	0.534623	1.65035	-1.10851	-0.0398582	-1.06765	0.17134	
0.734608	5.60913	5	0	0.477487	0.91218	-0.072746	0.361065	0.703627	0.839878	0.959048	0.236339	0.48286	0.333502	0.368175	0.399188	0.698358	-0.436286	0.086919	0.495678	-0.360159	0.640138	0.434403	0.831485	-0.130539	0.788976	-0.026959	0.867571	0.256618	1.51322	0.53102	1.66053	-1.13148	-0.019341	-1.06629	0.167491	
0.73478	5.60913	5	0	0.462821	0.921763	-0.072746	0.361065	0.697738	0.843726	0.950445	0.249382	0.483856	0.339636	0.369785	0.412117	0.697602	-0.434149	0.0876983	0.493476	-0.35221	0.63897	0.43878	0.828625	-0.128819	0.795505	-0.02117	0.882073	0.248662	1.51842	0.532186	1.67022	-1.11105	-0.0326935	-1.07462	0.175892	
0.734371	5.6076	5	0	0.448155	0.931347	-0.072746	0.361065	0.691848	0.847575	0.941842	0.262424	0.484851	0.345769	0.371396	0.425045	0.696846	-0.432011	0.0884775	0.491274	-0.34426	0.637803	0.443157	0.825765	-0.1271	0.802033	-0.015381	0.896574	0.240706	1.52362	0.533353	1.67991	-1.09061	-0.046046	-1.08295	0.184292	
0.733548	5.60455	5	0	0.433488	0.940931	-0.072746	0.361065	0.685959	0.851423	0.933239	0.275467	0.485847	0.351903	0.373006	0.437974	0.69609	-0.429874	0.0892567	0.489072	-0.336311	0.636636	0.447534	0.822905	-0.125381	0.808561	-0.009592	0.911075	0.232751	1.52882	0.534519	1.6896	-1.07018	-0.0593985	-1.09127	0.192693	
0.732478	5.61523	5	0	0.418822	0.950514	-0.072746	0.361065	0.680069	0.855271	0.924636	0.288509	0.486843	0.358036	0.374617	0.450903	0.695334	-0.427737	0.090036	0.48687	-0.328362	0.635468	0.451911	0.820045	-0.123661	0.81509	-0.003803	0.925577	0.224795	1.53401	0.535685	1.69929	-1.04974	-0.072751	-1.0996	0.201094	
0.731331	5.61981	5	0	0.435853	0.934249	-0.071086	0.356374	0.686983	0.848529	0.927544	0.291561	0.485281	0.362452	0.375537	0.448303	0.690843	-0.423159	0.0819457	0.48708	-0.327435	0.632849	0.454836	0.811777	-0.126261	0.811049	-0.00433	0.916773	0.220475	1.52895	0.526097	1.7134	-1.06764	-0.066563	-1.10096	0.204944	
0.730314	5.63049	5	0	0.452883	0.917983	-0.069426	0.351682	0.693896	0.841788	0.930453	0.294612	0.483719	0.366868	0.376458	0.445703	0.686352	-0.418581	0.0738555	0.48729	-0.326508	0.630229	0.457762	0.803509	-0.12886	0.807008	-0.004857	0.907969	0.216155	1.52389	0.516509	1.72751	-1.08554	-0.060375	-1.10233	0.208794	
0.729662	5.64575	5	0	0.469914	0.901717	-0.067766	0.346991	0.700809	0.835046	0.933361	0.297664	0.482156	0.371283	0.377378	0.443102	0.681861	-0.414003	0.0657652	0.487499	-0.325581	0.62761	0.460688	0.795242	-0.13146	0.802967	-0.005384	0.899166	0.211835	1.51883	0.506921	1.74163	-1.10344	-0.054187	-1.10369	0.212644	
0.729611	5.65948	0	5	0.486945	0.885452	-0.066106	0.342299	0.707723	0.828304	0.936269	0.300715	0.480594	0.375699	0.378298	0.440502	0.67737	-0.409425	0.057675	0.487709	-0.324654	0.624991	0.463613	0.786974	-0.13406	0.798926	-0.005911	0.890362	0.207515	1.51377	0.497333	1.75574	-1.12134	-0.047999	-1.10505	0.216494	
0.730397	5.66559	0	5	0.474641	0.888358	-0.0738885	0.347384	0.700809	0.835046	0.936897	0.310219	0.480594	0.375699	0.379563	0.445675	0.673637	-0.406986	0.0573147	0.481182	-0.323728	0.622372	0.461185	0.784326	-0.1323	0.793952	-0.005911	0.890362	0.204406	1.5053	0.498538	1.75233	-1.11628	-0.0623107	-1.11352	0.210197	
0.732255	5.67627	0	5	0.462338	0.891265	-0.081671	0.352469	0.693896	0.841788	0.937524	0.319724	0.480594	0.375699	0.380827	0.450848	0.669905	-0.404547	0.0569545	0.474654	-0.322801	0.619754	0.458757	0.781679	-0.13054	0.788978	-0.005911	0.890362	0.201296	1.49684	0.499742	1.74893	-1.11122	-0.0766225	-1.12199	0.203899	
0.735382	5.68085	0	5	0.450034	0.894171	-0.0894535	0.357555	0.686983	0.848529	0.938152	0.329229	0.480594	0.375699	0.382091	0.45602	0.666172	-0.402108	0.0565942	0.468127	-0.321875	0.617135	0.456328	0.779031	-0.12878	0.784004	-0.005911	0.890362	0.198187	1.48837	0.500946	1.74553	-1.10615	-0.0909343	-1.13046	0.197601	
0.739579	5.68542	0	5	0.43773	0.897077	-0.097236	0.36264	0.680069	0.855271	0.93878	0.338733	0.480594	0.375699	0.383356	0.461193	0.662439	-0.399669	0.056234	0.4616	-0.320948	0.614517	0.4539	0.776384	-0.12702	0.77903	-0.005911	0.890362	0.195078	1.4799	0.502151	1.74212	-1.10109	-0.105246	-1.13893	0.191304	
0.744428	5.68695	0	5	0.427809	0.893305	-0.105012	0.367721	0.669326	0.860067	0.931305	0.34858	0.472359	0.38108	0.38462	0.466371	0.654222	-0.392655	0.0504872	0.455224	-0.320022	0.611899	0.452446	0.770987	-0.12878	0.784004	0.00040925	0.893092	0.185247	1.47323	0.502151	1.74212	-1.11895	-0.0990725	-1.14316	0.18816	
0.749509	5.6839	0	5	0.417887	0.889533	-0.112787	0.372801	0.658582	0.864862	0.92383	0.358426	0.464124	0.38646	0.385884	0.47155	0.646004	-0.385642	0.0447405	0.448848	-0.319095	0.609282	0.450993	0.765591	-0.13054	0.788978	0.0067295	0.895822	0.175416	1.46655	0.502151	1.74212	-1.1368	-0.092899	-1.14739	0.185015	
0.754402	5.68542	0	5	0.407966	0.88576	-0.120563	0.377882	0.647838	0.869658	0.916356	0.368273	0.455889	0.391841	0.387148	0.476728	0.637787	-0.378628	0.0389938	0.442471	-0.318169	0.606664	0.449539	0.760194	-0.1323	0.793952	0.0130497	0.898553	0.165585	1.45987	0.502151	1.74212	-1.15466	-0.0867255	-1.15162	0.18187	
0.758687	5.68237	0	5	0.398045	0.881988	-0.128338	0.382962	0.637095	0.874454	0.908881	0.37812	0.447654	0.397222	0.388412	0.481906	0.629569	-0.371615	0.033247	0.436095	-0.317243	0.604046	0.448085	0.754798	-0.13406	0.798926	0.01937	0.901283	0.155754	1.4532	0.502151	1.74212	-1.17252	-0.080552	-1.15586	0.178726	
0.761975	5.67474	0	5	0.390495	0.871567	-0.121706	0.36422	0.636331	0.863841	0.905978	0.375055	0.444112	0.389357	0.385883	0.471555	0.61839	-0.36431	0.0298315	0.423157	-0.321494	0.594761	0.447118	0.738535	-0.139256	0.790856	0.00936675	0.898674	0.145941	1.44653	0.490212	1.74992	-1.1878	-0.0815402	-1.15314	0.171047	
0.764289	5.66864	0	5	0.382945	0.861146	-0.115074	0.345478	0.635568	0.853228	0.903074	0.371989	0.44057	0.381493	0.383355	0.461204	0.607211	-0.357006	0.026416	0.41022	-0.325744	0.585475	0.446151	0.722271	-0.144453	0.782786	-0.0006365	0.896065	0.136128	1.43987	0.478272	1.75773	-1.20309	-0.0825285	-1.15042	0.163368	
0.765934	5.66254	0	5	0.375396	0.850725	-0.108443	0.326736	0.634804	0.842616	0.90017	0.368924	0.437028	0.373628	0.380827	0.450853	0.596032	-0.349701	0.0230005	0.397282	-0.329995	0.576189	0.445184	0.706008	-0.149649	0.774716	-0.0106398	0.893456	0.126315	1.43321	0.466333	1.76553	-1.21837	-0.0835168	-1.1477	0.155689	
0.767224	5.65643	0	5	0.367846	0.840304	-0.101811	0.307994	0.634041	0.832003	0.897267	0.365858	0.433486	0.365763	0.378298	0.440502	0.584853	-0.342397	0.019585	0.384344	-0.334246	0.566904	0.444217	0.689745	-0.154845	0.766646	-0.020643	0.890847	0.116502	1.42654	0.454394	1.77333	-1.23366	-0.084505	-1.14499	0.14801	
0.768471	5.64575	0	5	0.374897	0.820377	-0.100155	0.303315	0.630211	0.830066	0.902455	0.362469	0.429166	0.360115	0.381057	0.432706	0.574445	-0.33724	0.0161668	0.371442	-0.338495	0.557639	0.436939	0.681857	-0.154809	0.755176	-0.0232728	0.887997	0.107906	1.4165	0.454446	1.76022	-1.22862	-0.0987598	-1.15344	0.141743	
0.769986	5.64575	0	5	0.381948	0.80045	-0.0984995	0.298635	0.626381	0.828129	0.907642	0.359079	0.424845	0.354467	0.383815	0.424909	0.564037	-0.332083	0.0127485	0.35854	-0.342745	0.548374	0.429661	0.673968	-0.154773	0.743707	-0.0259025	0.885148	0.099311	1.40646	0.454498	1.74712	-1.22357	-0.113015	-1.1619	0.135476	
0.772069	5.63354	0	5	0.388999	0.780524	-0.0968437	0.293956	0.62255	0.826193	0.912829	0.355689	0.420525	0.348819	0.386574	0.417113	0.553629	-0.326926	0.00933025	0.345637	-0.346994	0.539109	0.422382	0.666079	-0.154737	0.732237	-0.0285322	0.882299	0.0907155	1.39642	0.45455	1.73402	-1.21853	-0.127269	-1.17035	0.129209	
0.774699	5.63202	5	0	0.39605	0.760597	-0.095188	0.289277	0.61872	0.824256	0.918017	0.3523	0.416205	0.343171	0.389332	0.409317	0.543221	-0.321769	0.005912	0.332735	-0.351243	0.529844	0.415104	0.658191	-0.154701	0.720767	-0.031162	0.879449	0.08212	1.38638	0.454602	1.72091	-1.21349	-0.141524	-1.17881	0.122942	
0.777507	5.62744	5	0	0.383805	0.763499	-0.101301	0.289676	0.610048	0.823269	0.905361	0.365532	0.410331	0.341932	0.387493	0.414514	0.535786	-0.316911	0.0009475	0.32423	-0.352445	0.522613	0.413648	0.652829	-0.154701	0.720767	-0.0248492	0.882177	0.0790252	1.37798	0.457005	1.71412	-1.22874	-0.142498	-1.18303	0.119813	
0.780107	5.62134	5	0	0.371561	0.766401	-0.107415	0.290075	0.601375	0.822282	0.892705	0.378765	0.404457	0.340693	0.385655	0.41971	0.528351	-0.312053	-0.004017	0.315724	-0.353648	0.515382	0.412192	0.647466	-0.154701	0.720767	-0.0185365	0.884906	0.0759305	1.36959	0.459408	1.70733	-1.24399	-0.143473	-1.18725	0.116684	
0.782112	5.62134	5	0	0.359316	0.769302	-0.113529	0.290474	0.592703	0.821295	0.880049	0.391997	0.398583	0.339453	0.383816	0.424907	0.520917	-0.307195	-0.0089815	0.307219	-0.35485	0.508152	0.410737	0.642104	-0.154701	0.720767	-0.0122237	0.887634	0.0728358	1.36119	0.461811	1.70054	-1.25925	-0.144447	-1.19148	0.113555	
0.783138	5.61676	5	0	0.347071	0.772204	-0.119642	0.290873	0.58403	0.820308	0.867393	0.405229	0.392709	0.338214	0.381977	0.430104	0.513482	-0.302337	-0.013946	0.298713	-0.356052	0.500921	0.409281	0.636742	-0.154701	0.720767	-0.005911	0.890362	0.069741	1.3528	0.464214	1.69375	-1.2745	-0.145421	-1.1957	0.110426	
0.782799	5.61523	5	0	0.35176	0.758954	-0.116335	0.281527	0.582247	0.812611	0.871959	0.392323	0.388397	0.332577	0.38163	0.422343	0.506053	-0.297483	-0.0124025	0.294351	-0.360301	0.491691	0.412184	0.628537	-0.155546	0.711796	-0.0053905	0.878604	0.0666463	1.34442	0.44875	1.69863	-1.27199	-0.152529	-1.18877	0.105896	
0.780959	5.61218	5	0	0.356448	0.745704	-0.113028	0.27218	0.580464	0.804914	0.876525	0.379418	0.384084	0.32694	0.381282	0.414581	0.498625	-0.292629	-0.010859	0.28999	-0.364549	0.48246	0.415087	0.620333	-0.156392	0.702824	-0.00487	0.866845	0.0635515	1.33604	0.433285	1.70352	-1.26947	-0.159636	-1.18183	0.101366	
0.778022	5.61218	5	0	0.361137	0.732454	-0.109721	0.262833	0.578681	0.797216	0.881092	0.366513	0.379772	0.321304	0.380935	0.40682	0.491196	-0.287775	-0.0093155	0.285629	-0.368798	0.47323	0.41799	0.612129	-0.157237	0.693852	-0.0043495	0.855087	0.0604568	1.32765	0.417821	1.70841	-1.26696	-0.166743	-1.1749	0.096836	
0.774464	5.6076	5	0	0.365825	0.719204	-0.106414	0.253487	0.576898	0.789519	0.885658	0.353607	0.37546	0.315667	0.380588	0.399059	0.483768	-0.282921	-0.007772	0.281267	-0.373047	0.464	0.420893	0.603924	-0.158082	0.684881	-0.003829	0.843329	0.057362	1.31927	0.402357	1.7133	-1.26444	-0.173851	-1.16797	0.092306	
0.77076	5.6076	5	0	0.370507	0.705974	-0.106414	0.253487	0.577917	0.78664	0.884517	0.356832	0.376238	0.313469	0.37875	0.404253	0.483768	-0.282921	-0.003174	0.283293	-0.37609	0.461991	0.42332	0.606543	-0.157206	0.682405	-0.003829	0.843329	0.0518775	1.31766	0.407154	1.69974	-1.28468	-0.160625	-1.16661	0.0884787	
0.767387	5.6015	5	0	0.375188	0.692743	-0.106414	0.253487	0.578936	0.78376	0.883376	0.360057	0.377015	0.311271	0.376912	0.409446	0.483768	-0.282921	0.001424	0.285319	-0.379134	0.459982	0.425746	0.609162	-0.15633	0.67993	-0.003829	0.843329	0.046393	1.31605	0.411951	1.68618	-1.30493	-0.147398	-1.16526	0.0846515	
0.764818	5.59997	5	0	0.379869	0.679512	-0.106414	0.253487	0.579955	0.780881	0.882235	0.363281	0.377793	0.309074	0.375075	0.41464	0.483768	-0.282921	0.006022	0.287345	-0.382177	0.457973	0.428173	0.611781	-0.155454	0.677454	-0.003829	0.843329	0.0409085	1.31444	0.416748	1.67263	-1.32517	-0.134171	-1.1639	0.0808243	
0.763405	5.59692	5	0	0.384551	0.666282	-0.106414	0.253487	0.580974	0.778002	0.881094	0.366506	0.37857	0.306876	0.373237	0.419834	0.483768	-0.282921	0.01062	0.289371	-0.38522	0.455964	0.430599	0.6144	-0.154578	0.674979	-0.003829	0.843329	0.035424	1.31283	0.421545	1.65907	-1.34541	-0.120945	-1.16255	0.076997	
0.763105	5.59082	5	0	0.384551	0.666282	-0.101953	0.257758	0.579188	0.770321	0.877054	0.366667	0.375249	0.307357	0.370478	0.42763	0.483768	-0.282921	0.0117617	0.293659	-0.38522	0.455964	0.431089	0.622497	-0.152855	0.681469	-0.0017165	0.857939	0.0378135	1.30607	0.427496	1.65518	-1.30237	-0.154531	-1.15697	0.0762905	
0.763803	5.59387	5	0	0.384551	0.666282	-0.0974915	0.262028	0.577403	0.762639	0.873013	0.366827	0.371928	0.307838	0.36772	0.435426	0.483768	-0.282921	0.0129035	0.297948	-0.38522	0.455964	0.431579	0.630593	-0.151131	0.687958	0.000396	0.87255	0.040203	1.29932	0.433447	1.65129	-1.25932	-0.188117	-1.15138	0.075584	
0.765385	5.59387	5	0	0.384551	0.666282	-0.0930302	0.266298	0.575618	0.754958	0.868973	0.366988	0.368606	0.308319	0.364961	0.443223	0.483768	-0.282921	0.0140453	0.302236	-0.38522	0.455964	0.432069	0.638689	-0.149407	0.694448	0.0025085	0.887161	0.0425925	1.29257	0.439398	1.6474	-1.21628	-0.221704	-1.1458	0.0748775	
0.767734	5.58777	0	5	0.384551	0.666282	-0.088569	0.270569	0.573832	0.747277	0.864933	0.367149	0.365285	0.3088	0.362203	0.451019	0.483768	-0.282921	0.015187	0.306524	-0.38522	0.455964	0.432559	0.646786	-0.147684	0.700938	0.004621	0.901771	0.044982	1.28581	0.445349	1.64352	-1.17323	-0.25529	-1.14021	0.074171	
