0.886	5.5542	0	0	0.474915	0.514826	0.286282	0.385473	0.101047	0.210619	0.059871	0.255223	0.158396	0.075562	-0.185951	-0.119022	0.083089	0.097002	-0.131942	-0.171227	0.262027	0.301447	-0.367818	-0.164988	0.338697	0.352198	-0.400335	-0.233257	-0.521562	-0.105604	-0.243422	-0.418263	-0.46641	0.068754	-0.043187	0.069799	
0.887958	5.55572	0	0	0.491668	0.511985	0.300472	0.392344	0.109139	0.209597	0.059871	0.255223	0.162381	0.0781223	-0.185951	-0.119022	0.0913013	0.0934818	-0.127349	-0.160925	0.273584	0.305511	-0.369512	-0.15029	0.346596	0.353437	-0.410239	-0.226785	-0.520532	-0.108515	-0.254043	-0.413884	-0.475846	0.0749197	-0.0390265	0.0580405	
0.889262	5.55267	0	0	0.508421	0.509144	0.314662	0.399215	0.117232	0.208575	0.059871	0.255223	0.166366	0.0806825	-0.185951	-0.119022	0.0995135	0.0899615	-0.122757	-0.150622	0.285141	0.309574	-0.371206	-0.135592	0.354495	0.354675	-0.420144	-0.220313	-0.519502	-0.111427	-0.264663	-0.409506	-0.485281	0.0810855	-0.034866	0.046282	
0.890028	5.5542	0	0	0.525174	0.506304	0.328853	0.406086	0.125324	0.207553	0.059871	0.255223	0.170351	0.0832428	-0.185951	-0.119022	0.107726	0.0864412	-0.118164	-0.14032	0.296697	0.313638	-0.372901	-0.120893	0.362394	0.355913	-0.430049	-0.213842	-0.518472	-0.114338	-0.275284	-0.405128	-0.494717	0.0872513	-0.0307055	0.0345235	
0.890371	5.55267	0	0	0.541927	0.503463	0.343043	0.412957	0.133416	0.206531	0.059871	0.255223	0.174336	0.085803	-0.185951	-0.119022	0.115938	0.082921	-0.113571	-0.130018	0.308254	0.317702	-0.374595	-0.106195	0.370293	0.357152	-0.439953	-0.20737	-0.517442	-0.117249	-0.285905	-0.400749	-0.504153	0.093417	-0.026545	0.022765	
0.890408	5.54962	0	0	0.54006	0.50874	0.335595	0.434005	0.131451	0.212083	0.06384	0.259547	0.183505	0.0875653	-0.187807	-0.113776	0.118773	0.084762	-0.103607	-0.123199	0.309612	0.326121	-0.367165	-0.097432	0.36931	0.359928	-0.439953	-0.20737	-0.530261	-0.120053	-0.283549	-0.407409	-0.50896	0.0865225	-0.0510058	0.0267135	
0.890254	5.55115	0	0	0.538193	0.514016	0.328148	0.455052	0.129487	0.217635	0.067809	0.263871	0.192674	0.0893275	-0.189663	-0.108531	0.121608	0.086603	-0.0936435	-0.116381	0.310971	0.334539	-0.359735	-0.088669	0.368328	0.362705	-0.439953	-0.20737	-0.543081	-0.122857	-0.281193	-0.414069	-0.513767	0.079628	-0.0754665	0.030662	
0.890027	5.54809	0	0	0.536325	0.519292	0.3207	0.4761	0.127523	0.223188	0.071778	0.268196	0.201843	0.0910897	-0.19152	-0.103285	0.124442	0.088444	-0.0836797	-0.109563	0.31233	0.342958	-0.352306	-0.079906	0.367345	0.365482	-0.439953	-0.20737	-0.555901	-0.12566	-0.278836	-0.420728	-0.518573	0.0727335	-0.0999272	0.0346105	
0.889841	5.54962	0	0	0.534458	0.524569	0.313253	0.497148	0.125558	0.22874	0.075747	0.27252	0.211012	0.092852	-0.193376	-0.098039	0.127277	0.090285	-0.073716	-0.102744	0.313688	0.351377	-0.344876	-0.071143	0.366363	0.368258	-0.439953	-0.20737	-0.56872	-0.128464	-0.27648	-0.427388	-0.52338	0.065839	-0.124388	0.038559	
0.889813	5.54809	0	0	0.527943	0.520715	0.313253	0.497148	0.117467	0.229759	0.0646315	0.272865	0.208631	0.099582	-0.186978	-0.0981843	0.124726	0.097496	-0.0691133	-0.0923965	0.320693	0.356119	-0.338485	-0.0593972	0.36538	0.371035	-0.430049	-0.213842	-0.574512	-0.138071	-0.27648	-0.427388	-0.518768	0.0528047	-0.124962	0.02392	
0.890059	5.54504	0	0	0.521428	0.516861	0.313253	0.497148	0.109376	0.230777	0.053516	0.273211	0.20625	0.106312	-0.180581	-0.0983295	0.122174	0.104707	-0.0645105	-0.082049	0.327699	0.360861	-0.332093	-0.0476515	0.364397	0.373812	-0.420144	-0.220313	-0.580305	-0.147679	-0.27648	-0.427388	-0.514156	0.0397705	-0.125535	0.009281	
0.890695	5.54352	0	0	0.514913	0.513008	0.313253	0.497148	0.101284	0.231795	0.0424005	0.273556	0.203868	0.113042	-0.174183	-0.0984747	0.119622	0.111918	-0.0599078	-0.0717015	0.334704	0.365602	-0.325701	-0.0359058	0.363415	0.37659	-0.410239	-0.226785	-0.586097	-0.157286	-0.27648	-0.427388	-0.509544	0.0267362	-0.126108	-0.005358	
0.891836	5.54199	0	0	0.508398	0.509154	0.313253	0.497148	0.093193	0.232814	0.031285	0.273902	0.201487	0.119772	-0.167786	-0.09862	0.117071	0.119129	-0.055305	-0.061354	0.341709	0.370344	-0.31931	-0.02416	0.362432	0.379367	-0.400335	-0.233257	-0.591889	-0.166894	-0.27648	-0.427388	-0.504932	0.013702	-0.126682	-0.019997	
0.8936	5.54199	0	0	0.512127	0.498617	0.313253	0.497148	0.103249	0.226243	0.031285	0.273902	0.206672	0.118973	-0.169644	-0.0933682	0.120757	0.118569	-0.0548515	-0.0509477	0.341709	0.370344	-0.307665	-0.027213	0.360937	0.371807	-0.40586	-0.239163	-0.588638	-0.189058	-0.278842	-0.433517	-0.517613	0.00865	-0.127264	-0.0345977	
0.896101	5.54047	0	0	0.515856	0.488079	0.313253	0.497148	0.113305	0.219672	0.031285	0.273902	0.211856	0.118174	-0.171503	-0.0881165	0.124443	0.118009	-0.054398	-0.0405415	0.341709	0.370344	-0.296021	-0.030266	0.359442	0.364247	-0.411384	-0.245069	-0.585386	-0.211222	-0.281204	-0.439646	-0.530294	0.003598	-0.127846	-0.0491985	
0.899437	5.53894	0	0	0.519584	0.477541	0.313253	0.497148	0.12336	0.213102	0.031285	0.273902	0.21704	0.117374	-0.173361	-0.0828648	0.128129	0.11745	-0.0539445	-0.0301353	0.341709	0.370344	-0.284376	-0.033319	0.357948	0.356686	-0.416909	-0.250975	-0.582134	-0.233387	-0.283567	-0.445775	-0.542975	-0.001454	-0.128429	-0.0637993	
0.903504	5.53894	0	0	0.523313	0.467004	0.313253	0.497148	0.133416	0.206531	0.031285	0.273902	0.222225	0.116575	-0.175219	-0.077613	0.131815	0.11689	-0.053491	-0.019729	0.341709	0.370344	-0.272731	-0.036372	0.356453	0.349126	-0.422434	-0.256881	-0.578883	-0.255551	-0.285929	-0.451904	-0.555656	-0.006506	-0.129011	-0.0784	
0.908083	5.54199	0	0	0.516801	0.463167	0.314744	0.492934	0.12336	0.213102	0.031285	0.273902	0.225029	0.122514	-0.177078	-0.072358	0.13749	0.120582	-0.0410312	-0.0198325	0.350872	0.369021	-0.267756	-0.030502	0.356453	0.349126	-0.424623	-0.250694	-0.58076	-0.263212	-0.274137	-0.459609	-0.554123	-0.010838	-0.126257	-0.0861825	
0.912955	5.53741	0	0	0.51029	0.45933	0.316234	0.488721	0.113305	0.219672	0.031285	0.273902	0.227834	0.128452	-0.178938	-0.067103	0.143165	0.124275	-0.0285715	-0.019936	0.360034	0.367699	-0.26278	-0.024632	0.356453	0.349126	-0.426812	-0.244508	-0.582637	-0.270873	-0.262346	-0.467314	-0.55259	-0.01517	-0.123503	-0.093965	
0.917897	5.53436	0	0	0.503778	0.455493	0.317725	0.484507	0.103249	0.226243	0.031285	0.273902	0.230638	0.134391	-0.180797	-0.061848	0.14884	0.127968	-0.0161118	-0.0200395	0.369196	0.366376	-0.257804	-0.018762	0.356453	0.349126	-0.429002	-0.238321	-0.584514	-0.278535	-0.250555	-0.475019	-0.551058	-0.019502	-0.120749	-0.101748	
0.922689	5.53589	0	0	0.497266	0.451656	0.319216	0.480294	0.093193	0.232814	0.031285	0.273902	0.233442	0.14033	-0.182656	-0.056593	0.154515	0.13166	-0.003652	-0.020143	0.378359	0.365053	-0.252829	-0.012892	0.356453	0.349126	-0.431191	-0.232134	-0.586391	-0.286196	-0.238763	-0.482724	-0.549525	-0.023834	-0.117995	-0.10953	
0.927111	5.53284	0	0	0.499127	0.446398	0.312003	0.485007	0.093193	0.232814	0.0241442	0.278568	0.229861	0.15045	-0.176254	-0.0567342	0.151958	0.138886	-0.0007275	-0.01669	0.374849	0.362682	-0.248239	-0.0158915	0.352995	0.347121	-0.426814	-0.244503	-0.587249	-0.296729	-0.235235	-0.492693	-0.544931	-0.0368178	-0.119965	-0.120194	
0.930942	5.53131	0	0	0.500987	0.44114	0.30479	0.48972	0.093193	0.232814	0.0170035	0.283234	0.22628	0.16057	-0.169852	-0.0568755	0.149401	0.146113	0.002197	-0.013237	0.371339	0.360311	-0.243649	-0.018891	0.349538	0.345116	-0.422438	-0.256873	-0.588106	-0.307262	-0.231708	-0.502662	-0.540336	-0.0498015	-0.121936	-0.130857	
0.934023	5.53436	0	0	0.502848	0.435883	0.297578	0.494433	0.093193	0.232814	0.00986275	0.2879	0.2227	0.170689	-0.16345	-0.0570167	0.146844	0.153339	0.0051215	-0.009784	0.36783	0.35794	-0.239058	-0.0218905	0.34608	0.343111	-0.418061	-0.269242	-0.588963	-0.317795	-0.228181	-0.512631	-0.535742	-0.0627853	-0.123906	-0.14152	
0.936308	5.53284	0	0	0.504708	0.430625	0.290365	0.499146	0.093193	0.232814	0.002722	0.292566	0.219119	0.180809	-0.157048	-0.057158	0.144287	0.160565	0.008046	-0.006331	0.36432	0.355569	-0.234468	-0.02489	0.342622	0.341106	-0.413684	-0.281611	-0.589821	-0.328328	-0.224653	-0.5226	-0.531148	-0.075769	-0.125876	-0.152184	
0.937762	5.53131	0	0	0.504708	0.430625	0.291855	0.494934	0.0912285	0.238366	0.00827125	0.292398	0.220724	0.190147	-0.152502	-0.052037	0.145419	0.16724	0.0122075	-0.0063665	0.36783	0.35794	-0.229875	-0.027891	0.34608	0.343111	-0.418061	-0.269242	-0.581818	-0.33799	-0.222279	-0.516487	-0.532679	-0.0714432	-0.125876	-0.152184	
0.938351	5.52673	0	0	0.504708	0.430625	0.293345	0.490723	0.089264	0.243918	0.0138205	0.29223	0.222328	0.199485	-0.147955	-0.046916	0.14655	0.173915	0.016369	-0.006402	0.371339	0.360311	-0.225282	-0.030892	0.349538	0.345116	-0.422438	-0.256873	-0.573815	-0.347652	-0.219905	-0.510374	-0.53421	-0.0671175	-0.125876	-0.152184	
0.93804	5.52521	0	0	0.504708	0.430625	0.294836	0.486511	0.0872995	0.24947	0.0193698	0.292062	0.223933	0.208824	-0.143408	-0.041795	0.147681	0.18059	0.0205305	-0.0064375	0.374849	0.362682	-0.22069	-0.033893	0.352995	0.347121	-0.426814	-0.244503	-0.565811	-0.357314	-0.21753	-0.504262	-0.53574	-0.0627917	-0.125876	-0.152184	
0.936796	5.52978	0	0	0.504708	0.430625	0.296326	0.4823	0.085335	0.255022	0.024919	0.291894	0.225538	0.218162	-0.138862	-0.036674	0.148813	0.187265	0.024692	-0.006473	0.378359	0.365053	-0.216097	-0.036894	0.356453	0.349126	-0.431191	-0.232134	-0.557808	-0.366976	-0.215156	-0.498149	-0.537271	-0.058466	-0.125876	-0.152184	
0.934585	5.52826	0	0	0.494485	0.437305	0.297816	0.47809	0.0872995	0.24947	0.012235	0.296724	0.231928	0.213986	-0.14527	-0.036534	0.152506	0.186707	0.0271617	-0.0134527	0.373776	0.365715	-0.222131	-0.039793	0.352995	0.347121	-0.436708	-0.238039	-0.561733	-0.368841	-0.215156	-0.498149	-0.546666	-0.0523275	-0.13334	-0.147307	
0.931393	5.52826	0	0	0.484261	0.443985	0.299305	0.473881	0.089264	0.243918	-0.000449	0.301554	0.238318	0.209811	-0.151678	-0.036394	0.156199	0.186149	0.0296315	-0.0204325	0.369193	0.366377	-0.228166	-0.042692	0.349538	0.345116	-0.442224	-0.243944	-0.565657	-0.370706	-0.215156	-0.498149	-0.55606	-0.046189	-0.140804	-0.14243	
0.927374	5.52521	0	0	0.474038	0.450666	0.300794	0.469672	0.0912285	0.238366	-0.013133	0.306384	0.244709	0.205635	-0.158086	-0.036254	0.159891	0.185591	0.0321012	-0.0274122	0.36461	0.367039	-0.2342	-0.045591	0.34608	0.343111	-0.44774	-0.249848	-0.569582	-0.372571	-0.215156	-0.498149	-0.565455	-0.0400505	-0.148268	-0.137553	
0.922754	5.52368	0	0	0.463814	0.457346	0.302284	0.465462	0.093193	0.232814	-0.025817	0.311214	0.251099	0.20146	-0.164494	-0.036114	0.163584	0.185033	0.034571	-0.034392	0.360027	0.367701	-0.240234	-0.04849	0.342622	0.341106	-0.453257	-0.255753	-0.573507	-0.374436	-0.215156	-0.498149	-0.574849	-0.033912	-0.155732	-0.132676	
0.917761	5.52368	0	0	0.461954	0.462604	0.295077	0.470171	0.0912285	0.238366	-0.0274087	0.315712	0.247509	0.211607	-0.166357	-0.0308498	0.164716	0.191718	0.0304085	-0.0343538	0.363536	0.370074	-0.241676	-0.0543828	0.345098	0.345886	-0.445551	-0.256035	-0.567543	-0.378333	-0.212781	-0.492028	-0.568518	-0.0313925	-0.164564	-0.123919	
0.912624	5.52521	0	0	0.460093	0.467861	0.287871	0.47488	0.089264	0.243918	-0.0290005	0.32021	0.243919	0.221753	-0.168219	-0.0255855	0.165848	0.198403	0.026246	-0.0343155	0.367046	0.372447	-0.243118	-0.0602755	0.347574	0.350666	-0.437845	-0.256317	-0.56158	-0.382229	-0.210406	-0.485907	-0.562187	-0.028873	-0.173396	-0.115163	
0.90757	5.52368	0	0	0.458232	0.473119	0.280664	0.479589	0.0872995	0.24947	-0.0305922	0.324707	0.240328	0.2319	-0.170082	-0.0203212	0.16698	0.205088	0.0220835	-0.0342772	0.370555	0.37482	-0.24456	-0.0661682	0.35005	0.355445	-0.43014	-0.256599	-0.555616	-0.386126	-0.208032	-0.479786	-0.555856	-0.0263535	-0.182227	-0.106406	
0.902827	5.52521	0	0	0.456372	0.478377	0.273457	0.484298	0.085335	0.255022	-0.032184	0.329205	0.236738	0.242046	-0.171945	-0.015057	0.168112	0.211773	0.017921	-0.034239	0.374064	0.377193	-0.246002	-0.072061	0.352526	0.360225	-0.422434	-0.256881	-0.549653	-0.390023	-0.205657	-0.473665	-0.549525	-0.023834	-0.191059	-0.097649	
0.898618	5.52521	0	0	0.452648	0.488902	0.269233	0.48059	0.0772557	0.256033	-0.0305922	0.324707	0.237935	0.238662	-0.168221	-0.0255823	0.163563	0.214745	0.0120698	-0.0411308	0.369481	0.377854	-0.254515	-0.0778753	0.347106	0.363767	-0.432327	-0.250417	-0.551692	-0.384261	-0.209193	-0.463674	-0.544721	-0.0169767	-0.20126	-0.085008	
0.895072	5.52368	0	0	0.448924	0.499428	0.265009	0.476882	0.0691765	0.257043	-0.0290005	0.32021	0.239132	0.235279	-0.164496	-0.0361075	0.159014	0.217718	0.0062185	-0.0480225	0.364899	0.378515	-0.263027	-0.0836895	0.341685	0.367309	-0.442221	-0.243952	-0.55373	-0.378499	-0.212728	-0.453682	-0.539917	-0.0101195	-0.211461	-0.072367	
0.892248	5.52215	0	0	0.445199	0.509953	0.260785	0.473174	0.0610972	0.258054	-0.0274087	0.315712	0.24033	0.231896	-0.160772	-0.0466328	0.154465	0.22069	0.00036725	-0.0549142	0.360316	0.379176	-0.27154	-0.0895037	0.336265	0.370851	-0.452114	-0.237488	-0.555769	-0.372738	-0.216263	-0.44369	-0.535113	-0.00326225	-0.221663	-0.059726	
0.8902	5.52521	0	0	0.441475	0.520478	0.256561	0.469466	0.053018	0.259065	-0.025817	0.311214	0.241527	0.228512	-0.157048	-0.057158	0.149916	0.223662	-0.005484	-0.061806	0.355733	0.379837	-0.280053	-0.095318	0.330844	0.374393	-0.462007	-0.231023	-0.557808	-0.366976	-0.219799	-0.433699	-0.530309	0.003595	-0.231864	-0.047085	
0.888984	5.52063	0	0	0.446104	0.529609	0.256561	0.469466	0.053018	0.259065	-0.0242265	0.306718	0.241527	0.228512	-0.169845	-0.056878	0.149061	0.226078	-0.0113295	-0.068685	0.359241	0.382212	-0.288552	-0.101122	0.328879	0.379945	-0.459819	-0.237206	-0.558828	-0.364094	-0.220978	-0.430366	-0.53338	0.0122737	-0.230489	-0.050972	
0.888654	5.52063	0	0	0.450733	0.538739	0.256561	0.469466	0.053018	0.259065	-0.022636	0.302223	0.241527	0.228512	-0.182643	-0.056598	0.148206	0.228494	-0.017175	-0.075564	0.36275	0.384587	-0.297052	-0.106926	0.326915	0.385497	-0.457632	-0.243388	-0.559848	-0.361212	-0.222158	-0.427034	-0.536451	0.0209525	-0.229113	-0.054859	
0.889265	5.52063	0	0	0.455362	0.54787	0.256561	0.469466	0.053018	0.259065	-0.0210455	0.297727	0.241527	0.228512	-0.195441	-0.056318	0.147351	0.23091	-0.0230205	-0.082443	0.366259	0.386962	-0.305552	-0.11273	0.324951	0.391049	-0.455445	-0.249571	-0.560867	-0.358329	-0.223337	-0.423701	-0.539522	0.0296312	-0.227738	-0.058746	
0.89087	5.52215	0	0	0.459991	0.557001	0.256561	0.469466	0.053018	0.259065	-0.019455	0.293231	0.241527	0.228512	-0.208238	-0.056038	0.146496	0.233326	-0.028866	-0.089322	0.369767	0.389337	-0.314051	-0.118534	0.322986	0.396601	-0.453257	-0.255753	-0.561887	-0.355447	-0.224516	-0.420368	-0.542593	0.03831	-0.226363	-0.062633	
0.89342	5.52215	0	0	0.458124	0.562277	0.259535	0.461061	0.0469113	0.254526	-0.0289392	0.28907	0.231144	0.230097	-0.219152	-0.061012	0.139969	0.23202	-0.0388505	-0.0961478	0.361961	0.399108	-0.327101	-0.121346	0.32102	0.402157	-0.465326	-0.243114	-0.55796	-0.353579	-0.228056	-0.410362	-0.53779	0.0451922	-0.235183	-0.0538815	
0.896757	5.52215	0	0	0.456257	0.567554	0.262509	0.452655	0.0408045	0.249988	-0.0384235	0.284909	0.220761	0.231682	-0.230065	-0.065986	0.133443	0.230714	-0.048835	-0.102973	0.354155	0.40888	-0.34015	-0.124158	0.319055	0.407712	-0.477396	-0.230474	-0.554033	-0.351712	-0.231597	-0.400355	-0.532987	0.0520745	-0.244003	-0.04513	
0.900718	5.52215	0	0	0.45439	0.572831	0.265484	0.44425	0.0346977	0.245449	-0.0479077	0.280748	0.210379	0.233267	-0.240979	-0.07096	0.126916	0.229408	-0.0588195	-0.109799	0.346348	0.418651	-0.353199	-0.12697	0.317089	0.413268	-0.489465	-0.217834	-0.550106	-0.349844	-0.235137	-0.390349	-0.528183	0.0589567	-0.252823	-0.0363785	
0.905139	5.52368	0	0	0.452523	0.578107	0.268458	0.435845	0.028591	0.24091	-0.057392	0.276587	0.199996	0.234852	-0.251893	-0.075934	0.12039	0.228102	-0.068804	-0.116625	0.338542	0.428422	-0.366249	-0.129782	0.315123	0.418824	-0.501534	-0.205195	-0.546179	-0.347976	-0.238678	-0.380343	-0.52338	0.065839	-0.261643	-0.027627	
0.909858	5.52063	0	0	0.462759	0.571419	0.262749	0.436346	0.030552	0.235368	-0.0542177	0.267616	0.203582	0.224717	-0.254562	-0.086274	0.11841	0.22383	-0.0704928	-0.123519	0.335039	0.426041	-0.3712	-0.135605	0.310689	0.419585	-0.509217	-0.204928	-0.546179	-0.347976	-0.243403	-0.379821	-0.513954	0.0596802	-0.275137	-0.0217977	
0.91471	5.5191	0	0	0.472994	0.564731	0.257041	0.436848	0.032513	0.229826	-0.0510435	0.258646	0.207169	0.214582	-0.257232	-0.096614	0.11643	0.219558	-0.0721815	-0.130413	0.331535	0.423659	-0.376151	-0.141428	0.306255	0.420346	-0.5169	-0.204661	-0.546179	-0.347976	-0.248129	-0.379298	-0.504529	0.0535215	-0.288632	-0.0159685	
0.919534	5.51758	0	0	0.48323	0.558042	0.251332	0.43735	0.034474	0.224285	-0.0478693	0.249675	0.210755	0.204447	-0.259901	-0.106954	0.11445	0.215285	-0.0738702	-0.137307	0.328032	0.421277	-0.381102	-0.147251	0.301821	0.421108	-0.524583	-0.204394	-0.546179	-0.347976	-0.252854	-0.378775	-0.495103	0.0473627	-0.302126	-0.0101393	
0.924192	5.51605	0	0	0.493466	0.551354	0.245623	0.437851	0.036435	0.218743	-0.044695	0.240704	0.214341	0.194312	-0.26257	-0.117294	0.11247	0.211013	-0.075559	-0.144201	0.324529	0.418896	-0.386053	-0.153074	0.297387	0.421869	-0.532266	-0.204127	-0.546179	-0.347976	-0.257579	-0.378253	-0.485678	0.041204	-0.31562	-0.00431	
0.928627	5.52063	0	0	0.495333	0.546077	0.23992	0.43835	0.0283743	0.219752	-0.048641	0.236392	0.20796	0.198481	-0.268941	-0.117154	0.107931	0.213979	-0.0796992	-0.144159	0.324529	0.418896	-0.394122	-0.150064	0.296404	0.424647	-0.532266	-0.204127	-0.542249	-0.346107	-0.255217	-0.372098	-0.479321	0.0437385	-0.31094	-0.00139025	
0.932795	5.51453	0	0	0.497201	0.540801	0.234216	0.43885	0.0203135	0.220761	-0.052587	0.23208	0.20158	0.202651	-0.275313	-0.117014	0.103391	0.216945	-0.0838395	-0.144118	0.324529	0.418896	-0.40219	-0.147054	0.295421	0.427426	-0.532266	-0.204127	-0.53832	-0.344238	-0.252854	-0.365943	-0.472963	0.046273	-0.30626	0.0015295	
0.936652	5.51758	0	0	0.499068	0.535525	0.228513	0.43935	0.0122527	0.221771	-0.056533	0.227769	0.195199	0.20682	-0.281684	-0.116875	0.0988523	0.219911	-0.0879797	-0.144076	0.324529	0.418896	-0.410258	-0.144045	0.294438	0.430204	-0.532266	-0.204127	-0.53439	-0.342369	-0.250491	-0.359789	-0.466606	0.0488075	-0.301579	0.00444925	
0.940156	5.51758	0	0	0.500935	0.530248	0.22281	0.439849	0.004192	0.22278	-0.060479	0.223457	0.188818	0.210989	-0.288055	-0.116735	0.094313	0.222877	-0.09212	-0.144035	0.324529	0.418896	-0.418327	-0.141035	0.293455	0.432982	-0.532266	-0.204127	-0.53046	-0.3405	-0.248129	-0.353634	-0.460249	0.051342	-0.296899	0.007369	
0.943262	5.51758	0	0	0.500935	0.530248	0.228513	0.43935	0.004192	0.22278	-0.060479	0.223457	0.186024	0.205032	-0.298928	-0.121686	0.0878012	0.22157	-0.0950322	-0.147456	0.319954	0.419551	-0.420797	-0.143944	0.290007	0.430964	-0.53008	-0.210305	-0.53046	-0.3405	-0.242219	-0.357496	-0.452343	0.0495227	-0.302955	0.00833625	
0.945926	5.52063	0	0	0.500935	0.530248	0.234216	0.43885	0.004192	0.22278	-0.060479	0.223457	0.183231	0.199074	-0.309802	-0.126636	0.0812895	0.220264	-0.0979445	-0.150877	0.31538	0.420206	-0.423266	-0.146853	0.286559	0.428945	-0.527894	-0.216483	-0.53046	-0.3405	-0.236309	-0.361357	-0.444437	0.0477035	-0.309011	0.0093035	
0.948108	5.52521	0	0	0.500935	0.530248	0.23992	0.43835	0.004192	0.22278	-0.060479	0.223457	0.180437	0.193117	-0.320676	-0.131587	0.0747777	0.218957	-0.100857	-0.154299	0.310805	0.420862	-0.425736	-0.149763	0.283111	0.426927	-0.525707	-0.222662	-0.53046	-0.3405	-0.230399	-0.365219	-0.436531	0.0458843	-0.315066	0.0102707	
0.949822	5.52826	0	0	0.500935	0.530248	0.245623	0.437851	0.004192	0.22278	-0.060479	0.223457	0.177643	0.18716	-0.331549	-0.136538	0.068266	0.21765	-0.103769	-0.15772	0.30623	0.421517	-0.428206	-0.152672	0.279663	0.424909	-0.523521	-0.22884	-0.53046	-0.3405	-0.224489	-0.369081	-0.428625	0.044065	-0.321122	0.011238	
0.951132	5.53436	0	0	0.490699	0.536936	0.24265	0.446252	0.00027125	0.23386	-0.056533	0.227769	0.175255	0.193908	-0.331549	-0.136538	0.0710942	0.219509	-0.104994	-0.154258	0.304081	0.42759	-0.431329	-0.143846	0.282127	0.429706	-0.537754	-0.210037	-0.528572	-0.332852	-0.218571	-0.360098	-0.417414	0.0534977	-0.31782	0.0180535	
0.952106	5.54809	0	0	0.480463	0.543624	0.239677	0.454653	-0.0036495	0.244941	-0.052587	0.23208	0.172868	0.200655	-0.331549	-0.136538	0.0739225	0.221369	-0.106219	-0.150796	0.301932	0.433663	-0.434452	-0.13502	0.284592	0.434503	-0.551986	-0.191234	-0.526684	-0.325203	-0.212653	-0.351115	-0.406203	0.0629305	-0.314518	0.024869	
0.952811	5.5603	0	0	0.470227	0.550313	0.236705	0.463055	-0.00757025	0.256021	-0.048641	0.236392	0.17048	0.207403	-0.331549	-0.136538	0.0767507	0.223228	-0.107444	-0.147334	0.299783	0.439736	-0.437575	-0.126193	0.287056	0.439301	-0.566219	-0.172432	-0.524796	-0.317555	-0.206735	-0.342132	-0.394993	0.0723632	-0.311216	0.0316845	
0.953312	5.57403	0	0	0.459991	0.557001	0.233732	0.471456	-0.011491	0.267101	-0.044695	0.240704	0.168092	0.214151	-0.331549	-0.136538	0.079579	0.225087	-0.108669	-0.143872	0.297634	0.445809	-0.440698	-0.117367	0.289521	0.444098	-0.580452	-0.153629	-0.522908	-0.309907	-0.200817	-0.333149	-0.383782	0.081796	-0.307914	0.0385	
0.953677	5.59387	0	0	0.472093	0.545039	0.234973	0.483581	-0.0034325	0.266099	-0.0478693	0.249675	0.169286	0.210777	-0.336055	-0.141619	0.0804322	0.222675	-0.108669	-0.143872	0.296559	0.448847	-0.44174	-0.114423	0.289521	0.444098	-0.580452	-0.153629	-0.517951	-0.310924	-0.200817	-0.333149	-0.374305	0.075603	-0.307914	0.0385	
0.953973	5.61218	0	0	0.484194	0.533077	0.236214	0.495706	0.004626	0.265096	-0.0510435	0.258646	0.17048	0.207402	-0.34056	-0.146701	0.0812855	0.220264	-0.108669	-0.143872	0.295484	0.451885	-0.442781	-0.111479	0.289521	0.444098	-0.580452	-0.153629	-0.512994	-0.31194	-0.200817	-0.333149	-0.364827	0.06941	-0.307914	0.0385	
0.954245	5.63202	0	0	0.496296	0.521116	0.237455	0.507832	0.0126845	0.264093	-0.0542177	0.267616	0.171674	0.204028	-0.345066	-0.151782	0.0821387	0.217853	-0.108669	-0.143872	0.294409	0.454924	-0.443823	-0.108535	0.289521	0.444098	-0.580452	-0.153629	-0.508036	-0.312957	-0.200817	-0.333149	-0.355349	0.063217	-0.307914	0.0385	
0.954431	5.65033	0	0	0.508398	0.509154	0.238696	0.519957	0.020743	0.263091	-0.057392	0.276587	0.172868	0.200653	-0.349572	-0.156863	0.082992	0.215441	-0.108669	-0.143872	0.293334	0.457962	-0.444865	-0.105591	0.289521	0.444098	-0.580452	-0.153629	-0.503079	-0.313974	-0.200817	-0.333149	-0.345872	0.057024	-0.307914	0.0385	
0.95443	5.66864	0	0	0.506532	0.514428	0.239932	0.53211	0.0248813	0.273192	-0.0566272	0.289902	0.17965	0.209203	-0.351418	-0.151645	0.0832605	0.22454	-0.115254	-0.136906	0.298178	0.468827	-0.445907	-0.102646	0.290017	0.454467	-0.574973	-0.147693	-0.495201	-0.310225	-0.20082	-0.320273	-0.336166	0.0708457	-0.301854	0.0375335	
0.954145	5.68848	0	0	0.504667	0.519701	0.241167	0.544263	0.0290195	0.283293	-0.0558625	0.303216	0.186432	0.217753	-0.353264	-0.146427	0.083529	0.233639	-0.121839	-0.129941	0.303022	0.479693	-0.446949	-0.0997015	0.290512	0.464835	-0.569493	-0.141757	-0.487323	-0.306477	-0.200823	-0.307396	-0.32646	0.0846675	-0.295794	0.036567	
0.953476	5.70831	0	0	0.502801	0.524975	0.242403	0.556416	0.0331577	0.293395	-0.0550978	0.316531	0.193214	0.226302	-0.355111	-0.141209	0.0837975	0.242738	-0.128424	-0.122976	0.307867	0.490559	-0.447991	-0.0967568	0.291008	0.475204	-0.564014	-0.135822	-0.479445	-0.302729	-0.200826	-0.29452	-0.316753	0.0984893	-0.289733	0.0356005	
0.952322	5.72204	0	0	0.500935	0.530248	0.243639	0.568569	0.037296	0.303496	-0.054333	0.329846	0.199996	0.234852	-0.356957	-0.135991	0.084066	0.251837	-0.135009	-0.11601	0.312711	0.501424	-0.449033	-0.093812	0.291504	0.485573	-0.558535	-0.129886	-0.471567	-0.29898	-0.200829	-0.281644	-0.307047	0.112311	-0.283673	0.034634	
0.950585	5.74341	0	0	0.511183	0.523552	0.247859	0.572301	0.033361	0.314617	-0.050388	0.334186	0.203989	0.237443	-0.346912	-0.146567	0.0832115	0.254252	-0.131334	-0.126396	0.315134	0.506867	-0.459547	-0.0937315	0.289533	0.491142	-0.568394	-0.123444	-0.473616	-0.293188	-0.20438	-0.284477	-0.305498	0.107934	-0.288356	0.0317083	
0.948168	5.75867	0	0	0.521431	0.516856	0.252079	0.576033	0.029426	0.325739	-0.046443	0.338526	0.207981	0.240033	-0.336866	-0.157143	0.082357	0.256667	-0.127659	-0.136783	0.317557	0.512311	-0.470062	-0.093651	0.287562	0.496712	-0.578253	-0.117002	-0.475666	-0.287396	-0.207931	-0.287309	-0.303949	0.103557	-0.29304	0.0287825	
0.945116	5.77087	0	0	0.531679	0.510159	0.256299	0.579765	0.025491	0.336861	-0.042498	0.342866	0.211973	0.242623	-0.32682	-0.167718	0.0815025	0.259081	-0.123983	-0.14717	0.319979	0.517754	-0.480577	-0.0935705	0.285592	0.502282	-0.588112	-0.11056	-0.477715	-0.281605	-0.211481	-0.290141	-0.302401	0.0991807	-0.297723	0.0258567	
0.941711	5.7785	0	0	0.541927	0.503463	0.260519	0.583497	0.021556	0.347982	-0.038553	0.347206	0.215966	0.245214	-0.316775	-0.178294	0.080648	0.261496	-0.120308	-0.157556	0.322402	0.523197	-0.491091	-0.09349	0.283621	0.507851	-0.597971	-0.104118	-0.479764	-0.275813	-0.215032	-0.292974	-0.300852	0.094804	-0.302406	0.022931	
0.938254	5.78918	0	0	0.548452	0.507315	0.263246	0.591461	0.0276597	0.352554	-0.0290592	0.351392	0.216366	0.257968	-0.316775	-0.178294	0.0837418	0.272483	-0.128569	-0.157476	0.327248	0.534104	-0.502627	-0.090475	0.285096	0.515459	-0.607819	-0.0976832	-0.48284	-0.267119	-0.217403	-0.286272	-0.307051	0.112323	-0.301029	0.0190405	
0.93505	5.80139	0	0	0.554977	0.511167	0.265973	0.599424	0.0337635	0.357127	-0.0195655	0.355579	0.216765	0.270723	-0.316775	-0.178294	0.0868355	0.28347	-0.13683	-0.157396	0.332095	0.545011	-0.514163	-0.08746	0.286572	0.523066	-0.617667	-0.0912485	-0.485916	-0.258425	-0.219775	-0.27957	-0.31325	0.129843	-0.299652	0.01515	
0.932402	5.80597	0	0	0.561502	0.515019	0.268701	0.607387	0.0398672	0.3617	-0.0100718	0.359765	0.217165	0.283477	-0.316775	-0.178294	0.0899292	0.294457	-0.145092	-0.157316	0.336942	0.555919	-0.525699	-0.084445	0.288048	0.530674	-0.627514	-0.0848138	-0.488993	-0.24973	-0.222146	-0.272867	-0.31945	0.147363	-0.298276	0.0112595	
0.930611	5.81055	0	0	0.568027	0.518871	0.271428	0.615351	0.045971	0.366272	-0.000578	0.363951	0.217565	0.296232	-0.316775	-0.178294	0.093023	0.305444	-0.153353	-0.157236	0.341788	0.566826	-0.537235	-0.08143	0.289523	0.538281	-0.637362	-0.078379	-0.492069	-0.241036	-0.224518	-0.266165	-0.325649	0.164882	-0.296899	0.007369	
0.929981	5.81817	0	0	0.57456	0.522727	0.277151	0.614864	0.045971	0.366272	-0.000578	0.363951	0.219159	0.305621	-0.321285	-0.183363	0.0913102	0.310284	-0.16328	-0.164027	0.345294	0.569233	-0.550533	-0.093057	0.288536	0.541071	-0.640631	-0.090512	-0.498057	-0.237123	-0.231609	-0.271833	-0.344635	0.177288	-0.312301	0.0024975	
0.930744	5.81817	0	0	0.581093	0.526583	0.282873	0.614376	0.045971	0.366272	-0.000578	0.363951	0.220753	0.315009	-0.325794	-0.188432	0.0895975	0.315125	-0.173208	-0.170818	0.348799	0.57164	-0.563831	-0.104684	0.287549	0.54386	-0.6439	-0.102645	-0.504046	-0.23321	-0.2387	-0.2775	-0.363622	0.189694	-0.327703	-0.002374	
0.932708	5.82733	0	0	0.587626	0.53044	0.288596	0.613888	0.045971	0.366272	-0.000578	0.363951	0.222348	0.324398	-0.330304	-0.193501	0.0878847	0.319966	-0.183135	-0.177608	0.352305	0.574047	-0.577129	-0.116311	0.286562	0.54665	-0.647169	-0.114778	-0.510034	-0.229297	-0.245791	-0.283168	-0.382609	0.202101	-0.343104	-0.0072455	
0.935529	5.8258	0	0	0.594159	0.534296	0.294318	0.613401	0.045971	0.366272	-0.000578	0.363951	0.223942	0.333787	-0.334814	-0.19857	0.086172	0.324806	-0.193062	-0.184399	0.355811	0.576454	-0.590427	-0.127938	0.285575	0.549439	-0.650438	-0.126911	-0.516023	-0.225384	-0.252882	-0.288836	-0.401595	0.214507	-0.358506	-0.012117	
0.938863	5.83038	0	0	0.590415	0.544877	0.288596	0.613888	0.033955	0.378408	-0.00771875	0.368617	0.225534	0.343193	-0.341162	-0.198427	0.0909767	0.330978	-0.198857	-0.191216	0.353647	0.582569	-0.598804	-0.133725	0.2836	0.555021	-0.658077	-0.126669	-0.516023	-0.225384	-0.255241	-0.295011	-0.401595	0.214507	-0.359059	-0.0266582	
0.942363	5.83496	0	0	0.58667	0.555459	0.282873	0.614376	0.021939	0.390543	-0.0148595	0.373283	0.227126	0.352599	-0.347511	-0.198283	0.0957815	0.337151	-0.204653	-0.198033	0.351484	0.588684	-0.607182	-0.139512	0.281625	0.560602	-0.665717	-0.126427	-0.516023	-0.225384	-0.2576	-0.301185	-0.401595	0.214507	-0.359613	-0.0411995	
0.945686	5.83191	0	0	0.582926	0.56604	0.277151	0.614864	0.009923	0.402679	-0.0220002	0.377948	0.228718	0.362005	-0.353859	-0.198139	0.100586	0.343324	-0.210448	-0.20485	0.34932	0.594798	-0.61556	-0.145299	0.27965	0.566183	-0.673356	-0.126185	-0.516023	-0.225384	-0.259959	-0.30736	-0.401595	0.214507	-0.360167	-0.0557407	
0.948487	5.83191	0	0	0.579182	0.576621	0.271428	0.615351	-0.002093	0.414815	-0.029141	0.382614	0.23031	0.371411	-0.360208	-0.197996	0.105391	0.349496	-0.216243	-0.211667	0.347156	0.600913	-0.623937	-0.151086	0.277675	0.571765	-0.680995	-0.125943	-0.516023	-0.225384	-0.262318	-0.313535	-0.401595	0.214507	-0.36072	-0.070282	
0.950422	5.82886	0	0	0.581055	0.571329	0.270195	0.603166	0.009923	0.402679	-0.0299017	0.369262	0.23031	0.371411	-0.36103	-0.213454	0.105391	0.349496	-0.224925	-0.221868	0.348238	0.597855	-0.632302	-0.156863	0.277675	0.571765	-0.696244	-0.125469	-0.517049	-0.222484	-0.265858	-0.31636	-0.403147	0.218892	-0.368126	-0.0654427	
0.951317	5.83038	0	0	0.582928	0.566037	0.268961	0.590981	0.021939	0.390543	-0.0306625	0.355909	0.23031	0.371411	-0.361853	-0.228911	0.105391	0.349496	-0.233607	-0.23207	0.34932	0.594798	-0.640667	-0.162639	0.277675	0.571765	-0.711493	-0.124995	-0.518076	-0.219584	-0.269399	-0.319186	-0.404698	0.223278	-0.375532	-0.0606035	
0.951307	5.83343	0	0	0.5848	0.560745	0.267728	0.578796	0.033955	0.378408	-0.0314232	0.342557	0.23031	0.371411	-0.362675	-0.244368	0.105391	0.349496	-0.24229	-0.242272	0.350402	0.59174	-0.649031	-0.168416	0.277675	0.571765	-0.726742	-0.12452	-0.519102	-0.216684	-0.27294	-0.322012	-0.40625	0.227663	-0.382938	-0.0557643	
0.950559	5.82886	0	0	0.586673	0.555453	0.266494	0.566611	0.045971	0.366272	-0.032184	0.329205	0.23031	0.371411	-0.363497	-0.259826	0.105391	0.349496	-0.250972	-0.252473	0.351484	0.588682	-0.657396	-0.174193	0.277675	0.571765	-0.741991	-0.124046	-0.520128	-0.213784	-0.27648	-0.324837	-0.407802	0.232048	-0.390344	-0.050925	
0.949241	5.83038	0	0	0.586673	0.555453	0.263764	0.558667	0.0378977	0.367266	-0.0290017	0.320212	0.227903	0.378213	-0.369835	-0.259678	0.107366	0.353799	-0.251433	-0.262734	0.345816	0.592385	-0.664716	-0.182877	0.282111	0.571013	-0.747421	-0.129974	-0.519102	-0.216684	-0.277657	-0.334335	-0.404699	0.22328	-0.393635	-0.0577007	
0.94752	5.8258	0	0	0.586673	0.555453	0.261034	0.550724	0.0298245	0.368259	-0.0258195	0.311218	0.225496	0.385014	-0.376173	-0.259529	0.10934	0.358102	-0.251895	-0.272996	0.340149	0.596089	-0.672035	-0.191561	0.286547	0.570261	-0.75285	-0.135903	-0.518076	-0.219584	-0.278834	-0.343832	-0.401597	0.214512	-0.396927	-0.0644765	
0.945564	5.82733	0	0	0.586673	0.555453	0.258304	0.54278	0.0217512	0.369252	-0.0226372	0.302225	0.22309	0.391816	-0.382511	-0.259381	0.111314	0.362405	-0.252356	-0.283257	0.334481	0.599792	-0.679354	-0.200245	0.290983	0.56951	-0.75828	-0.141831	-0.517049	-0.222484	-0.28001	-0.35333	-0.398494	0.205743	-0.400218	-0.0712523	
0.94354	5.82275	0	0	0.586673	0.555453	0.255574	0.534837	0.013678	0.370246	-0.019455	0.293231	0.220683	0.398618	-0.388849	-0.259232	0.113289	0.366708	-0.252817	-0.293518	0.328813	0.603495	-0.686674	-0.208929	0.295419	0.568758	-0.76371	-0.14776	-0.516023	-0.225384	-0.281187	-0.362828	-0.395391	0.196975	-0.403509	-0.078028	
0.941603	5.82123	0	0	0.586673	0.555453	0.254333	0.5227	-0.002437	0.37222	-0.025765	0.280099	0.221886	0.395216	-0.399671	-0.264126	0.109599	0.367255	-0.266797	-0.300197	0.334481	0.599792	-0.691925	-0.223413	0.288018	0.577889	-0.771312	-0.147526	-0.517049	-0.222484	-0.280007	-0.366163	-0.400046	0.210131	-0.396109	-0.082863	
0.939786	5.81817	0	0	0.586673	0.555453	0.253092	0.510563	-0.018552	0.374194	-0.032075	0.266968	0.22309	0.391815	-0.410493	-0.26902	0.105908	0.367802	-0.280777	-0.306875	0.340149	0.596089	-0.697176	-0.237896	0.280617	0.58702	-0.778914	-0.147292	-0.518076	-0.219584	-0.278826	-0.369498	-0.404701	0.223286	-0.38871	-0.087698	
0.938054	5.8136	0	0	0.586673	0.555453	0.25185	0.498425	-0.034667	0.376169	-0.038385	0.253836	0.224294	0.388414	-0.421314	-0.273913	0.102218	0.368348	-0.294757	-0.313554	0.345816	0.592385	-0.702428	-0.25238	0.273217	0.59615	-0.786515	-0.147059	-0.519102	-0.216684	-0.277646	-0.372834	-0.409356	0.236442	-0.38131	-0.092533	
0.936373	5.81055	0	0	0.586673	0.555453	0.250609	0.486288	-0.050782	0.378143	-0.044695	0.240704	0.225497	0.385012	-0.432136	-0.278807	0.098527	0.368895	-0.308737	-0.320233	0.351484	0.588682	-0.707679	-0.266863	0.265816	0.605281	-0.794117	-0.146825	-0.520128	-0.213784	-0.276466	-0.376169	-0.414011	0.249598	-0.37391	-0.097368	
0.934708	5.81055	0	0	0.586673	0.555453	0.262038	0.485291	-0.048815	0.372584	-0.0391587	0.240534	0.217894	0.392595	-0.436623	-0.28384	0.0976687	0.371321	-0.318594	-0.326943	0.345816	0.592385	-0.717417	-0.278367	0.265816	0.605281	-0.79194	-0.152978	-0.53004	-0.211765	-0.282363	-0.385123	-0.420384	0.247018	-0.391987	-0.094471	
0.933024	5.80597	0	0	0.586673	0.555453	0.273467	0.484294	-0.046848	0.367025	-0.0336225	0.240364	0.21029	0.400178	-0.44111	-0.288874	0.0968105	0.373746	-0.328451	-0.333653	0.340149	0.596089	-0.727156	-0.289872	0.265816	0.605281	-0.789763	-0.159131	-0.539953	-0.209747	-0.288261	-0.394076	-0.426758	0.244439	-0.410064	-0.091574	
0.931288	5.80292	0	0	0.586673	0.555453	0.284897	0.483297	-0.044881	0.361466	-0.0280863	0.240194	0.202687	0.407761	-0.445596	-0.293907	0.0959523	0.376172	-0.338308	-0.340362	0.334481	0.599792	-0.736895	-0.301377	0.265816	0.605281	-0.787586	-0.165283	-0.549865	-0.207728	-0.294158	-0.40303	-0.433132	0.241859	-0.42814	-0.088677	
0.929464	5.79834	0	0	0.586673	0.555453	0.296326	0.4823	-0.042914	0.355907	-0.02255	0.240024	0.195084	0.415344	-0.450083	-0.29894	0.095094	0.378598	-0.348165	-0.347072	0.328813	0.603495	-0.746633	-0.312881	0.265816	0.605281	-0.785409	-0.171436	-0.559777	-0.205709	-0.300055	-0.411984	-0.439505	0.239279	-0.446217	-0.08578	
0.927515	5.79529	0	0	0.588545	0.550164	0.303539	0.477587	-0.047029	0.345791	-0.0209632	0.23554	0.191096	0.412721	-0.454566	-0.303966	0.0922638	0.376718	-0.356797	-0.357179	0.323149	0.607196	-0.76083	-0.321426	0.269262	0.607327	-0.793003	-0.171201	-0.565753	-0.201804	-0.30359	-0.41479	-0.437954	0.234896	-0.450865	-0.0886795	
0.925403	5.79376	0	0	0.590416	0.544874	0.310751	0.472874	-0.051144	0.335674	-0.0193765	0.231055	0.187108	0.410098	-0.459049	-0.308993	0.0894335	0.374837	-0.365429	-0.367285	0.317485	0.610897	-0.775028	-0.32997	0.272707	0.609374	-0.800596	-0.170966	-0.571729	-0.1979	-0.307125	-0.417596	-0.436403	0.230513	-0.455514	-0.091579	
0.923088	5.78918	0	0	0.592287	0.539585	0.317964	0.468161	-0.055259	0.325557	-0.0177898	0.226571	0.183119	0.407475	-0.463533	-0.314019	0.0866032	0.372957	-0.374061	-0.377392	0.311821	0.614598	-0.789226	-0.338515	0.276153	0.61142	-0.80819	-0.170731	-0.577705	-0.193995	-0.31066	-0.420402	-0.434853	0.226129	-0.460162	-0.0944785	
0.920529	5.78461	0	0	0.594159	0.534296	0.325177	0.463448	-0.059374	0.315441	-0.016203	0.222087	0.179131	0.404852	-0.468016	-0.319045	0.083773	0.371077	-0.382693	-0.387499	0.306157	0.618299	-0.803423	-0.34706	0.279599	0.613466	-0.815784	-0.170496	-0.583681	-0.19009	-0.314195	-0.423208	-0.433302	0.221746	-0.46481	-0.097378	
0.917688	5.7785	0	0	0.596029	0.52901	0.330906	0.462943	-0.0574118	0.309896	-0.0019395	0.212767	0.175146	0.402231	-0.472496	-0.324064	0.0809445	0.369198	-0.387236	-0.397625	0.30832	0.612186	-0.810697	-0.355643	0.279599	0.613466	-0.821195	-0.176404	-0.587602	-0.191983	-0.320083	-0.432134	-0.44603	0.2166	-0.474094	-0.103169	
0.914525	5.7724	0	0	0.5979	0.523724	0.336635	0.462437	-0.0554495	0.304351	0.012324	0.203447	0.17116	0.39961	-0.476975	-0.329083	0.078116	0.367319	-0.39178	-0.407752	0.310483	0.606074	-0.817971	-0.364226	0.279599	0.613466	-0.826607	-0.182312	-0.591523	-0.193877	-0.325971	-0.44106	-0.458757	0.211454	-0.483379	-0.108961	
0.911	5.76782	0	0	0.59977	0.518439	0.342363	0.461931	-0.0534873	0.298805	0.0265875	0.194126	0.167175	0.396989	-0.481455	-0.334103	0.0752875	0.36544	-0.396323	-0.417879	0.312646	0.599962	-0.825245	-0.372809	0.279599	0.613466	-0.832018	-0.18822	-0.595445	-0.19577	-0.33186	-0.449987	-0.471484	0.206309	-0.492663	-0.114753	
0.907118	5.76019	0	0	0.60164	0.513153	0.348092	0.461426	-0.051525	0.29326	0.040851	0.184806	0.16319	0.394368	-0.485935	-0.339122	0.072459	0.363561	-0.400866	-0.428005	0.314809	0.593849	-0.832519	-0.381392	0.279599	0.613466	-0.837429	-0.194128	-0.599366	-0.197663	-0.337748	-0.458913	-0.484212	0.201163	-0.501947	-0.120544	
0.90306	5.76172	0	0	0.610054	0.511718	0.352334	0.465134	-0.0495643	0.287718	0.042437	0.180324	0.158006	0.395144	-0.494064	-0.33381	0.0642355	0.367071	-0.40661	-0.43471	0.31831	0.59626	-0.837363	-0.387103	0.284037	0.612716	-0.837429	-0.194128	-0.606359	-0.190866	-0.343626	-0.455072	-0.487308	0.209914	-0.512576	-0.122479	
0.899055	5.75714	0	0	0.618469	0.510284	0.356577	0.468842	-0.0476035	0.282176	0.044023	0.175841	0.152823	0.395921	-0.502193	-0.328498	0.056012	0.370582	-0.412354	-0.441415	0.321811	0.598672	-0.842207	-0.392814	0.288474	0.611966	-0.837429	-0.194128	-0.613352	-0.18407	-0.349503	-0.451232	-0.490405	0.218666	-0.523206	-0.124413	
0.895329	5.75104	0	0	0.626884	0.508849	0.36082	0.472551	-0.0456427	0.276635	0.045609	0.171359	0.147639	0.396697	-0.510323	-0.323186	0.0477885	0.374093	-0.418097	-0.44812	0.325312	0.601083	-0.847052	-0.398524	0.292912	0.611217	-0.837429	-0.194128	-0.620344	-0.177274	-0.35538	-0.447391	-0.493501	0.227417	-0.533836	-0.126348	
0.892109	5.74798	0	0	0.635298	0.507415	0.365062	0.476259	-0.043682	0.271093	0.047195	0.166877	0.142455	0.397473	-0.518452	-0.317874	0.039565	0.377603	-0.423841	-0.454825	0.328813	0.603495	-0.851896	-0.404235	0.29735	0.610467	-0.837429	-0.194128	-0.627337	-0.170477	-0.361258	-0.443551	-0.496598	0.236168	-0.544465	-0.128282	
0.889622	5.74341	0	0	0.641851	0.511268	0.369308	0.479971	-0.0456427	0.276635	0.047195	0.166877	0.139677	0.391461	-0.52921	-0.322747	0.037599	0.373302	-0.43078	-0.458124	0.328813	0.603495	-0.858776	-0.404174	0.29735	0.610467	-0.845005	-0.193895	-0.632275	-0.169478	-0.363609	-0.449667	-0.499854	0.224847	-0.57163	-0.131207	
0.888095	5.74036	0	0	0.648405	0.51512	0.373553	0.483683	-0.0476035	0.282176	0.047195	0.166877	0.136898	0.385449	-0.539967	-0.327621	0.035633	0.369001	-0.437719	-0.461423	0.328813	0.603495	-0.865655	-0.404112	0.29735	0.610467	-0.852581	-0.193662	-0.637214	-0.168478	-0.365961	-0.455784	-0.503111	0.213525	-0.598796	-0.134132	
0.887707	5.73425	0	0	0.654958	0.518973	0.377799	0.487395	-0.0495643	0.287718	0.047195	0.166877	0.13412	0.379437	-0.550725	-0.332495	0.033667	0.3647	-0.444658	-0.464723	0.328813	0.603495	-0.872535	-0.40405	0.29735	0.610467	-0.860157	-0.193429	-0.642152	-0.167478	-0.368312	-0.4619	-0.506367	0.202203	-0.625962	-0.137057	
0.88838	5.73578	0	0	0.661511	0.522826	0.382045	0.491107	-0.051525	0.29326	0.047195	0.166877	0.131342	0.373425	-0.561483	-0.337368	0.031701	0.360399	-0.451597	-0.468022	0.328813	0.603495	-0.879415	-0.403989	0.29735	0.610467	-0.867733	-0.193196	-0.64709	-0.166479	-0.370663	-0.468016	-0.509623	0.190882	-0.653127	-0.139982	
0.889948	5.72662	0	0	0.666196	0.531985	0.393537	0.49009	-0.0534873	0.298805	0.0527497	0.166693	0.132542	0.370034	-0.559659	-0.342523	0.0288793	0.358522	-0.460928	-0.464534	0.323149	0.607196	-0.884892	-0.398194	0.29636	0.613264	-0.869904	-0.18706	-0.642152	-0.167478	-0.376533	-0.464181	-0.520605	0.201418	-0.662331	-0.145755	
0.892245	5.7251	0	0	0.670881	0.541144	0.40503	0.489073	-0.0554495	0.304351	0.0583045	0.16651	0.133742	0.366642	-0.557835	-0.347677	0.0260575	0.356644	-0.470258	-0.461047	0.317485	0.610897	-0.890368	-0.392398	0.29537	0.616062	-0.872075	-0.180924	-0.637214	-0.168478	-0.382402	-0.460345	-0.531588	0.211954	-0.671535	-0.151527	
0.895102	5.72052	0	0	0.675567	0.550303	0.416522	0.488057	-0.0574118	0.309896	0.0638593	0.166326	0.134942	0.363251	-0.556011	-0.352832	0.0232357	0.354766	-0.479588	-0.457559	0.311821	0.614598	-0.895845	-0.386603	0.294381	0.618859	-0.874246	-0.174789	-0.632275	-0.169478	-0.388272	-0.45651	-0.54257	0.222489	-0.680739	-0.1573	
0.898355	5.71594	0	0	0.680252	0.559462	0.428014	0.48704	-0.059374	0.315441	0.069414	0.166142	0.136142	0.35986	-0.554187	-0.357987	0.020414	0.352889	-0.488919	-0.454071	0.306157	0.618299	-0.901322	-0.380808	0.293391	0.621656	-0.876417	-0.168653	-0.627337	-0.170477	-0.394142	-0.452675	-0.553552	0.233025	-0.689943	-0.163073	
0.901837	5.71289	0	0	0.697153	0.556577	0.430776	0.494985	-0.0493652	0.308901	0.069414	0.166142	0.138541	0.353082	-0.564926	-0.362845	0.0164847	0.344305	-0.487719	-0.457464	0.307239	0.615242	-0.905776	-0.377897	0.289943	0.619609	-0.869908	-0.187048	-0.632275	-0.169478	-0.401179	-0.458267	-0.558341	0.22608	-0.709655	-0.170771	
0.905383	5.70984	0	0	0.714055	0.553693	0.433538	0.502931	-0.0393565	0.302361	0.069414	0.166142	0.140939	0.346303	-0.575666	-0.367702	0.0125555	0.33572	-0.486518	-0.460856	0.30832	0.612186	-0.910231	-0.374987	0.286495	0.617561	-0.863399	-0.205442	-0.637214	-0.168478	-0.408216	-0.463859	-0.56313	0.219134	-0.729367	-0.17847	
0.908874	5.70526	0	0	0.730956	0.550808	0.4363	0.510876	-0.0293478	0.295821	0.069414	0.166142	0.143338	0.339525	-0.586406	-0.372559	0.00862625	0.327135	-0.485318	-0.464248	0.309402	0.609129	-0.914685	-0.372076	0.283047	0.615513	-0.856891	-0.223836	-0.642152	-0.167478	-0.415252	-0.469452	-0.567918	0.212189	-0.749078	-0.186168	
0.912211	5.70373	0	0	0.747857	0.547923	0.439062	0.518822	-0.019339	0.289281	0.069414	0.166142	0.145736	0.332747	-0.597145	-0.377417	0.004697	0.318551	-0.484118	-0.467641	0.310484	0.606072	-0.91914	-0.369166	0.279599	0.613466	-0.850382	-0.242231	-0.64709	-0.166479	-0.422289	-0.475044	-0.572707	0.205243	-0.76879	-0.193866	
0.9153	5.70221	0	0	0.756325	0.546473	0.443322	0.522546	-0.0132465	0.293834	0.074974	0.165957	0.148133	0.325974	-0.593507	-0.3877	0.008114	0.308894	-0.485318	-0.464248	0.306986	0.60366	-0.917748	-0.363422	0.280588	0.610671	-0.850382	-0.242231	-0.648115	-0.163582	-0.428146	-0.471217	-0.58844	0.208815	-0.779294	-0.195803	
0.918045	5.70221	0	0	0.764792	0.545024	0.447582	0.52627	-0.007154	0.298388	0.080534	0.165771	0.150529	0.3192	-0.589868	-0.397983	0.011531	0.299237	-0.486518	-0.460856	0.303488	0.601248	-0.916356	-0.357677	0.281577	0.607875	-0.850382	-0.242231	-0.64914	-0.160685	-0.434004	-0.467389	-0.604172	0.212387	-0.789797	-0.19774	
0.92035	5.69916	0	0	0.77326	0.543574	0.451843	0.529994	-0.0010615	0.302941	0.086094	0.165585	0.152925	0.312426	-0.586229	-0.408265	0.014948	0.289579	-0.487719	-0.457464	0.299989	0.598836	-0.914964	-0.351932	0.282567	0.605079	-0.850382	-0.242231	-0.650165	-0.157787	-0.439862	-0.463561	-0.619904	0.215958	-0.800301	-0.199677	
0.92212	5.70373	0	0	0.781728	0.542124	0.456103	0.533718	0.005031	0.307494	0.091654	0.1654	0.155322	0.305653	-0.582591	-0.418548	0.018365	0.279922	-0.488919	-0.454071	0.296491	0.596424	-0.913572	-0.346188	0.283556	0.602284	-0.850382	-0.242231	-0.65119	-0.15489	-0.445719	-0.459734	-0.635637	0.21953	-0.810805	-0.201614	
0.923258	5.69458	0	0	0.783607	0.536813	0.456103	0.533718	0.0069955	0.301942	0.08768	0.161104	0.152538	0.299669	-0.591501	-0.428509	0.015284	0.268962	-0.488919	-0.454071	0.294075	0.590962	-0.916637	-0.337525	0.279121	0.603033	-0.865511	-0.241757	-0.652216	-0.151992	-0.451572	-0.455909	-0.643489	0.221309	-0.822637	-0.199743	
0.923698	5.69	0	0	0.785486	0.531502	0.456103	0.533718	0.00896	0.29639	0.083706	0.156807	0.149753	0.293685	-0.600411	-0.438471	0.012203	0.258001	-0.488919	-0.454071	0.291659	0.5855	-0.919703	-0.328861	0.274686	0.603782	-0.88064	-0.241283	-0.653241	-0.149094	-0.457426	-0.452085	-0.65134	0.223088	-0.834469	-0.197873	
0.923426	5.69153	0	0	0.787366	0.52619	0.456103	0.533718	0.0109245	0.290838	0.079732	0.15251	0.146969	0.287701	-0.609322	-0.448433	0.009122	0.247041	-0.488919	-0.454071	0.289243	0.580038	-0.922769	-0.320197	0.270251	0.604532	-0.89577	-0.240809	-0.654266	-0.146196	-0.46328	-0.44826	-0.659192	0.224867	-0.846302	-0.196002	
0.92243	5.68695	0	0	0.789245	0.520879	0.456103	0.533718	0.012889	0.285286	0.075758	0.148214	0.144185	0.281717	-0.618232	-0.458394	0.006041	0.236081	-0.488919	-0.454071	0.286827	0.574576	-0.925834	-0.311534	0.265816	0.605281	-0.910899	-0.240335	-0.655292	-0.143298	-0.469133	-0.444435	-0.667044	0.226646	-0.858134	-0.194131	
0.920699	5.68848	0	0	0.789245	0.520879	0.461866	0.533208	0.0109245	0.290838	0.0868848	0.147837	0.144185	0.281717	-0.616418	-0.463519	0.007745	0.231265	-0.491321	-0.447282	0.283333	0.572169	-0.927879	-0.305754	0.27124	0.601737	-0.918449	-0.240102	-0.654266	-0.146196	-0.476145	-0.450029	-0.663961	0.217933	-0.864561	-0.207484	
0.918225	5.68542	0	0	0.789245	0.520879	0.467629	0.532699	0.00896	0.29639	0.0980115	0.14746	0.144185	0.281717	-0.614605	-0.468645	0.009449	0.22645	-0.493723	-0.440493	0.279838	0.569763	-0.929925	-0.299974	0.276664	0.598193	-0.925999	-0.23987	-0.653241	-0.149094	-0.483156	-0.455623	-0.660878	0.20922	-0.870988	-0.220836	
0.914995	5.6839	0	0	0.789245	0.520879	0.473392	0.53219	0.0069955	0.301942	0.109138	0.147083	0.144185	0.281717	-0.612792	-0.47377	0.011153	0.221634	-0.496126	-0.433705	0.276344	0.567356	-0.93197	-0.294193	0.282087	0.594649	-0.933549	-0.239638	-0.652216	-0.151992	-0.490168	-0.461216	-0.657796	0.200508	-0.877414	-0.234189	
0.911	5.67932	0	0	0.789245	0.520879	0.479155	0.53168	0.005031	0.307494	0.120265	0.146706	0.144185	0.281717	-0.610978	-0.478895	0.012857	0.216818	-0.498528	-0.426916	0.27285	0.56495	-0.934015	-0.288413	0.287511	0.591105	-0.941099	-0.239405	-0.65119	-0.15489	-0.49718	-0.46681	-0.654713	0.191795	-0.883841	-0.247542	
0.906277	5.67932	0	0	0.791123	0.515571	0.471893	0.536425	-0.0010615	0.302941	0.109138	0.147083	0.13901	0.282499	-0.623498	-0.478587	0.00721925	0.213103	-0.503789	-0.423478	0.26828	0.565593	-0.931605	-0.285541	0.286522	0.5939	-0.938937	-0.245516	-0.653241	-0.149093	-0.501852	-0.466299	-0.656254	0.196151	-0.887053	-0.254202	
0.901052	5.67779	0	0	0.793001	0.510263	0.464631	0.54117	-0.007154	0.298388	0.0980115	0.14746	0.133835	0.283281	-0.636018	-0.47828	0.0015815	0.209389	-0.50905	-0.420041	0.263709	0.566236	-0.929195	-0.282669	0.285533	0.596695	-0.936775	-0.251627	-0.655293	-0.143296	-0.506524	-0.465788	-0.657795	0.200506	-0.890265	-0.260863	
0.895603	5.67169	0	0	0.794879	0.504956	0.45737	0.545915	-0.0132465	0.293834	0.0868848	0.147837	0.12866	0.284064	-0.648538	-0.477973	-0.00405625	0.205674	-0.51431	-0.416604	0.259138	0.566878	-0.926785	-0.279797	0.284545	0.599489	-0.934613	-0.257737	-0.657344	-0.137499	-0.511196	-0.465276	-0.659336	0.204861	-0.893476	-0.267523	
0.890202	5.66711	0	0	0.796757	0.499648	0.450108	0.55066	-0.019339	0.289281	0.075758	0.148214	0.123485	0.284846	-0.661058	-0.477665	-0.009694	0.201959	-0.519571	-0.413166	0.254568	0.567521	-0.924375	-0.276925	0.283556	0.602284	-0.932451	-0.263848	-0.659395	-0.131702	-0.515868	-0.464765	-0.660877	0.209217	-0.896688	-0.274184	
0.885126	5.66559	0	0	0.793	0.510267	0.448609	0.554898	-0.0213022	0.29483	0.0670313	0.157362	0.126266	0.290829	-0.661058	-0.477665	-0.00602475	0.20141	-0.523178	-0.402973	0.250001	0.568162	-0.929855	-0.271119	0.282567	0.605079	-0.939993	-0.263614	-0.658369	-0.134601	-0.514696	-0.48076	-0.673475	0.204065	-0.904448	-0.283687	
0.88065	5.66559	0	0	0.789243	0.520886	0.447109	0.559135	-0.0232655	0.300378	0.0583045	0.16651	0.129047	0.296813	-0.661058	-0.477665	-0.0023555	0.200862	-0.526784	-0.39278	0.245434	0.568804	-0.935336	-0.265314	0.281577	0.607875	-0.947535	-0.263381	-0.657343	-0.1375	-0.513524	-0.496754	-0.686074	0.198913	-0.912209	-0.29319	
0.877049	5.66101	0	0	0.785485	0.531505	0.44561	0.563372	-0.0252288	0.305927	0.0495778	0.175658	0.131828	0.302796	-0.661058	-0.477665	0.00131375	0.200314	-0.53039	-0.382588	0.240867	0.569445	-0.940817	-0.259509	0.280588	0.610671	-0.955077	-0.263147	-0.656318	-0.140399	-0.512353	-0.512749	-0.698672	0.193762	-0.91997	-0.302693	
0.874518	5.66254	0	0	0.781728	0.542124	0.444111	0.56761	-0.027192	0.311476	0.040851	0.184806	0.134609	0.308779	-0.661058	-0.477665	0.004983	0.199765	-0.533997	-0.372395	0.2363	0.570086	-0.946297	-0.253703	0.279599	0.613466	-0.962619	-0.262913	-0.655292	-0.143298	-0.511181	-0.528744	-0.71127	0.18861	-0.92773	-0.312196	
0.872919	5.65796	0	0	0.779848	0.547438	0.449873	0.567105	-0.0352375	0.312467	0.0353023	0.184986	0.134992	0.321549	-0.661058	-0.477665	0.00242875	0.206983	-0.536404	-0.365593	0.239789	0.572493	-0.946297	-0.253703	0.282057	0.618312	-0.962619	-0.262913	-0.656318	-0.140399	-0.517015	-0.537597	-0.709732	0.184263	-0.935481	-0.321675	
0.872026	5.65338	0	0	0.777967	0.552752	0.455634	0.566599	-0.043283	0.313458	0.0297535	0.185166	0.135376	0.334319	-0.661058	-0.477665	-0.0001255	0.214202	-0.538811	-0.358791	0.243277	0.574901	-0.946297	-0.253703	0.284515	0.623158	-0.962619	-0.262913	-0.657343	-0.1375	-0.522849	-0.54645	-0.708194	0.179916	-0.943231	-0.331153	
0.871613	5.65185	0	0	0.776086	0.558067	0.461395	0.566094	-0.0513285	0.31445	0.0242047	0.185346	0.135759	0.34709	-0.661058	-0.477665	-0.00267975	0.221421	-0.541217	-0.35199	0.246765	0.577308	-0.946297	-0.253703	0.286973	0.628003	-0.962619	-0.262913	-0.658369	-0.134601	-0.528683	-0.555303	-0.706656	0.17557	-0.950982	-0.340632	
0.871454	5.65033	0	0	0.774206	0.563381	0.467157	0.565589	-0.059374	0.315441	0.018656	0.185526	0.136142	0.35986	-0.661058	-0.477665	-0.005234	0.228639	-0.543624	-0.345188	0.250254	0.579715	-0.946297	-0.253703	0.289431	0.632849	-0.962619	-0.262913	-0.659395	-0.131702	-0.534517	-0.564156	-0.705118	0.171223	-0.958732	-0.350111	
0.871322	5.6488	0	0	0.782684	0.561929	0.459895	0.570334	-0.059374	0.315441	0.020241	0.181046	0.13772	0.369263	-0.654801	-0.477818	0.00125725	0.229952	-0.548882	-0.341753	0.249175	0.582765	-0.948704	-0.256578	0.290421	0.630051	-0.958302	-0.275113	-0.656319	-0.140396	-0.53686	-0.582841	-0.705269	0.151305	-0.971005	-0.3624	
0.870992	5.64422	0	0	0.791162	0.560477	0.452634	0.575079	-0.059374	0.315441	0.021826	0.176566	0.139298	0.378667	-0.648545	-0.47797	0.0077485	0.231264	-0.554139	-0.338317	0.248095	0.585814	-0.951111	-0.259454	0.291411	0.627252	-0.953985	-0.287313	-0.653242	-0.149091	-0.539203	-0.601525	-0.70542	0.131386	-0.983278	-0.37469	
0.870307	5.64728	0	0	0.79964	0.559026	0.445372	0.579823	-0.059374	0.315441	0.023411	0.172086	0.140877	0.38807	-0.642288	-0.478123	0.0142397	0.232577	-0.559396	-0.334882	0.247016	0.588863	-0.953518	-0.262329	0.292401	0.624454	-0.949669	-0.299514	-0.650166	-0.157785	-0.541546	-0.62021	-0.70557	0.111468	-0.995552	-0.386979	
0.869377	5.6427	0	0	0.808118	0.557574	0.43811	0.584568	-0.059374	0.315441	0.024996	0.167606	0.142455	0.397473	-0.636031	-0.478276	0.020731	0.233889	-0.564654	-0.331447	0.245937	0.591913	-0.955925	-0.265204	0.293391	0.621656	-0.945352	-0.311714	-0.64709	-0.166479	-0.543889	-0.638895	-0.705721	0.09155	-1.00782	-0.399268	
0.868372	5.63965	0	0	0.806235	0.562895	0.43811	0.584568	-0.059374	0.315441	0.024996	0.167606	0.142827	0.410295	-0.645912	-0.467882	0.0192858	0.247811	-0.559396	-0.334882	0.245937	0.591913	-0.954902	-0.268096	0.293391	0.621656	-0.945352	-0.311714	-0.645041	-0.17227	-0.542747	-0.654764	-0.710478	0.0846718	-1.00117	-0.418089	
0.867466	5.6366	0	0	0.804353	0.568215	0.43811	0.584568	-0.059374	0.315441	0.024996	0.167606	0.143199	0.423117	-0.655793	-0.457487	0.0178405	0.261732	-0.554139	-0.338317	0.245937	0.591913	-0.953879	-0.270987	0.293391	0.621656	-0.945352	-0.311714	-0.642992	-0.178062	-0.541604	-0.670634	-0.715236	0.0777935	-0.994506	-0.43691	
0.866831	5.63202	0	0	0.80247	0.573535	0.43811	0.584568	-0.059374	0.315441	0.024996	0.167606	0.143571	0.435939	-0.665673	-0.447093	0.0163953	0.275653	-0.548882	-0.341753	0.245937	0.591913	-0.952856	-0.273879	0.293391	0.621656	-0.945352	-0.311714	-0.640942	-0.183854	-0.540461	-0.686504	-0.719993	0.0709152	-0.987847	-0.455731	
0.866638	5.63202	0	0	0.800588	0.578856	0.43811	0.584568	-0.059374	0.315441	0.024996	0.167606	0.143943	0.448761	-0.675554	-0.436699	0.01495	0.289575	-0.543624	-0.345188	0.245937	0.591913	-0.951833	-0.276771	0.293391	0.621656	-0.945352	-0.311714	-0.638893	-0.189645	-0.539319	-0.702373	-0.72475	0.064037	-0.981187	-0.474552	
0.86706	5.62897	0	0	0.812842	0.566758	0.441109	0.576091	-0.055451	0.304354	0.022618	0.158838	0.143943	0.448761	-0.67193	-0.446941	0.017771	0.291444	-0.547678	-0.345154	0.249173	0.582767	-0.955624	-0.285398	0.298337	0.607678	-0.946427	-0.329732	-0.640758	-0.197323	-0.548647	-0.713879	-0.726448	0.048534	-0.997435	-0.475489	
0.868186	5.62744	0	0	0.825097	0.554661	0.444109	0.567614	-0.051528	0.293267	0.02024	0.15007	0.143943	0.448761	-0.668306	-0.457182	0.020592	0.293313	-0.551732	-0.34512	0.25241	0.573622	-0.959415	-0.294025	0.303283	0.5937	-0.947503	-0.347749	-0.642623	-0.205001	-0.557976	-0.725385	-0.728145	0.033031	-1.01368	-0.476425	
0.869838	5.62439	0	0	0.837352	0.542563	0.447109	0.559137	-0.047605	0.28218	0.017862	0.141302	0.143943	0.448761	-0.664682	-0.467423	0.023413	0.295182	-0.555786	-0.345087	0.255646	0.564477	-0.963206	-0.302652	0.308229	0.579722	-0.948578	-0.365767	-0.644487	-0.212679	-0.567304	-0.736891	-0.729842	0.017528	-1.02993	-0.477362	
0.87179	5.62134	0	0	0.849606	0.530465	0.450108	0.55066	-0.043682	0.271093	0.015484	0.132534	0.143943	0.448761	-0.661058	-0.477665	0.026234	0.297051	-0.55984	-0.345053	0.258882	0.555331	-0.966997	-0.311279	0.313175	0.565744	-0.949654	-0.383785	-0.646352	-0.220357	-0.576633	-0.748397	-0.73154	0.002025	-1.04618	-0.478299	
0.873812	5.61828	0	0	0.842996	0.52661	0.451607	0.546425	-0.0397638	0.26002	0.018647	0.123595	0.14672	0.454798	-0.66287	-0.472546	0.0273462	0.303755	-0.55984	-0.345053	0.25996	0.552285	-0.967362	-0.319911	0.309724	0.563705	-0.952888	-0.395679	-0.64924	-0.225135	-0.576661	-0.760923	-0.73477	-0.00912525	-1.04087	-0.493302	
0.875678	5.61981	0	0	0.836386	0.522756	0.453105	0.542189	-0.0358455	0.248946	0.02181	0.114655	0.149496	0.460835	-0.664681	-0.467426	0.0284585	0.310458	-0.55984	-0.345053	0.261038	0.549238	-0.967726	-0.328543	0.306273	0.561667	-0.956122	-0.407573	-0.652127	-0.229912	-0.576689	-0.77345	-0.737999	-0.0202755	-1.03556	-0.508305	
0.87716	5.61523	0	0	0.829776	0.518902	0.454604	0.537953	-0.0319272	0.237873	0.024973	0.105716	0.152273	0.466871	-0.666493	-0.462307	0.0295707	0.317162	-0.55984	-0.345053	0.262115	0.546191	-0.968091	-0.337176	0.302822	0.559628	-0.959357	-0.419466	-0.655015	-0.23469	-0.576718	-0.785976	-0.741229	-0.0314258	-1.03025	-0.523308	
0.878029	5.61371	0	0	0.823166	0.515047	0.456103	0.533718	-0.028009	0.2268	0.028136	0.096776	0.15505	0.472908	-0.668304	-0.457188	0.030683	0.323866	-0.55984	-0.345053	0.263193	0.543145	-0.968456	-0.345808	0.299371	0.557589	-0.962591	-0.43136	-0.657903	-0.239468	-0.576746	-0.798502	-0.744459	-0.042576	-1.02494	-0.538311	
0.878109	5.61371	0	0	0.826923	0.504428	0.462091	0.516796	-0.022141	0.210216	0.0233665	0.0793158	0.151069	0.470274	-0.672743	-0.462157	0.030683	0.323866	-0.561486	-0.351816	0.258625	0.543789	-0.970862	-0.348667	0.295922	0.555551	-0.960445	-0.437425	-0.649904	-0.249134	-0.581391	-0.797973	-0.745984	-0.038267	-1.02494	-0.538311	
0.877402	5.61218	0	0	0.83068	0.493809	0.468078	0.499874	-0.016273	0.193632	0.018597	0.0618555	0.147089	0.46764	-0.677181	-0.467125	0.030683	0.323866	-0.563133	-0.358579	0.254057	0.544432	-0.973267	-0.351526	0.292473	0.553514	-0.958299	-0.44349	-0.641906	-0.2588	-0.586035	-0.797445	-0.747508	-0.033958	-1.02494	-0.538311	
0.875945	5.6076	0	0	0.834438	0.48319	0.474066	0.482952	-0.010405	0.177047	0.0138275	0.0443952	0.143108	0.465006	-0.68162	-0.472094	0.030683	0.323866	-0.564779	-0.365343	0.24949	0.545075	-0.975673	-0.354385	0.289024	0.551477	-0.956153	-0.449555	-0.633908	-0.268466	-0.59068	-0.796916	-0.749033	-0.029649	-1.02494	-0.538311	
0.873776	5.59997	0	0	0.838195	0.472571	0.480054	0.46603	-0.004537	0.160463	0.009058	0.026935	0.139127	0.462372	-0.686059	-0.477063	0.030683	0.323866	-0.566425	-0.372106	0.244922	0.545719	-0.978079	-0.357244	0.285575	0.549439	-0.954007	-0.45562	-0.625909	-0.278132	-0.595325	-0.796387	-0.750558	-0.02534	-1.02494	-0.538311	
0.870934	5.60455	0	0	0.840072	0.467266	0.472798	0.470771	-0.0125803	0.161474	0.0122085	0.0180312	0.139127	0.462372	-0.686059	-0.477063	0.034362	0.323321	-0.565223	-0.375502	0.251644	0.538986	-0.97706	-0.360124	0.287549	0.543861	-0.951863	-0.461681	-0.628802	-0.282896	-0.595358	-0.808883	-0.744463	-0.0425637	-1.03664	-0.536428	
0.867455	5.59997	0	0	0.841949	0.461962	0.465542	0.475512	-0.0206235	0.162485	0.015359	0.0091275	0.139127	0.462372	-0.686059	-0.477063	0.038041	0.322776	-0.564021	-0.378899	0.258367	0.532253	-0.976041	-0.363005	0.289523	0.538282	-0.949718	-0.467742	-0.631694	-0.287659	-0.595391	-0.821379	-0.738369	-0.0597875	-1.04834	-0.534546	
0.863378	5.59845	0	0	0.843826	0.456657	0.458287	0.480253	-0.0286667	0.163496	0.0185095	0.00022375	0.139127	0.462372	-0.686059	-0.477063	0.04172	0.322231	-0.56282	-0.382295	0.265089	0.52552	-0.975022	-0.365885	0.291496	0.532704	-0.947573	-0.473802	-0.634587	-0.292423	-0.595424	-0.833875	-0.732275	-0.0770113	-1.06003	-0.532663	
0.858807	5.5954	0	0	0.845703	0.451352	0.451031	0.484994	-0.03671	0.164507	0.02166	-0.00868	0.139127	0.462372	-0.686059	-0.477063	0.045399	0.321686	-0.561618	-0.385691	0.271812	0.518787	-0.974003	-0.368765	0.29347	0.527126	-0.945429	-0.479863	-0.637479	-0.297187	-0.595457	-0.846371	-0.72618	-0.094235	-1.07173	-0.53078	
0.854023	5.5954	0	0	0.847579	0.44605	0.452526	0.480768	-0.0347577	0.158989	0.0137355	-0.017172	0.132742	0.466544	-0.68425	-0.482176	0.043687	0.326524	-0.561618	-0.385691	0.269657	0.524876	-0.972984	-0.371644	0.294457	0.524338	-0.945429	-0.479863	-0.64037	-0.301945	-0.600096	-0.84584	-0.72618	-0.094235	-1.07041	-0.534524	
0.849331	5.59387	0	0	0.849455	0.440749	0.454021	0.476543	-0.0328055	0.153471	0.005811	-0.025664	0.126357	0.470716	-0.682441	-0.48729	0.041975	0.331361	-0.561618	-0.385691	0.267502	0.530966	-0.971965	-0.374524	0.295443	0.521551	-0.945429	-0.479863	-0.643262	-0.306704	-0.604735	-0.845309	-0.72618	-0.094235	-1.06908	-0.538268	
0.845038	5.59387	0	0	0.851331	0.435447	0.455517	0.472318	-0.0308532	0.147954	-0.0021135	-0.034156	0.119971	0.474889	-0.680631	-0.492403	0.040263	0.336199	-0.561618	-0.385691	0.265348	0.537056	-0.970946	-0.377404	0.29643	0.518763	-0.945429	-0.479863	-0.646154	-0.311462	-0.609375	-0.844779	-0.72618	-0.094235	-1.06776	-0.542011	
0.841453	5.59082	0	0	0.853207	0.430146	0.457012	0.468092	-0.028901	0.142436	-0.010038	-0.042648	0.113586	0.479061	-0.678822	-0.497516	0.038551	0.341037	-0.561618	-0.385691	0.263193	0.543145	-0.969927	-0.380283	0.297416	0.515975	-0.945429	-0.479863	-0.649045	-0.31622	-0.614014	-0.844248	-0.72618	-0.094235	-1.06643	-0.545755	
0.838882	5.59082	0	0	0.853207	0.430146	0.457012	0.468092	-0.0269498	0.136922	-0.0139963	-0.0468865	0.115993	0.472257	-0.68326	-0.502472	0.0348728	0.341581	-0.564467	-0.389049	0.264271	0.5401	-0.971315	-0.386013	0.301359	0.504833	-0.950814	-0.485654	-0.645988	-0.324858	-0.612903	-0.859959	-0.72942	-0.105334	-1.07414	-0.555091	
0.837624	5.58777	0	0	0.853207	0.430146	0.457012	0.468092	-0.0249985	0.131407	-0.0179545	-0.051125	0.118401	0.465453	-0.687697	-0.507429	0.0311945	0.342124	-0.567316	-0.392406	0.265348	0.537054	-0.972703	-0.391742	0.305301	0.49369	-0.956199	-0.491444	-0.642932	-0.333496	-0.611792	-0.87567	-0.732661	-0.116433	-1.08185	-0.564427	
0.83772	5.58929	0	0	0.853207	0.430146	0.457012	0.468092	-0.0230472	0.125892	-0.0219128	-0.0553635	0.120809	0.458648	-0.692134	-0.512385	0.0275163	0.342668	-0.570165	-0.395764	0.266426	0.534009	-0.974092	-0.397472	0.309244	0.482548	-0.961585	-0.497235	-0.639876	-0.342135	-0.610682	-0.891381	-0.735901	-0.127532	-1.08956	-0.573763	
0.83891	5.58929	0	0	0.853207	0.430146	0.457012	0.468092	-0.021096	0.120378	-0.025871	-0.059602	0.123216	0.451844	-0.696572	-0.517341	0.023838	0.343212	-0.573014	-0.399122	0.267504	0.530964	-0.97548	-0.403202	0.313186	0.471406	-0.96697	-0.503026	-0.636819	-0.350773	-0.609571	-0.907092	-0.739141	-0.138631	-1.09726	-0.583099	
0.840916	5.58624	0	0	0.851331	0.435447	0.462772	0.467577	-0.021096	0.120378	-0.0329645	-0.054967	0.119241	0.449214	-0.701006	-0.52229	0.0255493	0.338375	-0.575862	-0.402476	0.273153	0.527273	-0.976869	-0.408925	0.315156	0.46584	-0.96483	-0.509074	-0.638695	-0.358392	-0.610764	-0.916285	-0.739141	-0.138631	-1.1121	-0.587746	
0.84346	5.58929	0	0	0.849455	0.440749	0.468533	0.467061	-0.021096	0.120378	-0.040058	-0.050332	0.115266	0.446585	-0.70544	-0.52724	0.0272605	0.333539	-0.578709	-0.40583	0.278802	0.523581	-0.978258	-0.414648	0.317125	0.460274	-0.962689	-0.515123	-0.640571	-0.366011	-0.611957	-0.925477	-0.739141	-0.138631	-1.12694	-0.592392	
0.846265	5.58777	0	0	0.847579	0.44605	0.474293	0.466546	-0.021096	0.120378	-0.0471515	-0.045697	0.111291	0.443955	-0.709874	-0.532189	0.0289717	0.328703	-0.581557	-0.409185	0.284451	0.51989	-0.979647	-0.42037	0.319095	0.454708	-0.960549	-0.521172	-0.642447	-0.37363	-0.613149	-0.93467	-0.739141	-0.138631	-1.14178	-0.597039	
0.849054	5.58166	0	0	0.845703	0.451352	0.480054	0.46603	-0.021096	0.120378	-0.054245	-0.041062	0.107316	0.441325	-0.714308	-0.537138	0.030683	0.323866	-0.584405	-0.412539	0.2901	0.516199	-0.981036	-0.426093	0.321064	0.449142	-0.958409	-0.52722	-0.644323	-0.381249	-0.614342	-0.943863	-0.739141	-0.138631	-1.15662	-0.601685	
0.851565	5.58624	0	0	0.856075	0.444575	0.481549	0.461805	-0.021096	0.120378	-0.0424458	-0.0589965	0.099375	0.436072	-0.723166	-0.547017	0.0222222	0.318252	-0.588898	-0.422624	0.284188	0.508368	-0.984831	-0.43465	0.320562	0.438784	-0.96917	-0.538757	-0.653155	-0.382104	-0.625938	-0.948731	-0.746935	-0.136838	-1.17142	-0.606328	
0.853751	5.58624	0	0	0.866447	0.437797	0.483044	0.457579	-0.021096	0.120378	-0.0306465	-0.076931	0.091434	0.430818	-0.732024	-0.556895	0.0137615	0.312637	-0.593392	-0.432708	0.278276	0.500536	-0.988625	-0.443207	0.320059	0.428426	-0.979931	-0.550294	-0.661987	-0.38296	-0.637535	-0.953599	-0.754729	-0.135045	-1.18622	-0.61097	
0.855712	5.58777	0	0	0.876819	0.43102	0.484539	0.453354	-0.021096	0.120378	-0.0188472	-0.0948655	0.083493	0.425565	-0.740882	-0.566774	0.00530075	0.307022	-0.597885	-0.442793	0.272364	0.492705	-0.99242	-0.451764	0.319557	0.418069	-0.990693	-0.561831	-0.670818	-0.383815	-0.649131	-0.958466	-0.762523	-0.133253	-1.20102	-0.615613	
0.857553	5.58472	0	0	0.887191	0.424243	0.486034	0.449128	-0.021096	0.120378	-0.007048	-0.1128	0.075552	0.420312	-0.74974	-0.576652	-0.00316	0.301408	-0.602379	-0.452878	0.266452	0.484874	-0.996214	-0.460321	0.319055	0.407711	-1.00145	-0.573368	-0.67965	-0.38467	-0.660727	-0.963334	-0.770317	-0.13146	-1.21582	-0.620255	
0.859376	5.58319	0	0	0.887191	0.424243	0.497573	0.448087	-0.021096	0.120378	-0.003085	-0.108575	0.0751827	0.407523	-0.750569	-0.591741	-0.00256475	0.289894	-0.604027	-0.459601	0.264035	0.479446	-1.00305	-0.460264	0.315603	0.405697	-1.0047	-0.585143	-0.685424	-0.39413	-0.670014	-0.97465	-0.782844	-0.136459	-1.22926	-0.628605	
0.861285	5.58319	0	0	0.887191	0.424243	0.509112	0.447046	-0.021096	0.120378	0.000878	-0.104349	0.0748135	0.394733	-0.751397	-0.60683	-0.0019695	0.278381	-0.605675	-0.466325	0.261618	0.474017	-1.00988	-0.460207	0.312152	0.403682	-1.00794	-0.596917	-0.691199	-0.40359	-0.679302	-0.985966	-0.795372	-0.141458	-1.24271	-0.636954	
0.863383	5.58166	0	0	0.887191	0.424243	0.52065	0.446005	-0.021096	0.120378	0.004841	-0.100124	0.0744443	0.381943	-0.752226	-0.621919	-0.00137425	0.266868	-0.607323	-0.473048	0.259202	0.468589	-1.01672	-0.460151	0.3087	0.401668	-1.01118	-0.608692	-0.696974	-0.41305	-0.688589	-0.997282	-0.807899	-0.146457	-1.25616	-0.645304	
0.86576	5.58166	0	0	0.887191	0.424243	0.532189	0.444964	-0.021096	0.120378	0.008804	-0.095899	0.074075	0.369154	-0.753055	-0.637008	-0.000779	0.255354	-0.608971	-0.479772	0.256785	0.463161	-1.02356	-0.460094	0.305248	0.399654	-1.01442	-0.620467	-0.702748	-0.42251	-0.697877	-1.0086	-0.820426	-0.151456	-1.2696	-0.653653	
0.868379	5.58166	0	0	0.887191	0.424243	0.532189	0.444964	-0.0291313	0.121392	0.0119405	-0.104763	0.0649493	0.367311	-0.763694	-0.641756	-0.0092275	0.249768	-0.61062	-0.486486	0.253295	0.460774	-1.02697	-0.460066	0.305248	0.399654	-1.02405	-0.614177	-0.706647	-0.424368	-0.707101	-1.00753	-0.821942	-0.147172	-1.27855	-0.659208	
0.871134	5.57556	0	0	0.887191	0.424243	0.532189	0.444964	-0.0371665	0.122406	0.015077	-0.113627	0.0558235	0.365468	-0.774332	-0.646505	-0.017676	0.244181	-0.612269	-0.4932	0.249805	0.458387	-1.03039	-0.460039	0.305248	0.399654	-1.03368	-0.607887	-0.710546	-0.426226	-0.716325	-1.00646	-0.823458	-0.142888	-1.28749	-0.664763	
0.873916	5.57709	0	0	0.887191	0.424243	0.532189	0.444964	-0.0452017	0.123419	0.0182135	-0.122491	0.0466978	0.363624	-0.784971	-0.651253	-0.0261245	0.238595	-0.613918	-0.499915	0.246316	0.456	-1.0338	-0.460012	0.305248	0.399654	-1.0433	-0.601597	-0.714444	-0.428084	-0.72555	-1.00539	-0.824974	-0.138603	-1.29644	-0.670318	
0.876618	5.57556	0	0	0.887191	0.424243	0.532189	0.444964	-0.053237	0.124433	0.02135	-0.131355	0.037572	0.361781	-0.795609	-0.656001	-0.034573	0.233009	-0.615567	-0.506629	0.242826	0.453613	-1.03721	-0.459984	0.305248	0.399654	-1.05293	-0.595307	-0.718343	-0.429942	-0.734774	-1.00432	-0.82649	-0.134319	-1.30539	-0.675873	
0.879133	5.57251	0	0	0.887191	0.424243	0.530692	0.449194	-0.053237	0.124433	0.0268873	-0.131567	0.0411608	0.351638	-0.800025	-0.660905	-0.0339848	0.221536	-0.619604	-0.506586	0.239338	0.451228	-1.03279	-0.462878	0.30623	0.396878	-1.04868	-0.607334	-0.721226	-0.434661	-0.740567	-1.01292	-0.815681	-0.144675	-1.32139	-0.676795	
0.881354	5.57403	0	0	0.887191	0.424243	0.529195	0.453423	-0.053237	0.124433	0.0324245	-0.131778	0.0447495	0.341496	-0.804441	-0.665808	-0.0333965	0.210063	-0.623641	-0.506544	0.235851	0.448842	-1.02836	-0.465772	0.307212	0.394103	-1.04442	-0.619362	-0.724109	-0.43938	-0.746359	-1.02152	-0.804872	-0.155031	-1.3374	-0.677717	
0.883171	5.57403	0	0	0.887191	0.424243	0.527699	0.457653	-0.053237	0.124433	0.0379618	-0.13199	0.0483382	0.331353	-0.808856	-0.670711	-0.0328082	0.19859	-0.627679	-0.506501	0.232364	0.446456	-1.02393	-0.468666	0.308194	0.391327	-1.04016	-0.63139	-0.726993	-0.444098	-0.752151	-1.03012	-0.794064	-0.165388	-1.35341	-0.678639	
0.884463	5.57251	0	0	0.887191	0.424243	0.526202	0.461882	-0.053237	0.124433	0.043499	-0.132202	0.051927	0.32121	-0.813272	-0.675615	-0.03222	0.187117	-0.631716	-0.506458	0.228876	0.444071	-1.0195	-0.47156	0.309176	0.388551	-1.03591	-0.643417	-0.729876	-0.448817	-0.757944	-1.03871	-0.783255	-0.175744	-1.36941	-0.679561	
0.885097	5.57556	0	0	0.885314	0.429548	0.524705	0.466114	-0.047153	0.128934	0.03722	-0.114456	0.0507312	0.32459	-0.813272	-0.675615	-0.0313703	0.184715	-0.630522	-0.509832	0.229949	0.441039	-1.02254	-0.462958	0.307211	0.394103	-1.03804	-0.637405	-0.730889	-0.445955	-0.756806	-1.04193	-0.778502	-0.168964	-1.37518	-0.678638	
0.884943	5.57709	0	0	0.883437	0.434852	0.523208	0.470345	-0.041069	0.133435	0.030941	-0.0967105	0.0495355	0.32797	-0.813272	-0.675615	-0.0305205	0.182314	-0.629328	-0.513207	0.231022	0.438007	-1.02559	-0.454356	0.305247	0.399655	-1.04016	-0.631393	-0.731901	-0.443093	-0.755667	-1.04515	-0.77375	-0.162183	-1.38094	-0.677716	
0.883869	5.58014	0	0	0.88156	0.440157	0.52171	0.474577	-0.034985	0.137935	0.024662	-0.0789648	0.0483398	0.331349	-0.813272	-0.675615	-0.0296707	0.179912	-0.628134	-0.516582	0.232095	0.434975	-1.02863	-0.445753	0.303283	0.405208	-1.04229	-0.625382	-0.732914	-0.440231	-0.754528	-1.04837	-0.768997	-0.155402	-1.3867	-0.676794	
0.881744	5.58777	0	0	0.879683	0.445462	0.520213	0.478808	-0.028901	0.142436	0.018383	-0.061219	0.047144	0.334729	-0.813272	-0.675615	-0.028821	0.17751	-0.62694	-0.519956	0.233168	0.431943	-1.03167	-0.437151	0.301318	0.41076	-1.04442	-0.61937	-0.733927	-0.437369	-0.75339	-1.05158	-0.764244	-0.148622	-1.39246	-0.675871	
0.878435	5.59082	0	0	0.875926	0.456081	0.520213	0.478808	-0.0408388	0.154479	0.0168112	-0.056777	0.0483398	0.331349	-0.819474	-0.675453	-0.031635	0.175657	-0.630975	-0.519912	0.229682	0.429561	-1.02964	-0.442887	0.300335	0.413537	-1.04978	-0.625107	-0.73494	-0.434506	-0.760316	-1.05694	-0.765762	-0.144332	-1.40397	-0.674033	
0.873845	5.5954	0	0	0.872169	0.4667	0.520213	0.478808	-0.0527765	0.166521	0.0152395	-0.052335	0.0495355	0.32797	-0.825676	-0.675292	-0.034449	0.173805	-0.635011	-0.519869	0.226196	0.42718	-1.02761	-0.448623	0.299353	0.416315	-1.05514	-0.630843	-0.735953	-0.431644	-0.767242	-1.06231	-0.767281	-0.140041	-1.41548	-0.672195	
0.868267	5.60303	0	0	0.868411	0.477319	0.520213	0.478808	-0.0647143	0.178563	0.0136678	-0.047893	0.0507312	0.32459	-0.831878	-0.675131	-0.037263	0.171953	-0.639046	-0.519825	0.22271	0.424798	-1.02559	-0.454358	0.29837	0.419092	-1.06051	-0.636579	-0.736966	-0.428781	-0.774167	-1.06767	-0.768799	-0.13575	-1.42699	-0.670356	
0.862257	5.6076	0	0	0.864654	0.487938	0.520213	0.478808	-0.076652	0.190606	0.012096	-0.043451	0.051927	0.32121	-0.83808	-0.674969	-0.040077	0.1701	-0.643081	-0.519782	0.219224	0.422416	-1.02356	-0.460094	0.297387	0.421869	-1.06587	-0.642316	-0.737979	-0.425918	-0.781093	-1.07303	-0.770317	-0.13146	-1.43849	-0.668518	
0.856375	5.62134	0	0	0.871277	0.491784	0.517216	0.487277	-0.070575	0.195127	0.021604	-0.0394087	0.0483382	0.331353	-0.831878	-0.675131	-0.0409265	0.1725	-0.640695	-0.526525	0.218152	0.425446	-1.0314	-0.457174	0.29542	0.427426	-1.06587	-0.642316	-0.74102	-0.417324	-0.779957	-1.07624	-0.784179	-0.112498	-1.44685	-0.660215	
0.851181	5.62744	0	0	0.877899	0.49563	0.51422	0.495746	-0.064498	0.199649	0.031112	-0.0353665	0.0447495	0.341496	-0.825676	-0.675292	-0.041776	0.174901	-0.63831	-0.533268	0.217079	0.428476	-1.03924	-0.454254	0.293454	0.432983	-1.06587	-0.642316	-0.744061	-0.40873	-0.77882	-1.07945	-0.79804	-0.0935355	-1.45521	-0.651913	
0.847234	5.63354	0	0	0.884522	0.499477	0.511224	0.504215	-0.058421	0.20417	0.04062	-0.0313242	0.0411608	0.351638	-0.819474	-0.675453	-0.0426255	0.177301	-0.635924	-0.54001	0.216007	0.431506	-1.04708	-0.451334	0.291488	0.438541	-1.06587	-0.642316	-0.747101	-0.400136	-0.777683	-1.08266	-0.811902	-0.0745732	-1.46357	-0.64361	
0.845096	5.63965	0	0	0.891144	0.503323	0.508227	0.512684	-0.052344	0.208691	0.050128	-0.027282	0.037572	0.361781	-0.813272	-0.675615	-0.043475	0.179701	-0.633538	-0.546753	0.214935	0.434536	-1.05492	-0.448414	0.289521	0.444098	-1.06587	-0.642316	-0.750142	-0.391542	-0.776547	-1.08587	-0.825763	-0.055611	-1.47193	-0.635308	
0.845209	5.64575	0	0	0.887378	0.513967	0.509726	0.508449	-0.052344	0.208691	0.050128	-0.027282	0.0427317	0.361011	-0.819474	-0.675453	-0.043475	0.179701	-0.64041	-0.550031	0.216007	0.431506	-1.06073	-0.451227	0.288538	0.446878	-1.0776	-0.630032	-0.754201	-0.38007	-0.783416	-1.07892	-0.8349	-0.0297875	-1.47193	-0.635308	
0.847373	5.65033	0	0	0.883611	0.524612	0.511224	0.504213	-0.052344	0.208691	0.050128	-0.027282	0.0478915	0.36024	-0.825676	-0.675292	-0.043475	0.179701	-0.647283	-0.553308	0.217079	0.428476	-1.06653	-0.45404	0.287554	0.449658	-1.08933	-0.617749	-0.758261	-0.368599	-0.790285	-1.07196	-0.844037	-0.003964	-1.47193	-0.635308	
0.851173	5.65948	0	0	0.879845	0.535256	0.512722	0.499978	-0.052344	0.208691	0.050128	-0.027282	0.0530513	0.359469	-0.831878	-0.675131	-0.043475	0.179701	-0.654156	-0.556585	0.218152	0.425446	-1.07234	-0.456854	0.28657	0.452438	-1.10106	-0.605465	-0.76232	-0.357128	-0.797153	-1.065	-0.853175	0.0218595	-1.47193	-0.635308	
0.856191	5.65796	0	0	0.876079	0.5459	0.514221	0.495742	-0.052344	0.208691	0.050128	-0.027282	0.058211	0.358699	-0.83808	-0.674969	-0.043475	0.179701	-0.661028	-0.559863	0.219224	0.422416	-1.07815	-0.459667	0.285587	0.455218	-1.11279	-0.593181	-0.766379	-0.345656	-0.804022	-1.05804	-0.862312	0.047683	-1.47193	-0.635308	
0.862009	5.65948	0	0	0.882705	0.549763	0.514221	0.495742	-0.052344	0.208691	0.0517022	-0.0317308	0.0609785	0.3647	-0.830087	-0.680192	-0.0451742	0.184504	-0.662676	-0.566546	0.220296	0.419387	-1.08735	-0.462453	0.280173	0.458755	-1.12026	-0.592919	-0.76841	-0.339915	-0.808614	-1.05751	-0.862312	0.047683	-1.47898	-0.630703	
0.86821	5.66406	0	0	0.889332	0.553627	0.514221	0.495742	-0.052344	0.208691	0.0532765	-0.0361795	0.063746	0.370702	-0.822094	-0.685415	-0.0468735	0.189306	-0.664323	-0.573228	0.221367	0.416359	-1.09655	-0.465239	0.274759	0.462293	-1.12773	-0.592658	-0.770442	-0.334174	-0.813206	-1.05698	-0.862312	0.047683	-1.48603	-0.626099	
0.874377	5.66406	0	0	0.895958	0.55749	0.514221	0.495742	-0.052344	0.208691	0.0548508	-0.0406282	0.0665135	0.376703	-0.814101	-0.690637	-0.0485727	0.194109	-0.665971	-0.579911	0.222439	0.41333	-1.10575	-0.468025	0.269346	0.465831	-1.1352	-0.592396	-0.772474	-0.328432	-0.817797	-1.05645	-0.862312	0.047683	-1.49307	-0.621495	
0.880143	5.66864	0	0	0.902584	0.561353	0.514221	0.495742	-0.052344	0.208691	0.056425	-0.045077	0.069281	0.382704	-0.806108	-0.69586	-0.050272	0.198912	-0.667619	-0.586594	0.223511	0.410301	-1.11496	-0.470811	0.263932	0.469368	-1.14267	-0.592135	-0.774505	-0.322691	-0.822389	-1.05592	-0.862312	0.047683	-1.50012	-0.61689	
0.88541	5.66711	0	0	0.892187	0.568147	0.509949	0.492026	-0.0503893	0.203166	0.0453428	-0.0446705	0.069648	0.3955	-0.807899	-0.690799	-0.0491605	0.205576	-0.671646	-0.586547	0.222439	0.41333	-1.11293	-0.476528	0.261964	0.47493	-1.14479	-0.586127	-0.770616	-0.320816	-0.823526	-1.05271	-0.856061	0.0502288	-1.50535	-0.602098	
0.890177	5.67016	0	0	0.88179	0.574941	0.505676	0.48831	-0.0484345	0.197641	0.0342605	-0.044264	0.070015	0.408296	-0.80969	-0.685737	-0.048049	0.21224	-0.675672	-0.586501	0.221367	0.416359	-1.11091	-0.482246	0.259995	0.480492	-1.14692	-0.58012	-0.766726	-0.31894	-0.824662	-1.0495	-0.84981	0.0527745	-1.51059	-0.587306	
0.894441	5.66864	0	0	0.871392	0.581734	0.501404	0.484594	-0.0464798	0.192117	0.0231783	-0.0438575	0.070382	0.421091	-0.811481	-0.680676	-0.0469375	0.218905	-0.679698	-0.586454	0.220296	0.419387	-1.10889	-0.487963	0.258027	0.486055	-1.14904	-0.574112	-0.762837	-0.317064	-0.825798	-1.04628	-0.843559	0.0553203	-1.51582	-0.572514	
0.898197	5.67169	0	0	0.860995	0.588528	0.497131	0.480878	-0.044525	0.186592	0.012096	-0.043451	0.070749	0.433887	-0.813272	-0.675615	-0.045826	0.225569	-0.683725	-0.586408	0.219224	0.422416	-1.10687	-0.493681	0.256059	0.491617	-1.15117	-0.568104	-0.758947	-0.315189	-0.826935	-1.04307	-0.837308	0.057866	-1.52106	-0.557722	
0.901444	5.67169	0	0	0.862881	0.583198	0.482614	0.490364	-0.0525567	0.187595	0.0168088	-0.0567702	0.074717	0.436515	-0.821265	-0.670392	-0.040198	0.22929	-0.68656	-0.589722	0.216811	0.417009	-1.11505	-0.499312	0.253601	0.48681	-1.15863	-0.56785	-0.763853	-0.314192	-0.829252	-1.04896	-0.852852	0.0613922	-1.5127	-0.566027	
0.904179	5.67322	0	0	0.864767	0.577868	0.468097	0.49985	-0.0605885	0.188599	0.0215215	-0.0700895	0.078685	0.439144	-0.829257	-0.665169	-0.03457	0.233011	-0.689395	-0.593035	0.214398	0.411602	-1.12323	-0.504943	0.251142	0.482003	-1.16608	-0.567596	-0.768759	-0.313195	-0.831568	-1.05485	-0.868396	0.0649185	-1.50434	-0.574332	
0.906399	5.67016	0	0	0.866653	0.572538	0.453579	0.509336	-0.0686202	0.189603	0.0262343	-0.0834088	0.082653	0.441772	-0.83725	-0.659947	-0.028942	0.236732	-0.69223	-0.596349	0.211986	0.406196	-1.13141	-0.510574	0.248684	0.477195	-1.17354	-0.567341	-0.773664	-0.312199	-0.833884	-1.06075	-0.883939	0.0684447	-1.49599	-0.582637	
0.908133	5.66711	0	0	0.868539	0.567208	0.439062	0.518822	-0.076652	0.190606	0.030947	-0.096728	0.086621	0.4444	-0.845243	-0.654724	-0.023314	0.240453	-0.695065	-0.599662	0.209573	0.400789	-1.13959	-0.516205	0.246226	0.472388	-1.181	-0.567087	-0.77857	-0.311202	-0.836201	-1.06664	-0.899483	0.071971	-1.48763	-0.590942	
0.909427	5.67016	0	0	0.870424	0.561881	0.439062	0.518822	-0.0786055	0.196127	0.0167425	-0.0874465	0.0869815	0.457235	-0.840835	-0.649816	-0.0202393	0.25141	-0.696254	-0.596303	0.214129	0.400139	-1.13858	-0.519058	0.246226	0.472388	-1.181	-0.567087	-0.785505	-0.304462	-0.829293	-1.06128	-0.894769	0.0788387	-1.49418	-0.572425	
0.910326	5.67016	0	0	0.872309	0.556554	0.439062	0.518822	-0.080559	0.201649	0.002538	-0.078165	0.087342	0.47007	-0.836427	-0.644907	-0.0171645	0.262368	-0.697442	-0.592944	0.218685	0.399489	-1.13757	-0.52191	0.246226	0.472388	-1.181	-0.567087	-0.792439	-0.297722	-0.822385	-1.05591	-0.890054	0.0857065	-1.50073	-0.553908	
0.910877	5.66711	0	0	0.874194	0.551227	0.439062	0.518822	-0.0825125	0.20717	-0.0116665	-0.0688835	0.0877025	0.482904	-0.832019	-0.639999	-0.0140898	0.273325	-0.698631	-0.589584	0.22324	0.39884	-1.13656	-0.524763	0.246226	0.472388	-1.181	-0.567087	-0.799373	-0.290982	-0.815478	-1.05055	-0.88534	0.0925742	-1.50729	-0.535392	
0.911125	5.66406	0	0	0.876079	0.5459	0.439062	0.518822	-0.084466	0.212691	-0.025871	-0.059602	0.088063	0.495739	-0.827611	-0.635091	-0.011015	0.284283	-0.69982	-0.586225	0.227796	0.39819	-1.13555	-0.527616	0.246226	0.472388	-1.181	-0.567087	-0.806308	-0.284242	-0.80857	-1.04519	-0.880626	0.099442	-1.51384	-0.516875	
0.911117	5.66254	0	0	0.867578	0.547362	0.439062	0.518822	-0.084466	0.212691	-0.022733	-0.0684705	0.0908287	0.501786	-0.829405	-0.630021	-0.0107598	0.293393	-0.69982	-0.586225	0.22324	0.39884	-1.13794	-0.53044	0.242786	0.470364	-1.18632	-0.572836	-0.805292	-0.287115	-0.814298	-1.04145	-0.879099	0.0951265	-1.51778	-0.505746	
0.910897	5.66254	0	0	0.859078	0.548824	0.439062	0.518822	-0.084466	0.212691	-0.019595	-0.077339	0.0935945	0.507833	-0.831198	-0.624951	-0.0105045	0.302503	-0.69982	-0.586225	0.218685	0.399489	-1.14033	-0.533264	0.239345	0.46834	-1.19165	-0.578584	-0.804275	-0.289988	-0.820026	-1.03771	-0.877573	0.090811	-1.52171	-0.494618	
0.910465	5.65948	0	0	0.850577	0.550285	0.439062	0.518822	-0.084466	0.212691	-0.016457	-0.0862075	0.0963603	0.513879	-0.832992	-0.619881	-0.0102492	0.311613	-0.69982	-0.586225	0.214129	0.400139	-1.14272	-0.536087	0.235905	0.466315	-1.19698	-0.584332	-0.803258	-0.292861	-0.825755	-1.03396	-0.876046	0.0864955	-1.52565	-0.483489	
0.909751	5.65643	0	0	0.842076	0.551747	0.439062	0.518822	-0.084466	0.212691	-0.013319	-0.095076	0.099126	0.519926	-0.834786	-0.614811	-0.009994	0.320723	-0.69982	-0.586225	0.209573	0.400789	-1.1451	-0.538911	0.232465	0.464291	-1.2023	-0.590081	-0.802242	-0.295734	-0.831483	-1.03022	-0.874519	0.08218	-1.52959	-0.472361	
0.908684	5.65796	0	0	0.842076	0.551747	0.436067	0.527287	-0.0764355	0.211691	-0.0148877	-0.0906427	0.101892	0.525981	-0.830377	-0.60989	-0.00692425	0.331726	-0.695796	-0.586271	0.213058	0.403167	-1.14611	-0.53606	0.231482	0.467069	-1.19698	-0.584332	-0.804276	-0.289987	-0.836035	-1.01736	-0.886866	0.0968848	-1.52205	-0.463003	
0.907189	5.65796	0	0	0.842076	0.551747	0.433071	0.535752	-0.068405	0.210691	-0.0164565	-0.0862095	0.104659	0.532037	-0.825967	-0.604969	-0.0038545	0.342728	-0.691773	-0.586317	0.216542	0.405545	-1.14712	-0.533209	0.230498	0.469847	-1.19165	-0.578584	-0.806309	-0.284241	-0.840586	-1.00449	-0.899213	0.11159	-1.51451	-0.453645	
0.905194	5.65491	0	0	0.842076	0.551747	0.430076	0.544217	-0.0603745	0.209691	-0.0180252	-0.0817762	0.107426	0.538092	-0.821557	-0.600049	-0.00078475	0.353731	-0.687749	-0.586362	0.220026	0.407923	-1.14813	-0.530358	0.229515	0.472626	-1.18632	-0.572836	-0.808342	-0.278494	-0.845137	-0.991629	-0.911561	0.126294	-1.50698	-0.444288	
0.902626	5.65033	0	0	0.842076	0.551747	0.427081	0.552682	-0.052344	0.208691	-0.019594	-0.077343	0.110192	0.544148	-0.817148	-0.595128	0.002285	0.364734	-0.683725	-0.586408	0.223511	0.410301	-1.14914	-0.527507	0.228532	0.475404	-1.181	-0.567087	-0.810376	-0.272747	-0.849689	-0.978765	-0.923908	0.140999	-1.49944	-0.43493	
0.899412	5.65033	0	0	0.842076	0.551747	0.431338	0.556414	-0.0623295	0.215216	-0.019594	-0.077343	0.110192	0.544148	-0.821557	-0.600049	0.005961	0.364193	-0.688938	-0.583002	0.222439	0.41333	-1.15015	-0.524655	0.224112	0.476156	-1.18845	-0.566836	-0.818325	-0.263132	-0.84966	-0.966402	-0.917673	0.143568	-1.51177	-0.415427	
0.89556	5.65033	0	0	0.842076	0.551747	0.435596	0.560146	-0.072315	0.22174	-0.019594	-0.077343	0.110192	0.544148	-0.825967	-0.604969	0.009637	0.363651	-0.694151	-0.579596	0.221367	0.416359	-1.15116	-0.521803	0.219692	0.476908	-1.1959	-0.566585	-0.826273	-0.253517	-0.84963	-0.954039	-0.911437	0.146138	-1.52409	-0.395925	
0.891273	5.6488	0	0	0.842076	0.551747	0.439854	0.563878	-0.0823005	0.228264	-0.019594	-0.077343	0.110192	0.544148	-0.830377	-0.60989	0.013313	0.363109	-0.699363	-0.576189	0.220296	0.419387	-1.15217	-0.518952	0.215271	0.477661	-1.20334	-0.566333	-0.834222	-0.243902	-0.8496	-0.941677	-0.905202	0.148707	-1.53642	-0.376422	
0.886786	5.64728	0	0	0.842076	0.551747	0.444111	0.56761	-0.092286	0.234789	-0.019594	-0.077343	0.110192	0.544148	-0.834786	-0.614811	0.016989	0.362568	-0.704576	-0.572783	0.219224	0.422416	-1.15318	-0.5161	0.210851	0.478413	-1.21079	-0.566082	-0.842171	-0.234287	-0.849571	-0.929314	-0.898967	0.151276	-1.54875	-0.356919	
0.882331	5.64728	0	0	0.840192	0.557071	0.445368	0.579835	-0.0961993	0.245849	-0.008529	-0.0777517	0.107777	0.550973	-0.832992	-0.619881	0.018096	0.369291	-0.701743	-0.569465	0.226198	0.427181	-1.15079	-0.513273	0.214288	0.48044	-1.21292	-0.560078	-0.842171	-0.234287	-0.857582	-0.919121	-0.892725	0.153847	-1.54037	-0.365256	
0.878143	5.6427	0	0	0.838309	0.562395	0.446625	0.59206	-0.100112	0.256908	0.002536	-0.0781605	0.105362	0.557798	-0.831198	-0.624951	0.019203	0.376015	-0.69891	-0.566146	0.233172	0.431947	-1.1484	-0.510445	0.217725	0.482467	-1.21504	-0.554075	-0.842171	-0.234287	-0.865592	-0.908927	-0.886483	0.156417	-1.532	-0.373594	
0.874455	5.64575	0	0	0.836425	0.567718	0.447882	0.604286	-0.104026	0.267968	0.013601	-0.0785693	0.102947	0.564623	-0.829405	-0.630021	0.02031	0.382738	-0.696076	-0.562828	0.240146	0.436712	-1.14601	-0.507618	0.221162	0.484493	-1.21717	-0.548071	-0.842171	-0.234287	-0.873603	-0.898734	-0.88024	0.158988	-1.52362	-0.381931	
0.8715	5.64117	0	0	0.834541	0.573042	0.449139	0.616511	-0.107939	0.279028	0.024666	-0.078978	0.100532	0.571448	-0.827611	-0.635091	0.021417	0.389461	-0.693243	-0.559509	0.24712	0.441477	-1.14363	-0.504791	0.224599	0.48652	-1.21929	-0.542067	-0.842171	-0.234287	-0.881614	-0.888541	-0.873998	0.161559	-1.51524	-0.390268	
0.869438	5.63965	0	0	0.844925	0.566257	0.446132	0.625008	-0.0979535	0.272503	0.0175607	-0.0743353	0.102947	0.564623	-0.841796	-0.629717	0.0185967	0.38758	-0.698456	-0.556103	0.247387	0.452973	-1.14225	-0.499105	0.217228	0.495611	-1.22142	-0.536059	-0.844207	-0.228533	-0.879312	-0.882599	-0.866217	0.159802	-1.52935	-0.381047	
0.868263	5.6427	0	0	0.85531	0.559471	0.443126	0.633506	-0.087968	0.265979	0.0104555	-0.0696925	0.105362	0.557798	-0.855982	-0.624343	0.0157765	0.385698	-0.703669	-0.552697	0.247653	0.464469	-1.14087	-0.493419	0.209857	0.504703	-1.22354	-0.530052	-0.846243	-0.222778	-0.877011	-0.876658	-0.858436	0.158045	-1.54346	-0.371827	
0.867943	5.63965	0	0	0.865695	0.552686	0.440119	0.642003	-0.0779825	0.259454	0.00335025	-0.0650498	0.107777	0.550973	-0.870167	-0.61897	0.0129562	0.383817	-0.708881	-0.54929	0.24792	0.475966	-1.13949	-0.487733	0.202486	0.513794	-1.22567	-0.524044	-0.84828	-0.217024	-0.87471	-0.870717	-0.850654	0.156287	-1.55758	-0.362606	
0.868448	5.6366	0	0	0.876079	0.5459	0.437112	0.6505	-0.067997	0.252929	-0.003755	-0.060407	0.110192	0.544148	-0.884353	-0.613596	0.010136	0.381935	-0.714094	-0.545884	0.248187	0.487462	-1.13812	-0.482047	0.195115	0.522886	-1.22779	-0.518036	-0.850316	-0.21127	-0.872408	-0.864775	-0.842873	0.15453	-1.57169	-0.353386	
0.86975	5.63202	0	0	0.874194	0.551227	0.442875	0.650003	-0.0699555	0.258464	0.0088905	-0.0652565	0.10622	0.5415	-0.888748	-0.618508	0.00817325	0.377635	-0.718114	-0.545843	0.252753	0.486815	-1.13913	-0.47919	0.200519	0.519355	-1.22567	-0.524044	-0.84828	-0.217024	-0.87471	-0.870717	-0.856896	0.153717	-1.5651	-0.371987	
0.871816	5.63202	0	0	0.872309	0.556554	0.448639	0.649505	-0.071914	0.263999	0.021536	-0.070106	0.102247	0.538853	-0.893143	-0.62342	0.0062105	0.373335	-0.722133	-0.545802	0.25732	0.486168	-1.14014	-0.476332	0.205922	0.515824	-1.22354	-0.530052	-0.846243	-0.222778	-0.877011	-0.876658	-0.87092	0.152903	-1.55852	-0.390589	
0.874617	5.62897	0	0	0.870424	0.561881	0.454403	0.649008	-0.0738725	0.269534	0.0341815	-0.0749555	0.0982752	0.536206	-0.897539	-0.628333	0.00424775	0.369034	-0.726153	-0.545761	0.261886	0.485521	-1.14115	-0.473475	0.211325	0.512294	-1.22142	-0.536059	-0.844207	-0.228533	-0.879312	-0.882599	-0.884943	0.152089	-1.55194	-0.409191	
0.878089	5.62439	0	0	0.868539	0.567208	0.460166	0.648511	-0.075831	0.275069	0.046827	-0.079805	0.094303	0.533558	-0.901934	-0.633245	0.002285	0.364734	-0.730173	-0.54572	0.266452	0.484874	-1.14216	-0.470618	0.216729	0.508763	-1.21929	-0.542067	-0.842171	-0.234287	-0.881614	-0.888541	-0.898967	0.151276	-1.54536	-0.427792	
0.882092	5.62591	0	0	0.868539	0.567208	0.457155	0.65702	-0.075831	0.275069	0.0365715	-0.0662723	0.0955088	0.53015	-0.898355	-0.643359	0.003141	0.362315	-0.731363	-0.542357	0.268869	0.490309	-1.13876	-0.470642	0.21476	0.514327	-1.22885	-0.535819	-0.841153	-0.237163	-0.885056	-0.891251	-0.886607	0.136556	-1.55419	-0.43344	
0.886477	5.62134	0	0	0.868539	0.567208	0.454144	0.665529	-0.075831	0.275069	0.026316	-0.0527395	0.0967145	0.526742	-0.894777	-0.653473	0.003997	0.359896	-0.732553	-0.538994	0.271286	0.495744	-1.13536	-0.470665	0.212791	0.519891	-1.23841	-0.52957	-0.840136	-0.240038	-0.888499	-0.89396	-0.874246	0.121837	-1.56302	-0.439088	
0.891092	5.62134	0	0	0.868539	0.567208	0.451133	0.674039	-0.075831	0.275069	0.0160605	-0.0392067	0.0979203	0.523334	-0.891199	-0.663587	0.004853	0.357476	-0.733743	-0.535631	0.273703	0.501178	-1.13196	-0.470689	0.210822	0.525456	-1.24798	-0.523322	-0.839118	-0.242914	-0.891941	-0.89667	-0.861886	0.107117	-1.57186	-0.444736	
0.89579	5.61981	0	0	0.868539	0.567208	0.448122	0.682548	-0.075831	0.275069	0.005805	-0.025674	0.099126	0.519926	-0.88762	-0.673701	0.005709	0.355057	-0.734933	-0.532268	0.27612	0.506613	-1.12856	-0.470713	0.208853	0.53102	-1.25754	-0.517074	-0.838101	-0.24579	-0.895383	-0.89938	-0.849526	0.092397	-1.58069	-0.450384	
0.900419	5.61676	0	0	0.868539	0.567208	0.44236	0.683041	-0.0858165	0.281593	-0.0028735	-0.016585	0.0975643	0.510476	-0.89023	-0.683642	0.00263775	0.344059	-0.731364	-0.542353	0.273703	0.501178	-1.12856	-0.470713	0.216229	0.521923	-1.26284	-0.522837	-0.839944	-0.253422	-0.898845	-0.914446	-0.851198	0.0769093	-1.58117	-0.464319	
0.90483	5.61523	0	0	0.868539	0.567208	0.436598	0.683535	-0.095802	0.288118	-0.011552	-0.007496	0.0960025	0.501027	-0.89284	-0.693584	-0.0004335	0.33306	-0.727796	-0.552439	0.271286	0.495744	-1.12856	-0.470713	0.223605	0.512826	-1.26815	-0.528599	-0.841787	-0.261054	-0.902307	-0.929512	-0.852869	0.0614215	-1.58164	-0.478254	
0.908898	5.61066	0	0	0.868539	0.567208	0.430836	0.684028	-0.105788	0.294643	-0.0202305	0.001593	0.0944408	0.491577	-0.895451	-0.703525	-0.00350475	0.322062	-0.724227	-0.562524	0.268869	0.490309	-1.12856	-0.470713	0.23098	0.503728	-1.27345	-0.534362	-0.843631	-0.268686	-0.905769	-0.944579	-0.854541	0.0459338	-1.58212	-0.492189	
0.912603	5.61218	0	0	0.868539	0.567208	0.425074	0.684521	-0.115773	0.301167	-0.028909	0.010682	0.092879	0.482127	-0.898061	-0.713466	-0.006576	0.311064	-0.720658	-0.572609	0.266452	0.484874	-1.12856	-0.470713	0.238356	0.494631	-1.27876	-0.540124	-0.845474	-0.276318	-0.909231	-0.959645	-0.856213	0.030446	-1.5826	-0.506124	
0.91596	5.60608	0	0	0.87705	0.565744	0.422062	0.693034	-0.107747	0.300181	-0.0178415	0.0102922	0.0889098	0.479491	-0.902455	-0.718348	-0.00853925	0.306781	-0.720658	-0.572609	0.26081	0.48856	-1.12516	-0.470737	0.236387	0.500195	-1.27663	-0.54612	-0.844458	-0.279189	-0.911532	-0.965554	-0.853166	0.021834	-1.57736	-0.520922	
0.918979	5.6076	0	0	0.885562	0.56428	0.419049	0.701548	-0.0997215	0.299195	-0.006774	0.0099025	0.0849405	0.476856	-0.90685	-0.72323	-0.0105025	0.302497	-0.720658	-0.572609	0.255169	0.492247	-1.12176	-0.470762	0.234418	0.50576	-1.27451	-0.552115	-0.843442	-0.28206	-0.913833	-0.971464	-0.850118	0.013222	-1.57213	-0.53572	
0.921675	5.60455	0	0	0.894073	0.562817	0.416037	0.710062	-0.0916957	0.298208	0.0042935	0.00951275	0.0809712	0.47422	-0.911245	-0.728112	-0.0124658	0.298214	-0.720658	-0.572609	0.249527	0.495933	-1.11836	-0.470786	0.232449	0.511324	-1.27239	-0.55811	-0.842426	-0.284931	-0.916135	-0.977374	-0.847071	0.00461	-1.56689	-0.550518	
0.92406	5.6015	0	0	0.902584	0.561353	0.413025	0.718575	-0.08367	0.297222	0.015361	0.009123	0.077002	0.471585	-0.915639	-0.732994	-0.014429	0.293931	-0.720658	-0.572609	0.243885	0.499619	-1.11496	-0.470811	0.23048	0.516888	-1.27027	-0.564106	-0.84141	-0.287802	-0.918436	-0.983283	-0.844024	-0.004002	-1.56166	-0.565316	
0.926145	5.59997	0	0	0.902584	0.561353	0.416037	0.710062	-0.0817102	0.291684	0.015361	0.009123	0.0830107	0.454603	-0.91647	-0.747932	-0.0166503	0.280562	-0.7223	-0.579281	0.24362	0.488117	-1.11735	-0.473645	0.231465	0.514105	-1.27345	-0.575835	-0.84141	-0.287802	-0.920737	-0.989185	-0.853317	0.00207	-1.56738	-0.564419	
0.92794	5.59997	0	0	0.902584	0.561353	0.419049	0.701548	-0.0797505	0.286145	0.015361	0.009123	0.0890195	0.437622	-0.9173	-0.76287	-0.0188715	0.267192	-0.723942	-0.585953	0.243356	0.476616	-1.11974	-0.476479	0.232449	0.511323	-1.27664	-0.587564	-0.84141	-0.287802	-0.923038	-0.995086	-0.86261	0.008142	-1.5731	-0.563521	
0.929382	5.5954	0	0	0.902584	0.561353	0.422062	0.693034	-0.0777907	0.280607	0.015361	0.009123	0.0950283	0.42064	-0.918131	-0.777808	-0.0210928	0.253823	-0.725584	-0.592625	0.243091	0.465114	-1.12213	-0.479312	0.233434	0.508541	-1.27982	-0.599293	-0.84141	-0.287802	-0.925339	-1.00099	-0.871902	0.014214	-1.57882	-0.562623	
0.930343	5.59387	0	0	0.902584	0.561353	0.425074	0.684521	-0.075831	0.275069	0.015361	0.009123	0.101037	0.403659	-0.918962	-0.792746	-0.023314	0.240453	-0.727226	-0.599297	0.242826	0.453613	-1.12452	-0.482146	0.234419	0.505758	-1.28301	-0.611022	-0.84141	-0.287802	-0.92764	-1.00689	-0.881195	0.020286	-1.58454	-0.561726	
0.930694	5.59082	0	0	0.900697	0.566686	0.42933	0.688285	-0.0777907	0.280607	0.00905375	0.0269485	0.101037	0.403659	-0.918962	-0.792746	-0.0244268	0.233782	-0.727226	-0.599297	0.244973	0.447546	-1.12452	-0.482146	0.236874	0.510573	-1.27347	-0.617256	-0.843442	-0.282059	-0.933346	-1.00316	-0.87038	0.00991125	-1.57882	-0.562623	
0.930306	5.58929	0	0	0.89881	0.57202	0.433585	0.69205	-0.0797505	0.286145	0.0027465	0.044774	0.101037	0.403659	-0.918962	-0.792746	-0.0255395	0.22711	-0.727226	-0.599297	0.247119	0.441479	-1.12452	-0.482146	0.23933	0.515388	-1.26393	-0.62349	-0.845474	-0.276316	-0.939051	-0.999433	-0.859564	-0.0004635	-1.5731	-0.563521	
0.929048	5.59082	0	0	0.896923	0.577353	0.43784	0.695815	-0.0817102	0.291684	-0.00356075	0.0625995	0.101037	0.403659	-0.918962	-0.792746	-0.0266523	0.220439	-0.727226	-0.599297	0.249266	0.435412	-1.12452	-0.482146	0.241786	0.520203	-1.25439	-0.629724	-0.847506	-0.270573	-0.944756	-0.995705	-0.848749	-0.0108382	-1.56738	-0.564419	
0.926792	5.58777	0	0	0.895036	0.582686	0.442096	0.699579	-0.08367	0.297222	-0.009868	0.080425	0.101037	0.403659	-0.918962	-0.792746	-0.027765	0.213767	-0.727226	-0.599297	0.251413	0.429345	-1.12452	-0.482146	0.244241	0.525018	-1.24484	-0.635958	-0.849538	-0.26483	-0.950462	-0.991977	-0.837934	-0.021213	-1.56166	-0.565316	
0.923408	5.58777	0	0	0.893148	0.588023	0.433321	0.708588	-0.0817102	0.291684	-0.00829	0.0759652	0.104637	0.393486	-0.919801	-0.807643	-0.0271795	0.202302	-0.727683	-0.609311	0.243366	0.427613	-1.13132	-0.482097	0.24227	0.530589	-1.25227	-0.635703	-0.847696	-0.257194	-0.950462	-0.991977	-0.84098	-0.0126052	-1.55593	-0.566216	
0.918894	5.58319	0	0	0.89126	0.593359	0.424546	0.717596	-0.0797505	0.286145	-0.006712	0.0715055	0.108236	0.383313	-0.920641	-0.822541	-0.026594	0.190837	-0.728139	-0.619325	0.235318	0.42588	-1.13811	-0.482048	0.240299	0.536161	-1.2597	-0.635449	-0.845854	-0.249559	-0.950462	-0.991977	-0.844025	-0.0039975	-1.5502	-0.567115	
0.913571	5.58166	0	0	0.889371	0.598696	0.41577	0.726605	-0.0777907	0.280607	-0.005134	0.0670458	0.111836	0.373139	-0.921481	-0.837438	-0.0260085	0.179371	-0.728596	-0.62934	0.227271	0.424148	-1.14491	-0.481999	0.238327	0.541732	-1.26712	-0.635194	-0.844013	-0.241923	-0.950462	-0.991977	-0.847071	0.00461025	-1.54447	-0.568015	
0.907811	5.58166	0	0	0.887483	0.604032	0.406995	0.735614	-0.075831	0.275069	-0.003556	0.062586	0.115436	0.362966	-0.92232	-0.852336	-0.025423	0.167906	-0.729053	-0.639354	0.219224	0.422416	-1.15171	-0.48195	0.236356	0.547303	-1.27455	-0.63494	-0.842171	-0.234287	-0.950462	-0.991977	-0.850117	0.013218	-1.53875	-0.568915	
0.901986	5.57556	0	0	0.883703	0.614715	0.402469	0.748406	-0.0858165	0.281593	-0.002756	0.0757878	0.113036	0.369747	-0.92232	-0.852336	-0.0282375	0.166055	-0.731883	-0.642656	0.216811	0.417009	-1.15749	-0.484757	0.245214	0.545801	-1.28408	-0.628713	-0.838293	-0.232397	-0.949327	-0.995185	-0.840814	0.0071395	-1.53171	-0.573516	
0.896469	5.57709	0	0	0.879923	0.625397	0.397943	0.761197	-0.095802	0.288118	-0.001956	0.0889895	0.110637	0.376528	-0.92232	-0.852336	-0.031052	0.164204	-0.734712	-0.645957	0.214398	0.411602	-1.16327	-0.487564	0.254072	0.544299	-1.29361	-0.622486	-0.834415	-0.230508	-0.948192	-0.998394	-0.831511	0.001061	-1.52467	-0.578116	
0.891632	5.57556	0	0	0.876143	0.636079	0.393417	0.773988	-0.105788	0.294643	-0.001156	0.102191	0.108238	0.383309	-0.92232	-0.852336	-0.0338665	0.162352	-0.737542	-0.649259	0.211986	0.406196	-1.16905	-0.490371	0.26293	0.542796	-1.30314	-0.616258	-0.830537	-0.228618	-0.947056	-1.0016	-0.822209	-0.0050175	-1.51762	-0.582717	
0.887848	5.57709	0	0	0.872363	0.646762	0.388891	0.78678	-0.115773	0.301167	-0.000356	0.115393	0.105838	0.39009	-0.92232	-0.852336	-0.036681	0.160501	-0.740372	-0.652561	0.209573	0.400789	-1.17483	-0.493178	0.271788	0.541294	-1.31267	-0.610031	-0.826659	-0.226728	-0.945921	-1.00481	-0.812906	-0.011096	-1.51058	-0.587318	
0.885366	5.57251	0	0	0.872363	0.646762	0.396159	0.782031	-0.111857	0.290101	0.002804	0.106463	0.105838	0.39009	-0.928486	-0.852163	-0.039494	0.158651	-0.748394	-0.652466	0.20395	0.404463	-1.1806	-0.495982	0.269814	0.546872	-1.30525	-0.610279	-0.824817	-0.219075	-0.945921	-1.00481	-0.823733	-0.0007105	-1.50615	-0.584523	
0.884014	5.56793	0	0	0.872363	0.646762	0.403427	0.777282	-0.107941	0.279035	0.005964	0.097532	0.105838	0.39009	-0.934653	-0.85199	-0.042307	0.156801	-0.756416	-0.652371	0.198327	0.408138	-1.18638	-0.498787	0.26784	0.55245	-1.29784	-0.610526	-0.822975	-0.211423	-0.945921	-1.00481	-0.83456	0.009675	-1.50173	-0.581729	
0.88353	5.57251	0	0	0.872363	0.646762	0.410695	0.772533	-0.104026	0.267968	0.009124	0.0886015	0.105838	0.39009	-0.94082	-0.851817	-0.04512	0.15495	-0.764438	-0.652276	0.192703	0.411812	-1.19215	-0.501591	0.265867	0.558028	-1.29042	-0.610774	-0.821133	-0.20377	-0.945921	-1.00481	-0.845386	0.0200605	-1.4973	-0.578935	
0.883649	5.56793	0	0	0.872363	0.646762	0.417963	0.767784	-0.10011	0.256902	0.012284	0.079671	0.105838	0.39009	-0.946986	-0.851644	-0.047933	0.1531	-0.77246	-0.652181	0.18708	0.415486	-1.19792	-0.504396	0.263893	0.563606	-1.28301	-0.611022	-0.819291	-0.196117	-0.945921	-1.00481	-0.856213	0.030446	-1.49287	-0.57614	
0.884109	5.56335	0	0	0.868579	0.657458	0.416453	0.772052	-0.110084	0.263419	0.019407	0.0750168	0.109813	0.39271	-0.946986	-0.851644	-0.0487817	0.155499	-0.770093	-0.658871	0.184671	0.410084	-1.20607	-0.510022	0.263893	0.563606	-1.29042	-0.610774	-0.821331	-0.190352	-0.944786	-1.00802	-0.843863	0.0157555	-1.49287	-0.57614	
0.884645	5.56488	0	0	0.864794	0.668153	0.414942	0.77632	-0.120057	0.269936	0.02653	0.0703625	0.113787	0.39533	-0.946986	-0.851644	-0.0496305	0.157897	-0.767726	-0.66556	0.182263	0.404682	-1.21422	-0.515648	0.263893	0.563606	-1.29784	-0.610526	-0.823371	-0.184586	-0.943651	-1.01123	-0.831513	0.001065	-1.49287	-0.57614	
0.884995	5.56335	0	0	0.861009	0.678848	0.413432	0.780588	-0.130031	0.276453	0.033653	0.0657082	0.117762	0.39795	-0.946986	-0.851644	-0.0504793	0.160296	-0.765359	-0.672249	0.179855	0.399279	-1.22236	-0.521273	0.263893	0.563606	-1.30525	-0.610279	-0.825411	-0.178821	-0.942516	-1.01443	-0.819163	-0.0136255	-1.49287	-0.57614	
0.884953	5.56335	0	0	0.857225	0.689544	0.411922	0.784856	-0.140005	0.28297	0.040776	0.061054	0.121737	0.40057	-0.946986	-0.851644	-0.051328	0.162694	-0.762992	-0.678939	0.177446	0.393877	-1.23051	-0.526899	0.263893	0.563606	-1.31267	-0.610031	-0.827451	-0.173056	-0.941381	-1.01764	-0.806813	-0.028316	-1.49287	-0.57614	
0.884574	5.55878	0	0	0.867635	0.682742	0.411922	0.784856	-0.138049	0.277442	0.035232	0.0612463	0.116929	0.414158	-0.95847	-0.836425	-0.0538752	0.169893	-0.768183	-0.675547	0.180653	0.384812	-1.23188	-0.532564	0.26488	0.560817	-1.31055	-0.616007	-0.828472	-0.170172	-0.942516	-1.01443	-0.814593	-0.0265403	-1.48975	-0.569638	
0.883983	5.5603	0	0	0.878045	0.67594	0.411922	0.784856	-0.136093	0.271914	0.029688	0.0614385	0.112121	0.427746	-0.969955	-0.821207	-0.0564225	0.177092	-0.773373	-0.672156	0.183861	0.375747	-1.23325	-0.538229	0.265867	0.558027	-1.30844	-0.621982	-0.829492	-0.167288	-0.943651	-1.01123	-0.822373	-0.0247645	-1.48663	-0.563137	
0.883305	5.55878	0	0	0.888455	0.669138	0.411922	0.784856	-0.134137	0.266386	0.024144	0.0616307	0.107314	0.441333	-0.981439	-0.805988	-0.0589698	0.184292	-0.778564	-0.668764	0.187068	0.366682	-1.23462	-0.543894	0.266854	0.555238	-1.30632	-0.627958	-0.830512	-0.164404	-0.944786	-1.00802	-0.830154	-0.0229887	-1.4835	-0.556636	
0.882665	5.55878	0	0	0.898865	0.662336	0.411922	0.784856	-0.132181	0.260858	0.0186	0.061823	0.102506	0.454921	-0.992923	-0.79077	-0.061517	0.191491	-0.783755	-0.665373	0.190276	0.357617	-1.23599	-0.549559	0.267841	0.552448	-1.30421	-0.633934	-0.831533	-0.16152	-0.945921	-1.00481	-0.837934	-0.021213	-1.48038	-0.550134	
0.882187	5.55572	0	0	0.900758	0.656987	0.420706	0.775835	-0.128272	0.249812	0.0217552	0.0529058	0.102506	0.454921	-0.981439	-0.805988	-0.0587058	0.193346	-0.782572	-0.668716	0.18332	0.352881	-1.24075	-0.555191	0.272772	0.538514	-1.30739	-0.645617	-0.834391	-0.166302	-0.947086	-1.01391	-0.842664	-0.0280372	-1.47907	-0.553839	
0.881999	5.55267	0	0	0.902651	0.651638	0.42949	0.766814	-0.124364	0.238766	0.0249105	0.0439885	0.102506	0.454921	-0.969955	-0.821207	-0.0558945	0.195202	-0.781389	-0.672059	0.176364	0.348145	-1.2455	-0.560824	0.277702	0.524579	-1.31058	-0.657299	-0.837249	-0.171085	-0.94825	-1.023	-0.847393	-0.0348615	-1.47776	-0.557543	
0.882184	5.55115	0	0	0.904543	0.646288	0.438275	0.757793	-0.120455	0.22772	0.0280658	0.0350712	0.102506	0.454921	-0.95847	-0.836425	-0.0530832	0.197057	-0.780206	-0.675401	0.169407	0.343409	-1.25025	-0.566456	0.282633	0.510645	-1.31376	-0.668982	-0.840106	-0.175867	-0.949415	-1.0321	-0.852122	-0.0416857	-1.47645	-0.561248	
0.882626	5.54962	0	0	0.906436	0.640939	0.447059	0.748772	-0.116547	0.216674	0.031221	0.026154	0.102506	0.454921	-0.946986	-0.851644	-0.050272	0.198912	-0.779023	-0.678744	0.162451	0.338673	-1.255	-0.572088	0.287563	0.496711	-1.31695	-0.680664	-0.842964	-0.180649	-0.95058	-1.0412	-0.856852	-0.04851	-1.47514	-0.564953	
0.883139	5.54809	0	0	0.908327	0.635593	0.445549	0.75304	-0.116547	0.216674	0.0327973	0.0216987	0.105276	0.460956	-0.948761	-0.846628	-0.0500115	0.207981	-0.777382	-0.672103	0.15791	0.339322	-1.255	-0.572088	0.288548	0.493926	-1.31484	-0.686624	-0.837046	-0.184516	-0.95058	-1.0412	-0.855332	-0.0528045	-1.47776	-0.557542	
0.883539	5.54504	0	0	0.910219	0.630247	0.444039	0.757308	-0.116547	0.216674	0.0343735	0.0172435	0.108046	0.466991	-0.950535	-0.841612	-0.049751	0.217051	-0.775742	-0.665463	0.153369	0.339971	-1.255	-0.572088	0.289533	0.491142	-1.31273	-0.692584	-0.831128	-0.188383	-0.95058	-1.0412	-0.853813	-0.057099	-1.48038	-0.550131	
0.883642	5.54809	0	0	0.912111	0.6249	0.442528	0.761576	-0.116547	0.216674	0.0359497	0.0127883	0.110816	0.473026	-0.95231	-0.836597	-0.0494905	0.22612	-0.774101	-0.658822	0.148827	0.34062	-1.255	-0.572088	0.290519	0.488357	-1.31062	-0.698543	-0.825209	-0.19225	-0.95058	-1.0412	-0.852294	-0.0613935	-1.48301	-0.542719	
0.883262	5.54504	0	0	0.914002	0.619554	0.441018	0.765844	-0.116547	0.216674	0.037526	0.008333	0.113586	0.479061	-0.954085	-0.831581	-0.04923	0.235189	-0.77246	-0.652181	0.144286	0.341269	-1.255	-0.572088	0.291504	0.485573	-1.30851	-0.704503	-0.819291	-0.196117	-0.95058	-1.0412	-0.850774	-0.065688	-1.48563	-0.535308	
0.882216	5.54047	0	0	0.917782	0.608872	0.442528	0.761576	-0.112643	0.205642	0.0335595	0.00407975	0.113586	0.479061	-0.95231	-0.836597	-0.0464173	0.23705	-0.76845	-0.652228	0.147485	0.332228	-1.25738	-0.574901	0.296425	0.471665	-1.3117	-0.716145	-0.823171	-0.198012	-0.956278	-1.03747	-0.858538	-0.063915	-1.47988	-0.536212	
0.880347	5.53741	0	0	0.921562	0.598189	0.444039	0.757308	-0.10874	0.194609	0.029593	-0.0001735	0.113586	0.479061	-0.950535	-0.841612	-0.0436045	0.238911	-0.764441	-0.652276	0.150684	0.323188	-1.25975	-0.577714	0.301346	0.457757	-1.3149	-0.727787	-0.82705	-0.199906	-0.961975	-1.03375	-0.866302	-0.062142	-1.47413	-0.537116	
0.877668	5.54047	0	0	0.925342	0.587507	0.445549	0.75304	-0.104836	0.183577	0.0256265	-0.00442675	0.113586	0.479061	-0.948761	-0.846628	-0.0407918	0.240773	-0.760431	-0.652323	0.153883	0.314148	-1.26213	-0.580527	0.306268	0.443848	-1.31809	-0.739428	-0.830929	-0.201801	-0.967673	-1.03003	-0.874065	-0.060369	-1.46839	-0.538021	
0.874259	5.53894	0	0	0.929122	0.576824	0.447059	0.748772	-0.100933	0.172545	0.02166	-0.00868	0.113586	0.479061	-0.946986	-0.851644	-0.037979	0.242634	-0.756421	-0.65237	0.157082	0.305107	-1.2645	-0.58334	0.311189	0.42994	-1.32128	-0.75107	-0.834809	-0.203696	-0.973371	-1.0263	-0.881829	-0.058596	-1.46264	-0.538925	
0.870199	5.53894	0	0	0.932897	0.566154	0.460116	0.743522	-0.100933	0.172545	0.0272022	-0.00887975	0.112382	0.482465	-0.948761	-0.846628	-0.0377215	0.251723	-0.751951	-0.642412	0.157082	0.305107	-1.25774	-0.583393	0.312172	0.427161	-1.31917	-0.757014	-0.83379	-0.206575	-0.973371	-1.0263	-0.889583	-0.0568278	-1.46839	-0.538021	
0.865568	5.53741	0	0	0.936673	0.555484	0.473172	0.738271	-0.100933	0.172545	0.0327445	-0.0090795	0.111177	0.48587	-0.950535	-0.841612	-0.037464	0.260811	-0.747482	-0.632453	0.157082	0.305107	-1.25098	-0.583446	0.313156	0.424382	-1.31707	-0.762957	-0.832771	-0.209455	-0.973371	-1.0263	-0.897338	-0.0550595	-1.47413	-0.537116	
0.860445	5.53589	0	0	0.940448	0.544815	0.486228	0.733021	-0.100933	0.172545	0.0382868	-0.00927925	0.109973	0.489274	-0.95231	-0.836597	-0.0372065	0.2699	-0.743012	-0.622494	0.157082	0.305107	-1.24422	-0.583499	0.31414	0.421603	-1.31497	-0.768901	-0.831752	-0.212334	-0.973371	-1.0263	-0.905092	-0.0532912	-1.47988	-0.536212	
0.854908	5.53284	0	0	0.944223	0.534145	0.499285	0.727771	-0.100933	0.172545	0.043829	-0.009479	0.108768	0.492678	-0.954085	-0.831581	-0.036949	0.278989	-0.738543	-0.612536	0.157082	0.305107	-1.23746	-0.583552	0.315123	0.418824	-1.31287	-0.774845	-0.830733	-0.215214	-0.973371	-1.0263	-0.912846	-0.051523	-1.48563	-0.535308	
0.84908	5.53131	0	0	0.956532	0.522005	0.499285	0.727771	-0.098983	0.167034	0.046978	-0.0183785	0.109973	0.489274	-0.960244	-0.831412	-0.0341348	0.280856	-0.736901	-0.605869	0.153883	0.314148	-1.23709	-0.575054	0.315123	0.418824	-1.32236	-0.768639	-0.836647	-0.211349	-0.980199	-1.01938	-0.90661	-0.0489988	-1.48432	-0.539014	
0.843234	5.52826	0	0	0.96884	0.509864	0.499285	0.727771	-0.097033	0.161523	0.050127	-0.027278	0.111177	0.48587	-0.966403	-0.831244	-0.0313205	0.282724	-0.73526	-0.599203	0.150684	0.323188	-1.23673	-0.566555	0.315123	0.418824	-1.33186	-0.762432	-0.842561	-0.207485	-0.987027	-1.01246	-0.900375	-0.0464745	-1.483	-0.542721	
0.837685	5.53131	0	0	0.981148	0.497724	0.499285	0.727771	-0.095083	0.156012	0.053276	-0.0361775	0.112382	0.482465	-0.972562	-0.831075	-0.0285063	0.284591	-0.733618	-0.592537	0.147485	0.332228	-1.23636	-0.558057	0.315123	0.418824	-1.34136	-0.756225	-0.848476	-0.20362	-0.993854	-1.00553	-0.89414	-0.0439502	-1.48169	-0.546428	
0.832743	5.52826	0	0	0.993457	0.485584	0.499285	0.727771	-0.093133	0.150501	0.056425	-0.045077	0.113586	0.479061	-0.978721	-0.830907	-0.025692	0.286458	-0.731977	-0.58587	0.144286	0.341269	-1.23599	-0.549559	0.315123	0.418824	-1.35086	-0.750019	-0.85439	-0.199756	-1.00068	-0.998607	-0.887904	-0.041426	-1.48038	-0.550134	
0.828721	5.52368	0	0	0.993457	0.485584	0.505066	0.727276	-0.083159	0.143984	0.0619738	-0.0452825	0.112382	0.482465	-0.978721	-0.830907	-0.02373	0.290739	-0.726316	-0.579237	0.14776	0.343637	-1.23462	-0.543894	0.320543	0.415282	-1.34876	-0.755959	-0.851335	-0.208389	-1.00639	-1.00718	-0.891105	-0.052525	-1.48793	-0.55943	
0.825933	5.52215	0	0	0.993457	0.485584	0.510848	0.726781	-0.073185	0.137467	0.0675225	-0.045488	0.111177	0.48587	-0.978721	-0.830907	-0.021768	0.29502	-0.720656	-0.572603	0.151234	0.346004	-1.23325	-0.538229	0.325964	0.41174	-1.34666	-0.761899	-0.84828	-0.217021	-1.01211	-1.01575	-0.894307	-0.063624	-1.49548	-0.568726	
0.824683	5.52521	0	0	0.993457	0.485584	0.516629	0.726285	-0.063211	0.13095	0.0730713	-0.0456935	0.109973	0.489274	-0.978721	-0.830907	-0.019806	0.299301	-0.714995	-0.56597	0.154708	0.348372	-1.23188	-0.532564	0.331385	0.408198	-1.34455	-0.767838	-0.845226	-0.225654	-1.01782	-1.02433	-0.897509	-0.074723	-1.50303	-0.578022	
0.825013	5.52368	0	0	0.993457	0.485584	0.522411	0.72579	-0.053237	0.124433	0.07862	-0.045899	0.108768	0.492678	-0.978721	-0.830907	-0.017844	0.303582	-0.709334	-0.559336	0.158182	0.350739	-1.23051	-0.526899	0.336805	0.404656	-1.34245	-0.773778	-0.842171	-0.234287	-1.02353	-1.0329	-0.90071	-0.085822	-1.51058	-0.587318	
0.826635	5.52215	0	0	1.00201	0.484096	0.528198	0.725293	-0.053237	0.124433	0.0770452	-0.0414482	0.108768	0.492678	-0.972562	-0.831075	-0.019552	0.308409	-0.707693	-0.552649	0.16059	0.356128	-1.22474	-0.524099	0.341246	0.403891	-1.34035	-0.779714	-0.83912	-0.242912	-1.03037	-1.03826	-0.90071	-0.085822	-1.51421	-0.607655	
0.82924	5.52063	0	0	1.01056	0.482607	0.533986	0.724796	-0.053237	0.124433	0.0754705	-0.0369975	0.108768	0.492678	-0.966403	-0.831244	-0.02126	0.313237	-0.706051	-0.545963	0.162997	0.361517	-1.21898	-0.5213	0.345686	0.403126	-1.33825	-0.78565	-0.836068	-0.251536	-1.03721	-1.04362	-0.90071	-0.085822	-1.51783	-0.627992	
0.832521	5.51758	0	0	1.0191	0.481119	0.539773	0.724299	-0.053237	0.124433	0.0738957	-0.0325467	0.108768	0.492678	-0.960244	-0.831412	-0.022968	0.318064	-0.704409	-0.539276	0.165405	0.366905	-1.21321	-0.5185	0.350127	0.402361	-1.33615	-0.791586	-0.833016	-0.260161	-1.04405	-1.04899	-0.90071	-0.085822	-1.52146	-0.64833	
0.836171	5.51758	0	0	1.02765	0.47963	0.54556	0.723802	-0.053237	0.124433	0.072321	-0.028096	0.108768	0.492678	-0.954085	-0.831581	-0.024676	0.322891	-0.702768	-0.532589	0.167813	0.372294	-1.20745	-0.5157	0.354567	0.401596	-1.33405	-0.797522	-0.829965	-0.268785	-1.05088	-1.05435	-0.90071	-0.085822	-1.52509	-0.668667	
0.839879	5.52063	0	0	1.03621	0.478137	0.552865	0.719029	-0.041303	0.112401	0.0794497	-0.032754	0.111176	0.485871	-0.95847	-0.836426	-0.024676	0.322891	-0.699935	-0.529262	0.166744	0.375315	-1.20946	-0.510001	0.35555	0.398817	-1.33725	-0.809106	-0.830796	-0.279279	-1.05208	-1.07563	-0.920895	-0.0890855	-1.52872	-0.688922	
0.843362	5.51453	0	0	1.04477	0.476643	0.56017	0.714255	-0.029369	0.100368	0.0865785	-0.037412	0.113585	0.479064	-0.962855	-0.84127	-0.024676	0.322891	-0.697102	-0.525936	0.165675	0.378336	-1.21148	-0.504301	0.356534	0.396038	-1.34044	-0.820691	-0.831626	-0.289772	-1.05327	-1.09692	-0.94108	-0.092349	-1.53236	-0.709176	
0.846575	5.51605	0	0	1.05334	0.47515	0.567475	0.709482	-0.017435	0.0883363	0.0937072	-0.04207	0.115993	0.472257	-0.967241	-0.846114	-0.024676	0.322891	-0.69427	-0.522609	0.164607	0.381356	-1.2135	-0.498602	0.357517	0.393259	-1.34364	-0.832276	-0.832456	-0.300266	-1.05446	-1.11821	-0.961265	-0.0956125	-1.536	-0.729431	
0.849619	5.51453	0	0	1.0619	0.473656	0.57478	0.704709	-0.005501	0.076304	0.100836	-0.046728	0.118402	0.46545	-0.971626	-0.850959	-0.024676	0.322891	-0.691437	-0.519282	0.163538	0.384377	-1.21551	-0.492903	0.3585	0.39048	-1.34683	-0.84386	-0.833287	-0.31076	-1.05565	-1.13949	-0.98145	-0.098876	-1.53963	-0.749686	
0.852601	5.51453	0	0	1.07047	0.472157	0.582091	0.699932	-0.00744975	0.0818115	0.106395	-0.046937	0.119606	0.462048	-0.963692	-0.856143	-0.0255305	0.325306	-0.689796	-0.51258	0.168084	0.383729	-1.20534	-0.492972	0.368375	0.386164	-1.34264	-0.855696	-0.835135	-0.318369	-1.06252	-1.157	-0.975405	-0.11596	-1.53886	-0.767115	
0.855625	5.50995	0	0	1.07904	0.470658	0.589403	0.695154	-0.0093985	0.087319	0.111954	-0.047146	0.120809	0.458647	-0.955758	-0.861328	-0.026385	0.32772	-0.688155	-0.505879	0.172631	0.383082	-1.19517	-0.49304	0.37825	0.381849	-1.33846	-0.867533	-0.836983	-0.325978	-1.06939	-1.1745	-0.969361	-0.133044	-1.53809	-0.784544	
0.858796	5.51147	0	0	1.08761	0.46916	0.596714	0.690376	-0.0113472	0.0928265	0.117514	-0.047355	0.122012	0.455246	-0.947824	-0.866512	-0.0272395	0.330135	-0.686513	-0.499177	0.177177	0.382434	-1.185	-0.493109	0.388124	0.377533	-1.33427	-0.879369	-0.838831	-0.333586	-1.07626	-1.19201	-0.963316	-0.150127	-1.53732	-0.801972	
0.862218	5.51605	0	0	1.09619	0.467661	0.604026	0.685599	-0.013296	0.098334	0.123073	-0.047564	0.123216	0.451844	-0.93989	-0.871696	-0.028094	0.33255	-0.684872	-0.492475	0.181724	0.381786	-1.17483	-0.493178	0.397999	0.373217	-1.33008	-0.891205	-0.840679	-0.341195	-1.08313	-1.20951	-0.957271	-0.167211	-1.53655	-0.819401	
0.865975	5.50995	0	0	1.09807	0.462325	0.607048	0.677057	-0.0093995	0.0873223	0.119089	-0.051806	0.122846	0.439026	-0.948665	-0.881356	-0.0292003	0.32585	-0.683679	-0.495847	0.180654	0.384809	-1.17447	-0.484635	0.397015	0.375997	-1.33747	-0.890925	-0.839665	-0.34406	-1.08654	-1.21216	-0.958781	-0.162943	-1.53967	-0.825806	
0.869984	5.50995	0	0	1.09996	0.456988	0.61007	0.668515	-0.005503	0.0763105	0.115104	-0.056048	0.122477	0.426207	-0.957441	-0.891016	-0.0303065	0.319151	-0.682486	-0.499219	0.179585	0.387831	-1.1741	-0.476093	0.396032	0.378777	-1.34485	-0.890644	-0.838652	-0.346925	-1.08995	-1.21481	-0.960291	-0.158675	-1.5428	-0.832212	
0.874086	5.50995	0	0	1.10185	0.451651	0.613093	0.659973	-0.0016065	0.0652988	0.11112	-0.06029	0.122107	0.413388	-0.966216	-0.900677	-0.0314128	0.312451	-0.681293	-0.502591	0.178515	0.390854	-1.17374	-0.467551	0.395049	0.381556	-1.35224	-0.890363	-0.837638	-0.349789	-1.09336	-1.21746	-0.961801	-0.154407	-1.54592	-0.838617	
0.878119	5.5069	0	0	1.10374	0.446315	0.616115	0.651431	0.00229	0.054287	0.107136	-0.064532	0.121737	0.40057	-0.974991	-0.910337	-0.032519	0.305751	-0.6801	-0.505963	0.177446	0.393877	-1.17338	-0.459008	0.394065	0.384336	-1.35962	-0.890083	-0.836625	-0.352654	-1.09677	-1.22011	-0.963311	-0.150139	-1.54905	-0.845022	
0.881924	5.50842	0	0	1.09328	0.45315	0.608804	0.656208	0.00034225	0.0597913	0.105561	-0.060081	0.122938	0.397176	-0.973222	-0.915336	-0.0262898	0.297972	-0.676071	-0.506004	0.181996	0.393229	-1.1676	-0.456193	0.396546	0.38913	-1.35962	-0.890083	-0.8405	-0.354524	-1.0957	-1.23542	-0.954068	-0.156178	-1.55658	-0.854151	
0.88534	5.50384	0	0	1.08282	0.459986	0.601492	0.660986	-0.0016055	0.0652955	0.103986	-0.05563	0.124139	0.393782	-0.971453	-0.920335	-0.0200605	0.290194	-0.672041	-0.506044	0.186545	0.39258	-1.16181	-0.453378	0.399027	0.393925	-1.35962	-0.890083	-0.844376	-0.356395	-1.09463	-1.25074	-0.944826	-0.162218	-1.56412	-0.86328	
0.888207	5.5069	0	0	1.07236	0.466821	0.594181	0.665764	-0.00355325	0.0707997	0.102411	-0.051179	0.12534	0.390389	-0.969684	-0.925334	-0.0138312	0.282416	-0.668012	-0.506085	0.191095	0.391932	-1.15603	-0.450563	0.401509	0.398719	-1.35962	-0.890083	-0.848251	-0.358265	-1.09355	-1.26605	-0.935584	-0.168257	-1.57166	-0.872409	
0.89037	5.50537	0	0	1.0619	0.473656	0.58687	0.670541	-0.005501	0.076304	0.100836	-0.046728	0.126541	0.386995	-0.967915	-0.930333	-0.007602	0.274637	-0.663983	-0.506125	0.195644	0.391284	-1.15025	-0.447748	0.40399	0.403513	-1.35962	-0.890083	-0.852127	-0.360135	-1.09248	-1.28137	-0.926341	-0.174296	-1.5792	-0.881538	
0.891758	5.49927	0	0	1.06001	0.478993	0.585359	0.674811	-0.005501	0.076304	0.090555	-0.0331617	0.124139	0.393784	-0.971454	-0.920332	-0.0129777	0.280004	-0.66637	-0.499377	0.196984	0.399715	-1.14649	-0.439204	0.4045	0.413886	-1.35433	-0.884447	-0.849265	-0.3554	-1.09701	-1.28084	-0.938606	-0.159715	-1.57791	-0.88519	
0.892352	5.50384	0	0	1.05812	0.484329	0.583848	0.679081	-0.005501	0.076304	0.080274	-0.0195955	0.121736	0.400572	-0.974992	-0.910331	-0.0183535	0.28537	-0.668758	-0.49263	0.198323	0.408146	-1.14273	-0.430661	0.40501	0.424258	-1.34904	-0.878811	-0.846403	-0.350665	-1.10154	-1.28031	-0.950871	-0.145134	-1.57662	-0.888842	
0.892131	5.49927	0	0	1.05623	0.489665	0.582338	0.683351	-0.005501	0.076304	0.069993	-0.00602925	0.119334	0.407361	-0.978531	-0.900331	-0.0237293	0.290737	-0.671146	-0.485882	0.199663	0.416577	-1.13897	-0.422117	0.405521	0.434631	-1.34375	-0.873176	-0.843541	-0.34593	-1.10607	-1.27978	-0.963136	-0.130553	-1.57532	-0.892493	
0.891076	5.49927	0	0	1.05434	0.495002	0.580827	0.687621	-0.005501	0.076304	0.059712	0.007537	0.116932	0.41415	-0.98207	-0.89033	-0.029105	0.296103	-0.673533	-0.479134	0.201003	0.425008	-1.13521	-0.413573	0.406031	0.445004	-1.33845	-0.86754	-0.840679	-0.341195	-1.1106	-1.27926	-0.975401	-0.115972	-1.57403	-0.896145	
0.889169	5.49927	0	0	1.05245	0.500342	0.586627	0.687115	-0.00939975	0.0873225	0.0652638	0.0073365	0.122111	0.413377	-0.989989	-0.885155	-0.0282517	0.293692	-0.672339	-0.482509	0.204486	0.42739	-1.13282	-0.410728	0.406537	0.455396	-1.33845	-0.86754	-0.841693	-0.33833	-1.11065	-1.29137	-0.975401	-0.115972	-1.58285	-0.9016	
0.886389	5.49774	0	0	1.05056	0.505682	0.592426	0.68661	-0.0132985	0.098341	0.0708155	0.007136	0.12729	0.412604	-0.997908	-0.879981	-0.0273985	0.29128	-0.671145	-0.485883	0.207969	0.429772	-1.13044	-0.407883	0.407043	0.465788	-1.33845	-0.86754	-0.842707	-0.335464	-1.11071	-1.30349	-0.975401	-0.115972	-1.59167	-0.907054	
0.882734	5.49621	0	0	1.04868	0.511021	0.598226	0.686105	-0.0171973	0.109359	0.0763672	0.0069355	0.132469	0.411831	-1.00583	-0.874806	-0.0265452	0.288869	-0.669951	-0.489258	0.211452	0.432154	-1.12805	-0.405037	0.407549	0.476181	-1.33845	-0.86754	-0.843721	-0.332599	-1.11076	-1.3156	-0.975401	-0.115972	-1.6005	-0.912509	
0.878446	5.49774	0	0	1.04679	0.516361	0.604026	0.685599	-0.021096	0.120378	0.081919	0.006735	0.137648	0.411058	-1.01375	-0.869632	-0.025692	0.286458	-0.668757	-0.492632	0.214935	0.434536	-1.12566	-0.402192	0.408055	0.486573	-1.33845	-0.86754	-0.844735	-0.329733	-1.11081	-1.32772	-0.975401	-0.115972	-1.60932	-0.917964	
0.873961	5.49621	0	0	1.043	0.52705	0.601	0.694149	-0.0249995	0.13141	0.0716333	0.0203147	0.13404	0.421254	-1.0076	-0.869802	-0.02373	0.290739	-0.667563	-0.496005	0.216274	0.442987	-1.12429	-0.396477	0.414994	0.490629	-1.34474	-0.849768	-0.848794	-0.318261	-1.11757	-1.32087	-0.972212	-0.104903	-1.6163	-0.913401	
0.86972	5.49621	0	0	1.03922	0.537738	0.597975	0.7027	-0.028903	0.142442	0.0613475	0.0338945	0.130432	0.431451	-1.00145	-0.869972	-0.021768	0.29502	-0.66637	-0.499379	0.217612	0.451437	-1.12291	-0.390761	0.421932	0.494686	-1.35103	-0.831995	-0.852853	-0.30679	-1.12433	-1.31403	-0.969023	-0.0938335	-1.62328	-0.908837	
0.866165	5.49316	0	0	1.03544	0.548427	0.59495	0.71125	-0.0328065	0.153475	0.0510618	0.0474742	0.126824	0.441648	-0.995301	-0.870142	-0.019806	0.299301	-0.665177	-0.502752	0.21895	0.459888	-1.12154	-0.385045	0.428871	0.498742	-1.35732	-0.814223	-0.856912	-0.295319	-1.13109	-1.30718	-0.965834	-0.0827642	-1.63027	-0.904274	
0.863737	5.49469	0	0	1.03166	0.559116	0.591924	0.7198	-0.03671	0.164507	0.040776	0.061054	0.123216	0.451844	-0.989153	-0.870312	-0.017844	0.303582	-0.663983	-0.506125	0.220289	0.468339	-1.12016	-0.37933	0.43581	0.502798	-1.36361	-0.796451	-0.860971	-0.283847	-1.13785	-1.30034	-0.962645	-0.071695	-1.63725	-0.899711	
0.862878	5.49469	0	0	1.03166	0.559116	0.591924	0.7198	-0.0386637	0.170028	0.033653	0.0657082	0.128398	0.451073	-0.989153	-0.870312	-0.017844	0.303582	-0.668012	-0.506085	0.22485	0.467693	-1.12016	-0.37933	0.433831	0.50839	-1.35412	-0.802651	-0.864019	-0.275234	-1.13785	-1.30034	-0.965676	-0.0631285	-1.64991	-0.89424	
0.863979	5.49164	0	0	1.03166	0.559116	0.591924	0.7198	-0.0406175	0.175549	0.02653	0.0703625	0.133579	0.450303	-0.989153	-0.870312	-0.017844	0.303582	-0.672041	-0.506044	0.22941	0.467046	-1.12016	-0.37933	0.431852	0.513982	-1.34463	-0.808851	-0.867066	-0.266621	-1.13785	-1.30034	-0.968708	-0.054562	-1.66257	-0.888769	
0.866917	5.49316	0	0	1.03166	0.559116	0.591924	0.7198	-0.0425713	0.181071	0.019407	0.0750168	0.138761	0.449532	-0.989153	-0.870312	-0.017844	0.303582	-0.676071	-0.506004	0.23397	0.466399	-1.12016	-0.37933	0.429874	0.519574	-1.33514	-0.81505	-0.870114	-0.258007	-1.13785	-1.30034	-0.971739	-0.0459955	-1.67523	-0.883298	
0.871251	5.49011	0	0	1.03166	0.559116	0.591924	0.7198	-0.044525	0.186592	0.012284	0.079671	0.143943	0.448761	-0.989153	-0.870312	-0.017844	0.303582	-0.6801	-0.505963	0.238531	0.465753	-1.12016	-0.37933	0.427895	0.525166	-1.32566	-0.82125	-0.873162	-0.249394	-1.13785	-1.30034	-0.97477	-0.037429	-1.68789	-0.877827	
0.876536	5.49469	0	0	1.02976	0.564465	0.588896	0.728358	-0.0464798	0.192117	0.019407	0.0750168	0.144309	0.461612	-0.990925	-0.865305	-0.0122087	0.307324	-0.6801	-0.505963	0.240945	0.47118	-1.11437	-0.376497	0.430376	0.529999	-1.32986	-0.809382	-0.871324	-0.241756	-1.14009	-1.29402	-0.979322	-0.0245637	-1.69047	-0.870537	
0.882326	5.48859	0	0	1.02787	0.569814	0.585867	0.736916	-0.0484345	0.197641	0.02653	0.0703625	0.144674	0.474464	-0.992696	-0.860297	-0.0065735	0.311067	-0.6801	-0.505963	0.243359	0.476607	-1.10857	-0.373664	0.432858	0.534831	-1.33405	-0.797514	-0.869487	-0.234117	-1.14232	-1.2877	-0.983874	-0.0116985	-1.69305	-0.863247	
0.888177	5.49316	0	0	1.02598	0.575164	0.582839	0.745475	-0.0503893	0.203166	0.033653	0.0657082	0.145039	0.487315	-0.994468	-0.85529	-0.00093825	0.314809	-0.6801	-0.505963	0.245773	0.482035	-1.10278	-0.370831	0.435339	0.539663	-1.33825	-0.785646	-0.867649	-0.226478	-1.14456	-1.28138	-0.988427	0.00116675	-1.69563	-0.855956	
0.893644	5.48859	0	0	1.02409	0.580513	0.579811	0.754033	-0.052344	0.208691	0.040776	0.061054	0.145405	0.500166	-0.99624	-0.850283	0.004697	0.318551	-0.6801	-0.505963	0.248187	0.487462	-1.09698	-0.367998	0.43782	0.544496	-1.34245	-0.773778	-0.865811	-0.21884	-1.1468	-1.27506	-0.992979	0.014032	-1.69821	-0.848666	
0.898291	5.49011	0	0	1.02598	0.575164	0.575528	0.750252	-0.0603745	0.209691	0.03681	0.0567865	0.145405	0.500166	-1.00239	-0.850116	0.004697	0.318551	-0.677715	-0.512703	0.246036	0.493542	-1.10003	-0.359379	0.434847	0.552899	-1.34666	-0.761894	-0.870904	-0.204448	-1.14899	-1.25659	-0.985111	0.0320247	-1.70467	-0.830414	
0.901907	5.49011	0	0	1.02787	0.569814	0.571245	0.746471	-0.068405	0.210691	0.032844	0.052519	0.145405	0.500166	-1.00853	-0.849948	0.004697	0.318551	-0.67533	-0.519443	0.243885	0.499621	-1.10308	-0.350761	0.431874	0.561302	-1.35086	-0.75001	-0.875997	-0.190055	-1.15119	-1.23812	-0.977243	0.0500175	-1.71113	-0.812163	
0.904491	5.48706	0	0	1.02976	0.564465	0.566962	0.74269	-0.0764355	0.211691	0.028878	0.0482515	0.145405	0.500166	-1.01468	-0.849781	0.004697	0.318551	-0.672945	-0.526183	0.241733	0.5057	-1.10613	-0.342142	0.4289	0.569704	-1.35507	-0.738127	-0.881089	-0.175662	-1.15339	-1.21965	-0.969376	0.0680102	-1.71759	-0.793911	
0.906049	5.48706	0	0	1.03166	0.559116	0.562679	0.738909	-0.084466	0.212691	0.024912	0.043984	0.145405	0.500166	-1.02083	-0.849614	0.004697	0.318551	-0.67056	-0.532923	0.239582	0.51178	-1.10918	-0.333523	0.425927	0.578107	-1.35927	-0.726243	-0.886182	-0.16127	-1.15559	-1.20118	-0.961508	0.086003	-1.72405	-0.775659	
