0.841	12.0377	0	0	-0.168895	-0.342833	0.301213	-0.67892	-0.146483	-0.286112	0.025293	-0.385718	-0.02476	-0.018934	-0.170431	-0.429111	-0.01627	-0.139843	-0.211179	-0.332125	-0.006424	-0.117531	-0.04906	-0.191898	0.093192	-0.104892	-0.024505	-0.423121	-0.103164	-0.257107	0.070089	-0.38354	-0.156589	-0.281827	-0.023121	-0.466269	
0.842848	12.0255	0	0	-0.166933	-0.348378	0.304114	-0.687117	-0.144157	-0.292686	0.0186965	-0.385956	-0.02476	-0.018934	-0.168612	-0.434251	-0.01627	-0.139843	-0.211179	-0.332125	-0.004627	-0.122609	-0.0461937	-0.199999	0.0922805	-0.102316	-0.022934	-0.427561	-0.109862	-0.250541	0.070089	-0.38354	-0.147317	-0.287886	-0.0137085	-0.475774	
0.845442	12.0255	0	0	-0.164971	-0.353924	0.307014	-0.695314	-0.141831	-0.29926	0.0121	-0.386194	-0.02476	-0.018934	-0.166793	-0.439391	-0.01627	-0.139843	-0.211179	-0.332125	-0.00283	-0.127688	-0.0433275	-0.208099	0.091369	-0.0997395	-0.021363	-0.432001	-0.116559	-0.243976	0.070089	-0.38354	-0.138044	-0.293944	-0.004296	-0.485279	
0.848717	12.0148	0	0	-0.163009	-0.359469	0.309914	-0.703511	-0.139505	-0.305833	0.0055035	-0.386433	-0.02476	-0.018934	-0.164975	-0.444531	-0.01627	-0.139843	-0.211179	-0.332125	-0.001033	-0.132767	-0.0404613	-0.216199	0.0904575	-0.0971633	-0.019792	-0.43644	-0.123257	-0.23741	0.070089	-0.38354	-0.128771	-0.300003	0.0051165	-0.494784	
0.85261	12.0056	0	0	-0.161047	-0.365014	0.312815	-0.711708	-0.137179	-0.312407	-0.001093	-0.386671	-0.02476	-0.018934	-0.163156	-0.449671	-0.01627	-0.139843	-0.211179	-0.332125	0.000764	-0.137845	-0.037595	-0.2243	0.089546	-0.094587	-0.018221	-0.44088	-0.129955	-0.230845	0.070089	-0.38354	-0.119499	-0.306062	0.014529	-0.504289	
0.857057	12.001	0	0	-0.159086	-0.370556	0.312719	-0.736795	-0.142611	-0.318954	0.00726675	-0.410297	-0.0208268	-0.021504	-0.17268	-0.455289	-0.0139428	-0.14642	-0.212742	-0.343897	-0.00273075	-0.137513	-0.0531765	-0.214118	0.089546	-0.094587	-0.0150815	-0.449753	-0.126281	-0.228866	0.0672268	-0.375451	-0.121119	-0.301484	0.008348	-0.486821	
0.861993	11.9904	0	0	-0.157125	-0.376097	0.312623	-0.761881	-0.148043	-0.325501	0.0156265	-0.433923	-0.0168935	-0.024074	-0.182204	-0.460906	-0.0116155	-0.152997	-0.214305	-0.355669	-0.0062255	-0.137181	-0.068758	-0.203937	0.089546	-0.094587	-0.011942	-0.458626	-0.122606	-0.226886	0.0643645	-0.367362	-0.12274	-0.296905	0.002167	-0.469353	
0.867355	11.9797	0	0	-0.155164	-0.381639	0.312526	-0.786968	-0.153476	-0.332049	0.0239862	-0.457549	-0.0129602	-0.026644	-0.191728	-0.466524	-0.00928825	-0.159574	-0.215868	-0.367442	-0.00972025	-0.136849	-0.0843395	-0.193755	0.089546	-0.094587	-0.0088025	-0.467499	-0.118932	-0.224907	0.0615022	-0.359272	-0.12436	-0.292326	-0.004014	-0.451885	
0.873078	11.9736	0	0	-0.153203	-0.387181	0.31243	-0.812054	-0.158908	-0.338596	0.032346	-0.481175	-0.009027	-0.029214	-0.201252	-0.472142	-0.006961	-0.166151	-0.217431	-0.379214	-0.013215	-0.136517	-0.099921	-0.183574	0.089546	-0.094587	-0.005663	-0.476372	-0.115258	-0.222928	0.05864	-0.351183	-0.12598	-0.287748	-0.010195	-0.434417	
0.8791	11.9705	0	0	-0.151244	-0.392719	0.318202	-0.828366	-0.146508	-0.351742	0.0212482	-0.487515	-0.005092	-0.0317853	-0.203289	-0.482632	-0.0054105	-0.170533	-0.218214	-0.38509	-0.009625	-0.146663	-0.0970575	-0.191667	0.0904575	-0.0971633	-0.00912825	-0.480922	-0.11994	-0.222059	0.0600715	-0.355229	-0.12598	-0.287748	-0.004014	-0.451885	
0.885355	11.9659	0	0	-0.149284	-0.398258	0.323974	-0.844677	-0.134107	-0.364887	0.0101505	-0.493854	-0.001157	-0.0343565	-0.205325	-0.493122	-0.00386	-0.174915	-0.218998	-0.390966	-0.006035	-0.156808	-0.094194	-0.19976	0.091369	-0.0997395	-0.0125935	-0.485472	-0.124622	-0.22119	0.061503	-0.359274	-0.12598	-0.287748	0.002167	-0.469353	
0.891781	11.9583	0	0	-0.147324	-0.403797	0.329745	-0.860988	-0.121707	-0.378032	-0.00094725	-0.500193	0.002778	-0.0369278	-0.207362	-0.503612	-0.0023095	-0.179297	-0.219781	-0.396842	-0.002445	-0.166954	-0.0913305	-0.207853	0.0922805	-0.102316	-0.0160588	-0.490023	-0.129304	-0.220321	0.0629345	-0.36332	-0.12598	-0.287748	0.008348	-0.486821	
0.898312	11.9522	0	0	-0.145365	-0.409335	0.335517	-0.8773	-0.109307	-0.391178	-0.012045	-0.506533	0.006713	-0.039499	-0.209399	-0.514102	-0.000759	-0.183679	-0.220564	-0.402718	0.001145	-0.177099	-0.088467	-0.215946	0.093192	-0.104892	-0.019524	-0.494573	-0.133986	-0.219452	0.064366	-0.367365	-0.12598	-0.287748	0.014529	-0.504289	
0.904886	11.9476	0	0	-0.156994	-0.397478	0.3325	-0.894096	-0.117067	-0.391147	-0.0123873	-0.524389	0.00353975	-0.0390805	-0.216869	-0.50922	-0.00302175	-0.185568	-0.225265	-0.397518	-0.0058405	-0.176431	-0.110435	-0.232617	0.093192	-0.104892	-0.0245537	-0.494691	-0.130312	-0.217471	0.0526675	-0.378353	-0.110647	-0.290721	-0.003038	-0.522931	
0.911438	11.9431	0	0	-0.168624	-0.385621	0.329482	-0.910892	-0.124827	-0.391115	-0.0127295	-0.542245	0.0003665	-0.038662	-0.22434	-0.504339	-0.0052845	-0.187456	-0.229966	-0.392317	-0.012826	-0.175764	-0.132403	-0.249287	0.093192	-0.104892	-0.0295835	-0.49481	-0.126638	-0.21549	0.040969	-0.38934	-0.0953145	-0.293694	-0.020605	-0.541573	
0.917889	11.9308	0	0	-0.180254	-0.373764	0.326464	-0.927688	-0.132587	-0.391084	-0.0130718	-0.560102	-0.00280675	-0.0382435	-0.231811	-0.499457	-0.00754725	-0.189345	-0.234667	-0.387116	-0.0198115	-0.175096	-0.154371	-0.265958	0.093192	-0.104892	-0.0346132	-0.494928	-0.122965	-0.213509	0.0292705	-0.400328	-0.0799818	-0.296668	-0.038172	-0.560215	
0.924035	11.9293	0	0	-0.191883	-0.361907	0.323447	-0.944484	-0.140347	-0.391052	-0.013414	-0.577958	-0.00598	-0.037825	-0.239281	-0.494576	-0.00981	-0.191234	-0.239368	-0.381916	-0.026797	-0.174428	-0.176339	-0.282628	0.093192	-0.104892	-0.039643	-0.495046	-0.119291	-0.211528	0.017572	-0.411316	-0.064649	-0.299641	-0.055739	-0.578857	
0.929608	11.9247	0	0	-0.184174	-0.362684	0.294189	-0.962748	-0.140347	-0.391052	-0.0179163	-0.584038	-0.00991325	-0.035255	-0.241314	-0.505048	-0.013559	-0.197195	-0.248564	-0.380164	-0.0292978	-0.186414	-0.197694	-0.311874	0.091969	-0.11201	-0.038411	-0.51285	-0.12095	-0.219204	0.004855	-0.433948	-0.0614065	-0.308805	-0.0766478	-0.621731	
0.93434	11.9156	0	0	-0.176465	-0.36346	0.26493	-0.981011	-0.140347	-0.391052	-0.0224185	-0.590118	-0.0138465	-0.032685	-0.243347	-0.51552	-0.017308	-0.203156	-0.257759	-0.378412	-0.0317985	-0.198401	-0.21905	-0.341121	0.090746	-0.119127	-0.037179	-0.530654	-0.122608	-0.226881	-0.007862	-0.456579	-0.058164	-0.31797	-0.0975565	-0.664605	
0.937963	11.9125	0	0	-0.168756	-0.364237	0.235672	-0.999275	-0.140347	-0.391052	-0.0269208	-0.596198	-0.0177798	-0.030115	-0.24538	-0.525991	-0.021057	-0.209118	-0.266955	-0.37666	-0.0342993	-0.210388	-0.240406	-0.370368	0.089523	-0.126245	-0.035947	-0.548458	-0.124267	-0.234558	-0.020579	-0.47921	-0.0549215	-0.327134	-0.118465	-0.707479	
0.940208	11.9019	0	0	-0.161047	-0.365014	0.206414	-1.01754	-0.140347	-0.391052	-0.031423	-0.602278	-0.021713	-0.027545	-0.247413	-0.536463	-0.024806	-0.215079	-0.276151	-0.374908	-0.0368	-0.222374	-0.261761	-0.399614	0.0883	-0.133363	-0.034715	-0.566262	-0.125925	-0.242234	-0.033296	-0.501842	-0.051679	-0.336298	-0.139374	-0.750353	
0.940809	11.8912	0	0	-0.155291	-0.360246	0.188991	-1.01857	-0.142666	-0.384497	-0.046632	-0.596847	-0.0256445	-0.0249762	-0.25487	-0.53159	-0.030872	-0.214477	-0.274393	-0.3718	-0.0384987	-0.227093	-0.270103	-0.409526	0.0852565	-0.135329	-0.039739	-0.566374	-0.122904	-0.250771	-0.0396468	-0.513111	-0.051679	-0.336298	-0.16308	-0.767904	
0.939497	11.8896	0	0	-0.149536	-0.355478	0.171567	-1.0196	-0.144985	-0.377943	-0.061841	-0.591415	-0.029576	-0.0224075	-0.262328	-0.526717	-0.036938	-0.213874	-0.272636	-0.368692	-0.0401975	-0.231812	-0.278446	-0.419438	0.082213	-0.137296	-0.044763	-0.566485	-0.119884	-0.259307	-0.0459975	-0.524379	-0.051679	-0.336298	-0.186785	-0.785454	
0.936187	11.8881	0	0	-0.143781	-0.350709	0.154144	-1.02063	-0.147305	-0.371389	-0.07705	-0.585984	-0.0335075	-0.0198388	-0.269786	-0.521845	-0.043004	-0.213272	-0.270879	-0.365583	-0.0418963	-0.236532	-0.286789	-0.42935	0.0791695	-0.139262	-0.049787	-0.566597	-0.116864	-0.267844	-0.0523482	-0.535648	-0.051679	-0.336298	-0.210491	-0.803005	
0.93115	11.8805	0	0	-0.138025	-0.345941	0.136721	-1.02166	-0.149624	-0.364834	-0.092259	-0.580553	-0.037439	-0.01727	-0.277243	-0.516972	-0.04907	-0.21267	-0.269121	-0.362475	-0.043595	-0.241251	-0.295131	-0.439262	0.076126	-0.141228	-0.054811	-0.566709	-0.113843	-0.27638	-0.058699	-0.546917	-0.051679	-0.336298	-0.234197	-0.820555	
0.924701	11.8805	0	0	-0.138025	-0.345941	0.133727	-1.03829	-0.149624	-0.364834	-0.0901862	-0.586411	-0.040607	-0.0168545	-0.275435	-0.522083	-0.049782	-0.218923	-0.267162	-0.368012	-0.0487778	-0.245629	-0.31882	-0.439112	0.075811	-0.150899	-0.0617272	-0.575752	-0.125864	-0.27945	-0.0678747	-0.550156	-0.0561138	-0.343955	-0.251398	-0.822487	
0.917153	11.8958	0	0	-0.138025	-0.345941	0.130734	-1.05491	-0.149624	-0.364834	-0.0881135	-0.592269	-0.043775	-0.016439	-0.273626	-0.527193	-0.050494	-0.225176	-0.265203	-0.373549	-0.0539605	-0.250007	-0.342509	-0.438962	0.075496	-0.160571	-0.0686435	-0.584794	-0.137884	-0.28252	-0.0770505	-0.553395	-0.0605485	-0.351611	-0.268598	-0.82442	
0.908823	11.9385	0	0	-0.138025	-0.345941	0.127741	-1.07154	-0.149624	-0.364834	-0.0860407	-0.598127	-0.046943	-0.0160235	-0.271818	-0.532303	-0.051206	-0.231428	-0.263244	-0.379085	-0.0591432	-0.254385	-0.366198	-0.438812	0.075181	-0.170242	-0.0755597	-0.593837	-0.149904	-0.285589	-0.0862263	-0.556633	-0.0649832	-0.359268	-0.285799	-0.826352	
0.900024	12.03	0	0	-0.138025	-0.345941	0.124747	-1.08816	-0.149624	-0.364834	-0.083968	-0.603985	-0.050111	-0.015608	-0.27001	-0.537414	-0.051918	-0.237681	-0.261285	-0.384622	-0.064326	-0.258763	-0.389887	-0.438662	0.074866	-0.179914	-0.082476	-0.60288	-0.161925	-0.288659	-0.095402	-0.559872	-0.069418	-0.366925	-0.303	-0.828284	
0.891071	12.1613	0	0	-0.136062	-0.35149	0.136445	-1.07102	-0.151945	-0.358274	-0.074984	-0.591823	-0.050111	-0.015608	-0.264361	-0.537176	-0.0526908	-0.235497	-0.249539	-0.377387	-0.064326	-0.258763	-0.383883	-0.433392	0.069099	-0.174171	-0.079019	-0.598361	-0.163584	-0.296302	-0.095402	-0.559872	-0.0863555	-0.359372	-0.30603	-0.819722	
0.882276	12.3322	0	0	-0.134099	-0.357039	0.148144	-1.05388	-0.154266	-0.351715	-0.066	-0.579661	-0.050111	-0.015608	-0.258711	-0.536938	-0.0534635	-0.233314	-0.237794	-0.370152	-0.064326	-0.258763	-0.377878	-0.428122	0.063332	-0.168429	-0.075562	-0.593843	-0.165243	-0.303945	-0.095402	-0.559872	-0.103293	-0.35182	-0.309059	-0.81116	
0.873942	12.4985	0	0	-0.132135	-0.362587	0.159842	-1.03674	-0.156587	-0.345156	-0.057016	-0.567499	-0.050111	-0.015608	-0.253062	-0.536701	-0.0542362	-0.23113	-0.226048	-0.362918	-0.064326	-0.258763	-0.371873	-0.422853	0.057565	-0.162687	-0.072105	-0.589324	-0.166901	-0.311587	-0.095402	-0.559872	-0.120231	-0.344267	-0.312089	-0.802597	
0.866372	12.6526	0	0	-0.130172	-0.368136	0.171541	-1.0196	-0.158908	-0.338596	-0.048032	-0.555337	-0.050111	-0.015608	-0.247413	-0.536463	-0.055009	-0.228946	-0.214303	-0.355683	-0.064326	-0.258763	-0.365869	-0.417583	0.051798	-0.156944	-0.068648	-0.584805	-0.16856	-0.31923	-0.095402	-0.559872	-0.137168	-0.336714	-0.315119	-0.794035	
0.859868	12.7792	0	0	-0.14364	-0.372117	0.165822	-1.00343	-0.156587	-0.345156	-0.041119	-0.537247	-0.0540388	-0.0130415	-0.249222	-0.53135	-0.0588115	-0.226462	-0.213522	-0.349794	-0.0669155	-0.26095	-0.362685	-0.404314	0.0527067	-0.159512	-0.0767852	-0.576097	-0.173228	-0.31836	-0.0982347	-0.551866	-0.137168	-0.336714	-0.311765	-0.769832	
0.854732	12.8784	0	0	-0.157108	-0.376098	0.160102	-0.987267	-0.154266	-0.351715	-0.034206	-0.519157	-0.0579665	-0.010475	-0.251031	-0.526236	-0.062614	-0.223977	-0.212741	-0.343904	-0.069505	-0.263137	-0.359502	-0.391045	0.0536155	-0.16208	-0.0849225	-0.567389	-0.177897	-0.317489	-0.101068	-0.54386	-0.137168	-0.336714	-0.308412	-0.745629	
0.851266	12.9532	0	0	-0.170577	-0.380079	0.154383	-0.971103	-0.151945	-0.358274	-0.027293	-0.501067	-0.0618943	-0.0079085	-0.252841	-0.521123	-0.0664165	-0.221493	-0.21196	-0.338014	-0.0720945	-0.265324	-0.356318	-0.377775	0.0545243	-0.164648	-0.0930597	-0.55868	-0.182565	-0.316619	-0.1039	-0.535854	-0.137168	-0.336714	-0.305058	-0.721427	
0.849769	13.0035	0	0	-0.184045	-0.38406	0.148664	-0.954939	-0.149624	-0.364834	-0.02038	-0.482977	-0.065822	-0.005342	-0.25465	-0.51601	-0.070219	-0.219008	-0.211179	-0.332125	-0.074684	-0.267511	-0.353135	-0.364506	0.055433	-0.167216	-0.101197	-0.549972	-0.187233	-0.315749	-0.106733	-0.527848	-0.137168	-0.336714	-0.301704	-0.697224	
0.850283	13.031	0	0	0.90228	0.0977143	0.174964	-0.928453	0.906482	0.208973	-0.00445425	-0.452502	1.50658	-1.03113	-0.246963	-0.505285	-0.0687357	-0.214938	-0.200596	-0.313381	-0.0773622	-0.259941	-0.350496	-0.338514	0.0527063	-0.159509	-0.0942902	-0.540903	-0.192901	-0.312045	-0.102858	-0.524219	-0.137168	-0.336714	-0.306138	-0.667831	
0.852413	13.0432	0	0	1.9886	0.579489	0.201265	-0.901967	1.96259	0.78278	0.0114715	-0.422027	3.07897	-2.05691	-0.239276	-0.494561	-0.0672525	-0.210868	-0.190014	-0.294638	-0.0800405	-0.252372	-0.347857	-0.312523	0.0499795	-0.151803	-0.0873835	-0.531834	-0.198569	-0.308342	-0.098983	-0.520591	-0.137168	-0.336714	-0.310571	-0.638438	
0.855728	13.0341	0	0	3.07493	1.06126	0.227565	-0.87548	3.01869	1.35659	0.0273972	-0.391552	4.65137	-3.08269	-0.231589	-0.483837	-0.0657693	-0.206798	-0.179431	-0.275895	-0.0827188	-0.244803	-0.345218	-0.286531	0.0472528	-0.144097	-0.0804767	-0.522764	-0.204236	-0.304639	-0.095108	-0.516962	-0.137168	-0.336714	-0.315005	-0.609045	
0.859794	13.0096	0	0	4.16125	1.54304	0.253866	-0.848994	4.0748	1.9304	0.043323	-0.361077	6.22377	-4.10847	-0.223902	-0.473112	-0.064286	-0.202728	-0.168848	-0.257151	-0.085397	-0.237233	-0.342579	-0.26054	0.044526	-0.13639	-0.07357	-0.513695	-0.209904	-0.300935	-0.091233	-0.513334	-0.137168	-0.336714	-0.319438	-0.579652	
0.864177	12.97	0	0	5.56553	2.2262	0.268507	-0.839759	4.14803	2.01717	0.0589703	-0.348484	6.42984	-4.24478	-0.233187	-0.463102	-0.0658332	-0.198355	-0.170257	-0.236923	-0.0863857	-0.224934	-0.341391	-0.23039	0.039976	-0.123531	-0.0763832	-0.491433	-0.212915	-0.292426	-0.0930388	-0.49364	-0.151286	-0.31694	-0.303632	-0.556715	
0.868444	12.9272	0	0	6.96981	2.90937	0.283148	-0.830524	4.22127	2.10395	0.0746175	-0.33589	6.63591	-4.38109	-0.242472	-0.453093	-0.0673805	-0.193983	-0.171666	-0.216696	-0.0873745	-0.212635	-0.340202	-0.20024	0.035426	-0.110672	-0.0791965	-0.469171	-0.215925	-0.283917	-0.0948445	-0.473946	-0.165404	-0.297166	-0.287826	-0.533779	
0.872163	12.8815	0	0	8.37409	3.59254	0.297789	-0.821289	4.2945	2.19072	0.0902648	-0.323296	6.84198	-4.51739	-0.251757	-0.443084	-0.0689277	-0.189611	-0.173075	-0.196468	-0.0883633	-0.200335	-0.339013	-0.170089	0.030876	-0.097813	-0.0820097	-0.446909	-0.218936	-0.275407	-0.0966502	-0.454251	-0.179521	-0.277392	-0.27202	-0.510842	
0.875048	12.8448	0	0	9.77837	4.2757	0.31243	-0.812054	4.36773	2.2775	0.105912	-0.310703	7.04805	-4.6537	-0.261042	-0.433074	-0.070475	-0.185238	-0.174484	-0.17624	-0.089352	-0.188036	-0.337825	-0.139939	0.026326	-0.084954	-0.084823	-0.424647	-0.221947	-0.266898	-0.098456	-0.434557	-0.193639	-0.257618	-0.256214	-0.487906	
0.87703	12.8174	0	0	11.1151	5.01628	0.321313	-0.786407	4.08837	2.1224	0.0998845	-0.274692	6.61463	-4.37049	-0.255183	-0.417156	-0.0659615	-0.181459	-0.165666	-0.160486	-0.085072	-0.181106	-0.316898	-0.131881	0.0275395	-0.077828	-0.0845137	-0.411199	-0.218288	-0.264924	-0.101302	-0.426515	-0.184376	-0.26367	-0.254562	-0.475634	
0.878062	12.7945	0	0	12.4519	5.75685	0.330195	-0.76076	3.80902	1.96731	0.093857	-0.238681	6.1812	-4.08728	-0.249324	-0.401238	-0.061448	-0.177681	-0.156848	-0.144733	-0.080792	-0.174177	-0.295972	-0.123823	0.028753	-0.070702	-0.0842045	-0.397752	-0.21463	-0.26295	-0.104147	-0.418473	-0.175114	-0.269722	-0.25291	-0.463363	
0.878096	12.7731	0	0	13.7887	6.49742	0.339078	-0.735113	3.52966	1.81222	0.0878295	-0.202671	5.74778	-3.80407	-0.243464	-0.385321	-0.0569345	-0.173902	-0.148029	-0.128979	-0.076512	-0.167247	-0.275045	-0.115764	0.0299665	-0.063576	-0.0838952	-0.384304	-0.210971	-0.260976	-0.106993	-0.410431	-0.165852	-0.275775	-0.251258	-0.451091	
0.877082	12.7594	0	0	15.1255	7.238	0.347961	-0.709466	3.2503	1.65713	0.081802	-0.16666	5.31435	-3.52086	-0.237605	-0.369403	-0.052421	-0.170123	-0.139211	-0.113225	-0.072232	-0.160317	-0.254119	-0.107706	0.03118	-0.05645	-0.083586	-0.370857	-0.207312	-0.259002	-0.109838	-0.402389	-0.156589	-0.281827	-0.249606	-0.438819	
0.874974	12.7487	0	0	16.5065	7.87981	0.351006	-0.66718	3.02978	1.55279	0.0974715	-0.153898	4.99347	-3.30953	-0.237411	-0.353692	-0.049455	-0.161957	-0.139883	-0.086877	-0.0697445	-0.148302	-0.242603	-0.0840647	0.027531	-0.0461375	-0.078258	-0.357238	-0.210328	-0.250479	-0.10209	-0.39507	-0.158209	-0.277248	-0.255763	-0.421419	
0.871725	12.7411	0	0	17.8875	8.52161	0.35405	-0.624894	2.80926	1.44845	0.113141	-0.141135	4.67258	-3.09821	-0.237216	-0.337981	-0.046489	-0.153791	-0.140555	-0.060529	-0.067257	-0.136288	-0.231088	-0.0604235	0.023882	-0.035825	-0.07293	-0.343619	-0.213343	-0.241956	-0.0943415	-0.387751	-0.15983	-0.27267	-0.26192	-0.404019	
0.867482	12.7289	0	0	19.2685	9.16342	0.357094	-0.582608	2.58875	1.34411	0.12881	-0.128373	4.3517	-2.88688	-0.237022	-0.32227	-0.043523	-0.145625	-0.141227	-0.034181	-0.0647695	-0.124273	-0.219572	-0.0367823	0.020233	-0.0255125	-0.067602	-0.33	-0.216359	-0.233433	-0.0865932	-0.380432	-0.16145	-0.268091	-0.268077	-0.386619	
0.862667	12.7197	0	0	20.6496	9.80523	0.360139	-0.540322	2.36823	1.23977	0.14448	-0.115611	4.03081	-2.67555	-0.236828	-0.306559	-0.040557	-0.137459	-0.141899	-0.007833	-0.062282	-0.112258	-0.208056	-0.013141	0.016584	-0.0152	-0.062274	-0.316381	-0.219375	-0.22491	-0.078845	-0.373113	-0.16307	-0.263512	-0.274234	-0.369219	
0.857728	12.7045	0	0	19.4927	9.51144	0.368952	-0.539732	2.21614	1.15993	0.151407	-0.0970587	3.78649	-2.51591	-0.238653	-0.301401	-0.0382978	-0.135564	-0.138374	-0.0014785	-0.061489	-0.10497	-0.199699	-0.0029655	0.0205323	-0.0157963	-0.0638502	-0.311926	-0.220381	-0.222067	-0.0869975	-0.364687	-0.170712	-0.262039	-0.271154	-0.377923	
0.853112	12.6907	0	0	18.3359	9.21765	0.377765	-0.539143	2.06406	1.08009	0.158334	-0.0785065	3.54217	-2.35626	-0.240478	-0.296243	-0.0360385	-0.133668	-0.134849	0.004876	-0.060696	-0.0976815	-0.191342	0.00721	0.0244805	-0.0163925	-0.0654265	-0.30747	-0.221386	-0.219224	-0.09515	-0.356261	-0.178354	-0.260565	-0.268074	-0.386628	
0.849264	12.6816	0	0	17.1791	8.92386	0.386579	-0.538554	1.91197	1.00025	0.16526	-0.0599543	3.29785	-2.19662	-0.242303	-0.291086	-0.0337792	-0.131773	-0.131324	0.0112305	-0.059903	-0.0903932	-0.182986	0.0173855	0.0284288	-0.0169888	-0.0670027	-0.303015	-0.222392	-0.216382	-0.103302	-0.347835	-0.185997	-0.259092	-0.264994	-0.395332	
0.846631	12.6709	0	0	16.0223	8.63007	0.395392	-0.537964	1.75988	0.920413	0.172187	-0.041402	3.05353	-2.03697	-0.244128	-0.285928	-0.03152	-0.129878	-0.127799	0.017585	-0.05911	-0.083105	-0.174629	0.027561	0.032377	-0.017585	-0.068579	-0.29856	-0.223398	-0.213539	-0.111455	-0.339409	-0.193639	-0.257618	-0.261914	-0.404036	
0.845636	12.6663	0	0	14.9484	8.12356	0.398361	-0.520824	1.64585	0.863515	0.174585	-0.0290842	2.87054	-1.9174	-0.245954	-0.280767	-0.0300365	-0.125787	-0.116749	0.019034	-0.0583188	-0.0758068	-0.170014	0.0370795	0.0314637	-0.0150043	-0.0651275	-0.29396	-0.219739	-0.211557	-0.112882	-0.335376	-0.190402	-0.266768	-0.25411	-0.409135	
0.846307	12.6495	0	0	13.8746	7.61704	0.401331	-0.503683	1.53182	0.806617	0.176982	-0.0167665	2.68755	-1.79784	-0.247781	-0.275606	-0.028553	-0.121696	-0.1057	0.020483	-0.0575275	-0.0685085	-0.165398	0.046598	0.0305505	-0.0124235	-0.061676	-0.28936	-0.216081	-0.209574	-0.114309	-0.331344	-0.187164	-0.275918	-0.246306	-0.414234	
0.848357	12.645	0	0	12.8007	7.11053	0.4043	-0.486543	1.41779	0.74972	0.179379	-0.00444875	2.50456	-1.67827	-0.249607	-0.270446	-0.0270695	-0.117606	-0.0946505	0.021932	-0.0567363	-0.0612103	-0.160782	0.0561165	0.0296373	-0.00984275	-0.0582245	-0.28476	-0.212422	-0.207591	-0.115736	-0.327311	-0.183926	-0.285068	-0.238503	-0.419333	
0.851489	12.6205	0	0	11.7269	6.60402	0.407269	-0.469403	1.30377	0.692822	0.181777	0.007869	2.32158	-1.5587	-0.251433	-0.265285	-0.025586	-0.113515	-0.083601	0.023381	-0.055945	-0.053912	-0.156167	0.065635	0.028724	-0.007262	-0.054773	-0.28016	-0.208763	-0.205609	-0.117163	-0.323278	-0.180689	-0.294218	-0.230699	-0.424432	
0.855409	12.5961	0	0	11.0551	6.28471	0.413126	-0.485957	1.21408	0.64381	0.186306	0.0141812	2.18375	-1.46864	-0.253441	-0.275868	-0.0240332	-0.117903	-0.09189	0.0222945	-0.0524545	-0.0542375	-0.15097	0.0622392	0.025689	-0.0092465	-0.0582245	-0.28476	-0.210777	-0.199917	-0.121448	-0.311169	-0.19156	-0.283598	-0.241583	-0.410629	
0.859819	12.5656	0	0	10.3833	5.9654	0.418984	-0.50251	1.12439	0.594798	0.190835	0.0204935	2.04591	-1.37858	-0.25545	-0.286451	-0.0224805	-0.122292	-0.100179	0.021208	-0.048964	-0.054563	-0.145773	0.0588435	0.022654	-0.011231	-0.061676	-0.28936	-0.212791	-0.194225	-0.125732	-0.29906	-0.202431	-0.272979	-0.252466	-0.396825	
0.864424	12.5488	0	0	9.71148	5.64609	0.424841	-0.519064	1.0347	0.545785	0.195365	0.0268058	1.90808	-1.28852	-0.257459	-0.297035	-0.0209278	-0.126681	-0.108468	0.0201215	-0.0454735	-0.0548885	-0.140576	0.0554478	0.019619	-0.0132155	-0.0651275	-0.29396	-0.214805	-0.188534	-0.130017	-0.28695	-0.213301	-0.26236	-0.26335	-0.383022	
0.86894	12.5351	0	0	9.03968	5.32678	0.430698	-0.535617	0.945015	0.496773	0.199894	0.033118	1.77025	-1.19846	-0.259467	-0.307618	-0.019375	-0.131069	-0.116757	0.019035	-0.041983	-0.055214	-0.135379	0.052052	0.016584	-0.0152	-0.068579	-0.29856	-0.216819	-0.182842	-0.134302	-0.274841	-0.224172	-0.25174	-0.274234	-0.369219	
0.873231	12.5473	0	0	8.69303	5.06222	0.439538	-0.535033	0.878515	0.455331	0.202288	0.045485	1.65835	-1.12368	-0.257644	-0.31277	-0.0201512	-0.128875	-0.120514	0.0214902	-0.0437835	-0.0501255	-0.136823	0.0561328	0.016584	-0.0152	-0.0670027	-0.303015	-0.216819	-0.182842	-0.127576	-0.279236	-0.220936	-0.260885	-0.28049	-0.368478	
0.877255	12.5839	0	0	8.34638	4.79765	0.448378	-0.534449	0.812014	0.413889	0.204682	0.057852	1.54644	-1.0489	-0.255822	-0.317921	-0.0209275	-0.126681	-0.124272	0.0239455	-0.045584	-0.045037	-0.138267	0.0602135	0.016584	-0.0152	-0.0654265	-0.30747	-0.216819	-0.182842	-0.120849	-0.283631	-0.2177	-0.270031	-0.286747	-0.367736	
0.880976	12.6266	0	0	7.99974	4.53309	0.457218	-0.533865	0.745513	0.372447	0.207076	0.070219	1.43453	-0.974123	-0.253999	-0.323073	-0.0217038	-0.124487	-0.128029	0.0264008	-0.0473845	-0.0399485	-0.13971	0.0642942	0.016584	-0.0152	-0.0638502	-0.311926	-0.216819	-0.182842	-0.114123	-0.288026	-0.214464	-0.279177	-0.293003	-0.366995	
0.884355	12.677	0	0	7.65309	4.26852	0.466058	-0.533281	0.679013	0.331005	0.20947	0.082586	1.32263	-0.899346	-0.252176	-0.328225	-0.02248	-0.122293	-0.131787	0.028856	-0.049185	-0.03486	-0.141154	0.068375	0.016584	-0.0152	-0.062274	-0.316381	-0.216819	-0.182842	-0.107397	-0.292421	-0.211228	-0.288322	-0.299259	-0.366253	
0.887354	12.7182	0	0	7.2292	4.04755	0.448391	-0.534452	0.634868	0.29686	0.20947	0.082586	1.24198	-0.848303	-0.265302	-0.323607	-0.02474	-0.124189	-0.129793	0.0232215	-0.0500857	-0.0323145	-0.144044	0.076542	0.0108128	-0.0094455	-0.0572435	-0.316243	-0.216819	-0.182842	-0.104956	-0.284694	-0.211228	-0.288322	-0.285199	-0.372093	
0.889937	12.7502	0	0	6.8053	3.82658	0.430725	-0.535623	0.590724	0.262716	0.20947	0.082586	1.16133	-0.79726	-0.278427	-0.318989	-0.027	-0.126085	-0.1278	0.017587	-0.0509865	-0.029769	-0.146934	0.084709	0.0050415	-0.003691	-0.052213	-0.316105	-0.216819	-0.182842	-0.102516	-0.276967	-0.211228	-0.288322	-0.271139	-0.377934	
0.892067	12.7655	0	0	6.38141	3.60561	0.413058	-0.536793	0.546579	0.228571	0.20947	0.082586	1.08068	-0.746218	-0.291553	-0.31437	-0.02926	-0.127982	-0.125806	0.0119525	-0.0518873	-0.0272235	-0.149824	0.092876	-0.00072975	0.0020635	-0.0471825	-0.315966	-0.216819	-0.182842	-0.100075	-0.269239	-0.211228	-0.288322	-0.257078	-0.383775	
0.893776	12.7686	0	0	5.95752	3.38464	0.395392	-0.537964	0.502435	0.194427	0.20947	0.082586	1.00003	-0.695175	-0.304679	-0.309752	-0.03152	-0.129878	-0.123812	0.006318	-0.052788	-0.024678	-0.152714	0.101043	-0.006501	0.007818	-0.042152	-0.315828	-0.216819	-0.182842	-0.097634	-0.261512	-0.211228	-0.288322	-0.243018	-0.389615	
0.895156	12.7609	0	0	5.57391	3.17632	0.412984	-0.56215	0.472145	0.167354	0.214003	0.0889273	0.947528	-0.660867	-0.304679	-0.309752	-0.0307443	-0.132071	-0.12933	0.00559425	-0.0518873	-0.0272235	-0.144624	0.089478	-0.00072975	0.0020635	-0.0487588	-0.311511	-0.212792	-0.194222	-0.096203	-0.265556	-0.22647	-0.285386	-0.238399	-0.402668	
0.8963	12.738	0	0	5.19029	2.968	0.430576	-0.586336	0.441854	0.140281	0.218536	0.0952685	0.895023	-0.626559	-0.304679	-0.309752	-0.0299685	-0.134264	-0.134847	0.0048705	-0.0509865	-0.029769	-0.136534	0.077913	0.0050415	-0.003691	-0.0553655	-0.307194	-0.208765	-0.205603	-0.094772	-0.269599	-0.241713	-0.28245	-0.233781	-0.415721	
0.897302	12.7014	0	0	4.80668	2.75967	0.448168	-0.610522	0.411564	0.113207	0.223069	0.10161	0.842517	-0.592251	-0.304679	-0.309752	-0.0291927	-0.136457	-0.140365	0.00414675	-0.0500857	-0.0323145	-0.128444	0.066348	0.0108128	-0.0094455	-0.0619722	-0.302877	-0.204739	-0.216983	-0.093341	-0.273643	-0.256956	-0.279514	-0.229162	-0.428775	
0.898255	12.6633	0	0	4.42307	2.55135	0.46576	-0.634708	0.381274	0.086134	0.227602	0.107951	0.790012	-0.557943	-0.304679	-0.309752	-0.028417	-0.13865	-0.145882	0.003423	-0.049185	-0.03486	-0.120354	0.054783	0.016584	-0.0152	-0.068579	-0.29856	-0.200712	-0.228363	-0.09191	-0.277687	-0.272198	-0.276578	-0.224543	-0.441828	
0.899255	12.6205	0	0	4.13426	2.37971	0.456995	-0.609935	0.346401	0.0726895	0.229992	0.120368	0.745073	-0.526924	-0.310147	-0.294297	-0.0307453	-0.13207	-0.143356	0.0125997	-0.0483965	-0.0275443	-0.120933	0.0677245	0.016878	-0.005469	-0.0616737	-0.289354	-0.200712	-0.228363	-0.093768	-0.257799	-0.266198	-0.273475	-0.222892	-0.429523	
0.900393	12.5748	0	0	3.84545	2.20807	0.448229	-0.585163	0.311528	0.059245	0.232383	0.132784	0.700133	-0.495904	-0.315616	-0.278842	-0.0330735	-0.125489	-0.140829	0.0217765	-0.047608	-0.0202285	-0.121512	0.080666	0.017172	0.004262	-0.0547685	-0.280149	-0.200712	-0.228363	-0.095626	-0.237911	-0.260198	-0.270371	-0.221241	-0.417218	
0.901652	12.5366	0	0	3.55665	2.03642	0.439464	-0.56039	0.276656	0.0458005	0.234774	0.145201	0.655194	-0.464885	-0.321084	-0.263386	-0.0354018	-0.118909	-0.138302	0.0309532	-0.0468195	-0.0129128	-0.122091	0.0936075	0.017466	0.013993	-0.0478633	-0.270943	-0.200712	-0.228363	-0.097484	-0.218023	-0.254198	-0.267267	-0.21959	-0.404914	
0.902844	12.5092	0	0	3.26784	1.86478	0.430698	-0.535617	0.241783	0.032356	0.237164	0.157617	0.610255	-0.433866	-0.326553	-0.247931	-0.03773	-0.112328	-0.135776	0.04013	-0.046031	-0.005597	-0.12267	0.106549	0.01776	0.023724	-0.040958	-0.261737	-0.200712	-0.228363	-0.099342	-0.198135	-0.248198	-0.264164	-0.217939	-0.392609	
0.903765	12.4832	0	0	3.04514	1.74468	0.451322	-0.542733	0.222859	0.0189583	0.23955	0.170065	0.578268	-0.412965	-0.320908	-0.247654	-0.0354708	-0.11043	-0.134014	0.0433147	-0.0443417	-0.0008215	-0.116597	0.112019	0.0198803	0.0282992	-0.0375025	-0.257126	-0.206383	-0.224657	-0.0901587	-0.194779	-0.240573	-0.265632	-0.213205	-0.389	
0.904212	12.4664	0	0	2.82244	1.62458	0.471945	-0.549848	0.203936	0.0055605	0.241936	0.182513	0.546281	-0.392064	-0.315262	-0.247378	-0.0332115	-0.108532	-0.132252	0.0464995	-0.0426525	0.003954	-0.110525	0.117488	0.0220005	0.0328745	-0.034047	-0.252514	-0.212055	-0.220951	-0.0809755	-0.191423	-0.232949	-0.2671	-0.208472	-0.385392	
0.903981	12.4435	0	0	2.59974	1.50448	0.492568	-0.556963	0.185012	-0.00783725	0.244323	0.194961	0.514295	-0.371164	-0.309616	-0.247102	-0.0309523	-0.106633	-0.130491	0.0496842	-0.0409633	0.0087295	-0.104453	0.122958	0.0241207	0.0374498	-0.0305915	-0.247903	-0.217727	-0.217245	-0.0717923	-0.188068	-0.225324	-0.268567	-0.203738	-0.381783	
0.902869	12.4268	0	0	2.37705	1.38438	0.513192	-0.564079	0.166089	-0.021235	0.246709	0.207409	0.482308	-0.350263	-0.303971	-0.246825	-0.028693	-0.104735	-0.128729	0.052869	-0.039274	0.013505	-0.09838	0.128427	0.026241	0.042025	-0.027136	-0.243292	-0.223398	-0.213539	-0.062609	-0.184712	-0.217699	-0.270035	-0.199005	-0.378175	
0.900673	12.4023	0	0	2.23016	1.28534	0.516193	-0.546925	0.152723	-0.0279128	0.253629	0.226296	0.461615	-0.335086	-0.298151	-0.230767	-0.0234658	-0.0946353	-0.119914	0.0688295	-0.0377043	0.0281812	-0.0920317	0.155832	0.0277322	0.058964	-0.0215203	-0.215965	-0.216078	-0.209573	-0.059169	-0.165079	-0.213304	-0.262352	-0.195715	-0.353453	
0.897311	12.3901	0	0	2.08328	1.18629	0.519195	-0.52977	0.139356	-0.0345905	0.260548	0.245183	0.440921	-0.319909	-0.292331	-0.214709	-0.0182385	-0.0845355	-0.1111	0.08479	-0.0361345	0.0428575	-0.0856835	0.183236	0.0292235	0.075903	-0.0159045	-0.188637	-0.208758	-0.205607	-0.055729	-0.145446	-0.208909	-0.254669	-0.192425	-0.32873	
0.893046	12.381	0	0	1.93639	1.08725	0.522197	-0.512616	0.12599	-0.0412683	0.267467	0.264071	0.420228	-0.304733	-0.286512	-0.198652	-0.0130112	-0.0744357	-0.102285	0.10075	-0.0345647	0.0575337	-0.0793352	0.210641	0.0307147	0.092842	-0.0102887	-0.161309	-0.201438	-0.201641	-0.052289	-0.125814	-0.204515	-0.246986	-0.189136	-0.304007	
0.888199	12.3795	0	0	1.7895	0.988201	0.525198	-0.495461	0.112624	-0.047946	0.274387	0.282958	0.399535	-0.289556	-0.280692	-0.182594	-0.007784	-0.064336	-0.09347	0.116711	-0.032995	0.07221	-0.072987	0.238045	0.032206	0.109781	-0.004673	-0.133982	-0.194118	-0.197675	-0.048849	-0.106181	-0.20012	-0.239303	-0.185846	-0.279285	
0.883092	12.4023	0	0	1.66684	0.924486	0.525198	-0.495461	0.0992905	-0.0546105	0.276765	0.295488	0.383623	-0.279159	-0.280533	-0.166768	-0.0078585	-0.0558265	-0.0929502	0.131616	-0.0270262	0.0840482	-0.0765067	0.259346	0.0404033	0.11839	-0.00758225	-0.111338	-0.194489	-0.184288	-0.0512075	-0.070115	-0.192949	-0.219298	-0.187245	-0.241249	
0.878047	12.4481	0	0	1.54418	0.860771	0.525198	-0.495461	0.085957	-0.061275	0.279143	0.308017	0.367711	-0.268761	-0.280375	-0.150942	-0.007933	-0.047317	-0.0924305	0.146522	-0.0210575	0.0958865	-0.0800265	0.280647	0.0486005	0.126999	-0.0104915	-0.088695	-0.19486	-0.170901	-0.053566	-0.034049	-0.185777	-0.199293	-0.188644	-0.203213	
0.873385	12.5122	0	0	1.42152	0.797056	0.525198	-0.495461	0.0726235	-0.0679395	0.281522	0.320547	0.3518	-0.258364	-0.280216	-0.135115	-0.0080075	-0.0388075	-0.0919107	0.161428	-0.0150887	0.107725	-0.0835463	0.301948	0.0567977	0.135607	-0.0134008	-0.0660515	-0.19523	-0.157515	-0.0559245	0.002017	-0.178606	-0.179288	-0.190044	-0.165178	
0.869427	12.587	0	0	1.29886	0.733341	0.525198	-0.495461	0.05929	-0.074604	0.2839	0.333077	0.335888	-0.247967	-0.280058	-0.119289	-0.008082	-0.030298	-0.091391	0.176333	-0.00912	0.119563	-0.087066	0.323249	0.064995	0.144216	-0.01631	-0.043408	-0.195601	-0.144128	-0.058283	0.038083	-0.171435	-0.159283	-0.191443	-0.127142	
0.866413	12.6587	0	0	1.21116	0.69035	0.537077	-0.477652	0.0412835	-0.0679562	0.297532	0.352424	0.326419	-0.238468	-0.268578	-0.102826	-0.0013715	-0.0160327	-0.0835792	0.195254	-0.00769375	0.144283	-0.0769868	0.351636	0.0685957	0.16587	-0.0040825	-0.0201658	-0.193328	-0.125849	-0.0510058	0.0617055	-0.170295	-0.142338	-0.189776	-0.097709	
0.864371	12.7258	0	0	1.12345	0.647359	0.548956	-0.459843	0.023277	-0.0613085	0.311164	0.37177	0.316949	-0.228968	-0.257098	-0.086363	0.005339	-0.0017675	-0.0757675	0.214175	-0.0062675	0.169002	-0.0669075	0.380023	0.0721965	0.187523	0.008145	0.0030765	-0.191055	-0.107571	-0.0437285	0.085328	-0.169154	-0.125392	-0.188109	-0.068276	
0.8633	12.7731	0	0	1.03575	0.604368	0.560835	-0.442034	0.0052705	-0.0546608	0.324797	0.391117	0.30748	-0.219469	-0.245618	-0.0699	0.0120495	0.0124978	-0.0679558	0.233096	-0.00484125	0.193722	-0.0568282	0.40841	0.0757972	0.209177	0.0203725	0.0263188	-0.188783	-0.0892918	-0.0364512	0.108951	-0.168014	-0.108447	-0.186442	-0.038843	
0.863198	12.8128	0	0	0.948044	0.561377	0.572714	-0.424225	-0.012736	-0.048013	0.338429	0.410463	0.298011	-0.20997	-0.234138	-0.053437	0.01876	0.026763	-0.060144	0.252017	-0.003415	0.218442	-0.046749	0.436797	0.079398	0.23083	0.0326	0.049561	-0.18651	-0.071013	-0.029174	0.132573	-0.166874	-0.091501	-0.184775	-0.00941	
0.864062	12.8326	0	0	0.919745	0.552767	0.572714	-0.424225	-0.018193	-0.0546718	0.331907	0.428896	0.288548	-0.200473	-0.235843	-0.0322887	0.0185937	0.0438702	-0.0626705	0.275583	-0.00201275	0.243274	-0.0314113	0.461927	0.0780908	0.255775	0.0298832	0.0862055	-0.179566	-0.0535238	-0.0248245	0.164575	-0.159713	-0.0713363	-0.170513	0.0187613	
0.865892	12.8433	0	0	0.891446	0.544156	0.572714	-0.424225	-0.02365	-0.0613305	0.325385	0.447329	0.279086	-0.190976	-0.237547	-0.0111405	0.0184275	0.0609775	-0.065197	0.299148	-0.0006105	0.268105	-0.0160735	0.487057	0.0767835	0.28072	0.0271665	0.12285	-0.172621	-0.0360345	-0.020475	0.196576	-0.152552	-0.0511715	-0.156252	0.0469325	
0.868684	12.8342	0	0	0.863147	0.535546	0.572714	-0.424225	-0.029107	-0.0679893	0.318863	0.465761	0.269624	-0.18148	-0.239252	0.0100077	0.0182612	0.0780847	-0.0677235	0.322713	0.00079175	0.292937	-0.00073575	0.512186	0.0754762	0.305664	0.0244497	0.159495	-0.165677	-0.0185452	-0.0161255	0.228578	-0.145391	-0.0310067	-0.141991	0.0751037	
0.872385	12.8281	0	0	0.834848	0.526935	0.572714	-0.424225	-0.034564	-0.074648	0.312341	0.484194	0.260161	-0.171983	-0.240956	0.031156	0.018095	0.095192	-0.07025	0.346279	0.002194	0.317769	0.014602	0.537316	0.074169	0.330609	0.021733	0.196139	-0.158732	-0.001056	-0.011776	0.26058	-0.13823	-0.010842	-0.127729	0.103275	
0.876829	12.8082	0	0	0.857099	0.530452	0.566813	-0.407548	-0.044715	-0.0680152	0.321427	0.497197	0.249942	-0.160332	-0.235151	0.047456	0.0209655	0.112064	-0.0669905	0.361731	0.011516	0.339515	0.0171048	0.564576	0.0795908	0.347206	0.0254172	0.214739	-0.155459	0.0144778	-0.00694	0.2765	-0.13383	-0.00304175	-0.127706	0.120369	
0.881836	12.7716	0	0	0.87935	0.533968	0.560912	-0.390871	-0.054866	-0.0613825	0.330514	0.5102	0.239723	-0.148681	-0.229346	0.063756	0.023836	0.128935	-0.063731	0.377183	0.020838	0.36126	0.0196075	0.591835	0.0850125	0.363804	0.0291015	0.233339	-0.152186	0.0300115	-0.002104	0.292421	-0.129431	0.0047585	-0.127683	0.137463	
0.887228	12.735	0	0	0.901601	0.537484	0.555011	-0.374194	-0.065017	-0.0547497	0.339601	0.523202	0.229503	-0.137031	-0.223541	0.080056	0.0267065	0.145807	-0.0604715	0.392635	0.03016	0.383006	0.0221102	0.619095	0.0904342	0.380402	0.0327858	0.251938	-0.148912	0.0455453	0.002732	0.308341	-0.125031	0.0125587	-0.12766	0.154557	
0.892824	12.6984	0	0	0.923852	0.541001	0.54911	-0.357517	-0.075168	-0.048117	0.348687	0.536205	0.219284	-0.12538	-0.217736	0.096356	0.029577	0.162679	-0.057212	0.408087	0.039482	0.404752	0.024613	0.646355	0.095856	0.396999	0.03647	0.270538	-0.145639	0.061079	0.007568	0.324262	-0.120631	0.020359	-0.127637	0.171651	
0.898447	12.6541	0	0	0.968617	0.548005	0.549123	-0.331811	-0.075168	-0.048117	0.348861	0.555084	0.216994	-0.118906	-0.21565	0.123222	0.0362808	0.177097	-0.0511815	0.42398	0.0417665	0.42721	0.0270887	0.673755	0.0963675	0.416864	0.0452208	0.28941	-0.141351	0.073778	0.0162885	0.344087	-0.119514	0.0374575	-0.121296	0.188094	
0.903915	12.6083	0	0	1.01338	0.55501	0.549137	-0.306105	-0.075168	-0.048117	0.349035	0.573962	0.214703	-0.112432	-0.213564	0.150088	0.0429845	0.191516	-0.045151	0.439874	0.044051	0.449667	0.0295645	0.701154	0.096879	0.436729	0.0539715	0.308281	-0.137063	0.086477	0.025009	0.363912	-0.118397	0.054556	-0.114955	0.204538	
0.909075	12.5717	0	0	1.05815	0.562015	0.54915	-0.2804	-0.075168	-0.048117	0.34921	0.59284	0.212413	-0.105959	-0.211477	0.176954	0.0496882	0.205934	-0.0391205	0.455767	0.0463355	0.472125	0.0320402	0.728553	0.0973905	0.456594	0.0627222	0.327153	-0.132775	0.099176	0.0337295	0.383738	-0.117279	0.0716545	-0.108614	0.220981	
0.913879	12.5275	0	0	1.10291	0.569019	0.549164	-0.254694	-0.075168	-0.048117	0.349384	0.611719	0.210122	-0.099485	-0.209391	0.20382	0.056392	0.220352	-0.03309	0.47166	0.04862	0.494582	0.034516	0.755953	0.097902	0.476459	0.071473	0.346025	-0.128487	0.111875	0.04245	0.403563	-0.116162	0.088753	-0.102273	0.237425	
0.918307	12.4878	0	0	1.08049	0.565522	0.558063	-0.254065	-0.087659	-0.0348448	0.358478	0.624822	0.204631	-0.0925775	-0.205564	0.209406	0.054717	0.233436	-0.031328	0.474924	0.053656	0.509309	0.0391325	0.765872	0.10213	0.485845	0.0666102	0.359768	-0.129507	0.114759	0.0341505	0.412183	-0.125485	0.0948448	-0.102273	0.237425	
0.92234	12.4557	0	0	1.05806	0.562025	0.566963	-0.253436	-0.10015	-0.0215725	0.367571	0.637925	0.199141	-0.08567	-0.201736	0.214992	0.053042	0.246521	-0.029566	0.478189	0.058692	0.524037	0.043749	0.775792	0.106358	0.49523	0.0617475	0.373511	-0.130528	0.117643	0.025851	0.420803	-0.134808	0.100936	-0.102273	0.237425	
0.925956	12.4207	0	0	1.03563	0.558527	0.575862	-0.252808	-0.112641	-0.00830025	0.376665	0.651029	0.193651	-0.0787625	-0.197908	0.220578	0.051367	0.259605	-0.027804	0.481453	0.063728	0.538764	0.0483655	0.785712	0.110587	0.504615	0.0568847	0.387253	-0.131548	0.120527	0.0175515	0.429423	-0.144131	0.107028	-0.102273	0.237425	
0.929136	12.3932	0	0	1.01321	0.55503	0.584761	-0.252179	-0.125132	0.004972	0.385759	0.664132	0.18816	-0.071855	-0.194081	0.226164	0.049692	0.272689	-0.026042	0.484717	0.068764	0.553492	0.052982	0.795631	0.114815	0.514001	0.052022	0.400996	-0.132569	0.123411	0.009252	0.438043	-0.153454	0.11312	-0.102273	0.237425	
0.93186	12.3672	0	0	0.964672	0.537073	0.581772	-0.217916	-0.127486	0.0116242	0.381509	0.695576	0.185867	-0.0653735	-0.197717	0.252858	0.0533322	0.287475	-0.0227917	0.500283	0.0710223	0.576114	0.0516238	0.822464	0.111324	0.534545	0.0506005	0.41957	-0.135632	0.132069	0.0155458	0.449939	-0.155098	0.117765	-0.103858	0.259109	
0.934109	12.3474	0	0	0.916138	0.519116	0.578783	-0.183653	-0.129839	0.0182765	0.377258	0.727021	0.183574	-0.058892	-0.201354	0.279552	0.0569725	0.302261	-0.0195415	0.515849	0.0732805	0.598735	0.0502655	0.849297	0.107832	0.55509	0.049179	0.438145	-0.138696	0.140727	0.0218395	0.461834	-0.156742	0.122411	-0.105442	0.280794	
0.935878	12.3276	0	0	0.867604	0.501158	0.575794	-0.149391	-0.132193	0.0249287	0.373007	0.758466	0.18128	-0.0524105	-0.20499	0.306246	0.0606128	0.317046	-0.0162913	0.531414	0.0755388	0.621357	0.0489072	0.876129	0.104341	0.575634	0.0477575	0.456719	-0.14176	0.149385	0.0281332	0.473729	-0.158385	0.127056	-0.107026	0.302478	
0.937177	12.3077	0	0	0.81907	0.483201	0.572805	-0.115128	-0.134547	0.031581	0.368757	0.78991	0.178987	-0.045929	-0.208626	0.33294	0.064253	0.331832	-0.013041	0.54698	0.077797	0.643979	0.047549	0.902962	0.10085	0.596178	0.046336	0.475293	-0.144823	0.158043	0.034427	0.485625	-0.160029	0.131701	-0.108611	0.324163	
0.938016	12.2864	0	0	0.770961	0.465322	0.569823	-0.106699	-0.134547	0.031581	0.371092	0.802763	0.177457	-0.0416052	-0.202932	0.333281	0.0602958	0.343016	-0.01684	0.549462	0.0757638	0.659404	0.055153	0.904495	0.10296	0.600897	0.046336	0.475293	-0.148912	0.1696	0.025563	0.510676	-0.174278	0.151737	-0.116588	0.363929	
0.938405	12.265	0	0	0.722853	0.447444	0.56684	-0.09827	-0.134547	0.031581	0.373428	0.815616	0.175927	-0.0372815	-0.197238	0.333623	0.0563385	0.354201	-0.020639	0.551945	0.0737305	0.674829	0.062757	0.906029	0.10507	0.605617	0.046336	0.475293	-0.153002	0.181156	0.016699	0.535726	-0.188527	0.171772	-0.124564	0.403694	
0.938354	12.2513	0	0	0.674744	0.429566	0.563858	-0.089841	-0.134547	0.031581	0.375763	0.828468	0.174397	-0.0329578	-0.191545	0.333964	0.0523813	0.365385	-0.024438	0.554427	0.0716973	0.690253	0.070361	0.907562	0.10718	0.610337	0.046336	0.475293	-0.157091	0.192713	0.007835	0.560777	-0.202776	0.191808	-0.132541	0.44346	
0.937873	12.2284	0	0	0.626635	0.411687	0.560875	-0.081412	-0.134547	0.031581	0.378098	0.841321	0.172867	-0.028634	-0.185851	0.334305	0.048424	0.376569	-0.028237	0.556909	0.069664	0.705678	0.077965	0.909095	0.10929	0.615056	0.046336	0.475293	-0.16118	0.20427	-0.001029	0.585828	-0.217025	0.211844	-0.140518	0.483226	
0.936974	12.2086	0	0	0.584856	0.3989	0.569732	-0.0547065	-0.13926	0.0449003	0.384972	0.860861	0.173001	-0.0204045	-0.183821	0.361476	0.0481963	0.393947	-0.0277785	0.572125	0.072819	0.725826	0.0765765	0.936071	0.107651	0.630378	0.046529	0.489316	-0.158533	0.209212	-0.00159575	0.602289	-0.211007	0.215071	-0.135823	0.50445	
0.935651	12.204	0	0	0.543077	0.386113	0.578589	-0.028001	-0.143973	0.0582195	0.391845	0.880401	0.173135	-0.012175	-0.181791	0.388647	0.0479685	0.411324	-0.02732	0.587341	0.075974	0.745974	0.075188	0.963047	0.106012	0.6457	0.046722	0.503339	-0.155887	0.214154	-0.0021625	0.61875	-0.204989	0.218299	-0.131129	0.525674	
0.933856	12.1918	0	0	0.501299	0.373327	0.587447	-0.0012955	-0.148686	0.0715387	0.398718	0.899941	0.17327	-0.0039455	-0.179762	0.415817	0.0477407	0.428702	-0.0268615	0.602558	0.079129	0.766122	0.0737995	0.990022	0.104372	0.661022	0.046915	0.517361	-0.153241	0.219096	-0.00272925	0.635211	-0.198972	0.221526	-0.126434	0.546897	
0.931527	12.1872	0	0	0.45952	0.36054	0.596304	0.02541	-0.153399	0.084858	0.405592	0.919481	0.173404	0.004284	-0.177732	0.442988	0.047513	0.44608	-0.026403	0.617774	0.082284	0.78627	0.072411	1.017	0.102733	0.676344	0.047108	0.531384	-0.150594	0.224038	-0.003296	0.651672	-0.192954	0.224753	-0.121739	0.568121	
0.9286	12.1963	0	0	0.425961	0.347032	0.593304	0.0338872	-0.158119	0.0981972	0.398937	0.938289	0.173404	0.004284	-0.17961	0.448296	0.0473945	0.454788	-0.0312252	0.623144	0.0828255	0.804141	0.077814	1.03636	0.0971002	0.692263	0.0405825	0.549826	-0.155718	0.238519	-0.00387475	0.668178	-0.18858	0.232648	-0.125093	0.612156	
0.925014	12.204	0	0	0.392401	0.333524	0.590305	0.0423645	-0.162838	0.111537	0.392282	0.957097	0.173404	0.004284	-0.181488	0.453604	0.047276	0.463496	-0.0360475	0.628515	0.083367	0.822013	0.083217	1.05572	0.0914675	0.708182	0.034057	0.568268	-0.160842	0.253001	-0.0044535	0.684685	-0.184206	0.240543	-0.128447	0.656191	
0.920708	12.2314	0	0	0.358842	0.320016	0.587306	0.0508417	-0.167558	0.124876	0.385627	0.975905	0.173404	0.004284	-0.183367	0.458912	0.0471575	0.472205	-0.0408698	0.633886	0.0839085	0.839884	0.08862	1.07508	0.0858348	0.724101	0.0275315	0.58671	-0.165966	0.267482	-0.00503225	0.701191	-0.179832	0.248438	-0.131802	0.700226	
0.915619	12.2574	0	0	0.325283	0.306508	0.584306	0.059319	-0.172278	0.138215	0.378972	0.994713	0.173404	0.004284	-0.185245	0.46422	0.047039	0.480913	-0.045692	0.639256	0.08445	0.857755	0.094023	1.09444	0.080202	0.74002	0.021006	0.605152	-0.17109	0.281963	-0.005611	0.717697	-0.175458	0.256333	-0.135156	0.744261	
0.909715	12.2848	0	0	0.305651	0.297281	0.58421	0.0855117	-0.174641	0.144892	0.390275	1.00182	0.171105	0.0107812	-0.17948	0.480893	0.0483852	0.493865	-0.0421783	0.645845	0.0885158	0.875405	0.103237	1.11468	0.089335	0.746313	0.0228133	0.614624	-0.168448	0.286925	-0.00858525	0.726102	-0.186433	0.267092	-0.125667	0.752066	
0.903255	12.3108	0	0	0.286019	0.288053	0.584115	0.111705	-0.177003	0.151569	0.401577	1.00892	0.168806	0.0172785	-0.173715	0.497566	0.0497315	0.506818	-0.0386645	0.652433	0.0925815	0.893056	0.112451	1.13491	0.098468	0.752605	0.0246205	0.624096	-0.165805	0.291887	-0.0115595	0.734508	-0.197407	0.277851	-0.116179	0.75987	
0.896662	12.3291	0	0	0.266388	0.278826	0.58402	0.137897	-0.179366	0.158246	0.41288	1.01603	0.166507	0.0237758	-0.16795	0.514239	0.0510777	0.51977	-0.0351508	0.659022	0.0966472	0.910706	0.121665	1.15515	0.107601	0.758898	0.0264277	0.633568	-0.163163	0.296849	-0.0145337	0.742913	-0.208381	0.288609	-0.10669	0.767675	
0.890362	12.3413	0	0	0.246756	0.269599	0.583924	0.16409	-0.181729	0.164923	0.424183	1.02313	0.164208	0.030273	-0.162185	0.530912	0.052424	0.532722	-0.031637	0.665611	0.100713	0.928356	0.130879	1.17538	0.116734	0.76519	0.028235	0.64304	-0.160521	0.301811	-0.017508	0.751318	-0.219356	0.299368	-0.097202	0.77548	
0.884783	12.3474	0	0	0.279965	0.305391	0.583924	0.16409	-0.184093	0.171605	0.417417	1.02272	0.159479	0.0350287	-0.171659	0.541198	0.0522975	0.541463	-0.0450855	0.678845	0.100292	0.948998	0.134757	1.1992	0.111081	0.781166	0.0233245	0.656918	-0.160962	0.315496	-0.0151245	0.759465	-0.214992	0.307293	-0.0925503	0.797017	
0.880351	12.3322	0	0	0.313173	0.341183	0.583924	0.16409	-0.186457	0.178287	0.410651	1.02231	0.15475	0.0397845	-0.181134	0.551484	0.052171	0.550205	-0.058534	0.69208	0.0998705	0.969641	0.138634	1.22303	0.105428	0.797142	0.018414	0.670797	-0.161404	0.329181	-0.012741	0.767612	-0.210628	0.315217	-0.0878985	0.818555	
0.877492	12.3184	0	0	0.346382	0.376976	0.583924	0.16409	-0.188822	0.18497	0.403885	1.02189	0.150021	0.0445403	-0.190609	0.56177	0.0520445	0.558947	-0.0719825	0.705314	0.0994493	0.990283	0.142512	1.24685	0.099775	0.813118	0.0135035	0.684675	-0.161845	0.342866	-0.0103575	0.775759	-0.206265	0.323142	-0.0832467	0.840093	
0.876592	12.3001	0	0	0.37959	0.412768	0.583924	0.16409	-0.191186	0.191652	0.397119	1.02148	0.145292	0.049296	-0.200083	0.572056	0.051918	0.567688	-0.085431	0.718549	0.099028	1.01093	0.14639	1.27067	0.094122	0.829094	0.008593	0.698553	-0.162286	0.356551	-0.007974	0.783906	-0.201901	0.331066	-0.078595	0.86163	
0.877604	12.2833	0	0	0.42511	0.436524	0.589841	0.173326	-0.193552	0.198339	0.385913	1.03364	0.139798	0.0562192	-0.198155	0.583097	0.047129	0.581223	-0.0798793	0.719371	0.105897	1.02073	0.146426	1.29379	0.0922355	0.834426	0.0069545	0.703184	-0.153913	0.357788	-0.0064845	0.779697	-0.190914	0.320293	-0.0769765	0.857056	
0.880228	12.2574	0	0	0.47063	0.460281	0.595759	0.182563	-0.195918	0.205026	0.374707	1.04579	0.134303	0.0631425	-0.196227	0.594137	0.04234	0.594758	-0.0743275	0.720193	0.112766	1.03054	0.146463	1.31691	0.090349	0.839757	0.005316	0.707815	-0.14554	0.359025	-0.004995	0.775487	-0.179927	0.30952	-0.075358	0.852482	
0.884157	12.2375	0	0	0.51615	0.484037	0.601676	0.191799	-0.198285	0.211713	0.363502	1.05795	0.128809	0.0700658	-0.194298	0.605178	0.037551	0.608292	-0.0687757	0.721015	0.119634	1.04034	0.1465	1.34003	0.0884625	0.845089	0.0036775	0.712445	-0.137167	0.360262	-0.0035055	0.771277	-0.16894	0.298747	-0.0737395	0.847908	
0.889086	12.2116	0	0	0.56167	0.507793	0.607593	0.201035	-0.200651	0.2184	0.352296	1.0701	0.123315	0.076989	-0.19237	0.616219	0.032762	0.621827	-0.063224	0.721837	0.126503	1.05015	0.146536	1.36315	0.086576	0.850421	0.002039	0.717076	-0.128794	0.361499	-0.002016	0.767068	-0.157953	0.287974	-0.072121	0.843334	
0.89471	12.1902	0	0	0.589627	0.516432	0.592626	0.217376	-0.200651	0.2184	0.347772	1.0634	0.119356	0.0795755	-0.201849	0.626518	0.0295653	0.630861	-0.072873	0.732594	0.130772	1.05758	0.161851	1.36641	0.0896192	0.852534	-0.00124075	0.726345	-0.127179	0.369398	-0.00886575	0.771544	-0.16894	0.298747	-0.0657465	0.842685	
0.900723	12.178	0	0	0.617584	0.525072	0.577659	0.233716	-0.200651	0.2184	0.343248	1.05669	0.115398	0.082162	-0.211328	0.636817	0.0263685	0.639896	-0.082522	0.743351	0.135041	1.06502	0.177165	1.36966	0.0926625	0.854647	-0.0045205	0.735614	-0.125564	0.377298	-0.0157155	0.776019	-0.179927	0.30952	-0.059372	0.842037	
0.906824	12.178	0	0	0.645541	0.533711	0.562691	0.250057	-0.200651	0.2184	0.338724	1.04998	0.111439	0.0847485	-0.220807	0.647115	0.0231717	0.648931	-0.092171	0.754109	0.13931	1.07246	0.192479	1.37292	0.0957058	0.85676	-0.00780025	0.744883	-0.12395	0.385197	-0.0225652	0.780495	-0.190914	0.320293	-0.0529975	0.841388	
0.912819	12.1902	0	0	0.673498	0.54235	0.547724	0.266398	-0.200651	0.2184	0.3342	1.04327	0.10748	0.087335	-0.230286	0.657414	0.019975	0.657965	-0.10182	0.764866	0.143579	1.0799	0.207794	1.37617	0.098749	0.858873	-0.01108	0.754152	-0.122335	0.393096	-0.029415	0.784971	-0.201901	0.331066	-0.046623	0.840739	
0.918637	12.2055	0	0	0.657668	0.521312	0.547724	0.266398	-0.200651	0.2184	0.327459	1.04285	0.105824	0.0834185	-0.226508	0.646738	0.019975	0.657965	-0.102544	0.758662	0.141694	1.08522	0.204738	1.38481	0.094762	0.859427	-0.012872	0.744637	-0.124979	0.388107	-0.0341757	0.768696	-0.213926	0.32456	-0.0512897	0.819211	
0.924209	12.2299	0	0	0.641838	0.500275	0.547724	0.266398	-0.200651	0.2184	0.320718	1.04243	0.104167	0.079502	-0.22273	0.636062	0.019975	0.657965	-0.103268	0.752457	0.13981	1.09055	0.201682	1.39345	0.090775	0.859981	-0.014664	0.735121	-0.127624	0.383119	-0.0389365	0.752421	-0.225951	0.318053	-0.0559565	0.797683	
0.929469	12.2528	0	0	0.626007	0.479237	0.547724	0.266398	-0.200651	0.2184	0.313977	1.04201	0.102511	0.0755855	-0.218953	0.625386	0.019975	0.657965	-0.103992	0.746252	0.137925	1.09588	0.198625	1.40208	0.086788	0.860535	-0.016456	0.725606	-0.130269	0.37813	-0.0436972	0.736146	-0.237976	0.311547	-0.0606233	0.776156	
0.934351	12.2772	0	0	0.610177	0.4582	0.547724	0.266398	-0.200651	0.2184	0.307236	1.04159	0.100855	0.071669	-0.215175	0.61471	0.019975	0.657965	-0.104716	0.740048	0.13604	1.10121	0.195569	1.41072	0.082801	0.861089	-0.018248	0.716091	-0.132913	0.373141	-0.048458	0.719871	-0.250001	0.305041	-0.06529	0.754628	
0.938787	12.2986	0	0	0.598278	0.448107	0.538648	0.292048	-0.210778	0.225017	0.309456	1.03531	0.0976665	0.072087	-0.222758	0.619665	0.0191752	0.660225	-0.100919	0.737567	0.133211	1.1092	0.196342	1.42019	0.0799683	0.869095	-0.016456	0.725606	-0.132913	0.373141	-0.052323	0.715947	-0.239038	0.294291	-0.0636773	0.75007	
0.94271	12.3062	0	0	0.586378	0.438014	0.529572	0.317698	-0.220905	0.231635	0.311676	1.02904	0.094478	0.072505	-0.230341	0.624619	0.0183755	0.662485	-0.0971215	0.735086	0.130381	1.1172	0.197115	1.42965	0.0771355	0.877101	-0.014664	0.735121	-0.132913	0.373141	-0.056188	0.712022	-0.228074	0.283541	-0.0620645	0.745513	
0.946046	12.3138	0	0	0.574479	0.427922	0.520496	0.343349	-0.231031	0.238252	0.313896	1.02277	0.0912895	0.072923	-0.237924	0.629574	0.0175758	0.664745	-0.0933242	0.732604	0.127551	1.12519	0.197889	1.43912	0.0743028	0.885107	-0.012872	0.744637	-0.132913	0.373141	-0.060053	0.708098	-0.217111	0.272791	-0.0604517	0.740955	
0.948674	12.3199	0	0	0.562579	0.417829	0.51142	0.368999	-0.241158	0.244869	0.316116	1.01649	0.088101	0.073341	-0.245507	0.634529	0.016776	0.667005	-0.089527	0.730123	0.124722	1.13319	0.198662	1.44859	0.07147	0.893113	-0.01108	0.754152	-0.132913	0.373141	-0.063918	0.704173	-0.206148	0.262041	-0.058839	0.736398	
0.950464	12.3199	0	0	0.552753	0.40198	0.532444	0.335542	-0.238792	0.238182	0.302654	1.01565	0.0785455	0.074591	-0.256879	0.633762	0.0114585	0.665268	-0.0978435	0.728886	0.121176	1.13346	0.203252	1.43562	0.0733588	0.887775	-0.0112345	0.740009	-0.137616	0.373976	-0.0716398	0.696337	-0.212162	0.258804	-0.0699548	0.73316	
0.951283	12.3276	0	0	0.542927	0.386131	0.553468	0.302084	-0.236426	0.231494	0.289193	1.01481	0.06899	0.075841	-0.268252	0.632996	0.006141	0.663531	-0.10616	0.727649	0.11763	1.13373	0.207842	1.42264	0.0752475	0.882437	-0.011389	0.725865	-0.142318	0.374811	-0.0793615	0.688502	-0.218176	0.255567	-0.0810705	0.729923	
0.950998	12.3398	0	0	0.5331	0.370282	0.574491	0.268627	-0.23406	0.224807	0.275732	1.01397	0.0594345	0.077091	-0.279624	0.632229	0.0008235	0.661795	-0.114476	0.726412	0.114084	1.13399	0.212431	1.40967	0.0771363	0.877099	-0.0115435	0.711722	-0.14702	0.375646	-0.0870833	0.680666	-0.224191	0.25233	-0.0921862	0.726685	
0.949478	12.3611	0	0	0.523274	0.354433	0.595515	0.23517	-0.231694	0.21812	0.26227	1.01313	0.049879	0.078341	-0.290997	0.631462	-0.004494	0.660058	-0.122793	0.725175	0.110538	1.13426	0.217021	1.3967	0.079025	0.871761	-0.011698	0.697578	-0.151723	0.376481	-0.094805	0.67283	-0.230205	0.249093	-0.103302	0.723448	
0.94659	12.3779	0	0	0.513462	0.338647	0.601432	0.244444	-0.239445	0.218047	0.266699	1.00061	0.049879	0.078341	-0.283427	0.626516	-0.00529325	0.662317	-0.118274	0.728893	0.109595	1.13693	0.219328	1.40184	0.0811223	0.876547	-0.00826375	0.702453	-0.153783	0.382303	-0.094805	0.67283	-0.236806	0.267747	-0.104912	0.727998	
0.942207	12.3978	0	0	0.503649	0.32286	0.607348	0.253718	-0.247195	0.217975	0.271127	0.988098	0.049879	0.078341	-0.275858	0.621569	-0.0060925	0.664576	-0.113755	0.732611	0.108651	1.13959	0.221635	1.40698	0.0832195	0.881333	-0.0048295	0.707327	-0.155842	0.388124	-0.094805	0.67283	-0.243406	0.286401	-0.106522	0.732549	
0.936417	12.4145	0	0	0.493837	0.307074	0.613264	0.262993	-0.254945	0.217902	0.275556	0.975581	0.049879	0.078341	-0.268288	0.616623	-0.00689175	0.666835	-0.109235	0.73633	0.107708	1.14226	0.223942	1.41212	0.0853167	0.88612	-0.00139525	0.712202	-0.157902	0.393946	-0.094805	0.67283	-0.250006	0.305055	-0.108133	0.7371	
0.929613	12.4161	0	0	0.484024	0.291288	0.619181	0.272267	-0.262696	0.217829	0.279985	0.963065	0.049879	0.078341	-0.260719	0.611677	-0.007691	0.669094	-0.104716	0.740048	0.106765	1.14492	0.226249	1.41726	0.087414	0.890906	0.002039	0.717076	-0.159962	0.399768	-0.094805	0.67283	-0.256607	0.323709	-0.109743	0.74165	
0.922212	12.4145	0	0	0.474225	0.275564	0.619301	0.245933	-0.268076	0.211082	0.257553	0.948935	0.0474627	0.0765925	-0.268319	0.600276	-0.009149	0.664838	-0.112729	0.729728	0.102278	1.14786	0.21322	1.41913	0.082483	0.894128	-0.00303275	0.71683	-0.167183	0.420174	-0.096286	0.677016	-0.252253	0.33164	-0.116192	0.759876	
0.914632	12.4008	0	0	0.464426	0.259841	0.61942	0.2196	-0.273455	0.204334	0.235121	0.934805	0.0450465	0.074844	-0.275918	0.588875	-0.010607	0.660582	-0.120742	0.719407	0.097791	1.15079	0.20019	1.42099	0.077552	0.89735	-0.0081045	0.716584	-0.174403	0.440581	-0.097767	0.681202	-0.2479	0.339571	-0.122641	0.778102	
0.907289	12.381	0	0	0.454628	0.244118	0.61954	0.193267	-0.278835	0.197586	0.212689	0.920676	0.0426303	0.0730955	-0.283517	0.577475	-0.012065	0.656327	-0.128754	0.709086	0.093304	1.15372	0.187161	1.42286	0.072621	0.900572	-0.0131763	0.716337	-0.181623	0.460987	-0.099248	0.685388	-0.243546	0.347502	-0.12909	0.796327	
0.9006	12.3596	0	0	0.444829	0.228394	0.61966	0.166933	-0.284215	0.190839	0.190257	0.906546	0.040214	0.071347	-0.291117	0.566074	-0.013523	0.652071	-0.136767	0.698766	0.088817	1.15665	0.174132	1.42473	0.06769	0.903794	-0.018248	0.716091	-0.188844	0.481393	-0.100729	0.689574	-0.239193	0.355433	-0.135539	0.814553	
0.894981	12.3367	0	0	0.418787	0.258678	0.604696	0.183265	-0.281856	0.184172	0.201366	0.894501	0.044927	0.0666045	-0.292998	0.571391	-0.016578	0.652332	-0.129479	0.702889	0.0852757	1.15692	0.165717	1.43687	0.066745	0.906465	-0.0198868	0.720722	-0.187812	0.478475	-0.103105	0.681477	-0.246852	0.356844	-0.132313	0.805435	
0.890692	12.3077	0	0	0.392744	0.288961	0.589731	0.199598	-0.279497	0.177505	0.212476	0.882456	0.04964	0.061862	-0.29488	0.576709	-0.019633	0.652592	-0.122192	0.707012	0.0817345	1.15718	0.157302	1.44902	0.0658	0.909136	-0.0215255	0.725353	-0.186779	0.475557	-0.105481	0.673379	-0.254511	0.358255	-0.129086	0.796318	
0.887641	12.2803	0	0	0.366702	0.319245	0.574766	0.21593	-0.277138	0.170838	0.223585	0.87041	0.054353	0.0571195	-0.296762	0.582027	-0.022688	0.652853	-0.114905	0.711135	0.0781932	1.15745	0.148886	1.46116	0.064855	0.911807	-0.0231642	0.729984	-0.185746	0.472639	-0.107856	0.665281	-0.26217	0.359665	-0.12586	0.7872	
0.885691	12.2467	0	0	0.34066	0.349529	0.559802	0.232263	-0.274779	0.164171	0.234694	0.858365	0.059066	0.052377	-0.298643	0.587344	-0.025743	0.653114	-0.107617	0.715258	0.074652	1.15771	0.140471	1.47331	0.06391	0.914478	-0.024803	0.734615	-0.184714	0.469721	-0.110232	0.657184	-0.269829	0.361076	-0.122634	0.778083	
0.884705	12.2238	0	0	0.424288	0.352674	0.571851	0.198209	-0.277803	0.150793	0.227989	0.857963	0.0527027	0.05321	-0.306229	0.575963	-0.0325057	0.64713	-0.110388	0.714846	0.0668665	1.15051	0.12901	1.47083	0.056891	0.912906	-0.0332947	0.729489	-0.197761	0.46928	-0.116462	0.645202	-0.279131	0.367154	-0.124247	0.78264	
0.884543	12.1933	0	0	0.507916	0.355819	0.583901	0.164156	-0.280828	0.137415	0.221284	0.857562	0.0463395	0.054043	-0.313816	0.564583	-0.0392685	0.641147	-0.113159	0.714435	0.059081	1.14331	0.11755	1.46835	0.049872	0.911334	-0.0417865	0.724363	-0.210808	0.468839	-0.122691	0.63322	-0.288434	0.373233	-0.12586	0.787198	
0.885068	12.1719	0	0	0.591545	0.358964	0.595951	0.130102	-0.283852	0.124038	0.214579	0.85716	0.0399762	0.054876	-0.321402	0.553203	-0.0460312	0.635163	-0.11593	0.714024	0.0512955	1.13611	0.106089	1.46587	0.042853	0.909761	-0.0502783	0.719236	-0.223855	0.468398	-0.128921	0.621237	-0.297737	0.379312	-0.127472	0.791756	
0.886143	12.1506	0	0	0.675173	0.362109	0.608	0.096048	-0.286876	0.11066	0.207874	0.856758	0.033613	0.055709	-0.328989	0.541822	-0.052794	0.629179	-0.118701	0.713612	0.04351	1.12891	0.094628	1.46339	0.035834	0.908189	-0.05877	0.71411	-0.236902	0.467957	-0.135151	0.609255	-0.307039	0.38539	-0.129085	0.796313	
0.887642	12.1368	0	0	0.719419	0.369004	0.596069	0.103844	-0.292253	0.103956	0.198879	0.843538	0.0240802	0.0569537	-0.330904	0.530846	-0.0557052	0.620694	-0.124239	0.712789	0.0427987	1.1212	0.090052	1.45312	0.0356303	0.89807	-0.0639823	0.699761	-0.240558	0.465867	-0.145223	0.593425	-0.311375	0.377453	-0.119421	0.769003	
0.889477	12.1307	0	0	0.763666	0.375898	0.584138	0.11164	-0.29763	0.097253	0.189883	0.830317	0.0145475	0.0581985	-0.332819	0.519869	-0.0586165	0.61221	-0.129777	0.711965	0.0420875	1.11349	0.085476	1.44284	0.0354265	0.887952	-0.0691945	0.685412	-0.244213	0.463777	-0.155294	0.577595	-0.315711	0.369517	-0.109758	0.741692	
0.891563	12.1231	0	0	0.807913	0.382792	0.572207	0.119436	-0.303007	0.0905495	0.180888	0.817097	0.00501475	0.0594433	-0.334734	0.508893	-0.0615277	0.603725	-0.135316	0.711141	0.0413763	1.10577	0.0809	1.43256	0.0352227	0.877833	-0.0744067	0.671063	-0.247869	0.461687	-0.165365	0.561765	-0.320047	0.36158	-0.100095	0.714382	
0.893821	12.1124	0	0	0.852159	0.389687	0.560276	0.127232	-0.308384	0.083846	0.171893	0.803876	-0.004518	0.060688	-0.336649	0.497917	-0.064439	0.59524	-0.140854	0.710318	0.040665	1.09806	0.076324	1.42228	0.035019	0.867714	-0.079619	0.656714	-0.251524	0.459597	-0.175437	0.545935	-0.324383	0.353643	-0.090431	0.687071	
0.896165	12.1017	0	0	0.870431	0.382236	0.563359	0.0926318	-0.316782	0.0638573	0.169468	0.772166	-0.0148003	0.0640857	-0.34988	0.486232	-0.0719853	0.591527	-0.14711	0.703312	0.031952	1.09354	0.0626157	1.41469	0.032927	0.862937	-0.0880892	0.651618	-0.250494	0.456685	-0.174875	0.529604	-0.321083	0.344316	-0.0903637	0.669579	
0.898516	12.0956	0	0	0.888702	0.374786	0.566442	0.0580315	-0.325179	0.0438685	0.167044	0.740456	-0.0250825	0.0674835	-0.363112	0.474546	-0.0795315	0.587815	-0.153366	0.696306	0.023239	1.08903	0.0489075	1.4071	0.030835	0.85816	-0.0965595	0.646521	-0.249464	0.453774	-0.174312	0.513273	-0.317782	0.334989	-0.0902965	0.652087	
0.900789	12.0926	0	0	0.906974	0.367336	0.569526	0.0234312	-0.333577	0.0238798	0.164619	0.708746	-0.0353648	0.0708812	-0.376343	0.462861	-0.0870777	0.584102	-0.159622	0.689301	0.014526	1.08451	0.0351993	1.39951	0.028743	0.853383	-0.10503	0.641425	-0.248433	0.450862	-0.17375	0.496943	-0.314482	0.325662	-0.0902293	0.634595	
0.902925	12.0911	0	0	0.925246	0.359885	0.572609	-0.011169	-0.341975	0.003891	0.162194	0.677036	-0.045647	0.074279	-0.389575	0.451176	-0.094624	0.580389	-0.165878	0.682295	0.005813	1.08	0.021491	1.39192	0.026651	0.848606	-0.1135	0.636329	-0.247403	0.447951	-0.173187	0.480612	-0.311182	0.316335	-0.090162	0.617103	
0.90498	12.1033	0	0	0.939426	0.364104	0.572658	-0.0371587	-0.355037	-0.00281475	0.155383	0.657803	-0.0512203	0.0729425	-0.404639	0.444797	-0.0959437	0.567444	-0.179387	0.671199	-0.00101125	1.07019	0.00023525	1.38271	0.0243485	0.833754	-0.120495	0.612631	-0.251624	0.435062	-0.178866	0.452507	-0.312229	0.299125	-0.099564	0.574627	
0.907053	12.1338	0	0	0.953607	0.368322	0.572707	-0.0631485	-0.368098	-0.0095205	0.148572	0.63857	-0.0567935	0.071606	-0.419702	0.438419	-0.0972635	0.554499	-0.192895	0.660102	-0.0078355	1.06038	-0.0210205	1.3735	0.022046	0.818901	-0.12749	0.588933	-0.255845	0.422173	-0.184545	0.424402	-0.313276	0.281916	-0.108966	0.53215	
0.90924	12.1979	0	0	0.967787	0.372541	0.572756	-0.0891382	-0.38116	-0.0162263	0.14176	0.619338	-0.0623667	0.0702695	-0.434765	0.43204	-0.0985833	0.541553	-0.206404	0.649005	-0.0146597	1.05057	-0.0422763	1.36429	0.0197435	0.804049	-0.134485	0.565234	-0.260065	0.409283	-0.190224	0.396297	-0.314323	0.264707	-0.118368	0.489674	
0.911637	12.2848	0	0	0.981967	0.37676	0.572805	-0.115128	-0.394222	-0.022932	0.134949	0.600105	-0.06794	0.068933	-0.449829	0.425661	-0.099903	0.528608	-0.219913	0.637909	-0.021484	1.04076	-0.063532	1.35508	0.017441	0.789197	-0.14148	0.541536	-0.264286	0.396394	-0.195903	0.368192	-0.31537	0.247497	-0.12777	0.447198	
0.914341	12.3932	0	0	0.977974	0.365885	0.56688	-0.124199	-0.397244	-0.0361643	0.128137	0.580955	-0.0711062	0.0693432	-0.451738	0.414767	-0.104398	0.524652	-0.226147	0.630939	-0.024782	1.03071	-0.0665625	1.3406	0.014194	0.777038	-0.148306	0.531905	-0.265884	0.388513	-0.193913	0.347873	-0.31807	0.23498	-0.129332	0.43439	
0.91745	12.5076	0	0	0.973981	0.355009	0.560955	-0.133269	-0.400265	-0.0493965	0.121324	0.561804	-0.0742725	0.0697535	-0.453646	0.403873	-0.108893	0.520695	-0.232381	0.623968	-0.02808	1.02066	-0.069593	1.32613	0.010947	0.76488	-0.155132	0.522274	-0.267481	0.380631	-0.191922	0.327554	-0.320769	0.222462	-0.130894	0.421582	
0.92105	12.6129	0	0	0.969988	0.344134	0.555031	-0.14234	-0.403286	-0.0626287	0.114512	0.542654	-0.0774388	0.0701637	-0.455555	0.392979	-0.113388	0.516739	-0.238615	0.616998	-0.031378	1.01061	-0.0726235	1.31166	0.0077	0.752721	-0.161958	0.512644	-0.269078	0.37275	-0.189932	0.307235	-0.323468	0.209944	-0.132456	0.408774	
0.92503	12.7014	0	0	0.965995	0.333259	0.549106	-0.151411	-0.406308	-0.075861	0.107699	0.523503	-0.080605	0.070574	-0.457464	0.382085	-0.117883	0.512783	-0.244849	0.610028	-0.034676	1.00056	-0.075654	1.29718	0.004453	0.740562	-0.168784	0.503013	-0.270676	0.364868	-0.187942	0.286916	-0.326168	0.197427	-0.134018	0.395966	
0.92911	12.764	0	0	0.970126	0.321585	0.546155	-0.16885	-0.401651	-0.0890232	0.100886	0.504434	-0.0869328	0.0713928	-0.457519	0.365966	-0.123827	0.50462	-0.251799	0.596937	-0.0405573	0.988159	-0.0862495	1.28114	0.0021395	0.72579	-0.172371	0.484275	-0.278547	0.349971	-0.189819	0.262865	-0.32396	0.171063	-0.137157	0.353266	
0.933004	12.8113	0	0	0.974257	0.309912	0.543203	-0.186289	-0.396993	-0.102186	0.0940725	0.485365	-0.0932605	0.0722115	-0.457573	0.349847	-0.129771	0.496457	-0.25875	0.583846	-0.0464385	0.975761	-0.096845	1.2651	-0.000174	0.711017	-0.175959	0.465537	-0.286417	0.335074	-0.191696	0.238815	-0.321753	0.1447	-0.140296	0.310566	
0.936426	12.8326	0	0	0.978387	0.298238	0.540252	-0.203729	-0.392336	-0.115348	0.0872593	0.466296	-0.0995882	0.0730302	-0.457628	0.333729	-0.135715	0.488295	-0.2657	0.570754	-0.0523197	0.963364	-0.10744	1.24905	-0.0024875	0.696244	-0.179546	0.446799	-0.294287	0.320177	-0.193573	0.214764	-0.319546	0.118336	-0.143434	0.267867	
0.939088	12.8372	0	0	0.982518	0.286564	0.537301	-0.221168	-0.387679	-0.12851	0.080446	0.447227	-0.105916	0.073849	-0.457683	0.31761	-0.141659	0.480132	-0.27265	0.557663	-0.058201	0.950966	-0.118036	1.23301	-0.004801	0.681472	-0.183134	0.428061	-0.302158	0.30528	-0.19545	0.190714	-0.317338	0.091973	-0.146573	0.225167	
0.940704	12.8281	0	0	0.978517	0.275738	0.549166	-0.228921	-0.395361	-0.128544	0.084766	0.435018	-0.10439	0.0695377	-0.465167	0.3225	-0.143112	0.475925	-0.274387	0.554396	-0.05985	0.945963	-0.121812	1.2322	-0.006895	0.676744	-0.179906	0.418939	-0.302736	0.29455	-0.191098	0.178416	-0.321688	0.084162	-0.133935	0.206623	
0.940989	12.8067	0	0	0.974515	0.264912	0.561031	-0.236673	-0.403044	-0.128578	0.089086	0.42281	-0.102865	0.0652265	-0.47265	0.327389	-0.144565	0.471718	-0.276123	0.55113	-0.061499	0.94096	-0.125588	1.23139	-0.008989	0.672015	-0.176679	0.409817	-0.303314	0.28382	-0.186747	0.166118	-0.326037	0.076351	-0.121296	0.188079	
0.939757	12.7792	0	0	0.970514	0.254086	0.572896	-0.244426	-0.410726	-0.128612	0.093406	0.410601	-0.101339	0.0609153	-0.480133	0.332279	-0.146018	0.46751	-0.27786	0.547864	-0.063148	0.935958	-0.129365	1.23058	-0.011083	0.667287	-0.173451	0.400694	-0.303892	0.273089	-0.182395	0.153819	-0.330386	0.06854	-0.108657	0.169535	
0.937199	12.735	0	0	0.966513	0.24326	0.584761	-0.252179	-0.418409	-0.128646	0.097726	0.398392	-0.099814	0.056604	-0.487617	0.337169	-0.147471	0.463303	-0.279597	0.544597	-0.064797	0.930955	-0.133141	1.22978	-0.013177	0.662559	-0.170223	0.391572	-0.30447	0.262359	-0.178043	0.141521	-0.334736	0.060729	-0.096019	0.150991	
0.933597	12.6846	0	0	0.950411	0.222523	0.581785	-0.269547	-0.426082	-0.128683	0.093234	0.391954	-0.102976	0.0570133	-0.482052	0.321442	-0.147344	0.454635	-0.283069	0.538072	-0.0690262	0.923596	-0.130129	1.22126	-0.0124697	0.64992	-0.177047	0.382027	-0.310735	0.255363	-0.187187	0.138054	-0.346685	0.054359	-0.116558	0.157563	
0.929231	12.6297	0	0	0.934309	0.201785	0.578809	-0.286915	-0.433754	-0.128719	0.088742	0.385516	-0.106137	0.0574225	-0.476488	0.305715	-0.147217	0.445967	-0.286542	0.531548	-0.0732555	0.916238	-0.127116	1.21275	-0.0117625	0.637281	-0.183872	0.372482	-0.317	0.248367	-0.196331	0.134587	-0.358635	0.047989	-0.137098	0.164135	
0.924379	12.5717	0	0	0.918207	0.181048	0.575833	-0.304284	-0.441427	-0.128756	0.08425	0.379078	-0.109299	0.0578318	-0.470923	0.289987	-0.14709	0.437298	-0.290014	0.525023	-0.0774847	0.908879	-0.124104	1.20424	-0.0110552	0.624641	-0.190696	0.362936	-0.323265	0.241371	-0.205474	0.13112	-0.370584	0.041619	-0.157637	0.170708	
0.919323	12.5244	0	0	0.902105	0.16031	0.572857	-0.321652	-0.4491	-0.128793	0.079758	0.37264	-0.112461	0.058241	-0.465358	0.27426	-0.146963	0.42863	-0.293486	0.518498	-0.081714	0.90152	-0.121091	1.19572	-0.010348	0.612002	-0.19752	0.353391	-0.32953	0.234375	-0.214618	0.127653	-0.382534	0.035249	-0.178177	0.17728	
0.914343	12.4725	0	0	0.887985	0.156183	0.584722	-0.329405	-0.4491	-0.128793	0.081913	0.36655	-0.112461	0.058241	-0.467212	0.279499	-0.151576	0.43336	-0.284227	0.516844	-0.081714	0.90152	-0.125611	1.2085	-0.009415	0.609365	-0.192498	0.353608	-0.332151	0.229442	-0.206429	0.119157	-0.379276	0.0260423	-0.170287	0.172124	
0.909705	12.4313	0	0	0.873865	0.152056	0.596587	-0.337158	-0.4491	-0.128793	0.084068	0.360461	-0.112461	0.058241	-0.469066	0.284739	-0.156188	0.43809	-0.274968	0.515189	-0.081714	0.90152	-0.13013	1.22127	-0.008482	0.606728	-0.187476	0.353824	-0.334771	0.224508	-0.19824	0.110662	-0.376019	0.0168355	-0.162398	0.166969	
0.905558	12.3917	0	0	0.859745	0.147929	0.608452	-0.344911	-0.4491	-0.128793	0.086223	0.354371	-0.112461	0.058241	-0.470919	0.289978	-0.160801	0.44282	-0.265709	0.513535	-0.081714	0.90152	-0.13465	1.23404	-0.007549	0.604091	-0.182453	0.354041	-0.337391	0.219575	-0.19005	0.102166	-0.372761	0.00762875	-0.154508	0.161813	
0.901979	12.3535	0	0	0.845625	0.143802	0.620317	-0.352664	-0.4491	-0.128793	0.088378	0.348281	-0.112461	0.058241	-0.472773	0.295217	-0.165413	0.44755	-0.25645	0.51188	-0.081714	0.90152	-0.13917	1.24682	-0.006616	0.601454	-0.177431	0.354258	-0.340012	0.214642	-0.181861	0.093671	-0.369503	-0.001578	-0.146618	0.156658	
0.899048	12.3154	0	0	0.817492	0.135556	0.63213	-0.386049	-0.456763	-0.128832	0.0838862	0.341862	-0.120304	0.063366	-0.474692	0.284394	-0.162255	0.438624	-0.265709	0.513535	-0.084293	0.899161	-0.133886	1.24336	-0.0077805	0.594111	-0.189081	0.358372	-0.34365	0.212592	-0.181861	0.093671	-0.378726	0.00444825	-0.141873	0.160406	
0.896843	12.291	0	0	0.789359	0.12731	0.643943	-0.419434	-0.464425	-0.128872	0.0793945	0.335443	-0.128147	0.068491	-0.47661	0.27357	-0.159097	0.429698	-0.274968	0.515189	-0.086872	0.896801	-0.128603	1.23991	-0.008945	0.586769	-0.200731	0.362485	-0.347288	0.210543	-0.181861	0.093671	-0.387949	0.0104745	-0.137128	0.164154	
0.895443	12.2833	0	0	0.761227	0.119063	0.655756	-0.45282	-0.472088	-0.128912	0.0749028	0.329024	-0.13599	0.073616	-0.478529	0.262747	-0.155938	0.420772	-0.284227	0.516844	-0.089451	0.894442	-0.123319	1.23646	-0.0101095	0.579426	-0.21238	0.366598	-0.350926	0.208493	-0.181861	0.093671	-0.397171	0.0165007	-0.132382	0.167903	
0.894927	12.3001	0	0	0.733094	0.110817	0.667569	-0.486205	-0.479751	-0.128951	0.070411	0.322605	-0.143833	0.078741	-0.480448	0.251924	-0.15278	0.411846	-0.293486	0.518498	-0.09203	0.892082	-0.118036	1.23301	-0.011274	0.572083	-0.22403	0.370712	-0.354564	0.206444	-0.181861	0.093671	-0.406394	0.022527	-0.127637	0.171651	
0.895365	12.3444	0	0	0.703196	0.0861997	0.66462	-0.47787	-0.47743	-0.13551	0.0637738	0.32227	-0.143071	0.0765865	-0.478597	0.246694	-0.15278	0.411846	-0.284955	0.510727	-0.0885202	0.891811	-0.119544	1.23727	-0.011274	0.572083	-0.217402	0.366382	-0.353546	0.203566	-0.180415	0.0895828	-0.404766	0.0179272	-0.132382	0.167903	
0.89668	12.4222	0	0	0.673298	0.0615825	0.661671	-0.469536	-0.475109	-0.14207	0.0571365	0.321935	-0.142309	0.074432	-0.476746	0.241463	-0.15278	0.411846	-0.276425	0.502956	-0.0850105	0.89154	-0.121052	1.24153	-0.011274	0.572083	-0.210775	0.362051	-0.352527	0.200688	-0.178968	0.0854945	-0.403139	0.0133275	-0.137128	0.164154	
0.898671	12.5183	0	0	0.6434	0.0369653	0.658721	-0.461202	-0.472788	-0.148629	0.0504992	0.321599	-0.141546	0.0722775	-0.474896	0.236233	-0.15278	0.411846	-0.267894	0.495185	-0.0815008	0.891268	-0.12256	1.24579	-0.011274	0.572083	-0.204148	0.357721	-0.351509	0.197811	-0.177521	0.0814062	-0.401512	0.00872775	-0.141873	0.160406	
0.901133	12.6266	0	0	0.613502	0.012348	0.655772	-0.452867	-0.470467	-0.155188	0.043862	0.321264	-0.140784	0.070123	-0.473045	0.231003	-0.15278	0.411846	-0.259363	0.487414	-0.077991	0.890997	-0.124068	1.25005	-0.011274	0.572083	-0.19752	0.353391	-0.350491	0.194933	-0.176075	0.077318	-0.399884	0.004128	-0.146618	0.156658	
0.90386	12.7304	0	0	0.575828	-0.0112778	0.655687	-0.478406	-0.468148	-0.161743	0.0503042	0.303057	-0.143941	0.07053	-0.480588	0.219871	-0.150413	0.405157	-0.268619	0.489071	-0.077991	0.890997	-0.116509	1.25167	-0.0103422	0.56945	-0.204148	0.357721	-0.350491	0.194933	-0.169328	0.0729092	-0.396631	-0.00506475	-0.132392	0.150786	
0.906647	12.8159	0	0	0.538154	-0.0349035	0.655602	-0.503945	-0.465828	-0.168297	0.0567465	0.28485	-0.147097	0.070937	-0.488131	0.208739	-0.148046	0.398469	-0.277875	0.490727	-0.077991	0.890997	-0.108951	1.25329	-0.0094105	0.566817	-0.210775	0.362051	-0.350491	0.194933	-0.162581	0.0685005	-0.393379	-0.0142575	-0.118166	0.144914	
0.909287	12.8845	0	0	0.50048	-0.0585293	0.655517	-0.529485	-0.463509	-0.174852	0.0631888	0.266643	-0.150254	0.071344	-0.495673	0.197608	-0.14568	0.39178	-0.287131	0.492384	-0.077991	0.890997	-0.101392	1.25491	-0.00847875	0.564183	-0.217402	0.366382	-0.350491	0.194933	-0.155833	0.0640918	-0.390126	-0.0234502	-0.103939	0.139042	
0.911577	12.9288	0	0	0.462806	-0.082155	0.655432	-0.555024	-0.46119	-0.181407	0.069631	0.248436	-0.153411	0.071751	-0.503216	0.186476	-0.143313	0.385091	-0.296387	0.494041	-0.077991	0.890997	-0.093833	1.25653	-0.007547	0.56155	-0.22403	0.370712	-0.350491	0.194933	-0.149086	0.059683	-0.386873	-0.032643	-0.089713	0.13317	
0.913401	12.9547	0	0	0.425393	-0.105614	0.649457	-0.563881	-0.458873	-0.187957	0.06514	0.242055	-0.152649	0.0695977	-0.501371	0.181261	-0.144769	0.380904	-0.29364	0.494441	-0.07427	0.880481	-0.100633	1.26425	-0.0047535	0.553655	-0.229043	0.370491	-0.351076	0.184265	-0.151498	0.0518385	-0.391213	-0.0403942	-0.0866045	0.10721	
0.91481	12.9578	0	0	0.387979	-0.129074	0.643482	-0.572739	-0.456555	-0.194507	0.060649	0.235673	-0.151888	0.0674445	-0.499526	0.176046	-0.146225	0.376717	-0.290893	0.494842	-0.070549	0.869965	-0.107434	1.27198	-0.00196	0.54576	-0.234055	0.37027	-0.351661	0.173597	-0.153909	0.043994	-0.395553	-0.0481455	-0.083496	0.08125	
0.91587	12.9364	0	0	0.350565	-0.152533	0.637507	-0.581596	-0.454237	-0.201056	0.056158	0.229292	-0.151126	0.0652912	-0.49768	0.170831	-0.147681	0.37253	-0.288146	0.495243	-0.066828	0.859449	-0.114234	1.2797	0.0008335	0.537865	-0.239068	0.370049	-0.352247	0.162929	-0.156321	0.0361495	-0.399893	-0.0558967	-0.0803875	0.05529	
0.91665	12.9089	0	0	0.313152	-0.175992	0.631532	-0.590453	-0.45192	-0.207606	0.051667	0.222911	-0.150364	0.063138	-0.495835	0.165616	-0.149137	0.368343	-0.285399	0.495643	-0.063107	0.848933	-0.121034	1.28743	0.003627	0.52997	-0.244081	0.369828	-0.352832	0.152261	-0.158732	0.028305	-0.404233	-0.063648	-0.077279	0.02933	
0.917216	12.8723	0	0	0.275875	-0.177625	0.610816	-0.583289	-0.459578	-0.207634	0.0450387	0.222589	-0.154281	0.0656975	-0.499605	0.160068	-0.149925	0.37057	-0.290167	0.500954	-0.0621775	0.846306	-0.113473	1.28905	-0.0021955	0.535797	-0.244081	0.369828	-0.3508	0.146518	-0.158732	0.028305	-0.40261	-0.0682337	-0.0693745	0.024165	
0.917636	12.8296	0	0	0.238598	-0.179258	0.590101	-0.576126	-0.467236	-0.207661	0.0384105	0.222267	-0.158198	0.068257	-0.503375	0.154521	-0.150713	0.372798	-0.294936	0.506266	-0.061248	0.843679	-0.105912	1.29068	-0.008018	0.541624	-0.244081	0.369828	-0.348768	0.140774	-0.158732	0.028305	-0.400987	-0.0728195	-0.06147	0.019	
0.917977	12.7884	0	0	0.201322	-0.180891	0.569385	-0.568962	-0.474894	-0.207689	0.0317822	0.221944	-0.162115	0.0708165	-0.507146	0.148973	-0.151501	0.375025	-0.299704	0.511578	-0.0603185	0.841052	-0.0983518	1.29231	-0.0138405	0.547452	-0.244081	0.369828	-0.346736	0.135031	-0.158732	0.028305	-0.399365	-0.0774052	-0.0535655	0.013835	
0.91828	12.7487	0	0	0.164045	-0.182524	0.54867	-0.561798	-0.482552	-0.207717	0.025154	0.221622	-0.166032	0.073376	-0.510916	0.143425	-0.152289	0.377252	-0.304472	0.516889	-0.059389	0.838425	-0.090791	1.29393	-0.019663	0.553279	-0.244081	0.369828	-0.344704	0.129288	-0.158732	0.028305	-0.397742	-0.081991	-0.045661	0.00867	
0.91846	12.7151	0	0	0.148536	-0.202588	0.5516	-0.570079	-0.480238	-0.214257	0.0185333	0.221298	-0.166032	0.073376	-0.509074	0.138219	-0.154532	0.375294	-0.298978	0.517693	-0.056602	0.830549	-0.0930617	1.28885	-0.016871	0.545388	-0.240865	0.360738	-0.351975	0.125217	-0.159703	0.016399	-0.403702	-0.0851417	-0.0504877	-0.0120212	
0.918389	12.6785	0	0	0.133026	-0.222652	0.55453	-0.578359	-0.477924	-0.220798	0.0119125	0.220974	-0.166032	0.073376	-0.507232	0.133014	-0.156776	0.373335	-0.293484	0.518498	-0.053815	0.822672	-0.0953325	1.28377	-0.014079	0.537498	-0.237648	0.351649	-0.359247	0.121146	-0.160673	0.004493	-0.409662	-0.0882925	-0.0553145	-0.0327125	
0.917942	12.6526	0	0	0.117517	-0.242716	0.55746	-0.586639	-0.475609	-0.227338	0.00529175	0.22065	-0.166032	0.073376	-0.50539	0.127808	-0.159019	0.371376	-0.28799	0.519302	-0.051028	0.814796	-0.0976033	1.27868	-0.011287	0.529608	-0.234432	0.342559	-0.366518	0.117076	-0.161643	-0.007413	-0.415623	-0.0914433	-0.0601413	-0.0534037	
0.916991	12.6221	0	0	0.102008	-0.26278	0.56039	-0.59492	-0.473295	-0.233878	-0.001329	0.220326	-0.166032	0.073376	-0.503548	0.122602	-0.161262	0.369418	-0.282496	0.520106	-0.048241	0.806919	-0.099874	1.2736	-0.008495	0.521717	-0.231216	0.333469	-0.373789	0.113005	-0.162614	-0.019319	-0.421583	-0.094594	-0.064968	-0.074095	
0.915411	12.6022	0	0	0.0748183	-0.270793	0.542728	-0.570641	-0.480945	-0.233904	0.00080975	0.214282	-0.166032	0.073376	-0.514684	0.137885	-0.159807	0.373605	-0.28452	0.525825	-0.051753	0.807197	-0.090795	1.27095	-0.00453375	0.52115	-0.231216	0.333469	-0.371761	0.107273	-0.162614	-0.019319	-0.421583	-0.094594	-0.0570707	-0.0792552	
0.913075	12.5854	0	0	0.0476285	-0.278806	0.525065	-0.546362	-0.488594	-0.23393	0.0029485	0.208237	-0.166032	0.073376	-0.525821	0.153169	-0.158353	0.377791	-0.286543	0.531544	-0.055265	0.807475	-0.081716	1.2683	-0.0005725	0.520583	-0.231216	0.333469	-0.369733	0.101541	-0.162614	-0.019319	-0.421583	-0.094594	-0.0491735	-0.0844155	
0.909881	12.5748	0	0	0.0204388	-0.286818	0.507403	-0.522083	-0.496244	-0.233955	0.00508725	0.202193	-0.166032	0.073376	-0.536957	0.168452	-0.156898	0.381978	-0.288567	0.537264	-0.058777	0.807752	-0.072637	1.26565	0.00338875	0.520017	-0.231216	0.333469	-0.367704	0.095809	-0.162614	-0.019319	-0.421583	-0.094594	-0.0412763	-0.0895757	
0.906052	12.5671	0	0	-0.006751	-0.294831	0.489741	-0.497804	-0.503894	-0.233981	0.007226	0.196149	-0.166032	0.073376	-0.548093	0.183735	-0.155443	0.386164	-0.29059	0.542983	-0.062289	0.80803	-0.063558	1.263	0.00735	0.51945	-0.231216	0.333469	-0.365676	0.090077	-0.162614	-0.019319	-0.421583	-0.094594	-0.033379	-0.094736	
0.90204	12.5504	0	0	-0.0066335	-0.316317	0.495604	-0.514373	-0.511534	-0.23401	-0.00152575	0.201867	-0.166032	0.073376	-0.544408	0.173321	-0.154655	0.383936	-0.29059	0.542983	-0.058578	0.797542	-0.072637	1.26565	0.00921025	0.514192	-0.233015	0.324176	-0.367284	0.0823222	-0.162151	-0.0352647	-0.425918	-0.102316	-0.0382292	-0.11533	
0.898301	12.5351	0	0	-0.006516	-0.337802	0.501467	-0.530941	-0.519173	-0.234038	-0.0102775	0.207586	-0.166032	0.073376	-0.540723	0.162906	-0.153866	0.381708	-0.29059	0.542983	-0.054867	0.787054	-0.081716	1.2683	0.0110705	0.508934	-0.234814	0.314882	-0.368892	0.0745675	-0.161688	-0.0512105	-0.430253	-0.110038	-0.0430795	-0.135924	
0.895292	12.5168	0	0	-0.0063985	-0.359287	0.507329	-0.54751	-0.526813	-0.234067	-0.0190292	0.213305	-0.166032	0.073376	-0.537038	0.152492	-0.153078	0.37948	-0.29059	0.542983	-0.051156	0.776566	-0.090795	1.27095	0.0129308	0.503676	-0.236612	0.305588	-0.370499	0.0668128	-0.161225	-0.0671563	-0.434589	-0.11776	-0.0479298	-0.156517	
0.89347	12.4924	0	0	-0.006281	-0.380773	0.513192	-0.564079	-0.534453	-0.234096	-0.027781	0.219023	-0.166032	0.073376	-0.533353	0.142077	-0.152289	0.377252	-0.29059	0.542983	-0.047445	0.766078	-0.099874	1.2736	0.014791	0.498418	-0.238411	0.296295	-0.372107	0.059058	-0.160762	-0.083102	-0.438924	-0.125482	-0.05278	-0.177111	
0.893291	12.468	0	0	-0.0158968	-0.395832	0.507329	-0.54751	-0.534453	-0.234096	-0.0256437	0.212983	-0.162115	0.0708165	-0.529587	0.147623	-0.150834	0.381441	-0.290881	0.551975	-0.0500292	0.763738	-0.0968543	1.26507	0.015721	0.49579	-0.238411	0.296295	-0.372107	0.059058	-0.160762	-0.083102	-0.431349	-0.126915	-0.057545	-0.180772	
0.895193	12.442	0	0	-0.0255125	-0.410891	0.501467	-0.530941	-0.534453	-0.234096	-0.0235065	0.206943	-0.158198	0.068257	-0.525821	0.153169	-0.149378	0.385629	-0.291172	0.560967	-0.0526135	0.761399	-0.0938345	1.25653	0.016651	0.493163	-0.238411	0.296295	-0.372107	0.059058	-0.160762	-0.083102	-0.423775	-0.128348	-0.06231	-0.184432	
0.899083	12.4252	0	0	-0.0351282	-0.42595	0.495604	-0.514373	-0.534453	-0.234096	-0.0213692	0.200902	-0.154281	0.0656975	-0.522055	0.158715	-0.147923	0.389818	-0.291462	0.569959	-0.0551978	0.759059	-0.0908147	1.248	0.017581	0.490535	-0.238411	0.296295	-0.372107	0.059058	-0.160762	-0.083102	-0.4162	-0.129781	-0.067075	-0.188093	
0.904314	12.3962	0	0	-0.044744	-0.441009	0.489741	-0.497804	-0.534453	-0.234096	-0.019232	0.194862	-0.150364	0.063138	-0.518289	0.164261	-0.146467	0.394007	-0.291753	0.578951	-0.057782	0.75672	-0.087795	1.23946	0.018511	0.487907	-0.238411	0.296295	-0.372107	0.059058	-0.160762	-0.083102	-0.408626	-0.131214	-0.07184	-0.191754	
0.910215	12.3688	0	0	-0.0736975	-0.443366	0.495604	-0.514373	-0.542083	-0.234127	-0.0324388	0.194214	-0.154281	0.0656975	-0.522055	0.158715	-0.148711	0.392046	-0.293198	0.566696	-0.053152	0.743635	-0.0976247	1.23278	0.017336	0.4806	-0.245217	0.286808	-0.366447	0.0553595	-0.164618	-0.0868297	-0.4162	-0.129781	-0.0702823	-0.196157	
0.916111	12.3428	0	0	-0.102651	-0.445723	0.501467	-0.530941	-0.549713	-0.234158	-0.0456455	0.193565	-0.158198	0.068257	-0.525821	0.153169	-0.150955	0.390085	-0.294643	0.554441	-0.048522	0.73055	-0.107455	1.2261	0.016161	0.473293	-0.252023	0.277322	-0.360787	0.051661	-0.168474	-0.0905575	-0.423775	-0.128348	-0.0687245	-0.20056	
0.92133	12.3215	0	0	-0.131605	-0.448081	0.507329	-0.54751	-0.557343	-0.23419	-0.0588522	0.192916	-0.162115	0.0708165	-0.529587	0.147623	-0.153199	0.388125	-0.296087	0.542186	-0.043892	0.717465	-0.117284	1.21942	0.014986	0.465985	-0.258829	0.267836	-0.355126	0.0479625	-0.17233	-0.0942853	-0.431349	-0.126915	-0.0671667	-0.204962	
0.925199	12.2971	0	0	-0.160558	-0.450438	0.513192	-0.564079	-0.564973	-0.234221	-0.072059	0.192268	-0.166032	0.073376	-0.533353	0.142077	-0.155443	0.386164	-0.297532	0.529931	-0.039262	0.70438	-0.127114	1.21274	0.013811	0.458678	-0.265635	0.258349	-0.349466	0.044264	-0.176186	-0.098013	-0.438924	-0.125482	-0.065609	-0.209365	
0.927045	12.2787	0	0	-0.174004	-0.454386	0.498478	-0.548099	-0.572593	-0.234255	-0.0743895	0.179897	-0.166032	0.073376	-0.538956	0.141738	-0.151622	0.383667	-0.302012	0.526268	-0.045357	0.702334	-0.133156	1.20688	0.0117068	0.454003	-0.265837	0.244576	-0.348454	0.041403	-0.178604	-0.105793	-0.435689	-0.134623	-0.0688155	-0.217413	
0.926461	12.2681	0	0	-0.187451	-0.458334	0.483765	-0.532119	-0.580213	-0.23429	-0.07672	0.167526	-0.166032	0.073376	-0.54456	0.1414	-0.147801	0.38117	-0.306492	0.522606	-0.051452	0.700287	-0.139198	1.20102	0.0096025	0.449328	-0.266039	0.230802	-0.347441	0.038542	-0.181022	-0.113573	-0.432455	-0.143763	-0.072022	-0.225462	
0.92393	12.2528	0	0	-0.200897	-0.462282	0.469052	-0.516139	-0.587834	-0.234324	-0.0790505	0.155156	-0.166032	0.073376	-0.550164	0.141062	-0.14398	0.378674	-0.310972	0.518943	-0.057547	0.698241	-0.14524	1.19516	0.00749825	0.444653	-0.266241	0.217028	-0.346429	0.035681	-0.18344	-0.121354	-0.429221	-0.152904	-0.0752285	-0.233511	
0.920112	12.2528	0	0	-0.214343	-0.46623	0.454338	-0.500159	-0.595454	-0.234358	-0.081381	0.142785	-0.166032	0.073376	-0.555767	0.140723	-0.140159	0.376177	-0.315452	0.51528	-0.063642	0.696195	-0.151282	1.18929	0.005394	0.439978	-0.266443	0.203255	-0.345417	0.03282	-0.185858	-0.129134	-0.425986	-0.162045	-0.078435	-0.241559	
0.915669	12.2757	0	0	-0.235425	-0.469396	0.442523	-0.517868	-0.60076	-0.240907	-0.0902987	0.130131	-0.169186	0.0737815	-0.565121	0.134849	-0.143072	0.36781	-0.327863	0.501468	-0.06696	0.686321	-0.161083	1.18264	0.00421675	0.432689	-0.281426	0.202635	-0.344405	0.02996	-0.191144	-0.128797	-0.435169	-0.156045	-0.0878587	-0.232022	
0.911265	12.355	0	0	-0.256507	-0.472563	0.430709	-0.535577	-0.606067	-0.247455	-0.0992165	0.117476	-0.172339	0.074187	-0.574474	0.128975	-0.145985	0.359444	-0.340273	0.487656	-0.070278	0.676447	-0.170884	1.17598	0.0030395	0.425399	-0.29641	0.202015	-0.343393	0.0271	-0.196431	-0.128461	-0.444352	-0.150044	-0.0972825	-0.222485	
0.907562	12.4924	0	0	-0.27759	-0.475729	0.418894	-0.553285	-0.611373	-0.254003	-0.108134	0.104822	-0.175492	0.0745925	-0.583827	0.123102	-0.148899	0.351077	-0.352683	0.473843	-0.073596	0.666574	-0.180685	1.16933	0.00186225	0.41811	-0.311393	0.201395	-0.342381	0.02424	-0.201717	-0.128124	-0.453536	-0.144043	-0.106706	-0.212947	
0.905221	12.6816	0	0	-0.298672	-0.478896	0.407079	-0.570994	-0.616679	-0.260552	-0.117052	0.092168	-0.178646	0.074998	-0.593181	0.117228	-0.151812	0.34271	-0.365094	0.460031	-0.076914	0.6567	-0.190486	1.16267	0.000685	0.410821	-0.326377	0.200775	-0.341369	0.02138	-0.207003	-0.127787	-0.462719	-0.138043	-0.11613	-0.20341	
0.904786	12.8876	0	0	-0.300499	-0.494603	0.398263	-0.571576	-0.614377	-0.267059	-0.123628	0.091852	-0.186471	0.0801112	-0.596934	0.111701	-0.154726	0.334359	-0.368554	0.453543	-0.0811542	0.649452	-0.198771	1.1518	-0.0044485	0.404115	-0.326581	0.187052	-0.341974	0.0107917	-0.211834	-0.143304	-0.463821	-0.15486	-0.113119	-0.229	
0.90598	13.0814	0	0	-0.302325	-0.51031	0.389447	-0.572158	-0.612074	-0.273566	-0.130203	0.091536	-0.194296	0.0852245	-0.600687	0.106175	-0.157639	0.326008	-0.372014	0.447055	-0.0853945	0.642204	-0.207057	1.14092	-0.009582	0.39741	-0.326785	0.17333	-0.342579	0.0002035	-0.216665	-0.158821	-0.464923	-0.171677	-0.110107	-0.254591	
0.908185	13.2568	0	0	-0.304152	-0.526017	0.380631	-0.57274	-0.609772	-0.280072	-0.136778	0.09122	-0.202122	0.0903377	-0.60444	0.100648	-0.160552	0.317656	-0.375474	0.440567	-0.0896347	0.634956	-0.215342	1.13005	-0.0147155	0.390705	-0.326989	0.159607	-0.343184	-0.0103848	-0.221496	-0.174338	-0.466024	-0.188495	-0.107096	-0.280181	
0.910779	13.3865	0	0	-0.305978	-0.541724	0.371815	-0.573322	-0.60747	-0.286579	-0.143354	0.090904	-0.209947	0.095451	-0.608193	0.095121	-0.163466	0.309305	-0.378934	0.434079	-0.093875	0.627708	-0.223628	1.11917	-0.019849	0.383999	-0.327193	0.145884	-0.343789	-0.020973	-0.226327	-0.189855	-0.467126	-0.205312	-0.104085	-0.305772	
0.913144	13.4796	0	0	-0.317397	-0.551122	0.360043	-0.590942	-0.620371	-0.293135	-0.143567	0.0726235	-0.221671	0.103112	-0.617524	0.0892672	-0.170191	0.303459	-0.38613	0.430044	-0.0927728	0.614985	-0.221403	1.10147	-0.0191795	0.371509	-0.333977	0.136488	-0.345407	-0.0286897	-0.227315	-0.20163	-0.474678	-0.20388	-0.0946738	-0.31529	
0.914657	13.5406	0	0	-0.328815	-0.56052	0.348271	-0.608561	-0.633271	-0.29969	-0.143779	0.054343	-0.233396	0.110773	-0.626854	0.0834135	-0.176916	0.297613	-0.393327	0.426008	-0.0916705	0.602262	-0.219178	1.08377	-0.01851	0.359019	-0.34076	0.127092	-0.347025	-0.0364065	-0.228303	-0.213406	-0.482229	-0.202448	-0.0852625	-0.324807	
0.9147	13.5712	0	0	-0.340234	-0.569917	0.336498	-0.626181	-0.646172	-0.306246	-0.143991	0.0360625	-0.24512	0.118434	-0.636185	0.0775598	-0.18364	0.291768	-0.400524	0.421972	-0.0905683	0.589538	-0.216953	1.06606	-0.0178405	0.34653	-0.347544	0.117696	-0.348644	-0.0441232	-0.229292	-0.225182	-0.489781	-0.201015	-0.0758512	-0.334324	
0.912679	13.5803	0	0	-0.351652	-0.579315	0.324726	-0.6438	-0.659073	-0.312802	-0.144204	0.017782	-0.256844	0.126095	-0.645516	0.071706	-0.190365	0.285922	-0.40772	0.417937	-0.089466	0.576815	-0.214728	1.04836	-0.017171	0.33404	-0.354327	0.1083	-0.350262	-0.05184	-0.23028	-0.236957	-0.497333	-0.199583	-0.06644	-0.343842	
0.908598	13.5742	0	0	-0.355418	-0.589472	0.307177	-0.644954	-0.656777	-0.31929	-0.155214	0.011194	-0.260748	0.128646	-0.649261	0.0661967	-0.196412	0.286463	-0.416632	0.410674	-0.094626	0.572196	-0.22301	1.03756	-0.0153242	0.328821	-0.354542	0.0946397	-0.351882	-0.0595447	-0.231274	-0.248707	-0.500048	-0.2118	-0.0744155	-0.355446	
0.903039	13.5406	0	0	-0.359183	-0.599628	0.289628	-0.646108	-0.654481	-0.325778	-0.166223	0.004606	-0.264653	0.131198	-0.653005	0.0606875	-0.20246	0.287005	-0.425544	0.403411	-0.099786	0.567577	-0.231292	1.02676	-0.0134775	0.323601	-0.354757	0.0809795	-0.353501	-0.0672495	-0.232267	-0.260456	-0.502763	-0.224016	-0.082391	-0.367051	
0.896609	13.4903	0	0	-0.362949	-0.609784	0.272078	-0.647261	-0.652186	-0.332265	-0.177233	-0.001982	-0.268558	0.133749	-0.656749	0.0551782	-0.208507	0.287547	-0.434455	0.396148	-0.104946	0.562959	-0.239574	1.01596	-0.0116307	0.318381	-0.354971	0.0673192	-0.355121	-0.0749543	-0.23326	-0.272206	-0.505477	-0.236233	-0.0903665	-0.378655	
0.889912	13.4186	0	0	-0.366715	-0.619941	0.254529	-0.648415	-0.64989	-0.338753	-0.188243	-0.00857	-0.272462	0.1363	-0.660494	0.049669	-0.214554	0.288088	-0.443367	0.388885	-0.110106	0.55834	-0.247856	1.00516	-0.009784	0.313162	-0.355186	0.053659	-0.35674	-0.082659	-0.234254	-0.283956	-0.508192	-0.248449	-0.098342	-0.390259	
0.883556	13.3453	0	0	-0.372412	-0.624617	0.254529	-0.648415	-0.667348	-0.33233	-0.205769	-0.0154512	-0.272462	0.1363	-0.649337	0.0503347	-0.21377	0.285871	-0.44409	0.382823	-0.113603	0.558628	-0.251607	1.00437	-0.009784	0.313162	-0.355186	0.053659	-0.35674	-0.082659	-0.227554	-0.288334	-0.488267	-0.264962	-0.0951295	-0.382274	
0.878146	13.269	0	0	-0.378109	-0.629293	0.254529	-0.648415	-0.684806	-0.325906	-0.223296	-0.0223325	-0.272462	0.1363	-0.638181	0.0510005	-0.212985	0.283654	-0.444812	0.376762	-0.117099	0.558917	-0.255359	1.00358	-0.009784	0.313162	-0.355186	0.053659	-0.35674	-0.082659	-0.220854	-0.292712	-0.468342	-0.281474	-0.091917	-0.374289	
0.874268	13.1973	0	0	-0.383805	-0.633969	0.254529	-0.648415	-0.702265	-0.319483	-0.240822	-0.0292138	-0.272462	0.1363	-0.627024	0.0516662	-0.2122	0.281437	-0.445534	0.3707	-0.120596	0.559206	-0.25911	1.0028	-0.009784	0.313162	-0.355186	0.053659	-0.35674	-0.082659	-0.214154	-0.297089	-0.448417	-0.297986	-0.0887045	-0.366303	
0.872073	13.1302	0	0	-0.389502	-0.638645	0.254529	-0.648415	-0.719723	-0.31306	-0.258348	-0.036095	-0.272462	0.1363	-0.615867	0.052332	-0.211416	0.27922	-0.446257	0.364639	-0.124093	0.559494	-0.262862	1.00201	-0.009784	0.313162	-0.355186	0.053659	-0.35674	-0.082659	-0.207454	-0.301467	-0.428492	-0.314499	-0.085492	-0.358318	
0.871278	13.0768	0	0	-0.397123	-0.637861	0.260327	-0.664801	-0.717431	-0.319539	-0.265098	-0.0545323	-0.272462	0.1363	-0.614036	0.0471562	-0.212086	0.272845	-0.448432	0.346496	-0.123174	0.556898	-0.269641	0.987045	-0.0137357	0.313739	-0.352015	0.044697	-0.357748	-0.0798107	-0.20888	-0.297438	-0.455953	-0.296555	-0.091798	-0.357561	
0.871584	13.0402	0	0	-0.404743	-0.637077	0.266125	-0.681188	-0.715139	-0.326017	-0.271848	-0.0729695	-0.272462	0.1363	-0.612204	0.0419805	-0.212757	0.26647	-0.450607	0.328353	-0.122256	0.554303	-0.276419	0.972079	-0.0176875	0.314315	-0.348843	0.035735	-0.358756	-0.0769625	-0.210306	-0.293408	-0.483414	-0.278612	-0.098104	-0.356803	
0.872689	13.0234	0	0	-0.412363	-0.636293	0.271923	-0.697574	-0.712846	-0.332495	-0.278598	-0.0914067	-0.272462	0.1363	-0.610372	0.0368047	-0.213427	0.260095	-0.452781	0.310211	-0.121338	0.551707	-0.283198	0.957113	-0.0216392	0.314892	-0.345672	0.026773	-0.359764	-0.0741142	-0.211731	-0.289379	-0.510875	-0.260668	-0.10441	-0.356046	
0.874294	13.0081	0	0	-0.419984	-0.635509	0.277721	-0.713961	-0.710554	-0.338974	-0.285348	-0.109844	-0.272462	0.1363	-0.608541	0.031629	-0.214097	0.25372	-0.454956	0.292068	-0.120419	0.549111	-0.289977	0.942148	-0.025591	0.315469	-0.342501	0.017811	-0.360772	-0.071266	-0.213157	-0.28535	-0.538336	-0.242724	-0.110716	-0.355288	
0.876097	13.0035	0	0	-0.410433	-0.64175	0.266066	-0.706345	-0.718122	-0.339006	-0.290006	-0.134118	-0.268558	0.133749	-0.601122	0.0267815	-0.211747	0.247079	-0.462853	0.28205	-0.119501	0.546516	-0.295977	0.936392	-0.0197935	0.309676	-0.340917	0.0133335	-0.357136	-0.0692605	-0.202595	-0.286052	-0.529192	-0.248699	-0.10441	-0.356046	
0.877804	13.0035	0	0	-0.400881	-0.647992	0.25441	-0.698729	-0.725691	-0.339037	-0.294664	-0.158392	-0.264653	0.131198	-0.593703	0.021934	-0.209398	0.240438	-0.470751	0.272033	-0.118583	0.543921	-0.301978	0.930635	-0.013996	0.303882	-0.339333	0.008856	-0.353499	-0.067255	-0.192032	-0.286755	-0.520049	-0.254674	-0.098104	-0.356803	
0.879257	13.002	0	0	-0.391329	-0.654233	0.242755	-0.691113	-0.733259	-0.339069	-0.299323	-0.182665	-0.260748	0.128646	-0.586285	0.0170865	-0.207048	0.233798	-0.478648	0.262015	-0.117664	0.541326	-0.307978	0.924879	-0.0081985	0.298089	-0.337748	0.0043785	-0.349863	-0.0652495	-0.18147	-0.287457	-0.510905	-0.260649	-0.091798	-0.357561	
0.880435	12.9898	0	0	-0.381778	-0.660474	0.2311	-0.683497	-0.740827	-0.339101	-0.303981	-0.206939	-0.256844	0.126095	-0.578866	0.012239	-0.204698	0.227157	-0.486545	0.251997	-0.116746	0.538731	-0.313978	0.919123	-0.002401	0.292296	-0.336164	-9.9E-05	-0.346227	-0.063244	-0.170908	-0.288159	-0.501761	-0.266624	-0.085492	-0.358318	
0.881328	12.9684	0	0	-0.337867	-0.638651	0.231025	-0.708574	-0.746098	-0.3456	-0.306316	-0.219032	-0.26389	0.129044	-0.586383	0.00125725	-0.206828	0.216651	-0.492443	0.236386	-0.1219	0.534125	-0.324481	0.903459	0.00036575	0.284477	-0.337977	-0.009231	-0.345218	-0.066094	-0.18147	-0.287457	-0.498548	-0.275704	-0.0980975	-0.356806	
0.881923	12.9456	0	0	-0.293957	-0.616828	0.23095	-0.733652	-0.75137	-0.352098	-0.30865	-0.231124	-0.270935	0.131993	-0.593899	-0.0097245	-0.208959	0.206146	-0.498341	0.220775	-0.127054	0.529518	-0.334983	0.887795	0.0031325	0.276658	-0.33979	-0.018363	-0.34421	-0.068944	-0.192032	-0.286755	-0.495335	-0.284784	-0.110703	-0.355294	
0.882207	12.915	0	0	-0.250047	-0.595005	0.230875	-0.75873	-0.756641	-0.358597	-0.310985	-0.243217	-0.277981	0.134943	-0.601415	-0.0207063	-0.211089	0.19564	-0.504239	0.205164	-0.132207	0.524911	-0.345486	0.872131	0.00589925	0.268839	-0.341603	-0.027495	-0.343202	-0.071794	-0.202595	-0.286052	-0.492122	-0.293865	-0.123309	-0.353781	
0.88217	12.8769	0	0	-0.206136	-0.573182	0.2308	-0.783807	-0.761913	-0.365096	-0.31332	-0.255309	-0.285027	0.137892	-0.608932	-0.031688	-0.21322	0.185135	-0.510137	0.189553	-0.137361	0.520305	-0.355988	0.856467	0.008666	0.26102	-0.343416	-0.036627	-0.342193	-0.074644	-0.213157	-0.28535	-0.488909	-0.302945	-0.135914	-0.352269	
0.8818	12.8342	0	0	0.0620535	-0.735736	0.2308	-0.783807	-0.757343	-0.378011	-0.328413	-0.24998	-0.288928	0.140441	-0.610863	-0.0423217	-0.216133	0.176857	-0.506163	0.178323	-0.138104	0.512825	-0.363448	0.854919	0.00655525	0.256393	-0.345231	-0.0457422	-0.343815	-0.0823413	-0.215582	-0.293054	-0.494843	-0.306042	-0.137573	-0.364615	
0.881179	12.7975	0	0	0.330243	-0.898289	0.2308	-0.783807	-0.752773	-0.390925	-0.343506	-0.244652	-0.292829	0.14299	-0.612794	-0.0529555	-0.219047	0.168579	-0.50219	0.167093	-0.138847	0.505346	-0.370908	0.853371	0.0044445	0.251767	-0.347047	-0.0548575	-0.345438	-0.0900385	-0.218006	-0.300758	-0.500777	-0.309138	-0.139231	-0.376961	
0.880492	12.7579	0	0	0.598433	-1.06084	0.2308	-0.783807	-0.748204	-0.40384	-0.358598	-0.239324	-0.29673	0.145539	-0.614725	-0.0635892	-0.221961	0.160302	-0.498216	0.155863	-0.139589	0.497866	-0.378368	0.851823	0.00233375	0.24714	-0.348862	-0.0639727	-0.34706	-0.0977357	-0.220431	-0.308463	-0.506712	-0.312234	-0.14089	-0.389306	
0.879933	12.7167	0	0	0.866622	-1.2234	0.2308	-0.783807	-0.743634	-0.416755	-0.373691	-0.233995	-0.300631	0.148088	-0.616656	-0.074223	-0.224874	0.152024	-0.494243	0.144633	-0.140332	0.490386	-0.385828	0.850275	0.000223	0.242513	-0.350677	-0.073088	-0.348682	-0.105433	-0.222856	-0.316167	-0.512646	-0.315331	-0.142548	-0.401652	
0.879694	12.677	0	0	0.854538	-1.23241	0.236444	-0.825013	-0.756453	-0.423245	-0.376016	-0.246058	-0.312323	0.155728	-0.620527	-0.0954233	-0.229245	0.139636	-0.504846	0.134327	-0.146396	0.48838	-0.39405	0.839617	-0.00372825	0.243094	-0.359041	-0.0779087	-0.357963	-0.103743	-0.228127	-0.315816	-0.520177	-0.313894	-0.137798	-0.398045	
0.879967	12.6495	0	0	0.842455	-1.24143	0.242088	-0.866219	-0.769273	-0.429735	-0.378342	-0.25812	-0.324016	0.163368	-0.624398	-0.116623	-0.233615	0.127248	-0.515448	0.124021	-0.15246	0.486375	-0.402273	0.82896	-0.0076795	0.243675	-0.367405	-0.0827295	-0.367244	-0.102053	-0.233398	-0.315465	-0.527707	-0.312458	-0.133047	-0.394437	
0.880946	12.6404	0	0	0.830372	-1.25044	0.247732	-0.907425	-0.782092	-0.436225	-0.380667	-0.270182	-0.335709	0.171008	-0.62827	-0.137824	-0.237986	0.11486	-0.526051	0.113714	-0.158523	0.48437	-0.410496	0.818302	-0.0116308	0.244256	-0.375768	-0.0875502	-0.376525	-0.100364	-0.238669	-0.315115	-0.535238	-0.311022	-0.128297	-0.390829	
0.882818	12.6541	0	0	0.818288	-1.25946	0.253376	-0.948631	-0.794911	-0.442715	-0.382993	-0.282245	-0.347401	0.178648	-0.632141	-0.159024	-0.242357	0.102472	-0.536654	0.103408	-0.164587	0.482364	-0.418718	0.807644	-0.015582	0.244837	-0.384132	-0.092371	-0.385806	-0.098674	-0.24394	-0.314764	-0.542768	-0.309585	-0.123546	-0.387222	
0.885535	12.7014	0	0	0.739156	-1.22883	0.244637	-0.949154	-0.792633	-0.449152	-0.380912	-0.288126	-0.346639	0.176496	-0.634081	-0.16959	-0.246827	0.098628	-0.540098	0.0970572	-0.164416	0.472318	-0.423212	0.797783	-0.0176903	0.240216	-0.387521	-0.097005	-0.392058	-0.105513	-0.241094	-0.322806	-0.548687	-0.31268	-0.131501	-0.39879	
0.888723	12.7762	0	0	0.660023	-1.1982	0.235898	-0.949677	-0.790356	-0.455588	-0.378831	-0.294007	-0.345878	0.174345	-0.636021	-0.180156	-0.251297	0.094784	-0.543543	0.0907065	-0.164245	0.462272	-0.427707	0.787923	-0.0197985	0.235594	-0.39091	-0.101639	-0.398309	-0.112352	-0.238249	-0.330848	-0.554607	-0.315775	-0.139456	-0.410359	
0.891982	12.8647	0	0	0.58089	-1.16758	0.227159	-0.950199	-0.788079	-0.462025	-0.37675	-0.299889	-0.345117	0.172193	-0.637961	-0.190723	-0.255766	0.09094	-0.546987	0.0843558	-0.164075	0.452226	-0.432201	0.778063	-0.0219068	0.230973	-0.3943	-0.106273	-0.404561	-0.119191	-0.235403	-0.33889	-0.560527	-0.318871	-0.147411	-0.421927	
0.894916	12.9623	0	0	0.501758	-1.13695	0.21842	-0.950722	-0.785801	-0.468461	-0.374669	-0.30577	-0.344355	0.170041	-0.639901	-0.201289	-0.260236	0.087096	-0.550431	0.078005	-0.163904	0.44218	-0.436696	0.768202	-0.024015	0.226352	-0.397689	-0.110907	-0.410813	-0.12603	-0.232558	-0.346932	-0.566446	-0.321966	-0.155366	-0.433495	
0.897126	13.0478	0	0	0.441036	-1.11409	0.21842	-0.950722	-0.783525	-0.474893	-0.366092	-0.311374	-0.344355	0.170041	-0.645468	-0.201592	-0.263247	0.0873735	-0.556839	0.0800433	-0.162077	0.437017	-0.447068	0.774979	-0.020986	0.228372	-0.392723	-0.110728	-0.409808	-0.128869	-0.239247	-0.342561	-0.566446	-0.321966	-0.152162	-0.425534	
0.898213	13.1226	0	0	0.380314	-1.09123	0.21842	-0.950722	-0.781249	-0.481325	-0.357515	-0.316978	-0.344355	0.170041	-0.651036	-0.201895	-0.266258	0.087651	-0.563246	0.0820815	-0.16025	0.431853	-0.45744	0.781756	-0.017957	0.230391	-0.387757	-0.110549	-0.408803	-0.131709	-0.245937	-0.33819	-0.566446	-0.321966	-0.148957	-0.417574	
0.897781	13.1958	0	0	0.319591	-1.06837	0.21842	-0.950722	-0.778974	-0.487756	-0.348939	-0.322583	-0.344355	0.170041	-0.656603	-0.202197	-0.269269	0.0879285	-0.569654	0.0841197	-0.158423	0.426689	-0.467812	0.788534	-0.014928	0.23241	-0.382792	-0.110371	-0.407799	-0.134548	-0.252626	-0.333819	-0.566446	-0.321966	-0.145753	-0.409613	
0.895698	13.2385	0	0	0.258869	-1.04551	0.21842	-0.950722	-0.776698	-0.494188	-0.340362	-0.328187	-0.344355	0.170041	-0.66217	-0.2025	-0.27228	0.088206	-0.576061	0.086158	-0.156596	0.421526	-0.478184	0.795311	-0.011899	0.23443	-0.377826	-0.110192	-0.406794	-0.137387	-0.259315	-0.329448	-0.566446	-0.321966	-0.142548	-0.401652	
0.892438	13.2629	0	0	0.214163	-1.02469	0.203959	-0.93504	-0.776698	-0.494188	-0.35102	-0.316702	-0.344355	0.170041	-0.66217	-0.2025	-0.268491	0.0857303	-0.572364	0.083742	-0.15917	0.41924	-0.473774	0.782847	-0.0061065	0.228646	-0.37625	-0.114645	-0.409416	-0.142217	-0.261736	-0.33713	-0.561645	-0.335535	-0.142671	-0.418322	
0.888558	13.2614	0	0	0.169457	-1.00388	0.189497	-0.919358	-0.776698	-0.494188	-0.361677	-0.305216	-0.344355	0.170041	-0.66217	-0.2025	-0.264703	0.0832545	-0.568666	0.081326	-0.161743	0.416954	-0.469363	0.770383	-0.000314	0.222861	-0.374675	-0.119098	-0.412039	-0.147048	-0.264157	-0.344812	-0.556844	-0.349104	-0.142794	-0.434991	
0.884617	13.2523	0	0	0.12475	-0.983057	0.175036	-0.903675	-0.776698	-0.494188	-0.372335	-0.293731	-0.344355	0.170041	-0.66217	-0.2025	-0.260914	0.0807787	-0.564969	0.07891	-0.164317	0.414668	-0.464953	0.757919	0.0054785	0.217077	-0.3731	-0.123552	-0.414662	-0.151878	-0.266577	-0.352493	-0.552043	-0.362673	-0.142918	-0.451661	
0.881173	13.2141	0	0	0.080044	-0.962238	0.160575	-0.887993	-0.776698	-0.494188	-0.382993	-0.282245	-0.344355	0.170041	-0.66217	-0.2025	-0.257125	0.078303	-0.561272	0.076494	-0.16689	0.412382	-0.460543	0.745455	0.011271	0.211292	-0.371524	-0.128005	-0.417284	-0.156709	-0.268998	-0.360175	-0.547242	-0.376242	-0.143041	-0.46833	
0.878783	13.1729	0	0	0.0433155	-0.942432	0.175153	-0.878785	-0.776698	-0.494188	-0.378582	-0.276075	-0.336562	0.164949	-0.660233	-0.191938	-0.253433	0.0843452	-0.556108	0.0860215	-0.168716	0.417543	-0.459769	0.754532	0.008509	0.219097	-0.369707	-0.118917	-0.418287	-0.153872	-0.265155	-0.356512	-0.541318	-0.373161	-0.136749	-0.469095	
0.878005	13.121	0	0	0.006587	-0.922626	0.189731	-0.869578	-0.776698	-0.494188	-0.374172	-0.269906	-0.328769	0.159857	-0.658296	-0.181376	-0.249741	0.0903875	-0.550944	0.095549	-0.170542	0.422703	-0.458995	0.763608	0.005747	0.226903	-0.367889	-0.109828	-0.419291	-0.151036	-0.261313	-0.352848	-0.535393	-0.370079	-0.130457	-0.469859	
0.879132	13.063	0	0	-0.0301415	-0.902819	0.20431	-0.86037	-0.776698	-0.494188	-0.369761	-0.263736	-0.320976	0.154764	-0.656359	-0.170815	-0.246049	0.0964297	-0.54578	0.105077	-0.172368	0.427864	-0.458221	0.772684	0.002985	0.234708	-0.366072	-0.100739	-0.420295	-0.148199	-0.257471	-0.349185	-0.529469	-0.366998	-0.124165	-0.470623	
0.881812	13.0081	0	0	-0.06687	-0.883013	0.218888	-0.851162	-0.776698	-0.494188	-0.365351	-0.257566	-0.313183	0.149672	-0.654422	-0.160253	-0.242357	0.102472	-0.540616	0.114604	-0.174194	0.433024	-0.457447	0.781761	0.000223	0.242513	-0.364255	-0.091651	-0.421298	-0.145363	-0.253628	-0.345521	-0.523544	-0.363916	-0.117873	-0.471388	
0.885597	12.9471	0	0	-0.0842052	-0.875876	0.20728	-0.843577	-0.776698	-0.494188	-0.365351	-0.257566	-0.310045	0.149276	-0.652606	-0.165384	-0.240121	0.104396	-0.542598	0.120205	-0.173281	0.430444	-0.457447	0.781761	0.005098	0.239328	-0.369224	-0.091831	-0.416668	-0.146207	-0.252207	-0.349538	-0.521944	-0.368439	-0.122625	-0.474974	
0.890039	12.8891	0	0	-0.101541	-0.868739	0.195672	-0.835992	-0.776698	-0.494188	-0.365351	-0.257566	-0.306907	0.14888	-0.650791	-0.170515	-0.237885	0.106319	-0.544579	0.125806	-0.172368	0.427863	-0.457447	0.781761	0.009973	0.236143	-0.374193	-0.092011	-0.412038	-0.147052	-0.250785	-0.353554	-0.520343	-0.372962	-0.127378	-0.478561	
0.894689	12.8342	0	0	-0.118876	-0.861602	0.184064	-0.828408	-0.776698	-0.494188	-0.365351	-0.257566	-0.303769	0.148484	-0.648975	-0.175646	-0.235649	0.108242	-0.546561	0.131407	-0.171454	0.425283	-0.457447	0.781761	0.014848	0.232957	-0.379163	-0.092191	-0.407407	-0.147896	-0.249364	-0.357571	-0.518742	-0.377485	-0.132131	-0.482148	
0.899099	12.7869	0	0	-0.136211	-0.854465	0.172456	-0.820823	-0.776698	-0.494188	-0.365351	-0.257566	-0.300631	0.148088	-0.64716	-0.180777	-0.233413	0.110166	-0.548543	0.137008	-0.170541	0.422702	-0.457447	0.781761	0.019723	0.229772	-0.384132	-0.092371	-0.402777	-0.14874	-0.247943	-0.361587	-0.517142	-0.382008	-0.136883	-0.485734	
0.902821	12.7396	0	0	-0.155432	-0.841906	0.169577	-0.812686	-0.778974	-0.487756	-0.356765	-0.263176	-0.292827	0.142989	-0.636012	-0.180169	-0.229718	0.116221	-0.541394	0.140956	-0.162653	0.419532	-0.456676	0.790853	0.0169588	0.237584	-0.379163	-0.092191	-0.399148	-0.146747	-0.249364	-0.357571	-0.517142	-0.382008	-0.129051	-0.490852	
0.905508	12.6938	0	0	-0.174652	-0.829346	0.166697	-0.804548	-0.781249	-0.481325	-0.34818	-0.268786	-0.285023	0.137889	-0.624864	-0.179562	-0.226023	0.122275	-0.534245	0.144905	-0.154765	0.416362	-0.455904	0.799945	0.0141945	0.245396	-0.374193	-0.092011	-0.395519	-0.144753	-0.250785	-0.353554	-0.517142	-0.382008	-0.121218	-0.49597	
0.907294	12.6587	0	0	-0.193873	-0.816787	0.163818	-0.796411	-0.783525	-0.474893	-0.339595	-0.274395	-0.27722	0.13279	-0.613716	-0.178955	-0.222327	0.12833	-0.527097	0.148853	-0.146877	0.413191	-0.455133	0.809037	0.0114302	0.253208	-0.369224	-0.091831	-0.39189	-0.14276	-0.252207	-0.349538	-0.517142	-0.382008	-0.113386	-0.501087	
0.908452	12.619	0	0	-0.213094	-0.804228	0.160939	-0.788274	-0.785801	-0.468461	-0.331009	-0.280005	-0.269416	0.127691	-0.602568	-0.178347	-0.218632	0.134384	-0.519948	0.152802	-0.138989	0.410021	-0.454362	0.818129	0.008666	0.26102	-0.364255	-0.091651	-0.388261	-0.140766	-0.253628	-0.345521	-0.517142	-0.382008	-0.105553	-0.506205	
0.90926	12.587	0	0	-0.230344	-0.797144	0.157977	-0.805089	-0.775976	-0.474881	-0.337511	-0.280284	-0.269416	0.127691	-0.606329	-0.183781	-0.217852	0.13218	-0.520679	0.146814	-0.143391	0.412897	-0.461023	0.825683	0.0095875	0.258415	-0.370802	-0.0873735	-0.38463	-0.138771	-0.256472	-0.337483	-0.526266	-0.376046	-0.103876	-0.493911	
0.909991	12.558	0	0	-0.247594	-0.79006	0.155014	-0.821904	-0.766151	-0.481301	-0.344012	-0.280563	-0.269416	0.127691	-0.61009	-0.189216	-0.217073	0.129975	-0.52141	0.140825	-0.147792	0.415774	-0.467684	0.833237	0.010509	0.25581	-0.377348	-0.083096	-0.380998	-0.136776	-0.259317	-0.329445	-0.535391	-0.370084	-0.1022	-0.481616	
0.910921	12.5305	0	0	-0.264845	-0.782976	0.152052	-0.838718	-0.756326	-0.487721	-0.350514	-0.280843	-0.269416	0.127691	-0.613851	-0.19465	-0.216293	0.127771	-0.522141	0.134837	-0.152194	0.41865	-0.474345	0.840791	0.0114305	0.253206	-0.383894	-0.0788185	-0.377366	-0.134782	-0.262161	-0.321406	-0.544516	-0.364121	-0.100524	-0.469322	
0.912326	12.5046	0	0	-0.282095	-0.775892	0.14909	-0.855533	-0.746501	-0.494141	-0.357016	-0.281122	-0.269416	0.127691	-0.617612	-0.200084	-0.215513	0.125566	-0.522872	0.128849	-0.156596	0.421526	-0.481006	0.848345	0.012352	0.250601	-0.390441	-0.074541	-0.373735	-0.132787	-0.265005	-0.313368	-0.55364	-0.358159	-0.098847	-0.457027	
0.914453	12.4802	0	0	-0.249522	-0.763602	0.14909	-0.855533	-0.756326	-0.487721	-0.357016	-0.281122	-0.265512	0.12514	-0.617612	-0.200084	-0.212494	0.125288	-0.523864	0.131652	-0.152194	0.41865	-0.477293	0.849122	0.016308	0.250019	-0.388864	-0.0789985	-0.371725	-0.138468	-0.262161	-0.321406	-0.542916	-0.368642	-0.109896	-0.459853	
0.917213	12.4634	0	0	-0.216949	-0.751313	0.14909	-0.855533	-0.766151	-0.481301	-0.357016	-0.281122	-0.261607	0.122588	-0.617612	-0.200084	-0.209475	0.12501	-0.524855	0.134454	-0.147792	0.415774	-0.473579	0.849899	0.020264	0.249437	-0.387286	-0.083456	-0.369715	-0.144149	-0.259317	-0.329445	-0.532192	-0.379124	-0.120944	-0.462678	
0.920285	12.4451	0	0	-0.184377	-0.739023	0.14909	-0.855533	-0.775976	-0.474881	-0.357016	-0.281122	-0.257703	0.120037	-0.617612	-0.200084	-0.206455	0.124732	-0.525847	0.137257	-0.143391	0.412897	-0.469866	0.850675	0.02422	0.248854	-0.385709	-0.0879135	-0.367705	-0.14983	-0.256472	-0.337483	-0.521468	-0.389607	-0.131993	-0.465504	
0.923338	12.4283	0	0	-0.151804	-0.726733	0.14909	-0.855533	-0.785801	-0.468461	-0.357016	-0.281122	-0.253798	0.117486	-0.617612	-0.200084	-0.203436	0.124454	-0.526839	0.14006	-0.138989	0.410021	-0.466153	0.851452	0.028176	0.248272	-0.384132	-0.092371	-0.365695	-0.155511	-0.253628	-0.345521	-0.510744	-0.40009	-0.143041	-0.46833	
0.926045	12.4023	0	0	-0.128717	-0.708079	0.134559	-0.864737	-0.785801	-0.468461	-0.372078	-0.275804	-0.253798	0.117486	-0.624999	-0.195257	-0.207235	0.126937	-0.527831	0.142863	-0.139902	0.412603	-0.460962	0.84806	0.0272543	0.250877	-0.385709	-0.0879135	-0.36469	-0.15835	-0.253628	-0.345521	-0.518269	-0.398646	-0.127369	-0.47857	
0.928079	12.3871	0	0	-0.105631	-0.689426	0.120028	-0.873942	-0.785801	-0.468461	-0.387141	-0.270486	-0.253798	0.117486	-0.632386	-0.190431	-0.211034	0.129419	-0.528823	0.145667	-0.140815	0.415184	-0.455771	0.844669	0.0263325	0.253483	-0.387286	-0.083456	-0.363685	-0.161189	-0.253628	-0.345521	-0.525795	-0.397203	-0.111698	-0.488811	
0.929111	12.3749	0	0	-0.0825445	-0.670772	0.105496	-0.883147	-0.785801	-0.468461	-0.402204	-0.265169	-0.253798	0.117486	-0.639773	-0.185604	-0.214833	0.131902	-0.529815	0.148471	-0.141729	0.417766	-0.450581	0.841277	0.0254107	0.256088	-0.388864	-0.0789985	-0.362681	-0.164029	-0.253628	-0.345521	-0.533321	-0.395759	-0.0960257	-0.499051	
0.928813	12.3596	0	0	-0.059458	-0.652119	0.090965	-0.892351	-0.785801	-0.468461	-0.417266	-0.259851	-0.253798	0.117486	-0.64716	-0.180777	-0.218632	0.134384	-0.530807	0.151274	-0.142642	0.420347	-0.44539	0.837885	0.024489	0.258694	-0.390441	-0.074541	-0.361676	-0.166868	-0.253628	-0.345521	-0.540846	-0.394315	-0.080354	-0.509291	
0.927025	12.3489	0	0	-0.032365	-0.644409	0.090965	-0.892351	-0.778253	-0.468445	-0.41078	-0.259564	-0.249892	0.114933	-0.64716	-0.180777	-0.214833	0.131902	-0.529815	0.148471	-0.142642	0.420347	-0.441671	0.83866	0.0235668	0.2613	-0.388864	-0.0789985	-0.364306	-0.171694	-0.254631	-0.357209	-0.554275	-0.395951	-0.089872	-0.516442	
0.923946	12.3413	0	0	-0.005272	-0.636699	0.090965	-0.892351	-0.770706	-0.468428	-0.404295	-0.259278	-0.245986	0.112381	-0.64716	-0.180777	-0.211034	0.129419	-0.528823	0.145667	-0.142642	0.420347	-0.437952	0.839434	0.0226445	0.263906	-0.387286	-0.083456	-0.366935	-0.176519	-0.255634	-0.368896	-0.567703	-0.397587	-0.09939	-0.523594	
0.919825	12.3306	0	0	0.021821	-0.628989	0.090965	-0.892351	-0.763158	-0.468411	-0.397809	-0.258992	-0.242079	0.109828	-0.64716	-0.180777	-0.207235	0.126937	-0.527831	0.142863	-0.142642	0.420347	-0.434233	0.840209	0.0217222	0.266513	-0.385709	-0.0879135	-0.369565	-0.181345	-0.256638	-0.380583	-0.581132	-0.399224	-0.108908	-0.530745	
0.914908	12.3184	0	0	0.048914	-0.621279	0.090965	-0.892351	-0.75561	-0.468395	-0.391323	-0.258705	-0.238173	0.107276	-0.64716	-0.180777	-0.203436	0.124454	-0.526839	0.14006	-0.142642	0.420347	-0.430514	0.840983	0.0208	0.269119	-0.384132	-0.092371	-0.372195	-0.186171	-0.257641	-0.392271	-0.59456	-0.40086	-0.118426	-0.537896	
0.909443	12.3093	0	0	0.025659	-0.618802	0.088099	-0.884251	-0.767714	-0.455534	-0.391323	-0.258705	-0.235026	0.106874	-0.648975	-0.175646	-0.208795	0.131347	-0.527102	0.148857	-0.143556	0.422929	-0.426793	0.841758	0.0198775	0.271726	-0.384132	-0.092371	-0.370189	-0.191841	-0.257641	-0.392271	-0.592965	-0.405369	-0.113669	-0.534322	
0.903678	12.3108	0	0	0.002404	-0.616326	0.085233	-0.87615	-0.779819	-0.442673	-0.391323	-0.258705	-0.23188	0.106473	-0.650791	-0.170515	-0.214155	0.138239	-0.527365	0.157654	-0.14447	0.425511	-0.423072	0.842532	0.018955	0.274334	-0.384132	-0.092371	-0.368182	-0.197511	-0.257641	-0.392271	-0.591369	-0.409879	-0.108912	-0.530749	
0.897861	12.3032	0	0	-0.020851	-0.613849	0.082367	-0.868049	-0.791924	-0.429811	-0.391323	-0.258705	-0.228733	0.106071	-0.652606	-0.165384	-0.219515	0.145131	-0.527627	0.166451	-0.145383	0.428093	-0.41935	0.843306	0.0180325	0.276941	-0.384132	-0.092371	-0.366176	-0.203181	-0.257641	-0.392271	-0.589773	-0.414388	-0.104155	-0.527175	
0.892219	12.3047	0	0	-0.044106	-0.611372	0.079501	-0.859949	-0.804028	-0.41695	-0.391323	-0.258705	-0.225586	0.10567	-0.654422	-0.160253	-0.224874	0.152024	-0.52789	0.175248	-0.146297	0.430675	-0.415629	0.844081	0.01711	0.279548	-0.384132	-0.092371	-0.36417	-0.208851	-0.257641	-0.392271	-0.588178	-0.418897	-0.099398	-0.523601	
0.886904	12.3062	0	0	-0.057614	-0.61524	0.079501	-0.859949	-0.796484	-0.416924	-0.391323	-0.258705	-0.225586	0.10567	-0.652606	-0.165384	-0.220295	0.147336	-0.523188	0.170018	-0.140979	0.425215	-0.420826	0.847477	0.0219902	0.276359	-0.382555	-0.0968263	-0.366801	-0.213666	-0.260066	-0.399929	-0.594085	-0.421965	-0.107372	-0.535083	
0.88205	12.3016	0	0	-0.071122	-0.619109	0.079501	-0.859949	-0.788939	-0.416899	-0.391323	-0.258705	-0.225586	0.10567	-0.650791	-0.170515	-0.215716	0.142649	-0.518487	0.164789	-0.135661	0.419755	-0.426023	0.850872	0.0268705	0.27317	-0.380979	-0.101281	-0.369432	-0.218481	-0.262491	-0.407587	-0.599992	-0.425034	-0.115347	-0.546565	
0.877791	12.2986	0	0	-0.08463	-0.622977	0.079501	-0.859949	-0.781394	-0.416873	-0.391323	-0.258705	-0.225586	0.10567	-0.648975	-0.175646	-0.211136	0.137961	-0.513786	0.159559	-0.130344	0.414296	-0.43122	0.854268	0.0317507	0.269981	-0.379402	-0.105737	-0.372062	-0.223295	-0.264916	-0.415245	-0.605898	-0.428103	-0.123322	-0.558047	
0.874261	12.2971	0	0	-0.098138	-0.626845	0.079501	-0.859949	-0.77385	-0.416847	-0.391323	-0.258705	-0.225586	0.10567	-0.64716	-0.180777	-0.206557	0.133273	-0.509084	0.15433	-0.125026	0.408836	-0.436417	0.857664	0.036631	0.266792	-0.377826	-0.110192	-0.374693	-0.22811	-0.267341	-0.422903	-0.611805	-0.431171	-0.131296	-0.569529	
0.871594	12.2848	0	0	-0.102032	-0.61584	0.0853218	-0.85128	-0.77385	-0.416847	-0.386915	-0.252528	-0.225586	0.10567	-0.648975	-0.175646	-0.206557	0.133273	-0.51107	0.159943	-0.12594	0.411418	-0.428973	0.859217	0.0357082	0.2694	-0.379402	-0.105737	-0.378324	-0.23009	-0.267341	-0.422903	-0.60271	-0.437114	-0.139114	-0.564421	
0.869926	12.2772	0	0	-0.105926	-0.604835	0.0911425	-0.842612	-0.77385	-0.416847	-0.382507	-0.24635	-0.225586	0.10567	-0.650791	-0.170515	-0.206557	0.133273	-0.513056	0.165556	-0.126854	0.414	-0.421529	0.860769	0.0347855	0.272007	-0.380979	-0.101281	-0.381955	-0.232069	-0.267341	-0.422903	-0.593614	-0.443057	-0.146932	-0.559312	
0.869319	12.2726	0	0	-0.10982	-0.59383	0.0969633	-0.833943	-0.77385	-0.416847	-0.378099	-0.240173	-0.225586	0.10567	-0.652606	-0.165384	-0.206557	0.133273	-0.515042	0.17117	-0.127767	0.416583	-0.414085	0.862321	0.0338627	0.274615	-0.382555	-0.0968263	-0.385586	-0.234049	-0.267341	-0.422903	-0.584519	-0.449001	-0.15475	-0.554204	
0.869609	12.2681	0	0	-0.113714	-0.582825	0.102784	-0.825275	-0.77385	-0.416847	-0.373691	-0.233995	-0.225586	0.10567	-0.654422	-0.160253	-0.206557	0.133273	-0.517028	0.176783	-0.128681	0.419165	-0.406641	0.863874	0.03294	0.277223	-0.384132	-0.092371	-0.389217	-0.236029	-0.267341	-0.422903	-0.575423	-0.454944	-0.162568	-0.549096	
0.870584	12.2665	0	0	-0.109894	-0.572611	0.117232	-0.840955	-0.766296	-0.416824	-0.373691	-0.233995	-0.224825	0.103518	-0.652606	-0.165384	-0.204997	0.128864	-0.509347	0.163136	-0.128681	0.419165	-0.410364	0.863098	0.03294	0.277223	-0.38098	-0.101279	-0.382582	-0.24254	-0.269767	-0.430549	-0.590419	-0.452067	-0.156435	-0.566429	
0.872029	12.2803	0	0	-0.106074	-0.562396	0.13168	-0.856634	-0.758742	-0.416801	-0.373691	-0.233995	-0.224063	0.101365	-0.650791	-0.170515	-0.203437	0.124455	-0.501665	0.149488	-0.128681	0.419165	-0.414087	0.862321	0.03294	0.277223	-0.377828	-0.110188	-0.375946	-0.249051	-0.272192	-0.438194	-0.605414	-0.449189	-0.150303	-0.583761	
0.873734	12.3093	0	0	-0.102254	-0.552181	0.146127	-0.872313	-0.751188	-0.416778	-0.373691	-0.233995	-0.223301	0.0992133	-0.648975	-0.175646	-0.201877	0.120046	-0.493984	0.135841	-0.128681	0.419165	-0.417811	0.861545	0.03294	0.277223	-0.374676	-0.119097	-0.369311	-0.255561	-0.274617	-0.445839	-0.62041	-0.446311	-0.14417	-0.601094	
0.875485	12.355	0	0	-0.098434	-0.541967	0.160575	-0.887993	-0.743634	-0.416755	-0.373691	-0.233995	-0.22254	0.097061	-0.64716	-0.180777	-0.200317	0.115637	-0.486303	0.122194	-0.128681	0.419165	-0.421534	0.860769	0.03294	0.277223	-0.371524	-0.128005	-0.362676	-0.262072	-0.277043	-0.453485	-0.635406	-0.443434	-0.138037	-0.618426	
0.877069	12.4145	0	0	-0.0771753	-0.538874	0.160575	-0.887993	-0.745918	-0.4103	-0.365106	-0.239605	-0.22254	0.097061	-0.64716	-0.180777	-0.201097	0.117841	-0.491998	0.130228	-0.128681	0.419165	-0.417811	0.861545	0.03294	0.277223	-0.369949	-0.132456	-0.363677	-0.259243	-0.277043	-0.453485	-0.627912	-0.444871	-0.145848	-0.613322	
0.878325	12.4695	0	0	-0.0559165	-0.535781	0.160575	-0.887993	-0.748202	-0.403845	-0.356521	-0.245215	-0.22254	0.097061	-0.64716	-0.180777	-0.201877	0.120045	-0.497694	0.138262	-0.128681	0.419165	-0.414087	0.862321	0.03294	0.277223	-0.368374	-0.136906	-0.364678	-0.256414	-0.277043	-0.453485	-0.620419	-0.446307	-0.153659	-0.608218	
0.879264	12.5198	0	0	-0.0346577	-0.532688	0.160575	-0.887993	-0.750486	-0.39739	-0.347935	-0.250824	-0.22254	0.097061	-0.64716	-0.180777	-0.202656	0.12225	-0.503389	0.146296	-0.128681	0.419165	-0.410364	0.863098	0.03294	0.277223	-0.366799	-0.141357	-0.365679	-0.253584	-0.277043	-0.453485	-0.612926	-0.447744	-0.161469	-0.603115	
0.879939	12.5565	0	0	-0.013399	-0.529595	0.160575	-0.887993	-0.75277	-0.390935	-0.33935	-0.256434	-0.22254	0.097061	-0.64716	-0.180777	-0.203436	0.124454	-0.509084	0.15433	-0.128681	0.419165	-0.406641	0.863874	0.03294	0.277223	-0.365224	-0.145808	-0.36668	-0.250755	-0.277043	-0.453485	-0.605432	-0.449181	-0.16928	-0.598011	
0.880399	12.5763	0	0	0.005977	-0.520966	0.154733	-0.896637	-0.750486	-0.39739	-0.34585	-0.256717	-0.22254	0.097061	-0.652726	-0.181082	-0.201097	0.117843	-0.510548	0.142357	-0.127767	0.416583	-0.411841	0.867272	0.03294	0.277223	-0.371765	-0.141534	-0.374318	-0.241412	-0.278458	-0.449485	-0.607025	-0.444678	-0.173879	-0.585015	
0.880695	12.59	0	0	0.025353	-0.512338	0.148892	-0.90528	-0.748202	-0.403845	-0.352351	-0.257	-0.22254	0.097061	-0.658292	-0.181388	-0.198758	0.111231	-0.512013	0.130385	-0.126854	0.414	-0.417041	0.87067	0.03294	0.277223	-0.378306	-0.137259	-0.381955	-0.232069	-0.279874	-0.445485	-0.608618	-0.440176	-0.178477	-0.572018	
0.880879	12.5824	0	0	0.044729	-0.50371	0.14305	-0.913923	-0.745918	-0.4103	-0.358851	-0.257283	-0.22254	0.097061	-0.663857	-0.181694	-0.196418	0.10462	-0.513478	0.118412	-0.12594	0.411418	-0.422242	0.874068	0.03294	0.277223	-0.384848	-0.132985	-0.389593	-0.222727	-0.281289	-0.441484	-0.610212	-0.435674	-0.183076	-0.559022	
0.881	12.5748	0	0	0.064105	-0.495081	0.137209	-0.922567	-0.743634	-0.416755	-0.365351	-0.257566	-0.22254	0.097061	-0.669423	-0.181999	-0.194079	0.098009	-0.514942	0.106439	-0.125026	0.408836	-0.427442	0.877466	0.03294	0.277223	-0.391389	-0.128711	-0.39723	-0.213384	-0.282705	-0.437484	-0.611805	-0.431171	-0.187674	-0.546026	
0.881091	12.5549	0	0	0.0757495	-0.485611	0.148786	-0.930131	-0.745918	-0.4103	-0.354682	-0.269065	-0.22254	0.097061	-0.66761	-0.187124	-0.195541	0.0938853	-0.510244	0.101217	-0.124113	0.406254	-0.420765	0.869894	0.03294	0.277223	-0.389815	-0.133159	-0.393225	-0.224703	-0.286543	-0.441125	-0.610212	-0.435674	-0.181544	-0.56335	
0.881111	12.5336	0	0	0.087394	-0.47614	0.160362	-0.937696	-0.748202	-0.403845	-0.344012	-0.280564	-0.22254	0.097061	-0.665797	-0.19225	-0.197002	0.0897615	-0.505547	0.0959945	-0.123199	0.403673	-0.414087	0.862322	0.03294	0.277223	-0.388241	-0.137608	-0.38922	-0.236021	-0.290381	-0.444766	-0.608618	-0.440176	-0.175415	-0.580674	
0.880999	12.5015	0	0	0.0990385	-0.46667	0.171938	-0.945261	-0.750486	-0.39739	-0.333343	-0.292062	-0.22254	0.097061	-0.663983	-0.197375	-0.198463	0.0856377	-0.500849	0.0907722	-0.122286	0.401091	-0.40741	0.85475	0.03294	0.277223	-0.386667	-0.142057	-0.385215	-0.24734	-0.29422	-0.448408	-0.607025	-0.444678	-0.169285	-0.597998	
0.880696	12.471	0	0	0.110683	-0.457199	0.183515	-0.952825	-0.75277	-0.390935	-0.322674	-0.303561	-0.22254	0.097061	-0.66217	-0.2025	-0.199925	0.081514	-0.496151	0.08555	-0.121373	0.39851	-0.400733	0.847178	0.03294	0.277223	-0.385093	-0.146505	-0.38121	-0.258659	-0.298058	-0.452049	-0.605432	-0.449181	-0.163155	-0.615322	
0.88014	12.439	0	0	0.128196	-0.442944	0.163241	-0.945799	-0.75277	-0.390935	-0.329177	-0.303836	-0.22254	0.097061	-0.665798	-0.192247	-0.203722	0.0839953	-0.50184	0.093573	-0.122286	0.401091	-0.399963	0.856306	0.032017	0.279832	-0.383276	-0.137427	-0.387841	-0.252152	-0.298058	-0.452049	-0.599524	-0.446117	-0.167751	-0.602332	
0.879273	12.4161	0	0	0.145709	-0.428689	0.142967	-0.938774	-0.75277	-0.390935	-0.33568	-0.304111	-0.22254	0.097061	-0.669426	-0.181994	-0.207519	0.0864765	-0.507529	0.101596	-0.123199	0.403673	-0.399193	0.865434	0.031094	0.28244	-0.38146	-0.128349	-0.394473	-0.245644	-0.298058	-0.452049	-0.593615	-0.443053	-0.172347	-0.589342	
0.878035	12.3978	0	0	0.163223	-0.414434	0.122694	-0.931748	-0.75277	-0.390935	-0.342183	-0.304387	-0.22254	0.097061	-0.673054	-0.17174	-0.211317	0.0889578	-0.513217	0.109619	-0.124113	0.406254	-0.398422	0.874563	0.030171	0.285049	-0.379643	-0.11927	-0.401104	-0.239137	-0.298058	-0.452049	-0.587707	-0.439989	-0.176944	-0.576352	
0.876377	12.3825	0	0	0.180736	-0.400179	0.10242	-0.924722	-0.75277	-0.390935	-0.348686	-0.304662	-0.22254	0.097061	-0.676682	-0.161487	-0.215114	0.091439	-0.518906	0.117642	-0.125026	0.408836	-0.397652	0.883691	0.029248	0.287658	-0.377826	-0.110192	-0.407735	-0.23263	-0.298058	-0.452049	-0.581799	-0.436925	-0.18154	-0.563362	
0.874308	12.3795	0	0	0.186586	-0.395414	0.113981	-0.932276	-0.75277	-0.390935	-0.350768	-0.298777	-0.22254	0.097061	-0.671117	-0.161179	-0.212096	0.0911592	-0.515458	0.124009	-0.12594	0.411418	-0.397652	0.883691	0.033208	0.287077	-0.377826	-0.110192	-0.409361	-0.240261	-0.301894	-0.455686	-0.587707	-0.439989	-0.175413	-0.580678	
0.871851	12.3749	0	0	0.192437	-0.390649	0.125542	-0.939831	-0.75277	-0.390935	-0.352851	-0.292892	-0.22254	0.097061	-0.665552	-0.16087	-0.209077	0.0908795	-0.51201	0.130375	-0.126854	0.414	-0.397652	0.883691	0.037168	0.286495	-0.377826	-0.110192	-0.410986	-0.247892	-0.305729	-0.459324	-0.593615	-0.443053	-0.169286	-0.597994	
0.869028	12.3734	0	0	0.198287	-0.385885	0.137103	-0.947385	-0.75277	-0.390935	-0.354934	-0.287007	-0.22254	0.097061	-0.659987	-0.160561	-0.206059	0.0905998	-0.508561	0.136742	-0.127767	0.416583	-0.397652	0.883691	0.041128	0.285913	-0.377826	-0.110192	-0.412612	-0.255524	-0.309565	-0.462961	-0.599524	-0.446117	-0.163159	-0.615309	
0.865862	12.3764	0	0	0.204137	-0.38112	0.148664	-0.954939	-0.75277	-0.390935	-0.357016	-0.281122	-0.22254	0.097061	-0.654422	-0.160253	-0.203041	0.09032	-0.505113	0.143109	-0.128681	0.419165	-0.397652	0.883691	0.045088	0.285332	-0.377826	-0.110192	-0.414237	-0.263155	-0.313401	-0.466599	-0.605432	-0.449181	-0.157032	-0.632625	
