0.731	5.43213	0	0	-0.179818	0.384946	-0.218179	0.36861	-0.314385	0.447992	-0.229794	0.278768	-0.186765	0.259993	-0.136906	0.274183	-0.169744	0.312293	-0.191886	0.324939	-0.142913	0.14142	-0.118938	0.176681	-0.107429	0.075192	-0.052644	0.032923	-0.08323	0.152738	-0.153207	0.253438	-0.042901	0.134224	-0.057958	0.217767	
0.733387	5.43976	0	0	-0.18256	0.392695	-0.219727	0.384344	-0.322968	0.4587	-0.232694	0.286965	-0.186581	0.269378	-0.14081	0.285215	-0.169269	0.322409	-0.19538	0.334812	-0.14557	0.148928	-0.119943	0.179522	-0.103054	0.0723332	-0.0549085	0.0393228	-0.0861138	0.160888	-0.150028	0.255806	-0.0378558	0.136196	-0.0548585	0.219808	
0.735583	5.44128	0	0	-0.185302	0.400444	-0.221274	0.400079	-0.331552	0.469407	-0.235595	0.295162	-0.186398	0.278764	-0.144713	0.296247	-0.168794	0.332525	-0.198873	0.344686	-0.148226	0.156436	-0.120949	0.182363	-0.0986795	0.0694745	-0.057173	0.0457225	-0.0889975	0.169037	-0.146848	0.258174	-0.0328105	0.138169	-0.051759	0.221849	
0.737621	5.44586	0	0	-0.188043	0.408193	-0.222822	0.415813	-0.340136	0.480115	-0.238495	0.303359	-0.186215	0.28815	-0.148617	0.30728	-0.168319	0.342641	-0.202367	0.35456	-0.150883	0.163943	-0.121954	0.185204	-0.0943047	0.0666158	-0.0594375	0.0521222	-0.0918812	0.177186	-0.143669	0.260541	-0.0277653	0.140142	-0.0486595	0.223889	
0.739531	5.45196	0	0	-0.190785	0.415942	-0.224369	0.431547	-0.348719	0.490823	-0.241396	0.311556	-0.186031	0.297535	-0.152521	0.318312	-0.167844	0.352757	-0.205861	0.364433	-0.153539	0.171451	-0.122959	0.188045	-0.08993	0.063757	-0.061702	0.058522	-0.094765	0.185336	-0.140489	0.262909	-0.02272	0.142114	-0.04556	0.22593	
0.741346	5.45196	0	0	-0.194016	0.414081	-0.231433	0.428797	-0.354951	0.494895	-0.246912	0.317262	-0.188839	0.295566	-0.155808	0.314804	-0.176468	0.35422	-0.208959	0.361396	-0.157895	0.172373	-0.127845	0.191238	-0.097911	0.067307	-0.068753	0.0655905	-0.0995768	0.198935	-0.143561	0.271589	-0.0188843	0.147519	-0.0443325	0.233267	
0.743097	5.44891	0	0	-0.197247	0.41222	-0.238498	0.426048	-0.361183	0.498968	-0.252429	0.322968	-0.191646	0.293597	-0.159094	0.311296	-0.185091	0.355682	-0.212056	0.358359	-0.162251	0.173294	-0.132731	0.19443	-0.105892	0.070857	-0.075804	0.072659	-0.104388	0.212535	-0.146632	0.28027	-0.0150485	0.152924	-0.043105	0.240605	
0.744816	5.45807	0	0	-0.200478	0.410359	-0.245562	0.423299	-0.367416	0.50304	-0.257945	0.328675	-0.194454	0.291628	-0.162381	0.307788	-0.193715	0.357144	-0.215154	0.355322	-0.166606	0.174216	-0.137617	0.197622	-0.113873	0.074407	-0.082855	0.0797275	-0.1092	0.226134	-0.149703	0.28895	-0.0112128	0.158329	-0.0418775	0.247943	
0.746536	5.45807	0	0	-0.203709	0.408498	-0.252626	0.420549	-0.373648	0.507112	-0.263461	0.334381	-0.197262	0.289659	-0.165668	0.30428	-0.202339	0.358607	-0.218252	0.352285	-0.170962	0.175138	-0.142503	0.200815	-0.121854	0.077957	-0.089906	0.086796	-0.114012	0.239733	-0.152775	0.29763	-0.007377	0.163734	-0.04065	0.25528	
0.748287	5.45959	0	0	-0.203709	0.408498	-0.243302	0.41691	-0.373648	0.507112	-0.260848	0.336879	-0.202693	0.29511	-0.165668	0.30428	-0.203299	0.36132	-0.218252	0.352285	-0.1762	0.178561	-0.146381	0.201165	-0.126224	0.0808128	-0.0946873	0.0874588	-0.112087	0.234291	-0.155952	0.295257	-0.014854	0.16862	-0.0446867	0.255882	
0.750102	5.46265	0	0	-0.203709	0.408498	-0.233977	0.413272	-0.373648	0.507112	-0.258235	0.339377	-0.208125	0.30056	-0.165668	0.30428	-0.204259	0.364034	-0.218252	0.352285	-0.181439	0.181983	-0.150258	0.201515	-0.130595	0.0836685	-0.0994685	0.0881215	-0.110161	0.228849	-0.15913	0.292883	-0.022331	0.173505	-0.0487235	0.256484	
0.752013	5.47485	0	0	-0.203709	0.408498	-0.224653	0.409633	-0.373648	0.507112	-0.255621	0.341876	-0.213556	0.30601	-0.165668	0.30428	-0.20522	0.366747	-0.218252	0.352285	-0.186677	0.185406	-0.154136	0.201865	-0.134965	0.0865242	-0.10425	0.0887842	-0.108235	0.223406	-0.162307	0.29051	-0.029808	0.178391	-0.0527603	0.257086	
0.754051	5.49316	0	0	-0.203709	0.408498	-0.215328	0.405994	-0.373648	0.507112	-0.253008	0.344374	-0.218988	0.311461	-0.165668	0.30428	-0.20618	0.36946	-0.218252	0.352285	-0.191915	0.188829	-0.158014	0.202215	-0.139335	0.08938	-0.109031	0.089447	-0.10631	0.217964	-0.165485	0.288137	-0.037285	0.183277	-0.056797	0.257688	
0.7562	5.50537	0	0	-0.206452	0.416249	-0.222114	0.425172	-0.38105	0.514499	-0.251362	0.349612	-0.220565	0.325817	-0.16629	0.318834	-0.211946	0.385757	-0.220581	0.358869	-0.193687	0.193836	-0.158014	0.202215	-0.139335	0.08938	-0.105383	0.0919868	-0.107272	0.220685	-0.161283	0.287616	-0.0310225	0.181824	-0.0477835	0.253834	
0.758269	5.53894	0	0	-0.209194	0.424	-0.228899	0.44435	-0.388451	0.521887	-0.249717	0.35485	-0.222142	0.340174	-0.166911	0.333388	-0.217713	0.402054	-0.222911	0.365452	-0.195459	0.198844	-0.158014	0.202215	-0.139335	0.08938	-0.101735	0.0945265	-0.108235	0.223405	-0.157081	0.287095	-0.02476	0.180372	-0.03877	0.24998	
0.760025	5.58472	0	0	-0.211936	0.431751	-0.235685	0.463528	-0.395853	0.529274	-0.248071	0.360088	-0.223719	0.354531	-0.167533	0.347941	-0.223479	0.41835	-0.225241	0.372035	-0.19723	0.203851	-0.158014	0.202215	-0.139335	0.08938	-0.098087	0.0970662	-0.109198	0.226126	-0.15288	0.286574	-0.0184975	0.178919	-0.0297565	0.246127	
0.761233	5.63965	0	0	-0.214679	0.439502	-0.242471	0.482706	-0.403255	0.536662	-0.246425	0.365326	-0.225296	0.368887	-0.168155	0.362495	-0.229245	0.434647	-0.22757	0.378619	-0.199002	0.208858	-0.158014	0.202215	-0.139335	0.08938	-0.094439	0.099606	-0.11016	0.228847	-0.148678	0.286053	-0.012235	0.177466	-0.020743	0.242273	
0.761662	5.70984	0	0	-0.216993	0.435055	-0.245436	0.479726	-0.40713	0.534093	-0.250976	0.3683	-0.224419	0.366409	-0.165549	0.355129	-0.228283	0.431929	-0.225241	0.372035	-0.199002	0.208858	-0.162894	0.205404	-0.143703	0.0922343	-0.100353	0.10347	-0.114978	0.242463	-0.151752	0.294739	-0.0170985	0.191211	-0.0263708	0.258178	
0.761077	5.76477	0	0	-0.219306	0.430608	-0.248401	0.476745	-0.411006	0.531525	-0.255528	0.371274	-0.223542	0.363931	-0.162942	0.347764	-0.227322	0.42921	-0.222911	0.365452	-0.199002	0.208858	-0.167775	0.208593	-0.148071	0.0950885	-0.106267	0.107335	-0.119795	0.256078	-0.154825	0.303424	-0.021962	0.204955	-0.0319985	0.274083	
0.759328	5.83191	0	0	-0.221619	0.42616	-0.251367	0.473764	-0.414882	0.528956	-0.26008	0.374248	-0.222666	0.361452	-0.160336	0.340399	-0.22636	0.426492	-0.220581	0.358869	-0.199002	0.208858	-0.172655	0.211782	-0.15244	0.0979427	-0.112181	0.1112	-0.124613	0.269694	-0.157898	0.31211	-0.0268255	0.2187	-0.0376262	0.289987	
0.756657	5.88531	0	0	-0.223933	0.421713	-0.254332	0.470784	-0.418757	0.526388	-0.264631	0.377222	-0.221789	0.358974	-0.15773	0.333033	-0.225398	0.423774	-0.218252	0.352285	-0.199002	0.208858	-0.177536	0.214971	-0.156808	0.100797	-0.118095	0.115064	-0.129431	0.28331	-0.160972	0.320796	-0.031689	0.232444	-0.043254	0.305892	
0.753429	5.92956	0	0	-0.227159	0.419851	-0.253201	0.467587	-0.423802	0.527136	-0.264631	0.377222	-0.226345	0.361951	-0.15773	0.333033	-0.22636	0.426492	-0.222512	0.352539	-0.209469	0.215697	-0.181409	0.215318	-0.16194	0.105816	-0.121739	0.112521	-0.128467	0.280585	-0.163124	0.315525	-0.039166	0.23733	-0.0354592	0.294682	
0.750008	5.95856	0	0	-0.230384	0.417989	-0.25207	0.46439	-0.428848	0.527883	-0.264631	0.377222	-0.230901	0.364928	-0.15773	0.333033	-0.227322	0.42921	-0.226772	0.352793	-0.219936	0.222537	-0.185281	0.215665	-0.167073	0.110834	-0.125383	0.109979	-0.127503	0.277861	-0.165276	0.310254	-0.046643	0.242216	-0.0276645	0.283473	
0.746756	6.00281	0	0	-0.23361	0.416127	-0.250938	0.461193	-0.433894	0.528631	-0.264631	0.377222	-0.235457	0.367906	-0.15773	0.333033	-0.228283	0.431929	-0.231031	0.353047	-0.230403	0.229377	-0.189154	0.216012	-0.172205	0.115852	-0.129027	0.107437	-0.126539	0.275136	-0.167428	0.304982	-0.05412	0.247101	-0.0198698	0.272263	
0.744037	6.02569	5	0	-0.236836	0.414265	-0.249807	0.457996	-0.438939	0.529379	-0.264631	0.377222	-0.240013	0.370883	-0.15773	0.333033	-0.229245	0.434647	-0.235291	0.353301	-0.24087	0.236216	-0.193027	0.216359	-0.177337	0.120871	-0.132671	0.104894	-0.125575	0.272411	-0.16958	0.299711	-0.061597	0.251987	-0.012075	0.261053	
0.74213	6.02264	5	0	-0.236836	0.414265	-0.249106	0.467374	-0.445153	0.53344	-0.2656	0.379961	-0.238966	0.377823	-0.160336	0.340399	-0.227825	0.442084	-0.229867	0.349757	-0.236524	0.235302	-0.192023	0.21352	-0.177337	0.120871	-0.132671	0.104894	-0.132465	0.279008	-0.167533	0.293925	-0.0466362	0.242211	-0.0179928	0.266958	
0.740952	6.00433	5	0	-0.236836	0.414265	-0.248404	0.476752	-0.451368	0.5375	-0.266569	0.3827	-0.237919	0.384764	-0.162942	0.347764	-0.226405	0.449521	-0.224444	0.346213	-0.232179	0.234388	-0.191018	0.21068	-0.177337	0.120871	-0.132671	0.104894	-0.139356	0.285606	-0.165486	0.288139	-0.0316755	0.232436	-0.0239105	0.272863	
0.740326	5.98755	5	0	-0.236836	0.414265	-0.247702	0.48613	-0.457582	0.541561	-0.267538	0.385439	-0.236872	0.391704	-0.165549	0.355129	-0.224984	0.456958	-0.21902	0.342669	-0.227833	0.233474	-0.190014	0.207841	-0.177337	0.120871	-0.132671	0.104894	-0.146247	0.292203	-0.163438	0.282353	-0.0167148	0.22266	-0.0298283	0.278768	
0.740075	5.9494	5	0	-0.236836	0.414265	-0.247001	0.495508	-0.463796	0.545621	-0.268507	0.388178	-0.235825	0.398644	-0.168155	0.362495	-0.223564	0.464395	-0.213596	0.339125	-0.223488	0.23256	-0.189009	0.205002	-0.177337	0.120871	-0.132671	0.104894	-0.153137	0.2988	-0.161391	0.276567	-0.001754	0.212884	-0.035746	0.284673	
0.740024	5.91583	5	0	-0.237323	0.404669	-0.254059	0.492741	-0.46766	0.543051	-0.274696	0.385907	-0.24318	0.399637	-0.177324	0.362824	-0.232176	0.465838	-0.217856	0.33938	-0.227833	0.233474	-0.193884	0.208187	-0.180934	0.121557	-0.133804	0.108095	-0.14914	0.30038	-0.164463	0.285247	-0.0116723	0.224654	-0.0335823	0.289378	
0.739995	5.89294	5	0	-0.23781	0.395072	-0.261118	0.489974	-0.471525	0.540481	-0.280885	0.383635	-0.250535	0.400629	-0.186493	0.363152	-0.240788	0.467282	-0.222116	0.339635	-0.232179	0.234388	-0.198759	0.211373	-0.184532	0.122242	-0.134937	0.111297	-0.145143	0.301959	-0.167534	0.293928	-0.0215905	0.236424	-0.0314185	0.294082	
0.739853	5.86243	5	0	-0.238297	0.385476	-0.268176	0.487208	-0.47539	0.537911	-0.287074	0.381363	-0.25789	0.401622	-0.195662	0.363481	-0.2494	0.468726	-0.226376	0.339891	-0.236524	0.235302	-0.203633	0.214558	-0.188129	0.122927	-0.136069	0.114499	-0.141145	0.303539	-0.170605	0.302608	-0.0315088	0.248195	-0.0292547	0.298787	
0.739595	5.83343	5	0	-0.238784	0.37588	-0.275234	0.484441	-0.479254	0.535341	-0.293263	0.379092	-0.265245	0.402614	-0.204831	0.36381	-0.258012	0.470169	-0.230636	0.340146	-0.24087	0.236216	-0.208508	0.217744	-0.191726	0.123613	-0.137202	0.1177	-0.137148	0.305119	-0.173677	0.311288	-0.041427	0.259965	-0.027091	0.303491	
0.739248	5.80292	5	0	-0.242919	0.376601	-0.277064	0.478266	-0.478082	0.532029	-0.296839	0.379325	-0.268042	0.400631	-0.20941	0.363973	-0.256088	0.46473	-0.234893	0.3404	-0.245213	0.237129	-0.208508	0.217744	-0.196087	0.126463	-0.143108	0.121559	-0.145139	0.30196	-0.174805	0.303129	-0.045253	0.254532	-0.0292547	0.298787	
0.738837	5.78461	5	0	-0.247055	0.377321	-0.278894	0.472091	-0.476911	0.528717	-0.300415	0.379557	-0.27084	0.398648	-0.21399	0.364136	-0.254163	0.459291	-0.23915	0.340654	-0.249555	0.238041	-0.208508	0.217744	-0.200449	0.129313	-0.149014	0.125418	-0.153131	0.298801	-0.175932	0.294969	-0.049079	0.2491	-0.0314185	0.294082	
0.738388	5.76172	5	0	-0.25119	0.378042	-0.280724	0.465917	-0.475739	0.525405	-0.30399	0.37979	-0.273637	0.396664	-0.218569	0.364298	-0.252238	0.453853	-0.243408	0.340909	-0.253898	0.238953	-0.208508	0.217744	-0.204811	0.132163	-0.15492	0.129277	-0.161123	0.295642	-0.17706	0.286809	-0.052905	0.243667	-0.0335823	0.289378	
0.737926	5.74646	5	0	-0.255325	0.378763	-0.282554	0.459742	-0.474567	0.522093	-0.307566	0.380023	-0.276434	0.394681	-0.223149	0.364461	-0.250314	0.448414	-0.247665	0.341163	-0.258241	0.239866	-0.208508	0.217744	-0.209172	0.135013	-0.160826	0.133136	-0.169114	0.292483	-0.178188	0.27865	-0.056731	0.238234	-0.035746	0.284673	
0.737461	5.7312	5	0	-0.258061	0.386496	-0.280724	0.465917	-0.481944	0.529459	-0.313076	0.385727	-0.279066	0.402118	-0.221176	0.371664	-0.25654	0.454572	-0.243408	0.340909	-0.264352	0.245784	-0.205643	0.220238	-0.209938	0.137179	-0.157187	0.135684	-0.169114	0.292483	-0.178188	0.27865	-0.049254	0.233349	-0.0348077	0.282022	
0.736954	5.72662	5	0	-0.260798	0.39423	-0.278894	0.472091	-0.489321	0.536826	-0.318586	0.391431	-0.281697	0.409555	-0.219202	0.378866	-0.262767	0.460731	-0.23915	0.340654	-0.270464	0.251703	-0.202777	0.222731	-0.210705	0.139344	-0.153548	0.138231	-0.169114	0.292483	-0.178188	0.27865	-0.041777	0.228463	-0.0338695	0.27937	
0.736364	5.72662	5	0	-0.263534	0.401963	-0.277064	0.478266	-0.496698	0.544193	-0.324096	0.397136	-0.284328	0.416991	-0.217229	0.386069	-0.268993	0.46689	-0.234893	0.3404	-0.276576	0.257622	-0.199912	0.225225	-0.211471	0.14151	-0.149908	0.140779	-0.169114	0.292483	-0.178188	0.27865	-0.0343	0.223577	-0.0329313	0.276719	
0.735647	5.74188	5	0	-0.26627	0.409696	-0.275234	0.484441	-0.504075	0.551559	-0.329606	0.40284	-0.28696	0.424428	-0.215256	0.393272	-0.275219	0.473048	-0.230636	0.340146	-0.282687	0.26354	-0.197047	0.227719	-0.212237	0.143676	-0.146269	0.143326	-0.169114	0.292483	-0.178188	0.27865	-0.026823	0.218692	-0.031993	0.274068	
0.73476	5.7663	5	0	-0.26949	0.407836	-0.271842	0.474854	-0.504075	0.551559	-0.333177	0.403069	-0.289754	0.422442	-0.218531	0.38975	-0.273295	0.467611	-0.229473	0.336859	-0.282687	0.26354	-0.199058	0.233402	-0.211471	0.14151	-0.148538	0.149737	-0.172007	0.300658	-0.17706	0.286809	-0.0355165	0.227016	-0.0357473	0.284677	
0.733659	5.8197	5	0	-0.272709	0.405975	-0.26845	0.465267	-0.504075	0.551559	-0.336748	0.403299	-0.292548	0.420455	-0.221807	0.386228	-0.271371	0.462174	-0.228309	0.333571	-0.282687	0.26354	-0.201068	0.239085	-0.210705	0.139344	-0.150806	0.156148	-0.174899	0.308832	-0.175932	0.294969	-0.04421	0.23534	-0.0395015	0.295287	
0.732313	5.90362	5	0	-0.275929	0.404115	-0.265057	0.455679	-0.504075	0.551559	-0.340319	0.403529	-0.295343	0.418469	-0.225083	0.382705	-0.269447	0.456736	-0.227146	0.330284	-0.282687	0.26354	-0.203079	0.244768	-0.209938	0.137179	-0.153075	0.162559	-0.177791	0.317006	-0.174805	0.303129	-0.0529035	0.243663	-0.0432558	0.305897	
0.730713	6.00586	5	0	-0.279149	0.402255	-0.261665	0.446092	-0.504075	0.551559	-0.34389	0.403758	-0.298137	0.416483	-0.228358	0.379183	-0.267523	0.451299	-0.225983	0.326996	-0.282687	0.26354	-0.20509	0.250451	-0.209172	0.135013	-0.155343	0.16897	-0.180684	0.325181	-0.173677	0.311288	-0.061597	0.251987	-0.04701	0.316506	
0.72885	6.11267	5	0	-0.278237	0.399678	-0.264628	0.443118	-0.505247	0.554872	-0.34389	0.403758	-0.29726	0.414005	-0.228358	0.379183	-0.266562	0.448582	-0.225983	0.326996	-0.282687	0.26354	-0.206096	0.253294	-0.209172	0.135013	-0.154208	0.165764	-0.184674	0.323597	-0.176851	0.308913	-0.066635	0.249994	-0.0491707	0.3118	
0.726716	6.23016	5	0	-0.277325	0.397101	-0.26759	0.440145	-0.50642	0.558186	-0.34389	0.403758	-0.296384	0.411527	-0.228358	0.379183	-0.2656	0.445864	-0.225983	0.326996	-0.282687	0.26354	-0.207101	0.256136	-0.209172	0.135013	-0.153074	0.162558	-0.188663	0.322014	-0.180026	0.306537	-0.071673	0.248	-0.0513315	0.307094	
0.724303	6.34613	5	0	-0.276413	0.394524	-0.270553	0.437171	-0.507592	0.561499	-0.34389	0.403758	-0.295507	0.409048	-0.228358	0.379183	-0.264638	0.443147	-0.225983	0.326996	-0.282687	0.26354	-0.208107	0.258979	-0.209172	0.135013	-0.15194	0.159352	-0.192653	0.320431	-0.1832	0.304161	-0.076711	0.246007	-0.0534923	0.302387	
0.721608	6.44684	5	0	-0.275501	0.391947	-0.273516	0.434198	-0.508764	0.564812	-0.34389	0.403758	-0.29463	0.40657	-0.228358	0.379183	-0.263677	0.44043	-0.225983	0.326996	-0.282687	0.26354	-0.209113	0.261822	-0.209172	0.135013	-0.150805	0.156146	-0.196642	0.318847	-0.186374	0.301786	-0.081749	0.244013	-0.055653	0.297681	
0.71876	6.53534	5	0	-0.273193	0.396384	-0.278037	0.446974	-0.509937	0.568126	-0.345827	0.409232	-0.297262	0.414007	-0.235538	0.386705	-0.261298	0.445145	-0.22831	0.333572	-0.279234	0.265135	-0.210119	0.264665	-0.209938	0.137179	-0.15194	0.159352	-0.195678	0.316123	-0.179105	0.29259	-0.0718478	0.232262	-0.0528395	0.28973	
0.716016	6.59637	5	0	-0.270886	0.400821	-0.282558	0.45975	-0.511109	0.571441	-0.347764	0.414706	-0.299893	0.421444	-0.242719	0.394228	-0.25892	0.44986	-0.230637	0.340148	-0.275782	0.266731	-0.211125	0.267509	-0.210705	0.139344	-0.153074	0.162558	-0.194714	0.313399	-0.171837	0.283393	-0.0619465	0.22051	-0.050026	0.281778	
0.713639	6.64215	5	0	-0.268578	0.405259	-0.287078	0.472527	-0.512282	0.574755	-0.3497	0.420179	-0.302524	0.428881	-0.249899	0.401751	-0.256541	0.454575	-0.232964	0.346725	-0.272329	0.268327	-0.212132	0.270352	-0.211471	0.14151	-0.154208	0.165764	-0.19375	0.310676	-0.164568	0.274197	-0.0520453	0.208759	-0.0472125	0.273827	
0.711892	6.66656	5	0	-0.26627	0.409696	-0.291599	0.485303	-0.513455	0.578069	-0.351637	0.425653	-0.305156	0.436318	-0.257079	0.409273	-0.254163	0.45929	-0.235291	0.353301	-0.268876	0.269922	-0.213138	0.273196	-0.212237	0.143676	-0.155343	0.16897	-0.192786	0.307952	-0.157299	0.265001	-0.042144	0.197008	-0.044399	0.265876	
0.711039	6.67419	5	0	-0.267666	0.402682	-0.290039	0.469556	-0.516139	0.572181	-0.3497	0.420179	-0.307948	0.43433	-0.26165	0.409429	-0.256541	0.454575	-0.232964	0.346725	-0.267989	0.267417	-0.214144	0.276041	-0.212237	0.143676	-0.155343	0.16897	-0.19375	0.310676	-0.159346	0.270785	-0.0508295	0.205324	-0.0462743	0.271176	
0.711289	6.66351	5	0	-0.269062	0.395669	-0.288479	0.453809	-0.518822	0.566294	-0.347764	0.414706	-0.31074	0.432342	-0.26622	0.409585	-0.25892	0.44986	-0.230637	0.340148	-0.267103	0.264911	-0.215151	0.278886	-0.212237	0.143676	-0.155343	0.16897	-0.194714	0.313399	-0.161392	0.276569	-0.059515	0.213639	-0.0481495	0.276476	
0.712476	6.64368	5	0	-0.270459	0.388655	-0.28692	0.438061	-0.521506	0.560406	-0.345827	0.409232	-0.313531	0.430354	-0.270791	0.409741	-0.261298	0.445145	-0.22831	0.333572	-0.266217	0.262406	-0.216158	0.28173	-0.212237	0.143676	-0.155343	0.16897	-0.195678	0.316123	-0.163438	0.282353	-0.0682005	0.221955	-0.0500247	0.281776	
0.714275	6.61926	5	0	-0.271855	0.381642	-0.28536	0.422314	-0.52419	0.554518	-0.34389	0.403758	-0.316323	0.428366	-0.275362	0.409897	-0.263677	0.44043	-0.225983	0.326996	-0.26533	0.259901	-0.217164	0.284575	-0.212237	0.143676	-0.155343	0.16897	-0.196642	0.318847	-0.165485	0.288137	-0.076886	0.230271	-0.0519	0.287076	
0.716359	6.58264	5	0	-0.278291	0.377931	-0.284938	0.409789	-0.520677	0.54459	-0.345524	0.398518	-0.319114	0.42638	-0.278628	0.406373	-0.271313	0.439156	-0.230241	0.327252	-0.268783	0.258307	-0.215151	0.278887	-0.216596	0.146524	-0.157847	0.163214	-0.20365	0.312962	-0.170812	0.280506	-0.0720283	0.216542	-0.0562223	0.277683	
0.718403	6.54907	5	0	-0.284726	0.374219	-0.284517	0.397264	-0.517164	0.534661	-0.347158	0.393278	-0.321904	0.424393	-0.281893	0.402849	-0.278948	0.437882	-0.234498	0.327507	-0.272236	0.256713	-0.213139	0.273199	-0.220955	0.149373	-0.160351	0.157459	-0.210657	0.307076	-0.17614	0.272876	-0.0671705	0.202813	-0.0605445	0.268291	
0.720079	6.50787	5	0	-0.291162	0.370507	-0.284095	0.384739	-0.513651	0.524733	-0.348791	0.388038	-0.324694	0.422407	-0.285158	0.399325	-0.286583	0.436607	-0.238756	0.327762	-0.27569	0.255118	-0.211126	0.26751	-0.225315	0.152221	-0.162855	0.151703	-0.217665	0.30119	-0.181468	0.265245	-0.0623128	0.189084	-0.0648668	0.258899	
0.721161	6.46667	5	0	-0.297598	0.366796	-0.283673	0.372214	-0.510138	0.514805	-0.350425	0.382798	-0.327485	0.42042	-0.288424	0.395801	-0.294219	0.435333	-0.243014	0.328018	-0.279143	0.253524	-0.209113	0.261822	-0.229674	0.155069	-0.165359	0.145947	-0.224673	0.295305	-0.186795	0.257615	-0.057455	0.175355	-0.069189	0.249506	
0.721767	6.44073	5	0	-0.297598	0.366796	-0.27662	0.374952	-0.516334	0.518854	-0.351392	0.385532	-0.323818	0.419928	-0.288424	0.395801	-0.289922	0.434613	-0.237594	0.324476	-0.278257	0.251021	-0.212982	0.262165	-0.229674	0.155069	-0.167862	0.140199	-0.221787	0.287148	-0.182709	0.246069	-0.062493	0.173376	-0.0663813	0.241571	
0.722085	6.41937	5	0	-0.297598	0.366796	-0.269566	0.37769	-0.522531	0.522903	-0.35236	0.388266	-0.320151	0.419436	-0.288424	0.395801	-0.285625	0.433892	-0.232173	0.320935	-0.277371	0.248517	-0.216851	0.262507	-0.229674	0.155069	-0.170366	0.134451	-0.2189	0.278991	-0.178624	0.234523	-0.067531	0.171397	-0.0635735	0.233636	
0.722304	6.40869	5	0	-0.297598	0.366796	-0.262512	0.380428	-0.528727	0.526951	-0.353328	0.391	-0.316483	0.418945	-0.288424	0.395801	-0.281329	0.433171	-0.226752	0.317393	-0.276486	0.246013	-0.22072	0.262849	-0.229674	0.155069	-0.172869	0.128703	-0.216014	0.270834	-0.174538	0.222978	-0.072569	0.169417	-0.0607658	0.225702	
0.722612	6.39801	5	0	-0.297598	0.366796	-0.255459	0.383166	-0.534923	0.531	-0.354295	0.393734	-0.312816	0.418453	-0.288424	0.395801	-0.277032	0.432451	-0.221332	0.313851	-0.2756	0.24351	-0.224589	0.263192	-0.229674	0.155069	-0.175372	0.122955	-0.213128	0.262677	-0.170453	0.211432	-0.077607	0.167438	-0.057958	0.217767	
0.723196	6.40259	5	0	-0.299903	0.362371	-0.265894	0.389985	-0.531414	0.521083	-0.355928	0.388497	-0.316325	0.42837	-0.292331	0.406842	-0.278954	0.437883	-0.226752	0.317393	-0.280822	0.246922	-0.223584	0.26035	-0.229674	0.155069	-0.171735	0.1255	-0.216014	0.270834	-0.168297	0.21668	-0.0788197	0.170866	-0.0567313	0.2251	
0.724113	6.39648	5	0	-0.302208	0.357945	-0.276329	0.396803	-0.527904	0.511165	-0.357561	0.383261	-0.319834	0.438288	-0.296238	0.417884	-0.280876	0.443315	-0.232173	0.320935	-0.286045	0.250335	-0.222578	0.257508	-0.229674	0.155069	-0.168099	0.128046	-0.2189	0.278991	-0.166142	0.221927	-0.0800325	0.174293	-0.0555045	0.232433	
0.725177	6.40106	5	0	-0.304513	0.353519	-0.286764	0.403622	-0.524395	0.501247	-0.359195	0.378024	-0.323343	0.448206	-0.300145	0.428925	-0.282798	0.448748	-0.237594	0.324476	-0.291267	0.253748	-0.221573	0.254666	-0.229674	0.155069	-0.164463	0.130591	-0.221787	0.287148	-0.163987	0.227175	-0.0812453	0.177721	-0.0542777	0.239766	
0.726178	6.40564	5	0	-0.306818	0.349094	-0.297199	0.410441	-0.520886	0.49133	-0.360828	0.372788	-0.326852	0.458123	-0.304052	0.439966	-0.28472	0.45418	-0.243014	0.328018	-0.296489	0.25716	-0.220567	0.251824	-0.229674	0.155069	-0.160826	0.133136	-0.224673	0.295305	-0.161831	0.232423	-0.082458	0.181149	-0.053051	0.247099	
0.726905	6.41632	5	0	-0.312335	0.342824	-0.297904	0.401107	-0.523572	0.485469	-0.366026	0.367788	-0.325975	0.455643	-0.307312	0.436436	-0.288055	0.452183	-0.246107	0.324989	-0.294718	0.252155	-0.222424	0.246487	-0.234031	0.157916	-0.162199	0.124193	-0.230579	0.299164	-0.16705	0.235833	-0.091129	0.189451	-0.0589585	0.252995	
0.727147	6.427	5	0	-0.317852	0.336554	-0.298609	0.391773	-0.526259	0.479609	-0.371223	0.362789	-0.325097	0.453162	-0.310573	0.432906	-0.291391	0.450186	-0.249199	0.321959	-0.292948	0.247151	-0.224282	0.241151	-0.238388	0.160763	-0.163572	0.115251	-0.236485	0.303024	-0.172269	0.239243	-0.0998	0.197752	-0.064866	0.25889	
0.726702	6.43005	5	0	-0.323369	0.330285	-0.299314	0.38244	-0.528945	0.473749	-0.37642	0.357789	-0.324219	0.450682	-0.313833	0.429377	-0.294727	0.44819	-0.252292	0.318929	-0.291177	0.242146	-0.226139	0.235814	-0.242745	0.16361	-0.164945	0.106309	-0.242391	0.306883	-0.177488	0.242654	-0.108471	0.206054	-0.0707735	0.264786	
0.725592	6.43463	5	0	-0.328886	0.324015	-0.300019	0.373106	-0.531632	0.467888	-0.381618	0.352789	-0.323342	0.448201	-0.317093	0.425847	-0.298062	0.446193	-0.255384	0.3159	-0.289406	0.237142	-0.227996	0.230478	-0.247102	0.166457	-0.166318	0.097366	-0.248297	0.310742	-0.182707	0.246064	-0.117142	0.214356	-0.076681	0.270681	
0.724092	6.42547	5	0	-0.328886	0.324015	-0.302272	0.379474	-0.536652	0.468631	-0.381618	0.352789	-0.324219	0.450682	-0.311227	0.422014	-0.294727	0.44819	-0.254223	0.312617	-0.287636	0.23214	-0.229853	0.225148	-0.242745	0.16361	-0.169954	0.094827	-0.247334	0.308022	-0.185881	0.243699	-0.109684	0.209483	-0.0816493	0.273927	
0.722493	6.41785	5	0	-0.328886	0.324015	-0.304525	0.385842	-0.541671	0.469375	-0.381618	0.352789	-0.325097	0.453162	-0.305362	0.418181	-0.291391	0.450186	-0.253061	0.309335	-0.285867	0.227138	-0.231711	0.219817	-0.238388	0.160763	-0.17359	0.092288	-0.246372	0.305302	-0.189054	0.241335	-0.102226	0.20461	-0.0866175	0.277173	
0.721081	6.39953	5	0	-0.328886	0.324015	-0.306778	0.392209	-0.546691	0.470118	-0.381618	0.352789	-0.325975	0.455643	-0.299496	0.414349	-0.288055	0.452183	-0.251899	0.306053	-0.284097	0.222137	-0.233569	0.214486	-0.234031	0.157916	-0.177225	0.089749	-0.24541	0.302582	-0.192227	0.23897	-0.0947687	0.199737	-0.0915857	0.28042	
0.720146	6.38275	5	0	-0.328886	0.324015	-0.309031	0.398577	-0.551711	0.470861	-0.381618	0.352789	-0.326852	0.458123	-0.293631	0.410516	-0.28472	0.45418	-0.250738	0.30277	-0.282327	0.217135	-0.235426	0.209156	-0.229674	0.155069	-0.180861	0.08721	-0.244447	0.299862	-0.195401	0.236605	-0.087311	0.194864	-0.096554	0.283666	
0.719949	6.35986	5	0	-0.333004	0.324733	-0.311286	0.404949	-0.551711	0.470861	-0.384215	0.350292	-0.330365	0.468051	-0.296236	0.417878	-0.287605	0.462334	-0.250738	0.30277	-0.282327	0.217135	-0.23342	0.203486	-0.233265	0.15575	-0.173833	0.0801615	-0.24541	0.302582	-0.195401	0.236605	-0.087311	0.194864	-0.0984282	0.288963	
0.720469	6.3324	5	0	-0.337122	0.32545	-0.31354	0.411321	-0.551711	0.470861	-0.386812	0.347795	-0.333878	0.47798	-0.298841	0.425241	-0.290491	0.470489	-0.250738	0.30277	-0.282327	0.217135	-0.231413	0.197816	-0.236855	0.156432	-0.166804	0.073113	-0.246372	0.305302	-0.195401	0.236605	-0.087311	0.194864	-0.100303	0.29426	
0.721513	6.30493	5	0	-0.34124	0.326168	-0.315795	0.417693	-0.551711	0.470861	-0.389409	0.345297	-0.337391	0.487908	-0.301447	0.432604	-0.293377	0.478643	-0.250738	0.30277	-0.282327	0.217135	-0.229407	0.192146	-0.240446	0.157113	-0.159776	0.0660645	-0.247334	0.308022	-0.195401	0.236605	-0.087311	0.194864	-0.102177	0.299556	
0.722887	6.27899	5	0	-0.345358	0.326886	-0.31805	0.424065	-0.551711	0.470861	-0.392006	0.3428	-0.340904	0.497836	-0.304052	0.439966	-0.296262	0.486798	-0.250738	0.30277	-0.282327	0.217135	-0.227401	0.186476	-0.244037	0.157794	-0.152748	0.059016	-0.248297	0.310742	-0.195401	0.236605	-0.087311	0.194864	-0.104051	0.304853	
0.724397	6.25152	5	0	-0.352679	0.325754	-0.318752	0.414729	-0.55556	0.468305	-0.393638	0.33758	-0.338269	0.490389	-0.301447	0.432604	-0.298634	0.482079	-0.252669	0.296466	-0.28401	0.21055	-0.234124	0.184335	-0.248392	0.160639	-0.16341	0.0635275	-0.250223	0.316184	-0.201635	0.242897	-0.089739	0.201726	-0.105926	0.310153	
0.725849	6.22406	5	0	-0.36	0.324621	-0.319454	0.405394	-0.559409	0.465749	-0.395269	0.33236	-0.335634	0.482942	-0.298841	0.425241	-0.301006	0.47736	-0.254601	0.290163	-0.285692	0.203965	-0.240847	0.182194	-0.252746	0.163485	-0.174071	0.068039	-0.252148	0.321626	-0.207869	0.24919	-0.092167	0.208588	-0.107801	0.315453	
0.727083	6.19812	5	0	-0.367321	0.323488	-0.320156	0.396058	-0.563258	0.463194	-0.3969	0.327139	-0.332999	0.475494	-0.296236	0.417878	-0.303378	0.472641	-0.256533	0.28386	-0.287374	0.197381	-0.247571	0.180054	-0.257101	0.16633	-0.184733	0.0725505	-0.254073	0.327068	-0.214102	0.255482	-0.094595	0.215449	-0.109677	0.320754	
0.728119	6.18133	5	0	-0.374642	0.322356	-0.320858	0.386722	-0.567107	0.460638	-0.398532	0.321919	-0.330364	0.468047	-0.293631	0.410516	-0.30575	0.467922	-0.258464	0.277556	-0.289057	0.190796	-0.254294	0.177913	-0.261456	0.169176	-0.195395	0.077062	-0.255999	0.33251	-0.220336	0.261774	-0.097023	0.222311	-0.111552	0.326054	
0.729046	6.15692	5	0	-0.371921	0.314667	-0.320858	0.386722	-0.559758	0.453302	-0.398532	0.321919	-0.328608	0.463085	-0.298195	0.41067	-0.302867	0.459775	-0.256145	0.271001	-0.291623	0.186715	-0.256151	0.172599	-0.265043	0.169855	-0.199026	0.0745268	-0.256127	0.32005	-0.215233	0.247354	-0.100839	0.216893	-0.11773	0.321944	
0.729951	6.14319	5	0	-0.369201	0.306978	-0.320858	0.386722	-0.552409	0.445966	-0.398532	0.321919	-0.326853	0.458124	-0.302758	0.410824	-0.299984	0.451628	-0.253826	0.264447	-0.294189	0.182634	-0.258008	0.167285	-0.268629	0.170534	-0.202657	0.0719915	-0.256256	0.30759	-0.210131	0.232933	-0.104655	0.211476	-0.123908	0.317833	
0.730919	6.13403	5	0	-0.36648	0.299289	-0.320858	0.386722	-0.54506	0.43863	-0.398532	0.321919	-0.325098	0.453163	-0.307322	0.410977	-0.297102	0.44348	-0.251506	0.257892	-0.296755	0.178554	-0.259864	0.161971	-0.272215	0.171213	-0.206288	0.0694562	-0.256385	0.29513	-0.205029	0.218512	-0.108472	0.206058	-0.130086	0.313723	
0.732039	6.12335	5	0	-0.36376	0.2916	-0.320858	0.386722	-0.537711	0.431294	-0.398532	0.321919	-0.323342	0.448201	-0.311886	0.411131	-0.294219	0.435333	-0.249187	0.251337	-0.299321	0.174473	-0.261721	0.156657	-0.275802	0.171892	-0.209919	0.066921	-0.256513	0.28267	-0.199926	0.204092	-0.112288	0.20064	-0.136264	0.309613	
0.733358	6.11725	5	0	-0.36648	0.299289	-0.320156	0.396058	-0.538877	0.43459	-0.399496	0.324644	-0.325976	0.455644	-0.309928	0.41834	-0.296141	0.440764	-0.250347	0.254614	-0.297556	0.169484	-0.265881	0.178976	-0.272215	0.171213	-0.214206	0.0918345	-0.255552	0.279953	-0.174726	0.200931	-0.119739	0.205509	-0.133455	0.301674	
0.734783	6.1142	5	0	-0.369201	0.306978	-0.319454	0.405394	-0.540044	0.437886	-0.40046	0.327369	-0.328609	0.463087	-0.307969	0.425548	-0.298063	0.446195	-0.251506	0.257891	-0.295791	0.164494	-0.270041	0.201296	-0.268629	0.170534	-0.218494	0.116748	-0.25459	0.277237	-0.149526	0.197771	-0.12719	0.210377	-0.130645	0.293734	
0.73619	6.11267	5	0	-0.371921	0.314667	-0.318752	0.414729	-0.54121	0.441182	-0.401425	0.330093	-0.331242	0.470531	-0.30601	0.432757	-0.299984	0.451625	-0.252665	0.261167	-0.294025	0.159505	-0.274202	0.223615	-0.265043	0.169855	-0.222781	0.141661	-0.253629	0.274521	-0.124325	0.19461	-0.134642	0.215246	-0.127836	0.285795	
0.737453	6.12488	5	0	-0.374642	0.322356	-0.31805	0.424065	-0.542376	0.444478	-0.402389	0.332818	-0.333876	0.477974	-0.304052	0.439966	-0.301906	0.457056	-0.253825	0.264444	-0.29226	0.154516	-0.278362	0.245934	-0.261456	0.169176	-0.227068	0.166575	-0.252668	0.271804	-0.099125	0.191449	-0.142093	0.220115	-0.125027	0.277855	
0.738447	6.14776	5	0	-0.373735	0.319792	-0.319878	0.417913	-0.54121	0.441182	-0.406911	0.335773	-0.335786	0.4735	-0.302749	0.436284	-0.303318	0.449631	-0.253825	0.264444	-0.296591	0.155429	-0.283385	0.26013	-0.265809	0.17202	-0.227977	0.18195	-0.255553	0.279956	-0.088532	0.195635	-0.128397	0.213802	-0.127836	0.285795	
0.739047	6.18744	5	0	-0.372828	0.317229	-0.321707	0.41176	-0.540044	0.437886	-0.411434	0.338728	-0.337697	0.469026	-0.301446	0.432602	-0.304731	0.442207	-0.253825	0.264444	-0.300921	0.156341	-0.288408	0.274326	-0.270161	0.174864	-0.228886	0.197325	-0.258437	0.288108	-0.077939	0.199821	-0.114702	0.207489	-0.130645	0.293734	
0.739159	6.23016	5	0	-0.371921	0.314665	-0.323535	0.405608	-0.538877	0.43459	-0.415957	0.341684	-0.339608	0.464552	-0.300143	0.42892	-0.306143	0.434782	-0.253825	0.264444	-0.305252	0.157254	-0.293431	0.288522	-0.274514	0.177709	-0.229796	0.212701	-0.261321	0.29626	-0.067346	0.204008	-0.101006	0.201177	-0.133455	0.301674	
0.738773	6.28815	5	0	-0.371014	0.312101	-0.325363	0.399455	-0.537711	0.431294	-0.420479	0.344639	-0.341518	0.460078	-0.29884	0.425238	-0.307555	0.427357	-0.253825	0.264444	-0.309582	0.158167	-0.298454	0.302718	-0.278867	0.180553	-0.230705	0.228076	-0.264206	0.304412	-0.056753	0.208194	-0.087311	0.194864	-0.136264	0.309613	
0.737895	6.33392	5	0	-0.366901	0.311384	-0.322407	0.402421	-0.538877	0.43459	-0.413361	0.344179	-0.338886	0.452641	-0.29884	0.425238	-0.309928	0.422654	-0.249571	0.264184	-0.307818	0.153182	-0.295439	0.294198	-0.278867	0.180553	-0.228436	0.221663	-0.262283	0.298976	-0.0599455	0.205835	-0.084885	0.188007	-0.133455	0.301674	
0.73653	6.37054	5	0	-0.362787	0.310667	-0.319451	0.405387	-0.540044	0.437886	-0.406243	0.343719	-0.336255	0.445204	-0.29884	0.425238	-0.3123	0.41795	-0.245318	0.263925	-0.306054	0.148197	-0.292424	0.285678	-0.278867	0.180553	-0.226166	0.215249	-0.260359	0.293541	-0.063138	0.203475	-0.082459	0.181151	-0.130645	0.293734	
0.734683	6.40411	5	0	-0.358673	0.309951	-0.316496	0.408353	-0.54121	0.441182	-0.399124	0.34326	-0.333624	0.437767	-0.29884	0.425238	-0.314673	0.413246	-0.241064	0.263665	-0.30429	0.143212	-0.28941	0.277157	-0.278867	0.180553	-0.223897	0.208836	-0.258436	0.288106	-0.0663305	0.201116	-0.080033	0.174295	-0.127836	0.285795	
0.732361	6.42547	5	0	-0.35456	0.309234	-0.31354	0.411319	-0.542376	0.444478	-0.392006	0.3428	-0.330992	0.43033	-0.29884	0.425238	-0.317046	0.408543	-0.23681	0.263406	-0.302526	0.138227	-0.286395	0.268637	-0.278867	0.180553	-0.221628	0.202423	-0.256513	0.28267	-0.069523	0.198757	-0.077607	0.167438	-0.125027	0.277855	
0.729647	6.43463	5	0	-0.354985	0.321349	-0.311012	0.426835	-0.53969	0.45033	-0.395868	0.353714	-0.32908	0.434798	-0.296881	0.432453	-0.314673	0.413246	-0.233714	0.266426	-0.30429	0.143212	-0.276665	0.262279	-0.274514	0.177709	-0.210963	0.197919	-0.255552	0.279953	-0.069523	0.198757	-0.0900915	0.170328	-0.125027	0.277855	
0.72677	6.43768	5	0	-0.355409	0.333464	-0.308485	0.442351	-0.537004	0.456183	-0.39973	0.364629	-0.327167	0.439265	-0.294922	0.439669	-0.3123	0.41795	-0.230618	0.269446	-0.306054	0.148197	-0.266935	0.255921	-0.270161	0.174864	-0.200297	0.193414	-0.25459	0.277237	-0.069523	0.198757	-0.102576	0.173219	-0.125027	0.277855	
0.723979	6.43005	5	0	-0.355834	0.345579	-0.305957	0.457867	-0.534318	0.462036	-0.403591	0.375543	-0.325255	0.443733	-0.292962	0.446884	-0.309928	0.422654	-0.227522	0.272465	-0.307818	0.153182	-0.257204	0.249563	-0.265809	0.17202	-0.189632	0.18891	-0.253629	0.274521	-0.069523	0.198757	-0.11506	0.17611	-0.125027	0.277855	
0.72152	6.41785	5	0	-0.356259	0.357694	-0.30343	0.473383	-0.531632	0.467888	-0.407453	0.386457	-0.323342	0.448201	-0.291003	0.454099	-0.307555	0.427357	-0.224426	0.275485	-0.309582	0.158167	-0.247474	0.243205	-0.261456	0.169176	-0.178967	0.184406	-0.252668	0.271804	-0.069523	0.198757	-0.127545	0.179	-0.125027	0.277855	
0.719641	6.40411	5	0	-0.351233	0.35441	-0.3023	0.470189	-0.531632	0.467888	-0.403892	0.38623	-0.327009	0.44869	-0.291003	0.454099	-0.301341	0.421211	-0.229843	0.279025	-0.300918	0.15634	-0.247474	0.243205	-0.261456	0.169176	-0.174196	0.183754	-0.250613	0.278818	-0.073616	0.210325	-0.122518	0.180982	-0.121937	0.279905	
0.718578	6.38885	5	0	-0.346206	0.351125	-0.301171	0.466996	-0.531632	0.467888	-0.400331	0.386002	-0.330675	0.44918	-0.291003	0.454099	-0.295127	0.415066	-0.23526	0.282564	-0.292254	0.154513	-0.247474	0.243205	-0.261456	0.169176	-0.169425	0.183103	-0.248557	0.285833	-0.077709	0.221893	-0.117491	0.182965	-0.118847	0.281954	
0.71835	6.36902	5	0	-0.34118	0.347841	-0.300041	0.463803	-0.531632	0.467888	-0.39677	0.385774	-0.334341	0.449669	-0.291003	0.454099	-0.288913	0.408921	-0.240677	0.286104	-0.28359	0.152687	-0.247474	0.243205	-0.261456	0.169176	-0.164654	0.182451	-0.246502	0.292848	-0.081802	0.233461	-0.112464	0.184948	-0.115758	0.284004	
0.71876	6.34613	5	0	-0.336154	0.344557	-0.298911	0.460609	-0.531632	0.467888	-0.393209	0.385547	-0.338008	0.450159	-0.291003	0.454099	-0.282699	0.402775	-0.246094	0.289644	-0.274926	0.15086	-0.247474	0.243205	-0.261456	0.169176	-0.159883	0.181799	-0.244447	0.299862	-0.085895	0.245029	-0.107437	0.18693	-0.112668	0.286054	
0.719598	6.32172	5	0	-0.330216	0.338703	-0.297781	0.457417	-0.52544	0.463842	-0.389646	0.385319	-0.336254	0.445202	-0.295569	0.454249	-0.281739	0.400063	-0.246094	0.289644	-0.274043	0.148366	-0.250332	0.240709	-0.261456	0.169176	-0.163519	0.179245	-0.246502	0.292848	-0.087037	0.236882	-0.102591	0.173233	-0.108924	0.275473	
0.720658	6.30646	5	0	-0.324278	0.332848	-0.296651	0.454225	-0.519249	0.459797	-0.386082	0.38509	-0.3345	0.440244	-0.300134	0.454399	-0.28078	0.397351	-0.246094	0.289644	-0.273161	0.145871	-0.25319	0.238214	-0.261456	0.169176	-0.167156	0.176691	-0.248557	0.285833	-0.088179	0.228735	-0.097744	0.159535	-0.10518	0.264892	
0.721732	6.28204	5	0	-0.31834	0.326994	-0.295522	0.451032	-0.513057	0.455751	-0.382519	0.384861	-0.332746	0.435287	-0.3047	0.45455	-0.279821	0.39464	-0.246094	0.289644	-0.272279	0.143377	-0.256049	0.235718	-0.261456	0.169176	-0.170793	0.174136	-0.250613	0.278818	-0.089321	0.220587	-0.0928975	0.145838	-0.101436	0.25431	
0.722634	6.26678	5	0	-0.312402	0.32114	-0.294392	0.44784	-0.506865	0.451705	-0.378956	0.384633	-0.330992	0.43033	-0.309265	0.4547	-0.278861	0.391928	-0.246094	0.289644	-0.271396	0.140883	-0.258907	0.233222	-0.261456	0.169176	-0.174429	0.171582	-0.252668	0.271804	-0.090463	0.21244	-0.088051	0.132141	-0.097692	0.243729	
0.723369	6.2439	5	0	-0.315129	0.328846	-0.289602	0.45699	-0.508033	0.455006	-0.377325	0.389871	-0.32908	0.434798	-0.306004	0.458236	-0.28174	0.400065	-0.240677	0.286104	-0.270514	0.138389	-0.252034	0.22437	-0.257101	0.16633	-0.172161	0.165173	-0.249786	0.263659	-0.0884183	0.206661	-0.0930815	0.130169	-0.103874	0.239644	
0.724049	6.22558	5	0	-0.317856	0.336553	-0.284813	0.466141	-0.509201	0.458307	-0.375695	0.39511	-0.327167	0.439265	-0.302743	0.461773	-0.28462	0.408203	-0.23526	0.282564	-0.269632	0.135896	-0.24516	0.215518	-0.252746	0.163485	-0.169894	0.158765	-0.246904	0.255514	-0.0863735	0.200883	-0.098112	0.128197	-0.110056	0.235558	
0.724785	6.21185	5	0	-0.320583	0.344259	-0.280023	0.475291	-0.510369	0.461607	-0.374064	0.400348	-0.325255	0.443733	-0.299481	0.465309	-0.287499	0.41634	-0.229843	0.279025	-0.268749	0.133403	-0.238287	0.206666	-0.248392	0.160639	-0.167627	0.152356	-0.244023	0.24737	-0.0843287	0.195104	-0.103142	0.126225	-0.116238	0.231472	
0.725691	6.19507	5	0	-0.32331	0.351966	-0.275234	0.484441	-0.511537	0.464908	-0.372433	0.405586	-0.323342	0.448201	-0.29622	0.468845	-0.290378	0.424477	-0.224426	0.275485	-0.267867	0.130909	-0.231413	0.197814	-0.244037	0.157794	-0.165359	0.145947	-0.241141	0.239225	-0.082284	0.189326	-0.108173	0.124253	-0.12242	0.227387	
0.726878	6.18286	5	0	-0.320583	0.344259	-0.271842	0.474854	-0.508035	0.455009	-0.365964	0.397156	-0.324219	0.450682	-0.297525	0.472533	-0.289418	0.421764	-0.229843	0.279025	-0.268749	0.133403	-0.23342	0.203486	-0.244037	0.157794	-0.155811	0.144635	-0.23716	0.240797	-0.0801165	0.194574	-0.109383	0.127673	-0.115303	0.228829	
0.728437	6.17065	5	0	-0.317856	0.336553	-0.26845	0.465267	-0.504532	0.44511	-0.359495	0.388726	-0.325097	0.453162	-0.29883	0.476221	-0.288458	0.41905	-0.23526	0.282564	-0.269632	0.135896	-0.235427	0.209158	-0.244037	0.157794	-0.146262	0.143323	-0.233179	0.24237	-0.077949	0.199823	-0.110593	0.131093	-0.108185	0.230272	
0.730337	6.15997	5	0	-0.315129	0.328846	-0.265057	0.455679	-0.50103	0.435211	-0.353026	0.380295	-0.325975	0.455643	-0.300135	0.479909	-0.287498	0.416337	-0.240677	0.286104	-0.270514	0.138389	-0.237434	0.21483	-0.244037	0.157794	-0.136713	0.142011	-0.229198	0.243943	-0.0757815	0.205071	-0.111803	0.134512	-0.101068	0.231714	
0.732509	6.14471	5	0	-0.312402	0.32114	-0.261665	0.446092	-0.497527	0.425312	-0.346557	0.371865	-0.326852	0.458123	-0.30144	0.483597	-0.286538	0.413624	-0.246094	0.289644	-0.271396	0.140883	-0.239441	0.220502	-0.244037	0.157794	-0.127165	0.140699	-0.225217	0.245515	-0.073614	0.210319	-0.113013	0.137932	-0.09395	0.233156	
0.734886	6.13403	5	0	-0.314707	0.316726	-0.263498	0.439927	-0.49636	0.422015	-0.350125	0.372096	-0.329641	0.456132	-0.306005	0.483744	-0.289873	0.411633	-0.244933	0.286363	-0.273084	0.134322	-0.236431	0.211996	-0.244037	0.157794	-0.129674	0.134949	-0.228238	0.241229	-0.0820355	0.211378	-0.118038	0.135958	-0.0970425	0.231114	
0.737399	6.12182	5	0	-0.317012	0.312312	-0.265332	0.433762	-0.495194	0.418718	-0.353692	0.372327	-0.33243	0.454141	-0.310569	0.483892	-0.293208	0.409643	-0.243773	0.283083	-0.274772	0.12776	-0.233421	0.203489	-0.244037	0.157794	-0.132184	0.129199	-0.231259	0.236944	-0.090457	0.212437	-0.123063	0.133985	-0.100135	0.229072	
0.739979	6.11114	5	0	-0.319316	0.307899	-0.267166	0.427598	-0.494027	0.41542	-0.35726	0.372557	-0.335219	0.45215	-0.315133	0.484039	-0.296543	0.407652	-0.242612	0.279803	-0.276461	0.121199	-0.230411	0.194983	-0.244037	0.157794	-0.134693	0.12345	-0.234279	0.232658	-0.0988785	0.213496	-0.128088	0.132011	-0.103227	0.22703	
0.742544	6.09894	5	0	-0.321621	0.303485	-0.268999	0.421433	-0.49286	0.412123	-0.360828	0.372788	-0.338008	0.450159	-0.319698	0.484186	-0.299878	0.405661	-0.241451	0.276522	-0.278149	0.114637	-0.227401	0.186476	-0.244037	0.157794	-0.137202	0.1177	-0.2373	0.228372	-0.1073	0.214555	-0.133113	0.130037	-0.10632	0.224988	
0.744956	6.09283	5	0	-0.321621	0.303485	-0.271258	0.427817	-0.491694	0.408827	-0.361795	0.37552	-0.334341	0.449669	-0.313828	0.480351	-0.300837	0.408373	-0.240291	0.273243	-0.277268	0.112146	-0.226398	0.183642	-0.244037	0.157794	-0.134937	0.111298	-0.239361	0.221381	-0.105256	0.208779	-0.124459	0.121756	-0.109411	0.222947	
0.74706	6.07757	5	0	-0.321621	0.303485	-0.273516	0.4342	-0.490528	0.405531	-0.362761	0.378252	-0.330675	0.44918	-0.307959	0.476515	-0.301797	0.411084	-0.23913	0.269964	-0.276386	0.109656	-0.225395	0.180808	-0.244037	0.157794	-0.132671	0.104897	-0.241422	0.21439	-0.103213	0.203002	-0.115806	0.113474	-0.112502	0.220907	
0.748705	6.06689	5	0	-0.321621	0.303485	-0.275775	0.440584	-0.489361	0.402235	-0.363728	0.380985	-0.327009	0.44869	-0.30209	0.47268	-0.302756	0.413796	-0.23797	0.266685	-0.275505	0.107165	-0.224393	0.177975	-0.244037	0.157794	-0.130406	0.0984947	-0.243482	0.207399	-0.101169	0.197225	-0.107152	0.105192	-0.115593	0.218866	
0.749736	6.05469	5	0	-0.321621	0.303485	-0.278034	0.446968	-0.488195	0.398939	-0.364695	0.383717	-0.323342	0.448201	-0.29622	0.468845	-0.303716	0.416508	-0.23681	0.263406	-0.274624	0.104674	-0.22339	0.175141	-0.244037	0.157794	-0.128141	0.092093	-0.245543	0.200408	-0.099125	0.191449	-0.098498	0.096911	-0.118684	0.216826	
0.750001	6.04401	5	0	-0.324832	0.30164	-0.282123	0.447186	-0.492055	0.396396	-0.366328	0.378484	-0.325098	0.453163	-0.3047	0.480058	-0.304676	0.41922	-0.242224	0.266944	-0.274624	0.104674	-0.22339	0.175141	-0.23968	0.154947	-0.129274	0.0952932	-0.241563	0.201975	-0.101169	0.197225	-0.0997072	0.100328	-0.115593	0.218866	
0.749396	6.03332	5	0	-0.328043	0.299794	-0.286213	0.447404	-0.495916	0.393854	-0.36796	0.373251	-0.326853	0.458124	-0.31318	0.491271	-0.305636	0.421932	-0.247637	0.270481	-0.274624	0.104674	-0.22339	0.175141	-0.235323	0.1521	-0.130406	0.0984935	-0.237584	0.203542	-0.103213	0.203002	-0.100916	0.103745	-0.112502	0.220907	
0.748018	6.02722	5	0	-0.331255	0.297949	-0.290303	0.447622	-0.499777	0.391311	-0.369592	0.368018	-0.328608	0.463085	-0.32166	0.502483	-0.306595	0.424645	-0.253051	0.274018	-0.274624	0.104674	-0.22339	0.175141	-0.230966	0.149253	-0.131539	0.101694	-0.233604	0.205109	-0.105256	0.208779	-0.102126	0.107162	-0.109411	0.222947	
0.746014	6.01959	5	0	-0.334466	0.296104	-0.294392	0.44784	-0.503637	0.388769	-0.371225	0.362785	-0.330364	0.468047	-0.33014	0.513696	-0.307555	0.427357	-0.258464	0.277556	-0.274624	0.104674	-0.22339	0.175141	-0.226609	0.146406	-0.132671	0.104894	-0.229624	0.206676	-0.1073	0.214555	-0.103335	0.110579	-0.10632	0.224988	
0.743533	6.01349	5	0	-0.336769	0.291697	-0.300306	0.441896	-0.502472	0.385476	-0.373823	0.360286	-0.331398	0.461096	-0.324921	0.498947	-0.303718	0.416513	-0.261555	0.274537	-0.277194	0.100612	-0.226252	0.172656	-0.230966	0.149253	-0.135181	0.0991555	-0.232645	0.2024	-0.11571	0.21561	-0.108362	0.10861	-0.11128	0.228229	
0.740724	6.02264	5	0	-0.339072	0.287291	-0.306221	0.435953	-0.501307	0.382184	-0.376422	0.357787	-0.332432	0.454145	-0.319703	0.484198	-0.29988	0.405668	-0.264646	0.271517	-0.279764	0.09655	-0.229114	0.170171	-0.235323	0.1521	-0.13769	0.093417	-0.235666	0.198124	-0.124121	0.216664	-0.113389	0.106642	-0.116239	0.231469	
0.737733	6.01654	5	0	-0.341375	0.282884	-0.312136	0.430009	-0.500142	0.378891	-0.37902	0.355288	-0.333466	0.447194	-0.314484	0.469449	-0.296043	0.394823	-0.267737	0.268498	-0.282335	0.092488	-0.231977	0.167686	-0.23968	0.154947	-0.1402	0.0876785	-0.238687	0.193848	-0.132531	0.217718	-0.118415	0.104674	-0.121198	0.23471	
0.734714	6.01196	5	0	-0.343678	0.278478	-0.31805	0.424065	-0.498977	0.375599	-0.381618	0.352789	-0.3345	0.440243	-0.309265	0.4547	-0.292206	0.383979	-0.270828	0.265478	-0.284905	0.088426	-0.234839	0.165201	-0.244037	0.157794	-0.14271	0.08194	-0.241708	0.189572	-0.140941	0.218773	-0.123442	0.102705	-0.126158	0.237951	
0.731827	6.01349	5	0	-0.342772	0.275917	-0.312837	0.420659	-0.498977	0.375599	-0.380653	0.350061	-0.333623	0.437765	-0.31513	0.458533	-0.292206	0.383979	-0.275076	0.265736	-0.278812	0.0825318	-0.2377	0.162718	-0.243271	0.155629	-0.14635	0.0794037	-0.24377	0.182595	-0.137878	0.210115	-0.127257	0.0973258	-0.133266	0.236506	
0.729237	6.00433	5	0	-0.341865	0.273355	-0.307624	0.417253	-0.498977	0.375599	-0.379688	0.347333	-0.332746	0.435287	-0.320996	0.462365	-0.292206	0.383979	-0.279324	0.265993	-0.272718	0.0766375	-0.24056	0.160235	-0.242505	0.153463	-0.14999	0.0768675	-0.245833	0.175618	-0.134815	0.201458	-0.131072	0.0919465	-0.140373	0.235061	
0.727107	6.00128	5	0	-0.340958	0.270794	-0.302412	0.413847	-0.498977	0.375599	-0.378722	0.344604	-0.331869	0.432808	-0.326862	0.466197	-0.292206	0.383979	-0.283571	0.266251	-0.266625	0.0707433	-0.24342	0.157751	-0.241738	0.151298	-0.15363	0.0743313	-0.247895	0.168641	-0.131751	0.1928	-0.134887	0.0865672	-0.147481	0.233616	
0.725601	5.99213	5	0	-0.340052	0.268233	-0.297199	0.410441	-0.498977	0.375599	-0.377757	0.341876	-0.330992	0.43033	-0.332727	0.47003	-0.292206	0.383979	-0.287819	0.266508	-0.260532	0.064849	-0.246281	0.155268	-0.240972	0.149133	-0.15727	0.071795	-0.249957	0.161664	-0.128688	0.184142	-0.138702	0.081188	-0.154589	0.232171	
0.724882	5.97992	5	0	-0.343261	0.266393	-0.301284	0.41066	-0.497812	0.372308	-0.381319	0.342107	-0.330992	0.43033	-0.332727	0.47003	-0.296498	0.384701	-0.28666	0.263234	-0.261412	0.067337	-0.246281	0.155268	-0.237381	0.148451	-0.15727	0.071795	-0.245021	0.160519	-0.128688	0.184142	-0.138702	0.081188	-0.145613	0.228335	
0.724992	5.96771	5	0	-0.346469	0.264552	-0.305369	0.41088	-0.496648	0.369016	-0.384881	0.342338	-0.330992	0.43033	-0.332727	0.47003	-0.300791	0.385423	-0.285502	0.259959	-0.262293	0.069825	-0.246281	0.155268	-0.233791	0.147769	-0.15727	0.071795	-0.240085	0.159373	-0.128688	0.184142	-0.138702	0.081188	-0.136636	0.224498	
0.725762	5.95245	5	0	-0.349678	0.262712	-0.309455	0.4111	-0.495484	0.365725	-0.388444	0.342569	-0.330992	0.43033	-0.332727	0.47003	-0.305084	0.386145	-0.284344	0.256685	-0.263174	0.072313	-0.246281	0.155268	-0.2302	0.147088	-0.15727	0.071795	-0.235148	0.158227	-0.128688	0.184142	-0.138702	0.081188	-0.12766	0.220662	
0.727002	5.93719	5	0	-0.352887	0.260872	-0.31354	0.411319	-0.494319	0.362434	-0.392006	0.3428	-0.330992	0.43033	-0.332727	0.47003	-0.309376	0.386867	-0.283185	0.25341	-0.264054	0.074801	-0.246281	0.155268	-0.226609	0.146406	-0.15727	0.071795	-0.230212	0.157082	-0.128688	0.184142	-0.138702	0.081188	-0.118684	0.216826	
0.728522	5.92499	5	0	-0.348362	0.248083	-0.318324	0.402209	-0.491991	0.355855	-0.393638	0.33758	-0.327487	0.420424	-0.33468	0.462814	-0.304588	0.373334	-0.286273	0.250396	-0.266626	0.0707453	-0.24814	0.149959	-0.230966	0.149253	-0.159778	0.0660682	-0.229254	0.154376	-0.13391	0.187554	-0.144927	0.0826335	-0.122706	0.217425	
0.730131	5.91125	5	0	-0.343836	0.235293	-0.323109	0.393099	-0.489664	0.349277	-0.395269	0.33236	-0.323982	0.410517	-0.336633	0.455599	-0.299799	0.3598	-0.28936	0.247382	-0.269199	0.0666895	-0.249999	0.144651	-0.235323	0.1521	-0.162285	0.0603415	-0.228297	0.15167	-0.139132	0.190966	-0.151152	0.084079	-0.126729	0.218025	
0.731643	5.90057	5	0	-0.339311	0.222504	-0.327893	0.383988	-0.487336	0.342698	-0.3969	0.327139	-0.320476	0.400611	-0.338586	0.448383	-0.29501	0.346267	-0.292447	0.244367	-0.271771	0.0626338	-0.251857	0.139342	-0.23968	0.154947	-0.164793	0.0546148	-0.227339	0.148965	-0.144355	0.194379	-0.157377	0.0855245	-0.130751	0.218624	
0.732977	5.88531	5	0	-0.334786	0.209715	-0.332677	0.374878	-0.485008	0.33612	-0.398532	0.321919	-0.316971	0.390705	-0.340539	0.441167	-0.290222	0.332734	-0.295535	0.241353	-0.274344	0.058578	-0.253716	0.134033	-0.244037	0.157794	-0.167301	0.048888	-0.226382	0.146259	-0.149577	0.197791	-0.163602	0.08697	-0.134774	0.219223	
0.734176	5.87616	5	0	-0.328861	0.203879	-0.322261	0.368072	-0.478816	0.332074	-0.394971	0.321687	-0.314345	0.383282	-0.339237	0.437488	-0.2926	0.328053	-0.295535	0.241353	-0.272585	0.053607	-0.253716	0.134033	-0.244037	0.157794	-0.172066	0.049548	-0.228449	0.139295	-0.151735	0.192552	-0.158779	0.0733408	-0.136928	0.214546	
0.735292	5.86548	5	0	-0.322936	0.198043	-0.311845	0.361266	-0.472625	0.328028	-0.39141	0.321455	-0.311719	0.37586	-0.337935	0.433809	-0.294978	0.323372	-0.295535	0.241353	-0.270826	0.048636	-0.253716	0.134033	-0.244037	0.157794	-0.176831	0.050208	-0.230516	0.132331	-0.153894	0.187312	-0.153957	0.0597115	-0.139081	0.209869	
0.736373	5.8548	5	0	-0.317012	0.192207	-0.301429	0.35446	-0.466433	0.323982	-0.38785	0.321223	-0.309092	0.368437	-0.336634	0.43013	-0.297357	0.318691	-0.295535	0.241353	-0.269067	0.043665	-0.253716	0.134033	-0.244037	0.157794	-0.181595	0.050868	-0.232583	0.125367	-0.156052	0.182073	-0.149135	0.0460823	-0.141235	0.205193	
0.737471	5.84106	5	0	-0.311087	0.186371	-0.291013	0.347654	-0.460241	0.319936	-0.384289	0.320991	-0.306466	0.361014	-0.335332	0.426451	-0.299735	0.31401	-0.295535	0.241353	-0.267308	0.038694	-0.253716	0.134033	-0.244037	0.157794	-0.18636	0.051528	-0.23465	0.118403	-0.158211	0.176834	-0.144312	0.032453	-0.143389	0.200516	
0.738635	5.83649	5	0	-0.317012	0.192207	-0.295517	0.360385	-0.460241	0.319936	-0.386218	0.326443	-0.303673	0.362992	-0.332074	0.42998	-0.295443	0.313283	-0.297851	0.247898	-0.267308	0.038694	-0.254717	0.13686	-0.23968	0.154947	-0.182725	0.0540602	-0.229712	0.117254	-0.155032	0.179189	-0.144312	0.032453	-0.135345	0.199315	
0.739911	5.82886	5	0	-0.322936	0.198043	-0.300022	0.373116	-0.460241	0.319936	-0.388147	0.331896	-0.300879	0.364971	-0.328817	0.43351	-0.291152	0.312557	-0.300167	0.254443	-0.267308	0.038694	-0.255717	0.139688	-0.235323	0.1521	-0.17909	0.0565925	-0.224775	0.116106	-0.151853	0.181544	-0.144312	0.032453	-0.127301	0.198114	
0.74134	5.82123	5	0	-0.328861	0.203879	-0.304527	0.385846	-0.460241	0.319936	-0.390077	0.337348	-0.298086	0.366949	-0.32556	0.43704	-0.28686	0.311831	-0.302483	0.260988	-0.267308	0.038694	-0.256717	0.142516	-0.230966	0.149253	-0.175455	0.0591247	-0.219838	0.114957	-0.148674	0.1839	-0.144312	0.032453	-0.119257	0.196914	
0.742961	5.81665	5	0	-0.334786	0.209715	-0.309031	0.398577	-0.460241	0.319936	-0.392006	0.3428	-0.295292	0.368928	-0.322302	0.440569	-0.282568	0.311104	-0.304799	0.267533	-0.267308	0.038694	-0.257718	0.145343	-0.226609	0.146406	-0.17182	0.061657	-0.2149	0.113809	-0.145495	0.186255	-0.144312	0.032453	-0.111213	0.195713	
0.744816	5.81512	5	0	-0.332977	0.204605	-0.302692	0.391986	-0.452881	0.3126	-0.387479	0.339842	-0.296336	0.362004	-0.326861	0.440719	-0.283037	0.301028	-0.304799	0.267533	-0.266429	0.0362095	-0.258719	0.148172	-0.226609	0.146406	-0.178844	0.0687017	-0.211873	0.118068	-0.145379	0.197272	-0.154147	0.0441168	-0.109055	0.200391	
0.746946	5.80444	5	0	-0.331169	0.199494	-0.296352	0.385396	-0.445522	0.305264	-0.382952	0.336884	-0.29738	0.355081	-0.331421	0.440868	-0.283507	0.290953	-0.304799	0.267533	-0.265549	0.033725	-0.259719	0.151	-0.226609	0.146406	-0.185868	0.0757465	-0.208846	0.122326	-0.145262	0.20829	-0.163983	0.0557805	-0.106898	0.205068	
0.749385	5.79681	5	0	-0.329361	0.194383	-0.290013	0.378805	-0.438163	0.297927	-0.378424	0.333925	-0.298423	0.348158	-0.33598	0.441017	-0.283976	0.280878	-0.304799	0.267533	-0.26467	0.0312405	-0.26072	0.153828	-0.226609	0.146406	-0.192891	0.0827912	-0.205818	0.126585	-0.145145	0.219307	-0.173819	0.0674442	-0.10474	0.209746	
0.752051	5.79071	5	0	-0.327552	0.189273	-0.283673	0.372214	-0.430803	0.290591	-0.373897	0.330967	-0.299467	0.341234	-0.340539	0.441167	-0.284446	0.270802	-0.304799	0.267533	-0.263791	0.028756	-0.261721	0.156657	-0.226609	0.146406	-0.199915	0.089836	-0.202791	0.130844	-0.145029	0.230324	-0.183654	0.079108	-0.102582	0.214424	
0.754764	5.78613	5	0	-0.322532	0.185993	-0.270269	0.368353	-0.425766	0.289827	-0.3658	0.327773	-0.294048	0.335793	-0.333376	0.433658	-0.283491	0.268103	-0.295147	0.263744	-0.26467	0.0312405	-0.258862	0.15914	-0.226609	0.146406	-0.199915	0.089836	-0.201834	0.128139	-0.138782	0.224022	-0.182449	0.0757015	-0.106608	0.215025	
0.757338	5.78003	5	0	-0.317512	0.182712	-0.256866	0.364492	-0.420728	0.289063	-0.357703	0.32458	-0.288629	0.330353	-0.326213	0.426149	-0.282536	0.265405	-0.285496	0.259954	-0.265549	0.033725	-0.256004	0.161623	-0.226609	0.146406	-0.199915	0.089836	-0.200877	0.125434	-0.132534	0.21772	-0.181243	0.072295	-0.110633	0.215625	
0.759589	5.77392	5	0	-0.312491	0.179432	-0.243463	0.360631	-0.41569	0.288299	-0.349606	0.321386	-0.283211	0.324912	-0.319049	0.41864	-0.281582	0.262707	-0.275844	0.256165	-0.266429	0.0362095	-0.253145	0.164106	-0.226609	0.146406	-0.199915	0.089836	-0.19992	0.122729	-0.126286	0.211417	-0.180037	0.0688885	-0.114658	0.216225	
0.761331	5.76782	5	0	-0.307471	0.176152	-0.230059	0.35677	-0.410653	0.287535	-0.341509	0.318192	-0.277792	0.319472	-0.311886	0.411131	-0.280627	0.260008	-0.266192	0.252376	-0.267308	0.038694	-0.250287	0.166589	-0.226609	0.146406	-0.199915	0.089836	-0.198963	0.120024	-0.120039	0.205115	-0.178832	0.065482	-0.118684	0.216826	
0.762384	5.76477	5	0	-0.304256	0.17798	-0.230475	0.3693	-0.404448	0.28348	-0.338905	0.320686	-0.274995	0.321445	-0.308624	0.414658	-0.2792	0.267378	-0.26426	0.258671	-0.262974	0.037773	-0.243563	0.168727	-0.218655	0.142874	-0.190385	0.0885215	-0.194976	0.121579	-0.123106	0.213781	-0.180037	0.0688885	-0.111565	0.218266	
0.762665	5.75409	5	0	-0.30104	0.179808	-0.230892	0.38183	-0.398242	0.279425	-0.336302	0.32318	-0.272197	0.323418	-0.305363	0.418185	-0.277773	0.274748	-0.262328	0.264966	-0.258641	0.036852	-0.236839	0.170865	-0.2107	0.139341	-0.180854	0.087207	-0.190989	0.123133	-0.126172	0.222447	-0.181243	0.072295	-0.104447	0.219705	
0.762205	5.74646	5	0	-0.297825	0.181636	-0.231308	0.394361	-0.392037	0.275371	-0.333699	0.325674	-0.2694	0.32539	-0.302102	0.421711	-0.276346	0.282117	-0.260396	0.271261	-0.254308	0.035931	-0.230114	0.173003	-0.202745	0.135808	-0.171323	0.0858925	-0.187001	0.124687	-0.129239	0.231114	-0.182449	0.0757015	-0.0973285	0.221145	
0.761037	5.74341	5	0	-0.29461	0.183464	-0.231724	0.406891	-0.385832	0.271316	-0.331095	0.328168	-0.266603	0.327363	-0.29884	0.425238	-0.274919	0.289487	-0.258464	0.277556	-0.249974	0.03501	-0.22339	0.175141	-0.194791	0.132276	-0.161793	0.084578	-0.183014	0.126242	-0.132305	0.23978	-0.183654	0.079108	-0.09021	0.222585	
0.759199	5.7373	5	0	-0.29461	0.183464	-0.229466	0.40051	-0.385832	0.271316	-0.335629	0.331131	-0.263105	0.317478	-0.297538	0.421558	-0.272053	0.281387	-0.255372	0.280578	-0.249974	0.03501	-0.22153	0.180463	-0.198386	0.13296	-0.162924	0.087775	-0.18493	0.131656	-0.130146	0.245038	-0.186066	0.0859252	-0.091145	0.225228	
0.756725	5.72967	5	0	-0.29461	0.183464	-0.227209	0.394128	-0.385832	0.271316	-0.340164	0.334094	-0.259608	0.307594	-0.296235	0.417877	-0.269187	0.273286	-0.252279	0.2836	-0.249974	0.03501	-0.21967	0.185785	-0.201981	0.133644	-0.164055	0.090972	-0.186845	0.13707	-0.127987	0.250297	-0.188478	0.0927425	-0.09208	0.227871	
0.753654	5.72204	5	0	-0.29461	0.183464	-0.224951	0.387747	-0.385832	0.271316	-0.344699	0.337057	-0.25611	0.29771	-0.294933	0.414196	-0.266321	0.265186	-0.249187	0.286622	-0.249974	0.03501	-0.217809	0.191108	-0.205577	0.134329	-0.165187	0.094169	-0.18876	0.142484	-0.125827	0.255555	-0.190891	0.0995598	-0.093015	0.230513	
0.75014	5.71442	5	0	-0.29461	0.183464	-0.222693	0.381366	-0.385832	0.271316	-0.349233	0.34002	-0.252613	0.287825	-0.293631	0.410516	-0.263455	0.257086	-0.246094	0.289644	-0.249974	0.03501	-0.215949	0.19643	-0.209172	0.135013	-0.166318	0.097366	-0.190676	0.147898	-0.123668	0.260813	-0.193303	0.106377	-0.09395	0.233156	
0.746483	5.70526	5	0	-0.289584	0.18018	-0.222693	0.381366	-0.373408	0.263198	-0.342768	0.3316	-0.251739	0.285356	-0.28646	0.403002	-0.26441	0.259785	-0.246094	0.289644	-0.245638	0.0340877	-0.211077	0.193246	-0.209938	0.137179	-0.171085	0.0980227	-0.18876	0.142484	-0.122645	0.25792	-0.183466	0.094708	-0.0970425	0.231114	
0.742987	5.70068	5	0	-0.284558	0.176895	-0.222693	0.381366	-0.360985	0.25508	-0.336303	0.32318	-0.250865	0.282886	-0.279288	0.395487	-0.265365	0.262485	-0.246094	0.289644	-0.241302	0.0331655	-0.206205	0.190062	-0.210705	0.139344	-0.175851	0.0986795	-0.186845	0.13707	-0.121621	0.255028	-0.173628	0.083039	-0.100135	0.229072	
0.739962	5.69305	5	0	-0.279531	0.173611	-0.222693	0.381366	-0.348561	0.246962	-0.329837	0.31476	-0.249992	0.280417	-0.272117	0.387973	-0.26632	0.265184	-0.246094	0.289644	-0.236965	0.0322433	-0.201332	0.186879	-0.211471	0.14151	-0.180617	0.0993363	-0.18493	0.131656	-0.120597	0.252136	-0.163791	0.07137	-0.103227	0.22703	
0.737713	5.68695	5	0	-0.274505	0.170327	-0.222693	0.381366	-0.336137	0.238844	-0.323372	0.30634	-0.249118	0.277948	-0.264946	0.380459	-0.267275	0.267883	-0.246094	0.289644	-0.232629	0.031321	-0.19646	0.183695	-0.212237	0.143676	-0.185384	0.099993	-0.183014	0.126242	-0.119574	0.249243	-0.153953	0.059701	-0.10632	0.224988	
0.736535	5.67779	5	0	-0.275409	0.172883	-0.223822	0.384556	-0.341188	0.239617	-0.325977	0.303849	-0.245443	0.277445	-0.264946	0.380459	-0.264891	0.272554	-0.247255	0.292926	-0.234389	0.0362948	-0.193593	0.186184	-0.207875	0.140826	-0.180617	0.0993363	-0.178066	0.125089	-0.115366	0.248717	-0.153953	0.059701	-0.102292	0.224387	
0.736434	5.67016	5	0	-0.276314	0.175439	-0.22495	0.387746	-0.346239	0.24039	-0.328581	0.301358	-0.241767	0.276942	-0.264946	0.380459	-0.262507	0.277226	-0.248416	0.296207	-0.236148	0.0412685	-0.190725	0.188672	-0.203514	0.137976	-0.175851	0.0986795	-0.173118	0.123937	-0.111157	0.24819	-0.153953	0.059701	-0.098265	0.223786	
0.737149	5.66559	5	0	-0.277219	0.177996	-0.226079	0.390936	-0.35129	0.241163	-0.331185	0.298867	-0.238092	0.276439	-0.264946	0.380459	-0.260123	0.281898	-0.249577	0.299488	-0.237908	0.0462422	-0.187858	0.19116	-0.199153	0.135126	-0.171085	0.0980227	-0.168169	0.122785	-0.106949	0.247664	-0.153953	0.059701	-0.0942375	0.223186	
0.738403	5.65796	5	0	-0.278123	0.180552	-0.227208	0.394126	-0.356341	0.241936	-0.33379	0.296376	-0.234417	0.275936	-0.264946	0.380459	-0.257739	0.286569	-0.250738	0.30277	-0.239668	0.051216	-0.184991	0.193649	-0.194791	0.132276	-0.166318	0.097366	-0.163221	0.121632	-0.102741	0.247138	-0.153953	0.059701	-0.09021	0.222585	
0.739925	5.65338	5	0	-0.273603	0.167777	-0.229763	0.378646	-0.352854	0.232081	-0.334466	0.28844	-0.234599	0.266568	-0.266914	0.373267	-0.259168	0.279198	-0.252669	0.296466	-0.238788	0.0487288	-0.193734	0.19718	-0.194025	0.13011	-0.171085	0.0980227	-0.164179	0.12434	-0.110021	0.256344	-0.155159	0.063109	-0.091145	0.225228	
0.741438	5.64575	5	0	-0.269083	0.155003	-0.232318	0.363166	-0.349367	0.222226	-0.335143	0.280504	-0.234782	0.2572	-0.268881	0.366074	-0.260597	0.271827	-0.254601	0.290163	-0.237908	0.0462415	-0.202477	0.200712	-0.193258	0.127945	-0.175851	0.0986795	-0.165137	0.127047	-0.117301	0.265551	-0.156365	0.066517	-0.09208	0.227871	
0.74268	5.63965	5	0	-0.264562	0.142229	-0.234872	0.347687	-0.345879	0.21237	-0.335819	0.272567	-0.234964	0.247833	-0.270848	0.358882	-0.262026	0.264457	-0.256533	0.28386	-0.237028	0.0437542	-0.21122	0.204243	-0.192492	0.125779	-0.180617	0.0993363	-0.166095	0.129754	-0.12458	0.274757	-0.15757	0.069925	-0.093015	0.230513	
0.743553	5.63812	5	0	-0.260042	0.129454	-0.237427	0.332207	-0.342392	0.202515	-0.336495	0.264631	-0.235147	0.238465	-0.272816	0.35169	-0.263455	0.257086	-0.258464	0.277556	-0.236148	0.041267	-0.219963	0.207775	-0.191726	0.123613	-0.185384	0.099993	-0.167053	0.132462	-0.13186	0.283964	-0.158776	0.073333	-0.09395	0.233156	
0.744093	5.63202	5	0	-0.259139	0.126902	-0.227703	0.316073	-0.335016	0.195172	-0.334569	0.259187	-0.228853	0.230561	-0.268919	0.340676	-0.261545	0.25169	-0.261555	0.274537	-0.233509	0.0338095	-0.217956	0.202103	-0.196087	0.126463	-0.183123	0.0936025	-0.169129	0.125496	-0.128789	0.275284	-0.156365	0.0665183	-0.09424	0.223193	
0.744342	5.63202	5	0	-0.258236	0.124349	-0.217979	0.299939	-0.327641	0.187829	-0.332643	0.253744	-0.222559	0.222658	-0.265022	0.329661	-0.259636	0.246293	-0.264646	0.271517	-0.23087	0.026352	-0.215949	0.196431	-0.200449	0.129313	-0.180862	0.087212	-0.171204	0.11853	-0.125717	0.266603	-0.153954	0.0597035	-0.09453	0.213231	
0.744339	5.62897	5	0	-0.257332	0.121797	-0.208256	0.283805	-0.320265	0.180485	-0.330716	0.2483	-0.216266	0.214754	-0.261124	0.318647	-0.257727	0.240897	-0.267737	0.268498	-0.228232	0.0188945	-0.213942	0.190759	-0.204811	0.132163	-0.178601	0.0808215	-0.17328	0.111565	-0.122646	0.257923	-0.151542	0.0528887	-0.09482	0.203269	
0.744124	5.63049	5	0	-0.256429	0.119244	-0.198532	0.267671	-0.312889	0.173142	-0.32879	0.242856	-0.209972	0.20685	-0.257227	0.307633	-0.255817	0.235501	-0.270828	0.265478	-0.225593	0.011437	-0.211935	0.185087	-0.209172	0.135013	-0.17634	0.074431	-0.175355	0.104599	-0.119574	0.249243	-0.149131	0.046074	-0.09511	0.193306	
0.743739	5.6366	5	0	-0.254624	0.114141	-0.196682	0.273796	-0.311728	0.16986	-0.324258	0.239895	-0.203485	0.208298	-0.252656	0.307468	-0.261065	0.23893	-0.272759	0.259188	-0.232507	0.00831725	-0.217661	0.180115	-0.209172	0.135013	-0.171572	0.073772	-0.174398	0.101895	-0.114342	0.245824	-0.149131	0.046074	-0.0991357	0.193908	
0.743232	5.65338	5	0	-0.252818	0.109038	-0.194832	0.279921	-0.310567	0.166579	-0.319726	0.236933	-0.196997	0.209747	-0.248085	0.307303	-0.266313	0.242359	-0.274691	0.252898	-0.23942	0.0051975	-0.223387	0.175144	-0.209172	0.135013	-0.166805	0.073113	-0.173442	0.0991905	-0.10911	0.242405	-0.149131	0.046074	-0.103162	0.19451	
0.742659	5.67779	5	0	-0.251013	0.103934	-0.192982	0.286047	-0.309406	0.163297	-0.315194	0.233972	-0.19051	0.211196	-0.243514	0.307137	-0.271561	0.245788	-0.276622	0.246608	-0.246334	0.00207775	-0.229113	0.170173	-0.209172	0.135013	-0.162038	0.072454	-0.172485	0.0964862	-0.103879	0.238987	-0.149131	0.046074	-0.107187	0.195111	
0.742076	5.70679	5	0	-0.249207	0.098831	-0.191132	0.292172	-0.308245	0.160016	-0.310662	0.231011	-0.184023	0.212644	-0.238943	0.306972	-0.276809	0.249217	-0.278553	0.240318	-0.253248	-0.001042	-0.234839	0.165201	-0.209172	0.135013	-0.15727	0.071795	-0.171528	0.093782	-0.098647	0.235568	-0.149131	0.046074	-0.111213	0.195713	
0.741539	5.73883	5	0	-0.254364	0.0806625	-0.182528	0.279216	-0.303605	0.146902	-0.307775	0.222851	-0.181405	0.205246	-0.253319	0.29664	-0.286336	0.230604	-0.292051	0.23155	-0.276502	-0.0144107	-0.263379	0.14045	-0.212765	0.135696	-0.174061	0.0680435	-0.171528	0.093782	-0.111155	0.248189	-0.151542	0.0528887	-0.10999	0.203032	
0.741102	5.76935	5	0	-0.259522	0.062494	-0.173924	0.266259	-0.298964	0.133788	-0.304887	0.214692	-0.178787	0.197848	-0.267694	0.286308	-0.295864	0.211991	-0.305549	0.222781	-0.299757	-0.0277795	-0.291918	0.115698	-0.216358	0.136379	-0.190852	0.064292	-0.171528	0.093782	-0.123663	0.260811	-0.153954	0.0597035	-0.108767	0.21035	
0.740818	5.80444	5	0	-0.264679	0.0443255	-0.16532	0.253303	-0.294324	0.120674	-0.302	0.206533	-0.17617	0.19045	-0.28207	0.275976	-0.305392	0.193378	-0.319047	0.214012	-0.323012	-0.0411483	-0.320458	0.0909473	-0.219951	0.137062	-0.207642	0.0605405	-0.171528	0.093782	-0.13617	0.273432	-0.156365	0.0665183	-0.107543	0.217669	
0.740703	5.85174	5	0	-0.269836	0.026157	-0.156716	0.240347	-0.289684	0.10756	-0.299113	0.198373	-0.173552	0.183052	-0.296445	0.265644	-0.314919	0.174765	-0.332545	0.205244	-0.346266	-0.054517	-0.348997	0.066196	-0.223544	0.137745	-0.224433	0.056789	-0.171528	0.093782	-0.148678	0.286053	-0.158776	0.073333	-0.10632	0.224988	
0.740754	5.90057	5	0	-0.266239	0.0159915	-0.148499	0.239866	-0.287366	0.10101	-0.299113	0.198373	-0.164437	0.177096	-0.298416	0.258495	-0.3325	0.167683	-0.338704	0.199239	-0.36768	-0.0727542	-0.374422	0.033237	-0.232256	0.143437	-0.23555	0.0371425	-0.17265	0.0841298	-0.14981	0.277899	-0.151344	0.068477	-0.10632	0.224988	
0.740967	5.96008	5	0	-0.262642	0.005826	-0.140282	0.239386	-0.285049	0.0944605	-0.299113	0.198373	-0.155323	0.171141	-0.300387	0.251347	-0.350081	0.1606	-0.344864	0.193233	-0.389093	-0.0909915	-0.399848	0.000278	-0.240968	0.14913	-0.246666	0.017496	-0.173772	0.0744775	-0.150943	0.269745	-0.143913	0.063621	-0.10632	0.224988	
0.741336	6.03332	5	0	-0.259045	-0.0043395	-0.132064	0.238905	-0.282732	0.0879108	-0.299113	0.198373	-0.146208	0.165185	-0.302357	0.244198	-0.367661	0.153518	-0.351023	0.187227	-0.410507	-0.109229	-0.425274	-0.032681	-0.24968	0.154823	-0.257783	-0.0021505	-0.174894	0.0648253	-0.152075	0.261592	-0.136482	0.058765	-0.10632	0.224988	
0.741858	6.13251	5	0	-0.255448	-0.014505	-0.123847	0.238424	-0.280414	0.081361	-0.299113	0.198373	-0.137093	0.159229	-0.304328	0.237049	-0.385242	0.146435	-0.357183	0.181222	-0.431921	-0.127466	-0.450699	-0.06564	-0.258392	0.160515	-0.2689	-0.021797	-0.176016	0.055173	-0.153207	0.253438	-0.12905	0.053909	-0.10632	0.224988	
0.742519	6.25152	5	0	-0.258145	-0.006882	-0.123114	0.247732	-0.275354	0.080572	-0.291004	0.195164	-0.129514	0.167555	-0.305622	0.240705	-0.397089	0.145939	-0.35295	0.180962	-0.448104	-0.14897	-0.474178	-0.0931157	-0.258392	0.160515	-0.28809	-0.0311972	-0.180004	0.053629	-0.15843	0.25685	-0.137688	0.0621743	-0.105098	0.232317	
0.743231	6.3858	5	0	-0.260842	0.000741	-0.12238	0.25704	-0.270293	0.079783	-0.282895	0.191956	-0.121935	0.17588	-0.306916	0.244362	-0.408936	0.145443	-0.348718	0.180702	-0.464287	-0.170475	-0.497657	-0.120592	-0.258392	0.160515	-0.30728	-0.0405975	-0.183992	0.052085	-0.163652	0.260263	-0.146326	0.0704395	-0.103877	0.239647	
0.743872	6.52313	5	0	-0.26354	0.008364	-0.121647	0.266348	-0.265233	0.078994	-0.274785	0.188748	-0.114355	0.184206	-0.308209	0.248018	-0.420784	0.144947	-0.344485	0.180443	-0.480471	-0.191979	-0.521137	-0.148067	-0.258392	0.160515	-0.32647	-0.0499977	-0.187979	0.050541	-0.168875	0.263676	-0.154964	0.0787048	-0.102655	0.246976	
0.744316	6.64825	5	0	-0.266237	0.015987	-0.120913	0.275656	-0.260173	0.078205	-0.266676	0.185539	-0.106776	0.192532	-0.309503	0.251674	-0.432631	0.144451	-0.340252	0.180183	-0.496654	-0.213483	-0.544616	-0.175543	-0.258392	0.160515	-0.34566	-0.059398	-0.191967	0.048997	-0.174097	0.267088	-0.163602	0.08697	-0.101434	0.254306	
0.744439	6.76269	5	0	-0.275145	-0.0132812	-0.120182	0.28498	-0.262194	0.0569035	-0.275472	0.180841	-0.106776	0.192532	-0.319285	0.241217	-0.45342	0.135433	-0.33717	0.183185	-0.529843	-0.231217	-0.579349	-0.20176	-0.262744	0.163359	-0.368376	-0.071275	-0.198657	0.0679032	-0.187602	0.282581	-0.168432	0.10062	-0.106116	0.267539	
0.744117	6.85577	5	0	-0.284054	-0.0425495	-0.119452	0.294304	-0.264215	0.035602	-0.284268	0.176143	-0.106776	0.192532	-0.329067	0.230761	-0.474209	0.126416	-0.334089	0.186187	-0.563032	-0.248952	-0.614083	-0.227977	-0.267097	0.166204	-0.391091	-0.083152	-0.205347	0.0868095	-0.201106	0.298074	-0.173262	0.11427	-0.110798	0.280771	
0.743258	6.92596	5	0	-0.292963	-0.0718177	-0.118722	0.303628	-0.266236	0.0143005	-0.293064	0.171445	-0.106776	0.192532	-0.338849	0.220304	-0.494998	0.117398	-0.331008	0.189188	-0.59622	-0.266686	-0.648817	-0.254194	-0.27145	0.169048	-0.413807	-0.095029	-0.212037	0.105716	-0.214611	0.313567	-0.178092	0.12792	-0.115481	0.294003	
0.741983	6.97479	5	0	-0.301871	-0.101086	-0.117991	0.312952	-0.268257	-0.007001	-0.30186	0.166747	-0.106776	0.192532	-0.348631	0.209847	-0.515787	0.10838	-0.327926	0.19219	-0.629409	-0.284421	-0.68355	-0.280411	-0.275802	0.171892	-0.436522	-0.106906	-0.218727	0.124622	-0.228115	0.32906	-0.182922	0.14157	-0.120163	0.307236	
0.740507	6.99768	5	0	-0.311506	-0.106447	-0.113875	0.312715	-0.276056	-0.0119358	-0.308996	0.167236	-0.101134	0.196445	-0.354469	0.213662	-0.527566	0.107876	-0.317514	0.197941	-0.659878	-0.298122	-0.70023	-0.305442	-0.275036	0.169727	-0.453341	-0.122532	-0.213786	0.123472	-0.232304	0.329574	-0.191556	0.149838	-0.120163	0.307236	
0.739048	7.00226	5	0	-0.321141	-0.111808	-0.109759	0.312478	-0.283854	-0.0168705	-0.316132	0.167725	-0.095493	0.200358	-0.360306	0.217476	-0.539345	0.107373	-0.307103	0.203691	-0.690346	-0.311824	-0.716911	-0.330472	-0.27427	0.167563	-0.47016	-0.138159	-0.208845	0.122323	-0.236494	0.330087	-0.20019	0.158106	-0.120163	0.307236	
0.737819	7.00073	5	0	-0.330776	-0.117169	-0.105643	0.312241	-0.291653	-0.0218052	-0.323268	0.168215	-0.0898515	0.204271	-0.366144	0.221291	-0.551124	0.106869	-0.296691	0.209442	-0.720815	-0.325526	-0.733592	-0.355502	-0.273504	0.165398	-0.486979	-0.153785	-0.203904	0.121174	-0.240683	0.330601	-0.208823	0.166373	-0.120163	0.307236	
0.737037	6.97784	5	0	-0.340411	-0.12253	-0.101527	0.312004	-0.299451	-0.02674	-0.330404	0.168704	-0.08421	0.208184	-0.371981	0.225105	-0.562903	0.106365	-0.286279	0.215193	-0.751283	-0.339227	-0.750272	-0.380533	-0.272738	0.163233	-0.503798	-0.169411	-0.198963	0.120024	-0.244872	0.331115	-0.217457	0.174641	-0.120163	0.307236	
0.736854	6.94275	5	0	-0.336674	-0.11137	-0.115402	0.328433	-0.295553	-0.0242735	-0.332325	0.174133	-0.0803147	0.217053	-0.371311	0.235895	-0.568081	0.109748	-0.273912	0.227246	-0.774066	-0.341084	-0.751987	-0.396256	-0.272738	0.163233	-0.509845	-0.177524	-0.196891	0.126993	-0.242731	0.336389	-0.207439	0.178609	-0.118949	0.314592	
0.737101	6.8985	5	0	-0.332937	-0.100211	-0.129277	0.344862	-0.291656	-0.021807	-0.334246	0.179561	-0.0764195	0.225922	-0.370641	0.246685	-0.57326	0.113132	-0.261545	0.239299	-0.796849	-0.34294	-0.753702	-0.411979	-0.272738	0.163233	-0.515893	-0.185637	-0.19482	0.133961	-0.24059	0.341664	-0.197421	0.182578	-0.117734	0.321947	
0.737508	6.85272	5	0	-0.3292	-0.0890507	-0.143152	0.36129	-0.287758	-0.0193405	-0.336167	0.18499	-0.0725242	0.234791	-0.369971	0.257475	-0.578438	0.116516	-0.249177	0.251353	-0.819631	-0.344797	-0.755417	-0.427701	-0.272738	0.163233	-0.521941	-0.193749	-0.192748	0.14093	-0.238448	0.346938	-0.187404	0.186547	-0.116519	0.329302	
0.737803	6.80847	5	0	-0.325463	-0.077891	-0.157027	0.377719	-0.28386	-0.016874	-0.338088	0.190419	-0.068629	0.24366	-0.369301	0.268265	-0.583616	0.119899	-0.23681	0.263406	-0.842414	-0.346654	-0.757132	-0.443424	-0.272738	0.163233	-0.527988	-0.201862	-0.190676	0.147898	-0.236307	0.352212	-0.177386	0.190515	-0.115305	0.336658	
0.737715	6.76269	5	0	-0.335088	-0.0832623	-0.160006	0.374756	-0.292805	-0.0185475	-0.345214	0.190902	-0.068629	0.24366	-0.373846	0.268426	-0.59442	0.116722	-0.230616	0.269448	-0.860845	-0.360576	-0.775807	-0.452217	-0.277088	0.166075	-0.544491	-0.205528	-0.189565	0.157589	-0.240407	0.363799	-0.176007	0.20278	-0.11194	0.348744	
0.736972	6.71539	5	0	-0.344712	-0.0886335	-0.162985	0.371793	-0.301751	-0.020221	-0.352341	0.191385	-0.068629	0.24366	-0.378391	0.268587	-0.605225	0.113545	-0.224422	0.27549	-0.879275	-0.374498	-0.794482	-0.461011	-0.281439	0.168918	-0.560994	-0.209194	-0.188453	0.167279	-0.244506	0.375386	-0.174628	0.215044	-0.108576	0.36083	
0.735392	6.67267	5	0	-0.354337	-0.0940047	-0.165963	0.36883	-0.310696	-0.0218945	-0.359467	0.191868	-0.068629	0.24366	-0.382936	0.268748	-0.616029	0.110368	-0.218229	0.281533	-0.897705	-0.388419	-0.813157	-0.469805	-0.28579	0.171761	-0.577496	-0.21286	-0.187341	0.17697	-0.248606	0.386972	-0.17325	0.227308	-0.105211	0.372917	
0.733113	6.62842	5	0	-0.363962	-0.099376	-0.168942	0.365867	-0.319641	-0.023568	-0.366594	0.192351	-0.068629	0.24366	-0.387481	0.268909	-0.626833	0.107191	-0.212035	0.287575	-0.916136	-0.402341	-0.831832	-0.478598	-0.29014	0.174603	-0.593999	-0.216526	-0.18623	0.186661	-0.252706	0.398559	-0.171871	0.239573	-0.101846	0.385003	
0.730349	6.59332	5	0	-0.373569	-0.104738	-0.167813	0.362676	-0.329724	-0.0219875	-0.371114	0.195304	-0.0677528	0.241184	-0.392022	0.269069	-0.637616	0.104015	-0.204671	0.29034	-0.941237	-0.408116	-0.841039	-0.493515	-0.295254	0.179609	-0.607141	-0.229556	-0.18128	0.185511	-0.255868	0.39617	-0.171871	0.239573	-0.103998	0.380283	
0.727316	6.55365	5	0	-0.383177	-0.110101	-0.166683	0.359485	-0.339808	-0.020407	-0.375634	0.198258	-0.0668765	0.238707	-0.396564	0.269229	-0.6484	0.10084	-0.197307	0.293104	-0.966339	-0.413892	-0.850245	-0.508432	-0.300368	0.184615	-0.620282	-0.242586	-0.17633	0.184362	-0.25903	0.39378	-0.171871	0.239573	-0.10615	0.375563	
0.724229	6.52771	5	0	-0.392785	-0.115463	-0.165554	0.356294	-0.349891	-0.0188265	-0.380154	0.201212	-0.0660002	0.236231	-0.401106	0.269389	-0.659183	0.0976645	-0.189943	0.295869	-0.991441	-0.419668	-0.859452	-0.523348	-0.305482	0.189621	-0.633423	-0.255616	-0.171379	0.183213	-0.262193	0.391391	-0.171871	0.239573	-0.108301	0.370844	
0.7213	6.50024	5	0	-0.402392	-0.120825	-0.164425	0.353103	-0.359974	-0.017246	-0.384674	0.204165	-0.065124	0.233755	-0.405647	0.269549	-0.669966	0.094489	-0.182579	0.298634	-1.01654	-0.425443	-0.868658	-0.538265	-0.310596	0.194627	-0.646565	-0.268646	-0.166429	0.182063	-0.265355	0.389002	-0.171871	0.239573	-0.110453	0.366124	
0.718678	6.47583	5	0	-0.404699	-0.12513	-0.168531	0.353333	-0.357671	-0.023755	-0.385634	0.206879	-0.0660002	0.236231	-0.408232	0.276854	-0.674182	0.0952015	-0.177534	0.307984	-1.03241	-0.424294	-0.866735	-0.543701	-0.310596	0.194627	-0.650122	-0.271117	-0.163396	0.186341	-0.262193	0.391391	-0.168068	0.244999	-0.108575	0.360816	
0.716381	6.45599	5	0	-0.407007	-0.129436	-0.172637	0.353564	-0.355368	-0.030264	-0.386595	0.209593	-0.0668765	0.238707	-0.410817	0.28416	-0.678398	0.095914	-0.17249	0.317335	-1.04828	-0.423145	-0.864812	-0.549136	-0.310596	0.194627	-0.653678	-0.273587	-0.160363	0.190619	-0.25903	0.39378	-0.164264	0.250426	-0.106696	0.355509	
0.714411	6.43005	5	0	-0.409314	-0.133741	-0.176744	0.353795	-0.353064	-0.036773	-0.387555	0.212307	-0.0677528	0.241184	-0.413401	0.291465	-0.682615	0.0966265	-0.167445	0.326686	-1.06415	-0.421996	-0.862888	-0.554571	-0.310596	0.194627	-0.657234	-0.276058	-0.15733	0.194897	-0.255868	0.39617	-0.160461	0.255852	-0.104818	0.350201	
0.712773	6.41479	5	0	-0.411621	-0.138046	-0.18085	0.354025	-0.350761	-0.043282	-0.388515	0.215021	-0.068629	0.24366	-0.415986	0.29877	-0.686831	0.097339	-0.162401	0.336036	-1.08001	-0.420847	-0.860965	-0.560007	-0.310596	0.194627	-0.660791	-0.278529	-0.154297	0.199175	-0.252706	0.398559	-0.156658	0.261278	-0.10294	0.344893	
0.711468	6.39496	5	0	-0.411257	-0.149894	-0.183421	0.338562	-0.354647	-0.0457437	-0.394668	0.212784	-0.0742745	0.239737	-0.421816	0.302579	-0.688227	0.0900872	-0.158129	0.335777	-1.08249	-0.424754	-0.860965	-0.560007	-0.30983	0.192462	-0.661894	-0.275411	-0.147264	0.205025	-0.252622	0.409656	-0.152852	0.266712	-0.104818	0.350201	
0.710497	6.37207	5	0	-0.410892	-0.161743	-0.185991	0.323098	-0.358533	-0.0482055	-0.400821	0.210546	-0.07992	0.235814	-0.427646	0.306388	-0.689623	0.0828355	-0.153857	0.335517	-1.08497	-0.428662	-0.860965	-0.560007	-0.309064	0.190298	-0.662997	-0.272294	-0.140231	0.210875	-0.252539	0.420752	-0.149046	0.272146	-0.106696	0.355509	
0.709831	6.35528	5	0	-0.410528	-0.173592	-0.188561	0.307635	-0.362418	-0.0506673	-0.406975	0.208309	-0.0855655	0.231892	-0.433475	0.310197	-0.691019	0.0755838	-0.149584	0.335257	-1.08745	-0.432569	-0.860965	-0.560007	-0.308299	0.188133	-0.6641	-0.269176	-0.133198	0.216725	-0.252455	0.431848	-0.145241	0.277579	-0.108575	0.360816	
0.709408	6.33392	5	0	-0.410164	-0.18544	-0.191132	0.292172	-0.366304	-0.053129	-0.413128	0.206072	-0.091211	0.227969	-0.439305	0.314006	-0.692415	0.068332	-0.145312	0.334998	-1.08992	-0.436476	-0.860965	-0.560007	-0.307533	0.185968	-0.665203	-0.266058	-0.126165	0.222575	-0.252372	0.442945	-0.141435	0.283013	-0.110453	0.366124	
0.709169	6.31866	5	0	-0.409274	-0.187955	-0.198929	0.280166	-0.366304	-0.053129	-0.415722	0.203599	-0.091408	0.218595	-0.442546	0.310507	-0.693812	0.061091	-0.142203	0.338033	-1.09409	-0.435592	-0.860965	-0.560007	-0.307533	0.185968	-0.667654	-0.271645	-0.130163	0.221007	-0.252372	0.442945	-0.133977	0.27814	-0.109514	0.36347	
0.709055	6.30493	5	0	-0.408384	-0.19047	-0.206725	0.26816	-0.366304	-0.053129	-0.418316	0.201125	-0.091605	0.209221	-0.445786	0.307009	-0.695209	0.05385	-0.139094	0.341069	-1.09826	-0.434708	-0.860965	-0.560007	-0.307533	0.185968	-0.670105	-0.277232	-0.134162	0.21944	-0.252372	0.442945	-0.12652	0.273267	-0.108574	0.360816	
0.709004	6.2912	5	0	-0.407495	-0.192984	-0.214521	0.256154	-0.366304	-0.053129	-0.420911	0.198651	-0.091802	0.199847	-0.449027	0.303511	-0.696606	0.046609	-0.135985	0.344105	-1.10243	-0.433824	-0.860965	-0.560007	-0.307533	0.185968	-0.672556	-0.282818	-0.138161	0.217872	-0.252372	0.442945	-0.119063	0.268394	-0.107635	0.358161	
0.708966	6.27746	5	0	-0.406605	-0.195499	-0.222318	0.244148	-0.366304	-0.053129	-0.423505	0.196178	-0.091999	0.190473	-0.452268	0.300012	-0.698003	0.039368	-0.132876	0.34714	-1.1066	-0.43294	-0.860965	-0.560007	-0.307533	0.185968	-0.675007	-0.288405	-0.142159	0.216305	-0.252372	0.442945	-0.111605	0.263521	-0.106696	0.355507	
0.708932	6.26984	5	0	-0.401985	-0.18691	-0.231624	0.247789	-0.363569	-0.0474133	-0.425424	0.2016	-0.091999	0.190473	-0.445785	0.307013	-0.695667	0.0439563	-0.126653	0.353219	-1.1083	-0.42815	-0.852612	-0.552921	-0.303185	0.183127	-0.676109	-0.28529	-0.138161	0.217872	-0.251265	0.451155	-0.120278	0.271831	-0.103604	0.357568	
0.708912	6.2561	5	0	-0.397366	-0.178322	-0.24093	0.251431	-0.360835	-0.0416975	-0.427343	0.207023	-0.091999	0.190473	-0.439301	0.314013	-0.693331	0.0485445	-0.120429	0.359297	-1.10999	-0.423361	-0.844259	-0.545835	-0.298837	0.180285	-0.677212	-0.282174	-0.134162	0.21944	-0.250157	0.459366	-0.128952	0.280141	-0.100512	0.35963	
0.708915	6.23932	5	0	-0.392746	-0.169733	-0.250236	0.255072	-0.358101	-0.0359817	-0.429261	0.212446	-0.091999	0.190473	-0.432817	0.321013	-0.690996	0.0531327	-0.114206	0.365376	-1.11169	-0.418571	-0.835906	-0.538749	-0.294488	0.177444	-0.678314	-0.279058	-0.130163	0.221007	-0.24905	0.467577	-0.137626	0.28845	-0.0974192	0.361691	
0.708947	6.23169	5	0	-0.388126	-0.161144	-0.259542	0.258713	-0.355366	-0.030266	-0.43118	0.217868	-0.091999	0.190473	-0.426334	0.328014	-0.68866	0.057721	-0.107983	0.371455	-1.11338	-0.413781	-0.827553	-0.531663	-0.29014	0.174603	-0.679416	-0.275943	-0.126165	0.222575	-0.247943	0.475787	-0.146299	0.29676	-0.094327	0.363752	
0.709019	6.22101	5	0	-0.388492	-0.149278	-0.275162	0.268919	-0.353784	-0.021284	-0.438571	0.228955	-0.0946225	0.197887	-0.426977	0.342506	-0.688203	0.0676255	-0.104093	0.38416	-1.10928	-0.403556	-0.812742	-0.511982	-0.28579	0.171761	-0.677833	-0.255383	-0.122015	0.236609	-0.242569	0.494662	-0.131213	0.302777	-0.094996	0.376449	
0.709154	6.21033	5	0	-0.388858	-0.137412	-0.290781	0.279125	-0.352202	-0.012302	-0.445962	0.240042	-0.097246	0.205301	-0.42762	0.356999	-0.687746	0.07753	-0.100204	0.396864	-1.10519	-0.39333	-0.797932	-0.492301	-0.281439	0.168918	-0.676249	-0.234823	-0.117866	0.250644	-0.237196	0.513537	-0.116128	0.308794	-0.095665	0.389147	
0.709404	6.19354	5	0	-0.389223	-0.125545	-0.3064	0.289331	-0.35062	-0.00332	-0.453352	0.251129	-0.0998695	0.212716	-0.428263	0.371491	-0.687288	0.0874345	-0.0963145	0.409569	-1.10109	-0.383105	-0.783121	-0.472619	-0.277088	0.166075	-0.674666	-0.214264	-0.113716	0.264678	-0.231823	0.532412	-0.101042	0.314812	-0.096334	0.401845	
0.709828	6.18286	5	0	-0.389589	-0.113679	-0.32202	0.299537	-0.349038	0.005662	-0.460743	0.262216	-0.102493	0.22013	-0.428906	0.385984	-0.686831	0.097339	-0.092425	0.422274	-1.09699	-0.372879	-0.76831	-0.452938	-0.272738	0.163233	-0.673083	-0.193704	-0.109567	0.278712	-0.226449	0.551287	-0.085956	0.320829	-0.097003	0.414542	
0.710483	6.16913	5	0	-0.388174	-0.106842	-0.323143	0.30271	-0.348614	0.0179247	-0.461038	0.272851	-0.101618	0.217658	-0.425663	0.389502	-0.682615	0.0966265	-0.080726	0.424812	-1.09536	-0.366556	-0.755293	-0.438287	-0.272738	0.163233	-0.668188	-0.182468	-0.109425	0.291206	-0.22839	0.579515	-0.0983067	0.339503	-0.0914912	0.431423	
0.711427	6.17065	5	0	-0.386758	-0.100004	-0.324265	0.305883	-0.348189	0.0301875	-0.461334	0.283486	-0.100743	0.215186	-0.42242	0.393019	-0.678398	0.095914	-0.069027	0.42735	-1.09374	-0.360233	-0.742277	-0.423636	-0.272738	0.163233	-0.663294	-0.171232	-0.109284	0.3037	-0.230332	0.607744	-0.110658	0.358177	-0.0859795	0.448304	
0.712712	6.16455	5	0	-0.385343	-0.0931673	-0.325388	0.309057	-0.347764	0.0424502	-0.461629	0.294122	-0.0998688	0.212714	-0.419177	0.396537	-0.674182	0.0952015	-0.057328	0.429889	-1.09211	-0.35391	-0.72926	-0.408985	-0.272738	0.163233	-0.6584	-0.159996	-0.109143	0.316193	-0.232273	0.635973	-0.123008	0.376851	-0.0804678	0.465186	
0.714276	6.17065	5	0	-0.383927	-0.08633	-0.326511	0.31223	-0.34734	0.054713	-0.461924	0.304757	-0.098994	0.210242	-0.415934	0.400055	-0.669966	0.094489	-0.045629	0.432427	-1.09049	-0.347587	-0.716243	-0.394334	-0.272738	0.163233	-0.653505	-0.14876	-0.109001	0.328687	-0.234214	0.664201	-0.135359	0.395525	-0.074956	0.482067	
0.715947	6.17828	5	0	-0.382891	-0.0675628	-0.326224	0.334036	-0.344191	0.0727675	-0.454457	0.322907	-0.0933505	0.21416	-0.407495	0.414306	-0.66529	0.103701	-0.0429062	0.448504	-1.08136	-0.340611	-0.70795	-0.376519	-0.268385	0.160389	-0.654388	-0.133719	-0.108866	0.341208	-0.233073	0.683745	-0.127746	0.406487	-0.0725443	0.496921	
0.717551	6.18286	5	0	-0.381854	-0.0487955	-0.325937	0.355843	-0.341041	0.090822	-0.44699	0.341056	-0.087707	0.218078	-0.399055	0.428558	-0.660614	0.112913	-0.0401835	0.464581	-1.07223	-0.333636	-0.699658	-0.358703	-0.264033	0.157544	-0.65527	-0.118677	-0.108731	0.353729	-0.231932	0.703288	-0.120133	0.417448	-0.0701325	0.511775	
0.718912	6.19354	5	0	-0.380818	-0.0300283	-0.32565	0.377649	-0.337892	0.108876	-0.439523	0.359206	-0.0820635	0.221995	-0.390616	0.442809	-0.655938	0.122126	-0.0374608	0.480659	-1.0631	-0.326661	-0.691365	-0.340888	-0.25968	0.1547	-0.656153	-0.103636	-0.108595	0.36625	-0.23079	0.722832	-0.11252	0.428409	-0.0677207	0.52663	
0.719855	6.19507	5	0	-0.379782	-0.011261	-0.325363	0.399455	-0.334743	0.126931	-0.432056	0.377356	-0.07642	0.225913	-0.382176	0.45706	-0.651262	0.131338	-0.034738	0.496736	-1.05396	-0.319685	-0.683072	-0.323072	-0.255328	0.151856	-0.657036	-0.088595	-0.10846	0.378771	-0.229649	0.742376	-0.104907	0.439371	-0.065309	0.541484	
0.720231	6.19354	5	0	-0.374148	0.0162835	-0.327357	0.427735	-0.335091	0.154909	-0.430084	0.401279	-0.0760342	0.244711	-0.374395	0.485993	-0.645188	0.147864	-0.0257715	0.519031	-1.05071	-0.306989	-0.669154	-0.300356	-0.251739	0.151175	-0.65193	-0.0653337	-0.112213	0.402291	-0.223232	0.769865	-0.0997393	0.4573	-0.060754	0.561164	
0.720104	6.18744	5	0	-0.368514	0.043828	-0.329351	0.456016	-0.33544	0.182887	-0.428113	0.425202	-0.0756485	0.26351	-0.366613	0.514925	-0.639115	0.16439	-0.016805	0.541327	-1.04746	-0.294293	-0.655236	-0.27764	-0.24815	0.150494	-0.646824	-0.0420725	-0.115967	0.42581	-0.216815	0.797353	-0.0945715	0.475229	-0.056199	0.580843	
0.719644	6.17676	5	0	-0.36288	0.0713725	-0.331345	0.484296	-0.335789	0.210866	-0.426142	0.449125	-0.0752628	0.282308	-0.358831	0.543857	-0.633042	0.180917	-0.0078385	0.563623	-1.04421	-0.281597	-0.641317	-0.254923	-0.244561	0.149814	-0.641719	-0.0188113	-0.11972	0.44933	-0.210399	0.824842	-0.0894038	0.493158	-0.051644	0.600523	
0.719025	6.16302	5	0	-0.357246	0.098917	-0.333339	0.512577	-0.336137	0.238844	-0.42417	0.473048	-0.074877	0.301106	-0.35105	0.57279	-0.626968	0.197443	0.001128	0.585918	-1.04096	-0.268901	-0.627399	-0.232207	-0.240972	0.149133	-0.636613	0.00445	-0.123473	0.47285	-0.203982	0.85233	-0.084236	0.511087	-0.047089	0.620203	
0.718418	6.15234	5	0	-0.36035	0.118572	-0.334916	0.528367	-0.33924	0.261124	-0.425782	0.497293	-0.0729318	0.305561	-0.347164	0.587323	-0.628413	0.21277	0.0112823	0.604978	-1.04199	-0.244075	-0.619219	-0.203457	-0.236615	0.146286	-0.639557	0.0379408	-0.121196	0.505205	-0.205996	0.892314	-0.08904	0.540952	-0.0485007	0.645927	
0.717996	6.13251	5	0	-0.363455	0.138228	-0.336494	0.544158	-0.342342	0.283405	-0.427395	0.521538	-0.0709865	0.310015	-0.343278	0.601856	-0.629857	0.228097	0.0214365	0.624039	-1.04302	-0.219249	-0.611039	-0.174708	-0.232258	0.143439	-0.642502	0.0714315	-0.118919	0.537559	-0.208011	0.932298	-0.093844	0.570816	-0.0499125	0.67165	
0.717893	6.11114	5	0	-0.366559	0.157884	-0.338071	0.559948	-0.345445	0.305685	-0.429007	0.545783	-0.0690412	0.314469	-0.339393	0.616389	-0.631302	0.243424	0.0315908	0.643099	-1.04405	-0.194423	-0.602859	-0.145958	-0.227901	0.140592	-0.645446	0.104922	-0.116642	0.569913	-0.210026	0.972282	-0.098648	0.60068	-0.0513243	0.697374	
0.718103	6.09131	5	0	-0.369663	0.177539	-0.339648	0.575739	-0.348548	0.327966	-0.430619	0.570028	-0.067096	0.318924	-0.335507	0.630922	-0.632747	0.258751	0.041745	0.662159	-1.04508	-0.169597	-0.594679	-0.117208	-0.223544	0.137745	-0.64839	0.138413	-0.114365	0.602268	-0.21204	1.01227	-0.103452	0.630545	-0.052736	0.723098	
0.718587	6.0791	5	0	-0.360449	0.195092	-0.339424	0.597792	-0.346617	0.34956	-0.420584	0.590981	-0.0706128	0.328863	-0.327054	0.64537	-0.621496	0.271999	0.0519115	0.681308	-1.03355	-0.147287	-0.574236	-0.0812565	-0.219951	0.137062	-0.64333	0.161931	-0.109281	0.613805	-0.204629	1.03714	-0.0883258	0.636747	-0.0524985	0.733303	
0.719304	6.06232	5	0	-0.351234	0.212645	-0.339199	0.619845	-0.344685	0.371155	-0.410548	0.611933	-0.0741295	0.338803	-0.318601	0.659817	-0.610246	0.285247	0.062078	0.700457	-1.02202	-0.124978	-0.553792	-0.045305	-0.216358	0.136379	-0.63827	0.185449	-0.104197	0.625341	-0.197217	1.06202	-0.0731995	0.642949	-0.052261	0.743508	
0.720213	6.04706	5	0	-0.34202	0.230197	-0.338975	0.641898	-0.342754	0.392749	-0.400513	0.632885	-0.0776462	0.348742	-0.310148	0.674265	-0.598996	0.298495	0.0722445	0.719605	-1.01049	-0.102668	-0.533349	-0.0093535	-0.212765	0.135696	-0.633209	0.208966	-0.099113	0.636878	-0.189806	1.08689	-0.0580732	0.64915	-0.0520235	0.753713	
0.721276	6.03332	5	0	-0.332805	0.24775	-0.338751	0.663951	-0.340823	0.414344	-0.390478	0.653838	-0.081163	0.358681	-0.301695	0.688713	-0.587745	0.311743	0.082411	0.738754	-0.99896	-0.080359	-0.512906	0.026598	-0.209172	0.135013	-0.628149	0.232484	-0.094029	0.648415	-0.182395	1.11176	-0.042947	0.655352	-0.051786	0.763918	
0.722449	6.01807	5	0	-0.33225	0.278945	-0.331505	0.688927	-0.341259	0.442668	-0.395075	0.686592	-0.0781587	0.370111	-0.297191	0.714402	-0.573175	0.327024	0.0925895	0.757992	-0.985688	-0.0628117	-0.492254	0.0519418	-0.204811	0.132163	-0.61728	0.252312	-0.0999025	0.665014	-0.179221	1.12574	-0.0478922	0.669328	-0.0484535	0.776271	
0.72369	6.00891	5	0	-0.331696	0.31014	-0.324258	0.713904	-0.341695	0.470993	-0.399672	0.719345	-0.0751545	0.381541	-0.292687	0.74009	-0.558604	0.342305	0.102768	0.77723	-0.972415	-0.0452645	-0.471601	0.0772855	-0.200449	0.129313	-0.606411	0.272139	-0.105776	0.681614	-0.176046	1.13973	-0.0528375	0.683304	-0.045121	0.788625	
0.724953	6.00281	5	0	-0.331141	0.341336	-0.317012	0.73888	-0.342131	0.499317	-0.404269	0.752099	-0.0721502	0.392971	-0.288184	0.765779	-0.544034	0.357585	0.112947	0.796469	-0.959143	-0.0277172	-0.450948	0.102629	-0.196087	0.126463	-0.595543	0.291967	-0.111649	0.698214	-0.172872	1.15371	-0.0577828	0.697279	-0.0417885	0.800978	
0.726195	5.98755	5	0	-0.330586	0.372531	-0.309765	0.763856	-0.342567	0.527641	-0.408866	0.784852	-0.069146	0.404401	-0.28368	0.791467	-0.529464	0.372866	0.123125	0.815707	-0.945871	-0.01017	-0.430296	0.127973	-0.191726	0.123613	-0.584674	0.311795	-0.117523	0.714813	-0.169698	1.16769	-0.062728	0.711255	-0.038456	0.813331	
0.72737	5.98602	5	0	-0.332841	0.389838	-0.314337	0.776775	-0.350807	0.550928	-0.409578	0.806646	-0.0762055	0.424352	-0.294262	0.821373	-0.532846	0.393736	0.119093	0.839124	-0.946095	0.01253	-0.427777	0.152342	-0.187362	0.120762	-0.592587	0.334157	-0.12439	0.734218	-0.172877	1.18816	-0.056348	0.72593	-0.04302	0.837125	
0.728436	5.97839	5	0	-0.335097	0.407145	-0.318908	0.789695	-0.359047	0.574215	-0.410289	0.828439	-0.083265	0.444303	-0.304843	0.851279	-0.536227	0.414605	0.11506	0.86254	-0.946318	0.03523	-0.425258	0.17671	-0.182999	0.117911	-0.600499	0.356519	-0.131256	0.753624	-0.176057	1.20863	-0.049968	0.740604	-0.047584	0.860919	
0.729383	5.97687	5	0	-0.337352	0.424452	-0.323479	0.802615	-0.367287	0.597502	-0.411	0.850233	-0.0903245	0.464254	-0.315425	0.881184	-0.539608	0.435474	0.111028	0.885957	-0.946541	0.05793	-0.422738	0.201079	-0.178635	0.115059	-0.608412	0.378882	-0.138123	0.773029	-0.179236	1.2291	-0.043588	0.755279	-0.052148	0.884713	
0.730242	5.97076	5	0	-0.339607	0.441759	-0.328051	0.815534	-0.375527	0.620789	-0.411712	0.872027	-0.097384	0.484205	-0.326007	0.91109	-0.54299	0.456344	0.106995	0.909374	-0.946765	0.08063	-0.420219	0.225448	-0.174271	0.112208	-0.616325	0.401244	-0.144989	0.792434	-0.182415	1.24958	-0.037208	0.769954	-0.056712	0.908507	
0.731048	5.97076	5	0	-0.341431	0.446915	-0.323295	0.824862	-0.380245	0.634123	-0.406897	0.888134	-0.098101	0.4962	-0.324082	0.918474	-0.546814	0.467153	0.106538	0.922693	-0.9511	0.092882	-0.431883	0.237415	-0.169905	0.109355	-0.627965	0.408849	-0.146954	0.797986	-0.191926	1.25349	-0.04722	0.78189	-0.0557527	0.905796	
0.731834	5.96161	5	0	-0.343256	0.452072	-0.318539	0.83419	-0.384963	0.647458	-0.402083	0.904241	-0.098818	0.508194	-0.322158	0.925858	-0.550639	0.477961	0.106081	0.936013	-0.955435	0.105134	-0.443548	0.249383	-0.16554	0.106502	-0.639604	0.416455	-0.148918	0.803538	-0.201436	1.2574	-0.057232	0.793825	-0.0547935	0.903085	
0.732634	5.96161	5	0	-0.345081	0.457228	-0.313782	0.843518	-0.389681	0.660792	-0.397268	0.920348	-0.099535	0.520189	-0.320234	0.933242	-0.554463	0.48877	0.105625	0.949332	-0.959771	0.117386	-0.455213	0.26135	-0.161174	0.10365	-0.651243	0.424061	-0.150883	0.809091	-0.210947	1.26131	-0.067244	0.80576	-0.0538343	0.900375	
0.733482	5.96161	5	0	-0.346905	0.462384	-0.309026	0.852846	-0.394399	0.674126	-0.392453	0.936455	-0.100252	0.532184	-0.318309	0.940626	-0.558288	0.499578	0.105168	0.962651	-0.964106	0.129638	-0.466877	0.273317	-0.156808	0.100797	-0.662883	0.431666	-0.152847	0.814643	-0.220458	1.26523	-0.077256	0.817696	-0.052875	0.897664	
0.734374	5.95856	5	0	-0.352385	0.47787	-0.310012	0.878429	-0.405361	0.691555	-0.396776	0.958587	-0.0944477	0.545717	-0.321703	0.96305	-0.553191	0.519151	0.102299	0.982796	-0.963364	0.138586	-0.472706	0.279299	-0.15244	0.0979427	-0.664015	0.434865	-0.15278	0.827421	-0.226798	1.27167	-0.074697	0.826823	-0.0557535	0.905799	
0.735279	5.96924	5	0	-0.357865	0.493357	-0.310998	0.904012	-0.416323	0.708985	-0.401099	0.980718	-0.0886435	0.55925	-0.325097	0.985474	-0.548094	0.538724	0.099429	1.00294	-0.962622	0.147533	-0.478534	0.285282	-0.148071	0.0950885	-0.665147	0.438064	-0.152714	0.840199	-0.233137	1.27811	-0.072138	0.835951	-0.058632	0.913933	
0.736168	5.96924	5	0	-0.363344	0.508844	-0.311983	0.929596	-0.427285	0.726414	-0.405421	1.00285	-0.0828393	0.572783	-0.328491	1.0079	-0.542997	0.558296	0.0965595	1.02309	-0.961881	0.156481	-0.484363	0.291264	-0.143703	0.0922343	-0.666279	0.441264	-0.152647	0.852976	-0.239477	1.28456	-0.069579	0.845078	-0.0615105	0.922068	
0.737006	5.97381	5	0	-0.368824	0.52433	-0.312969	0.955179	-0.438247	0.743843	-0.409744	1.02498	-0.077035	0.586316	-0.331885	1.03032	-0.5379	0.577869	0.09369	1.04323	-0.961139	0.165429	-0.490192	0.297247	-0.139335	0.08938	-0.667411	0.444463	-0.15258	0.865754	-0.245817	1.291	-0.06702	0.854205	-0.064389	0.930203	
0.737764	5.97839	5	0	-0.376599	0.535372	-0.322312	0.958786	-0.448028	0.757944	-0.421836	1.03933	-0.0813213	0.608419	-0.332635	1.04528	-0.538998	0.60366	0.093213	1.05662	-0.963011	0.181771	-0.495199	0.311398	-0.130592	0.083667	-0.677757	0.46107	-0.148517	0.880232	-0.246901	1.30554	-0.0619052	0.872513	-0.06706	0.948653	
0.738406	5.97381	5	0	-0.384375	0.546413	-0.331654	0.962393	-0.457809	0.772045	-0.433928	1.05368	-0.0856075	0.630522	-0.333384	1.06024	-0.540096	0.62945	0.092736	1.07002	-0.964884	0.198113	-0.500206	0.325549	-0.121849	0.077954	-0.688103	0.477677	-0.144455	0.89471	-0.247985	1.32008	-0.0567905	0.890821	-0.069731	0.967103	
0.738871	5.97076	5	0	-0.392151	0.557455	-0.340997	0.966	-0.46759	0.786146	-0.44602	1.06803	-0.0898937	0.652625	-0.334134	1.0752	-0.541195	0.655241	0.092259	1.08341	-0.966757	0.214455	-0.505213	0.339699	-0.113107	0.072241	-0.698448	0.494285	-0.140393	0.909187	-0.24907	1.33461	-0.0516757	0.90913	-0.072402	0.985554	
0.739077	5.96313	5	0	-0.399926	0.568497	-0.35034	0.969607	-0.477371	0.800247	-0.458112	1.08238	-0.09418	0.674728	-0.334884	1.09016	-0.542293	0.681032	0.091782	1.0968	-0.968629	0.230797	-0.51022	0.35385	-0.104364	0.066528	-0.708794	0.510892	-0.13633	0.923665	-0.250154	1.34915	-0.046561	0.927438	-0.075073	1.004	
0.738945	5.96008	5	0	-0.40542	0.584024	-0.358522	0.96996	-0.487151	0.814357	-0.465641	1.09375	-0.0959597	0.679758	-0.334884	1.09016	-0.537624	0.690552	0.0905767	1.10021	-0.967897	0.239785	-0.51022	0.35385	-0.108736	0.0693853	-0.718143	0.512076	-0.142306	0.92757	-0.256496	1.3556	-0.051555	0.941552	-0.0729405	1.00889	
0.738391	5.95093	5	0	-0.410914	0.599551	-0.366703	0.970313	-0.496931	0.828466	-0.47317	1.10512	-0.0977395	0.684787	-0.334884	1.09016	-0.532956	0.700072	0.0893715	1.10361	-0.967164	0.248773	-0.51022	0.35385	-0.113109	0.0722425	-0.727492	0.513259	-0.148282	0.931474	-0.262838	1.36205	-0.056549	0.955666	-0.070808	1.01377	
0.737337	5.94177	5	0	-0.416409	0.615077	-0.374885	0.970665	-0.506712	0.842576	-0.480699	1.1165	-0.0995193	0.689817	-0.334884	1.09016	-0.528288	0.709593	0.0881663	1.10702	-0.966432	0.25776	-0.51022	0.35385	-0.117482	0.0750997	-0.736841	0.514443	-0.154258	0.935379	-0.269181	1.36851	-0.061543	0.969779	-0.0686755	1.01865	
0.735718	5.93262	5	0	-0.421903	0.630604	-0.383067	0.971018	-0.516492	0.856685	-0.488228	1.12787	-0.101299	0.694847	-0.334884	1.09016	-0.523619	0.719113	0.086961	1.11043	-0.9657	0.266748	-0.51022	0.35385	-0.121854	0.077957	-0.74619	0.515626	-0.160234	0.939284	-0.275523	1.37496	-0.066537	0.983893	-0.066543	1.02353	
0.73363	5.91888	5	0	-0.422819	0.633195	-0.379487	0.983669	-0.525086	0.867451	-0.488626	1.1389	-0.09655	0.701421	-0.342128	1.09779	-0.52225	0.726612	0.0845488	1.11724	-0.971661	0.272538	-0.517864	0.354491	-0.121854	0.077957	-0.749727	0.513015	-0.163196	0.947655	-0.278676	1.3724	-0.0627382	0.98956	-0.066543	1.02353	
0.731247	5.91278	5	0	-0.423736	0.635785	-0.375907	0.99632	-0.533679	0.878217	-0.489024	1.14993	-0.091801	0.707995	-0.349371	1.10542	-0.520881	0.734111	0.0821365	1.12406	-0.977622	0.278328	-0.525509	0.355132	-0.121854	0.077957	-0.753264	0.510405	-0.166158	0.956027	-0.28183	1.36985	-0.0589395	0.995227	-0.066543	1.02353	
0.728742	5.90057	5	0	-0.424652	0.638375	-0.372326	1.00897	-0.542273	0.888983	-0.489423	1.16096	-0.087052	0.714569	-0.356615	1.11305	-0.519513	0.74161	0.0797242	1.13088	-0.983583	0.284118	-0.533154	0.355774	-0.121854	0.077957	-0.7568	0.507794	-0.16912	0.964398	-0.284983	1.3673	-0.0551408	1.00089	-0.066543	1.02353	
0.72629	5.88684	5	0	-0.425569	0.640966	-0.368746	1.02162	-0.550867	0.899749	-0.489821	1.17199	-0.082303	0.721143	-0.363858	1.12068	-0.518144	0.749109	0.077312	1.1377	-0.989544	0.289908	-0.540798	0.356415	-0.121854	0.077957	-0.760337	0.505183	-0.172082	0.972769	-0.288136	1.36474	-0.051342	1.00656	-0.066543	1.02353	
0.724065	5.87463	5	0	-0.44519	0.641847	-0.381529	1.03498	-0.567139	0.905231	-0.499928	1.18075	-0.0885488	0.738795	-0.371098	1.12831	-0.530147	0.771666	0.068147	1.15155	-0.99463	0.293231	-0.552247	0.35737	-0.118248	0.0772657	-0.767267	0.512172	-0.168038	0.987318	-0.286045	1.3703	-0.0361685	1.01297	-0.0684697	1.02898	
0.722215	5.86243	5	0	-0.464812	0.642728	-0.394312	1.04834	-0.583411	0.910713	-0.510035	1.18951	-0.0947945	0.756447	-0.378338	1.13594	-0.542151	0.794222	0.058982	1.16541	-0.999716	0.296554	-0.563696	0.358326	-0.114642	0.0765745	-0.774198	0.519161	-0.163994	1.00187	-0.283954	1.37586	-0.020995	1.01939	-0.0703965	1.03442	
0.720772	5.84717	5	0	-0.484434	0.643608	-0.407095	1.06169	-0.599682	0.916194	-0.520142	1.19827	-0.10104	0.774098	-0.385578	1.14357	-0.554155	0.816779	0.049817	1.17927	-1.0048	0.299878	-0.575144	0.359281	-0.111035	0.0758832	-0.781129	0.52615	-0.159951	1.01642	-0.281863	1.38141	-0.0058215	1.0258	-0.0723233	1.03987	
0.719736	5.83954	5	0	-0.504055	0.644489	-0.419878	1.07505	-0.615954	0.921676	-0.530249	1.20703	-0.107286	0.79175	-0.392818	1.1512	-0.566158	0.839335	0.040652	1.19313	-1.00989	0.303201	-0.586593	0.360237	-0.107429	0.075192	-0.788059	0.533139	-0.155907	1.03096	-0.279772	1.38697	0.009352	1.03221	-0.07425	1.04531	
0.719108	5.83191	5	0	-0.513604	0.638809	-0.423961	1.07522	-0.619791	0.919036	-0.53381	1.2072	-0.106393	0.789226	-0.400617	1.1476	-0.558598	0.84071	0.0418598	1.18971	-1.01323	0.301594	-0.587405	0.352077	-0.103054	0.0723332	-0.795116	0.527914	-0.151904	1.03265	-0.292449	1.39987	0.005588	1.04285	-0.0802345	1.05132	
0.718887	5.8197	5	0	-0.523153	0.633128	-0.428044	1.07538	-0.623627	0.916396	-0.537372	1.20737	-0.1055	0.786702	-0.408416	1.14401	-0.551038	0.842086	0.0430675	1.1863	-1.01657	0.299986	-0.588217	0.343916	-0.0986795	0.0694745	-0.802173	0.522689	-0.147901	1.03434	-0.305125	1.41277	0.001824	1.05349	-0.086219	1.05732	
0.719075	5.81207	5	0	-0.532701	0.627447	-0.432128	1.07555	-0.627463	0.913756	-0.540933	1.20754	-0.104607	0.784179	-0.416215	1.14041	-0.543477	0.843461	0.0442753	1.18289	-1.01991	0.298379	-0.589029	0.335756	-0.0943047	0.0666158	-0.809231	0.517464	-0.143898	1.03603	-0.317802	1.42567	-0.00194	1.06413	-0.0922035	1.06333	
0.719619	5.80444	5	0	-0.54225	0.621767	-0.436211	1.07571	-0.6313	0.911116	-0.544495	1.20772	-0.103714	0.781655	-0.424014	1.13681	-0.535917	0.844836	0.045483	1.17947	-1.02324	0.296772	-0.589841	0.327596	-0.08993	0.063757	-0.816288	0.512239	-0.139895	1.03772	-0.330478	1.43857	-0.005704	1.07476	-0.098188	1.06933	
0.720362	5.79986	5	0	-0.539069	0.62366	-0.430976	1.07229	-0.638685	0.918514	-0.549046	1.21069	-0.100002	0.78117	-0.422681	1.13305	-0.533588	0.849635	0.045483	1.17947	-1.02324	0.296772	-0.587843	0.321949	-0.08993	0.063757	-0.814027	0.505849	-0.139895	1.03772	-0.329415	1.43557	-0.00315375	1.08402	-0.101278	1.06716	
0.721128	5.79986	5	0	-0.535888	0.625552	-0.425741	1.06887	-0.646069	0.925913	-0.553598	1.21366	-0.09629	0.780685	-0.421349	1.12928	-0.531259	0.854434	0.045483	1.17947	-1.02324	0.296772	-0.585844	0.316302	-0.08993	0.063757	-0.811766	0.499458	-0.139895	1.03772	-0.328352	1.43257	-0.0006035	1.09327	-0.104368	1.06499	
0.721746	5.79681	5	0	-0.532707	0.627444	-0.420506	1.06545	-0.653454	0.933311	-0.558149	1.21664	-0.092578	0.780199	-0.420017	1.12552	-0.52893	0.859234	0.045483	1.17947	-1.02324	0.296772	-0.583846	0.310655	-0.08993	0.063757	-0.809504	0.493067	-0.139895	1.03772	-0.327289	1.42956	0.00194675	1.10252	-0.107458	1.06282	
0.72204	5.79224	5	0	-0.529526	0.629337	-0.415271	1.06203	-0.660839	0.940709	-0.562701	1.21961	-0.088866	0.779714	-0.418684	1.12175	-0.526601	0.864033	0.045483	1.17947	-1.02324	0.296772	-0.581848	0.305008	-0.08993	0.063757	-0.807243	0.486677	-0.139895	1.03772	-0.326226	1.42656	0.004497	1.11178	-0.110548	1.06065	
0.721845	5.79376	5	0	-0.525905	0.640887	-0.428664	1.06578	-0.658193	0.946705	-0.571796	1.22555	-0.087833	0.786806	-0.415452	1.12543	-0.525243	0.871583	0.0399435	1.18309	-1.01569	0.297521	-0.578035	0.304687	-0.0811735	0.0580355	-0.807243	0.486677	-0.14687	1.04443	-0.329416	1.43557	0.00830525	1.11749	-0.108422	1.06555	
0.721183	5.79071	5	0	-0.522284	0.652438	-0.442057	1.06953	-0.655548	0.952701	-0.580892	1.2315	-0.0868	0.793898	-0.412219	1.12911	-0.523884	0.879133	0.034404	1.18671	-1.00814	0.29827	-0.574222	0.304366	-0.072417	0.052314	-0.807243	0.486677	-0.153845	1.05114	-0.332607	1.44459	0.0121135	1.1232	-0.106296	1.07044	
0.720296	5.78308	5	0	-0.518662	0.663988	-0.455451	1.07328	-0.652902	0.958697	-0.589987	1.23744	-0.085767	0.800989	-0.408987	1.13279	-0.522526	0.886682	0.0288645	1.19033	-1.00059	0.29902	-0.570409	0.304044	-0.0636605	0.0465925	-0.807243	0.486677	-0.160821	1.05785	-0.335797	1.45361	0.0159218	1.12892	-0.10417	1.07534	
0.719442	5.78308	5	0	-0.515041	0.675538	-0.468844	1.07703	-0.650257	0.964693	-0.599082	1.24338	-0.084734	0.808081	-0.405755	1.13647	-0.521168	0.894232	0.023325	1.19395	-0.993034	0.299769	-0.566596	0.303723	-0.054904	0.040871	-0.807243	0.486677	-0.167796	1.06456	-0.338987	1.46262	0.01973	1.13463	-0.102044	1.08023	
0.718876	5.7785	5	0	-0.506835	0.674157	-0.476466	1.06453	-0.646424	0.967343	-0.605193	1.24091	-0.0866602	0.803514	-0.410887	1.12535	-0.519226	0.888743	0.015877	1.19095	-0.98969	0.301376	-0.567595	0.306547	-0.058517	0.0415667	-0.815291	0.496848	-0.160783	1.07076	-0.340104	1.47724	0.013429	1.15244	-0.0999177	1.08513	
0.718855	5.77087	5	0	-0.49863	0.672777	-0.484088	1.05203	-0.642591	0.969993	-0.611303	1.23844	-0.0885865	0.798947	-0.416018	1.11424	-0.517284	0.883254	0.008429	1.18795	-0.986347	0.302984	-0.568595	0.309371	-0.06213	0.0422625	-0.823338	0.507019	-0.153771	1.07695	-0.34122	1.49185	0.007128	1.17025	-0.0977915	1.09003	
0.719607	5.76935	5	0	-0.490424	0.671396	-0.49171	1.03953	-0.638759	0.972643	-0.617414	1.23597	-0.0905128	0.794379	-0.42115	1.10312	-0.515341	0.877765	0.000981	1.18495	-0.983003	0.304592	-0.569594	0.312195	-0.065743	0.0429582	-0.831385	0.517191	-0.146758	1.08315	-0.342336	1.50646	0.000827	1.18805	-0.0956652	1.09493	
0.721061	5.76477	5	0	-0.482219	0.670016	-0.499332	1.02703	-0.634926	0.975293	-0.623525	1.2335	-0.092439	0.789812	-0.426282	1.092	-0.513399	0.872276	-0.006467	1.18195	-0.979659	0.306199	-0.570593	0.315019	-0.069356	0.043654	-0.839433	0.527362	-0.139745	1.08934	-0.343453	1.52108	-0.005474	1.20586	-0.093539	1.09983	
0.722963	5.76019	5	0	-0.477673	0.679003	-0.498184	1.02379	-0.633466	0.98466	-0.623525	1.2335	-0.0906527	0.784763	-0.420388	1.08815	-0.504849	0.870909	0.003395	1.17813	-0.973839	0.311886	-0.552677	0.327238	-0.0701222	0.0458197	-0.826589	0.528806	-0.139745	1.08934	-0.336096	1.52322	0.000854	1.20447	-0.0956652	1.09493	
0.725057	5.75867	5	0	-0.473127	0.68799	-0.497036	1.02054	-0.632007	0.994027	-0.623525	1.2335	-0.0888665	0.779715	-0.414494	1.0843	-0.496299	0.869542	0.013257	1.17431	-0.96802	0.317573	-0.53476	0.339458	-0.0708885	0.0479855	-0.813746	0.53025	-0.139745	1.08934	-0.328739	1.52537	0.007182	1.20307	-0.0977915	1.09003	
0.727087	5.75561	5	0	-0.46858	0.696978	-0.495889	1.0173	-0.630548	1.00339	-0.623525	1.2335	-0.0870802	0.774667	-0.408601	1.08045	-0.487748	0.868175	0.023119	1.17048	-0.962201	0.32326	-0.516844	0.351678	-0.0716548	0.0501513	-0.800902	0.531695	-0.139745	1.08934	-0.321381	1.52751	0.01351	1.20168	-0.0999177	1.08513	
0.728795	5.75409	5	0	-0.464034	0.705965	-0.494741	1.01405	-0.629088	1.01276	-0.623525	1.2335	-0.085294	0.769618	-0.402707	1.0766	-0.479198	0.866808	0.032981	1.16666	-0.956381	0.328947	-0.498928	0.363897	-0.072421	0.052317	-0.788059	0.533139	-0.139745	1.08934	-0.314024	1.52966	0.019838	1.20029	-0.102044	1.08023	
0.729968	5.75561	5	0	-0.461325	0.720171	-0.499865	1.03988	-0.630012	1.02887	-0.620392	1.24439	-0.078756	0.771169	-0.396234	1.08394	-0.470242	0.875746	0.0348988	1.17328	-0.938737	0.334533	-0.475283	0.381209	-0.0636603	0.0465925	-0.769239	0.543025	-0.135739	1.09104	-0.302436	1.53137	0.0325122	1.19749	-0.103973	1.08568	
0.73064	5.7663	5	0	-0.458617	0.734378	-0.50499	1.0657	-0.630937	1.04499	-0.61726	1.25527	-0.072218	0.77272	-0.389761	1.09129	-0.461286	0.884684	0.0368165	1.17989	-0.921094	0.340118	-0.451638	0.39852	-0.0548995	0.040868	-0.75042	0.552912	-0.131733	1.09274	-0.290847	1.53308	0.0451865	1.1947	-0.105902	1.09113	
0.730946	5.77698	5	0	-0.455908	0.748584	-0.510115	1.09152	-0.631861	1.0611	-0.614127	1.26616	-0.06568	0.77427	-0.383288	1.09863	-0.45233	0.893623	0.0387342	1.18651	-0.90345	0.345704	-0.427993	0.415832	-0.0461387	0.0351435	-0.7316	0.562798	-0.127726	1.09443	-0.279259	1.53479	0.0578608	1.1919	-0.107832	1.09659	
0.73102	5.79071	5	0	-0.4532	0.762791	-0.515239	1.11735	-0.632785	1.07722	-0.610994	1.27705	-0.059142	0.775821	-0.376815	1.10597	-0.443374	0.902561	0.040652	1.19313	-0.885806	0.35129	-0.404348	0.433144	-0.037378	0.029419	-0.71278	0.572684	-0.12372	1.09613	-0.26767	1.53649	0.070535	1.1891	-0.109761	1.10204	
0.730993	5.80902	5	0	-0.449575	0.774432	-0.512938	1.11084	-0.626304	1.08593	-0.603885	1.27672	-0.0619652	0.773783	-0.372242	1.10588	-0.433823	0.898435	0.049325	1.19271	-0.864734	0.358497	-0.381612	0.453407	-0.0286083	0.0236888	-0.705558	0.59022	-0.128691	1.11018	-0.25927	1.54728	0.073089	1.19842	-0.103386	1.11677	
0.731001	5.82886	5	0	-0.445949	0.786073	-0.510636	1.10434	-0.619824	1.09465	-0.596777	1.27639	-0.0647885	0.771746	-0.367669	1.10579	-0.424272	0.89431	0.057998	1.19229	-0.843663	0.365704	-0.358876	0.47367	-0.0198385	0.0179585	-0.698336	0.607757	-0.133661	1.12423	-0.25087	1.55806	0.075643	1.20774	-0.097012	1.1315	
0.731131	5.84564	5	0	-0.442324	0.797714	-0.508334	1.09783	-0.613343	1.10337	-0.589668	1.27606	-0.0676117	0.769709	-0.363096	1.1057	-0.414721	0.890185	0.066671	1.19188	-0.822592	0.372912	-0.33614	0.493933	-0.0110688	0.0122282	-0.691114	0.625293	-0.138632	1.13828	-0.242469	1.56885	0.078197	1.21705	-0.0906375	1.14622	
0.731299	5.867	5	0	-0.438699	0.809355	-0.506033	1.09133	-0.606862	1.11208	-0.582559	1.27574	-0.070435	0.767671	-0.358523	1.10561	-0.40517	0.886059	0.075344	1.19146	-0.80152	0.380119	-0.313404	0.514196	-0.002299	0.006498	-0.683892	0.642829	-0.143603	1.15233	-0.234069	1.57963	0.080751	1.22637	-0.084263	1.16095	
0.731377	5.88226	5	0	-0.423623	0.821577	-0.501961	1.09117	-0.59653	1.12351	-0.578426	1.28384	-0.064932	0.762135	-0.350701	1.10919	-0.391307	0.881233	0.0772657	1.19809	-0.784633	0.388209	-0.292416	0.529149	-0.002299	0.006498	-0.670955	0.64429	-0.141614	1.1467	-0.229837	1.57919	0.0718758	1.23492	-0.0802015	1.1604	
0.731239	5.9021	5	0	-0.408547	0.8338	-0.497889	1.09101	-0.586197	1.13493	-0.574294	1.29194	-0.059429	0.756598	-0.34288	1.11278	-0.377443	0.876408	0.0791875	1.20472	-0.767746	0.3963	-0.271427	0.544102	-0.002299	0.006498	-0.658017	0.645751	-0.139624	1.14108	-0.225606	1.57875	0.0630005	1.24347	-0.07614	1.15985	
0.730756	5.90362	5	0	-0.39347	0.846022	-0.493818	1.09084	-0.575865	1.14635	-0.570161	1.30004	-0.053926	0.751062	-0.335058	1.11636	-0.36358	0.871582	0.0811092	1.21135	-0.750859	0.40439	-0.250439	0.559055	-0.002299	0.006498	-0.64508	0.647211	-0.137635	1.13546	-0.221374	1.57832	0.0541252	1.25201	-0.0720785	1.1593	
0.729802	5.91125	5	0	-0.378394	0.858244	-0.489746	1.09068	-0.565533	1.15777	-0.566028	1.30815	-0.048423	0.745526	-0.327237	1.11995	-0.349717	0.866756	0.083031	1.21798	-0.733972	0.412481	-0.229451	0.574008	-0.002299	0.006498	-0.632142	0.648672	-0.135646	1.12984	-0.217142	1.57788	0.04525	1.26056	-0.068017	1.15875	
0.728341	5.9082	5	0	-0.376194	0.885003	-0.478582	1.11597	-0.563833	1.1801	-0.557757	1.3244	-0.0463467	0.759707	-0.318829	1.13479	-0.344613	0.886749	0.096785	1.22742	-0.709357	0.421339	-0.209402	0.591915	0.010106	5.775E-05	-0.616753	0.656002	-0.132633	1.13435	-0.205502	1.57959	0.050328	1.26275	-0.0668585	1.16641	
0.726563	5.90362	5	0	-0.373995	0.911762	-0.467418	1.14126	-0.562132	1.20243	-0.549486	1.34066	-0.0442705	0.773888	-0.310422	1.14963	-0.339508	0.906741	0.110539	1.23686	-0.684742	0.430197	-0.189354	0.609822	0.022511	-0.0063825	-0.601364	0.663331	-0.129621	1.13887	-0.193862	1.58131	0.055406	1.26493	-0.0657	1.17407	
0.724693	5.89447	5	0	-0.371796	0.938521	-0.456253	1.16654	-0.560432	1.22475	-0.541216	1.35691	-0.0421943	0.78807	-0.302014	1.16447	-0.334404	0.926734	0.124293	1.24631	-0.660127	0.439055	-0.169305	0.627728	0.034916	-0.0128227	-0.585976	0.670661	-0.126608	1.14339	-0.182223	1.58302	0.060484	1.26711	-0.0645415	1.18172	
0.722953	5.88531	5	0	-0.369596	0.96528	-0.445089	1.19183	-0.558732	1.24708	-0.532945	1.37316	-0.040118	0.802251	-0.293606	1.17931	-0.3293	0.946727	0.138047	1.25575	-0.635512	0.447913	-0.149257	0.645635	0.047321	-0.019263	-0.570587	0.677991	-0.123596	1.1479	-0.170583	1.58473	0.065562	1.2693	-0.063383	1.18938	
0.721568	5.86853	5	0	-0.367319	0.969849	-0.445634	1.20476	-0.554884	1.24978	-0.522237	1.37268	-0.0436998	0.812374	-0.288443	1.1905	-0.326555	0.961949	0.137542	1.26928	-0.621158	0.463567	-0.130162	0.666536	0.0561133	-0.0250082	-0.556302	0.68858	-0.124569	1.16369	-0.167467	1.59903	0.0655702	1.28582	-0.0651382	1.20528	
0.720758	5.86395	5	0	-0.365042	0.974418	-0.446179	1.21768	-0.551036	1.25249	-0.511529	1.37219	-0.0472815	0.822496	-0.28328	1.20169	-0.323809	0.97717	0.137037	1.28281	-0.606804	0.479221	-0.111067	0.687437	0.0649055	-0.0307535	-0.542018	0.699168	-0.125543	1.17948	-0.164351	1.61334	0.0655785	1.30235	-0.0668935	1.22119	
0.720643	5.84411	5	0	-0.362764	0.978987	-0.446724	1.23061	-0.547187	1.25519	-0.50082	1.37171	-0.0508632	0.832618	-0.278117	1.21287	-0.321064	0.992392	0.136532	1.29633	-0.592451	0.494875	-0.091972	0.708337	0.0736977	-0.0364987	-0.527733	0.709757	-0.126517	1.19527	-0.161235	1.62764	0.0655867	1.31887	-0.0686487	1.23709	
0.721209	5.83954	5	0	-0.360487	0.983556	-0.447269	1.24354	-0.543339	1.2579	-0.490112	1.37122	-0.054445	0.842741	-0.272954	1.22406	-0.318319	1.00761	0.136027	1.30986	-0.578097	0.510529	-0.072877	0.729238	0.08249	-0.042244	-0.513448	0.720345	-0.12749	1.21106	-0.158119	1.64194	0.065595	1.3354	-0.070404	1.25299	
0.722433	5.82428	5	0	-0.358209	0.98813	-0.441413	1.24979	-0.539488	1.2606	-0.484963	1.37655	-0.055341	0.845273	-0.2697	1.22777	-0.306353	1.00832	0.143525	1.31289	-0.566232	0.522095	-0.0584627	0.742162	0.0861227	-0.0429517	-0.50041	0.721809	-0.132494	1.21216	-0.154894	1.63283	0.065595	1.3354	-0.0734975	1.25079	
0.724295	5.81207	5	0	-0.355932	0.992705	-0.435558	1.25604	-0.535637	1.26331	-0.479814	1.38187	-0.056237	0.847805	-0.266446	1.23148	-0.294386	1.00902	0.151023	1.31592	-0.554366	0.53366	-0.0440485	0.755085	0.0897555	-0.0436595	-0.487372	0.723272	-0.137497	1.21327	-0.151669	1.62371	0.065595	1.3354	-0.076591	1.24859	
0.72677	5.80292	5	0	-0.353654	0.997279	-0.429702	1.26229	-0.531786	1.26602	-0.474665	1.3872	-0.057133	0.850338	-0.263192	1.23518	-0.282419	1.00973	0.158521	1.31895	-0.542501	0.545226	-0.0296343	0.768008	0.0933882	-0.0443672	-0.474334	0.724736	-0.142501	1.21437	-0.148444	1.6146	0.065595	1.3354	-0.0796845	1.2464	
0.729829	5.79376	5	0	-0.351376	1.00185	-0.423846	1.26853	-0.527935	1.26873	-0.469516	1.39253	-0.058029	0.85287	-0.259938	1.23889	-0.270453	1.01043	0.166019	1.32198	-0.530636	0.556791	-0.01522	0.780932	0.097021	-0.045075	-0.461296	0.7262	-0.147505	1.21547	-0.145219	1.60549	0.065595	1.3354	-0.082778	1.2442	
0.733298	5.78613	5	0	-0.351893	1.01433	-0.419146	1.27808	-0.536596	1.27961	-0.467941	1.39802	-0.0523783	0.856971	-0.253425	1.24632	-0.266721	1.02293	0.167944	1.32866	-0.51696	0.563349	-0.0075855	0.791627	0.105827	-0.050829	-0.45656	0.725603	-0.153502	1.21939	-0.147317	1.59986	0.064325	1.33899	-0.0858697	1.242	
0.736886	5.78003	5	0	-0.35241	1.02681	-0.414446	1.28762	-0.545257	1.2905	-0.466367	1.40352	-0.0467275	0.861072	-0.246912	1.25374	-0.262988	1.03544	0.16987	1.33534	-0.503285	0.569907	4.9E-05	0.802321	0.114632	-0.056583	-0.451824	0.725006	-0.159499	1.22331	-0.149415	1.59423	0.063055	1.34258	-0.0889615	1.23981	
0.740298	5.77087	5	0	-0.352927	1.03929	-0.409747	1.29716	-0.553917	1.30138	-0.464792	1.40902	-0.0410767	0.865173	-0.240398	1.26117	-0.259255	1.04794	0.171795	1.34202	-0.489609	0.576465	0.0076835	0.813016	0.123438	-0.062337	-0.447088	0.72441	-0.165496	1.22723	-0.151512	1.5886	0.061785	1.34617	-0.0920533	1.23761	
0.743241	5.76935	0	5	-0.353444	1.05177	-0.405047	1.30671	-0.562578	1.31227	-0.463217	1.41451	-0.035426	0.869274	-0.233885	1.26859	-0.255523	1.06044	0.17372	1.3487	-0.475933	0.583023	0.015318	0.82371	0.132244	-0.068091	-0.442352	0.723813	-0.171493	1.23115	-0.15361	1.58297	0.060515	1.34975	-0.095145	1.23541	
0.745419	5.76477	0	5	-0.354376	1.0544	-0.41439	1.31029	-0.566423	1.30956	-0.469367	1.41201	-0.0381187	0.876884	-0.230626	1.27231	-0.250807	1.07019	0.172501	1.35215	-0.468336	0.595532	0.0250308	0.828588	0.136651	-0.0709702	-0.432869	0.722616	-0.168489	1.23569	-0.15361	1.58297	0.0643258	1.35555	-0.093024	1.24035	
0.746557	5.75561	0	5	-0.355309	1.05704	-0.423734	1.31387	-0.570267	1.30684	-0.475518	1.4095	-0.0408115	0.884494	-0.227366	1.27603	-0.24609	1.07995	0.171282	1.35559	-0.46074	0.608041	0.0347435	0.833465	0.141057	-0.0738495	-0.423386	0.721418	-0.165485	1.24023	-0.15361	1.58297	0.0681365	1.36134	-0.090903	1.24529	
0.746651	5.75104	0	5	-0.356241	1.05967	-0.433078	1.31745	-0.574111	1.30413	-0.481668	1.40699	-0.0435043	0.892105	-0.224107	1.27975	-0.241374	1.0897	0.170063	1.35904	-0.453144	0.62055	0.0444563	0.838343	0.145463	-0.0767287	-0.413904	0.72022	-0.162481	1.24477	-0.15361	1.58297	0.0719473	1.36713	-0.088782	1.25023	
0.745903	5.75104	0	5	-0.357173	1.06231	-0.442421	1.32103	-0.577956	1.30141	-0.487819	1.40449	-0.046197	0.899715	-0.220848	1.28347	-0.236658	1.09945	0.168844	1.36248	-0.445547	0.633059	0.054169	0.843221	0.14987	-0.079608	-0.404421	0.719023	-0.159477	1.24931	-0.15361	1.58297	0.075758	1.37293	-0.086661	1.25517	
0.744516	5.74798	0	5	-0.389564	1.03301	-0.43717	1.3176	-0.600967	1.28517	-0.497104	1.39101	-0.0479935	0.904792	-0.229278	1.26853	-0.234299	1.10433	0.161855	1.34589	-0.44197	0.622951	0.0363818	0.796678	0.14987	-0.079608	-0.408311	0.691627	-0.157481	1.24367	-0.200896	1.52121	0.0239035	1.33808	-0.113637	1.22236	
0.742697	5.74493	0	5	-0.421956	1.00372	-0.431918	1.31417	-0.623978	1.26892	-0.50639	1.37754	-0.04979	0.909869	-0.237708	1.25359	-0.23194	1.10922	0.154866	1.3293	-0.438393	0.612842	0.0185945	0.750134	0.14987	-0.079608	-0.412201	0.664231	-0.155485	1.23803	-0.248181	1.45945	-0.027951	1.30324	-0.140614	1.18955	
0.740652	5.74646	0	5	-0.454347	0.974419	-0.426667	1.31074	-0.646989	1.25268	-0.515675	1.36407	-0.0515865	0.914946	-0.246138	1.23865	-0.229582	1.1141	0.147878	1.31271	-0.434817	0.602734	0.00080725	0.703591	0.14987	-0.079608	-0.416091	0.636835	-0.15349	1.23239	-0.295466	1.39769	-0.0798055	1.2684	-0.16759	1.15674	
0.738579	5.73425	0	5	-0.486738	0.945122	-0.421416	1.3073	-0.67	1.23644	-0.52496	1.3506	-0.053383	0.920023	-0.254568	1.22371	-0.227223	1.11899	0.140889	1.29611	-0.43124	0.592626	-0.01698	0.657047	0.14987	-0.079608	-0.419981	0.609439	-0.151494	1.22675	-0.342752	1.33593	-0.13166	1.23355	-0.194566	1.12393	
0.736599	5.7373	0	5	-0.517609	0.923191	-0.418486	1.31044	-0.696723	1.21759	-0.539936	1.32363	-0.0464598	0.950729	-0.262416	1.2201	-0.266087	1.12512	0.133903	1.27959	-0.489984	0.555699	-0.0624678	0.582858	0.154278	-0.0824885	-0.442952	0.572369	-0.147489	1.22847	-0.415673	1.29215	-0.176786	1.1977	-0.230597	1.08494	
0.734787	5.72967	0	5	-0.54848	0.901259	-0.415556	1.31358	-0.723446	1.19873	-0.554912	1.29666	-0.0395365	0.981434	-0.270265	1.21648	-0.304951	1.13126	0.126917	1.26306	-0.548727	0.518772	-0.107955	0.508668	0.158687	-0.085369	-0.465923	0.535299	-0.143483	1.23018	-0.488593	1.24838	-0.221912	1.16185	-0.266628	1.04595	
0.733217	5.72815	0	5	-0.579351	0.879328	-0.412626	1.31671	-0.750169	1.17988	-0.569889	1.26969	-0.0326132	1.01214	-0.278114	1.21287	-0.343815	1.13739	0.119931	1.24653	-0.607471	0.481846	-0.153443	0.434479	0.163096	-0.0882495	-0.488893	0.498229	-0.139478	1.2319	-0.561513	1.2046	-0.267038	1.126	-0.30266	1.00697	
0.731963	5.73425	0	5	-0.610222	0.857397	-0.409696	1.31985	-0.776892	1.16103	-0.584865	1.24272	-0.02569	1.04285	-0.285962	1.20925	-0.382679	1.14353	0.112945	1.23	-0.666214	0.444919	-0.198931	0.36029	0.167504	-0.09113	-0.511864	0.461159	-0.135473	1.23362	-0.634434	1.16083	-0.312164	1.09015	-0.338691	0.967982	
0.731097	5.72662	0	5	-0.64407	0.833695	-0.421963	1.32029	-0.807273	1.13961	-0.615944	1.22218	-0.0206038	1.07888	-0.285962	1.20925	-0.412741	1.14823	0.103545	1.22037	-0.734532	0.415065	-0.249106	0.30153	0.168271	-0.0932967	-0.52049	0.434753	-0.127442	1.25009	-0.686986	1.14089	-0.347002	1.07508	-0.372211	0.944388	
0.73068	5.73273	0	5	-0.677917	0.809994	-0.434231	1.32073	-0.837653	1.1182	-0.647023	1.20164	-0.0155175	1.11491	-0.285962	1.20925	-0.442803	1.15293	0.0941445	1.21073	-0.80285	0.385212	-0.299281	0.242771	0.169038	-0.0954635	-0.529116	0.408347	-0.11941	1.26657	-0.739539	1.12095	-0.38184	1.06002	-0.405731	0.920794	
0.730667	5.7663	0	5	-0.711765	0.786292	-0.446499	1.32117	-0.868034	1.09678	-0.678102	1.1811	-0.0104312	1.15095	-0.285962	1.20925	-0.472865	1.15763	0.0847442	1.2011	-0.871168	0.355359	-0.349455	0.184011	0.169804	-0.0976303	-0.537743	0.38194	-0.111378	1.28304	-0.792091	1.10102	-0.416678	1.04496	-0.439251	0.897201	
0.730974	5.83191	0	5	-0.745613	0.76259	-0.458766	1.32161	-0.898414	1.07537	-0.709181	1.16055	-0.005345	1.18698	-0.285962	1.20925	-0.502927	1.16233	0.075344	1.19146	-0.939486	0.325505	-0.39963	0.125251	0.170571	-0.099797	-0.546369	0.355534	-0.103347	1.29951	-0.844643	1.08108	-0.451516	1.02989	-0.472771	0.873607	
0.731519	5.93719	0	5	-0.77966	0.729468	-0.462898	1.29913	-0.916378	1.04608	-0.723063	1.13115	0.00041975	1.201	-0.291123	1.19807	-0.523332	1.16289	0.068371	1.17504	-0.987784	0.296539	-0.430358	0.0656815	0.170571	-0.099797	-0.556315	0.320355	-0.100334	1.30407	-0.884513	1.07119	-0.493542	1.03583	-0.497964	0.859221	
0.732216	6.06537	0	5	-0.813708	0.696346	-0.467031	1.27664	-0.934343	1.0168	-0.736946	1.10175	0.0061845	1.21501	-0.296283	1.18689	-0.543737	1.16344	0.061398	1.15861	-1.03608	0.267573	-0.461086	0.006112	0.170571	-0.099797	-0.566261	0.285176	-0.0973215	1.30863	-0.924384	1.06129	-0.535568	1.04177	-0.523158	0.844834	
0.732981	6.2149	0	5	-0.847755	0.663223	-0.471164	1.25416	-0.952308	0.98752	-0.750829	1.07234	0.0119493	1.22903	-0.301443	1.17572	-0.564142	1.16399	0.054425	1.14219	-1.08438	0.238607	-0.491815	-0.0534575	0.170571	-0.099797	-0.576208	0.249998	-0.0943087	1.31319	-0.964254	1.0514	-0.577594	1.04771	-0.548351	0.830448	
0.73373	6.36902	0	5	-0.881803	0.630101	-0.475296	1.23167	-0.970272	0.958238	-0.764711	1.04294	0.017714	1.24305	-0.306604	1.16454	-0.584547	1.16454	0.047452	1.12577	-1.13268	0.209641	-0.522543	-0.113027	0.170571	-0.099797	-0.586154	0.214819	-0.091296	1.31775	-1.00412	1.0415	-0.61962	1.05364	-0.573544	0.816061	
0.734368	6.51245	0	5	-0.900481	0.597156	-0.481138	1.22544	-0.976892	0.93705	-0.77096	1.02149	0.0271305	1.2468	-0.299922	1.14566	-0.59504	1.1714	0.047936	1.11237	-1.16249	0.195306	-0.546801	-0.14835	0.170571	-0.099797	-0.597236	0.183063	-0.09732	1.30864	-1.00816	1.03071	-0.623306	1.048	-0.579588	0.811808	
0.734799	6.65588	0	5	-0.91916	0.56421	-0.48698	1.21921	-0.983513	0.915861	-0.777209	1.00004	0.036547	1.25054	-0.29324	1.12677	-0.605533	1.17825	0.04842	1.09897	-1.19229	0.18097	-0.571059	-0.183673	0.170571	-0.099797	-0.608317	0.151308	-0.103344	1.29952	-1.0122	1.01992	-0.626993	1.04235	-0.585632	0.807554	
0.734928	6.78558	0	5	-0.937839	0.531265	-0.492822	1.21298	-0.990133	0.894673	-0.783459	0.978592	0.0459635	1.25429	-0.286558	1.10789	-0.616025	1.18511	0.048904	1.08558	-1.2221	0.166635	-0.595317	-0.218996	0.170571	-0.099797	-0.619398	0.119552	-0.109368	1.2904	-1.01623	1.00912	-0.630679	1.03671	-0.591676	0.8033	
0.734658	6.89545	0	5	-0.956517	0.498319	-0.498664	1.20674	-0.996753	0.873485	-0.789708	0.957144	0.05538	1.25804	-0.279876	1.089	-0.626518	1.19197	0.049388	1.07218	-1.25191	0.1523	-0.619575	-0.254319	0.170571	-0.099797	-0.63048	0.087797	-0.115392	1.28129	-1.02027	0.998326	-0.634366	1.03106	-0.59772	0.799047	
0.733895	6.96869	0	5	-0.967607	0.476279	-0.508569	1.20068	-0.994671	0.854321	-0.797324	0.94939	0.0627775	1.24726	-0.281796	1.08156	-0.629458	1.20027	0.0529948	1.06199	-1.25937	0.151557	-0.628863	-0.26946	0.178628	-0.103396	-0.634244	0.073265	-0.122409	1.27501	-0.998855	1.00449	-0.61341	1.03618	-0.582597	0.809691	
0.7326	7.02972	0	5	-0.978698	0.454239	-0.518474	1.19461	-0.99259	0.835157	-0.80494	0.941636	0.070175	1.23649	-0.283716	1.07412	-0.632398	1.20858	0.0566015	1.05179	-1.26684	0.150815	-0.638151	-0.284602	0.186686	-0.106995	-0.638008	0.058733	-0.129426	1.26874	-0.977444	1.01066	-0.592455	1.04129	-0.567474	0.820334	
