5.0293	0	0	0.203625	-0.03446	0.171087	-0.247117	0.22637	-0.175565	0.058278	-0.122684	0.035095	-0.235458	-0.050062	0.04787	-0.067942	-0.227347	-0.012637	-0.008594	-0.014331	-0.292126	0.074013	-0.099112	0.142492	-0.141941	0.158691	-0.130304	0.175891	-0.249774	0.122312	0.037351	0.147105	-0.190318	0.099618	-0.140776	
5.02624	0	0	0.201162	-0.0275002	0.163624	-0.23623	0.217658	-0.166993	0.0511203	-0.113512	0.0360577	-0.238179	-0.0537933	0.0442455	-0.0656252	-0.233894	-0.0105422	-0.0145142	-0.0121342	-0.298334	0.071229	-0.101076	0.139143	-0.143448	0.156147	-0.135763	0.177063	-0.253087	0.120121	0.043542	0.142148	-0.189132	0.0956222	-0.140154	
5.02167	0	0	0.1987	-0.0205405	0.156162	-0.225342	0.208946	-0.158421	0.0439625	-0.104341	0.0370205	-0.240899	-0.0575245	0.040621	-0.0633085	-0.240441	-0.0084475	-0.0204345	-0.0099375	-0.304542	0.068445	-0.10304	0.135794	-0.144954	0.153603	-0.141221	0.178235	-0.256401	0.11793	0.049733	0.137191	-0.187945	0.0916265	-0.139532	
5.01404	0	0	0.196237	-0.0135808	0.148699	-0.214454	0.200234	-0.149849	0.0368047	-0.0951687	0.0379833	-0.243619	-0.0612558	0.0369965	-0.0609917	-0.246989	-0.00635275	-0.0263547	-0.00774075	-0.310751	0.065661	-0.105003	0.132444	-0.146461	0.151058	-0.146679	0.179408	-0.259714	0.11574	0.055924	0.132234	-0.186759	0.0876308	-0.138909	
5.00793	0	0	0.193774	-0.006621	0.141236	-0.203567	0.191522	-0.141277	0.029647	-0.085997	0.038946	-0.24634	-0.064987	0.033372	-0.058675	-0.253536	-0.004258	-0.032275	-0.005544	-0.316959	0.062877	-0.106967	0.129095	-0.147968	0.148514	-0.152138	0.18058	-0.263027	0.113549	0.062115	0.127277	-0.185573	0.083635	-0.138287	
4.99878	0	0	0.196067	0.00795825	0.144166	-0.191435	0.187543	-0.130032	0.0295583	-0.0746892	0.0453723	-0.242169	-0.0612558	0.0369965	-0.059833	-0.250263	-0.004258	-0.032275	-0.00444625	-0.320061	0.0646173	-0.111885	0.133295	-0.148865	0.149606	-0.155223	0.174716	-0.261742	0.113549	0.062115	0.134124	-0.192099	0.08455	-0.140873	
4.99725	0	0	0.198359	0.0225375	0.147095	-0.179302	0.183564	-0.118787	0.0294695	-0.0633815	0.0517985	-0.237998	-0.0575245	0.040621	-0.060991	-0.24699	-0.004258	-0.032275	-0.0033485	-0.323164	0.0663575	-0.116803	0.137494	-0.149762	0.150697	-0.158308	0.168853	-0.260457	0.113549	0.062115	0.14097	-0.198625	0.085465	-0.143458	
4.98962	0	0	0.200652	0.0371167	0.150025	-0.167169	0.179585	-0.107541	0.0293807	-0.0520738	0.0582247	-0.233826	-0.0537933	0.0442455	-0.062149	-0.243717	-0.004258	-0.032275	-0.00225075	-0.326267	0.0680977	-0.12172	0.141694	-0.150659	0.151789	-0.161394	0.162989	-0.259172	0.113549	0.062115	0.147816	-0.205151	0.08638	-0.146044	
4.98352	0	0	0.202944	0.051696	0.152954	-0.155037	0.175606	-0.096296	0.029292	-0.040766	0.064651	-0.229655	-0.050062	0.04787	-0.063307	-0.240444	-0.004258	-0.032275	-0.001153	-0.329369	0.069838	-0.126638	0.145894	-0.151556	0.152881	-0.164479	0.157126	-0.257887	0.113549	0.062115	0.154663	-0.211677	0.087295	-0.14863	
4.97742	0	0	0.198826	0.063335	0.144555	-0.14151	0.166898	-0.0877218	0.0272185	-0.034906	0.0588635	-0.213299	-0.0491235	0.059398	-0.059291	-0.238033	-0.0104002	-0.025986	-0.003349	-0.323163	0.069838	-0.126638	0.141639	-0.139532	0.159066	-0.156652	0.154782	-0.251262	0.116987	0.0646313	0.156789	-0.204853	0.0854645	-0.143458	
4.97589	0	0	0.194708	0.074974	0.136157	-0.127982	0.15819	-0.0791475	0.025145	-0.029046	0.053076	-0.196942	-0.048185	0.070926	-0.055275	-0.235621	-0.0165425	-0.019697	-0.005545	-0.316956	0.069838	-0.126638	0.137384	-0.127507	0.165251	-0.148825	0.152438	-0.244637	0.120426	0.0671475	0.158915	-0.19803	0.083634	-0.138285	
4.97894	0	0	0.190589	0.086613	0.127758	-0.114455	0.149482	-0.0705733	0.0230715	-0.023186	0.0472885	-0.180586	-0.0472465	0.082454	-0.051259	-0.23321	-0.0226847	-0.013408	-0.007741	-0.31075	0.069838	-0.126638	0.13313	-0.115482	0.171436	-0.140999	0.150094	-0.238012	0.123865	0.0696637	0.161041	-0.191207	0.0818035	-0.133112	
4.98505	0	0	0.186471	0.098252	0.119359	-0.100928	0.140774	-0.061999	0.020998	-0.017326	0.041501	-0.164229	-0.046308	0.093982	-0.047243	-0.230799	-0.028827	-0.007119	-0.009937	-0.304544	0.069838	-0.126638	0.128875	-0.103458	0.177621	-0.133172	0.14775	-0.231387	0.127303	0.07218	0.163167	-0.184383	0.079973	-0.12794	
4.99573	0	0	0.188022	0.104405	0.125981	-0.0992187	0.145498	-0.0593137	0.020998	-0.017326	0.0447135	-0.162132	-0.042116	0.082135	-0.0484025	-0.227522	-0.0256863	-0.015995	-0.00335025	-0.308848	0.0625342	-0.125644	0.129726	-0.105864	0.171436	-0.140999	0.154785	-0.235984	0.120576	0.0789582	0.159152	-0.185867	0.0818035	-0.133112	
5.00946	0	0	0.189574	0.110558	0.132603	-0.0975095	0.150222	-0.0566285	0.020998	-0.017326	0.047926	-0.160034	-0.037924	0.070288	-0.049562	-0.224245	-0.0225455	-0.024871	0.0032365	-0.313152	0.0552305	-0.12465	0.130578	-0.10827	0.165251	-0.148825	0.16182	-0.240581	0.113848	0.0857365	0.155136	-0.18735	0.083634	-0.138285	
5.02624	0	0	0.191126	0.116711	0.139224	-0.0958003	0.154946	-0.0539432	0.020998	-0.017326	0.0511385	-0.157937	-0.033732	0.058441	-0.0507215	-0.220969	-0.0194047	-0.033747	0.00982325	-0.317456	0.0479267	-0.123657	0.13143	-0.110676	0.159066	-0.156652	0.168856	-0.245177	0.107121	0.0925148	0.151121	-0.188834	0.0854645	-0.143458	
5.03998	0	0	0.192677	0.122864	0.145846	-0.094091	0.15967	-0.051258	0.020998	-0.017326	0.054351	-0.155839	-0.02954	0.046594	-0.051881	-0.217692	-0.016264	-0.042623	0.01641	-0.32176	0.040623	-0.122663	0.132281	-0.113082	0.152881	-0.164479	0.175891	-0.249774	0.100394	0.099293	0.147105	-0.190318	0.087295	-0.14863	
5.05218	0	0	0.196604	0.132858	0.142138	-0.0836122	0.155681	-0.0399845	0.0229772	-0.011856	0.0607815	-0.15164	-0.0244055	0.0462735	-0.047863	-0.215277	-0.02031	-0.0422523	0.00982325	-0.317456	0.0414923	-0.125119	0.136483	-0.113978	0.149245	-0.166845	0.168856	-0.245177	0.102587	0.0930955	0.14805	-0.192988	0.087295	-0.14863	
5.05524	0	0	0.200532	0.142851	0.13843	-0.0731335	0.151692	-0.028711	0.0249565	-0.006386	0.067212	-0.147441	-0.019271	0.045953	-0.043845	-0.212861	-0.024356	-0.0418815	0.0032365	-0.313152	0.0423615	-0.127576	0.140684	-0.114874	0.14561	-0.169211	0.16182	-0.240581	0.10478	0.086898	0.148995	-0.195659	0.087295	-0.14863	
5.06134	0	0	0.204459	0.152844	0.134722	-0.0626547	0.147703	-0.0174375	0.0269358	-0.000916	0.0736425	-0.143241	-0.0141365	0.0456325	-0.039827	-0.210446	-0.028402	-0.0415107	-0.00335025	-0.308848	0.0432307	-0.130032	0.144886	-0.115769	0.141975	-0.171578	0.154785	-0.235984	0.106973	0.0807005	0.14994	-0.198329	0.087295	-0.14863	
5.06134	0	0	0.208387	0.162838	0.131014	-0.052176	0.143714	-0.006164	0.028915	0.004554	0.080073	-0.139042	-0.009002	0.045312	-0.035809	-0.208031	-0.032448	-0.04114	-0.009937	-0.304544	0.0441	-0.132489	0.149087	-0.116665	0.138339	-0.173944	0.14775	-0.231387	0.109166	0.074503	0.150885	-0.200999	0.087295	-0.14863	
5.05676	0	0	0.205906	0.169849	0.127302	-0.0416847	0.141052	0.00135975	0.021746	0.0137507	0.077479	-0.120514	-0.017395	0.069032	-0.0329492	-0.202331	-0.0294485	-0.038553	-0.0121342	-0.298334	0.045142	-0.125612	0.144826	-0.104624	0.143427	-0.163034	0.15948	-0.233955	0.110409	0.0832232	0.159865	-0.200707	0.0903758	-0.146667	
5.04913	0	0	0.203426	0.17686	0.12359	-0.0311935	0.138389	0.0088835	0.014577	0.0229475	0.074885	-0.101986	-0.025788	0.092752	-0.0300895	-0.196631	-0.026449	-0.035966	-0.0143315	-0.292123	0.046184	-0.118736	0.140566	-0.0925835	0.148515	-0.152124	0.17121	-0.236523	0.111652	0.0919435	0.168846	-0.200414	0.0934565	-0.144703	
5.03845	0	0	0.200945	0.18387	0.119878	-0.0207022	0.135727	0.0164073	0.007408	0.0321442	0.072291	-0.083458	-0.034181	0.116472	-0.0272298	-0.190931	-0.0234495	-0.033379	-0.0165288	-0.285913	0.047226	-0.11186	0.136305	-0.0805427	0.153603	-0.141214	0.182941	-0.23909	0.112895	0.100664	0.177826	-0.200122	0.0965372	-0.14274	
5.03387	0	0	0.198465	0.190881	0.116166	-0.010211	0.133065	0.023931	0.000239	0.041341	0.069697	-0.06493	-0.042574	0.140192	-0.02437	-0.185231	-0.02045	-0.030792	-0.018726	-0.279703	0.048268	-0.104983	0.132045	-0.068502	0.158691	-0.130304	0.194671	-0.241658	0.114138	0.109384	0.186807	-0.19983	0.099618	-0.140776	
5.03692	0	0	0.193609	0.194054	0.121798	-0.0159085	0.125684	0.0287535	0.00533125	0.0380137	0.067757	-0.0594478	-0.0397737	0.132278	-0.025532	-0.181947	-0.02045	-0.030792	-0.0132388	-0.2809	0.048268	-0.104983	0.132898	-0.0709115	0.156147	-0.135763	0.193497	-0.238341	0.109745	0.1218	0.184915	-0.194484	0.102701	-0.138811	
5.05981	0	0	0.188754	0.197226	0.12743	-0.021606	0.118304	0.033576	0.0104235	0.0346865	0.065817	-0.0539655	-0.0369735	0.124365	-0.026694	-0.178664	-0.02045	-0.030792	-0.0077515	-0.282097	0.048268	-0.104983	0.13375	-0.073321	0.153603	-0.141221	0.192324	-0.235024	0.105352	0.134217	0.183024	-0.189138	0.105784	-0.136847	
5.04913	0	0	0.183898	0.200399	0.133062	-0.0273035	0.110923	0.0383985	0.0155158	0.0313593	0.063877	-0.0484832	-0.0341733	0.116451	-0.027856	-0.17538	-0.02045	-0.030792	-0.00226425	-0.283294	0.048268	-0.104983	0.134603	-0.0757305	0.151058	-0.146679	0.19115	-0.231707	0.100958	0.146633	0.181132	-0.183791	0.108866	-0.134882	
5.04761	0	0	0.179042	0.203572	0.138694	-0.033001	0.103543	0.043221	0.020608	0.028032	0.061937	-0.043001	-0.031373	0.108537	-0.029018	-0.172096	-0.02045	-0.030792	0.003223	-0.284491	0.048268	-0.104983	0.135456	-0.07814	0.148514	-0.152138	0.189976	-0.22839	0.096565	0.15905	0.17924	-0.178445	0.111949	-0.132917	
5.05371	0	0	0.181415	0.207416	0.136837	-0.0277523	0.102211	0.0469853	0.0185298	0.0339055	0.0641815	-0.0381405	-0.0276367	0.11218	-0.0249957	-0.169672	-0.017449	-0.028203	0.00102325	-0.278274	0.0493085	-0.0980972	0.134603	-0.0757305	0.147422	-0.149052	0.189976	-0.22839	0.103298	0.152263	0.17333	-0.174584	0.116866	-0.13613	
5.06897	0	0	0.183788	0.211259	0.13498	-0.0225035	0.100879	0.0507495	0.0164515	0.039779	0.066426	-0.03328	-0.0239005	0.115822	-0.0209735	-0.167248	-0.014448	-0.025614	-0.0011765	-0.272057	0.050349	-0.0912115	0.13375	-0.073321	0.14633	-0.145965	0.189976	-0.22839	0.110031	0.145475	0.16742	-0.170722	0.121783	-0.139343	
5.08728	0	0	0.186161	0.215103	0.133123	-0.0172547	0.099547	0.0545137	0.0143733	0.0456525	0.0686705	-0.0284195	-0.0201643	0.119465	-0.0169513	-0.164824	-0.011447	-0.023025	-0.00337625	-0.26584	0.0513895	-0.0843258	0.132898	-0.0709115	0.145238	-0.142878	0.189976	-0.22839	0.116764	0.138688	0.16151	-0.16686	0.126699	-0.142555	
5.10712	0	0	0.188534	0.218946	0.131266	-0.012006	0.098215	0.058278	0.012295	0.051526	0.070915	-0.023559	-0.016428	0.123108	-0.012929	-0.1624	-0.008446	-0.020436	-0.005576	-0.259623	0.05243	-0.07744	0.132045	-0.068502	0.144146	-0.139792	0.189976	-0.22839	0.123497	0.131901	0.1556	-0.162999	0.131616	-0.145768	
5.12237	0	0	0.185334	0.217441	0.133123	-0.0172547	0.0921727	0.0593323	0.012295	0.051526	0.0721875	-0.0159455	-0.0154945	0.134682	-0.0152557	-0.155824	-0.00754025	-0.011919	-0.0066765	-0.256513	0.058868	-0.0759673	0.132045	-0.068502	0.149233	-0.128862	0.187628	-0.221753	0.125837	0.137537	0.159617	-0.161511	0.129783	-0.14059	
5.11169	0	0	0.182134	0.215936	0.13498	-0.0225035	0.0861305	0.0603865	0.012295	0.051526	0.07346	-0.008332	-0.014561	0.146257	-0.0175825	-0.149247	-0.0066345	-0.003402	-0.007777	-0.253403	0.065306	-0.0744945	0.132045	-0.068502	0.154319	-0.117931	0.185279	-0.215116	0.128177	0.143174	0.163634	-0.160023	0.127951	-0.135411	
5.10712	0	0	0.178933	0.21443	0.136837	-0.0277523	0.0800882	0.0614408	0.012295	0.051526	0.0747325	-0.0007185	-0.0136275	0.157831	-0.0199092	-0.142671	-0.00572875	0.005115	-0.0088775	-0.250293	0.071744	-0.0730217	0.132045	-0.068502	0.159406	-0.107001	0.18293	-0.208478	0.130517	0.148811	0.167652	-0.158536	0.126118	-0.130233	
5.10864	0	0	0.175733	0.212925	0.138694	-0.033001	0.074046	0.062495	0.012295	0.051526	0.076005	0.006895	-0.012694	0.169405	-0.022236	-0.136095	-0.004823	0.013632	-0.009978	-0.247183	0.078182	-0.071549	0.132045	-0.068502	0.164493	-0.096071	0.180582	-0.201841	0.132857	0.154447	0.171669	-0.157048	0.124286	-0.125054	
5.11322	0	0	0.175015	0.204411	0.133	-0.0373438	0.0780385	0.0512118	0.0103198	0.0460445	0.070547	-9.325E-05	-0.0187635	0.158144	-0.025094	-0.14181	0.000278	0.0102988	-0.0154643	-0.245989	0.0773102	-0.069085	0.129549	-0.0724265	0.161949	-0.10154	0.181756	-0.20516	0.131757	0.157556	0.177583	-0.160912	0.125202	-0.127643	
5.12085	0	0	0.174297	0.195898	0.127306	-0.0416865	0.082031	0.0399285	0.0083445	0.040563	0.065089	-0.0070815	-0.024833	0.146883	-0.027952	-0.147525	0.005379	0.0069655	-0.0209505	-0.244795	0.0764385	-0.066621	0.127053	-0.076351	0.159406	-0.107008	0.182931	-0.208479	0.130657	0.160665	0.183497	-0.164777	0.126119	-0.130233	
5.12848	0	0	0.173578	0.187384	0.121613	-0.0460293	0.0860235	0.0286452	0.00636925	0.0350815	0.059631	-0.0140697	-0.0309025	0.135622	-0.03081	-0.15324	0.01048	0.00363225	-0.0264368	-0.243602	0.0755668	-0.064157	0.124557	-0.0802755	0.156863	-0.112476	0.184106	-0.211799	0.129557	0.163774	0.189412	-0.168641	0.127035	-0.132823	
5.1239	0	0	0.17286	0.17887	0.115919	-0.050372	0.090016	0.017362	0.004394	0.0296	0.054173	-0.021058	-0.036972	0.124361	-0.033668	-0.158955	0.015581	0.000299	-0.031923	-0.242408	0.074695	-0.061693	0.122061	-0.0842	0.154319	-0.117945	0.18528	-0.215118	0.128457	0.166883	0.195326	-0.172506	0.127952	-0.135412	
5.12543	0	0	0.175338	0.171867	0.122474	-0.0586832	0.0926748	0.009848	-0.000695	0.0329253	0.0603	-0.0271705	-0.0355722	0.120405	-0.033668	-0.158955	0.0196363	-7.175E-05	-0.0330235	-0.239298	0.0755668	-0.064157	0.124616	-0.0914205	0.156505	-0.124123	0.186454	-0.218436	0.126118	0.161243	0.191304	-0.173991	0.132872	-0.138627	
5.11932	0	0	0.177816	0.164863	0.129029	-0.0669945	0.0953335	0.002334	-0.005784	0.0362505	0.066427	-0.033283	-0.0341725	0.116449	-0.033668	-0.158955	0.0236915	-0.0004425	-0.034124	-0.236188	0.0764385	-0.066621	0.127171	-0.098641	0.158691	-0.130302	0.187628	-0.221754	0.123779	0.155604	0.187283	-0.175476	0.137791	-0.141842	
5.12085	0	0	0.180294	0.157859	0.135584	-0.0753058	0.0979923	-0.00518	-0.010873	0.0395757	0.072554	-0.0393955	-0.0327727	0.112493	-0.033668	-0.158955	0.0277468	-0.00081325	-0.0352245	-0.233078	0.0773102	-0.069085	0.129726	-0.105861	0.160877	-0.13648	0.188802	-0.225072	0.12144	0.149964	0.183262	-0.17696	0.142711	-0.145056	
5.12848	0	0	0.182772	0.150856	0.142139	-0.083617	0.100651	-0.012694	-0.015962	0.042901	0.078681	-0.045508	-0.031373	0.108537	-0.033668	-0.158955	0.031802	-0.001184	-0.036325	-0.229968	0.078182	-0.071549	0.132281	-0.113082	0.163063	-0.142658	0.189976	-0.22839	0.119101	0.144324	0.17924	-0.178445	0.14763	-0.148271	
5.13763	0	0	0.1772	0.145532	0.134592	-0.0827113	0.0972672	-0.0191393	-0.0189718	0.0403565	0.0735247	-0.0421388	-0.0355743	0.12041	-0.0325055	-0.16224	0.029703	0.004748	-0.041806	-0.228777	0.0773102	-0.069085	0.13143	-0.110676	0.163421	-0.131011	0.194675	-0.226357	0.127081	0.146278	0.18042	-0.16893	0.15072	-0.146307	
5.16205	0	0	0.171629	0.140209	0.127045	-0.0818055	0.0938835	-0.0255845	-0.0219815	0.037812	0.0683685	-0.0387695	-0.0397755	0.132283	-0.031343	-0.165525	0.027604	0.01068	-0.047287	-0.227587	0.0764385	-0.066621	0.130578	-0.10827	0.163778	-0.119365	0.199373	-0.224325	0.135062	0.148231	0.1816	-0.159415	0.153809	-0.144344	
5.18646	0	0	0.166057	0.134885	0.119499	-0.0808997	0.0904998	-0.0320298	-0.0249912	0.0352675	0.0632122	-0.0354002	-0.0439767	0.144157	-0.0301805	-0.168811	0.025505	0.016612	-0.052768	-0.226397	0.0755668	-0.064157	0.129726	-0.105864	0.164135	-0.107718	0.204072	-0.222292	0.143042	0.150184	0.182781	-0.149901	0.156898	-0.14238	
5.22156	0	0	0.160486	0.129561	0.111952	-0.079994	0.087116	-0.038475	-0.028001	0.032723	0.058056	-0.032031	-0.048178	0.15603	-0.029018	-0.172096	0.023406	0.022544	-0.058249	-0.225206	0.074695	-0.061693	0.128875	-0.103458	0.164493	-0.096071	0.20877	-0.220259	0.151023	0.152138	0.183961	-0.140386	0.159988	-0.140416	
5.26581	0	0	0.155743	0.121918	0.117504	-0.0956847	0.0850588	-0.0486553	-0.0289357	0.0243208	0.0577515	-0.0423672	-0.0463125	0.136567	-0.027856	-0.17538	0.025505	0.016612	-0.0494678	-0.235723	0.0727825	-0.0661245	0.126379	-0.107375	0.164135	-0.107718	0.20877	-0.220259	0.146481	0.152715	0.190827	-0.146931	0.151979	-0.139165	
5.31311	0	0	0.151001	0.114275	0.123056	-0.111375	0.0830015	-0.0588355	-0.0298705	0.0159185	0.057447	-0.0527035	-0.044447	0.117105	-0.026694	-0.178664	0.027604	0.01068	-0.0406865	-0.24624	0.07087	-0.070556	0.123882	-0.111291	0.163778	-0.119365	0.20877	-0.220259	0.14194	0.153292	0.197692	-0.153475	0.14397	-0.137914	
5.36194	0	0	0.146259	0.106632	0.128608	-0.127066	0.0809442	-0.0690158	-0.0308052	0.00751625	0.0571425	-0.0630398	-0.0425815	0.0976417	-0.025532	-0.181947	0.029703	0.004748	-0.0319052	-0.256758	0.0689575	-0.0749875	0.121385	-0.115208	0.163421	-0.131011	0.20877	-0.220259	0.137399	0.15387	0.204558	-0.160019	0.135961	-0.136663	
5.40771	0	0	0.141516	0.098989	0.13416	-0.142757	0.078887	-0.079196	-0.03174	-0.000886	0.056838	-0.073376	-0.040716	0.078179	-0.02437	-0.185231	0.031802	-0.001184	-0.023124	-0.267275	0.067045	-0.079419	0.118889	-0.119125	0.163063	-0.142658	0.20877	-0.220259	0.132857	0.154447	0.211423	-0.166564	0.127952	-0.135412	
5.44433	0	0	0.150178	0.116624	0.133235	-0.140144	0.078887	-0.079196	-0.03682	0.00243325	0.0587755	-0.0788515	-0.040716	0.078179	-0.0232085	-0.188514	0.03586	-0.0015555	-0.0275072	-0.269187	0.0696575	-0.0868027	0.116393	-0.123038	0.159426	-0.145028	0.209945	-0.223578	0.129418	0.151916	0.21237	-0.169241	0.125783	-0.139964	
5.4779	0	0	0.15884	0.134259	0.13231	-0.13753	0.078887	-0.079196	-0.0419	0.0057525	0.060713	-0.084327	-0.040716	0.078179	-0.022047	-0.191797	0.039918	-0.001927	-0.0318905	-0.271099	0.07227	-0.0941865	0.113898	-0.126951	0.155788	-0.147398	0.211119	-0.226898	0.125979	0.149386	0.213317	-0.171918	0.123613	-0.144516	
5.50079	0	0	0.167503	0.151894	0.131386	-0.134917	0.078887	-0.079196	-0.04698	0.00907175	0.0626505	-0.0898025	-0.040716	0.078179	-0.0208855	-0.195079	0.043976	-0.0022985	-0.0362738	-0.273012	0.0748825	-0.10157	0.111403	-0.130864	0.152151	-0.149768	0.212293	-0.230217	0.12254	0.146855	0.214264	-0.174594	0.121444	-0.149068	
5.51758	0	0	0.176165	0.169529	0.130461	-0.132304	0.078887	-0.079196	-0.05206	0.012391	0.064588	-0.095278	-0.040716	0.078179	-0.019724	-0.198362	0.048034	-0.00267	-0.040657	-0.274924	0.077495	-0.108954	0.108907	-0.134777	0.148514	-0.152138	0.213468	-0.233536	0.119101	0.144324	0.215211	-0.177271	0.119274	-0.15362	
5.5191	0	0	0.175229	0.182717	0.127614	-0.134461	0.0755042	-0.0856165	-0.0540293	0.00692575	0.0584693	-0.0891755	-0.042114	0.0821298	-0.019724	-0.198362	0.048034	-0.00267	-0.041756	-0.271818	0.0766245	-0.106493	0.107206	-0.129971	0.154697	-0.144306	0.218171	-0.231505	0.124739	0.14064	0.212369	-0.169239	0.120189	-0.156207	
5.51453	0	0	0.174294	0.195905	0.124768	-0.136619	0.0721215	-0.092037	-0.0559985	0.0014605	0.0523505	-0.083073	-0.043512	0.0860805	-0.019724	-0.198362	0.048034	-0.00267	-0.042855	-0.268713	0.075754	-0.104033	0.105506	-0.125164	0.160881	-0.136473	0.222874	-0.229473	0.130377	0.136956	0.209527	-0.161207	0.121105	-0.158794	
5.50079	0	0	0.173358	0.209092	0.121921	-0.138776	0.0687388	-0.0984575	-0.0579677	-0.00400475	0.0462318	-0.0769705	-0.04491	0.0900312	-0.019724	-0.198362	0.048034	-0.00267	-0.043954	-0.265607	0.0748835	-0.101573	0.103805	-0.120358	0.167064	-0.128641	0.227577	-0.227441	0.136015	0.133272	0.206684	-0.153174	0.12202	-0.16138	
5.48859	0	0	0.172423	0.22228	0.119074	-0.140933	0.065356	-0.104878	-0.059937	-0.00947	0.040113	-0.070868	-0.046308	0.093982	-0.019724	-0.198362	0.048034	-0.00267	-0.045053	-0.262501	0.074013	-0.099112	0.102104	-0.115551	0.173247	-0.120809	0.23228	-0.22541	0.141653	0.129588	0.203842	-0.145142	0.122935	-0.163967	
5.4718	0	0	0.172532	0.211427	0.116228	-0.143089	0.0680012	-0.112354	-0.0608722	-0.0178515	0.035629	-0.0805552	-0.043062	0.070628	-0.018563	-0.201644	0.0511807	-0.0115635	-0.0428555	-0.268711	0.0720993	-0.103535	0.0996105	-0.119464	0.172886	-0.132445	0.231105	-0.222088	0.137114	0.130166	0.203842	-0.145142	0.12385	-0.166553	
5.45502	0	0	0.172642	0.200575	0.113383	-0.145244	0.0706465	-0.11983	-0.0618075	-0.026233	0.031145	-0.0902425	-0.039816	0.047274	-0.017402	-0.204925	0.0543275	-0.020457	-0.040658	-0.274921	0.0701855	-0.107958	0.097117	-0.123377	0.172524	-0.144082	0.22993	-0.218767	0.132575	0.130744	0.203842	-0.145142	0.124765	-0.169138	
5.45044	0	0	0.172751	0.189723	0.110537	-0.1474	0.0732918	-0.127307	-0.0627427	-0.0346145	0.026661	-0.0999298	-0.03657	0.02392	-0.016241	-0.208207	0.0574743	-0.0293505	-0.0384605	-0.281132	0.0682717	-0.112381	0.0946235	-0.127289	0.172162	-0.155718	0.228754	-0.215445	0.128036	0.131323	0.203842	-0.145142	0.12568	-0.171724	
5.45044	0	0	0.17286	0.17887	0.107692	-0.149556	0.075937	-0.134783	-0.063678	-0.042996	0.022177	-0.109617	-0.033324	0.000566	-0.01508	-0.211488	0.060621	-0.038244	-0.036263	-0.287342	0.066358	-0.116804	0.09213	-0.131202	0.171801	-0.167354	0.227579	-0.212123	0.123497	0.131901	0.203842	-0.145142	0.126595	-0.17431	
5.45502	0	0	0.175338	0.171867	0.105844	-0.144334	0.0672657	-0.126244	-0.0666815	-0.0455253	0.0260422	-0.120541	-0.0277533	-0.0151775	-0.0139192	-0.214768	0.0627173	-0.0441682	-0.0318725	-0.29975	0.0653138	-0.123679	0.0896378	-0.135111	0.165616	-0.175165	0.229929	-0.218765	0.118818	0.12065	0.206684	-0.153174	0.132427	-0.180108	
5.46112	0	0	0.177816	0.164863	0.103996	-0.139111	0.0585945	-0.117704	-0.069685	-0.0480545	0.0299075	-0.131466	-0.0221825	-0.030921	-0.0127585	-0.218049	0.0648135	-0.0500925	-0.027482	-0.312158	0.0642695	-0.130553	0.0871455	-0.13902	0.159432	-0.182976	0.232279	-0.225407	0.114139	0.109398	0.209527	-0.161207	0.138258	-0.185906	
5.48248	0	0	0.180294	0.157859	0.102148	-0.133888	0.0499233	-0.109165	-0.0726885	-0.0505837	0.0337727	-0.14239	-0.0166118	-0.0466645	-0.0115978	-0.221329	0.0669098	-0.0560168	-0.0230915	-0.324566	0.0632252	-0.137428	0.0846532	-0.14293	0.153248	-0.190786	0.23463	-0.23205	0.10946	0.0981472	0.212369	-0.169239	0.14409	-0.191704	
5.49927	0	0	0.182772	0.150856	0.1003	-0.128666	0.041252	-0.100626	-0.075692	-0.053113	0.037638	-0.153314	-0.011041	-0.062408	-0.010437	-0.224609	0.069006	-0.061941	-0.018701	-0.336974	0.062181	-0.144303	0.082161	-0.146839	0.147063	-0.198597	0.23698	-0.238692	0.104781	0.086896	0.215211	-0.177271	0.149921	-0.197502	
5.52521	0	0	1.81971	-0.907983	0.098451	-0.123441	0.0425745	-0.104363	-0.0746587	-0.056033	0.0334627	-0.152684	-0.0175625	-0.0581467	-0.0133002	-0.230298	0.0700535	-0.0649015	-0.0274647	-0.340774	0.062181	-0.144303	0.082161	-0.146839	0.1507	-0.196235	0.231102	-0.237403	0.108068	0.0776048	0.217104	-0.182622	0.150836	-0.200087	
5.55572	0	0	3.45665	-1.96682	0.096602	-0.118215	0.043897	-0.108101	-0.0736255	-0.058953	0.0292875	-0.152054	-0.024084	-0.0538855	-0.0161635	-0.235987	0.071101	-0.067862	-0.0362285	-0.344573	0.062181	-0.144303	0.082161	-0.146839	0.154336	-0.193873	0.225224	-0.236114	0.111356	0.0683135	0.218998	-0.187972	0.15175	-0.202671	
5.58472	0	0	5.09359	-3.02566	0.094753	-0.112989	0.0452195	-0.111838	-0.0725922	-0.061873	0.0251122	-0.151423	-0.0306055	-0.0496243	-0.0190268	-0.241676	0.0721485	-0.0708225	-0.0449922	-0.348372	0.062181	-0.144303	0.082161	-0.146839	0.157973	-0.191511	0.219346	-0.234825	0.114643	0.0590222	0.220891	-0.193323	0.152664	-0.205256	
5.62591	0	0	6.73053	-4.0845	0.092904	-0.107764	0.046542	-0.115576	-0.071559	-0.064793	0.020937	-0.150793	-0.037127	-0.045363	-0.02189	-0.247365	0.073196	-0.073783	-0.053756	-0.352172	0.062181	-0.144303	0.082161	-0.146839	0.16161	-0.189149	0.213468	-0.233536	0.117931	0.049731	0.222784	-0.198674	0.153579	-0.20784	
5.67627	0	0	6.85812	-4.17505	0.094753	-0.112989	0.0418425	-0.118248	-0.0775627	-0.069842	0.01421	-0.165251	-0.0376568	-0.0721723	-0.023595	-0.256318	0.0733215	-0.085234	-0.057038	-0.357163	0.0585297	-0.143805	0.0788207	-0.148346	0.154701	-0.182264	0.221694	-0.241462	0.113399	0.0503125	0.217812	-0.197481	0.158846	-0.201341	
5.72967	0	0	6.98571	-4.26561	0.096602	-0.118215	0.037143	-0.12092	-0.0835665	-0.074891	0.007483	-0.179708	-0.0381865	-0.0989815	-0.0253	-0.265271	0.073447	-0.096685	-0.06032	-0.362154	0.0548785	-0.143307	0.0754805	-0.149852	0.147793	-0.17538	0.229921	-0.249389	0.108868	0.050894	0.21284	-0.196288	0.164113	-0.194843	
5.79376	0	0	7.1133	-4.35616	0.098451	-0.123441	0.0324435	-0.123593	-0.0895703	-0.07994	0.000756	-0.194166	-0.0387163	-0.125791	-0.027005	-0.274225	0.0735725	-0.108136	-0.063602	-0.367146	0.0512273	-0.14281	0.0721403	-0.151359	0.140885	-0.168496	0.238148	-0.257315	0.104336	0.0514755	0.207869	-0.195096	0.169381	-0.188344	
5.83954	0	0	7.24089	-4.44671	0.1003	-0.128666	0.027744	-0.126265	-0.095574	-0.084989	-0.005971	-0.208624	-0.039246	-0.1526	-0.02871	-0.283178	0.073698	-0.119587	-0.066884	-0.372137	0.047576	-0.142312	0.0688	-0.152866	0.133976	-0.161611	0.246374	-0.265242	0.099804	0.052057	0.202897	-0.193903	0.174648	-0.181845	
5.88989	0	0	6.77196	-4.1421	0.104994	-0.131733	0.0264228	-0.122531	-0.0924805	-0.0937318	-0.014615	-0.217604	-0.0467152	-0.159754	-0.0275528	-0.286449	0.0706843	-0.12216	-0.0734455	-0.367849	0.043927	-0.141815	0.06631	-0.156769	0.131434	-0.167058	0.241668	-0.267266	0.0951243	0.0408557	0.205734	-0.201921	0.174648	-0.181845	
5.92346	0	0	6.30302	-3.83748	0.109687	-0.1348	0.0251015	-0.118796	-0.089387	-0.102474	-0.023259	-0.226584	-0.0541845	-0.166909	-0.0263955	-0.28972	0.0676705	-0.124733	-0.080007	-0.363562	0.040278	-0.141319	0.06382	-0.160672	0.128891	-0.172506	0.236963	-0.26929	0.0904445	0.0296545	0.208571	-0.209939	0.174648	-0.181845	
5.96008	0	0	5.83409	-3.53286	0.11438	-0.137866	0.0237802	-0.115062	-0.0862935	-0.111217	-0.031903	-0.235564	-0.0616538	-0.174063	-0.0252383	-0.29299	0.0646567	-0.127307	-0.0865685	-0.359274	0.036629	-0.140822	0.06133	-0.164576	0.126349	-0.177954	0.232257	-0.271314	0.0857648	0.0184532	0.211408	-0.217957	0.174648	-0.181845	
5.99213	0	0	5.36515	-3.22824	0.119074	-0.140933	0.022459	-0.111328	-0.0832	-0.11996	-0.040547	-0.244544	-0.069123	-0.181217	-0.024081	-0.296261	0.061643	-0.12988	-0.09313	-0.354987	0.03298	-0.140325	0.05884	-0.168479	0.123807	-0.183401	0.227551	-0.273338	0.081085	0.007252	0.214245	-0.225975	0.174648	-0.181845	
6.02264	0	0	5.04984	-3.01144	0.120071	-0.133547	0.0171682	-0.0963752	-0.0862935	-0.111217	-0.0415077	-0.241828	-0.060268	-0.177979	-0.027554	-0.286445	0.0646567	-0.127307	-0.0942243	-0.351894	0.0385415	-0.136406	0.0562948	-0.161285	0.121626	-0.177238	0.227551	-0.273338	0.079837	-0.001422	0.209276	-0.224782	0.178657	-0.182475	
6.0318	0	0	4.73453	-2.79463	0.121067	-0.126162	0.0118775	-0.0814225	-0.089387	-0.102474	-0.0424685	-0.239113	-0.051413	-0.174741	-0.031027	-0.276629	0.0676705	-0.124733	-0.0953185	-0.348801	0.044103	-0.132487	0.0537495	-0.154092	0.119446	-0.171075	0.227551	-0.273338	0.078589	-0.010096	0.204307	-0.223588	0.182667	-0.183105	
6.03638	0	0	4.41923	-2.57783	0.122064	-0.118776	0.00658675	-0.0664697	-0.0924805	-0.0937318	-0.0434293	-0.236397	-0.042558	-0.171503	-0.0345	-0.266814	0.0706843	-0.12216	-0.0964127	-0.345709	0.0496645	-0.128568	0.0512042	-0.146898	0.117265	-0.164911	0.227551	-0.273338	0.077341	-0.01877	0.199338	-0.222394	0.186676	-0.183735	
6.04706	0	0	4.10392	-2.36102	0.123061	-0.11139	0.001296	-0.051517	-0.095574	-0.084989	-0.04439	-0.233681	-0.033703	-0.168265	-0.037973	-0.256998	0.073698	-0.119587	-0.097507	-0.342616	0.055226	-0.124649	0.048659	-0.139705	0.115084	-0.158748	0.227551	-0.273338	0.076093	-0.027444	0.194369	-0.221201	0.190685	-0.184365	
6.0318	0	0	3.86242	-2.20323	0.118365	-0.108322	-0.001353	-0.044031	-0.0975425	-0.090424	-0.0495095	-0.230336	-0.0443685	-0.15226	-0.0362715	-0.248035	0.0746197	-0.111095	-0.094231	-0.337618	0.0536558	-0.110385	0.045262	-0.130105	0.120164	-0.147833	0.225204	-0.266706	0.0784335	-0.0218575	0.197447	-0.21705	0.191947	-0.177225	
6.01349	0	0	3.62093	-2.04543	0.113669	-0.105253	-0.004002	-0.036545	-0.099511	-0.095859	-0.054629	-0.226991	-0.055034	-0.136255	-0.03457	-0.239073	0.0755415	-0.102604	-0.090955	-0.33262	0.0520855	-0.096121	0.041865	-0.120505	0.125245	-0.136918	0.222857	-0.260073	0.080774	-0.016271	0.200525	-0.212899	0.193209	-0.170085	
5.98907	0	0	3.37944	-1.88763	0.108973	-0.102184	-0.006651	-0.029059	-0.10148	-0.101294	-0.0597485	-0.223646	-0.0656995	-0.12025	-0.0328685	-0.23011	0.0764632	-0.0941125	-0.087679	-0.327623	0.0505152	-0.081857	0.038468	-0.110904	0.130325	-0.126003	0.220511	-0.253441	0.0831145	-0.0106845	0.203603	-0.208748	0.194472	-0.162945	
5.95703	0	0	3.13794	-1.72984	0.104277	-0.099116	-0.0093	-0.021573	-0.103448	-0.106729	-0.064868	-0.220301	-0.076365	-0.104245	-0.031167	-0.221147	0.077385	-0.085621	-0.084403	-0.322625	0.048945	-0.067593	0.035071	-0.101304	0.135405	-0.115088	0.218164	-0.246808	0.085455	-0.005098	0.206681	-0.204597	0.195734	-0.155805	
5.92804	0	0	2.95553	-1.61244	0.105202	-0.101731	-0.00460825	-0.0188787	-0.103448	-0.106729	-0.0712557	-0.224474	-0.0800935	-0.107834	-0.031167	-0.221147	0.0793525	-0.0800785	-0.084403	-0.322625	0.0599123	-0.0690777	0.0325867	-0.105217	0.131772	-0.117462	0.21699	-0.24349	0.0742272	0.0022385	0.199821	-0.198059	0.194817	-0.153213	
5.89447	0	0	2.77313	-1.49505	0.106127	-0.104346	8.35E-05	-0.0161845	-0.103448	-0.106729	-0.0776435	-0.228648	-0.083822	-0.111423	-0.031167	-0.221147	0.08132	-0.074536	-0.084403	-0.322625	0.0708795	-0.0705625	0.0301025	-0.10913	0.12814	-0.119837	0.215816	-0.240172	0.0629995	0.009575	0.192961	-0.191521	0.1939	-0.150621	
5.85937	0	0	2.59072	-1.37766	0.107053	-0.10696	0.00477525	-0.0134902	-0.103448	-0.106729	-0.0840313	-0.232822	-0.0875505	-0.115012	-0.031167	-0.221147	0.0832875	-0.0689935	-0.084403	-0.322625	0.0818467	-0.0720473	0.0276183	-0.113043	0.124507	-0.122212	0.214642	-0.236854	0.0517717	0.0169115	0.1861	-0.184983	0.192983	-0.148029	
5.82275	0	0	2.40831	-1.26027	0.107978	-0.109575	0.009467	-0.010796	-0.103448	-0.106729	-0.090419	-0.236995	-0.091279	-0.118601	-0.031167	-0.221147	0.085255	-0.063451	-0.084403	-0.322625	0.092814	-0.073532	0.025134	-0.116956	0.120875	-0.124586	0.213468	-0.233536	0.040544	0.024248	0.17924	-0.178445	0.192066	-0.145437	
5.79376	0	0	2.2671	-1.16261	0.109898	-0.104797	0.0115073	-0.00059475	-0.0974462	-0.101688	-0.0945695	-0.236368	-0.0875505	-0.115012	-0.031167	-0.221147	0.09024	-0.0553127	-0.0964253	-0.31715	0.094729	-0.0690975	0.025134	-0.116956	0.121967	-0.127672	0.207595	-0.232249	0.0360277	0.0248263	0.17333	-0.174584	0.187138	-0.142217	
5.76324	0	0	2.1259	-1.06495	0.111817	-0.100019	0.0135475	0.0096065	-0.0914445	-0.096646	-0.09872	-0.235741	-0.083822	-0.111423	-0.031167	-0.221147	0.095225	-0.0471745	-0.108448	-0.311674	0.096644	-0.064663	0.025134	-0.116956	0.123059	-0.130759	0.201722	-0.230963	0.0315115	0.0254045	0.16742	-0.170722	0.182209	-0.138997	
5.7373	0	0	1.98469	-0.967289	0.113736	-0.095241	0.0155878	0.0198077	-0.0854427	-0.0916045	-0.102871	-0.235115	-0.0800935	-0.107834	-0.031167	-0.221147	0.10021	-0.0390362	-0.12047	-0.306199	0.098559	-0.0602285	0.025134	-0.116956	0.124151	-0.133846	0.195849	-0.229677	0.0269952	0.0259827	0.16151	-0.16686	0.177281	-0.135776	
5.71594	0	0	1.84349	-0.869629	0.115656	-0.090463	0.017628	0.030009	-0.079441	-0.086563	-0.107021	-0.234488	-0.076365	-0.104245	-0.031167	-0.221147	0.105195	-0.030898	-0.132492	-0.300724	0.100474	-0.055794	0.025134	-0.116956	0.125243	-0.136932	0.189976	-0.22839	0.022479	0.026561	0.1556	-0.162999	0.172353	-0.132556	
5.6961	0	0	1.73967	-0.796397	0.112877	-0.0826095	0.00629175	0.0460798	-0.0835718	-0.074889	-0.106713	-0.224257	-0.073072	-0.0852665	-0.0375053	-0.217006	0.108079	-0.0167972	-0.137948	-0.299538	0.104305	-0.0469113	0.0217362	-0.107353	0.130324	-0.126003	0.189976	-0.22839	0.0237167	0.0352485	0.160564	-0.164187	0.176364	-0.133184	
5.67779	0	0	1.63586	-0.723166	0.110098	-0.074756	-0.0050445	0.0621505	-0.0877025	-0.063215	-0.106404	-0.214026	-0.069779	-0.066288	-0.0438435	-0.212864	0.110964	-0.0026965	-0.143404	-0.298353	0.108136	-0.0380285	0.0183385	-0.0977505	0.135406	-0.115074	0.189976	-0.22839	0.0249545	0.043936	0.165527	-0.165374	0.180374	-0.133811	
5.66711	0	0	1.53204	-0.649934	0.10732	-0.0669025	-0.0163807	0.0782213	-0.0918332	-0.051541	-0.106096	-0.203794	-0.066486	-0.0473095	-0.0501817	-0.208723	0.113849	0.0114043	-0.148861	-0.297167	0.111967	-0.0291457	0.0149407	-0.0881477	0.140487	-0.104145	0.189976	-0.22839	0.0261923	0.0526235	0.170491	-0.166562	0.184385	-0.134438	
5.65033	0	0	1.42823	-0.576703	0.104541	-0.059049	-0.027717	0.094292	-0.095964	-0.039867	-0.105787	-0.193563	-0.063193	-0.028331	-0.05652	-0.204581	0.116733	0.025505	-0.154317	-0.295981	0.115798	-0.020263	0.011543	-0.078545	0.145568	-0.093216	0.189976	-0.22839	0.02743	0.061311	0.175455	-0.167749	0.188396	-0.135066	
5.6427	0	0	1.34634	-0.530391	0.10732	-0.0669025	-0.027717	0.094292	-0.0969975	-0.036946	-0.112162	-0.197745	-0.065533	-0.0358658	-0.0593755	-0.210273	0.115681	0.0284792	-0.158674	-0.29789	0.113174	-0.0128485	0.00651375	-0.0752587	0.135367	-0.077034	0.186453	-0.218432	0.0309945	0.075632	0.17072	-0.154366	0.184724	-0.124688	
5.64422	0	0	1.26445	-0.484079	0.110098	-0.074756	-0.027717	0.094292	-0.098031	-0.034025	-0.118538	-0.201927	-0.067873	-0.0434005	-0.062231	-0.215964	0.114628	0.0314535	-0.163031	-0.299799	0.110551	-0.005434	0.0014845	-0.0719725	0.125165	-0.060852	0.18293	-0.208475	0.034559	0.089953	0.165984	-0.140983	0.181052	-0.114309	
5.6488	0	0	1.18257	-0.437767	0.112877	-0.0826095	-0.027717	0.094292	-0.0990645	-0.031104	-0.124913	-0.206108	-0.070213	-0.0509353	-0.0650865	-0.221656	0.113575	0.0344278	-0.167389	-0.301709	0.107927	0.0019805	-0.00354475	-0.0686863	0.114963	-0.04467	0.179406	-0.198517	0.0381235	0.104274	0.161249	-0.127599	0.177379	-0.103931	
5.66101	0	0	1.10068	-0.391455	0.115656	-0.090463	-0.027717	0.094292	-0.100098	-0.028183	-0.131289	-0.21029	-0.072553	-0.05847	-0.067942	-0.227347	0.112523	0.037402	-0.171746	-0.303618	0.105304	0.009395	-0.008574	-0.0654	0.104762	-0.028488	0.175883	-0.188559	0.041688	0.118595	0.156514	-0.114216	0.173707	-0.093553	
5.67779	0	0	1.04022	-0.35015	0.105341	-0.0817107	-0.0317095	0.105575	-0.0991675	-0.0198015	-0.130329	-0.213002	-0.0739428	-0.054542	-0.071954	-0.229759	0.114489	0.042982	-0.1761	-0.305526	0.104429	0.0118677	-0.0127505	-0.0645172	0.10004	-0.0277827	0.177058	-0.19188	0.042784	0.115498	0.158409	-0.119572	0.169698	-0.0929285	
5.69153	0	0	0.979754	-0.308844	0.0950255	-0.0729585	-0.035702	0.116858	-0.098237	-0.01142	-0.129369	-0.215715	-0.0753325	-0.050614	-0.075966	-0.232171	0.116455	0.048562	-0.180453	-0.307434	0.103554	0.0143405	-0.016927	-0.0636345	0.0953175	-0.0270775	0.178233	-0.1952	0.04388	0.112401	0.160304	-0.124927	0.165688	-0.092304	
5.70526	0	0	0.919292	-0.267539	0.0847103	-0.0642063	-0.0396945	0.128141	-0.0973065	-0.0030385	-0.12841	-0.218427	-0.0767223	-0.046686	-0.079978	-0.234583	0.118421	0.054142	-0.184807	-0.309342	0.102679	0.0168133	-0.0211035	-0.0627517	0.0905953	-0.0263722	0.179407	-0.19852	0.044976	0.109303	0.162199	-0.130283	0.161679	-0.0916795	
5.70831	0	0	0.85883	-0.226234	0.074395	-0.055454	-0.043687	0.139424	-0.096376	0.005343	-0.12745	-0.221139	-0.078112	-0.042758	-0.08399	-0.236995	0.120387	0.059722	-0.189161	-0.31125	0.101804	0.019286	-0.02528	-0.061869	0.085873	-0.025667	0.180582	-0.201841	0.046072	0.106206	0.164094	-0.135639	0.157669	-0.091055	
5.70984	0	0	0.815162	-0.188703	0.0744542	-0.045424	-0.0476845	0.150722	-0.101556	0.0199808	-0.129067	-0.205472	-0.0748308	-0.0237255	-0.08399	-0.236995	0.116169	0.0716415	-0.189161	-0.31125	0.100929	0.0217595	-0.0228038	-0.0579465	0.0894995	-0.0232752	0.186454	-0.203125	0.0438798	0.112401	0.162199	-0.130283	0.158587	-0.09365	
5.70679	0	0	0.771494	-0.151172	0.0745135	-0.035394	-0.051682	0.162019	-0.106735	0.0346185	-0.130684	-0.189805	-0.0715495	-0.004693	-0.08399	-0.236995	0.111952	0.083561	-0.189161	-0.31125	0.100054	0.024233	-0.0203275	-0.054024	0.093126	-0.0208835	0.192326	-0.204409	0.0416875	0.118596	0.160304	-0.124927	0.159505	-0.096245	
5.69763	0	0	0.727825	-0.113641	0.0745728	-0.025364	-0.0556795	0.173316	-0.111915	0.0492563	-0.132301	-0.174138	-0.0682683	0.0143395	-0.08399	-0.236995	0.107734	0.0954805	-0.189161	-0.31125	0.0991782	0.0267065	-0.0178512	-0.0501015	0.0967525	-0.0184918	0.198198	-0.205693	0.0394953	0.124792	0.158409	-0.119572	0.160423	-0.09884	
5.69153	0	0	0.684157	-0.07611	0.074632	-0.015334	-0.059677	0.184614	-0.117094	0.063894	-0.133918	-0.158471	-0.064987	0.033372	-0.08399	-0.236995	0.103517	0.1074	-0.189161	-0.31125	0.098303	0.02918	-0.015375	-0.046179	0.100379	-0.0161	0.20407	-0.206977	0.037303	0.130987	0.156514	-0.114216	0.161341	-0.101435	
5.67627	0	0	0.641563	-0.0518783	0.07272	-0.0201275	-0.0756895	0.197974	-0.122162	0.0672055	-0.139025	-0.155134	-0.0766208	0.0379447	-0.0891565	-0.236135	0.0983915	0.110749	-0.190255	-0.30816	0.090982	0.030161	-0.0204015	-0.0428947	0.0923682	-0.006101	0.200543	-0.197008	0.0374355	0.142822	0.155566	-0.111537	0.165351	-0.10206	
5.66101	0	0	0.598969	-0.0276465	0.070808	-0.024921	-0.091702	0.211335	-0.12723	0.070517	-0.144132	-0.151797	-0.0882545	0.0425175	-0.094323	-0.235274	0.093266	0.114098	-0.191349	-0.305069	0.083661	0.031142	-0.025428	-0.0396105	0.0843575	0.003898	0.197015	-0.187039	0.037568	0.154658	0.154618	-0.108858	0.169361	-0.102685	
5.64728	0	0	0.556374	-0.00341475	0.068896	-0.0297145	-0.107714	0.224695	-0.132298	0.0738285	-0.14924	-0.14846	-0.0998882	0.0470903	-0.0994895	-0.234413	0.0881405	0.117447	-0.192442	-0.301978	0.07634	0.032123	-0.0304545	-0.0363263	0.0763467	0.013897	0.193487	-0.17707	0.0377005	0.166493	0.15367	-0.106179	0.173371	-0.10331	
5.63507	0	0	0.51378	0.020817	0.066984	-0.034508	-0.123727	0.238056	-0.137366	0.07714	-0.154347	-0.145123	-0.111522	0.051663	-0.104656	-0.233553	0.083015	0.120796	-0.193536	-0.298888	0.069019	0.033104	-0.035481	-0.033042	0.068336	0.023896	0.18996	-0.167101	0.037833	0.178329	0.152722	-0.1035	0.177381	-0.103935	
5.61523	0	0	0.490123	0.034476	0.062293	-0.031443	-0.131057	0.242845	-0.137366	0.07714	-0.154347	-0.145123	-0.116635	0.051976	-0.104656	-0.233553	0.080002	0.118181	-0.193536	-0.298888	0.0634545	0.0291407	-0.0346308	-0.0354448	0.0610967	0.0191005	0.184089	-0.165821	0.0355067	0.172693	0.156512	-0.114211	0.170282	-0.105279	
5.59997	0	0	0.466465	0.048135	0.057602	-0.028378	-0.138387	0.247635	-0.137366	0.07714	-0.154347	-0.145123	-0.121748	0.052289	-0.104656	-0.233553	0.076989	0.115567	-0.193536	-0.298888	0.05789	0.0251775	-0.0337805	-0.0378475	0.0538575	0.014305	0.178219	-0.16454	0.0331805	0.167057	0.160302	-0.124922	0.163182	-0.106624	
5.58472	0	0	0.442808	0.061794	0.052911	-0.025313	-0.145717	0.252424	-0.137366	0.07714	-0.154347	-0.145123	-0.126861	0.052602	-0.104656	-0.233553	0.073976	0.112953	-0.193536	-0.298888	0.0523255	0.0212143	-0.0329302	-0.0402503	0.0466182	0.0095095	0.172348	-0.16326	0.0308542	0.161422	0.164092	-0.135634	0.156083	-0.107968	
5.56793	0	0	0.41915	0.075453	0.04822	-0.022248	-0.153047	0.257214	-0.137366	0.07714	-0.154347	-0.145123	-0.131974	0.052915	-0.104656	-0.233553	0.070963	0.110338	-0.193536	-0.298888	0.046761	0.017251	-0.03208	-0.042653	0.039379	0.004714	0.166478	-0.161979	0.028528	0.155786	0.167882	-0.146345	0.148983	-0.109312	
5.55267	0	0	0.397955	0.0929015	0.051057	-0.0200738	-0.157051	0.268531	-0.140478	0.0859343	-0.154052	-0.134861	-0.131046	0.0644277	-0.100648	-0.23114	0.0668978	0.110704	-0.189183	-0.296978	0.043981	0.0152713	-0.038804	-0.0345643	0.035763	0.00231875	0.167654	-0.165302	0.0262022	0.150157	0.162919	-0.145159	0.15666	-0.120306	
5.53894	0	0	0.37676	0.11035	0.053894	-0.0178995	-0.161055	0.279847	-0.143589	0.0947285	-0.153757	-0.124599	-0.130117	0.0759405	-0.0966395	-0.228728	0.0628325	0.11107	-0.18483	-0.295067	0.041201	0.0132915	-0.045528	-0.0264755	0.032147	-7.65E-05	0.168829	-0.168626	0.0238765	0.144529	0.157955	-0.143974	0.164336	-0.131301	
5.52673	0	0	0.355565	0.127798	0.056731	-0.0157252	-0.165059	0.291164	-0.146701	0.103523	-0.153461	-0.114337	-0.129189	0.0874532	-0.0926312	-0.226316	0.0587673	0.111435	-0.180477	-0.293156	0.038421	0.0113117	-0.052252	-0.0183868	0.028531	-0.00247175	0.170005	-0.171949	0.0215508	0.138901	0.152992	-0.142788	0.172012	-0.142295	
5.52215	0	0	0.33437	0.145247	0.059568	-0.013551	-0.169063	0.30248	-0.149813	0.112317	-0.153166	-0.104075	-0.12826	0.098966	-0.088623	-0.223903	0.054702	0.111801	-0.176124	-0.291246	0.035641	0.009332	-0.058976	-0.010298	0.024915	-0.004867	0.171181	-0.175272	0.019225	0.133272	0.148029	-0.141602	0.179689	-0.153289	
5.51605	0	0	0.314149	0.149465	0.0529695	-0.0152805	-0.182369	0.308273	-0.155791	0.107211	-0.163378	-0.0974025	-0.141268	0.107466	-0.093789	-0.223044	0.0425227	0.112893	-0.181571	-0.290065	0.0292127	0.00784175	-0.058976	-0.010298	0.0238203	-0.001773	0.171181	-0.175272	0.0237445	0.132701	0.142123	-0.137743	0.17568	-0.152661	
5.52368	0	0	0.293929	0.153682	0.046371	-0.01701	-0.195675	0.314066	-0.16177	0.102104	-0.173589	-0.09073	-0.154277	0.115966	-0.098955	-0.222184	0.0303435	0.113984	-0.187018	-0.288884	0.0227845	0.0063515	-0.058976	-0.010298	0.0227255	0.001321	0.171181	-0.175272	0.028264	0.13213	0.136217	-0.133883	0.171672	-0.152033	
5.52521	0	0	0.273709	0.1579	0.0397725	-0.0187395	-0.208981	0.319859	-0.167748	0.0969975	-0.1838	-0.0840575	-0.167285	0.124466	-0.104121	-0.221324	0.0181642	0.115075	-0.192465	-0.287702	0.0163562	0.00486125	-0.058976	-0.010298	0.0216307	0.004415	0.171181	-0.175272	0.0327835	0.131558	0.130312	-0.130024	0.167663	-0.151406	
5.53131	0	0	0.253488	0.162118	0.033174	-0.020469	-0.222287	0.325652	-0.173727	0.091891	-0.194012	-0.077385	-0.180293	0.132966	-0.109287	-0.220465	0.005985	0.116167	-0.197912	-0.286521	0.009928	0.003371	-0.058976	-0.010298	0.020536	0.007509	0.171181	-0.175272	0.037303	0.130987	0.124406	-0.126165	0.163655	-0.150778	
5.53589	0	0	0.242213	0.162298	0.0350263	-0.0257038	-0.219618	0.318109	-0.176714	0.0893405	-0.194301	-0.087651	-0.187704	0.125689	-0.112135	-0.226148	0.002085	0.105002	-0.200074	-0.29461	0.0052505	-0.00304675	-0.060596	-0.016628	0.0144057	-0.00037025	0.168839	-0.183951	0.030458	0.125937	0.123234	-0.135676	0.162396	-0.157916	
5.54199	0	0	0.230937	0.162478	0.0368785	-0.0309385	-0.21695	0.310567	-0.179701	0.08679	-0.19459	-0.097917	-0.195114	0.118411	-0.114982	-0.23183	-0.001815	0.0938365	-0.202237	-0.3027	0.000573	-0.0094645	-0.062216	-0.022958	0.0082755	-0.0082495	0.166496	-0.19263	0.023613	0.120887	0.122062	-0.145186	0.161137	-0.165053	
5.54352	0	0	0.219662	0.162658	0.0387308	-0.0361733	-0.214281	0.303025	-0.182688	0.0842395	-0.194879	-0.108183	-0.202524	0.111133	-0.11783	-0.237513	-0.005715	0.0826713	-0.2044	-0.31079	-0.0041045	-0.0158823	-0.063836	-0.029288	0.00214525	-0.0161288	0.164154	-0.201308	0.016768	0.115838	0.120889	-0.154697	0.159879	-0.172191	
5.54199	0	0	0.208387	0.162838	0.040583	-0.041408	-0.211612	0.295482	-0.185675	0.081689	-0.195168	-0.118449	-0.209935	0.103856	-0.120678	-0.243196	-0.009615	0.071506	-0.206562	-0.318879	-0.008782	-0.0223	-0.065456	-0.035618	-0.003985	-0.024008	0.161812	-0.209987	0.009923	0.110788	0.119717	-0.164208	0.15862	-0.179329	
5.54199	0	0	0.197852	0.171518	0.0378042	-0.0335545	-0.220257	0.30403	-0.187747	0.0875452	-0.197092	-0.113012	-0.211329	0.107795	-0.12468	-0.245605	-0.012615	0.0689015	-0.210909	-0.320785	-0.0132973	-0.0193495	-0.065456	-0.035618	-0.00179975	-0.030184	0.158297	-0.215337	0.012112	0.104601	0.129398	-0.178744	0.155531	-0.181287	
5.53894	0	0	0.187317	0.180198	0.0350255	-0.025701	-0.228903	0.312578	-0.189819	0.0934015	-0.199016	-0.107575	-0.212722	0.111733	-0.128683	-0.248014	-0.015615	0.066297	-0.215256	-0.322692	-0.0178125	-0.016399	-0.065456	-0.035618	0.0003855	-0.03636	0.154781	-0.220687	0.014301	0.0984145	0.139078	-0.193279	0.152441	-0.183245	
5.54657	0	0	0.176782	0.188878	0.0322468	-0.0178475	-0.237548	0.321125	-0.191891	0.0992578	-0.20094	-0.102138	-0.214116	0.115671	-0.132685	-0.250424	-0.018615	0.0636925	-0.219603	-0.324598	-0.0223278	-0.0134485	-0.065456	-0.035618	0.00257075	-0.042536	0.151265	-0.226037	0.01649	0.0922277	0.148759	-0.207815	0.149351	-0.185203	
5.54199	0	0	0.166247	0.197558	0.029468	-0.009994	-0.246193	0.329673	-0.193963	0.105114	-0.202864	-0.096701	-0.215509	0.11961	-0.136687	-0.252833	-0.021615	0.061088	-0.22395	-0.326504	-0.026843	-0.010498	-0.065456	-0.035618	0.004756	-0.048712	0.14775	-0.231387	0.018679	0.086041	0.15844	-0.222351	0.146262	-0.187161	
5.54657	0	0	0.155836	0.195385	0.026635	-0.0121687	-0.248165	0.319373	-0.202	0.105863	-0.208924	-0.0906498	-0.219694	0.131436	-0.140686	-0.25524	-0.0246135	0.0584853	-0.229385	-0.325325	-0.0231992	-0.0109853	-0.065456	-0.035618	0.002899	-0.0308657	0.148922	-0.2347	0.0199115	0.0947518	0.151594	-0.215826	0.150267	-0.18779	
5.54352	0	0	0.145426	0.193211	0.023802	-0.0143435	-0.250136	0.309074	-0.210037	0.106612	-0.214985	-0.0845985	-0.223878	0.143262	-0.144686	-0.257647	-0.027612	0.0558825	-0.23482	-0.324145	-0.0195555	-0.0114725	-0.065456	-0.035618	0.001042	-0.0130195	0.150094	-0.238013	0.021144	0.103463	0.144748	-0.209301	0.154272	-0.188418	
5.54199	0	0	0.135016	0.191037	0.020969	-0.0165183	-0.252108	0.298774	-0.218074	0.107362	-0.221046	-0.0785472	-0.228063	0.155088	-0.148685	-0.260055	-0.0306105	0.0532798	-0.240254	-0.322966	-0.0159117	-0.0119597	-0.065456	-0.035618	-0.000815	0.00482675	0.151267	-0.241326	0.0223765	0.112173	0.137901	-0.202776	0.158276	-0.189047	
5.53894	0	0	0.124605	0.188864	0.018136	-0.018693	-0.25408	0.288475	-0.226111	0.108111	-0.227106	-0.072496	-0.232247	0.166914	-0.152685	-0.262462	-0.033609	0.050677	-0.245689	-0.321787	-0.012268	-0.012447	-0.065456	-0.035618	-0.002672	0.022673	0.152439	-0.244639	0.023609	0.120884	0.131055	-0.196251	0.162281	-0.189676	
5.53436	0	0	0.112564	0.191352	0.0199877	-0.0239263	-0.267339	0.294245	-0.22909	0.105558	-0.229315	-0.077324	-0.23455	0.159327	-0.155528	-0.268129	-0.0355572	0.0451125	-0.248937	-0.326775	-0.0159117	-0.0119597	-0.062059	-0.0452183	0.000611	0.0133945	0.147753	-0.246669	0.022513	0.123981	0.127046	-0.197734	0.157361	-0.186462	
5.52368	0	0	0.100522	0.193839	0.0218395	-0.0291595	-0.280599	0.300015	-0.232069	0.103006	-0.231523	-0.082152	-0.236852	0.151739	-0.15837	-0.273795	-0.0375055	0.039548	-0.252186	-0.331764	-0.0195555	-0.0114725	-0.058662	-0.0548185	0.003894	0.004116	0.143066	-0.248698	0.021417	0.127078	0.123036	-0.199217	0.152442	-0.183247	
5.51453	0	0	0.0884812	0.196327	0.0236913	-0.0343927	-0.293859	0.305786	-0.235049	0.100454	-0.233732	-0.08698	-0.239154	0.144152	-0.161213	-0.279462	-0.0394538	0.0339835	-0.255435	-0.336753	-0.0231992	-0.0109853	-0.055265	-0.0644187	0.007177	-0.0051625	0.13838	-0.250727	0.020321	0.130175	0.119026	-0.200699	0.147522	-0.180033	
5.50232	0	0	0.07644	0.198815	0.025543	-0.039626	-0.307118	0.311556	-0.238028	0.097901	-0.235941	-0.091808	-0.241457	0.136565	-0.164056	-0.285129	-0.041402	0.028419	-0.258683	-0.341741	-0.026843	-0.010498	-0.051868	-0.074019	0.01046	-0.014441	0.133694	-0.252757	0.019225	0.133272	0.115017	-0.202182	0.142602	-0.176818	
5.49469	0	0	0.0756147	0.201147	0.0274507	-0.0348367	-0.298494	0.303028	-0.235049	0.100454	-0.231808	-0.092419	-0.236364	0.136266	-0.162903	-0.288389	-0.0403538	0.0254565	-0.257593	-0.344822	-0.0277147	-0.00803475	-0.0510195	-0.0764173	0.009366	-0.0113492	0.134865	-0.256066	0.0181287	0.13637	0.115961	-0.204849	0.142602	-0.176818	
5.4779	0	0	0.0747895	0.203479	0.0293585	-0.0300475	-0.28987	0.2945	-0.232069	0.103006	-0.227675	-0.09303	-0.231272	0.135968	-0.161749	-0.291649	-0.0393055	0.022494	-0.256502	-0.347904	-0.0285865	-0.0055715	-0.050171	-0.0788155	0.008272	-0.0082575	0.136036	-0.259376	0.0170325	0.139468	0.116904	-0.207516	0.142602	-0.176818	
5.4657	0	0	0.0739642	0.205812	0.0312663	-0.0252583	-0.281246	0.285973	-0.22909	0.105558	-0.223541	-0.093641	-0.226179	0.135669	-0.160596	-0.294909	-0.0382572	0.0195315	-0.255412	-0.350985	-0.0294582	-0.00310825	-0.0493225	-0.0812138	0.007178	-0.00516575	0.137207	-0.262686	0.0159362	0.142567	0.117848	-0.210183	0.142602	-0.176818	
5.45349	0	0	0.073139	0.208144	0.033174	-0.020469	-0.272622	0.277445	-0.226111	0.108111	-0.219408	-0.094252	-0.221086	0.135371	-0.159442	-0.298169	-0.037209	0.016569	-0.254322	-0.354066	-0.03033	-0.000645	-0.048474	-0.083612	0.006084	-0.002074	0.138378	-0.265995	0.01484	0.145665	0.118792	-0.21285	0.142602	-0.176818	
5.44128	0	0	0.0651247	0.209795	0.033174	-0.020469	-0.278584	0.278449	-0.230126	0.108484	-0.222295	-0.0860925	-0.221575	0.150857	-0.159442	-0.298169	-0.0382572	0.0195315	-0.255412	-0.350985	-0.0247855	0.0033125	-0.05187	-0.0740145	0.0100235	0.0120138	0.143065	-0.263968	0.0216863	0.150727	0.121858	-0.2087	0.148782	-0.172898	
5.4245	0	0	0.0571105	0.211447	0.033174	-0.020469	-0.284546	0.279453	-0.23414	0.108857	-0.225183	-0.077933	-0.222063	0.166342	-0.159442	-0.298169	-0.0393055	0.022494	-0.256502	-0.347904	-0.019241	0.00727	-0.055266	-0.064417	0.013963	0.0261015	0.147752	-0.261941	0.0285325	0.155789	0.124923	-0.204551	0.154961	-0.168977	
5.41382	0	0	0.0490963	0.213098	0.033174	-0.020469	-0.290508	0.280457	-0.238154	0.109231	-0.22807	-0.0697735	-0.222551	0.181827	-0.159442	-0.298169	-0.0403538	0.0254565	-0.257593	-0.344822	-0.0136965	0.0112275	-0.058662	-0.0548195	0.0179025	0.0401893	0.152439	-0.259914	0.0353788	0.160852	0.127989	-0.200401	0.16114	-0.165056	
5.40161	0	0	0.041082	0.21475	0.033174	-0.020469	-0.29647	0.281461	-0.242169	0.109604	-0.230957	-0.061614	-0.22304	0.197313	-0.159442	-0.298169	-0.041402	0.028419	-0.258683	-0.341741	-0.008152	0.015185	-0.062058	-0.045222	0.021842	0.054277	0.157126	-0.257887	0.042225	0.165914	0.131055	-0.196251	0.16732	-0.161136	
5.39093	0	0	0.0427312	0.210089	0.0350263	-0.0257038	-0.29381	0.273944	-0.240099	0.103753	-0.23192	-0.0588925	-0.221643	0.193364	-0.15429	-0.299029	-0.041402	0.028419	-0.255435	-0.336753	-0.0072795	0.012719	-0.0612085	-0.0476222	0.0240348	0.0480795	0.155954	-0.254575	0.03331	0.1789	0.125157	-0.192397	0.161481	-0.15533	
5.3772	0	0	0.0443805	0.205427	0.0368785	-0.0309385	-0.29115	0.266427	-0.238029	0.097903	-0.232883	-0.056171	-0.220245	0.189415	-0.149138	-0.29989	-0.041402	0.028419	-0.252186	-0.331764	-0.006407	0.010253	-0.060359	-0.0500225	0.0262275	0.041882	0.154782	-0.251263	0.024395	0.191886	0.11926	-0.188544	0.155643	-0.149524	
5.36651	0	0	0.0460298	0.200766	0.0387308	-0.0361733	-0.28849	0.258909	-0.235958	0.0920525	-0.233846	-0.0534495	-0.218848	0.185466	-0.143985	-0.30075	-0.041402	0.028419	-0.248937	-0.326775	-0.0055345	0.007787	-0.0595095	-0.0524227	0.0284203	0.0356845	0.153611	-0.247951	0.01548	0.204872	0.113362	-0.18469	0.149804	-0.143718	
5.35736	0	0	0.047679	0.196105	0.040583	-0.041408	-0.28583	0.251392	-0.233888	0.086202	-0.234809	-0.050728	-0.217451	0.181517	-0.138833	-0.30161	-0.041402	0.028419	-0.245689	-0.321787	-0.004662	0.005321	-0.05866	-0.054823	0.030613	0.029487	0.152439	-0.244639	0.006565	0.217858	0.107464	-0.180836	0.143965	-0.137912	
5.3482	0	0	0.0500357	0.199941	0.043419	-0.0392365	-0.279867	0.250385	-0.229873	0.085827	-0.231637	-0.0486138	-0.212351	0.181221	-0.139987	-0.298349	-0.0424505	0.0313828	-0.238071	-0.329136	-0.00378975	0.00285575	-0.0536395	-0.0581035	0.030613	0.029487	0.152439	-0.244639	0.0110852	0.217293	0.112417	-0.18202	0.143048	-0.135322	
5.33905	0	0	0.0523925	0.203777	0.046255	-0.037065	-0.273904	0.249378	-0.225858	0.085452	-0.228466	-0.0464995	-0.207252	0.180925	-0.141141	-0.295088	-0.043499	0.0343465	-0.230453	-0.336485	-0.0029175	0.0003905	-0.048619	-0.061384	0.030613	0.029487	0.152439	-0.244639	0.0156055	0.216728	0.117371	-0.183204	0.142132	-0.132731	
5.32989	0	0	0.0547492	0.207613	0.049091	-0.0348935	-0.267941	0.24837	-0.221843	0.085077	-0.225294	-0.0443853	-0.202153	0.180629	-0.142295	-0.291826	-0.0445475	0.0373102	-0.222836	-0.343834	-0.00204525	-0.00207475	-0.0435985	-0.0646645	0.030613	0.029487	0.152439	-0.244639	0.0201257	0.216163	0.122324	-0.184389	0.141215	-0.13014	
5.32532	0	0	0.057106	0.211449	0.051927	-0.032722	-0.261978	0.247363	-0.217828	0.084702	-0.222123	-0.042271	-0.197053	0.180333	-0.143449	-0.288565	-0.045596	0.040274	-0.215218	-0.351183	-0.001173	-0.00454	-0.038578	-0.067945	0.030613	0.029487	0.152439	-0.244639	0.024646	0.215598	0.127277	-0.185573	0.140298	-0.12755	
5.31921	0	0	0.052275	0.214606	0.0434792	-0.0292148	-0.261978	0.247363	-0.222878	0.0880018	-0.222809	-0.0292478	-0.198948	0.199815	-0.144603	-0.285303	-0.0425992	0.0428747	-0.214127	-0.354266	-0.00204525	-0.00207475	-0.0369535	-0.061622	0.0367515	0.0373935	0.151267	-0.241326	0.0371252	0.217006	0.130344	-0.181416	0.143387	-0.125583	
5.31006	0	0	0.047444	0.217762	0.0350315	-0.0257075	-0.261978	0.247363	-0.227928	0.0913015	-0.223496	-0.0162245	-0.200843	0.219297	-0.145757	-0.282041	-0.0396025	0.0454755	-0.213036	-0.357349	-0.0029175	0.0003905	-0.035329	-0.055299	0.04289	0.0453	0.150094	-0.238013	0.0496045	0.218414	0.13341	-0.17726	0.146475	-0.123616	
5.30701	0	0	0.042613	0.220918	0.0265837	-0.0222003	-0.261978	0.247363	-0.232978	0.0946012	-0.224183	-0.00320125	-0.202738	0.238779	-0.146912	-0.278778	-0.0366057	0.0480763	-0.211945	-0.360432	-0.00378975	0.00285575	-0.0337045	-0.048976	0.0490285	0.0532065	0.148922	-0.2347	0.0620838	0.219822	0.136477	-0.173104	0.149564	-0.12165	
5.30548	0	0	0.037782	0.224075	0.018136	-0.018693	-0.261978	0.247363	-0.238028	0.097901	-0.224869	0.009822	-0.204633	0.258261	-0.148066	-0.275516	-0.033609	0.050677	-0.210854	-0.363515	-0.004662	0.005321	-0.03208	-0.042653	0.055167	0.061113	0.14775	-0.231387	0.074563	0.22123	0.139543	-0.168947	0.152652	-0.119683	
5.31769	0	0	0.035428	0.220238	0.0218385	-0.0291565	-0.266612	0.244614	-0.235958	0.0920525	-0.226111	0.00224775	-0.206933	0.250636	-0.15091	-0.281179	-0.0366057	0.0480763	-0.21411	-0.368494	-0.0065635	0.000879	-0.03038	-0.047457	0.0493533	0.064912	0.152439	-0.229354	0.073584	0.236238	0.135759	-0.158252	0.149899	-0.111903	
5.33295	0	0	0.033074	0.2164	0.025541	-0.03962	-0.271246	0.241865	-0.233889	0.086204	-0.227352	-0.0053265	-0.209234	0.243011	-0.153754	-0.286843	-0.0396025	0.0454755	-0.217365	-0.373473	-0.008465	-0.003563	-0.02868	-0.052261	0.0435395	0.068711	0.157129	-0.227321	0.072605	0.251246	0.131974	-0.147556	0.147146	-0.104123	
5.36194	0	0	0.03072	0.212562	0.0292435	-0.0500835	-0.275879	0.239116	-0.23182	0.0803555	-0.228594	-0.0129008	-0.211535	0.235387	-0.156598	-0.292506	-0.0425992	0.0428747	-0.220621	-0.378452	-0.0103665	-0.008005	-0.02698	-0.057065	0.0377258	0.07251	0.161818	-0.225288	0.071626	0.266255	0.12819	-0.13686	0.144393	-0.0963423	
5.39093	0	0	0.028366	0.208725	0.032946	-0.060547	-0.280513	0.236367	-0.22975	0.074507	-0.229835	-0.020475	-0.213835	0.227762	-0.159442	-0.298169	-0.045596	0.040274	-0.223877	-0.383431	-0.012268	-0.012447	-0.02528	-0.061869	0.031912	0.076309	0.166507	-0.223255	0.070647	0.281263	0.124406	-0.126165	0.14164	-0.088562	
5.42145	0	0	0.031545	0.210231	0.0338708	-0.063161	-0.287799	0.241128	-0.22677	0.0770558	-0.224734	-0.0238082	-0.207334	0.223514	-0.157136	-0.304685	-0.0445475	0.0373102	-0.221698	-0.389588	-0.009654	-0.0198347	-0.02528	-0.061869	0.031912	0.076309	0.166507	-0.223255	0.0751815	0.280698	0.129365	-0.127348	0.146565	-0.0917803	
5.44739	0	0	0.034724	0.211737	0.0347955	-0.065775	-0.295086	0.245889	-0.223789	0.0796045	-0.219633	-0.0271415	-0.200832	0.219266	-0.15483	-0.311202	-0.043499	0.0343465	-0.21952	-0.395744	-0.00704	-0.0272225	-0.02528	-0.061869	0.031912	0.076309	0.166507	-0.223255	0.079716	0.280133	0.134324	-0.128531	0.151491	-0.0949985	
5.46417	0	0	0.037903	0.213244	0.0357202	-0.068389	-0.302373	0.25065	-0.220808	0.0821532	-0.214532	-0.0304747	-0.19433	0.215017	-0.152525	-0.317718	-0.0424505	0.0313828	-0.217341	-0.401901	-0.004426	-0.0346103	-0.02528	-0.061869	0.031912	0.076309	0.166507	-0.223255	0.0842505	0.279567	0.139283	-0.129715	0.156416	-0.0982167	
5.47485	0	0	0.041082	0.21475	0.036645	-0.071003	-0.309659	0.255411	-0.217828	0.084702	-0.209431	-0.033808	-0.187829	0.210769	-0.150219	-0.324234	-0.041402	0.028419	-0.215163	-0.408058	-0.001812	-0.041998	-0.02528	-0.061869	0.031912	0.076309	0.166507	-0.223255	0.088785	0.279002	0.144242	-0.130898	0.161341	-0.101435	
5.47943	0	0	0.0377808	0.224079	0.031037	-0.065329	-0.310988	0.259167	-0.220934	0.0934818	-0.205977	-0.0213832	-0.184622	0.229991	-0.152525	-0.317718	-0.0373555	0.0280535	-0.215163	-0.408058	-0.0035545	-0.0370735	-0.0236543	-0.0555428	0.0369488	0.0873463	0.165333	-0.219938	0.0911138	0.284678	0.146362	-0.124048	0.160423	-0.09884	
5.47943	0	0	0.0344795	0.233408	0.025429	-0.059655	-0.312318	0.262923	-0.224041	0.102262	-0.202522	-0.0089585	-0.181416	0.249214	-0.15483	-0.311202	-0.033309	0.027688	-0.215163	-0.408058	-0.005297	-0.032149	-0.0220285	-0.0492165	0.0419855	0.0983835	0.16416	-0.216621	0.0934425	0.290355	0.148482	-0.117199	0.159505	-0.096245	
5.47027	0	0	0.0311782	0.242738	0.019821	-0.053981	-0.313647	0.26668	-0.227148	0.111041	-0.199068	0.00346625	-0.178209	0.268436	-0.157136	-0.304685	-0.0292625	0.0273225	-0.215163	-0.408058	-0.0070395	-0.0272245	-0.0204027	-0.0428902	0.0470223	0.109421	0.162986	-0.213304	0.0957713	0.296032	0.150602	-0.110349	0.158587	-0.09365	
5.46112	0	0	0.027877	0.252067	0.014213	-0.048307	-0.314976	0.270436	-0.230254	0.119821	-0.195614	0.015891	-0.175002	0.287658	-0.159442	-0.298169	-0.025216	0.026957	-0.215163	-0.408058	-0.008782	-0.0223	-0.018777	-0.036564	0.052059	0.120458	0.161812	-0.209987	0.0981	0.301708	0.152722	-0.1035	0.157669	-0.091055	
5.44739	0	0	0.0311782	0.242738	0.0132305	-0.0556998	-0.313647	0.26668	-0.228182	0.113967	-0.197824	0.0110385	-0.175903	0.276057	-0.157136	-0.304685	-0.0312107	0.0217652	-0.212986	-0.414211	-0.011555	-0.024274	-0.0179265	-0.0389677	0.0462412	0.124259	0.160638	-0.206669	0.0993225	0.310518	0.149876	-0.095458	0.161679	-0.0916795	
5.43518	0	0	0.0344795	0.233408	0.012248	-0.0630925	-0.312318	0.262923	-0.226111	0.108113	-0.200033	0.006186	-0.176804	0.264456	-0.15483	-0.311202	-0.0372055	0.0165735	-0.210809	-0.420364	-0.014328	-0.026248	-0.017076	-0.0413715	0.0404235	0.128061	0.159464	-0.203351	0.100545	0.319329	0.147031	-0.087416	0.165688	-0.092304	
5.41992	0	0	0.0377808	0.224079	0.0112655	-0.0704852	-0.310988	0.259167	-0.22404	0.102258	-0.202242	0.0013335	-0.177706	0.252856	-0.152525	-0.317718	-0.0432003	0.0113817	-0.208631	-0.426516	-0.017101	-0.028222	-0.0162255	-0.0437753	0.0346058	0.131862	0.15829	-0.200033	0.101767	0.328139	0.144185	-0.079374	0.169698	-0.0929285	
5.40924	0	0	0.041082	0.21475	0.010283	-0.077878	-0.309659	0.255411	-0.221968	0.096404	-0.204452	-0.003519	-0.178607	0.241255	-0.150219	-0.324234	-0.049195	0.00619	-0.206454	-0.432669	-0.019874	-0.030196	-0.015375	-0.046179	0.028788	0.135664	0.157116	-0.196715	0.10299	0.336949	0.14134	-0.071332	0.173707	-0.093553	
5.39551	0	0	0.0459128	0.211593	0.0158875	-0.0835473	-0.310988	0.259167	-0.217951	0.096029	-0.204452	-0.003519	-0.178607	0.241255	-0.150219	-0.324234	-0.05219	0.003597	-0.205366	-0.435744	-0.0181322	-0.0351178	-0.0145247	-0.048582	0.030988	0.129447	0.159464	-0.20335	0.110851	0.327006	0.147254	-0.0751965	0.170616	-0.0955235	
5.38635	0	0	0.0507435	0.208436	0.021492	-0.0892165	-0.312318	0.262923	-0.213933	0.095654	-0.204452	-0.003519	-0.178607	0.241255	-0.150219	-0.324234	-0.055185	0.001004	-0.204279	-0.438819	-0.0163905	-0.0400395	-0.0136745	-0.050985	0.033188	0.123231	0.161811	-0.209985	0.118712	0.317063	0.153168	-0.079061	0.167524	-0.097494	
5.37109	0	0	0.0555742	0.20528	0.0270965	-0.0948858	-0.313647	0.26668	-0.209916	0.095279	-0.204452	-0.003519	-0.178607	0.241255	-0.150219	-0.324234	-0.05818	-0.001589	-0.203191	-0.441893	-0.0146488	-0.0449612	-0.0128243	-0.053388	0.035388	0.117014	0.164159	-0.21662	0.126574	0.307121	0.159082	-0.0829255	0.164433	-0.0994645	
5.36194	0	0	0.060405	0.202123	0.032701	-0.100555	-0.314976	0.270436	-0.205899	0.094904	-0.204452	-0.003519	-0.178607	0.241255	-0.150219	-0.324234	-0.061175	-0.004182	-0.202103	-0.444968	-0.012907	-0.049883	-0.011974	-0.055791	0.037588	0.110797	0.166507	-0.223255	0.134435	0.297178	0.164996	-0.08679	0.161341	-0.101435	
5.35126	0	0	0.0547492	0.207611	0.032701	-0.100555	-0.314976	0.270436	-0.209916	0.095279	-0.204176	0.00679725	-0.17911	0.256824	-0.147372	-0.318578	-0.061175	-0.004182	-0.198842	-0.440005	-0.0092625	-0.050373	-0.0086455	-0.0542705	0.045927	0.112519	0.165333	-0.219938	0.134435	0.297178	0.159082	-0.0829255	0.165351	-0.10206	
5.33905	0	0	0.0490935	0.213099	0.032701	-0.100555	-0.314976	0.270436	-0.213933	0.095654	-0.2039	0.0171135	-0.179613	0.272393	-0.144526	-0.312922	-0.061175	-0.004182	-0.19558	-0.435042	-0.005618	-0.050863	-0.005317	-0.05275	0.054266	0.11424	0.16416	-0.216621	0.134435	0.297178	0.153168	-0.079061	0.169361	-0.102685	
5.32684	0	0	0.0434378	0.218587	0.032701	-0.100555	-0.314976	0.270436	-0.217951	0.096029	-0.203624	0.0274298	-0.180115	0.287962	-0.14168	-0.307266	-0.061175	-0.004182	-0.192319	-0.430079	-0.0019735	-0.051353	-0.0019885	-0.0512295	0.062605	0.115961	0.162986	-0.213304	0.134435	0.297178	0.147254	-0.0751965	0.173371	-0.10331	
5.31158	0	0	0.037782	0.224075	0.032701	-0.100555	-0.314976	0.270436	-0.221968	0.096404	-0.203348	0.037746	-0.180618	0.303531	-0.138833	-0.30161	-0.061175	-0.004182	-0.189057	-0.425116	0.001671	-0.051843	0.00134	-0.049709	0.070944	0.117683	0.161812	-0.209987	0.134435	0.297178	0.14134	-0.071332	0.177381	-0.103935	
5.30701	0	0	0.035428	0.220238	0.0307903	-0.105325	-0.313647	0.26668	-0.218863	0.08763	-0.202381	0.0350138	-0.184322	0.299851	-0.139987	-0.298349	-0.062077	-0.0126833	-0.190146	-0.422038	-0.00110325	-0.0538127	-0.0011385	-0.0536318	0.0669997	0.10354	0.15595	-0.208707	0.132101	0.2915	0.143237	-0.076694	0.179217	-0.109124	
5.29175	0	0	0.033074	0.2164	0.0288795	-0.110095	-0.312318	0.262923	-0.215759	0.078856	-0.201414	0.0322815	-0.188026	0.296171	-0.141141	-0.295088	-0.062979	-0.0211845	-0.191235	-0.41896	-0.0038775	-0.0557825	-0.003617	-0.0575545	0.0630555	0.089398	0.150089	-0.207427	0.129767	0.285822	0.145134	-0.082056	0.181054	-0.114313	
5.28107	0	0	0.03072	0.212562	0.0269687	-0.114864	-0.310988	0.259167	-0.212654	0.070082	-0.200447	0.0295492	-0.19173	0.292491	-0.142295	-0.291826	-0.063881	-0.0296857	-0.192324	-0.415883	-0.00665175	-0.0577522	-0.0060955	-0.0614772	0.0591112	0.0752555	0.144228	-0.206147	0.127434	0.280143	0.147032	-0.087418	0.18289	-0.119503	
5.26428	0	0	0.028366	0.208725	0.025058	-0.119634	-0.309659	0.255411	-0.20955	0.061308	-0.19948	0.026817	-0.195434	0.288811	-0.143449	-0.288565	-0.064783	-0.038187	-0.193413	-0.412805	-0.009426	-0.059722	-0.008574	-0.0654	0.055167	0.061113	0.138366	-0.204867	0.1251	0.274465	0.148929	-0.09278	0.184726	-0.124692	
5.2536	0	0	0.0348425	0.200911	0.0306613	-0.1253	-0.309659	0.255411	-0.208516	0.0583852	-0.197547	0.0213547	-0.191227	0.276922	-0.143449	-0.288565	-0.067776	-0.0407722	-0.186882	-0.417073	-0.012199	-0.061691	-0.00687475	-0.0702028	0.0559343	0.046313	0.133682	-0.206904	0.124972	0.26256	0.147757	-0.102309	0.183467	-0.131841	
5.24292	0	0	0.041319	0.193098	0.0362645	-0.130967	-0.309659	0.255411	-0.207481	0.0554625	-0.195615	0.0158925	-0.18702	0.265033	-0.143449	-0.288565	-0.070769	-0.0433575	-0.18035	-0.421341	-0.014972	-0.06366	-0.0051755	-0.0750055	0.0567015	0.031513	0.128999	-0.208941	0.124844	0.250655	0.146586	-0.111839	0.182207	-0.138991	
5.23376	0	0	0.0477955	0.185284	0.0418677	-0.136633	-0.309659	0.255411	-0.206447	0.0525398	-0.193683	0.0104303	-0.182814	0.253144	-0.143449	-0.288565	-0.073762	-0.0459428	-0.173819	-0.425608	-0.017745	-0.065629	-0.00347625	-0.0798082	0.0574687	0.016713	0.124315	-0.210977	0.124717	0.23875	0.145414	-0.121368	0.180948	-0.14614	
5.22003	0	0	0.054272	0.177471	0.047471	-0.142299	-0.309659	0.255411	-0.205413	0.049617	-0.19175	0.004968	-0.178607	0.241255	-0.143449	-0.288565	-0.076755	-0.048528	-0.167288	-0.429876	-0.020518	-0.067598	-0.001777	-0.084611	0.058236	0.001913	0.119632	-0.213014	0.124589	0.226845	0.144242	-0.130898	0.179689	-0.153289	
5.21393	0	0	0.0487358	0.172143	0.0464787	-0.149665	-0.304348	0.240402	-0.21241	0.047452	-0.19175	0.004968	-0.181411	0.249179	-0.142295	-0.291826	-0.0757105	-0.0514798	-0.170553	-0.434839	-0.0168748	-0.0680883	0.0032525	-0.0878973	0.062954	0.00121125	0.129005	-0.224232	0.127895	0.217502	0.152045	-0.140111	0.177513	-0.15784	
5.20325	0	0	0.0431995	0.166815	0.0454865	-0.15703	-0.299037	0.225392	-0.219406	0.045287	-0.19175	0.004968	-0.184215	0.257103	-0.141141	-0.295088	-0.074666	-0.0544315	-0.173818	-0.439801	-0.0132315	-0.0685785	0.008282	-0.0911835	0.067672	0.0005095	0.138379	-0.235451	0.131201	0.208158	0.159849	-0.149323	0.175337	-0.16239	
5.20019	0	0	0.0376633	0.161487	0.0444942	-0.164395	-0.293726	0.210383	-0.226403	0.043122	-0.19175	0.004968	-0.187019	0.265028	-0.139987	-0.298349	-0.0736215	-0.0573832	-0.177084	-0.444764	-0.00958825	-0.0690687	0.0133115	-0.0944697	0.07239	-0.00019225	0.147752	-0.246669	0.134507	0.198815	0.167652	-0.158536	0.17316	-0.166941	
5.19256	0	0	0.032127	0.156159	0.043502	-0.171761	-0.288415	0.195374	-0.233399	0.040957	-0.19175	0.004968	-0.189823	0.272952	-0.138833	-0.30161	-0.072577	-0.060335	-0.180349	-0.449727	-0.005945	-0.069559	0.018341	-0.097756	0.077108	-0.000894	0.157126	-0.257887	0.137813	0.189472	0.175455	-0.167749	0.170984	-0.171492	
5.18188	0	0	0.0347018	0.138404	0.0434285	-0.181717	-0.290393	0.185147	-0.228238	0.0263717	-0.194242	-0.0101747	-0.186527	0.249499	-0.144525	-0.312914	-0.0745258	-0.0658653	-0.187961	-0.456564	-0.003336	-0.0769325	0.0133778	-0.105578	0.0742407	-0.0180457	0.152439	-0.259914	0.129836	0.187509	0.169313	-0.176062	0.174646	-0.18184	
5.18341	0	0	0.0372765	0.120648	0.043355	-0.191673	-0.292372	0.17492	-0.223077	0.0117865	-0.196735	-0.0253175	-0.18323	0.226047	-0.150217	-0.324218	-0.0764745	-0.0713955	-0.195573	-0.463402	-0.000727	-0.084306	0.0084145	-0.1134	0.0713735	-0.0351975	0.147752	-0.261941	0.121859	0.185546	0.16317	-0.184374	0.178308	-0.192188	
5.17883	0	0	0.0398512	0.102893	0.0432815	-0.201629	-0.29435	0.164692	-0.217917	-0.00279875	-0.199227	-0.0404603	-0.179934	0.202594	-0.155909	-0.335523	-0.0784232	-0.0769258	-0.203184	-0.470239	0.001882	-0.0916795	0.00345125	-0.121222	0.0685063	-0.0523492	0.143065	-0.263968	0.113882	0.183582	0.157027	-0.192687	0.181969	-0.202537	
5.18494	0	0	0.042426	0.085138	0.043208	-0.211585	-0.296328	0.154465	-0.212756	-0.017384	-0.201719	-0.055603	-0.176638	0.179142	-0.161601	-0.346827	-0.080372	-0.082456	-0.210796	-0.477076	0.004491	-0.099053	-0.001512	-0.129044	0.065639	-0.069501	0.138378	-0.265995	0.105905	0.181619	0.150885	-0.200999	0.185631	-0.212885	
5.18188	0	0	0.0408883	0.0790113	0.041292	-0.216328	-0.293681	0.146982	-0.211725	-0.0202983	-0.195942	-0.0719295	-0.177552	0.167598	-0.157	-0.359831	-0.074249	-0.088723	-0.211886	-0.488155	0.00084725	-0.0985608	0.00187875	-0.138626	0.0642023	-0.0780552	0.148918	-0.280509	0.105768	0.169766	0.149703	-0.210482	0.184366	-0.220005	
5.18494	0	0	0.0393505	0.0728845	0.039376	-0.221072	-0.291033	0.139499	-0.210694	-0.0232125	-0.190165	-0.088256	-0.178465	0.156054	-0.152398	-0.372835	-0.068126	-0.09499	-0.212976	-0.499233	-0.0027965	-0.0980685	0.0052695	-0.148208	0.0627655	-0.0866095	0.159458	-0.295023	0.10563	0.157914	0.148521	-0.219965	0.183101	-0.227125	
5.18188	0	0	0.0378127	0.0667578	0.03746	-0.225815	-0.288385	0.132017	-0.209662	-0.0261268	-0.184388	-0.104582	-0.179379	0.14451	-0.147797	-0.38584	-0.062003	-0.101257	-0.214065	-0.510312	-0.00644025	-0.0975763	0.00866025	-0.15779	0.0613288	-0.0951638	0.169998	-0.309538	0.105493	0.146062	0.147339	-0.229447	0.181836	-0.234245	
5.18494	0	0	0.036275	0.060631	0.035544	-0.230558	-0.285738	0.124534	-0.208631	-0.029041	-0.178611	-0.120909	-0.180293	0.132966	-0.143196	-0.398844	-0.05588	-0.107524	-0.215155	-0.521391	-0.010084	-0.097084	0.012051	-0.167372	0.059892	-0.103718	0.180538	-0.324052	0.105355	0.134209	0.146157	-0.23893	0.180571	-0.241365	
5.18646	0	0	0.0323787	0.0507147	0.033628	-0.235297	-0.279129	0.105855	-0.214595	-0.0340985	-0.180828	-0.125728	-0.180293	0.132966	-0.152337	-0.400359	-0.05588	-0.107524	-0.219499	-0.523264	-0.00644025	-0.0975763	0.010356	-0.162582	0.0682315	-0.102049	0.180538	-0.324052	0.110989	0.130527	0.1471	-0.241596	0.181484	-0.243947	
5.18188	0	0	0.0284825	0.0407985	0.031712	-0.240035	-0.272519	0.0871755	-0.220559	-0.039156	-0.183044	-0.130547	-0.180293	0.132966	-0.161478	-0.401875	-0.05588	-0.107524	-0.223842	-0.525136	-0.0027965	-0.0980685	0.008661	-0.157793	0.076571	-0.10038	0.180538	-0.324052	0.116623	0.126845	0.148043	-0.244261	0.182398	-0.246529	
5.18036	0	0	0.0245863	0.0308822	0.029796	-0.244774	-0.265909	0.0684963	-0.226523	-0.0442135	-0.185261	-0.135366	-0.180293	0.132966	-0.17062	-0.40339	-0.05588	-0.107524	-0.228186	-0.527008	0.00084725	-0.0985608	0.006966	-0.153003	0.0849105	-0.0987102	0.180538	-0.324052	0.122257	0.123164	0.148986	-0.246926	0.183312	-0.249112	
5.17578	0	0	0.02069	0.020966	0.02788	-0.249512	-0.2593	0.049817	-0.232487	-0.049271	-0.187478	-0.140185	-0.180293	0.132966	-0.179761	-0.404905	-0.05588	-0.107524	-0.232529	-0.528881	0.004491	-0.099053	0.005271	-0.148213	0.09325	-0.097041	0.180538	-0.324052	0.127891	0.119482	0.149929	-0.249592	0.184225	-0.251694	
5.17273	0	0	0.0199685	0.0125495	0.0353075	-0.26035	-0.252704	0.0311767	-0.224359	-0.0612905	-0.188075	-0.160644	-0.183526	0.113883	-0.181458	-0.413768	-0.0599172	-0.107152	-0.234704	-0.536872	0.00258475	-0.103472	0.004483	-0.1569	0.0881833	-0.10796	0.184044	-0.333962	0.126647	0.110756	0.155582	-0.265568	0.182957	-0.258801	
5.16205	0	0	0.019247	0.004133	0.042735	-0.271188	-0.246109	0.0125365	-0.21623	-0.07331	-0.188672	-0.181104	-0.18676	0.094801	-0.183156	-0.422631	-0.0639545	-0.106779	-0.236879	-0.544863	0.0006785	-0.107891	0.003695	-0.165587	0.0831165	-0.118879	0.187551	-0.343872	0.125404	0.102029	0.161235	-0.281544	0.18169	-0.265907	
5.15747	0	0	0.0185255	-0.0042835	0.0501625	-0.282027	-0.239513	-0.00610375	-0.208101	-0.0853295	-0.189269	-0.201564	-0.189993	0.0757185	-0.184854	-0.431494	-0.0679917	-0.106407	-0.239054	-0.552853	-0.00122775	-0.112309	0.002907	-0.174275	0.0780498	-0.129798	0.191057	-0.353782	0.12416	0.0933033	0.166888	-0.29752	0.180423	-0.273014	
5.15137	0	0	0.017804	-0.0127	0.05759	-0.292865	-0.232917	-0.024744	-0.199973	-0.097349	-0.189866	-0.222023	-0.193226	0.056636	-0.186551	-0.440357	-0.072029	-0.106035	-0.241229	-0.560844	-0.003134	-0.116728	0.002119	-0.182962	0.072983	-0.140717	0.194564	-0.363692	0.122916	0.084577	0.172541	-0.313496	0.179155	-0.280121	
5.14068	0	0	0.022616	-0.015844	0.0622655	-0.29592	-0.223002	-0.0369465	-0.189882	-0.103943	-0.189214	-0.234928	-0.187665	0.04092	-0.18825	-0.449204	-0.0659065	-0.1123	-0.236903	-0.573069	-0.00139725	-0.121636	0.0046575	-0.190136	0.0762528	-0.149957	0.18987	-0.365699	0.126205	0.0752822	0.164513	-0.316426	0.175151	-0.279487	
5.13	0	0	0.027428	-0.018988	0.066941	-0.298975	-0.213088	-0.049149	-0.179791	-0.110537	-0.188563	-0.247833	-0.182105	0.025204	-0.18995	-0.458052	-0.059784	-0.118565	-0.232577	-0.585295	0.0003395	-0.126545	0.007196	-0.19731	0.0795225	-0.159197	0.185176	-0.367707	0.129493	0.0659875	0.156484	-0.319356	0.171146	-0.278853	
5.1239	0	0	0.03224	-0.022132	0.0716165	-0.30203	-0.203174	-0.0613515	-0.169699	-0.11713	-0.187911	-0.260739	-0.176544	0.009488	-0.19165	-0.466899	-0.0536615	-0.124831	-0.228251	-0.59752	0.00207625	-0.131453	0.0097345	-0.204485	0.0827922	-0.168437	0.180482	-0.369714	0.132782	0.0566928	0.148455	-0.322286	0.167141	-0.278218	
5.11932	0	0	0.037052	-0.025276	0.076292	-0.305085	-0.193259	-0.073554	-0.159608	-0.123724	-0.187259	-0.273644	-0.170983	-0.006228	-0.193349	-0.475746	-0.047539	-0.131096	-0.223925	-0.609745	0.003813	-0.136361	0.012273	-0.211659	0.086062	-0.177677	0.175788	-0.371721	0.136071	0.047398	0.140427	-0.325216	0.163137	-0.277584	
5.10712	0	0	0.0371418	-0.035985	0.0790442	-0.312863	-0.186682	-0.09214	-0.159516	-0.13495	-0.189792	-0.288593	-0.179787	-0.00952275	-0.196194	-0.481346	-0.0505352	-0.133665	-0.229346	-0.60855	-0.0006975	-0.133414	0.011427	-0.209268	0.0885983	-0.172231	0.182817	-0.376314	0.141705	0.0437165	0.14538	-0.32641	0.168966	-0.283374	
5.10712	0	0	0.0372315	-0.046694	0.0817965	-0.320641	-0.180106	-0.110726	-0.159424	-0.146176	-0.192325	-0.303542	-0.188592	-0.0128175	-0.199039	-0.486946	-0.0535315	-0.136235	-0.234768	-0.607355	-0.005208	-0.130466	0.010581	-0.206877	0.0911345	-0.166785	0.189847	-0.380908	0.14734	0.040035	0.150334	-0.327603	0.174795	-0.289165	
5.09949	0	0	0.0373213	-0.057403	0.0845488	-0.328419	-0.17353	-0.129312	-0.159333	-0.157401	-0.194858	-0.318491	-0.197397	-0.0161123	-0.201884	-0.492545	-0.0565278	-0.138804	-0.240189	-0.606161	-0.0097185	-0.127519	0.009735	-0.204487	0.0936707	-0.161338	0.196877	-0.385501	0.152974	0.0363535	0.155287	-0.328796	0.180624	-0.294956	
5.09643	0	0	0.037411	-0.068112	0.087301	-0.336197	-0.166953	-0.147898	-0.159241	-0.168627	-0.197391	-0.33344	-0.206201	-0.019407	-0.204729	-0.498145	-0.059524	-0.141374	-0.24561	-0.604966	-0.014229	-0.124571	0.008889	-0.202096	0.096207	-0.155892	0.203906	-0.390094	0.158608	0.032672	0.160241	-0.32999	0.186453	-0.300746	
5.09186	0	0	0.039859	-0.0750305	0.0891342	-0.341379	-0.154415	-0.1675	-0.151114	-0.180628	-0.197076	-0.356411	-0.20669	-0.0461592	-0.205289	-0.510192	-0.0604377	-0.149823	-0.249947	-0.606825	-0.0143997	-0.133884	0.007251	-0.208374	0.0969368	-0.170569	0.201543	-0.398687	0.158447	0.020884	0.159985	-0.342072	0.189188	-0.308475	
5.09186	0	0	0.042307	-0.081949	0.0909675	-0.346561	-0.141877	-0.187102	-0.142988	-0.192628	-0.196762	-0.379382	-0.20718	-0.0729115	-0.205849	-0.522239	-0.0613515	-0.158272	-0.254283	-0.608685	-0.0145705	-0.143198	0.005613	-0.214653	0.0976665	-0.185246	0.199179	-0.40728	0.158287	0.009096	0.159729	-0.354155	0.191922	-0.316203	
5.08423	0	0	0.044755	-0.0888675	0.0928008	-0.351742	-0.12934	-0.206704	-0.134861	-0.204629	-0.196447	-0.402352	-0.20767	-0.0996637	-0.206409	-0.534287	-0.0622653	-0.166721	-0.25862	-0.610544	-0.0147413	-0.152511	0.003975	-0.220932	0.0983963	-0.199923	0.196816	-0.415874	0.158127	-0.002692	0.159473	-0.366237	0.194657	-0.323932	
5.08575	0	0	0.047203	-0.095786	0.094634	-0.356924	-0.116802	-0.226306	-0.126735	-0.21663	-0.196132	-0.425323	-0.208159	-0.126416	-0.206969	-0.546334	-0.063179	-0.17517	-0.262957	-0.612403	-0.014912	-0.161824	0.002337	-0.22721	0.099126	-0.2146	0.194452	-0.424467	0.157966	-0.01448	0.159217	-0.378319	0.197392	-0.331661	
5.08118	0	0	0.0560138	-0.0997705	0.0974788	-0.354799	-0.106887	-0.238482	-0.120659	-0.222829	-0.191381	-0.43875	-0.204017	-0.138123	-0.205827	-0.54956	-0.065134	-0.180669	-0.254302	-0.622748	-0.016818	-0.166227	0.0107363	-0.240039	0.0965867	-0.22003	0.203812	-0.435646	0.1578	-0.0262437	0.162032	-0.386275	0.199214	-0.33681	
5.08118	0	0	0.0648245	-0.103755	0.100323	-0.352674	-0.096972	-0.250659	-0.114583	-0.229027	-0.18663	-0.452178	-0.199874	-0.149831	-0.204686	-0.552785	-0.067089	-0.186168	-0.245646	-0.633093	-0.018724	-0.17063	0.0191355	-0.252869	0.0940475	-0.22546	0.213172	-0.446825	0.157633	-0.0380075	0.164847	-0.394231	0.201036	-0.341958	
5.07965	0	0	0.0736353	-0.10774	0.103168	-0.350549	-0.087057	-0.262835	-0.108507	-0.235226	-0.181879	-0.465606	-0.195732	-0.161538	-0.203544	-0.556011	-0.069044	-0.191667	-0.236991	-0.643439	-0.02063	-0.175033	0.0275348	-0.265699	0.0915083	-0.230889	0.222531	-0.458005	0.157467	-0.0497712	0.167662	-0.402187	0.202857	-0.347107	
5.07507	0	0	0.082446	-0.111724	0.106013	-0.348424	-0.077142	-0.275012	-0.102431	-0.241425	-0.177128	-0.479033	-0.191589	-0.173245	-0.202403	-0.559237	-0.070999	-0.197166	-0.228336	-0.653784	-0.022536	-0.179436	0.035934	-0.278528	0.088969	-0.236319	0.231891	-0.469184	0.157301	-0.061535	0.170477	-0.410143	0.204679	-0.352256	
5.06897	0	0	0.0808932	-0.117797	0.108763	-0.356195	-0.0791962	-0.285051	-0.10638	-0.252202	-0.180639	-0.491165	-0.19392	-0.180711	-0.201262	-0.562462	-0.071916	-0.205592	-0.229415	-0.650734	-0.020804	-0.184331	0.0309135	-0.275247	0.0867943	-0.230173	0.231891	-0.469184	0.162932	-0.065214	0.170477	-0.410143	0.204679	-0.352256	
5.07049	0	0	0.0793405	-0.123869	0.111513	-0.363967	-0.0812505	-0.29509	-0.11033	-0.262979	-0.18415	-0.503297	-0.19625	-0.188177	-0.200122	-0.565686	-0.072833	-0.214017	-0.230494	-0.647685	-0.019072	-0.189225	0.025893	-0.271967	0.0846195	-0.224027	0.231891	-0.469184	0.168562	-0.068893	0.170477	-0.410143	0.204679	-0.352256	
5.07355	0	0	0.0777878	-0.129942	0.114262	-0.371739	-0.0833048	-0.305129	-0.11428	-0.273756	-0.187662	-0.515428	-0.19858	-0.195642	-0.198981	-0.568911	-0.07375	-0.222443	-0.231574	-0.644636	-0.01734	-0.19412	0.0208725	-0.268686	0.0824447	-0.21788	0.231891	-0.469184	0.174193	-0.072572	0.170477	-0.410143	0.204679	-0.352256	
5.07355	0	0	0.076235	-0.136015	0.117012	-0.37951	-0.085359	-0.315168	-0.118229	-0.284533	-0.191173	-0.52756	-0.200911	-0.203108	-0.19784	-0.572136	-0.074667	-0.230869	-0.232653	-0.641586	-0.015608	-0.199015	0.015852	-0.265406	0.08027	-0.211734	0.231891	-0.469184	0.179823	-0.076251	0.170477	-0.410143	0.204679	-0.352256	
5.07507	0	0	0.0794938	-0.145224	0.119759	-0.387275	-0.0741435	-0.33102	-0.113115	-0.298986	-0.193741	-0.542332	-0.205573	-0.218004	-0.200688	-0.577707	-0.0796155	-0.2389	-0.234836	-0.649533	-0.0166505	-0.205854	0.0150528	-0.274049	0.08679	-0.23016	0.235384	-0.479054	0.177466	-0.0818248	0.169274	-0.419539	0.20741	-0.359974	
5.07812	0	0	0.0827525	-0.154433	0.122507	-0.395039	-0.062928	-0.346872	-0.108	-0.313439	-0.196308	-0.557104	-0.210236	-0.2329	-0.203536	-0.583278	-0.084564	-0.246931	-0.237018	-0.657479	-0.017693	-0.212693	0.0142535	-0.282692	0.09331	-0.248586	0.238876	-0.488923	0.17511	-0.0873985	0.168071	-0.428934	0.210141	-0.367692	
5.08118	0	0	0.0860112	-0.163642	0.125254	-0.402803	-0.0517125	-0.362724	-0.102886	-0.327893	-0.198876	-0.571876	-0.214898	-0.247795	-0.206384	-0.588848	-0.0895125	-0.254963	-0.239201	-0.665426	-0.0187355	-0.219531	0.0134543	-0.291335	0.09983	-0.267013	0.242368	-0.498793	0.172754	-0.0929722	0.166867	-0.43833	0.212872	-0.375409	
5.07812	0	0	0.08927	-0.172851	0.128001	-0.410568	-0.040497	-0.378576	-0.097772	-0.342346	-0.201444	-0.586648	-0.21956	-0.262691	-0.209232	-0.594419	-0.094461	-0.262994	-0.241384	-0.673373	-0.019778	-0.22637	0.012655	-0.299978	0.10635	-0.285439	0.245861	-0.508663	0.170397	-0.098546	0.165664	-0.447726	0.215603	-0.383127	
5.07812	0	0	0.0924558	-0.171394	0.131766	-0.411039	-0.0391905	-0.382269	-0.092725	-0.345644	-0.197665	-0.597327	-0.211728	-0.270794	-0.205815	-0.604075	-0.0862895	-0.275083	-0.238152	-0.682506	-0.0180487	-0.231257	0.020201	-0.310402	0.109605	-0.294638	0.239995	-0.507358	0.171488	-0.101628	0.1666	-0.450373	0.211596	-0.382485	
5.07507	0	0	0.0956415	-0.169936	0.135531	-0.41151	-0.037884	-0.385962	-0.087678	-0.348942	-0.193887	-0.608006	-0.203896	-0.278898	-0.202398	-0.613732	-0.078118	-0.287172	-0.23492	-0.691639	-0.0163195	-0.236144	0.027747	-0.320826	0.11286	-0.303837	0.234129	-0.506052	0.172578	-0.10471	0.167537	-0.453019	0.207589	-0.381844	
5.07507	0	0	0.0988273	-0.168479	0.139297	-0.411981	-0.0365775	-0.389654	-0.082631	-0.352239	-0.190108	-0.618686	-0.196064	-0.287001	-0.198982	-0.623389	-0.0699465	-0.299262	-0.231689	-0.700772	-0.0145902	-0.241031	0.035293	-0.33125	0.116114	-0.313036	0.228262	-0.504746	0.173669	-0.107793	0.168473	-0.455666	0.203581	-0.381202	
5.07202	0	0	0.102013	-0.167022	0.143062	-0.412452	-0.035271	-0.393347	-0.077584	-0.355537	-0.186329	-0.629365	-0.188232	-0.295104	-0.195565	-0.633045	-0.061775	-0.311351	-0.228457	-0.709905	-0.012861	-0.245918	0.042839	-0.341674	0.119369	-0.322235	0.222396	-0.503441	0.17476	-0.110875	0.169409	-0.458312	0.199574	-0.38056	
5.07355	0	0	0.0988273	-0.168479	0.140212	-0.414568	-0.03005	-0.408102	-0.0846107	-0.357604	-0.19045	-0.628723	-0.192357	-0.283448	-0.200691	-0.632168	-0.065805	-0.310966	-0.22738	-0.712947	-0.0118167	-0.239084	0.0411535	-0.336911	0.124464	-0.311412	0.228262	-0.504746	0.182752	-0.108986	0.167536	-0.453018	0.203581	-0.381202	
5.07965	0	0	0.0956415	-0.169936	0.137362	-0.416683	-0.024829	-0.422857	-0.0916375	-0.359671	-0.194571	-0.628082	-0.196481	-0.271791	-0.205817	-0.631292	-0.069835	-0.310581	-0.226304	-0.71599	-0.0107725	-0.23225	0.039468	-0.332148	0.129559	-0.30059	0.234129	-0.506052	0.190744	-0.107097	0.165663	-0.447724	0.207589	-0.381844	
5.09643	0	0	0.0924558	-0.171394	0.134513	-0.418799	-0.019608	-0.437613	-0.0986642	-0.361738	-0.198692	-0.62744	-0.200605	-0.260135	-0.210943	-0.630415	-0.073865	-0.310197	-0.225227	-0.719032	-0.00972825	-0.225417	0.0377825	-0.327385	0.134653	-0.289768	0.239995	-0.507358	0.198735	-0.105208	0.16379	-0.442431	0.211596	-0.382485	
5.13458	0	0	0.08927	-0.172851	0.131663	-0.420915	-0.014387	-0.452368	-0.105691	-0.363805	-0.202813	-0.626799	-0.20473	-0.248479	-0.216069	-0.629538	-0.077895	-0.309812	-0.224151	-0.722074	-0.008684	-0.218583	0.036097	-0.322622	0.139748	-0.278945	0.245861	-0.508663	0.206727	-0.103319	0.161917	-0.437137	0.215603	-0.383127	
5.18036	0	0	0.0957125	-0.180598	0.128815	-0.42303	-0.0117798	-0.459736	-0.0975852	-0.375753	-0.203159	-0.636818	-0.200605	-0.260135	-0.21778	-0.638302	-0.0768605	-0.312736	-0.225266	-0.733028	-0.00417825	-0.221527	0.0386247	-0.329766	0.143006	-0.288153	0.237668	-0.500781	0.197817	-0.090378	0.162854	-0.439784	0.214693	-0.380555	
5.22003	0	0	0.102155	-0.188345	0.125967	-0.425144	-0.0091725	-0.467105	-0.0894795	-0.387702	-0.203506	-0.646838	-0.196481	-0.271791	-0.219492	-0.647066	-0.075826	-0.315659	-0.226381	-0.743982	0.0003275	-0.224471	0.0411525	-0.336909	0.146265	-0.297362	0.229474	-0.492899	0.188906	-0.077437	0.163791	-0.442431	0.213783	-0.377983	
5.26886	0	0	0.108597	-0.196092	0.123118	-0.427258	-0.00656525	-0.474473	-0.0813737	-0.39965	-0.203852	-0.656858	-0.192357	-0.283448	-0.221203	-0.655831	-0.0747915	-0.318583	-0.227496	-0.754936	0.00483325	-0.227416	0.0436802	-0.344052	0.149523	-0.30657	0.221281	-0.485018	0.179995	-0.064496	0.164727	-0.445079	0.212873	-0.375411	
5.31463	0	0	0.11504	-0.203839	0.12027	-0.429373	-0.003958	-0.481841	-0.073268	-0.411598	-0.204198	-0.666877	-0.188232	-0.295104	-0.222914	-0.664595	-0.073757	-0.321507	-0.228611	-0.76589	0.009339	-0.23036	0.046208	-0.351196	0.152781	-0.315778	0.213088	-0.477136	0.171085	-0.051555	0.165664	-0.447726	0.211963	-0.372839	
5.35431	0	0	0.115786	-0.19548	0.122203	-0.424672	-0.003958	-0.481841	-0.0763295	-0.402946	-0.200079	-0.667521	-0.180803	-0.288007	-0.222914	-0.664595	-0.0656935	-0.322279	-0.23295	-0.767722	0.02114	-0.23431	0.046208	-0.351196	0.157505	-0.316506	0.210759	-0.470555	0.175626	-0.052148	0.16379	-0.442431	0.21324	-0.365759	
5.38635	0	0	0.116532	-0.18712	0.124136	-0.419971	-0.003958	-0.481841	-0.079391	-0.394294	-0.19596	-0.668165	-0.173374	-0.280911	-0.222914	-0.664595	-0.05763	-0.323052	-0.237289	-0.769555	0.032941	-0.23826	0.046208	-0.351196	0.162229	-0.317234	0.208431	-0.463974	0.180167	-0.052741	0.161917	-0.437135	0.214517	-0.358679	
5.40314	0	0	0.117277	-0.178761	0.126068	-0.415269	-0.003958	-0.481841	-0.0824525	-0.385641	-0.19184	-0.668808	-0.165944	-0.273815	-0.222914	-0.664595	-0.0495665	-0.323825	-0.241627	-0.771388	0.044742	-0.24221	0.046208	-0.351196	0.166954	-0.317962	0.206103	-0.457392	0.184709	-0.053334	0.160043	-0.431839	0.215794	-0.351599	
5.41534	0	0	0.118023	-0.170402	0.128001	-0.410568	-0.003958	-0.481841	-0.085514	-0.376989	-0.187721	-0.669452	-0.158515	-0.266718	-0.222914	-0.664595	-0.041503	-0.324597	-0.245966	-0.77322	0.056543	-0.24616	0.046208	-0.351196	0.171678	-0.31869	0.203774	-0.450811	0.18925	-0.053927	0.158169	-0.426544	0.217071	-0.344519	
5.41839	0	0	0.113946	-0.15888	0.124337	-0.400214	-0.00526125	-0.478158	-0.0835315	-0.371626	-0.188317	-0.656762	-0.156595	-0.244008	-0.22405	-0.661383	-0.0365375	-0.316588	-0.239479	-0.777459	0.0603773	-0.23737	0.052038	-0.34585	0.173521	-0.298627	0.213176	-0.446825	0.192869	-0.0396475	0.164325	-0.418339	0.222359	-0.338069	
5.41534	0	0	0.10987	-0.147359	0.120674	-0.38986	-0.0065645	-0.474475	-0.081549	-0.366263	-0.188914	-0.644072	-0.154675	-0.221298	-0.225187	-0.658172	-0.031572	-0.308579	-0.232992	-0.781697	0.0642115	-0.22858	0.057868	-0.340504	0.175364	-0.278564	0.222579	-0.442838	0.196488	-0.025368	0.170481	-0.410133	0.227648	-0.331619	
5.40924	0	0	0.105793	-0.135837	0.11701	-0.379505	-0.00786775	-0.470791	-0.0795665	-0.3609	-0.18951	-0.631381	-0.152756	-0.198588	-0.226324	-0.65496	-0.0266065	-0.30057	-0.226505	-0.785936	0.0680458	-0.21979	0.063698	-0.335158	0.177208	-0.258502	0.231981	-0.438852	0.200107	-0.0110885	0.176636	-0.401928	0.232936	-0.325168	
5.39093	0	0	0.101716	-0.124315	0.113346	-0.369151	-0.009171	-0.467108	-0.077584	-0.355537	-0.190106	-0.618691	-0.150836	-0.175878	-0.22746	-0.651748	-0.021641	-0.292561	-0.220018	-0.790174	0.07188	-0.211	0.069528	-0.329812	0.179051	-0.238439	0.241383	-0.434865	0.203726	0.003191	0.182792	-0.393723	0.238225	-0.318718	
5.37262	0	0	0.10572	-0.125159	0.118027	-0.372209	0.00543275	-0.47665	-0.072534	-0.358837	-0.190106	-0.618691	-0.152218	-0.171974	-0.22746	-0.651748	-0.0207137	-0.284151	-0.222166	-0.784103	0.0746655	-0.209051	0.0636613	-0.324146	0.179051	-0.238439	0.235545	-0.418366	0.201692	0.0212047	0.177154	-0.37779	0.236759	-0.303868	
5.36041	0	0	0.109724	-0.126002	0.122707	-0.375267	0.0200365	-0.486193	-0.067484	-0.362137	-0.190106	-0.618691	-0.153599	-0.16807	-0.22746	-0.651748	-0.0197865	-0.275741	-0.224315	-0.778032	0.077451	-0.207101	0.0577945	-0.31848	0.179051	-0.238439	0.229708	-0.401868	0.199658	0.0392185	0.171517	-0.361857	0.235293	-0.289018	
5.33752	0	0	0.113728	-0.126845	0.127388	-0.378326	0.0346403	-0.495735	-0.062434	-0.365437	-0.190106	-0.618691	-0.15498	-0.164166	-0.22746	-0.651748	-0.0188593	-0.267331	-0.226463	-0.771961	0.0802365	-0.205152	0.0519278	-0.312813	0.179051	-0.238439	0.22387	-0.38537	0.197625	0.0572322	0.165879	-0.345923	0.233827	-0.274168	
5.32074	0	0	0.117732	-0.127689	0.132069	-0.381384	0.049244	-0.505277	-0.057384	-0.368737	-0.190106	-0.618691	-0.156362	-0.160262	-0.22746	-0.651748	-0.017932	-0.258921	-0.228611	-0.76589	0.083022	-0.203203	0.046061	-0.307147	0.179051	-0.238439	0.218032	-0.368871	0.195591	0.075246	0.160241	-0.32999	0.232361	-0.259318	
5.30395	0	0	0.121662	-0.117833	0.127483	-0.368424	0.0440253	-0.490528	-0.062498	-0.354284	-0.183747	-0.614634	-0.148925	-0.153103	-0.224612	-0.646196	-0.011924	-0.253819	-0.218848	-0.765262	0.0849405	-0.198799	0.0477083	-0.300888	0.182693	-0.236084	0.228612	-0.368163	0.197943	0.080872	0.161433	-0.320544	0.228702	-0.248975	
5.2948	0	0	0.125592	-0.107978	0.122897	-0.355464	0.0388065	-0.475779	-0.067612	-0.33983	-0.177388	-0.610576	-0.141487	-0.145944	-0.221765	-0.640643	-0.005916	-0.248716	-0.209084	-0.764635	0.086859	-0.194394	0.0493555	-0.294629	0.186335	-0.233729	0.239192	-0.367454	0.200295	0.086498	0.162625	-0.311099	0.225042	-0.238633	
5.28107	0	0	0.129523	-0.0981225	0.118312	-0.342505	0.0335877	-0.46103	-0.072726	-0.325377	-0.171029	-0.606518	-0.13405	-0.138784	-0.218917	-0.635091	9.2E-05	-0.243614	-0.199321	-0.764007	0.0887775	-0.18999	0.0510027	-0.288371	0.189978	-0.231374	0.249772	-0.366746	0.202648	0.092124	0.163816	-0.301653	0.221383	-0.228291	
5.27191	0	0	0.133453	-0.088267	0.113726	-0.329545	0.028369	-0.446281	-0.07784	-0.310924	-0.16467	-0.602461	-0.126613	-0.131625	-0.216069	-0.629538	0.0061	-0.238511	-0.189557	-0.76338	0.090696	-0.185586	0.05265	-0.282112	0.19362	-0.229019	0.260352	-0.366037	0.205	0.09775	0.165008	-0.292207	0.217723	-0.217948	
5.26123	0	0	0.133372	-0.0775472	0.114736	-0.322224	0.0317605	-0.43998	-0.0758595	-0.305543	-0.163989	-0.582332	-0.126106	-0.104836	-0.210371	-0.618411	0.00899025	-0.224572	-0.188438	-0.752417	0.098011	-0.186591	0.0576347	-0.274352	0.198728	-0.218132	0.253324	-0.346177	0.208603	0.112139	0.176126	-0.285132	0.227027	-0.212084	
5.25207	5	0	0.13329	-0.0668275	0.115746	-0.314902	0.035152	-0.43368	-0.073879	-0.300161	-0.163307	-0.562202	-0.1256	-0.078048	-0.204673	-0.607284	0.0118805	-0.210633	-0.187318	-0.741454	0.105326	-0.187596	0.0626195	-0.266591	0.203837	-0.207245	0.246297	-0.326317	0.212206	0.126527	0.187244	-0.278056	0.236331	-0.20622	
5.24444	5	0	0.133209	-0.0561077	0.116755	-0.307581	0.0385435	-0.427379	-0.0718985	-0.29478	-0.162626	-0.542073	-0.125093	-0.0512595	-0.198975	-0.596157	0.0147707	-0.196694	-0.186199	-0.730491	0.112641	-0.188602	0.0676043	-0.258831	0.208946	-0.196358	0.239269	-0.306456	0.21581	0.140915	0.198361	-0.270981	0.245636	-0.200355	
5.23987	5	0	0.133128	-0.045388	0.117765	-0.30026	0.041935	-0.421079	-0.069918	-0.289399	-0.161945	-0.521943	-0.124586	-0.024471	-0.193277	-0.58503	0.017661	-0.182755	-0.18508	-0.719528	0.119956	-0.189607	0.072589	-0.251071	0.214054	-0.185471	0.232242	-0.286596	0.219413	0.155304	0.209479	-0.263906	0.25494	-0.194491	
5.23834	5	0	0.127481	-0.0399187	0.117765	-0.30026	0.0247027	-0.404135	-0.0759958	-0.283201	-0.167022	-0.518626	-0.121808	-0.032322	-0.194418	-0.581807	0.017661	-0.182755	-0.187235	-0.713436	0.116297	-0.189104	0.0658678	-0.243002	0.201306	-0.174768	0.235775	-0.281257	0.224117	0.166614	0.202865	-0.245214	0.250352	-0.181524	
5.24902	5	0	0.121834	-0.0344495	0.117765	-0.30026	0.0074705	-0.387192	-0.0820735	-0.277003	-0.172099	-0.515308	-0.11903	-0.040173	-0.195558	-0.578583	0.017661	-0.182755	-0.189391	-0.707345	0.112639	-0.188601	0.0591465	-0.234934	0.188559	-0.164065	0.239308	-0.275919	0.228822	0.177924	0.196251	-0.226522	0.245763	-0.168556	
5.26581	5	0	0.116187	-0.0289802	0.117765	-0.30026	-0.00976175	-0.370248	-0.0881512	-0.270805	-0.177176	-0.511991	-0.116252	-0.048024	-0.196699	-0.57536	0.017661	-0.182755	-0.191547	-0.701253	0.10898	-0.188097	0.0524252	-0.226865	0.175811	-0.153361	0.242841	-0.270581	0.233526	0.189233	0.189638	-0.207831	0.241175	-0.155589	
5.29022	5	0	0.11054	-0.023511	0.117765	-0.30026	-0.026994	-0.353305	-0.094229	-0.264607	-0.182253	-0.508673	-0.113474	-0.055875	-0.19784	-0.572136	0.017661	-0.182755	-0.193702	-0.695161	0.105321	-0.187594	0.045704	-0.218797	0.163063	-0.142658	0.246374	-0.265242	0.23823	0.200543	0.183024	-0.189139	0.236587	-0.142622	
5.31921	5	0	0.116101	-0.0182408	0.119693	-0.295528	-0.0236167	-0.346977	-0.0912265	-0.262113	-0.180972	-0.501263	-0.113474	-0.055875	-0.194991	-0.566558	0.017661	-0.182755	-0.196938	-0.686016	0.0988785	-0.189044	0.0507333	-0.222083	0.165248	-0.148832	0.246374	-0.265242	0.231461	0.207366	0.192964	-0.191523	0.239689	-0.140657	
5.35431	5	0	0.121662	-0.0129705	0.121621	-0.290795	-0.0202395	-0.34065	-0.088224	-0.25962	-0.179691	-0.493853	-0.113474	-0.055875	-0.192141	-0.560979	0.017661	-0.182755	-0.200174	-0.67687	0.092436	-0.190494	0.0557625	-0.22537	0.167432	-0.155006	0.246374	-0.265242	0.224693	0.214189	0.202904	-0.193906	0.242791	-0.138692	
5.40161	5	0	0.127223	-0.00770025	0.123549	-0.286063	-0.0168623	-0.334322	-0.0852215	-0.257126	-0.178409	-0.486443	-0.113474	-0.055875	-0.189292	-0.555401	0.017661	-0.182755	-0.20341	-0.667725	0.0859935	-0.191943	0.0607918	-0.228656	0.169617	-0.16118	0.246374	-0.265242	0.217924	0.221012	0.212844	-0.19629	0.245894	-0.136728	
5.43976	5	0	0.132784	-0.00243	0.125477	-0.281331	-0.013485	-0.327995	-0.082219	-0.254632	-0.177128	-0.479033	-0.113474	-0.055875	-0.186443	-0.549823	0.017661	-0.182755	-0.206646	-0.658579	0.079551	-0.193393	0.065821	-0.231942	0.171801	-0.167354	0.246374	-0.265242	0.211155	0.227835	0.222784	-0.198674	0.248996	-0.134763	
5.47943	5	0	0.133514	0.00600825	0.122717	-0.27353	-0.0161063	-0.320587	-0.084271	-0.248833	-0.175522	-0.46149	-0.118099	-0.0286775	-0.183593	-0.544237	0.0206687	-0.180192	-0.202298	-0.656728	0.078683	-0.19094	0.062434	-0.22237	0.173256	-0.158809	0.244026	-0.258604	0.213503	0.233507	0.224919	-0.191839	0.242218	-0.12634	
5.513	5	0	0.134244	0.0144465	0.119956	-0.26573	-0.0187275	-0.313179	-0.086323	-0.243034	-0.173917	-0.443947	-0.122724	-0.00148	-0.180743	-0.538651	0.0236765	-0.177628	-0.197951	-0.654878	0.077815	-0.188487	0.059047	-0.212799	0.174711	-0.150263	0.241677	-0.251967	0.215851	0.239179	0.227053	-0.185004	0.23544	-0.117917	
5.55572	5	0	0.134975	0.0228847	0.117196	-0.257929	-0.0213487	-0.30577	-0.088375	-0.237235	-0.172311	-0.426403	-0.127349	0.0257175	-0.177893	-0.533066	0.0266842	-0.175064	-0.193604	-0.653027	0.076947	-0.186033	0.05566	-0.203227	0.176166	-0.141717	0.239328	-0.245329	0.218198	0.24485	0.229187	-0.178169	0.228663	-0.109495	
5.60455	5	0	0.135705	0.031323	0.114436	-0.250128	-0.02397	-0.298362	-0.090427	-0.231436	-0.170705	-0.40886	-0.131974	0.052915	-0.175043	-0.52748	0.029692	-0.172501	-0.189256	-0.651176	0.076079	-0.18358	0.052273	-0.193655	0.177621	-0.133172	0.23698	-0.238692	0.220546	0.250522	0.231322	-0.171334	0.221885	-0.101072	
5.67016	5	0	0.132514	0.029841	0.110671	-0.249667	-0.0398855	-0.285113	-0.099504	-0.227735	-0.173884	-0.410919	-0.134299	0.0453582	-0.180178	-0.526608	0.0287673	-0.180951	-0.195763	-0.646925	0.0696442	-0.185032	0.0439112	-0.191872	0.171795	-0.129365	0.229928	-0.234084	0.217226	0.259904	0.224452	-0.164786	0.224985	-0.0991013	
5.74646	5	0	0.129322	0.028359	0.106906	-0.249206	-0.055801	-0.271865	-0.108581	-0.224033	-0.177063	-0.412977	-0.136623	0.0378015	-0.185313	-0.525737	0.0278425	-0.189402	-0.202269	-0.642673	0.0632095	-0.186483	0.0355495	-0.190088	0.16597	-0.125559	0.222875	-0.229475	0.213906	0.269287	0.217582	-0.158238	0.228085	-0.0971305	
5.83496	5	0	0.126131	0.026877	0.10314	-0.248746	-0.0717165	-0.258616	-0.117658	-0.220331	-0.180243	-0.415036	-0.138948	0.0302448	-0.190448	-0.524865	0.0269177	-0.197852	-0.208776	-0.638421	0.0567747	-0.187935	0.0271877	-0.188304	0.160145	-0.121752	0.215823	-0.224867	0.210586	0.27867	0.210712	-0.15169	0.231185	-0.0951597	
5.92346	5	0	0.122939	0.025395	0.099375	-0.248285	-0.087632	-0.245367	-0.126735	-0.21663	-0.183422	-0.417094	-0.141272	0.022688	-0.195583	-0.523993	0.025993	-0.206303	-0.215283	-0.63417	0.05034	-0.189387	0.018826	-0.186521	0.154319	-0.117945	0.20877	-0.220259	0.207266	0.288052	0.203842	-0.145142	0.234285	-0.093189	
6.00586	5	0	0.118108	0.0285515	0.0965317	-0.250425	-0.0962365	-0.236894	-0.127761	-0.21373	-0.184374	-0.414405	-0.136162	0.0223728	-0.19444	-0.527222	0.024026	-0.211801	-0.226122	-0.631779	0.0512073	-0.191838	0.0196727	-0.188914	0.150683	-0.120319	0.205245	-0.225609	0.202709	0.288624	0.205737	-0.150498	0.226248	-0.091934	
6.07757	5	0	0.113277	0.031708	0.0936885	-0.252565	-0.104841	-0.22842	-0.128787	-0.21083	-0.185326	-0.411715	-0.131053	0.0220575	-0.193298	-0.530452	0.022059	-0.217299	-0.236961	-0.629387	0.0520745	-0.19429	0.0205195	-0.191306	0.147047	-0.122693	0.201721	-0.230959	0.198152	0.289196	0.207632	-0.155853	0.218212	-0.090679	
6.12793	5	0	0.108446	0.0348645	0.0908453	-0.254704	-0.113446	-0.219947	-0.129813	-0.20793	-0.186277	-0.409025	-0.125943	0.0217423	-0.192155	-0.533681	0.020092	-0.222797	-0.247801	-0.626996	0.0529418	-0.196741	0.0213662	-0.193699	0.143412	-0.125068	0.198196	-0.236308	0.193595	0.289769	0.209528	-0.161208	0.210175	-0.089424	
6.15692	5	0	0.103615	0.038021	0.088002	-0.256844	-0.12205	-0.211474	-0.130839	-0.20503	-0.187229	-0.406336	-0.120833	0.021427	-0.191012	-0.53691	0.018125	-0.228295	-0.25864	-0.624605	0.053809	-0.199192	0.022213	-0.196092	0.139776	-0.127442	0.194671	-0.241658	0.189038	0.290341	0.211423	-0.166564	0.202138	-0.088169	
6.16913	5	0	0.103615	0.038021	0.0889215	-0.259443	-0.12205	-0.211474	-0.135886	-0.201732	-0.191038	-0.39557	-0.129196	0.0450635	-0.198428	-0.529582	0.014079	-0.227911	-0.264053	-0.623413	0.0529418	-0.196741	0.0171895	-0.192809	0.143412	-0.125068	0.194671	-0.241658	0.190145	0.287214	0.206452	-0.165374	0.203057	-0.090767	
6.17065	5	0	0.103615	0.038021	0.089841	-0.262042	-0.12205	-0.211474	-0.140933	-0.198434	-0.194848	-0.384803	-0.13756	0.0687	-0.205844	-0.522253	0.010033	-0.227526	-0.269466	-0.622221	0.0520745	-0.19429	0.012166	-0.189527	0.147047	-0.122693	0.194671	-0.241658	0.191252	0.284086	0.201481	-0.164183	0.203977	-0.093365	
6.15539	5	0	0.103615	0.038021	0.0907605	-0.26464	-0.12205	-0.211474	-0.145981	-0.195136	-0.198658	-0.374037	-0.145923	0.0923365	-0.21326	-0.514925	0.005987	-0.227142	-0.274878	-0.621028	0.0512073	-0.191838	0.0071425	-0.186245	0.150683	-0.120319	0.194671	-0.241658	0.192358	0.280958	0.196509	-0.162993	0.204896	-0.095963	
6.12335	5	0	0.103615	0.038021	0.09168	-0.267239	-0.12205	-0.211474	-0.151028	-0.191838	-0.202467	-0.363271	-0.154286	0.115973	-0.220676	-0.507597	0.001941	-0.226758	-0.280291	-0.619836	0.05034	-0.189387	0.002119	-0.182962	0.154319	-0.117945	0.194671	-0.241658	0.193465	0.277831	0.191538	-0.161803	0.205815	-0.098561	
6.09283	5	0	0.102068	0.0319023	0.086915	-0.274106	-0.126713	-0.214127	-0.148976	-0.197637	-0.208815	-0.367401	-0.15521	0.104457	-0.218391	-0.514054	-0.0040655	-0.231864	-0.284621	-0.621693	0.047559	-0.191338	0.00048275	-0.189246	0.14705	-0.122692	0.188803	-0.240373	0.187805	0.28153	0.188464	-0.165963	0.204896	-0.095963	
6.04706	5	0	0.100521	0.0257835	0.08215	-0.280973	-0.131376	-0.21678	-0.146924	-0.203437	-0.215162	-0.37153	-0.156134	0.0929405	-0.216106	-0.520512	-0.010072	-0.236971	-0.28895	-0.623551	0.044778	-0.19329	-0.0011535	-0.19553	0.139781	-0.127439	0.182936	-0.239088	0.182144	0.285228	0.185389	-0.170124	0.203977	-0.093365	
5.99975	5	0	0.0989748	0.0196648	0.077385	-0.287841	-0.136039	-0.219434	-0.144872	-0.209236	-0.221509	-0.375659	-0.157057	0.0814243	-0.213821	-0.526969	-0.0160785	-0.242077	-0.29328	-0.625408	0.041997	-0.195241	-0.00278975	-0.201813	0.132512	-0.132185	0.177068	-0.237802	0.176484	0.288927	0.182315	-0.174285	0.203057	-0.090767	
5.95398	5	0	0.097428	0.013546	0.07262	-0.294708	-0.140702	-0.222087	-0.14282	-0.215035	-0.227857	-0.379789	-0.157981	0.069908	-0.211536	-0.533426	-0.022085	-0.247183	-0.29761	-0.627265	0.039216	-0.197192	-0.004426	-0.208097	0.125243	-0.136932	0.1712	-0.236517	0.170824	0.292626	0.17924	-0.178445	0.202138	-0.088169	
5.90515	5	0	0.0982477	0.011229	0.0744555	-0.299896	-0.140702	-0.222087	-0.147864	-0.211739	-0.229126	-0.387227	-0.153804	0.058103	-0.220645	-0.534914	-0.0200087	-0.253051	-0.305183	-0.634019	0.0400828	-0.199642	-0.010233	-0.213483	0.119074	-0.144753	0.174717	-0.246456	0.16959	0.283823	0.183967	-0.191804	0.199043	-0.0901405	
5.86548	5	0	0.0990675	0.008912	0.076291	-0.305084	-0.140702	-0.222087	-0.152908	-0.208443	-0.230395	-0.394664	-0.149626	0.046298	-0.229753	-0.536403	-0.0179325	-0.258918	-0.312756	-0.640773	0.0409495	-0.202092	-0.01604	-0.218869	0.112905	-0.152574	0.178233	-0.256396	0.168356	0.27502	0.188694	-0.205163	0.195947	-0.092112	
5.82886	5	0	0.0998873	0.006595	0.0781265	-0.310271	-0.140702	-0.222087	-0.157952	-0.205147	-0.231664	-0.402102	-0.145449	0.034493	-0.238862	-0.537891	-0.0158563	-0.264786	-0.32033	-0.647527	0.0418162	-0.204541	-0.021847	-0.224254	0.106737	-0.160395	0.18175	-0.266336	0.167122	0.266217	0.193421	-0.218523	0.192852	-0.0940835	
5.79376	5	0	0.100707	0.004278	0.079962	-0.315459	-0.140702	-0.222087	-0.162996	-0.201851	-0.232933	-0.40954	-0.141272	0.022688	-0.247971	-0.539379	-0.01378	-0.270654	-0.327903	-0.654281	0.042683	-0.206991	-0.027654	-0.22964	0.100568	-0.168216	0.185267	-0.276275	0.165888	0.257414	0.198148	-0.231882	0.189756	-0.096055	
5.76019	5	0	0.0967013	0.00511475	0.0715313	-0.311943	-0.147982	-0.21733	-0.164022	-0.198952	-0.238004	-0.406227	-0.151946	0.038738	-0.244551	-0.549046	-0.01378	-0.270654	-0.330073	-0.662211	0.0445972	-0.20259	-0.027654	-0.22964	0.105288	-0.168931	0.178232	-0.271678	0.169334	0.259965	0.195071	-0.236026	0.193771	-0.0966815	
5.7312	5	0	0.0926955	0.0059515	0.0631005	-0.308427	-0.155262	-0.212573	-0.165048	-0.196053	-0.243075	-0.402914	-0.16262	0.054788	-0.24113	-0.558712	-0.01378	-0.270654	-0.332243	-0.67014	0.0465115	-0.198189	-0.027654	-0.22964	0.110008	-0.169647	0.171196	-0.267081	0.17278	0.262516	0.191993	-0.240171	0.197786	-0.097308	
5.70526	5	0	0.0886897	0.00678825	0.0546698	-0.304912	-0.162543	-0.207816	-0.166073	-0.193154	-0.248146	-0.3996	-0.173294	0.070838	-0.237709	-0.568379	-0.01378	-0.270654	-0.334413	-0.678069	0.0484258	-0.193788	-0.027654	-0.22964	0.114727	-0.170362	0.164161	-0.262484	0.176226	0.265068	0.188916	-0.244315	0.2018	-0.0979345	
5.68237	5	0	0.084684	0.007625	0.046239	-0.301396	-0.169823	-0.203059	-0.167099	-0.190255	-0.253217	-0.396287	-0.183968	0.086888	-0.234289	-0.578046	-0.01378	-0.270654	-0.336583	-0.685999	0.05034	-0.189387	-0.027654	-0.22964	0.119447	-0.171077	0.157126	-0.257887	0.179672	0.267619	0.185839	-0.248459	0.205815	-0.098561	
5.68542	5	0	0.083956	-0.00079625	0.0452355	-0.308708	-0.181744	-0.200965	-0.171115	-0.18986	-0.254806	-0.413814	-0.183501	0.0714635	-0.238837	-0.592384	-0.016782	-0.273201	-0.344143	-0.692726	0.0440893	-0.181532	-0.033455	-0.235017	0.108921	-0.166568	0.157126	-0.257887	0.179799	0.279558	0.186783	-0.251126	0.207993	-0.0939905	
5.70221	5	0	0.083228	-0.0092175	0.044232	-0.316019	-0.193664	-0.198871	-0.17513	-0.189465	-0.256394	-0.43134	-0.183034	0.056039	-0.243385	-0.606723	-0.019784	-0.275747	-0.351704	-0.699453	0.0378385	-0.173678	-0.039256	-0.240395	0.0983955	-0.162059	0.157126	-0.257887	0.179926	0.291497	0.187727	-0.253793	0.210171	-0.08942	
5.7312	5	0	0.0825	-0.0176388	0.0432285	-0.32333	-0.205585	-0.196778	-0.179145	-0.18907	-0.257983	-0.448867	-0.182567	0.0406145	-0.247932	-0.621061	-0.022786	-0.278293	-0.359264	-0.706179	0.0315877	-0.165824	-0.045057	-0.245772	0.0878697	-0.15755	0.157126	-0.257887	0.180054	0.303436	0.18867	-0.25646	0.212349	-0.0848495	
5.77392	5	0	0.081772	-0.02606	0.042225	-0.330642	-0.217505	-0.194684	-0.183161	-0.188675	-0.259571	-0.466393	-0.1821	0.02519	-0.25248	-0.635399	-0.025788	-0.28084	-0.366824	-0.712906	0.025337	-0.157969	-0.050858	-0.251149	0.077344	-0.153041	0.157126	-0.257887	0.180181	0.315375	0.189614	-0.259127	0.214527	-0.080279	
5.8197	5	0	0.0825903	-0.0283728	0.045979	-0.331104	-0.210237	-0.199433	-0.182225	-0.180367	-0.264955	-0.473167	-0.183031	0.0137265	-0.261568	-0.636866	-0.022786	-0.278293	-0.382965	-0.70935	0.026379	-0.151103	-0.0500147	-0.253532	0.0737215	-0.155409	0.158297	-0.261198	0.180181	0.315375	0.191501	-0.264459	0.218547	-0.0809062	
5.85937	5	0	0.0834085	-0.0306855	0.049733	-0.331566	-0.202969	-0.204182	-0.181289	-0.172059	-0.270339	-0.47994	-0.183962	0.002263	-0.270656	-0.638332	-0.019784	-0.275747	-0.399106	-0.705793	0.027421	-0.144236	-0.0491715	-0.255916	0.070099	-0.157777	0.159469	-0.264508	0.180181	0.315375	0.193387	-0.26979	0.222566	-0.0815335	
5.88684	5	0	0.0842267	-0.0329982	0.053487	-0.332028	-0.195702	-0.208931	-0.180353	-0.163751	-0.275723	-0.486714	-0.184892	-0.0092005	-0.279744	-0.639799	-0.016782	-0.273201	-0.415246	-0.702236	0.028463	-0.13737	-0.0483283	-0.258299	0.0664765	-0.160145	0.160641	-0.267819	0.180181	0.315375	0.195274	-0.275122	0.226585	-0.0821608	
5.90362	5	0	0.085045	-0.035311	0.057241	-0.33249	-0.188434	-0.21368	-0.179417	-0.155443	-0.281107	-0.493488	-0.185823	-0.020664	-0.288832	-0.641266	-0.01378	-0.270654	-0.431387	-0.69868	0.029505	-0.130504	-0.047485	-0.260682	0.062854	-0.162513	0.161812	-0.27113	0.180181	0.315375	0.197161	-0.280454	0.230605	-0.082788	
5.9082	5	0	0.0834082	-0.030685	0.053573	-0.322124	-0.197012	-0.205228	-0.179512	-0.144215	-0.285216	-0.49286	-0.191379	-0.00496175	-0.288832	-0.641266	-0.00881	-0.262618	-0.426011	-0.699863	0.0350657	-0.126582	-0.046642	-0.263064	0.0711922	-0.160858	0.166504	-0.269104	0.18597	0.323636	0.201184	-0.278984	0.240836	-0.0794693	
5.90668	0	0	0.0817715	-0.026059	0.049905	-0.311758	-0.205591	-0.196775	-0.179607	-0.132988	-0.289326	-0.492231	-0.196935	0.0107405	-0.288832	-0.641266	-0.00384	-0.254582	-0.420636	-0.701047	0.0406265	-0.122661	-0.045799	-0.265447	0.0795305	-0.159202	0.171196	-0.267078	0.191758	0.331896	0.205207	-0.277514	0.251067	-0.0761505	
5.89905	0	0	0.0801348	-0.021433	0.046237	-0.301391	-0.214169	-0.188323	-0.179702	-0.12176	-0.293436	-0.491602	-0.202491	0.0264428	-0.288832	-0.641266	0.00113	-0.246547	-0.41526	-0.70223	0.0461872	-0.118739	-0.044956	-0.267829	0.0878687	-0.157547	0.175888	-0.265053	0.197547	0.340156	0.209231	-0.276044	0.261298	-0.0728318	
5.88074	0	0	0.078498	-0.016807	0.042569	-0.291025	-0.222747	-0.179871	-0.179797	-0.110532	-0.297545	-0.490974	-0.208047	0.042145	-0.288832	-0.641266	0.0061	-0.238511	-0.409884	-0.703414	0.051748	-0.114817	-0.044113	-0.270211	0.096207	-0.155892	0.18058	-0.263027	0.203336	0.348417	0.213254	-0.274574	0.271529	-0.069513	
5.85327	0	0	0.0841392	-0.0222715	0.0538415	-0.292407	-0.220127	-0.187276	-0.172787	-0.108404	-0.299142	-0.508412	-0.209904	0.019236	-0.291669	-0.64681	0.0101462	-0.238896	-0.410957	-0.700383	0.0527893	-0.107934	-0.0524363	-0.268434	0.0914912	-0.155179	0.179408	-0.259714	0.206906	0.36298	0.211367	-0.269239	0.2759	-0.0603445	
5.8258	0	0	0.0897805	-0.027736	0.065114	-0.29379	-0.217506	-0.194681	-0.165778	-0.106276	-0.300739	-0.52585	-0.211761	-0.003673	-0.294505	-0.652353	0.0141925	-0.239281	-0.412029	-0.697352	0.0538305	-0.101051	-0.0607595	-0.266657	0.0867755	-0.154467	0.178235	-0.256401	0.210477	0.377543	0.209479	-0.263904	0.28027	-0.051176	
5.79681	0	0	0.0954217	-0.0332005	0.0763865	-0.295173	-0.214886	-0.202086	-0.158768	-0.104149	-0.302336	-0.543287	-0.213618	-0.026582	-0.297342	-0.657896	0.0182387	-0.239667	-0.413102	-0.694321	0.0548717	-0.094168	-0.0690827	-0.264881	0.0820598	-0.153754	0.177063	-0.253087	0.214048	0.392106	0.207591	-0.258569	0.284641	-0.0420075	
5.76172	0	0	0.101063	-0.038665	0.087659	-0.296555	-0.212266	-0.209491	-0.151758	-0.102021	-0.303933	-0.560725	-0.215475	-0.049491	-0.300179	-0.66344	0.022285	-0.240052	-0.414174	-0.69129	0.055913	-0.087285	-0.077406	-0.263104	0.077344	-0.153041	0.175891	-0.249774	0.217618	0.406669	0.205704	-0.253234	0.289012	-0.032839	
5.73425	0	0	0.10826	-0.0380313	0.0933472	-0.292286	-0.206308	-0.210538	-0.14577	-0.0969793	-0.308366	-0.570122	-0.222878	-0.0566832	-0.299045	-0.666645	0.024253	-0.234557	-0.41632	-0.685225	0.058696	-0.0853185	-0.0748797	-0.270244	0.0737215	-0.155409	0.182932	-0.254375	0.218845	0.415541	0.206648	-0.255902	0.291198	-0.0282475	
5.70373	0	0	0.115457	-0.0373975	0.0990355	-0.288017	-0.20035	-0.211586	-0.139783	-0.0919375	-0.3128	-0.579518	-0.230281	-0.0638755	-0.297911	-0.66985	0.026221	-0.229061	-0.418466	-0.67916	0.061479	-0.083352	-0.0723535	-0.277384	0.070099	-0.157777	0.189973	-0.258976	0.220072	0.424413	0.207591	-0.25857	0.293384	-0.023656	
5.67779	0	0	0.122655	-0.0367637	0.104724	-0.283748	-0.194392	-0.212633	-0.133795	-0.0868957	-0.317233	-0.588915	-0.237684	-0.0710677	-0.296777	-0.673055	0.028189	-0.223566	-0.420612	-0.673095	0.064262	-0.0813855	-0.0698273	-0.284523	0.0664765	-0.160145	0.197014	-0.263577	0.221298	0.433285	0.208535	-0.261238	0.295569	-0.0190645	
5.65948	0	0	0.129852	-0.03613	0.110412	-0.279479	-0.188434	-0.21368	-0.127807	-0.081854	-0.321666	-0.598311	-0.245087	-0.07826	-0.295643	-0.67626	0.030157	-0.218071	-0.422758	-0.66703	0.067045	-0.079419	-0.067301	-0.291663	0.062854	-0.162513	0.204055	-0.268178	0.222525	0.442157	0.209479	-0.263906	0.297755	-0.014473	
5.63202	0	0	0.135419	-0.0308635	0.113343	-0.267397	-0.188434	-0.21368	-0.127907	-0.070579	-0.32892	-0.599709	-0.241387	-0.0746658	-0.297911	-0.669849	0.036178	-0.212953	-0.419527	-0.662141	0.067213	-0.0700575	-0.068985	-0.286904	0.0653862	-0.157064	0.202882	-0.264864	0.230551	0.444177	0.225345	-0.27017	0.303979	-0.0105048	
5.61371	0	0	0.140985	-0.025597	0.116275	-0.255315	-0.188434	-0.21368	-0.128007	-0.059304	-0.336175	-0.601108	-0.237686	-0.0710715	-0.30018	-0.663438	0.042199	-0.207836	-0.416296	-0.657253	0.067381	-0.060696	-0.070669	-0.282145	0.0679185	-0.151615	0.201709	-0.261549	0.238577	0.446196	0.241212	-0.276435	0.310202	-0.0065365	
5.59845	0	0	0.146552	-0.0203305	0.119206	-0.243233	-0.188434	-0.21368	-0.128108	-0.048029	-0.343429	-0.602506	-0.233986	-0.0674772	-0.302449	-0.657027	0.04822	-0.202718	-0.413065	-0.652364	0.067549	-0.0513345	-0.072353	-0.277385	0.0704508	-0.146166	0.200537	-0.258234	0.246603	0.448215	0.257078	-0.282699	0.316426	-0.00256825	
5.58472	0	0	0.152119	-0.015064	0.122138	-0.231151	-0.188434	-0.21368	-0.128208	-0.036754	-0.350683	-0.603904	-0.230286	-0.063883	-0.304717	-0.650616	0.054241	-0.197601	-0.409834	-0.647475	0.067717	-0.041973	-0.074037	-0.272626	0.072983	-0.140717	0.199364	-0.25492	0.254629	0.450235	0.272944	-0.288964	0.32265	0.0014	
5.57251	0	0	0.147285	-0.0119055	0.124064	-0.226402	-0.193083	-0.216333	-0.129241	-0.033835	-0.355442	-0.623255	-0.23724	-0.0863515	-0.301315	-0.660231	0.055283	-0.200546	-0.404451	-0.648657	0.0659717	-0.0370405	-0.079037	-0.269359	0.0718925	-0.137635	0.205238	-0.256209	0.258198	0.464882	0.27011	-0.280953	0.327028	0.010609	
5.56793	5	0	0.142452	-0.008747	0.12599	-0.221653	-0.197732	-0.218986	-0.130273	-0.030916	-0.360202	-0.642605	-0.244195	-0.10882	-0.297913	-0.669845	0.056325	-0.203491	-0.399068	-0.64984	0.0642265	-0.032108	-0.084037	-0.266092	0.070802	-0.134553	0.211111	-0.257498	0.261768	0.47953	0.267275	-0.272943	0.331406	0.019818	
5.56946	5	0	0.137618	-0.0055885	0.127915	-0.216903	-0.20238	-0.221639	-0.131306	-0.027997	-0.364961	-0.661956	-0.25115	-0.131289	-0.29451	-0.67946	0.057367	-0.206436	-0.393685	-0.651023	0.0624813	-0.0271755	-0.089037	-0.262825	0.0697115	-0.13147	0.216984	-0.258787	0.265338	0.494177	0.264441	-0.264933	0.335785	0.029027	
5.57251	5	0	0.132784	-0.00243	0.129841	-0.212154	-0.207029	-0.224292	-0.132339	-0.025078	-0.36972	-0.681307	-0.258104	-0.153757	-0.291108	-0.689075	0.058409	-0.209381	-0.388302	-0.652205	0.060736	-0.022243	-0.094037	-0.259558	0.068621	-0.128388	0.222858	-0.260076	0.268907	0.508824	0.261606	-0.256922	0.340163	0.038236	
5.58014	5	0	0.139172	0.0005275	0.129921	-0.202182	-0.207029	-0.224292	-0.130378	-0.019623	-0.373209	-0.693282	-0.259047	-0.165113	-0.289975	-0.692278	0.053314	-0.206052	-0.391528	-0.643088	0.059863	-0.0197755	-0.0931947	-0.261938	0.0697115	-0.13147	0.224031	-0.263392	0.267789	0.511984	0.261606	-0.256922	0.34328	0.0402275	
5.58472	5	0	0.14556	0.003485	0.130001	-0.192209	-0.207029	-0.224292	-0.128416	-0.014168	-0.376698	-0.705257	-0.259989	-0.176469	-0.288842	-0.69548	0.048219	-0.202722	-0.394754	-0.63397	0.05899	-0.017308	-0.0923525	-0.264317	0.070802	-0.134553	0.225205	-0.266707	0.266671	0.515143	0.261606	-0.256922	0.346397	0.042219	
5.59082	5	0	0.151947	0.0064425	0.13008	-0.182236	-0.207029	-0.224292	-0.126454	-0.008713	-0.380186	-0.717233	-0.260932	-0.187824	-0.287709	-0.698683	0.043124	-0.199393	-0.39798	-0.624853	0.058117	-0.0148405	-0.0915103	-0.266697	0.0718925	-0.137635	0.226378	-0.270022	0.265553	0.518302	0.261606	-0.256922	0.349514	0.0442105	
5.58929	5	0	0.158335	0.0094	0.13016	-0.172264	-0.207029	-0.224292	-0.124493	-0.003258	-0.383675	-0.729208	-0.261875	-0.19918	-0.286576	-0.701886	0.038029	-0.196064	-0.401206	-0.615735	0.057244	-0.012373	-0.090668	-0.269077	0.072983	-0.140717	0.227551	-0.273338	0.264435	0.521462	0.261606	-0.256922	0.352631	0.046202	
5.58472	5	0	0.1566	0.0248193	0.136859	-0.160572	-0.20238	-0.221639	-0.129667	0.0113655	-0.380525	-0.727197	-0.262311	-0.183927	-0.286005	-0.68994	0.042082	-0.196448	-0.392583	-0.612013	0.0636852	-0.010888	-0.088195	-0.265203	0.0791422	-0.132886	0.231083	-0.267996	0.265657	0.530388	0.263749	-0.250102	0.357942	0.052812	
5.57709	5	0	0.154864	0.0402385	0.143559	-0.148879	-0.197732	-0.218986	-0.134842	0.025989	-0.377375	-0.725186	-0.262748	-0.168674	-0.285434	-0.677993	0.046135	-0.196832	-0.38396	-0.60829	0.0701265	-0.009403	-0.085722	-0.261328	0.0853015	-0.125054	0.234615	-0.262653	0.266879	0.539315	0.265892	-0.243283	0.363253	0.059422	
5.5603	5	0	0.153129	0.0556577	0.150258	-0.137187	-0.193083	-0.216333	-0.140016	0.0406125	-0.374224	-0.723174	-0.263184	-0.153421	-0.284862	-0.666046	0.050188	-0.197217	-0.375337	-0.604567	0.0765678	-0.007918	-0.083249	-0.257454	0.0914608	-0.117223	0.238146	-0.257311	0.268101	0.548242	0.268036	-0.236463	0.368564	0.066032	
5.55115	5	0	0.151393	0.071077	0.156958	-0.125495	-0.188434	-0.21368	-0.145191	0.055236	-0.371074	-0.721163	-0.26362	-0.138168	-0.284291	-0.6541	0.054241	-0.197601	-0.366714	-0.600845	0.083009	-0.006433	-0.080776	-0.253579	0.09762	-0.109391	0.241678	-0.251969	0.269323	0.557168	0.270179	-0.229643	0.373875	0.072642	
5.53436	5	0	0.15057	0.0734025	0.158883	-0.120717	-0.188434	-0.21368	-0.142198	0.0577825	-0.373288	-0.72582	-0.267316	-0.141744	-0.275202	-0.652637	0.054241	-0.197601	-0.359156	-0.594069	0.084046	0.0004885	-0.082462	-0.248815	0.0957785	-0.091555	0.241683	-0.236647	0.270636	0.578241	0.270426	-0.217456	0.375469	0.0897827	
5.52521	5	0	0.149747	0.075728	0.160809	-0.11594	-0.188434	-0.21368	-0.139205	0.060329	-0.375503	-0.730477	-0.271011	-0.145321	-0.266112	-0.651174	0.054241	-0.197601	-0.351598	-0.587293	0.085083	0.00741	-0.084148	-0.244051	0.093937	-0.073719	0.241688	-0.221325	0.271949	0.599315	0.270673	-0.205269	0.377063	0.106924	
5.51605	5	0	0.148924	0.0780535	0.162735	-0.111162	-0.188434	-0.21368	-0.136212	0.0628755	-0.377717	-0.735134	-0.274706	-0.148898	-0.257023	-0.64971	0.054241	-0.197601	-0.344041	-0.580517	0.08612	0.0143315	-0.085834	-0.239286	0.0920955	-0.055883	0.241693	-0.206003	0.273262	0.620389	0.27092	-0.193081	0.378657	0.124064	
5.51758	5	0	0.148101	0.080379	0.16466	-0.106385	-0.188434	-0.21368	-0.133219	0.065422	-0.379931	-0.739791	-0.278402	-0.152474	-0.247934	-0.648247	0.054241	-0.197601	-0.336483	-0.573741	0.087157	0.021253	-0.08752	-0.234522	0.090254	-0.038047	0.241698	-0.190681	0.274575	0.641462	0.271167	-0.180894	0.380251	0.141205	
5.54352	5	0	0.149649	0.0865228	0.16944	-0.0994365	-0.183781	-0.211025	-0.1323	0.0738342	-0.380867	-0.737145	-0.27978	-0.148579	-0.245089	-0.642695	0.054241	-0.197601	-0.337562	-0.57069	0.0916937	0.0182885	-0.088363	-0.232139	0.0891588	-0.034952	0.246408	-0.188642	0.280284	0.637732	0.274256	-0.17673	0.377456	0.149102	
5.58014	5	0	0.151198	0.0926665	0.174219	-0.092488	-0.179128	-0.208369	-0.13138	0.0822465	-0.381803	-0.734499	-0.281158	-0.144683	-0.242245	-0.637143	0.054241	-0.197601	-0.338641	-0.56764	0.0962305	0.015324	-0.089206	-0.229756	0.0880635	-0.031857	0.251117	-0.186603	0.285994	0.634001	0.277345	-0.172566	0.374662	0.157	
5.62591	5	0	0.152747	0.0988103	0.178999	-0.0855395	-0.174476	-0.205714	-0.13046	0.0906588	-0.382739	-0.731854	-0.282537	-0.140788	-0.2394	-0.631591	0.054241	-0.197601	-0.339721	-0.564589	0.100767	0.0123595	-0.090049	-0.227373	0.0869682	-0.028762	0.255827	-0.184565	0.291703	0.63027	0.280434	-0.168402	0.371868	0.164897	
5.67169	5	0	0.154295	0.104954	0.183779	-0.078591	-0.169823	-0.203059	-0.129541	0.099071	-0.383675	-0.729208	-0.283915	-0.136892	-0.236556	-0.626039	0.054241	-0.197601	-0.3408	-0.561539	0.105304	0.009395	-0.090892	-0.22499	0.085873	-0.025667	0.260536	-0.182526	0.297412	0.62654	0.283523	-0.164238	0.369073	0.172794	
5.70679	5	0	0.151717	0.122766	0.181059	-0.0606687	-0.175072	-0.188224	-0.130703	0.113372	-0.375157	-0.720519	-0.28067	-0.118011	-0.230865	-0.614913	0.057254	-0.19504	-0.331071	-0.560855	0.107218	0.0138493	-0.0901088	-0.216334	0.097857	-0.021588	0.264071	-0.177154	0.29404	0.636069	0.285664	-0.157384	0.370329	0.180077	
5.73425	5	0	0.149139	0.140578	0.17834	-0.0427465	-0.180321	-0.173389	-0.131864	0.127673	-0.366639	-0.71183	-0.277426	-0.0991305	-0.225173	-0.603787	0.060267	-0.192478	-0.321343	-0.560171	0.109131	0.0183035	-0.0893255	-0.207678	0.109841	-0.017509	0.267605	-0.171783	0.290668	0.645598	0.287804	-0.150531	0.371584	0.18736	
5.75409	5	0	0.146561	0.15839	0.175621	-0.0248243	-0.18557	-0.158555	-0.133026	0.141975	-0.358121	-0.703141	-0.274181	-0.0802498	-0.219482	-0.59266	0.06328	-0.189916	-0.311615	-0.559487	0.111045	0.0227578	-0.0885423	-0.199022	0.121825	-0.01343	0.27114	-0.166411	0.287297	0.655128	0.289944	-0.143678	0.37284	0.194643	
5.76324	5	0	0.143983	0.176202	0.172901	-0.006902	-0.190819	-0.14372	-0.134188	0.156276	-0.349603	-0.694452	-0.270937	-0.061369	-0.213791	-0.581534	0.066293	-0.187355	-0.301886	-0.558803	0.112959	0.027212	-0.087759	-0.190366	0.133809	-0.009351	0.274675	-0.161039	0.283925	0.664657	0.292085	-0.136824	0.374096	0.201926	
5.76935	5	0	0.143157	0.178536	0.171971	-0.0042735	-0.186167	-0.14105	-0.140299	0.162528	-0.354297	-0.681184	-0.277859	-0.0418058	-0.213227	-0.569507	0.06525	-0.184407	-0.297557	-0.556934	0.114873	0.0316712	-0.0836613	-0.180188	0.137782	0.00476075	0.274668	-0.145646	0.281756	0.683199	0.28638	-0.120699	0.377538	0.213882	
5.7663	5	0	0.142331	0.18087	0.171041	-0.001645	-0.181514	-0.13838	-0.14641	0.168781	-0.358992	-0.667917	-0.284781	-0.0222425	-0.212664	-0.55748	0.064207	-0.181459	-0.293227	-0.555066	0.116787	0.0361305	-0.0795635	-0.17001	0.141756	0.0188725	0.274662	-0.130253	0.279588	0.701741	0.280674	-0.104574	0.38098	0.225837	
5.75714	5	0	0.141506	0.183203	0.170111	0.0009835	-0.176862	-0.135711	-0.152521	0.175034	-0.363687	-0.654649	-0.291703	-0.00267925	-0.2121	-0.545453	0.063164	-0.178511	-0.288897	-0.553198	0.1187	0.0405898	-0.0754657	-0.159832	0.145729	0.0329842	0.274655	-0.114861	0.27742	0.720282	0.274968	-0.088449	0.384422	0.237792	
5.74188	5	0	0.14068	0.185537	0.169181	0.003612	-0.17221	-0.133041	-0.158632	0.181286	-0.368381	-0.641381	-0.298625	0.016884	-0.211536	-0.533426	0.062121	-0.175563	-0.284568	-0.551329	0.120614	0.045049	-0.071368	-0.149654	0.149702	0.047096	0.274648	-0.099468	0.275251	0.738824	0.269263	-0.072324	0.387864	0.249748	
5.72357	5	0	0.134183	0.193372	0.163539	0.00932	-0.17949	-0.128284	-0.159672	0.184226	-0.370261	-0.636068	-0.300011	0.0208018	-0.208691	-0.527837	0.062121	-0.175563	-0.280235	-0.549459	0.125158	0.0420797	-0.0730605	-0.144871	0.144968	0.0478	0.273466	-0.0961277	0.275251	0.738824	0.273301	-0.0708255	0.385994	0.255034	
5.70526	5	0	0.127686	0.201207	0.157897	0.015028	-0.186771	-0.123527	-0.160712	0.187167	-0.372141	-0.630756	-0.301398	0.0247195	-0.205846	-0.522249	0.062121	-0.175563	-0.275902	-0.547589	0.129702	0.0391105	-0.074753	-0.140088	0.140234	0.048504	0.272284	-0.0927875	0.275251	0.738824	0.27734	-0.069327	0.384124	0.260319	
5.68695	5	0	0.121189	0.209043	0.152256	0.020736	-0.194051	-0.11877	-0.161753	0.190107	-0.374021	-0.625443	-0.302785	0.0286372	-0.203	-0.51666	0.062121	-0.175563	-0.271568	-0.54572	0.134246	0.0361412	-0.0764455	-0.135304	0.1355	0.049208	0.271102	-0.0894473	0.275251	0.738824	0.281378	-0.0678285	0.382253	0.265605	
5.66101	5	0	0.114692	0.216878	0.146614	0.026444	-0.201331	-0.114013	-0.162793	0.193047	-0.375901	-0.62013	-0.304171	0.032555	-0.200155	-0.511071	0.062121	-0.175563	-0.267235	-0.54385	0.13879	0.033172	-0.078138	-0.130521	0.130766	0.049912	0.26992	-0.086107	0.275251	0.738824	0.285417	-0.06633	0.380383	0.270891	
5.63812	5	0	0.119422	0.224569	0.14667	0.0365238	-0.199313	-0.103898	-0.162929	0.204449	-0.368326	-0.608718	-0.291709	0.039492	-0.199599	-0.499004	0.065135	-0.172997	-0.268317	-0.540791	0.14246	0.032678	-0.072347	-0.125103	0.1355	0.049208	0.267555	-0.0794222	0.271867	0.748387	0.283512	-0.0609452	0.378512	0.27618	
5.61981	5	0	0.124152	0.232259	0.146725	0.0466035	-0.197295	-0.0937835	-0.163065	0.21585	-0.36075	-0.597306	-0.279247	0.046429	-0.199042	-0.486936	0.068149	-0.170432	-0.2694	-0.537732	0.14613	0.032184	-0.066556	-0.119684	0.140234	0.048504	0.265189	-0.0727375	0.268483	0.75795	0.281606	-0.0555605	0.37664	0.281469	
5.5954	5	0	0.128882	0.239949	0.14678	0.0566833	-0.195277	-0.0836688	-0.1632	0.227251	-0.353175	-0.585894	-0.266786	0.053366	-0.198485	-0.474869	0.071163	-0.167867	-0.270483	-0.534673	0.149801	0.03169	-0.060765	-0.114265	0.144968	0.0478	0.262824	-0.0660527	0.265099	0.767514	0.279701	-0.0501757	0.374769	0.286759	
5.57251	5	0	0.133612	0.24764	0.146836	0.066763	-0.193259	-0.073554	-0.163336	0.238653	-0.3456	-0.574482	-0.254324	0.060303	-0.197929	-0.462801	0.074177	-0.165301	-0.271565	-0.531614	0.153471	0.031196	-0.054974	-0.108847	0.149702	0.047096	0.260459	-0.059368	0.261715	0.777077	0.277796	-0.044791	0.372897	0.292048	
5.5542	5	0	0.127109	0.255487	0.141192	0.0724755	-0.193259	-0.073554	-0.165421	0.244546	-0.349052	-0.553773	-0.253896	0.0872508	-0.195084	-0.45719	0.0761478	-0.159781	-0.273731	-0.525493	0.154512	0.0381382	-0.0550465	-0.0977408	0.15257	0.064367	0.262805	-0.0506112	0.265243	0.791958	0.271118	-0.025919	0.373207	0.302021	
5.53436	5	0	0.120606	0.263333	0.135549	0.078188	-0.193259	-0.073554	-0.167506	0.250439	-0.352504	-0.533064	-0.253468	0.114199	-0.19224	-0.451579	0.0781185	-0.154261	-0.275896	-0.519372	0.155552	0.0450805	-0.055119	-0.0866345	0.155438	0.081638	0.265151	-0.0418545	0.268771	0.806839	0.26444	-0.007047	0.373518	0.311994	
