0.752	4.79889	5	0	-0.002723	0.049075	-0.032842	0.07227	-0.061683	0.098375	-0.042314	0.111705	-0.065999	0.085557	-0.075799	0.101872	-0.04321	0.065334	-0.042397	0.086295	-0.130207	0.168326	-0.100269	0.100923	-0.050674	0.049112	-0.114593	0.148505	-0.1175	0.147038	-0.095628	0.174095	-0.126902	0.089651	-0.078853	0.129448	
0.748088	4.78973	5	0	0.00136825	0.0484077	-0.0316948	0.0690277	-0.0554417	0.0942967	-0.0433025	0.114499	-0.0688155	0.0834297	-0.080344	0.101963	-0.0466177	0.0631425	-0.0479045	0.0898937	-0.135604	0.171852	-0.105144	0.104108	-0.054322	0.0498288	-0.118251	0.145778	-0.114503	0.138569	-0.0977802	0.168741	-0.124321	0.0823577	-0.081028	0.124744	
0.745014	4.78363	5	0	0.0054595	0.0477405	-0.0305475	0.0657855	-0.0492005	0.0902185	-0.044291	0.117292	-0.071632	0.0813025	-0.084889	0.102055	-0.0500255	0.060951	-0.053412	0.0934925	-0.141001	0.175378	-0.110019	0.107293	-0.05797	0.0505455	-0.12191	0.14305	-0.111506	0.1301	-0.0999325	0.163386	-0.121741	0.0750645	-0.083203	0.120039	
0.742724	4.776	5	0	0.00955075	0.0470733	-0.0294003	0.0625432	-0.0429593	0.0861403	-0.0452795	0.120086	-0.0744485	0.0791753	-0.089434	0.102147	-0.0534333	0.0587595	-0.0589195	0.0970913	-0.146397	0.178905	-0.114894	0.110479	-0.061618	0.0512622	-0.125568	0.140322	-0.10851	0.121631	-0.102085	0.158031	-0.11916	0.0677713	-0.085378	0.115335	
0.741162	4.76684	5	0	0.013642	0.046406	-0.028253	0.059301	-0.036718	0.082062	-0.046268	0.12288	-0.077265	0.077048	-0.093979	0.102238	-0.056841	0.056568	-0.064427	0.10069	-0.151794	0.182431	-0.119769	0.113664	-0.065266	0.051979	-0.129226	0.137595	-0.105513	0.113162	-0.104237	0.152677	-0.116579	0.060478	-0.087553	0.11063	
0.740272	4.76227	5	0	0.009946	0.0568513	-0.0287388	0.0720905	-0.046577	0.0963642	-0.0537677	0.134228	-0.077265	0.077048	-0.0953037	0.105982	-0.0578575	0.059441	-0.0589195	0.0970913	-0.151794	0.182431	-0.119769	0.113664	-0.065266	0.051979	-0.129226	0.137595	-0.104515	0.110341	-0.108461	0.153185	-0.121818	0.058299	-0.090666	0.108583	
0.74	4.75006	5	0	0.00625	0.0672965	-0.0292245	0.08488	-0.056436	0.110667	-0.0612675	0.145576	-0.077265	0.077048	-0.0966285	0.109726	-0.058874	0.062314	-0.053412	0.0934925	-0.151794	0.182431	-0.119769	0.113664	-0.065266	0.051979	-0.129226	0.137595	-0.103516	0.107519	-0.112685	0.153693	-0.127058	0.05612	-0.093779	0.106537	
0.740289	4.74701	5	0	0.002554	0.0777417	-0.0297103	0.0976695	-0.066295	0.124969	-0.0687673	0.156925	-0.077265	0.077048	-0.0979533	0.113469	-0.0598905	0.065187	-0.0479045	0.0898937	-0.151794	0.182431	-0.119769	0.113664	-0.065266	0.051979	-0.129226	0.137595	-0.102518	0.104698	-0.11691	0.154201	-0.132297	0.053941	-0.096892	0.104491	
0.741085	4.7409	5	0	-0.001142	0.088187	-0.030196	0.110459	-0.076154	0.139271	-0.076267	0.168273	-0.077265	0.077048	-0.099278	0.117213	-0.060907	0.06806	-0.042397	0.086295	-0.151794	0.182431	-0.119769	0.113664	-0.065266	0.051979	-0.129226	0.137595	-0.10152	0.101877	-0.121134	0.154709	-0.137537	0.051762	-0.100005	0.102444	
0.742333	4.73633	5	0	-0.0002175	0.0855745	-0.033153	0.1074	-0.0749475	0.135862	-0.076267	0.168273	-0.0791677	0.0723445	-0.101171	0.109819	-0.0588743	0.062315	-0.045495	0.0830845	-0.153694	0.187801	-0.124641	0.116848	-0.0696792	0.0548628	-0.136413	0.144849	-0.0994373	0.109196	-0.120022	0.162995	-0.140116	0.0590495	-0.094717	0.109195	
0.743976	4.73022	5	0	0.000707	0.082962	-0.03611	0.104341	-0.073741	0.132453	-0.076267	0.168273	-0.0810705	0.067641	-0.103064	0.102426	-0.0568415	0.05657	-0.048593	0.079874	-0.155594	0.193171	-0.129513	0.120031	-0.0740925	0.0577465	-0.1436	0.152104	-0.0973545	0.116515	-0.118909	0.171282	-0.142694	0.066337	-0.089429	0.115946	
0.74596	4.72259	5	0	0.0016315	0.0803495	-0.039067	0.101281	-0.0725345	0.129043	-0.076267	0.168273	-0.0829732	0.0629375	-0.104957	0.0950317	-0.0548088	0.050825	-0.051691	0.0766635	-0.157494	0.198541	-0.134385	0.123215	-0.0785058	0.0606302	-0.150787	0.159359	-0.0952717	0.123834	-0.117796	0.179568	-0.145272	0.0736245	-0.084141	0.122697	
0.748229	4.71802	5	0	0.002556	0.077737	-0.042024	0.098222	-0.071328	0.125634	-0.076267	0.168273	-0.084876	0.058234	-0.10685	0.087638	-0.052776	0.04508	-0.054789	0.073453	-0.159394	0.203911	-0.139257	0.126398	-0.082919	0.063514	-0.157974	0.166613	-0.093189	0.131153	-0.116684	0.187854	-0.147851	0.080912	-0.078853	0.129448	
0.75067	4.71649	5	0	0.00348	0.0751253	-0.040876	0.0949775	-0.0701222	0.122226	-0.0752775	0.165476	-0.0821415	0.0505053	-0.110066	0.0839918	-0.0497293	0.0364693	-0.053585	0.07005	-0.158444	0.201226	-0.143094	0.126664	-0.0821518	0.061346	-0.155619	0.159958	-0.0932762	0.118194	-0.115724	0.173711	-0.150507	0.071447	-0.0772728	0.114131	
0.753001	4.70734	5	0	0.004404	0.0725135	-0.039728	0.091733	-0.0689165	0.118818	-0.074288	0.16268	-0.079407	0.0427765	-0.113283	0.0803455	-0.0466825	0.0278585	-0.052381	0.066647	-0.157494	0.19854	-0.146932	0.12693	-0.0813845	0.059178	-0.153264	0.153304	-0.0933635	0.105235	-0.114765	0.159569	-0.153163	0.061982	-0.0756925	0.0988135	
0.754904	4.70276	5	0	0.005328	0.0699017	-0.03858	0.0884885	-0.0677108	0.11541	-0.0732985	0.159884	-0.0766725	0.0350478	-0.116499	0.0766992	-0.0436358	0.0192478	-0.051177	0.063244	-0.156543	0.195855	-0.15077	0.127195	-0.0806173	0.05701	-0.15091	0.146649	-0.0934507	0.0922767	-0.113806	0.145427	-0.155819	0.052517	-0.0741123	0.0834963	
0.756064	4.70123	5	0	0.006252	0.06729	-0.037432	0.085244	-0.066505	0.112002	-0.072309	0.157087	-0.073938	0.027319	-0.119715	0.073053	-0.040589	0.010637	-0.049973	0.059841	-0.155593	0.193169	-0.154607	0.127461	-0.07985	0.054842	-0.148555	0.139994	-0.093538	0.079318	-0.112846	0.131284	-0.158475	0.043052	-0.072532	0.068179	
0.756163	4.69665	5	0	0.003479	0.0751273	-0.0315148	0.0913605	-0.0626758	0.114741	-0.0707462	0.162518	-0.0702093	0.0268625	-0.121037	0.0767903	-0.0416043	0.0135065	-0.0523815	0.066648	-0.154643	0.190485	-0.155639	0.130377	-0.07985	0.054842	-0.153384	0.140593	-0.098614	0.080468	-0.110775	0.125432	-0.164992	0.0445128	-0.072532	0.068179	
0.754887	4.6936	5	0	0.000706	0.0829645	-0.0255975	0.097477	-0.0588465	0.11748	-0.0691835	0.167949	-0.0664805	0.026406	-0.12236	0.0805275	-0.0426195	0.016376	-0.05479	0.073455	-0.153694	0.1878	-0.156671	0.133293	-0.07985	0.054842	-0.158212	0.141191	-0.10369	0.081618	-0.108705	0.11958	-0.171508	0.0459735	-0.072532	0.068179	
0.752192	4.68902	5	0	-0.002067	0.0908018	-0.0196802	0.103594	-0.0550172	0.120219	-0.0676208	0.173379	-0.0627517	0.0259495	-0.123682	0.0842647	-0.0436347	0.0192455	-0.0571985	0.080262	-0.152744	0.185116	-0.157703	0.136209	-0.07985	0.054842	-0.16304	0.141789	-0.108766	0.082768	-0.106634	0.113727	-0.178025	0.0474342	-0.072532	0.068179	
0.748963	4.6875	5	0	-0.00484	0.098639	-0.013763	0.10971	-0.051188	0.122958	-0.066058	0.17881	-0.059023	0.025493	-0.125004	0.088002	-0.04465	0.022115	-0.059607	0.087069	-0.151794	0.182431	-0.158735	0.139125	-0.07985	0.054842	-0.167869	0.142388	-0.113842	0.083918	-0.104563	0.107875	-0.184541	0.048895	-0.072532	0.068179	
0.74628	4.6814	5	0	-0.002067	0.0908018	-0.0208282	0.106838	-0.0550172	0.120219	-0.0731398	0.179136	-0.0618405	0.0233747	-0.132185	0.0955685	-0.047043	0.017063	-0.0584025	0.083665	-0.157187	0.185955	-0.159767	0.142042	-0.0806173	0.05701	-0.170223	0.14904	-0.11176	0.091229	-0.105519	0.122006	-0.18189	0.0583585	-0.0681752	0.0775743	
0.745223	4.67987	5	0	0.000706	0.0829645	-0.0278935	0.103966	-0.0588465	0.11748	-0.0802215	0.179461	-0.064658	0.0212565	-0.139365	0.103135	-0.049436	0.012011	-0.057198	0.080261	-0.16258	0.189479	-0.160799	0.14496	-0.0813845	0.059178	-0.172576	0.155693	-0.109677	0.09854	-0.106474	0.136136	-0.179239	0.067822	-0.0638185	0.0869695	
0.74687	4.67834	5	0	0.003479	0.0751273	-0.0349587	0.101094	-0.0626758	0.114741	-0.0873032	0.179786	-0.0674755	0.0191382	-0.146545	0.110701	-0.051829	0.006959	-0.0559935	0.076857	-0.167973	0.193003	-0.161831	0.147877	-0.0821518	0.061346	-0.17493	0.162345	-0.107595	0.105851	-0.107429	0.150267	-0.176588	0.0772855	-0.0594618	0.0963647	
0.752303	4.67987	5	0	0.006252	0.06729	-0.042024	0.098222	-0.066505	0.112002	-0.094385	0.180112	-0.070293	0.01702	-0.153726	0.118268	-0.054222	0.001907	-0.054789	0.073453	-0.173366	0.196527	-0.162863	0.150794	-0.082919	0.063514	-0.177284	0.168997	-0.105513	0.113162	-0.108385	0.164398	-0.173937	0.086749	-0.055105	0.10576	
0.761656	4.67987	5	0	0.007176	0.0646793	-0.0397285	0.091734	-0.0652995	0.108595	-0.0898555	0.177152	-0.0684717	0.0118728	-0.152403	0.114529	-0.0532077	-0.0009595	-0.060293	0.0770492	-0.172417	0.193843	-0.157994	0.147612	-0.0821518	0.061346	-0.17493	0.162345	-0.102519	0.104701	-0.108465	0.153193	-0.177875	0.080924	-0.0563447	0.0984063	
0.771709	4.6814	5	0	0.0081	0.0620685	-0.037433	0.085246	-0.064094	0.105189	-0.085326	0.174193	-0.0666505	0.0067255	-0.15108	0.11079	-0.0521935	-0.003826	-0.065797	0.0806455	-0.171467	0.191159	-0.153124	0.144431	-0.0813845	0.059178	-0.172576	0.155693	-0.0995255	0.09624	-0.108544	0.141988	-0.181814	0.075099	-0.0575845	0.0910525	
0.7785	4.6814	5	0	0.009024	0.0594578	-0.0351375	0.078758	-0.0628885	0.101782	-0.0807965	0.171233	-0.0648292	0.00157825	-0.149757	0.107051	-0.0511793	-0.0066925	-0.071301	0.0842418	-0.170517	0.188475	-0.148255	0.141249	-0.0806173	0.05701	-0.170223	0.14904	-0.0965317	0.087779	-0.108624	0.130783	-0.185752	0.069274	-0.0588243	0.0836988	
0.778064	4.67834	5	0	0.009948	0.056847	-0.032842	0.07227	-0.061683	0.098375	-0.076267	0.168273	-0.063008	-0.003569	-0.148434	0.103312	-0.050165	-0.009559	-0.076805	0.087838	-0.169568	0.185791	-0.143386	0.138067	-0.07985	0.054842	-0.167869	0.142388	-0.093538	0.079318	-0.108704	0.119578	-0.18969	0.063449	-0.060064	0.076345	
0.766439	4.67224	5	0	0.005326	0.069909	-0.0344795	0.0883145	-0.0640943	0.10519	-0.075696	0.176506	-0.0611002	0.001121	-0.146547	0.110706	-0.047771	-0.00451	-0.0694083	0.090859	-0.169568	0.185791	-0.143386	0.138067	-0.07985	0.054842	-0.160687	0.13514	-0.0925408	0.0764995	-0.103443	0.116141	-0.190978	0.0670888	-0.060064	0.076345	
0.739665	4.67224	5	0	0.000704	0.082971	-0.036117	0.104359	-0.0665055	0.112005	-0.075125	0.18474	-0.0591925	0.005811	-0.144661	0.1181	-0.045377	0.000539	-0.0620115	0.09388	-0.169568	0.185791	-0.143386	0.138067	-0.07985	0.054842	-0.153506	0.127891	-0.0915435	0.073681	-0.098182	0.112703	-0.192266	0.0707285	-0.060064	0.076345	
0.697142	4.66919	5	0	-0.003918	0.096033	-0.0377545	0.120404	-0.0689167	0.118819	-0.074554	0.192973	-0.0572848	0.010501	-0.142774	0.125495	-0.042983	0.005588	-0.0546148	0.096901	-0.169568	0.185791	-0.143386	0.138067	-0.07985	0.054842	-0.146324	0.120643	-0.0905462	0.0708625	-0.092921	0.109266	-0.193554	0.0743682	-0.060064	0.076345	
0.648381	4.66614	5	0	-0.00854	0.109095	-0.039392	0.136448	-0.071328	0.125634	-0.073983	0.201206	-0.055377	0.015191	-0.140887	0.132889	-0.040589	0.010637	-0.047218	0.099922	-0.169568	0.185791	-0.143386	0.138067	-0.07985	0.054842	-0.139143	0.113395	-0.089549	0.068044	-0.08766	0.105828	-0.194842	0.078008	-0.060064	0.076345	
0.604781	4.66003	5	0	-0.011705	0.107145	-0.0411985	0.130137	-0.0689167	0.118819	-0.0810635	0.201528	-0.0581953	0.0130742	-0.140887	0.132889	-0.039574	0.00776875	-0.0527255	0.103521	-0.171467	0.19116	-0.145451	0.143904	-0.07985	0.054842	-0.142673	0.123371	-0.090459	0.0838212	-0.0886145	0.119962	-0.193486	0.091131	-0.0625862	0.0943305	
0.577745	4.66003	5	0	-0.01487	0.105194	-0.043005	0.123827	-0.0665055	0.112005	-0.088144	0.20185	-0.0610135	0.0109575	-0.140887	0.132889	-0.038559	0.0049005	-0.058233	0.10712	-0.173367	0.196528	-0.147516	0.149741	-0.07985	0.054842	-0.146203	0.133348	-0.091369	0.0995985	-0.089569	0.134097	-0.19213	0.104254	-0.0651085	0.112316	
0.578246	4.65698	5	0	-0.018035	0.103243	-0.0448115	0.117516	-0.0640943	0.10519	-0.0952245	0.202173	-0.0638318	0.00884075	-0.140887	0.132889	-0.037544	0.00203225	-0.0637405	0.110718	-0.175266	0.201897	-0.149582	0.155578	-0.07985	0.054842	-0.149733	0.143324	-0.092279	0.115376	-0.0905235	0.148232	-0.190773	0.117377	-0.0676307	0.130302	
0.607583	4.65393	5	0	-0.0212	0.101293	-0.046618	0.111205	-0.061683	0.098375	-0.102305	0.202495	-0.06665	0.006724	-0.140887	0.132889	-0.036529	-0.000836	-0.069248	0.114317	-0.177166	0.207265	-0.151647	0.161415	-0.07985	0.054842	-0.153263	0.153301	-0.093189	0.131153	-0.091478	0.162366	-0.189417	0.1305	-0.070153	0.148287	
0.657487	4.64935	5	0	-0.0161855	0.0980165	-0.0454695	0.107959	-0.0554417	0.0942967	-0.102305	0.202495	-0.06665	0.006724	-0.140887	0.132889	-0.037544	0.00203225	-0.0680427	0.11091	-0.177166	0.207265	-0.150614	0.158496	-0.07985	0.054842	-0.156915	0.150573	-0.09219	0.128329	-0.0894038	0.156504	-0.188127	0.126853	-0.074209	0.148893	
0.719279	4.65393	5	0	-0.011171	0.09474	-0.044321	0.104714	-0.0492005	0.0902185	-0.102305	0.202495	-0.06665	0.006724	-0.140887	0.132889	-0.038559	0.0049005	-0.0668375	0.107504	-0.177166	0.207265	-0.149582	0.155577	-0.07985	0.054842	-0.160566	0.147844	-0.091191	0.125505	-0.0873295	0.150642	-0.186836	0.123205	-0.078265	0.149499	
0.784279	4.65088	5	0	-0.0061565	0.0914635	-0.0431725	0.101468	-0.0429593	0.0861403	-0.102305	0.202495	-0.06665	0.006724	-0.140887	0.132889	-0.039574	0.00776875	-0.0656323	0.104097	-0.177166	0.207265	-0.148549	0.152658	-0.07985	0.054842	-0.164217	0.145116	-0.090192	0.122682	-0.0852553	0.14478	-0.185546	0.119557	-0.082321	0.150105	
0.843809	4.64935	5	0	-0.001142	0.088187	-0.042024	0.098222	-0.036718	0.082062	-0.102305	0.202495	-0.06665	0.006724	-0.140887	0.132889	-0.040589	0.010637	-0.064427	0.10069	-0.177166	0.207265	-0.147516	0.149739	-0.07985	0.054842	-0.167869	0.142388	-0.089193	0.119858	-0.083181	0.138918	-0.184255	0.11591	-0.086377	0.150711	
0.88919	4.65088	5	0	-0.004842	0.0986443	-0.0425162	0.111029	-0.0391293	0.0888768	-0.104286	0.208094	-0.0647433	0.0114162	-0.142212	0.136633	-0.0381947	0.0156923	-0.0613307	0.103906	-0.172723	0.206427	-0.147516	0.149739	-0.07985	0.054842	-0.160687	0.13514	-0.0841102	0.118708	-0.084218	0.141849	-0.186837	0.123206	-0.082321	0.150105	
0.911777	4.6463	5	0	-0.008542	0.109101	-0.0430085	0.123836	-0.0415405	0.0956915	-0.106267	0.213693	-0.0628365	0.0161085	-0.143537	0.140377	-0.0358005	0.0207475	-0.0582345	0.107122	-0.16828	0.205588	-0.147516	0.149739	-0.07985	0.054842	-0.153506	0.127891	-0.0790275	0.117558	-0.085255	0.144779	-0.189418	0.130502	-0.078265	0.149499	
0.907844	4.64935	5	0	-0.012242	0.119559	-0.0435007	0.136643	-0.0439517	0.102506	-0.108249	0.219292	-0.0609297	0.0208007	-0.144861	0.14412	-0.0334062	0.0258027	-0.0551382	0.110338	-0.163837	0.20475	-0.147516	0.149739	-0.07985	0.054842	-0.146324	0.120643	-0.0739448	0.116407	-0.086292	0.147709	-0.192	0.137799	-0.074209	0.148893	
0.883708	4.6463	5	0	-0.015942	0.130016	-0.043993	0.14945	-0.046363	0.109321	-0.11023	0.224891	-0.059023	0.025493	-0.146186	0.147864	-0.031012	0.030858	-0.052042	0.113554	-0.159394	0.203911	-0.147516	0.149739	-0.07985	0.054842	-0.139143	0.113395	-0.068862	0.115257	-0.087329	0.15064	-0.194582	0.145095	-0.070153	0.148287	
0.84691	4.64325	5	0	-0.019106	0.128062	-0.0469475	0.146383	-0.0513985	0.109991	-0.108249	0.219292	-0.0562897	0.0177687	-0.149395	0.144205	-0.035437	0.0315423	-0.0563435	0.113745	-0.162887	0.202065	-0.148257	0.141254	-0.083494	0.0555568	-0.145275	0.104637	-0.07204	0.0978192	-0.0927575	0.131691	-0.201156	0.129778	-0.075739	0.131522	
0.804991	4.64477	5	0	-0.02227	0.126109	-0.049902	0.143317	-0.056434	0.110661	-0.106267	0.213693	-0.0535565	0.0100445	-0.152604	0.140547	-0.039862	0.0322265	-0.060645	0.113935	-0.16638	0.200219	-0.148999	0.13277	-0.087138	0.0562715	-0.151406	0.09588	-0.075218	0.0803815	-0.098186	0.112742	-0.20773	0.114461	-0.081325	0.114756	
0.765493	4.63867	5	0	-0.025434	0.124156	-0.0528565	0.140251	-0.0614695	0.111332	-0.104286	0.208094	-0.0508233	0.00232025	-0.155812	0.136888	-0.044287	0.0329108	-0.0649465	0.114126	-0.169873	0.198373	-0.14974	0.124285	-0.090782	0.0569863	-0.157537	0.0871225	-0.078396	0.0629437	-0.103614	0.093793	-0.214303	0.099144	-0.086911	0.0979905	
0.735912	4.63867	5	0	-0.028598	0.122202	-0.055811	0.137184	-0.066505	0.112002	-0.102305	0.202495	-0.04809	-0.005404	-0.159021	0.13323	-0.048712	0.033595	-0.069248	0.114317	-0.173366	0.196527	-0.150481	0.1158	-0.094426	0.057701	-0.163669	0.078365	-0.081574	0.045506	-0.109043	0.074844	-0.220877	0.083827	-0.092497	0.081225	
0.72003	4.63562	5	0	-0.0275372	0.0974322	-0.0636957	0.102491	-0.0693435	0.0929325	-0.104019	0.177844	-0.052909	-0.0220127	-0.164677	0.111088	-0.0494428	0.0120385	-0.076119	0.0978823	-0.171166	0.1786	-0.163462	0.0996775	-0.103241	0.0634608	-0.167592	0.0503913	-0.09302	0.0119695	-0.117861	0.0313727	-0.223688	0.0410447	-0.102742	0.0452428	
0.715121	4.63409	5	0	-0.0264765	0.0726625	-0.0715805	0.0677985	-0.072182	0.073863	-0.105732	0.153193	-0.057728	-0.0386215	-0.170333	0.088946	-0.0501735	-0.009518	-0.08299	0.0814475	-0.168967	0.160673	-0.176443	0.083555	-0.112056	0.0692205	-0.171515	0.0224175	-0.104466	-0.021567	-0.12668	-0.0120985	-0.2265	-0.0017375	-0.112987	0.0092605	
0.7178	4.63104	5	0	-0.0254158	0.0478928	-0.0794653	0.0331057	-0.0750205	0.0547935	-0.107446	0.128541	-0.062547	-0.0552302	-0.17599	0.066804	-0.0509042	-0.0310745	-0.089861	0.0650128	-0.166767	0.142747	-0.189424	0.0674325	-0.12087	0.0749802	-0.175439	-0.00555625	-0.115912	-0.0551035	-0.135498	-0.0555698	-0.229312	-0.0445198	-0.123231	-0.0267218	
0.724684	4.63257	5	0	-0.024355	0.023123	-0.08735	-0.001587	-0.077859	0.035724	-0.10916	0.10389	-0.067366	-0.071839	-0.181646	0.044662	-0.051635	-0.052631	-0.096732	0.048578	-0.164568	0.12482	-0.202405	0.05131	-0.129685	0.08074	-0.179362	-0.03353	-0.127358	-0.08864	-0.144316	-0.099041	-0.232123	-0.087302	-0.133476	-0.062704	
0.73239	4.63714	5	0	-0.0288378	0.0140455	-0.086876	-0.0143012	-0.0780828	0.0228245	-0.112284	0.093082	-0.0683685	-0.0790712	-0.182217	0.0335823	-0.0530185	-0.0605207	-0.101711	0.0387863	-0.169657	0.115805	-0.202124	0.0399715	-0.133323	0.081451	-0.179508	-0.0461182	-0.127472	-0.101467	-0.147607	-0.112482	-0.233501	-0.100286	-0.132858	-0.0752527	
0.737582	4.64477	5	0	-0.0333205	0.004968	-0.086402	-0.0270155	-0.0783065	0.009925	-0.115408	0.082274	-0.069371	-0.0863035	-0.182787	0.0225025	-0.054402	-0.0684105	-0.10669	0.0289945	-0.174747	0.106789	-0.201842	0.028633	-0.13696	0.082162	-0.179655	-0.0587065	-0.127586	-0.114294	-0.150898	-0.125923	-0.234879	-0.113269	-0.132239	-0.0878015	
0.7388	4.64935	5	0	-0.0378032	-0.0041095	-0.085928	-0.0397298	-0.0785302	-0.0029745	-0.118532	0.071466	-0.0703735	-0.0935358	-0.183358	0.0114228	-0.0557855	-0.0763003	-0.11167	0.0192027	-0.179837	0.0977735	-0.201561	0.0172945	-0.140597	0.082873	-0.179802	-0.0712947	-0.1277	-0.127121	-0.154189	-0.139364	-0.236258	-0.126253	-0.131621	-0.10035	
0.737026	4.66156	5	0	-0.042286	-0.013187	-0.085454	-0.052444	-0.078754	-0.015874	-0.121656	0.060658	-0.071376	-0.100768	-0.183929	0.000343	-0.057169	-0.08419	-0.116649	0.009411	-0.184926	0.088758	-0.20128	0.005956	-0.144235	0.083584	-0.179948	-0.083883	-0.127814	-0.139948	-0.15748	-0.152805	-0.237636	-0.139237	-0.131002	-0.112899	
0.7334	4.66461	5	0	-0.0417695	-0.02551	-0.0868015	-0.0713638	-0.071564	-0.0361937	-0.123799	0.0470977	-0.0750992	-0.100305	-0.189767	0.00415725	-0.0595642	-0.089213	-0.124021	0.00641275	-0.188415	0.0869287	-0.204079	0.003328	-0.144235	0.083584	-0.183449	-0.0739875	-0.120654	-0.133877	-0.154189	-0.139364	-0.245306	-0.117561	-0.127579	-0.100965	
0.729065	4.67224	5	0	-0.041253	-0.037833	-0.088149	-0.0902835	-0.064374	-0.0565135	-0.125942	0.0335375	-0.0788225	-0.099843	-0.195604	0.0079715	-0.0619595	-0.094236	-0.131393	0.0034145	-0.191903	0.0850995	-0.206877	0.0007	-0.144235	0.083584	-0.18695	-0.064092	-0.113493	-0.127806	-0.150898	-0.125923	-0.252976	-0.095885	-0.124157	-0.0890305	
0.725163	4.67224	5	0	-0.0407365	-0.050156	-0.0894965	-0.109203	-0.057184	-0.0768333	-0.128084	0.0199772	-0.0825458	-0.0993805	-0.201441	0.0117857	-0.0643548	-0.099259	-0.138766	0.00041625	-0.195391	0.0832703	-0.209676	-0.001928	-0.144235	0.083584	-0.190452	-0.0541965	-0.106332	-0.121736	-0.147607	-0.112482	-0.260645	-0.074209	-0.120734	-0.0770963	
0.72278	4.67071	5	0	-0.04022	-0.062479	-0.090844	-0.128123	-0.049994	-0.097153	-0.130227	0.006417	-0.086269	-0.098918	-0.207279	0.0156	-0.06675	-0.104282	-0.146138	-0.002582	-0.19888	0.081441	-0.212475	-0.004556	-0.144235	0.083584	-0.193953	-0.044301	-0.099172	-0.115665	-0.144316	-0.099041	-0.268315	-0.052533	-0.117311	-0.065162	
0.722178	4.67224	5	0	-0.0424625	-0.0669987	-0.0926587	-0.134348	-0.0550205	-0.0964688	-0.13081	-0.0017365	-0.0853623	-0.10148	-0.204647	0.008161	-0.0711637	-0.103593	-0.148024	-0.009156	-0.19699	0.0760997	-0.215273	-0.00718225	-0.144235	0.083584	-0.186801	-0.051511	-0.105228	-0.111708	-0.140104	-0.099563	-0.257988	-0.0648403	-0.122285	-0.061912	
0.723001	4.67377	5	0	-0.044705	-0.0715185	-0.0944735	-0.140572	-0.060047	-0.0957845	-0.131393	-0.00989	-0.0844555	-0.104043	-0.202014	0.000722	-0.0755775	-0.102903	-0.149911	-0.01573	-0.1951	0.0707585	-0.21807	-0.0098085	-0.144235	0.083584	-0.179649	-0.058721	-0.111284	-0.10775	-0.135892	-0.100085	-0.247661	-0.0771475	-0.127258	-0.058662	
0.724879	4.66766	5	0	-0.0469475	-0.0760383	-0.0962882	-0.146797	-0.0650735	-0.0951002	-0.131975	-0.0180435	-0.0835487	-0.106605	-0.199382	-0.006717	-0.0799912	-0.102213	-0.151797	-0.022304	-0.19321	0.0654172	-0.220867	-0.0124348	-0.144235	0.083584	-0.172498	-0.065931	-0.11734	-0.103793	-0.13168	-0.100607	-0.237334	-0.0894547	-0.132232	-0.055412	
0.727438	4.66156	5	0	-0.04919	-0.080558	-0.098103	-0.153022	-0.0701	-0.094416	-0.132558	-0.026197	-0.082642	-0.109167	-0.19675	-0.014156	-0.084405	-0.101524	-0.153683	-0.028878	-0.19132	0.060076	-0.223665	-0.015061	-0.144235	0.083584	-0.165346	-0.073141	-0.123396	-0.099836	-0.127468	-0.101129	-0.227007	-0.101762	-0.137206	-0.052162	
0.730307	4.65393	5	0	-0.0478662	-0.0734418	-0.0881035	-0.147201	-0.060043	-0.0957863	-0.130011	-0.0235955	-0.075193	-0.110094	-0.193545	-0.0105313	-0.0810015	-0.099358	-0.153683	-0.028878	-0.186885	0.059231	-0.218818	-0.0182283	-0.144235	0.083584	-0.161693	-0.0704532	-0.114252	-0.0993533	-0.126336	-0.0929405	-0.22307	-0.0959935	-0.130055	-0.0507525	
0.733144	4.64935	5	0	-0.0465425	-0.0663255	-0.078104	-0.141379	-0.049986	-0.0971565	-0.127464	-0.020994	-0.067744	-0.111021	-0.190339	-0.0069065	-0.077598	-0.097192	-0.153683	-0.028878	-0.182451	0.058386	-0.213971	-0.0213955	-0.144235	0.083584	-0.15804	-0.0677655	-0.105107	-0.0988705	-0.125203	-0.084752	-0.219133	-0.090225	-0.122903	-0.049343	
0.735865	4.64172	5	0	-0.0452188	-0.0592093	-0.0681045	-0.135558	-0.039929	-0.0985267	-0.124916	-0.0183925	-0.060295	-0.111948	-0.187134	-0.00328175	-0.0741945	-0.095026	-0.153683	-0.028878	-0.178016	0.057541	-0.209123	-0.0245628	-0.144235	0.083584	-0.154387	-0.0650778	-0.0959632	-0.0983877	-0.124071	-0.0765635	-0.215197	-0.0844565	-0.115752	-0.0479335	
0.738509	4.63867	5	0	-0.043895	-0.052093	-0.058105	-0.129737	-0.029872	-0.099897	-0.122369	-0.015791	-0.052846	-0.112875	-0.183929	0.000343	-0.070791	-0.09286	-0.153683	-0.028878	-0.173581	0.056696	-0.204276	-0.02773	-0.144235	0.083584	-0.150734	-0.06239	-0.086819	-0.097905	-0.122939	-0.068375	-0.21126	-0.078688	-0.108601	-0.046524	
0.74112	4.63409	5	0	-0.0457333	-0.0468978	-0.0638018	-0.113637	-0.0236398	-0.103969	-0.11982	-0.013188	-0.051841	-0.105645	-0.183358	0.0114227	-0.0683968	-0.0878343	-0.150598	-0.02569	-0.175472	0.0620388	-0.203527	-0.0193085	-0.136191	0.079994	-0.140932	-0.051005	-0.090682	-0.0738108	-0.116366	-0.04133	-0.213737	-0.054778	-0.104876	-0.0245755	
0.74374	4.62341	5	0	-0.0475715	-0.0417025	-0.0694985	-0.097537	-0.0174075	-0.108041	-0.117272	-0.010585	-0.050836	-0.098414	-0.182787	0.0225025	-0.0660025	-0.0828085	-0.147514	-0.022502	-0.177362	0.0673815	-0.202778	-0.010887	-0.128147	0.076404	-0.13113	-0.03962	-0.094545	-0.0497165	-0.109792	-0.014285	-0.216215	-0.030868	-0.101151	-0.002627	
0.746412	4.61883	5	0	-0.0494098	-0.0365072	-0.0751953	-0.081437	-0.0111753	-0.112114	-0.114724	-0.007982	-0.049831	-0.0911835	-0.182217	0.0335823	-0.0636083	-0.0777827	-0.144429	-0.019314	-0.179253	0.0727242	-0.202029	-0.0024655	-0.120104	0.072814	-0.121327	-0.028235	-0.098408	-0.0256222	-0.103218	0.01276	-0.218692	-0.006958	-0.0974253	0.0193215	
0.749175	4.61578	5	0	-0.051248	-0.031312	-0.080892	-0.065337	-0.004943	-0.116186	-0.112175	-0.005379	-0.048826	-0.083953	-0.181646	0.044662	-0.061214	-0.072757	-0.141345	-0.016126	-0.181143	0.078067	-0.20128	0.005956	-0.11206	0.069224	-0.111525	-0.01685	-0.102271	-0.001528	-0.096645	0.039805	-0.221169	0.016952	-0.0937	0.04127	
0.752049	4.6112	5	0	-0.0540075	-0.0235135	-0.0836495	-0.0461693	-0.00733875	-0.109415	-0.108059	0.002614	-0.048826	-0.083953	-0.17259	0.0444777	-0.061214	-0.072757	-0.13706	-0.0163228	-0.17576	0.0745497	-0.192598	0.00251225	-0.107652	0.0663432	-0.112696	-0.0135392	-0.102174	0.011383	-0.101731	0.0656023	-0.212012	0.0249377	-0.111172	0.0689898	
0.75504	4.6051	5	0	-0.056767	-0.015715	-0.086407	-0.0270015	-0.0097345	-0.102644	-0.103942	0.010607	-0.048826	-0.083953	-0.163534	0.0442935	-0.061214	-0.072757	-0.132775	-0.0165195	-0.170377	0.0710325	-0.183916	-0.0009315	-0.103243	0.0634625	-0.113867	-0.0102285	-0.102077	0.024294	-0.106817	0.0913995	-0.202855	0.0329235	-0.128643	0.0967095	
0.758157	4.60052	5	0	-0.0595265	-0.0079165	-0.0891645	-0.00783375	-0.0121303	-0.0958738	-0.0998263	0.0186	-0.048826	-0.083953	-0.154478	0.0441093	-0.061214	-0.072757	-0.128491	-0.0167163	-0.164994	0.0675152	-0.175233	-0.00437525	-0.0988345	0.0605818	-0.115039	-0.00691775	-0.101979	0.037205	-0.111903	0.117197	-0.193698	0.0409092	-0.146115	0.124429	
0.761407	4.59747	5	0	-0.062286	-0.000118	-0.091922	0.011334	-0.014526	-0.089103	-0.09571	0.026593	-0.048826	-0.083953	-0.145422	0.043925	-0.061214	-0.072757	-0.124206	-0.016913	-0.159611	0.063998	-0.166551	-0.007819	-0.094426	0.057701	-0.11621	-0.003607	-0.101882	0.050116	-0.116989	0.142994	-0.184541	0.048895	-0.163586	0.152149	
0.764799	4.58984	5	0	-0.05557	0.0135113	-0.0846988	0.0364872	-0.008045	-0.080307	-0.0864845	0.0398357	-0.044092	-0.0771748	-0.133134	0.047377	-0.056424	-0.0626878	-0.120428	-0.003742	-0.158009	0.0711738	-0.162996	0.00325025	-0.0900152	0.054819	-0.108885	0.0017975	-0.10279	0.0658775	-0.112614	0.164942	-0.192273	0.070748	-0.161139	0.166893	
0.76833	4.58526	5	0	-0.048854	0.0271405	-0.0774755	0.0616405	-0.001564	-0.071511	-0.077259	0.0530785	-0.039358	-0.0703965	-0.120845	0.050829	-0.051634	-0.0526185	-0.11665	0.009429	-0.156407	0.0783495	-0.15944	0.0143195	-0.0856045	0.051937	-0.101561	0.007202	-0.103697	0.081639	-0.108239	0.186891	-0.200006	0.092601	-0.158693	0.181637	
0.771867	4.58374	5	0	-0.042138	0.0407698	-0.0702523	0.0867938	0.004917	-0.062715	-0.0680335	0.0663212	-0.034624	-0.0636183	-0.108557	0.054281	-0.046844	-0.0425493	-0.112872	0.0226	-0.154805	0.0855252	-0.155884	0.0253887	-0.0811938	0.049055	-0.0942365	0.0126065	-0.104605	0.0974005	-0.103865	0.208839	-0.207738	0.114454	-0.156247	0.19638	
0.775191	4.58069	5	0	-0.035422	0.054399	-0.063029	0.111947	0.011398	-0.053919	-0.058808	0.079564	-0.02989	-0.05684	-0.096269	0.057733	-0.042054	-0.03248	-0.109094	0.035771	-0.153203	0.092701	-0.152329	0.036458	-0.076783	0.046173	-0.086912	0.018011	-0.105513	0.113162	-0.09949	0.230787	-0.21547	0.136307	-0.1538	0.211124	
0.778084	4.58069	5	0	-0.041887	0.07267	-0.0663327	0.144109	0.01404	-0.0478153	-0.061194	0.096149	-0.0269742	-0.0449008	-0.095129	0.0800083	-0.0447345	-0.01309	-0.101022	0.0487877	-0.153499	0.105246	-0.142126	0.0499283	-0.0643038	0.039685	-0.0734105	0.0321725	-0.100274	0.137997	-0.0950695	0.264141	-0.207559	0.164863	-0.145145	0.230055	
0.780323	4.57764	5	0	-0.048352	0.090941	-0.0696365	0.176271	0.016682	-0.0417115	-0.06358	0.112734	-0.0240585	-0.0329615	-0.093989	0.102283	-0.047415	0.0063	-0.0929495	0.0618045	-0.153794	0.117791	-0.131922	0.0633985	-0.0518245	0.033197	-0.059909	0.046334	-0.095034	0.162832	-0.090649	0.297496	-0.199649	0.193418	-0.13649	0.248986	
0.78169	4.57458	5	0	-0.054817	0.109212	-0.0729403	0.208433	0.019324	-0.0356078	-0.065966	0.129319	-0.0211428	-0.0210222	-0.092849	0.124559	-0.0500955	0.02569	-0.0848773	0.0748213	-0.154089	0.130336	-0.121719	0.0768687	-0.0393452	0.026709	-0.0464075	0.0604955	-0.0897945	0.187668	-0.0862285	0.33085	-0.191738	0.221973	-0.127836	0.267918	
0.781969	4.57306	5	0	-0.061282	0.127483	-0.076244	0.240595	0.021966	-0.029504	-0.068352	0.145904	-0.018227	-0.009083	-0.091709	0.146834	-0.052776	0.04508	-0.076805	0.087838	-0.154385	0.142881	-0.111516	0.090339	-0.026866	0.020221	-0.032906	0.074657	-0.084555	0.212503	-0.081808	0.364205	-0.183827	0.250529	-0.119181	0.286849	
0.781135	4.56695	5	0	-0.061825	0.139901	-0.0779135	0.256737	0.0171542	-0.0159057	-0.0616792	0.156603	-0.0163142	-0.00439125	-0.0852688	0.154165	-0.0459573	0.0494608	-0.0718205	0.0976762	-0.152787	0.150085	-0.106924	0.0985517	-0.026866	0.020221	-0.0352615	0.0813143	-0.0895715	0.226681	-0.0806595	0.383926	-0.187719	0.261529	-0.125801	0.305558	
0.779406	4.56848	5	0	-0.062368	0.152319	-0.079583	0.272879	0.0123425	-0.0023075	-0.0550065	0.167302	-0.0144015	0.0003005	-0.0788285	0.161496	-0.0391385	0.0538415	-0.066836	0.107514	-0.15119	0.157288	-0.102332	0.106764	-0.026866	0.020221	-0.037617	0.0879715	-0.094588	0.240859	-0.079511	0.403647	-0.191611	0.27253	-0.13242	0.324266	
0.777021	4.56695	5	0	-0.062911	0.164737	-0.0812525	0.289021	0.00753075	0.0112907	-0.0483337	0.178001	-0.0124887	0.00499225	-0.0723883	0.168827	-0.0323198	0.0582223	-0.0618515	0.117353	-0.149592	0.164491	-0.0977408	0.114977	-0.026866	0.020221	-0.0399725	0.0946287	-0.0996045	0.255036	-0.0783625	0.423367	-0.195504	0.283531	-0.13904	0.342974	
0.774215	4.56543	5	0	-0.063454	0.177155	-0.082922	0.305163	0.002719	0.024889	-0.041661	0.1887	-0.010576	0.009684	-0.065948	0.176158	-0.025501	0.062603	-0.056867	0.127191	-0.147995	0.171695	-0.093149	0.12319	-0.026866	0.020221	-0.042328	0.101286	-0.104621	0.269214	-0.077214	0.443088	-0.199396	0.294531	-0.14566	0.361683	
0.771226	4.55932	5	0	-0.0576852	0.193538	-0.0775495	0.324291	-0.00209975	0.0385078	-0.0405197	0.205205	-0.010489	0.0195418	-0.0608318	0.187266	-0.0217313	0.0756305	-0.0542985	0.143888	-0.147349	0.181596	-0.0934377	0.13461	-0.023213	0.0195008	-0.0410138	0.110675	-0.104561	0.282277	-0.0739785	0.456938	-0.191538	0.306342	-0.150397	0.37507	
0.768289	4.55932	5	0	-0.0519165	0.20992	-0.072177	0.343419	-0.0069185	0.0521265	-0.0393785	0.22171	-0.010402	0.0293995	-0.0557155	0.198375	-0.0179615	0.088658	-0.05173	0.160585	-0.146704	0.191497	-0.0937265	0.146031	-0.01956	0.0187805	-0.0396995	0.120063	-0.104501	0.295341	-0.070743	0.470788	-0.18368	0.318153	-0.155134	0.388457	
0.765603	4.55322	5	0	-0.0461478	0.226303	-0.0668045	0.362548	-0.0117373	0.0657453	-0.0382373	0.238215	-0.010315	0.0392573	-0.0505993	0.209483	-0.0141917	0.101685	-0.0491615	0.177282	-0.146058	0.201399	-0.0940152	0.157451	-0.015907	0.0180602	-0.0383852	0.129452	-0.104441	0.308404	-0.0675075	0.484638	-0.175822	0.329964	-0.159871	0.401844	
0.763293	4.55017	5	0	-0.040379	0.242685	-0.061432	0.381676	-0.016556	0.079364	-0.037096	0.25472	-0.010228	0.049115	-0.045483	0.220591	-0.010422	0.114713	-0.046593	0.193979	-0.145413	0.2113	-0.094304	0.168871	-0.012254	0.01734	-0.037071	0.138841	-0.104381	0.321467	-0.064272	0.498488	-0.167964	0.341775	-0.164608	0.415231	
0.761474	4.54712	5	0	-0.0422372	0.247937	-0.061432	0.381676	-0.017762	0.082772	-0.03454	0.257369	-0.0138832	0.0594452	-0.0449245	0.231809	-0.0155245	0.129133	-0.0459178	0.20406	-0.151124	0.227439	-0.0956353	0.183243	-0.012254	0.01734	-0.0369418	0.151587	-0.100246	0.336274	-0.0578445	0.514868	-0.154853	0.355867	-0.156243	0.4242	
0.760262	4.54712	5	0	-0.0440955	0.253188	-0.061432	0.381676	-0.018968	0.08618	-0.031984	0.260019	-0.0175385	0.0697755	-0.044366	0.243027	-0.020627	0.143554	-0.0452425	0.214141	-0.156835	0.243579	-0.0969665	0.197615	-0.012254	0.01734	-0.0368125	0.164333	-0.09611	0.351081	-0.051417	0.531249	-0.141742	0.369959	-0.147877	0.433169	
0.759773	4.53949	5	0	-0.0459538	0.25844	-0.061432	0.381676	-0.020174	0.089588	-0.029428	0.262668	-0.0211937	0.0801058	-0.0438075	0.254245	-0.0257295	0.157974	-0.0445673	0.224222	-0.162546	0.259718	-0.0982977	0.211987	-0.012254	0.01734	-0.0366833	0.17708	-0.0919745	0.365888	-0.0449895	0.547629	-0.128631	0.384052	-0.139512	0.442138	
0.760122	4.54101	5	0	-0.047812	0.263692	-0.061432	0.381676	-0.02138	0.092996	-0.026872	0.265317	-0.024849	0.090436	-0.043249	0.265463	-0.030832	0.172395	-0.043892	0.234303	-0.168257	0.275858	-0.099629	0.226359	-0.012254	0.01734	-0.036554	0.189826	-0.087839	0.380695	-0.038562	0.56401	-0.11552	0.398144	-0.131147	0.451107	
0.761323	4.53644	5	0	-0.044651	0.265666	-0.0602725	0.378399	-0.023793	0.0998157	-0.0288612	0.270939	-0.0257635	0.0930205	-0.0504728	0.273082	-0.0284425	0.177494	-0.0407945	0.237546	-0.16667	0.283106	-0.099629	0.226359	-0.0130212	0.0195085	-0.0414068	0.190429	-0.087839	0.380695	-0.0364548	0.558054	-0.120763	0.395898	-0.134253	0.449009	
0.763137	4.53338	5	0	-0.04149	0.267641	-0.059113	0.375123	-0.026206	0.106635	-0.0308505	0.276561	-0.026678	0.095605	-0.0576965	0.280701	-0.026053	0.182593	-0.037697	0.240789	-0.165082	0.290353	-0.099629	0.226359	-0.0137885	0.021677	-0.0462595	0.191031	-0.087839	0.380695	-0.0343475	0.552099	-0.126006	0.393653	-0.13736	0.446912	
0.765287	4.53338	5	0	-0.038329	0.269615	-0.0579535	0.371846	-0.028619	0.113455	-0.0328398	0.282183	-0.0275925	0.0981895	-0.0649202	0.28832	-0.0236635	0.187692	-0.0345995	0.244033	-0.163495	0.2976	-0.099629	0.226359	-0.0145557	0.0238455	-0.0511122	0.191634	-0.087839	0.380695	-0.0322402	0.546143	-0.13125	0.391408	-0.140466	0.444814	
0.767499	4.52728	5	0	-0.035168	0.271589	-0.056794	0.368569	-0.031032	0.120275	-0.034829	0.287805	-0.028507	0.100774	-0.072144	0.295939	-0.021274	0.192791	-0.031502	0.247276	-0.161908	0.304848	-0.099629	0.226359	-0.015323	0.026014	-0.055965	0.192237	-0.087839	0.380695	-0.030133	0.540187	-0.136493	0.389162	-0.143572	0.442716	
0.769495	4.52423	5	0	-0.0338665	0.278826	-0.0497292	0.371513	-0.0346552	0.130515	-0.0342647	0.296089	-0.025684	0.102905	-0.0734787	0.299711	-0.018884	0.197896	-0.032715	0.250703	-0.163816	0.310241	-0.109393	0.232739	-0.015323	0.026014	-0.0619955	0.196178	-0.0858225	0.374996	-0.0386297	0.541164	-0.127335	0.380344	-0.141674	0.437351	
0.771	4.52576	5	0	-0.032565	0.286062	-0.0426645	0.374456	-0.0382785	0.140755	-0.0337005	0.304373	-0.022861	0.105036	-0.0748135	0.303483	-0.016494	0.203002	-0.033928	0.254131	-0.165724	0.315634	-0.119156	0.239119	-0.015323	0.026014	-0.068026	0.200118	-0.083806	0.369297	-0.0471265	0.54214	-0.118177	0.371525	-0.139775	0.431986	
0.771811	4.5227	5	0	-0.0312635	0.293299	-0.0355997	0.3774	-0.0419018	0.150994	-0.0331362	0.312657	-0.020038	0.107167	-0.0761483	0.307255	-0.014104	0.208107	-0.035141	0.257559	-0.167633	0.321027	-0.128919	0.245498	-0.015323	0.026014	-0.0740565	0.204058	-0.0817895	0.363598	-0.0556232	0.543117	-0.109018	0.362706	-0.137876	0.42662	
0.772019	4.5227	5	0	-0.029962	0.300535	-0.028535	0.380344	-0.045525	0.161234	-0.032572	0.320941	-0.017215	0.109298	-0.077483	0.311027	-0.011714	0.213212	-0.036354	0.260986	-0.169541	0.32642	-0.138683	0.251878	-0.015323	0.026014	-0.080087	0.207999	-0.079773	0.357899	-0.06412	0.544093	-0.09986	0.353888	-0.135978	0.421255	
0.771785	4.5166	5	0	-0.02624	0.290016	-0.0362338	0.367747	-0.049355	0.158488	-0.0341313	0.315469	-0.024688	0.110206	-0.082034	0.311101	-0.019559	0.211671	-0.0449685	0.261346	-0.179383	0.330778	-0.144597	0.257995	-0.015323	0.026014	-0.0872955	0.215277	-0.0746775	0.35676	-0.0609263	0.546582	-0.10247	0.361262	-0.132871	0.423349	
0.771275	4.51813	5	0	-0.022518	0.279497	-0.0439325	0.355151	-0.053185	0.155741	-0.0356905	0.309997	-0.032161	0.111113	-0.086585	0.311175	-0.027404	0.21013	-0.053583	0.261706	-0.189225	0.335136	-0.150512	0.264113	-0.015323	0.026014	-0.094504	0.222555	-0.069582	0.355621	-0.0577325	0.549071	-0.105079	0.368637	-0.129764	0.425444	
0.770651	4.51507	5	0	-0.018796	0.268978	-0.0516313	0.342554	-0.057015	0.152994	-0.0372497	0.304526	-0.039634	0.11202	-0.091136	0.311248	-0.035249	0.20859	-0.0621975	0.262066	-0.199068	0.339493	-0.156427	0.27023	-0.015323	0.026014	-0.101713	0.229834	-0.0644865	0.354481	-0.0545387	0.551559	-0.107688	0.376011	-0.126656	0.427538	
0.770076	4.51355	5	0	-0.015074	0.258459	-0.05933	0.329957	-0.060845	0.150248	-0.038809	0.299054	-0.047107	0.112928	-0.095687	0.311322	-0.043094	0.207049	-0.070812	0.262426	-0.20891	0.343851	-0.162341	0.276348	-0.015323	0.026014	-0.108921	0.237112	-0.059391	0.353342	-0.051345	0.554048	-0.110298	0.383386	-0.123549	0.429633	
0.769679	4.51202	5	0	-0.0214002	0.254516	-0.0588118	0.317055	-0.065879	0.150914	-0.0413633	0.296399	-0.0452783	0.10776	-0.0975677	0.303858	-0.04548	0.201948	-0.0726925	0.255758	-0.211442	0.33929	-0.172812	0.274182	-0.0233935	0.0296203	-0.111399	0.231029	-0.0696325	0.34253	-0.057769	0.537679	-0.11033	0.366413	-0.124077	0.409378	
0.769351	4.51202	5	0	-0.0277265	0.250572	-0.0582935	0.304153	-0.070913	0.151581	-0.0439175	0.293745	-0.0434495	0.102592	-0.0994485	0.296395	-0.047866	0.196846	-0.074573	0.24909	-0.213975	0.334728	-0.183283	0.272017	-0.031464	0.0332265	-0.113876	0.224947	-0.079874	0.331719	-0.064193	0.521309	-0.110362	0.349439	-0.124605	0.389123	
0.768891	4.50897	5	0	-0.0340527	0.246629	-0.0577753	0.291252	-0.075947	0.152247	-0.0464717	0.291091	-0.0416207	0.0974233	-0.101329	0.288931	-0.050252	0.191745	-0.0764535	0.242423	-0.216507	0.330166	-0.193753	0.269851	-0.0395345	0.0368327	-0.116353	0.218864	-0.0901155	0.320908	-0.070617	0.50494	-0.110394	0.332465	-0.125132	0.368869	
0.768099	4.50745	5	0	-0.040379	0.242685	-0.057257	0.27835	-0.080981	0.152913	-0.049026	0.288436	-0.039792	0.092255	-0.10321	0.281467	-0.052638	0.186643	-0.078334	0.235755	-0.219039	0.325605	-0.204224	0.267686	-0.047605	0.040439	-0.118831	0.212782	-0.100357	0.310096	-0.077041	0.488571	-0.110426	0.315492	-0.12566	0.348614	
0.766774	4.50287	5	0	-0.040379	0.242685	-0.0584125	0.281616	-0.0821882	0.156325	-0.0545625	0.294215	-0.0379645	0.08709	-0.100546	0.273937	-0.0540032	0.178665	-0.0814245	0.232515	-0.226957	0.324568	-0.205985	0.262089	-0.0520203	0.043324	-0.128501	0.213972	-0.100419	0.297038	-0.0813227	0.477692	-0.11047	0.298568	-0.12404	0.333173	
0.764714	4.50287	5	0	-0.040379	0.242685	-0.059568	0.284882	-0.0833955	0.159737	-0.060099	0.299994	-0.036137	0.081925	-0.0978815	0.266407	-0.0553685	0.170687	-0.084515	0.229276	-0.234874	0.323531	-0.207746	0.256492	-0.0564355	0.046209	-0.138172	0.215161	-0.100481	0.28398	-0.0856045	0.466813	-0.110515	0.281644	-0.12242	0.317732	
0.76175	4.49982	5	0	-0.040379	0.242685	-0.0607235	0.288147	-0.0846028	0.163148	-0.0656355	0.305773	-0.0343095	0.07676	-0.0952173	0.258877	-0.0567337	0.162708	-0.0876055	0.226037	-0.242792	0.322494	-0.209507	0.250895	-0.0608508	0.049094	-0.147842	0.216351	-0.100543	0.270922	-0.0898863	0.455935	-0.110559	0.264721	-0.120801	0.30229	
0.758023	4.49829	5	0	-0.040379	0.242685	-0.061879	0.291413	-0.08581	0.16656	-0.071172	0.311552	-0.032482	0.071595	-0.092553	0.251347	-0.058099	0.15473	-0.090696	0.222797	-0.25071	0.321457	-0.211268	0.245298	-0.065266	0.051979	-0.157513	0.21754	-0.100605	0.257864	-0.094168	0.445056	-0.110603	0.247797	-0.119181	0.286849	
0.75384	4.49371	5	0	-0.0439157	0.230883	-0.0590595	0.272014	-0.0922473	0.157661	-0.0707405	0.30047	-0.0353862	0.0596123	-0.0976527	0.240228	-0.0564115	0.138132	-0.0956643	0.212913	-0.256715	0.315042	-0.222749	0.246058	-0.068912	0.0526947	-0.162343	0.218133	-0.097595	0.249357	-0.0920725	0.439134	-0.114548	0.241914	-0.118236	0.28418	
0.749512	4.49219	5	0	-0.0474525	0.219082	-0.05624	0.252616	-0.0986845	0.148763	-0.070309	0.289388	-0.0382905	0.0476295	-0.102752	0.229109	-0.054724	0.121533	-0.100632	0.203029	-0.262719	0.308627	-0.234229	0.246819	-0.072558	0.0534105	-0.167173	0.218725	-0.094585	0.240851	-0.089977	0.433211	-0.118494	0.236032	-0.117292	0.28151	
0.745346	4.48913	5	0	-0.0509892	0.20728	-0.0534205	0.233217	-0.105122	0.139864	-0.0698775	0.278305	-0.0411948	0.0356468	-0.107852	0.217991	-0.0530365	0.104934	-0.105601	0.193145	-0.268724	0.302212	-0.245709	0.24758	-0.076204	0.0541263	-0.172002	0.219317	-0.091575	0.232345	-0.0878815	0.427289	-0.12244	0.23015	-0.116348	0.27884	
0.741654	4.49066	5	0	-0.054526	0.195478	-0.050601	0.213819	-0.111559	0.130965	-0.069446	0.267223	-0.044099	0.023664	-0.112952	0.206872	-0.051349	0.088336	-0.110569	0.183261	-0.274728	0.295797	-0.25719	0.24834	-0.07985	0.054842	-0.176832	0.21991	-0.088565	0.223838	-0.085786	0.421367	-0.126385	0.224267	-0.115403	0.276171	
0.738709	4.48608	5	0	-0.053981	0.183048	-0.0500995	0.200979	-0.107945	0.120753	-0.0690197	0.256161	-0.047916	0.014283	-0.116724	0.192035	-0.055112	0.0753338	-0.115535	0.173401	-0.281676	0.292077	-0.261734	0.240089	-0.084261	0.0577243	-0.182946	0.211103	-0.0907205	0.203492	-0.0943568	0.399713	-0.11998	0.189149	-0.119073	0.25399	
0.736517	4.48608	5	0	-0.053436	0.170619	-0.049598	0.188138	-0.104332	0.11054	-0.0685935	0.245099	-0.051733	0.004902	-0.120496	0.177198	-0.058875	0.0623315	-0.1205	0.163541	-0.288623	0.288357	-0.266278	0.231838	-0.088672	0.0606065	-0.18906	0.202296	-0.092876	0.183146	-0.102928	0.378059	-0.113575	0.15403	-0.122743	0.231809	
0.734965	4.47845	5	0	-0.052891	0.158189	-0.0490965	0.175297	-0.100719	0.100328	-0.0681672	0.234038	-0.05555	-0.004479	-0.124269	0.162362	-0.062638	0.0493292	-0.125466	0.15368	-0.295571	0.284637	-0.270823	0.223586	-0.093083	0.0634887	-0.195174	0.193489	-0.0950315	0.162799	-0.111498	0.356405	-0.107171	0.118912	-0.126412	0.209627	
0.73394	4.47998	5	0	-0.052346	0.145759	-0.048595	0.162457	-0.097105	0.090116	-0.067741	0.222976	-0.059367	-0.01386	-0.128041	0.147525	-0.066401	0.036327	-0.130432	0.14382	-0.302518	0.280917	-0.275367	0.215335	-0.097494	0.066371	-0.201288	0.184682	-0.097187	0.142453	-0.120069	0.334751	-0.100766	0.083794	-0.130082	0.187446	
0.733327	4.47388	5	0	-0.0536555	0.138578	-0.0474445	0.159205	-0.100926	0.0873837	-0.0693015	0.217533	-0.0548195	-0.0267115	-0.122743	0.132553	-0.067776	0.0284063	-0.136598	0.137383	-0.29967	0.272868	-0.280939	0.210013	-0.101902	0.0692515	-0.201404	0.171979	-0.0942805	0.121033	-0.120191	0.312202	-0.113906	0.06997	-0.127551	0.169455	
0.733013	4.47082	5	0	-0.054965	0.131396	-0.046294	0.155953	-0.104747	0.0846515	-0.070862	0.212091	-0.050272	-0.039563	-0.117445	0.117581	-0.069151	0.0204855	-0.142765	0.130946	-0.296822	0.264818	-0.286511	0.20469	-0.106311	0.072132	-0.20152	0.159276	-0.091374	0.099613	-0.120314	0.289652	-0.127045	0.056146	-0.12502	0.151464	
0.732891	4.47388	5	0	-0.0562745	0.124215	-0.0451435	0.152702	-0.108569	0.0819192	-0.0724225	0.206649	-0.0457245	-0.0524145	-0.112148	0.10261	-0.070526	0.0125647	-0.148931	0.124509	-0.293974	0.256769	-0.292083	0.199368	-0.110719	0.0750125	-0.201635	0.146574	-0.0884675	0.078193	-0.120437	0.267103	-0.140185	0.042322	-0.122489	0.133473	
0.732893	4.46777	5	0	-0.057584	0.117034	-0.043993	0.14945	-0.11239	0.079187	-0.073983	0.201206	-0.041177	-0.065266	-0.10685	0.087638	-0.071901	0.004644	-0.155097	0.118072	-0.291126	0.24872	-0.297655	0.194046	-0.115128	0.077893	-0.201751	0.133871	-0.085561	0.056773	-0.120559	0.244553	-0.153325	0.028498	-0.119958	0.115482	
0.732962	4.46625	5	0	-0.0592855	0.100096	-0.0464562	0.133586	-0.111404	0.0628795	-0.0751275	0.184752	-0.0394593	-0.080197	-0.10932	0.0691555	-0.071253	-0.00898725	-0.153371	0.101275	-0.291754	0.23883	-0.303222	0.188732	-0.123938	0.08365	-0.210209	0.131742	-0.086654	0.0466665	-0.121666	0.236246	-0.146896	0.010328	-0.12119	0.108133	
0.733039	4.46167	5	0	-0.060987	0.0831585	-0.0489195	0.117723	-0.110418	0.046572	-0.076272	0.168297	-0.0377415	-0.095128	-0.111789	0.050673	-0.070605	-0.0226185	-0.151646	0.0844785	-0.292382	0.228939	-0.308788	0.183418	-0.132748	0.089407	-0.218666	0.129612	-0.087747	0.03656	-0.122774	0.227938	-0.140466	-0.007842	-0.122423	0.100784	
0.733068	4.46014	5	0	-0.0626885	0.0662207	-0.0513827	0.101859	-0.109432	0.0302645	-0.0774165	0.151843	-0.0360238	-0.110059	-0.114259	0.0321905	-0.069957	-0.0362498	-0.149921	0.0676817	-0.293011	0.219049	-0.314354	0.178103	-0.141559	0.095164	-0.227124	0.127483	-0.08884	0.0264535	-0.123882	0.219631	-0.134037	-0.026012	-0.123656	0.0934357	
0.73299	4.46167	5	0	-0.06439	0.049283	-0.053846	0.085995	-0.108446	0.013957	-0.078561	0.135389	-0.034306	-0.12499	-0.116729	0.013708	-0.069309	-0.049881	-0.148195	0.050885	-0.293639	0.209158	-0.319921	0.172789	-0.150369	0.100921	-0.235581	0.125354	-0.089933	0.016347	-0.124989	0.211324	-0.127608	-0.044182	-0.124888	0.086087	
0.732775	4.45404	5	0	-0.067021	0.034998	-0.049928	0.0635195	-0.101253	-0.00637075	-0.076177	0.118815	-0.037231	-0.136859	-0.120526	-0.00099025	-0.0720733	-0.0656455	-0.15316	0.0410985	-0.297742	0.197443	-0.323427	0.161674	-0.154004	0.10163	-0.233359	0.106072	-0.097198	-0.00265175	-0.131508	0.184069	-0.1369	-0.068743	-0.124552	0.0634935	
0.732482	4.45099	5	0	-0.069652	0.020713	-0.04601	0.041044	-0.0940605	-0.0266985	-0.073793	0.102241	-0.040156	-0.148729	-0.124322	-0.0156885	-0.0748375	-0.08141	-0.158125	0.031312	-0.301845	0.185729	-0.326932	0.15056	-0.157639	0.102338	-0.231137	0.0867905	-0.104463	-0.0216505	-0.138027	0.156813	-0.146192	-0.093304	-0.124217	0.0409	
0.732188	4.45099	5	0	-0.072283	0.006428	-0.042092	0.0185685	-0.0868677	-0.0470262	-0.071409	0.0856662	-0.043081	-0.160599	-0.128118	-0.0303868	-0.0776017	-0.0971745	-0.16309	0.0215255	-0.305949	0.174014	-0.330437	0.139445	-0.161274	0.103047	-0.228915	0.0675087	-0.111728	-0.0406493	-0.144546	0.129557	-0.155483	-0.117865	-0.123882	0.0183065	
0.731968	4.45251	5	0	-0.074914	-0.007857	-0.038174	-0.003907	-0.079675	-0.067354	-0.069025	0.069092	-0.046006	-0.172468	-0.131915	-0.045085	-0.080366	-0.112939	-0.168055	0.011739	-0.310052	0.162299	-0.333943	0.12833	-0.164909	0.103756	-0.226693	0.048227	-0.118993	-0.059648	-0.151065	0.102302	-0.164775	-0.142426	-0.123546	-0.004287	
0.731899	4.44488	5	0	-0.0721562	-0.015651	-0.032926	-0.007336	-0.074889	-0.08088	-0.0660675	0.060734	-0.0423873	-0.182695	-0.123434	-0.056343	-0.0817508	-0.120803	-0.169938	0.005163	-0.310688	0.15245	-0.329836	0.116724	-0.169309	0.106631	-0.227994	0.0389087	-0.110079	-0.08484	-0.152268	0.0829045	-0.171394	-0.157523	-0.121055	-0.0221412	
0.732057	4.44336	5	0	-0.0693985	-0.023445	-0.027678	-0.010765	-0.070103	-0.094406	-0.06311	0.052376	-0.0387685	-0.192922	-0.114954	-0.067601	-0.0831355	-0.128666	-0.171821	-0.001413	-0.311323	0.142601	-0.32573	0.105119	-0.173708	0.109506	-0.229294	0.0295905	-0.101165	-0.110032	-0.153471	0.063507	-0.178013	-0.172621	-0.118564	-0.0399955	
0.732467	4.44031	5	0	-0.0666407	-0.031239	-0.02243	-0.014194	-0.065317	-0.107932	-0.0601525	0.044018	-0.0351498	-0.203149	-0.106473	-0.078859	-0.0845202	-0.13653	-0.173704	-0.007989	-0.311958	0.132752	-0.321624	0.0935127	-0.178108	0.11238	-0.230594	0.0202722	-0.092251	-0.135224	-0.154674	0.0441095	-0.184631	-0.187718	-0.116072	-0.0578497	
0.733044	4.43878	5	0	-0.063883	-0.039033	-0.017182	-0.017623	-0.060531	-0.121458	-0.057195	0.03566	-0.031531	-0.213376	-0.097992	-0.090117	-0.085905	-0.144394	-0.175587	-0.014565	-0.312594	0.122903	-0.317517	0.081907	-0.182507	0.115255	-0.231895	0.010954	-0.083337	-0.160416	-0.155877	0.024712	-0.19125	-0.202815	-0.113581	-0.075704	
0.733691	4.43878	5	0	-0.0656095	-0.0558495	-0.0185352	-0.0365965	-0.0533655	-0.141709	-0.0583695	0.0193217	-0.0325465	-0.220566	-0.099899	-0.0974373	-0.085278	-0.157936	-0.176275	-0.0245102	-0.314176	0.115736	-0.316491	0.079008	-0.182507	0.115255	-0.230726	0.00765075	-0.0884042	-0.159253	-0.153816	0.0188885	-0.180925	-0.215101	-0.114514	-0.0730685	
0.734307	4.43573	5	0	-0.067336	-0.072666	-0.0198885	-0.05557	-0.0462	-0.16196	-0.059544	0.0029835	-0.033562	-0.227755	-0.101806	-0.104758	-0.084651	-0.171477	-0.176963	-0.0344555	-0.315758	0.108569	-0.315466	0.076109	-0.182507	0.115255	-0.229557	0.0043475	-0.0934715	-0.158091	-0.151756	0.013065	-0.1706	-0.227386	-0.115446	-0.070433	
0.734795	4.4342	5	0	-0.0690625	-0.0894825	-0.0212418	-0.0745435	-0.0390345	-0.18221	-0.0607185	-0.0133547	-0.0345775	-0.234945	-0.103713	-0.112078	-0.084024	-0.185018	-0.177651	-0.0444007	-0.317339	0.101402	-0.31444	0.07321	-0.182507	0.115255	-0.228388	0.00104425	-0.0985388	-0.156928	-0.149695	0.0072415	-0.160276	-0.239672	-0.116378	-0.0677975	
0.735057	4.43573	5	0	-0.070789	-0.106299	-0.022595	-0.093517	-0.031869	-0.202461	-0.061893	-0.029693	-0.035593	-0.242135	-0.10562	-0.119398	-0.083397	-0.19856	-0.178339	-0.054346	-0.318921	0.094235	-0.313414	0.070311	-0.182507	0.115255	-0.227219	-0.002259	-0.103606	-0.155766	-0.147635	0.001418	-0.149951	-0.251958	-0.117311	-0.065162	
0.735028	4.42963	5	0	-0.065295	-0.121826	-0.020999	-0.109415	-0.0321287	-0.215238	-0.0560012	-0.0463443	-0.0310808	-0.254887	-0.100371	-0.134233	-0.089193	-0.205697	-0.180225	-0.0608997	-0.313268	0.078259	-0.309314	0.0587242	-0.18174	0.113088	-0.221381	-0.0187575	-0.102745	-0.17135	-0.145675	-0.0155103	-0.151362	-0.264865	-0.120734	-0.0770963	
0.734696	4.43115	5	0	-0.059801	-0.137352	-0.019403	-0.125314	-0.0323885	-0.228016	-0.0501095	-0.0629955	-0.0265685	-0.26764	-0.0951215	-0.149068	-0.094989	-0.212834	-0.18211	-0.0674535	-0.307616	0.062283	-0.305214	0.0471375	-0.180974	0.110922	-0.215543	-0.035256	-0.101883	-0.186935	-0.143714	-0.0324385	-0.152773	-0.277771	-0.124157	-0.0890305	
0.734051	4.42963	5	0	-0.054307	-0.152879	-0.017807	-0.141213	-0.0326483	-0.240793	-0.0442178	-0.0796468	-0.0220562	-0.280392	-0.0898723	-0.163902	-0.100785	-0.21997	-0.183995	-0.0740072	-0.301963	0.046307	-0.301114	0.0355507	-0.180207	0.108755	-0.209706	-0.0517545	-0.101022	-0.202519	-0.141754	-0.0493668	-0.154183	-0.290678	-0.127579	-0.100965	
0.733086	4.42963	5	0	-0.048813	-0.168406	-0.016211	-0.157111	-0.032908	-0.25357	-0.038326	-0.096298	-0.017544	-0.293145	-0.084623	-0.178737	-0.106581	-0.227107	-0.185881	-0.080561	-0.29631	0.030331	-0.297014	0.023964	-0.17944	0.106588	-0.203868	-0.068253	-0.10016	-0.218103	-0.139794	-0.066295	-0.155594	-0.303584	-0.131002	-0.112899	
0.731793	4.42963	5	0	-0.0547163	-0.162561	-0.0184885	-0.150674	-0.025499	-0.260998	-0.037345	-0.0990702	-0.0166423	-0.295693	-0.0742315	-0.182678	-0.100166	-0.233482	-0.180412	-0.0841345	-0.293487	0.0223537	-0.291154	0.0179093	-0.17944	0.106588	-0.196722	-0.0754565	-0.096216	-0.229249	-0.136713	-0.0750035	-0.15828	-0.312872	-0.130071	-0.115529	
0.730165	4.42963	5	0	-0.0606195	-0.156716	-0.020766	-0.144238	-0.01809	-0.268425	-0.036364	-0.101843	-0.0157405	-0.298241	-0.06384	-0.186619	-0.0937515	-0.239856	-0.174944	-0.087708	-0.290664	0.0143765	-0.285293	0.0118545	-0.17944	0.106588	-0.189576	-0.08266	-0.092272	-0.240395	-0.133631	-0.083712	-0.160967	-0.322159	-0.12914	-0.11816	
0.728294	4.42505	5	0	-0.0665228	-0.15087	-0.0230435	-0.137802	-0.010681	-0.275853	-0.035383	-0.104615	-0.0148387	-0.30079	-0.0534485	-0.190559	-0.0873367	-0.246231	-0.169475	-0.0912815	-0.287842	0.00639925	-0.279432	0.00579975	-0.17944	0.106588	-0.182429	-0.0898635	-0.088328	-0.251541	-0.130549	-0.0924205	-0.163653	-0.331446	-0.12821	-0.12079	
0.726366	4.42047	5	0	-0.072426	-0.145025	-0.025321	-0.131365	-0.003272	-0.283281	-0.034402	-0.107387	-0.013937	-0.303338	-0.043057	-0.1945	-0.080922	-0.252605	-0.164006	-0.094855	-0.285019	-0.001578	-0.273572	-0.000255	-0.17944	0.106588	-0.175283	-0.097067	-0.084384	-0.262687	-0.127468	-0.101129	-0.166339	-0.340734	-0.127279	-0.12342	
0.724572	4.42352	5	0	-0.072839	-0.154689	-0.0271438	-0.137595	0.00148525	-0.296725	-0.0304815	-0.118467	-0.0130355	-0.305886	-0.044369	-0.190792	-0.0799177	-0.255443	-0.164006	-0.094855	-0.278722	-0.00773525	-0.269757	-0.0005225	-0.17944	0.106588	-0.165643	-0.098297	-0.0812895	-0.258283	-0.125308	-0.0958452	-0.17015	-0.329963	-0.126032	-0.116143	
0.723103	4.41894	5	0	-0.073252	-0.164354	-0.0289665	-0.143825	0.0062425	-0.31017	-0.026561	-0.129547	-0.012134	-0.308434	-0.045681	-0.187084	-0.0789135	-0.258282	-0.164006	-0.094855	-0.272426	-0.0138925	-0.265942	-0.00079	-0.17944	0.106588	-0.156004	-0.099527	-0.078195	-0.25388	-0.123148	-0.0905615	-0.173961	-0.319193	-0.124785	-0.108866	
0.722151	4.41742	5	0	-0.073665	-0.174019	-0.0307893	-0.150056	0.0109997	-0.323615	-0.0226405	-0.140627	-0.0112325	-0.310981	-0.046993	-0.183376	-0.0779092	-0.26112	-0.164006	-0.094855	-0.26613	-0.0200498	-0.262127	-0.0010575	-0.17944	0.106588	-0.146364	-0.100757	-0.0751005	-0.249476	-0.120988	-0.0852777	-0.177772	-0.308423	-0.123539	-0.101589	
0.721889	4.41742	5	0	-0.074078	-0.183683	-0.032612	-0.156286	0.015757	-0.337059	-0.01872	-0.151707	-0.010331	-0.313529	-0.048305	-0.179668	-0.076905	-0.263958	-0.164006	-0.094855	-0.259833	-0.026207	-0.258312	-0.001325	-0.17944	0.106588	-0.136724	-0.101987	-0.072006	-0.245072	-0.118828	-0.079994	-0.181583	-0.297652	-0.122292	-0.094312	
0.722313	4.40979	5	0	-0.072251	-0.188847	-0.035572	-0.159295	0.0231683	-0.344483	-0.012239	-0.160197	-0.003899	-0.321647	-0.039824	-0.19091	-0.0813113	-0.26326	-0.156147	-0.105176	-0.253533	-0.0323657	-0.251422	-0.0102765	-0.17944	0.106588	-0.127232	-0.115791	-0.07102	-0.247859	-0.122015	-0.0823757	-0.180312	-0.301243	-0.123224	-0.0916788	
0.723317	4.40979	5	0	-0.070424	-0.194011	-0.038532	-0.162303	0.0305795	-0.351908	-0.005758	-0.168687	0.002533	-0.329765	-0.031343	-0.202151	-0.0857175	-0.262563	-0.148288	-0.115497	-0.247234	-0.0385245	-0.244532	-0.019228	-0.17944	0.106588	-0.117741	-0.129595	-0.070034	-0.250646	-0.125202	-0.0847575	-0.179041	-0.304835	-0.124156	-0.0890455	
0.724793	4.40979	5	0	-0.068597	-0.199174	-0.041492	-0.165312	0.0379907	-0.359332	0.000723	-0.177177	0.008965	-0.337884	-0.022862	-0.213393	-0.0901238	-0.261865	-0.140428	-0.125818	-0.240934	-0.0446833	-0.237643	-0.0281795	-0.17944	0.106588	-0.108249	-0.143398	-0.069048	-0.253433	-0.128389	-0.0871393	-0.17777	-0.308427	-0.125087	-0.0864123	
0.726635	4.40521	5	0	-0.06677	-0.204338	-0.044452	-0.168321	0.045402	-0.366757	0.007204	-0.185667	0.015397	-0.346002	-0.014381	-0.224635	-0.09453	-0.261167	-0.132569	-0.136139	-0.234635	-0.050842	-0.230753	-0.037131	-0.17944	0.106588	-0.098758	-0.157202	-0.068062	-0.25622	-0.131576	-0.089521	-0.176499	-0.312018	-0.126019	-0.083779	
0.728736	4.40063	5	0	-0.0645255	-0.199849	-0.0396692	-0.159082	0.0566737	-0.37154	0.0097705	-0.183089	0.0182275	-0.343936	-0.011143	-0.221051	-0.0857143	-0.262564	-0.133762	-0.132767	-0.233695	-0.053498	-0.223862	-0.0460807	-0.17504	0.103713	-0.0964278	-0.163788	-0.0741138	-0.252266	-0.130549	-0.092423	-0.176499	-0.312018	-0.130058	-0.083164	
0.730994	4.40063	5	0	-0.062281	-0.19536	-0.0348865	-0.149843	0.0679455	-0.376324	0.012337	-0.180511	0.021058	-0.34187	-0.007905	-0.217467	-0.0768985	-0.26396	-0.134956	-0.129395	-0.232756	-0.056154	-0.216971	-0.0550305	-0.170641	0.100838	-0.0940975	-0.170374	-0.0801655	-0.248311	-0.129522	-0.095325	-0.176499	-0.312018	-0.134097	-0.082549	
0.733351	4.39758	5	0	-0.0600365	-0.190871	-0.0301037	-0.140604	0.0792173	-0.381107	0.0149035	-0.177932	0.0238885	-0.339804	-0.004667	-0.213882	-0.0680827	-0.265357	-0.136149	-0.126023	-0.231816	-0.05881	-0.21008	-0.0639802	-0.166242	0.0979638	-0.0917672	-0.17696	-0.0862172	-0.244357	-0.128495	-0.098227	-0.176499	-0.312018	-0.138137	-0.081934	
0.735762	4.39758	5	0	-0.057792	-0.186382	-0.025321	-0.131365	0.090489	-0.385891	0.01747	-0.175354	0.026719	-0.337738	-0.001429	-0.210298	-0.059267	-0.266754	-0.137342	-0.122651	-0.230876	-0.061466	-0.203189	-0.07293	-0.161842	0.095089	-0.089437	-0.183546	-0.092269	-0.240402	-0.127468	-0.101129	-0.176499	-0.312018	-0.142176	-0.081319	
0.738179	4.39453	5	0	-0.0587063	-0.183798	-0.029881	-0.118478	0.0893005	-0.382532	0.0210175	-0.175544	0.0249158	-0.332642	0.0050525	-0.203119	-0.0568647	-0.261773	-0.134254	-0.119481	-0.221087	-0.0658205	-0.194515	-0.0763747	-0.156674	0.0900465	-0.0809353	-0.181505	-0.0911508	-0.230413	-0.128392	-0.0871282	-0.173817	-0.302719	-0.142799	-0.0687563	
0.74056	4.39453	5	0	-0.0596205	-0.181215	-0.034441	-0.105592	0.088112	-0.379173	0.024565	-0.175733	0.0231125	-0.327546	0.011534	-0.195939	-0.0544625	-0.256793	-0.131165	-0.116312	-0.211297	-0.070175	-0.185841	-0.0798195	-0.151506	0.085004	-0.0724335	-0.179463	-0.0900325	-0.220424	-0.129317	-0.0731275	-0.171135	-0.29342	-0.143423	-0.0561935	
0.742857	4.39453	5	0	-0.0605347	-0.178631	-0.039001	-0.0927048	0.0869235	-0.375813	0.0281125	-0.175922	0.0213092	-0.32245	0.0180155	-0.18876	-0.0520603	-0.251812	-0.128077	-0.113143	-0.201508	-0.0745295	-0.177166	-0.0832642	-0.146337	0.0799615	-0.0639318	-0.177422	-0.0889143	-0.210436	-0.130242	-0.0591267	-0.168454	-0.284121	-0.144046	-0.0436307	
0.745031	4.393	5	0	-0.061449	-0.176047	-0.043561	-0.079818	0.085735	-0.372454	0.03166	-0.176112	0.019506	-0.317354	0.024497	-0.181581	-0.049658	-0.246832	-0.124989	-0.109973	-0.191719	-0.078884	-0.168492	-0.086709	-0.141169	0.074919	-0.05543	-0.175381	-0.087796	-0.200447	-0.131166	-0.045126	-0.165772	-0.274822	-0.14467	-0.031068	
0.747073	4.39148	5	0	-0.061449	-0.176047	-0.0499403	-0.0731705	0.085735	-0.372454	0.0352097	-0.176302	0.0204077	-0.319902	0.0316847	-0.189133	-0.053065	-0.248973	-0.118316	-0.116928	-0.190779	-0.08154	-0.167469	-0.0896005	-0.141169	0.074919	-0.0542642	-0.178676	-0.0927375	-0.186482	-0.130039	-0.036917	-0.181185	-0.24814	-0.14934	-0.0178707	
0.748979	4.38995	5	0	-0.061449	-0.176047	-0.0563195	-0.066523	0.085735	-0.372454	0.0387595	-0.176492	0.0213095	-0.32245	0.0388725	-0.196685	-0.056472	-0.251115	-0.111642	-0.123883	-0.189839	-0.084196	-0.166445	-0.092492	-0.141169	0.074919	-0.0530985	-0.181971	-0.097679	-0.172517	-0.128911	-0.028708	-0.196599	-0.221457	-0.154009	-0.0046735	
0.750748	4.38843	5	0	-0.061449	-0.176047	-0.0626987	-0.0598755	0.085735	-0.372454	0.0423092	-0.176683	0.0222113	-0.324999	0.0460602	-0.204237	-0.059879	-0.253256	-0.104968	-0.130837	-0.1889	-0.086852	-0.165422	-0.0953835	-0.141169	0.074919	-0.0519327	-0.185265	-0.102621	-0.158552	-0.127783	-0.020499	-0.212012	-0.194774	-0.158679	0.00852375	
0.752377	4.38843	5	0	-0.061449	-0.176047	-0.069078	-0.053228	0.085735	-0.372454	0.045859	-0.176873	0.023113	-0.327547	0.053248	-0.211789	-0.063286	-0.255397	-0.098295	-0.137792	-0.18796	-0.089508	-0.164399	-0.098275	-0.141169	0.074919	-0.050767	-0.18856	-0.107562	-0.144587	-0.126656	-0.01229	-0.227426	-0.168092	-0.163349	0.021721	
0.753865	4.39148	5	0	-0.0601203	-0.168964	-0.0643092	-0.043935	0.0895932	-0.369807	0.0464682	-0.168747	0.0259445	-0.325478	0.0564967	-0.2082	-0.0608847	-0.250414	-0.0963955	-0.131247	-0.18796	-0.089508	-0.160569	-0.0985545	-0.141935	0.0770852	-0.0447618	-0.192484	-0.108551	-0.141791	-0.128717	-0.0064665	-0.213158	-0.174643	-0.163349	0.021721	
0.7552	4.38995	5	0	-0.0587915	-0.161882	-0.0595405	-0.034642	0.0934515	-0.36716	0.0470775	-0.160622	0.028776	-0.32341	0.0597455	-0.204611	-0.0584835	-0.24543	-0.094496	-0.124702	-0.18796	-0.089508	-0.15674	-0.098834	-0.142702	0.0792515	-0.0387565	-0.196408	-0.10954	-0.138996	-0.130777	-0.000643	-0.19889	-0.181194	-0.163349	0.021721	
0.756321	4.39453	5	0	-0.0574627	-0.154799	-0.0547718	-0.025349	0.0973098	-0.364513	0.0476867	-0.152496	0.0316075	-0.321341	0.0629943	-0.201021	-0.0560823	-0.240447	-0.0925965	-0.118158	-0.18796	-0.089508	-0.152911	-0.0991135	-0.143468	0.0814178	-0.0327512	-0.200332	-0.11053	-0.136201	-0.132838	0.0051805	-0.184622	-0.187744	-0.163349	0.021721	
0.757152	4.39453	5	0	-0.056134	-0.147716	-0.050003	-0.016056	0.101168	-0.361866	0.048296	-0.14437	0.034439	-0.319272	0.066243	-0.197432	-0.053681	-0.235464	-0.090697	-0.111613	-0.18796	-0.089508	-0.149081	-0.099393	-0.144235	0.083584	-0.026746	-0.204256	-0.111519	-0.133405	-0.134899	0.011004	-0.170354	-0.194295	-0.163349	0.021721	
0.757615	4.39911	5	0	-0.0548065	-0.140623	-0.058016	0.00658975	0.0987875	-0.355139	0.0489025	-0.136232	0.0345627	-0.309546	0.0714282	-0.18652	-0.053293	-0.224783	-0.0887982	-0.105059	-0.1889	-0.086852	-0.142438	-0.0970598	-0.139831	0.0807063	-0.0182217	-0.202224	-0.103362	-0.130131	-0.128525	0.0158025	-0.170238	-0.177713	-0.157139	0.025791	
0.757632	4.39911	5	0	-0.053479	-0.13353	-0.066029	0.0292355	0.096407	-0.348411	0.049509	-0.128095	0.0346865	-0.29982	0.0766135	-0.175607	-0.052905	-0.214102	-0.0868995	-0.0985055	-0.189839	-0.084196	-0.135796	-0.0947265	-0.135427	0.0778285	-0.0096975	-0.200192	-0.0952055	-0.126857	-0.122151	0.020601	-0.170123	-0.161131	-0.150929	0.029861	
0.757127	4.40216	5	0	-0.0521515	-0.126437	-0.074042	0.0518813	0.0940265	-0.341683	0.0501155	-0.119957	0.0348103	-0.290095	0.0817988	-0.164694	-0.052517	-0.203421	-0.0850007	-0.0919517	-0.190779	-0.08154	-0.129154	-0.0923932	-0.131023	0.0749507	-0.00117325	-0.19816	-0.0870488	-0.123583	-0.115778	0.0253995	-0.170007	-0.144548	-0.144719	0.033931	
0.756042	4.40216	5	0	-0.050824	-0.119344	-0.082055	0.074527	0.091646	-0.334956	0.050722	-0.111819	0.034934	-0.280369	0.086984	-0.153782	-0.052129	-0.19274	-0.083102	-0.085398	-0.191719	-0.078884	-0.122511	-0.09006	-0.126619	0.072073	0.007351	-0.196128	-0.078892	-0.120309	-0.109404	0.030198	-0.169891	-0.127966	-0.138509	0.038001	
0.754445	4.40063	5	0	-0.050824	-0.119344	-0.0779568	0.07434	0.091646	-0.334956	0.0542762	-0.112006	0.034934	-0.280369	0.086984	-0.153782	-0.051122	-0.195586	-0.0842987	-0.0820157	-0.191719	-0.078884	-0.123535	-0.0871647	-0.125852	0.0699068	0.007351	-0.196128	-0.0889173	-0.105144	-0.10828	0.0384387	-0.173731	-0.117112	-0.142254	0.0485853	
0.752453	4.40216	5	0	-0.050824	-0.119344	-0.0738585	0.074153	0.091646	-0.334956	0.0578305	-0.112194	0.034934	-0.280369	0.086984	-0.153782	-0.050115	-0.198433	-0.0854955	-0.0786335	-0.191719	-0.078884	-0.12456	-0.0842695	-0.125086	0.0677405	0.007351	-0.196128	-0.0989425	-0.0899785	-0.107157	0.0466795	-0.177571	-0.106259	-0.146	0.0591695	
0.750182	4.40216	5	0	-0.050824	-0.119344	-0.0697602	0.073966	0.091646	-0.334956	0.0613848	-0.112381	0.034934	-0.280369	0.086984	-0.153782	-0.049108	-0.201279	-0.0866922	-0.0752513	-0.191719	-0.078884	-0.125584	-0.0813742	-0.124319	0.0655743	0.007351	-0.196128	-0.108968	-0.0748132	-0.106033	0.0549202	-0.181412	-0.0954055	-0.149745	0.0697538	
0.747751	4.40063	5	0	-0.050824	-0.119344	-0.065662	0.073779	0.091646	-0.334956	0.064939	-0.112568	0.034934	-0.280369	0.086984	-0.153782	-0.048101	-0.204125	-0.087889	-0.071869	-0.191719	-0.078884	-0.126609	-0.078479	-0.123552	0.063408	0.007351	-0.196128	-0.118993	-0.059648	-0.104909	0.063161	-0.185252	-0.084552	-0.15349	0.080338	
0.745275	4.39911	5	0	-0.0485805	-0.114834	-0.0650037	0.083321	0.0892638	-0.328224	0.0665282	-0.107197	0.0340305	-0.277815	0.0915558	-0.153906	-0.0456995	-0.199127	-0.0793005	-0.0722775	-0.187289	-0.0797357	-0.127634	-0.0755827	-0.123552	0.063408	0.00851775	-0.199425	-0.112933	-0.063608	-0.103876	0.060241	-0.186533	-0.0809313	-0.151617	0.0750443	
0.742879	4.40063	5	0	-0.046337	-0.110324	-0.0643455	0.092863	0.0868815	-0.321491	0.0681175	-0.101825	0.033127	-0.275262	0.0961275	-0.154029	-0.043298	-0.19413	-0.070712	-0.072686	-0.18286	-0.0805875	-0.128659	-0.0726865	-0.123552	0.063408	0.0096845	-0.202722	-0.106872	-0.067568	-0.102843	0.057321	-0.187814	-0.0773105	-0.149743	0.0697505	
0.740724	4.39606	5	0	-0.0440935	-0.105813	-0.0636873	0.102405	0.0844992	-0.314759	0.0697067	-0.0964542	0.0322235	-0.272708	0.100699	-0.154152	-0.0408965	-0.189132	-0.0621235	-0.0730945	-0.17843	-0.0814393	-0.129683	-0.0697902	-0.123552	0.063408	0.0108512	-0.20602	-0.100811	-0.071528	-0.101809	0.054401	-0.189096	-0.0736897	-0.14787	0.0644568	
0.738983	4.393	5	0	-0.04185	-0.101303	-0.063029	0.111947	0.082117	-0.308027	0.071296	-0.091083	0.03132	-0.270155	0.105271	-0.154276	-0.038495	-0.184134	-0.053535	-0.073503	-0.174001	-0.082291	-0.130708	-0.066894	-0.123552	0.063408	0.012018	-0.209317	-0.094751	-0.075488	-0.100776	0.051481	-0.190377	-0.070069	-0.145997	0.059163	
0.73783	4.39453	5	0	-0.044603	-0.0935225	-0.0728733	0.128366	0.079733	-0.301289	0.0693277	-0.0855205	0.0277035	-0.259934	0.101314	-0.143092	-0.037102	-0.176279	-0.0571308	-0.0633413	-0.176823	-0.0743163	-0.128923	-0.061376	-0.119146	0.0605288	0.0145345	-0.203354	-0.0926562	-0.0682315	-0.0923245	0.050449	-0.186434	-0.064288	-0.14289	0.061203	
0.737438	4.39453	5	0	-0.047356	-0.085742	-0.0827175	0.144785	0.077349	-0.294552	0.0673595	-0.079958	0.024087	-0.249713	0.097356	-0.131908	-0.035709	-0.168423	-0.0607265	-0.0531795	-0.179645	-0.0663415	-0.127139	-0.055858	-0.114739	0.0576495	0.017051	-0.197391	-0.0905615	-0.060975	-0.083873	0.049417	-0.182491	-0.058507	-0.139784	0.063243	
0.737983	4.39453	5	0	-0.050109	-0.0779615	-0.0925617	0.161204	0.074965	-0.287815	0.0653912	-0.0743955	0.0204705	-0.239492	0.0933985	-0.120723	-0.034316	-0.160567	-0.0643222	-0.0430178	-0.182467	-0.0583668	-0.125355	-0.05034	-0.110333	0.0547702	0.0195675	-0.191428	-0.0884668	-0.0537185	-0.0754215	0.048385	-0.178548	-0.052726	-0.136678	0.065283	
0.739558	4.38995	5	0	-0.052862	-0.070181	-0.102406	0.177623	0.072581	-0.281077	0.063423	-0.068833	0.016854	-0.229271	0.089441	-0.109539	-0.032923	-0.152712	-0.067918	-0.032856	-0.185289	-0.050392	-0.12357	-0.044822	-0.105927	0.051891	0.022084	-0.185465	-0.086372	-0.046462	-0.06697	0.047353	-0.174605	-0.046945	-0.133571	0.067323	
0.741928	4.38843	5	0	-0.046947	-0.0760405	-0.105352	0.174552	0.072581	-0.281077	0.0644072	-0.0716148	0.013121	-0.228797	0.0920798	-0.116997	-0.0393597	-0.146313	-0.066719	-0.0362445	-0.18623	-0.047732	-0.121519	-0.0506193	-0.1111	0.0569365	0.0184008	-0.188131	-0.0954173	-0.0340753	-0.069038	0.0531975	-0.17066	-0.041155	-0.136383	0.0752695	
0.744772	4.3869	5	0	-0.041032	-0.0819	-0.108297	0.171482	0.072581	-0.281077	0.0653915	-0.0743965	0.009388	-0.228324	0.0947185	-0.124454	-0.0457965	-0.139913	-0.06552	-0.039633	-0.187171	-0.045072	-0.119468	-0.0564165	-0.116273	0.061982	0.0147175	-0.190796	-0.104462	-0.0216885	-0.071106	0.059042	-0.166714	-0.035365	-0.139195	0.083216	
0.747766	4.38537	5	0	-0.035117	-0.0877595	-0.111243	0.168411	0.072581	-0.281077	0.0663757	-0.0771783	0.005655	-0.22785	0.0973573	-0.131912	-0.0522333	-0.133514	-0.064321	-0.0430215	-0.188112	-0.042412	-0.117416	-0.0622137	-0.121446	0.0670275	0.0110342	-0.193462	-0.113508	-0.00930175	-0.073174	0.0648865	-0.162769	-0.029575	-0.142007	0.0911625	
0.75059	4.3808	5	0	-0.029202	-0.093619	-0.114189	0.165341	0.072581	-0.281077	0.06736	-0.07996	0.001922	-0.227376	0.099996	-0.13937	-0.05867	-0.127115	-0.063122	-0.04641	-0.189053	-0.039752	-0.115365	-0.068011	-0.126619	0.072073	0.007351	-0.196128	-0.122553	0.003085	-0.075242	0.070731	-0.158824	-0.023785	-0.144819	0.099109	
0.752922	4.37775	5	0	-0.0301198	-0.0910247	-0.110093	0.165162	0.0713885	-0.277706	0.065391	-0.0743957	0.0065595	-0.230406	0.101315	-0.143096	-0.0532427	-0.130661	-0.063122	-0.04641	-0.189053	-0.039752	-0.120226	-0.0648345	-0.126619	0.072073	0.00851775	-0.199425	-0.119572	-0.00533875	-0.076368	0.0624833	-0.148452	-0.036142	-0.14107	0.0885153	
0.754515	4.37775	5	0	-0.0310375	-0.0884305	-0.105998	0.164984	0.070196	-0.274336	0.063422	-0.0688315	0.011197	-0.233436	0.102634	-0.146823	-0.0478155	-0.134208	-0.063122	-0.04641	-0.189053	-0.039752	-0.125087	-0.061658	-0.126619	0.072073	0.0096845	-0.202722	-0.116592	-0.0137625	-0.077494	0.0542355	-0.13808	-0.048499	-0.137322	0.0779215	
0.755472	4.36859	5	0	-0.0319552	-0.0858363	-0.101903	0.164805	0.0690035	-0.270965	0.061453	-0.0632672	0.0158345	-0.236467	0.103952	-0.15055	-0.0423883	-0.137754	-0.063122	-0.04641	-0.189053	-0.039752	-0.129948	-0.0584815	-0.126619	0.072073	0.0108512	-0.20602	-0.113611	-0.0221862	-0.07862	0.0459878	-0.127708	-0.060856	-0.133574	0.0673277	
0.755994	4.37317	5	0	-0.032873	-0.083242	-0.097807	0.164626	0.067811	-0.267594	0.059484	-0.057703	0.020472	-0.239497	0.105271	-0.154276	-0.036961	-0.1413	-0.063122	-0.04641	-0.189053	-0.039752	-0.134809	-0.055305	-0.126619	0.072073	0.012018	-0.209317	-0.110631	-0.03061	-0.079746	0.03774	-0.117336	-0.073213	-0.129825	0.056734	
0.75628	4.36706	5	0	-0.0337913	-0.080647	-0.0971605	0.174201	0.060381	-0.260147	0.05396	-0.0519535	0.0168522	-0.229267	0.102633	-0.146821	-0.0389808	-0.135592	-0.0600235	-0.0432232	-0.189995	-0.0370912	-0.131999	-0.0526843	-0.126619	0.072073	0.00968425	-0.202721	-0.0984972	-0.0385385	-0.0702545	0.0337828	-0.11862	-0.0695848	-0.125779	0.0561255	
0.75653	4.36554	5	0	-0.0347095	-0.078052	-0.096514	0.183776	0.052951	-0.252699	0.048436	-0.046204	0.0132325	-0.219037	0.0999955	-0.139367	-0.0410005	-0.129884	-0.056925	-0.0400365	-0.190936	-0.0344305	-0.12919	-0.0500635	-0.126619	0.072073	0.0073505	-0.196126	-0.0863635	-0.046467	-0.060763	0.0298255	-0.119903	-0.0659565	-0.121733	0.055517	
0.756944	4.36554	5	0	-0.0356277	-0.075457	-0.0958675	0.193351	0.045521	-0.245252	0.042912	-0.0404545	0.00961275	-0.208808	0.0973577	-0.131912	-0.0430202	-0.124175	-0.0538265	-0.0368498	-0.191877	-0.0317697	-0.12638	-0.0474427	-0.126619	0.072073	0.00501675	-0.18953	-0.0742297	-0.0543955	-0.0512715	0.0258683	-0.121187	-0.0623283	-0.117687	0.0549085	
0.757673	4.35791	5	0	-0.036546	-0.072862	-0.095221	0.202926	0.038091	-0.237805	0.037388	-0.034705	0.005993	-0.198578	0.09472	-0.124457	-0.04504	-0.118467	-0.050728	-0.033663	-0.192819	-0.029109	-0.12357	-0.044822	-0.126619	0.072073	0.002683	-0.182934	-0.062096	-0.062324	-0.04178	0.021911	-0.122471	-0.0587	-0.113641	0.0543	
0.758599	4.35943	5	0	-0.039707	-0.074786	-0.102262	0.200027	0.033052	-0.237105	0.0383727	-0.0374885	0.00407075	-0.203221	0.0973577	-0.131912	-0.0484475	-0.120629	-0.0495285	-0.037053	-0.196306	-0.030921	-0.12638	-0.0474427	-0.126619	0.072073	0.002683	-0.182934	-0.0711455	-0.0499347	-0.0448815	0.0306765	-0.12504	-0.0514395	-0.116453	0.0622468	
0.759515	4.35791	5	0	-0.042868	-0.07671	-0.109303	0.197128	0.028013	-0.236404	0.0393575	-0.040272	0.0021485	-0.207864	0.0999955	-0.139367	-0.051855	-0.122791	-0.048329	-0.040443	-0.199793	-0.032733	-0.12919	-0.0500635	-0.126619	0.072073	0.002683	-0.182934	-0.080195	-0.0375455	-0.047983	0.039442	-0.127609	-0.044179	-0.119264	0.0701935	
0.760215	4.35333	5	0	-0.046029	-0.078634	-0.116344	0.19423	0.022974	-0.235704	0.0403423	-0.0430555	0.00022625	-0.212507	0.102633	-0.146821	-0.0552625	-0.124953	-0.0471295	-0.043833	-0.20328	-0.034545	-0.131999	-0.0526843	-0.126619	0.072073	0.002683	-0.182934	-0.0892445	-0.0251562	-0.0510845	0.0482075	-0.130179	-0.0369185	-0.122076	0.0781402	
0.760493	4.35333	5	0	-0.04919	-0.080558	-0.123385	0.191331	0.017935	-0.235004	0.041327	-0.045839	-0.001696	-0.21715	0.105271	-0.154276	-0.05867	-0.127115	-0.04593	-0.047223	-0.206767	-0.036357	-0.134809	-0.055305	-0.126619	0.072073	0.002683	-0.182934	-0.098294	-0.012767	-0.054186	0.056973	-0.132748	-0.029658	-0.124888	0.086087	
0.760142	4.34875	5	0	-0.044193	-0.0838233	-0.114042	0.187725	0.017935	-0.235004	0.0367903	-0.0428745	-0.001696	-0.21715	0.105271	-0.154276	-0.05867	-0.127115	-0.04593	-0.047223	-0.212133	-0.0328507	-0.135835	-0.052407	-0.131023	0.0749507	-0.00333075	-0.179005	-0.0963067	-0.0183835	-0.052118	0.0511283	-0.131463	-0.033289	-0.122076	0.0781402	
0.759004	4.34723	5	0	-0.039196	-0.0870885	-0.1047	0.184119	0.017935	-0.235004	0.0322535	-0.03991	-0.001696	-0.21715	0.105271	-0.154276	-0.05867	-0.127115	-0.04593	-0.047223	-0.217499	-0.0293445	-0.13686	-0.049509	-0.135427	0.0778285	-0.0093445	-0.175075	-0.0943195	-0.024	-0.05005	0.0452835	-0.130178	-0.03692	-0.119264	0.0701935	
0.757246	4.3457	5	0	-0.034199	-0.0903537	-0.0953575	0.180514	0.017935	-0.235004	0.0277167	-0.0369455	-0.001696	-0.21715	0.105271	-0.154276	-0.05867	-0.127115	-0.04593	-0.047223	-0.222865	-0.0258383	-0.137885	-0.046611	-0.139831	0.0807063	-0.0153583	-0.171146	-0.0923323	-0.0296165	-0.047982	0.0394388	-0.128893	-0.040551	-0.116453	0.0622468	
0.755173	4.34418	5	0	-0.029202	-0.093619	-0.086015	0.176908	0.017935	-0.235004	0.02318	-0.033981	-0.001696	-0.21715	0.105271	-0.154276	-0.05867	-0.127115	-0.04593	-0.047223	-0.228231	-0.022332	-0.138911	-0.043713	-0.144235	0.083584	-0.021372	-0.167217	-0.090345	-0.035233	-0.045914	0.033594	-0.127608	-0.044182	-0.113641	0.0543	
0.753092	4.3457	5	0	-0.031038	-0.0884298	-0.0883165	0.183413	0.0167417	-0.231632	0.022195	-0.0311975	-0.00531675	-0.206917	0.107207	-0.146943	-0.06069	-0.121407	-0.0440292	-0.0406437	-0.224747	-0.0205178	-0.131238	-0.0442683	-0.139831	0.0807063	-0.0128445	-0.165176	-0.0872575	-0.0307723	-0.0437493	0.0389207	-0.121082	-0.0456548	-0.101488	0.0524683	
0.751306	4.34112	5	0	-0.032874	-0.0832405	-0.090618	0.189917	0.0155485	-0.22826	0.02121	-0.028414	-0.0089375	-0.196684	0.109144	-0.139609	-0.06271	-0.115699	-0.0421285	-0.0340645	-0.221264	-0.0187035	-0.123565	-0.0448235	-0.135427	0.0778285	-0.004317	-0.163135	-0.08417	-0.0263115	-0.0415845	0.0442475	-0.114556	-0.0471275	-0.0893345	0.0506365	
0.750123	4.34112	5	0	-0.03471	-0.0780512	-0.0929195	0.196421	0.0143552	-0.224888	0.020225	-0.0256305	-0.0125582	-0.186452	0.11108	-0.132276	-0.06473	-0.10999	-0.0402277	-0.0274853	-0.21778	-0.0168893	-0.115892	-0.0453788	-0.131023	0.0749507	0.0042105	-0.161093	-0.0810825	-0.0218507	-0.0394198	0.0495743	-0.10803	-0.0486002	-0.0771813	0.0488048	
0.749799	4.34112	5	0	-0.036546	-0.072862	-0.095221	0.202926	0.013162	-0.221516	0.01924	-0.022847	-0.016179	-0.176219	0.113016	-0.124943	-0.06675	-0.104282	-0.038327	-0.020906	-0.214297	-0.015075	-0.108219	-0.045934	-0.126619	0.072073	0.012738	-0.159052	-0.077995	-0.01739	-0.037255	0.054901	-0.101504	-0.050073	-0.065028	0.046973	
0.75026	4.3396	5	0	-0.039707	-0.074786	-0.102262	0.200027	0.00693425	-0.217447	0.016675	-0.02545	-0.0199085	-0.17575	0.109761	-0.12855	-0.06675	-0.104282	-0.038327	-0.020906	-0.215239	-0.0124135	-0.113083	-0.042756	-0.126619	0.072073	0.00788875	-0.158422	-0.0809795	-0.00895575	-0.0403608	0.063678	-0.113172	-0.0340673	-0.0737722	0.0608407	
0.751293	4.33807	5	0	-0.042868	-0.07671	-0.109303	0.197128	0.0007065	-0.213377	0.01411	-0.028053	-0.023638	-0.175281	0.106506	-0.132157	-0.06675	-0.104282	-0.038327	-0.020906	-0.21618	-0.009752	-0.117947	-0.039578	-0.126619	0.072073	0.0030395	-0.157792	-0.083964	-0.0005215	-0.0434665	0.072455	-0.124841	-0.0180615	-0.0825165	0.0747085	
0.752686	4.33502	5	0	-0.046029	-0.078634	-0.116344	0.19423	-0.00552125	-0.209308	0.011545	-0.030656	-0.0273675	-0.174811	0.103251	-0.135763	-0.06675	-0.104282	-0.038327	-0.020906	-0.217122	-0.0070905	-0.12281	-0.0364	-0.126619	0.072073	-0.00180975	-0.157162	-0.0869485	0.00791275	-0.0465723	0.081232	-0.13651	-0.00205575	-0.0912608	0.0885762	
0.754226	4.33197	5	0	-0.04919	-0.080558	-0.123385	0.191331	-0.011749	-0.205239	0.00898	-0.033259	-0.031097	-0.174342	0.099996	-0.13937	-0.06675	-0.104282	-0.038327	-0.020906	-0.218064	-0.004429	-0.127674	-0.033222	-0.126619	0.072073	-0.006659	-0.156532	-0.089933	0.016347	-0.049678	0.090009	-0.148178	0.01395	-0.100005	0.102444	
0.7557	4.32739	5	0	-0.050108	-0.0779637	-0.124535	0.194581	-0.0129425	-0.201866	0.0079955	-0.0304765	-0.0320025	-0.171783	0.10589	-0.143221	-0.062333	-0.104973	-0.032823	-0.0245023	-0.213637	-0.00527525	-0.126648	-0.036122	-0.126619	0.072073	-0.005491	-0.159833	-0.087943	0.0107233	-0.0465723	0.081232	-0.144321	0.003048	-0.09719	0.094488	
0.756919	4.32892	5	0	-0.051026	-0.0753695	-0.125685	0.197831	-0.014136	-0.198493	0.007011	-0.027694	-0.032908	-0.169223	0.111784	-0.147072	-0.057916	-0.105663	-0.027319	-0.0280985	-0.209209	-0.0061215	-0.125622	-0.039022	-0.126619	0.072073	-0.004323	-0.163134	-0.085953	0.0050995	-0.0434665	0.072455	-0.140463	-0.007854	-0.094375	0.086532	
0.757875	4.32587	5	0	-0.051944	-0.0727752	-0.126835	0.201082	-0.0153295	-0.195119	0.0060265	-0.0249115	-0.0338135	-0.166664	0.117677	-0.150923	-0.053499	-0.106354	-0.021815	-0.0316948	-0.204782	-0.00696775	-0.124596	-0.041922	-0.126619	0.072073	-0.003155	-0.166435	-0.083963	-0.00052425	-0.0403608	0.063678	-0.136605	-0.018756	-0.09156	0.078576	
0.758652	4.32587	5	0	-0.052862	-0.070181	-0.127985	0.204332	-0.016523	-0.191746	0.005042	-0.022129	-0.034719	-0.164105	0.123571	-0.154774	-0.049082	-0.107045	-0.016311	-0.035291	-0.200354	-0.007814	-0.12357	-0.044822	-0.126619	0.072073	-0.001987	-0.169736	-0.081973	-0.006148	-0.037255	0.054901	-0.132748	-0.029658	-0.088745	0.07062	
0.759334	4.32129	5	0	-0.05378	-0.067586	-0.126193	0.210664	-0.017717	-0.188371	0.004057	-0.0193455	-0.031896	-0.162013	0.120932	-0.147316	-0.052115	-0.098473	-0.017512	-0.0318973	-0.202239	-0.00248725	-0.120759	-0.042199	-0.127386	0.0742397	0.00286275	-0.170367	-0.0778898	-0.00449275	-0.0330195	0.0543817	-0.126222	-0.0311293	-0.0796977	0.0667465	
0.760003	4.31976	5	0	-0.054698	-0.064991	-0.124401	0.216995	-0.018911	-0.184997	0.003072	-0.016562	-0.029073	-0.159921	0.118293	-0.139858	-0.055148	-0.089901	-0.018713	-0.0285035	-0.204124	0.0028395	-0.117947	-0.039576	-0.128152	0.0764065	0.0077125	-0.170998	-0.0738065	-0.0028375	-0.028784	0.0538625	-0.119697	-0.0326005	-0.0706505	0.062873	
0.760742	4.31976	5	0	-0.055616	-0.062396	-0.12261	0.223327	-0.020105	-0.181622	0.002087	-0.0137785	-0.02625	-0.157828	0.115655	-0.132401	-0.058181	-0.081329	-0.019914	-0.0251098	-0.206008	0.00816625	-0.115136	-0.036953	-0.128918	0.0785733	0.0125623	-0.17163	-0.0697233	-0.00118225	-0.0245485	0.0533433	-0.113171	-0.0340717	-0.0616032	0.0589995	
0.761629	4.32129	5	0	-0.056534	-0.059801	-0.120818	0.229658	-0.021299	-0.178248	0.001102	-0.010995	-0.023427	-0.155736	0.113016	-0.124943	-0.061214	-0.072757	-0.021115	-0.021716	-0.207893	0.013493	-0.112325	-0.03433	-0.129685	0.08074	0.017412	-0.172261	-0.06564	0.000473	-0.020313	0.052824	-0.106645	-0.035543	-0.052556	0.055126	
0.762684	4.31671	5	0	-0.054698	-0.0649902	-0.12261	0.223327	-0.020105	-0.181622	0.0030715	-0.016561	-0.02625	-0.157828	0.109761	-0.12855	-0.058181	-0.081329	-0.025418	-0.0215135	-0.211378	0.0116747	-0.115136	-0.036953	-0.128918	0.0785733	0.0137298	-0.174929	-0.0717133	0.0044415	-0.0276543	0.0621203	-0.107931	-0.031909	-0.059427	0.063694	
0.76389	4.31671	5	0	-0.052862	-0.0701795	-0.124401	0.216995	-0.018911	-0.184997	0.005041	-0.022127	-0.029073	-0.159921	0.106506	-0.132157	-0.055148	-0.089901	-0.029721	-0.021311	-0.214863	0.0098565	-0.117947	-0.039576	-0.128152	0.0764065	0.0100475	-0.177598	-0.0777865	0.00841	-0.0349955	0.0714165	-0.109217	-0.028275	-0.066298	0.072262	
0.76523	4.31366	5	0	-0.051026	-0.0753687	-0.126193	0.210664	-0.017717	-0.188371	0.0070105	-0.027693	-0.031896	-0.162013	0.103251	-0.135763	-0.052115	-0.098473	-0.034024	-0.0211085	-0.218347	0.00803825	-0.120759	-0.042199	-0.127386	0.0742397	0.00636525	-0.180266	-0.0838597	0.0123785	-0.0423367	0.0807127	-0.110503	-0.024641	-0.073169	0.08083	
0.766688	4.31061	5	0	-0.04919	-0.080558	-0.127985	0.204332	-0.016523	-0.191746	0.00898	-0.033259	-0.034719	-0.164105	0.099996	-0.13937	-0.049082	-0.107045	-0.038327	-0.020906	-0.221832	0.00622	-0.12357	-0.044822	-0.126619	0.072073	0.002683	-0.182934	-0.089933	0.016347	-0.049678	0.090009	-0.111789	-0.021007	-0.08004	0.089398	
0.768247	4.31213	5	0	-0.050108	-0.0779637	-0.123891	0.204157	-0.017717	-0.188371	0.01253	-0.0334395	-0.038446	-0.163637	0.101315	-0.143096	-0.0545093	-0.103499	-0.034024	-0.0211085	-0.219948	0.00089625	-0.12357	-0.044822	-0.126619	0.072073	0.00385	-0.186233	-0.0859542	0.005103	-0.0445035	0.0753855	-0.115744	-0.0268008	-0.0812782	0.082053	
0.769889	4.31366	5	0	-0.051026	-0.0753695	-0.119797	0.203982	-0.018911	-0.184997	0.01608	-0.03362	-0.042173	-0.163169	0.102634	-0.146823	-0.0599365	-0.0999525	-0.029721	-0.021311	-0.218064	-0.0044275	-0.12357	-0.044822	-0.126619	0.072073	0.005017	-0.189531	-0.0819755	-0.006141	-0.039329	0.060762	-0.119698	-0.0325945	-0.0825165	0.074708	
0.771571	4.31824	5	0	-0.051944	-0.0727752	-0.115703	0.203806	-0.020105	-0.181622	0.01963	-0.0338005	-0.0459	-0.162702	0.103952	-0.15055	-0.0653637	-0.0964062	-0.025418	-0.0215135	-0.216181	-0.00975125	-0.12357	-0.044822	-0.126619	0.072073	0.006184	-0.192829	-0.0779968	-0.017385	-0.0341545	0.0461385	-0.123653	-0.0383882	-0.0837548	0.067363	
0.773226	4.32281	5	0	-0.052862	-0.070181	-0.111609	0.203631	-0.021299	-0.178248	0.02318	-0.033981	-0.049627	-0.162234	0.105271	-0.154276	-0.070791	-0.09286	-0.021115	-0.021716	-0.214297	-0.015075	-0.12357	-0.044822	-0.126619	0.072073	0.007351	-0.196128	-0.074018	-0.028629	-0.02898	0.031515	-0.127608	-0.044182	-0.084993	0.060018	
0.774787	4.33502	5	0	-0.052862	-0.070181	-0.115063	0.213393	-0.0263282	-0.177556	0.02318	-0.033981	-0.0514382	-0.157115	0.107207	-0.146943	-0.0718017	-0.0900035	-0.023518	-0.0149248	-0.219663	-0.0115687	-0.115892	-0.045379	-0.126619	0.072073	0.0122018	-0.196762	-0.068939	-0.0297878	-0.0257782	0.0339175	-0.114549	-0.0471307	-0.0768838	0.058795	
0.776188	4.34418	5	0	-0.052862	-0.070181	-0.118517	0.223155	-0.0313575	-0.176864	0.02318	-0.033981	-0.0532495	-0.151996	0.109144	-0.139609	-0.0728125	-0.087147	-0.025921	-0.0081335	-0.225029	-0.0080625	-0.108214	-0.045936	-0.126619	0.072073	0.0170525	-0.197396	-0.06386	-0.0309465	-0.0225765	0.03632	-0.10149	-0.0500795	-0.0687745	0.057572	
0.77736	4.35638	5	0	-0.052862	-0.070181	-0.121971	0.232917	-0.0363868	-0.176173	0.02318	-0.033981	-0.0550607	-0.146876	0.11108	-0.132276	-0.0738233	-0.0842905	-0.028324	-0.00134225	-0.230396	-0.00455625	-0.100537	-0.046493	-0.126619	0.072073	0.0219032	-0.198029	-0.058781	-0.0321053	-0.0193747	0.0387225	-0.0884318	-0.0530282	-0.0606652	0.056349	
0.778239	4.36706	5	0	-0.052862	-0.070181	-0.125425	0.242679	-0.041416	-0.175481	0.02318	-0.033981	-0.056872	-0.141757	0.113016	-0.124943	-0.074834	-0.081434	-0.030727	0.005449	-0.235762	-0.00105	-0.092859	-0.04705	-0.126619	0.072073	0.026754	-0.198663	-0.053702	-0.033264	-0.016173	0.041125	-0.075373	-0.055977	-0.052556	0.055126	
0.778803	4.37164	5	0	-0.051944	-0.0727752	-0.121971	0.232917	-0.0402225	-0.178854	0.02318	-0.033981	-0.0550607	-0.146876	0.109761	-0.12855	-0.0718027	-0.0900005	-0.0295252	0.00205275	-0.229454	-0.007217	-0.0956728	-0.049671	-0.126619	0.072073	0.02307	-0.201327	-0.058781	-0.0321053	-0.020409	0.0416453	-0.080621	-0.058132	-0.056612	0.055738	
0.779108	4.37927	5	0	-0.051026	-0.0753695	-0.118517	0.223155	-0.039029	-0.182227	0.02318	-0.033981	-0.0532495	-0.151996	0.106506	-0.132157	-0.0687715	-0.098567	-0.0283235	-0.0013435	-0.223146	-0.013384	-0.0984865	-0.052292	-0.126619	0.072073	0.019386	-0.20399	-0.06386	-0.0309465	-0.024645	0.0421655	-0.085869	-0.060287	-0.060668	0.05635	
0.779216	4.3869	5	0	-0.050108	-0.0779637	-0.115063	0.213393	-0.0378355	-0.1856	0.02318	-0.033981	-0.0514382	-0.157115	0.103251	-0.135763	-0.0657403	-0.107133	-0.0271218	-0.00473975	-0.216839	-0.019551	-0.1013	-0.054913	-0.126619	0.072073	0.015702	-0.206653	-0.068939	-0.0297878	-0.028881	0.0426858	-0.091117	-0.062442	-0.064724	0.056962	
0.779192	4.38995	5	0	-0.04919	-0.080558	-0.111609	0.203631	-0.036642	-0.188973	0.02318	-0.033981	-0.049627	-0.162234	0.099996	-0.13937	-0.062709	-0.1157	-0.02592	-0.008136	-0.210531	-0.025718	-0.104114	-0.057534	-0.126619	0.072073	0.012018	-0.209317	-0.074018	-0.028629	-0.033117	0.043206	-0.096365	-0.064597	-0.06878	0.057574	
0.779096	4.38843	5	0	-0.046029	-0.078634	-0.107512	0.203455	-0.0316123	-0.189666	0.026732	-0.034162	-0.054257	-0.159209	0.10589	-0.143221	-0.068133	-0.112156	-0.0271218	-0.00473975	-0.214015	-0.0275305	-0.104114	-0.057534	-0.126619	0.072073	0.0192022	-0.216545	-0.0700445	-0.039859	-0.0342495	0.0349623	-0.0925138	-0.0754812	-0.0700215	0.0502385	
0.778993	4.38843	5	0	-0.042868	-0.07671	-0.103415	0.203279	-0.0265825	-0.19036	0.030284	-0.034343	-0.058887	-0.156183	0.111784	-0.147072	-0.073557	-0.108612	-0.0283235	-0.0013435	-0.2175	-0.029343	-0.104114	-0.057534	-0.126619	0.072073	0.0263865	-0.223774	-0.066071	-0.051089	-0.035382	0.0267185	-0.0886625	-0.0863655	-0.071263	0.042903	
0.778891	4.38385	5	0	-0.039707	-0.074786	-0.099318	0.203102	-0.0215527	-0.191053	0.033836	-0.034524	-0.063517	-0.153158	0.117677	-0.150923	-0.078981	-0.105068	-0.0295252	0.00205275	-0.220984	-0.0311555	-0.104114	-0.057534	-0.126619	0.072073	0.0335707	-0.231002	-0.0620975	-0.062319	-0.0365145	0.0184747	-0.0848113	-0.0972497	-0.0725045	0.0355675	
0.778636	4.37927	5	0	-0.036546	-0.072862	-0.095221	0.202926	-0.016523	-0.191746	0.037388	-0.034705	-0.068147	-0.150133	0.123571	-0.154774	-0.084405	-0.101524	-0.030727	0.005449	-0.224468	-0.032968	-0.104114	-0.057534	-0.126619	0.072073	0.040755	-0.23823	-0.058124	-0.073549	-0.037647	0.010231	-0.08096	-0.108134	-0.073746	0.028232	
0.77804	4.37622	5	0	-0.03471	-0.0780512	-0.0981672	0.19985	-0.0153295	-0.195119	0.0393575	-0.040271	-0.068147	-0.150133	0.123571	-0.154774	-0.0833953	-0.104378	-0.0252195	0.00185025	-0.224468	-0.032968	-0.0954042	-0.0609958	-0.126619	0.072073	0.0372548	-0.228338	-0.054037	-0.0719043	-0.0281425	0.00626525	-0.0822433	-0.104508	-0.065635	0.0270043	
0.776913	4.37317	5	0	-0.032874	-0.0832405	-0.101113	0.196775	-0.014136	-0.198493	0.041327	-0.045837	-0.068147	-0.150133	0.123571	-0.154774	-0.0823855	-0.107232	-0.019712	-0.0017485	-0.224468	-0.032968	-0.0866945	-0.0644575	-0.126619	0.072073	0.0337545	-0.218446	-0.04995	-0.0702595	-0.018638	0.0022995	-0.0835265	-0.100881	-0.057524	0.0257765	
0.775069	4.37317	5	0	-0.031038	-0.0884298	-0.10406	0.193699	-0.0129425	-0.201866	0.0432965	-0.051403	-0.068147	-0.150133	0.123571	-0.154774	-0.0813757	-0.110085	-0.0142045	-0.00534725	-0.224468	-0.032968	-0.0779848	-0.0679193	-0.126619	0.072073	0.0302542	-0.208555	-0.045863	-0.0686148	-0.0091335	-0.00166625	-0.0848098	-0.0972545	-0.049413	0.0245488	
0.772319	4.36249	5	0	-0.029202	-0.093619	-0.107006	0.190624	-0.011749	-0.205239	0.045266	-0.056969	-0.068147	-0.150133	0.123571	-0.154774	-0.080366	-0.112939	-0.008697	-0.008946	-0.224468	-0.032968	-0.069275	-0.071381	-0.126619	0.072073	0.026754	-0.198663	-0.041776	-0.06697	0.000371	-0.005632	-0.086093	-0.093628	-0.041302	0.023321	
0.768556	4.35943	5	0	-0.0314467	-0.098132	-0.112894	0.184481	-0.0155863	-0.207915	0.0426972	-0.059567	-0.0700593	-0.154783	0.120314	-0.158375	-0.0827593	-0.117953	-0.008697	-0.008946	-0.221647	-0.0409407	-0.0720925	-0.0739983	-0.131023	0.0749507	0.0302542	-0.208555	-0.040903	-0.0826323	-0.00191075	-0.022079	-0.0784013	-0.115366	-0.045668	0.0139643	
0.764115	4.35181	5	0	-0.0336915	-0.102645	-0.118783	0.178339	-0.0194235	-0.210591	0.0401285	-0.062165	-0.0719715	-0.159432	0.117057	-0.161975	-0.0851525	-0.122967	-0.008697	-0.008946	-0.218826	-0.0489135	-0.07491	-0.0766155	-0.135427	0.0778285	0.0337545	-0.218446	-0.04003	-0.0982945	-0.0041925	-0.038526	-0.0707095	-0.137103	-0.050034	0.0046075	
0.759473	4.34875	5	0	-0.0359363	-0.107158	-0.124671	0.172196	-0.0232608	-0.213268	0.0375598	-0.064763	-0.0738837	-0.164082	0.1138	-0.165575	-0.0875458	-0.12798	-0.008697	-0.008946	-0.216005	-0.0568862	-0.0777275	-0.0792328	-0.139831	0.0807063	0.0372548	-0.228338	-0.039157	-0.113957	-0.00647425	-0.054973	-0.0630177	-0.158841	-0.0544	-0.00474925	
0.755109	4.34418	5	0	-0.038181	-0.111671	-0.130559	0.166053	-0.027098	-0.215944	0.034991	-0.067361	-0.075796	-0.168732	0.110543	-0.169176	-0.089939	-0.132994	-0.008697	-0.008946	-0.213184	-0.064859	-0.080545	-0.08185	-0.144235	0.083584	0.040755	-0.23823	-0.038284	-0.129619	-0.008756	-0.07142	-0.055326	-0.180579	-0.058766	-0.014106	
0.751503	4.34418	5	0	-0.033184	-0.114936	-0.125317	0.162628	-0.027098	-0.215944	0.0395278	-0.0703255	-0.0795165	-0.168266	0.111861	-0.172899	-0.089939	-0.132994	-0.00749525	-0.0123423	-0.213184	-0.064859	-0.0795195	-0.0847482	-0.144235	0.083584	0.0419207	-0.241525	-0.0413808	-0.134053	-0.00887075	-0.0825325	-0.059298	-0.186324	-0.0550252	-0.0246777	
0.749133	4.33807	5	0	-0.028187	-0.118201	-0.120076	0.159203	-0.027098	-0.215944	0.0440645	-0.07329	-0.083237	-0.1678	0.113178	-0.176623	-0.089939	-0.132994	-0.0062935	-0.0157385	-0.213184	-0.064859	-0.078494	-0.0876465	-0.144235	0.083584	0.0430865	-0.244819	-0.0444775	-0.138487	-0.0089855	-0.093645	-0.06327	-0.19207	-0.0512845	-0.0352495	
0.748372	4.33807	5	0	-0.02319	-0.121466	-0.114835	0.155779	-0.027098	-0.215944	0.0486012	-0.0762545	-0.0869575	-0.167335	0.114496	-0.180346	-0.089939	-0.132994	-0.00509175	-0.0191347	-0.213184	-0.064859	-0.0774685	-0.0905448	-0.144235	0.083584	0.0442522	-0.248114	-0.0475742	-0.142922	-0.00910025	-0.104758	-0.067242	-0.197815	-0.0475438	-0.0458213	
0.749034	4.33502	5	0	-0.018193	-0.124731	-0.109593	0.152354	-0.027098	-0.215944	0.053138	-0.079219	-0.090678	-0.166869	0.115813	-0.184069	-0.089939	-0.132994	-0.00389	-0.022531	-0.213184	-0.064859	-0.076443	-0.093443	-0.144235	0.083584	0.045418	-0.251409	-0.050671	-0.147356	-0.009215	-0.11587	-0.071214	-0.20356	-0.043803	-0.056393	
0.750754	4.33349	5	0	-0.0195242	-0.131826	-0.10795	0.136322	-0.0309328	-0.218618	0.0479995	-0.084406	-0.0934922	-0.168959	0.100789	-0.179974	-0.0923315	-0.138002	-0.0124992	-0.0221247	-0.213184	-0.064859	-0.0802845	-0.0931603	-0.144235	0.083584	0.0442522	-0.248114	-0.0465832	-0.145722	-0.00498025	-0.116401	-0.0646822	-0.205049	-0.0406815	-0.05437	
0.753165	4.33349	5	0	-0.0208555	-0.138922	-0.106307	0.12029	-0.0347675	-0.221292	0.042861	-0.089593	-0.0963065	-0.171049	0.0857655	-0.175878	-0.094724	-0.14301	-0.0211085	-0.0217185	-0.213184	-0.064859	-0.084126	-0.0928775	-0.144235	0.083584	0.0430865	-0.244819	-0.0424955	-0.144089	-0.0007455	-0.116932	-0.0581505	-0.206538	-0.03756	-0.052347	
0.755901	4.33197	5	0	-0.0221868	-0.146017	-0.104664	0.104259	-0.0386023	-0.223966	0.0377225	-0.09478	-0.0991207	-0.173139	0.0707417	-0.171783	-0.0971165	-0.148017	-0.0297178	-0.0213123	-0.213184	-0.064859	-0.0879675	-0.0925948	-0.144235	0.083584	0.0419207	-0.241525	-0.0384078	-0.142456	0.00348925	-0.117463	-0.0516188	-0.208027	-0.0344385	-0.050324	
0.758597	4.32892	5	0	-0.023518	-0.153112	-0.103021	0.088227	-0.042437	-0.22664	0.032584	-0.099967	-0.101935	-0.175229	0.055718	-0.167688	-0.099509	-0.153025	-0.038327	-0.020906	-0.213184	-0.064859	-0.091809	-0.092312	-0.144235	0.083584	0.040755	-0.23823	-0.03432	-0.140822	0.007724	-0.117994	-0.045087	-0.209516	-0.031317	-0.048301	
0.760923	4.32587	5	0	-0.0198562	-0.16346	-0.10139	0.0722355	-0.0400548	-0.233373	0.0355302	-0.108294	-0.103845	-0.17987	0.0524715	-0.171284	-0.0964875	-0.161564	-0.0402277	-0.0274853	-0.211305	-0.07017	-0.0887355	-0.100998	-0.148637	0.0864603	0.0393978	-0.24747	-0.0344493	-0.153643	0.00439625	-0.131457	-0.0543115	-0.217373	-0.0297687	-0.0635213	
0.762795	4.32587	5	0	-0.0161945	-0.173809	-0.0997585	0.056244	-0.0376725	-0.240105	0.0384765	-0.116621	-0.105754	-0.184512	0.049225	-0.174879	-0.093466	-0.170103	-0.0421285	-0.0340645	-0.209425	-0.075481	-0.085662	-0.109684	-0.153039	0.0893365	0.0380405	-0.25671	-0.0345785	-0.166465	0.0010685	-0.144919	-0.063536	-0.225229	-0.0282205	-0.0787415	
0.764227	4.31671	5	0	-0.0125328	-0.184157	-0.0981272	0.0402525	-0.0352903	-0.246838	0.0414228	-0.124948	-0.107663	-0.189154	0.0459785	-0.178475	-0.0904445	-0.178643	-0.0440292	-0.0406437	-0.207546	-0.080792	-0.0825885	-0.11837	-0.15744	0.0922128	0.0366833	-0.265949	-0.0347078	-0.179286	-0.00225925	-0.158382	-0.0727605	-0.233086	-0.0266723	-0.0939617	
0.765232	4.31671	5	0	-0.008871	-0.194505	-0.096496	0.024261	-0.032908	-0.25357	0.044369	-0.133275	-0.109573	-0.193795	0.042732	-0.18207	-0.087423	-0.187182	-0.04593	-0.047223	-0.205667	-0.086103	-0.079515	-0.127056	-0.161842	0.095089	0.035326	-0.275189	-0.034837	-0.192107	-0.005587	-0.171844	-0.081985	-0.240943	-0.025124	-0.109182	
0.765824	4.31366	5	0	-0.009786	-0.191919	-0.093546	0.027305	-0.034099	-0.250204	0.044369	-0.133275	-0.109573	-0.193795	0.0499245	-0.189626	-0.0864165	-0.190026	-0.044731	-0.0506115	-0.208213	-0.0905595	-0.0823315	-0.129664	-0.161842	0.095089	0.0364903	-0.278479	-0.0318713	-0.200489	-0.00776525	-0.177112	-0.0859537	-0.246667	-0.0263815	-0.116466	
0.766017	4.30908	5	0	-0.010701	-0.189333	-0.090596	0.030349	-0.03529	-0.246839	0.044369	-0.133275	-0.109573	-0.193795	0.057117	-0.197183	-0.08541	-0.192871	-0.043532	-0.054	-0.210759	-0.095016	-0.085148	-0.132271	-0.161842	0.095089	0.0376545	-0.281769	-0.0289055	-0.208871	-0.0099435	-0.182379	-0.0899225	-0.252391	-0.027639	-0.12375	
0.765832	4.3045	5	0	-0.011616	-0.186747	-0.087646	0.033393	-0.036481	-0.243474	0.044369	-0.133275	-0.109573	-0.193795	0.0643095	-0.204739	-0.0844035	-0.195715	-0.042333	-0.0573885	-0.213305	-0.0994725	-0.0879645	-0.134879	-0.161842	0.095089	0.0388187	-0.285059	-0.0259398	-0.217252	-0.0121218	-0.187646	-0.0938913	-0.258115	-0.0288965	-0.131035	
0.765374	4.3045	5	0	-0.012531	-0.184161	-0.084696	0.036437	-0.037672	-0.240108	0.044369	-0.133275	-0.109573	-0.193795	0.071502	-0.212295	-0.083397	-0.19856	-0.041134	-0.060777	-0.215851	-0.103929	-0.090781	-0.137487	-0.161842	0.095089	0.039983	-0.288349	-0.022974	-0.225634	-0.0143	-0.192914	-0.09786	-0.263839	-0.030154	-0.138319	
0.764797	4.30145	5	0	-0.012039	-0.196402	-0.0830748	0.0204735	-0.0329112	-0.253563	0.0437613	-0.141404	-0.111482	-0.198431	0.061065	-0.208331	-0.0912032	-0.200016	-0.0442342	-0.0639585	-0.220272	-0.103079	-0.0918045	-0.134595	-0.161076	0.0929225	0.043672	-0.2857	-0.0198707	-0.221218	-0.00788825	-0.188181	-0.0926147	-0.261722	-0.0248385	-0.131658	
0.764253	4.30145	5	0	-0.011547	-0.208643	-0.0814535	0.00451	-0.0281505	-0.267018	0.0431535	-0.149533	-0.113392	-0.203068	0.050628	-0.204366	-0.0990095	-0.201471	-0.0473345	-0.06714	-0.224693	-0.102229	-0.092828	-0.131702	-0.160309	0.090756	0.047361	-0.283051	-0.0167675	-0.216802	-0.0014765	-0.183449	-0.0873695	-0.259606	-0.019523	-0.124997	
0.763896	4.29687	5	0	-0.011055	-0.220885	-0.0798322	-0.0114535	-0.0233898	-0.280472	0.0425458	-0.157662	-0.115302	-0.207705	0.040191	-0.200402	-0.106816	-0.202927	-0.0504348	-0.0703215	-0.229114	-0.101379	-0.0938515	-0.128809	-0.159543	0.0885895	0.05105	-0.280402	-0.0136642	-0.212386	0.00493525	-0.178716	-0.0821243	-0.25749	-0.0142075	-0.118337	
0.763878	4.29993	5	0	-0.010563	-0.233126	-0.078211	-0.027417	-0.018629	-0.293927	0.041938	-0.165791	-0.117211	-0.212341	0.029754	-0.196437	-0.114622	-0.204383	-0.053535	-0.073503	-0.233535	-0.100529	-0.094875	-0.125917	-0.158776	0.086423	0.054739	-0.277753	-0.010561	-0.20797	0.011347	-0.173983	-0.076879	-0.255373	-0.008892	-0.111676	
0.764338	4.29687	5	0	-0.0087365	-0.238288	-0.0759278	-0.0338697	-0.023654	-0.293227	0.0383885	-0.165602	-0.120022	-0.214424	0.0265113	-0.200025	-0.111607	-0.212903	-0.0511402	-0.0802713	-0.230721	-0.10848	-0.0928285	-0.131701	-0.163942	0.0914642	0.05105	-0.280402	-0.018741	-0.211215	0.00916675	-0.179251	-0.071778	-0.269789	-0.0151398	-0.115702	
0.765192	4.29993	5	0	-0.00691	-0.24345	-0.0736445	-0.0403225	-0.028679	-0.292527	0.034839	-0.165412	-0.122833	-0.216508	0.0232685	-0.203614	-0.108593	-0.221423	-0.0487455	-0.0870395	-0.227908	-0.116431	-0.090782	-0.137485	-0.169108	0.0965055	0.047361	-0.283051	-0.026921	-0.21446	0.0069865	-0.18452	-0.066677	-0.284205	-0.0213875	-0.119728	
0.766187	4.29993	5	0	-0.0050835	-0.248613	-0.0713613	-0.0467752	-0.033704	-0.291827	0.0312895	-0.165223	-0.125643	-0.218591	0.0200257	-0.207202	-0.105578	-0.229944	-0.0463508	-0.0938077	-0.225095	-0.124383	-0.0887355	-0.143269	-0.174274	0.101547	0.043672	-0.2857	-0.035101	-0.217706	0.00480625	-0.189788	-0.061576	-0.298621	-0.0276353	-0.123754	
0.767063	4.29993	5	0	-0.003257	-0.253775	-0.069078	-0.053228	-0.038729	-0.291127	0.02774	-0.165034	-0.128454	-0.220674	0.016783	-0.21079	-0.102563	-0.238464	-0.043956	-0.100576	-0.222281	-0.132334	-0.086689	-0.149053	-0.17944	0.106588	0.039983	-0.288349	-0.043281	-0.220951	0.002626	-0.195056	-0.056475	-0.313037	-0.033883	-0.12778	
0.767562	4.29993	5	0	-0.001917	-0.246711	-0.0695507	-0.0405102	-0.0348935	-0.288465	0.030309	-0.162452	-0.125643	-0.218591	0.0187115	-0.203488	-0.103568	-0.235625	-0.0463508	-0.0938077	-0.222281	-0.132334	-0.086689	-0.149053	-0.17944	0.106588	0.0388187	-0.285059	-0.043281	-0.220951	-0.003658	-0.18872	-0.0642718	-0.307942	-0.033883	-0.12778	
0.767425	4.29993	5	0	-0.000577	-0.239646	-0.0700235	-0.0277925	-0.031058	-0.285803	0.032878	-0.15987	-0.122833	-0.216508	0.02064	-0.196186	-0.104572	-0.232786	-0.0487455	-0.0870395	-0.222281	-0.132334	-0.086689	-0.149053	-0.17944	0.106588	0.0376545	-0.281769	-0.043281	-0.220951	-0.009942	-0.182383	-0.0720685	-0.302847	-0.033883	-0.12778	
0.766402	4.2984	5	0	0.000763	-0.232582	-0.0704963	-0.0150747	-0.0272225	-0.283141	0.035447	-0.157288	-0.120022	-0.214424	0.0225685	-0.188883	-0.105576	-0.229946	-0.0511402	-0.0802713	-0.222281	-0.132334	-0.086689	-0.149053	-0.17944	0.106588	0.0364903	-0.278479	-0.043281	-0.220951	-0.016226	-0.176046	-0.0798652	-0.297753	-0.033883	-0.12778	
0.764461	4.2984	5	0	0.002103	-0.225518	-0.070969	-0.002357	-0.023387	-0.280479	0.038016	-0.154706	-0.117211	-0.212341	0.024497	-0.181581	-0.106581	-0.227107	-0.053535	-0.073503	-0.222281	-0.132334	-0.086689	-0.149053	-0.17944	0.106588	0.035326	-0.275189	-0.043281	-0.220951	-0.02251	-0.16971	-0.087662	-0.292658	-0.033883	-0.12778	
0.761809	4.29382	5	0	-0.0010635	-0.22742	-0.0739218	-0.005394	-0.0284115	-0.27978	0.0389965	-0.157477	-0.123733	-0.213958	0.0199418	-0.18146	-0.109979	-0.229251	-0.0523375	-0.0768878	-0.227637	-0.128834	-0.0887355	-0.143269	-0.17944	0.106588	0.037849	-0.269244	-0.0431487	-0.208148	-0.0234182	-0.15572	-0.092763	-0.278242	-0.0354285	-0.112574	
0.758668	4.29382	5	0	-0.00423	-0.229322	-0.0768745	-0.008431	-0.033436	-0.279082	0.039977	-0.160249	-0.130254	-0.215576	0.0153865	-0.181339	-0.113377	-0.231396	-0.05114	-0.0802725	-0.232994	-0.125335	-0.090782	-0.137485	-0.17944	0.106588	0.040372	-0.263299	-0.0430165	-0.195345	-0.0243265	-0.14173	-0.097864	-0.263826	-0.036974	-0.0973685	
0.755257	4.2923	5	0	-0.0073965	-0.231224	-0.0798273	-0.011468	-0.0384605	-0.278384	0.0409575	-0.16302	-0.136776	-0.217194	0.0108313	-0.181217	-0.116775	-0.233541	-0.0499425	-0.0836572	-0.23835	-0.121835	-0.0928285	-0.131701	-0.17944	0.106588	0.042895	-0.257354	-0.0428842	-0.182542	-0.0252348	-0.12774	-0.102965	-0.249411	-0.0385195	-0.0821628	
0.751798	4.28924	5	0	-0.010563	-0.233126	-0.08278	-0.014505	-0.043485	-0.277685	0.041938	-0.165791	-0.143298	-0.218811	0.006276	-0.181096	-0.120173	-0.235685	-0.048745	-0.087042	-0.243706	-0.118335	-0.094875	-0.125917	-0.17944	0.106588	0.045418	-0.251409	-0.042752	-0.169739	-0.026143	-0.11375	-0.108066	-0.234995	-0.040065	-0.066957	
0.748508	4.28467	5	0	-0.0155542	-0.229865	-0.08278	-0.014505	-0.0496948	-0.273628	0.0364278	-0.16006	-0.142397	-0.221359	0.0075895	-0.184809	-0.119169	-0.238522	-0.048745	-0.087042	-0.243706	-0.118335	-0.0938515	-0.128809	-0.17944	0.106588	0.0394	-0.247477	-0.046838	-0.171368	-0.0240865	-0.119562	-0.113304	-0.237116	-0.037263	-0.0748753	
0.745564	4.28009	5	0	-0.0205455	-0.226604	-0.08278	-0.014505	-0.0559045	-0.26957	0.0309175	-0.154329	-0.141495	-0.223906	0.008903	-0.188521	-0.118165	-0.24136	-0.048745	-0.087042	-0.243706	-0.118335	-0.092828	-0.131702	-0.17944	0.106588	0.033382	-0.243545	-0.050924	-0.172997	-0.02203	-0.125374	-0.118542	-0.239237	-0.034461	-0.0827935	
0.743095	4.27856	5	0	-0.0255368	-0.223342	-0.08278	-0.014505	-0.0621142	-0.265512	0.0254073	-0.148598	-0.140594	-0.226454	0.0102165	-0.192234	-0.117161	-0.244198	-0.048745	-0.087042	-0.243706	-0.118335	-0.0918045	-0.134595	-0.17944	0.106588	0.027364	-0.239613	-0.05501	-0.174627	-0.0199735	-0.131187	-0.12378	-0.241358	-0.031659	-0.0907117	
0.741229	4.28009	5	0	-0.030528	-0.220081	-0.08278	-0.014505	-0.068324	-0.261455	0.019897	-0.142867	-0.139692	-0.229001	0.01153	-0.195946	-0.116157	-0.247035	-0.048745	-0.087042	-0.243706	-0.118335	-0.090781	-0.137487	-0.17944	0.106588	0.021346	-0.235681	-0.059096	-0.176256	-0.017917	-0.136999	-0.129018	-0.243479	-0.028857	-0.09863	
0.740091	4.27704	5	0	-0.0291933	-0.213009	-0.083259	-0.0017695	-0.0656842	-0.255423	0.0169533	-0.134548	-0.141495	-0.223905	0.013457	-0.188639	-0.113763	-0.242053	-0.0444455	-0.087249	-0.244644	-0.115685	-0.0918045	-0.134595	-0.17944	0.106588	0.027364	-0.239613	-0.060085	-0.17346	-0.017917	-0.136999	-0.129018	-0.243479	-0.035713	-0.0900925	
0.73981	4.27246	5	0	-0.0278585	-0.205937	-0.083738	0.010966	-0.0630445	-0.249391	0.0140095	-0.126228	-0.143298	-0.218809	0.015384	-0.181332	-0.111369	-0.237071	-0.040146	-0.087456	-0.245581	-0.113035	-0.092828	-0.131702	-0.17944	0.106588	0.033382	-0.243545	-0.061074	-0.170665	-0.017917	-0.136999	-0.129018	-0.243479	-0.042569	-0.081555	
0.7405	4.26941	5	0	-0.0265237	-0.198865	-0.084217	0.0237015	-0.0604047	-0.24336	0.0110658	-0.117909	-0.145102	-0.213714	0.017311	-0.174025	-0.108975	-0.232089	-0.0358465	-0.087663	-0.246519	-0.110386	-0.0938515	-0.128809	-0.17944	0.106588	0.0394	-0.247477	-0.062063	-0.16787	-0.017917	-0.136999	-0.129018	-0.243479	-0.049425	-0.0730175	
0.742079	4.26483	5	0	-0.025189	-0.191793	-0.084696	0.036437	-0.057765	-0.237328	0.008122	-0.10959	-0.146905	-0.208618	0.019238	-0.166718	-0.106581	-0.227107	-0.031547	-0.08787	-0.247456	-0.107736	-0.094875	-0.125917	-0.17944	0.106588	0.045418	-0.251409	-0.063052	-0.165074	-0.017917	-0.136999	-0.129018	-0.243479	-0.056281	-0.06448	
0.744283	4.26636	5	0	-0.025189	-0.191793	-0.084696	0.036437	-0.058956	-0.233963	0.008122	-0.10959	-0.145102	-0.213714	0.0159975	-0.170313	-0.106581	-0.227107	-0.0346492	-0.0910465	-0.248394	-0.105086	-0.094875	-0.125917	-0.183837	0.109461	0.043086	-0.244818	-0.0689937	-0.148282	-0.023061	-0.122461	-0.125056	-0.237751	-0.0559665	-0.0545305	
0.746844	4.26178	5	0	-0.025189	-0.191793	-0.084696	0.036437	-0.060147	-0.230597	0.008122	-0.10959	-0.143298	-0.218809	0.012757	-0.173907	-0.106581	-0.227107	-0.0377515	-0.094223	-0.249332	-0.102435	-0.094875	-0.125917	-0.188234	0.112335	0.040754	-0.238227	-0.0749355	-0.13149	-0.028205	-0.107924	-0.121095	-0.232022	-0.055652	-0.044581	
0.749493	4.26025	5	0	-0.025189	-0.191793	-0.084696	0.036437	-0.061338	-0.227232	0.008122	-0.10959	-0.141495	-0.223905	0.0095165	-0.177502	-0.106581	-0.227107	-0.0408538	-0.0973995	-0.250269	-0.0997852	-0.094875	-0.125917	-0.192632	0.115208	0.038422	-0.231637	-0.0808772	-0.114697	-0.033349	-0.0933858	-0.117134	-0.226294	-0.0553375	-0.0346315	
0.751959	4.26178	5	0	-0.025189	-0.191793	-0.084696	0.036437	-0.062529	-0.223866	0.008122	-0.10959	-0.139692	-0.229001	0.006276	-0.181096	-0.106581	-0.227107	-0.043956	-0.100576	-0.251207	-0.097135	-0.094875	-0.125917	-0.197029	0.118081	0.03609	-0.225046	-0.086819	-0.097905	-0.038493	-0.078848	-0.113172	-0.220565	-0.055023	-0.024682	
0.753984	4.2511	5	0	-0.025189	-0.191793	-0.0835517	0.033203	-0.062529	-0.223866	0.008122	-0.10959	-0.139692	-0.229001	0.0004105	-0.177264	-0.105576	-0.229946	-0.043956	-0.100576	-0.251207	-0.097135	-0.0987125	-0.125633	-0.197029	0.118081	0.0312382	-0.22441	-0.0838467	-0.106305	-0.0396347	-0.0870448	-0.126192	-0.217604	-0.0562718	-0.0319912	
0.755482	4.2511	5	0	-0.025189	-0.191793	-0.0824075	0.029969	-0.062529	-0.223866	0.008122	-0.10959	-0.139692	-0.229001	-0.005455	-0.173431	-0.104572	-0.232786	-0.043956	-0.100576	-0.251207	-0.097135	-0.10255	-0.12535	-0.197029	0.118081	0.0263865	-0.223774	-0.0808745	-0.114705	-0.0407765	-0.0952415	-0.139211	-0.214642	-0.0575205	-0.0393005	
0.756535	4.24805	5	0	-0.025189	-0.191793	-0.0812632	0.026735	-0.062529	-0.223866	0.008122	-0.10959	-0.139692	-0.229001	-0.0113205	-0.169598	-0.103568	-0.235625	-0.043956	-0.100576	-0.251207	-0.097135	-0.106387	-0.125066	-0.197029	0.118081	0.0215347	-0.223137	-0.0779022	-0.123105	-0.0419183	-0.103438	-0.15223	-0.21168	-0.0587693	-0.0466098	
0.757232	4.24652	5	0	-0.025189	-0.191793	-0.080119	0.023501	-0.062529	-0.223866	0.008122	-0.10959	-0.139692	-0.229001	-0.017186	-0.165766	-0.102563	-0.238464	-0.043956	-0.100576	-0.251207	-0.097135	-0.110225	-0.124782	-0.197029	0.118081	0.016683	-0.222501	-0.07493	-0.131505	-0.04306	-0.111635	-0.16525	-0.208719	-0.060018	-0.053919	
0.75766	4.24194	5	0	-0.0238553	-0.184711	-0.0765047	0.0360705	-0.0661043	-0.213761	0.00517575	-0.101263	-0.142397	-0.221356	-0.0152648	-0.158451	-0.105578	-0.229944	-0.0463508	-0.0938077	-0.251207	-0.097135	-0.106387	-0.125066	-0.197029	0.118081	0.01435	-0.215908	-0.081981	-0.124746	-0.04306	-0.111635	-0.150954	-0.215288	-0.0650035	-0.0506615	
0.757909	4.24042	5	0	-0.0225215	-0.177629	-0.0728905	0.04864	-0.0696795	-0.203657	0.0022295	-0.0929365	-0.145102	-0.213711	-0.0133435	-0.151137	-0.108593	-0.221423	-0.0487455	-0.0870395	-0.251207	-0.097135	-0.10255	-0.12535	-0.197029	0.118081	0.012017	-0.209315	-0.089032	-0.117987	-0.04306	-0.111635	-0.136658	-0.221857	-0.069989	-0.047404	
0.758065	4.23889	5	0	-0.0211877	-0.170547	-0.0692762	0.0612095	-0.0732547	-0.193553	-0.00071675	-0.0846098	-0.147807	-0.206067	-0.0114223	-0.143822	-0.111607	-0.212903	-0.0511402	-0.0802713	-0.251207	-0.097135	-0.0987125	-0.125633	-0.197029	0.118081	0.009684	-0.202721	-0.096083	-0.111228	-0.04306	-0.111635	-0.122362	-0.228426	-0.0749745	-0.0441465	
0.758174	4.24194	5	0	-0.019854	-0.163465	-0.065662	0.073779	-0.07683	-0.183448	-0.003663	-0.076283	-0.150512	-0.198422	-0.009501	-0.136508	-0.114622	-0.204383	-0.053535	-0.073503	-0.251207	-0.097135	-0.094875	-0.125917	-0.197029	0.118081	0.007351	-0.196128	-0.103134	-0.104469	-0.04306	-0.111635	-0.108066	-0.234995	-0.07996	-0.040889	
0.758235	4.23736	5	0	-0.0239327	-0.162789	-0.0674687	0.06749	-0.0818475	-0.18276	-0.007208	-0.0761013	-0.15422	-0.197958	-0.0140513	-0.136392	-0.113617	-0.207224	-0.0523375	-0.0768878	-0.251207	-0.097135	-0.0958988	-0.123024	-0.197029	0.118081	0.00986625	-0.190161	-0.096958	-0.0955785	-0.0450088	-0.0947042	-0.114453	-0.216943	-0.0715423	-0.032164	
0.758244	4.23279	5	0	-0.0280115	-0.162113	-0.0692755	0.061201	-0.086865	-0.182072	-0.010753	-0.0759195	-0.157928	-0.197495	-0.0186015	-0.136277	-0.112612	-0.210065	-0.05114	-0.0802725	-0.251207	-0.097135	-0.0969225	-0.12013	-0.197029	0.118081	0.0123815	-0.184194	-0.090782	-0.086688	-0.0469575	-0.0777735	-0.120841	-0.19889	-0.0631245	-0.023439	
0.758198	4.23889	5	0	-0.0320903	-0.161437	-0.0710822	0.054912	-0.0918825	-0.181384	-0.014298	-0.0757377	-0.161637	-0.197031	-0.0231518	-0.136161	-0.111606	-0.212906	-0.0499425	-0.0836572	-0.251207	-0.097135	-0.0979462	-0.117236	-0.197029	0.118081	0.0148968	-0.178228	-0.084606	-0.0777975	-0.0489062	-0.0608427	-0.127229	-0.180838	-0.0547067	-0.014714	
0.758094	4.23584	5	0	-0.036169	-0.160761	-0.072889	0.048623	-0.0969	-0.180696	-0.017843	-0.075556	-0.165345	-0.196568	-0.027702	-0.136046	-0.110601	-0.215747	-0.048745	-0.087042	-0.251207	-0.097135	-0.09897	-0.114343	-0.197029	0.118081	0.017412	-0.172261	-0.07843	-0.068907	-0.050855	-0.043912	-0.133616	-0.162785	-0.046289	-0.005989	
0.757927	4.24194	5	0	-0.0320903	-0.161437	-0.072889	0.048623	-0.0969	-0.180696	-0.017843	-0.075556	-0.165345	-0.196568	-0.0290173	-0.132329	-0.109596	-0.218587	-0.0511405	-0.0802712	-0.25656	-0.0936373	-0.09897	-0.114343	-0.197029	0.118081	0.0162435	-0.168959	-0.0835023	-0.0677487	-0.0487942	-0.0497355	-0.124541	-0.171493	-0.0494083	-0.00801825	
0.757675	4.24194	5	0	-0.0280115	-0.162113	-0.072889	0.048623	-0.0969	-0.180696	-0.017843	-0.075556	-0.165345	-0.196568	-0.0303325	-0.128612	-0.108591	-0.221427	-0.053536	-0.0735005	-0.261912	-0.0901395	-0.09897	-0.114343	-0.197029	0.118081	0.015075	-0.165656	-0.0885745	-0.0665905	-0.0467335	-0.055559	-0.115465	-0.180201	-0.0525275	-0.0100475	
0.757291	4.24499	5	0	-0.0239327	-0.162789	-0.072889	0.048623	-0.0969	-0.180696	-0.017843	-0.075556	-0.165345	-0.196568	-0.0316478	-0.124895	-0.107586	-0.224267	-0.0559315	-0.0667298	-0.267265	-0.0866417	-0.09897	-0.114343	-0.197029	0.118081	0.0139065	-0.162354	-0.0936468	-0.0654322	-0.0446727	-0.0613825	-0.10639	-0.188909	-0.0556467	-0.0120768	
0.756725	4.25415	5	0	-0.019854	-0.163465	-0.072889	0.048623	-0.0969	-0.180696	-0.017843	-0.075556	-0.165345	-0.196568	-0.032963	-0.121178	-0.106581	-0.227107	-0.058327	-0.059959	-0.272618	-0.083144	-0.09897	-0.114343	-0.197029	0.118081	0.012738	-0.159052	-0.098719	-0.064274	-0.042612	-0.067206	-0.097315	-0.197617	-0.058766	-0.014106	
0.75593	4.25262	5	0	-0.025353	-0.147925	-0.070424	0.064454	-0.107877	-0.163156	-0.0217745	-0.0644447	-0.160635	-0.189842	-0.0323642	-0.110126	-0.106199	-0.216433	-0.0564272	-0.053385	-0.270081	-0.0786857	-0.096155	-0.111731	-0.197029	0.118081	0.016422	-0.156379	-0.101697	-0.055858	-0.039412	-0.06482	-0.101152	-0.186772	-0.0615742	-0.00616875	
0.754856	4.2572	5	0	-0.030852	-0.132384	-0.067959	0.080285	-0.118854	-0.145616	-0.025706	-0.0533335	-0.155924	-0.183116	-0.0317655	-0.0990745	-0.105817	-0.205759	-0.0545275	-0.046811	-0.267543	-0.0742275	-0.09334	-0.10912	-0.197029	0.118081	0.020106	-0.153706	-0.104675	-0.047442	-0.036212	-0.062434	-0.104989	-0.175927	-0.0643825	0.0017685	
0.753457	4.2572	5	0	-0.036351	-0.116844	-0.065494	0.096116	-0.12983	-0.128076	-0.0296375	-0.0422223	-0.151214	-0.17639	-0.0311668	-0.0880227	-0.105434	-0.195085	-0.0526278	-0.040237	-0.265006	-0.0697692	-0.090525	-0.106509	-0.197029	0.118081	0.02379	-0.151034	-0.107653	-0.039026	-0.033012	-0.060048	-0.108827	-0.165083	-0.0671908	0.00970575	
0.751815	4.25415	5	0	-0.04185	-0.101303	-0.063029	0.111947	-0.140807	-0.110536	-0.033569	-0.031111	-0.146504	-0.169664	-0.030568	-0.076971	-0.105052	-0.184411	-0.050728	-0.033663	-0.262468	-0.065311	-0.08771	-0.103897	-0.197029	0.118081	0.027474	-0.148361	-0.110631	-0.03061	-0.029812	-0.057662	-0.112664	-0.154238	-0.069999	0.017643	
0.750199	4.2572	5	0	-0.0409327	-0.103895	-0.0671288	0.112131	-0.140807	-0.110536	-0.033569	-0.031111	-0.146504	-0.169664	-0.0292505	-0.0806945	-0.106058	-0.181566	-0.050728	-0.033663	-0.265285	-0.0573477	-0.0907852	-0.0952055	-0.197796	0.120248	0.0227928	-0.13513	-0.105456	-0.0188707	-0.032804	-0.0377687	-0.120353	-0.132509	-0.062518	0.0290533	
0.74889	4.25262	5	0	-0.0400155	-0.106487	-0.0712285	0.112316	-0.140807	-0.110536	-0.033569	-0.031111	-0.146504	-0.169664	-0.027933	-0.084418	-0.107065	-0.178721	-0.050728	-0.033663	-0.268103	-0.0493845	-0.0938605	-0.086514	-0.198563	0.122415	0.0181115	-0.1219	-0.100282	-0.0071315	-0.035796	-0.0178755	-0.128041	-0.11078	-0.055037	0.0404635	
0.748171	4.24957	5	0	-0.0390983	-0.109079	-0.0753282	0.112501	-0.140807	-0.110536	-0.033569	-0.031111	-0.146504	-0.169664	-0.0266155	-0.0881415	-0.108072	-0.175877	-0.050728	-0.033663	-0.270921	-0.0414212	-0.0969358	-0.0778225	-0.199329	0.124581	0.0134302	-0.10867	-0.0951075	0.00460775	-0.038788	0.00201775	-0.13573	-0.0890517	-0.047556	0.0518738	
0.748325	4.24347	5	0	-0.038181	-0.111671	-0.079428	0.112685	-0.140807	-0.110536	-0.033569	-0.031111	-0.146504	-0.169664	-0.025298	-0.091865	-0.109078	-0.173032	-0.050728	-0.033663	-0.273738	-0.033458	-0.100011	-0.069131	-0.200096	0.126748	0.008749	-0.095439	-0.089933	0.016347	-0.04178	0.021911	-0.143418	-0.067323	-0.040075	0.063284	
0.749629	4.24042	5	0	-0.0390983	-0.109079	-0.0805763	0.115929	-0.143195	-0.103786	-0.038094	-0.0281542	-0.152923	-0.161544	-0.032481	-0.0843088	-0.107693	-0.165182	-0.0464275	-0.033866	-0.270262	-0.0316452	-0.0979605	-0.0749262	-0.200096	0.126748	0.00389775	-0.0948135	-0.096002	0.0203128	-0.039714	0.016072	-0.142135	-0.070948	-0.0450723	0.0665493	
0.752103	4.23889	5	0	-0.0400155	-0.106487	-0.0817245	0.119174	-0.145584	-0.0970355	-0.042619	-0.0251975	-0.159342	-0.153423	-0.039664	-0.0767525	-0.106309	-0.157332	-0.042127	-0.034069	-0.266786	-0.0298325	-0.09591	-0.0807215	-0.200096	0.126748	-0.0009535	-0.094188	-0.102071	0.0242785	-0.037648	0.010233	-0.140853	-0.074573	-0.0500695	0.0698145	
0.755408	4.23279	5	0	-0.0409327	-0.103895	-0.0828727	0.122418	-0.147973	-0.0902852	-0.047144	-0.0222408	-0.165762	-0.145303	-0.046847	-0.0691963	-0.104924	-0.149482	-0.0378265	-0.034272	-0.263309	-0.0280198	-0.0938595	-0.0865168	-0.200096	0.126748	-0.00580475	-0.0935625	-0.10814	0.0282443	-0.035582	0.004394	-0.13957	-0.078198	-0.0550667	0.0730797	
0.759175	4.23279	5	0	-0.04185	-0.101303	-0.084021	0.125663	-0.150361	-0.083535	-0.051669	-0.019284	-0.172181	-0.137183	-0.05403	-0.06164	-0.10354	-0.141632	-0.033526	-0.034475	-0.259833	-0.026207	-0.091809	-0.092312	-0.200096	0.126748	-0.010656	-0.092937	-0.114209	0.03221	-0.033516	-0.001445	-0.138288	-0.081823	-0.060064	0.076345	
0.763035	4.22363	5	0	-0.0473582	-0.0857355	-0.086821	0.144979	-0.153947	-0.0734003	-0.0556053	-0.008159	-0.16838	-0.127877	-0.0521202	-0.0542933	-0.103167	-0.130917	-0.0371285	-0.024294	-0.257296	-0.021734	-0.088993	-0.0896965	-0.195699	0.123875	-0.00580475	-0.0935625	-0.1162	0.0378373	-0.035582	0.004394	-0.140854	-0.0745713	-0.0560057	0.0757335	
0.76662	4.22363	5	0	-0.0528665	-0.070168	-0.089621	0.164295	-0.157533	-0.0632655	-0.0595415	0.002966	-0.164579	-0.11857	-0.0502105	-0.0469465	-0.102794	-0.120202	-0.040731	-0.014113	-0.254758	-0.017261	-0.086177	-0.087081	-0.191302	0.121001	-0.0009535	-0.094188	-0.118191	0.0434645	-0.037648	0.010233	-0.143419	-0.0673195	-0.0519475	0.075122	
0.769564	4.22516	5	0	-0.0583747	-0.0546005	-0.092421	0.18361	-0.161119	-0.0531307	-0.0634777	0.014091	-0.160777	-0.109264	-0.0483008	-0.0395997	-0.102421	-0.109486	-0.0443335	-0.003932	-0.25222	-0.012788	-0.083361	-0.0844655	-0.186904	0.118128	0.00389775	-0.0948135	-0.120182	0.0490917	-0.039714	0.016072	-0.145985	-0.0600678	-0.0478893	0.0745105	
0.771673	4.21753	5	0	-0.063883	-0.039033	-0.095221	0.202926	-0.164705	-0.042996	-0.067414	0.025216	-0.156976	-0.099958	-0.046391	-0.032253	-0.102048	-0.098771	-0.047936	0.006249	-0.249683	-0.008315	-0.080545	-0.08185	-0.182507	0.115255	0.008749	-0.095439	-0.122173	0.054719	-0.04178	0.021911	-0.148551	-0.052816	-0.043831	0.073899	
0.773129	4.21753	5	0	-0.0620457	-0.044225	-0.0981672	0.19985	-0.170906	-0.0389442	-0.0628893	0.0222592	-0.156071	-0.102516	-0.0450718	-0.035981	-0.101039	-0.101624	-0.0467347	0.002854	-0.255983	-0.00215325	-0.0854115	-0.0786702	-0.182507	0.115255	0.0003835	-0.0848812	-0.122085	0.0676568	-0.0427187	0.0360087	-0.147171	-0.03976	-0.0454115	0.089229	
0.774161	4.2099	5	0	-0.0602085	-0.049417	-0.101113	0.196775	-0.177107	-0.0348925	-0.0583645	0.0193025	-0.155166	-0.105074	-0.0437525	-0.039709	-0.100029	-0.104477	-0.0455335	-0.000541	-0.262284	0.0040085	-0.090278	-0.0754905	-0.182507	0.115255	-0.007982	-0.0743235	-0.121998	0.0805945	-0.0436575	0.0501065	-0.145791	-0.026704	-0.046992	0.104559	
0.774997	4.2099	5	0	-0.0583712	-0.054609	-0.10406	0.193699	-0.183307	-0.0308408	-0.0538397	0.0163457	-0.154261	-0.107631	-0.0424332	-0.043437	-0.0990195	-0.10733	-0.0443323	-0.003936	-0.268585	0.0101702	-0.0951445	-0.0723108	-0.182507	0.115255	-0.0163475	-0.0637657	-0.12191	0.0935322	-0.0445962	0.0642042	-0.144412	-0.013648	-0.0485725	0.119889	
0.775868	4.20685	5	0	-0.056534	-0.059801	-0.107006	0.190624	-0.189508	-0.026789	-0.049315	0.013389	-0.153356	-0.110189	-0.041114	-0.047165	-0.09801	-0.110183	-0.043131	-0.007331	-0.274885	0.016332	-0.100011	-0.069131	-0.182507	0.115255	-0.024713	-0.053208	-0.121822	0.10647	-0.045535	0.078302	-0.143032	-0.000592	-0.050153	0.135219	
0.777	4.20685	5	0	-0.055616	-0.062396	-0.107006	0.190624	-0.190704	-0.023408	-0.0502997	0.0161722	-0.154261	-0.107631	-0.0469795	-0.0433325	-0.0925895	-0.113725	-0.0443323	-0.003936	-0.2793	0.017172	-0.103849	-0.068851	-0.186904	0.118128	-0.0283875	-0.0558985	-0.124899	0.10198	-0.0476977	0.0729697	-0.148265	-0.00275925	-0.052331	0.130511	
0.778529	4.20227	5	0	-0.054698	-0.064991	-0.107006	0.190624	-0.191901	-0.020027	-0.0512845	0.0189555	-0.155166	-0.105074	-0.052845	-0.0395	-0.087169	-0.117266	-0.0455335	-0.000541	-0.283715	0.018012	-0.107688	-0.068571	-0.191302	0.121001	-0.032062	-0.058589	-0.127976	0.09749	-0.0498605	0.0676375	-0.153498	-0.0049265	-0.054509	0.125803	
0.780205	4.20227	5	0	-0.05378	-0.067586	-0.107006	0.190624	-0.193097	-0.016646	-0.0522693	0.0217388	-0.156071	-0.102516	-0.0587105	-0.0356675	-0.0817485	-0.120808	-0.0467347	0.002854	-0.28813	0.018852	-0.111527	-0.068291	-0.195699	0.123875	-0.0357365	-0.0612795	-0.131053	0.093	-0.0520233	0.0623052	-0.15873	-0.00709375	-0.056687	0.121095	
0.781686	4.19769	5	0	-0.052862	-0.070181	-0.107006	0.190624	-0.194293	-0.013265	-0.053254	0.024522	-0.156976	-0.099958	-0.064576	-0.031835	-0.076328	-0.12435	-0.047936	0.006249	-0.292545	0.019692	-0.115365	-0.068011	-0.200096	0.126748	-0.039411	-0.06397	-0.13413	0.08851	-0.054186	0.056973	-0.163963	-0.009261	-0.058865	0.116387	
0.782627	4.19769	5	0	-0.0565362	-0.0597967	-0.103417	0.203291	-0.196687	-0.0064995	-0.0617215	0.0386212	-0.160599	-0.0897195	-0.0626695	-0.0244788	-0.0813785	-0.110077	-0.044836	0.0094465	-0.293486	0.0223518	-0.11639	-0.0651127	-0.194932	0.121708	-0.0417545	-0.0573475	-0.13413	0.08851	-0.0489187	0.0535313	-0.157444	-0.0107278	-0.0598055	0.119044	
0.782686	4.19464	5	0	-0.0602105	-0.0494125	-0.0998275	0.215958	-0.199081	0.000266	-0.070189	0.0527205	-0.164222	-0.079481	-0.060763	-0.0171225	-0.086429	-0.095804	-0.041736	0.012644	-0.294428	0.0250115	-0.117416	-0.0622145	-0.189768	0.116668	-0.044098	-0.050725	-0.13413	0.08851	-0.0436515	0.0500895	-0.150926	-0.0121945	-0.060746	0.121702	
0.781519	4.19159	5	0	-0.0638847	-0.0390283	-0.0962382	0.228626	-0.201475	0.0070315	-0.0786565	0.0668197	-0.167844	-0.0692425	-0.0588565	-0.00976625	-0.0914795	-0.081531	-0.038636	0.0158415	-0.295369	0.0276713	-0.118441	-0.0593163	-0.184604	0.111628	-0.0464415	-0.0441025	-0.13413	0.08851	-0.0383843	0.0466478	-0.144408	-0.0136612	-0.0616865	0.124359	
0.778841	4.19159	5	0	-0.067559	-0.028644	-0.092649	0.241293	-0.203869	0.013797	-0.087124	0.080919	-0.171467	-0.059004	-0.05695	-0.00241	-0.09653	-0.067258	-0.035536	0.019039	-0.29631	0.030331	-0.119466	-0.056418	-0.17944	0.106588	-0.048785	-0.03748	-0.13413	0.08851	-0.033117	0.043206	-0.137889	-0.015128	-0.062627	0.127017	
0.774881	4.19159	5	0	-0.0657212	-0.0338375	-0.0955952	0.23821	-0.203869	0.013797	-0.081613	0.0751752	-0.169655	-0.0641248	-0.0601758	-0.006038	-0.0989193	-0.0722828	-0.0398377	0.019238	-0.294428	0.025012	-0.123302	-0.0561398	-0.183837	0.109461	-0.0547985	-0.0335505	-0.137122	0.0969655	-0.0351863	0.0490545	-0.140461	-0.0078585	-0.061391	0.134388	
0.770126	4.18854	5	0	-0.0638835	-0.039031	-0.0985415	0.235127	-0.203869	0.013797	-0.076102	0.0694315	-0.167843	-0.0692455	-0.0634015	-0.009666	-0.101308	-0.0773075	-0.0441395	0.019437	-0.292546	0.019693	-0.127138	-0.0558615	-0.188234	0.112335	-0.060812	-0.029621	-0.140114	0.105421	-0.0372555	0.054903	-0.143034	-0.000589	-0.060155	0.141759	
0.765068	4.18396	5	0	-0.0620457	-0.0442245	-0.101488	0.232045	-0.203869	0.013797	-0.070591	0.0636878	-0.166031	-0.0743662	-0.0666272	-0.013294	-0.103698	-0.0823322	-0.0484412	0.019636	-0.290663	0.014374	-0.130973	-0.0555833	-0.192632	0.115208	-0.0668255	-0.0256915	-0.143105	0.113876	-0.0393247	0.0607515	-0.145606	0.0066805	-0.058919	0.14913	
0.760199	4.18091	5	0	-0.060208	-0.049418	-0.104434	0.228962	-0.203869	0.013797	-0.06508	0.057944	-0.164219	-0.079487	-0.069853	-0.016922	-0.106087	-0.087357	-0.052743	0.019835	-0.288781	0.009055	-0.134809	-0.055305	-0.197029	0.118081	-0.072839	-0.021762	-0.146097	0.122332	-0.041394	0.0666	-0.148178	0.01395	-0.057683	0.156501	
0.756011	4.18091	5	0	-0.060208	-0.049418	-0.103282	0.225707	-0.203869	0.013797	-0.070591	0.0636878	-0.167929	-0.0790307	-0.0743952	-0.01682	-0.106087	-0.087357	-0.0460373	0.0128422	-0.294134	0.0125528	-0.132759	-0.0610985	-0.197029	0.118081	-0.0765052	-0.024458	-0.148173	0.115022	-0.047788	0.0617883	-0.144321	0.003048	-0.0620355	0.147081	
0.752954	4.17633	5	0	-0.060208	-0.049418	-0.10213	0.222452	-0.203869	0.013797	-0.076102	0.0694315	-0.171638	-0.0785745	-0.0789375	-0.016718	-0.106087	-0.087357	-0.0393315	0.0058495	-0.299486	0.0160505	-0.130709	-0.066892	-0.197029	0.118081	-0.0801715	-0.027154	-0.15025	0.107713	-0.054182	0.0569765	-0.140463	-0.007854	-0.066388	0.137661	
0.751095	4.1748	5	0	-0.060208	-0.049418	-0.100978	0.219197	-0.203869	0.013797	-0.081613	0.0751752	-0.175347	-0.0781183	-0.0834798	-0.016616	-0.106087	-0.087357	-0.0326257	-0.00114325	-0.304839	0.0195482	-0.128659	-0.0726855	-0.197029	0.118081	-0.0838378	-0.02985	-0.152326	0.100403	-0.060576	0.0521648	-0.136605	-0.018756	-0.0707405	0.128241	
0.750278	4.17633	5	0	-0.060208	-0.049418	-0.099826	0.215942	-0.203869	0.013797	-0.087124	0.080919	-0.179057	-0.077662	-0.088022	-0.016514	-0.106087	-0.087357	-0.02592	-0.008136	-0.310192	0.023046	-0.126609	-0.078479	-0.197029	0.118081	-0.087504	-0.032546	-0.154402	0.093094	-0.06697	0.047353	-0.132748	-0.029658	-0.075093	0.118821	
0.750343	4.17328	5	0	-0.0611267	-0.0468217	-0.107378	0.225882	-0.212461	0.0246165	-0.092633	0.0866618	-0.179963	-0.0751025	-0.0893413	-0.012786	-0.107097	-0.0845023	-0.0326257	-0.00114325	-0.304839	0.0195482	-0.125584	-0.0813742	-0.192632	0.115208	-0.087504	-0.032546	-0.153406	0.090278	-0.0722307	0.0507905	-0.139267	-0.0281897	-0.076033	0.121478	
