0.996	1.21765	0	0	-0.055014	0.175351	-0.043901	0.257534	0.016196	0.082733	0.032348	0.181137	0.157885	0.013815	0.160335	0.058475	0.14077	0.007202	0.145289	0.032112	0.121553	0.06094	0.175432	-0.00313	0.070412	0.037853	0.108695	-0.03769	0.024946	0.101905	0.075948	0.065581	0.015781	0.067737	0.015583	0.123469	
1.01959	1.2207	0	0	-0.0591552	0.172863	-0.046541	0.249821	0.00927775	0.0784823	0.0263813	0.175814	0.15216	0.01951	0.151404	0.0676807	0.134819	0.0110905	0.138653	0.0388695	0.119728	0.0660977	0.172766	0.00440325	0.0650085	0.0413837	0.113666	-0.034642	0.0284172	0.107792	0.077426	0.074406	0.0192475	0.073139	0.0210135	0.130495	
1.03757	1.21612	0	0	-0.0632965	0.170376	-0.049181	0.242109	0.0023595	0.0742315	0.0204145	0.17049	0.146435	0.025205	0.142473	0.0768865	0.128868	0.014979	0.132017	0.045627	0.117903	0.0712555	0.170101	0.0119365	0.059605	0.0449145	0.118636	-0.031594	0.0318885	0.11368	0.078904	0.083231	0.022714	0.078541	0.026444	0.13752	
1.05045	1.21612	0	0	-0.0674378	0.167888	-0.051821	0.234397	-0.00455875	0.0699807	0.0144478	0.165167	0.140711	0.0309	0.133541	0.0860922	0.122917	0.0188675	0.12538	0.0523845	0.116078	0.0764133	0.167436	0.0194698	0.0542015	0.0484453	0.123606	-0.028546	0.0353597	0.119568	0.080382	0.092056	0.0261805	0.083943	0.0318745	0.144546	
1.05873	1.21765	0	0	-0.071579	0.1654	-0.054461	0.226684	-0.011477	0.06573	0.008481	0.159844	0.134986	0.036595	0.12461	0.095298	0.116966	0.022756	0.118744	0.059142	0.114253	0.081571	0.16477	0.027003	0.048798	0.051976	0.128577	-0.025498	0.038831	0.125455	0.08186	0.100881	0.029647	0.089345	0.037305	0.151572	
1.0629	1.2146	0	0	-0.0727737	0.168777	-0.0628863	0.235334	-0.008019	0.0678547	0.0063595	0.16584	0.133186	0.0416808	0.123058	0.0996833	0.121801	0.0220205	0.117629	0.0622928	0.114253	0.081571	0.171625	0.0225237	0.048798	0.051976	0.119259	-0.016259	0.041334	0.118381	0.08186	0.100881	0.0308238	0.0860195	0.0392527	0.146068	
1.06347	1.21612	0	0	-0.0739685	0.172154	-0.0713115	0.243983	-0.004561	0.0699795	0.004238	0.171836	0.131387	0.0467665	0.121506	0.104068	0.126637	0.021285	0.116514	0.0654435	0.114253	0.081571	0.17848	0.0180445	0.048798	0.051976	0.109941	-0.00702	0.043837	0.111308	0.08186	0.100881	0.0320005	0.082694	0.0412005	0.140564	
1.06095	1.2146	0	0	-0.0751633	0.175531	-0.0797367	0.252633	-0.001103	0.0721043	0.0021165	0.177831	0.129588	0.0518523	0.119955	0.108454	0.131472	0.0205495	0.1154	0.0685942	0.114253	0.081571	0.185336	0.0135653	0.048798	0.051976	0.100623	0.002219	0.04634	0.104234	0.08186	0.100881	0.0331773	0.0793685	0.0431482	0.135059	
1.05583	1.2146	0	0	-0.076358	0.178908	-0.088162	0.261282	0.002355	0.074229	-5E-06	0.183827	0.127788	0.056938	0.118403	0.112839	0.136307	0.019814	0.114285	0.071745	0.114253	0.081571	0.192191	0.009086	0.048798	0.051976	0.091305	0.011458	0.048843	0.09716	0.08186	0.100881	0.034354	0.076043	0.045096	0.129555	
1.04862	1.2146	0	0	-0.079301	0.173045	-0.0907948	0.253574	-0.00455875	0.0699808	0.00019475	0.172178	0.123865	0.057546	0.118403	0.112839	0.131472	0.0205495	0.110996	0.0690505	0.11334	0.084151	0.184002	0.0173342	0.0478862	0.054553	0.0962715	0.0145172	0.0475918	0.100696	0.0904573	0.102616	0.040178	0.074794	0.0431482	0.135059	
1.03982	1.21155	0	0	-0.082244	0.167183	-0.0934275	0.245865	-0.0114725	0.0657325	0.0003945	0.16053	0.119942	0.058154	0.118403	0.112839	0.126637	0.021285	0.107707	0.066356	0.112427	0.086731	0.175814	0.0255825	0.0469745	0.05713	0.101238	0.0175765	0.0463405	0.104233	0.0990545	0.10435	0.046002	0.073545	0.0412005	0.140564	
1.02993	1.21612	0	0	-0.085187	0.16132	-0.0960602	0.238156	-0.0183862	0.0614843	0.00059425	0.148881	0.116019	0.058762	0.118403	0.112839	0.121801	0.0220205	0.104418	0.0636615	0.111515	0.089311	0.167625	0.0338307	0.0460627	0.059707	0.106205	0.0206358	0.0450892	0.107769	0.107652	0.106085	0.051826	0.072296	0.0392527	0.146068	
1.01946	1.21307	0	0	-0.08813	0.155457	-0.098693	0.230448	-0.0253	0.057236	0.000794	0.137233	0.112096	0.05937	0.118403	0.112839	0.116966	0.022756	0.101129	0.060967	0.110602	0.091891	0.159436	0.042079	0.045151	0.062284	0.111171	0.023695	0.043838	0.111305	0.116249	0.10782	0.05765	0.071047	0.037305	0.151572	
1.0089	1.21307	0	0	-0.093458	0.156345	-0.098693	0.230448	-0.026308	0.060085	-0.0053635	0.143559	0.116919	0.0562187	0.119955	0.108454	0.11585	0.025909	0.101129	0.060967	0.111515	0.089311	0.159436	0.042079	0.0469742	0.0571308	0.111171	0.023695	0.04634	0.104234	0.112513	0.105359	0.053002	0.0689717	0.0421718	0.137818	
0.998765	1.21155	0	0	-0.098786	0.157233	-0.098693	0.230448	-0.027316	0.062934	-0.011521	0.149884	0.121742	0.0530675	0.121506	0.104068	0.114735	0.029062	0.101129	0.060967	0.112427	0.086731	0.159436	0.042079	0.0487975	0.0519775	0.111171	0.023695	0.048842	0.097163	0.108776	0.102898	0.048354	0.0668965	0.0470385	0.124064	
0.989549	1.2146	0	0	-0.104114	0.158121	-0.098693	0.230448	-0.028324	0.065783	-0.0176785	0.15621	0.126564	0.0499163	0.123058	0.0996833	0.113619	0.032215	0.101129	0.060967	0.11334	0.084151	0.159436	0.042079	0.0506207	0.0468242	0.111171	0.023695	0.051344	0.090092	0.10504	0.100437	0.043706	0.0648212	0.0519052	0.110309	
0.981757	1.21155	0	0	-0.109442	0.159009	-0.098693	0.230448	-0.029332	0.068632	-0.023836	0.162535	0.131387	0.046765	0.12461	0.095298	0.112503	0.035368	0.101129	0.060967	0.114253	0.081571	0.159436	0.042079	0.052444	0.041671	0.111171	0.023695	0.053846	0.083021	0.101304	0.097976	0.039058	0.062746	0.056772	0.096555	
0.975847	1.2146	0	0	-0.115318	0.147309	-0.0955567	0.206448	-0.028757	0.0551245	-0.026614	0.148252	0.12624	0.0403605	0.120337	0.0913522	0.109902	0.0297985	0.0989555	0.0551283	0.110685	0.0799373	0.147075	0.047258	0.0488665	0.0400493	0.104754	0.024735	0.0478712	0.0842087	0.103559	0.0916037	0.0332388	0.0639938	0.0535665	0.0944245	
0.971891	1.2146	0	0	-0.121194	0.135609	-0.0924205	0.182449	-0.028182	0.041617	-0.029392	0.13397	0.121092	0.033956	0.116064	0.0874065	0.1073	0.024229	0.096782	0.0492895	0.107117	0.0783035	0.134715	0.052437	0.045289	0.0384275	0.0983365	0.025775	0.0418965	0.0853965	0.105814	0.0852315	0.0274195	0.0652415	0.050361	0.092294	
0.969749	1.21307	0	0	-0.12707	0.12391	-0.0892843	0.158449	-0.027607	0.0281095	-0.03217	0.119687	0.115945	0.0275515	0.11179	0.0834608	0.104699	0.0186595	0.0946085	0.0434507	0.103548	0.0766698	0.122354	0.057616	0.0417115	0.0368057	0.0919192	0.026815	0.0359218	0.0865843	0.108068	0.0788592	0.0216003	0.0664892	0.0471555	0.0901635	
0.969283	1.21612	0	0	-0.132946	0.11221	-0.086148	0.134449	-0.027032	0.014602	-0.034948	0.105404	0.110798	0.021147	0.107517	0.079515	0.102098	0.01309	0.092435	0.037612	0.09998	0.075036	0.109994	0.062795	0.038134	0.035184	0.085502	0.027855	0.029947	0.087772	0.110323	0.072487	0.015781	0.067737	0.04395	0.088033	
0.97035	1.2146	0	0	-0.142384	0.110621	-0.0971837	0.135401	-0.0335037	0.0210178	-0.041953	0.103094	0.106879	0.0217557	0.0958858	0.080384	0.103212	0.0099405	0.0891492	0.034924	0.0973258	0.0708268	0.112659	0.0552617	0.035469	0.0309903	0.0884025	0.019658	0.0336948	0.0771803	0.101729	0.0707605	0.0123165	0.0623423	0.0385153	0.0810328	
0.972811	1.21765	0	0	-0.151822	0.109032	-0.108219	0.136354	-0.0399755	0.0274335	-0.048958	0.100783	0.10296	0.0223645	0.0842545	0.081253	0.104327	0.006791	0.0858635	0.032236	0.0946715	0.0666175	0.115325	0.0477285	0.032804	0.0267965	0.091303	0.011461	0.0374425	0.0665885	0.0931355	0.069034	0.008852	0.0569475	0.0330805	0.0740325	
0.976525	1.2146	0	0	-0.161261	0.107442	-0.119255	0.137306	-0.0464473	0.0338492	-0.055963	0.0984732	0.0990417	0.0229733	0.0726233	0.082122	0.105441	0.0036415	0.0825778	0.029548	0.0920172	0.0624082	0.11799	0.0401953	0.030139	0.0226027	0.0942035	0.003264	0.0411902	0.0559967	0.0845417	0.0673075	0.0053875	0.0515528	0.0276458	0.0670323	
0.981353	1.21612	0	0	-0.170699	0.105853	-0.130291	0.138258	-0.052919	0.040265	-0.062968	0.096163	0.095123	0.023582	0.060992	0.082991	0.106556	0.000492	0.079292	0.02686	0.089363	0.058199	0.120656	0.032662	0.027474	0.018409	0.097104	-0.004933	0.044938	0.045405	0.075948	0.065581	0.001923	0.046158	0.022211	0.060032	
0.987129	1.2146	0	0	-0.17656	0.0941957	-0.141062	0.123435	-0.0543568	0.032461	-0.06977	0.0822742	0.0881897	0.0222597	0.0567317	0.0790502	0.101727	0.0012265	0.0716155	0.0246297	0.0920962	0.0504747	0.115149	0.0333665	0.0239005	0.0167902	0.089243	0.00020375	0.0364702	0.0536512	0.0770735	0.0624	0.001923	0.046158	0.0190105	0.0579073	
0.993557	1.2146	0	0	-0.182421	0.0825385	-0.151833	0.108613	-0.0557945	0.024657	-0.076572	0.0683855	0.0812565	0.0209375	0.0524715	0.0751095	0.0968985	0.001961	0.063939	0.0223995	0.0948295	0.0427505	0.109643	0.034071	0.020327	0.0151715	0.081382	0.0053405	0.0280025	0.0618975	0.078199	0.059219	0.001923	0.046158	0.01581	0.0557825	
1.00029	1.2146	0	0	-0.188282	0.0708813	-0.162604	0.0937905	-0.0572322	0.016853	-0.083374	0.0544967	0.0743233	0.0196153	0.0482112	0.0711688	0.0920698	0.0026955	0.0562625	0.0201692	0.0975628	0.0350263	0.104136	0.0347755	0.0167535	0.0135527	0.073521	0.0104773	0.0195348	0.0701438	0.0793245	0.056038	0.001923	0.046158	0.0126095	0.0536578	
1.00698	1.2146	0	0	-0.194143	0.059224	-0.173375	0.078968	-0.05867	0.009049	-0.090176	0.040608	0.06739	0.018293	0.043951	0.067228	0.087241	0.00343	0.048586	0.017939	0.100296	0.027302	0.098629	0.03548	0.01318	0.011934	0.06566	0.015614	0.011067	0.07839	0.08045	0.052857	0.001923	0.046158	0.009409	0.051533	
1.01327	1.21307	0	0	-0.197072	0.0534077	-0.16764	0.06276	-0.0532082	0.00548	-0.093144	0.0379717	0.0682875	0.015757	0.047043	0.0584895	0.089468	-0.0028635	0.0508075	0.0116608	0.0967302	0.0256758	0.093127	0.0361825	0.00869975	0.0128855	0.0671092	0.0115183	0.007599	0.0725195	0.0800917	0.0408765	-0.000367	0.0374565	0.0049505	0.0418138	
1.01883	1.21307	0	0	-0.200001	0.0475915	-0.161905	0.046552	-0.0477465	0.001911	-0.096112	0.0353355	0.069185	0.013221	0.050135	0.049751	0.091695	-0.009157	0.053029	0.0053825	0.0931645	0.0240495	0.087625	0.036885	0.0042195	0.013837	0.0685585	0.0074225	0.004131	0.066649	0.0797335	0.028896	-0.002657	0.028755	0.000492	0.0320945	
1.02331	1.2146	0	0	-0.20293	0.0417752	-0.15617	0.030344	-0.0422848	-0.001658	-0.09908	0.0326992	0.0700825	0.010685	0.053227	0.0410125	0.093922	-0.0154505	0.0552505	-0.00089575	0.0895988	0.0224232	0.082123	0.0375875	-0.00026075	0.0147885	0.0700078	0.00332675	0.000663	0.0607785	0.0793753	0.0169155	-0.004947	0.0200535	-0.0039665	0.0223752	
1.02636	1.21307	0	0	-0.205859	0.035959	-0.150435	0.014136	-0.036823	-0.005227	-0.102048	0.030063	0.07098	0.008149	0.056319	0.032274	0.096149	-0.021744	0.057472	-0.007174	0.086033	0.020797	0.076621	0.03829	-0.004741	0.01574	0.071457	-0.000769	-0.002805	0.054908	0.079017	0.004935	-0.007237	0.011352	-0.008425	0.012656	
1.02765	1.21612	0	0	-0.20642	0.023461	-0.158571	0.00701375	-0.0372618	-0.0158537	-0.105877	0.0188565	0.0679648	0.00622175	0.050515	0.03271	0.0924355	-0.0241528	0.0541915	-0.0098535	0.0824697	0.0191715	0.069793	0.0427515	-0.00383175	0.0131703	0.0650518	0.000269	-0.00405275	0.0584345	0.0719175	0.0120152	-0.0107565	0.0212987	-0.007457	0.00992025	
1.0272	1.21155	0	0	-0.206981	0.010963	-0.166706	-0.0001085	-0.0377005	-0.0264805	-0.109707	0.00765	0.0649495	0.0042945	0.044711	0.033146	0.088722	-0.0265615	0.050911	-0.012533	0.0789065	0.017546	0.062965	0.047213	-0.0029225	0.0106005	0.0586465	0.001307	-0.0053005	0.061961	0.064818	0.0190955	-0.014276	0.0312455	-0.006489	0.0071845	
1.02519	1.21155	0	0	-0.207542	-0.001535	-0.174842	-0.00723075	-0.0381392	-0.0371073	-0.113536	-0.0035565	0.0619342	0.00236725	0.038907	0.033582	0.0850085	-0.0289702	0.0476305	-0.0152125	0.0753433	0.0159205	0.056137	0.0516745	-0.00201325	0.00803075	0.0522413	0.002345	-0.00654825	0.0654875	0.0577185	0.0261757	-0.0177955	0.0411922	-0.005521	0.00444875	
1.02184	1.21307	0	0	-0.208103	-0.014033	-0.182977	-0.014353	-0.038578	-0.047734	-0.117366	-0.014763	0.058919	0.00044	0.033103	0.034018	0.081295	-0.031379	0.04435	-0.017892	0.07178	0.014295	0.049309	0.056136	-0.001104	0.005461	0.045836	0.003383	-0.007796	0.069014	0.050619	0.033256	-0.021315	0.051139	-0.004553	0.001713	
1.01735	1.21307	0	0	-0.213397	-0.0131435	-0.188469	-0.0138703	-0.0405863	-0.0420585	-0.118417	-0.0117935	0.058919	0.00044	0.0257605	0.0388157	0.081295	-0.031379	0.038853	-0.0143003	0.06731	0.01524	0.0506397	0.052375	-0.000195	0.00289225	0.045836	0.003383	-0.00654825	0.0654875	0.0480167	0.0276355	-0.0201415	0.0478222	-0.00581575	-0.005868	
1.01194	1.21307	0	0	-0.218692	-0.012254	-0.193961	-0.0133875	-0.0425945	-0.036383	-0.119468	-0.008824	0.058919	0.00044	0.018418	0.0436135	0.081295	-0.031379	0.033356	-0.0107085	0.06284	0.016185	0.0519705	0.048614	0.000714	0.0003235	0.045836	0.003383	-0.0053005	0.061961	0.0454145	0.022015	-0.018968	0.0445055	-0.0070785	-0.013449	
1.0058	1.21612	0	0	-0.223986	-0.0113645	-0.199453	-0.0129047	-0.0446027	-0.0307075	-0.120518	-0.0058545	0.058919	0.00044	0.0110755	0.0484113	0.081295	-0.031379	0.027859	-0.00711675	0.05837	0.01713	0.0533013	0.044853	0.001623	-0.00224525	0.045836	0.003383	-0.00405275	0.0584345	0.0428123	0.0163945	-0.0177945	0.0411888	-0.00834125	-0.02103	
0.999148	1.2146	0	0	-0.22928	-0.010475	-0.204945	-0.012422	-0.046611	-0.025032	-0.121569	-0.002885	0.058919	0.00044	0.003733	0.053209	0.081295	-0.031379	0.022362	-0.003525	0.0539	0.018075	0.054632	0.041092	0.002532	-0.004814	0.045836	0.003383	-0.002805	0.054908	0.04021	0.010774	-0.016621	0.037872	-0.009604	-0.028611	
0.992186	1.2207	0	0	-0.232206	-0.0162673	-0.196381	-0.0366242	-0.0480542	-0.032813	-0.120335	-0.0173773	0.055009	0.00104675	-0.00205925	0.053639	0.0775843	-0.033786	0.019087	-0.00620475	0.0539	0.018075	0.0491397	0.0417905	-0.0028545	-0.0012945	0.0379893	0.00851025	-0.002805	0.054908	0.04021	0.010774	-0.010811	0.0366255	-0.0147325	-0.02526	
0.98511	1.21918	0	0	-0.235133	-0.0220595	-0.187818	-0.0608265	-0.0494975	-0.040594	-0.119101	-0.0318695	0.051099	0.0016535	-0.0078515	0.054069	0.0738735	-0.036193	0.015812	-0.0088845	0.0539	0.018075	0.0436475	0.042489	-0.008241	0.002225	0.0301425	0.0136375	-0.002805	0.054908	0.04021	0.010774	-0.005001	0.035379	-0.019861	-0.021909	
0.978106	1.21918	0	0	-0.238059	-0.0278518	-0.179255	-0.0850288	-0.0509407	-0.048375	-0.117867	-0.0463618	0.047189	0.00226025	-0.0136437	0.054499	0.0701627	-0.0386	0.012537	-0.0115642	0.0539	0.018075	0.0381553	0.0431875	-0.0136275	0.0057445	0.0222958	0.0187648	-0.002805	0.054908	0.04021	0.010774	0.000809	0.0341325	-0.0249895	-0.018558	
0.971362	1.21918	0	0	-0.240985	-0.033644	-0.170691	-0.109231	-0.052384	-0.056156	-0.116633	-0.060854	0.043279	0.002867	-0.019436	0.054929	0.066452	-0.041007	0.009262	-0.014244	0.0539	0.018075	0.032663	0.043886	-0.019014	0.009264	0.014449	0.023892	-0.002805	0.054908	0.04021	0.010774	0.006619	0.032886	-0.030118	-0.015207	
0.965065	1.22375	0	0	-0.247453	-0.029418	-0.179033	-0.100683	-0.054391	-0.050484	-0.117682	-0.0578895	0.0423822	0.00540075	-0.0120997	0.0501352	0.0653405	-0.037865	0.008153	-0.0111097	0.055718	0.0129365	0.025846	0.0483403	-0.0234882	0.0102135	0.0158968	0.0198	-0.0100117	0.059617	0.0376083	0.005161	0.000809	0.0341325	-0.0281852	-0.020669	
0.959404	1.21765	0	0	-0.25392	-0.025192	-0.187374	-0.0921345	-0.056398	-0.044812	-0.118731	-0.054925	0.0414855	0.0079345	-0.0047635	0.0453415	0.064229	-0.034723	0.007044	-0.0079755	0.057536	0.007798	0.019029	0.0527945	-0.0279625	0.011163	0.0173445	0.015708	-0.0172185	0.064326	0.0350065	-0.000452	-0.005001	0.035379	-0.0262525	-0.026131	
0.954564	1.22223	0	0	-0.260387	-0.020966	-0.195716	-0.0835863	-0.058405	-0.03914	-0.11978	-0.0519605	0.0405887	0.0104683	0.00257275	0.0405478	0.0631175	-0.031581	0.005935	-0.00484125	0.059354	0.0026595	0.012212	0.0572488	-0.0324368	0.0121125	0.0187922	0.011616	-0.0244253	0.069035	0.0324048	-0.006065	-0.010811	0.0366255	-0.0243198	-0.031593	
0.950735	1.21765	0	0	-0.266855	-0.01674	-0.204058	-0.075038	-0.060412	-0.033468	-0.120829	-0.048996	0.039692	0.013002	0.009909	0.035754	0.062006	-0.028439	0.004826	-0.001707	0.061172	-0.002479	0.005395	0.061703	-0.036911	0.013062	0.02024	0.007524	-0.031632	0.073744	0.029803	-0.011678	-0.016621	0.037872	-0.022387	-0.037055	
0.948069	1.22223	0	0	-0.263313	-0.02675	-0.208118	-0.078579	-0.058405	-0.03914	-0.117683	-0.0578868	0.039692	0.013002	0.009909	0.035754	0.062006	-0.028439	0.004826	-0.001707	0.0539777	0.0061725	0.005395	0.061703	-0.0378197	0.01563	0.0124008	0.0126465	-0.0328797	0.0772705	0.022718	-0.00461175	-0.0177945	0.0411888	-0.0214212	-0.039785	
0.946611	1.22223	0	0	-0.259771	-0.03676	-0.212177	-0.08212	-0.056398	-0.044812	-0.114537	-0.0667775	0.039692	0.013002	0.009909	0.035754	0.062006	-0.028439	0.004826	-0.001707	0.0467835	0.014824	0.005395	0.061703	-0.0387285	0.018198	0.0045615	0.017769	-0.0341275	0.080797	0.015633	0.0024545	-0.018968	0.0445055	-0.0204555	-0.042515	
0.946385	1.2207	0	0	-0.256229	-0.04677	-0.216237	-0.085661	-0.054391	-0.050484	-0.111391	-0.0756682	0.039692	0.013002	0.009909	0.035754	0.062006	-0.028439	0.004826	-0.001707	0.0395892	0.0234755	0.005395	0.061703	-0.0396372	0.020766	-0.00327775	0.0228915	-0.0353753	0.0843235	0.008548	0.00952075	-0.0201415	0.0478222	-0.0194898	-0.045245	
0.947415	1.22681	0	0	-0.252687	-0.05678	-0.220297	-0.089202	-0.052384	-0.056156	-0.108245	-0.084559	0.039692	0.013002	0.009909	0.035754	0.062006	-0.028439	0.004826	-0.001707	0.032395	0.032127	0.005395	0.061703	-0.040546	0.023334	-0.011117	0.028014	-0.036623	0.08785	0.001463	0.016587	-0.021315	0.051139	-0.018524	-0.047975	
0.949726	1.22223	0	0	-0.253867	-0.0534445	-0.221722	-0.0851745	-0.0499365	-0.0512133	-0.109293	-0.0815962	0.0387952	0.0155367	0.00102875	0.0449115	0.062006	-0.028439	0.00921	-0.0021615	0.032395	0.032127	0.005395	0.061703	-0.040546	0.023334	-0.00967	0.023924	-0.0413288	0.0855037	0.00594675	0.003915	-0.0259463	0.0490662	-0.0207535	-0.0528102	
0.953341	1.22223	0	0	-0.255047	-0.050109	-0.223147	-0.081147	-0.047489	-0.0462705	-0.110341	-0.0786335	0.0378985	0.0180715	-0.0078515	0.054069	0.062006	-0.028439	0.013594	-0.002616	0.032395	0.032127	0.005395	0.061703	-0.040546	0.023334	-0.008223	0.019834	-0.0460345	0.0831575	0.0104305	-0.008757	-0.0305775	0.0469935	-0.022983	-0.0576455	
0.958284	1.22681	0	0	-0.256228	-0.0467735	-0.224572	-0.0771195	-0.0450415	-0.0413277	-0.11139	-0.0756707	0.0370017	0.0206062	-0.0167317	0.0632265	0.062006	-0.028439	0.017978	-0.0030705	0.032395	0.032127	0.005395	0.061703	-0.040546	0.023334	-0.006776	0.015744	-0.0507403	0.0808113	0.0149143	-0.021429	-0.0352087	0.0449207	-0.0252125	-0.0624808	
0.964575	1.22528	0	0	-0.257408	-0.043438	-0.225997	-0.073092	-0.042594	-0.036385	-0.112438	-0.072708	0.036105	0.023141	-0.025612	0.072384	0.062006	-0.028439	0.022362	-0.003525	0.032395	0.032127	0.005395	0.061703	-0.040546	0.023334	-0.005329	0.011654	-0.055446	0.078465	0.019398	-0.034101	-0.03984	0.042848	-0.027442	-0.067316	
0.972062	1.22528	0	0	-0.255048	-0.0501077	-0.223147	-0.081145	-0.0460448	-0.038492	-0.115404	-0.0753245	0.0343105	0.0282122	-0.0182758	0.0675903	0.0608937	-0.0252962	0.022362	-0.003525	0.035042	0.036327	-0.00407775	0.0736745	-0.0423642	0.0284725	-0.0160563	0.0249537	-0.057941	0.0855162	0.017157	-0.0277673	-0.0352087	0.0449207	-0.028407	-0.0645888	
0.980362	1.2207	0	0	-0.252688	-0.0567775	-0.220298	-0.089198	-0.0494955	-0.040599	-0.11837	-0.077941	0.032516	0.0332835	-0.0109395	0.0627965	0.0597815	-0.0221535	0.022362	-0.003525	0.037689	0.040527	-0.0135505	0.085646	-0.0441825	0.033611	-0.0267835	0.0382535	-0.060436	0.0925675	0.014916	-0.0214335	-0.0305775	0.0469935	-0.029372	-0.0618615	
0.989073	1.22223	0	0	-0.250328	-0.0634472	-0.217449	-0.097251	-0.0529463	-0.042706	-0.121336	-0.0805575	0.0307215	0.0383547	-0.00360325	0.0580027	0.0586692	-0.0190107	0.022362	-0.003525	0.040336	0.044727	-0.0230232	0.0976175	-0.0460007	0.0387495	-0.0375108	0.0515532	-0.062931	0.0996188	0.012675	-0.0150997	-0.0259463	0.0490662	-0.030337	-0.0591342	
0.997795	1.22375	0	0	-0.247968	-0.070117	-0.214599	-0.105304	-0.056397	-0.044813	-0.124302	-0.083174	0.028927	0.043426	0.003733	0.053209	0.057557	-0.015868	0.022362	-0.003525	0.042983	0.048927	-0.032496	0.109589	-0.047819	0.043888	-0.048238	0.064853	-0.065426	0.10667	0.010434	-0.008766	-0.021315	0.051139	-0.031302	-0.056407	
1.00613	1.22223	0	0	-0.251508	-0.0601107	-0.217449	-0.097251	-0.0584048	-0.0391393	-0.126398	-0.07725	0.0280295	0.0459627	0.00218825	0.057575	0.057557	-0.015868	0.0212523	-0.0003885	0.0420727	0.0514997	-0.0256842	0.105138	-0.0487283	0.0464583	-0.0389577	0.0556432	-0.0616842	0.096095	0.003	-0.0136437	-0.0236013	0.0424385	-0.032566	-0.063964	
1.01367	1.2207	0	0	-0.255049	-0.0501045	-0.220298	-0.089198	-0.0604125	-0.0334655	-0.128494	-0.071326	0.027132	0.0484995	0.0006435	0.061941	0.057557	-0.015868	0.0201425	0.002748	0.0411625	0.0540725	-0.0188725	0.100687	-0.0496375	0.0490285	-0.0296775	0.0464335	-0.0579425	0.08552	-0.004434	-0.0185215	-0.0258875	0.033738	-0.03383	-0.071521	
1.02002	1.21765	0	0	-0.258589	-0.0400983	-0.223147	-0.081145	-0.0624202	-0.0277917	-0.13059	-0.065402	0.0262345	0.0510363	-0.00090125	0.066307	0.057557	-0.015868	0.0190328	0.0058845	0.0402523	0.0566453	-0.0120607	0.096236	-0.0505468	0.0515987	-0.0203973	0.0372237	-0.0542007	0.074945	-0.011868	-0.0233992	-0.0281738	0.0250375	-0.035094	-0.079078	
1.02477	1.2207	0	0	-0.26213	-0.030092	-0.225997	-0.073092	-0.064428	-0.022118	-0.132686	-0.059478	0.025337	0.053573	-0.002446	0.070673	0.057557	-0.015868	0.017923	0.009021	0.039342	0.059218	-0.005249	0.091785	-0.051456	0.054169	-0.011117	0.028014	-0.050459	0.06437	-0.019302	-0.028277	-0.03046	0.016337	-0.036358	-0.086635	
1.02766	1.2207	0	0	-0.256844	-0.03098	-0.225997	-0.073092	-0.068879	-0.021391	-0.137745	-0.0561722	0.0274492	0.0580468	-0.00399175	0.075041	0.0564445	-0.012724	0.0168128	0.0121582	0.041078	0.0660002	-0.0120607	0.096236	-0.0523658	0.05674	-0.0203972	0.0372237	-0.0517057	0.0678938	-0.0204215	-0.025113	-0.0316323	0.0196503	-0.0331642	-0.0845318	
1.0287	1.2207	0	0	-0.251557	-0.031868	-0.225997	-0.073092	-0.07333	-0.020664	-0.142804	-0.0528665	0.0295615	0.0625205	-0.0055375	0.079409	0.055332	-0.00958	0.0157025	0.0152955	0.042814	0.0727825	-0.0188725	0.100687	-0.0532755	0.059311	-0.0296775	0.0464335	-0.0529525	0.0714175	-0.021541	-0.021949	-0.0328045	0.0229635	-0.0299705	-0.0824285	
1.02795	1.21765	0	0	-0.246271	-0.032756	-0.225997	-0.073092	-0.077781	-0.019937	-0.147863	-0.0495608	0.0316738	0.0669943	-0.00708325	0.083777	0.0542195	-0.006436	0.0145922	0.0184327	0.04455	0.0795647	-0.0256842	0.105138	-0.0541852	0.061882	-0.0389577	0.0556432	-0.0541993	0.0749412	-0.0226605	-0.018785	-0.0339768	0.0262768	-0.0267768	-0.0803253	
1.02546	1.21765	0	0	-0.240985	-0.033644	-0.225997	-0.073092	-0.082232	-0.01921	-0.152922	-0.046255	0.033786	0.071468	-0.008629	0.088145	0.053107	-0.003292	0.013482	0.02157	0.046286	0.086347	-0.032496	0.109589	-0.055095	0.064453	-0.048238	0.064853	-0.055446	0.078465	-0.02378	-0.015621	-0.035149	0.02959	-0.023583	-0.078222	
1.02129	1.2207	0	0	-0.244531	-0.0236227	-0.228849	-0.065032	-0.0886875	-0.0128105	-0.153971	-0.0432915	0.033786	0.071468	-0.0159653	0.0929388	0.0519942	-0.00014675	0.013482	0.02157	0.0453743	0.0889232	-0.032496	0.109589	-0.056005	0.0670247	-0.0546153	0.0658742	-0.0589018	0.0725995	-0.0263735	-0.0212213	-0.0374345	0.0209008	-0.0299688	-0.0824273	
1.0155	1.21765	0	0	-0.248077	-0.0136015	-0.231701	-0.056972	-0.095143	-0.006411	-0.15502	-0.040328	0.033786	0.071468	-0.0233015	0.0977325	0.0508815	0.0029985	0.013482	0.02157	0.0444625	0.0914995	-0.032496	0.109589	-0.056915	0.0695965	-0.0609925	0.0668955	-0.0623575	0.066734	-0.028967	-0.0268215	-0.03972	0.0122115	-0.0363545	-0.0866325	
1.00813	1.21612	0	0	-0.251623	-0.00358025	-0.234553	-0.048912	-0.101598	-1.15E-05	-0.156068	-0.0373645	0.033786	0.071468	-0.0306377	0.102526	0.0497688	0.00614375	0.013482	0.02157	0.0435507	0.0940757	-0.032496	0.109589	-0.057825	0.0721683	-0.0673697	0.0679167	-0.0658133	0.0608685	-0.0315605	-0.0324217	-0.0420055	0.00352225	-0.0427403	-0.0908377	
0.999256	1.21918	0	0	-0.255169	0.006441	-0.237405	-0.040852	-0.108054	0.006388	-0.157117	-0.034401	0.033786	0.071468	-0.037974	0.10732	0.048656	0.009289	0.013482	0.02157	0.042639	0.096652	-0.032496	0.109589	-0.058735	0.07474	-0.073747	0.068938	-0.069269	0.055003	-0.034154	-0.038022	-0.044291	-0.005167	-0.049126	-0.095043	
0.989049	1.21765	0	0	-0.256352	0.009784	-0.238609	-0.052453	-0.106046	0.000714	-0.159028	-0.039985	0.0376965	0.0708653	-0.032184	0.106897	0.0534772	0.0085575	0.013482	0.02157	0.0399028	0.104385	-0.032496	0.109589	-0.065025	0.0808278	-0.073747	0.068938	-0.0705148	0.0585237	-0.034154	-0.038022	-0.0454622	-0.00185775	-0.0449703	-0.095665	
0.977977	1.21307	0	0	-0.257534	0.013127	-0.239812	-0.064054	-0.104039	-0.00496	-0.16094	-0.045569	0.041607	0.0702625	-0.026394	0.106473	0.0582985	0.007826	0.013482	0.02157	0.0371665	0.112119	-0.032496	0.109589	-0.071315	0.0869155	-0.073747	0.068938	-0.0717605	0.0620445	-0.034154	-0.038022	-0.0466335	0.0014515	-0.0408145	-0.096287	
0.96655	1.2207	0	0	-0.258717	0.01647	-0.241015	-0.075655	-0.102031	-0.010634	-0.162851	-0.051153	0.0455175	0.0696597	-0.020604	0.106049	0.0631198	0.0070945	0.013482	0.02157	0.0344303	0.119852	-0.032496	0.109589	-0.077605	0.0930032	-0.073747	0.068938	-0.0730062	0.0655652	-0.034154	-0.038022	-0.0478048	0.00476075	-0.0366587	-0.096909	
0.955275	1.21765	0	0	-0.2599	0.019813	-0.242219	-0.087256	-0.100023	-0.016308	-0.164762	-0.056737	0.049428	0.069057	-0.014814	0.105626	0.067941	0.006363	0.013482	0.02157	0.031694	0.127585	-0.032496	0.109589	-0.083895	0.099091	-0.073747	0.068938	-0.074252	0.069086	-0.034154	-0.038022	-0.048976	0.00807	-0.032503	-0.097531	
0.944663	1.21918	0	0	-0.2599	0.019813	-0.243643	-0.0832305	-0.102031	-0.010634	-0.16581	-0.0537755	0.049428	0.069057	-0.0221502	0.11042	0.0668273	0.00951025	0.00798875	0.0251595	0.031694	0.127585	-0.0311652	0.105828	-0.083895	0.099091	-0.0722997	0.064848	-0.071761	0.0620457	-0.0426897	-0.039732	-0.0454642	-0.0018545	-0.0347327	-0.102353	
0.93522	1.21612	0	0	-0.2599	0.019813	-0.245067	-0.079205	-0.104039	-0.00496	-0.166857	-0.050814	0.049428	0.069057	-0.0294865	0.115213	0.0657135	0.0126575	0.0024955	0.028749	0.031694	0.127585	-0.0298345	0.102067	-0.083895	0.099091	-0.0708525	0.060758	-0.06927	0.0550055	-0.0512255	-0.041442	-0.0419525	-0.011779	-0.0369625	-0.107175	
0.927457	1.2146	0	0	-0.2599	0.019813	-0.246492	-0.0751795	-0.106046	0.000714	-0.167905	-0.0478525	0.049428	0.069057	-0.0368228	0.120007	0.0645997	0.0158047	-0.00299775	0.0323385	0.031694	0.127585	-0.0285037	0.0983053	-0.083895	0.099091	-0.0694053	0.056668	-0.066779	0.0479653	-0.0597612	-0.043152	-0.0384408	-0.0217035	-0.0391922	-0.111996	
0.921823	1.21307	0	0	-0.2599	0.019813	-0.247916	-0.071154	-0.108054	0.006388	-0.168953	-0.044891	0.049428	0.069057	-0.044159	0.124801	0.063486	0.018952	-0.008491	0.035928	0.031694	0.127585	-0.027173	0.094544	-0.083895	0.099091	-0.067958	0.052578	-0.064288	0.040925	-0.068297	-0.044862	-0.034929	-0.031628	-0.041422	-0.116818	
0.918295	1.21612	0	0	-0.258717	0.01647	-0.250544	-0.078717	-0.106046	0.000714	-0.16877	-0.0563872	0.049428	0.069057	-0.044159	0.124801	0.062372	0.0221005	-0.00627125	0.0296543	0.0352515	0.129227	-0.027173	0.094544	-0.0857162	0.104238	-0.0772233	0.0617765	-0.066779	0.0479653	-0.0694145	-0.0417035	-0.0430657	-0.023769	-0.0382287	-0.11472	
0.916628	1.21765	0	0	-0.257534	0.013127	-0.253173	-0.08628	-0.104039	-0.00496	-0.168587	-0.0678835	0.049428	0.069057	-0.044159	0.124801	0.061258	0.025249	-0.0040515	0.0233805	0.038809	0.130868	-0.027173	0.094544	-0.0875375	0.109385	-0.0864885	0.070975	-0.06927	0.0550055	-0.070532	-0.038545	-0.0512025	-0.01591	-0.0350355	-0.112621	
0.916573	1.21612	0	0	-0.256352	0.009784	-0.255801	-0.093843	-0.102031	-0.010634	-0.168404	-0.0793797	0.049428	0.069057	-0.044159	0.124801	0.060144	0.0283975	-0.00183175	0.0171068	0.0423665	0.13251	-0.027173	0.094544	-0.0893588	0.114533	-0.0957537	0.0801735	-0.071761	0.0620457	-0.0716495	-0.0353865	-0.0593392	-0.008051	-0.0318423	-0.110523	
0.91788	1.2146	0	0	-0.255169	0.006441	-0.258429	-0.101406	-0.100023	-0.016308	-0.168221	-0.090876	0.049428	0.069057	-0.044159	0.124801	0.05903	0.031546	0.000388	0.010833	0.045924	0.134152	-0.027173	0.094544	-0.09118	0.11968	-0.105019	0.089372	-0.074252	0.069086	-0.072767	-0.032228	-0.067476	-0.000192	-0.028649	-0.108424	
0.920301	1.21612	0	0	-0.255169	0.006441	-0.258429	-0.101406	-0.101027	-0.0134715	-0.163168	-0.0941778	0.0464157	0.067121	-0.0426127	0.120431	0.05903	0.031546	-0.0039925	0.011285	0.041454	0.13509	-0.0258427	0.0907847	-0.0902692	0.117106	-0.109936	0.0862975	-0.0705163	0.0585277	-0.075354	-0.0378195	-0.069759	-0.00886425	-0.029917	-0.115963	
0.923589	1.21612	0	0	-0.255169	0.006441	-0.258429	-0.101406	-0.10203	-0.010635	-0.158115	-0.0974795	0.0434035	0.065185	-0.0410665	0.11606	0.05903	0.031546	-0.008373	0.011737	0.036984	0.136027	-0.0245125	0.0870255	-0.0893585	0.114532	-0.114853	0.083223	-0.0667805	0.0479695	-0.077941	-0.043411	-0.072042	-0.0175365	-0.031185	-0.123502	
0.927494	1.21307	0	0	-0.255169	0.006441	-0.258429	-0.101406	-0.103034	-0.0077985	-0.153062	-0.100781	0.0403913	0.063249	-0.0395202	0.11169	0.05903	0.031546	-0.0127535	0.012189	0.032514	0.136964	-0.0231823	0.0832662	-0.0884478	0.111958	-0.119771	0.0801485	-0.0630447	0.0374113	-0.080528	-0.0490025	-0.074325	-0.0262088	-0.032453	-0.131041	
0.931809	1.2146	0	0	-0.255169	0.006441	-0.258429	-0.101406	-0.104038	-0.004962	-0.148009	-0.104083	0.037379	0.061313	-0.037974	0.10732	0.05903	0.031546	-0.017134	0.012641	0.028044	0.137902	-0.021852	0.079507	-0.087537	0.109384	-0.124688	0.077074	-0.059309	0.026853	-0.083115	-0.054594	-0.076608	-0.034881	-0.033721	-0.13858	
0.936383	1.21765	0	0	-0.260454	0.00732525	-0.259852	-0.097384	-0.106046	0.00071375	-0.160206	-0.091565	0.0364807	0.0638517	-0.0395202	0.11169	0.0579158	0.0346955	-0.017134	0.012641	0.033427	0.134385	-0.021852	0.079507	-0.0884478	0.111958	-0.118323	0.0760585	-0.0605538	0.030371	-0.085349	-0.0482805	-0.0801157	-0.0249673	-0.0314897	-0.133763	
0.94107	1.2146	0	0	-0.265739	0.0082095	-0.261275	-0.093362	-0.108054	0.0063895	-0.172402	-0.079047	0.0355825	0.0663905	-0.0410665	0.11606	0.0568015	0.037845	-0.017134	0.012641	0.03881	0.130867	-0.021852	0.079507	-0.0893585	0.114532	-0.111959	0.075043	-0.0617985	0.033889	-0.087583	-0.041967	-0.0836235	-0.0150535	-0.0292585	-0.128947	
0.945722	1.21155	0	0	-0.271024	0.00909375	-0.262698	-0.08934	-0.110063	0.0120652	-0.184598	-0.066529	0.0346842	0.0689292	-0.0426127	0.120431	0.0556873	0.0409945	-0.017134	0.012641	0.044193	0.12735	-0.021852	0.079507	-0.0902692	0.117106	-0.105594	0.0740275	-0.0630432	0.037407	-0.089817	-0.0356535	-0.0871312	-0.00513975	-0.0270272	-0.12413	
0.950192	1.2146	0	0	-0.276309	0.009978	-0.264121	-0.085318	-0.112071	0.017741	-0.196795	-0.054011	0.033786	0.071468	-0.044159	0.124801	0.054573	0.044144	-0.017134	0.012641	0.049576	0.123833	-0.021852	0.079507	-0.09118	0.11968	-0.09923	0.073012	-0.064288	0.040925	-0.092051	-0.02934	-0.090639	0.004774	-0.024796	-0.119313	
0.954334	1.21307	0	0	-0.276309	0.009978	-0.265545	-0.0812945	-0.112071	0.017741	-0.191745	-0.057311	0.030776	0.0695318	-0.044159	0.124801	0.0605115	0.0402635	-0.016025	0.009507	0.046018	0.122192	-0.019193	0.0719927	-0.094735	0.118046	-0.105594	0.0740275	-0.0677437	0.0350722	-0.0935192	-0.038085	-0.0859628	-0.00844175	-0.0270272	-0.12413	
0.958002	1.21307	0	0	-0.276309	0.009978	-0.266968	-0.077271	-0.112071	0.017741	-0.186694	-0.060611	0.027766	0.0675955	-0.044159	0.124801	0.06645	0.036383	-0.014916	0.006373	0.04246	0.120552	-0.016534	0.0644785	-0.09829	0.116412	-0.111959	0.075043	-0.0711995	0.0292195	-0.0949875	-0.04683	-0.0812865	-0.0216575	-0.0292585	-0.128947	
0.961057	1.21155	0	0	-0.276309	0.009978	-0.268392	-0.0732475	-0.112071	0.017741	-0.181644	-0.063911	0.024756	0.0656593	-0.044159	0.124801	0.0723885	0.0325025	-0.013807	0.003239	0.038902	0.118912	-0.013875	0.0569643	-0.101845	0.114777	-0.118323	0.0760585	-0.0746553	0.0233667	-0.0964557	-0.055575	-0.0766102	-0.0348733	-0.0314897	-0.133763	
0.963467	1.2146	0	0	-0.276309	0.009978	-0.269816	-0.069224	-0.112071	0.017741	-0.176594	-0.067211	0.021746	0.063723	-0.044159	0.124801	0.078327	0.028622	-0.012698	0.000105	0.035344	0.117271	-0.011216	0.04945	-0.1054	0.113143	-0.124688	0.077074	-0.078111	0.017514	-0.097924	-0.06432	-0.071934	-0.048089	-0.033721	-0.13858	
0.965261	1.2146	0	0	-0.278674	0.0166625	-0.261713	-0.062131	-0.11064	0.025541	-0.176781	-0.055705	0.0199495	0.0688	-0.0457062	0.129173	0.0712735	0.0356532	-0.012698	0.000105	0.035344	0.117271	-0.0125453	0.0532063	-0.107221	0.11829	-0.127582	0.0852523	-0.080599	0.024546	-0.0953387	-0.0587322	-0.0754405	-0.038179	-0.0314897	-0.133763	
0.966469	1.2146	0	0	-0.281039	0.023347	-0.253611	-0.055038	-0.109209	0.033341	-0.176967	-0.044199	0.018153	0.073877	-0.0472535	0.133546	0.06422	0.0426845	-0.012698	0.000105	0.035344	0.117271	-0.0138745	0.0569625	-0.109042	0.123437	-0.130475	0.0934305	-0.083087	0.031578	-0.0927535	-0.0531445	-0.078947	-0.028269	-0.0292585	-0.128947	
0.967121	1.21307	0	0	-0.283405	0.0300315	-0.245508	-0.047945	-0.107777	0.041141	-0.177154	-0.032693	0.0163565	0.078954	-0.0488007	0.137918	0.0571665	0.0497158	-0.012698	0.000105	0.035344	0.117271	-0.0152037	0.0607188	-0.110864	0.128585	-0.133369	0.101609	-0.085575	0.03861	-0.0901682	-0.0475568	-0.0824535	-0.018359	-0.0270272	-0.12413	
0.967246	1.21307	0	0	-0.28577	0.036716	-0.237405	-0.040852	-0.106346	0.048941	-0.177341	-0.021187	0.01456	0.084031	-0.050348	0.142291	0.050113	0.056747	-0.012698	0.000105	0.035344	0.117271	-0.016533	0.064475	-0.112685	0.133732	-0.136263	0.109787	-0.088063	0.045642	-0.087583	-0.041969	-0.08596	-0.008449	-0.024796	-0.119313	
0.966873	1.21307	0	0	-0.280486	0.0358345	-0.24026	-0.0327845	-0.101897	0.0482192	-0.174383	-0.0185605	0.0154582	0.081492	-0.0488007	0.137918	0.050113	0.056747	-0.0170758	0.000557	0.0371677	0.112116	-0.0152037	0.0607188	-0.110864	0.128585	-0.127005	0.100593	-0.0915143	0.0397892	-0.0924008	-0.0412475	-0.0847907	-0.0117535	-0.0321437	-0.120787	
0.966034	1.21307	0	0	-0.275202	0.034953	-0.243114	-0.024717	-0.097448	0.0474975	-0.171426	-0.015934	0.0163565	0.078953	-0.0472535	0.133546	0.050113	0.056747	-0.0214535	0.001009	0.0389915	0.106962	-0.0138745	0.0569625	-0.109042	0.123437	-0.117747	0.0913995	-0.0949655	0.0339365	-0.0972185	-0.040526	-0.0836215	-0.015058	-0.0394915	-0.122261	
0.964711	1.21307	0	0	-0.269918	0.0340715	-0.245968	-0.0166495	-0.092999	0.0467757	-0.168468	-0.0133075	0.0172547	0.076414	-0.0457062	0.129173	0.050113	0.056747	-0.0258313	0.001461	0.0408153	0.101807	-0.0125453	0.0532063	-0.107221	0.11829	-0.108488	0.0822057	-0.0984167	0.0280838	-0.102036	-0.0398045	-0.0824522	-0.0183625	-0.0468392	-0.123734	
0.962681	1.21155	0	0	-0.264634	0.03319	-0.248823	-0.008582	-0.08855	0.046054	-0.16551	-0.010681	0.018153	0.073875	-0.044159	0.124801	0.050113	0.056747	-0.030209	0.001913	0.042639	0.096652	-0.011216	0.04945	-0.1054	0.113143	-0.09923	0.073012	-0.101868	0.022231	-0.106854	-0.039083	-0.081283	-0.021667	-0.054187	-0.125208	
0.959663	1.21307	0	0	-0.262899	0.04235	-0.242144	0.00258375	-0.0881258	0.0567147	-0.160641	-0.002452	0.0154572	0.081494	-0.0414665	0.133131	0.0489977	0.0598988	-0.0269402	0.004595	0.0417273	0.099229	-0.0125453	0.0532063	-0.107221	0.11829	-0.102125	0.0811937	-0.0984167	0.0280838	-0.106507	-0.0271685	-0.0790017	-0.01299	-0.0468392	-0.123734	
0.955379	1.21612	0	0	-0.261165	0.05151	-0.235465	0.0137495	-0.0877015	0.0673755	-0.155772	0.005777	0.0127615	0.089113	-0.038774	0.141461	0.0478825	0.0630505	-0.0236715	0.007277	0.0408155	0.101806	-0.0138745	0.0569625	-0.109042	0.123437	-0.105021	0.0893755	-0.0949655	0.0339365	-0.106161	-0.015254	-0.0767205	-0.004313	-0.0394915	-0.122261	
0.949549	1.2146	0	0	-0.25943	0.06067	-0.228786	0.0249152	-0.0872773	0.0780363	-0.150902	0.014006	0.0100658	0.096732	-0.0360815	0.149791	0.0467672	0.0662023	-0.0204028	0.009959	0.0399038	0.104383	-0.0152037	0.0607188	-0.110864	0.128585	-0.107916	0.0975572	-0.0915143	0.0397892	-0.105814	-0.0033395	-0.0744392	0.004364	-0.0321437	-0.120787	
0.941893	1.21307	0	0	-0.257695	0.06983	-0.222107	0.036081	-0.086853	0.088697	-0.146033	0.022235	0.00737	0.104351	-0.033389	0.158121	0.045652	0.069354	-0.017134	0.012641	0.038992	0.10696	-0.016533	0.064475	-0.112685	0.133732	-0.110811	0.105739	-0.088063	0.045642	-0.105467	0.008575	-0.072158	0.013041	-0.024796	-0.119313	
0.93213	1.2146	0	0	-0.248294	0.0714173	-0.218049	0.0396512	-0.0878608	0.0915452	-0.143071	0.0248693	0.003465	0.10495	-0.0391765	0.158538	0.0467672	0.0662023	-0.0226203	0.016226	0.036347	0.102747	-0.0152037	0.0607188	-0.116237	0.132095	-0.107916	0.0975572	-0.0952458	0.0503352	-0.104349	0.00541425	-0.0779485	0.0142813	-0.0299152	-0.115968	
0.920017	1.2146	0	0	-0.238893	0.0730045	-0.213991	0.0432215	-0.0888685	0.0943935	-0.140109	0.0275035	-0.00044	0.105548	-0.044964	0.158955	0.0478825	0.0630505	-0.0281065	0.019811	0.033702	0.098533	-0.0138745	0.0569625	-0.119788	0.130459	-0.105021	0.0893755	-0.102429	0.0550285	-0.103231	0.0022535	-0.083739	0.0155215	-0.0350345	-0.112623	
0.905938	1.21307	0	0	-0.229491	0.0745917	-0.209933	0.0467918	-0.0898763	0.0972418	-0.137148	0.0301378	-0.004345	0.106147	-0.0507515	0.159372	0.0489977	0.0598988	-0.0335928	0.023396	0.031057	0.0943195	-0.0125453	0.0532063	-0.12334	0.128823	-0.102125	0.0811937	-0.109611	0.0597218	-0.102112	-0.00090725	-0.0895295	0.0167617	-0.0401538	-0.109277	
0.890829	1.21307	0	0	-0.22009	0.076179	-0.205875	0.050362	-0.090884	0.10009	-0.134186	0.032772	-0.00825	0.106745	-0.056539	0.159789	0.050113	0.056747	-0.039079	0.026981	0.028412	0.090106	-0.011216	0.04945	-0.126892	0.127186	-0.09923	0.073012	-0.116794	0.064415	-0.100994	-0.004068	-0.09532	0.018002	-0.045273	-0.105932	
0.875644	1.21307	0	0	-0.211862	0.0811227	-0.194881	0.0494057	-0.0894565	0.107923	-0.126151	0.0320948	-0.0061435	0.111229	-0.056539	0.159789	0.0489977	0.0598988	-0.039079	0.026981	0.028412	0.090106	-0.0125453	0.0532063	-0.127803	0.129759	-0.102125	0.0811937	-0.112101	0.0667592	-0.0995313	0.00470125	-0.091872	0.023382	-0.0481637	-0.0977627	
0.861336	1.2146	0	0	-0.203633	0.0860665	-0.183887	0.0484495	-0.088029	0.115756	-0.118117	0.0314175	-0.004037	0.115713	-0.056539	0.159789	0.0478825	0.0630505	-0.039079	0.026981	0.028412	0.090106	-0.0138745	0.0569625	-0.128713	0.132332	-0.105021	0.0893755	-0.107409	0.0691035	-0.0980685	0.0134705	-0.088424	0.028762	-0.0510545	-0.0895935	
0.84886	1.2146	0	0	-0.195405	0.0910103	-0.172894	0.0474933	-0.0866015	0.123589	-0.110082	0.0307403	-0.0019305	0.120198	-0.056539	0.159789	0.0467672	0.0662023	-0.039079	0.026981	0.028412	0.090106	-0.0152037	0.0607188	-0.129624	0.134906	-0.107916	0.0975572	-0.102717	0.0714478	-0.0966058	0.0222397	-0.084976	0.034142	-0.0539453	-0.0814243	
0.839169	1.21765	0	0	-0.187176	0.095954	-0.1619	0.046537	-0.085174	0.131422	-0.102048	0.030063	0.000176	0.124682	-0.056539	0.159789	0.045652	0.069354	-0.039079	0.026981	0.028412	0.090106	-0.016533	0.064475	-0.130534	0.137479	-0.110811	0.105739	-0.098024	0.073792	-0.095143	0.031009	-0.081528	0.039522	-0.056836	-0.073255	
0.833072	1.21918	0	0	-0.185988	0.092596	-0.163334	0.05059	-0.0831563	0.125719	-0.0999435	0.0241152	-0.00282925	0.122738	-0.053444	0.151042	0.0408328	0.07008	-0.043453	0.0274295	0.0248577	0.0884703	-0.0152037	0.0607188	-0.128713	0.132333	-0.115727	0.102661	-0.100516	0.080835	-0.098504	0.040508	-0.0838723	0.046147	-0.0597292	-0.065078	
0.830443	1.21918	0	0	-0.1848	0.089238	-0.164768	0.054643	-0.0811385	0.120016	-0.097839	0.0181675	-0.0058345	0.120794	-0.050349	0.142295	0.0360135	0.070806	-0.047827	0.027878	0.0213035	0.0868345	-0.0138745	0.0569625	-0.126893	0.127188	-0.120643	0.099583	-0.103008	0.087878	-0.101865	0.050007	-0.0862165	0.052772	-0.0626225	-0.056901	
0.830797	1.2146	0	0	-0.183611	0.08588	-0.166202	0.058696	-0.0791208	0.114314	-0.0957345	0.0122198	-0.00883975	0.118851	-0.047254	0.133548	0.0311942	0.071532	-0.052201	0.0283265	0.0177493	0.0851988	-0.0125453	0.0532063	-0.125072	0.122042	-0.125558	0.096505	-0.1055	0.094921	-0.105226	0.059506	-0.0885607	0.059397	-0.0655157	-0.048724	
0.833642	1.21612	0	0	-0.182423	0.082522	-0.167636	0.062749	-0.077103	0.108611	-0.09363	0.006272	-0.011845	0.116907	-0.044159	0.124801	0.026375	0.072258	-0.056575	0.028775	0.014195	0.083563	-0.011216	0.04945	-0.123251	0.116896	-0.130474	0.093427	-0.107992	0.101964	-0.108587	0.069005	-0.090905	0.066022	-0.068409	-0.040547	
0.838492	1.21765	0	0	-0.183611	0.08588	-0.16644	0.0744453	-0.0791208	0.114314	-0.0917135	0.0118797	-0.0136437	0.12199	-0.051489	0.12959	0.026375	0.072258	-0.052201	0.0283265	0.0132842	0.086137	-0.0180223	0.0538973	-0.124161	0.119469	-0.131921	0.097517	-0.110486	0.109012	-0.113074	0.0816858	-0.0862843	0.0680998	-0.0671515	-0.0329778	
0.844857	1.2146	0	0	-0.1848	0.089238	-0.165245	0.0861415	-0.0811385	0.120016	-0.089797	0.0174875	-0.0154425	0.127073	-0.058819	0.13438	0.026375	0.072258	-0.047827	0.027878	0.0123735	0.088711	-0.0248285	0.0583445	-0.125072	0.122041	-0.133369	0.101607	-0.11298	0.116061	-0.117561	0.0943665	-0.0816635	0.0701775	-0.065894	-0.0254085	
0.852247	1.21765	0	0	-0.185988	0.092596	-0.164049	0.0978378	-0.0831563	0.125719	-0.0878805	0.0230952	-0.0172412	0.132155	-0.066149	0.13917	0.026375	0.072258	-0.043453	0.0274295	0.0114628	0.091285	-0.0316348	0.0627917	-0.125982	0.124613	-0.134816	0.105697	-0.115474	0.123109	-0.122048	0.107047	-0.0770427	0.0722552	-0.0646365	-0.0178393	
0.860237	1.21765	0	0	-0.187176	0.095954	-0.162853	0.109534	-0.085174	0.131422	-0.085964	0.028703	-0.01904	0.137238	-0.073479	0.143959	0.026375	0.072258	-0.039079	0.026981	0.010552	0.093859	-0.038441	0.067239	-0.126892	0.127186	-0.136263	0.109787	-0.117968	0.130158	-0.126535	0.119728	-0.072422	0.074333	-0.063379	-0.01027	
0.868617	1.2207	0	0	-0.191292	0.0934813	-0.161416	0.105474	-0.0876098	0.126438	-0.0929515	0.0264088	-0.02264	0.147413	-0.073479	0.143959	0.0182138	0.0824378	-0.039079	0.026981	0.007818	0.101585	-0.035624	0.0740652	-0.129624	0.134908	-0.140608	0.122068	-0.117023	0.143107	-0.121388	0.131015	-0.077119	0.0876077	-0.054772	-0.0011855	
0.877233	1.21918	0	0	-0.195408	0.0910085	-0.15998	0.101414	-0.0900455	0.121455	-0.099939	0.0241145	-0.02624	0.157587	-0.073479	0.143959	0.0100525	0.0926175	-0.039079	0.026981	0.005084	0.109312	-0.032807	0.0808915	-0.132356	0.14263	-0.144954	0.13435	-0.116079	0.156056	-0.11624	0.142301	-0.081816	0.100882	-0.046165	0.007899	
0.885927	1.2146	0	0	-0.199523	0.0885357	-0.158544	0.0973533	-0.0924813	0.116471	-0.106927	0.0218202	-0.02984	0.167762	-0.073479	0.143959	0.00189125	0.102797	-0.039079	0.026981	0.00235	0.117039	-0.02999	0.0877177	-0.135089	0.150352	-0.1493	0.146631	-0.115134	0.169004	-0.111093	0.153587	-0.086513	0.114157	-0.037558	0.0169835	
0.894543	1.21918	0	0	-0.203639	0.086063	-0.157107	0.093293	-0.094917	0.111487	-0.113914	0.019526	-0.03344	0.177936	-0.073479	0.143959	-0.00627	0.112977	-0.039079	0.026981	-0.000384	0.124765	-0.027173	0.094544	-0.137821	0.158074	-0.153645	0.158912	-0.114189	0.181953	-0.105946	0.164874	-0.09121	0.127432	-0.028951	0.026068	
0.902925	1.21765	0	0	-0.200712	0.091895	-0.158544	0.0973533	-0.0959255	0.114337	-0.112862	0.0165535	-0.0379458	0.19067	-0.0808028	0.148745	-0.0014555	0.112256	-0.0412983	0.0332525	0.00316825	0.126407	-0.027173	0.094544	-0.134271	0.159715	-0.145834	0.153808	-0.108244	0.180785	-0.108197	0.171235	-0.0900352	0.124111	-0.030888	0.031542	
0.910915	1.2207	0	0	-0.197784	0.097727	-0.15998	0.101414	-0.096934	0.117187	-0.111811	0.013581	-0.0424515	0.203404	-0.0881265	0.15353	0.003359	0.111535	-0.0435175	0.039524	0.0067205	0.128049	-0.027173	0.094544	-0.130721	0.161356	-0.138023	0.148705	-0.1023	0.179617	-0.110448	0.177595	-0.0888605	0.120791	-0.032825	0.037016	
0.918366	1.21918	0	0	-0.194857	0.103559	-0.161416	0.105474	-0.0979425	0.120037	-0.110759	0.0106085	-0.0469572	0.216139	-0.0954503	0.158315	0.0081735	0.110814	-0.0457367	0.0457955	0.0102728	0.12969	-0.027173	0.094544	-0.127171	0.162997	-0.130213	0.143601	-0.0963555	0.17845	-0.112698	0.183956	-0.0876858	0.117471	-0.034762	0.04249	
0.92521	1.21765	0	0	-0.19193	0.109391	-0.162853	0.109534	-0.098951	0.122887	-0.109707	0.007636	-0.051463	0.228873	-0.102774	0.163101	0.012988	0.110093	-0.047956	0.052067	0.013825	0.131332	-0.027173	0.094544	-0.123621	0.164638	-0.122402	0.138497	-0.090411	0.177282	-0.114949	0.190317	-0.086511	0.11415	-0.036699	0.047964	
0.931426	1.21918	0	0	-0.184881	0.117713	-0.160223	0.117189	-0.0965162	0.127874	-0.112863	0.0165563	-0.0472682	0.237899	-0.105869	0.171848	0.0107548	0.116404	-0.0512875	0.0614825	0.011087	0.13907	-0.029835	0.102068	-0.126357	0.172371	-0.118935	0.145687	-0.0857123	0.179648	-0.113504	0.199164	-0.0760868	0.115	-0.0344747	0.052828	
0.936989	1.2207	0	0	-0.177833	0.126035	-0.157593	0.124843	-0.0940815	0.13286	-0.116019	0.0254765	-0.0430735	0.246924	-0.108964	0.180595	0.0085215	0.122716	-0.054619	0.070898	0.008349	0.146808	-0.032497	0.109592	-0.129093	0.180105	-0.115469	0.152876	-0.0810135	0.182013	-0.11206	0.20801	-0.0656625	0.11585	-0.0322505	0.057692	
0.941877	1.2207	0	0	-0.170785	0.134357	-0.154963	0.132497	-0.0916467	0.137847	-0.119176	0.0343968	-0.0388788	0.255949	-0.112059	0.189342	0.00628825	0.129027	-0.0579505	0.0803135	0.005611	0.154545	-0.035159	0.117115	-0.13183	0.187838	-0.112002	0.160066	-0.0763148	0.184379	-0.110615	0.216857	-0.0552383	0.1167	-0.0300263	0.062556	
0.946068	1.22833	0	0	-0.163736	0.142679	-0.152333	0.140152	-0.089212	0.142834	-0.122332	0.043317	-0.034684	0.264975	-0.115154	0.198089	0.004055	0.135338	-0.061282	0.089729	0.002873	0.162283	-0.037821	0.124639	-0.134566	0.195571	-0.108536	0.167256	-0.071616	0.186745	-0.10917	0.225704	-0.044814	0.11755	-0.027802	0.06742	
0.949539	1.23443	0	0	-0.155486	0.147648	-0.146822	0.139678	-0.0882025	0.139981	-0.116208	0.037029	-0.034684	0.264975	-0.113606	0.193714	0.00293775	0.138495	-0.0623932	0.0928698	0.00825275	0.158768	-0.037821	0.124639	-0.134566	0.195571	-0.113452	0.164164	-0.0763148	0.184379	-0.10579	0.216151	-0.0482657	0.112144	-0.0300263	0.062556	
0.952268	1.24054	0	0	-0.147235	0.152616	-0.141312	0.139205	-0.087193	0.137128	-0.110085	0.030741	-0.034684	0.264975	-0.112059	0.18934	0.0018205	0.141653	-0.0635045	0.0960105	0.0136325	0.155253	-0.037821	0.124639	-0.134566	0.195571	-0.118369	0.161071	-0.0810135	0.182013	-0.10241	0.206597	-0.0517175	0.106739	-0.0322505	0.057692	
0.954273	1.24359	0	0	-0.138985	0.157585	-0.135801	0.138732	-0.0861835	0.134275	-0.103961	0.024453	-0.034684	0.264975	-0.110511	0.184966	0.00070325	0.144811	-0.0646157	0.0991512	0.0190123	0.151737	-0.037821	0.124639	-0.134566	0.195571	-0.123285	0.157979	-0.0857123	0.179648	-0.0990292	0.197044	-0.0551693	0.101333	-0.0344747	0.052828	
0.955688	1.24969	0	0	-0.130735	0.162554	-0.130291	0.138258	-0.085174	0.131422	-0.097838	0.018165	-0.034684	0.264975	-0.108963	0.180591	-0.000414	0.147968	-0.065727	0.102292	0.024392	0.148222	-0.037821	0.124639	-0.134566	0.195571	-0.128201	0.154887	-0.090411	0.177282	-0.095649	0.187491	-0.058621	0.095927	-0.036699	0.047964	
0.956671	1.25427	0	0	-0.124862	0.174286	-0.134613	0.150472	-0.0882032	0.139983	-0.100996	0.0270913	-0.0373952	0.272638	-0.11206	0.189342	-0.0015315	0.151126	-0.0624645	0.104992	0.0216518	0.155967	-0.0404855	0.132169	-0.131015	0.197217	-0.123285	0.157979	-0.084461	0.176112	-0.0967753	0.190674	-0.052818	0.094688	-0.0376677	0.0507022	
0.957377	1.25885	0	0	-0.11899	0.186017	-0.138935	0.162687	-0.0912325	0.148545	-0.104155	0.0360175	-0.0401065	0.2803	-0.115156	0.198094	-0.002649	0.154285	-0.059202	0.107691	0.0189115	0.163711	-0.04315	0.139699	-0.127464	0.198863	-0.118369	0.161071	-0.078511	0.174941	-0.0979015	0.193858	-0.047015	0.093449	-0.0386365	0.0534405	
0.957962	1.26648	0	0	-0.113117	0.197748	-0.143257	0.174901	-0.0942618	0.157106	-0.107314	0.0449438	-0.0428178	0.287963	-0.118252	0.206845	-0.0037665	0.157443	-0.0559395	0.110391	0.0161712	0.171455	-0.0458145	0.147229	-0.123914	0.20051	-0.113452	0.164164	-0.072561	0.17377	-0.0990277	0.197041	-0.041212	0.09221	-0.0396053	0.0561787	
0.958582	1.26953	0	0	-0.107245	0.20948	-0.147579	0.187115	-0.097291	0.165667	-0.110472	0.05387	-0.045529	0.295625	-0.121349	0.215596	-0.004884	0.160602	-0.052677	0.113091	0.013431	0.1792	-0.048479	0.154759	-0.120363	0.202156	-0.108536	0.167256	-0.066611	0.1726	-0.100154	0.200224	-0.035409	0.090971	-0.040574	0.058917	
0.959394	1.27716	0	0	-0.100719	0.205215	-0.144697	0.178971	-0.0942618	0.157106	-0.111333	0.045284	-0.0524282	0.294242	-0.118252	0.206845	-0.0037665	0.157443	-0.0559395	0.110391	0.015258	0.174036	-0.0458145	0.147229	-0.118537	0.196997	-0.113452	0.164164	-0.072561	0.17377	-0.103853	0.197747	-0.0458358	0.0901285	-0.0437652	0.0567925	
0.960547	1.28021	0	0	-0.0941925	0.200951	-0.141815	0.170826	-0.0912325	0.148545	-0.112193	0.036698	-0.0593275	0.29286	-0.115156	0.198094	-0.002649	0.154285	-0.059202	0.107691	0.017085	0.168872	-0.04315	0.139699	-0.116712	0.191837	-0.118369	0.161071	-0.078511	0.174941	-0.107551	0.195271	-0.0562625	0.089286	-0.0469565	0.054668	
0.961985	1.28174	0	0	-0.0876663	0.196687	-0.138933	0.162682	-0.0882032	0.139983	-0.113054	0.028112	-0.0662268	0.291477	-0.11206	0.189342	-0.0015315	0.151126	-0.0624645	0.104992	0.018912	0.163709	-0.0404855	0.132169	-0.114887	0.186678	-0.123285	0.157979	-0.084461	0.176112	-0.11125	0.192794	-0.0666893	0.0884435	-0.0501477	0.0525435	
0.963403	1.28784	0	0	-0.08114	0.192422	-0.136051	0.154537	-0.085174	0.131422	-0.113914	0.019526	-0.073126	0.290094	-0.108963	0.180591	-0.000414	0.147968	-0.065727	0.102292	0.020739	0.158545	-0.037821	0.124639	-0.113061	0.181519	-0.128201	0.154887	-0.090411	0.177282	-0.114949	0.190317	-0.077116	0.087601	-0.053339	0.050419	
0.964483	1.28937	0	0	-0.0876663	0.196687	-0.140122	0.150941	-0.085174	0.131422	-0.118982	0.0228375	-0.0722228	0.287541	-0.108963	0.180591	0.00070325	0.144811	-0.0646157	0.0991512	0.020739	0.158545	-0.037821	0.124639	-0.112149	0.178941	-0.126751	0.150789	-0.0891608	0.173749	-0.114949	0.190317	-0.082909	0.0888363	-0.0462742	0.0415958	
0.964908	1.29089	0	0	-0.0941925	0.200951	-0.144192	0.147344	-0.085174	0.131422	-0.12405	0.026149	-0.0713195	0.284988	-0.108963	0.180591	0.0018205	0.141653	-0.0635045	0.0960105	0.020739	0.158545	-0.037821	0.124639	-0.111236	0.176363	-0.125302	0.146692	-0.0879105	0.170215	-0.114949	0.190317	-0.088702	0.0900715	-0.0392095	0.0327725	
0.964358	1.30005	0	0	-0.100719	0.205215	-0.148262	0.143748	-0.085174	0.131422	-0.129118	0.0294605	-0.0704162	0.282436	-0.108963	0.180591	0.00293775	0.138495	-0.0623932	0.0928698	0.020739	0.158545	-0.037821	0.124639	-0.110324	0.173784	-0.123852	0.142595	-0.0866602	0.166681	-0.114949	0.190317	-0.094495	0.0913067	-0.0321447	0.0239492	
0.962517	1.30463	0	0	-0.107245	0.20948	-0.152333	0.140152	-0.085174	0.131422	-0.134186	0.032772	-0.069513	0.279883	-0.108963	0.180591	0.004055	0.135338	-0.061282	0.089729	0.020739	0.158545	-0.037821	0.124639	-0.109412	0.171206	-0.122402	0.138497	-0.08541	0.163148	-0.114949	0.190317	-0.100288	0.092542	-0.02508	0.015126	
0.959065	1.3092	0	0	-0.101273	0.192601	-0.15209	0.124379	-0.0855937	0.120741	-0.132945	0.018262	-0.077593	0.271441	-0.111642	0.172262	0.00258925	0.126595	-0.0634332	0.0838963	0.0190105	0.151742	-0.0474357	0.122247	-0.115603	0.165348	-0.125867	0.13132	-0.091355	0.164317	-0.123463	0.188547	-0.099115	0.0892265	-0.033399	0.0163575	
0.953761	1.31073	0	0	-0.0953005	0.175722	-0.151848	0.108605	-0.0860135	0.11006	-0.131705	0.003752	-0.085673	0.262999	-0.11432	0.163932	0.0011235	0.117851	-0.0655845	0.0780635	0.017282	0.144938	-0.0570505	0.119855	-0.121794	0.15949	-0.129332	0.124142	-0.0973	0.165486	-0.131977	0.186776	-0.097942	0.085911	-0.041718	0.017589	
0.946997	1.30768	0	0	-0.0893282	0.158843	-0.151606	0.0928323	-0.0864333	0.0993783	-0.130465	-0.010758	-0.093753	0.254556	-0.116999	0.155603	-0.00034225	0.109108	-0.0677358	0.0722307	0.0155535	0.138135	-0.0666653	0.117463	-0.127986	0.153633	-0.132798	0.116964	-0.103245	0.166656	-0.140492	0.185005	-0.096769	0.0825955	-0.050037	0.0188205	
0.939473	1.31073	0	0	-0.083356	0.141964	-0.151363	0.077059	-0.086853	0.088697	-0.129224	-0.025268	-0.101833	0.246114	-0.119677	0.147274	-0.001808	0.100365	-0.069887	0.066398	0.013825	0.131332	-0.07628	0.115071	-0.134177	0.147775	-0.136263	0.109787	-0.10919	0.167825	-0.149006	0.183235	-0.095596	0.07928	-0.058356	0.020052	
0.93189	1.31073	0	0	-0.0809702	0.135221	-0.155431	0.0734815	-0.08929	0.0837245	-0.133237	-0.024927	-0.107813	0.242193	-0.123899	0.143321	-0.0114265	0.101805	-0.0775143	0.0641508	0.0102728	0.12969	-0.0749502	0.111313	-0.132356	0.142628	-0.134816	0.105697	-0.112632	0.161935	-0.151573	0.177586	-0.104824	0.075123	-0.0615445	0.0179335	
0.924952	1.31073	0	0	-0.0785845	0.128479	-0.1595	0.069904	-0.091727	0.078752	-0.137249	-0.024586	-0.113794	0.238272	-0.128121	0.139369	-0.021045	0.103244	-0.0851415	0.0619035	0.0067205	0.128049	-0.0736205	0.107555	-0.130534	0.137481	-0.133369	0.101607	-0.116075	0.156045	-0.154139	0.171937	-0.114052	0.070966	-0.064733	0.015815	
0.919362	1.31531	0	0	-0.0761988	0.121736	-0.163568	0.0663265	-0.094164	0.0737795	-0.141261	-0.024245	-0.119774	0.234351	-0.132344	0.135416	-0.0306635	0.104684	-0.0927687	0.0596563	0.00316825	0.126407	-0.0722908	0.103798	-0.128713	0.132333	-0.131921	0.097517	-0.119517	0.150154	-0.156706	0.166288	-0.123279	0.066809	-0.0679215	0.0136965	
0.915821	1.31378	0	0	-0.073813	0.114994	-0.167636	0.062749	-0.096601	0.068807	-0.145274	-0.023904	-0.125754	0.23043	-0.136566	0.131464	-0.040282	0.106124	-0.100396	0.057409	-0.000384	0.124765	-0.070961	0.10004	-0.126892	0.127186	-0.130474	0.093427	-0.12296	0.144264	-0.159273	0.160639	-0.132507	0.062652	-0.07111	0.011578	
0.915012	1.31378	0	0	-0.0797043	0.103316	-0.172901	0.0475155	-0.095017	0.0524782	-0.147004	-0.040991	-0.128133	0.216354	-0.139243	0.123159	-0.0406318	0.0942542	-0.105798	0.0489043	-0.00657125	0.118911	-0.0737707	0.093216	-0.133988	0.123915	-0.141737	0.0913617	-0.120465	0.137213	-0.160718	0.151827	-0.135945	0.0572682	-0.0723653	0.00400225	
0.917018	1.31073	0	0	-0.0855955	0.091638	-0.178167	0.032282	-0.093433	0.0361495	-0.148734	-0.058078	-0.130512	0.202277	-0.141921	0.114853	-0.0409815	0.0823845	-0.111201	0.0403995	-0.0127585	0.113056	-0.0765805	0.086392	-0.141084	0.120644	-0.153	0.0892965	-0.11797	0.130161	-0.162162	0.143014	-0.139383	0.0518845	-0.0736205	-0.0035735	
0.921237	1.31073	0	0	-0.0914868	0.07996	-0.183432	0.0170485	-0.091849	0.0198207	-0.150465	-0.075165	-0.13289	0.188201	-0.144598	0.106547	-0.0413312	0.0705148	-0.116603	0.0318947	-0.0189458	0.107202	-0.0793902	0.079568	-0.14818	0.117374	-0.164262	0.0872313	-0.115474	0.123109	-0.163606	0.134202	-0.142821	0.0465008	-0.0748758	-0.0111492	
0.927028	1.31225	0	0	-0.097378	0.068282	-0.188697	0.001815	-0.090265	0.003492	-0.152195	-0.092252	-0.135269	0.174125	-0.147275	0.098242	-0.041681	0.058645	-0.122005	0.02339	-0.025133	0.101347	-0.0822	0.072744	-0.155276	0.114103	-0.175525	0.085166	-0.112979	0.116058	-0.165051	0.12539	-0.146259	0.041117	-0.076131	-0.018725	
0.933752	1.31073	0	0	-0.104453	0.059992	-0.196818	-0.00529975	-0.0961463	-0.00356825	-0.153064	-0.100775	-0.143327	0.165742	-0.148414	0.0856027	-0.0431475	0.04994	-0.123046	0.0144578	-0.0268597	0.0945675	-0.0863357	0.0696792	-0.157004	0.107333	-0.172636	0.0770028	-0.121109	0.107837	-0.171304	0.1173	-0.148527	0.0324388	-0.081537	-0.025673	
0.940768	1.31073	0	0	-0.111528	0.051702	-0.204939	-0.0124145	-0.102027	-0.0106285	-0.153933	-0.109298	-0.151385	0.157359	-0.149553	0.0729635	-0.044614	0.041235	-0.124088	0.0055255	-0.0285865	0.087788	-0.0904715	0.0666145	-0.158731	0.100564	-0.169748	0.0688395	-0.12924	0.099615	-0.177557	0.109211	-0.150794	0.0237605	-0.086943	-0.032621	
0.947435	1.30768	0	0	-0.118603	0.043412	-0.21306	-0.0195293	-0.107909	-0.0176887	-0.154802	-0.117821	-0.159442	0.148977	-0.150692	0.0603242	-0.0460805	0.03253	-0.125129	-0.00340675	-0.0303132	0.0810085	-0.0946073	0.0635498	-0.160459	0.0937938	-0.166859	0.0606763	-0.13737	0.0913935	-0.18381	0.101121	-0.153062	0.0150822	-0.092349	-0.039569	
0.953114	1.31073	0	0	-0.125678	0.035122	-0.221181	-0.026644	-0.11379	-0.024749	-0.155671	-0.126344	-0.1675	0.140594	-0.151831	0.047685	-0.047547	0.023825	-0.12617	-0.012339	-0.03204	0.074229	-0.098743	0.060485	-0.162187	0.087024	-0.163971	0.052513	-0.1455	0.083172	-0.190063	0.093031	-0.15533	0.006404	-0.097755	-0.046517	
0.957257	1.30768	0	0	-0.125063	0.0192562	-0.22644	-0.041797	-0.115663	-0.0431075	-0.163503	-0.137106	-0.175546	0.132231	-0.160262	0.0398365	-0.0549217	0.018994	-0.131569	-0.0208083	-0.039127	0.0709613	-0.102875	0.057423	-0.164822	0.0828283	-0.170318	0.053524	-0.144256	0.0796552	-0.187824	0.086704	-0.152995	-0.00019675	-0.101901	-0.045902	
0.959974	1.30463	0	0	-0.124448	0.0033905	-0.2317	-0.05695	-0.117536	-0.061466	-0.171336	-0.147868	-0.183593	0.123868	-0.168693	0.031988	-0.0622965	0.014163	-0.136968	-0.0292775	-0.046214	0.0676935	-0.107008	0.054361	-0.167458	0.0786325	-0.176664	0.054535	-0.143012	0.0761385	-0.185586	0.080377	-0.150659	-0.0067975	-0.106047	-0.045287	
0.961654	1.30615	0	0	-0.123832	-0.0124753	-0.236959	-0.072103	-0.119408	-0.0798245	-0.179169	-0.15863	-0.19164	0.115505	-0.177125	0.0241395	-0.0696713	0.009332	-0.142366	-0.0377468	-0.053301	0.0644258	-0.111141	0.051299	-0.170094	0.0744367	-0.18301	0.055546	-0.141767	0.0726217	-0.183347	0.07405	-0.148323	-0.0133983	-0.110194	-0.044672	
0.96269	1.30463	0	0	-0.123217	-0.028341	-0.242219	-0.087256	-0.121281	-0.098183	-0.187001	-0.169392	-0.199686	0.107142	-0.185556	0.016291	-0.077046	0.004501	-0.147765	-0.046216	-0.060388	0.061158	-0.115273	0.048237	-0.172729	0.070241	-0.189357	0.056557	-0.140523	0.069105	-0.181108	0.067723	-0.145988	-0.019999	-0.11434	-0.044057	
0.963472	1.29547	0	0	-0.123795	-0.0408228	-0.243427	-0.0988317	-0.121723	-0.108749	-0.182832	-0.181174	-0.20296	0.0956875	-0.189767	0.0123732	-0.0785128	-0.00417675	-0.147708	-0.058229	-0.060299	0.0492693	-0.116755	0.0376952	-0.175364	0.0660498	-0.192814	0.049417	-0.141479	0.056228	-0.189923	0.054061	-0.152863	-0.0307075	-0.111747	-0.0624818	
0.964392	1.30005	0	0	-0.124373	-0.0533045	-0.244636	-0.110408	-0.122165	-0.119316	-0.178664	-0.192956	-0.206234	0.084233	-0.193977	0.0084555	-0.0799795	-0.0128545	-0.147651	-0.070242	-0.06021	0.0373805	-0.118237	0.0271535	-0.177999	0.0618585	-0.196271	0.042277	-0.142435	0.043351	-0.198738	0.040399	-0.159738	-0.041416	-0.109154	-0.0809065	
0.965841	1.30005	0	0	-0.124951	-0.0657863	-0.245844	-0.121983	-0.122606	-0.129883	-0.174495	-0.204737	-0.209507	0.0727785	-0.198188	0.00453775	-0.0814462	-0.0215323	-0.147594	-0.082255	-0.060121	0.0254918	-0.119719	0.0166118	-0.180633	0.0576673	-0.199727	0.035137	-0.143392	0.030474	-0.207554	0.026737	-0.166613	-0.0521245	-0.106561	-0.0993312	
0.96821	1.29394	0	0	-0.125529	-0.078268	-0.247052	-0.133559	-0.123048	-0.140449	-0.170326	-0.216519	-0.212781	0.061324	-0.202399	0.00062	-0.082913	-0.03021	-0.147537	-0.094268	-0.060032	0.013603	-0.121201	0.00607	-0.183268	0.053476	-0.203184	0.027997	-0.144348	0.017597	-0.216369	0.013075	-0.173488	-0.062833	-0.103968	-0.117756	
0.971747	1.29242	0	0	-0.13142	-0.0898188	-0.246846	-0.149119	-0.126932	-0.153079	-0.175202	-0.224638	-0.221703	0.055524	-0.205074	-0.00762325	-0.0891695	-0.038148	-0.154034	-0.0995885	-0.0626655	0.009416	-0.13342	0.01118	-0.185902	0.0492892	-0.209519	0.0290063	-0.150271	0.01877	-0.214138	0.00677025	-0.172324	-0.0661242	-0.10715	-0.119853	
0.976239	1.29242	0	0	-0.137311	-0.10137	-0.24664	-0.164679	-0.130816	-0.16571	-0.180078	-0.232758	-0.230626	0.049724	-0.20775	-0.0158665	-0.095426	-0.046086	-0.160531	-0.104909	-0.065299	0.005229	-0.14564	0.01629	-0.188535	0.0451025	-0.215854	0.0300155	-0.156195	0.019943	-0.211907	0.0004655	-0.171159	-0.0694155	-0.110332	-0.12195	
0.981379	1.29089	0	0	-0.143201	-0.11292	-0.246435	-0.180238	-0.134699	-0.178341	-0.184953	-0.240877	-0.239548	0.043924	-0.210426	-0.0241098	-0.101682	-0.054024	-0.167027	-0.11023	-0.0679325	0.001042	-0.15786	0.0214	-0.191169	0.0409158	-0.222188	0.0310248	-0.162118	0.021116	-0.209677	-0.00583925	-0.169994	-0.0727068	-0.113514	-0.124047	
0.986861	1.28784	0	0	-0.149092	-0.124471	-0.246229	-0.195798	-0.138583	-0.190971	-0.189829	-0.248996	-0.248471	0.038124	-0.213101	-0.032353	-0.107939	-0.061962	-0.173524	-0.11555	-0.070566	-0.003145	-0.170079	0.02651	-0.193803	0.036729	-0.228523	0.032034	-0.168041	0.022289	-0.207446	-0.012144	-0.16883	-0.075998	-0.116696	-0.126144	
0.992379	1.28631	0	0	-0.146733	-0.131138	-0.241977	-0.207815	-0.135596	-0.199413	-0.186711	-0.257808	-0.248771	0.0286427	-0.218838	-0.0319318	-0.105728	-0.0682118	-0.170226	-0.12487	-0.076735	-0.008949	-0.166113	0.0153022	-0.196436	0.0325465	-0.225644	0.0238968	-0.169	0.0094455	-0.211466	-0.0264547	-0.168779	-0.0911933	-0.119219	-0.141176	
0.997625	1.28784	0	0	-0.144374	-0.137805	-0.237725	-0.219832	-0.132609	-0.207855	-0.183593	-0.26662	-0.24907	0.0191615	-0.224574	-0.0315105	-0.103516	-0.0744615	-0.166928	-0.134191	-0.082904	-0.014753	-0.162147	0.0040945	-0.199068	0.028364	-0.222765	0.0157595	-0.169959	-0.003398	-0.215486	-0.0407655	-0.168728	-0.106388	-0.121741	-0.156207	
1.00229	1.28784	0	0	-0.142015	-0.144472	-0.233473	-0.231849	-0.129621	-0.216298	-0.180476	-0.275431	-0.249369	0.00968025	-0.230311	-0.0310892	-0.101305	-0.0807112	-0.16363	-0.143511	-0.089073	-0.020557	-0.158182	-0.00711325	-0.201701	0.0241815	-0.219885	0.00762225	-0.170918	-0.0162415	-0.219507	-0.0550763	-0.168677	-0.121584	-0.124263	-0.171239	
1.00608	1.28326	0	0	-0.139656	-0.151139	-0.229221	-0.243866	-0.126634	-0.22474	-0.177358	-0.284243	-0.249669	0.000199	-0.236047	-0.030668	-0.099094	-0.086961	-0.160332	-0.152832	-0.095242	-0.026361	-0.154216	-0.018321	-0.204334	0.019999	-0.217006	-0.000515	-0.171877	-0.029085	-0.223527	-0.069387	-0.168626	-0.136779	-0.126786	-0.186271	
1.00877	1.28021	0	0	-0.143781	-0.153566	-0.233278	-0.247367	-0.128083	-0.232438	-0.184311	-0.286467	-0.25264	-0.001727	-0.232987	-0.0393175	-0.102774	-0.0893575	-0.16358	-0.155483	-0.0934332	-0.031473	-0.152895	-0.0220535	-0.204334	0.019999	-0.223336	0.00049525	-0.171877	-0.029085	-0.222415	-0.0725298	-0.169788	-0.133495	-0.129965	-0.188358	
1.01056	1.27869	0	0	-0.147905	-0.155992	-0.237335	-0.250868	-0.129531	-0.240136	-0.191263	-0.288692	-0.255611	-0.003653	-0.229926	-0.047967	-0.106454	-0.091754	-0.166828	-0.158133	-0.0916245	-0.036585	-0.151575	-0.025786	-0.204334	0.019999	-0.229666	0.0015055	-0.171877	-0.029085	-0.221303	-0.0756725	-0.17095	-0.130211	-0.133143	-0.190444	
1.01169	1.27869	0	0	-0.15203	-0.158419	-0.241391	-0.25437	-0.13098	-0.247833	-0.198216	-0.290917	-0.258581	-0.005579	-0.226865	-0.0566165	-0.110133	-0.0941505	-0.170076	-0.160784	-0.0898157	-0.041697	-0.150254	-0.0295185	-0.204334	0.019999	-0.235995	0.00251575	-0.171877	-0.029085	-0.220191	-0.0788153	-0.172112	-0.126927	-0.136322	-0.19253	
1.01243	1.27869	0	0	-0.156155	-0.160846	-0.245448	-0.257871	-0.132429	-0.255531	-0.205169	-0.293141	-0.261552	-0.007505	-0.223805	-0.065266	-0.113813	-0.096547	-0.173324	-0.163435	-0.088007	-0.046809	-0.148933	-0.033251	-0.204334	0.019999	-0.242325	0.003526	-0.171877	-0.029085	-0.219079	-0.081958	-0.173274	-0.123643	-0.139501	-0.194617	
1.01304	1.27563	0	0	-0.157333	-0.157515	-0.252331	-0.253374	-0.132429	-0.255531	-0.201174	-0.293496	-0.258884	-0.0150445	-0.222276	-0.0695875	-0.111605	-0.102788	-0.172226	-0.166538	-0.0861993	-0.051918	-0.153057	-0.0362927	-0.20162	0.012328	-0.23945	-0.0046	-0.175316	-0.0349078	-0.219426	-0.0937998	-0.182467	-0.127729	-0.133759	-0.210845	
1.01379	1.27258	0	0	-0.158512	-0.154185	-0.259213	-0.248877	-0.132429	-0.255531	-0.19718	-0.293851	-0.256217	-0.022584	-0.220747	-0.073909	-0.109397	-0.109029	-0.171129	-0.16964	-0.0843915	-0.057027	-0.15718	-0.0393345	-0.198906	0.004657	-0.236575	-0.012726	-0.178754	-0.0407305	-0.219774	-0.105641	-0.191659	-0.131816	-0.128017	-0.227072	
1.01494	1.27411	0	0	-0.159691	-0.150855	-0.266096	-0.244379	-0.132429	-0.255531	-0.193186	-0.294206	-0.253549	-0.0301235	-0.219217	-0.0782305	-0.107188	-0.11527	-0.170031	-0.172742	-0.0825837	-0.062136	-0.161303	-0.0423763	-0.196191	-0.003014	-0.233699	-0.020852	-0.182192	-0.0465532	-0.220121	-0.117483	-0.200852	-0.135903	-0.122275	-0.2433	
1.01674	1.27258	0	0	-0.160869	-0.147524	-0.272979	-0.239882	-0.132429	-0.255531	-0.189191	-0.294561	-0.250881	-0.037663	-0.217688	-0.082552	-0.10498	-0.121511	-0.168933	-0.175845	-0.080776	-0.067245	-0.165427	-0.045418	-0.193477	-0.010685	-0.230824	-0.028978	-0.185631	-0.052376	-0.220468	-0.129325	-0.210044	-0.139989	-0.116533	-0.259527	
1.01941	1.268	0	0	-0.159691	-0.150855	-0.268737	-0.251872	-0.134872	-0.260411	-0.186078	-0.303358	-0.25474	-0.0370723	-0.217688	-0.082552	-0.103877	-0.12463	-0.168933	-0.175845	-0.0852152	-0.0663072	-0.165427	-0.045418	-0.193477	-0.010685	-0.229387	-0.0330382	-0.185631	-0.052376	-0.225256	-0.128607	-0.197367	-0.145751	-0.124802	-0.258277	
1.02274	1.27258	0	0	-0.158512	-0.154185	-0.264494	-0.263862	-0.137315	-0.26529	-0.182966	-0.312155	-0.258599	-0.0364815	-0.217688	-0.082552	-0.102773	-0.127748	-0.168933	-0.175845	-0.0896545	-0.0653695	-0.165427	-0.045418	-0.193477	-0.010685	-0.227951	-0.0370985	-0.185631	-0.052376	-0.230044	-0.12789	-0.18469	-0.151512	-0.133072	-0.257027	
1.02644	1.268	0	0	-0.157333	-0.157515	-0.260251	-0.275852	-0.139759	-0.27017	-0.179853	-0.320952	-0.262459	-0.0358907	-0.217688	-0.082552	-0.101669	-0.130867	-0.168933	-0.175845	-0.0940938	-0.0644317	-0.165427	-0.045418	-0.193477	-0.010685	-0.226514	-0.0411588	-0.185631	-0.052376	-0.234832	-0.127173	-0.172013	-0.157274	-0.141342	-0.255778	
1.03017	1.26953	0	0	-0.156155	-0.160846	-0.256009	-0.287842	-0.142202	-0.27505	-0.17674	-0.329749	-0.266318	-0.0353	-0.217688	-0.082552	-0.100566	-0.133986	-0.168933	-0.175845	-0.098533	-0.063494	-0.165427	-0.045418	-0.193477	-0.010685	-0.225077	-0.045219	-0.185631	-0.052376	-0.23962	-0.126455	-0.159336	-0.163036	-0.149611	-0.254528	
1.03362	1.27106	0	0	-0.158512	-0.154184	-0.257422	-0.283847	-0.143195	-0.272243	-0.177777	-0.326818	-0.260682	-0.0409135	-0.21616	-0.0868717	-0.101669	-0.130867	-0.170031	-0.172742	-0.092287	-0.0695377	-0.164108	-0.049146	-0.192573	-0.0132407	-0.222206	-0.053334	-0.181921	-0.06286	-0.239971	-0.138269	-0.169693	-0.163831	-0.149923	-0.264697	
1.03648	1.268	0	0	-0.160869	-0.147522	-0.258836	-0.279852	-0.144188	-0.269436	-0.178814	-0.323886	-0.255045	-0.046527	-0.214632	-0.0911915	-0.102773	-0.127748	-0.171129	-0.16964	-0.086041	-0.0755815	-0.162789	-0.052874	-0.191669	-0.0157965	-0.219334	-0.061449	-0.178212	-0.073344	-0.240322	-0.150083	-0.18005	-0.164627	-0.150234	-0.274866	
1.03842	1.26495	0	0	-0.163227	-0.14086	-0.260249	-0.275857	-0.145182	-0.266629	-0.179852	-0.320955	-0.249408	-0.0521405	-0.213103	-0.0955113	-0.103877	-0.12463	-0.172226	-0.166538	-0.079795	-0.0816252	-0.161469	-0.056602	-0.190764	-0.0183523	-0.216463	-0.069564	-0.174503	-0.083828	-0.240673	-0.161896	-0.190406	-0.165422	-0.150546	-0.285035	
1.03914	1.26953	0	0	-0.165584	-0.134198	-0.261663	-0.271862	-0.146175	-0.263822	-0.180889	-0.318024	-0.243772	-0.057754	-0.211575	-0.099831	-0.10498	-0.121511	-0.173324	-0.163435	-0.073549	-0.087669	-0.16015	-0.06033	-0.18986	-0.020908	-0.213592	-0.077679	-0.170793	-0.094312	-0.241024	-0.17371	-0.200763	-0.166217	-0.150858	-0.295204	
1.03834	1.26648	0	0	-0.164405	-0.137529	-0.267127	-0.271363	-0.148617	-0.268699	-0.18281	-0.323527	-0.243772	-0.057754	-0.213103	-0.0955113	-0.106084	-0.118391	-0.16788	-0.166992	-0.0744522	-0.0851163	-0.161469	-0.056602	-0.18986	-0.020908	-0.221353	-0.0726075	-0.172029	-0.0908185	-0.239916	-0.17684	-0.201923	-0.162939	-0.154033	-0.297274	
1.03607	1.26648	0	0	-0.163226	-0.140861	-0.27259	-0.270865	-0.151058	-0.273575	-0.184732	-0.32903	-0.243772	-0.057754	-0.214632	-0.0911915	-0.107188	-0.115271	-0.162435	-0.17055	-0.0753555	-0.0825635	-0.162789	-0.052874	-0.18986	-0.020908	-0.229114	-0.067536	-0.173265	-0.087325	-0.238809	-0.17997	-0.203082	-0.159662	-0.157209	-0.299343	
1.03266	1.26495	0	0	-0.162048	-0.144193	-0.278054	-0.270366	-0.1535	-0.278452	-0.186653	-0.334533	-0.243772	-0.057754	-0.21616	-0.0868717	-0.108292	-0.112151	-0.15699	-0.174107	-0.0762588	-0.0800107	-0.164108	-0.049146	-0.18986	-0.020908	-0.236876	-0.0624645	-0.174501	-0.0838315	-0.237702	-0.183099	-0.204242	-0.156384	-0.160385	-0.301413	
1.02846	1.26495	0	0	-0.160869	-0.147524	-0.283518	-0.269867	-0.155942	-0.283328	-0.188575	-0.340036	-0.243772	-0.057754	-0.217688	-0.082552	-0.109396	-0.109031	-0.151546	-0.177665	-0.077162	-0.077458	-0.165427	-0.045418	-0.18986	-0.020908	-0.244637	-0.057393	-0.175737	-0.080338	-0.236594	-0.186229	-0.205402	-0.153106	-0.16356	-0.303483	
1.02381	1.2619	0	0	-0.160869	-0.147524	-0.276641	-0.274361	-0.155942	-0.283328	-0.184579	-0.340395	-0.239021	-0.0608583	-0.217688	-0.082552	-0.103506	-0.112879	-0.148294	-0.175017	-0.077162	-0.077458	-0.157344	-0.0535653	-0.188052	-0.026017	-0.241768	-0.0655007	-0.17203	-0.0908137	-0.239164	-0.191763	-0.208834	-0.15842	-0.159748	-0.314256	
1.01906	1.26495	0	0	-0.160869	-0.147524	-0.269763	-0.278855	-0.155942	-0.283328	-0.180584	-0.340754	-0.234271	-0.0639625	-0.217688	-0.082552	-0.0976165	-0.116728	-0.145043	-0.172368	-0.077162	-0.077458	-0.149262	-0.0617125	-0.186244	-0.031126	-0.238899	-0.0736085	-0.168324	-0.10129	-0.241733	-0.197297	-0.212266	-0.163735	-0.155937	-0.325028	
1.01455	1.26495	0	0	-0.160869	-0.147524	-0.262886	-0.283348	-0.155942	-0.283328	-0.176588	-0.341112	-0.22952	-0.0670667	-0.217688	-0.082552	-0.0917267	-0.120577	-0.141791	-0.16972	-0.077162	-0.077458	-0.141179	-0.0698597	-0.184436	-0.036235	-0.236031	-0.0817163	-0.164617	-0.111765	-0.244303	-0.202831	-0.215699	-0.169049	-0.152125	-0.335801	
1.01062	1.25885	0	0	-0.160869	-0.147524	-0.256009	-0.287842	-0.155942	-0.283328	-0.172592	-0.341471	-0.22477	-0.070171	-0.217688	-0.082552	-0.085837	-0.124425	-0.13854	-0.167072	-0.077162	-0.077458	-0.133097	-0.078007	-0.182628	-0.041344	-0.233162	-0.089824	-0.16091	-0.122241	-0.246873	-0.208365	-0.219131	-0.174364	-0.148313	-0.346574	
1.00762	1.26343	0	0	-0.158513	-0.154184	-0.253184	-0.295826	-0.15541	-0.296602	-0.167413	-0.356109	-0.223882	-0.0726813	-0.214632	-0.091189	-0.085837	-0.124425	-0.13854	-0.167072	-0.0780655	-0.0749047	-0.133097	-0.078007	-0.181725	-0.0438975	-0.239483	-0.0888083	-0.16091	-0.122241	-0.244662	-0.214614	-0.22029	-0.171088	-0.151489	-0.348636	
1.0056	1.26495	0	0	-0.156156	-0.160844	-0.250358	-0.303811	-0.154878	-0.309875	-0.162234	-0.370747	-0.222994	-0.0751915	-0.211576	-0.099826	-0.085837	-0.124425	-0.13854	-0.167072	-0.078969	-0.0723515	-0.133097	-0.078007	-0.180821	-0.046451	-0.245804	-0.0877925	-0.16091	-0.122241	-0.242451	-0.220864	-0.221449	-0.167813	-0.154664	-0.350699	
1.00438	1.2619	0	0	-0.1538	-0.167503	-0.247533	-0.311796	-0.154345	-0.323149	-0.157054	-0.385385	-0.222105	-0.0777017	-0.20852	-0.108463	-0.085837	-0.124425	-0.13854	-0.167072	-0.0798725	-0.0697983	-0.133097	-0.078007	-0.179918	-0.0490045	-0.252125	-0.0867767	-0.16091	-0.122241	-0.240239	-0.227113	-0.222608	-0.164538	-0.15784	-0.352761	
1.00376	1.2619	0	0	-0.151443	-0.174163	-0.244708	-0.31978	-0.153813	-0.336422	-0.151875	-0.400023	-0.221217	-0.080212	-0.205464	-0.1171	-0.085837	-0.124425	-0.13854	-0.167072	-0.080776	-0.067245	-0.133097	-0.078007	-0.179014	-0.051558	-0.258446	-0.085761	-0.16091	-0.122241	-0.238028	-0.233363	-0.223767	-0.161262	-0.161016	-0.354823	
1.00354	1.26037	0	0	-0.150265	-0.177491	-0.243296	-0.323769	-0.148396	-0.339962	-0.156907	-0.396735	-0.216464	-0.0833177	-0.205464	-0.1171	-0.0869415	-0.121304	-0.135287	-0.164421	-0.07543	-0.0707383	-0.126328	-0.0824298	-0.178111	-0.0541105	-0.255581	-0.0938575	-0.163121	-0.13152	-0.246481	-0.23504	-0.234096	-0.162065	-0.163239	-0.359572	
1.00351	1.2619	0	0	-0.149088	-0.180819	-0.241885	-0.327759	-0.142979	-0.343502	-0.16194	-0.393447	-0.21171	-0.0864235	-0.205464	-0.1171	-0.088046	-0.118183	-0.132033	-0.161771	-0.070084	-0.0742315	-0.119559	-0.0868525	-0.177208	-0.056663	-0.252716	-0.101954	-0.165332	-0.140799	-0.254935	-0.236717	-0.244424	-0.162867	-0.165461	-0.36432	
1.00349	1.26343	0	0	-0.147911	-0.184147	-0.240473	-0.331749	-0.137562	-0.347041	-0.166972	-0.390158	-0.206957	-0.0895293	-0.205464	-0.1171	-0.0891505	-0.115062	-0.12878	-0.15912	-0.064738	-0.0777247	-0.112791	-0.0912753	-0.176305	-0.0592155	-0.249851	-0.11005	-0.167544	-0.150078	-0.263388	-0.238395	-0.254753	-0.16367	-0.167684	-0.369069	
1.00326	1.2619	0	0	-0.146733	-0.187475	-0.239061	-0.335738	-0.132145	-0.350581	-0.172004	-0.38687	-0.202204	-0.092635	-0.205464	-0.1171	-0.090255	-0.111941	-0.125527	-0.15647	-0.059392	-0.081218	-0.106022	-0.095698	-0.175402	-0.061768	-0.246986	-0.118147	-0.169755	-0.159357	-0.271841	-0.240072	-0.265082	-0.164473	-0.169907	-0.373818	
1.00264	1.2558	0	0	-0.142027	-0.200774	-0.240298	-0.347185	-0.128185	-0.361772	-0.172896	-0.395277	-0.200428	-0.0976537	-0.203937	-0.121415	-0.0832568	-0.118913	-0.125527	-0.15647	-0.0549463	-0.0821593	-0.106022	-0.095698	-0.178942	-0.063378	-0.244124	-0.126237	-0.178129	-0.151206	-0.271841	-0.240072	-0.260499	-0.162434	-0.170858	-0.37113	
1.00162	1.26037	0	0	-0.137321	-0.214073	-0.241535	-0.358631	-0.124226	-0.372964	-0.173787	-0.403683	-0.198653	-0.102672	-0.20241	-0.125731	-0.0762585	-0.125885	-0.125527	-0.15647	-0.0505005	-0.0831005	-0.106022	-0.095698	-0.182482	-0.064988	-0.241262	-0.134326	-0.186502	-0.143055	-0.271841	-0.240072	-0.255916	-0.160395	-0.17181	-0.368442	
1.00037	1.25885	0	0	-0.132615	-0.227373	-0.242772	-0.370077	-0.120266	-0.384155	-0.174679	-0.41209	-0.196877	-0.107691	-0.200883	-0.130047	-0.0692602	-0.132857	-0.125527	-0.15647	-0.0460547	-0.0840417	-0.106022	-0.095698	-0.186023	-0.066598	-0.238399	-0.142416	-0.194876	-0.134904	-0.271841	-0.240072	-0.251334	-0.158356	-0.172761	-0.365754	
0.999089	1.25885	0	0	-0.127909	-0.240672	-0.244009	-0.381524	-0.116306	-0.395346	-0.175571	-0.420497	-0.195101	-0.11271	-0.199356	-0.134362	-0.062262	-0.139829	-0.125527	-0.15647	-0.041609	-0.084983	-0.106022	-0.095698	-0.189563	-0.068208	-0.235537	-0.150505	-0.20325	-0.126753	-0.271841	-0.240072	-0.246751	-0.156317	-0.173712	-0.363066	
0.997963	1.26037	0	0	-0.129085	-0.237349	-0.245418	-0.377542	-0.116306	-0.395346	-0.166543	-0.42415	-0.191233	-0.113309	-0.193615	-0.134796	-0.0633665	-0.136708	-0.121172	-0.156926	-0.041609	-0.084983	-0.0992483	-0.100124	-0.182412	-0.0768015	-0.234107	-0.154547	-0.206687	-0.132542	-0.267427	-0.252545	-0.252492	-0.155083	-0.179104	-0.369868	
0.997183	1.25885	0	0	-0.130261	-0.234026	-0.246828	-0.373559	-0.116306	-0.395346	-0.157516	-0.427802	-0.187364	-0.113907	-0.187874	-0.135229	-0.064471	-0.133587	-0.116816	-0.157383	-0.041609	-0.084983	-0.0924745	-0.104551	-0.175262	-0.085395	-0.232677	-0.158588	-0.210123	-0.138331	-0.263014	-0.265018	-0.258232	-0.153849	-0.184497	-0.376671	
0.996939	1.2558	0	0	-0.131437	-0.230703	-0.248237	-0.369577	-0.116306	-0.395346	-0.148488	-0.431455	-0.183496	-0.114505	-0.182133	-0.135662	-0.0655755	-0.130467	-0.112461	-0.157839	-0.041609	-0.084983	-0.0857007	-0.108977	-0.168111	-0.0939885	-0.231246	-0.16263	-0.21356	-0.14412	-0.258601	-0.27749	-0.263973	-0.152615	-0.189889	-0.383474	
0.997422	1.25885	0	0	-0.132613	-0.22738	-0.249646	-0.365595	-0.116306	-0.395346	-0.13946	-0.435108	-0.179628	-0.115104	-0.176392	-0.136096	-0.06668	-0.127346	-0.108106	-0.158296	-0.041609	-0.084983	-0.078927	-0.113403	-0.16096	-0.102582	-0.229816	-0.166672	-0.216997	-0.149909	-0.254187	-0.289963	-0.269714	-0.151381	-0.195281	-0.390276	
0.998808	1.2558	0	0	-0.135564	-0.233113	-0.252292	-0.373047	-0.11678	-0.405775	-0.146421	-0.437296	-0.176965	-0.122629	-0.182133	-0.135662	-0.0655755	-0.130467	-0.107006	-0.161404	-0.042513	-0.082428	-0.078927	-0.113403	-0.165404	-0.101638	-0.236134	-0.16565	-0.215765	-0.15339	-0.260065	-0.286123	-0.270873	-0.148107	-0.197181	-0.384906	
1.001	1.2558	0	0	-0.138515	-0.238847	-0.254938	-0.380498	-0.117254	-0.416205	-0.153382	-0.439485	-0.174303	-0.130154	-0.187874	-0.135229	-0.064471	-0.133587	-0.105907	-0.164511	-0.043417	-0.079873	-0.078927	-0.113403	-0.169849	-0.100694	-0.242452	-0.164627	-0.214533	-0.156871	-0.265942	-0.282282	-0.272031	-0.144832	-0.199082	-0.379536	
1.00362	1.25427	0	0	-0.141466	-0.24458	-0.257584	-0.38795	-0.117728	-0.426635	-0.160343	-0.441673	-0.171641	-0.137678	-0.193615	-0.134796	-0.0633665	-0.136708	-0.104807	-0.167619	-0.044321	-0.077318	-0.078927	-0.113403	-0.174293	-0.0997493	-0.24877	-0.163605	-0.213302	-0.160353	-0.27182	-0.278442	-0.27319	-0.141558	-0.200982	-0.374166	
1.00628	1.25427	0	0	-0.144417	-0.250313	-0.26023	-0.395402	-0.118202	-0.437064	-0.167304	-0.443861	-0.168978	-0.145203	-0.199356	-0.134362	-0.062262	-0.139829	-0.103708	-0.170727	-0.045225	-0.074763	-0.078927	-0.113403	-0.178737	-0.098805	-0.255088	-0.162583	-0.21207	-0.163834	-0.277698	-0.274601	-0.274349	-0.138284	-0.202882	-0.368796	
1.00858	1.2558	0	0	-0.145592	-0.246992	-0.256175	-0.391932	-0.11919	-0.434272	-0.159309	-0.444595	-0.168978	-0.145203	-0.193615	-0.134796	-0.0563642	-0.143683	-0.104807	-0.167619	-0.0407765	-0.075705	-0.078927	-0.113403	-0.177835	-0.101353	-0.253659	-0.166621	-0.210839	-0.167314	-0.275494	-0.280831	-0.275508	-0.135008	-0.200982	-0.374166	
1.01014	1.25275	0	0	-0.146766	-0.243671	-0.252119	-0.388463	-0.120178	-0.43148	-0.151315	-0.445328	-0.168978	-0.145203	-0.187874	-0.135229	-0.0504665	-0.147537	-0.105907	-0.164511	-0.036328	-0.076647	-0.078927	-0.113403	-0.176934	-0.103902	-0.25223	-0.17066	-0.209608	-0.170793	-0.273289	-0.287061	-0.276667	-0.131733	-0.199082	-0.379536	
1.01056	1.25275	0	0	-0.147941	-0.240351	-0.248064	-0.384993	-0.121166	-0.428688	-0.14332	-0.446061	-0.168978	-0.145203	-0.182133	-0.135662	-0.0445687	-0.15139	-0.107006	-0.161404	-0.0318795	-0.077589	-0.078927	-0.113403	-0.176032	-0.106451	-0.250801	-0.174698	-0.208376	-0.174272	-0.271085	-0.293291	-0.277826	-0.128458	-0.197181	-0.384906	
1.00946	1.25275	0	0	-0.149116	-0.23703	-0.244009	-0.381524	-0.122154	-0.425896	-0.135325	-0.446795	-0.168978	-0.145203	-0.176392	-0.136096	-0.038671	-0.155244	-0.108106	-0.158296	-0.027431	-0.078531	-0.078927	-0.113403	-0.17513	-0.108999	-0.249372	-0.178736	-0.207145	-0.177752	-0.26888	-0.299521	-0.278985	-0.125182	-0.195281	-0.390276	
1.00645	1.24969	0	0	-0.145593	-0.246988	-0.248064	-0.384993	-0.123618	-0.433522	-0.134292	-0.449716	-0.167204	-0.150216	-0.176392	-0.136096	-0.038671	-0.155244	-0.108106	-0.158296	-0.0283355	-0.0759748	-0.0721475	-0.117833	-0.174229	-0.111546	-0.247944	-0.182773	-0.207145	-0.177752	-0.276958	-0.289453	-0.276726	-0.116576	-0.198132	-0.38222	
1.00156	1.24969	0	0	-0.142069	-0.256946	-0.252119	-0.388463	-0.125082	-0.441148	-0.133258	-0.452637	-0.16543	-0.155229	-0.176392	-0.136096	-0.038671	-0.155244	-0.108106	-0.158296	-0.02924	-0.0734185	-0.065368	-0.122262	-0.173327	-0.114094	-0.246515	-0.186809	-0.207145	-0.177752	-0.285036	-0.279385	-0.274467	-0.10797	-0.200983	-0.374163	
0.995325	1.25122	0	0	-0.138545	-0.266904	-0.256175	-0.391932	-0.126545	-0.448773	-0.132224	-0.455558	-0.163657	-0.160242	-0.176392	-0.136096	-0.038671	-0.155244	-0.108106	-0.158296	-0.0301445	-0.0708623	-0.0585885	-0.126692	-0.172426	-0.116642	-0.245087	-0.190846	-0.207145	-0.177752	-0.293114	-0.269317	-0.272207	-0.0993648	-0.203833	-0.366107	
0.988279	1.24664	0	0	-0.135022	-0.276862	-0.26023	-0.395402	-0.128009	-0.456399	-0.131191	-0.458479	-0.161883	-0.165255	-0.176392	-0.136096	-0.038671	-0.155244	-0.108106	-0.158296	-0.031049	-0.068306	-0.051809	-0.131122	-0.171524	-0.119189	-0.243659	-0.194882	-0.207145	-0.177752	-0.301192	-0.259249	-0.269948	-0.090759	-0.206684	-0.358051	
0.980973	1.24969	0	0	-0.138545	-0.266904	-0.250707	-0.392444	-0.12457	-0.454356	-0.126288	-0.450447	-0.157125	-0.168364	-0.170646	-0.136532	-0.038671	-0.155244	-0.102648	-0.161862	-0.031049	-0.068306	-0.0450245	-0.135555	-0.170623	-0.121736	-0.235912	-0.199944	-0.211813	-0.180049	-0.298988	-0.265479	-0.272271	-0.0841948	-0.205734	-0.360737	
0.973954	1.24817	0	0	-0.142069	-0.256946	-0.241183	-0.389486	-0.121131	-0.452314	-0.121386	-0.442415	-0.152366	-0.171474	-0.164899	-0.136967	-0.038671	-0.155244	-0.0971895	-0.165429	-0.031049	-0.068306	-0.03824	-0.139988	-0.169722	-0.124283	-0.228164	-0.205006	-0.216481	-0.182346	-0.296783	-0.271709	-0.274594	-0.0776305	-0.204783	-0.363424	
0.96777	1.24664	0	0	-0.145593	-0.246988	-0.23166	-0.386528	-0.117691	-0.450271	-0.116484	-0.434383	-0.147608	-0.174583	-0.159153	-0.137402	-0.038671	-0.155244	-0.0917313	-0.168995	-0.031049	-0.068306	-0.0314555	-0.144422	-0.16882	-0.12683	-0.220417	-0.210069	-0.221149	-0.184644	-0.294579	-0.277939	-0.276916	-0.0710662	-0.203832	-0.36611	
0.962968	1.24512	0	0	-0.149116	-0.23703	-0.222137	-0.38357	-0.114252	-0.448229	-0.111581	-0.426351	-0.142849	-0.177692	-0.153407	-0.137838	-0.038671	-0.155244	-0.086273	-0.172562	-0.031049	-0.068306	-0.024671	-0.148855	-0.167919	-0.129377	-0.21267	-0.215131	-0.225817	-0.186941	-0.292374	-0.284169	-0.279239	-0.064502	-0.202882	-0.368796	
0.960045	1.24969	0	0	-0.147941	-0.240351	-0.229014	-0.379076	-0.116705	-0.45306	-0.111581	-0.426351	-0.141076	-0.182702	-0.151879	-0.142155	-0.038671	-0.155244	-0.0851733	-0.17567	-0.031049	-0.068306	-0.0314555	-0.144422	-0.172361	-0.128432	-0.220417	-0.210069	-0.227047	-0.183464	-0.288705	-0.281777	-0.278148	-0.0525823	-0.200663	-0.364048	
0.959028	1.24817	0	0	-0.146766	-0.243671	-0.235892	-0.374583	-0.119157	-0.457892	-0.111581	-0.426351	-0.139303	-0.187713	-0.150351	-0.146473	-0.038671	-0.155244	-0.0840735	-0.178778	-0.031049	-0.068306	-0.03824	-0.139988	-0.176803	-0.127487	-0.228164	-0.205006	-0.228277	-0.179987	-0.285036	-0.279385	-0.277057	-0.0406625	-0.198445	-0.3593	
0.959692	1.24664	0	0	-0.145592	-0.246992	-0.242769	-0.370089	-0.12161	-0.462723	-0.111581	-0.426351	-0.137531	-0.192723	-0.148824	-0.15079	-0.038671	-0.155244	-0.0829737	-0.181886	-0.031049	-0.068306	-0.0450245	-0.135555	-0.181245	-0.126542	-0.235912	-0.199944	-0.229508	-0.17651	-0.281367	-0.276993	-0.275966	-0.0287428	-0.196226	-0.354552	
0.961813	1.24664	0	0	-0.144417	-0.250313	-0.249646	-0.365595	-0.124062	-0.467554	-0.111581	-0.426351	-0.135758	-0.197733	-0.147296	-0.155108	-0.038671	-0.155244	-0.081874	-0.184994	-0.031049	-0.068306	-0.051809	-0.131122	-0.185687	-0.125597	-0.243659	-0.194882	-0.230738	-0.173033	-0.277698	-0.274601	-0.274875	-0.016823	-0.194007	-0.349804	
0.965165	1.24969	0	0	-0.141466	-0.24458	-0.241529	-0.358638	-0.126036	-0.461976	-0.106675	-0.418303	-0.136644	-0.195228	-0.148824	-0.15079	-0.0397752	-0.152123	-0.0829737	-0.181886	-0.031049	-0.068306	-0.0463435	-0.131827	-0.183886	-0.130687	-0.234484	-0.203979	-0.229508	-0.17651	-0.277698	-0.274601	-0.270293	-0.0147573	-0.188933	-0.35312	
0.96952	1.24664	0	0	-0.138515	-0.238847	-0.233411	-0.351682	-0.128009	-0.456398	-0.101769	-0.410255	-0.13753	-0.192723	-0.150351	-0.146473	-0.0408795	-0.149002	-0.0840735	-0.178778	-0.031049	-0.068306	-0.040878	-0.132532	-0.182084	-0.135777	-0.225309	-0.213076	-0.228277	-0.179987	-0.277698	-0.274601	-0.265711	-0.0126915	-0.18386	-0.356435	
0.974653	1.24664	0	0	-0.135564	-0.233113	-0.225294	-0.344726	-0.129983	-0.450819	-0.0968637	-0.402207	-0.138417	-0.190219	-0.151879	-0.142155	-0.0419838	-0.145882	-0.0851733	-0.17567	-0.031049	-0.068306	-0.0354125	-0.133238	-0.180283	-0.140867	-0.216134	-0.222173	-0.227047	-0.183464	-0.277698	-0.274601	-0.26113	-0.0106257	-0.178786	-0.35975	
0.980339	1.24664	0	0	-0.132613	-0.22738	-0.217177	-0.337769	-0.131957	-0.445241	-0.091958	-0.394159	-0.139303	-0.187714	-0.153407	-0.137838	-0.043088	-0.142761	-0.086273	-0.172562	-0.031049	-0.068306	-0.029947	-0.133943	-0.178482	-0.145957	-0.206959	-0.23127	-0.225817	-0.186941	-0.277698	-0.274601	-0.256548	-0.00856	-0.173712	-0.363066	
0.986356	1.24817	0	0	-0.133789	-0.224056	-0.218589	-0.333778	-0.13097	-0.44803	-0.0940322	-0.388297	-0.133656	-0.19333	-0.147655	-0.138276	-0.0419838	-0.145882	-0.0851733	-0.17567	-0.0319538	-0.065749	-0.029947	-0.133943	-0.179383	-0.143412	-0.209815	-0.223199	-0.221149	-0.184644	-0.276234	-0.265969	-0.249706	0.0021705	-0.174347	-0.350239	
0.992513	1.24664	0	0	-0.134965	-0.220731	-0.220002	-0.329786	-0.129983	-0.45082	-0.0961065	-0.382435	-0.128008	-0.198945	-0.141903	-0.138713	-0.0408795	-0.149002	-0.0840735	-0.178778	-0.0328585	-0.063192	-0.029947	-0.133943	-0.180283	-0.140868	-0.212671	-0.215127	-0.216481	-0.182346	-0.274769	-0.257336	-0.242865	0.012901	-0.174983	-0.337412	
0.998629	1.24512	0	0	-0.136141	-0.217407	-0.221414	-0.325795	-0.128996	-0.453609	-0.0981807	-0.376574	-0.12236	-0.204561	-0.136152	-0.139151	-0.0397752	-0.152123	-0.0829737	-0.181886	-0.0337632	-0.060635	-0.029947	-0.133943	-0.181183	-0.138323	-0.215527	-0.207056	-0.211813	-0.180049	-0.273305	-0.248704	-0.236023	0.0236315	-0.175619	-0.324585	
1.00452	1.24512	0	0	-0.137317	-0.214083	-0.222826	-0.321804	-0.128009	-0.456399	-0.100255	-0.370712	-0.116713	-0.210177	-0.1304	-0.139589	-0.038671	-0.155244	-0.081874	-0.184994	-0.034668	-0.058078	-0.029947	-0.133943	-0.182084	-0.135778	-0.218383	-0.198985	-0.207145	-0.177752	-0.271841	-0.240072	-0.229182	0.034362	-0.176254	-0.311758	
1.01001	1.24512	0	0	-0.136723	-0.201679	-0.223009	-0.306321	-0.130971	-0.448028	-0.097428	-0.356763	-0.117599	-0.207672	-0.133459	-0.130943	-0.0349782	-0.152857	-0.081874	-0.184994	-0.0284072	-0.0641348	-0.028628	-0.137671	-0.181183	-0.138323	-0.216955	-0.203021	-0.214274	-0.173094	-0.265959	-0.243915	-0.23035	0.0376617	-0.177207	-0.309064	
1.01492	1.24664	0	0	-0.136129	-0.189275	-0.223191	-0.290839	-0.133933	-0.439657	-0.094601	-0.342813	-0.118485	-0.205168	-0.136518	-0.122298	-0.0312855	-0.150471	-0.081874	-0.184994	-0.0221465	-0.0701915	-0.027309	-0.141399	-0.180283	-0.140868	-0.215527	-0.207058	-0.221403	-0.168436	-0.260078	-0.247758	-0.231517	0.0409615	-0.17816	-0.306371	
1.01906	1.24359	0	0	-0.135535	-0.17687	-0.223374	-0.275357	-0.136895	-0.431286	-0.091774	-0.328864	-0.119372	-0.202663	-0.139577	-0.113653	-0.0275927	-0.148085	-0.081874	-0.184994	-0.0158858	-0.0762483	-0.02599	-0.145127	-0.179383	-0.143412	-0.214098	-0.211094	-0.228532	-0.163778	-0.254196	-0.251601	-0.232685	0.0442613	-0.179113	-0.303677	
1.02226	1.24054	0	0	-0.134941	-0.164466	-0.223557	-0.259874	-0.139857	-0.422915	-0.088947	-0.314915	-0.120258	-0.200158	-0.142636	-0.105007	-0.0239	-0.145698	-0.081874	-0.184994	-0.009625	-0.082305	-0.024671	-0.148855	-0.178482	-0.145957	-0.21267	-0.215131	-0.235661	-0.15912	-0.248314	-0.255444	-0.233853	0.047561	-0.180066	-0.300984	
1.02435	1.24206	0	0	-0.13612	-0.161134	-0.219496	-0.256373	-0.145267	-0.41938	-0.084934	-0.315277	-0.116381	-0.200765	-0.13688	-0.105442	-0.017994	-0.149557	-0.0829737	-0.181886	-0.0114348	-0.07719	-0.02599	-0.145127	-0.17494	-0.144358	-0.207773	-0.212123	-0.232227	-0.153335	-0.247954	-0.243674	-0.221239	0.0571028	-0.175628	-0.291446	
1.02532	1.24512	0	0	-0.137298	-0.157803	-0.215435	-0.252871	-0.150677	-0.415845	-0.080921	-0.31564	-0.112504	-0.201373	-0.131125	-0.105878	-0.012088	-0.153416	-0.0840735	-0.178778	-0.0132445	-0.072075	-0.027309	-0.141399	-0.171399	-0.142759	-0.202875	-0.209116	-0.228794	-0.14755	-0.247594	-0.231905	-0.208626	0.0666445	-0.171189	-0.281908	
1.02526	1.24206	0	0	-0.138477	-0.154471	-0.211374	-0.249369	-0.156087	-0.412309	-0.076908	-0.316003	-0.108626	-0.20198	-0.125369	-0.106314	-0.006182	-0.157275	-0.0851733	-0.17567	-0.0150542	-0.06696	-0.028628	-0.137671	-0.167857	-0.14116	-0.197978	-0.206108	-0.22536	-0.141765	-0.247233	-0.220135	-0.196012	0.0761862	-0.166751	-0.27237	
1.02426	1.24206	0	0	-0.139656	-0.151139	-0.207313	-0.245868	-0.161497	-0.408774	-0.072895	-0.316365	-0.104749	-0.202587	-0.119613	-0.106749	-0.000276	-0.161134	-0.086273	-0.172562	-0.016864	-0.061845	-0.029947	-0.133943	-0.164316	-0.139561	-0.193081	-0.2031	-0.221926	-0.13598	-0.246873	-0.208365	-0.183398	0.085728	-0.162313	-0.262832	
1.0224	1.24054	0	0	-0.13907	-0.138701	-0.207507	-0.23033	-0.16103	-0.39834	-0.0761712	-0.296121	-0.101756	-0.200689	-0.121144	-0.102421	-0.001381	-0.158011	-0.0819113	-0.173022	-0.0177693	-0.0592865	-0.023157	-0.13838	-0.164316	-0.139561	-0.194511	-0.19906	-0.213559	-0.144124	-0.24209	-0.209087	-0.185741	0.0923482	-0.164224	-0.257433	
1.01979	1.24206	0	0	-0.138485	-0.126262	-0.207701	-0.214792	-0.160562	-0.387906	-0.0794475	-0.275876	-0.0987635	-0.19879	-0.122675	-0.098093	-0.002486	-0.154888	-0.0775495	-0.173482	-0.0186745	-0.056728	-0.016367	-0.142817	-0.164316	-0.139561	-0.19594	-0.19502	-0.205192	-0.152269	-0.237307	-0.209809	-0.188083	0.0989685	-0.166134	-0.252033	
1.0165	1.23901	0	0	-0.137899	-0.113824	-0.207894	-0.199254	-0.160095	-0.377472	-0.0827237	-0.255632	-0.0957708	-0.196892	-0.124207	-0.093765	-0.003591	-0.151765	-0.0731877	-0.173942	-0.0195797	-0.0541695	-0.009577	-0.147253	-0.164316	-0.139561	-0.19737	-0.19098	-0.196825	-0.160414	-0.232523	-0.210531	-0.190425	0.105589	-0.168044	-0.246634	
1.01262	1.23901	0	0	-0.137313	-0.101386	-0.208088	-0.183716	-0.159628	-0.367038	-0.086	-0.235388	-0.092778	-0.194994	-0.125738	-0.089437	-0.004696	-0.148642	-0.068826	-0.174402	-0.020485	-0.051611	-0.002787	-0.15169	-0.164316	-0.139561	-0.198799	-0.18694	-0.188458	-0.168558	-0.22774	-0.211253	-0.192768	0.112209	-0.169955	-0.241234	
1.00825	1.24359	0	0	-0.137313	-0.101386	-0.202603	-0.184213	-0.159628	-0.367038	-0.087043	-0.23244	-0.0888962	-0.195603	-0.12727	-0.085107	-0.0117075	-0.141659	-0.0742877	-0.170833	-0.0213908	-0.0490517	-0.00410675	-0.14796	-0.165217	-0.137015	-0.193899	-0.183926	-0.194624	-0.151132	-0.222594	-0.200177	-0.180131	0.121795	-0.162341	-0.22958	
1.00349	1.24054	0	0	-0.137313	-0.101386	-0.197119	-0.18471	-0.159628	-0.367038	-0.088086	-0.229492	-0.0850145	-0.196211	-0.128802	-0.080777	-0.018719	-0.134676	-0.0797495	-0.167264	-0.0222965	-0.0464925	-0.0054265	-0.14423	-0.166118	-0.134469	-0.188998	-0.180912	-0.20079	-0.133707	-0.217448	-0.1891	-0.167494	0.131381	-0.154728	-0.217925	
0.99844	1.24054	0	0	-0.137313	-0.101386	-0.191635	-0.185208	-0.159628	-0.367038	-0.089129	-0.226544	-0.0811328	-0.196819	-0.130335	-0.076447	-0.0257305	-0.127692	-0.0852113	-0.163695	-0.0232023	-0.0439333	-0.00674625	-0.140501	-0.167018	-0.131923	-0.184097	-0.177897	-0.206955	-0.116281	-0.212302	-0.178024	-0.154858	0.140967	-0.147114	-0.206271	
0.993214	1.23749	0	0	-0.137313	-0.101386	-0.18615	-0.185705	-0.159628	-0.367038	-0.090172	-0.223596	-0.077251	-0.197428	-0.131867	-0.072117	-0.032742	-0.120709	-0.090673	-0.160126	-0.024108	-0.041374	-0.008066	-0.136771	-0.167919	-0.129377	-0.179197	-0.174883	-0.213121	-0.098855	-0.207156	-0.166947	-0.142221	0.150553	-0.139501	-0.194617	
0.987922	1.23749	0	0	-0.13142	-0.0898193	-0.18086	-0.170614	-0.154739	-0.357323	-0.0822973	-0.212857	-0.0760308	-0.190509	-0.127641	-0.068216	-0.0290483	-0.118316	-0.0885138	-0.154361	-0.0196543	-0.042316	-0.008066	-0.136771	-0.169722	-0.124282	-0.17286	-0.175914	-0.20845	-0.0965412	-0.203473	-0.164534	-0.152702	0.165063	-0.137281	-0.189821	
0.982672	1.24206	0	0	-0.125527	-0.0782525	-0.175571	-0.155523	-0.14985	-0.347607	-0.0744225	-0.202117	-0.0748105	-0.18359	-0.123415	-0.064315	-0.0253545	-0.115923	-0.0863545	-0.148597	-0.0152005	-0.043258	-0.008066	-0.136771	-0.171525	-0.119188	-0.166523	-0.176944	-0.203779	-0.0942275	-0.199789	-0.162121	-0.163184	0.179573	-0.13506	-0.185026	
0.977576	1.23596	0	0	-0.119634	-0.0666858	-0.170281	-0.140431	-0.144961	-0.337892	-0.0665478	-0.191377	-0.0735902	-0.176671	-0.119188	-0.060414	-0.0216607	-0.113531	-0.0841952	-0.142833	-0.0107467	-0.0442	-0.008066	-0.136771	-0.173327	-0.114094	-0.160186	-0.177975	-0.199108	-0.0919138	-0.196106	-0.159708	-0.173666	0.194083	-0.13284	-0.18023	
0.972742	1.24054	0	0	-0.113741	-0.055119	-0.164991	-0.12534	-0.140072	-0.328177	-0.058673	-0.180638	-0.07237	-0.169752	-0.114962	-0.056513	-0.017967	-0.111138	-0.082036	-0.137068	-0.006293	-0.045142	-0.008066	-0.136771	-0.17513	-0.108999	-0.153849	-0.179005	-0.194437	-0.0896	-0.192422	-0.157295	-0.184147	0.208593	-0.13062	-0.175434	
0.968283	1.23901	0	0	-0.11611	-0.0484245	-0.16092	-0.121806	-0.135643	-0.328917	-0.060765	-0.174726	-0.070262	-0.165336	-0.116496	-0.0521768	-0.0190735	-0.10801	-0.082036	-0.137068	-0.009012	-0.0374575	-0.0039115	-0.133747	-0.170685	-0.109944	-0.158147	-0.166857	-0.193473	-0.0767965	-0.194292	-0.139177	-0.176116	0.216133	-0.127139	-0.163112	
0.964335	1.23749	0	0	-0.118479	-0.04173	-0.156849	-0.118273	-0.131214	-0.329657	-0.062857	-0.168814	-0.068154	-0.16092	-0.11803	-0.0478405	-0.02018	-0.104883	-0.082036	-0.137068	-0.011731	-0.029773	0.000243	-0.130724	-0.166241	-0.110889	-0.162446	-0.154709	-0.192509	-0.063993	-0.196163	-0.121059	-0.168085	0.223673	-0.123658	-0.150789	
0.961042	1.23749	0	0	-0.120848	-0.0350355	-0.152778	-0.114739	-0.126785	-0.330398	-0.064949	-0.162901	-0.066046	-0.156505	-0.119565	-0.0435043	-0.0212865	-0.101755	-0.082036	-0.137068	-0.01445	-0.0220885	0.0043975	-0.1277	-0.161797	-0.111833	-0.166745	-0.142562	-0.191545	-0.0511895	-0.198033	-0.102941	-0.160055	0.231214	-0.120177	-0.138466	
0.958548	1.23749	0	0	-0.123217	-0.028341	-0.148707	-0.111205	-0.122356	-0.331138	-0.067041	-0.156989	-0.063938	-0.152089	-0.121099	-0.039168	-0.022393	-0.098628	-0.082036	-0.137068	-0.017169	-0.014404	0.008552	-0.124677	-0.157352	-0.112778	-0.171043	-0.130414	-0.190581	-0.038386	-0.199903	-0.084823	-0.152024	0.238754	-0.116696	-0.126144	
0.956999	1.23596	0	0	-0.114951	-0.0234365	-0.146061	-0.103633	-0.121894	-0.32066	-0.0581125	-0.149169	-0.05883	-0.145761	-0.116871	-0.0352583	-0.0186975	-0.0962315	-0.0798765	-0.131296	-0.0118063	-0.0179083	0.008552	-0.124677	-0.158254	-0.110229	-0.163268	-0.135495	-0.191819	-0.0348873	-0.196218	-0.0823955	-0.153202	0.242085	-0.112553	-0.126764	
0.956539	1.23749	0	0	-0.106686	-0.018532	-0.143414	-0.096061	-0.121431	-0.310182	-0.049184	-0.141348	-0.053722	-0.139433	-0.112644	-0.0313485	-0.015002	-0.093835	-0.077717	-0.125524	-0.0064435	-0.0214125	0.008552	-0.124677	-0.159156	-0.10768	-0.155492	-0.140576	-0.193057	-0.0313885	-0.192534	-0.079968	-0.154381	0.245415	-0.108409	-0.127383	
0.957313	1.23596	0	0	-0.0984205	-0.0136275	-0.140767	-0.088489	-0.120969	-0.299704	-0.0402555	-0.133528	-0.048614	-0.133104	-0.108416	-0.0274388	-0.0113065	-0.0914385	-0.0755575	-0.119752	-0.00108075	-0.0249167	0.008552	-0.124677	-0.160058	-0.105131	-0.147717	-0.145656	-0.194295	-0.0278898	-0.18885	-0.0775405	-0.155559	0.248746	-0.104266	-0.128002	
0.959464	1.23291	0	0	-0.090155	-0.008723	-0.138121	-0.080917	-0.120506	-0.289226	-0.031327	-0.125708	-0.043506	-0.126776	-0.104188	-0.023529	-0.007611	-0.089042	-0.073398	-0.11398	0.004282	-0.028421	0.008552	-0.124677	-0.16096	-0.102582	-0.139941	-0.150737	-0.195533	-0.024391	-0.185165	-0.075113	-0.156738	0.252076	-0.100123	-0.128622	
0.963039	1.23901	0	0	-0.0883935	0.0004465	-0.134045	-0.0773725	-0.123487	-0.280802	-0.0395477	-0.113499	-0.0431785	-0.11731	-0.107262	-0.0148415	-0.0109355	-0.0796463	-0.0767075	-0.104627	0.00692675	-0.0242363	0.0140315	-0.125386	-0.152965	-0.101924	-0.144245	-0.138573	-0.187419	-0.016228	-0.178903	-0.0671023	-0.147517	0.256302	-0.0966403	-0.116265	
0.967844	1.23596	0	0	-0.086632	0.009616	-0.129969	-0.073828	-0.126468	-0.272378	-0.0477685	-0.10129	-0.042851	-0.107845	-0.110336	-0.006154	-0.01426	-0.0702505	-0.080017	-0.095274	0.0095715	-0.0200515	0.019511	-0.126096	-0.144971	-0.101265	-0.14855	-0.126409	-0.179305	-0.008065	-0.172641	-0.0590915	-0.138296	0.260529	-0.0931575	-0.103908	
0.973652	1.23138	0	0	-0.0848705	0.0187855	-0.125894	-0.0702835	-0.129448	-0.263955	-0.0559893	-0.089081	-0.0425235	-0.0983788	-0.11341	0.0025335	-0.0175845	-0.0608547	-0.0833265	-0.085921	0.0122162	-0.0158667	0.0249905	-0.126805	-0.136976	-0.100607	-0.152854	-0.114244	-0.171191	9.8E-05	-0.166379	-0.0510807	-0.129076	0.264755	-0.0896747	-0.0915518	
0.980231	1.23749	0	0	-0.083109	0.027955	-0.121818	-0.066739	-0.132429	-0.255531	-0.06421	-0.076872	-0.042196	-0.088913	-0.116484	0.011221	-0.020909	-0.051459	-0.086636	-0.076568	0.014861	-0.011682	0.03047	-0.127515	-0.128981	-0.099948	-0.157158	-0.10208	-0.163077	0.008261	-0.160117	-0.04307	-0.119855	0.268981	-0.086192	-0.079195	
0.987355	1.23443	0	0	-0.0825403	0.040506	-0.11917	-0.059147	-0.127541	-0.245755	-0.059311	-0.0686627	-0.038871	-0.077511	-0.112256	0.0151435	-0.018323	-0.0459178	-0.0866905	-0.0645312	0.0175068	-0.007493	0.0278257	-0.120042	-0.129884	-0.0973962	-0.150811	-0.103107	-0.164318	0.011768	-0.156425	-0.040635	-0.111697	0.261086	-0.0871553	-0.0764728	
0.994793	1.24054	0	0	-0.0819715	0.053057	-0.116523	-0.051555	-0.122652	-0.235978	-0.054412	-0.0604535	-0.035546	-0.066109	-0.108027	0.019066	-0.015737	-0.0403765	-0.086745	-0.0524945	0.0201525	-0.003304	0.0251815	-0.112568	-0.130787	-0.0948445	-0.144465	-0.104134	-0.165559	0.015275	-0.152734	-0.0382	-0.103539	0.253191	-0.0881185	-0.0737505	
1.00232	1.23443	0	0	-0.0814027	0.065608	-0.113875	-0.043963	-0.117764	-0.226201	-0.049513	-0.0522442	-0.032221	-0.054707	-0.103799	0.0229885	-0.013151	-0.0348352	-0.0867995	-0.0404578	0.0227982	0.000885	0.0225373	-0.105095	-0.13169	-0.0922928	-0.138119	-0.10516	-0.1668	0.018782	-0.149043	-0.035765	-0.0953802	0.245296	-0.0890818	-0.0710283	
1.0097	1.23749	0	0	-0.080834	0.078159	-0.111227	-0.036371	-0.112876	-0.216425	-0.044614	-0.044035	-0.028896	-0.043305	-0.099571	0.026911	-0.010565	-0.029294	-0.086854	-0.028421	0.025444	0.005074	0.019893	-0.097622	-0.132593	-0.089741	-0.131772	-0.106187	-0.168041	0.022289	-0.145351	-0.03333	-0.087222	0.237401	-0.090045	-0.068306	
1.01673	1.23749	0	0	-0.0802713	0.0907383	-0.115523	-0.0242288	-0.118857	-0.199522	-0.0538985	-0.028826	-0.0264678	-0.029345	-0.0984225	0.0395505	-0.00908975	-0.020605	-0.0858075	-0.019489	0.0199895	0.0204893	0.0159222	-0.0864002	-0.130851	-0.0830255	-0.123375	-0.0960515	-0.159917	0.0304778	-0.13538	-0.0228537	-0.0837803	0.242848	-0.0865665	-0.0559108	
1.02326	1.23443	0	0	-0.0797085	0.103318	-0.119819	-0.0120865	-0.124838	-0.182619	-0.063183	-0.013617	-0.0240395	-0.015385	-0.097274	0.05219	-0.0076145	-0.011916	-0.084761	-0.010557	0.014535	0.0359045	0.0119515	-0.0751785	-0.129109	-0.07631	-0.114979	-0.085916	-0.151794	0.0386665	-0.125409	-0.0123775	-0.0803385	0.248294	-0.083088	-0.0435155	
1.02918	1.23749	0	0	-0.0791458	0.115897	-0.124116	5.575E-05	-0.130819	-0.165715	-0.0724675	0.001592	-0.0216112	-0.001425	-0.0961255	0.0648295	-0.00613925	-0.003227	-0.0837145	-0.001625	0.0090805	0.0513198	0.00798075	-0.0639568	-0.127368	-0.0695945	-0.106582	-0.0757805	-0.143671	0.0468553	-0.115438	-0.00190125	-0.0768967	0.253741	-0.0796095	-0.0311203	
1.03435	1.23443	0	0	-0.078583	0.128476	-0.128412	0.012198	-0.1368	-0.148812	-0.081752	0.016801	-0.019183	0.012535	-0.094977	0.077469	-0.004664	0.005462	-0.082668	0.007307	0.003626	0.066735	0.00401	-0.052735	-0.125626	-0.062879	-0.098186	-0.065645	-0.135547	0.055044	-0.105467	0.008575	-0.073455	0.259188	-0.076131	-0.018725	
1.03865	1.23596	0	0	-0.0792222	0.144462	-0.132714	0.0243567	-0.13192	-0.138981	-0.0779173	0.0280315	-0.015863	0.0239977	-0.099607	0.0905543	-0.004304	0.0173125	-0.0838425	0.0225237	0.012555	0.0648558	0.0081665	-0.0496935	-0.122075	-0.061269	-0.101067	-0.0575042	-0.136791	0.0585593	-0.108825	0.018064	-0.0792575	0.260413	-0.0719773	-0.0193412	
1.04194	1.23291	0	0	-0.0798615	0.160449	-0.137016	0.0365155	-0.127041	-0.129149	-0.0740825	0.039262	-0.012543	0.0354605	-0.104237	0.103639	-0.003944	0.029163	-0.085017	0.0377405	0.021484	0.0629765	0.012323	-0.046652	-0.118525	-0.059659	-0.103947	-0.0493635	-0.138035	0.0620745	-0.112182	0.027553	-0.08506	0.261638	-0.0678235	-0.0199575	
1.04409	1.24054	0	0	-0.0805008	0.176436	-0.141319	0.0486743	-0.122162	-0.119317	-0.0702477	0.0504925	-0.009223	0.0469232	-0.108867	0.116725	-0.003584	0.0410135	-0.0861915	0.0529572	0.030413	0.0610972	0.0164795	-0.0436105	-0.114974	-0.058049	-0.106828	-0.0412228	-0.139279	0.0655898	-0.11554	0.037042	-0.0908625	0.262864	-0.0636697	-0.0205738	
1.04499	1.23749	0	0	-0.08114	0.192422	-0.145621	0.060833	-0.117282	-0.109486	-0.066413	0.061723	-0.005903	0.058386	-0.113497	0.12981	-0.003224	0.052864	-0.087366	0.068174	0.039342	0.059218	0.020636	-0.040569	-0.111424	-0.056439	-0.109709	-0.033082	-0.140523	0.069105	-0.118897	0.046531	-0.096665	0.264089	-0.059516	-0.02119	
1.04451	1.23443	0	0	-0.071661	0.194026	-0.140112	0.060352	-0.115842	-0.101733	-0.0655517	0.070333	-0.00438325	0.07496	-0.10504	0.13772	0.00417575	0.0577125	-0.0819562	0.0767035	0.0383425	0.0737312	0.022141	-0.030023	-0.105221	-0.050657	-0.0998633	-0.0269808	-0.13239	0.0773197	-0.108917	0.0570615	-0.093226	0.269543	-0.0518747	-0.0093755	
1.04265	1.23443	0	0	-0.062182	0.19563	-0.134603	0.059871	-0.114402	-0.0939805	-0.0646905	0.078943	-0.0028635	0.091534	-0.0965825	0.14563	0.0115755	0.062561	-0.0765465	0.085233	0.037343	0.0882445	0.023646	-0.019477	-0.099019	-0.044875	-0.0900175	-0.0208795	-0.124258	0.0855345	-0.0989365	0.067592	-0.089787	0.274998	-0.0442335	0.002439	
1.03947	1.23901	0	0	-0.052703	0.197233	-0.129095	0.05939	-0.112963	-0.0862278	-0.0638293	0.087553	-0.00134375	0.108108	-0.0881253	0.153539	0.0189752	0.0674095	-0.0711367	0.0937625	0.0363435	0.102758	0.025151	-0.008931	-0.0928165	-0.039093	-0.0801717	-0.0147782	-0.116125	0.0937493	-0.0889563	0.0781225	-0.086348	0.280452	-0.0365922	0.0142535	
1.03502	1.23749	0	0	-0.043224	0.198837	-0.123586	0.058909	-0.111523	-0.078475	-0.062968	0.096163	0.000176	0.124682	-0.079668	0.161449	0.026375	0.072258	-0.065727	0.102292	0.035344	0.117271	0.026656	0.001615	-0.086614	-0.033311	-0.070326	-0.008677	-0.107992	0.101964	-0.078976	0.088653	-0.082909	0.285906	-0.028951	0.026068	
1.02937	1.23749	0	0	-0.0373262	0.210605	-0.119509	0.0624868	-0.11209	-0.0650435	-0.0591363	0.107441	0.00439	0.133665	-0.0754345	0.165411	0.0278462	0.080994	-0.0614267	0.113987	0.0424622	0.120553	0.0226705	0.0128793	-0.0839635	-0.029135	-0.0682875	0.0025485	-0.107992	0.101964	-0.0704393	0.0903957	-0.0805455	0.279226	-0.0299195	0.0288045	
1.02257	1.23596	0	0	-0.0314285	0.222373	-0.115432	0.0660645	-0.112656	-0.051612	-0.0553045	0.11872	0.008604	0.142648	-0.071201	0.169372	0.0293175	0.08973	-0.0571265	0.125683	0.0495805	0.123834	0.018685	0.0241435	-0.081313	-0.024959	-0.066249	0.013774	-0.107992	0.101964	-0.0619025	0.0921385	-0.078182	0.272547	-0.030888	0.031541	
1.01468	1.23749	0	0	-0.0255308	0.234141	-0.111355	0.0696422	-0.113223	-0.0381805	-0.0514727	0.129998	0.012818	0.151631	-0.0669675	0.173334	0.0307887	0.098466	-0.0528262	0.137378	0.0566987	0.127116	0.0146995	0.0354077	-0.0786625	-0.020783	-0.0642105	0.0249995	-0.107992	0.101964	-0.0533658	0.0938812	-0.0758185	0.265867	-0.0318565	0.0342775	
1.00575	1.23596	0	0	-0.019633	0.245909	-0.107278	0.07322	-0.11379	-0.024749	-0.047641	0.141276	0.017032	0.160614	-0.062734	0.177295	0.03226	0.107202	-0.048526	0.149073	0.063817	0.130397	0.010714	0.046672	-0.076012	-0.016607	-0.062172	0.036225	-0.107992	0.101964	-0.044829	0.095624	-0.073455	0.259188	-0.032825	0.037014	
0.995878	1.23443	0	0	-0.0142815	0.24502	-0.112791	0.0737007	-0.112787	-0.0275827	-0.0465828	0.138286	0.0125235	0.173355	-0.0584973	0.181261	0.0277905	0.119834	-0.0474912	0.158084	0.0601617	0.140727	0.012209	0.0572585	-0.0787335	-0.008916	-0.0586885	0.043382	-0.0973505	0.10314	-0.0407825	0.110092	-0.0770008	0.269209	-0.0283745	0.0467425	
0.985346	1.23749	0	0	-0.00893	0.24413	-0.118304	0.0741815	-0.111785	-0.0304165	-0.0455245	0.135296	0.008015	0.186097	-0.0542605	0.185227	0.023321	0.132466	-0.0464565	0.167095	0.0565065	0.151058	0.013704	0.067845	-0.081455	-0.001225	-0.055205	0.050539	-0.086709	0.104317	-0.036736	0.12456	-0.0805465	0.27923	-0.023924	0.056471	
0.974574	1.23596	0	0	-0.0035785	0.24324	-0.123817	0.0746622	-0.110782	-0.0332502	-0.0444662	0.132305	0.0035065	0.198839	-0.0500237	0.189194	0.0188515	0.145097	-0.0454218	0.176106	0.0528512	0.161388	0.015199	0.0784315	-0.0841765	0.006466	-0.0517215	0.057696	-0.0760675	0.105494	-0.0326895	0.139029	-0.0840922	0.289252	-0.0194735	0.0661995	
0.963981	1.23596	0	0	0.001773	0.242351	-0.12933	0.075143	-0.109779	-0.036084	-0.043408	0.129315	-0.001002	0.21158	-0.045787	0.19316	0.014382	0.157729	-0.044387	0.185117	0.049196	0.171718	0.016694	0.089018	-0.086898	0.014157	-0.048238	0.064853	-0.065426	0.10667	-0.028643	0.153497	-0.087638	0.299273	-0.015023	0.075928	
0.953987	1.23443	0	0	0.005928	0.244853	-0.122381	0.070602	-0.10734	-0.03114	-0.0414915	0.134962	0.00501325	0.215496	-0.0488895	0.201928	0.0169643	0.163334	-0.0378543	0.190549	0.0527565	0.173366	0.0140295	0.096548	-0.0833405	0.0157772	-0.0433035	0.0679247	-0.071373	0.107845	-0.023802	0.152782	-0.0852737	0.292591	-0.015023	0.075928	
0.945011	1.23443	0	0	0.010083	0.247355	-0.115431	0.066061	-0.104901	-0.026196	-0.039575	0.140608	0.0110285	0.219413	-0.051992	0.210697	0.0195465	0.168939	-0.0313215	0.195982	0.056317	0.175014	0.011365	0.104078	-0.079783	0.0173975	-0.038369	0.0709965	-0.07732	0.109019	-0.018961	0.152067	-0.0829095	0.285909	-0.015023	0.075928	
0.93747	1.23443	0	0	0.014238	0.249857	-0.108481	0.06152	-0.102462	-0.021252	-0.0376585	0.146255	0.0170437	0.223329	-0.0550945	0.219465	0.0221288	0.174544	-0.0247888	0.201414	0.0598775	0.176662	0.0087005	0.111608	-0.0762255	0.0190177	-0.0334345	0.0740683	-0.083267	0.110194	-0.01412	0.151352	-0.0805452	0.279227	-0.015023	0.075928	
0.931785	1.23291	0	0	0.018393	0.252359	-0.101532	0.056979	-0.100023	-0.016308	-0.035742	0.151901	0.023059	0.227245	-0.058197	0.228233	0.024711	0.180149	-0.018256	0.206846	0.063438	0.17831	0.006036	0.119138	-0.072668	0.020638	-0.0285	0.07714	-0.089214	0.111369	-0.009279	0.150637	-0.078181	0.272545	-0.015023	0.075928	
0.928208	1.23138	0	0	0.0207943	0.245573	-0.100096	0.0529205	-0.097014	-0.0248118	-0.0285295	0.142588	0.016437	0.235498	-0.052407	0.227823	0.0224715	0.186478	-0.020491	0.213162	0.0606922	0.18607	0.0101917	0.122217	-0.0744848	0.025772	-0.0343035	0.0935413	-0.083267	0.110194	-0.00781825	0.159484	-0.079363	0.275885	-0.0086275	0.0801863	
0.926676	1.23443	0	0	0.0231955	0.238787	-0.09866	0.048862	-0.094005	-0.0333155	-0.021317	0.133275	0.009815	0.243752	-0.046617	0.227412	0.020232	0.192808	-0.022726	0.219478	0.0579465	0.19383	0.0143475	0.125295	-0.0763015	0.030906	-0.040107	0.109942	-0.07732	0.109019	-0.0063575	0.16833	-0.080545	0.279226	-0.002232	0.0844445	
0.92709	1.23443	0	0	0.0255967	0.232	-0.097224	0.0448035	-0.090996	-0.0418193	-0.0141045	0.123963	0.003193	0.252005	-0.040827	0.227002	0.0179925	0.199137	-0.024961	0.225794	0.0552007	0.20159	0.0185032	0.128374	-0.0781183	0.03604	-0.0459105	0.126344	-0.071373	0.107845	-0.00489675	0.177177	-0.081727	0.282566	0.0041635	0.0887027	
0.929348	1.23443	0	0	0.027998	0.225214	-0.095788	0.040745	-0.087987	-0.050323	-0.006892	0.11465	-0.003429	0.260259	-0.035037	0.226592	0.015753	0.205466	-0.027196	0.23211	0.052455	0.20935	0.022659	0.131452	-0.079935	0.041174	-0.051714	0.142745	-0.065426	0.10667	-0.003436	0.186024	-0.082909	0.285906	0.010559	0.092961	
0.933351	1.23138	0	0	0.029198	0.221823	-0.0998675	0.0371748	-0.087987	-0.050323	-0.00987125	0.112	-0.0004225	0.262223	-0.035037	0.226592	0.0205755	0.204749	-0.0239283	0.234834	0.0542858	0.204176	0.0145025	0.139681	-0.079935	0.041174	-0.0438745	0.137623	-0.065426	0.10667	-0.003436	0.186024	-0.0805455	0.279226	0.0125013	0.087472	
0.938998	1.23138	0	0	0.030398	0.218432	-0.103947	0.0336045	-0.087987	-0.050323	-0.0128505	0.109349	0.002584	0.264188	-0.035037	0.226592	0.025398	0.204033	-0.0206605	0.237558	0.0561165	0.199002	0.006346	0.147909	-0.079935	0.041174	-0.036035	0.1325	-0.065426	0.10667	-0.003436	0.186024	-0.078182	0.272547	0.0144435	0.081983	
0.946188	1.23138	0	0	0.031598	0.215041	-0.108026	0.0300343	-0.087987	-0.050323	-0.0158298	0.106699	0.0055905	0.266153	-0.035037	0.226592	0.0302205	0.203316	-0.0173927	0.240281	0.0579472	0.193828	-0.0018105	0.156138	-0.079935	0.041174	-0.0281955	0.127378	-0.065426	0.10667	-0.003436	0.186024	-0.0758185	0.265867	0.0163858	0.076494	
0.954807	1.22986	0	0	0.032798	0.21165	-0.112106	0.026464	-0.087987	-0.050323	-0.018809	0.104048	0.008597	0.268117	-0.035037	0.226592	0.035043	0.202599	-0.014125	0.243005	0.059778	0.188654	-0.009967	0.164366	-0.079935	0.041174	-0.020356	0.122255	-0.065426	0.10667	-0.003436	0.186024	-0.073455	0.259188	0.018328	0.071005	
0.964558	1.23138	0	0	0.02864	0.209155	-0.110672	0.022411	-0.0944378	-0.0439295	-0.0166948	0.0980725	0.0058825	0.275788	-0.0307952	0.230571	0.0339223	0.205766	-0.0108555	0.245731	0.0579472	0.193828	-0.0058145	0.167454	-0.0763763	0.042798	-0.02617	0.138687	-0.065426	0.10667	0.001411	0.185309	-0.0676473	0.25796	0.017357	0.073749	
0.975023	1.23138	0	0	0.024482	0.206661	-0.109238	0.018358	-0.100888	-0.037536	-0.0145805	0.092097	0.003168	0.283459	-0.0265535	0.23455	0.0328015	0.208933	-0.007586	0.248457	0.0561165	0.199002	-0.001662	0.170542	-0.0728175	0.044422	-0.031984	0.155118	-0.065426	0.10667	0.006258	0.184595	-0.0618395	0.256732	0.016386	0.076493	
0.985785	1.23291	0	0	0.020324	0.204167	-0.107804	0.014305	-0.107339	-0.0311425	-0.0124662	0.0861215	0.0004535	0.291131	-0.0223117	0.23853	0.0316808	0.212101	-0.0043165	0.251183	0.0542858	0.204176	0.0024905	0.173629	-0.0692587	0.046046	-0.037798	0.17155	-0.065426	0.10667	0.011105	0.183881	-0.0560317	0.255505	0.015415	0.079237	
0.996424	1.22986	0	0	0.016166	0.201672	-0.10637	0.010252	-0.11379	-0.024749	-0.010352	0.080146	-0.002261	0.298802	-0.01807	0.242509	0.03056	0.215268	-0.001047	0.253909	0.052455	0.20935	0.006643	0.176717	-0.0657	0.04767	-0.043612	0.187982	-0.065426	0.10667	0.015952	0.183166	-0.050224	0.254277	0.014444	0.081981	
1.00652	1.22833	0	0	0.014967	0.205061	-0.10637	0.010252	-0.108342	-0.0283088	-0.016501	0.0864605	-0.002261	0.298802	-0.01807	0.242509	0.0294387	0.218437	-0.001047	0.253909	0.049811	0.205112	0.006643	0.176717	-0.0657	0.04767	-0.043612	0.187982	-0.062931	0.0996188	0.0193373	0.173599	-0.0594735	0.250058	0.014155	0.0716283	
1.01566	1.23443	0	0	0.013768	0.20845	-0.10637	0.010252	-0.102894	-0.0318685	-0.02265	0.092775	-0.002261	0.298802	-0.01807	0.242509	0.0283175	0.221606	-0.001047	0.253909	0.047167	0.200874	0.006643	0.176717	-0.0657	0.04767	-0.043612	0.187982	-0.060436	0.0925675	0.0227225	0.164032	-0.068723	0.245839	0.013866	0.0612755	
1.02342	1.22986	0	0	0.012569	0.211838	-0.10637	0.010252	-0.097446	-0.0354283	-0.028799	0.0990895	-0.002261	0.298802	-0.01807	0.242509	0.0271963	0.224774	-0.001047	0.253909	0.044523	0.196635	0.006643	0.176717	-0.0657	0.04767	-0.043612	0.187982	-0.057941	0.0855162	0.0261077	0.154465	-0.0779725	0.24162	0.013577	0.0509228	
1.02938	1.22833	0	0	0.01137	0.215227	-0.10637	0.010252	-0.091998	-0.038988	-0.034948	0.105404	-0.002261	0.298802	-0.01807	0.242509	0.026075	0.227943	-0.001047	0.253909	0.041879	0.192397	0.006643	0.176717	-0.0657	0.04767	-0.043612	0.187982	-0.055446	0.078465	0.029493	0.144898	-0.087222	0.237401	0.013288	0.04057	
1.03338	1.22986	0	0	0.0131258	0.22451	-0.109239	0.0183598	-0.095008	-0.0304815	-0.031971	0.108054	-0.00497775	0.30648	-0.0211802	0.251299	0.0238315	0.234284	-0.0032865	0.260238	0.041879	0.192397	0.006643	0.176717	-0.0630488	0.0518657	-0.0308227	0.18595	-0.0507403	0.0808113	0.0332167	0.147367	-0.0814185	0.236173	0.0113482	0.0460523	
1.03549	1.22833	0	0	0.0148815	0.233793	-0.112107	0.0264675	-0.098018	-0.021975	-0.028994	0.110705	-0.0076945	0.314157	-0.0242905	0.260089	0.021588	0.240624	-0.005526	0.266567	0.041879	0.192397	0.006643	0.176717	-0.0603975	0.0560615	-0.0180335	0.183918	-0.0460345	0.0831575	0.0369405	0.149836	-0.075615	0.234946	0.0094085	0.0515345	
1.03584	1.23138	0	0	0.0166372	0.243076	-0.114976	0.0345753	-0.101028	-0.0134685	-0.026017	0.113355	-0.0104113	0.321835	-0.0274008	0.268879	0.0193445	0.246965	-0.0077655	0.272897	0.041879	0.192397	0.006643	0.176717	-0.0577462	0.0602572	-0.00524425	0.181887	-0.0413288	0.0855037	0.0406642	0.152306	-0.0698115	0.233718	0.00746875	0.0570167	
1.03452	1.22681	0	0	0.018393	0.252359	-0.117845	0.042683	-0.104038	-0.004962	-0.02304	0.116006	-0.013128	0.329513	-0.030511	0.277669	0.017101	0.253305	-0.010005	0.279226	0.041879	0.192397	0.006643	0.176717	-0.055095	0.064453	0.007545	0.179855	-0.036623	0.08785	0.044388	0.154775	-0.064008	0.23249	0.005529	0.062499	
1.03165	1.23138	0	0	0.0279157	0.25397	-0.126225	0.051277	-0.100595	-0.0028485	-0.02304	0.116006	-0.012222	0.326953	-0.030511	0.277669	0.017101	0.253305	-0.008885	0.276061	0.0383218	0.190747	0.006643	0.176717	-0.055095	0.064453	-0.00030875	0.184987	-0.042576	0.0890287	0.0417917	0.149119	-0.0744305	0.23161	0.0103763	0.0487998	
1.02733	1.22681	0	0	0.0374385	0.255581	-0.134604	0.059871	-0.0971515	-0.000735	-0.02304	0.116006	-0.011316	0.324393	-0.030511	0.277669	0.017101	0.253305	-0.007765	0.272896	0.0347645	0.189097	0.006643	0.176717	-0.055095	0.064453	-0.0081625	0.190118	-0.048529	0.0902075	0.0391955	0.143463	-0.084853	0.230731	0.0152235	0.0351005	
1.02167	1.22681	0	0	0.0469612	0.257192	-0.142983	0.068465	-0.0937082	0.0013785	-0.02304	0.116006	-0.01041	0.321833	-0.030511	0.277669	0.017101	0.253305	-0.006645	0.269731	0.0312072	0.187447	0.006643	0.176717	-0.055095	0.064453	-0.0160162	0.19525	-0.054482	0.0913863	0.0365992	0.137808	-0.0952755	0.229851	0.0200707	0.0214012	
1.01478	1.22681	0	0	0.056484	0.258803	-0.151363	0.077059	-0.090265	0.003492	-0.02304	0.116006	-0.009504	0.319273	-0.030511	0.277669	0.017101	0.253305	-0.005525	0.266566	0.02765	0.185797	0.006643	0.176717	-0.055095	0.064453	-0.02387	0.200382	-0.060435	0.092565	0.034003	0.132152	-0.105698	0.228971	0.024918	0.007702	
1.00689	1.22833	0	0	0.0540783	0.265602	-0.149927	0.0730025	-0.0922745	0.00917125	-0.0219823	0.113016	-0.0122223	0.326955	-0.0231557	0.272863	0.0159787	0.256477	-0.006645	0.269731	0.0267355	0.188381	0.005307	0.180493	-0.052443	0.0686532	-0.0174727	0.199367	-0.0569793	0.0984432	0.0328755	0.135339	-0.09872	0.224412	0.0239492	0.0104402	
0.998453	1.22833	0	0	0.0516725	0.272401	-0.148492	0.068946	-0.094284	0.0148505	-0.0209245	0.110027	-0.0149405	0.334637	-0.0158005	0.268057	0.0148565	0.259649	-0.007765	0.272896	0.025821	0.190966	0.003971	0.184268	-0.049791	0.0728535	-0.0110755	0.198351	-0.0535235	0.104321	0.031748	0.138525	-0.091742	0.219852	0.0229805	0.0131785	
0.98992	1.22528	0	0	0.0492667	0.2792	-0.147057	0.0648895	-0.0962935	0.0205297	-0.0198667	0.107038	-0.0176588	0.34232	-0.00844525	0.263251	0.0137342	0.26282	-0.008885	0.276061	0.0249065	0.193551	0.002635	0.188044	-0.047139	0.0770538	-0.00467825	0.197335	-0.0500678	0.1102	0.0306205	0.141711	-0.084764	0.215292	0.0220118	0.0159168	
0.981756	1.22528	0	0	0.046861	0.285999	-0.145621	0.060833	-0.098303	0.026209	-0.018809	0.104048	-0.020377	0.350002	-0.00109	0.258445	0.012612	0.265992	-0.010005	0.279226	0.023992	0.196135	0.001299	0.191819	-0.044487	0.081254	0.001719	0.19632	-0.046612	0.116078	0.029493	0.144898	-0.077786	0.210733	0.021043	0.018655	
0.974426	1.22986	0	0	0.0539865	0.294428	-0.141548	0.0644105	-0.096871	0.034014	-0.020925	0.110028	-0.020377	0.350002	-0.00109	0.258445	0.0114892	0.269165	-0.0143925	0.27966	0.0293785	0.192615	0.001299	0.191819	-0.0463087	0.0864028	0.0031755	0.192204	-0.046612	0.116078	0.0340007	0.132158	-0.0754285	0.204071	0.0197787	0.0110645	
0.968392	1.22528	0	0	0.061112	0.302858	-0.137476	0.067988	-0.095439	0.041819	-0.023041	0.116007	-0.020377	0.350002	-0.00109	0.258445	0.0103665	0.272339	-0.01878	0.280093	0.034765	0.189095	0.001299	0.191819	-0.0481305	0.0915515	0.004632	0.188087	-0.046612	0.116078	0.0385085	0.119418	-0.073071	0.197408	0.0185145	0.003474	
0.964115	1.22528	0	0	0.0682375	0.311287	-0.133403	0.0715655	-0.094007	0.049624	-0.025157	0.121987	-0.020377	0.350002	-0.00109	0.258445	0.00924375	0.275512	-0.0231675	0.280527	0.0401515	0.185576	0.001299	0.191819	-0.0499523	0.0967003	0.0060885	0.183971	-0.046612	0.116078	0.0430162	0.106679	-0.0707135	0.190746	0.0172503	-0.0041165	
0.962028	1.22528	0	0	0.075363	0.319716	-0.12933	0.075143	-0.092575	0.057429	-0.027273	0.127967	-0.020377	0.350002	-0.00109	0.258445	0.008121	0.278685	-0.027555	0.280961	0.045538	0.182056	0.001299	0.191819	-0.051774	0.101849	0.007545	0.179855	-0.046612	0.116078	0.047524	0.093939	-0.068356	0.184084	0.015986	-0.011707	
0.962113	1.22375	0	0	0.0771182	0.329055	-0.136274	0.0796805	-0.0891298	0.0595525	-0.032365	0.131294	-0.0230978	0.357691	-0.0100015	0.267649	0.00699775	0.281859	-0.0264355	0.277797	0.0437083	0.187227	-3.75E-05	0.195596	-0.0500345	0.108636	0.0060885	0.183971	-0.0431542	0.121965	0.0452707	0.100307	-0.0695345	0.187414	0.015018	-0.0089715	
0.964004	1.22528	0	0	0.0788735	0.338394	-0.143218	0.084218	-0.0856845	0.061676	-0.037457	0.134622	-0.0258185	0.365379	-0.018913	0.276853	0.0058745	0.285033	-0.025316	0.274633	0.0418785	0.192399	-0.001374	0.199373	-0.048295	0.115423	0.004632	0.188087	-0.0396965	0.127852	0.0430175	0.106675	-0.070713	0.190745	0.01405	-0.006236	
0.967325	1.22223	0	0	0.0806287	0.347734	-0.150163	0.0887555	-0.0822392	0.0637995	-0.042549	0.137949	-0.0285393	0.373068	-0.0278245	0.286058	0.00475125	0.288207	-0.0241965	0.271468	0.0400488	0.19757	-0.0027105	0.20315	-0.0465555	0.12221	0.0031755	0.192204	-0.0362388	0.133738	0.0407642	0.113042	-0.0718915	0.194076	0.013082	-0.0035005	
0.971703	1.2207	0	0	0.082384	0.357073	-0.157107	0.093293	-0.078794	0.065923	-0.047641	0.141276	-0.03126	0.380757	-0.036736	0.295262	0.003628	0.291381	-0.023077	0.268304	0.038219	0.202741	-0.004047	0.206927	-0.044816	0.128997	0.001719	0.19632	-0.032781	0.139625	0.038511	0.11941	-0.07307	0.197406	0.012114	-0.000765	
0.976761	1.22528	0	0	0.088309	0.368961	-0.150163	0.0887555	-0.0763547	0.070896	-0.0436073	0.14094	-0.0321673	0.383321	-0.0351797	0.290864	0.0073275	0.293847	-0.028581	0.2719	0.0363883	0.207915	-0.004047	0.206927	-0.041251	0.130633	0.0031755	0.192204	-0.032781	0.139625	0.038165	0.107404	-0.0776915	0.195306	0.0118163	-0.0110797	
0.982125	1.22223	0	0	0.094234	0.380848	-0.143218	0.084218	-0.0739155	0.075869	-0.0395735	0.140604	-0.0330745	0.385886	-0.0336235	0.286466	0.011027	0.296313	-0.034085	0.275497	0.0345575	0.213089	-0.004047	0.206927	-0.037686	0.132269	0.004632	0.188087	-0.032781	0.139625	0.037819	0.0953985	-0.082313	0.193206	0.0115185	-0.0213945	
0.987421	1.22528	0	0	0.100159	0.392736	-0.136274	0.0796805	-0.0714763	0.080842	-0.0355398	0.140268	-0.0339818	0.388451	-0.0320672	0.282067	0.0147265	0.298779	-0.039589	0.279093	0.0327267	0.218263	-0.004047	0.206927	-0.034121	0.133905	0.0060885	0.183971	-0.032781	0.139625	0.037473	0.0833928	-0.0869345	0.191106	0.0112207	-0.0317093	
0.992298	1.22528	0	0	0.106084	0.404624	-0.12933	0.075143	-0.069037	0.085815	-0.031506	0.139932	-0.034889	0.391015	-0.030511	0.277669	0.018426	0.301245	-0.045093	0.28269	0.030896	0.223437	-0.004047	0.206927	-0.030556	0.135541	0.007545	0.179855	-0.032781	0.139625	0.037127	0.071387	-0.091556	0.189006	0.010923	-0.042024	
0.99667	1.22375	0	0	0.107836	0.414005	-0.133642	0.0873295	-0.0686155	0.0964985	-0.038716	0.149245	-0.0346125	0.4007	-0.0336243	0.286467	0.0150518	0.310781	-0.045093	0.28269	0.038014	0.226748	-0.0122065	0.215164	-0.028816	0.142341	0.0060885	0.183971	-0.029322	0.14552	0.0360017	0.0745668	-0.092734	0.192335	0.010923	-0.042024	
1.00061	1.22528	0	0	0.109588	0.423387	-0.137954	0.099516	-0.068194	0.107182	-0.045926	0.158558	-0.034336	0.410386	-0.0367375	0.295266	0.0116775	0.320318	-0.045093	0.28269	0.045132	0.23006	-0.020366	0.2234	-0.027076	0.149141	0.004632	0.188087	-0.025863	0.151416	0.0348765	0.0777465	-0.093912	0.195664	0.010923	-0.042024	
1.00421	1.21918	0	0	0.11134	0.432769	-0.142266	0.111702	-0.0677725	0.117865	-0.053136	0.167871	-0.0340595	0.420071	-0.0398508	0.304065	0.00830325	0.329854	-0.045093	0.28269	0.05225	0.233372	-0.0285255	0.231636	-0.025336	0.155942	0.0031755	0.192204	-0.022404	0.157311	0.0337513	0.0809263	-0.09509	0.198993	0.010923	-0.042024	
1.00753	1.22375	0	0	0.113092	0.44215	-0.146578	0.123889	-0.067351	0.128549	-0.060346	0.177184	-0.033783	0.429756	-0.042964	0.312863	0.004929	0.33939	-0.045093	0.28269	0.059368	0.236683	-0.036685	0.239873	-0.023596	0.162742	0.001719	0.19632	-0.018945	0.163207	0.032626	0.084106	-0.096268	0.202322	0.010923	-0.042024	
1.01065	1.21918	0	0	0.121449	0.447232	-0.138191	0.115284	-0.0693707	0.134257	-0.0512185	0.173522	-0.0307812	0.431745	-0.0340518	0.303657	0.0086285	0.341865	-0.045093	0.28269	0.0566168	0.244459	-0.036685	0.239873	-0.023596	0.162742	-0.00467825	0.197335	-0.0236547	0.160846	0.032276	0.0721202	-0.0939125	0.195665	0.010621	-0.05232	
