0.697	2.80609	0	0	-0.244282	0.05729	-0.361979	-0.003981	-0.20957	0.077	-0.385418	0.064984	-0.279882	-0.013634	-0.280019	0.038374	-0.25065	0.004539	-0.24118	0.000882	-0.253885	0.064004	-0.287478	0.091548	-0.252592	0.122572	-0.370938	0.188122	-0.286924	0.015736	-0.302536	0.001766	-0.260207	-0.111294	-0.166725	0.059897	
0.692938	2.80609	0	0	-0.242402	0.0519773	-0.365575	-0.006757	-0.211151	0.070211	-0.384013	0.061014	-0.282135	-0.0183165	-0.285576	0.033163	-0.253588	-0.00088825	-0.246133	-0.00342675	-0.255679	0.069074	-0.295412	0.096732	-0.253666	0.125606	-0.373018	0.193999	-0.28279	0.0217165	-0.299984	0.00837525	-0.257746	-0.0956035	-0.168195	0.073962	
0.690743	2.81525	0	0	-0.240523	0.0466645	-0.369171	-0.009533	-0.212732	0.063422	-0.382609	0.057044	-0.284389	-0.022999	-0.291133	0.027952	-0.256526	-0.0063155	-0.251085	-0.0077355	-0.257473	0.074144	-0.303346	0.101916	-0.25474	0.12864	-0.375097	0.199877	-0.278656	0.027697	-0.297432	0.0149845	-0.255285	-0.079913	-0.169666	0.088027	
0.690144	2.81219	0	0	-0.238643	0.0413517	-0.372768	-0.012309	-0.214314	0.056633	-0.381204	0.053074	-0.286642	-0.0276815	-0.29669	0.022741	-0.259464	-0.0117427	-0.256038	-0.0120442	-0.259267	0.079214	-0.311279	0.1071	-0.255813	0.131674	-0.377176	0.205754	-0.274523	0.0336775	-0.294879	0.0215937	-0.252825	-0.0642225	-0.171136	0.102092	
0.690872	2.8183	0	0	-0.236763	0.036039	-0.376364	-0.015085	-0.215895	0.049844	-0.379799	0.049104	-0.288895	-0.032364	-0.302247	0.01753	-0.262402	-0.01717	-0.26099	-0.016353	-0.261061	0.084284	-0.319213	0.112284	-0.256887	0.134708	-0.379256	0.211631	-0.270389	0.039658	-0.292327	0.028203	-0.250364	-0.048532	-0.172606	0.116157	
0.692659	2.8183	0	0	-0.235823	0.0333838	-0.370409	-0.0189763	-0.215895	0.049844	-0.379799	0.049104	-0.288895	-0.032364	-0.302247	0.01753	-0.254956	-0.0244825	-0.265938	-0.0206563	-0.264083	0.0804132	-0.317677	0.107943	-0.263661	0.139134	-0.377176	0.205754	-0.270389	0.039658	-0.298689	0.03236	-0.24877	-0.0530368	-0.17002	0.108848	
0.695234	2.8183	0	0	-0.234884	0.0307285	-0.364453	-0.0228675	-0.215895	0.049844	-0.379799	0.049104	-0.288895	-0.032364	-0.302247	0.01753	-0.24751	-0.031795	-0.270886	-0.0249595	-0.267106	0.0765425	-0.316142	0.103603	-0.270435	0.14356	-0.375097	0.199877	-0.270389	0.039658	-0.305051	0.036517	-0.247176	-0.0575415	-0.167434	0.101539	
0.698329	2.8183	0	0	-0.233944	0.0280733	-0.358498	-0.0267587	-0.215895	0.049844	-0.379799	0.049104	-0.288895	-0.032364	-0.302247	0.01753	-0.240064	-0.0391075	-0.275834	-0.0292627	-0.270128	0.0726718	-0.314606	0.0992625	-0.277208	0.147987	-0.373018	0.193999	-0.270389	0.039658	-0.311412	0.040674	-0.245583	-0.0620462	-0.164847	0.09423	
0.701674	2.81677	0	0	-0.233005	0.025418	-0.352543	-0.03065	-0.215895	0.049844	-0.379799	0.049104	-0.288895	-0.032364	-0.302247	0.01753	-0.232618	-0.04642	-0.280782	-0.033566	-0.273151	0.068801	-0.31307	0.094922	-0.283982	0.152413	-0.370938	0.188122	-0.270389	0.039658	-0.317774	0.044831	-0.243989	-0.066551	-0.162261	0.086921	
0.705	2.81982	0	0	-0.227649	0.034175	-0.348943	-0.0278767	-0.210931	0.0583367	-0.382609	0.0570457	-0.287587	-0.0250112	-0.304281	0.0232788	-0.229674	-0.0409993	-0.274099	-0.0341655	-0.274944	0.0738695	-0.31307	0.094922	-0.279356	0.154058	-0.373018	0.193999	-0.271722	0.0434255	-0.307588	0.0436988	-0.235148	-0.0688648	-0.1614	0.0844857	
0.708038	2.81372	0	0	-0.222293	0.042932	-0.345342	-0.0251035	-0.205967	0.0668295	-0.38542	0.0649875	-0.286278	-0.0176585	-0.306315	0.0290275	-0.226731	-0.0355785	-0.267417	-0.034765	-0.276737	0.078938	-0.31307	0.094922	-0.27473	0.155702	-0.375097	0.199877	-0.273056	0.047193	-0.297402	0.0425665	-0.226307	-0.0711785	-0.160538	0.0820505	
0.710518	2.8183	0	0	-0.216936	0.051689	-0.341742	-0.0223303	-0.201003	0.0753223	-0.38823	0.0729293	-0.284969	-0.0103057	-0.30835	0.0347762	-0.223787	-0.0301578	-0.260734	-0.0353645	-0.278531	0.0840065	-0.31307	0.094922	-0.270105	0.157347	-0.377176	0.205754	-0.274389	0.0509605	-0.287216	0.0414342	-0.217465	-0.0734922	-0.159676	0.0796152	
0.712206	2.81982	0	0	-0.21158	0.060446	-0.338142	-0.019557	-0.196039	0.083815	-0.39104	0.080871	-0.283661	-0.002953	-0.310384	0.040525	-0.220843	-0.024737	-0.254051	-0.035964	-0.280324	0.089075	-0.31307	0.094922	-0.265479	0.158992	-0.379256	0.211631	-0.275722	0.054728	-0.27703	0.040302	-0.208624	-0.075806	-0.158815	0.07718	
0.713167	2.8183	0	0	-0.219755	0.059657	-0.336962	-0.0228913	-0.19694	0.086362	-0.396282	0.0812433	-0.281408	0.00173725	-0.310384	0.040525	-0.230551	-0.0110415	-0.254051	-0.035964	-0.274281	0.096829	-0.308208	0.098421	-0.26978	0.171146	-0.383419	0.223397	-0.271587	0.0607227	-0.274476	0.046927	-0.215008	-0.0577645	-0.151153	0.085289	
0.713614	2.81525	0	0	-0.227931	0.058868	-0.335782	-0.0262255	-0.197842	0.088909	-0.401525	0.0816155	-0.279156	0.0064275	-0.310384	0.040525	-0.240259	0.002654	-0.254051	-0.035964	-0.268237	0.104583	-0.303347	0.10192	-0.274081	0.183301	-0.387583	0.235163	-0.267452	0.0667175	-0.271922	0.053552	-0.221392	-0.039723	-0.143492	0.093398	
0.713761	2.8183	0	0	-0.236106	0.058079	-0.334603	-0.0295597	-0.198743	0.091456	-0.406768	0.0819877	-0.276903	0.0111177	-0.310384	0.040525	-0.249967	0.0163495	-0.254051	-0.035964	-0.262193	0.112337	-0.298486	0.105419	-0.278381	0.195456	-0.391746	0.24693	-0.263318	0.0727123	-0.269367	0.060177	-0.227775	-0.0216815	-0.135831	0.101507	
0.713823	2.81372	0	0	-0.244282	0.05729	-0.333423	-0.032894	-0.199644	0.094003	-0.41201	0.08236	-0.27465	0.015808	-0.310384	0.040525	-0.259675	0.030045	-0.254051	-0.035964	-0.25615	0.120091	-0.293624	0.108918	-0.282682	0.20761	-0.39591	0.258696	-0.259183	0.078707	-0.266813	0.066802	-0.234159	-0.00364	-0.128169	0.109616	
0.714015	2.81677	0	0	-0.246017	0.0502573	-0.334668	-0.0423243	-0.193555	0.0880665	-0.41444	0.0747957	-0.270504	0.0151542	-0.310384	0.040525	-0.252223	0.0227238	-0.254051	-0.035964	-0.260968	0.121288	-0.292087	0.104576	-0.281606	0.20457	-0.393827	0.252811	-0.253709	0.080934	-0.269361	0.074001	-0.225309	-0.00595075	-0.136192	0.122364	
0.714508	2.8183	0	0	-0.247752	0.0432245	-0.335913	-0.0517545	-0.187466	0.08213	-0.416871	0.0672315	-0.266358	0.0145005	-0.310384	0.040525	-0.24477	0.0154025	-0.254051	-0.035964	-0.265787	0.122484	-0.290551	0.100233	-0.280531	0.20153	-0.391745	0.246926	-0.248235	0.083161	-0.271908	0.0812	-0.216459	-0.0082615	-0.144215	0.135112	
0.715323	2.82287	0	0	-0.249486	0.0361918	-0.337157	-0.0611847	-0.181378	0.0761935	-0.419301	0.0596672	-0.262212	0.0138467	-0.310384	0.040525	-0.237318	0.00808125	-0.254051	-0.035964	-0.270605	0.12368	-0.289015	0.0958905	-0.279455	0.19849	-0.389662	0.241041	-0.242762	0.085388	-0.274456	0.088399	-0.20761	-0.0105723	-0.152237	0.14786	
0.716449	2.82287	0	0	-0.251221	0.029159	-0.338402	-0.070615	-0.175289	0.070257	-0.421731	0.052103	-0.258066	0.013193	-0.310384	0.040525	-0.229865	0.00076	-0.254051	-0.035964	-0.275424	0.124877	-0.287478	0.091548	-0.278379	0.19545	-0.38758	0.235156	-0.237288	0.087615	-0.277003	0.095598	-0.19876	-0.012883	-0.16026	0.160608	
0.717876	2.83203	0	0	-0.243989	0.0325998	-0.335978	-0.0645177	-0.169413	0.076213	-0.417896	0.0556972	-0.256758	0.0205655	-0.302793	0.0399873	-0.224665	-0.0001865	-0.249097	-0.0316608	-0.270605	0.12368	-0.289015	0.0958905	-0.272675	0.19406	-0.38758	0.235156	-0.245433	0.092937	-0.271902	0.0950338	-0.20761	-0.0105723	-0.163098	0.158709	
0.719591	2.83661	0	0	-0.236758	0.0360405	-0.333554	-0.0584205	-0.163537	0.082169	-0.414061	0.0592915	-0.255449	0.027938	-0.295202	0.0394495	-0.219464	-0.001133	-0.244142	-0.0273575	-0.265787	0.122484	-0.290551	0.100233	-0.266972	0.192671	-0.38758	0.235156	-0.253578	0.098259	-0.2668	0.0944695	-0.216459	-0.0082615	-0.165936	0.156809	
0.721586	2.83966	0	0	-0.229526	0.0394813	-0.33113	-0.0523233	-0.15766	0.088125	-0.410226	0.0628857	-0.25414	0.0353105	-0.28761	0.0389117	-0.214263	-0.0020795	-0.239187	-0.0230543	-0.260968	0.121288	-0.292087	0.104576	-0.261269	0.191281	-0.38758	0.235156	-0.261723	0.103581	-0.261699	0.0939052	-0.225309	-0.00595075	-0.168775	0.15491	
0.723882	2.84271	0	0	-0.222294	0.042922	-0.328706	-0.046226	-0.151784	0.094081	-0.406391	0.06648	-0.252832	0.042683	-0.280019	0.038374	-0.209063	-0.003026	-0.234233	-0.018751	-0.25615	0.120091	-0.293624	0.108918	-0.255565	0.189891	-0.38758	0.235156	-0.269868	0.108903	-0.256597	0.093341	-0.234159	-0.00364	-0.171613	0.153011	
0.726562	2.84881	0	0	-0.223382	0.0579473	-0.331065	-0.0395588	-0.15291	0.108554	-0.409201	0.0744217	-0.244166	0.0514422	-0.276496	0.049356	-0.209508	0.011993	-0.231013	-0.0095285	-0.2501	0.127861	-0.290297	0.11677	-0.259872	0.202062	-0.380805	0.239781	-0.264396	0.111136	-0.260423	0.104155	-0.216447	-0.0082675	-0.1668	0.159255	
0.729714	2.83966	0	0	-0.224469	0.0729725	-0.333424	-0.0328915	-0.154035	0.123027	-0.412011	0.0823635	-0.235501	0.0602015	-0.272973	0.060338	-0.209953	0.027012	-0.227793	-0.000306	-0.244051	0.135631	-0.286971	0.124621	-0.264178	0.214234	-0.37403	0.244405	-0.258925	0.11337	-0.26425	0.114969	-0.198736	-0.012895	-0.161986	0.165498	
0.733426	2.85339	0	0	-0.225557	0.0879977	-0.335783	-0.0262243	-0.155161	0.1375	-0.414821	0.0903053	-0.226835	0.0689608	-0.269449	0.07132	-0.210398	0.042031	-0.224572	0.0089165	-0.238001	0.143401	-0.283644	0.132473	-0.268485	0.226405	-0.367255	0.24903	-0.253453	0.115603	-0.268076	0.125783	-0.181024	-0.0175225	-0.157173	0.171741	
0.737786	2.84424	0	0	-0.226645	0.103023	-0.338142	-0.019557	-0.156287	0.151973	-0.417631	0.098247	-0.218169	0.07772	-0.265926	0.082302	-0.210843	0.05705	-0.221352	0.018139	-0.231951	0.151171	-0.280317	0.140325	-0.272792	0.238576	-0.36048	0.253655	-0.247982	0.117837	-0.271902	0.136597	-0.163312	-0.02215	-0.15236	0.177985	
0.74288	2.84271	0	0	-0.22382	0.0950385	-0.335783	-0.0262243	-0.155383	0.149418	-0.416226	0.0942753	-0.219118	0.080403	-0.267967	0.0880693	-0.208582	0.0506597	-0.21639	0.0224585	-0.229825	0.157608	-0.273908	0.139482	-0.269241	0.243282	-0.362565	0.259548	-0.241167	0.11629	-0.268075	0.139644	-0.168113	-0.008581	-0.149276	0.189135	
0.748568	2.83813	0	0	-0.220995	0.087054	-0.333424	-0.0328915	-0.154479	0.146863	-0.41482	0.0903035	-0.220068	0.083086	-0.270008	0.0938365	-0.206321	0.0442695	-0.211429	0.026778	-0.227699	0.164046	-0.267499	0.138639	-0.26569	0.247988	-0.36465	0.26544	-0.234352	0.114743	-0.264248	0.142691	-0.172915	0.004988	-0.146191	0.200285	
0.754385	2.83813	0	0	-0.218169	0.0790695	-0.331065	-0.0395588	-0.153575	0.144309	-0.413415	0.0863317	-0.221018	0.085769	-0.272048	0.0996038	-0.20406	0.0378793	-0.206467	0.0310975	-0.225573	0.170483	-0.26109	0.137797	-0.262139	0.252694	-0.366735	0.271333	-0.227537	0.113196	-0.260421	0.145739	-0.177716	0.018557	-0.143106	0.211434	
0.75984	2.84271	0	0	-0.215344	0.071085	-0.328706	-0.046226	-0.152671	0.141754	-0.41201	0.08236	-0.221967	0.088452	-0.274089	0.105371	-0.201799	0.031489	-0.201506	0.035417	-0.223447	0.17692	-0.254681	0.136954	-0.258588	0.2574	-0.36882	0.277226	-0.220722	0.111649	-0.256594	0.148786	-0.182517	0.032126	-0.140022	0.222584	
0.76444	2.84119	0	0	-0.216286	0.0737457	-0.325101	-0.0434555	-0.150183	0.146023	-0.406768	0.0819877	-0.21591	0.0824317	-0.266483	0.104838	-0.200669	0.0282955	-0.19654	0.039742	-0.224348	0.179467	-0.254681	0.136954	-0.25751	0.254353	-0.366735	0.271333	-0.227537	0.113196	-0.261698	0.149346	-0.188177	0.0253923	-0.136558	0.212794	
0.767695	2.84576	5	0	-0.217227	0.0764065	-0.321497	-0.040685	-0.147696	0.150291	-0.401525	0.0816155	-0.209853	0.0764115	-0.258877	0.104304	-0.199539	0.025102	-0.191574	0.044067	-0.225249	0.182013	-0.254681	0.136954	-0.256431	0.251305	-0.36465	0.26544	-0.234352	0.114743	-0.266802	0.149906	-0.193836	0.0186585	-0.133094	0.203005	
0.769114	2.85187	5	0	-0.218168	0.0790672	-0.317893	-0.0379145	-0.145208	0.15456	-0.396282	0.0812433	-0.203797	0.0703913	-0.25127	0.103771	-0.198409	0.0219085	-0.186609	0.048392	-0.22615	0.18456	-0.254681	0.136954	-0.255353	0.248258	-0.362565	0.259548	-0.241167	0.11629	-0.271905	0.150467	-0.199495	0.0119248	-0.12963	0.193216	
0.768466	2.86102	5	0	-0.21911	0.081728	-0.314288	-0.035144	-0.142721	0.158829	-0.39104	0.080871	-0.19774	0.064371	-0.243664	0.103238	-0.197279	0.018715	-0.181643	0.052717	-0.227051	0.187107	-0.254681	0.136954	-0.254275	0.24521	-0.36048	0.253655	-0.247982	0.117837	-0.277009	0.151027	-0.205155	0.005191	-0.126166	0.183426	
0.766099	2.86102	5	0	-0.216584	0.0985147	-0.308254	-0.0262558	-0.139557	0.172504	-0.39526	0.092797	-0.196429	0.071769	-0.238093	0.108479	-0.187989	0.0200127	-0.178418	0.06198	-0.224024	0.191006	-0.249806	0.140464	-0.249642	0.246869	-0.362565	0.259548	-0.246645	0.114058	-0.275732	0.147419	-0.203556	0.0006725	-0.124436	0.178535	
0.762441	2.84271	5	0	-0.214058	0.115302	-0.302221	-0.0173675	-0.136393	0.186179	-0.399479	0.104723	-0.195118	0.079167	-0.232521	0.113721	-0.178699	0.0213105	-0.175193	0.071243	-0.220997	0.194906	-0.244932	0.143974	-0.245009	0.248528	-0.36465	0.26544	-0.245308	0.11028	-0.274455	0.143812	-0.201958	-0.003846	-0.122705	0.173645	
0.757918	2.84119	5	0	-0.211533	0.132088	-0.296187	-0.00847925	-0.133229	0.199855	-0.403699	0.116649	-0.193807	0.086565	-0.22695	0.118962	-0.169409	0.0226082	-0.171967	0.080506	-0.21797	0.198805	-0.240058	0.147484	-0.240376	0.250188	-0.366735	0.271333	-0.243971	0.106501	-0.273179	0.140205	-0.200359	-0.0083645	-0.120974	0.168754	
0.752957	2.83661	5	0	-0.209007	0.148875	-0.290153	0.000409	-0.130065	0.21353	-0.407919	0.128575	-0.192496	0.093963	-0.221379	0.124204	-0.160119	0.023906	-0.168742	0.089769	-0.214943	0.202705	-0.235183	0.150994	-0.235743	0.251847	-0.36882	0.277226	-0.242634	0.102723	-0.271902	0.136597	-0.19876	-0.012883	-0.119244	0.163863	
0.747985	2.83356	5	0	-0.21074	0.141807	-0.294943	0.0009705	-0.131646	0.206687	-0.399859	0.120251	-0.196656	0.0946167	-0.231038	0.130516	-0.165331	0.0248548	-0.168742	0.089769	-0.211915	0.206609	-0.236725	0.155351	-0.237901	0.257947	-0.357865	0.270068	-0.243971	0.106501	-0.270626	0.132991	-0.201958	-0.00384375	-0.124439	0.178543	
0.743305	2.83203	5	0	-0.212473	0.134739	-0.299732	0.001532	-0.133228	0.199845	-0.391798	0.111926	-0.200816	0.0952705	-0.240698	0.136827	-0.170543	0.0258035	-0.168742	0.089769	-0.208886	0.210512	-0.238266	0.159709	-0.24006	0.264047	-0.346909	0.26291	-0.245308	0.11028	-0.26935	0.129385	-0.205156	0.0051955	-0.129633	0.193223	
0.738953	2.83508	5	0	-0.214207	0.127671	-0.304522	0.0020935	-0.134809	0.193002	-0.383738	0.103602	-0.204976	0.0959243	-0.250357	0.143139	-0.175755	0.0267522	-0.168742	0.089769	-0.205857	0.214416	-0.239808	0.164067	-0.242218	0.270147	-0.335954	0.255751	-0.246645	0.114058	-0.268075	0.125778	-0.208355	0.0142348	-0.134828	0.207904	
0.734928	2.83356	5	0	-0.21594	0.120603	-0.309312	0.002655	-0.136391	0.18616	-0.375678	0.095278	-0.209136	0.096578	-0.260016	0.14945	-0.180967	0.027701	-0.168742	0.089769	-0.202829	0.218319	-0.24135	0.168424	-0.244376	0.276247	-0.324999	0.248593	-0.247982	0.117837	-0.266799	0.122172	-0.211553	0.023274	-0.140022	0.222584	
0.731232	2.84271	5	0	-0.210432	0.117004	-0.298546	-0.00181125	-0.135486	0.183601	-0.377085	0.099255	-0.211394	0.0918635	-0.257971	0.143672	-0.186175	0.028648	-0.170488	0.0947043	-0.201024	0.213217	-0.24135	0.168424	-0.243297	0.273197	-0.335954	0.255751	-0.245309	0.110282	-0.26935	0.115529	-0.208355	0.0142347	-0.143972	0.213878	
0.727863	2.85797	5	0	-0.204925	0.113406	-0.28778	-0.0062775	-0.13458	0.181041	-0.378493	0.103232	-0.213652	0.087149	-0.255927	0.137894	-0.191383	0.029595	-0.172235	0.0996395	-0.199219	0.208116	-0.24135	0.168424	-0.242218	0.270146	-0.346909	0.26291	-0.242635	0.102726	-0.271901	0.108885	-0.205156	0.0051955	-0.147921	0.205173	
0.724823	2.87933	5	0	-0.199417	0.109808	-0.277015	-0.0107437	-0.133675	0.178482	-0.3799	0.107209	-0.215911	0.0824345	-0.253882	0.132115	-0.196591	0.030542	-0.173982	0.104575	-0.197413	0.203014	-0.24135	0.168424	-0.241138	0.267095	-0.357865	0.270068	-0.239961	0.0951705	-0.274452	0.102241	-0.201958	-0.00384375	-0.15187	0.196468	
0.722079	2.9068	5	0	-0.19391	0.106209	-0.266249	-0.01521	-0.132769	0.175923	-0.381307	0.111186	-0.218169	0.07772	-0.251837	0.126337	-0.201799	0.031489	-0.175728	0.10951	-0.195608	0.197912	-0.24135	0.168424	-0.240059	0.264045	-0.36882	0.277226	-0.237288	0.087615	-0.277003	0.095598	-0.19876	-0.012883	-0.15582	0.187762	
0.719565	2.93884	5	0	-0.195952	0.123954	-0.263818	-0.009089	-0.133	0.187888	-0.384123	0.119146	-0.219118	0.080403	-0.244222	0.125804	-0.198853	0.0369348	-0.175728	0.10951	-0.196511	0.200462	-0.24135	0.168424	-0.240059	0.264045	-0.366735	0.271333	-0.242762	0.085388	-0.279554	0.0889645	-0.19876	-0.012883	-0.156066	0.178532	
0.717207	2.97241	5	0	-0.197994	0.141699	-0.261386	-0.002968	-0.133231	0.199852	-0.386939	0.127106	-0.220068	0.083086	-0.236608	0.125271	-0.195907	0.0423805	-0.175728	0.10951	-0.197413	0.203013	-0.24135	0.168424	-0.240059	0.264045	-0.36465	0.26544	-0.248235	0.083161	-0.282105	0.082331	-0.19876	-0.012883	-0.156312	0.169301	
0.714935	3.0014	5	0	-0.200036	0.159443	-0.258954	0.003153	-0.133461	0.211817	-0.389756	0.135065	-0.221018	0.085769	-0.228993	0.124737	-0.192961	0.0478263	-0.175728	0.10951	-0.198316	0.205564	-0.24135	0.168424	-0.240059	0.264045	-0.362565	0.259548	-0.253709	0.080934	-0.284656	0.0756975	-0.19876	-0.012883	-0.156558	0.160071	
0.712676	3.03039	5	0	-0.202078	0.177188	-0.256523	0.009274	-0.133692	0.223782	-0.392572	0.143025	-0.221967	0.088452	-0.221379	0.124204	-0.190015	0.053272	-0.175728	0.10951	-0.199218	0.208114	-0.24135	0.168424	-0.240059	0.264045	-0.36048	0.253655	-0.259183	0.078707	-0.287207	0.069064	-0.19876	-0.012883	-0.156804	0.150841	
0.710381	3.06702	5	0	-0.202866	0.167442	-0.26132	0.0098375	-0.140476	0.220336	-0.391163	0.139044	-0.222327	0.07838	-0.22695	0.118962	-0.191831	0.0446327	-0.173982	0.104575	-0.199218	0.208114	-0.24135	0.168424	-0.23898	0.260995	-0.362565	0.259548	-0.260518	0.0824807	-0.292301	0.069628	-0.200359	-0.0083645	-0.159397	0.158168	
0.7082	3.09448	5	0	-0.203655	0.157695	-0.266116	0.010401	-0.14726	0.216891	-0.389755	0.135064	-0.222687	0.068308	-0.232521	0.113721	-0.193647	0.0359935	-0.172235	0.0996395	-0.199218	0.208114	-0.24135	0.168424	-0.237901	0.257946	-0.36465	0.26544	-0.261853	0.0862545	-0.297395	0.070192	-0.201958	-0.003846	-0.16199	0.165496	
0.706408	3.12195	5	0	-0.204443	0.147949	-0.270913	0.0109645	-0.154044	0.213446	-0.388346	0.131083	-0.223047	0.058236	-0.238093	0.108479	-0.195463	0.0273542	-0.170488	0.0947043	-0.199218	0.208114	-0.24135	0.168424	-0.236822	0.254896	-0.366735	0.271333	-0.263189	0.0900283	-0.302489	0.070756	-0.203556	0.0006725	-0.164582	0.172823	
0.705277	3.15704	5	0	-0.205231	0.138203	-0.27571	0.011528	-0.160828	0.21	-0.386938	0.127102	-0.223407	0.048164	-0.243664	0.103238	-0.197279	0.018715	-0.168742	0.089769	-0.199218	0.208114	-0.24135	0.168424	-0.235743	0.251847	-0.36882	0.277226	-0.264524	0.093802	-0.307583	0.07132	-0.205155	0.005191	-0.167175	0.18015	
0.705081	3.18756	5	0	-0.202401	0.130205	-0.264929	0.00705425	-0.157206	0.199765	-0.38028	0.122751	-0.225665	0.0434625	-0.241622	0.097467	-0.201354	0.01647	-0.175455	0.090363	-0.201346	0.201664	-0.238267	0.159711	-0.234664	0.248798	-0.364651	0.265444	-0.26052	0.0824855	-0.30886	0.0611075	-0.210809	-0.0015305	-0.170258	0.169028	
0.706093	3.20892	5	0	-0.19957	0.122206	-0.254148	0.0025805	-0.153585	0.189529	-0.373621	0.1184	-0.227924	0.038761	-0.23958	0.091696	-0.205429	0.014225	-0.182168	0.090957	-0.203473	0.195215	-0.235185	0.150998	-0.233586	0.24575	-0.360482	0.253663	-0.256516	0.071169	-0.310138	0.050895	-0.216463	-0.008252	-0.173341	0.157906	
0.708472	3.22418	5	0	-0.19674	0.114207	-0.243367	-0.00189325	-0.149963	0.179293	-0.366963	0.11405	-0.230182	0.0340595	-0.237538	0.085925	-0.209503	0.01198	-0.188881	0.091551	-0.2056	0.188765	-0.232102	0.142286	-0.232507	0.242702	-0.356314	0.241881	-0.252512	0.0598525	-0.311415	0.0406825	-0.222116	-0.0149735	-0.176424	0.146784	
0.711984	3.24097	5	0	-0.19391	0.106209	-0.232586	-0.006367	-0.146341	0.169058	-0.360305	0.109699	-0.23244	0.029358	-0.235496	0.080154	-0.213578	0.009735	-0.195594	0.092145	-0.207728	0.182315	-0.229019	0.133573	-0.231428	0.239653	-0.352145	0.230099	-0.248508	0.048536	-0.312692	0.03047	-0.22777	-0.021695	-0.179507	0.135662	
0.716312	3.24707	5	0	-0.193117	0.115943	-0.231335	0.00310925	-0.142948	0.170774	-0.357869	0.117293	-0.230546	0.0240055	-0.235496	0.080154	-0.207244	0.0055965	-0.195594	0.092145	-0.209856	0.175874	-0.227479	0.12922	-0.236062	0.237996	-0.352145	0.230099	-0.253978	0.0463165	-0.310153	0.023294	-0.21413	-0.0375425	-0.178895	0.124022	
0.72114	3.25165	5	0	-0.192325	0.125677	-0.230084	0.0125855	-0.139555	0.17249	-0.355433	0.124886	-0.228652	0.018653	-0.235496	0.080154	-0.200911	0.001458	-0.195594	0.092145	-0.211984	0.169434	-0.225938	0.124866	-0.240696	0.236339	-0.352145	0.230099	-0.259448	0.044097	-0.307614	0.016118	-0.200491	-0.05339	-0.178283	0.112381	
0.72615	3.26385	5	0	-0.191532	0.135411	-0.228833	0.0220617	-0.136162	0.174207	-0.352998	0.13248	-0.226758	0.0133005	-0.235496	0.080154	-0.194577	-0.0026805	-0.195594	0.092145	-0.214112	0.162994	-0.224397	0.120513	-0.245329	0.234682	-0.352145	0.230099	-0.264919	0.0418775	-0.305075	0.008942	-0.186851	-0.0692375	-0.177671	0.100741	
0.731026	3.27148	5	0	-0.19074	0.145145	-0.227582	0.031538	-0.132769	0.175923	-0.350562	0.140073	-0.224864	0.007948	-0.235496	0.080154	-0.188244	-0.006819	-0.195594	0.092145	-0.21624	0.156553	-0.222857	0.11616	-0.249963	0.233025	-0.352145	0.230099	-0.270389	0.039658	-0.302536	0.001766	-0.173211	-0.085085	-0.177059	0.089101	
0.735523	3.27759	5	0	-0.196097	0.136345	-0.220405	0.0242732	-0.142941	0.170776	-0.342483	0.131731	-0.229016	0.00860425	-0.243104	0.080691	-0.193449	-0.00587075	-0.200556	0.0878093	-0.218042	0.161645	-0.230813	0.121358	-0.244251	0.231635	-0.363086	0.237248	-0.270389	0.039658	-0.302536	0.001766	-0.185254	-0.073749	-0.175946	0.095865	
0.73954	3.27911	5	0	-0.201454	0.127545	-0.213227	0.0170085	-0.153114	0.16563	-0.334405	0.123389	-0.233167	0.0092605	-0.250711	0.081228	-0.198653	-0.0049225	-0.205518	0.0834735	-0.219843	0.166737	-0.238769	0.126557	-0.238539	0.230244	-0.374027	0.244397	-0.270389	0.039658	-0.302536	0.001766	-0.197298	-0.062413	-0.174833	0.102629	
0.742998	3.28064	5	0	-0.206812	0.118745	-0.206049	0.00974375	-0.163287	0.160484	-0.326326	0.115048	-0.237319	0.00991675	-0.258319	0.081765	-0.203858	-0.00397425	-0.21048	0.0791377	-0.221645	0.171828	-0.246725	0.131755	-0.232827	0.228853	-0.384969	0.251547	-0.270389	0.039658	-0.302536	0.001766	-0.209342	-0.051077	-0.173719	0.109393	
0.745817	3.28522	5	0	-0.212169	0.109945	-0.198872	0.002479	-0.173459	0.155337	-0.318248	0.106706	-0.241471	0.010573	-0.265926	0.082302	-0.209063	-0.003026	-0.215442	0.074802	-0.223447	0.17692	-0.254681	0.136954	-0.227115	0.227463	-0.39591	0.258696	-0.270389	0.039658	-0.302536	0.001766	-0.221385	-0.039741	-0.172606	0.116157	
0.747917	3.28979	5	0	-0.213904	0.102891	-0.19406	0.00190975	-0.174136	0.145967	-0.316839	0.102724	-0.238633	0.0025525	-0.256278	0.0759978	-0.212008	-0.00845375	-0.213699	0.0698775	-0.222874	0.162855	-0.26109	0.137797	-0.230672	0.222764	-0.393827	0.252811	-0.269057	0.0358923	-0.306356	-0.0012505	-0.221385	-0.039741	-0.178278	0.112372	
0.749218	3.30353	5	0	-0.215639	0.0958365	-0.189248	0.0013405	-0.174814	0.136598	-0.31543	0.0987415	-0.235795	-0.005468	-0.24663	0.0696935	-0.214953	-0.0138815	-0.211957	0.064953	-0.222301	0.14879	-0.267499	0.138639	-0.23423	0.218064	-0.391745	0.246926	-0.267725	0.0321265	-0.310176	-0.004267	-0.221385	-0.039741	-0.183949	0.108587	
0.749689	3.302	5	0	-0.217375	0.0887822	-0.184437	0.00077125	-0.175491	0.127228	-0.314021	0.0947592	-0.232957	-0.0134885	-0.236981	0.0633892	-0.217898	-0.0193093	-0.210214	0.0600285	-0.221729	0.134726	-0.273908	0.139482	-0.237787	0.213365	-0.389662	0.241041	-0.266392	0.0283607	-0.313995	-0.0072835	-0.221385	-0.039741	-0.189621	0.104801	
0.749399	3.302	5	0	-0.21911	0.081728	-0.179625	0.000202	-0.176169	0.117858	-0.312612	0.090777	-0.230119	-0.021509	-0.227333	0.057085	-0.220843	-0.024737	-0.208472	0.055104	-0.221156	0.120661	-0.280317	0.140325	-0.241344	0.208666	-0.38758	0.235156	-0.26506	0.024595	-0.317815	-0.0103	-0.221385	-0.039741	-0.195293	0.101016	
0.748429	3.30353	5	0	-0.211867	0.0851835	-0.167541	0.00519475	-0.172781	0.119568	-0.310167	0.0983688	-0.225021	-0.02484	-0.229374	0.0628522	-0.213387	-0.032058	-0.200022	0.0495828	-0.223285	0.114241	-0.27724	0.131629	-0.239191	0.20258	-0.374558	0.222126	-0.263728	0.0208307	-0.316547	-0.013883	-0.216601	-0.053262	-0.190989	0.0888507	
0.746861	3.302	5	0	-0.204624	0.088639	-0.155457	0.0101875	-0.169393	0.121277	-0.307723	0.10596	-0.219923	-0.028171	-0.231415	0.0686195	-0.205931	-0.039379	-0.191572	0.0440615	-0.225415	0.107822	-0.274163	0.122934	-0.237038	0.196494	-0.361536	0.209095	-0.262396	0.0170665	-0.31528	-0.017466	-0.211817	-0.066783	-0.186684	0.0766855	
0.744776	3.29895	5	0	-0.197382	0.0920945	-0.143374	0.0151802	-0.166005	0.122986	-0.305279	0.113552	-0.214825	-0.031502	-0.233455	0.0743868	-0.198475	-0.0467	-0.183123	0.0385402	-0.227544	0.101403	-0.271086	0.114238	-0.234884	0.190409	-0.348514	0.196065	-0.261064	0.0133022	-0.314012	-0.021049	-0.207032	-0.080304	-0.182379	0.0645203	
0.742256	3.30047	5	0	-0.190139	0.09555	-0.13129	0.020173	-0.162617	0.124696	-0.302834	0.121144	-0.209727	-0.034833	-0.235496	0.080154	-0.191019	-0.054021	-0.174673	0.033019	-0.229674	0.094983	-0.268009	0.105542	-0.232731	0.184323	-0.335492	0.183034	-0.259732	0.009538	-0.312744	-0.024632	-0.202248	-0.093825	-0.178075	0.052355	
0.739485	3.302	5	0	-0.196589	0.101813	-0.134854	0.030247	-0.168714	0.130642	-0.297566	0.120767	-0.20841	-0.027471	-0.229922	0.0853882	-0.188068	-0.0485995	-0.174673	0.033019	-0.226645	0.0988612	-0.263138	0.109044	-0.234884	0.190409	-0.339655	0.1948	-0.261064	0.0133022	-0.314012	-0.021049	-0.202248	-0.093825	-0.181518	0.062086	
0.736823	3.302	5	0	-0.203039	0.108076	-0.138419	0.040321	-0.174811	0.136589	-0.292298	0.120391	-0.207093	-0.020109	-0.224349	0.0906225	-0.185117	-0.043178	-0.174673	0.033019	-0.223616	0.102739	-0.258266	0.112546	-0.237038	0.196494	-0.343819	0.206566	-0.262396	0.0170665	-0.31528	-0.017466	-0.202248	-0.093825	-0.184962	0.071817	
0.73465	3.3081	5	0	-0.20949	0.11434	-0.141984	0.050395	-0.180908	0.142536	-0.28703	0.120014	-0.205777	-0.012747	-0.218775	0.0958568	-0.182166	-0.0377565	-0.174673	0.033019	-0.220588	0.106618	-0.253394	0.116048	-0.239191	0.20258	-0.347982	0.218333	-0.263728	0.0208307	-0.316547	-0.013883	-0.202248	-0.093825	-0.188405	0.081548	
0.733346	3.30658	5	0	-0.21594	0.120603	-0.145548	0.060469	-0.187005	0.148482	-0.281762	0.119638	-0.20446	-0.005385	-0.213201	0.101091	-0.179215	-0.032335	-0.174673	0.033019	-0.217559	0.110496	-0.248523	0.11955	-0.241344	0.208666	-0.352145	0.230099	-0.26506	0.024595	-0.317815	-0.0103	-0.202248	-0.093825	-0.191848	0.091279	
0.73329	3.30505	5	0	-0.217674	0.113546	-0.140724	0.0599003	-0.188584	0.141667	-0.280351	0.11565	-0.203514	-0.00806	-0.213201	0.101091	-0.175832	-0.041895	-0.174673	0.033019	-0.218792	0.101542	-0.245446	0.110854	-0.239191	0.20258	-0.361004	0.231363	-0.271857	0.0261427	-0.316547	-0.013883	-0.209498	-0.096009	-0.194682	0.0893893	
0.734853	3.30505	5	0	-0.219409	0.106488	-0.135899	0.0593315	-0.190163	0.134852	-0.27894	0.111662	-0.202567	-0.010735	-0.213201	0.101091	-0.17245	-0.051455	-0.174673	0.033019	-0.220025	0.092588	-0.242369	0.102158	-0.237038	0.196494	-0.369862	0.232627	-0.278655	0.0276905	-0.31528	-0.017466	-0.216748	-0.098193	-0.197516	0.0874995	
0.738058	3.29895	5	0	-0.221143	0.0994312	-0.131075	0.0587628	-0.191743	0.128038	-0.277529	0.107675	-0.20162	-0.01341	-0.213201	0.101091	-0.169067	-0.061015	-0.174673	0.033019	-0.221257	0.083634	-0.239292	0.0934627	-0.234884	0.190409	-0.378721	0.233892	-0.285452	0.0292383	-0.314012	-0.021049	-0.223997	-0.100377	-0.20035	0.0856097	
0.742483	3.2959	5	0	-0.222877	0.092374	-0.12625	0.058194	-0.193322	0.121223	-0.276118	0.103687	-0.200674	-0.016085	-0.213201	0.101091	-0.165684	-0.070575	-0.174673	0.033019	-0.22249	0.07468	-0.236215	0.084767	-0.232731	0.184323	-0.38758	0.235156	-0.292249	0.030786	-0.312744	-0.024632	-0.231247	-0.102561	-0.203184	0.08372	
0.747681	3.29437	5	0	-0.2202	0.0967667	-0.124993	0.0677165	-0.189937	0.122933	-0.270845	0.103307	-0.19557	-0.0194203	-0.207622	0.106333	-0.164557	-0.0737595	-0.174673	0.033019	-0.218901	0.0645375	-0.242626	0.085616	-0.231655	0.181282	-0.374558	0.222126	-0.289587	0.0232623	-0.31021	-0.0317935	-0.226475	-0.116048	-0.207128	0.075085	
0.753201	3.29895	5	0	-0.217523	0.101159	-0.123736	0.077239	-0.186551	0.124643	-0.265571	0.102928	-0.190466	-0.0227555	-0.202042	0.111575	-0.16343	-0.076944	-0.174673	0.033019	-0.215312	0.054395	-0.249037	0.086465	-0.230578	0.17824	-0.361536	0.209095	-0.286925	0.0157385	-0.307676	-0.038955	-0.221703	-0.129535	-0.211073	0.06645	
0.758595	3.29742	5	0	-0.214846	0.105552	-0.122479	0.0867615	-0.183165	0.126353	-0.260298	0.102548	-0.185361	-0.0260907	-0.196462	0.116817	-0.162304	-0.0801285	-0.174673	0.033019	-0.211724	0.0442525	-0.255449	0.087314	-0.229502	0.175199	-0.348514	0.196065	-0.284263	0.00821475	-0.305142	-0.0461165	-0.21693	-0.143022	-0.215018	0.057815	
0.763418	3.29132	5	0	-0.212169	0.109945	-0.121222	0.096284	-0.17978	0.128063	-0.255025	0.102168	-0.180257	-0.029426	-0.190883	0.122059	-0.161177	-0.083313	-0.174673	0.033019	-0.208135	0.03411	-0.26186	0.088163	-0.228426	0.172158	-0.335492	0.183034	-0.281601	0.000691	-0.302608	-0.053278	-0.212158	-0.156509	-0.218962	0.04918	
0.76748	3.27911	5	0	-0.212169	0.109945	-0.110365	0.091778	-0.18249	0.135721	-0.255025	0.102168	-0.174775	-0.022719	-0.18325	0.121519	-0.163431	-0.076943	-0.176416	0.0379435	-0.209929	0.0391797	-0.255449	0.087314	-0.229502	0.175199	-0.335492	0.183034	-0.281601	0.000691	-0.302608	-0.053278	-0.210569	-0.161	-0.21527	0.048635	
0.771009	3.27148	5	0	-0.212169	0.109945	-0.0995075	0.087272	-0.1852	0.143379	-0.255025	0.102168	-0.169293	-0.016012	-0.175616	0.12098	-0.165685	-0.070573	-0.178158	0.042868	-0.211722	0.0442495	-0.249037	0.086465	-0.230578	0.17824	-0.335492	0.183034	-0.281601	0.000691	-0.302608	-0.053278	-0.20898	-0.165491	-0.211579	0.04809	
0.774272	3.25928	5	0	-0.212169	0.109945	-0.0886502	0.082766	-0.187909	0.151037	-0.255025	0.102168	-0.163811	-0.009305	-0.167982	0.12044	-0.167939	-0.064203	-0.1799	0.0477925	-0.213516	0.0493193	-0.242626	0.085616	-0.231655	0.181282	-0.335492	0.183034	-0.281601	0.000691	-0.302608	-0.053278	-0.207391	-0.169982	-0.207887	0.047545	
0.777536	3.25012	5	0	-0.212169	0.109945	-0.077793	0.07826	-0.190619	0.158695	-0.255025	0.102168	-0.158329	-0.002598	-0.160349	0.1199	-0.170193	-0.057833	-0.181643	0.052717	-0.21531	0.054389	-0.236215	0.084767	-0.232731	0.184323	-0.335492	0.183034	-0.281601	0.000691	-0.302608	-0.053278	-0.205802	-0.174473	-0.204195	0.047	
0.781071	3.23791	5	0	-0.217522	0.101164	-0.0874593	0.0794003	-0.189716	0.156142	-0.258888	0.0985618	-0.156434	-0.00795375	-0.167982	0.12044	-0.165687	-0.0705682	-0.171442	0.0422655	-0.21262	0.0467853	-0.234678	0.0804223	-0.230579	0.178242	-0.333412	0.177157	-0.280271	-0.00306825	-0.307694	-0.052706	-0.214636	-0.172152	-0.212436	0.0505172	
0.785141	3.23028	5	0	-0.222875	0.0923835	-0.0971255	0.0805405	-0.188812	0.153589	-0.26275	0.0949555	-0.154539	-0.0133095	-0.175616	0.12098	-0.161181	-0.0833035	-0.161241	0.031814	-0.209929	0.0391815	-0.233141	0.0760775	-0.228427	0.17216	-0.331333	0.17128	-0.278941	-0.0068275	-0.31278	-0.052134	-0.22347	-0.16983	-0.220676	0.0540345	
0.789877	3.22265	5	0	-0.228228	0.0836028	-0.106792	0.0816807	-0.187909	0.151035	-0.266613	0.0913492	-0.152644	-0.0186653	-0.18325	0.121519	-0.156674	-0.0960388	-0.151041	0.0213625	-0.207238	0.0315778	-0.231603	0.0717327	-0.226275	0.166079	-0.329253	0.165402	-0.27761	-0.0105867	-0.317866	-0.051562	-0.232304	-0.167509	-0.228917	0.0575517	
0.794903	3.21655	5	0	-0.233581	0.074822	-0.116458	0.082821	-0.187005	0.148482	-0.270476	0.087743	-0.150749	-0.024021	-0.190883	0.122059	-0.152168	-0.108774	-0.14084	0.010911	-0.204548	0.023974	-0.230066	0.067388	-0.224123	0.159998	-0.327173	0.159525	-0.27628	-0.014346	-0.322952	-0.05099	-0.241138	-0.165188	-0.237158	0.061069	
0.799727	3.20282	5	0	-0.234522	0.077482	-0.110436	0.0788863	-0.181811	0.145088	-0.271886	0.091729	-0.149802	-0.0266975	-0.181202	0.115733	-0.151042	-0.111955	-0.142582	0.0158355	-0.20186	0.0163767	-0.228529	0.0630452	-0.221973	0.153921	-0.336036	0.160801	-0.273621	-0.0218602	-0.325504	-0.0575698	-0.234793	-0.183121	-0.232006	0.0465083	
0.80386	3.19977	5	0	-0.235463	0.080142	-0.104414	0.0749515	-0.176617	0.141695	-0.273297	0.095715	-0.148855	-0.029374	-0.171521	0.109407	-0.149917	-0.115136	-0.144324	0.02076	-0.199172	0.0087795	-0.226992	0.0587025	-0.219822	0.147843	-0.344899	0.162077	-0.270962	-0.0293745	-0.328055	-0.0641495	-0.228447	-0.201053	-0.226853	0.0319475	
0.80681	3.19672	5	0	-0.236405	0.082802	-0.098392	0.0710168	-0.171424	0.138301	-0.274707	0.099701	-0.147907	-0.0320505	-0.16184	0.103082	-0.148791	-0.118317	-0.146067	0.0256845	-0.196484	0.00118225	-0.225456	0.0543597	-0.217672	0.141765	-0.353762	0.163352	-0.268304	-0.0368887	-0.330607	-0.0707292	-0.222102	-0.218986	-0.221701	0.0173867	
0.808088	3.19214	5	0	-0.237346	0.085462	-0.09237	0.067082	-0.16623	0.134907	-0.276118	0.103687	-0.14696	-0.034727	-0.152159	0.096756	-0.147666	-0.121498	-0.147809	0.030609	-0.193796	-0.006415	-0.223919	0.050017	-0.215522	0.135688	-0.362625	0.164628	-0.265645	-0.044403	-0.333159	-0.077309	-0.215757	-0.236919	-0.216549	0.002826	
0.807235	3.18603	5	0	-0.238287	0.0881225	-0.0947522	0.0738142	-0.171424	0.138301	-0.277529	0.107675	-0.142794	-0.0353915	-0.154206	0.102542	-0.143579	-0.119276	-0.149553	0.0355362	-0.192553	0.00251025	-0.220575	0.0578528	-0.211958	0.140369	-0.355842	0.16923	-0.273767	-0.0390962	-0.333159	-0.077309	-0.215757	-0.236919	-0.216549	0.002826	
0.804338	3.18756	5	0	-0.239229	0.090783	-0.0971345	0.0805465	-0.176617	0.141695	-0.27894	0.111662	-0.138628	-0.036056	-0.156254	0.108328	-0.139492	-0.117055	-0.151296	0.0404635	-0.19131	0.0114355	-0.217232	0.0656885	-0.208394	0.145049	-0.349058	0.173831	-0.281888	-0.0337895	-0.333159	-0.077309	-0.215757	-0.236919	-0.216549	0.002826	
0.799942	3.19061	5	0	-0.240171	0.0934435	-0.0995168	0.0872788	-0.181811	0.145088	-0.280351	0.11565	-0.134462	-0.0367205	-0.158301	0.114114	-0.135406	-0.114834	-0.153039	0.0453908	-0.190067	0.0203607	-0.213888	0.0735242	-0.20483	0.14973	-0.342275	0.178432	-0.290009	-0.0284827	-0.333159	-0.077309	-0.215757	-0.236919	-0.216549	0.002826	
0.794605	3.19519	5	0	-0.241112	0.096104	-0.101899	0.094011	-0.187005	0.148482	-0.281762	0.119638	-0.130296	-0.037385	-0.160349	0.1199	-0.131319	-0.112612	-0.154783	0.050318	-0.188824	0.029286	-0.210544	0.08136	-0.201266	0.154411	-0.335492	0.183034	-0.298131	-0.023176	-0.333159	-0.077309	-0.215757	-0.236919	-0.216549	0.002826	
0.788887	3.19672	5	0	-0.241904	0.0864005	-0.0995168	0.0872788	-0.187682	0.139118	-0.281762	0.119638	-0.135787	-0.04408	-0.160349	0.1199	-0.13428	-0.118013	-0.154783	0.050318	-0.185238	0.019152	-0.213888	0.0735242	-0.20483	0.14973	-0.333412	0.177157	-0.296802	-0.0269305	-0.330631	-0.0844535	-0.222999	-0.23907	-0.225894	-0.00038225	
0.783345	3.20129	5	0	-0.242697	0.076697	-0.0971345	0.0805465	-0.18836	0.129753	-0.281762	0.119638	-0.141278	-0.050775	-0.160349	0.1199	-0.137242	-0.123415	-0.154783	0.050318	-0.181652	0.009018	-0.217232	0.0656885	-0.208394	0.145049	-0.331333	0.17128	-0.295474	-0.030685	-0.328103	-0.091598	-0.230241	-0.241221	-0.235239	-0.0035905	
0.778534	3.2074	5	0	-0.243489	0.0669935	-0.0947522	0.0738142	-0.189037	0.120388	-0.281762	0.119638	-0.146768	-0.05747	-0.160349	0.1199	-0.140203	-0.128816	-0.154783	0.050318	-0.178067	-0.001116	-0.220575	0.0578528	-0.211958	0.140369	-0.329253	0.165402	-0.294146	-0.0344395	-0.325575	-0.0987425	-0.237482	-0.243372	-0.244585	-0.00679875	
0.774712	3.2074	5	0	-0.244282	0.05729	-0.09237	0.067082	-0.189714	0.111024	-0.281762	0.119638	-0.152259	-0.064165	-0.160349	0.1199	-0.143165	-0.134217	-0.154783	0.050318	-0.174481	-0.01125	-0.223919	0.050017	-0.215522	0.135688	-0.327173	0.159525	-0.292817	-0.038194	-0.323047	-0.105887	-0.244724	-0.245523	-0.25393	-0.010007	
0.771675	3.21045	5	0	-0.240666	0.059014	-0.0911097	0.0766142	-0.184523	0.107632	-0.276489	0.11926	-0.15453	-0.0688432	-0.160349	0.1199	-0.14204	-0.137396	-0.156527	0.055248	-0.17931	-0.0100412	-0.225456	0.0543597	-0.213373	0.129615	-0.325095	0.153651	-0.299603	-0.0366452	-0.321784	-0.109457	-0.251957	-0.247673	-0.253332	-0.0215583	
0.769175	3.20434	5	0	-0.23705	0.060738	-0.0898495	0.0861465	-0.179333	0.10424	-0.271217	0.118882	-0.156801	-0.0735215	-0.160349	0.1199	-0.140915	-0.140574	-0.158272	0.060178	-0.184138	-0.0088325	-0.226992	0.0587025	-0.211224	0.123542	-0.323016	0.147778	-0.306389	-0.0350965	-0.32052	-0.113027	-0.259189	-0.249824	-0.252735	-0.0331095	
0.766967	3.20892	5	0	-0.233434	0.062462	-0.0885893	0.0956788	-0.174142	0.100849	-0.265945	0.118504	-0.159072	-0.0781997	-0.160349	0.1199	-0.139791	-0.143753	-0.160017	0.065108	-0.188967	-0.00762375	-0.228529	0.0630452	-0.209075	0.117469	-0.320938	0.141905	-0.313175	-0.0335478	-0.319257	-0.116597	-0.266421	-0.251974	-0.252138	-0.0446607	
0.764804	3.20892	5	0	-0.229818	0.064186	-0.087329	0.105211	-0.168951	0.097457	-0.260672	0.118126	-0.161343	-0.082878	-0.160349	0.1199	-0.138666	-0.146932	-0.161761	0.070038	-0.193796	-0.006415	-0.230066	0.067388	-0.206926	0.111396	-0.31886	0.136031	-0.319961	-0.031999	-0.317994	-0.120167	-0.273654	-0.254124	-0.25154	-0.056212	
0.762441	3.20434	5	0	-0.227798	0.0465333	-0.0885893	0.0956788	-0.172121	0.0838665	-0.25926	0.114137	-0.164558	-0.0848825	-0.160349	0.1199	-0.151329	-0.138658	-0.163506	0.0749708	-0.189863	-0.00509125	-0.231603	0.0717327	-0.206926	0.111396	-0.331879	0.149054	-0.311847	-0.037301	-0.319257	-0.116597	-0.266421	-0.251974	-0.248712	-0.0543415	
0.759745	3.20282	5	0	-0.225777	0.0288805	-0.0898495	0.0861465	-0.175291	0.070276	-0.257849	0.110147	-0.167773	-0.086887	-0.160349	0.1199	-0.163991	-0.130384	-0.165251	0.0799035	-0.18593	-0.0037675	-0.233141	0.0760775	-0.206926	0.111396	-0.344899	0.162077	-0.303733	-0.042603	-0.32052	-0.113027	-0.259189	-0.249824	-0.245885	-0.052471	
0.756817	3.19214	5	0	-0.223757	0.0112278	-0.0911097	0.0766142	-0.17846	0.0566855	-0.256437	0.106157	-0.170988	-0.0888915	-0.160349	0.1199	-0.176654	-0.12211	-0.166997	0.0848363	-0.181998	-0.00244375	-0.234678	0.0804223	-0.206926	0.111396	-0.357918	0.175099	-0.295619	-0.047905	-0.321784	-0.109457	-0.251957	-0.247673	-0.243057	-0.0506005	
0.753786	3.18909	5	0	-0.221737	-0.006425	-0.09237	0.067082	-0.18163	0.043095	-0.255025	0.102168	-0.174203	-0.090896	-0.160349	0.1199	-0.189316	-0.113836	-0.168742	0.089769	-0.178065	-0.00112	-0.236215	0.084767	-0.206926	0.111396	-0.370938	0.188122	-0.287505	-0.053207	-0.323047	-0.105887	-0.244724	-0.245523	-0.240229	-0.04873	
0.750783	3.18451	5	0	-0.221604	-0.0187355	-0.0839632	0.0564168	-0.181419	0.031234	-0.246925	0.0938092	-0.177798	-0.102895	-0.165936	0.114658	-0.184821	-0.12654	-0.166997	0.0848363	-0.187718	0.0012945	-0.236215	0.084767	-0.21049	0.106727	-0.36886	0.182249	-0.292965	-0.0554067	-0.326864	-0.108881	-0.239978	-0.258936	-0.242465	-0.0621298	
0.747938	3.1784	5	0	-0.221472	-0.031046	-0.0755565	0.0457515	-0.181208	0.019373	-0.238824	0.0854505	-0.181393	-0.114894	-0.171524	0.109415	-0.180326	-0.139243	-0.165251	0.0799035	-0.197372	0.003709	-0.236215	0.084767	-0.214054	0.102058	-0.366781	0.176375	-0.298424	-0.0576065	-0.330681	-0.111875	-0.235232	-0.272348	-0.244702	-0.0755295	
0.74538	3.17383	5	0	-0.221339	-0.0433565	-0.0671497	0.0350862	-0.180997	0.007512	-0.230724	0.0770918	-0.184989	-0.126894	-0.177112	0.104173	-0.175831	-0.151947	-0.163506	0.0749708	-0.207025	0.0061235	-0.236215	0.084767	-0.217618	0.0973897	-0.364703	0.170502	-0.303884	-0.0598062	-0.334498	-0.11487	-0.230486	-0.285761	-0.246938	-0.0889293	
0.743234	3.16772	5	0	-0.221207	-0.055667	-0.058743	0.024421	-0.180786	-0.004349	-0.222624	0.068733	-0.188584	-0.138893	-0.182699	0.09893	-0.171336	-0.164651	-0.161761	0.070038	-0.216678	0.008538	-0.236215	0.084767	-0.221182	0.092721	-0.362625	0.164628	-0.309344	-0.062006	-0.338315	-0.117864	-0.22574	-0.299174	-0.249174	-0.102329	
0.741613	3.16315	5	0	-0.222144	-0.053019	-0.058743	0.024421	-0.182584	0.000731	-0.229313	0.073104	-0.190853	-0.143551	-0.190325	0.0994703	-0.172459	-0.161477	-0.160017	0.065108	-0.210062	0.00226875	-0.236215	0.084767	-0.225816	0.0910877	-0.362625	0.164628	-0.305367	-0.0732465	-0.337053	-0.121431	-0.232977	-0.301311	-0.250294	-0.109016	
0.740629	3.15857	5	0	-0.223081	-0.050371	-0.058743	0.024421	-0.184381	0.005811	-0.236003	0.077475	-0.193122	-0.148208	-0.19795	0.100011	-0.173583	-0.158303	-0.158272	0.060178	-0.203446	-0.0040005	-0.236215	0.084767	-0.230451	0.0894545	-0.362625	0.164628	-0.301389	-0.084487	-0.33579	-0.124998	-0.240214	-0.303447	-0.251414	-0.115702	
0.740396	3.15399	5	0	-0.224018	-0.047723	-0.058743	0.024421	-0.186178	0.010891	-0.242692	0.081846	-0.195391	-0.152866	-0.205575	0.100551	-0.174706	-0.155128	-0.156527	0.055248	-0.196829	-0.0102698	-0.236215	0.084767	-0.235085	0.0878213	-0.362625	0.164628	-0.297412	-0.0957275	-0.334528	-0.128566	-0.247452	-0.305584	-0.252535	-0.122388	
0.741024	3.14636	5	0	-0.224955	-0.045075	-0.058743	0.024421	-0.187976	0.015971	-0.249381	0.086217	-0.19766	-0.157524	-0.213201	0.101091	-0.175829	-0.151954	-0.154783	0.050318	-0.190213	-0.016539	-0.236215	0.084767	-0.239719	0.086188	-0.362625	0.164628	-0.293435	-0.106968	-0.333266	-0.132133	-0.254689	-0.307721	-0.253655	-0.129075	
0.742622	3.14331	5	0	-0.233926	-0.0554827	-0.063661	0.012142	-0.192049	0.00497275	-0.250427	0.0746513	-0.202197	-0.166824	-0.216734	0.0900895	-0.176541	-0.163681	-0.159755	0.0459932	-0.195934	-0.0128008	-0.236215	0.084767	-0.238647	0.0831583	-0.360548	0.158758	-0.296086	-0.0994758	-0.334528	-0.128566	-0.249033	-0.301116	-0.257069	-0.119425	
0.745083	3.13568	5	0	-0.242897	-0.0658905	-0.068579	-0.000137	-0.196122	-0.0060255	-0.251474	0.0630855	-0.206733	-0.176123	-0.220267	0.079088	-0.177254	-0.175409	-0.164728	0.0416685	-0.201655	-0.0090625	-0.236215	0.084767	-0.237574	0.0801285	-0.358471	0.152888	-0.298737	-0.0919835	-0.33579	-0.124998	-0.243377	-0.29451	-0.260483	-0.109776	
0.747949	3.13263	5	0	-0.251868	-0.0762983	-0.073497	-0.012416	-0.200194	-0.0170237	-0.25252	0.0515198	-0.211269	-0.185423	-0.2238	0.0680865	-0.177966	-0.187136	-0.169701	0.0373438	-0.207375	-0.00532425	-0.236215	0.084767	-0.236502	0.0770987	-0.356394	0.147019	-0.301388	-0.0844912	-0.337053	-0.121431	-0.237721	-0.287905	-0.263898	-0.100127	
0.750733	3.12958	5	0	-0.260839	-0.086706	-0.078415	-0.024695	-0.204267	-0.028022	-0.253567	0.039954	-0.215806	-0.194723	-0.227333	0.057085	-0.178678	-0.198863	-0.174673	0.033019	-0.213096	-0.001586	-0.236215	0.084767	-0.23543	0.074069	-0.354317	0.141149	-0.304039	-0.076999	-0.338315	-0.117864	-0.232065	-0.281299	-0.267312	-0.090477	
0.752944	3.12652	5	0	-0.261647	-0.0963268	-0.079688	-0.034172	-0.205855	-0.0347775	-0.252159	0.0359753	-0.22034	-0.204002	-0.225294	0.0513215	-0.181635	-0.204236	-0.172931	0.028097	-0.216128	-0.00543925	-0.242626	0.085616	-0.23899	0.0694117	-0.352241	0.135283	-0.308169	-0.082938	-0.337053	-0.121431	-0.239301	-0.28344	-0.267577	-0.099576	
0.754095	3.12652	5	0	-0.262455	-0.105948	-0.080961	-0.043649	-0.207444	-0.041533	-0.250751	0.0319965	-0.224875	-0.213281	-0.223255	0.045558	-0.184592	-0.209609	-0.17119	0.023175	-0.21916	-0.0092925	-0.249037	0.086465	-0.24255	0.0647545	-0.350166	0.129417	-0.3123	-0.088877	-0.33579	-0.124998	-0.246536	-0.285582	-0.267842	-0.108675	
0.753702	3.12042	5	0	-0.263264	-0.115568	-0.082234	-0.053126	-0.209032	-0.0482885	-0.249343	0.0280178	-0.22941	-0.22256	-0.221215	0.0397945	-0.18755	-0.214982	-0.169449	0.018253	-0.222191	-0.0131458	-0.255449	0.087314	-0.24611	0.0600973	-0.348091	0.123552	-0.316431	-0.094816	-0.334528	-0.128566	-0.253772	-0.287724	-0.268106	-0.117774	
0.751575	3.12042	5	0	-0.264072	-0.125189	-0.083507	-0.062603	-0.21062	-0.055044	-0.247935	0.024039	-0.233944	-0.231839	-0.219176	0.034031	-0.190507	-0.220355	-0.167707	0.013331	-0.225223	-0.016999	-0.26186	0.088163	-0.24967	0.05544	-0.346015	0.117686	-0.320561	-0.100755	-0.333266	-0.132133	-0.261008	-0.289865	-0.268371	-0.126873	
0.74805	3.1189	5	0	-0.263264	-0.115568	-0.0955302	-0.054747	-0.209929	-0.0457525	-0.257431	0.0363625	-0.228861	-0.23516	-0.228824	0.0403353	-0.18755	-0.214982	-0.169449	0.018253	-0.218612	-0.0232627	-0.26186	0.088163	-0.24967	0.05544	-0.356942	0.124826	-0.312455	-0.106052	-0.333266	-0.132133	-0.261008	-0.289865	-0.268371	-0.126873	
0.743513	3.11737	5	0	-0.262455	-0.105948	-0.107553	-0.046891	-0.209238	-0.036461	-0.266926	0.048686	-0.223778	-0.238482	-0.238473	0.0466395	-0.184592	-0.209609	-0.17119	0.023175	-0.212	-0.0295265	-0.26186	0.088163	-0.24967	0.05544	-0.36787	0.131966	-0.304349	-0.111348	-0.333266	-0.132133	-0.261008	-0.289865	-0.268371	-0.126873	
0.738349	3.1189	5	0	-0.261647	-0.0963268	-0.119577	-0.039035	-0.208547	-0.0271695	-0.276421	0.0610095	-0.218695	-0.241803	-0.248121	0.0529437	-0.181635	-0.204236	-0.172931	0.028097	-0.205389	-0.0357903	-0.26186	0.088163	-0.24967	0.05544	-0.378797	0.139107	-0.296242	-0.116645	-0.333266	-0.132133	-0.261008	-0.289865	-0.268371	-0.126873	
0.732945	3.12652	5	0	-0.260839	-0.086706	-0.1316	-0.031179	-0.207856	-0.017878	-0.285917	0.073333	-0.213612	-0.245124	-0.257769	0.059248	-0.178678	-0.198863	-0.174673	0.033019	-0.198777	-0.042054	-0.26186	0.088163	-0.24967	0.05544	-0.389724	0.146247	-0.288136	-0.121942	-0.333266	-0.132133	-0.261008	-0.289865	-0.268371	-0.126873	
0.727682	3.12805	5	0	-0.267123	-0.0927488	-0.134051	-0.0372987	-0.208547	-0.0271695	-0.2831	0.0653735	-0.217757	-0.244454	-0.248121	0.0529437	-0.186119	-0.191564	-0.181381	0.0336185	-0.207178	-0.0307318	-0.264935	0.0968545	-0.250741	0.0584667	-0.3918	0.152113	-0.292112	-0.110706	-0.331975	-0.122	-0.256937	-0.278779	-0.267845	-0.108661	
0.722784	3.13263	5	0	-0.273407	-0.0987915	-0.136502	-0.0434185	-0.209238	-0.036461	-0.280284	0.057414	-0.221902	-0.243784	-0.238473	0.0466395	-0.19356	-0.184265	-0.188089	0.034218	-0.21558	-0.0194095	-0.26801	0.105546	-0.251812	0.0614935	-0.393876	0.157978	-0.296088	-0.0994705	-0.330684	-0.111867	-0.252866	-0.267694	-0.267319	-0.090448	
0.718291	3.13721	5	0	-0.279691	-0.104834	-0.138954	-0.0495382	-0.209929	-0.0457525	-0.277467	0.0494545	-0.226047	-0.243114	-0.228824	0.0403353	-0.201002	-0.176966	-0.194798	0.0348175	-0.223981	-0.00808725	-0.271086	0.114237	-0.252883	0.0645203	-0.395951	0.163844	-0.300063	-0.0882348	-0.329393	-0.101734	-0.248795	-0.256609	-0.266793	-0.0722355	
0.714238	3.14484	5	0	-0.285975	-0.110877	-0.141405	-0.055658	-0.21062	-0.055044	-0.274651	0.041495	-0.230192	-0.242444	-0.219176	0.034031	-0.208443	-0.169667	-0.201506	0.035417	-0.232382	0.003235	-0.274161	0.122929	-0.253954	0.067547	-0.398027	0.16971	-0.304039	-0.076999	-0.328102	-0.091601	-0.244724	-0.245523	-0.266267	-0.054023	
0.710655	3.15246	5	0	-0.284108	-0.116152	-0.1354	-0.059582	-0.208828	-0.060108	-0.276059	0.045474	-0.230192	-0.242444	-0.221215	0.0397945	-0.207321	-0.172837	-0.194798	0.0348175	-0.230592	-0.0018235	-0.272623	0.118582	-0.252883	0.0645203	-0.3871	0.16257	-0.304039	-0.076999	-0.328102	-0.091601	-0.246308	-0.241048	-0.264557	-0.0588555	
0.707574	3.15246	5	0	-0.282242	-0.121427	-0.129394	-0.063506	-0.207036	-0.065172	-0.277467	0.049453	-0.230192	-0.242444	-0.223255	0.045558	-0.2062	-0.176007	-0.188089	0.034218	-0.228803	-0.006882	-0.271085	0.114235	-0.251812	0.0614935	-0.376172	0.155429	-0.304039	-0.076999	-0.328102	-0.091601	-0.247891	-0.236572	-0.262847	-0.063688	
0.705031	3.15094	5	0	-0.280375	-0.126702	-0.123389	-0.06743	-0.205244	-0.070236	-0.278875	0.053432	-0.230192	-0.242444	-0.225294	0.0513215	-0.205078	-0.179176	-0.181381	0.0336185	-0.227013	-0.0119405	-0.269547	0.109889	-0.250741	0.0584667	-0.365244	0.148289	-0.304039	-0.076999	-0.328102	-0.091601	-0.249474	-0.232097	-0.261137	-0.0685205	
0.703075	3.15094	5	0	-0.278509	-0.131977	-0.117384	-0.071354	-0.203452	-0.0753	-0.280283	0.057411	-0.230192	-0.242444	-0.227333	0.057085	-0.203957	-0.182346	-0.174673	0.033019	-0.225223	-0.016999	-0.268009	0.105542	-0.24967	0.05544	-0.354317	0.141149	-0.304039	-0.076999	-0.328102	-0.091601	-0.251058	-0.227622	-0.259427	-0.073353	
0.70176	3.14941	5	0	-0.274091	-0.120659	-0.1173	-0.0585347	-0.203656	-0.0634805	-0.277831	0.064994	-0.224716	-0.235825	-0.221756	0.0623117	-0.194679	-0.181095	-0.176416	0.0379435	-0.225223	-0.016999	-0.260061	0.100348	-0.250741	0.0584667	-0.356394	0.147019	-0.304039	-0.076999	-0.324284	-0.0886013	-0.251058	-0.227622	-0.259427	-0.073353	
0.701143	3.14941	5	0	-0.269674	-0.109342	-0.117216	-0.0457155	-0.203859	-0.051661	-0.275379	0.072577	-0.219241	-0.229206	-0.21618	0.0675385	-0.185401	-0.179845	-0.178158	0.042868	-0.225223	-0.016999	-0.252112	0.0951545	-0.251812	0.0614935	-0.358471	0.152888	-0.304039	-0.076999	-0.320465	-0.0856015	-0.251058	-0.227622	-0.259427	-0.073353	
0.701281	3.14636	5	0	-0.265257	-0.0980238	-0.117132	-0.0328963	-0.204063	-0.0398415	-0.272928	0.08016	-0.213765	-0.222586	-0.210603	0.0727653	-0.176123	-0.178594	-0.1799	0.0477925	-0.225223	-0.016999	-0.244164	0.0899607	-0.252883	0.0645203	-0.360548	0.158758	-0.304039	-0.076999	-0.316646	-0.0826018	-0.251058	-0.227622	-0.259427	-0.073353	
0.702228	3.14331	5	0	-0.260839	-0.086706	-0.117048	-0.020077	-0.204267	-0.028022	-0.270476	0.087743	-0.208289	-0.215967	-0.205027	0.077992	-0.166845	-0.177343	-0.181643	0.052717	-0.225223	-0.016999	-0.236215	0.084767	-0.253954	0.067547	-0.362625	0.164628	-0.304039	-0.076999	-0.312828	-0.079602	-0.251058	-0.227622	-0.259427	-0.073353	
0.703991	3.14026	5	0	-0.263515	-0.0910488	-0.121871	-0.019502	-0.202473	-0.033092	-0.269066	0.0837587	-0.205079	-0.213981	-0.20707	0.0837668	-0.169091	-0.170996	-0.181643	0.052717	-0.223983	-0.00808325	-0.240832	0.0978137	-0.256097	0.0736037	-0.355842	0.16923	-0.299905	-0.071051	-0.312807	-0.0658595	-0.248578	-0.212013	-0.255225	-0.0556398	
0.706454	3.13263	5	0	-0.26619	-0.0953915	-0.126695	-0.018927	-0.200679	-0.038162	-0.267656	0.0797745	-0.20187	-0.211996	-0.209114	0.0895415	-0.171337	-0.164649	-0.181643	0.052717	-0.222743	0.0008325	-0.245448	0.110861	-0.25824	0.0796605	-0.349058	0.173831	-0.295772	-0.065103	-0.312786	-0.052117	-0.246098	-0.196405	-0.251024	-0.0379265	
0.709488	3.1311	5	0	-0.268866	-0.0997342	-0.131518	-0.018352	-0.198885	-0.043232	-0.266247	0.0757903	-0.19866	-0.21001	-0.211157	0.0953163	-0.173583	-0.158301	-0.181643	0.052717	-0.221502	0.00974825	-0.250065	0.123907	-0.260383	0.0857172	-0.342275	0.178432	-0.291639	-0.059155	-0.312765	-0.0383745	-0.243618	-0.180796	-0.246822	-0.0202133	
0.712959	3.12805	5	0	-0.271542	-0.104077	-0.136342	-0.017777	-0.197091	-0.048302	-0.264837	0.071806	-0.19545	-0.208024	-0.213201	0.101091	-0.175829	-0.151954	-0.181643	0.052717	-0.220262	0.018664	-0.254681	0.136954	-0.262526	0.091774	-0.335492	0.183034	-0.287505	-0.053207	-0.312744	-0.024632	-0.241138	-0.165188	-0.24262	-0.0025	
0.716737	3.12652	5	0	-0.271542	-0.104077	-0.137528	-0.0144253	-0.197988	-0.0457672	-0.264837	0.071806	-0.19639	-0.205367	-0.213201	0.101091	-0.175829	-0.151954	-0.174928	0.0521173	-0.217575	0.011071	-0.253142	0.132603	-0.261454	0.088745	-0.335492	0.183034	-0.298276	-0.0403972	-0.307655	-0.0252028	-0.242726	-0.160699	-0.244335	0.002347	
0.720689	3.12652	5	0	-0.271542	-0.104077	-0.138713	-0.0110735	-0.198884	-0.0432325	-0.264837	0.071806	-0.19733	-0.20271	-0.213201	0.101091	-0.175829	-0.151954	-0.168213	0.0515175	-0.214889	0.003478	-0.251602	0.128252	-0.260382	0.085716	-0.335492	0.183034	-0.309047	-0.0275875	-0.302566	-0.0257735	-0.244314	-0.15621	-0.24605	0.007194	
0.724701	3.12195	5	0	-0.271542	-0.104077	-0.139899	-0.00772175	-0.199781	-0.0406978	-0.264837	0.071806	-0.19827	-0.200054	-0.213201	0.101091	-0.175829	-0.151954	-0.161498	0.0509177	-0.212202	-0.004115	-0.250062	0.123901	-0.259311	0.082687	-0.335492	0.183034	-0.319817	-0.0147777	-0.297476	-0.0263442	-0.245903	-0.151721	-0.247765	0.012041	
0.72868	3.12195	5	0	-0.271542	-0.104077	-0.141085	-0.00437	-0.200678	-0.038163	-0.264837	0.071806	-0.19921	-0.197397	-0.213201	0.101091	-0.175829	-0.151954	-0.154783	0.050318	-0.209515	-0.011708	-0.248523	0.11955	-0.258239	0.079658	-0.335492	0.183034	-0.330588	-0.001968	-0.292387	-0.026915	-0.247491	-0.147232	-0.24948	0.016888	
0.732531	3.12195	5	0	-0.267125	-0.092742	-0.13381	0.00119325	-0.194806	-0.0322485	-0.262384	0.0793965	-0.194669	-0.188096	-0.209669	0.112119	-0.173997	-0.143381	-0.158273	0.0601808	-0.21041	-0.0091775	-0.248523	0.11955	-0.253609	0.0812905	-0.337573	0.188915	-0.317011	-0.0050625	-0.289832	-0.0203142	-0.25067	-0.138247	-0.246652	0.0187685	
0.736161	3.12042	5	0	-0.262709	-0.081407	-0.126535	0.0067565	-0.188935	-0.026334	-0.259931	0.086987	-0.190128	-0.178796	-0.206137	0.123147	-0.172164	-0.134808	-0.161763	0.0700435	-0.211306	-0.006647	-0.248523	0.11955	-0.248979	0.082923	-0.339653	0.194796	-0.303434	-0.008157	-0.287276	-0.0137135	-0.253849	-0.129263	-0.243824	0.020649	
0.739477	3.12195	5	0	-0.258292	-0.070072	-0.119261	0.0123198	-0.183063	-0.0204195	-0.257478	0.0945775	-0.185587	-0.169495	-0.202604	0.134175	-0.170332	-0.126236	-0.165252	0.0799062	-0.212201	-0.0041165	-0.248523	0.11955	-0.244349	0.0845555	-0.341734	0.200678	-0.289857	-0.0112515	-0.284721	-0.00711275	-0.257028	-0.120279	-0.240996	0.0225295	
0.742389	3.1189	5	0	-0.253875	-0.058737	-0.111986	0.017883	-0.177192	-0.014505	-0.255025	0.102168	-0.181046	-0.160195	-0.199072	0.145203	-0.1685	-0.117663	-0.168742	0.089769	-0.213096	-0.001586	-0.248523	0.11955	-0.239719	0.086188	-0.343815	0.206559	-0.27628	-0.014346	-0.282166	-0.000512	-0.260207	-0.111294	-0.238168	0.02441	
0.744858	3.11584	5	0	-0.259496	-0.0428507	-0.121565	0.03189	-0.183486	0.0032825	-0.255025	0.102168	-0.183492	-0.142206	-0.203171	0.156786	-0.163713	-0.103661	-0.165517	0.099051	-0.207028	0.006132	-0.245188	0.127411	-0.237231	0.0938883	-0.347981	0.218333	-0.281604	0.00070125	-0.284699	0.0204795	-0.259341	-0.0910965	-0.230283	0.0416705	
0.746903	3.11127	5	0	-0.265117	-0.0269645	-0.131145	0.045897	-0.18978	0.02107	-0.255025	0.102168	-0.185938	-0.124217	-0.207269	0.168369	-0.158925	-0.089658	-0.162293	0.108333	-0.20096	0.01385	-0.241853	0.135272	-0.234744	0.101588	-0.352148	0.230107	-0.286929	0.0157485	-0.287232	0.041471	-0.258475	-0.070899	-0.222398	0.058931	
0.748542	3.11127	5	0	-0.270738	-0.0110783	-0.140725	0.059904	-0.196074	0.0388575	-0.255025	0.102168	-0.188384	-0.106227	-0.211367	0.179952	-0.154138	-0.0756555	-0.159068	0.117615	-0.194892	0.021568	-0.238518	0.143133	-0.232257	0.109289	-0.356314	0.241881	-0.292253	0.0307958	-0.289765	0.0624625	-0.257609	-0.0507015	-0.214513	0.0761915	
0.749795	3.10669	5	0	-0.276359	0.004808	-0.150304	0.073911	-0.202368	0.056645	-0.255025	0.102168	-0.19083	-0.088238	-0.215466	0.191535	-0.14935	-0.061653	-0.155843	0.126897	-0.188824	0.029286	-0.235183	0.150994	-0.229769	0.116989	-0.36048	0.253655	-0.297577	0.045843	-0.292298	0.083454	-0.256743	-0.030504	-0.206628	0.093452	
0.750682	3.10821	5	0	-0.277297	0.00745825	-0.150304	0.073911	-0.203268	0.059189	-0.268388	0.1109	-0.191774	-0.0855692	-0.207836	0.191007	-0.14935	-0.061653	-0.157592	0.13184	-0.189721	0.0318212	-0.235183	0.150994	-0.230843	0.120024	-0.364652	0.265445	-0.294781	0.0556038	-0.284648	0.089529	-0.255893	-0.0102327	-0.210694	0.114842	
0.75122	3.10516	5	0	-0.278235	0.0101085	-0.150304	0.073911	-0.204169	0.061733	-0.281751	0.119632	-0.192719	-0.0829005	-0.200207	0.190478	-0.14935	-0.061653	-0.159342	0.136784	-0.190618	0.0343565	-0.235183	0.150994	-0.231917	0.123059	-0.368823	0.277234	-0.291985	0.0653645	-0.276998	0.095604	-0.255043	0.0100385	-0.214759	0.136233	
0.751389	3.10364	5	0	-0.279172	0.0127588	-0.150304	0.073911	-0.205069	0.064277	-0.295115	0.128363	-0.193663	-0.0802317	-0.192578	0.189949	-0.14935	-0.061653	-0.161091	0.141728	-0.191515	0.0368918	-0.235183	0.150994	-0.232991	0.126094	-0.372995	0.289023	-0.289189	0.0751253	-0.269347	0.101679	-0.254194	0.0303097	-0.218825	0.157623	
0.751129	3.10516	5	0	-0.28011	0.015409	-0.150304	0.073911	-0.205969	0.066821	-0.308478	0.137095	-0.194607	-0.077563	-0.184948	0.189421	-0.14935	-0.061653	-0.16284	0.146671	-0.192412	0.039427	-0.235183	0.150994	-0.234065	0.129129	-0.377166	0.300813	-0.286393	0.084886	-0.261697	0.107754	-0.253344	0.050581	-0.222891	0.179013	
0.750378	3.10516	5	0	-0.276646	0.0294688	-0.150243	0.0868032	-0.205289	0.076164	-0.299352	0.140337	-0.188182	-0.073549	-0.189055	0.201027	-0.151607	-0.0552762	-0.157867	0.151029	-0.193309	0.041963	-0.235183	0.150994	-0.235139	0.132165	-0.366211	0.293654	-0.280926	0.087115	-0.265525	0.118572	-0.244497	0.048277	-0.223754	0.181453	
0.749075	3.10516	5	0	-0.273182	0.0435285	-0.150181	0.0996955	-0.204609	0.085507	-0.290226	0.143579	-0.181756	-0.069535	-0.193161	0.212633	-0.153863	-0.0488995	-0.152893	0.155386	-0.194207	0.044499	-0.235183	0.150994	-0.236213	0.135201	-0.355256	0.286496	-0.275458	0.089344	-0.269353	0.12939	-0.23565	0.045973	-0.224618	0.183893	
0.747157	3.10669	5	0	-0.269719	0.0575883	-0.150119	0.112588	-0.203929	0.09485	-0.281099	0.146822	-0.175331	-0.065521	-0.197267	0.224238	-0.156119	-0.0425227	-0.147919	0.159744	-0.195105	0.047035	-0.235183	0.150994	-0.237288	0.138237	-0.3443	0.279338	-0.269991	0.091573	-0.273181	0.140209	-0.226802	0.043669	-0.225482	0.186334	
0.744574	3.10821	5	0	-0.266255	0.071648	-0.150058	0.12548	-0.203249	0.104193	-0.271973	0.150064	-0.168905	-0.061507	-0.201374	0.235844	-0.158376	-0.036146	-0.142946	0.164102	-0.196002	0.049571	-0.235183	0.150994	-0.238362	0.141273	-0.333345	0.272179	-0.264524	0.093802	-0.277009	0.151027	-0.217955	0.041365	-0.226345	0.188774	
0.741514	3.10821	5	0	-0.262954	0.0981498	-0.14637	0.141217	-0.200092	0.117818	-0.277631	0.166054	-0.169476	-0.0487962	-0.203429	0.241652	-0.153595	-0.0220837	-0.148205	0.178965	-0.194764	0.058519	-0.231848	0.158869	-0.235878	0.148994	-0.328643	0.282725	-0.267197	0.101354	-0.269354	0.15713	-0.213904	0.0526448	-0.220682	0.192583	
0.738393	3.10516	5	0	-0.259654	0.124651	-0.142682	0.156953	-0.196934	0.131444	-0.283289	0.182044	-0.170048	-0.0360855	-0.205485	0.247461	-0.148814	-0.0080215	-0.153465	0.193829	-0.193526	0.067467	-0.228512	0.166745	-0.233394	0.156716	-0.323942	0.293272	-0.269869	0.108906	-0.261699	0.163234	-0.209853	0.0639245	-0.215019	0.196392	
0.735635	3.10211	5	0	-0.256354	0.151153	-0.138994	0.172689	-0.193777	0.14507	-0.288947	0.198035	-0.170619	-0.0233747	-0.20754	0.253269	-0.144034	0.00604075	-0.158724	0.208693	-0.192288	0.076415	-0.225177	0.17462	-0.23091	0.164437	-0.319241	0.303818	-0.272541	0.116459	-0.254044	0.169337	-0.205802	0.0752043	-0.209355	0.200202	
0.733664	3.10058	5	0	-0.253053	0.177655	-0.135306	0.188426	-0.190619	0.158695	-0.294605	0.214025	-0.17119	-0.010664	-0.209595	0.259078	-0.139253	0.020103	-0.163983	0.223556	-0.19105	0.085363	-0.221841	0.182496	-0.228426	0.172158	-0.314539	0.314364	-0.275214	0.124011	-0.246389	0.17544	-0.201751	0.086484	-0.203692	0.204011	
0.732905	3.10058	5	0	-0.249438	0.179397	-0.12928	0.184488	-0.188812	0.153589	-0.287915	0.209654	-0.172511	-0.0180287	-0.219276	0.265404	-0.143338	0.017858	-0.163983	0.223556	-0.191949	0.0879032	-0.229804	0.187699	-0.229502	0.175199	-0.314539	0.314364	-0.279227	0.135351	-0.250228	0.186289	-0.196094	0.0932508	-0.208884	0.218684	
0.733745	3.09753	5	0	-0.245822	0.181139	-0.123254	0.180551	-0.187005	0.148483	-0.281226	0.205283	-0.173831	-0.0253935	-0.228957	0.271729	-0.147424	0.015613	-0.163983	0.223556	-0.192848	0.0904435	-0.237767	0.192902	-0.230578	0.17824	-0.314539	0.314364	-0.283239	0.146692	-0.254066	0.197138	-0.190436	0.100018	-0.214076	0.233356	
0.736147	3.09601	5	0	-0.242207	0.18288	-0.117227	0.176613	-0.185199	0.143377	-0.274537	0.200912	-0.175151	-0.0327583	-0.238638	0.278055	-0.15151	0.013368	-0.163983	0.223556	-0.193747	0.0929838	-0.245731	0.198106	-0.231655	0.181282	-0.314539	0.314364	-0.287251	0.158032	-0.257905	0.207987	-0.184779	0.106784	-0.219267	0.248029	
0.739786	3.09448	5	0	-0.238592	0.184622	-0.111201	0.172675	-0.183392	0.138271	-0.267847	0.196541	-0.176472	-0.040123	-0.248319	0.284381	-0.155595	0.011123	-0.163983	0.223556	-0.194646	0.095524	-0.253694	0.203309	-0.232731	0.184323	-0.314539	0.314364	-0.291264	0.169373	-0.261744	0.218836	-0.179121	0.113551	-0.224459	0.262701	
0.744335	3.0899	5	0	-0.226786	0.187178	-0.112396	0.176052	-0.178198	0.134877	-0.269263	0.200543	-0.184786	-0.0388005	-0.246264	0.278573	-0.155595	0.011123	-0.172458	0.229094	-0.193747	0.0929838	-0.253694	0.203309	-0.231655	0.181282	-0.316631	0.320276	-0.289926	0.165591	-0.261744	0.218836	-0.179121	0.113551	-0.226423	0.258342	
0.749466	3.08533	5	0	-0.214979	0.189734	-0.11359	0.179429	-0.173005	0.131484	-0.270679	0.204545	-0.193099	-0.037478	-0.244208	0.272764	-0.155595	0.011123	-0.180933	0.234631	-0.192848	0.0904435	-0.253694	0.203309	-0.230578	0.17824	-0.318723	0.326188	-0.288588	0.161809	-0.261744	0.218836	-0.179121	0.113551	-0.228387	0.253983	
0.754849	3.08227	5	0	-0.203173	0.19229	-0.114785	0.182806	-0.167811	0.12809	-0.272095	0.208547	-0.201413	-0.0361555	-0.242153	0.266956	-0.155595	0.011123	-0.189408	0.240169	-0.191949	0.0879032	-0.253694	0.203309	-0.229502	0.175199	-0.320815	0.332101	-0.28725	0.158028	-0.261744	0.218836	-0.179121	0.113551	-0.230351	0.249624	
0.760155	3.07922	5	0	-0.191367	0.194846	-0.11598	0.186183	-0.162617	0.124696	-0.273511	0.212549	-0.209727	-0.034833	-0.240098	0.261147	-0.155595	0.011123	-0.197883	0.245707	-0.19105	0.085363	-0.253694	0.203309	-0.228426	0.172158	-0.322907	0.338013	-0.285912	0.154246	-0.261744	0.218836	-0.179121	0.113551	-0.232315	0.245265	
0.765007	3.07464	5	0	-0.197049	0.210903	-0.11598	0.186183	-0.16804	0.140023	-0.273511	0.212549	-0.212565	-0.0268128	-0.247714	0.261661	-0.160121	0.023913	-0.197883	0.245707	-0.193747	0.0929862	-0.255238	0.207673	-0.236287	0.179633	-0.322907	0.338013	-0.285912	0.154246	-0.261744	0.218836	-0.179121	0.113551	-0.227754	0.242285	
0.768995	3.07312	5	0	-0.202731	0.226961	-0.11598	0.186183	-0.173463	0.15535	-0.273511	0.212549	-0.215402	-0.0187925	-0.25533	0.262174	-0.164647	0.036703	-0.197883	0.245707	-0.196445	0.100609	-0.256782	0.212036	-0.244148	0.187107	-0.322907	0.338013	-0.285912	0.154246	-0.261744	0.218836	-0.179121	0.113551	-0.223193	0.239305	
0.771709	3.07159	5	0	-0.208412	0.243018	-0.11598	0.186183	-0.178887	0.170677	-0.273511	0.212549	-0.21824	-0.0107722	-0.262946	0.262688	-0.169172	0.049493	-0.197883	0.245707	-0.199143	0.108233	-0.258326	0.2164	-0.252009	0.194582	-0.322907	0.338013	-0.285912	0.154246	-0.261744	0.218836	-0.179121	0.113551	-0.218632	0.236324	
0.772737	3.06396	5	0	-0.214094	0.259076	-0.11598	0.186183	-0.18431	0.186004	-0.273511	0.212549	-0.221078	-0.002752	-0.270562	0.263202	-0.173698	0.062283	-0.197883	0.245707	-0.20184	0.115856	-0.25987	0.220764	-0.25987	0.202056	-0.322907	0.338013	-0.285912	0.154246	-0.261744	0.218836	-0.179121	0.113551	-0.214071	0.233344	
0.771668	3.06244	5	0	-0.216767	0.254647	-0.122059	0.177183	-0.186791	0.181731	-0.285469	0.217285	-0.225598	-0.012125	-0.274067	0.252122	-0.181854	0.057779	-0.20109	0.236376	-0.207568	0.119599	-0.266282	0.221599	-0.25987	0.202056	-0.333876	0.345181	-0.285912	0.154246	-0.266849	0.219391	-0.191201	0.124936	-0.222095	0.246111	
0.768109	3.05939	5	0	-0.219439	0.250218	-0.128137	0.168183	-0.189272	0.177458	-0.297426	0.222022	-0.230118	-0.021498	-0.277572	0.241041	-0.190009	0.053275	-0.204298	0.227045	-0.213296	0.123342	-0.272694	0.222434	-0.25987	0.202056	-0.344846	0.352348	-0.285912	0.154246	-0.271954	0.219946	-0.203282	0.136321	-0.230119	0.258879	
0.762226	3.05481	5	0	-0.222112	0.245789	-0.134215	0.159184	-0.191753	0.173185	-0.309383	0.226759	-0.234638	-0.030871	-0.281078	0.229961	-0.198164	0.048771	-0.207505	0.217713	-0.219025	0.127085	-0.279106	0.223268	-0.25987	0.202056	-0.355815	0.359515	-0.285912	0.154246	-0.27706	0.2205	-0.215362	0.147705	-0.238143	0.271646	
0.754839	3.05176	5	0	-0.224784	0.24136	-0.140294	0.150184	-0.194234	0.168912	-0.321341	0.231495	-0.239158	-0.040244	-0.284583	0.218881	-0.20632	0.044267	-0.210712	0.208382	-0.224753	0.130828	-0.285518	0.224103	-0.25987	0.202056	-0.366784	0.366683	-0.285912	0.154246	-0.282165	0.221055	-0.227442	0.15909	-0.246167	0.284413	
0.746804	3.04718	5	0	-0.227456	0.236936	-0.142735	0.144008	-0.196714	0.164643	-0.326604	0.231859	-0.244619	-0.0469308	-0.290135	0.21361	-0.209263	0.038825	-0.217419	0.20896	-0.226882	0.124406	-0.29038	0.220576	-0.271271	0.204831	-0.373557	0.36202	-0.291374	0.152004	-0.289806	0.214934	-0.233084	0.152308	-0.250089	0.275692	
0.738977	3.0487	5	0	-0.230127	0.232512	-0.145176	0.137832	-0.199194	0.160375	-0.331868	0.232223	-0.25008	-0.0536175	-0.295687	0.208338	-0.212207	0.033383	-0.224127	0.209537	-0.22901	0.117983	-0.295243	0.217048	-0.282672	0.207605	-0.380329	0.357358	-0.296837	0.149762	-0.297447	0.208813	-0.238727	0.145526	-0.25401	0.266972	
0.732215	3.04565	5	0	-0.232799	0.228088	-0.147617	0.131656	-0.201675	0.156107	-0.337132	0.232587	-0.255542	-0.0603042	-0.30124	0.203067	-0.215151	0.027941	-0.230834	0.210115	-0.231138	0.111561	-0.300106	0.213521	-0.294074	0.21038	-0.387102	0.352695	-0.302299	0.147521	-0.305089	0.202691	-0.244369	0.138744	-0.257932	0.258251	
0.727325	3.04108	5	0	-0.23547	0.223664	-0.150058	0.12548	-0.204155	0.151838	-0.342395	0.232951	-0.261003	-0.066991	-0.306792	0.197796	-0.218094	0.022499	-0.237541	0.210693	-0.233267	0.105139	-0.304968	0.209993	-0.305475	0.213155	-0.393875	0.348033	-0.307762	0.145279	-0.31273	0.19657	-0.250011	0.131962	-0.261854	0.24953	
0.72438	3.03345	5	0	-0.23831	0.231689	-0.154881	0.126043	-0.207769	0.162053	-0.345226	0.240953	-0.26289	-0.0616575	-0.306792	0.197796	-0.220354	0.028885	-0.234042	0.200803	-0.235065	0.110219	-0.306511	0.214353	-0.305475	0.213155	-0.38083	0.33497	-0.314555	0.146814	-0.311453	0.19296	-0.248406	0.127427	-0.258397	0.239759	
0.722889	3.0365	5	0	-0.241149	0.239714	-0.159703	0.126605	-0.211384	0.172268	-0.348058	0.248955	-0.264777	-0.056324	-0.306792	0.197796	-0.222614	0.035271	-0.230542	0.190913	-0.236862	0.115298	-0.308053	0.218712	-0.305475	0.213155	-0.367786	0.321908	-0.321348	0.148349	-0.310175	0.189349	-0.246802	0.122893	-0.254939	0.229988	
0.722345	3.03345	5	0	-0.243988	0.247739	-0.164525	0.127168	-0.214999	0.182483	-0.35089	0.256958	-0.266664	-0.0509905	-0.306792	0.197796	-0.224873	0.041657	-0.227042	0.181023	-0.238659	0.120378	-0.309596	0.223072	-0.305475	0.213155	-0.354741	0.308845	-0.328141	0.149884	-0.308897	0.185739	-0.245198	0.118358	-0.251482	0.220218	
0.722243	3.03039	5	0	-0.246828	0.255764	-0.169348	0.12773	-0.218613	0.192698	-0.353721	0.26496	-0.268551	-0.045657	-0.306792	0.197796	-0.227133	0.048043	-0.223543	0.171133	-0.240457	0.125458	-0.311138	0.227431	-0.305475	0.213155	-0.341697	0.295782	-0.334934	0.151419	-0.30762	0.182128	-0.243593	0.113824	-0.248025	0.210447	
0.722074	3.02887	5	0	-0.250273	0.241575	-0.165777	0.117637	-0.121985	0.123668	-0.347042	0.260596	-0.269864	-0.0529973	-0.306792	0.197796	-0.222615	0.0352758	-0.230245	0.171714	-0.249199	0.125313	-0.308054	0.218714	-0.310093	0.211501	-0.350564	0.29704	-0.334934	0.151419	-0.311438	0.179075	-0.243593	0.113824	-0.258225	0.209609	
0.721395	3.03192	5	0	-0.253718	0.227386	-0.162206	0.107545	-0.0253565	0.0546385	-0.340364	0.256232	-0.271177	-0.0603375	-0.306792	0.197796	-0.218098	0.0225085	-0.236947	0.172294	-0.257941	0.125167	-0.30497	0.209997	-0.314712	0.209846	-0.359432	0.298297	-0.334934	0.151419	-0.315256	0.176021	-0.243593	0.113824	-0.268426	0.20877	
0.720175	3.03192	5	0	-0.257163	0.213197	-0.158634	0.0974518	0.0712718	-0.0143912	-0.333685	0.251867	-0.27249	-0.0676778	-0.306792	0.197796	-0.213581	0.00974125	-0.243648	0.172874	-0.266682	0.125022	-0.301885	0.20128	-0.31933	0.208192	-0.368299	0.299555	-0.334934	0.151419	-0.319073	0.172967	-0.243593	0.113824	-0.278626	0.207931	
0.718558	3.03345	5	0	-0.260608	0.199008	-0.155063	0.087359	0.1679	-0.083421	-0.327006	0.247503	-0.273803	-0.075018	-0.306792	0.197796	-0.209063	-0.003026	-0.25035	0.173455	-0.275424	0.124877	-0.298801	0.192563	-0.323948	0.206537	-0.377166	0.300813	-0.334934	0.151419	-0.322891	0.169914	-0.243593	0.113824	-0.288827	0.207093	
0.716689	3.03497	5	0	-0.260445	0.186597	-0.155063	0.087359	0.186362	-0.101371	-0.317884	0.250781	-0.278315	-0.0843485	-0.299191	0.197278	-0.21946	-0.00113475	-0.248603	0.168517	-0.27273	0.117265	-0.306742	0.197752	-0.329637	0.207919	-0.386021	0.302065	-0.33905	0.145404	-0.320339	0.162703	-0.249233	0.107062	-0.292982	0.189215	
0.714713	3.03345	5	0	-0.260283	0.174187	-0.155063	0.087359	0.204824	-0.11932	-0.308763	0.25406	-0.282826	-0.093679	-0.29159	0.19676	-0.229856	0.0007565	-0.246855	0.163579	-0.270037	0.109652	-0.314683	0.202941	-0.335325	0.209301	-0.394875	0.303318	-0.343166	0.13939	-0.317788	0.155493	-0.254872	0.100299	-0.297136	0.171337	
0.712774	3.02887	5	0	-0.260121	0.161776	-0.155063	0.087359	0.223287	-0.137269	-0.299641	0.257338	-0.287338	-0.10301	-0.28399	0.196241	-0.240253	0.00264775	-0.245108	0.158641	-0.267344	0.10204	-0.322624	0.20813	-0.341014	0.210683	-0.40373	0.304571	-0.347281	0.133376	-0.315236	0.148282	-0.260512	0.0935365	-0.301291	0.153459	
0.711023	3.03345	5	0	-0.259958	0.149366	-0.155063	0.087359	0.241749	-0.155219	-0.290519	0.260617	-0.291849	-0.11234	-0.276389	0.195723	-0.25065	0.004539	-0.24336	0.153703	-0.26465	0.094428	-0.330565	0.213319	-0.346703	0.212065	-0.412585	0.305823	-0.351397	0.127361	-0.312685	0.141071	-0.266151	0.086774	-0.305445	0.135581	
0.709624	3.03802	5	0	-0.264512	0.150293	-0.15262	0.0935225	0.214607	-0.135522	-0.282803	0.267912	-0.291849	-0.11234	-0.270828	0.200995	-0.247711	0.00997325	-0.24336	0.153703	-0.265547	0.0969648	-0.332107	0.217676	-0.341014	0.210683	-0.40373	0.304571	-0.351397	0.127361	-0.319051	0.145231	-0.266151	0.086774	-0.303725	0.13072	
0.708742	3.05023	5	0	-0.269066	0.15122	-0.150178	0.099686	0.187464	-0.115825	-0.275087	0.275208	-0.291849	-0.11234	-0.265267	0.206266	-0.244771	0.0154075	-0.24336	0.153703	-0.266445	0.0995015	-0.333649	0.222034	-0.335325	0.209301	-0.394875	0.303318	-0.351397	0.127361	-0.325418	0.14939	-0.266151	0.086774	-0.302005	0.125858	
0.708546	3.07159	5	0	-0.27362	0.152147	-0.147736	0.105849	0.160322	-0.0961287	-0.267371	0.282503	-0.291849	-0.11234	-0.259707	0.211537	-0.241832	0.0208417	-0.24336	0.153703	-0.267342	0.102038	-0.33519	0.226392	-0.329637	0.207919	-0.386021	0.302065	-0.351397	0.127361	-0.331784	0.15355	-0.266151	0.086774	-0.300284	0.120997	
0.7092	3.10058	5	0	-0.278174	0.153074	-0.145293	0.112013	0.13318	-0.076432	-0.259655	0.289799	-0.291849	-0.11234	-0.254146	0.216809	-0.238893	0.026276	-0.24336	0.153703	-0.26824	0.104575	-0.336732	0.230749	-0.323948	0.206537	-0.377166	0.300813	-0.351397	0.127361	-0.338151	0.15771	-0.266151	0.086774	-0.298564	0.116135	
0.710862	3.14026	5	0	-0.281624	0.138962	-0.142912	0.105283	0.107211	-0.071223	-0.258235	0.285784	-0.296359	-0.12165	-0.261755	0.217327	-0.239577	0.0144695	-0.241614	0.148767	-0.273056	0.105771	-0.330334	0.229919	-0.330711	0.210956	-0.388107	0.307962	-0.351397	0.127361	-0.338151	0.15771	-0.257305	0.0844748	-0.302866	0.128294	
0.713404	3.18451	5	0	-0.285075	0.12485	-0.140531	0.098553	0.0812415	-0.066014	-0.256814	0.28177	-0.300869	-0.13096	-0.269365	0.217845	-0.240262	0.002663	-0.239868	0.143832	-0.277871	0.106967	-0.323935	0.22909	-0.337475	0.215375	-0.399049	0.315111	-0.351397	0.127361	-0.338151	0.15771	-0.248459	0.0821755	-0.307169	0.140453	
0.71636	3.22876	5	0	-0.288525	0.110738	-0.138149	0.091823	0.0552722	-0.060805	-0.255393	0.277755	-0.305379	-0.14027	-0.276974	0.218363	-0.240947	-0.0091435	-0.238121	0.138897	-0.282686	0.108164	-0.317536	0.228261	-0.344238	0.219795	-0.40999	0.322261	-0.351397	0.127361	-0.338151	0.15771	-0.239614	0.0798762	-0.311471	0.152611	
0.719248	3.28216	5	0	-0.291976	0.096626	-0.135768	0.085093	0.029303	-0.055596	-0.253973	0.27374	-0.309889	-0.14958	-0.284583	0.218881	-0.241631	-0.02095	-0.236375	0.133961	-0.287502	0.10936	-0.311138	0.227431	-0.351001	0.224214	-0.420931	0.32941	-0.351397	0.127361	-0.338151	0.15771	-0.230768	0.077577	-0.315773	0.16477	
0.721582	3.32794	5	0	-0.292764	0.0869313	-0.12975	0.0811608	0.0120485	-0.0521503	-0.253973	0.27374	-0.312143	-0.154227	-0.274924	0.21257	-0.244571	-0.0263705	-0.236375	0.133961	-0.289623	0.102951	-0.317536	0.228261	-0.35561	0.222556	-0.418845	0.323513	-0.356843	0.125123	-0.344513	0.161867	-0.236412	0.070828	-0.311471	0.152611	
0.72288	3.37524	5	0	-0.293551	0.0772365	-0.123732	0.0772285	-0.005206	-0.0487045	-0.253973	0.27374	-0.314397	-0.158875	-0.265265	0.206259	-0.247512	-0.031791	-0.236375	0.133961	-0.291745	0.0965415	-0.323935	0.22909	-0.360219	0.220899	-0.416758	0.317616	-0.36229	0.122886	-0.350874	0.166024	-0.242056	0.064079	-0.307169	0.140453	
0.72271	3.41644	5	0	-0.294339	0.0675418	-0.117714	0.0732962	-0.0224605	-0.0452588	-0.253973	0.27374	-0.316651	-0.163522	-0.255606	0.199947	-0.250452	-0.0372115	-0.236375	0.133961	-0.293867	0.0901322	-0.330334	0.229919	-0.364828	0.219242	-0.414671	0.31172	-0.367736	0.120649	-0.357236	0.170181	-0.2477	0.05733	-0.302866	0.128294	
0.721266	3.45917	5	0	-0.295126	0.057847	-0.111696	0.069364	-0.039715	-0.041813	-0.253973	0.27374	-0.318905	-0.168169	-0.245947	0.193636	-0.253393	-0.042632	-0.236375	0.133961	-0.295988	0.083723	-0.336732	0.230749	-0.369437	0.217584	-0.412585	0.305823	-0.373182	0.118411	-0.363598	0.174338	-0.253344	0.050581	-0.298564	0.116135	
0.719154	3.49274	5	0	-0.293398	0.0648843	-0.111631	0.0822632	-0.0467225	-0.0333208	-0.246244	0.281044	-0.315712	-0.166176	-0.242431	0.204709	-0.249326	-0.040396	-0.233167	0.143254	-0.301693	0.087451	-0.331877	0.234281	-0.371586	0.223657	-0.414671	0.31172	-0.371849	0.114644	-0.352145	0.169626	-0.250146	0.041542	-0.297704	0.113705	
0.716991	3.53241	5	0	-0.29167	0.0719215	-0.111565	0.0951625	-0.05373	-0.0248285	-0.238514	0.288347	-0.312519	-0.164183	-0.238915	0.215782	-0.245258	-0.03816	-0.229959	0.152547	-0.307399	0.091179	-0.327022	0.237814	-0.373735	0.229731	-0.416758	0.317616	-0.370516	0.110876	-0.340692	0.164913	-0.246947	0.032503	-0.296845	0.111275	
0.715392	3.55987	5	0	-0.289943	0.0789587	-0.1115	0.108062	-0.0607375	-0.0163363	-0.230785	0.295651	-0.309325	-0.16219	-0.235398	0.226855	-0.241191	-0.035924	-0.226751	0.16184	-0.313105	0.094907	-0.322167	0.241346	-0.375884	0.235804	-0.418845	0.323513	-0.369183	0.107108	-0.32924	0.160201	-0.243749	0.023464	-0.295985	0.108846	
0.714972	3.57513	5	0	-0.288215	0.085996	-0.111434	0.120961	-0.067745	-0.007844	-0.223055	0.302955	-0.306132	-0.160197	-0.231882	0.237928	-0.237124	-0.033688	-0.223543	0.171133	-0.31881	0.098635	-0.317312	0.244878	-0.378033	0.241877	-0.420931	0.32941	-0.36785	0.103341	-0.317787	0.155489	-0.240551	0.014425	-0.295125	0.106416	
0.71616	3.58124	5	0	-0.294487	0.079888	-0.10057	0.116454	-0.0806443	-0.0052845	-0.225902	0.311001	-0.308011	-0.154888	-0.228367	0.249028	-0.245698	-0.0231888	-0.218584	0.175496	-0.31759	0.107583	-0.321946	0.257976	-0.374501	0.246579	-0.416258	0.339974	-0.361069	0.101806	-0.316523	0.165759	-0.24215	0.0189433	-0.293163	0.110739	
0.71847	3.60107	5	0	-0.300759	0.07378	-0.089706	0.111946	-0.0935435	-0.002725	-0.228749	0.319046	-0.309889	-0.149578	-0.224852	0.260128	-0.254271	-0.0126895	-0.213625	0.17986	-0.31637	0.116532	-0.326581	0.271074	-0.37097	0.251281	-0.411584	0.350538	-0.354288	0.100272	-0.315258	0.17603	-0.243748	0.0234615	-0.291202	0.115063	
0.721142	3.62244	5	0	-0.30703	0.067672	-0.078842	0.107438	-0.106443	-0.0001655	-0.231595	0.327091	-0.311767	-0.144268	-0.221337	0.271227	-0.262844	-0.00219025	-0.208666	0.184223	-0.31515	0.12548	-0.331215	0.284172	-0.367438	0.255982	-0.406911	0.361103	-0.347507	0.0987375	-0.313994	0.1863	-0.245347	0.0279797	-0.28924	0.119387	
0.723418	3.63617	5	0	-0.313302	0.061564	-0.067978	0.102931	-0.119342	0.002394	-0.234442	0.335137	-0.313646	-0.138959	-0.217822	0.282327	-0.271418	0.008309	-0.203707	0.188586	-0.31393	0.134429	-0.33585	0.29727	-0.363906	0.260684	-0.402237	0.371667	-0.340726	0.097203	-0.31273	0.19657	-0.246946	0.032498	-0.287278	0.12371	
0.724537	3.65295	5	0	-0.315029	0.0545378	-0.069171	0.106303	-0.131316	0.0024005	-0.229151	0.334774	-0.311767	-0.144268	-0.214308	0.293454	-0.269164	0.00193925	-0.205458	0.193535	-0.316943	0.130549	-0.33585	0.29727	-0.36283	0.257644	-0.404329	0.377579	-0.355613	0.104034	-0.31273	0.19657	-0.245347	0.0279797	-0.292919	0.119924	
0.723738	3.66363	5	0	-0.316755	0.0475115	-0.070364	0.109675	-0.14329	0.002407	-0.223859	0.334411	-0.309889	-0.149578	-0.210794	0.304581	-0.26691	-0.0044305	-0.207209	0.198484	-0.319956	0.126669	-0.33585	0.29727	-0.361754	0.254603	-0.406421	0.383491	-0.370501	0.110866	-0.31273	0.19657	-0.243748	0.0234615	-0.298561	0.116137	
0.720614	3.66821	5	0	-0.318481	0.0404853	-0.071557	0.113047	-0.155264	0.0024135	-0.218568	0.334049	-0.308011	-0.154888	-0.20728	0.315707	-0.264656	-0.0108003	-0.208961	0.203433	-0.32297	0.122789	-0.33585	0.29727	-0.360679	0.251563	-0.408513	0.389404	-0.385388	0.117697	-0.31273	0.19657	-0.24215	0.0189433	-0.304202	0.11235	
0.71567	3.67279	5	0	-0.320208	0.033459	-0.07275	0.116419	-0.167238	0.00242	-0.213277	0.333686	-0.306132	-0.160197	-0.203766	0.326834	-0.262402	-0.01717	-0.210712	0.208382	-0.325983	0.118909	-0.33585	0.29727	-0.359603	0.248523	-0.410605	0.395316	-0.400275	0.124528	-0.31273	0.19657	-0.240551	0.014425	-0.309844	0.108564	
0.70956	3.67737	5	0	-0.318481	0.0404853	-0.0702972	0.122599	-0.169936	0.0100455	-0.210833	0.341382	-0.307071	-0.157543	-0.196125	0.326322	-0.262402	-0.01717	-0.197276	0.207218	-0.318484	0.110113	-0.33585	0.29727	-0.359603	0.248523	-0.410605	0.395316	-0.396279	0.113236	-0.311453	0.19296	-0.255022	0.010003	-0.310945	0.101819	
0.702936	3.68805	5	0	-0.316755	0.0475115	-0.0678445	0.128779	-0.172634	0.017671	-0.20839	0.349078	-0.308011	-0.154888	-0.188484	0.325809	-0.262402	-0.01717	-0.183839	0.206055	-0.310986	0.101316	-0.33585	0.29727	-0.359603	0.248523	-0.410605	0.395316	-0.392284	0.101943	-0.310175	0.189349	-0.269492	0.005581	-0.312047	0.0950735	
0.696454	3.6972	5	0	-0.315029	0.0545378	-0.0653917	0.13496	-0.175333	0.0252965	-0.205946	0.356774	-0.30895	-0.152234	-0.180843	0.325296	-0.262402	-0.01717	-0.170403	0.204891	-0.303487	0.0925195	-0.33585	0.29727	-0.359603	0.248523	-0.410605	0.395316	-0.388288	0.0906505	-0.308897	0.185739	-0.283963	0.001159	-0.313148	0.0883282	
0.690735	3.69568	5	0	-0.313302	0.061564	-0.062939	0.14114	-0.178031	0.032922	-0.203502	0.36447	-0.309889	-0.14958	-0.173202	0.324784	-0.262402	-0.01717	-0.156967	0.203727	-0.295988	0.083723	-0.33585	0.29727	-0.359603	0.248523	-0.410605	0.395316	-0.384292	0.079358	-0.30762	0.182128	-0.298433	-0.003263	-0.314249	0.081583	
0.685928	3.69263	5	0	-0.320659	0.0704522	-0.0653292	0.147895	-0.188397	0.039695	-0.204929	0.368503	-0.309515	-0.139612	-0.169682	0.335942	-0.260592	-0.008555	-0.162232	0.218607	-0.293867	0.0901322	-0.340491	0.310387	-0.362831	0.257647	-0.405934	0.405918	-0.384292	0.079358	-0.310176	0.189351	-0.286416	-0.0145802	-0.312288	0.0858997	
0.68181	3.68805	5	0	-0.328017	0.0793405	-0.0677195	0.15465	-0.198763	0.046468	-0.206356	0.372536	-0.309142	-0.129643	-0.166162	0.3471	-0.258782	6E-05	-0.167497	0.233487	-0.291745	0.0965415	-0.345132	0.323504	-0.366059	0.266771	-0.401263	0.41652	-0.384292	0.079358	-0.312731	0.196573	-0.274398	-0.0258975	-0.310328	0.0902165	
0.678145	3.68652	5	0	-0.335375	0.0882287	-0.0701097	0.161406	-0.209128	0.053241	-0.207783	0.376568	-0.308768	-0.119675	-0.162643	0.358258	-0.256972	0.008675	-0.172762	0.248368	-0.289623	0.102951	-0.349774	0.336621	-0.369288	0.275894	-0.396593	0.427123	-0.384292	0.079358	-0.315287	0.203796	-0.262381	-0.0372147	-0.308368	0.0945332	
0.6747	3.69415	5	0	-0.342732	0.097117	-0.0725	0.168161	-0.219494	0.060014	-0.20921	0.380601	-0.308394	-0.109707	-0.159123	0.369416	-0.255162	0.01729	-0.178027	0.263248	-0.287502	0.10936	-0.354415	0.349738	-0.372516	0.285018	-0.391922	0.437725	-0.384292	0.079358	-0.317843	0.211018	-0.250364	-0.048532	-0.306407	0.09885	
0.67124	3.72467	5	0	-0.345391	0.0927342	-0.073696	0.171541	-0.227149	0.0591537	-0.210638	0.384636	-0.306513	-0.115023	-0.16119	0.375259	-0.256972	0.008675	-0.179784	0.268213	-0.291417	0.108019	-0.352867	0.345363	-0.37144	0.281975	-0.391922	0.437725	-0.392391	0.0846497	-0.317843	0.211018	-0.269602	-0.0394245	-0.309226	0.0969597	
0.667676	3.73535	5	0	-0.34805	0.0883515	-0.074892	0.174921	-0.234804	0.0582935	-0.212065	0.38867	-0.304632	-0.120339	-0.163257	0.381101	-0.258782	6E-05	-0.181541	0.273179	-0.295331	0.106679	-0.35132	0.340989	-0.370363	0.278933	-0.391922	0.437725	-0.400489	0.0899415	-0.317843	0.211018	-0.288841	-0.030317	-0.312045	0.0950695	
0.664221	3.75213	5	0	-0.350709	0.0839688	-0.076088	0.1783	-0.242459	0.0574332	-0.213493	0.392705	-0.302751	-0.125654	-0.165325	0.386943	-0.260592	-0.008555	-0.183298	0.278144	-0.299246	0.105338	-0.349772	0.336614	-0.369286	0.27589	-0.391922	0.437725	-0.408588	0.0952333	-0.317843	0.211018	-0.308079	-0.0212095	-0.314864	0.0931792	
0.661129	3.76282	5	0	-0.353368	0.079586	-0.077284	0.18168	-0.250114	0.056573	-0.21492	0.396739	-0.30087	-0.13097	-0.167392	0.392786	-0.262402	-0.01717	-0.185055	0.28311	-0.303161	0.103997	-0.348224	0.33224	-0.36821	0.272848	-0.391922	0.437725	-0.416687	0.100525	-0.317843	0.211018	-0.327317	-0.012102	-0.317683	0.091289	
0.658651	3.77655	5	0	-0.354307	0.0822387	-0.0687917	0.183931	-0.251013	0.059114	-0.212481	0.404459	-0.296733	-0.13163	-0.154142	0.397621	-0.262402	-0.01717	-0.180089	0.287506	-0.30797	0.105191	-0.348224	0.33224	-0.367134	0.269807	-0.396118	0.449585	-0.414026	0.0930045	-0.317843	0.211018	-0.32254	-0.0256025	-0.325274	0.0832015	
0.657043	3.7857	5	0	-0.355245	0.0848915	-0.0602995	0.186183	-0.251912	0.061655	-0.210041	0.412179	-0.292597	-0.13229	-0.140891	0.402456	-0.262402	-0.01717	-0.175123	0.291902	-0.312779	0.106384	-0.348224	0.33224	-0.366058	0.266766	-0.400315	0.461445	-0.411365	0.085484	-0.317843	0.211018	-0.317763	-0.039103	-0.332866	0.075114	
0.656444	3.78876	5	0	-0.356184	0.0875443	-0.0518072	0.188435	-0.252811	0.064196	-0.207601	0.419898	-0.28846	-0.13295	-0.12764	0.407292	-0.262402	-0.01717	-0.170156	0.296299	-0.317587	0.107578	-0.348224	0.33224	-0.364982	0.263725	-0.404512	0.473305	-0.408704	0.0779635	-0.317843	0.211018	-0.312987	-0.0526035	-0.340457	0.0670265	
0.656494	3.79486	5	0	-0.357123	0.090197	-0.043315	0.190686	-0.25371	0.066737	-0.205162	0.427618	-0.284323	-0.13361	-0.11439	0.412127	-0.262402	-0.01717	-0.16519	0.300695	-0.322396	0.108771	-0.348224	0.33224	-0.363906	0.260684	-0.408708	0.485165	-0.406043	0.070443	-0.317843	0.211018	-0.30821	-0.066104	-0.348048	0.058939	
0.65669	3.79333	5	0	-0.358226	0.10521	-0.0432603	0.203671	-0.253034	0.0760718	-0.198851	0.439045	-0.283949	-0.12363	-0.115021	0.435087	-0.266912	-0.00442575	-0.161981	0.310076	-0.319382	0.112649	-0.349772	0.336614	-0.359295	0.262348	-0.404044	0.495817	-0.397944	0.0651513	-0.314025	0.21408	-0.30821	-0.066104	-0.344622	0.0492555	
0.656529	3.79944	5	0	-0.359328	0.120224	-0.0432055	0.216656	-0.252359	0.0854065	-0.192541	0.450473	-0.283575	-0.11365	-0.115652	0.458047	-0.271421	0.0083185	-0.158772	0.319458	-0.316368	0.116527	-0.35132	0.340989	-0.354685	0.264012	-0.39938	0.506469	-0.389845	0.0598595	-0.310206	0.217142	-0.30821	-0.066104	-0.341195	0.039572	
0.655508	3.79181	5	0	-0.36043	0.135238	-0.0431508	0.22964	-0.251684	0.0947412	-0.18623	0.461901	-0.283201	-0.103669	-0.116282	0.481006	-0.275931	0.0210627	-0.155563	0.328839	-0.313353	0.120404	-0.352867	0.345363	-0.350074	0.265676	-0.394716	0.517121	-0.381747	0.0545677	-0.306388	0.220204	-0.30821	-0.066104	-0.337768	0.0298885	
0.653198	3.78265	5	0	-0.361533	0.150251	-0.043096	0.242625	-0.251008	0.104076	-0.179919	0.473328	-0.282827	-0.093689	-0.116913	0.503966	-0.28044	0.033807	-0.152354	0.33822	-0.310339	0.124282	-0.354415	0.349738	-0.345463	0.26734	-0.390052	0.527773	-0.373648	0.049276	-0.30257	0.223266	-0.30821	-0.066104	-0.334342	0.020205	
0.649872	3.77502	5	0	-0.366068	0.151171	-0.0442958	0.246016	-0.259555	0.105748	-0.182786	0.481432	-0.285654	-0.0856997	-0.111315	0.509348	-0.282697	0.040186	-0.145616	0.337648	-0.30912	0.133242	-0.351115	0.357681	-0.348695	0.276473	-0.387495	0.544411	-0.378972	0.0643232	-0.301311	0.233571	-0.312987	-0.0526035	-0.334953	0.0317745	
0.6462	3.76587	5	0	-0.370603	0.152091	-0.0454955	0.249408	-0.268101	0.107421	-0.185654	0.489536	-0.288481	-0.0777105	-0.105718	0.51473	-0.284954	0.046565	-0.138879	0.337076	-0.307901	0.142203	-0.347815	0.365623	-0.351926	0.285606	-0.384939	0.561049	-0.384296	0.0793705	-0.300052	0.243876	-0.317763	-0.039103	-0.335565	0.043344	
0.642855	3.75213	5	0	-0.375139	0.15301	-0.0466953	0.252799	-0.276647	0.109093	-0.188522	0.49764	-0.291307	-0.0697212	-0.100121	0.520113	-0.287211	0.052944	-0.132141	0.336504	-0.306683	0.151163	-0.344514	0.373566	-0.355158	0.29474	-0.382382	0.577688	-0.389621	0.0944178	-0.298792	0.254181	-0.32254	-0.0256025	-0.336176	0.0549135	
0.640508	3.74451	5	0	-0.379674	0.15393	-0.047895	0.25619	-0.285194	0.110765	-0.191389	0.505744	-0.294134	-0.061732	-0.094523	0.525495	-0.289468	0.059323	-0.125404	0.335932	-0.305464	0.160123	-0.341214	0.381509	-0.358389	0.303873	-0.379825	0.594326	-0.394945	0.109465	-0.297533	0.264486	-0.327317	-0.012102	-0.336788	0.066483	
0.63979	3.73993	5	0	-0.384206	0.154848	-0.0502963	0.262976	-0.284294	0.108222	-0.187517	0.50945	-0.294134	-0.061732	-0.091005	0.536779	-0.288339	0.056133	-0.128933	0.345905	-0.308478	0.156237	-0.341214	0.381509	-0.350543	0.296405	-0.375163	0.605043	-0.390838	0.11547	-0.296277	0.274811	-0.318501	-0.0143993	-0.34756	0.0772493	
0.640679	3.74145	5	0	-0.388738	0.155767	-0.0526975	0.269762	-0.283394	0.105679	-0.183646	0.513156	-0.294134	-0.061732	-0.087487	0.548062	-0.287211	0.052943	-0.132462	0.355878	-0.311493	0.152351	-0.341214	0.381509	-0.342697	0.288937	-0.3705	0.61576	-0.386731	0.121476	-0.295021	0.285137	-0.309686	-0.0166965	-0.358333	0.0880155	
0.642652	3.75366	5	0	-0.39327	0.156685	-0.0550988	0.276548	-0.282494	0.103135	-0.179774	0.516862	-0.294134	-0.061732	-0.083969	0.559346	-0.286082	0.049753	-0.13599	0.36585	-0.314507	0.148465	-0.341214	0.381509	-0.334851	0.281468	-0.365838	0.626477	-0.382624	0.127481	-0.293766	0.295462	-0.30087	-0.0189938	-0.369105	0.0987818	
0.645174	3.76892	5	0	-0.397802	0.157603	-0.0575	0.283334	-0.281594	0.100592	-0.175902	0.520568	-0.294134	-0.061732	-0.080451	0.570629	-0.284953	0.046563	-0.139519	0.375823	-0.317521	0.144579	-0.341214	0.381509	-0.327005	0.274	-0.361175	0.637194	-0.378517	0.133486	-0.29251	0.305787	-0.292054	-0.021291	-0.379878	0.109548	
0.64771	3.78723	5	0	-0.393442	0.169069	-0.0489548	0.298659	-0.280924	0.109936	-0.172468	0.540195	-0.292824	-0.05439	-0.079025	0.587849	-0.279762	0.0456237	-0.13808	0.390242	-0.318419	0.147117	-0.336361	0.385079	-0.328082	0.277046	-0.356511	0.647938	-0.381186	0.141029	-0.291258	0.316133	-0.304059	-0.009982	-0.376448	0.099854	
0.649732	3.80859	5	0	-0.389082	0.180534	-0.0404095	0.313983	-0.280255	0.11928	-0.169034	0.559821	-0.291515	-0.047048	-0.077599	0.605069	-0.274571	0.0446845	-0.13664	0.404662	-0.319317	0.149655	-0.331508	0.388648	-0.32916	0.280091	-0.351847	0.658682	-0.383854	0.148571	-0.290006	0.326479	-0.316063	0.001327	-0.373018	0.09016	
0.650974	3.82538	5	0	-0.384722	0.191999	-0.0318642	0.329308	-0.279585	0.128624	-0.1656	0.579448	-0.290205	-0.039706	-0.076173	0.622288	-0.269381	0.0437452	-0.135201	0.419081	-0.320215	0.152194	-0.326654	0.392218	-0.330238	0.283137	-0.347183	0.669425	-0.386523	0.156114	-0.288754	0.336825	-0.328067	0.012636	-0.369587	0.080466	
0.651506	3.84521	5	0	-0.380362	0.203465	-0.023319	0.344633	-0.278915	0.137968	-0.162166	0.599075	-0.288895	-0.032364	-0.074747	0.639508	-0.26419	0.042806	-0.133762	0.4335	-0.321113	0.154732	-0.321801	0.395788	-0.331315	0.286182	-0.342519	0.680169	-0.389192	0.163657	-0.287502	0.347171	-0.340072	0.023945	-0.366157	0.070772	
0.651419	3.85437	5	0	-0.384318	0.226551	-0.0208377	0.363984	-0.275778	0.151598	-0.172264	0.627614	-0.285334	-0.020321	-0.0677258	0.662238	-0.264647	0.057838	-0.123804	0.442388	-0.319898	0.163703	-0.320052	0.408147	-0.328855	0.293948	-0.344226	0.708951	-0.378301	0.168153	-0.278604	0.363739	-0.341668	0.0284543	-0.363344	0.0726595	
0.650803	3.86505	5	0	-0.388274	0.249637	-0.0183565	0.383335	-0.272641	0.165229	-0.182362	0.656153	-0.281772	-0.008278	-0.0607045	0.684967	-0.265104	0.07287	-0.113847	0.451275	-0.318684	0.172674	-0.318303	0.420507	-0.326395	0.301713	-0.345934	0.737733	-0.36741	0.172649	-0.269706	0.380308	-0.343263	0.0329635	-0.360532	0.074547	
0.64975	3.87268	5	0	-0.392231	0.272723	-0.0158753	0.402686	-0.269505	0.178859	-0.19246	0.684691	-0.278211	0.003765	-0.0536833	0.707696	-0.265561	0.087902	-0.103889	0.460163	-0.317469	0.181645	-0.316554	0.432866	-0.323935	0.309478	-0.347642	0.766515	-0.356519	0.177145	-0.260809	0.396876	-0.344858	0.0374727	-0.357719	0.0764345	
0.64846	3.88641	5	0	-0.396187	0.295809	-0.013394	0.422037	-0.266368	0.192489	-0.202558	0.71323	-0.27465	0.015808	-0.046662	0.730426	-0.266018	0.102934	-0.093932	0.469051	-0.316254	0.190616	-0.314805	0.445225	-0.321475	0.317244	-0.349349	0.795297	-0.345628	0.181641	-0.251911	0.413444	-0.346454	0.041982	-0.354906	0.078322	
0.647372	3.89099	5	0	-0.400915	0.309172	-0.0133685	0.435161	-0.275161	0.206088	-0.196269	0.724836	-0.276186	0.0312115	-0.0473638	0.753733	-0.266485	0.118004	-0.092499	0.483543	-0.31293	0.206056	-0.316179	0.466426	-0.320097	0.328078	-0.342176	0.823028	-0.346873	0.202824	-0.245593	0.437397	-0.335212	0.0554733	-0.352712	0.09181	
0.646957	3.89099	5	0	-0.405644	0.322535	-0.013343	0.448284	-0.283953	0.219687	-0.189981	0.736441	-0.277722	0.046615	-0.0480655	0.777039	-0.266952	0.133074	-0.091066	0.498036	-0.309606	0.221497	-0.317553	0.487627	-0.318718	0.338912	-0.335002	0.85076	-0.348118	0.224006	-0.239275	0.461349	-0.32397	0.0689645	-0.350518	0.105298	
0.647685	3.88946	5	0	-0.410373	0.335899	-0.0133175	0.461407	-0.292746	0.233285	-0.183693	0.748047	-0.279257	0.0620185	-0.0487672	0.800346	-0.267418	0.148144	-0.089633	0.512528	-0.306282	0.236937	-0.318926	0.508827	-0.317339	0.349745	-0.327829	0.878491	-0.349364	0.245189	-0.232957	0.485302	-0.312728	0.0824557	-0.348324	0.118786	
0.650026	3.88641	5	0	-0.415101	0.349262	-0.013292	0.474531	-0.301539	0.246884	-0.177404	0.759653	-0.280793	0.077422	-0.049469	0.823652	-0.267885	0.163214	-0.0882	0.52702	-0.302958	0.252377	-0.3203	0.530028	-0.315961	0.360579	-0.320656	0.906222	-0.350609	0.266372	-0.226639	0.509255	-0.301486	0.095947	-0.34613	0.132274	
0.654182	3.87726	5	0	-0.42058	0.352842	-0.0108488	0.480831	-0.301539	0.246884	-0.176434	0.771617	-0.281741	0.080101	-0.0459702	0.835111	-0.267885	0.163214	-0.0849938	0.536519	-0.300847	0.25884	-0.318567	0.542464	-0.319206	0.369749	-0.320288	0.929232	-0.35053	0.283827	-0.220331	0.533329	-0.299065	0.111778	-0.350201	0.153632	
0.659297	3.87268	5	0	-0.42606	0.356422	-0.0084055	0.487131	-0.301539	0.246884	-0.175463	0.78358	-0.282689	0.08278	-0.0424715	0.84657	-0.267885	0.163214	-0.0817875	0.546018	-0.298736	0.265302	-0.316834	0.554901	-0.32245	0.37892	-0.319921	0.952242	-0.35045	0.301283	-0.214023	0.557403	-0.296644	0.127609	-0.354272	0.17499	
0.664261	3.85895	5	0	-0.431539	0.360003	-0.00596225	0.49343	-0.301539	0.246884	-0.174492	0.795543	-0.283636	0.085459	-0.0389728	0.858029	-0.267885	0.163214	-0.0785812	0.555518	-0.296624	0.271765	-0.315101	0.567337	-0.325695	0.388091	-0.319554	0.975253	-0.350371	0.318738	-0.207714	0.581478	-0.294224	0.143439	-0.358343	0.196347	
0.667963	3.85132	5	0	-0.437018	0.363583	-0.003519	0.49973	-0.301539	0.246884	-0.173522	0.807507	-0.284584	0.088138	-0.035474	0.869488	-0.267885	0.163214	-0.075375	0.565017	-0.294513	0.278227	-0.313368	0.579773	-0.32894	0.397261	-0.319186	0.998263	-0.350292	0.336193	-0.201406	0.605552	-0.291803	0.15927	-0.362414	0.217705	
0.669292	3.84064	5	0	-0.433636	0.377843	0.000153	0.515791	-0.296609	0.25546	-0.174011	0.823606	-0.277236	0.0895195	-0.0242445	0.880521	-0.257482	0.161345	-0.0636097	0.568943	-0.296319	0.283332	-0.303647	0.587017	-0.331105	0.40338	-0.318841	1.02137	-0.344838	0.338475	-0.196337	0.619213	-0.291803	0.15927	-0.362414	0.217705	
0.667255	3.83758	5	0	-0.430254	0.392103	0.003825	0.531851	-0.291679	0.264035	-0.1745	0.839705	-0.269889	0.090901	-0.013015	0.891553	-0.247078	0.159476	-0.0518445	0.572869	-0.298125	0.288436	-0.293925	0.59426	-0.333271	0.409499	-0.318496	1.04447	-0.339383	0.340757	-0.191268	0.632875	-0.291803	0.15927	-0.362414	0.217705	
0.662289	3.84064	5	0	-0.426872	0.406362	0.007497	0.547912	-0.286749	0.27261	-0.174988	0.855805	-0.262541	0.0922825	-0.0017855	0.902586	-0.236675	0.157607	-0.0400792	0.576796	-0.299931	0.293541	-0.284204	0.601504	-0.335436	0.415618	-0.31815	1.06757	-0.333928	0.343038	-0.186199	0.646536	-0.291803	0.15927	-0.362414	0.217705	
0.655778	3.85589	5	0	-0.42349	0.420622	0.011169	0.563973	-0.281819	0.281186	-0.175477	0.871904	-0.255194	0.093664	0.009444	0.913618	-0.226272	0.155738	-0.028314	0.580722	-0.301737	0.298646	-0.274483	0.608748	-0.337601	0.421737	-0.317805	1.09068	-0.328474	0.34532	-0.18113	0.660197	-0.291803	0.15927	-0.362414	0.217705	
0.649124	3.88183	5	0	-0.41388	0.44119	0.0172765	0.58644	-0.279609	0.297475	-0.177435	0.892167	-0.256742	0.109124	0.018573	0.930685	-0.226744	0.170854	-0.026887	0.595305	-0.299628	0.305123	-0.272752	0.62124	-0.328361	0.425117	-0.30637	1.10661	-0.323014	0.347603	-0.169603	0.669681	-0.303843	0.170625	-0.360463	0.22205	
0.64373	3.90015	5	0	-0.40427	0.461759	0.023384	0.608907	-0.277398	0.313765	-0.179393	0.91243	-0.258291	0.124583	0.027702	0.947752	-0.227216	0.18597	-0.02546	0.609889	-0.297519	0.311601	-0.271022	0.633732	-0.319121	0.428497	-0.294936	1.12255	-0.317554	0.349886	-0.158077	0.679164	-0.315883	0.18198	-0.358513	0.226394	
0.640945	3.92914	5	0	-0.39466	0.482328	0.0294915	0.631374	-0.275188	0.330054	-0.181351	0.932693	-0.25984	0.140043	0.036831	0.964818	-0.227689	0.201087	-0.024033	0.624472	-0.295411	0.318079	-0.269292	0.646223	-0.30988	0.431878	-0.283502	1.13849	-0.312095	0.35217	-0.14655	0.688648	-0.327924	0.193336	-0.356563	0.230739	
0.641025	3.9505	5	0	-0.38505	0.502896	0.035599	0.653841	-0.272978	0.346343	-0.183309	0.952956	-0.261388	0.155503	0.04596	0.981885	-0.228161	0.216203	-0.022606	0.639056	-0.293302	0.324556	-0.267561	0.658715	-0.30064	0.435258	-0.272067	1.15443	-0.306635	0.354453	-0.135023	0.698132	-0.339964	0.204691	-0.354612	0.235084	
0.643187	3.97491	5	0	-0.390043	0.528958	0.0343735	0.670566	-0.27324	0.358362	-0.186227	0.961202	-0.233212	0.153641	0.0360895	0.988335	-0.228643	0.231358	-0.0261828	0.649164	-0.289992	0.340101	-0.25782	0.666	-0.298185	0.443085	-0.271752	1.17771	-0.310678	0.36588	-0.136411	0.716097	-0.331135	0.202412	-0.338572	0.249006	
0.646609	4.01153	5	0	-0.395037	0.555021	0.033148	0.68729	-0.273502	0.370382	-0.189144	0.969448	-0.205035	0.151778	0.026219	0.994784	-0.229125	0.246513	-0.0297595	0.659272	-0.286681	0.355646	-0.248079	0.673285	-0.295731	0.450912	-0.271436	1.20099	-0.314722	0.377308	-0.1378	0.734062	-0.322306	0.200132	-0.322531	0.262929	
0.650467	4.03595	5	0	-0.40003	0.581083	0.0319225	0.704014	-0.273765	0.382401	-0.192062	0.977695	-0.176859	0.149916	0.0163485	1.00123	-0.229608	0.261667	-0.0333362	0.669381	-0.28337	0.371191	-0.238338	0.680569	-0.293276	0.458739	-0.271121	1.22428	-0.318766	0.388736	-0.139188	0.752027	-0.313477	0.197852	-0.306491	0.276851	
0.653944	4.04816	5	0	-0.405023	0.607145	0.030697	0.720739	-0.274027	0.39442	-0.19498	0.985941	-0.148682	0.148054	0.006478	1.00768	-0.23009	0.276822	-0.036913	0.679489	-0.28006	0.386736	-0.228597	0.687854	-0.290821	0.466566	-0.270806	1.24756	-0.322809	0.400163	-0.140576	0.769992	-0.304648	0.195573	-0.290451	0.290773	
0.656669	4.04968	5	0	-0.400475	0.606249	0.0282502	0.727654	-0.268833	0.391026	-0.188711	0.99772	0.243545	-0.106164	0.0078425	1.02527	-0.23009	0.276822	-0.036913	0.679489	-0.274029	0.394626	-0.233317	0.701193	-0.295168	0.47885	-0.268341	1.2648	-0.320048	0.41009	-0.136821	0.787493	-0.299023	0.202377	-0.28914	0.306862	
0.659039	4.05273	5	0	-0.395926	0.605354	0.0258035	0.734568	-0.26364	0.387632	-0.182443	1.0095	0.635772	-0.360382	0.009207	1.04286	-0.23009	0.276822	-0.036913	0.679489	-0.267999	0.402516	-0.238037	0.714532	-0.299515	0.491135	-0.265876	1.28204	-0.317287	0.420017	-0.133065	0.804994	-0.293399	0.209181	-0.28783	0.322952	
0.661524	4.04816	5	0	-0.391377	0.604459	0.0233568	0.741483	-0.258446	0.384238	-0.176175	1.02128	1.028	-0.6146	0.0105715	1.06045	-0.23009	0.276822	-0.036913	0.679489	-0.261968	0.410406	-0.242757	0.727871	-0.303861	0.503419	-0.263411	1.29927	-0.314526	0.429945	-0.129309	0.822494	-0.287774	0.215985	-0.286519	0.339041	
0.664597	4.04053	5	0	-0.386829	0.603563	0.02091	0.748398	-0.253252	0.380844	-0.169906	1.03306	1.42023	-0.868818	0.011936	1.07804	-0.23009	0.276822	-0.036913	0.679489	-0.255937	0.418296	-0.247477	0.74121	-0.308208	0.515703	-0.260946	1.31651	-0.311765	0.439872	-0.125554	0.839995	-0.282149	0.222789	-0.285208	0.35513	
0.668728	4.02832	5	0	-0.389698	0.611671	0.0208928	0.761718	-0.249875	0.382591	-0.174298	1.04547	1.32325	-0.803381	0.0196878	1.0776	-0.23123	0.280043	-0.036913	0.679489	-0.256846	0.420864	-0.249052	0.745661	-0.308208	0.515703	-0.265293	1.3288	-0.319926	0.445204	-0.128183	0.847425	-0.292597	0.229616	-0.301683	0.362126	
0.674264	4.00848	5	0	-0.392567	0.619778	0.0208755	0.775038	-0.246497	0.384339	-0.17869	1.05788	1.22628	-0.737943	0.0274395	1.07717	-0.23237	0.283265	-0.036913	0.679489	-0.257754	0.423431	-0.250626	0.750112	-0.308208	0.515703	-0.26964	1.34108	-0.328086	0.450537	-0.130812	0.854855	-0.303045	0.236443	-0.318159	0.369122	
0.680958	3.98865	5	0	-0.395436	0.627885	0.0208582	0.788357	-0.24312	0.386086	-0.183082	1.07029	1.1293	-0.672505	0.0351913	1.07673	-0.233509	0.286486	-0.036913	0.679489	-0.258663	0.425999	-0.252201	0.754563	-0.308208	0.515703	-0.273986	1.35336	-0.336247	0.455869	-0.133441	0.862284	-0.313493	0.24327	-0.334635	0.376118	
0.688387	3.97339	5	0	-0.398305	0.635993	0.020841	0.801677	-0.239743	0.387833	-0.187474	1.08271	1.03233	-0.607068	0.042943	1.07629	-0.234649	0.289707	-0.036913	0.679489	-0.259571	0.428566	-0.253776	0.759014	-0.308208	0.515703	-0.278333	1.36565	-0.344407	0.461201	-0.13607	0.869714	-0.323941	0.250097	-0.35111	0.383114	
0.696127	3.9566	5	0	-0.390394	0.649557	0.025704	0.814504	-0.236629	0.401636	-0.190405	1.09099	0.959825	-0.551399	0.0351913	1.07673	-0.231718	0.295227	-0.0436923	0.680032	-0.261389	0.433703	-0.253776	0.759014	-0.310383	0.521852	-0.282685	1.37795	-0.349859	0.458895	-0.137385	0.873431	-0.322332	0.245551	-0.350243	0.380663	
0.703757	3.94745	5	0	-0.382483	0.663122	0.030567	0.82733	-0.233515	0.415439	-0.193336	1.09927	0.887321	-0.495729	0.0274395	1.07717	-0.228788	0.300746	-0.0504715	0.680575	-0.263206	0.438839	-0.253776	0.759014	-0.312559	0.528	-0.287038	1.39025	-0.35531	0.456589	-0.138701	0.877148	-0.320724	0.241005	-0.349375	0.378213	
0.710855	3.93371	5	0	-0.374571	0.676686	0.03543	0.840156	-0.230401	0.429243	-0.196268	1.10756	0.814818	-0.44006	0.0196878	1.0776	-0.225857	0.306265	-0.0572508	0.681118	-0.265023	0.443976	-0.253776	0.759014	-0.314735	0.534149	-0.29139	1.40255	-0.360762	0.454283	-0.140016	0.880866	-0.319115	0.236459	-0.348508	0.375762	
0.717147	3.91846	5	0	-0.36666	0.69025	0.040293	0.852983	-0.227287	0.443046	-0.199199	1.11584	0.742315	-0.38439	0.011936	1.07804	-0.222927	0.311785	-0.06403	0.681661	-0.266841	0.449113	-0.253776	0.759014	-0.31691	0.540297	-0.295743	1.41485	-0.366214	0.451977	-0.141331	0.884583	-0.317507	0.231913	-0.347641	0.373312	
0.722625	3.90777	5	0	-0.374344	0.711966	0.0402625	0.866368	-0.229387	0.460293	-0.207456	1.12442	0.685073	-0.336605	-0.00566475	1.08492	-0.227495	0.324695	-0.0725895	0.687254	-0.258078	0.449315	-0.255352	0.763467	-0.319087	0.54645	-0.300102	1.42717	-0.366214	0.451977	-0.137486	0.88779	-0.317507	0.231913	-0.340275	0.372267	
0.727313	3.89862	5	0	-0.382028	0.733681	0.040232	0.879754	-0.231486	0.47754	-0.215712	1.13301	0.627831	-0.28882	-0.0232655	1.09179	-0.232063	0.337606	-0.081149	0.692848	-0.249315	0.449518	-0.256927	0.76792	-0.321264	0.552602	-0.304461	1.43949	-0.366214	0.451977	-0.133642	0.890996	-0.317507	0.231913	-0.332909	0.371223	
0.731233	3.89557	5	0	-0.389712	0.755397	0.0402015	0.893139	-0.233586	0.494786	-0.223969	1.14159	0.57059	-0.241034	-0.0408662	1.09867	-0.236631	0.350516	-0.0897085	0.698441	-0.240553	0.449721	-0.258503	0.772373	-0.323441	0.558755	-0.308819	1.45181	-0.366214	0.451977	-0.129797	0.894203	-0.317507	0.231913	-0.325544	0.370178	
0.734407	3.88946	5	0	-0.397396	0.777112	0.040171	0.906524	-0.235686	0.512033	-0.232226	1.15017	0.513348	-0.193249	-0.058467	1.10554	-0.241199	0.363426	-0.098268	0.704034	-0.23179	0.449923	-0.260079	0.776826	-0.325618	0.564907	-0.313178	1.46412	-0.366214	0.451977	-0.125952	0.89741	-0.317507	0.231913	-0.318178	0.369133	
0.736858	3.88183	5	0	-0.402657	0.768025	0.0316258	0.904085	-0.241528	0.505924	-0.239927	1.14246	0.468317	-0.167979	-0.0598145	1.08796	-0.238914	0.356969	-0.101459	0.694472	-0.241179	0.46397	-0.269671	0.786519	-0.326707	0.567985	-0.328683	1.48374	-0.364864	0.448163	-0.127269	0.901132	-0.319115	0.236459	-0.314277	0.377901	
0.738665	3.87573	5	0	-0.407918	0.758938	0.0230805	0.901647	-0.247369	0.499814	-0.247629	1.13476	0.423285	-0.142709	-0.061162	1.07037	-0.236629	0.350511	-0.10465	0.68491	-0.250568	0.478017	-0.279262	0.796212	-0.327796	0.571063	-0.344187	1.50335	-0.363514	0.444349	-0.128586	0.904853	-0.320724	0.241005	-0.310376	0.386669	
0.739979	3.86352	5	0	-0.413179	0.74985	0.0145352	0.899208	-0.253211	0.493705	-0.255331	1.12705	0.378254	-0.11744	-0.0625095	1.05278	-0.234345	0.344054	-0.10784	0.675348	-0.259958	0.492065	-0.288854	0.805904	-0.328885	0.574141	-0.359692	1.52297	-0.362165	0.440535	-0.129903	0.908575	-0.322332	0.245551	-0.306474	0.395437	
0.740955	3.85742	5	0	-0.41844	0.740763	0.00599	0.89677	-0.259052	0.487596	-0.263032	1.11935	0.333222	-0.09217	-0.063857	1.03519	-0.23206	0.337596	-0.111031	0.665786	-0.269347	0.506112	-0.298446	0.815597	-0.329974	0.577219	-0.375197	1.54258	-0.360815	0.436721	-0.13122	0.912297	-0.323941	0.250097	-0.302573	0.404205	
0.74175	3.84674	5	0	-0.422739	0.728988	0.002337	0.893814	-0.253578	0.472127	-0.273647	1.11992	0.296484	-0.0785408	-0.0771582	1.03006	-0.239055	0.329771	-0.114222	0.656244	-0.26963	0.494432	-0.300153	0.803022	-0.333504	0.572429	-0.373014	1.53641	-0.373052	0.435928	-0.14022	0.909598	-0.338369	0.245556	-0.31124	0.389134	
0.742521	3.83301	5	0	-0.427038	0.717214	-0.001316	0.890858	-0.248105	0.456659	-0.284262	1.1205	0.259746	-0.0649115	-0.0904595	1.02494	-0.24605	0.321947	-0.117414	0.646702	-0.269912	0.482752	-0.30186	0.790447	-0.337033	0.567639	-0.370831	1.53024	-0.385289	0.435134	-0.14922	0.906898	-0.352797	0.241015	-0.319908	0.374064	
0.743415	3.8269	5	0	-0.431338	0.705439	-0.004969	0.887902	-0.242631	0.44119	-0.294878	1.12107	0.223009	-0.0512823	-0.103761	1.01981	-0.253044	0.314122	-0.120605	0.63716	-0.270195	0.471072	-0.303566	0.777871	-0.340562	0.562848	-0.368648	1.52407	-0.397525	0.434341	-0.15822	0.904199	-0.367226	0.236473	-0.328575	0.358993	
0.744344	3.81775	5	0	-0.435637	0.693665	-0.008622	0.884946	-0.237158	0.425722	-0.305493	1.12165	0.186271	-0.037653	-0.117062	1.01468	-0.260039	0.306297	-0.123796	0.627618	-0.270478	0.459392	-0.305273	0.765296	-0.344092	0.558058	-0.366465	1.5179	-0.409762	0.433547	-0.16722	0.901499	-0.381654	0.231932	-0.337242	0.343923	
0.744941	3.81317	5	0	-0.432049	0.695484	-0.004969	0.887902	-0.233778	0.427475	-0.30842	1.12992	0.15813	-0.0254827	-0.120528	1.00315	-0.25776	0.299856	-0.128768	0.623126	-0.272583	0.452869	-0.319693	0.7713	-0.348707	0.556346	-0.366465	1.5179	-0.404377	0.418327	-0.176206	0.898801	-0.376841	0.218329	-0.344817	0.33571	
0.744821	3.81012	5	0	-0.428461	0.697304	-0.001316	0.890858	-0.230399	0.429229	-0.311347	1.1382	0.129988	-0.0133125	-0.123995	0.991629	-0.255481	0.293415	-0.133739	0.618634	-0.274687	0.446345	-0.334114	0.777304	-0.353321	0.554635	-0.366465	1.5179	-0.398991	0.403107	-0.185191	0.896102	-0.372027	0.204725	-0.352391	0.327498	
0.743601	3.80249	5	0	-0.424874	0.699124	0.002337	0.893814	-0.227019	0.430982	-0.314275	1.14647	0.101847	-0.00114225	-0.127462	0.980102	-0.253202	0.286974	-0.138711	0.614142	-0.276792	0.439822	-0.348534	0.783308	-0.357935	0.552923	-0.366465	1.5179	-0.393605	0.387886	-0.194177	0.893404	-0.367213	0.191121	-0.359966	0.319285	
0.7409	3.79486	5	0	-0.421286	0.700943	0.00599	0.89677	-0.223639	0.432735	-0.317202	1.15474	0.073705	0.011028	-0.130928	0.968576	-0.250923	0.280533	-0.143682	0.60965	-0.278897	0.433298	-0.362954	0.789312	-0.36255	0.551211	-0.366465	1.5179	-0.38822	0.372666	-0.203162	0.890705	-0.3624	0.177518	-0.367541	0.311073	
0.736363	3.78876	5	0	-0.428218	0.684679	-8.6E-05	0.88739	-0.232862	0.424905	-0.318113	1.14262	0.0485293	0.015059	-0.144187	0.963476	-0.261327	0.282383	-0.155388	0.605705	-0.283725	0.43448	-0.361382	0.784868	-0.360376	0.545067	-0.377591	1.52517	-0.39635	0.377978	-0.203162	0.890705	-0.37281	0.18432	-0.360185	0.310024	
0.730259	3.78418	5	0	-0.435149	0.668416	-0.006162	0.878011	-0.242085	0.417075	-0.319025	1.1305	0.0233535	0.01909	-0.157447	0.958376	-0.27173	0.284232	-0.167095	0.60176	-0.288552	0.435661	-0.359809	0.780423	-0.358201	0.538922	-0.388717	1.53244	-0.404479	0.38329	-0.203162	0.890705	-0.38322	0.191122	-0.352828	0.308975	
0.723434	3.78418	5	0	-0.44208	0.652152	-0.012238	0.868631	-0.251308	0.409246	-0.319937	1.11839	-0.00182225	0.023121	-0.170706	0.953277	-0.282134	0.286082	-0.178801	0.597815	-0.29338	0.436843	-0.358236	0.775979	-0.356027	0.532778	-0.399842	1.53971	-0.412608	0.388601	-0.203162	0.890705	-0.39363	0.197924	-0.345472	0.307927	
0.716755	3.77502	5	0	-0.449012	0.635888	-0.018314	0.859251	-0.260531	0.401416	-0.320848	1.10627	-0.026998	0.027152	-0.183966	0.948177	-0.292538	0.287932	-0.190507	0.59387	-0.298208	0.438024	-0.356664	0.771535	-0.353853	0.526634	-0.410968	1.54698	-0.420738	0.393913	-0.203162	0.890705	-0.40404	0.204726	-0.338116	0.306878	
0.71109	3.77045	5	0	-0.454988	0.616993	-0.0243845	0.849894	-0.267015	0.385906	-0.335265	1.103	-0.0511233	0.0284552	-0.187424	0.936701	-0.292049	0.272789	-0.195463	0.58939	-0.302412	0.425006	-0.366345	0.764211	-0.363073	0.523222	-0.426636	1.54301	-0.423483	0.384026	-0.20951	0.880594	-0.399234	0.191143	-0.345692	0.298684	
0.707304	3.76129	5	0	-0.460964	0.598098	-0.030455	0.840537	-0.273498	0.370397	-0.349681	1.09973	-0.0752485	0.0297585	-0.190883	0.925224	-0.29156	0.257646	-0.20042	0.584909	-0.306617	0.411988	-0.376026	0.756887	-0.372294	0.519809	-0.442304	1.53904	-0.426229	0.374138	-0.215858	0.870482	-0.394428	0.177561	-0.353267	0.29049	
0.706115	3.76282	5	0	-0.466941	0.579204	-0.0365255	0.831179	-0.279982	0.354888	-0.364098	1.09646	-0.0993738	0.0310617	-0.194341	0.913748	-0.291071	0.242502	-0.205376	0.580429	-0.310821	0.39897	-0.385708	0.749564	-0.381514	0.516397	-0.457973	1.53507	-0.428974	0.36425	-0.222205	0.86037	-0.389621	0.163978	-0.360843	0.282297	
0.707345	3.76434	5	0	-0.472917	0.560309	-0.042596	0.821822	-0.286466	0.339378	-0.378515	1.09319	-0.123499	0.032365	-0.197799	0.902271	-0.290582	0.227359	-0.210332	0.575948	-0.315026	0.385952	-0.395389	0.74224	-0.390735	0.512984	-0.473641	1.5311	-0.431719	0.354363	-0.228553	0.850259	-0.384815	0.150396	-0.368418	0.274103	
0.710489	3.75671	5	0	-0.473641	0.550444	-0.049884	0.815944	-0.287116	0.329951	-0.377057	1.08906	-0.137317	0.0269632	-0.213118	0.903139	-0.29237	0.218663	-0.215283	0.571473	-0.318328	0.370417	-0.398656	0.734155	-0.392088	0.502089	-0.480371	1.52604	-0.435807	0.348286	-0.23107	0.843362	-0.388815	0.139111	-0.373399	0.258624	
0.715046	3.75366	5	0	-0.474366	0.540579	-0.057172	0.810066	-0.287767	0.320524	-0.375598	1.08494	-0.151135	0.0215615	-0.228438	0.904007	-0.294159	0.209968	-0.220235	0.566999	-0.32163	0.354882	-0.401923	0.726071	-0.39344	0.491194	-0.487101	1.52098	-0.439895	0.342209	-0.233587	0.836465	-0.392816	0.127827	-0.378381	0.243146	
0.72051	3.75061	5	0	-0.47509	0.530714	-0.06446	0.804187	-0.288417	0.311096	-0.374139	1.08082	-0.164952	0.0161598	-0.243758	0.904875	-0.295948	0.201272	-0.225187	0.562525	-0.324932	0.339346	-0.40519	0.717987	-0.394793	0.4803	-0.493832	1.51592	-0.443982	0.336131	-0.236103	0.829569	-0.396817	0.116543	-0.383363	0.227667	
0.726378	3.74908	5	0	-0.475815	0.520849	-0.071748	0.798309	-0.289067	0.301669	-0.372681	1.0767	-0.17877	0.010758	-0.259077	0.905743	-0.297736	0.192576	-0.230138	0.55805	-0.328234	0.323811	-0.408457	0.709902	-0.396146	0.469405	-0.500562	1.51086	-0.44807	0.330054	-0.23862	0.822672	-0.400817	0.105258	-0.388344	0.212189	
0.73219	3.74298	5	0	-0.488216	0.508322	-0.0814418	0.786062	-0.29736	0.291354	-0.381788	1.07315	-0.194445	0.0107118	-0.254875	0.893867	-0.300659	0.187097	-0.235085	0.553581	-0.333048	0.324993	-0.414854	0.710679	-0.39398	0.463284	-0.509456	1.51195	-0.446729	0.326264	-0.248883	0.82369	-0.39922	0.100744	-0.393959	0.208379	
0.737633	3.74298	5	0	-0.500617	0.495795	-0.0911355	0.773815	-0.305653	0.281039	-0.390895	1.0696	-0.21012	0.0106655	-0.250673	0.881992	-0.303583	0.181618	-0.240033	0.549113	-0.337861	0.326176	-0.421251	0.711456	-0.391815	0.457163	-0.51835	1.51303	-0.445388	0.322474	-0.259146	0.824707	-0.397622	0.0962305	-0.399574	0.204568	
0.742421	3.7384	5	0	-0.513019	0.483268	-0.100829	0.761567	-0.313946	0.270725	-0.400002	1.06605	-0.225796	0.0106193	-0.246471	0.870116	-0.306507	0.176139	-0.24498	0.544644	-0.342674	0.327358	-0.427648	0.712232	-0.389649	0.451042	-0.527245	1.51412	-0.444047	0.318685	-0.269409	0.825725	-0.396025	0.0917167	-0.405188	0.200758	
0.746271	3.73535	5	0	-0.52542	0.470741	-0.110523	0.74932	-0.322239	0.26041	-0.409109	1.06251	-0.241471	0.010573	-0.242269	0.85824	-0.30943	0.17066	-0.249927	0.540175	-0.347488	0.32854	-0.434045	0.713009	-0.387483	0.444921	-0.536139	1.51521	-0.442706	0.314895	-0.279672	0.826743	-0.394428	0.087203	-0.410803	0.196948	
0.748899	3.72467	5	0	-0.530449	0.449352	-0.114136	0.73315	-0.326257	0.249298	-0.408568	1.04635	-0.24504	-0.0014735	-0.247819	0.852749	-0.314143	0.156529	-0.25487	0.535712	-0.356496	0.316783	-0.437307	0.704941	-0.394526	0.435425	-0.538512	1.4979	-0.448132	0.312617	-0.285998	0.816677	-0.411993	0.091745	-0.419214	0.191241	
0.750021	3.71857	5	0	-0.535478	0.427963	-0.11775	0.716979	-0.330275	0.238186	-0.408026	1.03019	-0.248609	-0.01352	-0.25337	0.847257	-0.318856	0.142398	-0.259813	0.531249	-0.365503	0.305027	-0.440569	0.696873	-0.40157	0.425929	-0.540884	1.48059	-0.453558	0.310339	-0.292324	0.806611	-0.429558	0.096287	-0.427625	0.185534	
0.749553	3.71246	5	0	-0.540507	0.406575	-0.121363	0.700809	-0.334293	0.227074	-0.407485	1.01404	-0.252179	-0.0255665	-0.25892	0.841766	-0.32357	0.128267	-0.264755	0.526786	-0.374511	0.29327	-0.44383	0.688805	-0.408613	0.416433	-0.543257	1.46327	-0.458984	0.308062	-0.298651	0.796544	-0.447122	0.100829	-0.436037	0.179826	
0.748071	3.70636	5	0	-0.545536	0.385186	-0.124976	0.684639	-0.338311	0.215962	-0.406944	0.997884	-0.255748	-0.037613	-0.26447	0.836275	-0.328283	0.114136	-0.269698	0.522323	-0.383519	0.281514	-0.447092	0.680737	-0.415656	0.406937	-0.54563	1.44596	-0.46441	0.305784	-0.304977	0.786478	-0.464687	0.105371	-0.444448	0.174119	
0.746287	3.70026	5	0	-0.551723	0.378973	-0.132238	0.678817	-0.341672	0.214238	-0.410766	0.994071	-0.261204	-0.0442995	-0.270015	0.830793	-0.330076	0.105492	-0.267929	0.517324	-0.38292	0.267432	-0.450353	0.672684	-0.418096	0.399148	-0.5612	1.44202	-0.468493	0.299726	-0.312601	0.78012	-0.470265	0.098626	-0.447476	0.16305	
0.744915	3.69415	5	0	-0.557909	0.37276	-0.139499	0.672996	-0.345034	0.212515	-0.414587	0.990258	-0.266661	-0.050986	-0.27556	0.82531	-0.331869	0.0968485	-0.266161	0.512325	-0.382321	0.25335	-0.453615	0.664631	-0.420535	0.391359	-0.57677	1.43809	-0.472575	0.293667	-0.320225	0.773763	-0.475843	0.091881	-0.450504	0.151981	
0.744665	3.68957	5	0	-0.564095	0.366548	-0.146761	0.667174	-0.348395	0.210791	-0.418409	0.986444	-0.272118	-0.0576725	-0.281105	0.819827	-0.333661	0.0882047	-0.264392	0.507326	-0.381721	0.239268	-0.456876	0.656577	-0.422975	0.383571	-0.592341	1.43415	-0.476658	0.287609	-0.327849	0.767405	-0.48142	0.085136	-0.453532	0.140913	
0.746252	3.685	5	0	-0.570282	0.360335	-0.154023	0.661352	-0.351757	0.209068	-0.422231	0.982631	-0.277574	-0.064359	-0.28665	0.814345	-0.335454	0.079561	-0.262623	0.502327	-0.381122	0.225186	-0.460137	0.648524	-0.425414	0.375782	-0.607911	1.43021	-0.480741	0.281551	-0.335473	0.761048	-0.486998	0.078391	-0.45656	0.129844	
0.750089	3.68042	5	0	-0.571959	0.353238	-0.161275	0.65554	-0.349954	0.203972	-0.432766	0.98321	-0.282657	-0.0610378	-0.292189	0.808871	-0.331402	0.081819	-0.259088	0.492338	-0.377219	0.226545	-0.460137	0.648524	-0.425414	0.375782	-0.603588	1.41799	-0.480741	0.281551	-0.337979	0.754193	-0.473455	0.0626238	-0.453759	0.131739	
0.755701	3.68042	5	0	-0.573636	0.346141	-0.168527	0.649728	-0.348151	0.198876	-0.4433	0.983789	-0.28774	-0.0577165	-0.297729	0.803397	-0.327349	0.084077	-0.255553	0.482348	-0.373316	0.227903	-0.460137	0.648524	-0.425414	0.375782	-0.599266	1.40577	-0.480741	0.281551	-0.340484	0.747338	-0.459911	0.0468565	-0.450959	0.133634	
0.762444	3.67737	5	0	-0.575314	0.339043	-0.175779	0.643916	-0.346348	0.19378	-0.453835	0.984368	-0.292823	-0.0543952	-0.303269	0.797922	-0.323296	0.086335	-0.252019	0.472359	-0.369414	0.229262	-0.460137	0.648524	-0.425414	0.375782	-0.594943	1.39356	-0.480741	0.281551	-0.34299	0.740484	-0.446367	0.0310892	-0.448158	0.135529	
0.769675	3.67737	5	0	-0.576991	0.331946	-0.183031	0.638104	-0.344545	0.188684	-0.46437	0.984947	-0.297906	-0.051074	-0.308808	0.792448	-0.319244	0.088593	-0.248484	0.46237	-0.365511	0.230621	-0.460137	0.648524	-0.425414	0.375782	-0.59062	1.38134	-0.480741	0.281551	-0.345495	0.733629	-0.432824	0.015322	-0.445357	0.137424	
0.77675	3.67126	5	0	-0.581288	0.32044	-0.187852	0.625459	-0.345204	0.17933	-0.466733	0.977045	-0.30241	-0.0604133	-0.306717	0.78654	-0.319913	0.0767715	-0.253428	0.457929	-0.373313	0.227904	-0.455457	0.635297	-0.428932	0.371052	-0.606156	1.37743	-0.486158	0.279279	-0.349301	0.73046	-0.432824	0.015322	-0.446215	0.139848	
0.783027	3.67737	5	0	-0.585586	0.308933	-0.192673	0.612814	-0.345863	0.169976	-0.469095	0.969143	-0.306914	-0.0697525	-0.304627	0.780631	-0.320581	0.06495	-0.258373	0.453488	-0.381116	0.225187	-0.450777	0.62207	-0.43245	0.366322	-0.621692	1.37351	-0.491574	0.277007	-0.353108	0.727292	-0.432824	0.015322	-0.447072	0.142272	
0.787891	3.68194	5	0	-0.589884	0.297427	-0.197494	0.600168	-0.346523	0.160623	-0.471458	0.96124	-0.311418	-0.0790917	-0.302536	0.774722	-0.321249	0.0531285	-0.263317	0.449048	-0.388919	0.22247	-0.446096	0.608842	-0.435967	0.361592	-0.637227	1.3696	-0.496991	0.274736	-0.356915	0.724124	-0.432824	0.015322	-0.44793	0.144696	
0.79094	3.68652	5	0	-0.594181	0.285921	-0.202315	0.587523	-0.347182	0.151269	-0.473821	0.953338	-0.315922	-0.088431	-0.300445	0.768814	-0.321918	0.041307	-0.268261	0.444607	-0.396721	0.219753	-0.441416	0.595615	-0.439485	0.356862	-0.652763	1.36569	-0.502407	0.272464	-0.360721	0.720955	-0.432824	0.015322	-0.448788	0.14712	
0.791855	3.685	5	0	-0.591362	0.277953	-0.199896	0.580685	-0.34112	0.145352	-0.470926	0.945156	-0.312159	-0.0990657	-0.29072	0.76246	-0.318538	0.031754	-0.268261	0.444607	-0.394026	0.212136	-0.439858	0.59121	-0.43733	0.350772	-0.657286	1.35461	-0.499735	0.264912	-0.369625	0.718298	-0.448761	0.015372	-0.453531	0.140907	
0.790321	3.70178	5	0	-0.588542	0.269985	-0.197476	0.573846	-0.335057	0.139436	-0.468031	0.936974	-0.308396	-0.109701	-0.280996	0.756105	-0.315157	0.022201	-0.268261	0.444607	-0.391331	0.20452	-0.438299	0.586806	-0.435176	0.344683	-0.661809	1.34353	-0.497063	0.257359	-0.378529	0.715642	-0.464697	0.015422	-0.458273	0.134693	
0.786021	3.71551	5	0	-0.585723	0.262018	-0.195056	0.567008	-0.328994	0.133519	-0.465136	0.928792	-0.304633	-0.120335	-0.271271	0.749751	-0.311777	0.012648	-0.268261	0.444607	-0.388636	0.196903	-0.43674	0.582402	-0.433021	0.338593	-0.666333	1.33245	-0.49439	0.249807	-0.387432	0.712986	-0.480634	0.015472	-0.463016	0.12848	
0.778638	3.71551	5	0	-0.582904	0.25405	-0.192637	0.56017	-0.322932	0.127603	-0.462241	0.92061	-0.30087	-0.13097	-0.261546	0.743397	-0.308397	0.003095	-0.268261	0.444607	-0.385941	0.189286	-0.435182	0.577997	-0.430866	0.332503	-0.670856	1.32137	-0.491718	0.242255	-0.396336	0.710329	-0.496571	0.015522	-0.467758	0.122267	
0.767918	3.73077	5	0	-0.584783	0.259361	-0.197467	0.560699	-0.324732	0.13269	-0.470393	0.929081	-0.30181	-0.128312	-0.263637	0.749305	-0.305467	0.00852475	-0.261551	0.444057	-0.382938	0.19318	-0.428792	0.577208	-0.439768	0.343002	-0.670856	1.32137	-0.498466	0.243763	-0.395037	0.706658	-0.486224	0.008761	-0.468614	0.124688	
0.754457	3.73688	0	5	-0.586662	0.264672	-0.202297	0.561228	-0.326532	0.137777	-0.478546	0.937553	-0.302751	-0.125655	-0.265728	0.755213	-0.302537	0.0139545	-0.254841	0.443507	-0.379935	0.197073	-0.422402	0.576419	-0.44867	0.3535	-0.670856	1.32137	-0.505214	0.245271	-0.393738	0.702986	-0.475877	0.002	-0.469471	0.12711	
0.739467	3.74451	0	5	-0.588542	0.269983	-0.207127	0.561757	-0.328332	0.142865	-0.486698	0.946024	-0.303691	-0.122998	-0.267818	0.761122	-0.299607	0.0193842	-0.248131	0.442957	-0.376933	0.200966	-0.416012	0.57563	-0.457572	0.363999	-0.670856	1.32137	-0.511962	0.246779	-0.392439	0.699315	-0.46553	-0.004761	-0.470328	0.129531	
0.724172	3.74603	0	5	-0.590421	0.275294	-0.211957	0.562286	-0.330132	0.147952	-0.49485	0.954495	-0.304631	-0.12034	-0.269909	0.76703	-0.296677	0.024814	-0.241421	0.442407	-0.37393	0.20486	-0.409622	0.574841	-0.466474	0.374497	-0.670856	1.32137	-0.51871	0.248287	-0.39114	0.695644	-0.455183	-0.011522	-0.471184	0.131952	
0.709797	3.74908	0	5	-0.591163	0.265575	-0.208333	0.552043	-0.335956	0.141984	-0.489065	0.938146	-0.309138	-0.129644	-0.275454	0.761571	-0.292171	0.0120787	-0.239656	0.437419	-0.371235	0.197243	-0.414454	0.571227	-0.463243	0.365364	-0.664409	1.30315	-0.517375	0.244515	-0.401328	0.69666	-0.452007	-0.0204975	-0.474838	0.132478	
0.697567	3.74603	0	5	-0.591904	0.255856	-0.204708	0.541799	-0.34178	0.136016	-0.48328	0.921798	-0.313646	-0.138949	-0.280999	0.756113	-0.287664	-0.0006565	-0.237891	0.432431	-0.36854	0.189626	-0.419286	0.567613	-0.460011	0.356231	-0.657963	1.28493	-0.516041	0.240742	-0.411517	0.697676	-0.448831	-0.029473	-0.478492	0.133004	
0.688335	3.74298	0	5	-0.592645	0.246138	-0.201083	0.531556	-0.347604	0.130048	-0.477495	0.905449	-0.318153	-0.148253	-0.286543	0.750655	-0.283158	-0.0133917	-0.236126	0.427444	-0.365844	0.18201	-0.424118	0.564	-0.45678	0.347098	-0.651516	1.26671	-0.514706	0.23697	-0.421706	0.698691	-0.445656	-0.0384485	-0.482146	0.13353	
0.681636	3.73688	0	5	-0.593387	0.236419	-0.197459	0.521313	-0.353428	0.12408	-0.47171	0.8891	-0.32266	-0.157557	-0.292088	0.745196	-0.278652	-0.026127	-0.234361	0.422456	-0.363149	0.174393	-0.42895	0.560386	-0.453548	0.337965	-0.645069	1.24849	-0.513371	0.233198	-0.431894	0.699707	-0.44248	-0.047424	-0.4858	0.134056	
0.676714	3.73688	0	5	-0.595264	0.241725	-0.20591	0.532084	-0.349168	0.12325	-0.47841	0.893478	-0.320783	-0.162862	-0.29	0.739295	-0.272337	-0.0302533	-0.234361	0.422456	-0.364047	0.176931	-0.427393	0.555986	-0.453548	0.337965	-0.667219	1.23968	-0.520113	0.234704	-0.431798	0.68556	-0.45124	-0.0451475	-0.488596	0.132162	
0.672811	3.72772	0	5	-0.597142	0.247032	-0.214361	0.542855	-0.344907	0.12242	-0.48511	0.897855	-0.318906	-0.168166	-0.287913	0.733395	-0.266022	-0.0343795	-0.234361	0.422456	-0.364946	0.17947	-0.425836	0.551586	-0.453548	0.337965	-0.689369	1.23087	-0.526855	0.236211	-0.431701	0.671413	-0.46	-0.042871	-0.491391	0.130267	
0.66917	3.72467	0	5	-0.59902	0.252339	-0.222811	0.553625	-0.340647	0.121589	-0.49181	0.902233	-0.317029	-0.173471	-0.285825	0.727494	-0.259708	-0.0385058	-0.234361	0.422456	-0.365844	0.182008	-0.424279	0.547185	-0.453548	0.337965	-0.71152	1.22207	-0.533596	0.237717	-0.431605	0.657267	-0.46876	-0.0405945	-0.494186	0.128373	
0.665092	3.71399	0	5	-0.600897	0.257645	-0.231262	0.564396	-0.336386	0.120759	-0.49851	0.906611	-0.315152	-0.178776	-0.283737	0.721594	-0.253393	-0.042632	-0.234361	0.422456	-0.366742	0.184546	-0.422722	0.542785	-0.453548	0.337965	-0.73367	1.21326	-0.540338	0.239224	-0.431508	0.64312	-0.47752	-0.038318	-0.496982	0.126478	
