3.98407	0	0	-0.073904	0.163129	-0.054789	0.03968	-0.012144	-0.001229	-0.066596	0.233296	0.173677	0.097402	0.117834	0.304706	0.103762	0.090739	0.144667	0.264046	0.038283	0.027997	0.069874	0.162941	0.020875	0.010818	0.021488	0.22904	0.052207	0.22931	0.114218	0.371011	0.07484	0.309727	-0.033063	0.215408	
3.98254	0	0	-0.0703562	0.165138	-0.0499042	0.0392607	-0.012144	-0.001229	-0.072753	0.250696	0.177709	0.0968273	0.121107	0.317254	0.103762	0.090739	0.142779	0.269382	0.0401467	0.0227297	0.0682345	0.167574	0.0141803	0.0151925	0.0192397	0.235394	0.0466898	0.244903	0.11529	0.382097	0.0787267	0.321498	-0.0423995	0.231625	
3.98712	0	0	-0.0668085	0.167148	-0.0450195	0.0388415	-0.012144	-0.001229	-0.07891	0.268096	0.18174	0.0962525	0.12438	0.329801	0.103762	0.090739	0.140891	0.274719	0.0420105	0.0174625	0.066595	0.172208	0.0074855	0.019567	0.0169915	0.241748	0.0411725	0.260495	0.116362	0.393184	0.0826135	0.33327	-0.051736	0.247841	
3.98865	0	0	-0.0632608	0.169158	-0.0401347	0.0384223	-0.012144	-0.001229	-0.085067	0.285496	0.185772	0.0956777	0.127652	0.342349	0.103762	0.090739	0.139002	0.280056	0.0438743	0.0121953	0.0649555	0.176841	0.00079075	0.0239415	0.0147432	0.248103	0.0356552	0.276087	0.117434	0.40427	0.0865003	0.345042	-0.0610725	0.264058	
3.99322	0	0	-0.059713	0.171167	-0.03525	0.038003	-0.012144	-0.001229	-0.091224	0.302896	0.189804	0.095103	0.130925	0.354897	0.103762	0.090739	0.137114	0.285392	0.045738	0.006928	0.063316	0.181474	-0.005904	0.028316	0.012495	0.254457	0.030138	0.29168	0.118506	0.415356	0.090387	0.356813	-0.070409	0.280275	
3.99628	0	0	-0.0490558	0.177203	-0.0329162	0.0448018	-0.00413725	0.00949225	-0.0835437	0.311281	0.195977	0.099314	0.138713	0.354711	0.110573	0.099206	0.148553	0.29024	0.042942	0.01483	0.0681105	0.185471	-0.0025235	0.0333077	0.0193252	0.259774	0.0355053	0.294175	0.120933	0.422624	0.0975745	0.359283	-0.0732057	0.288179	
3.99933	0	0	-0.0383985	0.183238	-0.0305825	0.0516005	0.0038695	0.0202135	-0.0758635	0.319666	0.202151	0.103525	0.1465	0.354525	0.117384	0.107673	0.159993	0.295088	0.040146	0.022732	0.072905	0.189468	0.000857	0.0382995	0.0261555	0.265091	0.0408725	0.296669	0.123359	0.429891	0.104762	0.361754	-0.0760025	0.296084	
3.9978	0	0	-0.0277413	0.189274	-0.0282487	0.0583993	0.0118762	0.0309347	-0.0681833	0.328051	0.208324	0.107736	0.154287	0.354338	0.124195	0.11614	0.171432	0.299936	0.03735	0.030634	0.0776995	0.193464	0.0042375	0.0432913	0.0329857	0.270408	0.0462397	0.299163	0.125786	0.437159	0.11195	0.364224	-0.0787993	0.303988	
4.0039	0	0	-0.017084	0.195309	-0.025915	0.065198	0.019883	0.041656	-0.060503	0.336436	0.214497	0.111947	0.162075	0.354152	0.131006	0.124607	0.182871	0.304784	0.034554	0.038536	0.082494	0.197461	0.007618	0.048283	0.039816	0.275725	0.051607	0.301658	0.128213	0.444427	0.119137	0.366694	-0.081596	0.311893	
4.00543	0	0	-0.028181	0.20256	-0.036963	0.0696413	0.018964	0.0442533	-0.0674302	0.340962	0.209747	0.12537	0.157557	0.366919	0.130242	0.14064	0.179084	0.315486	0.0366308	0.057468	0.0742755	0.220687	0.00767925	0.0626667	0.033052	0.294841	0.0595877	0.314479	0.133066	0.458997	0.121375	0.383182	-0.0675083	0.322983	
4.00543	0	0	-0.039278	0.209811	-0.048011	0.0740845	0.018045	0.0468505	-0.0743575	0.345488	0.204997	0.138794	0.15304	0.379687	0.129478	0.156672	0.175297	0.326187	0.0387075	0.0764	0.066057	0.243914	0.0077405	0.0770505	0.026288	0.313958	0.0675685	0.327301	0.137919	0.473567	0.123613	0.39967	-0.0534205	0.334072	
4.00543	0	0	-0.050375	0.217062	-0.059059	0.0785278	0.017126	0.0494477	-0.0812848	0.350015	0.200248	0.152218	0.148523	0.392454	0.128715	0.172704	0.171511	0.336889	0.0407843	0.095332	0.0578385	0.267141	0.00780175	0.0914342	0.019524	0.333074	0.0755492	0.340122	0.142772	0.488137	0.12585	0.416157	-0.0393327	0.345162	
4.00543	0	0	-0.061472	0.224313	-0.070107	0.082971	0.016207	0.052045	-0.088212	0.354541	0.195498	0.165641	0.144005	0.405221	0.127951	0.188737	0.167724	0.347591	0.042861	0.114264	0.04962	0.290367	0.007863	0.105818	0.01276	0.352191	0.08353	0.352944	0.147625	0.502707	0.128088	0.432645	-0.025245	0.356252	
4.0039	0	0	-0.058921	0.229155	-0.059059	0.0785278	0.0176507	0.0590945	-0.0859195	0.363113	0.203576	0.164495	0.149537	0.411436	0.129566	0.198057	0.174397	0.347348	0.0457673	0.118463	0.0560573	0.289738	0.005647	0.112081	0.0195893	0.357544	0.0821443	0.35686	0.144899	0.510413	0.131395	0.423299	-0.0195997	0.360698	
4.0039	0	0	-0.05637	0.233997	-0.048011	0.0740845	0.0190945	0.066144	-0.083627	0.371684	0.211653	0.163349	0.155068	0.417651	0.131181	0.207377	0.181071	0.347105	0.0486735	0.122663	0.0624945	0.289108	0.003431	0.118344	0.0264185	0.362897	0.0807585	0.360776	0.142172	0.518118	0.134702	0.413952	-0.0139545	0.365144	
3.99933	0	0	-0.053819	0.238839	-0.036963	0.0696413	0.0205383	0.0731935	-0.0813345	0.380255	0.219731	0.162203	0.1606	0.423865	0.132796	0.216697	0.187744	0.346862	0.0515798	0.126862	0.0689317	0.288479	0.001215	0.124606	0.0332477	0.36825	0.0793727	0.364692	0.139446	0.525823	0.138009	0.404606	-0.00830925	0.36959	
3.9978	0	0	-0.051268	0.243681	-0.025915	0.065198	0.021982	0.080243	-0.079042	0.388827	0.227809	0.161057	0.166132	0.43008	0.134411	0.226017	0.194417	0.346619	0.054486	0.131061	0.075369	0.28785	-0.001001	0.130869	0.040077	0.373603	0.077987	0.368608	0.136719	0.533529	0.141316	0.395259	-0.002664	0.374036	
3.9978	0	0	-0.045615	0.263906	-0.0238105	0.0860693	0.0211743	0.104805	-0.0798485	0.40617	0.227319	0.184149	0.168395	0.423685	0.140441	0.25069	0.194417	0.346619	0.0584265	0.144775	0.0801648	0.291876	0.00237725	0.13589	0.0469148	0.378964	0.080591	0.378962	0.138082	0.529675	0.138009	0.404606	0.0294437	0.406169	
3.98865	0	0	-0.039962	0.284131	-0.021706	0.106941	0.0203665	0.129367	-0.080655	0.423512	0.22683	0.207241	0.170658	0.41729	0.146472	0.275363	0.194417	0.346619	0.062367	0.15849	0.0849605	0.295901	0.0057555	0.140911	0.0537525	0.384325	0.083195	0.389316	0.139446	0.525822	0.134702	0.413952	0.0615515	0.438302	
3.98865	0	0	-0.034309	0.304356	-0.0196015	0.127812	0.0195587	0.153929	-0.0814615	0.440855	0.22634	0.230333	0.17292	0.410895	0.152502	0.300035	0.194417	0.346619	0.0663075	0.172204	0.0897562	0.299926	0.00913375	0.145932	0.0605902	0.389687	0.085799	0.399671	0.14081	0.521969	0.131395	0.423299	0.0936592	0.470434	
3.98254	0	0	-0.028656	0.324581	-0.017497	0.148683	0.018751	0.178491	-0.082268	0.458198	0.22585	0.253425	0.175183	0.4045	0.158532	0.324708	0.194417	0.346619	0.070248	0.185918	0.094552	0.303952	0.012512	0.150953	0.067428	0.395048	0.088403	0.410025	0.142173	0.518115	0.128088	0.432645	0.125767	0.502567	
3.99017	0	0	-0.0169785	0.32785	-0.008984	0.151481	0.02717	0.177004	-0.07917	0.449442	0.233943	0.252285	0.166373	0.385727	0.16134	0.330697	0.184863	0.336407	0.0664928	0.196531	0.094552	0.303952	0.005807	0.155334	0.058329	0.396077	0.099173	0.415065	0.128102	0.515472	0.135289	0.435133	0.155205	0.543061	
3.98102	0	0	-0.005301	0.33112	-0.000471	0.15428	0.035589	0.175517	-0.076072	0.440687	0.242037	0.251146	0.157564	0.366954	0.164148	0.336686	0.175308	0.326195	0.0627375	0.207143	0.094552	0.303952	-0.000898	0.159716	0.04923	0.397107	0.109943	0.420104	0.11403	0.512829	0.142491	0.43762	0.184643	0.583556	
3.97186	0	0	0.0063765	0.33439	0.008042	0.157079	0.044008	0.174029	-0.072974	0.431932	0.250131	0.250006	0.148754	0.348181	0.166956	0.342676	0.165753	0.315984	0.0589822	0.217756	0.094552	0.303952	-0.007603	0.164097	0.040131	0.398136	0.120713	0.425144	0.0999585	0.510186	0.149692	0.440107	0.214081	0.62405	
3.98407	0	0	0.018054	0.337659	0.016555	0.159877	0.052427	0.172542	-0.069876	0.423176	0.258224	0.248866	0.139944	0.329408	0.169764	0.348665	0.156199	0.305772	0.055227	0.228369	0.094552	0.303952	-0.014308	0.168478	0.031032	0.399165	0.131483	0.430184	0.085887	0.507543	0.156893	0.442595	0.243519	0.664544	
3.98865	0	0	0.0257308	0.352306	0.026133	0.173168	0.0562315	0.184123	-0.0714245	0.427553	0.259408	0.256397	0.126646	0.323421	0.180602	0.359874	0.149539	0.306017	0.0619798	0.234169	0.088109	0.304582	-0.016528	0.174752	0.0332933	0.392775	0.1287	0.438049	0.074259	0.512185	0.155236	0.447277	0.261634	0.665131	
3.9978	0	0	0.0334075	0.366953	0.035711	0.186458	0.060036	0.195705	-0.072973	0.431929	0.260591	0.263928	0.113348	0.317435	0.191441	0.371084	0.142878	0.306261	0.0687325	0.239969	0.081666	0.305211	-0.018748	0.181026	0.0355545	0.386384	0.125917	0.445914	0.062631	0.516826	0.15358	0.451959	0.279748	0.665717	
4.01153	0	0	0.0410843	0.381601	0.045289	0.199748	0.0638405	0.207286	-0.0745215	0.436306	0.261775	0.271459	0.10005	0.311449	0.202279	0.382294	0.136217	0.306505	0.0754853	0.245769	0.075223	0.305841	-0.020968	0.187299	0.0378158	0.379993	0.123134	0.453779	0.051003	0.521468	0.151923	0.45664	0.297863	0.666304	
4.02069	0	0	0.048761	0.396248	0.054867	0.213039	0.067645	0.218867	-0.07607	0.440682	0.262959	0.27899	0.086752	0.305462	0.213117	0.393503	0.129557	0.30675	0.082238	0.251569	0.06878	0.30647	-0.023188	0.193573	0.040077	0.373603	0.120351	0.461644	0.039375	0.52611	0.150266	0.461322	0.315977	0.666891	
4.02069	0	0	0.042713	0.41334	0.0471345	0.234892	0.0686637	0.238348	-0.08993	0.449739	0.264363	0.296795	0.0744932	0.31836	0.213913	0.419198	0.125775	0.317439	0.086248	0.277624	0.0686225	0.324495	-0.0130658	0.208705	0.0332885	0.392788	0.127135	0.460237	0.0496417	0.525315	0.160791	0.454445	0.313114	0.674982	
4.00848	0	0	0.036665	0.430432	0.039402	0.256744	0.0696825	0.257828	-0.10379	0.458795	0.265766	0.3146	0.0622345	0.331259	0.214709	0.444893	0.121993	0.328128	0.090258	0.30368	0.068465	0.342519	-0.0029435	0.223837	0.0265	0.411973	0.133918	0.45883	0.0599085	0.52452	0.171316	0.447568	0.310252	0.683072	
4.00085	0	0	0.030617	0.447524	0.0316695	0.278597	0.0707013	0.277309	-0.11765	0.467851	0.26717	0.332405	0.0499757	0.344158	0.215506	0.470588	0.11821	0.338817	0.094268	0.329736	0.0683075	0.360544	0.00717875	0.23897	0.0197115	0.431158	0.140702	0.457422	0.0701752	0.523726	0.181841	0.440691	0.307389	0.691163	
4.0039	0	0	0.024569	0.464616	0.023937	0.30045	0.07172	0.296789	-0.13151	0.476908	0.268573	0.35021	0.037717	0.357056	0.216302	0.496283	0.114428	0.349506	0.098278	0.355791	0.06815	0.378568	0.017301	0.254102	0.012923	0.450343	0.147485	0.456015	0.080442	0.522931	0.192366	0.433814	0.304526	0.699253	
4.01916	0	0	0.0291428	0.46382	0.028847	0.300046	0.0698623	0.302039	-0.126132	0.476761	0.266655	0.355631	0.0454743	0.356879	0.212673	0.506538	0.112535	0.354855	0.100241	0.362724	0.06815	0.378568	0.0128425	0.266703	0.010657	0.456747	0.137916	0.465294	0.076355	0.534482	0.180184	0.445375	0.298799	0.705069	
4.02374	0	0	0.0337165	0.463024	0.033757	0.299642	0.0680045	0.307289	-0.120754	0.476613	0.264737	0.361051	0.0532315	0.356703	0.209044	0.516794	0.110643	0.360204	0.102203	0.369656	0.06815	0.378568	0.008384	0.279303	0.008391	0.463151	0.128348	0.474573	0.072268	0.546032	0.168001	0.456936	0.293073	0.710886	
4.02984	0	0	0.0382902	0.462228	0.038667	0.299237	0.0661468	0.31254	-0.115377	0.476465	0.262819	0.366472	0.0609888	0.356526	0.205416	0.527049	0.10875	0.365554	0.104165	0.376589	0.06815	0.378568	0.0039255	0.291903	0.006125	0.469555	0.118779	0.483852	0.068181	0.557582	0.155819	0.468498	0.287347	0.716702	
4.04205	0	0	0.042864	0.461432	0.043577	0.298833	0.064289	0.31779	-0.109999	0.476318	0.260901	0.371893	0.068746	0.356349	0.201787	0.537304	0.106857	0.370903	0.106128	0.383522	0.06815	0.378568	-0.000533	0.304504	0.003859	0.475959	0.10921	0.493131	0.064094	0.569133	0.143637	0.480059	0.28162	0.722518	
4.06494	0	0	0.0464315	0.463488	0.0508243	0.305325	0.0699432	0.324196	-0.111549	0.480699	0.264956	0.371328	0.0642382	0.369089	0.212247	0.53573	0.111619	0.376024	0.104236	0.388869	0.0648448	0.38791	0.00284	0.309574	0.00159125	0.482368	0.103827	0.490596	0.0654567	0.565281	0.136439	0.477562	0.273998	0.712989	
4.0802	0	0	0.049999	0.465544	0.0580715	0.311817	0.0755975	0.330603	-0.113099	0.48508	0.269011	0.370762	0.0597305	0.381829	0.222707	0.534157	0.116381	0.381144	0.102344	0.394217	0.0615395	0.397251	0.006213	0.314645	-0.0006765	0.488777	0.0984445	0.488062	0.0668195	0.56143	0.129241	0.475065	0.266377	0.703461	
4.11072	0	0	0.0535665	0.4676	0.0653188	0.31831	0.0812517	0.33701	-0.11465	0.489461	0.273067	0.370197	0.0552228	0.394568	0.233166	0.532583	0.121144	0.386265	0.100452	0.399564	0.0582343	0.406593	0.009586	0.319716	-0.00294425	0.495185	0.0930617	0.485528	0.0681822	0.557578	0.122043	0.472567	0.258755	0.693933	
4.1336	0	0	0.057134	0.469656	0.072566	0.324802	0.086906	0.343416	-0.1162	0.493842	0.277122	0.369632	0.050715	0.407308	0.243626	0.53101	0.125906	0.391386	0.09856	0.404912	0.054929	0.415934	0.012959	0.324786	-0.005212	0.501594	0.087679	0.482993	0.069545	0.553726	0.114845	0.47007	0.251133	0.684404	
4.15802	0	0	0.0556467	0.486005	0.0697165	0.346357	0.0836767	0.363746	-0.119303	0.50261	0.280436	0.382077	0.0529698	0.400936	0.242799	0.547358	0.125906	0.391386	0.103427	0.416141	0.0597188	0.419994	0.00848925	0.337418	-0.00748125	0.508007	0.095847	0.477656	0.0698542	0.538737	0.127013	0.458522	0.273079	0.694955	
4.18243	0	0	0.0541595	0.502354	0.066867	0.367912	0.0804475	0.384076	-0.122405	0.511378	0.283749	0.394522	0.0552245	0.394564	0.241971	0.563707	0.125906	0.391386	0.108294	0.427369	0.0645085	0.424053	0.0040195	0.350049	-0.0097505	0.514421	0.104015	0.472318	0.0701635	0.523747	0.13918	0.446974	0.295025	0.705506	
4.20074	0	0	0.0526723	0.518702	0.0640175	0.389467	0.0772183	0.404405	-0.125507	0.520147	0.287062	0.406968	0.0574793	0.388191	0.241144	0.580056	0.125906	0.391386	0.113162	0.438597	0.0692983	0.428113	-0.00045025	0.36268	-0.0120197	0.520835	0.112183	0.466981	0.0704728	0.508757	0.151348	0.435426	0.316972	0.716057	
4.22058	0	0	0.051185	0.535051	0.061168	0.411022	0.073989	0.424735	-0.12861	0.528915	0.290376	0.419413	0.059734	0.381819	0.240316	0.596404	0.125906	0.391386	0.118029	0.449826	0.074088	0.432173	-0.00492	0.375312	-0.014289	0.527248	0.120351	0.461644	0.070782	0.493768	0.163516	0.423878	0.338918	0.726608	
4.23126	0	0	0.049641	0.527269	0.0650557	0.400035	0.0777188	0.414194	-0.122408	0.511387	0.288239	0.414544	0.048731	0.369448	0.237508	0.59033	0.116385	0.381152	0.107478	0.45466	0.0692983	0.428113	-0.00268425	0.368994	-0.009752	0.514426	0.120351	0.461644	0.0632375	0.486891	0.153004	0.430746	0.349444	0.738457	
4.24652	0	0	0.048097	0.519486	0.0689435	0.389048	0.0814485	0.403653	-0.116206	0.493859	0.286103	0.409674	0.037728	0.357077	0.2347	0.584256	0.106865	0.370918	0.0969275	0.459493	0.0645085	0.424053	-0.0004485	0.362676	-0.005215	0.501604	0.120351	0.461644	0.055693	0.480013	0.142492	0.437615	0.35997	0.750307	
4.27093	0	0	0.046553	0.511704	0.0728313	0.378061	0.0851782	0.393113	-0.110003	0.476331	0.283966	0.404805	0.026725	0.344706	0.231892	0.578183	0.0973445	0.360683	0.0863768	0.464327	0.0597188	0.419994	0.00178725	0.356358	-0.000678	0.488781	0.120351	0.461644	0.0481485	0.473136	0.13198	0.444483	0.370496	0.762157	
4.29382	0	0	0.045009	0.503922	0.076719	0.367074	0.088908	0.382572	-0.103801	0.458803	0.281829	0.399936	0.015722	0.332335	0.229084	0.572109	0.087824	0.350449	0.075826	0.469161	0.054929	0.415934	0.004023	0.35004	0.003859	0.475959	0.120351	0.461644	0.040604	0.466259	0.121468	0.451352	0.381022	0.774006	
4.31824	0	0	0.0480402	0.495356	0.0855267	0.355693	0.126022	0.356297	-0.107632	0.454578	0.279693	0.395072	0.0179687	0.325985	0.227488	0.562622	0.08307	0.345343	0.0729252	0.46488	0.0501433	0.411879	-0.00158075	0.351274	-0.00295725	0.47057	0.117746	0.451258	0.0395467	0.455163	0.12643	0.437329	0.376235	0.756329	
4.3457	0	0	0.0510715	0.486789	0.0943345	0.344313	0.163135	0.330022	-0.111462	0.450354	0.277556	0.390209	0.0202155	0.319636	0.225891	0.553135	0.078316	0.340236	0.0700245	0.460598	0.0453575	0.407825	-0.0071845	0.352509	-0.0097735	0.46518	0.115142	0.440873	0.0384895	0.444067	0.131392	0.423306	0.371447	0.738652	
4.36249	0	0	0.0541027	0.478222	0.103142	0.332932	0.200248	0.303747	-0.115293	0.446129	0.275419	0.385346	0.0224622	0.313287	0.224295	0.543648	0.073562	0.33513	0.0671238	0.456317	0.0405717	0.40377	-0.0127883	0.353743	-0.0165898	0.45979	0.112537	0.430487	0.0374323	0.432971	0.136354	0.409282	0.36666	0.720975	
4.37317	0	0	0.057134	0.469656	0.11195	0.321551	0.237362	0.277472	-0.119124	0.441904	0.273283	0.380482	0.024709	0.306937	0.222698	0.534161	0.068808	0.330024	0.064223	0.452035	0.035786	0.399715	-0.018392	0.354977	-0.023406	0.454401	0.109932	0.420101	0.036375	0.421875	0.141316	0.395259	0.361872	0.703298	
4.37927	0	0	0.0469742	0.474101	0.100811	0.326019	0.232184	0.280855	-0.119124	0.441904	0.272323	0.383195	0.0224622	0.313287	0.222698	0.534161	0.0669185	0.335364	0.0699667	0.448282	0.035786	0.399715	-0.0217448	0.364452	-0.023406	0.454401	0.105938	0.413659	0.0377297	0.418046	0.125285	0.39497	0.352305	0.688806	
4.39453	0	0	0.0368145	0.478546	0.089672	0.330487	0.227005	0.284239	-0.119124	0.441904	0.271363	0.385908	0.0202155	0.319636	0.222698	0.534161	0.065029	0.340703	0.0757105	0.444528	0.035786	0.399715	-0.0250975	0.373927	-0.023406	0.454401	0.101943	0.407218	0.0390845	0.414218	0.109255	0.39468	0.342739	0.674315	
4.40063	0	0	0.0266548	0.48299	0.078533	0.334954	0.221827	0.287623	-0.119124	0.441904	0.270403	0.388622	0.0179687	0.325985	0.222698	0.534161	0.0631395	0.346043	0.0814543	0.440775	0.035786	0.399715	-0.0284502	0.383403	-0.023406	0.454401	0.0979493	0.400776	0.0404392	0.410389	0.0932237	0.394391	0.333172	0.659824	
4.40826	0	0	0.016495	0.487435	0.067394	0.339422	0.216649	0.291006	-0.119124	0.441904	0.269443	0.391335	0.015722	0.332335	0.222698	0.534161	0.06125	0.351383	0.087198	0.437022	0.035786	0.399715	-0.031803	0.392878	-0.023406	0.454401	0.093955	0.394334	0.041794	0.40656	0.077193	0.394102	0.323605	0.645332	
4.41131	0	0	0.011392	0.477621	0.0725635	0.324812	0.202482	0.286109	-0.117577	0.437532	0.261122	0.382184	0.0179687	0.325985	0.211862	0.522852	0.056502	0.346278	0.0832833	0.423135	0.0245785	0.39628	-0.0284502	0.383403	-0.0302138	0.44902	0.0845887	0.385394	0.034258	0.399723	0.0749593	0.377658	0.305473	0.624121	
4.42047	0	0	0.006289	0.467807	0.077733	0.310201	0.188315	0.281212	-0.11603	0.433159	0.252801	0.373032	0.0202155	0.319636	0.201026	0.511544	0.051754	0.341172	0.0793685	0.409248	0.013371	0.392844	-0.0250975	0.373927	-0.0370215	0.443639	0.0752225	0.376454	0.026722	0.392885	0.0727255	0.361214	0.287342	0.602911	
4.43878	0	0	0.001186	0.457992	0.0829025	0.29559	0.174148	0.276314	-0.114483	0.428787	0.24448	0.363881	0.0224622	0.313287	0.190189	0.500235	0.047006	0.336067	0.0754537	0.395361	0.0021635	0.389409	-0.0217448	0.364452	-0.0438293	0.438258	0.0658563	0.367514	0.019186	0.386048	0.0704917	0.344771	0.269211	0.5817	
4.45709	0	0	-0.003917	0.448178	0.088072	0.28098	0.159981	0.271417	-0.112936	0.424414	0.236159	0.35473	0.024709	0.306937	0.179353	0.488926	0.042258	0.330962	0.071539	0.381474	-0.009044	0.385974	-0.018392	0.354977	-0.050637	0.432877	0.05649	0.358574	0.01165	0.379211	0.068258	0.328327	0.251079	0.560489	
4.4754	0	0	-0.0008955	0.439639	0.0893633	0.277331	0.155748	0.272163	-0.106009	0.419888	0.23594	0.344472	0.0324593	0.306754	0.18137	0.469268	0.0441452	0.325628	0.0657355	0.372958	-0.00574725	0.376657	-0.0228745	0.353054	-0.0483775	0.426491	0.053887	0.348251	0.0143533	0.371571	0.064374	0.316576	0.240592	0.538545	
4.49829	0	0	0.002126	0.431099	0.0906545	0.273682	0.151515	0.27291	-0.0990815	0.415361	0.235722	0.334213	0.0402095	0.306571	0.183388	0.449609	0.0460325	0.320295	0.059932	0.364443	-0.0024505	0.367339	-0.027357	0.351131	-0.046118	0.420106	0.051284	0.337927	0.0170565	0.363932	0.06049	0.304825	0.230106	0.516601	
4.51965	0	0	0.0051475	0.42256	0.0919457	0.270034	0.147282	0.273656	-0.0921542	0.410834	0.235504	0.323955	0.0479598	0.306389	0.185405	0.429951	0.0479197	0.314962	0.0541285	0.355927	0.00084625	0.358022	-0.0318395	0.349207	-0.0438585	0.41372	0.048681	0.327604	0.0197597	0.356293	0.056606	0.293075	0.21962	0.494657	
4.54407	0	0	0.008169	0.414021	0.093237	0.266385	0.143049	0.274402	-0.085227	0.406308	0.235285	0.313697	0.05571	0.306206	0.187422	0.410293	0.049807	0.309628	0.048325	0.347411	0.004143	0.348705	-0.036322	0.347284	-0.041599	0.407334	0.046078	0.317281	0.022463	0.348653	0.052722	0.281324	0.209133	0.472713	
4.57153	0	0	0.005072	0.398569	0.0885578	0.252635	0.135934	0.260902	-0.082135	0.39757	0.22602	0.307291	0.05571	0.306206	0.174195	0.405865	0.0450607	0.304536	0.0444828	0.345824	0.004143	0.348705	-0.0374382	0.350439	-0.0506578	0.408347	0.0488415	0.309471	0.0238135	0.344836	0.0455573	0.278872	0.202488	0.4709	
4.59289	0	0	0.001975	0.383117	0.0838785	0.238885	0.128818	0.247401	-0.079043	0.388831	0.216755	0.300884	0.05571	0.306206	0.160969	0.401438	0.0403145	0.299445	0.0406405	0.344237	0.004143	0.348705	-0.0385545	0.353594	-0.0597165	0.409361	0.051605	0.301662	0.025164	0.341019	0.0383925	0.276421	0.195844	0.469087	
4.60968	0	0	-0.001122	0.367665	0.0791992	0.225136	0.121702	0.233901	-0.075951	0.380093	0.20749	0.294478	0.05571	0.306206	0.147742	0.39701	0.0355682	0.294353	0.0367982	0.342649	0.004143	0.348705	-0.0396707	0.356749	-0.0687752	0.410374	0.0543685	0.293852	0.0265145	0.337201	0.0312277	0.273969	0.189199	0.467274	
4.62494	0	0	-0.004219	0.352213	0.07452	0.211386	0.114587	0.2204	-0.072859	0.371355	0.198225	0.288071	0.05571	0.306206	0.134515	0.392582	0.030822	0.289261	0.032956	0.341062	0.004143	0.348705	-0.040787	0.359904	-0.077834	0.411387	0.057132	0.286042	0.027865	0.333384	0.024063	0.271517	0.182554	0.465461	
4.64325	0	0	-0.00376475	0.338838	0.0796665	0.196841	0.110772	0.208809	-0.0659262	0.366825	0.198956	0.275155	0.0634705	0.30602	0.136513	0.37302	0.0327057	0.283937	0.0290435	0.327252	-0.00063175	0.344669	-0.0430342	0.351675	-0.0755777	0.40501	0.047779	0.277166	0.0267947	0.322357	0.0234568	0.250558	0.176816	0.44056	
4.6524	0	0	-0.0033105	0.325464	0.084813	0.182296	0.106956	0.197219	-0.0589935	0.362295	0.199686	0.26224	0.071231	0.305834	0.138511	0.353458	0.0345895	0.278613	0.025131	0.313442	-0.0054065	0.340634	-0.0452815	0.343446	-0.0733215	0.398634	0.038426	0.26829	0.0257245	0.31133	0.0228505	0.229599	0.171079	0.415659	
4.64783	0	0	-0.00285625	0.31209	0.0899595	0.167751	0.103141	0.185628	-0.0520608	0.357765	0.200416	0.249325	0.0789915	0.305648	0.140509	0.333896	0.0364732	0.27329	0.0212185	0.299632	-0.0101812	0.336598	-0.0475288	0.335217	-0.0710652	0.392257	0.029073	0.259414	0.0246543	0.300303	0.0222443	0.208639	0.165342	0.390758	
4.6463	0	0	-0.002402	0.298715	0.095106	0.153206	0.099326	0.174037	-0.045128	0.353235	0.201147	0.236409	0.086752	0.305462	0.142507	0.314334	0.038357	0.267966	0.017306	0.285822	-0.014956	0.332562	-0.049776	0.326988	-0.068809	0.385881	0.01972	0.250538	0.023584	0.289276	0.021638	0.18768	0.159604	0.365857	
4.6402	0	0	-0.00541025	0.307216	0.0961645	0.163696	0.0895533	0.190479	-0.049767	0.366346	0.2021	0.233716	0.084502	0.311821	0.144904	0.307561	0.0364732	0.27329	0.0191865	0.280508	-0.008534	0.331943	-0.049776	0.326988	-0.0665542	0.379509	0.022475	0.242752	0.024932	0.285467	0.026541	0.173823	0.155792	0.356105	
4.62646	0	0	-0.0084185	0.315717	0.097223	0.174187	0.0797805	0.206922	-0.054406	0.379456	0.203053	0.231022	0.082252	0.31818	0.147301	0.300787	0.0345895	0.278613	0.021067	0.275193	-0.002112	0.331323	-0.049776	0.326988	-0.0642995	0.373136	0.02523	0.234966	0.02628	0.281658	0.031444	0.159967	0.151981	0.346354	
4.60815	0	0	-0.0114267	0.324219	0.0982815	0.184677	0.0700077	0.223364	-0.059045	0.392567	0.204006	0.228328	0.080002	0.324538	0.149697	0.294013	0.0327057	0.283937	0.0229475	0.269879	0.00431	0.330704	-0.049776	0.326988	-0.0620448	0.366764	0.027985	0.22718	0.027628	0.277848	0.036347	0.14611	0.148169	0.336603	
4.59595	0	0	-0.014435	0.33272	0.09934	0.195167	0.060235	0.239807	-0.063684	0.405678	0.204959	0.225635	0.077752	0.330897	0.152094	0.28724	0.030822	0.289261	0.024828	0.264565	0.010732	0.330085	-0.049776	0.326988	-0.05979	0.360392	0.03074	0.219394	0.028976	0.274039	0.04125	0.132253	0.144357	0.326851	
4.58221	0	0	-0.0205418	0.325821	0.100627	0.191529	0.0536597	0.236057	-0.0567455	0.401144	0.200692	0.216011	0.077752	0.330897	0.146478	0.275311	0.0327057	0.283937	0.0190325	0.25611	0.0123783	0.325433	-0.0464325	0.317539	-0.057537	0.354024	0.0253785	0.216917	0.0303232	0.270231	0.0324603	0.134449	0.130207	0.336097	
4.56848	0	0	-0.0266485	0.318921	0.101915	0.187891	0.0470845	0.232306	-0.049807	0.39661	0.196425	0.206388	0.077752	0.330897	0.140863	0.263382	0.0345895	0.278613	0.013237	0.247654	0.0140245	0.32078	-0.043089	0.30809	-0.055284	0.347657	0.020017	0.214439	0.0316705	0.266424	0.0236705	0.136646	0.116057	0.345342	
4.5517	0	0	-0.0327552	0.312022	0.103203	0.184252	0.0405092	0.228556	-0.0428685	0.392077	0.192158	0.196765	0.077752	0.330897	0.135247	0.251454	0.0364732	0.27329	0.0074415	0.239199	0.0156707	0.316128	-0.0397455	0.298642	-0.053031	0.341289	0.0146555	0.211961	0.0330177	0.262617	0.0148807	0.138842	0.101907	0.354588	
4.53949	0	0	-0.038862	0.305123	0.10449	0.180614	0.033934	0.224806	-0.03593	0.387543	0.187891	0.187141	0.077752	0.330897	0.129631	0.239525	0.038357	0.267966	0.001646	0.230744	0.017317	0.311475	-0.036402	0.289193	-0.050778	0.334921	0.009294	0.209484	0.034365	0.258809	0.006091	0.141038	0.087757	0.363834	
4.52576	0	0	-0.0378605	0.302293	0.103203	0.184252	0.0330087	0.227421	-0.030534	0.38738	0.192879	0.183882	0.0832678	0.33708	0.13202	0.232772	0.046874	0.262401	0.00062425	0.221226	0.0108942	0.312097	-0.0397675	0.284135	-0.0485265	0.328558	0.0106695	0.205597	0.0357115	0.255003	0.000574	0.134012	0.08867	0.351017	
4.5105	0	0	-0.036859	0.299463	0.101915	0.187891	0.0320835	0.230037	-0.025138	0.387217	0.197868	0.180622	0.0887835	0.343263	0.13441	0.226019	0.055391	0.256835	-0.0003975	0.211709	0.0044715	0.312719	-0.043133	0.279078	-0.046275	0.322195	0.012045	0.20171	0.037058	0.251197	-0.004943	0.126986	0.089583	0.338201	
4.50134	0	0	-0.0358575	0.296633	0.100627	0.191529	0.0311582	0.232653	-0.019742	0.387054	0.202856	0.177363	0.0942993	0.349446	0.1368	0.219267	0.063908	0.25127	-0.00141925	0.202192	-0.00195125	0.31334	-0.0464985	0.274021	-0.0440235	0.315832	0.0134205	0.197823	0.0384045	0.247391	-0.01046	0.11996	0.090496	0.325384	
4.48608	0	0	-0.034856	0.293803	0.09934	0.195167	0.030233	0.235268	-0.014346	0.386891	0.207844	0.174103	0.099815	0.355629	0.139189	0.212514	0.072425	0.245705	-0.002441	0.192674	-0.008374	0.313962	-0.049864	0.268963	-0.041772	0.309469	0.014796	0.193936	0.039751	0.243585	-0.015977	0.112934	0.091409	0.312567	
4.48151	0	0	-0.0394087	0.294603	0.0957092	0.191946	0.033933	0.22481	-0.018195	0.382682	0.204989	0.182172	0.099815	0.355629	0.139189	0.212514	0.072425	0.245705	-0.00141925	0.202192	-0.00524475	0.322648	-0.045385	0.270873	-0.0462765	0.3222	0.014796	0.193936	0.0448718	0.243165	-0.015977	0.112934	0.093333	0.327608	
4.47388	0	0	-0.0439615	0.295403	0.0920785	0.188725	0.037633	0.214353	-0.022044	0.378472	0.202134	0.19024	0.099815	0.355629	0.139189	0.212514	0.072425	0.245705	-0.0003975	0.211709	-0.0021155	0.331334	-0.040906	0.272784	-0.050781	0.334931	0.014796	0.193936	0.0499925	0.242745	-0.015977	0.112934	0.095257	0.342649	
4.46319	0	0	-0.0485143	0.296202	0.0884478	0.185505	0.041333	0.203896	-0.025893	0.374262	0.199279	0.198308	0.099815	0.355629	0.139189	0.212514	0.072425	0.245705	0.00062425	0.221226	0.00101375	0.340019	-0.036427	0.274694	-0.0552855	0.347661	0.014796	0.193936	0.0551133	0.242325	-0.015977	0.112934	0.097181	0.357691	
4.45251	0	0	-0.053067	0.297002	0.084817	0.182284	0.045033	0.193438	-0.029742	0.370053	0.196424	0.206377	0.099815	0.355629	0.139189	0.212514	0.072425	0.245705	0.001646	0.230744	0.004143	0.348705	-0.031948	0.276604	-0.05979	0.360392	0.014796	0.193936	0.060234	0.241905	-0.015977	0.112934	0.099105	0.372732	
4.44488	0	0	-0.053067	0.297002	0.0861035	0.178648	0.0426707	0.188958	-0.02665	0.361315	0.198328	0.200997	0.0965493	0.343087	0.135187	0.209942	0.0676723	0.240632	-0.0003125	0.223875	0.00579025	0.34405	-0.0342022	0.268407	-0.0552855	0.347661	0.0161708	0.190051	0.054032	0.23134	-0.019862	0.101324	0.112349	0.376328	
4.43878	0	0	-0.053067	0.297002	0.08739	0.175013	0.0403085	0.184478	-0.023558	0.352577	0.200232	0.195617	0.0932835	0.330545	0.131184	0.207369	0.0629195	0.23556	-0.002271	0.217005	0.0074375	0.339395	-0.0364565	0.260209	-0.050781	0.334931	0.0175455	0.186165	0.04783	0.220776	-0.023747	0.089713	0.125593	0.379923	
4.4281	0	0	-0.053067	0.297002	0.0886765	0.171378	0.0379463	0.179999	-0.020466	0.343838	0.202135	0.190238	0.0900177	0.318004	0.127182	0.204797	0.0581668	0.230488	-0.0042295	0.210136	0.00908475	0.33474	-0.0387108	0.252012	-0.0462765	0.3222	0.0189202	0.182279	0.041628	0.210211	-0.027632	0.0781025	0.138838	0.383518	
4.41894	0	0	-0.053067	0.297002	0.089963	0.167742	0.035584	0.175519	-0.017374	0.3351	0.204039	0.184858	0.086752	0.305462	0.123179	0.202225	0.053414	0.225415	-0.006188	0.203266	0.010732	0.330085	-0.040965	0.243815	-0.041772	0.309469	0.020295	0.178394	0.035426	0.199646	-0.031517	0.066492	0.152082	0.387114	
4.41589	0	0	-0.0525218	0.307528	0.0959405	0.177822	0.0300367	0.191196	-0.017374	0.3351	0.206174	0.189667	0.0812382	0.299299	0.132382	0.203994	0.0449053	0.230974	0.0033595	0.201101	0.010732	0.330085	-0.03426	0.239434	-0.0485755	0.304141	0.0216693	0.17451	0.0394555	0.188257	-0.0298913	0.061897	0.162507	0.388481	
4.40826	0	0	-0.0519765	0.318055	0.101918	0.187903	0.0244895	0.206873	-0.017374	0.3351	0.208309	0.194477	0.0757245	0.293135	0.141585	0.205764	0.0363965	0.236534	0.012907	0.198935	0.010732	0.330085	-0.027555	0.235052	-0.055379	0.298814	0.0230435	0.170627	0.043485	0.176869	-0.0282655	0.057302	0.172932	0.389847	
4.39758	0	0	-0.0514312	0.328581	0.107896	0.197983	0.0189423	0.222549	-0.017374	0.3351	0.210445	0.199287	0.0702108	0.286971	0.150788	0.207533	0.0278878	0.242094	0.0224545	0.19677	0.010732	0.330085	-0.02085	0.230671	-0.0621825	0.293486	0.0244177	0.166743	0.0475145	0.165481	-0.0266398	0.052707	0.183356	0.391213	
4.39606	0	0	-0.050886	0.339107	0.113873	0.208063	0.013395	0.238226	-0.017374	0.3351	0.21258	0.204096	0.064697	0.280808	0.159991	0.209303	0.019379	0.247653	0.032002	0.194605	0.010732	0.330085	-0.014145	0.22629	-0.068986	0.288158	0.025792	0.162859	0.051544	0.154092	-0.025014	0.048112	0.193781	0.39258	
4.393	0	0	-0.04788	0.330611	0.112814	0.197564	0.0138105	0.225902	-0.0196802	0.326542	0.212347	0.19391	0.056945	0.280995	0.155984	0.206731	0.019379	0.247653	0.0234745	0.206292	0.00908475	0.33474	-0.014145	0.22629	-0.068986	0.288158	0.023043	0.170628	0.0437437	0.162106	-0.0282665	0.0573045	0.192861	0.405467	
4.38385	0	0	-0.044874	0.322115	0.111756	0.187064	0.014226	0.213579	-0.0219865	0.317985	0.212114	0.183723	0.049193	0.281183	0.151978	0.204159	0.019379	0.247653	0.014947	0.217979	0.0074375	0.339395	-0.014145	0.22629	-0.068986	0.288158	0.020294	0.178397	0.0359435	0.17012	-0.031519	0.066497	0.191941	0.418354	
4.38232	0	0	-0.041868	0.313619	0.110697	0.176565	0.0146415	0.201255	-0.0242928	0.309427	0.211882	0.173537	0.041441	0.28137	0.147972	0.201588	0.019379	0.247653	0.0064195	0.229665	0.00579025	0.34405	-0.014145	0.22629	-0.068986	0.288158	0.017545	0.186167	0.0281433	0.178134	-0.0347715	0.0756895	0.191022	0.431241	
4.37622	0	0	-0.038862	0.305123	0.109638	0.166066	0.015057	0.188931	-0.026599	0.300869	0.211649	0.163351	0.033689	0.281557	0.143965	0.199016	0.019379	0.247653	-0.002108	0.241352	0.004143	0.348705	-0.014145	0.22629	-0.068986	0.288158	0.014796	0.193936	0.020343	0.186148	-0.038024	0.084882	0.190102	0.444128	
4.37775	0	0	-0.0378605	0.302293	0.108351	0.169703	0.0192647	0.188189	-0.026599	0.300869	0.212834	0.170846	0.041441	0.28137	0.142771	0.202391	0.0156148	0.258291	0.0026665	0.240272	0.012219	0.343428	-0.02085	0.230671	-0.0667395	0.281809	0.0161708	0.190051	0.0189997	0.189944	-0.0363973	0.0802845	0.182521	0.444984	
4.38232	0	0	-0.036859	0.299463	0.107064	0.17334	0.0234725	0.187446	-0.026599	0.300869	0.214019	0.178341	0.049193	0.281183	0.141577	0.205765	0.0118505	0.268929	0.007441	0.239192	0.020295	0.338151	-0.027555	0.235052	-0.064493	0.275459	0.0175455	0.186165	0.0176565	0.193741	-0.0347705	0.075687	0.17494	0.445839	
4.38843	0	0	-0.0358575	0.296633	0.105777	0.176977	0.0276802	0.186704	-0.026599	0.300869	0.215204	0.185837	0.056945	0.280995	0.140383	0.20914	0.00808625	0.279567	0.0122155	0.238111	0.028371	0.332874	-0.03426	0.239434	-0.0622465	0.26911	0.0189202	0.182279	0.0163133	0.197537	-0.0331437	0.0710895	0.167359	0.446695	
4.39911	0	0	-0.034856	0.293803	0.10449	0.180614	0.031888	0.185962	-0.026599	0.300869	0.216389	0.193332	0.064697	0.280808	0.139189	0.212514	0.004322	0.290205	0.01699	0.237031	0.036447	0.327597	-0.040965	0.243815	-0.06	0.26276	0.020295	0.178394	0.01497	0.201333	-0.031517	0.066492	0.159778	0.447551	
4.41284	0	0	-0.0343087	0.304331	0.102967	0.198409	0.0277695	0.208758	-0.0296863	0.309594	0.227803	0.204517	0.0679608	0.29333	0.143613	0.227811	0.0156932	0.295061	0.0275735	0.244408	0.0315005	0.341577	-0.0263985	0.246387	-0.053193	0.268079	0.0189202	0.182279	0.023857	0.204289	-0.0331437	0.0710895	0.162624	0.449789	
4.42352	0	0	-0.0337615	0.314859	0.101444	0.216204	0.023651	0.231554	-0.0327735	0.31832	0.239216	0.215702	0.0712245	0.305852	0.148037	0.243108	0.0270645	0.299917	0.038157	0.251786	0.026554	0.355556	-0.011832	0.248958	-0.046386	0.273397	0.0175455	0.186165	0.032744	0.207245	-0.0347705	0.075687	0.165471	0.452027	
4.43268	0	0	-0.0332143	0.325388	0.0999218	0.234	0.0195325	0.25435	-0.0358608	0.327045	0.25063	0.226887	0.0744883	0.318375	0.152461	0.258404	0.0384357	0.304772	0.0487405	0.259163	0.0216075	0.369536	0.0027345	0.25153	-0.039579	0.278716	0.0161708	0.190051	0.041631	0.210201	-0.0363973	0.0802845	0.168317	0.454265	
4.43573	0	0	-0.032667	0.335916	0.098399	0.251795	0.015414	0.277146	-0.038948	0.335771	0.262044	0.238072	0.077752	0.330897	0.156885	0.273701	0.049807	0.309628	0.059324	0.266541	0.016661	0.383515	0.017301	0.254102	-0.032772	0.284035	0.014796	0.193936	0.050518	0.213157	-0.038024	0.084882	0.171163	0.456503	
4.44488	0	0	-0.0372217	0.336714	0.0971085	0.255443	0.015414	0.277146	-0.0320098	0.331237	0.261089	0.24077	0.0755005	0.33726	0.158082	0.270318	0.0479197	0.314962	0.059324	0.266541	0.016661	0.383515	0.0105855	0.25849	-0.032772	0.284035	0.0134205	0.197823	0.0478263	0.220764	-0.0516648	0.10087	0.164544	0.464928	
4.45099	0	0	-0.0417765	0.337511	0.095818	0.25909	0.015414	0.277146	-0.0250715	0.326703	0.260134	0.243469	0.073249	0.343623	0.159279	0.266935	0.0460325	0.320295	0.059324	0.266541	0.016661	0.383515	0.00387	0.262878	-0.032772	0.284035	0.012045	0.20171	0.0451345	0.228371	-0.0653055	0.116857	0.157925	0.473354	
4.45709	0	0	-0.0463313	0.338309	0.0945275	0.262737	0.015414	0.277146	-0.0181333	0.32217	0.259179	0.246168	0.0709975	0.349986	0.160476	0.263551	0.0441452	0.325628	0.059324	0.266541	0.016661	0.383515	-0.0028455	0.267266	-0.032772	0.284035	0.0106695	0.205597	0.0424428	0.235978	-0.0789462	0.132844	0.151305	0.48178	
4.45862	0	0	-0.050886	0.339107	0.093237	0.266385	0.015414	0.277146	-0.011195	0.317636	0.258224	0.248866	0.068746	0.356349	0.161673	0.260168	0.042258	0.330962	0.059324	0.266541	0.016661	0.383515	-0.009561	0.271654	-0.032772	0.284035	0.009294	0.209484	0.039751	0.243585	-0.092587	0.148832	0.144686	0.490205	
4.46319	0	0	-0.0483375	0.343979	0.0979152	0.280176	0.021984	0.280911	-0.00888775	0.326203	0.262275	0.248294	0.0720023	0.368918	0.165683	0.262751	0.0488955	0.330727	0.057442	0.27186	0.0247442	0.378233	0.0027615	0.266023	-0.035022	0.290393	0.00118775	0.214781	0.0499967	0.242744	-0.0838315	0.146651	0.139002	0.485721	
4.46319	0	0	-0.045789	0.348852	0.102594	0.293968	0.028554	0.284677	-0.0065805	0.33477	0.266325	0.247723	0.0752585	0.381487	0.169693	0.265335	0.055533	0.330493	0.05556	0.277179	0.0328275	0.372951	0.015084	0.260391	-0.037272	0.296752	-0.0069185	0.220077	0.0602425	0.241902	-0.075076	0.144471	0.133319	0.481237	
4.46319	0	0	-0.0432405	0.353724	0.107272	0.307759	0.035124	0.288443	-0.00427325	0.343337	0.270376	0.247151	0.0785147	0.394056	0.173702	0.267918	0.0621705	0.330259	0.053678	0.282498	0.0409107	0.36767	0.0274065	0.25476	-0.039522	0.303111	-0.0150247	0.225374	0.0704883	0.24106	-0.0663205	0.14229	0.127635	0.476752	
4.45862	0	0	-0.040692	0.358597	0.11195	0.321551	0.041694	0.292208	-0.001966	0.351904	0.274427	0.246579	0.081771	0.406625	0.177712	0.270501	0.068808	0.330024	0.051796	0.287817	0.048994	0.362388	0.039729	0.249129	-0.041772	0.309469	-0.023131	0.230671	0.080734	0.240219	-0.057565	0.140109	0.121951	0.472268	
4.46167	0	0	-0.0472532	0.365065	0.110656	0.325209	0.0332703	0.293682	-0.0073635	0.352071	0.26751	0.255251	0.081771	0.406625	0.168911	0.281459	0.058393	0.340934	0.0547735	0.304303	0.0440398	0.376389	0.0397625	0.263648	-0.0349597	0.314805	-0.0177772	0.233153	0.0766887	0.251651	-0.0608262	0.149325	0.123849	0.477176	
4.45099	0	0	-0.0538145	0.371533	0.109362	0.328867	0.0248465	0.295156	-0.012761	0.352238	0.260593	0.263923	0.081771	0.406625	0.16011	0.292417	0.047978	0.351845	0.057751	0.32079	0.0390855	0.390391	0.039796	0.278168	-0.0281475	0.320141	-0.0124235	0.235636	0.0726435	0.263084	-0.0640875	0.158542	0.125746	0.482083	
4.44794	0	0	-0.0603757	0.378001	0.108067	0.332525	0.0164227	0.29663	-0.0181585	0.352405	0.253677	0.272595	0.081771	0.406625	0.151308	0.303376	0.037563	0.362756	0.0607285	0.337276	0.0341313	0.404392	0.0398295	0.292687	-0.0213353	0.325477	-0.00706975	0.238119	0.0685982	0.274516	-0.0673487	0.167758	0.127644	0.486991	
4.44031	0	0	-0.066937	0.384469	0.106773	0.336183	0.007999	0.298104	-0.023556	0.352572	0.24676	0.281267	0.081771	0.406625	0.142507	0.314334	0.027148	0.373666	0.063706	0.353762	0.029177	0.418394	0.039863	0.307206	-0.014523	0.330813	-0.001716	0.240601	0.064553	0.285949	-0.07061	0.176974	0.129542	0.491899	
4.43725	0	0	-0.0659332	0.381632	0.110406	0.339437	0.00564475	0.293601	-0.0304945	0.357106	0.245578	0.273737	0.081771	0.406625	0.144904	0.307561	0.0290373	0.368326	0.065593	0.348429	0.0324808	0.409057	0.039863	0.307206	-0.014523	0.330813	0.0010365	0.232822	0.065902	0.282137	-0.0585818	0.165571	0.125731	0.471875	
4.42963	0	0	-0.0649295	0.378796	0.114039	0.342691	0.0032905	0.289098	-0.037433	0.36164	0.244396	0.266207	0.081771	0.406625	0.147301	0.300787	0.0309265	0.362986	0.06748	0.343095	0.0357845	0.399721	0.039863	0.307206	-0.014523	0.330813	0.003789	0.225043	0.067251	0.278324	-0.0465535	0.154168	0.121919	0.451851	
4.42047	0	0	-0.0639258	0.37596	0.117672	0.345944	0.00093625	0.284595	-0.0443715	0.366173	0.243214	0.258678	0.081771	0.406625	0.149697	0.294013	0.0328157	0.357647	0.069367	0.337762	0.0390882	0.390384	0.039863	0.307206	-0.014523	0.330813	0.0065415	0.217263	0.0686	0.274512	-0.0345253	0.142765	0.118108	0.431827	
4.41742	0	0	-0.062922	0.373123	0.121305	0.349198	-0.001418	0.280092	-0.05131	0.370707	0.242032	0.251148	0.081771	0.406625	0.152094	0.28724	0.034705	0.352307	0.071254	0.332429	0.042392	0.381047	0.039863	0.307206	-0.014523	0.330813	0.009294	0.209484	0.069949	0.270699	-0.022497	0.131362	0.114297	0.411803	
4.41437	0	0	-0.0588358	0.385732	0.122083	0.374072	-0.002775	0.295083	-0.049013	0.37929	0.237032	0.254415	0.081771	0.406625	0.150896	0.290626	0.034705	0.352307	0.075103	0.334014	0.042392	0.381047	0.0387463	0.310362	-0.00319125	0.323409	0.009294	0.209484	0.069949	0.270699	-0.024128	0.135971	0.113337	0.404261	
4.40979	0	0	-0.0547495	0.398341	0.122861	0.398945	-0.004132	0.310074	-0.046716	0.387874	0.232032	0.257682	0.081771	0.406625	0.149698	0.294012	0.034705	0.352307	0.078952	0.335599	0.042392	0.381047	0.0376295	0.313518	0.0081405	0.316005	0.009294	0.209484	0.069949	0.270699	-0.025759	0.14058	0.112378	0.39672	
4.40979	0	0	-0.0506632	0.41095	0.123639	0.423818	-0.005489	0.325065	-0.044419	0.396458	0.227032	0.260949	0.081771	0.406625	0.1485	0.297398	0.034705	0.352307	0.082801	0.337185	0.042392	0.381047	0.0365127	0.316675	0.0194722	0.3086	0.009294	0.209484	0.069949	0.270699	-0.02739	0.14519	0.111419	0.389178	
4.41284	0	0	-0.046577	0.423559	0.124417	0.448692	-0.006846	0.340056	-0.042122	0.405041	0.222032	0.264216	0.081771	0.406625	0.147302	0.300784	0.034705	0.352307	0.08665	0.33877	0.042392	0.381047	0.035396	0.319831	0.030804	0.301196	0.009294	0.209484	0.069949	0.270699	-0.029021	0.149799	0.110459	0.381636	
4.41284	0	0	-0.0425565	0.412197	0.124417	0.448692	-0.0073425	0.330303	-0.040574	0.400666	0.219669	0.249186	0.0762618	0.400424	0.141689	0.288848	0.0318495	0.341872	0.078012	0.338265	0.0376087	0.377002	0.030903	0.317914	0.0217253	0.302233	0.007918	0.213373	0.0712975	0.266888	-0.0306528	0.154411	0.103863	0.390029	
4.41284	0	0	-0.038536	0.400834	0.124417	0.448692	-0.007839	0.32055	-0.039026	0.396292	0.217306	0.234156	0.0707525	0.394222	0.136076	0.276911	0.028994	0.331438	0.069374	0.337759	0.0328255	0.372957	0.02641	0.315998	0.0126465	0.303269	0.006542	0.217261	0.072646	0.263078	-0.0322845	0.159023	0.0972675	0.398422	
4.40674	0	0	-0.0345155	0.389472	0.124417	0.448692	-0.0083355	0.310797	-0.037478	0.391918	0.214943	0.219126	0.0652433	0.38802	0.130463	0.264975	0.0261385	0.321003	0.060736	0.337254	0.0280422	0.368911	0.021917	0.314082	0.00356775	0.304306	0.005166	0.22115	0.0739945	0.259267	-0.0339163	0.163634	0.0906717	0.406815	
4.40826	0	0	-0.030495	0.37811	0.124417	0.448692	-0.008832	0.301044	-0.03593	0.387543	0.21258	0.204096	0.059734	0.381819	0.12485	0.253039	0.023283	0.310569	0.052098	0.336749	0.023259	0.364866	0.017424	0.312165	-0.005511	0.305343	0.00379	0.225039	0.075343	0.255456	-0.035548	0.168246	0.084076	0.415208	
4.40063	0	0	-0.0249305	0.374474	0.135595	0.444214	-0.0069785	0.295806	-0.028986	0.383005	0.206408	0.199857	0.061987	0.375452	0.115659	0.251256	0.0185428	0.305478	0.0453565	0.330917	0.0201272	0.356171	0.0129347	0.31025	-0.0032595	0.29898	-0.00294025	0.226447	0.075343	0.255456	-0.035548	0.168246	0.0746378	0.411172	
4.40216	0	0	-0.019366	0.370838	0.146772	0.439737	-0.005125	0.290568	-0.022042	0.378468	0.200236	0.195619	0.06424	0.369084	0.106468	0.249473	0.0138025	0.300387	0.038615	0.325086	0.0169955	0.347476	0.0084455	0.308335	-0.001008	0.292617	-0.0096705	0.227855	0.075343	0.255456	-0.035548	0.168246	0.0651995	0.407136	
4.39911	0	0	-0.0138015	0.367202	0.157949	0.43526	-0.0032715	0.28533	-0.015098	0.373931	0.194063	0.19138	0.066493	0.362716	0.097277	0.247689	0.00906225	0.295296	0.0318735	0.319254	0.0138637	0.33878	0.00395625	0.306419	0.0012435	0.286254	-0.0164007	0.229263	0.075343	0.255456	-0.035548	0.168246	0.0557612	0.4031	
4.38995	0	0	-0.008237	0.363566	0.169127	0.430782	-0.001418	0.280092	-0.008154	0.369393	0.187891	0.187141	0.068746	0.356349	0.088086	0.245906	0.004322	0.290205	0.025132	0.313422	0.010732	0.330085	-0.000533	0.304504	0.003495	0.279891	-0.023131	0.230671	0.075343	0.255456	-0.035548	0.168246	0.046323	0.399064	
4.38843	0	0	-0.0158112	0.372881	0.162886	0.43486	-0.0041985	0.28795	-0.0220365	0.378464	0.185988	0.192519	0.0609888	0.356526	0.088086	0.245906	0.00620475	0.284884	0.0289728	0.315005	0.00908475	0.33474	0.00395625	0.306419	0.0012435	0.286254	-0.0164007	0.229263	0.075343	0.255456	-0.0371807	0.17286	0.0510318	0.395987	
4.38385	0	0	-0.0233855	0.382196	0.156644	0.438939	-0.006979	0.295808	-0.035919	0.387536	0.184085	0.197898	0.0532315	0.356703	0.088086	0.245906	0.0080875	0.279564	0.0328135	0.316588	0.0074375	0.339395	0.0084455	0.308335	-0.001008	0.292617	-0.0096705	0.227855	0.075343	0.255456	-0.0388135	0.177474	0.0557405	0.39291	
4.37775	0	0	-0.0309598	0.391512	0.150402	0.443017	-0.0097595	0.303666	-0.0498015	0.396607	0.182182	0.203276	0.0454743	0.356879	0.088086	0.245906	0.00997025	0.274244	0.0366542	0.318172	0.00579025	0.34405	0.0129347	0.31025	-0.0032595	0.29898	-0.00294025	0.226447	0.075343	0.255456	-0.0404463	0.182088	0.0604492	0.389833	
4.37164	0	0	-0.038534	0.400827	0.144161	0.447095	-0.01254	0.311524	-0.063684	0.405678	0.180279	0.208654	0.037717	0.357056	0.088086	0.245906	0.011853	0.268923	0.040495	0.319755	0.004143	0.348705	0.017424	0.312165	-0.005511	0.305343	0.00379	0.225039	0.075343	0.255456	-0.042079	0.186702	0.065158	0.386756	
4.37164	0	0	-0.0410812	0.395943	0.143124	0.436476	-0.0148912	0.307019	-0.0605905	0.396935	0.178147	0.203845	0.0322183	0.350876	0.087671	0.233216	0.00711475	0.263846	0.035638	0.308614	-0.00063175	0.344669	0.01405	0.307098	-0.0123263	0.300016	-0.00431625	0.230336	0.075343	0.255456	-0.042079	0.186702	0.054791	0.385378	
4.37317	0	0	-0.0436285	0.39106	0.142087	0.425856	-0.0172425	0.302515	-0.057497	0.388192	0.176016	0.199037	0.0267195	0.344695	0.087256	0.220525	0.0023765	0.258768	0.030781	0.297474	-0.0054065	0.340634	0.010676	0.30203	-0.0191415	0.294689	-0.0124225	0.235633	0.075343	0.255456	-0.042079	0.186702	0.044424	0.384	
4.37775	0	0	-0.0461758	0.386176	0.141049	0.415237	-0.0195938	0.29801	-0.0544035	0.37945	0.173884	0.194228	0.0212208	0.338515	0.086841	0.207835	-0.00236175	0.25369	0.025924	0.286333	-0.0101812	0.336598	0.007302	0.296963	-0.0259568	0.289362	-0.0205287	0.24093	0.075343	0.255456	-0.042079	0.186702	0.034057	0.382623	
4.3808	0	0	-0.048723	0.381292	0.140012	0.404618	-0.021945	0.293505	-0.05131	0.370707	0.171753	0.189419	0.015722	0.332335	0.086426	0.195144	-0.0071	0.248613	0.021067	0.275192	-0.014956	0.332562	0.003928	0.291896	-0.032772	0.284035	-0.028635	0.246227	0.075343	0.255456	-0.042079	0.186702	0.02369	0.381245	
4.38537	0	0	-0.0416163	0.385381	0.137413	0.411962	-0.0139607	0.304409	-0.0544035	0.37945	0.175787	0.18885	0.0234707	0.332157	0.0812418	0.195942	-0.0071	0.248613	0.01723	0.273615	-0.014956	0.332562	0.003928	0.291896	-0.032772	0.284035	-0.0300118	0.250117	0.075343	0.255456	-0.042079	0.186702	0.018989	0.384317	
4.39606	0	0	-0.0345095	0.38947	0.134815	0.419306	-0.0059765	0.315314	-0.057497	0.388192	0.179822	0.18828	0.0312195	0.331978	0.0760575	0.19674	-0.0071	0.248613	0.013393	0.272037	-0.014956	0.332562	0.003928	0.291896	-0.032772	0.284035	-0.0313885	0.254007	0.075343	0.255456	-0.042079	0.186702	0.014288	0.387389	
4.40216	0	0	-0.0274028	0.393558	0.132216	0.42665	0.00200775	0.326219	-0.0605905	0.396935	0.183857	0.187711	0.0389683	0.3318	0.0708732	0.197538	-0.0071	0.248613	0.009556	0.27046	-0.014956	0.332562	0.003928	0.291896	-0.032772	0.284035	-0.0327652	0.257898	0.075343	0.255456	-0.042079	0.186702	0.009587	0.390461	
4.40979	0	0	-0.020296	0.397647	0.129617	0.433994	0.009992	0.337123	-0.063684	0.405678	0.187891	0.187141	0.046717	0.331622	0.065689	0.198336	-0.0071	0.248613	0.005719	0.268883	-0.014956	0.332562	0.003928	0.291896	-0.032772	0.284035	-0.034142	0.261788	0.075343	0.255456	-0.042079	0.186702	0.004886	0.393533	
4.41894	0	0	-0.0208375	0.387087	0.131174	0.416052	0.00949375	0.327368	-0.064433	0.392731	0.182905	0.190398	0.041215	0.325451	0.0617	0.195767	-0.00522075	0.243302	0.002899	0.276853	-0.0182493	0.34187	0.00169725	0.298201	-0.035022	0.290393	-0.0287905	0.264277	0.0791227	0.258847	-0.0365723	0.193757	0.00866125	0.403297	
4.422	0	0	-0.021379	0.376528	0.132732	0.39811	0.0089955	0.317613	-0.065182	0.379784	0.17792	0.193656	0.035713	0.319279	0.057711	0.193198	-0.0033415	0.237991	7.9E-05	0.284824	-0.0215425	0.351178	-0.0005335	0.304505	-0.037272	0.296752	-0.023439	0.266767	0.0829025	0.262238	-0.0310655	0.200812	0.0124365	0.413061	
4.422	0	0	-0.0219205	0.365968	0.13429	0.380167	0.00849725	0.307859	-0.065931	0.366838	0.172934	0.196913	0.030211	0.313108	0.053722	0.190628	-0.00146225	0.23268	-0.002741	0.292794	-0.0248358	0.360485	-0.00276425	0.31081	-0.039522	0.303111	-0.0180875	0.269256	0.0866823	0.265628	-0.0255587	0.207866	0.0162118	0.422826	
4.43115	0	0	-0.022462	0.355408	0.135847	0.362225	0.007999	0.298104	-0.06668	0.353891	0.167949	0.200171	0.024709	0.306937	0.049733	0.188059	0.000417	0.227369	-0.005561	0.300764	-0.028129	0.369793	-0.004995	0.317115	-0.041772	0.309469	-0.012736	0.271745	0.090462	0.269019	-0.020052	0.214921	0.019987	0.43259	
4.42963	0	0	-0.0214585	0.352571	0.132211	0.358968	0.0140637	0.292127	-0.0689773	0.345332	0.172934	0.196913	0.0169687	0.307117	0.0469365	0.18213	0.000417	0.227369	-0.008454	0.296527	-0.026482	0.365138	-0.00947975	0.315198	-0.039522	0.303111	-0.012736	0.271745	0.0839847	0.273251	-0.0255587	0.207866	0.0190375	0.425054	
4.4281	0	0	-0.020455	0.349735	0.128576	0.355712	0.0201285	0.28615	-0.0712745	0.336774	0.17792	0.193656	0.0092285	0.307296	0.04414	0.1762	0.000417	0.227369	-0.011347	0.292289	-0.024835	0.360483	-0.0139645	0.313282	-0.037272	0.296752	-0.012736	0.271745	0.0775075	0.277484	-0.0310655	0.200812	0.018088	0.417518	
4.42657	0	0	-0.0194515	0.346898	0.12494	0.352455	0.0261933	0.280172	-0.0735718	0.328215	0.182905	0.190398	0.00148825	0.307476	0.0413435	0.170271	0.000417	0.227369	-0.01424	0.288052	-0.023188	0.355828	-0.0184493	0.311365	-0.035022	0.290393	-0.012736	0.271745	0.0710303	0.281717	-0.0365723	0.193757	0.0171385	0.409982	
4.422	0	0	-0.018448	0.344062	0.121305	0.349198	0.032258	0.274195	-0.075869	0.319656	0.187891	0.187141	-0.006252	0.307656	0.038547	0.164342	0.000417	0.227369	-0.017133	0.283815	-0.021541	0.351173	-0.022934	0.309449	-0.032772	0.284035	-0.012736	0.271745	0.064553	0.285949	-0.042079	0.186702	0.016189	0.402446	
4.41742	0	0	-0.0214597	0.352574	0.113786	0.356927	0.02762	0.287303	-0.0843332	0.328539	0.189072	0.194641	-0.006252	0.307656	0.0413435	0.170271	0.0051575	0.23244	-0.0161215	0.29337	-0.0184168	0.359873	-0.0206817	0.317675	-0.0372735	0.296756	-0.0141145	0.275641	0.0696805	0.285531	-0.0437125	0.191319	0.0190162	0.404676	
4.40979	0	0	-0.0244715	0.361086	0.106267	0.364656	0.022982	0.300411	-0.0927975	0.337421	0.190253	0.202142	-0.006252	0.307656	0.04414	0.1762	0.009898	0.237511	-0.01511	0.302924	-0.0152925	0.368573	-0.0184295	0.3259	-0.041775	0.309478	-0.015493	0.279536	0.074808	0.285112	-0.045346	0.195935	0.0218435	0.406905	
4.40063	0	0	-0.0274833	0.369598	0.098748	0.372384	0.018344	0.313519	-0.101262	0.346303	0.191434	0.209642	-0.006252	0.307656	0.0469365	0.18213	0.0146385	0.242582	-0.0140985	0.312479	-0.0121683	0.377274	-0.0161773	0.334126	-0.0462765	0.3222	-0.0168715	0.283432	0.0799355	0.284694	-0.0469795	0.200551	0.0246708	0.409135	
4.393	0	0	-0.030495	0.37811	0.091229	0.380113	0.013706	0.326627	-0.109726	0.355186	0.192615	0.217142	-0.006252	0.307656	0.049733	0.188059	0.019379	0.247653	-0.013087	0.322034	-0.009044	0.385974	-0.013925	0.342352	-0.050778	0.334921	-0.01825	0.287327	0.085063	0.284276	-0.048613	0.205168	0.027498	0.411364	
4.38995	0	0	-0.0330442	0.373232	0.095115	0.36913	0.0113518	0.322117	-0.106642	0.346469	0.190482	0.212331	-0.0040085	0.301315	0.045747	0.185492	0.026006	0.247411	-0.0159782	0.317792	-0.0154633	0.386586	-0.0116925	0.336043	-0.0372097	0.321164	-0.0168715	0.283432	0.0799355	0.284694	-0.0469795	0.200551	0.0199695	0.412206	
4.38537	0	0	-0.0355935	0.368354	0.099001	0.358148	0.0089975	0.317607	-0.103557	0.337752	0.18835	0.207519	-0.001765	0.294975	0.041761	0.182924	0.032633	0.247169	-0.0188695	0.31355	-0.0218825	0.387198	-0.00946	0.329734	-0.0236415	0.307406	-0.015493	0.279536	0.074808	0.285112	-0.045346	0.195935	0.012441	0.413049	
4.37927	0	0	-0.0381428	0.363475	0.102887	0.347166	0.00664325	0.313097	-0.100473	0.329035	0.186218	0.202707	0.0004785	0.288635	0.037775	0.180357	0.03926	0.246926	-0.0217608	0.309308	-0.0283018	0.38781	-0.0072275	0.323424	-0.0100732	0.293648	-0.0141145	0.275641	0.0696805	0.285531	-0.0437125	0.191319	0.0049125	0.413891	
4.3808	0	0	-0.040692	0.358597	0.106773	0.336183	0.004289	0.308587	-0.097388	0.320318	0.184085	0.197896	0.002722	0.282294	0.033789	0.177789	0.045887	0.246684	-0.024652	0.305066	-0.034721	0.388422	-0.004995	0.317115	0.003495	0.279891	-0.012736	0.271745	0.064553	0.285949	-0.042079	0.186702	-0.002616	0.414733	
4.3808	0	0	-0.0315737	0.357001	0.116634	0.335368	0.0108558	0.312362	-0.0881668	0.324348	0.189074	0.194636	0.0204607	0.275577	0.0441462	0.176193	0.0440045	0.252004	-0.0198793	0.30399	-0.0266528	0.38315	-0.004995	0.317115	-0.00782175	0.287285	-0.0113583	0.267851	0.0710303	0.281717	-0.0404463	0.182088	-0.00356475	0.407206	
4.37469	0	0	-0.0224555	0.355405	0.126495	0.334552	0.0174225	0.316136	-0.0789455	0.328377	0.194062	0.191377	0.0381995	0.268861	0.0545035	0.174598	0.042122	0.257325	-0.0151065	0.302915	-0.0185845	0.377879	-0.004995	0.317115	-0.0191385	0.29468	-0.0099805	0.263958	0.0775075	0.277484	-0.0388135	0.177474	-0.0045135	0.399679	
4.37775	0	0	-0.0133373	0.353809	0.136355	0.333736	0.0239893	0.319911	-0.0697243	0.332406	0.19905	0.188117	0.0559383	0.262145	0.0648607	0.173002	0.0402395	0.262645	-0.0103337	0.301839	-0.0105162	0.372607	-0.004995	0.317115	-0.0304552	0.302075	-0.00860275	0.260064	0.0839847	0.273251	-0.0371807	0.17286	-0.00546225	0.392152	
4.37622	0	0	-0.004219	0.352213	0.146216	0.332921	0.030556	0.323686	-0.060503	0.336436	0.204039	0.184858	0.073677	0.255428	0.075218	0.171406	0.038357	0.267966	-0.005561	0.300764	-0.002448	0.367335	-0.004995	0.317115	-0.041772	0.309469	-0.007225	0.25617	0.090462	0.269019	-0.035548	0.168246	-0.006411	0.384625	
4.37164	0	0	-0.011331	0.348139	0.13765	0.330078	0.0291273	0.316554	-0.0589598	0.332074	0.200002	0.185429	0.06368	0.26196	0.0740272	0.174772	0.0449903	0.267724	-0.0064345	0.315653	0.0006785	0.376045	-0.0094615	0.329738	-0.0349597	0.314805	-0.00860275	0.260064	0.0942443	0.272413	-0.026771	0.166058	-0.00546225	0.392152	
4.37622	0	0	-0.018443	0.344064	0.129083	0.327236	0.0276985	0.309422	-0.0574165	0.327713	0.195965	0.185999	0.053683	0.268493	0.0728365	0.178138	0.0516235	0.267483	-0.007308	0.330542	0.003805	0.384754	-0.013928	0.34236	-0.0281475	0.320141	-0.0099805	0.263958	0.0980265	0.275807	-0.017994	0.16387	-0.0045135	0.399679	
4.37622	0	0	-0.025555	0.33999	0.120516	0.324394	0.0262697	0.302291	-0.0558732	0.323351	0.191928	0.18657	0.043686	0.275025	0.0716458	0.181503	0.0582568	0.267242	-0.0081815	0.345432	0.0069315	0.393464	-0.0183945	0.354983	-0.0213353	0.325477	-0.0113583	0.267851	0.101809	0.279202	-0.009217	0.161682	-0.00356475	0.407206	
4.36859	0	0	-0.032667	0.335916	0.11195	0.321551	0.024841	0.295159	-0.05433	0.318989	0.187891	0.187141	0.033689	0.281557	0.070455	0.184869	0.06489	0.267	-0.009055	0.360321	0.010058	0.402174	-0.022861	0.367606	-0.014523	0.330813	-0.012736	0.271745	0.105591	0.282596	-0.00044	0.159494	-0.002616	0.414733	
4.37164	0	0	-0.0342158	0.328218	0.114537	0.31424	0.0224842	0.290656	-0.05433	0.318989	0.184808	0.185024	0.033689	0.281557	0.070455	0.184869	0.0630052	0.272327	-0.0138295	0.361394	0.010058	0.402174	-0.0284592	0.368837	-0.014523	0.330813	-0.009981	0.263959	0.099109	0.286832	-0.00758525	0.15707	-0.0054515	0.402335	
4.36401	0	0	-0.0357645	0.320519	0.117124	0.306929	0.0201275	0.286153	-0.05433	0.318989	0.181724	0.182906	0.033689	0.281557	0.070455	0.184869	0.0611205	0.277654	-0.018604	0.362466	0.010058	0.402174	-0.0340575	0.370067	-0.014523	0.330813	-0.007226	0.256173	0.092627	0.291067	-0.0147305	0.154646	-0.008287	0.389937	
4.36096	0	0	-0.0373132	0.312821	0.119711	0.299618	0.0177708	0.281649	-0.05433	0.318989	0.17864	0.180788	0.033689	0.281557	0.070455	0.184869	0.0592358	0.282981	-0.0233785	0.363538	0.010058	0.402174	-0.0396558	0.371298	-0.014523	0.330813	-0.004471	0.248387	0.086145	0.295303	-0.0218758	0.152223	-0.0111225	0.377539	
4.35943	0	0	-0.038862	0.305123	0.122298	0.292307	0.015414	0.277146	-0.05433	0.318989	0.175557	0.178671	0.033689	0.281557	0.070455	0.184869	0.057351	0.288308	-0.028153	0.364611	0.010058	0.402174	-0.045254	0.372529	-0.014523	0.330813	-0.001716	0.240601	0.079663	0.299538	-0.029021	0.149799	-0.013958	0.365141	
4.35333	0	0	-0.0327552	0.312022	0.124388	0.313452	0.0191995	0.288781	-0.0466365	0.327385	0.174606	0.181358	0.0391942	0.287719	0.065687	0.198344	0.0621035	0.293401	-0.0176577	0.359801	0.00840675	0.406841	-0.0385385	0.368141	-0.00770225	0.336157	-0.0098225	0.245898	0.0847943	0.29912	-0.0306528	0.154411	-0.0120865	0.359852	
4.34875	0	0	-0.0266485	0.318921	0.126478	0.334597	0.022985	0.300416	-0.038943	0.335781	0.173655	0.184045	0.0446995	0.293882	0.060919	0.211819	0.066856	0.298493	-0.0071625	0.35499	0.0067555	0.411508	-0.031823	0.363753	-0.0008815	0.341502	-0.017929	0.251194	0.0899255	0.298702	-0.0322845	0.159023	-0.010215	0.354563	
4.34265	0	0	-0.0205418	0.325821	0.128569	0.355742	0.0267705	0.312051	-0.0312495	0.344176	0.172704	0.186732	0.0502047	0.300044	0.056151	0.225294	0.0716085	0.303586	0.00333275	0.350179	0.00510425	0.416176	-0.0251075	0.359365	0.00593925	0.346847	-0.0260355	0.256491	0.0950567	0.298284	-0.0339163	0.163634	-0.0083435	0.349274	
4.33807	0	0	-0.014435	0.33272	0.130659	0.376887	0.030556	0.323686	-0.023556	0.352572	0.171753	0.189419	0.05571	0.306206	0.051383	0.238769	0.076361	0.308678	0.013828	0.345369	0.003453	0.420843	-0.018392	0.354977	0.01276	0.352191	-0.034142	0.261788	0.100188	0.297866	-0.035548	0.168246	-0.006472	0.343985	
4.33655	0	0	-0.0205418	0.325821	0.128321	0.369965	0.0309815	0.311313	-0.023556	0.352572	0.168672	0.187302	0.05571	0.306206	0.051383	0.238769	0.0744728	0.314014	0.0081685	0.361364	0.006577	0.429577	-0.0217448	0.364452	0.0082425	0.364958	-0.030169	0.268173	0.101266	0.308913	-0.031674	0.179915	-0.0092685	0.362092	
4.32892	0	0	-0.0266485	0.318921	0.125982	0.363043	0.031407	0.29894	-0.023556	0.352572	0.165591	0.185184	0.05571	0.306206	0.051383	0.238769	0.0725845	0.319351	0.002509	0.377359	0.009701	0.438312	-0.0250975	0.373927	0.003725	0.377725	-0.026196	0.274558	0.102345	0.31996	-0.0278	0.191584	-0.012065	0.380198	
4.32434	0	0	-0.0327552	0.312022	0.123643	0.35612	0.0318325	0.286568	-0.023556	0.352572	0.16251	0.183066	0.05571	0.306206	0.051383	0.238769	0.0706962	0.324688	-0.0031505	0.393354	0.012825	0.447046	-0.0284502	0.383403	-0.0007925	0.390493	-0.022223	0.280942	0.103423	0.331006	-0.023926	0.203252	-0.0148615	0.398305	
4.32129	0	0	-0.038862	0.305123	0.121305	0.349198	0.032258	0.274195	-0.023556	0.352572	0.159429	0.180949	0.05571	0.306206	0.051383	0.238769	0.068808	0.330024	-0.00881	0.409349	0.015949	0.45578	-0.031803	0.392878	-0.00531	0.40326	-0.01825	0.287327	0.104501	0.342053	-0.020052	0.214921	-0.017658	0.416412	
4.31824	0	0	-0.0368593	0.299464	0.12494	0.352455	0.0299	0.269697	-0.0181585	0.352405	0.157299	0.176149	0.05571	0.306206	0.0525755	0.235398	0.0754525	0.329788	-0.0135867	0.410419	0.015949	0.45578	-0.0374007	0.394107	-0.00757125	0.40965	-0.019629	0.291224	0.108285	0.345464	-0.0320978	0.226347	-0.0195423	0.411534	
4.31976	0	0	-0.0348565	0.293805	0.128576	0.355712	0.027542	0.265198	-0.012761	0.352238	0.155169	0.171349	0.05571	0.306206	0.053768	0.232027	0.082097	0.329551	-0.0183635	0.41149	0.015949	0.45578	-0.0429985	0.395335	-0.0098325	0.416041	-0.021008	0.295122	0.112069	0.348874	-0.0441435	0.237772	-0.0214265	0.406656	
4.31518	0	0	-0.0328538	0.288145	0.132211	0.358968	0.025184	0.2607	-0.0073635	0.352071	0.153039	0.166548	0.05571	0.306206	0.0549605	0.228657	0.0887415	0.329314	-0.0231403	0.41256	0.015949	0.45578	-0.0485963	0.396563	-0.0120938	0.422431	-0.022387	0.299019	0.115853	0.352285	-0.0561893	0.249197	-0.0233107	0.401777	
4.30908	0	0	-0.030851	0.282486	0.135847	0.362225	0.022826	0.256201	-0.001966	0.351904	0.150909	0.161748	0.05571	0.306206	0.056153	0.225286	0.095386	0.329078	-0.027917	0.41363	0.015949	0.45578	-0.054194	0.397792	-0.014355	0.428821	-0.023766	0.302916	0.119637	0.355696	-0.068235	0.260623	-0.025195	0.396899	
4.3045	0	0	-0.0287538	0.300716	0.130387	0.391195	0.0238298	0.275697	-0.00275925	0.369246	0.153039	0.166548	0.0612205	0.312379	0.062942	0.233817	0.091604	0.339767	-0.01836	0.411488	0.028828	0.454558	-0.0485963	0.396563	-0.0075355	0.434202	-0.0170315	0.301513	0.122068	0.362942	-0.0490398	0.251637	-0.021436	0.396479	
4.30145	0	0	-0.0266565	0.318947	0.124928	0.420165	0.0248335	0.295193	-0.0035525	0.386589	0.155169	0.171349	0.066731	0.318551	0.069731	0.242347	0.087822	0.350456	-0.008803	0.409346	0.041707	0.453335	-0.0429985	0.395335	-0.000716	0.439582	-0.010297	0.300111	0.124498	0.370188	-0.0298445	0.242651	-0.017677	0.396058	
4.2984	0	0	-0.0245592	0.337178	0.119469	0.449135	0.0258372	0.314689	-0.00434575	0.403931	0.157299	0.176149	0.0722415	0.324724	0.07652	0.250878	0.08404	0.361144	0.000754	0.407204	0.054586	0.452113	-0.0374007	0.394107	0.0061035	0.444962	-0.0035625	0.298708	0.126929	0.377434	-0.0106492	0.233665	-0.013918	0.395638	
4.29687	0	0	-0.022462	0.355408	0.114009	0.478105	0.026841	0.334185	-0.005139	0.421273	0.159429	0.180949	0.077752	0.330897	0.083309	0.259409	0.080258	0.371833	0.010311	0.405062	0.067465	0.45089	-0.031803	0.392878	0.012923	0.450343	0.003172	0.297305	0.12936	0.38468	0.008546	0.224679	-0.010159	0.395218	
4.2923	0	0	-0.0315737	0.357001	0.110379	0.474824	0.0202755	0.330407	-0.0105387	0.421433	0.159197	0.170783	0.077752	0.330897	0.0805102	0.253455	0.0906923	0.360905	0.001752	0.416813	0.0593662	0.456182	-0.0340402	0.399201	0.00838925	0.463156	-0.0009705	0.309012	0.131791	0.391938	0.0140655	0.231753	-0.0129665	0.413361	
4.29077	0	0	-0.0406855	0.358594	0.106748	0.471543	0.01371	0.32663	-0.0159385	0.421593	0.158966	0.160617	0.077752	0.330897	0.0777115	0.247501	0.101127	0.349978	-0.006807	0.428565	0.0512675	0.461473	-0.0362775	0.405524	0.0038555	0.475969	-0.005113	0.320719	0.134221	0.399196	0.019585	0.238827	-0.015774	0.431503	
4.28467	0	0	-0.0497973	0.360187	0.103118	0.468262	0.0071445	0.322852	-0.0213382	0.421753	0.158735	0.150452	0.077752	0.330897	0.0749128	0.241546	0.111561	0.33905	-0.015366	0.440316	0.0431687	0.466765	-0.0385148	0.411846	-0.00067825	0.488781	-0.0092555	0.332426	0.136652	0.406453	0.0251045	0.245901	-0.0185815	0.449645	
4.28009	0	0	-0.058909	0.36178	0.099488	0.464981	0.000579	0.319074	-0.026738	0.421913	0.158503	0.140286	0.077752	0.330897	0.072114	0.235592	0.121995	0.328122	-0.023925	0.452067	0.03507	0.472057	-0.040752	0.418169	-0.005212	0.501594	-0.013398	0.344133	0.139082	0.413711	0.030624	0.252975	-0.021389	0.467788	
4.27551	0	0	-0.0533515	0.358149	0.104419	0.464585	0.002434	0.313832	-0.028288	0.426294	0.156372	0.135496	0.077752	0.330897	0.0733072	0.23222	0.123886	0.322779	-0.0201462	0.441387	0.0367258	0.467378	-0.0452302	0.416235	-0.005212	0.501594	-0.0120165	0.340229	0.140439	0.409874	0.0130445	0.257339	-0.0176338	0.457175	
4.27093	0	0	-0.047794	0.354517	0.109351	0.464189	0.004289	0.308589	-0.029838	0.430675	0.154241	0.130706	0.077752	0.330897	0.0745005	0.228848	0.125776	0.317436	-0.0163675	0.430708	0.0383815	0.462699	-0.0497085	0.4143	-0.005212	0.501594	-0.010635	0.336325	0.141797	0.406037	-0.004535	0.261704	-0.0138785	0.446563	
4.26636	0	0	-0.0422365	0.350886	0.114282	0.463792	0.006144	0.303346	-0.031388	0.435056	0.152109	0.125916	0.077752	0.330897	0.0756938	0.225476	0.127667	0.312093	-0.0125887	0.420029	0.0400372	0.458019	-0.0541867	0.412365	-0.005212	0.501594	-0.0092535	0.332421	0.143155	0.4022	-0.0221145	0.266068	-0.0101233	0.435951	
4.26483	0	0	-0.036679	0.347255	0.119214	0.463396	0.007999	0.298104	-0.032938	0.439437	0.149978	0.121126	0.077752	0.330897	0.076887	0.222104	0.129557	0.30675	-0.00881	0.409349	0.041693	0.45334	-0.058665	0.410431	-0.005212	0.501594	-0.007872	0.328517	0.144512	0.398363	-0.039694	0.270433	-0.006368	0.425338	
4.26178	0	0	-0.0335888	0.362695	0.117636	0.481408	0.00571025	0.315735	-0.0252412	0.447897	0.148081	0.126487	0.077752	0.330897	0.0796868	0.228054	0.127667	0.312093	-0.00402975	0.408277	0.0400372	0.458019	-0.0541867	0.412365	0.0038805	0.500583	-0.007872	0.328517	0.143155	0.4022	-0.039694	0.270433	-0.00543	0.422687	
4.2572	0	0	-0.0304985	0.378134	0.116057	0.49942	0.0034215	0.333367	-0.0175445	0.456356	0.146184	0.131847	0.077752	0.330897	0.0824865	0.234005	0.125776	0.317436	0.0007505	0.407205	0.0383815	0.462699	-0.0497085	0.4143	0.012973	0.499573	-0.007872	0.328517	0.141797	0.406037	-0.039694	0.270433	-0.004492	0.420036	
4.25262	0	0	-0.0274083	0.393574	0.114478	0.517431	0.00113275	0.350998	-0.00984775	0.464815	0.144288	0.137208	0.077752	0.330897	0.0852862	0.239956	0.123886	0.322779	0.00553075	0.406134	0.0367258	0.467378	-0.0452302	0.416235	0.0220655	0.498563	-0.007872	0.328517	0.140439	0.409874	-0.039694	0.270433	-0.003554	0.417384	
4.24499	0	0	-0.024318	0.409014	0.1129	0.535443	-0.001156	0.368629	-0.002151	0.473275	0.142391	0.142568	0.077752	0.330897	0.088086	0.245906	0.121995	0.328122	0.010311	0.405062	0.03507	0.472057	-0.040752	0.418169	0.031158	0.497552	-0.007872	0.328517	0.139082	0.413711	-0.039694	0.270433	-0.002616	0.414733	
4.24499	0	0	-0.0294152	0.399246	0.113177	0.521108	0.00020525	0.353619	-0.004449	0.464658	0.137186	0.135671	0.0744883	0.318375	0.087671	0.233216	0.110587	0.323261	0.00553075	0.406134	0.0367258	0.467378	-0.0396332	0.415007	0.0220655	0.498563	-0.0092535	0.332421	0.139082	0.413711	-0.039694	0.270433	-0.0035475	0.42758	
4.24347	0	0	-0.0345125	0.389479	0.113454	0.506774	0.0015665	0.338608	-0.006747	0.45604	0.131981	0.128774	0.0712245	0.305852	0.087256	0.220525	0.099178	0.3184	0.0007505	0.407205	0.0383815	0.462699	-0.0385145	0.411845	0.012973	0.499573	-0.010635	0.336325	0.139082	0.413711	-0.039694	0.270433	-0.004479	0.440427	
4.23736	0	0	-0.0396097	0.379711	0.113732	0.49244	0.00292775	0.323597	-0.009045	0.447423	0.126776	0.121877	0.0679608	0.29333	0.086841	0.207835	0.0877695	0.313539	-0.00402975	0.408277	0.0400372	0.458019	-0.0373957	0.408683	0.0038805	0.500583	-0.0120165	0.340229	0.139082	0.413711	-0.039694	0.270433	-0.0054105	0.453275	
4.23584	0	0	-0.044707	0.369943	0.114009	0.478105	0.004289	0.308587	-0.011343	0.438805	0.121571	0.11498	0.064697	0.280808	0.086426	0.195144	0.076361	0.308678	-0.00881	0.409349	0.041693	0.45334	-0.036277	0.405521	-0.005212	0.501594	-0.013398	0.344133	0.139082	0.413711	-0.039694	0.270433	-0.006342	0.466122	
4.22821	0	0	-0.0427	0.364271	0.110379	0.474824	0.0019355	0.304082	-0.009792	0.434422	0.122281	0.102179	0.0591885	0.274655	0.0784433	0.190008	0.082019	0.292688	-0.00887125	0.397092	0.038564	0.444604	-0.032923	0.396042	-0.00294425	0.495185	-0.01599	0.333829	0.138008	0.402621	-0.0331483	0.251934	-0.0129295	0.454113	
4.22821	0	0	-0.040693	0.358599	0.106748	0.471543	-0.000418	0.299577	-0.008241	0.430039	0.122992	0.089377	0.05368	0.268502	0.0704605	0.184872	0.087677	0.276697	-0.0089325	0.384835	0.035435	0.435867	-0.029569	0.386564	-0.0006765	0.488777	-0.018582	0.323524	0.136933	0.391532	-0.0266025	0.233434	-0.019517	0.442105	
4.22821	0	0	-0.038686	0.352927	0.103118	0.468262	-0.0027715	0.295072	-0.00669	0.425656	0.123702	0.0765755	0.0481715	0.262348	0.0624777	0.179737	0.093335	0.260707	-0.00899375	0.372578	0.032306	0.42713	-0.026215	0.377085	0.00159125	0.482368	-0.021174	0.31322	0.135858	0.380442	-0.0200568	0.214935	-0.0261045	0.430096	
4.22363	0	0	-0.036679	0.347255	0.099488	0.464981	-0.005125	0.290567	-0.005139	0.421273	0.124412	0.063774	0.042663	0.256195	0.054495	0.174601	0.098993	0.244717	-0.009055	0.360321	0.029177	0.418394	-0.022861	0.367606	0.003859	0.475959	-0.023766	0.302916	0.134784	0.369352	-0.013511	0.196436	-0.032692	0.418087	
4.22363	0	0	-0.0432398	0.353722	0.0932602	0.46905	-0.0121105	0.29916	-0.0105387	0.421433	0.114484	0.0702607	0.03716	0.250052	0.055685	0.171238	0.092351	0.244964	-0.0081125	0.357658	0.0308293	0.413724	-0.0239785	0.370764	0.006125	0.469555	-0.029115	0.30042	0.132351	0.362111	-0.0190203	0.189389	-0.0308177	0.41279	
4.22211	0	0	-0.0498005	0.360189	0.0870325	0.47312	-0.019096	0.307752	-0.0159385	0.421593	0.104557	0.0767475	0.031657	0.24391	0.056875	0.167875	0.085709	0.245211	-0.00717	0.354995	0.0324815	0.409054	-0.025096	0.373923	0.008391	0.463151	-0.034464	0.297925	0.129919	0.35487	-0.0245295	0.182341	-0.0289435	0.407493	
4.22668	0	0	-0.0563613	0.366656	0.0808048	0.477189	-0.0260815	0.316344	-0.0213382	0.421753	0.0946295	0.0832342	0.026154	0.237767	0.058065	0.164512	0.079067	0.245458	-0.0062275	0.352332	0.0341337	0.404385	-0.0262135	0.377082	0.010657	0.456747	-0.039813	0.295429	0.127487	0.347628	-0.0300388	0.175293	-0.0270692	0.402196	
4.23431	0	0	-0.062922	0.373123	0.074577	0.481258	-0.033067	0.324937	-0.026738	0.421913	0.084702	0.089721	0.020651	0.231624	0.059255	0.161149	0.072425	0.245705	-0.005285	0.349669	0.035786	0.399715	-0.027331	0.38024	0.012923	0.450343	-0.045162	0.292933	0.125054	0.340387	-0.035548	0.168246	-0.025195	0.396899	
4.23279	0	0	-0.068011	0.363379	0.0637137	0.471425	-0.0368373	0.313313	-0.0344275	0.413482	0.0813978	0.0775145	0.0196228	0.21286	0.054844	0.14596	0.0714318	0.230007	-0.00636825	0.327896	0.0343033	0.386343	-0.027347	0.365694	-0.0007075	0.439591	-0.0463775	0.278772	0.113706	0.330175	-0.0377948	0.152005	-0.0392815	0.385779	
4.23736	0	0	-0.0731	0.353634	0.0528505	0.461592	-0.0406075	0.301689	-0.042117	0.40505	0.0780935	0.065308	0.0185945	0.194096	0.050433	0.130771	0.0704385	0.214309	-0.0074515	0.306123	0.0328205	0.372971	-0.027363	0.351148	-0.014338	0.428839	-0.047593	0.264611	0.102358	0.319963	-0.0400415	0.135764	-0.053368	0.374658	
4.23279	0	0	-0.078189	0.34389	0.0419873	0.451758	-0.0443778	0.290064	-0.0498065	0.396619	0.0747893	0.0531015	0.0175662	0.175331	0.046022	0.115582	0.0694453	0.198611	-0.00853475	0.28435	0.0313377	0.359599	-0.027379	0.336602	-0.0279685	0.418086	-0.0488085	0.250451	0.0910108	0.30975	-0.0422882	0.119523	-0.0674545	0.363537	
4.23126	0	0	-0.083278	0.334146	0.031124	0.441925	-0.048148	0.27844	-0.057496	0.388188	0.071485	0.040895	0.016538	0.156567	0.041611	0.100393	0.068452	0.182913	-0.009618	0.262577	0.029855	0.346227	-0.027395	0.322056	-0.041599	0.407334	-0.050024	0.23629	0.079663	0.299538	-0.044535	0.103282	-0.081541	0.352417	
4.23126	0	0	-0.0822768	0.331316	0.032421	0.43826	-0.0430225	0.275091	-0.0613367	0.38398	0.070303	0.0334718	0.0210012	0.143953	0.039997	0.0911425	0.0636985	0.17786	-0.013529	0.248829	0.0267205	0.337539	-0.0296467	0.31384	-0.0370847	0.394576	-0.060703	0.231327	0.0748058	0.28513	-0.058786	0.0984595	-0.0825043	0.334805	
4.22821	0	0	-0.0812755	0.328486	0.033718	0.434594	-0.037897	0.271741	-0.0651775	0.379771	0.069121	0.0260485	0.0254645	0.131339	0.038383	0.081892	0.058945	0.172807	-0.01744	0.235081	0.023586	0.328851	-0.0318985	0.305624	-0.0325705	0.381818	-0.071382	0.226365	0.0699485	0.270722	-0.073037	0.093637	-0.0834675	0.317193	
4.22363	0	0	-0.0802742	0.325656	0.035015	0.430929	-0.0327715	0.268392	-0.0690182	0.375563	0.067939	0.0186252	0.0299277	0.118726	0.036769	0.0726415	0.0541915	0.167754	-0.021351	0.221334	0.0204515	0.320163	-0.0341503	0.297409	-0.0280562	0.36906	-0.082061	0.221403	0.0650913	0.256313	-0.087288	0.0888145	-0.0844307	0.299581	
4.22668	0	0	-0.079273	0.322826	0.036312	0.427264	-0.027646	0.265043	-0.072859	0.371355	0.066757	0.011202	0.034391	0.106112	0.035155	0.063391	0.049438	0.162701	-0.025262	0.207586	0.017317	0.311475	-0.036402	0.289193	-0.023542	0.356302	-0.09274	0.21644	0.060234	0.241905	-0.101539	0.083992	-0.085394	0.281969	
4.22058	0	0	-0.0849075	0.302619	0.0355455	0.402455	-0.032851	0.246364	-0.0774502	0.35424	0.0653287	-0.006269	0.0233857	0.093949	0.0331007	0.0416033	0.0418145	0.147327	-0.0329165	0.20445	0.0141825	0.302804	-0.0397675	0.284135	-0.0280995	0.344594	-0.0980715	0.213961	0.05915	0.230917	-0.0982915	0.0748137	-0.0900692	0.285024	
4.216	0	0	-0.090542	0.282413	0.034779	0.377647	-0.038056	0.227686	-0.0820415	0.337125	0.0639005	-0.02374	0.0123805	0.081786	0.0310465	0.0198155	0.034191	0.131954	-0.040571	0.201315	0.011048	0.294133	-0.043133	0.279078	-0.032657	0.332886	-0.103403	0.211482	0.058066	0.219929	-0.095044	0.0656355	-0.0947445	0.28808	
4.2099	0	0	-0.0961765	0.262206	0.0340125	0.352838	-0.043261	0.209007	-0.0866327	0.320011	0.0624723	-0.041211	0.00137525	0.069623	0.0289923	-0.00197225	0.0265675	0.11658	-0.0482255	0.198179	0.0079135	0.285461	-0.0464985	0.274021	-0.0372145	0.321177	-0.108734	0.209004	0.056982	0.208941	-0.0917965	0.0564573	-0.0994198	0.291135	
4.20685	0	0	-0.101811	0.241999	0.033246	0.32803	-0.048466	0.190329	-0.091224	0.302896	0.061044	-0.058682	-0.00963	0.05746	0.026938	-0.02376	0.018944	0.101206	-0.05588	0.195043	0.004779	0.27679	-0.049864	0.268963	-0.041772	0.309469	-0.114066	0.206525	0.055898	0.197953	-0.088549	0.047279	-0.104095	0.29419	
4.2038	0	0	-0.103912	0.223888	0.0249757	0.311015	-0.0480533	0.178046	-0.101189	0.286015	0.054914	-0.0628403	-0.0106865	0.038851	0.0201555	-0.0321447	0.0142002	0.0961805	-0.0550308	0.180271	-0.00640875	0.273397	-0.0588108	0.265146	-0.046329	0.297792	-0.116653	0.196306	0.044583	0.187839	-0.0908038	0.0311433	-0.108804	0.277056	
4.2038	0	0	-0.106013	0.205778	0.0167055	0.294	-0.0476405	0.165762	-0.111154	0.269133	0.048784	-0.0669985	-0.011743	0.020242	0.013373	-0.0405295	0.0094565	0.091155	-0.0541815	0.165499	-0.0175965	0.270005	-0.0677575	0.261328	-0.050886	0.286114	-0.119239	0.186086	0.033268	0.177725	-0.0930585	0.0150075	-0.113513	0.259921	
4.20227	0	0	-0.108115	0.187667	0.00843525	0.276986	-0.0472277	0.153479	-0.121118	0.252252	0.042654	-0.0711567	-0.0127995	0.001633	0.0065905	-0.0489142	0.00471275	0.0861295	-0.0533322	0.150728	-0.0287843	0.266613	-0.0767043	0.257511	-0.055443	0.274437	-0.121826	0.175867	0.021953	0.167612	-0.0953133	-0.00112825	-0.118222	0.242786	
4.20074	0	0	-0.110216	0.169556	0.000165	0.259971	-0.046815	0.141196	-0.131083	0.23537	0.036524	-0.075315	-0.013856	-0.016976	-0.000192	-0.057299	-3.1E-05	0.081104	-0.052483	0.135956	-0.039972	0.26322	-0.085651	0.253694	-0.06	0.26276	-0.124413	0.165648	0.010638	0.157498	-0.097568	-0.017264	-0.122931	0.225652	
4.20227	0	0	-0.11475	0.170357	-0.0070585	0.253509	-0.0519283	0.144537	-0.131847	0.222537	0.0374625	-0.0779678	-0.0215668	-0.016754	0.0009865	-0.0606295	0.00183725	0.0758242	-0.050616	0.130679	-0.0366925	0.253951	-0.076735	0.243041	-0.0690417	0.26379	-0.121676	0.157912	0.00821125	0.150347	-0.116631	-0.00832425	-0.123883	0.218206	
4.19769	0	0	-0.119284	0.171158	-0.014282	0.247047	-0.0570415	0.147878	-0.13261	0.209705	0.038401	-0.0806205	-0.0292775	-0.016532	0.002165	-0.06396	0.0037055	0.0705445	-0.048749	0.125403	-0.033413	0.244683	-0.067819	0.232389	-0.0780835	0.264821	-0.118939	0.150177	0.0057845	0.143196	-0.135694	0.0006155	-0.124835	0.21076	
4.20227	0	0	-0.123818	0.17196	-0.0215055	0.240584	-0.0621547	0.151219	-0.133374	0.196872	0.0393395	-0.0832732	-0.0369883	-0.01631	0.0033435	-0.0672905	0.00557375	0.0652647	-0.046882	0.120126	-0.0301335	0.235414	-0.058903	0.221737	-0.0871253	0.265851	-0.116202	0.142441	0.00335775	0.136044	-0.154757	0.00955525	-0.125787	0.203314	
4.20074	0	0	-0.128352	0.172761	-0.028729	0.234122	-0.067268	0.15456	-0.134137	0.184039	0.040278	-0.085926	-0.044699	-0.016088	0.004522	-0.070621	0.007442	0.059985	-0.045015	0.114849	-0.026854	0.226145	-0.049987	0.211084	-0.096167	0.266881	-0.113465	0.134706	0.000931	0.128893	-0.17382	0.018495	-0.126739	0.195868	
4.20227	0	0	-0.137962	0.16393	-0.0320947	0.216797	-0.070128	0.140443	-0.143325	0.180061	0.035091	-0.092725	-0.0501863	-0.0221253	-0.001079	-0.0823038	0.0027	0.0549728	-0.0480037	0.098577	-0.0299862	0.217517	-0.051135	0.199783	-0.0984747	0.248911	-0.118791	0.132244	-0.001496	0.121753	-0.17382	0.018495	-0.137937	0.197141	
4.20532	0	0	-0.147572	0.155098	-0.0354605	0.199471	-0.072988	0.126327	-0.152513	0.176083	0.029904	-0.099524	-0.0556735	-0.0281625	-0.00668	-0.0939865	-0.002042	0.0499605	-0.0509925	0.082305	-0.0331185	0.208889	-0.052283	0.188481	-0.100782	0.230942	-0.124116	0.129782	-0.003923	0.114613	-0.17382	0.018495	-0.149136	0.198413	
4.20685	0	0	-0.157183	0.146266	-0.0388262	0.182145	-0.075848	0.11221	-0.161701	0.172105	0.024717	-0.106323	-0.0611607	-0.0341998	-0.012281	-0.105669	-0.006784	0.0449482	-0.0539813	0.066033	-0.0362507	0.20026	-0.053431	0.177179	-0.10309	0.212973	-0.129442	0.127321	-0.00635	0.107472	-0.17382	0.018495	-0.160334	0.199686	
4.2038	0	0	-0.166793	0.137435	-0.042192	0.16482	-0.078708	0.098093	-0.170889	0.168127	0.01953	-0.113122	-0.066648	-0.040237	-0.017882	-0.117352	-0.011526	0.039936	-0.05697	0.049761	-0.039383	0.191632	-0.054579	0.165878	-0.105398	0.195003	-0.134768	0.124859	-0.008777	0.100332	-0.17382	0.018495	-0.171533	0.200959	
4.2038	0	0	-0.164809	0.131827	-0.04708	0.165229	-0.0768715	0.0929025	-0.164001	0.163626	0.0223402	-0.121064	-0.056732	-0.0467165	-0.00802825	-0.131449	-0.011526	0.039936	-0.0589317	0.0429583	-0.037747	0.187008	-0.057945	0.160857	-0.103161	0.188681	-0.132036	0.117137	-0.0061025	0.0927735	-0.170586	0.009354	-0.170631	0.188296	
4.20074	0	0	-0.162824	0.126219	-0.051968	0.165638	-0.075035	0.087712	-0.157112	0.159125	0.0251505	-0.129005	-0.046816	-0.053196	0.0018255	-0.145546	-0.011526	0.039936	-0.0608935	0.0361555	-0.036111	0.182385	-0.061311	0.155836	-0.100923	0.182358	-0.129304	0.109415	-0.003428	0.085215	-0.167351	0.000213	-0.169729	0.175633	
4.2038	0	0	-0.16084	0.120611	-0.056856	0.166047	-0.0731985	0.0825215	-0.150224	0.154624	0.0279607	-0.136947	-0.0369	-0.0596755	0.0116792	-0.159643	-0.011526	0.039936	-0.0628553	0.0293528	-0.034475	0.177761	-0.064677	0.150814	-0.0986863	0.176036	-0.126571	0.101693	-0.0007535	0.0776565	-0.164117	-0.008928	-0.168828	0.162971	
4.20227	0	0	-0.158856	0.115003	-0.061744	0.166456	-0.071362	0.077331	-0.143336	0.150123	0.030771	-0.144889	-0.026984	-0.066155	0.021533	-0.17374	-0.011526	0.039936	-0.064817	0.02255	-0.032839	0.173137	-0.068043	0.145793	-0.096449	0.169713	-0.123839	0.093971	0.001921	0.070098	-0.160883	-0.018069	-0.167926	0.150308	
4.20685	0	0	-0.166907	0.113802	-0.068948	0.160036	-0.077897	0.073627	-0.154048	0.150476	0.0279607	-0.136947	-0.0391138	-0.0534195	0.0128547	-0.162965	-0.004917	0.0396717	-0.0628553	0.0293528	-0.0264295	0.172504	-0.0691502	0.148923	-0.0986863	0.176036	-0.126571	0.101693	0.000584	0.0738765	-0.1625	-0.0134998	-0.167901	0.160352	
4.2099	0	0	-0.174959	0.112601	-0.076152	0.153616	-0.084432	0.069923	-0.16476	0.150829	0.0251505	-0.129005	-0.0512435	-0.040684	0.0041765	-0.15219	0.001692	0.0394075	-0.0608935	0.0361555	-0.02002	0.17187	-0.0702575	0.152052	-0.100923	0.182358	-0.129304	0.109415	-0.000753	0.077655	-0.164116	-0.0089305	-0.167876	0.170395	
4.22058	0	0	-0.183011	0.111401	-0.083356	0.147195	-0.090967	0.066219	-0.175472	0.151182	0.0223402	-0.121064	-0.0633732	-0.0279485	-0.00450175	-0.141414	0.008301	0.0391432	-0.0589317	0.0429583	-0.0136105	0.171237	-0.0713648	0.155181	-0.103161	0.188681	-0.132036	0.117137	-0.00209	0.0814335	-0.165733	-0.00436125	-0.167851	0.180439	
4.23126	0	0	-0.191062	0.1102	-0.09056	0.140775	-0.097502	0.062515	-0.186184	0.151535	0.01953	-0.113122	-0.075503	-0.015213	-0.01318	-0.130639	0.01491	0.038879	-0.05697	0.049761	-0.007201	0.170603	-0.072472	0.158311	-0.105398	0.195003	-0.134768	0.124859	-0.003427	0.085212	-0.16735	0.000208	-0.167826	0.190482	
4.24194	0	0	-0.191619	0.0998075	-0.0977545	0.134366	-0.102198	0.0536395	-0.183128	0.142898	0.0223402	-0.121064	-0.0633733	-0.0279485	-0.0096565	-0.140597	0.013043	0.0441555	-0.0589317	0.0429583	-0.005565	0.16598	-0.0680448	0.145799	-0.103161	0.188681	-0.132036	0.117137	-0.0007535	0.0776565	-0.165733	-0.00436125	-0.170654	0.17825	
4.25567	0	0	-0.192176	0.089415	-0.104949	0.127958	-0.106894	0.044764	-0.180071	0.134261	0.0251505	-0.129005	-0.0512435	-0.040684	-0.006133	-0.150555	0.011176	0.049432	-0.0608935	0.0361555	-0.003929	0.161356	-0.0636175	0.133287	-0.100923	0.182358	-0.129304	0.109415	0.00192	0.070101	-0.164116	-0.0089305	-0.173481	0.166018	
4.26941	0	0	-0.192733	0.0790225	-0.112144	0.121549	-0.11159	0.0358885	-0.177015	0.125624	0.0279607	-0.136947	-0.0391138	-0.0534195	-0.0026095	-0.160513	0.009309	0.0547085	-0.0628553	0.0293528	-0.002293	0.156732	-0.0591902	0.120775	-0.0986863	0.176036	-0.126571	0.101693	0.0045935	0.0625455	-0.1625	-0.0134998	-0.176308	0.153786	
4.28161	0	0	-0.19329	0.06863	-0.119338	0.11514	-0.116286	0.027013	-0.173959	0.116987	0.030771	-0.144889	-0.026984	-0.066155	0.000914	-0.170471	0.007442	0.059985	-0.064817	0.02255	-0.000657	0.152109	-0.054763	0.108263	-0.096449	0.169713	-0.123839	0.093971	0.007267	0.05499	-0.160883	-0.018069	-0.179136	0.141554	
4.29382	0	0	-0.187222	0.0754215	-0.119579	0.129188	-0.114855	0.034038	-0.173191	0.129772	0.038774	-0.146048	-0.023702	-0.0538603	0.00371925	-0.164649	0.0206798	0.0594558	-0.0525183	0.012494	0.007396	0.146847	-0.0536573	0.105137	-0.096449	0.169713	-0.122474	0.0901125	0.007267	0.05499	-0.157652	-0.0272003	-0.178211	0.138941	
4.29535	0	0	-0.181154	0.082213	-0.11982	0.143235	-0.113424	0.041063	-0.172424	0.142557	0.046777	-0.147208	-0.02042	-0.0415655	0.0065245	-0.158826	0.0339175	0.0589265	-0.0402195	0.002438	0.015449	0.141585	-0.0525515	0.102012	-0.096449	0.169713	-0.121109	0.086254	0.007267	0.05499	-0.154421	-0.0363315	-0.177287	0.136327	
4.30755	0	0	-0.175086	0.0890045	-0.120062	0.157282	-0.111992	0.048088	-0.171657	0.155342	0.05478	-0.148367	-0.017138	-0.0292708	0.00932975	-0.153004	0.0471553	0.0583972	-0.0279207	-0.007618	0.023502	0.136323	-0.0514457	0.0988865	-0.096449	0.169713	-0.119743	0.0823955	0.007267	0.05499	-0.151189	-0.0454627	-0.176363	0.133714	
4.31824	0	0	-0.169018	0.095796	-0.120303	0.17133	-0.110561	0.055113	-0.170889	0.168127	0.062783	-0.149527	-0.013856	-0.016976	0.012135	-0.147181	0.060393	0.057868	-0.015622	-0.017674	0.031555	0.131061	-0.05034	0.095761	-0.096449	0.169713	-0.118378	0.078537	0.007267	0.05499	-0.147958	-0.054594	-0.175438	0.131101	
4.31976	0	0	-0.175086	0.0890045	-0.121339	0.160893	-0.109247	0.04033	-0.174713	0.163979	0.0578435	-0.146299	-0.003917	-0.0234705	0.012135	-0.147181	0.0585225	0.0631538	-0.0193418	-0.00716125	0.0282823	0.140311	-0.052552	0.102013	-0.0986863	0.176036	-0.121109	0.0862557	0.0110365	0.0583355	-0.152806	-0.0408935	-0.173535	0.145946	
4.32281	0	0	-0.181154	0.082213	-0.122376	0.150456	-0.107934	0.025547	-0.178536	0.159831	0.052904	-0.143072	0.006022	-0.029965	0.012135	-0.147181	0.056652	0.0684395	-0.0230615	0.0033515	0.0250095	0.14956	-0.054764	0.108264	-0.100923	0.182358	-0.12384	0.0939745	0.014806	0.061681	-0.157654	-0.027193	-0.171632	0.160792	
4.31976	0	0	-0.187222	0.0754215	-0.123413	0.140019	-0.10662	0.010764	-0.18236	0.155683	0.0479645	-0.139844	0.015961	-0.0364595	0.012135	-0.147181	0.0547815	0.0737252	-0.0267812	0.0138642	0.0217367	0.158809	-0.056976	0.114516	-0.103161	0.188681	-0.126571	0.101693	0.0185755	0.0650265	-0.162502	-0.0134925	-0.169729	0.175637	
4.31671	0	0	-0.19329	0.06863	-0.124449	0.129582	-0.105306	-0.004019	-0.186184	0.151535	0.043025	-0.136617	0.0259	-0.042954	0.012135	-0.147181	0.052911	0.079011	-0.030501	0.024377	0.018464	0.168059	-0.059188	0.120768	-0.105398	0.195003	-0.129302	0.109412	0.022345	0.068372	-0.16735	0.000208	-0.167826	0.190482	
4.31061	0	0	-0.190323	0.0602458	-0.117019	0.121952	-0.10165	-0.0143523	-0.179301	0.147037	0.048901	-0.142492	0.0314125	-0.036913	0.0184685	-0.151319	0.0595398	0.078746	-0.0286405	0.0191192	0.0201008	0.163433	-0.0558705	0.111392	-0.0941258	0.187638	-0.129302	0.109412	0.022345	0.068372	-0.165733	-0.00436125	-0.173429	0.186094	
4.3045	0	0	-0.187356	0.0518615	-0.10959	0.114322	-0.0979935	-0.0246855	-0.172418	0.14254	0.054777	-0.148367	0.036925	-0.030872	0.024802	-0.155457	0.0661685	0.078481	-0.02678	0.0138615	0.0217375	0.158807	-0.052553	0.102016	-0.0828535	0.180272	-0.129302	0.109412	0.022345	0.068372	-0.164116	-0.0089305	-0.179032	0.181706	
4.30145	0	0	-0.18439	0.0434772	-0.102161	0.106692	-0.0943372	-0.0350188	-0.165536	0.138043	0.060653	-0.154241	0.0424375	-0.024831	0.0311355	-0.159596	0.0727972	0.078216	-0.0249195	0.00860375	0.0233742	0.154181	-0.0492355	0.09264	-0.0715812	0.172906	-0.129302	0.109412	0.022345	0.068372	-0.1625	-0.0134998	-0.184636	0.177319	
4.29382	0	0	-0.181423	0.035093	-0.094731	0.099062	-0.090681	-0.045352	-0.158653	0.133545	0.066529	-0.160116	0.04795	-0.01879	0.037469	-0.163734	0.079426	0.077951	-0.023059	0.003346	0.025011	0.149555	-0.045918	0.083264	-0.060309	0.165541	-0.129302	0.109412	0.022345	0.068372	-0.160883	-0.018069	-0.190239	0.172931	
4.28924	0	0	-0.177331	0.0474688	-0.0988098	0.123964	-0.0868893	-0.0339213	-0.152524	0.146169	0.0736057	-0.158633	0.0512432	-0.006452	0.0454463	-0.158726	0.0908307	0.082712	-0.0182987	0.00225625	0.0314347	0.148914	-0.045918	0.083264	-0.060309	0.165541	-0.127936	0.105552	0.022345	0.068372	-0.160883	-0.018069	-0.186512	0.172507	
4.28467	0	0	-0.173239	0.0598445	-0.102888	0.148866	-0.0830975	-0.0224905	-0.146395	0.158792	0.0806825	-0.157149	0.0545365	0.005886	0.0534235	-0.153718	0.102235	0.087473	-0.0135385	0.0011665	0.0378585	0.148273	-0.045918	0.083264	-0.060309	0.165541	-0.126571	0.101691	0.022345	0.068372	-0.160883	-0.018069	-0.182785	0.172083	
4.28161	0	5	-0.169147	0.0722202	-0.106967	0.173769	-0.0793057	-0.0110598	-0.140266	0.171415	0.0877593	-0.155666	0.0578297	0.018224	0.0614007	-0.148709	0.11364	0.092234	-0.00877825	7.675E-05	0.0442823	0.147632	-0.045918	0.083264	-0.060309	0.165541	-0.125205	0.0978312	0.022345	0.068372	-0.160883	-0.018069	-0.179058	0.171659	
4.27856	0	5	-0.165055	0.084596	-0.111046	0.198671	-0.075514	0.000371	-0.134137	0.184039	0.094836	-0.154182	0.061123	0.030562	0.069378	-0.143701	0.125045	0.096995	-0.004018	-0.001013	0.050706	0.146991	-0.045918	0.083264	-0.060309	0.165541	-0.123839	0.093971	0.022345	0.068372	-0.160883	-0.018069	-0.175331	0.171235	
4.27551	0	5	-0.167596	0.0798023	-0.102324	0.187406	-0.0811332	-0.0058945	-0.132605	0.179709	0.0938983	-0.151532	0.0588967	0.0368535	0.0682008	-0.140374	0.125045	0.096995	-0.00391025	0.0110542	0.0474297	0.156251	-0.042546	0.088269	-0.053501	0.170824	-0.119878	0.10029	0.0234393	0.079289	-0.148294	-0.008713	-0.171559	0.190934	
4.27399	0	5	-0.170137	0.0750085	-0.093601	0.17614	-0.0867525	-0.01216	-0.131073	0.175379	0.0929605	-0.148883	0.0566705	0.043145	0.0670235	-0.137047	0.125045	0.096995	-0.0038025	0.0231215	0.0441535	0.16551	-0.039174	0.093274	-0.046693	0.176108	-0.115917	0.106608	0.0245335	0.090206	-0.135705	0.000643	-0.167787	0.210633	
4.27399	0	5	-0.172677	0.0702148	-0.0848785	0.164874	-0.0923718	-0.0184255	-0.129541	0.171049	0.0920228	-0.146233	0.0544442	0.0494365	0.0658462	-0.133721	0.125045	0.096995	-0.00369475	0.0351887	0.0408773	0.174769	-0.035802	0.098279	-0.039885	0.181391	-0.111955	0.112927	0.0256277	0.101123	-0.123115	0.009999	-0.164015	0.230333	
4.27246	0	5	-0.175218	0.065421	-0.076156	0.153609	-0.097991	-0.024691	-0.128009	0.166719	0.091085	-0.143583	0.052218	0.055728	0.064669	-0.130394	0.125045	0.096995	-0.003587	0.047256	0.037601	0.184029	-0.03243	0.103284	-0.033077	0.186674	-0.107994	0.119246	0.026722	0.11204	-0.110526	0.019355	-0.160243	0.250032	
4.26941	0	5	-0.169707	0.06182	-0.078718	0.160849	-0.09525	-0.0324378	-0.122642	0.166541	0.093897	-0.15153	0.0599642	0.0555068	0.0721938	-0.137869	0.125045	0.096995	-0.00172375	0.0419902	0.0489455	0.169498	-0.035802	0.098279	-0.033077	0.186674	-0.107994	0.119246	0.026722	0.11204	-0.120873	0.026116	-0.158386	0.244783	
4.2633	0	5	-0.164195	0.058219	-0.08128	0.16809	-0.092509	-0.0401845	-0.117275	0.166362	0.096709	-0.159476	0.0677105	0.0552855	0.0797185	-0.145343	0.125045	0.096995	0.0001395	0.0367245	0.06029	0.154967	-0.039174	0.093274	-0.033077	0.186674	-0.107994	0.119246	0.026722	0.11204	-0.131219	0.032877	-0.156529	0.239534	
4.26178	0	5	-0.158684	0.054618	-0.083842	0.17533	-0.089768	-0.0479312	-0.111907	0.166184	0.099521	-0.167423	0.0754568	0.0550643	0.0872433	-0.152817	0.125045	0.096995	0.00200275	0.0314588	0.0716345	0.140435	-0.042546	0.088269	-0.033077	0.186674	-0.107994	0.119246	0.026722	0.11204	-0.141566	0.039638	-0.154671	0.234286	
4.26636	0	5	-0.153173	0.051017	-0.086404	0.18257	-0.087027	-0.055678	-0.10654	0.166006	0.102333	-0.17537	0.083203	0.054843	0.094768	-0.160292	0.125045	0.096995	0.003866	0.026193	0.082979	0.125904	-0.045918	0.083264	-0.033077	0.186674	-0.107994	0.119246	0.026722	0.11204	-0.151913	0.046399	-0.152814	0.229037	
4.25873	0	5	-0.152053	0.071821	-0.0869097	0.210799	-0.0841487	-0.0416658	-0.101933	0.183003	0.10942	-0.173892	0.0809737	0.0611433	0.101587	-0.15195	0.129818	0.10203	0.0134022	0.02401	0.089417	0.125255	-0.040334	0.0820172	-0.0240173	0.185625	-0.101294	0.117839	0.0304945	0.115398	-0.134449	0.0420333	-0.147184	0.243535	
4.25262	0	5	-0.150932	0.092625	-0.0874155	0.239028	-0.0812705	-0.0276535	-0.0973255	0.2	0.116507	-0.172413	0.0787445	0.0674435	0.108407	-0.143609	0.13459	0.107066	0.0229385	0.021827	0.095855	0.124607	-0.03475	0.0807705	-0.0149575	0.184577	-0.094593	0.116432	0.034267	0.118757	-0.116985	0.0376675	-0.141554	0.258034	
4.24957	0	5	-0.149811	0.113429	-0.0879213	0.267256	-0.0783922	-0.0136413	-0.0927183	0.216997	0.123594	-0.170934	0.0765153	0.0737437	0.115226	-0.135268	0.139363	0.112102	0.0324747	0.019644	0.102293	0.123958	-0.029166	0.0795238	-0.00589775	0.183528	-0.0878925	0.115026	0.0380395	0.122115	-0.0995218	0.0333018	-0.135924	0.272532	
4.25262	0	5	-0.148691	0.134233	-0.088427	0.295485	-0.075514	0.000371	-0.088111	0.233994	0.130681	-0.169456	0.074286	0.080044	0.122045	-0.126926	0.144135	0.117137	0.042011	0.017461	0.108731	0.12331	-0.023582	0.078277	0.003162	0.182479	-0.081192	0.113619	0.041812	0.125473	-0.082058	0.028936	-0.130294	0.28703	
4.2633	0	5	-0.146706	0.128624	-0.0724663	0.290649	-0.0787817	-0.0014705	-0.0850387	0.225311	0.130415	-0.179461	0.0754428	0.0551043	0.119223	-0.132764	0.136467	0.101781	0.0400348	0.0106583	0.0974977	0.119981	-0.024748	0.067038	-0.0036575	0.177196	-0.0852985	0.125224	0.026488	0.126753	-0.0798072	0.0451105	-0.113411	0.310464	
4.28772	0	5	-0.144721	0.123014	-0.0565055	0.285813	-0.0820495	-0.003312	-0.0819665	0.216628	0.130149	-0.189466	0.0765995	0.0301645	0.116402	-0.138601	0.128798	0.0864245	0.0380585	0.0038555	0.0862645	0.116651	-0.025914	0.055799	-0.010477	0.171913	-0.089405	0.13683	0.011164	0.128033	-0.0775565	0.061285	-0.096528	0.333898	
4.32129	0	5	-0.142736	0.117404	-0.0405447	0.280978	-0.0853172	-0.0051535	-0.0788942	0.207944	0.129883	-0.199472	0.0777562	0.00522475	0.113581	-0.144438	0.12113	0.0710682	0.0360822	-0.00294725	0.0750312	0.113322	-0.02708	0.04456	-0.0172965	0.166631	-0.0935115	0.148435	-0.00416	0.129313	-0.0753058	0.0774595	-0.079645	0.357332	
4.37164	0	5	-0.140751	0.111795	-0.024584	0.276142	-0.088585	-0.006995	-0.075822	0.199261	0.129617	-0.209477	0.078913	-0.019715	0.110759	-0.150276	0.113461	0.055712	0.034106	-0.00975	0.063798	0.109993	-0.028246	0.033321	-0.024116	0.161348	-0.097618	0.160041	-0.019484	0.130593	-0.073055	0.093634	-0.062762	0.380766	
4.43725	0	5	-0.137214	0.113797	-0.0160705	0.278977	-0.088585	-0.006995	-0.075822	0.199261	0.126541	-0.211535	0.0756105	-0.0320267	0.115938	-0.1511	0.102063	0.050968	0.035967	-0.0150095	0.0670675	0.100753	-0.0327235	0.031452	-0.0105755	0.147636	-0.092283	0.16251	-0.0181453	0.126809	-0.0675532	0.100648	-0.0477255	0.389258	
4.50897	0	5	-0.133678	0.115798	-0.007557	0.281813	-0.088585	-0.006995	-0.075822	0.199261	0.123465	-0.213592	0.072308	-0.0443385	0.121117	-0.151925	0.0906655	0.046224	0.037828	-0.020269	0.070337	0.0915125	-0.037201	0.029583	0.002965	0.133925	-0.086948	0.164979	-0.0168065	0.123026	-0.0620515	0.107662	-0.032689	0.397749	
4.58526	0	5	-0.130141	0.1178	0.0009565	0.284649	-0.088585	-0.006995	-0.075822	0.199261	0.120389	-0.215649	0.0690055	-0.0566502	0.126296	-0.152749	0.0792677	0.04148	0.039689	-0.0255285	0.0736065	0.0822722	-0.0416785	0.027714	0.0165055	0.120213	-0.081613	0.167447	-0.0154677	0.119243	-0.0565498	0.114676	-0.0176525	0.406241	
4.66003	0	5	-0.126604	0.119801	0.00947	0.287484	-0.088585	-0.006995	-0.075822	0.199261	0.117313	-0.217707	0.065703	-0.068962	0.131475	-0.153574	0.06787	0.036736	0.04155	-0.030788	0.076876	0.073032	-0.046156	0.025845	0.030046	0.106501	-0.076278	0.169916	-0.014129	0.115459	-0.051048	0.12169	-0.002616	0.414733	
4.71954	0	5	-0.136651	0.12421	-0.0003315	0.288289	-0.0867557	-0.0121648	-0.0811972	0.199438	0.120389	-0.215649	0.057969	-0.0687248	0.129117	-0.146912	0.069738	0.0314565	0.042597	-0.021359	0.067181	0.082918	-0.0416785	0.027714	0.0165055	0.120213	-0.0750565	0.184027	-0.010364	0.118818	-0.0416637	0.140377	0.0086985	0.433884	
4.76684	0	5	-0.146699	0.128618	-0.010133	0.289093	-0.0849265	-0.0173345	-0.0865725	0.199615	0.123465	-0.213592	0.050235	-0.0684875	0.12676	-0.14025	0.071606	0.026177	0.043644	-0.01193	0.057486	0.092804	-0.037201	0.029583	0.002965	0.133925	-0.073835	0.198138	-0.006599	0.122176	-0.0322795	0.159063	0.020013	0.453036	
4.81567	0	5	-0.156746	0.133026	-0.0199345	0.289898	-0.0830973	-0.0225042	-0.0919478	0.199792	0.126541	-0.211535	0.042501	-0.0682502	0.124402	-0.133588	0.073474	0.0208975	0.044691	-0.002501	0.047791	0.10269	-0.0327235	0.031452	-0.0105755	0.147636	-0.0726135	0.21225	-0.002834	0.125534	-0.0228953	0.17775	0.0313275	0.472187	
4.85077	0	5	-0.166793	0.137435	-0.029736	0.290702	-0.081268	-0.027674	-0.097323	0.199969	0.129617	-0.209477	0.034767	-0.068013	0.122045	-0.126926	0.075342	0.015618	0.045738	0.006928	0.038096	0.112576	-0.028246	0.033321	-0.024116	0.161348	-0.071392	0.226361	0.000931	0.128893	-0.013511	0.196436	0.042642	0.491338	
4.87976	0	5	-0.165801	0.13463	-0.029736	0.290702	-0.081268	-0.027674	-0.097323	0.199969	0.128681	-0.206831	0.0325503	-0.0617483	0.122045	-0.126926	0.0668502	0.0211667	0.0485315	-0.000967	0.0413637	0.103341	-0.0260392	0.0270845	-0.0218773	0.155021	-0.0579515	0.223552	-0.00040875	0.13268	-0.00635975	0.198871	0.0435832	0.488677	
4.90875	0	5	-0.164808	0.131826	-0.029736	0.290702	-0.081268	-0.027674	-0.097323	0.199969	0.127745	-0.204184	0.0303335	-0.0554835	0.122045	-0.126926	0.0583585	0.0267155	0.051325	-0.008862	0.0446315	0.094105	-0.0238325	0.020848	-0.0196385	0.148694	-0.044511	0.220742	-0.0017485	0.136466	0.0007915	0.201305	0.0445245	0.486016	
4.9469	0	5	-0.163816	0.129022	-0.029736	0.290702	-0.081268	-0.027674	-0.097323	0.199969	0.126808	-0.201538	0.0281167	-0.0492187	0.122045	-0.126926	0.0498668	0.0322643	0.0541185	-0.016757	0.0478992	0.0848695	-0.0216257	0.0146115	-0.0173997	0.142367	-0.0310705	0.217933	-0.00308825	0.140253	0.00794275	0.203739	0.0454657	0.483356	
4.97131	0	5	-0.162824	0.126217	-0.029736	0.290702	-0.081268	-0.027674	-0.097323	0.199969	0.125872	-0.198891	0.0259	-0.042954	0.122045	-0.126926	0.041375	0.037813	0.056912	-0.024652	0.051167	0.075634	-0.019419	0.008375	-0.015161	0.13604	-0.01763	0.215123	-0.004428	0.144039	0.015094	0.206174	0.046407	0.480695	
4.97436	0	5	-0.159731	0.141463	-0.032579	0.31218	-0.078392	-0.0136418	-0.0965575	0.21282	0.132028	-0.194769	0.0391533	-0.0371442	0.124868	-0.12108	0.0461295	0.0428267	0.056912	-0.024652	0.0575942	0.0749835	-0.0205222	0.0114925	-0.00833825	0.141314	-0.0150288	0.225385	0.00176475	0.154566	0.027784	0.215683	0.0567895	0.482097	
4.97131	0	5	-0.156639	0.15671	-0.035422	0.333658	-0.075516	0.0003905	-0.095792	0.22567	0.138184	-0.190648	0.0524065	-0.0313345	0.12769	-0.115235	0.050884	0.0478405	0.056912	-0.024652	0.0640215	0.074333	-0.0216255	0.01461	-0.0015155	0.146587	-0.0124275	0.235647	0.0079575	0.165094	0.040474	0.225192	0.067172	0.483498	
4.96368	0	5	-0.153546	0.171956	-0.038265	0.355137	-0.07264	0.0144228	-0.0950265	0.238521	0.14434	-0.186526	0.0656597	-0.0255247	0.130513	-0.109389	0.0556385	0.0528543	0.056912	-0.024652	0.0704488	0.0736825	-0.0227287	0.0177275	0.00530725	0.151861	-0.00982625	0.245908	0.0141503	0.175621	0.053164	0.234701	0.0775545	0.4849	
4.95605	0	5	-0.150453	0.187202	-0.041108	0.376615	-0.069764	0.028455	-0.094261	0.251372	0.150496	-0.182404	0.078913	-0.019715	0.133335	-0.103543	0.060393	0.057868	0.056912	-0.024652	0.076876	0.073032	-0.023832	0.020845	0.01213	0.157135	-0.007225	0.25617	0.020343	0.186148	0.065854	0.24421	0.087937	0.486302	
4.93927	0	5	-0.149458	0.184392	-0.0336247	0.368919	-0.0679315	0.0232765	-0.0904217	0.255549	0.155452	-0.185643	0.0744655	-0.00714575	0.135695	-0.110213	0.0585225	0.0631538	0.055861	-0.0340693	0.0688152	0.078299	-0.021626	0.0146107	0.009888	0.163471	0.000735	0.26895	0.0265413	0.196703	0.0559945	0.272074	0.0822772	0.502297	
4.92401	0	5	-0.148464	0.181581	-0.0261415	0.361223	-0.066099	0.018098	-0.0865825	0.259725	0.160409	-0.188882	0.070018	0.0054235	0.138055	-0.116883	0.056652	0.0684395	0.05481	-0.0434865	0.0607545	0.083566	-0.01942	0.0083765	0.007646	0.169807	0.008695	0.281729	0.0327395	0.207258	0.046135	0.299939	0.0766175	0.518292	
4.90112	0	5	-0.14747	0.17877	-0.0186582	0.353526	-0.0642665	0.0129195	-0.0827433	0.263902	0.165365	-0.19212	0.0655705	0.0179927	0.140415	-0.123552	0.0547815	0.0737252	0.053759	-0.0529037	0.0526937	0.088833	-0.017214	0.00214225	0.005404	0.176143	0.016655	0.294509	0.0389378	0.217813	0.0362755	0.327804	0.0709577	0.534287	
4.88586	0	5	-0.146475	0.17596	-0.011175	0.34583	-0.062434	0.007741	-0.078904	0.268079	0.170322	-0.195359	0.061123	0.030562	0.142775	-0.130222	0.052911	0.079011	0.052708	-0.062321	0.044633	0.0941	-0.015008	-0.004092	0.003162	0.182479	0.024615	0.307289	0.045136	0.228368	0.026416	0.355668	0.065298	0.550282	
4.8645	0	5	-0.139401	0.179984	-0.0101485	0.356392	-0.065183	0.01551	-0.071218	0.276447	0.176491	-0.191236	0.0799327	0.0424892	0.141595	-0.126888	0.0643023	0.0837737	0.0545662	-0.0675728	0.0494242	0.0980733	-0.0083185	-0.008463	0.0122352	0.181425	0.0258313	0.321515	0.0486408	0.246577	0.0302865	0.367458	0.0671863	0.555205	
4.85229	0	5	-0.132327	0.184009	-0.009122	0.366954	-0.067932	0.023279	-0.063532	0.284815	0.18266	-0.187113	0.0987425	0.0544165	0.140416	-0.123554	0.0756935	0.0885365	0.0564245	-0.0728245	0.0542155	0.102046	-0.001629	-0.012834	0.0213085	0.18037	0.0270475	0.33574	0.0521455	0.264786	0.034157	0.379247	0.0690745	0.560128	
4.82941	0	5	-0.125252	0.188034	-0.0080955	0.377515	-0.070681	0.031048	-0.055846	0.293183	0.188829	-0.182989	0.117552	0.0663437	0.139236	-0.120219	0.0870847	0.0932993	0.0582828	-0.0780762	0.0590067	0.10602	0.0050605	-0.017205	0.0303817	0.179316	0.0282638	0.349966	0.0556502	0.282996	0.0380275	0.391037	0.0709627	0.565051	
4.8172	0	5	-0.118178	0.192058	-0.007069	0.388077	-0.07343	0.038817	-0.04816	0.301551	0.194998	-0.178866	0.136362	0.078271	0.138056	-0.116885	0.098476	0.098062	0.060141	-0.083328	0.063798	0.109993	0.01175	-0.021576	0.039455	0.178262	0.02948	0.364192	0.059155	0.301205	0.041898	0.402827	0.072851	0.569974	
4.80804	0	5	-0.122163	0.20332	-0.0145587	0.395782	-0.0776147	0.0395597	-0.0497025	0.305911	0.18936	-0.162933	0.131893	0.0909027	0.134514	-0.106875	0.101365	0.108402	0.0564233	-0.0728215	0.065317	0.12323	0.0106473	-0.0184592	0.0349633	0.190957	0.036058	0.380978	0.0640047	0.315656	0.0562535	0.407795	0.0908208	0.591162	
4.79889	0	5	-0.126147	0.214582	-0.0220485	0.403487	-0.0817995	0.0403025	-0.051245	0.31027	0.183723	-0.147	0.127423	0.103535	0.130972	-0.096865	0.104254	0.118741	0.0527055	-0.062315	0.066836	0.136467	0.0095445	-0.0153425	0.0304715	0.203651	0.042636	0.397763	0.0688545	0.330106	0.070609	0.412764	0.10879	0.612349	
4.78973	0	5	-0.130132	0.225843	-0.0295382	0.411192	-0.0859842	0.0410452	-0.0527875	0.31463	0.178085	-0.131066	0.122954	0.116166	0.12743	-0.086855	0.107144	0.129081	0.0489877	-0.0518085	0.068355	0.149704	0.00844175	-0.0122258	0.0259797	0.216345	0.049214	0.414548	0.0737042	0.344557	0.0849645	0.417732	0.12676	0.633537	
4.78821	0	5	-0.134117	0.237105	-0.037028	0.418897	-0.090169	0.041788	-0.05433	0.318989	0.172447	-0.115133	0.118484	0.128798	0.123888	-0.076845	0.110033	0.139421	0.04527	-0.041302	0.069874	0.162941	0.007339	-0.009109	0.021488	0.22904	0.055792	0.431334	0.078554	0.359008	0.09932	0.4227	0.14473	0.654725	
4.78058	0	5	-0.130579	0.239126	-0.0357342	0.415241	-0.0910855	0.0443785	-0.0574175	0.327715	0.18144	-0.118965	0.126256	0.12858	0.130254	-0.081005	0.114801	0.144469	0.0480587	-0.049183	0.0682345	0.167574	0.009544	-0.0153413	0.0192397	0.235394	0.0611667	0.433858	0.082333	0.362422	0.100972	0.41803	0.150418	0.659266	
4.7821	0	5	-0.127041	0.241148	-0.0344405	0.411585	-0.092002	0.046969	-0.060505	0.33644	0.190433	-0.122798	0.134027	0.128363	0.136621	-0.085165	0.119569	0.149517	0.0508475	-0.057064	0.066595	0.172208	0.011749	-0.0215735	0.0169915	0.241748	0.0665415	0.436382	0.086112	0.365836	0.102625	0.413361	0.156106	0.663806	
4.77905	0	0	-0.123503	0.243169	-0.0331468	0.407928	-0.0929185	0.0495595	-0.0635925	0.345166	0.199425	-0.12663	0.141798	0.128145	0.142987	-0.089325	0.124338	0.154565	0.0536363	-0.064945	0.0649555	0.176841	0.013954	-0.0278057	0.0147432	0.248103	0.0719163	0.438906	0.089891	0.36925	0.104277	0.408691	0.161793	0.668346	
4.7821	0	0	-0.119965	0.24519	-0.031853	0.404272	-0.093835	0.05215	-0.06668	0.353891	0.208418	-0.130462	0.14957	0.127928	0.149354	-0.093485	0.129106	0.159613	0.056425	-0.072826	0.063316	0.181474	0.016159	-0.034038	0.012495	0.254457	0.077291	0.44143	0.09367	0.372664	0.105929	0.404021	0.167481	0.672887	
4.78058	0	0	-0.117879	0.26336	-0.0272268	0.418132	-0.089135	0.06104	-0.0605405	0.366679	0.208682	-0.120407	0.160658	0.14016	0.149813	-0.0809398	0.134883	0.180388	0.0611973	-0.0739255	0.072909	0.189472	0.013954	-0.0278057	0.0215767	0.253411	0.079888	0.451821	0.0947392	0.383747	0.104277	0.408691	0.175078	0.672056	
4.77753	0	0	-0.115794	0.28153	-0.0226005	0.431992	-0.084435	0.06993	-0.054401	0.379466	0.208946	-0.110351	0.171746	0.152392	0.150272	-0.0683945	0.140661	0.201163	0.0659695	-0.075025	0.082502	0.19747	0.011749	-0.0215735	0.0306585	0.252365	0.082485	0.462211	0.0958085	0.39483	0.102625	0.413361	0.182674	0.671224	
4.77142	0	0	-0.113709	0.2997	-0.0179742	0.445852	-0.079735	0.07882	-0.0482615	0.392253	0.209209	-0.100296	0.182834	0.164625	0.150732	-0.0558493	0.146438	0.221938	0.0707417	-0.0761245	0.092095	0.205469	0.009544	-0.0153413	0.0397402	0.251319	0.085082	0.472602	0.0968778	0.405913	0.100972	0.41803	0.190271	0.670392	
4.76227	0	0	-0.111623	0.31787	-0.013348	0.459712	-0.075035	0.08771	-0.042122	0.405041	0.209473	-0.090241	0.193922	0.176857	0.151191	-0.043304	0.152216	0.242713	0.075514	-0.077224	0.101688	0.213467	0.007339	-0.009109	0.048822	0.250273	0.087679	0.482993	0.097947	0.416996	0.09932	0.4227	0.197868	0.669561	
4.75464	0	0	-0.113164	0.310189	-0.024166	0.449898	-0.075035	0.08771	-0.0528983	0.405358	0.212821	-0.0780848	0.187182	0.195906	0.155199	-0.040778	0.155102	0.253135	0.074707	-0.0625465	0.101552	0.231431	0.010723	-0.00412725	0.0511532	0.268339	0.0942635	0.499895	0.106579	0.43498	0.104857	0.429863	0.203551	0.694843	
4.74396	0	0	-0.114705	0.302507	-0.034984	0.440084	-0.075035	0.08771	-0.0636745	0.405674	0.21617	-0.0659285	0.180442	0.214954	0.159207	-0.038252	0.157988	0.263556	0.0739	-0.047869	0.101416	0.249395	0.014107	0.0008545	0.0534845	0.286404	0.100848	0.516798	0.115211	0.452963	0.110394	0.437026	0.209235	0.720125	
4.73785	0	0	-0.116245	0.294826	-0.045802	0.430269	-0.075035	0.08771	-0.0744507	0.405991	0.219519	-0.0537723	0.173702	0.234003	0.163215	-0.035726	0.160875	0.273978	0.073093	-0.0331915	0.10128	0.267358	0.017491	0.00583625	0.0558157	0.30447	0.107433	0.5337	0.123843	0.470947	0.115931	0.444189	0.214918	0.745407	
4.73022	0	0	-0.117786	0.287145	-0.05662	0.420455	-0.075035	0.08771	-0.085227	0.406308	0.222867	-0.041616	0.166962	0.253051	0.167223	-0.0332	0.163761	0.2844	0.072286	-0.018514	0.101144	0.285322	0.020875	0.010818	0.058147	0.322535	0.114017	0.550602	0.132475	0.488931	0.121468	0.451352	0.220602	0.770689	
4.72717	0	0	-0.125321	0.296411	-0.0664042	0.42123	-0.0694125	0.09402	-0.0952493	0.419581	0.233348	-0.0279203	0.178052	0.265379	0.168862	-0.0239702	0.17332	0.294599	0.0770638	-0.0196122	0.102646	0.298675	0.0197705	0.013939	0.0536295	0.335302	0.11262	0.554549	0.140053	0.495822	0.115931	0.444189	0.222512	0.765291	
4.72717	0	0	-0.132856	0.305677	-0.0761885	0.422005	-0.06379	0.10033	-0.105272	0.432855	0.243828	-0.0142245	0.189142	0.277707	0.170502	-0.0147405	0.182879	0.304798	0.0818415	-0.0207105	0.104148	0.312027	0.018666	0.01706	0.049112	0.348069	0.111224	0.558496	0.14763	0.502714	0.110394	0.437026	0.224421	0.759893	
4.73022	0	0	-0.14039	0.314943	-0.0859727	0.422779	-0.0581675	0.10664	-0.115294	0.446128	0.254308	-0.00052875	0.200233	0.290035	0.172142	-0.00551075	0.192438	0.314997	0.0866193	-0.0218088	0.105649	0.325379	0.0175615	0.020181	0.0445945	0.360836	0.109827	0.562443	0.155207	0.509605	0.104857	0.429863	0.226331	0.754496	
4.7409	0	0	-0.147925	0.324209	-0.095757	0.423554	-0.052545	0.11295	-0.125316	0.459402	0.264789	0.013167	0.211323	0.302363	0.173781	0.003719	0.201997	0.325196	0.091397	-0.022907	0.107151	0.338732	0.016457	0.023302	0.040077	0.373603	0.10843	0.56639	0.162785	0.516497	0.09932	0.4227	0.228241	0.749098	
4.76074	0	0	-0.143325	0.347318	-0.0986342	0.445119	-0.051021	0.141993	-0.127692	0.481168	0.275538	0.037075	0.217908	0.327527	0.182258	0.0214145	0.214464	0.345924	0.096299	-0.0119265	0.123227	0.346186	0.0321512	0.022653	0.0537612	0.384334	0.109621	0.580805	0.174171	0.52686	0.09932	0.4227	0.237763	0.753255	
4.78363	0	0	-0.138726	0.370426	-0.101512	0.466683	-0.049497	0.171036	-0.130068	0.502933	0.286287	0.060983	0.224493	0.352692	0.190735	0.03911	0.22693	0.366652	0.101201	-0.000946	0.139303	0.353641	0.0478455	0.022004	0.0674455	0.395066	0.110812	0.59522	0.185557	0.537222	0.09932	0.4227	0.247286	0.757412	
4.80347	0	5	-0.134126	0.393535	-0.104389	0.488248	-0.047973	0.200078	-0.132444	0.524699	0.297036	0.084891	0.231077	0.377857	0.199212	0.0568055	0.239397	0.387379	0.106103	0.0100345	0.15538	0.361096	0.0635398	0.021355	0.0811298	0.405797	0.112003	0.609635	0.196942	0.547585	0.09932	0.4227	0.256808	0.761569	
4.82483	0	5	-0.129526	0.416643	-0.107266	0.509813	-0.046449	0.229121	-0.13482	0.546465	0.307785	0.108799	0.237662	0.403021	0.207689	0.074501	0.251864	0.408107	0.111005	0.021015	0.171456	0.36855	0.079234	0.020706	0.094814	0.416528	0.113194	0.62405	0.208328	0.557948	0.09932	0.4227	0.266331	0.765726	
4.83856	0	5	-0.13053	0.41948	-0.107266	0.509813	-0.0431745	0.230996	-0.12944	0.546324	0.317099	0.115125	0.251053	0.409052	0.211707	0.0770492	0.263365	0.413004	0.11112	0.0331207	0.172957	0.38197	0.0748068	0.0332182	0.090277	0.42935	0.115781	0.634539	0.20665	0.576893	0.094358	0.436723	0.266301	0.786551	
4.84924	0	5	-0.131533	0.422316	-0.107266	0.509813	-0.0399	0.232872	-0.12406	0.546184	0.326412	0.121451	0.264445	0.415083	0.215726	0.0795975	0.274867	0.417901	0.111234	0.0452265	0.174459	0.39539	0.0703795	0.0457305	0.08574	0.442172	0.118367	0.645027	0.204971	0.595838	0.089396	0.450747	0.266272	0.807376	
4.85992	0	5	-0.132537	0.425152	-0.107266	0.509813	-0.0366255	0.234747	-0.118681	0.546044	0.335726	0.127777	0.277836	0.421113	0.219745	0.0821458	0.286368	0.422797	0.111349	0.0573323	0.17596	0.408811	0.0659523	0.0582427	0.081203	0.454994	0.120953	0.655516	0.203292	0.614784	0.084434	0.46477	0.266242	0.8282	
4.8584	0	5	-0.133541	0.427989	-0.107266	0.509813	-0.033351	0.236623	-0.113301	0.545903	0.34504	0.134103	0.291227	0.427144	0.223763	0.084694	0.297869	0.427694	0.111463	0.069438	0.177461	0.422231	0.061525	0.070755	0.076666	0.467816	0.12354	0.666005	0.201614	0.633729	0.079472	0.478793	0.266213	0.849025	
4.85382	0	5	-0.126462	0.432093	-0.100076	0.516389	-0.026796	0.240377	-0.111027	0.554551	0.347439	0.149119	0.292249	0.446234	0.224206	0.0973563	0.307484	0.437995	0.113445	0.0762755	0.170819	0.441003	0.0604173	0.0738858	0.0721225	0.480657	0.122137	0.66997	0.210586	0.636808	0.081127	0.474116	0.267172	0.846315	
4.85229	0	5	-0.119383	0.436196	-0.0928855	0.522965	-0.020241	0.244131	-0.108753	0.563199	0.349838	0.164135	0.29327	0.465325	0.22465	0.110018	0.3171	0.448296	0.115427	0.083113	0.164177	0.459774	0.0593095	0.0770165	0.067579	0.493497	0.120734	0.673934	0.219558	0.639887	0.082782	0.46944	0.26813	0.843606	
4.85382	0	5	-0.112303	0.4403	-0.0856953	0.52954	-0.013686	0.247885	-0.106478	0.571847	0.352238	0.179152	0.294291	0.484415	0.225093	0.122681	0.326715	0.458597	0.117408	0.0899505	0.157535	0.478546	0.0582017	0.0801473	0.0630355	0.506337	0.119331	0.677899	0.228531	0.642967	0.084437	0.464763	0.269089	0.840896	
4.84466	0	5	-0.105224	0.444404	-0.078505	0.536116	-0.007131	0.251639	-0.104204	0.580495	0.354637	0.194168	0.295313	0.503505	0.225536	0.135343	0.336331	0.468898	0.11939	0.096788	0.150893	0.497318	0.057094	0.083278	0.058492	0.519178	0.117928	0.681864	0.237503	0.646046	0.086092	0.460086	0.270048	0.838186	
4.82941	0	5	-0.103171	0.462745	-0.0814098	0.557788	-0.0052035	0.268498	-0.0980992	0.593429	0.358223	0.216776	0.298602	0.516211	0.23402	0.153174	0.335401	0.490292	0.130025	0.104094	0.162184	0.500783	0.0649855	0.0901688	0.065334	0.524593	0.124724	0.680473	0.239933	0.653411	0.098245	0.448551	0.276727	0.840074	
4.8172	0	5	-0.101119	0.481086	-0.0843145	0.57946	-0.003276	0.285357	-0.0919945	0.606364	0.36181	0.239384	0.301892	0.528917	0.242504	0.171006	0.334472	0.511686	0.140661	0.111399	0.173476	0.504249	0.072877	0.0970595	0.072176	0.530008	0.13152	0.679082	0.242364	0.660776	0.110398	0.437017	0.283407	0.841961	
4.80194	0	5	-0.0990658	0.499427	-0.0872192	0.601131	-0.0013485	0.302215	-0.0858898	0.619298	0.365397	0.261992	0.305181	0.541624	0.250988	0.188837	0.333542	0.53308	0.151297	0.118705	0.184767	0.507714	0.0807685	0.10395	0.079018	0.535424	0.138316	0.677691	0.244794	0.668142	0.122551	0.425482	0.290086	0.843849	
4.78973	0	5	-0.097013	0.517768	-0.090124	0.622803	0.000579	0.319074	-0.079785	0.632232	0.368983	0.2846	0.308471	0.55433	0.259472	0.206669	0.332612	0.554474	0.161932	0.12601	0.196058	0.51118	0.08866	0.110841	0.08586	0.540839	0.145112	0.6763	0.247225	0.675507	0.134704	0.413947	0.296765	0.845736	
4.776	0	5	-0.102571	0.521399	-0.0914263	0.626483	-0.00362825	0.319808	-0.0867347	0.636773	0.368024	0.28731	0.300625	0.554501	0.264698	0.205856	0.334528	0.54906	0.156196	0.129758	0.187913	0.516502	0.083049	0.112096	0.0835825	0.547276	0.135508	0.685626	0.242048	0.675904	0.122551	0.425482	0.286249	0.854693	
4.76837	0	5	-0.108128	0.52503	-0.0927285	0.630164	-0.0078355	0.320541	-0.0936845	0.641314	0.367065	0.29002	0.292779	0.554673	0.269924	0.205043	0.336444	0.543646	0.15046	0.133506	0.179768	0.521824	0.077438	0.113351	0.081305	0.553712	0.125905	0.694951	0.23687	0.676301	0.110398	0.437017	0.275732	0.86365	
4.75464	0	5	-0.113685	0.528662	-0.0940307	0.633845	-0.0120428	0.321275	-0.100634	0.645855	0.366106	0.29273	0.284933	0.554844	0.27515	0.204231	0.338359	0.538232	0.144724	0.137254	0.171623	0.527146	0.071827	0.114607	0.0790275	0.560148	0.116301	0.704277	0.231693	0.676698	0.098245	0.448551	0.265215	0.872607	
4.75311	0	5	-0.119243	0.532293	-0.095333	0.637525	-0.01625	0.322008	-0.107584	0.650396	0.365147	0.29544	0.277087	0.555015	0.280376	0.203418	0.340275	0.532818	0.138988	0.141002	0.163478	0.532468	0.066216	0.115862	0.07675	0.566585	0.106697	0.713603	0.226516	0.677095	0.086092	0.460086	0.254699	0.881564	
4.76227	0	5	-0.116711	0.537212	-0.0894465	0.647844	-0.015756	0.331769	-0.105317	0.659089	0.367298	0.300288	0.274806	0.561461	0.283209	0.209379	0.338359	0.538232	0.143786	0.139906	0.157005	0.533081	0.071827	0.114607	0.0676355	0.567592	0.109505	0.705668	0.221343	0.67749	0.089399	0.45074	0.257578	0.873429	
4.77295	0	5	-0.114179	0.542131	-0.08356	0.658162	-0.015262	0.34153	-0.10305	0.667782	0.369449	0.305137	0.272525	0.567907	0.286042	0.21534	0.336444	0.543646	0.148583	0.138809	0.150533	0.533694	0.077438	0.113351	0.058521	0.568599	0.112313	0.697734	0.21617	0.677886	0.092706	0.441393	0.260456	0.865295	
4.79431	0	5	-0.111646	0.547049	-0.0776735	0.668481	-0.014768	0.35129	-0.100782	0.676474	0.3716	0.309986	0.270245	0.574352	0.288875	0.221302	0.334528	0.54906	0.153381	0.137713	0.14406	0.534307	0.083049	0.112096	0.0494065	0.569607	0.11512	0.689799	0.210998	0.678281	0.096013	0.432046	0.263334	0.85716	
4.81567	0	5	-0.109114	0.551968	-0.071787	0.6788	-0.014274	0.361051	-0.098515	0.685167	0.373751	0.314834	0.267964	0.580798	0.291708	0.227263	0.332612	0.554474	0.158179	0.136617	0.137587	0.53492	0.08866	0.110841	0.040292	0.570614	0.117928	0.681864	0.205825	0.678677	0.09932	0.4227	0.266213	0.849025	
4.83856	0	5	-0.122244	0.564933	-0.0806038	0.690235	-0.021267	0.369658	-0.110847	0.689832	0.36488	0.328978	0.262409	0.57452	0.284504	0.247621	0.325891	0.554704	0.161204	0.153017	0.142394	0.539013	0.0887195	0.125287	0.0357355	0.583491	0.116525	0.685831	0.205825	0.678677	0.096013	0.432046	0.268112	0.854039	
4.86145	0	5	-0.135374	0.577898	-0.0894205	0.70167	-0.02826	0.378265	-0.123179	0.694497	0.356009	0.343122	0.256853	0.568243	0.277301	0.26798	0.319169	0.554933	0.16423	0.169417	0.147202	0.543107	0.088779	0.139733	0.031179	0.596369	0.115121	0.689797	0.205825	0.678677	0.092706	0.441393	0.27001	0.859052	
4.87976	0	5	-0.148504	0.590863	-0.0982372	0.713106	-0.035253	0.386871	-0.135512	0.699162	0.347137	0.357266	0.251298	0.561966	0.270097	0.288338	0.312447	0.555163	0.167256	0.185817	0.15201	0.5472	0.0888385	0.154179	0.0266225	0.609247	0.113717	0.693763	0.205825	0.678677	0.089399	0.45074	0.271908	0.864066	
4.89197	0	5	-0.161634	0.603828	-0.107054	0.724541	-0.042246	0.395478	-0.147844	0.703827	0.338266	0.37141	0.245743	0.555688	0.262893	0.308697	0.305726	0.555393	0.170281	0.202217	0.156817	0.551294	0.088898	0.168625	0.022066	0.622124	0.112314	0.69773	0.205825	0.678677	0.086092	0.460086	0.273807	0.869079	
4.8996	0	5	-0.164157	0.598899	-0.108361	0.728233	-0.0413167	0.392852	-0.160154	0.708479	0.334201	0.371979	0.230102	0.556015	0.262893	0.308697	0.300926	0.550212	0.166419	0.200653	0.15201	0.5472	0.0843958	0.166735	0.024345	0.615683	0.108331	0.691188	0.199607	0.667837	0.0927028	0.441403	0.270025	0.848647	
4.90723	0	5	-0.16668	0.59397	-0.109668	0.731926	-0.0403875	0.390226	-0.172465	0.713132	0.330135	0.372548	0.214461	0.556342	0.262893	0.308697	0.296125	0.545032	0.162556	0.199088	0.147202	0.543107	0.0798935	0.164845	0.026624	0.609242	0.104348	0.684647	0.193388	0.656998	0.0993135	0.42272	0.266244	0.828215	
4.91333	0	5	-0.169203	0.589042	-0.110974	0.735619	-0.0394583	0.387599	-0.184775	0.717785	0.32607	0.373116	0.19882	0.55667	0.262893	0.308697	0.291324	0.539852	0.158694	0.197523	0.142394	0.539013	0.0753912	0.162956	0.028903	0.602801	0.100365	0.678106	0.187169	0.646158	0.105924	0.404036	0.262462	0.807782	
4.90875	0	5	-0.171726	0.584113	-0.112281	0.739311	-0.038529	0.384973	-0.197085	0.722437	0.322004	0.373685	0.183179	0.556997	0.262893	0.308697	0.286524	0.534671	0.154832	0.195959	0.137587	0.53492	0.070889	0.161066	0.031182	0.59636	0.096382	0.671564	0.180951	0.635319	0.112535	0.385353	0.25868	0.78735	
4.9057	0	5	-0.171223	0.59475	-0.109027	0.75709	-0.040836	0.402649	-0.193275	0.726732	0.322004	0.373685	0.177647	0.550733	0.266921	0.31129	0.279816	0.534899	0.15295	0.201276	0.131121	0.53553	0.0753912	0.162956	0.0198053	0.603794	0.091001	0.668991	0.185059	0.623708	0.124685	0.373828	0.253924	0.780072	
4.89807	0	5	-0.170719	0.605387	-0.105773	0.774869	-0.043143	0.420326	-0.189465	0.731027	0.322004	0.373685	0.172114	0.544469	0.27095	0.313883	0.273108	0.535127	0.151069	0.206594	0.124656	0.536141	0.0798935	0.164845	0.0084285	0.611228	0.08562	0.666417	0.189167	0.612097	0.136834	0.362303	0.249169	0.772794	
4.88739	0	5	-0.170216	0.616024	-0.10252	0.792648	-0.04545	0.438003	-0.185654	0.735321	0.322004	0.373685	0.166581	0.538206	0.274979	0.316475	0.266401	0.535356	0.149188	0.211912	0.11819	0.536752	0.0843958	0.166735	-0.00294825	0.618662	0.080239	0.663844	0.193276	0.600487	0.148983	0.350778	0.244413	0.765516	
4.87518	0	5	-0.169713	0.626661	-0.099266	0.810427	-0.047757	0.455679	-0.181844	0.739616	0.322004	0.373685	0.161049	0.531942	0.279007	0.319068	0.259693	0.535584	0.147306	0.217229	0.111724	0.537362	0.088898	0.168625	-0.014325	0.626096	0.074858	0.66127	0.197384	0.588876	0.161133	0.339253	0.239657	0.758238	
4.86297	0	5	-0.1682	0.610325	-0.0966458	0.803022	-0.042174	0.439901	-0.185654	0.735321	0.315578	0.359122	0.160055	0.512876	0.273354	0.307098	0.250117	0.525247	0.143448	0.215662	0.108588	0.528579	0.083284	0.169877	-0.0120477	0.61966	0.0694822	0.658699	0.185695	0.593541	0.136846	0.362297	0.231087	0.761763	
4.84314	0	5	-0.166687	0.593989	-0.0940255	0.795617	-0.036591	0.424123	-0.189465	0.731027	0.309152	0.34456	0.159062	0.49381	0.267702	0.295129	0.24054	0.51491	0.139589	0.214095	0.105452	0.519796	0.07767	0.171129	-0.0097705	0.613223	0.0641065	0.656127	0.174005	0.598207	0.112559	0.385341	0.222518	0.765287	
4.82178	0	5	-0.165173	0.577652	-0.0914052	0.788212	-0.031008	0.408344	-0.193275	0.726732	0.302725	0.329997	0.158069	0.474744	0.262049	0.283159	0.230964	0.504574	0.135731	0.212529	0.102315	0.511013	0.072056	0.172381	-0.00749325	0.606787	0.0587307	0.653556	0.162316	0.602873	0.088272	0.408385	0.213948	0.768811	
4.80804	0	5	-0.16366	0.561316	-0.088785	0.780807	-0.025425	0.392566	-0.197085	0.722437	0.296299	0.315434	0.157075	0.455678	0.256396	0.271189	0.221388	0.494237	0.131873	0.210962	0.099179	0.50223	0.066442	0.173633	-0.005216	0.60035	0.053355	0.650985	0.150626	0.607538	0.063985	0.431429	0.205378	0.772336	
4.78668	0	5	-0.160637	0.552774	-0.0874758	0.777107	-0.0268432	0.385418	-0.193966	0.713621	0.287964	0.306323	0.146023	0.443241	0.253571	0.265217	0.21851	0.483698	0.130836	0.20143	0.086278	0.503448	0.0675537	0.170491	-0.0120278	0.594915	0.0493825	0.644465	0.148206	0.600209	0.067287	0.422097	0.198741	0.760094	
4.7699	0	5	-0.157615	0.544232	-0.0861665	0.773406	-0.0282615	0.378269	-0.190847	0.704805	0.279629	0.297212	0.134971	0.430804	0.250746	0.259245	0.215632	0.473159	0.129798	0.191898	0.073377	0.504665	0.0686655	0.167349	-0.0188395	0.58948	0.04541	0.637945	0.145786	0.592879	0.070589	0.412766	0.192103	0.747852	
4.75311	0	5	-0.154593	0.53569	-0.0848572	0.769706	-0.0296798	0.371121	-0.187727	0.695989	0.271294	0.288101	0.12392	0.418366	0.24792	0.253273	0.212754	0.462621	0.128761	0.182367	0.060476	0.505883	0.0697772	0.164208	-0.0256513	0.584045	0.0414375	0.631424	0.143365	0.585549	0.073891	0.403434	0.185466	0.73561	
4.74701	0	5	-0.15157	0.527148	-0.083548	0.766006	-0.031098	0.363972	-0.184608	0.687173	0.262959	0.27899	0.112868	0.405929	0.245095	0.247301	0.209876	0.452082	0.127724	0.172835	0.047575	0.507101	0.070889	0.161066	-0.032463	0.57861	0.037465	0.624904	0.140945	0.57822	0.077193	0.394102	0.178829	0.723368	
4.73175	0	5	-0.162163	0.520955	-0.0894245	0.75564	-0.0372115	0.347821	-0.192227	0.678616	0.254636	0.269902	0.0973297	0.406274	0.241073	0.244722	0.205096	0.446939	0.120113	0.18189	0.0394765	0.512393	0.0675527	0.170495	-0.0460837	0.592451	0.040259	0.617008	0.145041	0.566644	0.087679	0.38725	0.175983	0.721089	
4.71802	0	5	-0.172756	0.514761	-0.095301	0.745273	-0.043325	0.33167	-0.199846	0.67006	0.246313	0.260814	0.0817915	0.406618	0.23705	0.242143	0.200315	0.441796	0.112503	0.190945	0.031378	0.517685	0.0642165	0.179924	-0.0597045	0.606292	0.043053	0.609112	0.149137	0.555069	0.098165	0.380398	0.173137	0.71881	
4.70886	0	5	-0.183349	0.508568	-0.101178	0.734907	-0.0494385	0.315518	-0.207466	0.661503	0.23799	0.251726	0.0662532	0.406963	0.233028	0.239564	0.195534	0.436652	0.104892	0.2	0.0232795	0.522977	0.0608802	0.189352	-0.0733252	0.620134	0.045847	0.601216	0.153232	0.543493	0.108651	0.373546	0.170292	0.716531	
4.69665	0	5	-0.193942	0.502375	-0.107054	0.724541	-0.055552	0.299367	-0.215085	0.652946	0.229667	0.242638	0.050715	0.407308	0.229006	0.236985	0.190754	0.431509	0.097281	0.209055	0.015181	0.528269	0.057544	0.198781	-0.086946	0.633975	0.048641	0.59332	0.157328	0.531918	0.119137	0.366694	0.167446	0.714252	
4.69055	0	5	-0.200993	0.498252	-0.109338	0.717524	-0.0574722	0.28254	-0.218891	0.648675	0.218272	0.231453	0.0552228	0.394568	0.222166	0.228453	0.179308	0.426606	0.0981233	0.194228	0.0120623	0.519503	0.0608802	0.189352	-0.0801285	0.614707	0.039302	0.584269	0.156265	0.520765	0.113597	0.359567	0.159874	0.694421	
4.67987	0	5	-0.208043	0.49413	-0.111622	0.710507	-0.0593925	0.265714	-0.222697	0.644405	0.206876	0.220267	0.0597305	0.381829	0.215326	0.219921	0.167862	0.421703	0.0989655	0.179402	0.0089435	0.510737	0.0642165	0.179924	-0.073311	0.595439	0.029963	0.575218	0.155201	0.509612	0.108058	0.352439	0.152303	0.674589	
4.67682	0	0	-0.215094	0.490008	-0.113907	0.70349	-0.0613127	0.248887	-0.226502	0.640134	0.195481	0.209081	0.0642382	0.369089	0.208487	0.21139	0.156416	0.4168	0.0998078	0.164575	0.00582475	0.501971	0.0675527	0.170495	-0.0664935	0.576172	0.020624	0.566168	0.154137	0.498459	0.102518	0.345311	0.144731	0.654758	
4.67224	0	0	-0.222145	0.485885	-0.116191	0.696473	-0.063233	0.232061	-0.230308	0.635863	0.184085	0.197896	0.068746	0.356349	0.201647	0.202858	0.14497	0.411897	0.10065	0.149749	0.002706	0.493205	0.070889	0.161066	-0.059676	0.556904	0.011285	0.557117	0.153074	0.487306	0.096978	0.338184	0.137159	0.634927	
4.67224	0	0	-0.223149	0.488722	-0.124998	0.707899	-0.0734625	0.238745	-0.233418	0.644653	0.178871	0.190974	0.0587373	0.362889	0.196438	0.203664	0.146867	0.406535	0.0968003	0.148191	0.002706	0.493205	0.0697772	0.164208	-0.0710077	0.564308	0.0073175	0.550634	0.149285	0.483866	0.0881518	0.340372	0.140952	0.624209	
4.66461	0	0	-0.224153	0.49156	-0.133804	0.719326	-0.083692	0.245429	-0.236529	0.653443	0.173657	0.184051	0.0487285	0.369429	0.191228	0.204471	0.148764	0.401173	0.0929505	0.146633	0.002706	0.493205	0.0686655	0.167349	-0.0823395	0.571713	0.00335	0.54415	0.145497	0.480425	0.0793255	0.342561	0.144744	0.613491	
