1.88751	0	0	-0.004087	0.162744	0.012319	0.091709	0.032325	0.147765	0.057123	0.146375	0.093559	0.140445	0.081802	0.110621	0.062892	0.162194	0.062952	0.087961	0.046363	0.082255	0.042006	0.064841	0.000326	0.074447	0.008549	0.105841	-0.037613	0.139162	-0.002722	0.111097	0.034313	0.110214	0.016086	0.138861	
1.88751	0	0	-0.00783975	0.17335	0.002728	0.105629	0.024229	0.159023	0.0528785	0.15837	0.086308	0.149408	0.081802	0.110621	0.0624985	0.177508	0.0611997	0.092913	0.0494835	0.0861545	0.047036	0.0683052	-0.000763	0.077525	0.017573	0.104448	-0.0389755	0.143012	-0.00402175	0.11477	0.0326675	0.114864	0.019001	0.140656	
1.88599	0	0	-0.0115925	0.183957	-0.006863	0.119549	0.016133	0.170281	0.048634	0.170366	0.079057	0.158371	0.081802	0.110621	0.062105	0.192822	0.0594475	0.097865	0.052604	0.090054	0.052066	0.0717695	-0.001852	0.080603	0.026597	0.103055	-0.040338	0.146863	-0.0053215	0.118443	0.031022	0.119514	0.021916	0.14245	
1.88751	0	0	-0.0153453	0.194564	-0.016454	0.133468	0.008037	0.181538	0.0443895	0.182362	0.071806	0.167334	0.081802	0.110621	0.0617115	0.208135	0.0576952	0.102817	0.0557245	0.0939535	0.057096	0.0752338	-0.002941	0.083681	0.035621	0.101662	-0.0417005	0.150713	-0.00662125	0.122116	0.0293765	0.124164	0.024831	0.144244	
1.88599	0	0	-0.019098	0.20517	-0.026045	0.147388	-5.9E-05	0.192796	0.040145	0.194357	0.064555	0.176297	0.081802	0.110621	0.061318	0.223449	0.055943	0.107769	0.058845	0.097853	0.062126	0.078698	-0.00403	0.086759	0.044645	0.100269	-0.043063	0.154563	-0.007921	0.125789	0.027731	0.128814	0.027746	0.146039	
1.88751	0	0	-0.0181595	0.202517	-0.017429	0.149419	0.00085675	0.190208	0.0455568	0.193898	0.068443	0.165309	0.081802	0.110621	0.0690155	0.215908	0.0628273	0.10708	0.0548138	0.0965275	0.062126	0.078698	-0.002941	0.083681	0.044645	0.100269	-0.0389775	0.143017	-0.0106357	0.119095	0.018532	0.13125	0.0244685	0.135242	
1.88446	0	0	-0.017221	0.199864	-0.008813	0.15145	0.0017725	0.18762	0.0509685	0.193438	0.072331	0.154321	0.081802	0.110621	0.076713	0.208366	0.0697115	0.10639	0.0507825	0.095202	0.062126	0.078698	-0.001852	0.080603	0.044645	0.100269	-0.034892	0.131472	-0.0133505	0.112402	0.009333	0.133686	0.021191	0.124445	
1.88293	0	0	-0.0162825	0.197211	-0.000197	0.153482	0.00268825	0.185032	0.0563802	0.192978	0.076219	0.143333	0.081802	0.110621	0.0844105	0.200825	0.0765957	0.105701	0.0467513	0.0938765	0.062126	0.078698	-0.000763	0.077525	0.044645	0.100269	-0.0308065	0.119926	-0.0160653	0.105708	0.000134	0.136122	0.0179135	0.113648	
1.88446	0	0	-0.015344	0.194558	0.008419	0.155513	0.003604	0.182444	0.061792	0.192519	0.080107	0.132345	0.081802	0.110621	0.092108	0.193283	0.08348	0.105012	0.04272	0.092551	0.062126	0.078698	0.000326	0.074447	0.044645	0.100269	-0.026721	0.10838	-0.01878	0.099014	-0.009065	0.138558	0.014636	0.102851	
1.88599	0	0	-0.0125413	0.198847	0.00606625	0.162163	0.00177225	0.187621	0.0672087	0.192058	0.075775	0.133065	0.0738967	0.111292	0.0886385	0.203088	0.081726	0.109969	0.0476625	0.091301	0.0605713	0.083092	-0.000763	0.077525	0.0536823	0.0988705	-0.0337607	0.110024	-0.0161845	0.0916788	0.003424	0.126824	0.0154857	0.100449	
1.88446	0	0	-0.0097385	0.203136	0.0037135	0.168813	-5.95E-05	0.192798	0.0726255	0.191597	0.071443	0.133786	0.0659915	0.111962	0.085169	0.212893	0.079972	0.114926	0.052605	0.090051	0.0590165	0.087486	-0.001852	0.080603	0.0627195	0.097472	-0.0408005	0.111668	-0.013589	0.0843435	0.015913	0.11509	0.0163355	0.0980475	
1.88446	0	0	-0.00693575	0.207425	0.00136075	0.175462	-0.00189125	0.197975	0.0780423	0.191135	0.067111	0.134506	0.0580863	0.112632	0.0816995	0.222698	0.078218	0.119884	0.0575475	0.088801	0.0574617	0.09188	-0.002941	0.083681	0.0717568	0.0960735	-0.0478403	0.113311	-0.0109935	0.0770083	0.028402	0.103357	0.0171852	0.0956458	
1.88446	0	0	-0.004133	0.211714	-0.000992	0.182112	-0.003723	0.203152	0.083459	0.190674	0.062779	0.135226	0.050181	0.113303	0.07823	0.232503	0.076464	0.124841	0.06249	0.087551	0.055907	0.096274	-0.00403	0.086759	0.080794	0.094675	-0.05488	0.114955	-0.008398	0.069673	0.040891	0.091623	0.018035	0.093244	
1.88141	0	0	-0.010675	0.205791	-0.0047125	0.179431	-0.0044915	0.193708	0.0780423	0.191135	0.062331	0.124977	0.0522485	0.10746	0.082855	0.219432	0.078218	0.119884	0.0611893	0.0785095	0.0590157	0.0874883	-0.00661425	0.0789873	0.0717568	0.0960735	-0.0605525	0.112753	-0.0164222	0.0636517	0.0333332	0.0894207	0.00760175	0.0926807	
1.88141	0	0	-0.017217	0.199869	-0.008433	0.17675	-0.00526	0.184264	0.0726255	0.191597	0.061883	0.114728	0.054316	0.101617	0.08748	0.206361	0.079972	0.114926	0.0598885	0.069468	0.0621245	0.0787025	-0.0091985	0.0712155	0.0627195	0.097472	-0.066225	0.110551	-0.0244465	0.0576305	0.0257755	0.0872185	-0.0028315	0.0921175	
1.88293	0	0	-0.023759	0.193946	-0.0121535	0.174068	-0.0060285	0.17482	0.0672087	0.192058	0.061435	0.104479	0.0563835	0.0957747	0.092105	0.193291	0.081726	0.109969	0.0585877	0.0604265	0.0652332	0.0699167	-0.0117827	0.0634437	0.0536823	0.0988705	-0.0718975	0.108349	-0.0324707	0.0516092	0.0182177	0.0850163	-0.0132648	0.0915543	
1.88293	0	0	-0.030301	0.188023	-0.015874	0.171387	-0.006797	0.165376	0.061792	0.192519	0.060987	0.09423	0.058451	0.089932	0.09673	0.18022	0.08348	0.105012	0.057287	0.051385	0.068342	0.061131	-0.014367	0.055672	0.044645	0.100269	-0.07757	0.106147	-0.040495	0.045588	0.01066	0.082814	-0.023698	0.090991	
1.88293	0	0	-0.0256233	0.187005	-0.019404	0.181364	-0.007712	0.167962	0.0603755	0.196523	0.05666	0.094951	0.060517	0.0840932	0.09673	0.18022	0.085233	0.100057	0.0581967	0.0488138	0.068342	0.061131	-0.0202123	0.0571285	0.044645	0.100269	-0.0762113	0.102307	-0.0457968	0.046239	0.00147125	0.0852505	-0.0211528	0.0837978	
1.88446	0	0	-0.0209455	0.185986	-0.022934	0.19134	-0.008627	0.170548	0.058959	0.200527	0.052333	0.095672	0.062583	0.0782545	0.09673	0.18022	0.086986	0.095103	0.0591065	0.0462425	0.068342	0.061131	-0.0260575	0.058585	0.044645	0.100269	-0.0748525	0.0984665	-0.0510985	0.04689	-0.0077175	0.087687	-0.0186075	0.0766045	
1.88141	0	0	-0.0162678	0.184968	-0.026464	0.201317	-0.009542	0.173134	0.0575425	0.204531	0.048006	0.096393	0.064649	0.0724158	0.09673	0.18022	0.088739	0.0901485	0.0600163	0.0436712	0.068342	0.061131	-0.0319028	0.0600415	0.044645	0.100269	-0.0734937	0.0946263	-0.0564002	0.047541	-0.0169062	0.0901235	-0.0160623	0.0694113	
1.88293	0	0	-0.01159	0.18395	-0.029994	0.211293	-0.010457	0.17572	0.056126	0.208535	0.043679	0.097114	0.066715	0.066577	0.09673	0.18022	0.090492	0.085194	0.060926	0.0411	0.068342	0.061131	-0.037748	0.061498	0.044645	0.100269	-0.072135	0.090786	-0.061702	0.048192	-0.026095	0.09256	-0.013517	0.062218	
1.87988	0	0	-0.016257	0.172745	-0.026464	0.201317	-0.0103138	0.163706	0.0589588	0.200529	0.0379385	0.0903427	0.0608807	0.06142	0.090577	0.169195	0.083607	0.0858858	0.0559858	0.042352	0.061758	0.0620585	-0.0435882	0.0629518	0.044645	0.100269	-0.072135	0.090786	-0.0669995	0.0488413	-0.026095	0.09256	-0.0189705	0.0676242	
1.88141	0	0	-0.020924	0.16154	-0.022934	0.19134	-0.0101705	0.151693	0.0617915	0.192523	0.032198	0.0835715	0.0550465	0.056263	0.084424	0.15817	0.076722	0.0865775	0.0510455	0.043604	0.055174	0.062986	-0.0494285	0.0644055	0.044645	0.100269	-0.072135	0.090786	-0.072297	0.0494905	-0.026095	0.09256	-0.024424	0.0730305	
1.88293	0	0	-0.025591	0.150334	-0.019404	0.181364	-0.0100272	0.13968	0.0646243	0.184517	0.0264575	0.0768003	0.0492122	0.051106	0.078271	0.147145	0.069837	0.0872692	0.0461053	0.044856	0.04859	0.0639135	-0.0552687	0.0658592	0.044645	0.100269	-0.072135	0.090786	-0.0775945	0.0501397	-0.026095	0.09256	-0.0298775	0.0784367	
1.88446	0	0	-0.030258	0.139129	-0.015874	0.171387	-0.009884	0.127666	0.067457	0.176511	0.020717	0.070029	0.043378	0.045949	0.072118	0.13612	0.062952	0.087961	0.041165	0.046108	0.042006	0.064841	-0.061109	0.067313	0.044645	0.100269	-0.072135	0.090786	-0.082892	0.050789	-0.026095	0.09256	-0.035331	0.083843	
1.88293	0	0	-0.030258	0.139129	-0.0182267	0.178037	-0.009884	0.127666	0.067457	0.176511	0.0216847	0.067294	0.043378	0.045949	0.072118	0.13612	0.0715892	0.0823172	0.0353195	0.0499275	0.042006	0.064841	-0.061109	0.067313	0.046718	0.094411	-0.0791605	0.0924255	-0.080305	0.043478	-0.0336305	0.0903542	-0.0344827	0.0814457	
1.88599	0	0	-0.030258	0.139129	-0.0205795	0.184687	-0.009884	0.127666	0.067457	0.176511	0.0226525	0.064559	0.043378	0.045949	0.072118	0.13612	0.0802265	0.0766735	0.029474	0.053747	0.042006	0.064841	-0.061109	0.067313	0.048791	0.088553	-0.086186	0.094065	-0.077718	0.036167	-0.041166	0.0881485	-0.0336345	0.0790485	
1.88599	0	0	-0.030258	0.139129	-0.0229322	0.191336	-0.009884	0.127666	0.067457	0.176511	0.0236202	0.061824	0.043378	0.045949	0.072118	0.13612	0.0888638	0.0710298	0.0236285	0.0575665	0.042006	0.064841	-0.061109	0.067313	0.050864	0.082695	-0.0932115	0.0957045	-0.075131	0.028856	-0.0487015	0.0859428	-0.0327863	0.0766513	
1.89361	0	0	-0.030258	0.139129	-0.025285	0.197986	-0.009884	0.127666	0.067457	0.176511	0.024588	0.059089	0.043378	0.045949	0.072118	0.13612	0.097501	0.065386	0.017783	0.061386	0.042006	0.064841	-0.061109	0.067313	0.052937	0.076837	-0.100237	0.097344	-0.072544	0.021545	-0.056237	0.083737	-0.031938	0.074254	
1.89514	0	0	-0.0367932	0.133235	-0.0278252	0.191979	-0.015995	0.121742	0.0634592	0.172974	0.0202687	0.0598095	0.0533402	0.0394395	0.0667392	0.13713	0.090615	0.0660807	0.0199893	0.0678523	0.0404528	0.0692305	-0.0632837	0.0734593	0.050864	0.082695	-0.102954	0.105023	-0.0738372	0.0251997	-0.0470605	0.0813048	-0.0269685	0.0802265	
1.90124	0	0	-0.0433285	0.127341	-0.0303655	0.185972	-0.022106	0.115818	0.0594615	0.169436	0.0159495	0.06053	0.0633025	0.03293	0.0613605	0.13814	0.083729	0.0667755	0.0221955	0.0743185	0.0388995	0.07362	-0.0654585	0.0796055	0.048791	0.088553	-0.105672	0.112702	-0.0751305	0.0288545	-0.037884	0.0788725	-0.021999	0.086199	
1.90124	0	0	-0.0498637	0.121448	-0.0329057	0.179964	-0.028217	0.109893	0.0554637	0.165899	0.0116302	0.0612505	0.0732647	0.0264205	0.0559818	0.13915	0.076843	0.0674703	0.0244017	0.0807847	0.0373462	0.0780095	-0.0676332	0.0857517	0.046718	0.094411	-0.108389	0.120381	-0.0764237	0.0325093	-0.0287075	0.0764403	-0.0170295	0.0921715	
1.90582	0	0	-0.056399	0.115554	-0.035446	0.173957	-0.034328	0.103969	0.051466	0.162362	0.007311	0.061971	0.083227	0.019911	0.050603	0.14016	0.069957	0.068165	0.026608	0.087251	0.035793	0.082399	-0.069808	0.091898	0.044645	0.100269	-0.111106	0.12806	-0.077717	0.036164	-0.019531	0.074008	-0.01206	0.098144	
1.90735	0	0	-0.056399	0.115554	-0.0377982	0.180604	-0.034328	0.103969	0.051466	0.162362	0.007311	0.061971	0.0811637	0.0257423	0.050603	0.14016	0.069957	0.068165	0.0275183	0.0846785	0.0439302	0.077082	-0.069808	0.091898	0.046718	0.094411	-0.100005	0.114903	-0.0764237	0.0325093	-0.0270683	0.071807	-0.0149695	0.0963557	
1.91345	0	0	-0.056399	0.115554	-0.0401505	0.187252	-0.034328	0.103969	0.051466	0.162362	0.007311	0.061971	0.0791005	0.0315735	0.050603	0.14016	0.069957	0.068165	0.0284285	0.082106	0.0520675	0.071765	-0.069808	0.091898	0.048791	0.088553	-0.088904	0.101746	-0.0751305	0.0288545	-0.0346055	0.069606	-0.017879	0.0945675	
1.91498	0	0	-0.056399	0.115554	-0.0425027	0.193899	-0.034328	0.103969	0.051466	0.162362	0.007311	0.061971	0.0770373	0.0374048	0.050603	0.14016	0.069957	0.068165	0.0293388	0.0795335	0.0602048	0.066448	-0.069808	0.091898	0.050864	0.082695	-0.077803	0.0885883	-0.0738372	0.0251997	-0.0421427	0.067405	-0.0207885	0.0927793	
1.91498	0	0	-0.056399	0.115554	-0.044855	0.200546	-0.034328	0.103969	0.051466	0.162362	0.007311	0.061971	0.074974	0.043236	0.050603	0.14016	0.069957	0.068165	0.030249	0.076961	0.068342	0.061131	-0.069808	0.091898	0.052937	0.076837	-0.066702	0.075431	-0.072544	0.021545	-0.04968	0.065204	-0.023698	0.090991	
1.9165	0	0	-0.0536003	0.119822	-0.0483862	0.210526	-0.0370657	0.111707	0.0486357	0.170361	0.0034395	0.072912	0.0708432	0.05491	0.0536753	0.145669	0.0682058	0.073114	0.0324557	0.0834333	0.066788	0.0655228	-0.0661458	0.096599	0.050864	0.082695	-0.076444	0.084748	-0.0672455	0.0208925	-0.04968	0.065204	-0.0207885	0.0927793	
1.9165	0	0	-0.0508015	0.124089	-0.0519175	0.220506	-0.0398035	0.119445	0.0458055	0.17836	-0.000432	0.083853	0.0667125	0.066584	0.0567475	0.151177	0.0664545	0.078063	0.0346625	0.0899055	0.065234	0.0699145	-0.0624835	0.1013	0.048791	0.088553	-0.086186	0.094065	-0.061947	0.02024	-0.04968	0.065204	-0.017879	0.0945675	
1.91955	0	0	-0.0480027	0.128357	-0.0554487	0.230487	-0.0425413	0.127182	0.0429752	0.186358	-0.0043035	0.094794	0.0625818	0.078258	0.0598198	0.156686	0.0647032	0.083012	0.0368692	0.0963777	0.06368	0.0743063	-0.0588212	0.106001	0.046718	0.094411	-0.095928	0.103382	-0.0566485	0.0195875	-0.04968	0.065204	-0.0149695	0.0963557	
1.91955	0	0	-0.045204	0.132625	-0.05898	0.240467	-0.045279	0.13492	0.040145	0.194357	-0.008175	0.105735	0.058451	0.089932	0.062892	0.162194	0.062952	0.087961	0.039076	0.10285	0.062126	0.078698	-0.055159	0.110702	0.044645	0.100269	-0.10567	0.112699	-0.05135	0.018935	-0.04968	0.065204	-0.01206	0.098144	
1.92261	0	0	-0.0508087	0.136287	-0.054089	0.239831	-0.0443662	0.13234	0.0455568	0.193898	-0.00623875	0.100263	0.0684248	0.083415	0.058667	0.159943	0.0647032	0.083012	0.0418085	0.095128	0.065233	0.0699167	-0.0599092	0.109076	0.0487892	0.0885568	-0.102954	0.105023	-0.0553558	0.015934	-0.0447668	0.0513187	-0.0132725	0.0915595	
1.92261	0	0	-0.0564135	0.13995	-0.049198	0.239194	-0.0434535	0.12976	0.0509685	0.193438	-0.0043025	0.094791	0.0783985	0.076898	0.054442	0.157693	0.0664545	0.078063	0.044541	0.087406	0.06834	0.0611355	-0.0646595	0.10745	0.0529335	0.0768445	-0.100239	0.0973475	-0.0593615	0.012933	-0.0398535	0.0374335	-0.014485	0.084975	
1.91955	0	0	-0.0620183	0.143612	-0.044307	0.238557	-0.0425408	0.12718	0.0563802	0.192978	-0.00236625	0.089319	0.0883722	0.070381	0.050217	0.155442	0.0682058	0.073114	0.0472735	0.079684	0.071447	0.0523543	-0.0694098	0.105823	0.0570777	0.0651323	-0.0975228	0.0896717	-0.0633672	0.009932	-0.0349403	0.0235482	-0.0156975	0.0783905	
1.92413	0	0	-0.067623	0.147274	-0.039416	0.237921	-0.041628	0.1246	0.061792	0.192519	-0.00043	0.083847	0.098346	0.063864	0.045992	0.153191	0.069957	0.068165	0.050006	0.071962	0.074554	0.043573	-0.07416	0.104197	0.061222	0.05342	-0.094807	0.081996	-0.067373	0.006931	-0.030027	0.009663	-0.01691	0.071806	
1.92261	0	0	-0.0620293	0.155828	-0.0392393	0.250617	-0.0390312	0.128856	0.0712123	0.195602	0.00388875	0.083128	0.09421	0.0755533	0.0513705	0.152182	0.0785943	0.0625213	0.0490953	0.0745352	0.074554	0.043573	-0.068321	0.102746	0.061222	0.05342	-0.0934497	0.0781608	-0.067373	0.006931	-0.0408302	0.016722	-0.0160617	0.069409	
1.92108	0	0	-0.0564355	0.164382	-0.0390625	0.263313	-0.0364345	0.133111	0.0806325	0.198686	0.0082075	0.082409	0.090074	0.0872425	0.056749	0.151173	0.0872315	0.0568775	0.0481845	0.0771085	0.074554	0.043573	-0.062482	0.101296	0.061222	0.05342	-0.0920925	0.0743255	-0.067373	0.006931	-0.0516335	0.023781	-0.0152135	0.067012	
1.9165	0	0	-0.0508417	0.172937	-0.0388857	0.27601	-0.0338377	0.137367	0.0900528	0.201769	0.0125262	0.08169	0.085938	0.0989317	0.0621275	0.150164	0.0958688	0.0512338	0.0472738	0.0796817	0.074554	0.043573	-0.056643	0.0998455	0.061222	0.05342	-0.0907353	0.0704903	-0.067373	0.006931	-0.0624367	0.03084	-0.0143652	0.064615	
1.9165	0	0	-0.045248	0.181491	-0.038709	0.288706	-0.031241	0.141622	0.099473	0.204852	0.016845	0.080971	0.081802	0.110621	0.067506	0.149155	0.104506	0.04559	0.046363	0.082255	0.074554	0.043573	-0.050804	0.098395	0.061222	0.05342	-0.089378	0.066655	-0.067373	0.006931	-0.07324	0.037899	-0.013517	0.062218	
1.91803	0	0	-0.042437	0.173547	-0.0424225	0.286005	-0.0294145	0.13646	0.0940523	0.205313	0.0144615	0.076221	0.0838707	0.104774	0.0655842	0.140395	0.0976188	0.0462875	0.0405135	0.0860772	0.074554	0.043573	-0.05882	0.105998	0.061222	0.05342	-0.093451	0.078166	-0.069959	0.0142393	-0.0640737	0.035466	-0.0186098	0.0766105	
1.91498	0	0	-0.039626	0.165603	-0.046136	0.283304	-0.027588	0.131298	0.0886315	0.205774	0.012078	0.071471	0.0859395	0.098928	0.0636625	0.131634	0.0907315	0.046985	0.034664	0.0898995	0.074554	0.043573	-0.066836	0.113601	0.061222	0.05342	-0.097524	0.089677	-0.072545	0.0215475	-0.0549075	0.033033	-0.0237025	0.091003	
1.91192	0	0	-0.036815	0.157659	-0.0498495	0.280603	-0.0257615	0.126135	0.0832107	0.206236	0.0096945	0.066721	0.0880083	0.0930815	0.0617407	0.122874	0.0838442	0.0476825	0.0288145	0.0937218	0.074554	0.043573	-0.074852	0.121205	0.061222	0.05342	-0.101597	0.101188	-0.075131	0.0288557	-0.0457413	0.0306	-0.0287953	0.105396	
1.91345	0	0	-0.034004	0.149715	-0.053563	0.277902	-0.023935	0.120973	0.07779	0.206697	0.007311	0.061971	0.090077	0.087235	0.059819	0.114114	0.076957	0.04838	0.022965	0.097544	0.074554	0.043573	-0.082868	0.128808	0.061222	0.05342	-0.10567	0.112699	-0.077717	0.036164	-0.036575	0.028167	-0.033888	0.119788	
1.90887	0	0	-0.0302655	0.151343	-0.0547427	0.281236	-0.0204223	0.122646	0.0832107	0.206236	0.00537575	0.06744	0.0880083	0.0930815	0.0609705	0.11086	0.076957	0.04838	0.022965	0.097544	0.0761065	0.0391855	-0.0817792	0.125731	0.061222	0.05342	-0.10567	0.112699	-0.077717	0.036164	-0.036575	0.028167	-0.0275818	0.111977	
1.90582	0	0	-0.026527	0.152971	-0.0559225	0.28457	-0.0169095	0.124319	0.0886315	0.205774	0.0034405	0.072909	0.0859395	0.098928	0.062122	0.107606	0.076957	0.04838	0.022965	0.097544	0.077659	0.034798	-0.0806905	0.122654	0.061222	0.05342	-0.10567	0.112699	-0.077717	0.036164	-0.036575	0.028167	-0.0212755	0.104166	
1.90277	0	0	-0.0227885	0.1546	-0.0571023	0.287904	-0.0133968	0.125993	0.0940523	0.205313	0.00150525	0.078378	0.0838707	0.104774	0.0632735	0.104352	0.076957	0.04838	0.022965	0.097544	0.0792115	0.0304105	-0.0796017	0.119577	0.061222	0.05342	-0.10567	0.112699	-0.077717	0.036164	-0.036575	0.028167	-0.0149692	0.0963558	
1.90124	0	0	-0.01905	0.156228	-0.058282	0.291238	-0.009884	0.127666	0.099473	0.204852	-0.00043	0.083847	0.081802	0.110621	0.064425	0.101098	0.076957	0.04838	0.022965	0.097544	0.080764	0.026023	-0.078513	0.1165	0.061222	0.05342	-0.10567	0.112699	-0.077717	0.036164	-0.036575	0.028167	-0.008663	0.088545	
1.90277	0	0	-0.0227885	0.1546	-0.0631712	0.29187	-0.01431	0.128574	0.0926343	0.209321	-0.00333475	0.0920565	0.0876457	0.115801	0.0621217	0.107607	0.076957	0.04838	0.02517	0.104022	0.0776585	0.0348	-0.0817802	0.125734	0.0570777	0.0651323	-0.100004	0.114903	-0.075008	0.0428303	-0.0398513	0.0374263	-0.0045385	0.0969268	
1.90124	0	0	-0.026527	0.152971	-0.0680605	0.292501	-0.018736	0.129481	0.0857955	0.21379	-0.0062395	0.100266	0.0934895	0.120981	0.0598185	0.114116	0.076957	0.04838	0.027375	0.110501	0.074553	0.043577	-0.0850475	0.134967	0.0529335	0.0768445	-0.094339	0.117107	-0.072299	0.0494965	-0.0431275	0.0466855	-0.000414	0.105308	
1.90277	0	0	-0.0302655	0.151343	-0.0729498	0.293133	-0.023162	0.130388	0.0789568	0.218258	-0.00914425	0.108476	0.0993333	0.126161	0.0575152	0.120626	0.076957	0.04838	0.02958	0.116979	0.0714475	0.052354	-0.0883147	0.144201	0.0487892	0.0885567	-0.0886735	0.119311	-0.06959	0.0561627	-0.0464038	0.0559448	0.0037105	0.11369	
1.89972	0	0	-0.034004	0.149715	-0.077839	0.293764	-0.027588	0.131296	0.072118	0.222727	-0.012049	0.116685	0.105177	0.131341	0.055212	0.127135	0.076957	0.04838	0.031785	0.123457	0.068342	0.061131	-0.091582	0.153435	0.044645	0.100269	-0.083008	0.121515	-0.066881	0.062829	-0.04968	0.065204	0.007835	0.122072	
1.89667	0	0	-0.034004	0.149715	-0.0729498	0.293133	-0.0266748	0.128715	0.077538	0.222268	-0.00676225	0.11323	0.105177	0.131341	0.055212	0.127135	0.075207	0.0533262	0.0326965	0.120881	0.068342	0.061131	-0.0904925	0.150356	0.044645	0.100269	-0.0816485	0.117673	-0.066881	0.062829	-0.0480413	0.0605732	0.002012	0.11849	
1.89972	0	0	-0.034004	0.149715	-0.0680605	0.292501	-0.0257615	0.126134	0.082958	0.221808	-0.0014755	0.109776	0.105177	0.131341	0.055212	0.127135	0.073457	0.0582725	0.033608	0.118305	0.068342	0.061131	-0.089403	0.147277	0.044645	0.100269	-0.080289	0.113831	-0.066881	0.062829	-0.0464025	0.0559425	-0.003811	0.114908	
1.89514	0	0	-0.034004	0.149715	-0.0631712	0.29187	-0.0248483	0.123554	0.088378	0.221349	0.00381125	0.106321	0.105177	0.131341	0.055212	0.127135	0.071707	0.0632188	0.0345195	0.115728	0.068342	0.061131	-0.0883135	0.144198	0.044645	0.100269	-0.0789295	0.109989	-0.066881	0.062829	-0.0447637	0.0513118	-0.009634	0.111327	
1.89361	0	0	-0.034004	0.149715	-0.058282	0.291238	-0.023935	0.120973	0.093798	0.220889	0.009098	0.102867	0.105177	0.131341	0.055212	0.127135	0.069957	0.068165	0.035431	0.113152	0.068342	0.061131	-0.087224	0.141119	0.044645	0.100269	-0.07757	0.106147	-0.066881	0.062829	-0.043125	0.046681	-0.015457	0.107745	
1.89972	0	0	-0.0377525	0.160309	-0.0606427	0.29791	-0.0257615	0.126135	0.0895385	0.232928	0.0061905	0.111084	0.113101	0.130667	0.0582855	0.13264	0.069957	0.068165	0.0412845	0.109327	0.066788	0.0655228	-0.0802968	0.136593	0.0536823	0.0988705	-0.07757	0.106147	-0.0615797	0.0621795	-0.043125	0.046681	-0.010847	0.104733	
1.89361	0	0	-0.041501	0.170903	-0.0630035	0.304582	-0.027588	0.131298	0.085279	0.244966	0.003283	0.119301	0.121026	0.129993	0.061359	0.138145	0.069957	0.068165	0.047138	0.105502	0.065234	0.0699145	-0.0733695	0.132067	0.0627195	0.097472	-0.07757	0.106147	-0.0562785	0.06153	-0.043125	0.046681	-0.006237	0.10172	
1.89361	0	0	-0.0452495	0.181496	-0.0653642	0.311255	-0.0294145	0.13646	0.0810195	0.257004	0.0003755	0.127518	0.12895	0.129318	0.0644325	0.14365	0.069957	0.068165	0.0529915	0.101678	0.06368	0.0743063	-0.0664422	0.12754	0.0717568	0.0960735	-0.07757	0.106147	-0.0509773	0.0608805	-0.043125	0.046681	-0.001627	0.0987082	
1.88904	0	0	-0.048998	0.19209	-0.067725	0.317927	-0.031241	0.141622	0.07676	0.269043	-0.002532	0.135735	0.136874	0.128644	0.067506	0.149155	0.069957	0.068165	0.058845	0.097853	0.062126	0.078698	-0.059515	0.123014	0.080794	0.094675	-0.07757	0.106147	-0.045676	0.060231	-0.043125	0.046681	0.002983	0.095696	
1.88904	0	0	-0.0471232	0.186791	-0.067725	0.317927	-0.0347505	0.139947	0.082183	0.268587	-0.00491125	0.130972	0.136874	0.128644	0.0590577	0.144659	0.069957	0.068165	0.052606	0.090058	0.065233	0.0699167	-0.0620882	0.115235	0.0717568	0.0960735	-0.084595	0.107785	-0.0509773	0.0608805	-0.0414875	0.0420525	-0.00199025	0.0897235	
1.89056	0	0	-0.0452485	0.181493	-0.067725	0.317927	-0.03826	0.138271	0.087606	0.268131	-0.0072905	0.12621	0.136874	0.128644	0.0506095	0.140163	0.069957	0.068165	0.046367	0.082263	0.06834	0.0611355	-0.0646615	0.107456	0.0627195	0.097472	-0.09162	0.109423	-0.0562785	0.06153	-0.03985	0.037424	-0.0069635	0.083751	
1.89361	0	0	-0.0433738	0.176195	-0.067725	0.317927	-0.0417695	0.136596	0.093029	0.267676	-0.00966975	0.121447	0.136874	0.128644	0.0421612	0.135668	0.069957	0.068165	0.040128	0.074468	0.071447	0.0523543	-0.0672347	0.099677	0.0536823	0.0988705	-0.098645	0.111061	-0.0615797	0.0621795	-0.0382125	0.0327955	-0.0119368	0.0777785	
1.88904	0	0	-0.041499	0.170896	-0.067725	0.317927	-0.045279	0.13492	0.098452	0.26722	-0.012049	0.116685	0.136874	0.128644	0.033713	0.131172	0.069957	0.068165	0.033889	0.066673	0.074554	0.043573	-0.069808	0.091898	0.044645	0.100269	-0.10567	0.112699	-0.066881	0.062829	-0.036575	0.028167	-0.01691	0.071806	
1.88904	0	0	-0.0377618	0.172528	-0.068906	0.321265	-0.039943	0.131433	0.0956077	0.275259	-0.0110805	0.113947	0.126877	0.135176	0.0402395	0.126908	0.069957	0.068165	0.035708	0.0615317	0.074554	0.043573	-0.0687202	0.0888242	0.0557565	0.0930088	-0.104312	0.10886	-0.0615797	0.0621795	-0.034938	0.023541	-0.0189713	0.0676257	
1.88751	0	0	-0.0340245	0.174159	-0.070087	0.324603	-0.034607	0.127947	0.0927635	0.283297	-0.010112	0.11121	0.11688	0.141709	0.046766	0.122643	0.069957	0.068165	0.037527	0.0563905	0.074554	0.043573	-0.0676325	0.0857505	0.066868	0.0857485	-0.102954	0.105021	-0.0562785	0.06153	-0.033301	0.018915	-0.0210325	0.0634455	
1.88751	0	0	-0.0302873	0.17579	-0.071268	0.32794	-0.029271	0.12446	0.0899193	0.291335	-0.0091435	0.108472	0.106883	0.148241	0.0532925	0.118378	0.069957	0.068165	0.039346	0.0512493	0.074554	0.043573	-0.0665447	0.0826767	0.0779795	0.0784882	-0.101595	0.101183	-0.0509773	0.0608805	-0.031664	0.014289	-0.0230937	0.0592652	
1.88751	0	0	-0.02655	0.177422	-0.072449	0.331278	-0.023935	0.120973	0.087075	0.299374	-0.008175	0.105735	0.096886	0.154773	0.059819	0.114114	0.069957	0.068165	0.041165	0.046108	0.074554	0.043573	-0.065457	0.079603	0.089091	0.071228	-0.100237	0.097344	-0.045676	0.060231	-0.030027	0.009663	-0.025155	0.055085	
1.88751	0	0	-0.027477	0.167849	-0.0689073	0.321268	-0.030042	0.115052	0.083075	0.295808	-0.011967	0.0934997	0.0910448	0.149585	0.054822	0.0998867	0.0734563	0.0582753	0.032205	0.046038	0.074554	0.043573	-0.0702047	0.0779817	0.0779795	0.0784882	-0.101595	0.101183	-0.0535685	0.0682037	-0.031664	0.014289	-0.0323015	0.065282	
1.88904	0	0	-0.028404	0.158276	-0.0653655	0.311258	-0.036149	0.109131	0.079075	0.292241	-0.015759	0.0812645	0.0852035	0.144398	0.049825	0.0856595	0.0769555	0.0483855	0.023245	0.045968	0.074554	0.043573	-0.0749525	0.0763605	0.066868	0.0857485	-0.102954	0.105021	-0.061461	0.0761765	-0.033301	0.018915	-0.039448	0.075479	
1.88293	0	0	-0.029331	0.148702	-0.0618237	0.301248	-0.042256	0.10321	0.075075	0.288675	-0.019551	0.0690293	0.0793622	0.13921	0.044828	0.0714323	0.0804548	0.0384958	0.014285	0.045898	0.074554	0.043573	-0.0797003	0.0747393	0.0557565	0.0930088	-0.104312	0.10886	-0.0693535	0.0841492	-0.034938	0.023541	-0.0465945	0.085676	
1.88446	0	0	-0.030258	0.139129	-0.058282	0.291238	-0.048363	0.097289	0.071075	0.285109	-0.023343	0.056794	0.073521	0.134022	0.039831	0.057205	0.083954	0.028606	0.005325	0.045828	0.074554	0.043573	-0.084448	0.073118	0.044645	0.100269	-0.10567	0.112699	-0.077246	0.092122	-0.036575	0.028167	-0.053741	0.095873	
1.88599	0	0	-0.028386	0.133838	-0.0631712	0.29187	-0.0509585	0.0930447	0.071075	0.285109	-0.0276537	0.0575112	0.0755912	0.128172	0.034463	0.0582172	0.0735762	0.0391875	0.002212	0.0419425	0.0761065	0.0391855	-0.0891915	0.071497	0.044645	0.100269	-0.112687	0.114333	-0.077246	0.092122	-0.0457413	0.0306	-0.0520448	0.0910793	
1.87988	0	0	-0.026514	0.128548	-0.0680605	0.292501	-0.053554	0.0888005	0.071075	0.285109	-0.0319645	0.0582285	0.0776615	0.122321	0.029095	0.0592295	0.0631985	0.049769	-0.000901	0.038057	0.077659	0.034798	-0.093935	0.069876	0.044645	0.100269	-0.119705	0.115967	-0.077246	0.092122	-0.0549075	0.033033	-0.0503485	0.0862855	
1.88293	0	0	-0.024642	0.123257	-0.0729498	0.293133	-0.0561495	0.0845562	0.071075	0.285109	-0.0362752	0.0589457	0.0797318	0.116471	0.023727	0.0602418	0.0528207	0.0603505	-0.004014	0.0341715	0.0792115	0.0304105	-0.0986785	0.068255	0.044645	0.100269	-0.126722	0.117601	-0.077246	0.092122	-0.0640737	0.035466	-0.0486522	0.0814918	
1.88293	0	0	-0.02277	0.117966	-0.077839	0.293764	-0.058745	0.080312	0.071075	0.285109	-0.040586	0.059663	0.081802	0.110621	0.018359	0.061254	0.042443	0.070932	-0.007127	0.030286	0.080764	0.026023	-0.103422	0.066634	0.044645	0.100269	-0.13374	0.119235	-0.077246	0.092122	-0.07324	0.037899	-0.046956	0.076698	
1.88446	0	0	-0.0283737	0.10944	-0.0780115	0.281075	-0.0639332	0.0718372	0.0684977	0.277534	-0.0472682	0.0556388	0.0738967	0.111292	0.00878375	0.0600303	0.0441923	0.0659885	-0.0147767	0.0392303	0.0710745	0.0357275	-0.111419	0.074219	0.042571	0.106131	-0.128081	0.121441	-0.0745403	0.0988075	-0.0765147	0.0471535	-0.0465955	0.0856795	
1.88293	0	0	-0.0339775	0.100914	-0.078184	0.268385	-0.0691215	0.0633625	0.0659205	0.269958	-0.0539505	0.0516145	0.0659915	0.111962	-0.0007915	0.0588065	0.0459415	0.061045	-0.0224265	0.0481745	0.061385	0.045432	-0.119415	0.081804	0.040497	0.111993	-0.122423	0.123647	-0.0718345	0.105493	-0.0797895	0.056408	-0.046235	0.094661	
1.88446	0	0	-0.0395812	0.0923873	-0.0783565	0.255696	-0.0743097	0.0548877	0.0633433	0.262383	-0.0606327	0.0475903	0.0580863	0.112632	-0.0103668	0.0575828	0.0476907	0.0561015	-0.0300762	0.0571187	0.0516955	0.0551365	-0.127412	0.089389	0.038423	0.117855	-0.116764	0.125854	-0.0691287	0.112179	-0.0830643	0.0656625	-0.0458745	0.103642	
1.88293	0	0	-0.045185	0.083861	-0.078529	0.243006	-0.079498	0.046413	0.060766	0.254808	-0.067315	0.043566	0.050181	0.113303	-0.019942	0.056359	0.04944	0.051158	-0.037726	0.066063	0.042006	0.064841	-0.135408	0.096974	0.036349	0.123717	-0.111106	0.12806	-0.066423	0.118864	-0.086339	0.074917	-0.045514	0.112624	
1.88293	0	0	-0.0433175	0.078583	-0.0773517	0.239679	-0.0767712	0.0387065	0.0621852	0.250797	-0.0716175	0.0442813	0.0522485	0.10746	-0.019942	0.056359	0.04944	0.051158	-0.0350022	0.0583655	0.0435585	0.0604535	-0.134322	0.0939045	0.038423	0.117855	-0.116764	0.125854	-0.066423	0.118864	-0.073898	0.0632295	-0.0475707	0.108436	
1.88599	0	0	-0.04145	0.073305	-0.0761745	0.236353	-0.0740445	0.031	0.0636045	0.246786	-0.07592	0.0449965	0.054316	0.101617	-0.019942	0.056359	0.04944	0.051158	-0.0322785	0.050668	0.045111	0.056066	-0.133236	0.090835	0.040497	0.111993	-0.122423	0.123647	-0.066423	0.118864	-0.061457	0.051542	-0.0496275	0.104248	
1.88293	0	0	-0.0395825	0.068027	-0.0749973	0.233026	-0.0713177	0.0232935	0.0650238	0.242775	-0.0802225	0.0457118	0.0563835	0.0957747	-0.019942	0.056359	0.04944	0.051158	-0.0295548	0.0429705	0.0466635	0.0516785	-0.13215	0.0877655	0.042571	0.106131	-0.128081	0.121441	-0.066423	0.118864	-0.049016	0.0398545	-0.0516843	0.100061	
1.88446	0	0	-0.037715	0.062749	-0.07382	0.2297	-0.068591	0.015587	0.066443	0.238764	-0.084525	0.046427	0.058451	0.089932	-0.019942	0.056359	0.04944	0.051158	-0.026831	0.035273	0.048216	0.047291	-0.131064	0.084696	0.044645	0.100269	-0.13374	0.119235	-0.066423	0.118864	-0.036575	0.028167	-0.053741	0.095873	
1.88446	0	0	-0.047047	0.0647912	-0.0835837	0.230967	-0.0720937	0.013929	0.0542005	0.243681	-0.084525	0.046427	0.0484888	0.0964415	-0.027591	0.0638495	0.0476907	0.0561015	-0.0277387	0.037838	0.0466635	0.0516785	-0.131064	0.084696	0.042571	0.106131	-0.132382	0.115398	-0.067721	0.122532	-0.036575	0.028167	-0.043685	0.0874593	
1.88446	0	0	-0.056379	0.0668335	-0.0933475	0.232235	-0.0755965	0.012271	0.041958	0.248599	-0.084525	0.046427	0.0385265	0.102951	-0.03524	0.07134	0.0459415	0.061045	-0.0286465	0.040403	0.045111	0.056066	-0.131064	0.084696	0.040497	0.111993	-0.131024	0.111561	-0.069019	0.1262	-0.036575	0.028167	-0.033629	0.0790455	
1.88293	0	0	-0.065711	0.0688757	-0.103111	0.233502	-0.0790992	0.010613	0.0297155	0.253516	-0.084525	0.046427	0.0285642	0.109461	-0.042889	0.0788305	0.0441923	0.0659885	-0.0295543	0.042968	0.0435585	0.0604535	-0.131064	0.084696	0.038423	0.117855	-0.129667	0.107724	-0.070317	0.129869	-0.036575	0.028167	-0.023573	0.0706317	
1.88293	0	0	-0.075043	0.070918	-0.112875	0.234769	-0.082602	0.008955	0.017473	0.258433	-0.084525	0.046427	0.018602	0.11597	-0.050538	0.086321	0.042443	0.070932	-0.030462	0.045533	0.042006	0.064841	-0.131064	0.084696	0.036349	0.123717	-0.128309	0.103887	-0.071615	0.133537	-0.036575	0.028167	-0.013517	0.062218	
1.88293	0	0	-0.0722452	0.0630115	-0.109349	0.224804	-0.0842882	0.0021695	0.0203082	0.25042	-0.0868965	0.041692	0.0127823	0.110798	-0.0470975	0.076598	0.042443	0.070932	-0.031756	0.0365237	0.0435585	0.0604535	-0.128893	0.0785602	0.038423	0.117855	-0.125595	0.096218	-0.0690195	0.126202	-0.0424703	0.0213552	-0.0184872	0.0562585	
1.88293	0	0	-0.0694475	0.055105	-0.105822	0.214838	-0.0859745	-0.004616	0.0231435	0.242407	-0.089268	0.036957	0.0069625	0.105626	-0.043657	0.066875	0.042443	0.070932	-0.03305	0.0275145	0.045111	0.056066	-0.126722	0.0724245	0.040497	0.111993	-0.122882	0.088549	-0.066424	0.118867	-0.0483655	0.0145435	-0.0234575	0.050299	
1.88293	0	0	-0.0666498	0.0471985	-0.102296	0.204873	-0.0876607	-0.0114015	0.0259787	0.234394	-0.0916395	0.032222	0.00114275	0.100454	-0.0402165	0.057152	0.042443	0.070932	-0.034344	0.0185052	0.0466635	0.0516785	-0.12455	0.0662887	0.042571	0.106131	-0.120169	0.08088	-0.0638285	0.111532	-0.0542608	0.00773175	-0.0284277	0.0443395	
1.87988	0	0	-0.063852	0.039292	-0.09877	0.194908	-0.089347	-0.018187	0.028814	0.226381	-0.094011	0.027487	-0.004677	0.095282	-0.036776	0.047429	0.042443	0.070932	-0.035638	0.009496	0.048216	0.047291	-0.122379	0.060153	0.044645	0.100269	-0.117455	0.073211	-0.061233	0.104197	-0.060156	0.00092	-0.033398	0.03838	
1.87683	0	0	-0.0666498	0.0471985	-0.099945	0.198229	-0.0911615	-0.013059	0.0219915	0.230839	-0.0920843	0.0220417	-0.00261375	0.0894507	-0.0379225	0.050669	0.042443	0.070932	-0.035638	0.009496	0.048216	0.047291	-0.129284	0.0646647	0.046718	0.094411	-0.116099	0.069379	-0.061233	0.104197	-0.0585215	-0.003699	-0.0363047	0.0365998	
1.87988	0	0	-0.0694475	0.055105	-0.10112	0.201549	-0.092976	-0.007931	0.015169	0.235297	-0.0901575	0.0165965	-0.0005505	0.0836195	-0.039069	0.053909	0.042443	0.070932	-0.035638	0.009496	0.048216	0.047291	-0.136189	0.0691765	0.048791	0.088553	-0.114743	0.065547	-0.061233	0.104197	-0.056887	-0.008318	-0.0392115	0.0348195	
1.87836	0	0	-0.0722452	0.0630115	-0.102295	0.204869	-0.0947905	-0.002803	0.0083465	0.239754	-0.0882307	0.0111512	0.00151275	0.0777883	-0.0402155	0.057149	0.042443	0.070932	-0.035638	0.009496	0.048216	0.047291	-0.143094	0.0736883	0.050864	0.082695	-0.113387	0.061715	-0.061233	0.104197	-0.0552525	-0.012937	-0.0421183	0.0330392	
1.87836	0	0	-0.075043	0.070918	-0.10347	0.20819	-0.096605	0.002325	0.001524	0.244212	-0.086304	0.005706	0.003576	0.071957	-0.041362	0.060389	0.042443	0.070932	-0.035638	0.009496	0.048216	0.047291	-0.149999	0.0782	0.052937	0.076837	-0.112031	0.057883	-0.061233	0.104197	-0.053618	-0.017556	-0.045025	0.031259	
1.88141	0	0	-0.076907	0.0640325	-0.0999465	0.198232	-0.09829	-0.0044565	0.00435675	0.236206	-0.086753	-0.00445575	-0.0022405	0.0668002	-0.042131	0.0484465	0.0441923	0.0659885	-0.0409463	-0.00080825	0.0366175	0.0447605	-0.146745	0.0690043	0.0459815	0.0723835	-0.127403	0.0649822	-0.0665328	0.104842	-0.0519845	-0.0221725	-0.0487763	0.0318713	
1.87683	0	0	-0.078771	0.057147	-0.096423	0.188275	-0.099975	-0.011238	0.0071895	0.228201	-0.087202	-0.0146175	-0.008057	0.0616435	-0.0429	0.036504	0.0459415	0.061045	-0.0462545	-0.0111125	0.025019	0.04223	-0.143491	0.0598085	0.039026	0.06793	-0.142774	0.0720815	-0.0718325	0.105487	-0.050351	-0.026789	-0.0525275	0.0324835	
1.87378	0	0	-0.080635	0.0502615	-0.0928995	0.178317	-0.10166	-0.0180195	0.0100222	0.220195	-0.087651	-0.0247793	-0.0138735	0.0564868	-0.043669	0.0245615	0.0476907	0.0561015	-0.0515627	-0.0214167	0.0134205	0.0396995	-0.140238	0.0506128	0.0320705	0.0634765	-0.158145	0.0791807	-0.0771323	0.106132	-0.0487175	-0.0314055	-0.0562788	0.0330958	
1.87378	0	0	-0.082499	0.043376	-0.089376	0.168359	-0.103345	-0.024801	0.012855	0.212189	-0.0881	-0.034941	-0.01969	0.05133	-0.044438	0.012619	0.04944	0.051158	-0.056871	-0.031721	0.001822	0.037169	-0.136984	0.041417	0.025115	0.059023	-0.173517	0.08628	-0.082432	0.106777	-0.047084	-0.036022	-0.06003	0.033708	
1.87378	0	0	-0.083431	0.04601	-0.0942542	0.168996	-0.0989388	-0.0257105	0.00064175	0.217094	-0.092396	-0.034223	-0.0275582	0.051997	-0.0432935	0.00938525	0.04944	0.051158	-0.0550623	-0.036833	0.0114933	0.0274833	-0.141716	0.0398	0.0271837	0.0531765	-0.172162	0.0824513	-0.0877273	0.10742	-0.0578738	-0.0289717	-0.0637792	0.0343193	
1.8753	0	0	-0.084363	0.048644	-0.0991325	0.169634	-0.0945325	-0.02662	-0.0115715	0.221999	-0.096692	-0.033505	-0.0354265	0.052664	-0.042149	0.0061515	0.04944	0.051158	-0.0532535	-0.041945	0.0211645	0.0177975	-0.146448	0.038183	0.0292525	0.04733	-0.170808	0.0786225	-0.0930225	0.108064	-0.0686635	-0.0219215	-0.0675285	0.0349305	
1.87225	0	0	-0.085295	0.051278	-0.104011	0.170272	-0.0901263	-0.0275295	-0.0237848	0.226904	-0.100988	-0.032787	-0.0432947	0.053331	-0.0410045	0.00291775	0.04944	0.051158	-0.0514447	-0.047057	0.0308358	0.00811175	-0.15118	0.036566	0.0313213	0.0414835	-0.169453	0.0747937	-0.0983177	0.108707	-0.0794533	-0.0148713	-0.0712778	0.0355417	
1.8753	0	0	-0.086227	0.053912	-0.108889	0.170909	-0.08572	-0.028439	-0.035998	0.231809	-0.105284	-0.032069	-0.051163	0.053998	-0.03986	-0.000316	0.04944	0.051158	-0.049636	-0.052169	0.040507	-0.001574	-0.155912	0.034949	0.03339	0.035637	-0.168098	0.070965	-0.103613	0.10935	-0.090243	-0.007821	-0.075027	0.036153	
1.87225	0	0	-0.0908853	0.0427933	-0.112777	0.155626	-0.0865025	-0.037771	-0.0343248	0.212292	-0.108616	-0.034068	-0.0470485	0.0423697	-0.0494085	-0.0015305	0.0425685	0.0518495	-0.0572625	-0.0432555	0.0389575	0.00280475	-0.158079	0.0410742	0.03339	0.035637	-0.163805	0.076994	-0.107504	0.120346	-0.0843563	-0.0010145	-0.0746648	0.0451138	
1.87225	0	0	-0.0955435	0.0316745	-0.116665	0.140343	-0.087285	-0.047103	-0.0326515	0.192775	-0.111949	-0.036067	-0.042934	0.0307415	-0.058957	-0.002745	0.035697	0.052541	-0.064889	-0.034342	0.037408	0.0071835	-0.160247	0.0471995	0.03339	0.035637	-0.159512	0.083023	-0.111395	0.131342	-0.0784695	0.005792	-0.0743025	0.0540745	
1.87378	0	0	-0.100202	0.0205557	-0.120552	0.12506	-0.0880675	-0.056435	-0.0309783	0.173259	-0.115281	-0.038066	-0.0388195	0.0191132	-0.0685055	-0.0039595	0.0288255	0.0532325	-0.0725155	-0.0254285	0.0358585	0.0115622	-0.162414	0.0533248	0.03339	0.035637	-0.155218	0.089052	-0.115285	0.142338	-0.0725828	0.0125985	-0.0739402	0.0630353	
1.87378	0	0	-0.10486	0.009437	-0.12444	0.109777	-0.08885	-0.065767	-0.029305	0.153742	-0.118613	-0.040065	-0.034705	0.007485	-0.078054	-0.005174	0.021954	0.053924	-0.080142	-0.016515	0.034309	0.015941	-0.164581	0.05945	0.03339	0.035637	-0.150925	0.095081	-0.119176	0.153334	-0.066696	0.019405	-0.073578	0.071996	
1.87225	0	0	-0.103	0.00418075	-0.1221	0.103164	-0.0879445	-0.0683255	-0.027894	0.149754	-0.117652	-0.0427798	-0.044621	0.0139643	-0.0769113	-0.00840325	0.021954	0.053924	-0.0792375	-0.0190712	0.0277367	0.0168693	-0.170391	0.0608915	0.0223073	0.0428785	-0.149569	0.091249	-0.117878	0.149667	-0.065061	0.0147837	-0.0764792	0.0702115	
1.8753	0	0	-0.10114	-0.0010755	-0.11976	0.0965515	-0.087039	-0.070884	-0.026483	0.145766	-0.116692	-0.0454945	-0.054537	0.0204435	-0.0757685	-0.0116325	0.021954	0.053924	-0.078333	-0.0216275	0.0211645	0.0177975	-0.176201	0.062333	0.0112245	0.05012	-0.148213	0.087417	-0.116581	0.146001	-0.063426	0.0101625	-0.0793805	0.068427	
1.8753	0	0	-0.09928	-0.00633175	-0.11742	0.0899387	-0.0861335	-0.0734425	-0.025072	0.141779	-0.115731	-0.0482092	-0.064453	0.0269228	-0.0746258	-0.0148617	0.021954	0.053924	-0.0774285	-0.0241838	0.0145923	0.0187257	-0.182011	0.0637745	0.00014175	0.0573615	-0.146857	0.083585	-0.115284	0.142334	-0.061791	0.00554125	-0.0822818	0.0666425	
1.87073	0	0	-0.09742	-0.011588	-0.11508	0.083326	-0.085228	-0.076001	-0.023661	0.137791	-0.11477	-0.050924	-0.074369	0.033402	-0.073483	-0.018091	0.021954	0.053924	-0.076524	-0.02674	0.00802	0.019654	-0.187821	0.065216	-0.010941	0.064603	-0.145501	0.079753	-0.113986	0.138667	-0.060156	0.00092	-0.085183	0.064858	
1.87225	0	0	-0.0964905	-0.014215	-0.11995	0.0839675	-0.0896327	-0.0750895	-0.030462	0.142235	-0.115731	-0.0482092	-0.074369	0.033402	-0.0757688	-0.0116312	0.021954	0.053924	-0.0792385	-0.019069	0.0064705	0.0240328	-0.18418	0.069904	-0.010941	0.064603	-0.148213	0.0874188	-0.10999	0.141695	-0.0667018	0.0194192	-0.0793787	0.068428	
1.87225	0	0	-0.095561	-0.016842	-0.124819	0.084609	-0.0940375	-0.074178	-0.037263	0.146678	-0.116692	-0.0454945	-0.074369	0.033402	-0.0780545	-0.0051715	0.021954	0.053924	-0.081953	-0.011398	0.004921	0.0284115	-0.180539	0.074592	-0.010941	0.064603	-0.150926	0.0950845	-0.105994	0.144723	-0.0732475	0.0379185	-0.0735745	0.071998	
1.87225	0	0	-0.0946315	-0.019469	-0.129689	0.0852505	-0.0984422	-0.0732665	-0.044064	0.151122	-0.117652	-0.0427798	-0.074369	0.033402	-0.0803403	0.00128825	0.021954	0.053924	-0.0846675	-0.003727	0.0033715	0.0327902	-0.176898	0.07928	-0.010941	0.064603	-0.153638	0.10275	-0.101998	0.147751	-0.0797932	0.0564177	-0.0677703	0.075568	
1.87225	0	0	-0.093702	-0.022096	-0.134559	0.085892	-0.102847	-0.072355	-0.050865	0.155566	-0.118613	-0.040065	-0.074369	0.033402	-0.082626	0.007748	0.021954	0.053924	-0.087382	0.003944	0.001822	0.037169	-0.173257	0.083968	-0.010941	0.064603	-0.156351	0.110416	-0.098002	0.150779	-0.086339	0.074917	-0.061966	0.079138	
1.86767	0	0	-0.0983557	-0.0210745	-0.129689	0.0852505	-0.101942	-0.074912	-0.050865	0.155566	-0.116692	-0.0454937	-0.074369	0.033402	-0.0803403	0.00128825	0.0288255	0.0532325	-0.085572	-0.00117075	0.0033715	0.0327902	-0.171088	0.0778385	-0.010941	0.064603	-0.153638	0.10275	-0.096704	0.147111	-0.0847013	0.0702887	-0.0677703	0.075568	
1.86615	0	0	-0.10301	-0.020053	-0.124819	0.084609	-0.101038	-0.077469	-0.050865	0.155566	-0.114771	-0.0509225	-0.074369	0.033402	-0.0780545	-0.0051715	0.035697	0.052541	-0.083762	-0.0062855	0.004921	0.0284115	-0.168919	0.071709	-0.010941	0.064603	-0.150926	0.0950845	-0.095406	0.143443	-0.0830635	0.0656605	-0.0735745	0.071998	
1.86615	0	0	-0.107663	-0.0190315	-0.11995	0.0839675	-0.100133	-0.080026	-0.050865	0.155566	-0.11285	-0.0563513	-0.074369	0.033402	-0.0757688	-0.0116313	0.0425685	0.0518495	-0.081952	-0.0114002	0.0064705	0.0240328	-0.16675	0.0655795	-0.010941	0.064603	-0.148213	0.0874188	-0.094108	0.139774	-0.0814257	0.0610323	-0.0793787	0.068428	
1.86462	0	0	-0.112317	-0.01801	-0.11508	0.083326	-0.099228	-0.082583	-0.050865	0.155566	-0.110929	-0.06178	-0.074369	0.033402	-0.073483	-0.018091	0.04944	0.051158	-0.080142	-0.016515	0.00802	0.019654	-0.164581	0.05945	-0.010941	0.064603	-0.145501	0.079753	-0.09281	0.136106	-0.079788	0.056404	-0.085183	0.064858	
1.8631	0	0	-0.114176	-0.0127565	-0.111377	0.08599	-0.101038	-0.0774683	-0.045475	0.15511	-0.11522	-0.0610622	-0.074369	0.033402	-0.0746258	-0.0148617	0.04944	0.051158	-0.080142	-0.016515	0.00802	0.019654	-0.165665	0.0625143	-0.010941	0.064603	-0.145501	0.079753	-0.0994015	0.140413	-0.0689847	0.0493447	-0.085183	0.064858	
1.86462	0	0	-0.116034	-0.007503	-0.107673	0.088654	-0.102848	-0.0723535	-0.040085	0.154654	-0.119511	-0.0603445	-0.074369	0.033402	-0.0757685	-0.0116325	0.04944	0.051158	-0.080142	-0.016515	0.00802	0.019654	-0.166749	0.0655785	-0.010941	0.064603	-0.145501	0.079753	-0.105993	0.14472	-0.0581815	0.0422855	-0.085183	0.064858	
1.8631	0	0	-0.117893	-0.0022495	-0.103969	0.091318	-0.104657	-0.0672387	-0.034695	0.154198	-0.123802	-0.0596268	-0.074369	0.033402	-0.0769113	-0.00840325	0.04944	0.051158	-0.080142	-0.016515	0.00802	0.019654	-0.167834	0.0686428	-0.010941	0.064603	-0.145501	0.079753	-0.112585	0.149027	-0.0473783	0.0352263	-0.085183	0.064858	
1.86157	0	0	-0.119752	0.003004	-0.100266	0.093982	-0.106467	-0.062124	-0.029305	0.153742	-0.128093	-0.058909	-0.074369	0.033402	-0.078054	-0.005174	0.04944	0.051158	-0.080142	-0.016515	0.00802	0.019654	-0.168918	0.071707	-0.010941	0.064603	-0.145501	0.079753	-0.119176	0.153334	-0.036575	0.028167	-0.085183	0.064858	
1.85852	0	0	-0.122543	-0.00122925	-0.099096	0.090675	-0.109059	-0.0663277	-0.034695	0.154198	-0.127587	-0.0717418	-0.0781118	0.0224598	-0.0788268	-0.0170732	0.0529355	0.041279	-0.0805325	-0.0280432	0.0111165	0.0109028	-0.171477	0.063961	-0.00680775	0.0529215	-0.155216	0.0890473	-0.117878	0.149667	-0.0398513	0.0374263	-0.0880828	0.0630742	
1.86157	0	0	-0.125335	-0.0054625	-0.097926	0.087368	-0.111651	-0.0705315	-0.040085	0.154654	-0.127081	-0.0845745	-0.0818545	0.0115175	-0.0795995	-0.0289725	0.056431	0.0314	-0.080923	-0.0395715	0.014213	0.0021515	-0.174037	0.056215	-0.0026745	0.04124	-0.164932	0.0983415	-0.116581	0.146001	-0.0431275	0.0466855	-0.0909825	0.0612905	
1.86005	0	0	-0.128126	-0.00969575	-0.096756	0.084061	-0.114243	-0.0747353	-0.045475	0.15511	-0.126574	-0.0974073	-0.0855972	0.00057525	-0.0803722	-0.0408717	0.0599265	0.021521	-0.0813135	-0.0510997	0.0173095	-0.00659975	-0.176596	0.048469	0.00145875	0.0295585	-0.174647	0.107636	-0.115284	0.142334	-0.0464038	0.0559448	-0.0938823	0.0595067	
1.86157	0	0	-0.130917	-0.013929	-0.095586	0.080754	-0.116835	-0.078939	-0.050865	0.155566	-0.126068	-0.11024	-0.08934	-0.010367	-0.081145	-0.052771	0.063422	0.011642	-0.081704	-0.062628	0.020406	-0.015351	-0.179155	0.040723	0.005592	0.017877	-0.184362	0.11693	-0.113986	0.138667	-0.04968	0.065204	-0.096782	0.057723	
1.86005	0	0	-0.126267	-0.0149493	-0.0869982	0.0827725	-0.112433	-0.07985	-0.045475	0.15511	-0.129397	-0.112227	-0.0872887	-0.0161642	-0.0800045	-0.0559945	0.0616748	0.01658	-0.080801	-0.06518	0.020406	-0.015351	-0.178072	0.037663	0.005592	0.017877	-0.174647	0.107636	-0.120573	0.142971	-0.0513193	0.0698373	-0.096782	0.057723	
1.85852	0	0	-0.121617	-0.0159695	-0.0784105	0.084791	-0.108032	-0.080761	-0.040085	0.154654	-0.132726	-0.114214	-0.0852375	-0.0219615	-0.078864	-0.059218	0.0599275	0.021518	-0.079898	-0.067732	0.020406	-0.015351	-0.17699	0.034603	0.005592	0.017877	-0.164932	0.0983415	-0.12716	0.147275	-0.0529585	0.0744705	-0.096782	0.057723	
1.85852	0	0	-0.116967	-0.0169898	-0.0698228	0.0868095	-0.10363	-0.081672	-0.034695	0.154198	-0.136055	-0.116202	-0.0831863	-0.0277587	-0.0777235	-0.0624415	0.0581803	0.026456	-0.078995	-0.070284	0.020406	-0.015351	-0.175907	0.031543	0.005592	0.017877	-0.155216	0.0890473	-0.133746	0.151578	-0.0545978	0.0791038	-0.096782	0.057723	
1.85852	0	0	-0.112317	-0.01801	-0.061235	0.088828	-0.099228	-0.082583	-0.029305	0.153742	-0.139384	-0.118189	-0.081135	-0.033556	-0.076583	-0.065665	0.056433	0.031394	-0.078092	-0.072836	0.020406	-0.015351	-0.174824	0.028483	0.005592	0.017877	-0.145501	0.079753	-0.140333	0.155882	-0.056237	0.083737	-0.096782	0.057723	
1.86157	0	0	-0.112326	-0.0301058	-0.0577232	0.0789035	-0.104414	-0.0909777	-0.0196775	0.141321	-0.146036	-0.12216	-0.0889782	-0.032885	-0.0872525	-0.063647	0.0581803	0.026456	-0.0817055	-0.0626238	0.018858	-0.0109765	-0.17699	0.034604	-0.00547625	0.0251092	-0.150928	0.095091	-0.136342	0.158913	-0.0519862	0.095226	-0.0989668	0.073876	
1.86005	0	0	-0.112336	-0.0422015	-0.0542115	0.068979	-0.1096	-0.0993725	-0.01005	0.1289	-0.152688	-0.126131	-0.0968215	-0.032214	-0.097922	-0.061629	0.0599275	0.021518	-0.085319	-0.0524115	0.01731	-0.006602	-0.179156	0.040725	-0.0165445	0.0323415	-0.156355	0.110429	-0.132351	0.161945	-0.0477355	0.106715	-0.101152	0.090029	
1.85699	0	0	-0.112345	-0.0542972	-0.0506998	0.0590545	-0.114786	-0.107767	-0.0004225	0.116479	-0.159339	-0.130101	-0.104665	-0.031543	-0.108592	-0.059611	0.0616748	0.01658	-0.0889325	-0.0421993	0.015762	-0.0022275	-0.181321	0.046846	-0.0276127	0.0395738	-0.161783	0.125767	-0.128359	0.164976	-0.0434848	0.118204	-0.103336	0.106182	
1.85547	0	0	-0.112354	-0.066393	-0.047188	0.04913	-0.119972	-0.116162	0.009205	0.104058	-0.165991	-0.134072	-0.112508	-0.030872	-0.119261	-0.057593	0.063422	0.011642	-0.092546	-0.031987	0.014214	0.002147	-0.183487	0.052967	-0.038681	0.046806	-0.16721	0.141105	-0.124368	0.168008	-0.039234	0.129693	-0.105521	0.122335	
1.86005	0	0	-0.111426	-0.0690137	-0.0495287	0.0557453	-0.119972	-0.116162	0.00239875	0.108505	-0.169314	-0.136055	-0.11046	-0.0366615	-0.118122	-0.060813	0.0565485	0.012339	-0.0916423	-0.0345413	0.015762	-0.0022275	-0.182404	0.049906	-0.038681	0.046806	-0.165852	0.137268	-0.129657	0.168644	-0.0408777	0.134338	-0.103825	0.117543	
1.85394	0	0	-0.110499	-0.0716345	-0.0518695	0.0623605	-0.119972	-0.116162	-0.0044075	0.112952	-0.172637	-0.138039	-0.108411	-0.042451	-0.116982	-0.064033	0.049675	0.013036	-0.0907385	-0.0370955	0.01731	-0.006602	-0.181321	0.046845	-0.038681	0.046806	-0.164494	0.133431	-0.134945	0.169279	-0.0425215	0.138984	-0.10213	0.112751	
1.85394	0	0	-0.109572	-0.0742552	-0.0542103	0.0689758	-0.119972	-0.116162	-0.0112137	0.1174	-0.17596	-0.140022	-0.106362	-0.0482405	-0.115843	-0.067253	0.0428015	0.013733	-0.0898347	-0.0396497	0.018858	-0.0109765	-0.180238	0.043784	-0.038681	0.046806	-0.163137	0.129594	-0.140234	0.169914	-0.0441653	0.143629	-0.100434	0.107958	
1.85394	0	0	-0.108644	-0.076876	-0.056551	0.075591	-0.119972	-0.116162	-0.01802	0.121847	-0.179283	-0.142006	-0.104314	-0.05403	-0.114703	-0.070473	0.035928	0.01443	-0.088931	-0.042204	0.020406	-0.015351	-0.179155	0.040723	-0.038681	0.046806	-0.161779	0.125757	-0.145523	0.17055	-0.045809	0.148275	-0.098738	0.103166	
1.85242	0	0	-0.116075	-0.0679903	-0.051666	0.0749433	-0.126175	-0.110146	-0.0194303	0.125833	-0.184515	-0.138587	-0.104314	-0.05403	-0.119263	-0.057586	0.035928	0.01443	-0.091643	-0.0345393	0.0254313	-0.0119068	-0.181321	0.0468462	-0.031746	0.0512553	-0.156128	0.127965	-0.141533	0.173584	-0.0382683	0.150496	-0.0983838	0.112149	
1.85242	0	0	-0.123505	-0.0591045	-0.046781	0.0742955	-0.132379	-0.104131	-0.0208405	0.129819	-0.189746	-0.135168	-0.104314	-0.05403	-0.123823	-0.044699	0.035928	0.01443	-0.094355	-0.0268745	0.0304565	-0.0084625	-0.183488	0.0529695	-0.024811	0.0557045	-0.150476	0.130173	-0.137543	0.176619	-0.0307275	0.152716	-0.0980295	0.121132	
1.85394	0	0	-0.130936	-0.0502187	-0.041896	0.0736477	-0.138582	-0.0981148	-0.0222507	0.133805	-0.194978	-0.13175	-0.104314	-0.05403	-0.128383	-0.031812	0.035928	0.01443	-0.097067	-0.0192097	0.0354817	-0.00501825	-0.185655	0.0590927	-0.017876	0.0601537	-0.144824	0.132382	-0.133552	0.179653	-0.0231867	0.154937	-0.0976753	0.130115	
1.85089	0	0	-0.138367	-0.041333	-0.037011	0.073	-0.144785	-0.092099	-0.023661	0.137791	-0.20021	-0.128331	-0.104314	-0.05403	-0.132943	-0.018925	0.035928	0.01443	-0.099779	-0.011545	0.040507	-0.001574	-0.187821	0.065216	-0.010941	0.064603	-0.139173	0.13459	-0.129562	0.182687	-0.015646	0.157158	-0.097321	0.139098	
1.85394	0	0	-0.137439	-0.0439548	-0.041896	0.0736477	-0.145688	-0.0895455	-0.0276417	0.134265	-0.202572	-0.133015	-0.112148	-0.053359	-0.130662	-0.0253708	0.035928	0.01443	-0.0988748	-0.0141005	0.040507	-0.001574	-0.185655	0.0590927	-0.010941	0.064603	-0.144824	0.132382	-0.133552	0.179653	-0.0140007	0.152508	-0.099371	0.134907	
1.85089	0	0	-0.136512	-0.0465765	-0.046781	0.0742955	-0.146592	-0.086992	-0.0316225	0.130739	-0.204935	-0.137699	-0.119983	-0.052688	-0.128382	-0.0318165	0.035928	0.01443	-0.0979705	-0.016656	0.040507	-0.001574	-0.183488	0.0529695	-0.010941	0.064603	-0.150476	0.130173	-0.137543	0.176619	-0.0123555	0.147858	-0.101421	0.130717	
1.85089	0	0	-0.135584	-0.0491982	-0.051666	0.0749433	-0.147496	-0.0844385	-0.0356033	0.127212	-0.207298	-0.142382	-0.127818	-0.052017	-0.126101	-0.0382622	0.035928	0.01443	-0.0970662	-0.0192115	0.040507	-0.001574	-0.181321	0.0468462	-0.010941	0.064603	-0.156128	0.127965	-0.141533	0.173584	-0.0107103	0.143208	-0.103471	0.126526	
1.85242	0	0	-0.134656	-0.05182	-0.056551	0.075591	-0.148399	-0.081885	-0.039584	0.123686	-0.20966	-0.147066	-0.135652	-0.051346	-0.12382	-0.044708	0.035928	0.01443	-0.096162	-0.021767	0.040507	-0.001574	-0.179155	0.040723	-0.010941	0.064603	-0.161779	0.125757	-0.145523	0.17055	-0.009065	0.138558	-0.105521	0.122335	
1.85089	0	0	-0.143012	-0.040312	-0.0626027	0.0795453	-0.146716	-0.075127	-0.0449703	0.124144	-0.210615	-0.144367	-0.135652	-0.051346	-0.121911	-0.036041	0.035928	0.01443	-0.096162	-0.021767	0.040507	-0.001574	-0.180238	0.043784	-0.0130098	0.0704497	-0.154769	0.124127	-0.145523	0.17055	-0.0123565	0.147861	-0.102623	0.124127	
1.84784	0	0	-0.151367	-0.028804	-0.0686545	0.0834995	-0.145033	-0.068369	-0.0503565	0.124602	-0.21157	-0.141668	-0.135652	-0.051346	-0.120001	-0.027374	0.035928	0.01443	-0.096162	-0.021767	0.040507	-0.001574	-0.181321	0.046845	-0.0150785	0.0762965	-0.147759	0.122496	-0.145523	0.17055	-0.015648	0.157163	-0.099724	0.12592	
1.85089	0	0	-0.159723	-0.017296	-0.0747063	0.0874537	-0.143349	-0.061611	-0.0557428	0.125059	-0.212526	-0.138968	-0.135652	-0.051346	-0.118092	-0.018707	0.035928	0.01443	-0.096162	-0.021767	0.040507	-0.001574	-0.182404	0.049906	-0.0171472	0.0821433	-0.14075	0.120866	-0.145523	0.17055	-0.0189395	0.166465	-0.0968255	0.127712	
1.85089	0	0	-0.168079	-0.005788	-0.080758	0.091408	-0.141666	-0.054853	-0.061129	0.125517	-0.213481	-0.136269	-0.135652	-0.051346	-0.116183	-0.01004	0.035928	0.01443	-0.096162	-0.021767	0.040507	-0.001574	-0.183487	0.052967	-0.019216	0.08799	-0.13374	0.119235	-0.145523	0.17055	-0.022231	0.175768	-0.093927	0.129504	
1.84784	0	0	-0.166223	-0.0110335	-0.0784175	0.0847928	-0.146061	-0.0539465	-0.0597205	0.121536	-0.214888	-0.143647	-0.131561	-0.0629067	-0.119232	-0.0154848	0.0376735	0.00949725	-0.0992607	-0.0256333	0.0339337	-0.00064375	-0.18821	0.051347	-0.0171472	0.0821433	-0.138036	0.113196	-0.148214	0.163855	-0.02977	0.173542	-0.0942822	0.120524	
1.85089	0	0	-0.164366	-0.016279	-0.076077	0.0781775	-0.150456	-0.05304	-0.058312	0.117556	-0.216295	-0.151025	-0.127471	-0.0744675	-0.122281	-0.0209295	0.039419	0.0045645	-0.102359	-0.0294995	0.0273605	0.0002865	-0.192932	0.049727	-0.0150785	0.0762965	-0.142333	0.107158	-0.150904	0.157159	-0.037309	0.171317	-0.0946375	0.111545	
1.84479	0	0	-0.16251	-0.0215245	-0.0737365	0.0715623	-0.154852	-0.0521335	-0.0569035	0.113575	-0.217701	-0.158402	-0.12338	-0.0860283	-0.125331	-0.0263743	0.0411645	-0.00036825	-0.105458	-0.0333657	0.0207873	0.00121675	-0.197655	0.048107	-0.0130098	0.0704497	-0.146629	0.10112	-0.153595	0.150464	-0.044848	0.169091	-0.0949928	0.102565	
1.84784	0	0	-0.160654	-0.02677	-0.071396	0.064947	-0.159247	-0.051227	-0.055495	0.109595	-0.219108	-0.16578	-0.11929	-0.097589	-0.12838	-0.031819	0.04291	-0.005301	-0.108557	-0.037232	0.014214	0.002147	-0.202377	0.046487	-0.010941	0.064603	-0.150925	0.095081	-0.156286	0.143768	-0.052387	0.166865	-0.095348	0.093585	
1.84936	0	0	-0.15322	-0.0235597	-0.0700272	0.074228	-0.157567	-0.0444602	-0.0515173	0.113118	-0.223376	-0.165064	-0.127117	-0.096914	-0.130662	-0.025371	0.0342987	0.00032575	-0.107654	-0.0397848	0.0223358	-0.00316	-0.201294	0.043428	-0.010941	0.064603	-0.150925	0.095081	-0.15499	0.140105	-0.0399118	0.155141	-0.0999407	0.096586	
1.84936	0	0	-0.145786	-0.0203495	-0.0686585	0.083509	-0.155886	-0.0376935	-0.0475395	0.116641	-0.227644	-0.164348	-0.134944	-0.096239	-0.132943	-0.018923	0.0256875	0.0059525	-0.10675	-0.0423375	0.0304575	-0.008467	-0.200212	0.040369	-0.010941	0.064603	-0.150925	0.095081	-0.153694	0.136443	-0.0274365	0.143416	-0.104534	0.099587	
1.84479	0	0	-0.138351	-0.0171393	-0.0672897	0.09279	-0.154206	-0.0309268	-0.0435618	0.120163	-0.231913	-0.163631	-0.142771	-0.095564	-0.135225	-0.012475	0.0170763	0.0115792	-0.105847	-0.0448902	0.0385793	-0.013774	-0.19913	0.03731	-0.010941	0.064603	-0.150925	0.095081	-0.152398	0.132781	-0.0149613	0.131692	-0.109126	0.102588	
1.84631	0	0	-0.130917	-0.013929	-0.065921	0.102071	-0.152526	-0.02416	-0.039584	0.123686	-0.236181	-0.162915	-0.150598	-0.094889	-0.137507	-0.006027	0.008465	0.017206	-0.104944	-0.047443	0.046701	-0.019081	-0.198047	0.034251	-0.010941	0.064603	-0.150925	0.095081	-0.151102	0.129118	-0.002486	0.119967	-0.113719	0.105589	
1.84631	0	0	-0.133707	-0.0181578	-0.062408	0.0921427	-0.149811	-0.0318333	-0.0449703	0.124144	-0.241851	-0.169565	-0.148556	-0.10066	-0.138273	-0.0179125	0.0119527	0.007349	-0.108042	-0.051303	0.0416742	-0.022521	-0.196965	0.0311932	-0.00887375	0.0587605	-0.153639	0.10275	-0.157678	0.133415	-0.00742225	0.133917	-0.116262	0.112777	
1.84173	0	0	-0.136497	-0.0223865	-0.058895	0.0822145	-0.147096	-0.0395065	-0.0503565	0.124602	-0.24752	-0.176214	-0.146514	-0.106431	-0.13904	-0.029798	0.0154405	-0.002508	-0.11114	-0.055163	0.0366475	-0.025961	-0.195883	0.0281355	-0.0068065	0.052918	-0.156352	0.110419	-0.164255	0.137713	-0.0123585	0.147868	-0.118806	0.119964	
1.84479	0	0	-0.139288	-0.0266153	-0.055382	0.0722862	-0.144381	-0.0471797	-0.0557428	0.125059	-0.25319	-0.182863	-0.144472	-0.112202	-0.139807	-0.0416835	0.0189283	-0.012365	-0.114237	-0.059023	0.0316208	-0.029401	-0.194801	0.0250777	-0.00473925	0.0470755	-0.159065	0.118088	-0.170831	0.14201	-0.0172948	0.161818	-0.121349	0.127152	
1.84173	0	0	-0.142078	-0.030844	-0.051869	0.062358	-0.141666	-0.054853	-0.061129	0.125517	-0.25886	-0.189513	-0.14243	-0.117973	-0.140573	-0.053569	0.022416	-0.022222	-0.117335	-0.062883	0.026594	-0.032841	-0.193719	0.02202	-0.002672	0.041233	-0.161779	0.125757	-0.177408	0.146307	-0.022231	0.175768	-0.123892	0.134339	
1.84173	0	0	-0.138359	-0.02924	-0.0530395	0.0656662	-0.138173	-0.0532033	-0.063948	0.133484	-0.256956	-0.194894	-0.152289	-0.111531	-0.134105	-0.057795	0.015556	-0.0215255	-0.116433	-0.0654327	0.026594	-0.032841	-0.193719	0.02202	-0.00473925	0.0470755	-0.161779	0.125757	-0.177408	0.146307	-0.0205847	0.171116	-0.123892	0.134339	
1.84021	0	0	-0.13464	-0.027636	-0.05421	0.0689745	-0.13468	-0.0515535	-0.066767	0.14145	-0.255051	-0.200276	-0.162148	-0.105089	-0.127638	-0.062021	0.008696	-0.020829	-0.11553	-0.0679825	0.026594	-0.032841	-0.193719	0.02202	-0.0068065	0.052918	-0.161779	0.125757	-0.177408	0.146307	-0.0189385	0.166463	-0.123892	0.134339	
1.84021	0	0	-0.130921	-0.026032	-0.0553805	0.0722828	-0.131186	-0.0499037	-0.069586	0.149417	-0.253147	-0.205657	-0.172007	-0.098647	-0.121171	-0.066247	0.001836	-0.0201325	-0.114628	-0.0705322	0.026594	-0.032841	-0.193719	0.02202	-0.00887375	0.0587605	-0.161779	0.125757	-0.177408	0.146307	-0.0172923	0.16181	-0.123892	0.134339	
1.83868	0	0	-0.127202	-0.024428	-0.056551	0.075591	-0.127693	-0.048254	-0.072405	0.157384	-0.251243	-0.211039	-0.181866	-0.092205	-0.114703	-0.070473	-0.005024	-0.019436	-0.113726	-0.073082	0.026594	-0.032841	-0.193719	0.02202	-0.010941	0.064603	-0.161779	0.125757	-0.177408	0.146307	-0.015646	0.157158	-0.123892	0.134339	
1.83868	0	0	-0.129993	-0.0286542	-0.0567542	0.0630162	-0.129377	-0.0550158	-0.0681775	0.145437	-0.256456	-0.207633	-0.181866	-0.092205	-0.121171	-0.066247	-0.013618	-0.0138205	-0.118239	-0.0603257	0.016933	-0.0231667	-0.202766	0.032634	-0.0150797	0.0763	-0.156128	0.127965	-0.177408	0.146307	-0.02977	0.173542	-0.124392	0.14573	
1.84173	0	0	-0.132784	-0.0328805	-0.0569575	0.0504415	-0.131061	-0.0617775	-0.06395	0.133489	-0.261669	-0.204227	-0.181866	-0.092205	-0.127638	-0.062021	-0.022212	-0.008205	-0.122753	-0.0475695	0.007272	-0.0134925	-0.211813	0.043248	-0.0192185	0.087997	-0.150476	0.130173	-0.177408	0.146307	-0.043894	0.189927	-0.124892	0.157122	
1.83868	0	0	-0.135576	-0.0371068	-0.0571607	0.0378667	-0.132746	-0.0685392	-0.0597225	0.121542	-0.266882	-0.20082	-0.181866	-0.092205	-0.134105	-0.057795	-0.030806	-0.0025895	-0.127267	-0.0348132	-0.002389	-0.00381825	-0.220861	0.053862	-0.0233572	0.099694	-0.144824	0.132382	-0.177408	0.146307	-0.058018	0.206312	-0.125392	0.168514	
1.83868	0	0	-0.138367	-0.041333	-0.057364	0.025292	-0.13443	-0.075301	-0.055495	0.109595	-0.272095	-0.197414	-0.181866	-0.092205	-0.140573	-0.053569	-0.0394	0.003026	-0.13178	-0.022057	-0.01205	0.005856	-0.229908	0.064476	-0.027496	0.111391	-0.139173	0.13459	-0.177408	0.146307	-0.072142	0.222696	-0.125892	0.179905	
1.83868	0	0	-0.134648	-0.0397308	-0.0645805	0.032547	-0.136239	-0.070189	-0.052927	0.117102	-0.269739	-0.192747	-0.176092	-0.0871015	-0.140573	-0.053569	-0.0376585	-0.00189575	-0.13178	-0.022057	-0.01205	0.005856	-0.223025	0.0599788	-0.0295675	0.117245	-0.137815	0.130751	-0.182684	0.14694	-0.072142	0.222696	-0.125043	0.177505	
1.83716	0	0	-0.130928	-0.0381285	-0.071797	0.039802	-0.138048	-0.065077	-0.050359	0.124608	-0.267382	-0.18808	-0.170318	-0.081998	-0.140573	-0.053569	-0.035917	-0.0068175	-0.13178	-0.022057	-0.01205	0.005856	-0.216143	0.0554815	-0.031639	0.1231	-0.136456	0.126912	-0.18796	0.147573	-0.072142	0.222696	-0.124193	0.175104	
1.83716	0	0	-0.127209	-0.0365262	-0.0790135	0.047057	-0.139857	-0.059965	-0.047791	0.132115	-0.265026	-0.183412	-0.164545	-0.0768945	-0.140573	-0.053569	-0.0341755	-0.0117392	-0.13178	-0.022057	-0.01205	0.005856	-0.20926	0.0509843	-0.0337105	0.128954	-0.135098	0.123074	-0.193236	0.148207	-0.072142	0.222696	-0.123344	0.172704	
1.83716	0	0	-0.123489	-0.034924	-0.08623	0.054312	-0.141666	-0.054853	-0.045223	0.139622	-0.26267	-0.178745	-0.158771	-0.071791	-0.140573	-0.053569	-0.032434	-0.016661	-0.13178	-0.022057	-0.01205	0.005856	-0.202377	0.046487	-0.035782	0.134808	-0.13374	0.119235	-0.198512	0.14884	-0.072142	0.222696	-0.122494	0.170304	
1.83411	0	0	-0.129064	-0.0312807	-0.0790135	0.047057	-0.146966	-0.05139	-0.0398325	0.139164	-0.267437	-0.165273	-0.164909	-0.0544442	-0.151595	-0.0364595	-0.0341755	-0.0117392	-0.1363	-0.00928275	-0.0151465	0.0146073	-0.20671	0.0587333	-0.0288463	0.139286	-0.135098	0.123074	-0.191941	0.144546	-0.052115	0.213191	-0.1167	0.173903	
1.83258	0	0	-0.13464	-0.0276375	-0.071797	0.039802	-0.152265	-0.047927	-0.034442	0.138707	-0.272204	-0.151801	-0.171047	-0.0370975	-0.162617	-0.01935	-0.035917	-0.0068175	-0.140821	0.0034915	-0.018243	0.0233585	-0.211043	0.0709795	-0.0219105	0.143765	-0.136456	0.126912	-0.185369	0.140252	-0.032088	0.203685	-0.110906	0.177501	
1.83563	0	0	-0.140215	-0.0239943	-0.0645805	0.032547	-0.157565	-0.044464	-0.0290515	0.138249	-0.276971	-0.138329	-0.177185	-0.0197507	-0.17364	-0.0022405	-0.0376585	-0.00189575	-0.145341	0.0162658	-0.0213395	0.0321097	-0.215377	0.0832258	-0.0149747	0.148243	-0.137815	0.130751	-0.178798	0.135958	-0.012061	0.19418	-0.105111	0.181099	
1.83258	0	0	-0.145791	-0.020351	-0.057364	0.025292	-0.162865	-0.041001	-0.023661	0.137791	-0.281738	-0.124857	-0.183323	-0.002404	-0.184662	0.014869	-0.0394	0.003026	-0.149861	0.02904	-0.024436	0.040861	-0.21971	0.095472	-0.008039	0.152721	-0.139173	0.13459	-0.172227	0.131664	0.007966	0.184674	-0.099317	0.184698	
1.83258	0	0	-0.147648	-0.0151023	-0.058533	0.0285955	-0.16028	-0.0367908	-0.027896	0.14976	-0.274166	-0.123582	-0.177551	0.0027295	-0.17934	0.013871	-0.0411425	0.0079505	-0.148956	0.0264838	-0.024436	0.040861	-0.218626	0.092409	-0.008039	0.152721	-0.136457	0.126914	-0.177503	0.132298	0.00041675	0.182448	-0.101365	0.180497	
1.83563	0	0	-0.149506	-0.0098535	-0.059702	0.031899	-0.157695	-0.0325805	-0.032131	0.161728	-0.266595	-0.122308	-0.171779	0.007863	-0.174019	0.012873	-0.042885	0.012875	-0.148052	0.0239275	-0.024436	0.040861	-0.217542	0.089346	-0.008039	0.152721	-0.133741	0.119238	-0.18278	0.132933	-0.0071325	0.180221	-0.103414	0.176296	
1.83258	0	0	-0.151363	-0.00460475	-0.060871	0.0352025	-0.155111	-0.0283702	-0.036366	0.173697	-0.259024	-0.121034	-0.166007	0.0129965	-0.168698	0.011875	-0.0446275	0.0177995	-0.147147	0.0213712	-0.024436	0.040861	-0.216458	0.086283	-0.008039	0.152721	-0.131025	0.111563	-0.188057	0.133568	-0.0146818	0.177994	-0.105463	0.172096	
1.83411	0	0	-0.15322	0.000644	-0.06204	0.038506	-0.152526	-0.02416	-0.040601	0.185666	-0.251452	-0.119759	-0.160235	0.01813	-0.163376	0.010877	-0.04637	0.022724	-0.146242	0.018815	-0.024436	0.040861	-0.215374	0.08322	-0.008039	0.152721	-0.128309	0.103887	-0.193333	0.134202	-0.022231	0.175768	-0.107511	0.167895	
1.83258	0	0	-0.147643	0.0091195	-0.0594973	0.044469	-0.153567	-0.00969475	-0.0326385	0.192751	-0.252922	-0.104259	-0.158566	0.0348845	-0.163763	0.0260232	-0.0481133	0.0276513	-0.143151	0.0226925	-0.016322	0.0355593	-0.217542	0.0893473	0.0009825	0.151336	-0.138034	0.113192	-0.192039	0.130544	-0.0330618	0.182845	-0.104612	0.169693	
1.83716	0	0	-0.142066	0.017595	-0.0569545	0.050432	-0.154609	0.0047705	-0.024676	0.199835	-0.254391	-0.0887595	-0.156897	0.051639	-0.16415	0.0411695	-0.0498565	0.0325785	-0.140059	0.02657	-0.008208	0.0302575	-0.219711	0.0954745	0.010004	0.14995	-0.147759	0.122496	-0.190744	0.126886	-0.0438925	0.189922	-0.101714	0.171492	
1.83563	0	0	-0.13649	0.0260705	-0.0544117	0.056395	-0.15565	0.0192358	-0.0167135	0.20692	-0.25586	-0.0732597	-0.155229	0.0683935	-0.164538	0.0563157	-0.0515997	0.0375057	-0.136967	0.0304475	-9.4E-05	0.0249558	-0.221879	0.101602	0.0190255	0.148565	-0.157485	0.131801	-0.18945	0.123229	-0.0547233	0.196999	-0.0988155	0.17329	
1.83868	0	0	-0.130913	0.034546	-0.051869	0.062358	-0.156692	0.033701	-0.008751	0.214005	-0.25733	-0.05776	-0.15356	0.085148	-0.164925	0.071462	-0.053343	0.042433	-0.133876	0.034325	0.00802	0.019654	-0.224047	0.107729	0.028047	0.14718	-0.16721	0.141105	-0.188156	0.119571	-0.065554	0.204076	-0.095917	0.175089	
1.83868	0	0	-0.131844	0.0371763	-0.0530395	0.0656662	-0.157599	0.0362655	-0.0115825	0.222007	-0.254019	-0.0557638	-0.147782	0.0903117	-0.162638	0.065	-0.0464935	0.0417475	-0.132971	0.0317673	0.00802	0.019654	-0.224047	0.107729	0.0301225	0.141314	-0.172854	0.138895	-0.192135	0.116551	-0.0622623	0.194773	-0.102561	0.173893	
1.84021	0	0	-0.132774	0.0398065	-0.05421	0.0689745	-0.158506	0.03883	-0.014414	0.23001	-0.250708	-0.0537675	-0.142003	0.0954755	-0.160352	0.058538	-0.039644	0.041062	-0.132066	0.0292095	0.00802	0.019654	-0.224047	0.107729	0.032198	0.135448	-0.178499	0.136684	-0.196115	0.11353	-0.0589705	0.185471	-0.109206	0.172697	
1.84021	0	0	-0.133705	0.0424368	-0.0553805	0.0722828	-0.159414	0.0413945	-0.0172455	0.238013	-0.247397	-0.0517712	-0.136224	0.100639	-0.158065	0.052076	-0.0327945	0.0403765	-0.131161	0.0266518	0.00802	0.019654	-0.224047	0.107729	0.0342735	0.129583	-0.184144	0.134474	-0.200095	0.110509	-0.0556787	0.176168	-0.11585	0.1715	
1.84173	0	0	-0.134635	0.045067	-0.056551	0.075591	-0.160321	0.043959	-0.020077	0.246015	-0.244086	-0.049775	-0.130446	0.105803	-0.155779	0.045614	-0.025945	0.039691	-0.130256	0.024094	0.00802	0.019654	-0.224047	0.107729	0.036349	0.123717	-0.189788	0.132264	-0.204074	0.107489	-0.052387	0.166865	-0.122494	0.170304	
1.84479	0	0	-0.129988	0.0562013	-0.0563542	0.0881933	-0.160465	0.0558937	-0.0149475	0.261153	-0.24269	-0.04236	-0.126723	0.116802	-0.152737	0.0510798	-0.0276905	0.0446235	-0.132066	0.0292103	0.00802	0.019654	-0.226216	0.113861	0.0342735	0.129583	-0.188432	0.128431	-0.202781	0.103836	-0.0399118	0.155141	-0.125389	0.168506	
1.84173	0	0	-0.125341	0.0673355	-0.0561575	0.100796	-0.160608	0.0678285	-0.009818	0.27629	-0.241294	-0.034945	-0.123001	0.127801	-0.149695	0.0565455	-0.029436	0.049556	-0.133877	0.0343265	0.00802	0.019654	-0.228386	0.119992	0.032198	0.135448	-0.187075	0.124597	-0.201489	0.100183	-0.0274365	0.143416	-0.128283	0.166709	
1.84631	0	0	-0.120694	0.0784698	-0.0559608	0.113398	-0.160751	0.0797633	-0.0046885	0.291428	-0.239898	-0.02753	-0.119278	0.138801	-0.146654	0.0620112	-0.0311815	0.0544885	-0.135687	0.0394427	0.00802	0.019654	-0.230555	0.126123	0.0301225	0.141314	-0.185719	0.120763	-0.200196	0.0965292	-0.0149613	0.131692	-0.131178	0.164911	
1.84631	0	0	-0.116047	0.089604	-0.055764	0.126	-0.160895	0.091698	0.000441	0.306565	-0.238502	-0.020115	-0.115555	0.1498	-0.143612	0.067477	-0.032927	0.059421	-0.137497	0.044559	0.00802	0.019654	-0.232725	0.132255	0.028047	0.14718	-0.184362	0.11693	-0.198903	0.092876	-0.002486	0.119967	-0.134073	0.163113	
1.84631	0	0	-0.114182	0.0843337	-0.0520505	0.128672	-0.159986	0.089129	0.0112608	0.30567	-0.237543	-0.022824	-0.105639	0.14332	-0.147797	0.0652418	-0.032927	0.059421	-0.139309	0.0496783	0.0064705	0.0240328	-0.232725	0.132255	0.01695	0.154431	-0.178716	0.119137	-0.200196	0.0965292	-0.0166067	0.136342	-0.129132	0.169111	
1.84173	0	0	-0.112317	0.0790635	-0.048337	0.131345	-0.159077	0.08656	0.0220805	0.304774	-0.236584	-0.025533	-0.095723	0.136841	-0.151981	0.0630065	-0.032927	0.059421	-0.14112	0.0547975	0.004921	0.0284115	-0.232725	0.132255	0.005853	0.161682	-0.173071	0.121344	-0.201489	0.100183	-0.0307275	0.152717	-0.124191	0.17511	
1.84631	0	0	-0.110452	0.0737933	-0.0446235	0.134018	-0.158168	0.083991	0.0329002	0.303879	-0.235626	-0.028242	-0.085807	0.130361	-0.156166	0.0607712	-0.032927	0.059421	-0.142932	0.0599167	0.0033715	0.0327902	-0.232725	0.132255	-0.005244	0.168933	-0.167425	0.12355	-0.202781	0.103836	-0.0448482	0.169091	-0.119249	0.181108	
1.84479	0	0	-0.108587	0.068523	-0.04091	0.13669	-0.157259	0.081422	0.04372	0.302984	-0.234667	-0.030951	-0.075891	0.123882	-0.160351	0.058536	-0.032927	0.059421	-0.144743	0.065036	0.001822	0.037169	-0.232725	0.132255	-0.016341	0.176184	-0.161779	0.125757	-0.204074	0.107489	-0.058969	0.185466	-0.114308	0.187106	
1.84936	0	0	-0.105795	0.072777	-0.0297538	0.14472	-0.154677	0.0856612	0.0502875	0.314153	-0.233271	-0.0235283	-0.082085	0.141387	-0.156166	0.0607712	-0.027818	0.0636735	-0.146556	0.0701583	0.000272	0.04155	-0.23381	0.135322	-0.007321	0.174802	-0.168781	0.127384	-0.205367	0.111144	-0.0481383	0.178389	-0.118903	0.190108	
1.84479	0	0	-0.103002	0.077031	-0.0185975	0.15275	-0.152095	0.0899005	0.056855	0.325321	-0.231876	-0.0161055	-0.088279	0.158892	-0.151981	0.0630065	-0.022709	0.067926	-0.148368	0.0752805	-0.001278	0.045931	-0.234895	0.138389	0.001699	0.173421	-0.175784	0.129011	-0.20666	0.114798	-0.0373075	0.171312	-0.123499	0.193111	
1.84631	0	0	-0.10021	0.081285	-0.00744125	0.16078	-0.149513	0.0941397	0.0634225	0.336489	-0.23048	-0.00868275	-0.094473	0.176398	-0.147797	0.0652418	-0.0176	0.0721785	-0.15018	0.0804027	-0.002828	0.050312	-0.235981	0.141457	0.010719	0.17204	-0.182786	0.130637	-0.207954	0.118453	-0.0264768	0.164235	-0.128094	0.196113	
1.84631	0	0	-0.097418	0.085539	0.003715	0.16881	-0.146931	0.098379	0.06999	0.347658	-0.229084	-0.00126	-0.100667	0.193903	-0.143612	0.067477	-0.012491	0.076431	-0.151993	0.085525	-0.004378	0.054693	-0.237066	0.144524	0.019739	0.170658	-0.189788	0.132264	-0.209247	0.122108	-0.015646	0.157158	-0.132689	0.199116	
1.84784	0	0	-0.0946203	0.0776322	0.003715	0.16881	-0.145112	0.0932392	0.0631458	0.35213	-0.236236	0.00758425	-0.102734	0.199746	-0.145901	0.073946	-0.0228418	0.086993	-0.151627	0.097113	-0.00748075	0.0634612	-0.239238	0.150662	0.0176607	0.176532	-0.185502	0.138313	-0.211835	0.129422	-0.008095	0.15938	-0.129451	0.209939	
1.84784	0	0	-0.0918225	0.0697255	0.003715	0.16881	-0.143294	0.0880995	0.0563015	0.356603	-0.243388	0.0164285	-0.104802	0.205589	-0.14819	0.080415	-0.0331925	0.097555	-0.15126	0.108701	-0.0105835	0.0722295	-0.241409	0.1568	0.0155825	0.182405	-0.181216	0.144362	-0.214423	0.136736	-0.000544	0.161602	-0.126213	0.220762	
1.84326	0	0	-0.0890247	0.0618188	0.003715	0.16881	-0.141475	0.0829597	0.0494572	0.361075	-0.250539	0.0252728	-0.106869	0.211431	-0.150479	0.086884	-0.0435432	0.108117	-0.150894	0.120289	-0.0136862	0.0809978	-0.243581	0.162938	0.0135043	0.188278	-0.176929	0.150411	-0.217011	0.144051	0.007007	0.163823	-0.122975	0.231585	
1.84631	0	0	-0.086227	0.053912	0.003715	0.16881	-0.139656	0.07782	0.042613	0.365547	-0.257691	0.034117	-0.108936	0.217274	-0.152768	0.093353	-0.053894	0.118679	-0.150528	0.131877	-0.016789	0.089766	-0.245753	0.169076	0.011426	0.194152	-0.172643	0.15646	-0.219599	0.151365	0.014558	0.166045	-0.119737	0.242408	
1.84936	0	0	-0.0815655	0.0528918	0.001361	0.175462	-0.141475	0.0829597	0.0480322	0.365102	-0.250106	0.0354223	-0.101077	0.216634	-0.148581	0.0955945	-0.0470407	0.118002	-0.145622	0.130645	-0.0183412	0.0941535	-0.245753	0.169076	0.0093465	0.200029	-0.171285	0.152621	-0.218305	0.147707	0.00536075	0.168476	-0.122632	0.2406	
1.84631	0	0	-0.076904	0.0518715	-0.000993	0.182115	-0.143294	0.0880995	0.0534515	0.364657	-0.24252	0.0367275	-0.0932185	0.215994	-0.144395	0.097836	-0.0401875	0.117324	-0.140716	0.129412	-0.0198935	0.098541	-0.245753	0.169076	0.007267	0.205906	-0.169926	0.148782	-0.21701	0.144049	-0.0038365	0.170907	-0.125527	0.238793	
1.84936	0	0	-0.0722425	0.0508513	-0.003347	0.188767	-0.145112	0.0932392	0.0588707	0.364212	-0.234935	0.0380327	-0.0853597	0.215353	-0.140209	0.100077	-0.0333342	0.116647	-0.135811	0.12818	-0.0214457	0.102928	-0.245753	0.169076	0.0051875	0.211784	-0.168568	0.144944	-0.215716	0.140392	-0.0130338	0.173337	-0.128423	0.236986	
1.84784	0	0	-0.067581	0.049831	-0.005701	0.195419	-0.146931	0.098379	0.06429	0.363767	-0.22735	0.039338	-0.077501	0.214713	-0.136022	0.102319	-0.026481	0.115969	-0.130905	0.126948	-0.022998	0.107316	-0.245753	0.169076	0.003108	0.217661	-0.16721	0.141105	-0.214422	0.136734	-0.022231	0.175768	-0.131318	0.235178	
1.84936	0	0	-0.0722425	0.0508513	-0.0068785	0.198747	-0.147841	0.10095	0.0628642	0.367796	-0.231197	0.050209	-0.069632	0.214069	-0.140608	0.115281	-0.0282312	0.120915	-0.12563	0.13733	-0.0179835	0.110791	-0.242125	0.17379	0.001027	0.223542	-0.160201	0.139476	-0.20915	0.136101	-0.0130338	0.173337	-0.127572	0.234579	
1.85089	0	0	-0.076904	0.0518715	-0.008056	0.202075	-0.148751	0.103521	0.0614385	0.371826	-0.235044	0.06108	-0.061763	0.213424	-0.145195	0.128242	-0.0299815	0.125862	-0.120355	0.147711	-0.012969	0.114265	-0.238498	0.178503	-0.001054	0.229424	-0.153191	0.137848	-0.203877	0.135468	-0.0038365	0.170907	-0.123825	0.23398	
1.84784	0	0	-0.0815655	0.0528918	-0.0092335	0.205403	-0.14966	0.106093	0.0600128	0.375855	-0.23889	0.071951	-0.053894	0.21278	-0.149781	0.141204	-0.0317317	0.130808	-0.11508	0.158093	-0.0079545	0.117739	-0.23487	0.183217	-0.003135	0.235305	-0.146182	0.136219	-0.198605	0.134835	0.00536075	0.168476	-0.120079	0.233382	
1.85242	0	0	-0.086227	0.053912	-0.010411	0.208731	-0.15057	0.108664	0.058587	0.379884	-0.242737	0.082822	-0.046025	0.212136	-0.154367	0.154166	-0.033482	0.135754	-0.109805	0.168475	-0.00294	0.121214	-0.231242	0.187931	-0.005216	0.241186	-0.139173	0.13459	-0.193333	0.134202	0.014558	0.166045	-0.116332	0.232783	
1.84936	0	0	-0.091817	0.0575647	-0.011589	0.21206	-0.15148	0.111236	0.058587	0.379884	-0.243699	0.085542	-0.0480965	0.21799	-0.147885	0.14993	-0.026622	0.135076	-0.113807	0.167136	-0.001386	0.116822	-0.230155	0.184858	-0.005216	0.241186	-0.144824	0.132382	-0.197312	0.131178	-0.00382375	0.1709	-0.116676	0.223766	
1.84936	0	0	-0.097407	0.0612175	-0.012767	0.21539	-0.15239	0.113808	0.058587	0.379884	-0.244662	0.088262	-0.050168	0.223845	-0.141403	0.145695	-0.019762	0.134399	-0.117809	0.165797	0.000168	0.112431	-0.229068	0.181785	-0.005216	0.241186	-0.150476	0.130173	-0.20129	0.128155	-0.0222055	0.175756	-0.11702	0.214749	
1.84631	0	0	-0.102997	0.0648703	-0.013945	0.218719	-0.1533	0.116379	0.058587	0.379884	-0.245624	0.090982	-0.0522395	0.229699	-0.134921	0.14146	-0.012902	0.133721	-0.121811	0.164458	0.001722	0.108039	-0.227981	0.178713	-0.005216	0.241186	-0.156128	0.127965	-0.205268	0.125132	-0.0405872	0.180611	-0.117364	0.205732	
1.84631	0	0	-0.108587	0.068523	-0.015123	0.222048	-0.15421	0.118951	0.058587	0.379884	-0.246586	0.093702	-0.054311	0.235553	-0.128439	0.137224	-0.006042	0.133043	-0.125813	0.163119	0.003276	0.103647	-0.226894	0.17564	-0.005216	0.241186	-0.161779	0.125757	-0.209247	0.122108	-0.058969	0.185466	-0.117708	0.196715	
1.84631	0	0	-0.111385	0.0764295	-0.0163015	0.225378	-0.154363	0.130926	0.0517428	0.384356	-0.242851	0.105916	-0.0621785	0.236193	-0.126545	0.145966	-0.006042	0.133043	-0.116896	0.163224	0.001722	0.108039	-0.221087	0.174208	0.00589525	0.233926	-0.161779	0.125757	-0.209247	0.122108	-0.046493	0.173739	-0.117708	0.196715	
1.84326	0	0	-0.114182	0.084336	-0.01748	0.228709	-0.154515	0.1429	0.0448985	0.388828	-0.239117	0.11813	-0.070046	0.236834	-0.124651	0.154707	-0.006042	0.133043	-0.107979	0.163328	0.000168	0.112431	-0.21528	0.172776	0.0170065	0.226665	-0.161779	0.125757	-0.209247	0.122108	-0.034017	0.162012	-0.117708	0.196715	
1.84479	0	0	-0.11698	0.0922425	-0.0186585	0.23204	-0.154668	0.154875	0.0380542	0.3933	-0.235382	0.130345	-0.0779135	0.237474	-0.122758	0.163449	-0.006042	0.133043	-0.0990613	0.163433	-0.001386	0.116822	-0.209474	0.171345	0.0281177	0.219405	-0.161779	0.125757	-0.209247	0.122108	-0.021541	0.150285	-0.117708	0.196715	
1.84173	0	0	-0.119778	0.100149	-0.019837	0.23537	-0.15482	0.16685	0.03121	0.397772	-0.231647	0.142559	-0.085781	0.238114	-0.120864	0.172191	-0.006042	0.133043	-0.090144	0.163538	-0.00294	0.121214	-0.203667	0.169913	0.039229	0.212144	-0.161779	0.125757	-0.209247	0.122108	-0.009065	0.138558	-0.117708	0.196715	
1.84173	0	0	-0.117913	0.0948772	-0.0235537	0.232679	-0.153909	0.164274	0.03007	0.386135	-0.230682	0.139833	-0.0816422	0.226417	-0.123906	0.166693	-0.012902	0.133721	-0.09233	0.157059	-0.001386	0.116822	-0.2073	0.165203	0.0322783	0.207646	-0.156354	0.110426	-0.202786	0.103849	-0.0241395	0.134126	-0.115509	0.180517	
1.83868	0	0	-0.116047	0.0896055	-0.0272705	0.229988	-0.152997	0.161697	0.02893	0.374498	-0.229718	0.137108	-0.0775035	0.21472	-0.126947	0.161194	-0.019762	0.134399	-0.094516	0.15058	0.000168	0.112431	-0.210933	0.160493	0.0253275	0.203148	-0.150929	0.095094	-0.196325	0.0855895	-0.039214	0.129695	-0.113311	0.16432	
1.83868	0	0	-0.114181	0.0843337	-0.0309873	0.227296	-0.152086	0.159121	0.02779	0.362861	-0.228753	0.134382	-0.0733647	0.203023	-0.129989	0.155695	-0.026622	0.135076	-0.096702	0.144101	0.001722	0.108039	-0.214567	0.155782	0.0183767	0.19865	-0.145505	0.0797625	-0.189864	0.0673303	-0.0542885	0.125263	-0.111113	0.148122	
1.83716	0	0	-0.112316	0.079062	-0.034704	0.224605	-0.151174	0.156545	0.02665	0.351224	-0.227789	0.131657	-0.069226	0.191326	-0.13303	0.150197	-0.033482	0.135754	-0.098888	0.137622	0.003276	0.103647	-0.2182	0.151072	0.011426	0.194152	-0.14008	0.064431	-0.183403	0.049071	-0.069363	0.120832	-0.108914	0.131924	
1.83716	0	0	-0.116982	0.0922475	-0.041951	0.2319	-0.150418	0.16596	0.0198168	0.355689	-0.222121	0.138437	-0.0770862	0.19197	-0.128839	0.152449	-0.0317317	0.130808	-0.093972	0.136386	0.003276	0.103647	-0.211306	0.146568	0.011426	0.194152	-0.14008	0.064431	-0.189965	0.0533585	-0.056905	0.109126	-0.108066	0.129527	
1.83716	0	0	-0.121648	0.105433	-0.049198	0.239195	-0.149663	0.175375	0.0129835	0.360154	-0.216454	0.145217	-0.0849465	0.192614	-0.124649	0.154701	-0.0299815	0.125862	-0.089056	0.135149	0.003276	0.103647	-0.204412	0.142063	0.011426	0.194152	-0.14008	0.064431	-0.196526	0.057646	-0.044447	0.09742	-0.107217	0.12713	
1.83411	0	0	-0.126313	0.118619	-0.056445	0.246489	-0.148907	0.18479	0.00615025	0.36462	-0.210786	0.151998	-0.0928068	0.193259	-0.120458	0.156952	-0.0282312	0.120915	-0.08414	0.133913	0.003276	0.103647	-0.197519	0.137559	0.011426	0.194152	-0.14008	0.064431	-0.203088	0.0619335	-0.031989	0.085714	-0.106369	0.124732	
1.83411	0	0	-0.130979	0.131804	-0.063692	0.253784	-0.148151	0.194205	-0.000683	0.369085	-0.205119	0.158778	-0.100667	0.193903	-0.116268	0.159204	-0.026481	0.115969	-0.079224	0.132677	0.003276	0.103647	-0.190625	0.133054	0.011426	0.194152	-0.14008	0.064431	-0.209649	0.066221	-0.019531	0.074008	-0.105521	0.122335	
1.83258	0	0	-0.128179	0.12389	-0.0613365	0.247127	-0.149064	0.196785	-0.0032435	0.361486	-0.198902	0.152618	-0.098601	0.188064	-0.118164	0.150467	-0.0247318	0.111025	-0.0805047	0.123639	0.0063815	0.09487	-0.186283	0.120783	0.0155812	0.182409	-0.144377	0.0584117	-0.212335	0.0595675	-0.0270683	0.071807	-0.10962	0.113966	
1.83258	0	0	-0.125379	0.115977	-0.058981	0.24047	-0.149977	0.199365	-0.005804	0.353888	-0.192686	0.146458	-0.096535	0.182225	-0.120059	0.14173	-0.0229825	0.106081	-0.0817855	0.114601	0.009487	0.086093	-0.181941	0.108511	0.0197365	0.170666	-0.148673	0.0523925	-0.215022	0.052914	-0.0346055	0.069606	-0.113719	0.105597	
1.83105	0	0	-0.122578	0.108063	-0.0566255	0.233812	-0.15089	0.201945	-0.0083645	0.346289	-0.186469	0.140298	-0.094469	0.176387	-0.121955	0.132992	-0.0212333	0.101138	-0.0830663	0.105564	0.0125925	0.077316	-0.177599	0.0962395	0.0238917	0.158923	-0.152969	0.0463733	-0.217708	0.0462605	-0.0421427	0.067405	-0.117817	0.097228	
1.83258	0	0	-0.119778	0.100149	-0.05427	0.227155	-0.151803	0.204525	-0.010925	0.33869	-0.180252	0.134138	-0.092403	0.170548	-0.123851	0.124255	-0.019484	0.096194	-0.084347	0.096526	0.015698	0.068539	-0.173257	0.083968	0.028047	0.14718	-0.157266	0.040354	-0.220394	0.039607	-0.04968	0.065204	-0.121916	0.088859	
1.83105	0	0	-0.116988	0.10441	-0.0554475	0.230483	-0.143901	0.205315	-0.009504	0.334674	-0.177895	0.138894	-0.0824752	0.164061	-0.116217	0.116776	-0.0177358	0.0912533	-0.084347	0.096526	0.015698	0.068539	-0.173257	0.083968	0.0190255	0.148565	-0.157266	0.040354	-0.212549	0.03168	-0.0480413	0.0605732	-0.121069	0.0864665	
1.83105	0	0	-0.114198	0.108671	-0.056625	0.233811	-0.135998	0.206105	-0.008083	0.330657	-0.175539	0.14365	-0.0725475	0.157574	-0.108583	0.109296	-0.0159875	0.0863125	-0.084347	0.096526	0.015698	0.068539	-0.173257	0.083968	0.010004	0.14995	-0.157266	0.040354	-0.204703	0.023753	-0.0464025	0.0559425	-0.120222	0.084074	
1.82953	0	0	-0.111408	0.112932	-0.0578025	0.237139	-0.128096	0.206896	-0.006662	0.326641	-0.173183	0.148406	-0.0626198	0.151087	-0.10095	0.101817	-0.0142393	0.0813717	-0.084347	0.096526	0.015698	0.068539	-0.173257	0.083968	0.0009825	0.151336	-0.157266	0.040354	-0.196858	0.015826	-0.0447637	0.0513118	-0.119376	0.0816815	
1.828	0	0	-0.108618	0.117193	-0.05898	0.240467	-0.120194	0.207686	-0.005241	0.322624	-0.170826	0.153162	-0.052692	0.1446	-0.093316	0.094337	-0.012491	0.076431	-0.084347	0.096526	0.015698	0.068539	-0.173257	0.083968	-0.008039	0.152721	-0.157266	0.040354	-0.189012	0.007899	-0.043125	0.046681	-0.118529	0.079289	
1.82648	0	0	-0.111408	0.112932	-0.06269	0.237775	-0.118367	0.202522	-0.0024005	0.314597	-0.168894	0.147702	-0.0584918	0.139421	-0.0952197	0.0856232	-0.0176	0.0721785	-0.0865377	0.090068	0.0203508	0.0553895	-0.170004	0.0747755	-0.003892	0.141001	-0.153209	0.0288875	-0.192992	0.00490175	-0.0490177	0.039862	-0.118042	0.0679442	
1.82648	0	0	-0.114198	0.108671	-0.0664	0.235084	-0.11654	0.197359	0.00044	0.306569	-0.166961	0.142241	-0.0642915	0.134241	-0.0971235	0.0769095	-0.022709	0.067926	-0.0887285	0.08361	0.0250035	0.04224	-0.166751	0.065583	0.000255	0.129281	-0.149151	0.017421	-0.196972	0.0019045	-0.0549105	0.033043	-0.117555	0.0565995	
1.82953	0	0	-0.116988	0.10441	-0.07011	0.232392	-0.114713	0.192196	0.0032805	0.298542	-0.165029	0.136781	-0.0700912	0.129061	-0.0990273	0.0681957	-0.027818	0.0636735	-0.0909193	0.077152	0.0296562	0.0290905	-0.163499	0.0563905	0.004402	0.117561	-0.145094	0.0059545	-0.200952	-0.00109275	-0.0608033	0.026224	-0.117068	0.0452548	
1.82342	0	0	-0.119778	0.100149	-0.07382	0.2297	-0.112886	0.187032	0.006121	0.290514	-0.163097	0.131321	-0.075891	0.123882	-0.100931	0.059482	-0.032927	0.059421	-0.09311	0.070694	0.034309	0.015941	-0.160246	0.047198	0.008549	0.105841	-0.141037	-0.005512	-0.204932	-0.00409	-0.066696	0.019405	-0.116581	0.03391	
1.82342	0	0	-0.116988	0.10441	-0.07011	0.232392	-0.104971	0.187816	0.00071775	0.290961	-0.159772	0.133346	-0.0659633	0.117395	-0.0944443	0.0552433	-0.032927	0.059421	-0.086381	0.0643263	0.034309	0.015941	-0.16133	0.050261	0.0106202	0.0999867	-0.142389	-0.0016915	-0.199664	-0.00473425	-0.0575288	0.0169695	-0.122012	0.039295	
1.8219	0	0	-0.114198	0.108671	-0.0664	0.235084	-0.0970565	0.1886	-0.0046855	0.291408	-0.156446	0.135371	-0.0560355	0.110908	-0.0879575	0.0510045	-0.032927	0.059421	-0.079652	0.0579585	0.034309	0.015941	-0.162413	0.053324	0.0126915	0.0941325	-0.143741	0.002129	-0.194395	-0.0053785	-0.0483615	0.014534	-0.127443	0.04468	
1.82495	0	0	-0.111408	0.112932	-0.06269	0.237775	-0.0891417	0.189384	-0.0100888	0.291855	-0.153121	0.137396	-0.0461077	0.104422	-0.0814707	0.0467658	-0.032927	0.059421	-0.072923	0.0515908	0.034309	0.015941	-0.163497	0.056387	0.0147627	0.0882783	-0.145093	0.0059495	-0.189127	-0.00602275	-0.0391942	0.0120985	-0.132873	0.050065	
1.82342	0	0	-0.108618	0.117193	-0.05898	0.240467	-0.081227	0.190168	-0.015492	0.292302	-0.149796	0.139421	-0.03618	0.097935	-0.074984	0.042527	-0.032927	0.059421	-0.066194	0.045223	0.034309	0.015941	-0.164581	0.05945	0.016834	0.082424	-0.146445	0.00977	-0.183859	-0.006667	-0.030027	0.009663	-0.138304	0.05545	
1.8219	0	0	-0.109543	0.10766	-0.0554487	0.230487	-0.078486	0.182421	-0.0044155	0.275822	-0.146898	0.131232	-0.0341182	0.0921075	-0.0746088	0.0273725	-0.0311815	0.0544885	-0.0683897	0.0387798	0.0292852	0.0124925	-0.155514	0.0488165	0.0189042	0.0765737	-0.14915	0.017416	-0.185147	-0.0030255	-0.0408302	0.016722	-0.140841	0.0626203	
1.82648	0	0	-0.110467	0.0981275	-0.0519175	0.220506	-0.075745	0.174675	0.006661	0.259342	-0.144001	0.123042	-0.0320565	0.08628	-0.0742335	0.012218	-0.029436	0.049556	-0.0705855	0.0323365	0.0242615	0.009044	-0.146448	0.038183	0.0209745	0.0707235	-0.151855	0.025062	-0.186436	0.000616	-0.0516335	0.023781	-0.143378	0.0697905	
1.82342	0	0	-0.111392	0.0885947	-0.0483862	0.210526	-0.073004	0.166928	0.0177375	0.242861	-0.141103	0.114852	-0.0299948	0.0804525	-0.0738583	-0.0029365	-0.0276905	0.0446235	-0.0727813	0.0258932	0.0192377	0.0055955	-0.137382	0.0275495	0.0230447	0.0648732	-0.154561	0.032708	-0.187724	0.0042575	-0.0624367	0.03084	-0.145915	0.0769607	
1.8219	0	0	-0.112316	0.079062	-0.044855	0.200546	-0.070263	0.159181	0.028814	0.226381	-0.138205	0.106663	-0.027933	0.074625	-0.073483	-0.018091	-0.025945	0.039691	-0.074977	0.01945	0.014214	0.002147	-0.128315	0.016916	0.025115	0.059023	-0.157266	0.040354	-0.189012	0.007899	-0.07324	0.037899	-0.148452	0.084131	
1.82495	0	0	-0.109524	0.0833182	-0.0399625	0.199906	-0.0676713	0.163443	0.028814	0.226381	-0.132944	0.103225	-0.027933	0.074625	-0.0788227	-0.0170835	-0.0242008	0.034761	-0.074977	0.01945	0.014214	0.002147	-0.129398	0.0199782	0.025115	0.059023	-0.148907	0.034892	-0.18374	0.0072545	-0.07324	0.037899	-0.143867	0.0811348	
1.82342	0	0	-0.106733	0.0875745	-0.03507	0.199266	-0.0650795	0.167706	0.028814	0.226381	-0.127683	0.099788	-0.027933	0.074625	-0.0841625	-0.016076	-0.0224565	0.029831	-0.074977	0.01945	0.014214	0.002147	-0.130482	0.0230405	0.025115	0.059023	-0.140547	0.02943	-0.178468	0.00661	-0.07324	0.037899	-0.139282	0.0781385	
1.82342	0	0	-0.103942	0.0918308	-0.0301775	0.198626	-0.0624878	0.171968	0.028814	0.226381	-0.122422	0.0963505	-0.027933	0.074625	-0.0895023	-0.0150685	-0.0207122	0.024901	-0.074977	0.01945	0.014214	0.002147	-0.131565	0.0261028	0.025115	0.059023	-0.132188	0.023968	-0.173195	0.0059655	-0.07324	0.037899	-0.134696	0.0751422	
1.82037	0	0	-0.10115	0.096087	-0.025285	0.197986	-0.059896	0.17623	0.028814	0.226381	-0.117161	0.092913	-0.027933	0.074625	-0.094842	-0.014061	-0.018968	0.019971	-0.074977	0.01945	0.014214	0.002147	-0.132648	0.029165	0.025115	0.059023	-0.123829	0.018506	-0.167923	0.005321	-0.07324	0.037899	-0.130111	0.072146	
1.8219	0	0	-0.106732	0.087579	-0.0278252	0.191979	-0.0606618	0.166807	0.0276545	0.214834	-0.121456	0.0936222	-0.0378605	0.0811117	-0.097895	-0.0195062	-0.0258185	0.0206593	-0.0767895	0.0245723	0.014214	0.002147	-0.126827	0.0277162	0.0230447	0.0648732	-0.12088	0.0283503	-0.166518	0.0156167	-0.0657112	0.0400945	-0.131451	0.0859012	
1.8219	0	0	-0.112314	0.079071	-0.0303655	0.185972	-0.0614275	0.157384	0.026495	0.203288	-0.125752	0.0943315	-0.047788	0.0875985	-0.100948	-0.0249515	-0.032669	0.0213475	-0.078602	0.0296945	0.014214	0.002147	-0.121006	0.0262675	0.0209745	0.0707235	-0.11793	0.0381945	-0.165112	0.0259125	-0.0581825	0.04229	-0.132791	0.0996565	
1.81885	0	0	-0.117896	0.070563	-0.0329057	0.179964	-0.0621932	0.147961	0.0253355	0.191741	-0.130047	0.0950408	-0.0577155	0.0940852	-0.104001	-0.0303968	-0.0395195	0.0220357	-0.0804145	0.0348168	0.014214	0.002147	-0.115185	0.0248188	0.0189042	0.0765737	-0.11498	0.0480387	-0.163707	0.0362082	-0.0506537	0.0444855	-0.134131	0.113412	
1.82037	0	0	-0.123478	0.062055	-0.035446	0.173957	-0.062959	0.138538	0.024176	0.180194	-0.134343	0.09575	-0.067643	0.100572	-0.107054	-0.035842	-0.04637	0.022724	-0.082227	0.039939	0.014214	0.002147	-0.109364	0.02337	0.016834	0.082424	-0.112031	0.057883	-0.162302	0.046504	-0.043125	0.046681	-0.135471	0.127167	
1.82037	0	0	-0.12441	0.0646883	-0.036622	0.17728	-0.064785	0.143699	0.0227613	0.184192	-0.131979	0.1005	-0.0597772	0.0999127	-0.100577	-0.0400742	-0.0395195	0.0220357	-0.077312	0.0386973	0.0126655	0.00652375	-0.109364	0.02337	0.016834	0.082424	-0.105011	0.0562422	-0.158314	0.0495122	-0.0447637	0.0513118	-0.131728	0.126563	
1.82037	0	0	-0.125341	0.0673215	-0.037798	0.180603	-0.066611	0.148859	0.0213465	0.188191	-0.129615	0.105249	-0.0519115	0.0992535	-0.0940995	-0.0443065	-0.032669	0.0213475	-0.072397	0.0374555	0.011117	0.0109005	-0.109364	0.02337	0.016834	0.082424	-0.0979915	0.0546015	-0.154327	0.0525205	-0.0464025	0.0559425	-0.127986	0.12596	
1.81579	0	0	-0.126273	0.0699547	-0.038974	0.183926	-0.068437	0.15402	0.0199317	0.19219	-0.127252	0.109998	-0.0440457	0.0985942	-0.0876222	-0.0485387	-0.0258185	0.0206593	-0.067482	0.0362138	0.0095685	0.0152773	-0.109364	0.02337	0.016834	0.082424	-0.0909718	0.0529608	-0.15034	0.0555288	-0.0480413	0.0605732	-0.124243	0.125357	
1.81885	0	0	-0.127205	0.072588	-0.04015	0.187249	-0.070263	0.159181	0.018517	0.196188	-0.124888	0.114748	-0.03618	0.097935	-0.081145	-0.052771	-0.018968	0.019971	-0.062567	0.034972	0.00802	0.019654	-0.109364	0.02337	0.016834	0.082424	-0.083952	0.05132	-0.146352	0.058537	-0.04968	0.065204	-0.1205	0.124753	
1.81885	0	0	-0.132788	0.076236	-0.04015	0.187249	-0.0755925	0.162663	0.0117	0.200642	-0.122524	0.119503	-0.0382435	0.103766	-0.0845692	-0.0430935	-0.018968	0.019971	-0.0603703	0.0414215	0.0145922	0.0187257	-0.105708	0.0280502	0.0237867	0.0868852	-0.0796395	0.0573477	-0.143655	0.0652045	-0.0421427	0.067405	-0.110956	0.127734	
1.81427	0	0	-0.138371	0.079884	-0.04015	0.187249	-0.080922	0.166146	0.004883	0.205097	-0.120159	0.124257	-0.040307	0.109598	-0.0879935	-0.033416	-0.018968	0.019971	-0.0581735	0.047871	0.0211645	0.0177975	-0.102051	0.0327305	0.0307395	0.0913465	-0.075327	0.0633755	-0.140958	0.071872	-0.0346055	0.069606	-0.101413	0.130715	
1.81427	0	0	-0.143954	0.083532	-0.04015	0.187249	-0.0862515	0.169628	-0.001934	0.209551	-0.117794	0.129012	-0.0423705	0.115429	-0.0914177	-0.0237385	-0.018968	0.019971	-0.0559767	0.0543205	0.0277367	0.0168693	-0.0983945	0.0374108	0.0376922	0.0958077	-0.0710145	0.0694032	-0.138261	0.0785395	-0.0270683	0.071807	-0.0918695	0.133696	
1.81579	0	0	-0.149537	0.08718	-0.04015	0.187249	-0.091581	0.173111	-0.008751	0.214005	-0.11543	0.133767	-0.044434	0.12126	-0.094842	-0.014061	-0.018968	0.019971	-0.05378	0.06077	0.034309	0.015941	-0.094738	0.042091	0.044645	0.100269	-0.066702	0.075431	-0.135564	0.085207	-0.019531	0.074008	-0.082326	0.136677	
1.81579	0	0	-0.152334	0.0950842	-0.0413262	0.190573	-0.087165	0.17221	-0.008751	0.214005	-0.11113	0.133058	-0.0386255	0.12644	-0.08836	-0.0182965	-0.0224577	0.0298335	-0.0528725	0.0582047	0.0327588	0.020322	-0.0878218	0.037572	0.044645	0.100269	-0.066702	0.075431	-0.130277	0.0845643	-0.0287075	0.0764403	-0.0860748	0.137282	
1.81732	0	0	-0.155131	0.102988	-0.0425025	0.193898	-0.082749	0.171309	-0.008751	0.214005	-0.106829	0.13235	-0.032817	0.131619	-0.081878	-0.022532	-0.0259475	0.039696	-0.051965	0.0556395	0.0312085	0.024703	-0.0809055	0.033053	0.044645	0.100269	-0.066702	0.075431	-0.12499	0.0839215	-0.037884	0.0788725	-0.0898235	0.137887	
1.81579	0	0	-0.157927	0.110893	-0.0436788	0.197222	-0.078333	0.170408	-0.008751	0.214005	-0.102529	0.131641	-0.0270085	0.136798	-0.075396	-0.0267675	-0.0294372	0.0495585	-0.0510575	0.0530742	0.0296583	0.029084	-0.0739892	0.028534	0.044645	0.100269	-0.066702	0.075431	-0.119702	0.0832787	-0.0470605	0.0813048	-0.0935722	0.138493	
1.81122	0	0	-0.160724	0.118797	-0.044855	0.200546	-0.073917	0.169507	-0.008751	0.214005	-0.098229	0.130933	-0.0212	0.141978	-0.068914	-0.031003	-0.032927	0.059421	-0.05015	0.050509	0.028108	0.033465	-0.067073	0.024015	0.044645	0.100269	-0.066702	0.075431	-0.114415	0.082636	-0.056237	0.083737	-0.097321	0.139098	
1.81274	0	0	-0.164457	0.129347	-0.0460315	0.203872	-0.071326	0.173771	-0.0033495	0.213551	-0.0948935	0.132958	-0.0232675	0.147821	-0.0669985	-0.0223223	-0.0260707	0.0587355	-0.0412105	0.0505857	0.0346865	0.0325363	-0.0623225	0.025628	0.0536823	0.0988705	-0.0623865	0.0814685	-0.111714	0.0893145	-0.0487015	0.0859428	-0.09152	0.142688	
1.81274	0	0	-0.16819	0.139897	-0.047208	0.207197	-0.068735	0.178036	0.002052	0.213097	-0.091558	0.134983	-0.025335	0.153664	-0.065083	-0.0136415	-0.0192145	0.05805	-0.032271	0.0506625	0.041265	0.0316075	-0.057572	0.027241	0.0627195	0.097472	-0.058071	0.087506	-0.109014	0.095993	-0.041166	0.0881485	-0.085719	0.146278	
1.81274	0	0	-0.171923	0.150447	-0.0483845	0.210523	-0.066144	0.1823	0.0074535	0.212643	-0.0882225	0.137008	-0.0274025	0.159506	-0.0631675	-0.00496075	-0.0123583	0.0573645	-0.0233315	0.0507392	0.0478435	0.0306787	-0.0528215	0.028854	0.0717568	0.0960735	-0.0537555	0.0935435	-0.106314	0.102671	-0.0336305	0.0903542	-0.079918	0.149868	
1.81274	0	0	-0.175656	0.160997	-0.049561	0.213848	-0.063553	0.186564	0.012855	0.212189	-0.084887	0.139033	-0.02947	0.165349	-0.061252	0.00372	-0.005502	0.056679	-0.014392	0.050816	0.054422	0.02975	-0.048071	0.030467	0.080794	0.094675	-0.04944	0.099581	-0.103613	0.10935	-0.026095	0.09256	-0.074117	0.153458	
1.80969	0	0	-0.171007	0.159989	-0.049561	0.213848	-0.0626387	0.18398	0.006038	0.216643	-0.0839193	0.136298	-0.021588	0.164693	-0.061252	0.00372	-0.00724925	0.061617	-0.0125758	0.0456835	0.054422	0.02975	-0.0469853	0.0273985	0.080794	0.094675	-0.0467217	0.0918988	-0.102317	0.105688	-0.0228135	0.0832863	-0.0707202	0.143858	
1.81274	0	0	-0.166358	0.15898	-0.049561	0.213848	-0.0617245	0.181397	-0.000779	0.221098	-0.0829515	0.133564	-0.013706	0.164038	-0.061252	0.00372	-0.0089965	0.066555	-0.0107595	0.040551	0.054422	0.02975	-0.0458995	0.02433	0.080794	0.094675	-0.0440035	0.0842165	-0.101021	0.102025	-0.019532	0.0740125	-0.0673235	0.134258	
1.81122	0	0	-0.161709	0.157971	-0.049561	0.213848	-0.0608102	0.178814	-0.007596	0.225552	-0.0819838	0.130829	-0.005824	0.163383	-0.061252	0.00372	-0.0107437	0.071493	-0.00894325	0.0354185	0.054422	0.02975	-0.0448137	0.0212615	0.080794	0.094675	-0.0412852	0.0765342	-0.099725	0.0983632	-0.0162505	0.0647387	-0.0639268	0.124658	
1.81274	0	0	-0.15706	0.156963	-0.049561	0.213848	-0.059896	0.17623	-0.014413	0.230006	-0.081016	0.128094	0.002058	0.162727	-0.061252	0.00372	-0.012491	0.076431	-0.007127	0.030286	0.054422	0.02975	-0.043728	0.018193	0.080794	0.094675	-0.038567	0.068852	-0.098429	0.094701	-0.012969	0.055465	-0.06053	0.115058	
1.80969	0	0	-0.151493	0.165513	-0.0519157	0.220503	-0.0626395	0.183983	-0.00360625	0.2291	-0.0757425	0.124648	-1.2E-05	0.168577	-0.0570485	0.00594475	-0.005628	0.075745	-0.0021975	0.0290375	0.0610075	0.0288183	-0.0368008	0.0136668	0.0787185	0.100541	-0.038567	0.068852	-0.0931333	0.0940562	-0.00377875	0.0530238	-0.06513	0.118064	
1.81274	0	0	-0.145926	0.174063	-0.0542705	0.227158	-0.065383	0.191737	0.0072005	0.228193	-0.070469	0.121202	-0.002082	0.174428	-0.052845	0.0081695	0.001235	0.075059	0.002732	0.027789	0.067593	0.0278865	-0.0298735	0.0091405	0.076643	0.106407	-0.038567	0.068852	-0.0878375	0.0934115	0.0054115	0.0505825	-0.06973	0.121069	
1.81427	0	0	-0.140359	0.182614	-0.0566253	0.233812	-0.0681265	0.19949	0.0180072	0.227287	-0.0651955	0.117756	-0.004152	0.180279	-0.0486415	0.0103943	0.008098	0.074373	0.0076615	0.0265405	0.0741785	0.0269547	-0.0229463	0.00461425	0.0745675	0.112272	-0.038567	0.068852	-0.0825417	0.0927667	0.0146018	0.0481412	-0.07433	0.124075	
1.81274	0	0	-0.134792	0.191164	-0.05898	0.240467	-0.07087	0.207243	0.028814	0.226381	-0.059922	0.11431	-0.006222	0.186129	-0.044438	0.012619	0.014961	0.073687	0.012591	0.025292	0.080764	0.026023	-0.016019	8.8E-05	0.072492	0.118138	-0.038567	0.068852	-0.077246	0.092122	0.023792	0.0457	-0.07893	0.127081	
1.81122	0	0	-0.134792	0.191164	-0.0566253	0.233812	-0.0734593	0.202974	0.0302308	0.222377	-0.0665982	0.110269	-0.00208325	0.174432	-0.0421497	0.00615225	0.014961	0.073687	0.0094765	0.021411	0.0741785	0.0269547	-0.020776	-0.00151925	0.072492	0.118138	-0.0426452	0.0803777	-0.0798395	0.0994512	0.020509	0.0549785	-0.082327	0.136681	
1.81427	0	0	-0.134792	0.191164	-0.0542705	0.227158	-0.0760485	0.198706	0.0316475	0.218373	-0.0732745	0.106228	0.0020555	0.162735	-0.0398615	-0.0003145	0.014961	0.073687	0.006362	0.01753	0.067593	0.0278865	-0.025533	-0.0031265	0.072492	0.118138	-0.0467235	0.0919035	-0.082433	0.106781	0.017226	0.064257	-0.085724	0.146282	
1.81274	0	0	-0.134792	0.191164	-0.0519157	0.220503	-0.0786377	0.194437	0.0330642	0.214369	-0.0799508	0.102186	0.00619425	0.151038	-0.0375732	-0.00678125	0.014961	0.073687	0.0032475	0.013649	0.0610075	0.0288183	-0.03029	-0.00473375	0.072492	0.118138	-0.0508017	0.103429	-0.0850265	0.11411	0.013943	0.0735355	-0.089121	0.155882	
1.81274	0	0	-0.134792	0.191164	-0.049561	0.213848	-0.081227	0.190168	0.034481	0.210365	-0.086627	0.098145	0.010333	0.139341	-0.035285	-0.013248	0.014961	0.073687	0.000133	0.009768	0.054422	0.02975	-0.035047	-0.006341	0.072492	0.118138	-0.05488	0.114955	-0.08762	0.121439	0.01066	0.082814	-0.092518	0.165482	
1.80969	0	0	-0.126409	0.191789	-0.0483845	0.210523	-0.0768085	0.189267	0.0330642	0.214369	-0.0856607	0.0954145	0.00826425	0.145187	-0.0364287	-0.010015	0.0218315	0.0729983	0.0041555	0.011083	0.0610075	0.0288183	-0.036132	-0.00327475	0.083618	0.110868	-0.05488	0.114955	-0.0810233	0.117128	0.0198615	0.080371	-0.0879178	0.162476	
1.80969	0	0	-0.118027	0.192413	-0.047208	0.207197	-0.07239	0.188366	0.0316475	0.218373	-0.0846945	0.092684	0.0061955	0.151034	-0.0375725	-0.006782	0.028702	0.0723095	0.008178	0.012398	0.067593	0.0278865	-0.037217	-0.0002085	0.094744	0.103599	-0.05488	0.114955	-0.0744265	0.112818	0.029063	0.077928	-0.0833175	0.15947	
1.80817	0	0	-0.109644	0.193038	-0.0460315	0.203872	-0.0679715	0.187465	0.0302308	0.222377	-0.0837283	0.0899535	0.00412675	0.156881	-0.0387163	-0.003549	0.0355725	0.0716207	0.0122005	0.013713	0.0741785	0.0269547	-0.038302	0.00285775	0.10587	0.0963288	-0.05488	0.114955	-0.0678297	0.108508	0.0382645	0.075485	-0.0787173	0.156464	
1.80817	0	0	-0.101261	0.193662	-0.044855	0.200546	-0.063553	0.186564	0.028814	0.226381	-0.082762	0.087223	0.002058	0.162727	-0.03986	-0.000316	0.042443	0.070932	0.016223	0.015028	0.080764	0.026023	-0.039387	0.005924	0.116996	0.089059	-0.05488	0.114955	-0.061233	0.104197	0.047466	0.073042	-0.074117	0.153458	
1.81122	0	0	-0.108708	0.190393	-0.0450427	0.1879	-0.0643172	0.177138	0.0248242	0.222833	-0.0880293	0.0906647	0.002058	0.162727	-0.0421492	0.006153	0.042443	0.070932	0.0175223	0.024048	0.0776585	0.0348	-0.0346308	0.00753325	0.112841	0.100802	-0.0435173	0.119363	-0.065127	0.115202	0.0425323	0.086985	-0.0708628	0.164267	
1.80664	0	0	-0.116155	0.187124	-0.0452305	0.175254	-0.0650815	0.167711	0.0208345	0.219285	-0.0932965	0.0941065	0.002058	0.162727	-0.0444385	0.012622	0.042443	0.070932	0.0188215	0.033068	0.074553	0.043577	-0.0298745	0.0091425	0.108686	0.112545	-0.0321545	0.123771	-0.069021	0.126207	0.0375985	0.100928	-0.0676085	0.175075	
1.80511	0	0	-0.123602	0.183856	-0.0454183	0.162608	-0.0658458	0.158284	0.0168447	0.215737	-0.0985638	0.0975483	0.002058	0.162727	-0.0467277	0.019091	0.042443	0.070932	0.0201207	0.042088	0.0714475	0.052354	-0.0251183	0.0107518	0.10453	0.124288	-0.0207917	0.128178	-0.072915	0.137212	0.0326647	0.114871	-0.0643543	0.185884	
1.80511	0	0	-0.131049	0.180587	-0.045606	0.149962	-0.06661	0.148858	0.012855	0.212189	-0.103831	0.10099	0.002058	0.162727	-0.049017	0.02556	0.042443	0.070932	0.02142	0.051108	0.068342	0.061131	-0.020362	0.012361	0.100375	0.136031	-0.009429	0.132586	-0.076809	0.148217	0.027731	0.128814	-0.0611	0.196693	
1.80664	0	0	-0.125455	0.176932	-0.0504923	0.150604	-0.06661	0.148858	0.012855	0.212189	-0.0985638	0.0975483	0.0120202	0.156218	-0.0436652	0.0245513	0.040693	0.0758782	0.0205108	0.0536775	0.066788	0.0655228	-0.020362	0.012361	0.0982955	0.141908	-0.0080665	0.128736	-0.076809	0.148217	0.0385892	0.121719	-0.0648538	0.197297	
1.80664	0	0	-0.119862	0.173277	-0.0553785	0.151246	-0.06661	0.148858	0.012855	0.212189	-0.0932965	0.0941065	0.0219825	0.149708	-0.0383135	0.0235425	0.038943	0.0808245	0.0196015	0.056247	0.065234	0.0699145	-0.020362	0.012361	0.096216	0.147786	-0.006704	0.124886	-0.076809	0.148217	0.0494475	0.114625	-0.0686075	0.1979	
1.80054	0	0	-0.114268	0.169622	-0.0602647	0.151888	-0.06661	0.148858	0.012855	0.212189	-0.0880293	0.0906647	0.0319448	0.143199	-0.0329617	0.0225337	0.037193	0.0857708	0.0186923	0.0588165	0.06368	0.0743063	-0.020362	0.012361	0.0941365	0.153663	-0.0053415	0.121035	-0.076809	0.148217	0.0603058	0.10753	-0.0723613	0.198503	
1.80359	0	0	-0.108674	0.165967	-0.065151	0.15253	-0.06661	0.148858	0.012855	0.212189	-0.082762	0.087223	0.041907	0.136689	-0.02761	0.021525	0.035443	0.090717	0.017783	0.061386	0.062126	0.078698	-0.020362	0.012361	0.092057	0.15954	-0.003979	0.117185	-0.076809	0.148217	0.071164	0.100435	-0.076115	0.199107	
1.80359	0	0	-0.117075	0.177557	-0.0639775	0.149213	-0.0675233	0.151439	0.012855	0.212189	-0.0856618	0.0954175	0.0398368	0.14254	-0.033342	0.037724	0.0336917	0.0956663	0.0199893	0.0678523	0.068716	0.0777697	-0.0156018	0.013971	0.101116	0.158142	-0.0053415	0.121035	-0.0715063	0.147574	0.0678705	0.109742	-0.0694565	0.200306	
1.80359	0	0	-0.125477	0.189146	-0.062804	0.145896	-0.0684365	0.154019	0.012855	0.212189	-0.0885615	0.103612	0.0377665	0.14839	-0.039074	0.053923	0.0319405	0.100615	0.0221955	0.0743185	0.075306	0.0768415	-0.0108415	0.015581	0.110175	0.156744	-0.006704	0.124886	-0.0662035	0.146932	0.064577	0.11905	-0.062798	0.201505	
1.80359	0	0	-0.133878	0.200736	-0.0616305	0.14258	-0.0693498	0.1566	0.012855	0.212189	-0.0914612	0.111807	0.0356962	0.154241	-0.044806	0.070122	0.0301893	0.105565	0.0244017	0.0807847	0.081896	0.0759133	-0.00608125	0.017191	0.119235	0.155346	-0.0080665	0.128736	-0.0609008	0.146289	0.0612835	0.128358	-0.0561395	0.202703	
1.80511	0	0	-0.14228	0.212326	-0.060457	0.139263	-0.070263	0.159181	0.012855	0.212189	-0.094361	0.120001	0.033626	0.160091	-0.050538	0.086321	0.028438	0.110514	0.026608	0.087251	0.088486	0.074985	-0.001321	0.018801	0.128294	0.153948	-0.009429	0.132586	-0.055598	0.145647	0.05799	0.137665	-0.049481	0.203902	
1.80817	0	0	-0.14228	0.212326	-0.060457	0.139263	-0.070263	0.159181	0.011439	0.216191	-0.093394	0.117268	0.033626	0.160091	-0.050538	0.086321	0.0370665	0.104876	0.0284283	0.0821065	0.088486	0.074985	-0.0002345	0.0157305	0.128294	0.153948	-0.0080665	0.128736	-0.054299	0.141976	0.0612835	0.128358	-0.0506835	0.197289	
1.80511	0	0	-0.14228	0.212326	-0.060457	0.139263	-0.070263	0.159181	0.010023	0.220193	-0.092427	0.114536	0.033626	0.160091	-0.050538	0.086321	0.045695	0.0992375	0.0302485	0.076962	0.088486	0.074985	0.000852	0.01266	0.128294	0.153948	-0.006704	0.124886	-0.053	0.138304	0.064577	0.11905	-0.051886	0.190676	
1.80359	0	0	-0.14228	0.212326	-0.060457	0.139263	-0.070263	0.159181	0.008607	0.224195	-0.09146	0.111804	0.033626	0.160091	-0.050538	0.086321	0.0543235	0.0935992	0.0320688	0.0718175	0.088486	0.074985	0.0019385	0.0095895	0.128294	0.153948	-0.0053415	0.121035	-0.051701	0.134633	0.0678705	0.109742	-0.0530885	0.184064	
1.80511	0	0	-0.14228	0.212326	-0.060457	0.139263	-0.070263	0.159181	0.007191	0.228197	-0.090493	0.109071	0.033626	0.160091	-0.050538	0.086321	0.062952	0.087961	0.033889	0.066673	0.088486	0.074985	0.003025	0.006519	0.128294	0.153948	-0.003979	0.117185	-0.050402	0.130962	0.071164	0.100435	-0.054291	0.177451	
1.80664	0	0	-0.138559	0.213965	-0.0676867	0.146537	-0.0711765	0.161762	0.0125968	0.227743	-0.0871565	0.111093	0.0435998	0.153574	-0.0486292	0.0950532	0.0611997	0.092913	0.032979	0.069245	0.0869305	0.0793813	0.003025	0.006519	0.126212	0.159833	-0.00261725	0.113337	-0.043795	0.126645	0.071164	0.100435	-0.0534403	0.175047	
1.80511	0	0	-0.134839	0.215604	-0.0749165	0.153811	-0.07209	0.164344	0.0180025	0.227289	-0.08382	0.113115	0.0535735	0.147057	-0.0467205	0.103786	0.0594475	0.097865	0.032069	0.071817	0.085375	0.0837775	0.003025	0.006519	0.124129	0.165718	-0.0012555	0.109488	-0.037188	0.122328	0.071164	0.100435	-0.0525895	0.172643	
1.80206	0	0	-0.131118	0.217242	-0.0821463	0.161085	-0.0730035	0.166926	0.0234082	0.226835	-0.0804835	0.115136	0.0635472	0.140539	-0.0448117	0.112518	0.0576952	0.102817	0.031159	0.074389	0.0838195	0.0881737	0.003025	0.006519	0.122047	0.171603	0.00010625	0.105639	-0.030581	0.11801	0.071164	0.100435	-0.0517388	0.170238	
1.80511	0	0	-0.127397	0.218881	-0.089376	0.168359	-0.073917	0.169507	0.028814	0.226381	-0.077147	0.117158	0.073521	0.134022	-0.042903	0.12125	0.055943	0.107769	0.030249	0.076961	0.082264	0.09257	0.003025	0.006519	0.119964	0.177488	0.001468	0.101791	-0.023974	0.113693	0.071164	0.100435	-0.050888	0.167834	
1.80206	0	0	-0.131118	0.217242	-0.0821463	0.161085	-0.076507	0.165247	0.0234082	0.226835	-0.0785508	0.109674	0.0656175	0.134689	-0.03831	0.108269	0.055943	0.107769	0.0280418	0.0704977	0.0838195	0.0881737	0.00628225	-0.00268625	0.112987	0.173001	-0.00421875	0.099593	-0.0279842	0.110672	0.0728093	0.0957848	-0.0549965	0.159439	
1.80511	0	0	-0.134839	0.215604	-0.0749165	0.153811	-0.079097	0.160988	0.0180025	0.227289	-0.0799545	0.10219	0.057714	0.135356	-0.033717	0.095289	0.055943	0.107769	0.0258345	0.0640345	0.085375	0.0837775	0.0095395	-0.0118915	0.106011	0.168514	-0.0099055	0.097395	-0.0319945	0.107651	0.0744545	0.0911345	-0.059105	0.151043	
1.80054	0	0	-0.138559	0.213965	-0.0676867	0.146537	-0.081687	0.156728	0.0125968	0.227743	-0.0813582	0.0947067	0.0498105	0.136022	-0.029124	0.0823085	0.055943	0.107769	0.0236273	0.0575713	0.0869305	0.0793813	0.0127967	-0.0210968	0.0990338	0.164027	-0.0155922	0.095197	-0.0360048	0.10463	0.0760997	0.0864842	-0.0632135	0.142648	
1.80054	0	0	-0.14228	0.212326	-0.060457	0.139263	-0.084277	0.152468	0.007191	0.228197	-0.082762	0.087223	0.041907	0.136689	-0.024531	0.069328	0.055943	0.107769	0.02142	0.051108	0.088486	0.074985	0.016054	-0.030302	0.092057	0.15954	-0.021279	0.092999	-0.040015	0.101609	0.077745	0.081834	-0.067322	0.134253	
1.80206	0	0	-0.133899	0.212955	-0.0628047	0.145898	-0.0807735	0.154146	0.0180072	0.227287	-0.0817963	0.084493	0.041907	0.136689	-0.019172	0.0683197	0.055943	0.107769	0.0281745	0.0447195	0.0900408	0.0705912	0.0149685	-0.0272347	0.103197	0.152261	-0.019919	0.0891555	-0.0387178	0.0979423	0.0810333	0.072541	-0.0664727	0.131853	
1.80359	0	0	-0.125518	0.213585	-0.0651525	0.152533	-0.07727	0.155824	0.0288235	0.226377	-0.0808305	0.081763	0.041907	0.136689	-0.013813	0.0673115	0.055943	0.107769	0.034929	0.038331	0.0915955	0.0661975	0.013883	-0.0241675	0.114337	0.144981	-0.018559	0.085312	-0.0374205	0.0942755	0.0843215	0.063248	-0.0656235	0.129453	
1.80206	0	0	-0.117137	0.214214	-0.0675002	0.159167	-0.0737665	0.157503	0.0396398	0.225467	-0.0798647	0.079033	0.041907	0.136689	-0.008454	0.0663033	0.055943	0.107769	0.0416835	0.0319425	0.0931502	0.0618038	0.0127975	-0.0211003	0.125478	0.137702	-0.017199	0.0814685	-0.0361233	0.0906088	0.0876098	0.053955	-0.0647743	0.127054	
1.80359	0	0	-0.108756	0.214843	-0.069848	0.165802	-0.070263	0.159181	0.050456	0.224557	-0.078899	0.076303	0.041907	0.136689	-0.003095	0.065295	0.055943	0.107769	0.048438	0.025554	0.094705	0.05741	0.011712	-0.018033	0.136618	0.130423	-0.015839	0.077625	-0.034826	0.086942	0.090898	0.044662	-0.063925	0.124654	
1.80511	0	0	-0.115265	0.208923	-0.070038	0.153181	-0.0710293	0.149767	0.0410558	0.221465	-0.078377	0.0633835	0.046043	0.125	-0.002722	0.050104	0.050818	0.103506	0.0394763	0.0254885	0.0896673	0.0539508	0.0138823	-0.0241665	0.127557	0.131825	-0.017199	0.0814685	-0.0401307	0.0875903	0.0783963	0.0564023	-0.0693742	0.130059	
1.80359	0	0	-0.121774	0.203004	-0.070228	0.140561	-0.0717955	0.140353	0.0316555	0.218373	-0.077855	0.050464	0.050179	0.113311	-0.002349	0.034913	0.045693	0.099243	0.0305145	0.025423	0.0846295	0.0504915	0.0160525	-0.0303	0.118497	0.133227	-0.018559	0.085312	-0.0454355	0.0882385	0.0658945	0.0681425	-0.0748235	0.135465	
1.79901	0	0	-0.128283	0.197084	-0.070418	0.12794	-0.0725618	0.13094	0.0222552	0.215281	-0.077333	0.0375445	0.054315	0.101621	-0.001976	0.019722	0.040568	0.09498	0.0215527	0.0253575	0.0795917	0.0470322	0.0182228	-0.0364335	0.109436	0.134629	-0.019919	0.0891555	-0.0507403	0.0888868	0.0533928	0.0798828	-0.0802728	0.14087	
1.79748	0	0	-0.134792	0.191164	-0.070608	0.115319	-0.073328	0.121526	0.012855	0.212189	-0.076811	0.024625	0.058451	0.089932	-0.001603	0.004531	0.035443	0.090717	0.012591	0.025292	0.074554	0.043573	0.020393	-0.042567	0.100375	0.136031	-0.021279	0.092999	-0.056045	0.089535	0.040891	0.091623	-0.085722	0.146276	
1.80054	0	0	-0.129198	0.187509	-0.0657242	0.114675	-0.073328	0.121526	0.0182615	0.211733	-0.076811	0.024625	0.058451	0.089932	-0.00810475	0.0087795	0.0440715	0.085079	0.0144065	0.020161	0.074554	0.043573	0.020393	-0.042567	0.100375	0.136031	-0.019919	0.0891555	-0.0547485	0.0858713	0.040891	0.091623	-0.084873	0.143876	
1.80054	0	0	-0.123605	0.183854	-0.0608405	0.114031	-0.073328	0.121526	0.023668	0.211277	-0.076811	0.024625	0.058451	0.089932	-0.0146065	0.013028	0.0527	0.079441	0.016222	0.01503	0.074554	0.043573	0.020393	-0.042567	0.100375	0.136031	-0.018559	0.085312	-0.053452	0.0822075	0.040891	0.091623	-0.084024	0.141477	
1.80359	0	0	-0.118011	0.180198	-0.0559567	0.113387	-0.073328	0.121526	0.0290745	0.210821	-0.076811	0.024625	0.058451	0.089932	-0.0211082	0.0172765	0.0613285	0.073803	0.0180375	0.009899	0.074554	0.043573	0.020393	-0.042567	0.100375	0.136031	-0.017199	0.0814685	-0.0521555	0.0785437	0.040891	0.091623	-0.083175	0.139077	
1.80054	0	0	-0.112417	0.176543	-0.051073	0.112743	-0.073328	0.121526	0.034481	0.210365	-0.076811	0.024625	0.058451	0.089932	-0.02761	0.021525	0.069957	0.068165	0.019853	0.004768	0.074554	0.043573	0.020393	-0.042567	0.100375	0.136031	-0.015839	0.077625	-0.050859	0.07488	0.040891	0.091623	-0.082326	0.136677	
1.80359	0	0	-0.112401	0.164345	-0.0536135	0.106764	-0.0731873	0.109556	0.0319047	0.202822	-0.0801475	0.0226175	0.060517	0.0840932	-0.0253202	0.0150535	0.0630785	0.0688567	0.0171292	0.0124657	0.066417	0.04889	0.0193082	-0.0395008	0.100375	0.136031	-0.0087905	0.0759742	-0.0521555	0.0785437	0.0484592	0.093826	-0.082824	0.148079	
1.80054	0	0	-0.112385	0.152147	-0.056154	0.100786	-0.0730465	0.097585	0.0293285	0.195279	-0.083484	0.02061	0.062583	0.0782545	-0.0230305	0.008582	0.0562	0.0695485	0.0144055	0.0201635	0.05828	0.054207	0.0182235	-0.0364345	0.100375	0.136031	-0.001742	0.0743235	-0.053452	0.0822075	0.0560275	0.096029	-0.083322	0.159481	
1.80359	0	0	-0.11237	0.139949	-0.0586945	0.0948067	-0.0729057	0.0856145	0.0267522	0.187737	-0.0868205	0.0186025	0.064649	0.0724158	-0.0207407	0.0021105	0.0493215	0.0702403	0.0116818	0.0278612	0.050143	0.059524	0.0171388	-0.0333683	0.100375	0.136031	0.0053065	0.0726728	-0.0547485	0.0858713	0.0635958	0.098232	-0.08382	0.170884	
1.80359	0	0	-0.112354	0.127751	-0.061235	0.088828	-0.072765	0.073644	0.024176	0.180194	-0.090157	0.016595	0.066715	0.066577	-0.018451	-0.004361	0.042443	0.070932	0.008958	0.035559	0.042006	0.064841	0.016054	-0.030302	0.100375	0.136031	0.012355	0.071022	-0.056045	0.089535	0.071164	0.100435	-0.084318	0.182286	
1.79596	0	0	-0.112354	0.127751	-0.0563502	0.0881815	-0.072765	0.073644	0.0309985	0.175736	-0.0891938	0.0138727	0.066715	0.066577	-0.0238032	-0.00334975	0.042443	0.070932	0.00986625	0.0329923	0.042006	0.064841	0.0149685	-0.0272347	0.100375	0.136031	0.0053065	0.0726728	-0.0547485	0.0858713	0.083681	0.088681	-0.0817678	0.175079	
1.79443	0	0	-0.112354	0.127751	-0.0514655	0.087535	-0.072765	0.073644	0.037821	0.171278	-0.0882305	0.0111505	0.066715	0.066577	-0.0291555	-0.0023385	0.042443	0.070932	0.0107745	0.0304255	0.042006	0.064841	0.013883	-0.0241675	0.100375	0.136031	-0.001742	0.0743235	-0.053452	0.0822075	0.096198	0.076927	-0.0792175	0.167872	
1.79596	0	0	-0.112354	0.127751	-0.0465807	0.0868885	-0.072765	0.073644	0.0446435	0.16682	-0.0872673	0.00842825	0.066715	0.066577	-0.0345078	-0.00132725	0.042443	0.070932	0.0116828	0.0278587	0.042006	0.064841	0.0127975	-0.0211003	0.100375	0.136031	-0.0087905	0.0759742	-0.0521555	0.0785437	0.108715	0.065173	-0.0766673	0.160665	
1.79443	0	0	-0.112354	0.127751	-0.041696	0.086242	-0.072765	0.073644	0.051466	0.162362	-0.086304	0.005706	0.066715	0.066577	-0.03986	-0.000316	0.042443	0.070932	0.012591	0.025292	0.042006	0.064841	0.011712	-0.018033	0.100375	0.136031	-0.015839	0.077625	-0.050859	0.07488	0.121232	0.053419	-0.074117	0.153458	
1.79901	0	0	-0.116076	0.126126	-0.0465807	0.0868885	-0.0753578	0.0694065	0.0432287	0.170819	-0.0882307	0.0111513	0.0625815	0.0782585	-0.0367975	0.00514425	0.0493215	0.0702403	0.0147983	0.031746	0.047036	0.0683052	0.0153922	-0.0133583	0.107355	0.14051	-0.017199	0.0814685	-0.0442572	0.0705662	0.108715	0.065173	-0.0691605	0.159456	
1.79596	0	0	-0.119799	0.1245	-0.0514655	0.087535	-0.0779505	0.065169	0.0349915	0.179275	-0.0901575	0.0165965	0.058448	0.08994	-0.033735	0.0106045	0.0562	0.0695485	0.0170055	0.0382	0.052066	0.0717695	0.0190725	-0.0086835	0.114335	0.144989	-0.018559	0.085312	-0.0376555	0.0662525	0.096198	0.076927	-0.064204	0.165455	
1.79596	0	0	-0.123521	0.122874	-0.0563502	0.0881815	-0.0805432	0.0609315	0.0267543	0.187731	-0.0920843	0.0220418	0.0543145	0.101622	-0.0306725	0.0160647	0.0630785	0.0688567	0.0192128	0.044654	0.057096	0.0752338	0.0227528	-0.00400875	0.121314	0.149469	-0.019919	0.0891555	-0.0310538	0.0619388	0.083681	0.088681	-0.0592475	0.171453	
1.79596	0	0	-0.127244	0.121249	-0.061235	0.088828	-0.083136	0.056694	0.018517	0.196188	-0.094011	0.027487	0.050181	0.113303	-0.02761	0.021525	0.069957	0.068165	0.02142	0.051108	0.062126	0.078698	0.026433	0.000666	0.128294	0.153948	-0.021279	0.092999	-0.024452	0.057625	0.071164	0.100435	-0.054291	0.177451	
1.79291	0	0	-0.127244	0.121249	-0.0624065	0.0921388	-0.0840458	0.0592652	0.018517	0.196188	-0.0877835	0.0213243	0.0522485	0.10746	-0.026465	0.0182885	0.069957	0.068165	0.0164875	0.052356	0.0555428	0.0796233	0.026433	0.000666	0.128294	0.153948	-0.025601	0.0869622	-0.0284628	0.0546158	0.0760975	0.0864917	-0.0508895	0.167838	
1.79596	0	0	-0.127244	0.121249	-0.063578	0.0954495	-0.0849555	0.0618365	0.018517	0.196188	-0.081556	0.0151615	0.054316	0.101617	-0.02532	0.015052	0.069957	0.068165	0.011555	0.053604	0.0489595	0.0805485	0.026433	0.000666	0.128294	0.153948	-0.029923	0.0809255	-0.0324735	0.0516065	0.081031	0.0725485	-0.047488	0.158225	
1.79291	0	0	-0.127244	0.121249	-0.0647495	0.0987602	-0.0858653	0.0644077	0.018517	0.196188	-0.0753285	0.00899875	0.0563835	0.0957747	-0.024175	0.0118155	0.069957	0.068165	0.0066225	0.054852	0.0423762	0.0814737	0.026433	0.000666	0.128294	0.153948	-0.034245	0.0748888	-0.0364843	0.0485972	0.0859645	0.0586052	-0.0440865	0.148612	
1.79291	0	0	-0.127244	0.121249	-0.065921	0.102071	-0.086775	0.066979	0.018517	0.196188	-0.069101	0.002836	0.058451	0.089932	-0.02303	0.008579	0.069957	0.068165	0.00169	0.0561	0.035793	0.082399	0.026433	0.000666	0.128294	0.153948	-0.038567	0.068852	-0.040495	0.045588	0.090898	0.044662	-0.040685	0.138999	
1.79443	0	0	-0.13098	0.131808	-0.0633818	0.108053	-0.0895057	0.0746965	0.022508	0.199732	-0.0710285	0.00828325	0.0642888	0.0951043	-0.0199647	0.0140433	0.0682058	0.073114	0.0066225	0.054852	0.0423762	0.0814737	0.0253463	0.0037375	0.128294	0.153948	-0.038567	0.068852	-0.040495	0.045588	0.090898	0.044662	-0.040685	0.138999	
1.79138	0	0	-0.134717	0.142368	-0.0608425	0.114035	-0.0922365	0.082414	0.026499	0.203276	-0.072956	0.0137305	0.0701265	0.100276	-0.0168995	0.0195075	0.0664545	0.078063	0.011555	0.053604	0.0489595	0.0805485	0.0242595	0.006809	0.128294	0.153948	-0.038567	0.068852	-0.040495	0.045588	0.090898	0.044662	-0.040685	0.138999	
1.79291	0	0	-0.138453	0.152927	-0.0583033	0.120018	-0.0949673	0.0901315	0.03049	0.206821	-0.0748835	0.0191778	0.0759642	0.105449	-0.0138342	0.0249718	0.0647032	0.083012	0.0164875	0.052356	0.0555428	0.0796233	0.0231728	0.0098805	0.128294	0.153948	-0.038567	0.068852	-0.040495	0.045588	0.090898	0.044662	-0.040685	0.138999	
1.79138	0	0	-0.142189	0.163487	-0.055764	0.126	-0.097698	0.097849	0.034481	0.210365	-0.076811	0.024625	0.081802	0.110621	-0.010769	0.030436	0.062952	0.087961	0.02142	0.051108	0.062126	0.078698	0.022086	0.012952	0.128294	0.153948	-0.038567	0.068852	-0.040495	0.045588	0.090898	0.044662	-0.040685	0.138999	
1.79138	0	0	-0.146841	0.164496	-0.055764	0.126	-0.0967875	0.0952758	0.034481	0.210365	-0.0739203	0.0164555	0.0738967	0.111292	-0.0084775	0.0239598	0.062952	0.087961	0.0250543	0.040837	0.06368	0.0743063	0.0173208	0.0113437	0.130375	0.148067	-0.042886	0.0628245	-0.0379058	0.0382707	0.0849658	0.0378355	-0.0473443	0.137813	
1.78985	0	0	-0.151493	0.165505	-0.055764	0.126	-0.095877	0.0927025	0.034481	0.210365	-0.0710295	0.008286	0.0659915	0.111962	-0.006186	0.0174835	0.062952	0.087961	0.0286885	0.030566	0.065234	0.0699145	0.0125555	0.0097355	0.132456	0.142186	-0.047205	0.056797	-0.0353165	0.0309535	0.0790335	0.031009	-0.0540035	0.136626	
1.79138	0	0	-0.156145	0.166515	-0.055764	0.126	-0.0949665	0.0901292	0.034481	0.210365	-0.0681387	0.0001165	0.0580863	0.112632	-0.0038945	0.0110072	0.062952	0.087961	0.0323228	0.020295	0.066788	0.0655228	0.00779025	0.00812725	0.134537	0.136304	-0.051524	0.0507695	-0.0327272	0.0236362	0.0731013	0.0241825	-0.0606628	0.13544	
1.79138	0	0	-0.160797	0.167524	-0.055764	0.126	-0.094056	0.087556	0.034481	0.210365	-0.065248	-0.008053	0.050181	0.113303	-0.001603	0.004531	0.062952	0.087961	0.035957	0.010024	0.068342	0.061131	0.003025	0.006519	0.136618	0.130423	-0.055843	0.044742	-0.030138	0.016319	0.067169	0.017356	-0.067322	0.134253	
1.79291	0	0	-0.154296	0.173434	-0.059285	0.135951	-0.0870507	0.0908952	0.0262417	0.218827	-0.060944	-0.0087725	0.0481125	0.11915	0.002612	0.00675575	0.0715892	0.0823172	0.035049	0.0125907	0.068342	0.061131	0.008877	0.00505575	0.134537	0.136304	-0.0544865	0.0409083	-0.0341478	0.0133183	0.057965	0.0198063	-0.0664727	0.131853	
1.78985	0	0	-0.147794	0.179344	-0.062806	0.145901	-0.0800455	0.0942345	0.0180025	0.227289	-0.05664	-0.009492	0.046044	0.124996	0.006827	0.0089805	0.0802265	0.0766735	0.034141	0.0151575	0.068342	0.061131	0.014729	0.0035925	0.132456	0.142186	-0.05313	0.0370745	-0.0381575	0.0103175	0.048761	0.0222565	-0.0656235	0.129453	
1.78985	0	0	-0.141293	0.185254	-0.066327	0.155852	-0.0730403	0.0975738	0.00976325	0.23575	-0.052336	-0.0102115	0.0439755	0.130843	0.011042	0.0112052	0.0888638	0.0710298	0.033233	0.0177243	0.068342	0.061131	0.020581	0.00212925	0.130375	0.148067	-0.0517735	0.0332407	-0.0421673	0.00731675	0.039557	0.0247067	-0.0647743	0.127054	
1.79291	0	0	-0.134792	0.191164	-0.069848	0.165802	-0.066035	0.100913	0.001524	0.244212	-0.048032	-0.010931	0.041907	0.136689	0.015257	0.01343	0.097501	0.065386	0.032325	0.020291	0.068342	0.061131	0.026433	0.000666	0.128294	0.153948	-0.050417	0.029407	-0.046177	0.004316	0.030353	0.027157	-0.063925	0.124654	
1.79138	0	0	-0.136641	0.184245	-0.066327	0.155852	-0.068628	0.096669	0.00435675	0.236206	-0.052336	-0.0102115	0.041907	0.136689	0.011042	0.0112052	0.0888638	0.0710298	0.0295988	0.0279952	0.0652332	0.0699167	0.024259	0.00681025	0.126212	0.159833	-0.0531305	0.037076	-0.048764	0.0116273	0.0270718	0.0364307	-0.065271	0.138458	
1.78985	0	0	-0.138491	0.177325	-0.062806	0.145901	-0.071221	0.092425	0.0071895	0.228201	-0.05664	-0.009492	0.041907	0.136689	0.006827	0.0089805	0.0802265	0.0766735	0.0268725	0.0356995	0.0621245	0.0787025	0.022085	0.0129545	0.124129	0.165718	-0.055844	0.044745	-0.051351	0.0189385	0.0237905	0.0457045	-0.066617	0.152262	
1.79443	0	0	-0.14034	0.170406	-0.059285	0.135951	-0.073814	0.088181	0.0100222	0.220195	-0.060944	-0.0087725	0.041907	0.136689	0.002612	0.00675575	0.0715892	0.0823172	0.0241463	0.0434038	0.0590157	0.0874882	0.019911	0.0190988	0.122047	0.171603	-0.0585575	0.052414	-0.053938	0.0262498	0.0205092	0.0549783	-0.067963	0.166067	
1.79596	0	0	-0.142189	0.163487	-0.055764	0.126	-0.076407	0.083937	0.012855	0.212189	-0.065248	-0.008053	0.041907	0.136689	-0.001603	0.004531	0.062952	0.087961	0.02142	0.051108	0.055907	0.096274	0.017737	0.025243	0.119964	0.177488	-0.061271	0.060083	-0.056525	0.033561	0.017228	0.064252	-0.069309	0.179871	
1.79291	0	0	-0.142189	0.163487	-0.0581108	0.132632	-0.0719915	0.0830308	0.011439	0.216191	-0.060944	-0.0087725	0.041907	0.136689	-0.00274875	0.0077685	0.0611997	0.092913	0.0263563	0.049858	0.0640517	0.0909517	0.0107985	0.0297768	0.122047	0.171603	-0.059914	0.0562477	-0.0552312	0.0299045	0.0205092	0.0549783	-0.069309	0.179871	
1.78985	0	0	-0.142189	0.163487	-0.0604575	0.139265	-0.067576	0.0821245	0.010023	0.220193	-0.05664	-0.009492	0.041907	0.136689	-0.0038945	0.011006	0.0594475	0.097865	0.0312925	0.048608	0.0721965	0.0856295	0.00386	0.0343105	0.124129	0.165718	-0.058557	0.0524125	-0.0539375	0.026248	0.0237905	0.0457045	-0.069309	0.179871	
1.78985	0	0	-0.142189	0.163487	-0.0628043	0.145898	-0.0631605	0.0812182	0.008607	0.224195	-0.052336	-0.0102115	0.041907	0.136689	-0.00504025	0.0142435	0.0576952	0.102817	0.0362288	0.047358	0.0803413	0.0803072	-0.0030785	0.0388442	0.126212	0.159833	-0.0572	0.0485772	-0.0526438	0.0225915	0.0270718	0.0364307	-0.069309	0.179871	
1.79138	0	0	-0.142189	0.163487	-0.065151	0.15253	-0.058745	0.080312	0.007191	0.228197	-0.048032	-0.010931	0.041907	0.136689	-0.006186	0.017481	0.055943	0.107769	0.041165	0.046108	0.088486	0.074985	-0.010017	0.043378	0.128294	0.153948	-0.055843	0.044742	-0.05135	0.018935	0.030353	0.027157	-0.069309	0.179871	
