0.717	5.41839	0	0	-0.831996	-0.204813	-0.202598	0.35485	-0.119858	0.175119	-0.090586	0.320824	0.008712	-0.002385	0.012399	0.310895	-0.118693	0.043022	0.011283	0.45242	-0.179988	0.035595	-0.334363	0.128934	-0.14002	0.079389	-0.220393	0.020433	-0.212297	0.08349	0.021971	0.181967	-0.313724	0.25622	0.01384	0.36519	
0.715251	5.41534	0	0	-0.835404	-0.207423	-0.199156	0.345122	-0.120977	0.167672	-0.095141	0.316641	0.002165	0.00023925	0.00662475	0.3038	-0.123783	0.0371505	0.0018585	0.451152	-0.180797	0.0378813	-0.335844	0.133118	-0.139148	0.0861565	-0.229923	0.0331523	-0.209598	0.0888647	0.022713	0.188187	-0.309017	0.260172	0.0084245	0.380495	
0.713108	5.41687	0	0	-0.838812	-0.210033	-0.195713	0.335394	-0.122096	0.160224	-0.099696	0.312458	-0.004382	0.0028635	0.0008505	0.296705	-0.128873	0.031279	-0.007566	0.449883	-0.181606	0.0401675	-0.337324	0.137302	-0.138275	0.092924	-0.239452	0.0458715	-0.206899	0.0942395	0.023455	0.194407	-0.304311	0.264124	0.003009	0.3958	
0.710697	5.41077	0	0	-0.84222	-0.212643	-0.192271	0.325665	-0.123215	0.152777	-0.104251	0.308276	-0.010929	0.00548775	-0.00492375	0.28961	-0.133962	0.0254075	-0.0169905	0.448615	-0.182415	0.0424537	-0.338805	0.141486	-0.137403	0.0996915	-0.248981	0.0585907	-0.2042	0.0996143	0.024197	0.200627	-0.299604	0.268076	-0.0024065	0.411106	
0.708144	5.41382	0	0	-0.845628	-0.215253	-0.188829	0.315937	-0.124334	0.14533	-0.108806	0.304093	-0.017476	0.008112	-0.010698	0.282515	-0.139052	0.019536	-0.026415	0.447347	-0.183224	0.04474	-0.340285	0.14567	-0.136531	0.106459	-0.258511	0.07131	-0.201501	0.104989	0.024939	0.206847	-0.294897	0.272028	-0.007822	0.426411	
0.705575	5.40466	0	0	-0.844515	-0.218397	-0.192936	0.309283	-0.125455	0.137894	-0.105514	0.29479	-0.0276655	0.0131167	-0.0164665	0.275434	-0.144138	0.0136738	-0.0294147	0.441889	-0.184846	0.0405288	-0.332577	0.137417	-0.137403	0.0996915	-0.248981	0.0585907	-0.203105	0.0965215	0.021142	0.200948	-0.291663	0.262887	-0.0109785	0.422588	
0.703116	5.40619	0	0	-0.843403	-0.221541	-0.197043	0.302629	-0.126576	0.130458	-0.102223	0.285488	-0.037855	0.0181215	-0.022235	0.268352	-0.149223	0.0078115	-0.0324145	0.43643	-0.186468	0.0363175	-0.324869	0.129163	-0.138275	0.092924	-0.239452	0.0458715	-0.20471	0.088054	0.017345	0.195049	-0.288428	0.253746	-0.014135	0.418764	
0.700894	5.40314	0	0	-0.842291	-0.224685	-0.20115	0.295976	-0.127696	0.123021	-0.0989315	0.276185	-0.0480445	0.0231263	-0.0280035	0.261271	-0.154309	0.00194925	-0.0354142	0.430972	-0.188091	0.0321063	-0.31716	0.12091	-0.139148	0.0861565	-0.229923	0.0331523	-0.206315	0.0795865	0.013548	0.18915	-0.285194	0.244606	-0.0172915	0.414941	
0.699035	5.40008	0	0	-0.841178	-0.227829	-0.205257	0.289322	-0.128817	0.115585	-0.09564	0.266882	-0.058234	0.028131	-0.033772	0.25419	-0.159394	-0.003913	-0.038414	0.425514	-0.189713	0.027895	-0.309452	0.112657	-0.14002	0.079389	-0.220393	0.020433	-0.207919	0.071119	0.009751	0.183251	-0.28196	0.235465	-0.020448	0.411118	
0.697665	5.39551	0	0	-0.842291	-0.224685	-0.198571	0.288687	-0.125816	0.117707	-0.0972853	0.271532	-0.058234	0.028131	-0.033772	0.25419	-0.154739	-0.00695475	-0.0448232	0.429702	-0.188905	0.0256108	-0.31568	0.116726	-0.138333	0.074621	-0.221887	0.0246545	-0.217687	0.0727488	0.00977875	0.174863	-0.280344	0.230898	-0.0222505	0.403477	
0.696911	5.39398	0	0	-0.843403	-0.221541	-0.191885	0.288051	-0.122815	0.119829	-0.0989305	0.276182	-0.058234	0.028131	-0.033772	0.25419	-0.150084	-0.0099965	-0.0512325	0.43389	-0.188096	0.0233265	-0.321908	0.120796	-0.136646	0.069853	-0.223381	0.028876	-0.227456	0.0743785	0.0098065	0.166475	-0.278728	0.226331	-0.024053	0.395835	
0.696898	5.39245	0	0	-0.844515	-0.218397	-0.185199	0.287415	-0.119814	0.121951	-0.100576	0.280832	-0.058234	0.028131	-0.033772	0.25419	-0.145428	-0.0130383	-0.0576417	0.438078	-0.187288	0.0210422	-0.328135	0.124865	-0.134958	0.065085	-0.224874	0.0330975	-0.237225	0.0760082	0.00983425	0.158087	-0.277112	0.221764	-0.0258555	0.388193	
0.697721	5.39398	0	0	-0.845628	-0.215253	-0.178513	0.28678	-0.116813	0.124073	-0.102221	0.285482	-0.058234	0.028131	-0.033772	0.25419	-0.140773	-0.01608	-0.064051	0.442266	-0.18648	0.018758	-0.334363	0.128934	-0.133271	0.060317	-0.226368	0.037319	-0.246993	0.077638	0.009862	0.149699	-0.275496	0.217197	-0.027658	0.380552	
0.699239	5.39093	0	0	-0.850146	-0.214718	-0.187777	0.294701	-0.119814	0.121951	-0.107596	0.283633	-0.058234	0.028131	-0.0391483	0.257703	-0.146485	-0.0100528	-0.064051	0.442266	-0.184857	0.0229673	-0.328135	0.124865	-0.131553	0.0646938	-0.227862	0.0415425	-0.243205	0.0799158	0.00832175	0.154052	-0.269163	0.21657	-0.024502	0.384368	
0.701199	5.3894	0	0	-0.854664	-0.214182	-0.197041	0.302621	-0.122815	0.119829	-0.112972	0.281784	-0.058234	0.028131	-0.0445245	0.261216	-0.152196	-0.0040255	-0.064051	0.442266	-0.183234	0.0271765	-0.321908	0.120796	-0.129835	0.0690705	-0.229357	0.045766	-0.239416	0.0821935	0.0067815	0.158406	-0.262831	0.215944	-0.021346	0.388184	
0.703349	5.38483	0	0	-0.859182	-0.213647	-0.206304	0.310542	-0.125816	0.117707	-0.118347	0.279934	-0.058234	0.028131	-0.0499008	0.264729	-0.157907	0.00200175	-0.064051	0.442266	-0.181611	0.0313858	-0.31568	0.116726	-0.128117	0.0734473	-0.230851	0.0499895	-0.235628	0.0844712	0.00524125	0.162759	-0.256499	0.215317	-0.01819	0.392	
0.705438	5.38483	0	0	-0.8637	-0.213112	-0.215568	0.318463	-0.128817	0.115585	-0.123722	0.278085	-0.058234	0.028131	-0.055277	0.268242	-0.163619	0.008029	-0.064051	0.442266	-0.179988	0.035595	-0.309452	0.112657	-0.126399	0.077824	-0.232345	0.054213	-0.23184	0.086749	0.003701	0.167112	-0.250166	0.21469	-0.015034	0.395816	
0.707214	5.3772	0	0	-0.868215	-0.212578	-0.219669	0.31181	-0.130878	0.110811	-0.125175	0.273677	-0.0655267	0.032896	-0.059788	0.25765	-0.166589	-0.0037895	-0.065341	0.431996	-0.179995	0.0268188	-0.3142	0.112544	-0.130678	0.0714567	-0.235898	0.0500422	-0.237816	0.0906538	0.0006485	0.167433	-0.266056	0.225073	-0.0177418	0.403469	
0.708497	5.3772	0	0	-0.872729	-0.212044	-0.22377	0.305157	-0.132939	0.106038	-0.126628	0.269269	-0.0728195	0.037661	-0.064299	0.247058	-0.169559	-0.015608	-0.066631	0.421726	-0.180002	0.0180425	-0.318948	0.112431	-0.134957	0.0650895	-0.239451	0.0458715	-0.243791	0.0945585	-0.002404	0.167754	-0.281945	0.235455	-0.0204495	0.411122	
0.709302	5.37414	0	0	-0.877244	-0.211511	-0.227871	0.298505	-0.135	0.101264	-0.128081	0.26486	-0.0801122	0.042426	-0.06881	0.236466	-0.17253	-0.0274265	-0.067921	0.411456	-0.180009	0.00926625	-0.323696	0.112319	-0.139235	0.0587223	-0.243005	0.0417008	-0.249767	0.0984633	-0.0054565	0.168075	-0.297835	0.245837	-0.0231572	0.418774	
0.709675	5.36957	0	0	-0.881759	-0.210977	-0.231972	0.291852	-0.137061	0.096491	-0.129534	0.260452	-0.087405	0.047191	-0.073321	0.225874	-0.1755	-0.039245	-0.069211	0.401186	-0.180016	0.00049	-0.328444	0.112206	-0.143514	0.052355	-0.246558	0.03753	-0.255743	0.102368	-0.008509	0.168396	-0.313724	0.25622	-0.025865	0.426427	
0.709663	5.36957	0	0	-0.881759	-0.210977	-0.231972	0.291852	-0.141936	0.0996762	-0.128713	0.25813	-0.0939305	0.049802	-0.0749543	0.21883	-0.175933	-0.0481195	-0.0722055	0.395744	-0.184071	-0.00563025	-0.325487	0.103848	-0.14779	0.0459982	-0.242081	0.0248775	-0.257341	0.0939095	-0.009251	0.16219	-0.318427	0.252273	-0.0348762	0.426432	
0.709312	5.36346	0	0	-0.881759	-0.210977	-0.231972	0.291852	-0.146811	0.102861	-0.127891	0.255808	-0.100456	0.052413	-0.0765875	0.211787	-0.176366	-0.056994	-0.0752	0.390302	-0.188126	-0.0117505	-0.32253	0.09549	-0.152066	0.0396415	-0.237604	0.012225	-0.258939	0.085451	-0.009993	0.155985	-0.32313	0.248326	-0.0438875	0.426436	
0.708668	5.36957	0	0	-0.881759	-0.210977	-0.231972	0.291852	-0.151685	0.106047	-0.12707	0.253487	-0.106981	0.055024	-0.0782207	0.204743	-0.176798	-0.0658685	-0.0781945	0.384861	-0.19218	-0.0178707	-0.319572	0.087132	-0.156342	0.0332848	-0.233127	-0.0004275	-0.260538	0.0769925	-0.010735	0.14978	-0.327832	0.244378	-0.0528988	0.426441	
0.70777	5.37414	0	0	-0.881759	-0.210977	-0.231972	0.291852	-0.15656	0.109232	-0.126248	0.251165	-0.113507	0.057635	-0.079854	0.1977	-0.177231	-0.074743	-0.081189	0.379419	-0.196235	-0.023991	-0.316615	0.078774	-0.160618	0.026928	-0.22865	-0.01308	-0.262136	0.068534	-0.011477	0.143574	-0.332535	0.240431	-0.06191	0.426446	
0.706649	5.38635	0	0	-0.887382	-0.207303	-0.230351	0.296391	-0.157499	0.111885	-0.127891	0.255809	-0.113507	0.057635	-0.079854	0.1977	-0.179771	-0.0776575	-0.0841825	0.373984	-0.192997	-0.0243535	-0.318093	0.082952	-0.158059	0.028915	-0.225093	-0.00892125	-0.261043	0.0654465	-0.009195	0.145427	-0.33415	0.244996	-0.0470332	0.422608	
0.705335	5.40771	0	0	-0.893005	-0.203628	-0.228731	0.30093	-0.158438	0.114538	-0.129534	0.260453	-0.113507	0.057635	-0.079854	0.1977	-0.18231	-0.080572	-0.087176	0.36855	-0.189759	-0.024716	-0.319572	0.08713	-0.1555	0.030902	-0.221535	-0.0047625	-0.259951	0.062359	-0.006913	0.147281	-0.335766	0.24956	-0.0321565	0.418771	
0.70386	5.4306	0	0	-0.898629	-0.199954	-0.22711	0.305469	-0.159376	0.11719	-0.131178	0.265097	-0.113507	0.057635	-0.079854	0.1977	-0.18485	-0.0834865	-0.0901695	0.363116	-0.186522	-0.0250785	-0.32105	0.091308	-0.152942	0.032889	-0.217978	-0.00060375	-0.258858	0.0592715	-0.004631	0.149134	-0.337381	0.254124	-0.0172798	0.414934	
0.702254	5.44891	0	0	-0.904252	-0.19628	-0.225489	0.310008	-0.160315	0.119843	-0.132821	0.269741	-0.113507	0.057635	-0.079854	0.1977	-0.18739	-0.086401	-0.093163	0.357681	-0.183284	-0.025441	-0.322528	0.095486	-0.150383	0.034876	-0.214421	0.003555	-0.257766	0.056184	-0.002349	0.150987	-0.338996	0.258689	-0.002403	0.411096	
0.700567	5.46875	0	0	-0.902029	-0.202563	-0.225393	0.300618	-0.162372	0.115071	-0.132632	0.260695	-0.120787	0.062392	-0.0814882	0.190666	-0.192466	-0.0922233	-0.097854	0.357054	-0.190564	-0.022437	-0.32105	0.091308	-0.148666	0.0392457	-0.212356	0.011942	-0.25019	0.0607335	0.004502	0.156553	-0.327971	0.262024	0.00708025	0.422579	
0.698986	5.47943	0	0	-0.899806	-0.208845	-0.225297	0.291228	-0.164429	0.110298	-0.132442	0.251648	-0.128068	0.067149	-0.0831225	0.183633	-0.197543	-0.0980455	-0.102545	0.356426	-0.197845	-0.019433	-0.319572	0.08713	-0.146948	0.0436155	-0.21029	0.020329	-0.242615	0.065283	0.011353	0.162119	-0.316947	0.265358	0.0165635	0.434063	
0.697745	5.46417	0	0	-0.897583	-0.215127	-0.225202	0.281838	-0.166486	0.105525	-0.132252	0.242602	-0.135348	0.071906	-0.0847567	0.176599	-0.202619	-0.103868	-0.107236	0.355799	-0.205126	-0.016429	-0.318093	0.082952	-0.145231	0.0479853	-0.208225	0.028716	-0.23504	0.0698325	0.018204	0.167685	-0.305922	0.268693	0.0260468	0.445547	
0.697081	5.51605	0	0	-0.89536	-0.22141	-0.225106	0.272448	-0.168543	0.100753	-0.132063	0.233556	-0.142628	0.076663	-0.086391	0.169566	-0.207695	-0.10969	-0.111927	0.355172	-0.212406	-0.013425	-0.316615	0.078774	-0.143514	0.052355	-0.20616	0.037103	-0.227464	0.074382	0.025055	0.173251	-0.294897	0.272028	0.03553	0.45703	
0.697232	5.52063	0	0	-0.898758	-0.224016	-0.22339	0.2676	-0.168543	0.100753	-0.135158	0.233795	-0.145505	0.0768905	-0.0921417	0.162537	-0.210231	-0.112598	-0.116614	0.354544	-0.208363	-0.0160665	-0.315137	0.074598	-0.147759	0.0551288	-0.203172	0.028658	-0.22637	0.0712913	0.025826	0.171072	-0.286948	0.266834	0.045939	0.45318	
0.69843	5.52063	0	0	-0.902156	-0.226623	-0.221675	0.262752	-0.168543	0.100753	-0.138252	0.234034	-0.148383	0.077118	-0.0978925	0.155508	-0.212768	-0.115505	-0.121301	0.353917	-0.204321	-0.018708	-0.313659	0.070422	-0.152004	0.0579025	-0.200184	0.020213	-0.225276	0.0682005	0.026597	0.168894	-0.279	0.26164	0.056348	0.449329	
0.700663	5.53131	0	0	-0.905554	-0.229229	-0.21996	0.257903	-0.168543	0.100753	-0.141347	0.234273	-0.15126	0.0773455	-0.103643	0.148479	-0.215305	-0.118413	-0.125988	0.353289	-0.200278	-0.0213495	-0.312182	0.066246	-0.156249	0.0606763	-0.197195	0.011768	-0.224183	0.0651097	0.027368	0.166715	-0.271052	0.256447	0.066757	0.445479	
0.703453	5.53131	0	0	-0.908952	-0.231835	-0.218244	0.253055	-0.168543	0.100753	-0.144441	0.234512	-0.154137	0.077573	-0.109394	0.14145	-0.217841	-0.121321	-0.130675	0.352662	-0.196235	-0.023991	-0.310704	0.06207	-0.160494	0.06345	-0.194207	0.003323	-0.223089	0.062019	0.028139	0.164537	-0.263103	0.251253	0.077166	0.441629	
0.706272	5.52521	0	0	-0.905554	-0.229229	-0.212421	0.254842	-0.16255	0.104994	-0.139072	0.236354	-0.154897	0.0797225	-0.106519	0.144963	-0.216356	-0.115443	-0.135358	0.352034	-0.194611	-0.0197912	-0.309227	0.0578957	-0.152845	0.0602838	-0.185583	0.0074285	-0.227972	0.0628342	0.0342545	0.163891	-0.256766	0.250629	0.0803375	0.445463	
0.708593	5.52215	0	0	-0.902156	-0.226623	-0.206599	0.256629	-0.156557	0.109234	-0.133702	0.238196	-0.155658	0.081872	-0.103645	0.148476	-0.214871	-0.109565	-0.140041	0.351405	-0.192988	-0.0155915	-0.30775	0.0537215	-0.145196	0.0571175	-0.176958	0.011534	-0.232855	0.0636495	0.04037	0.163245	-0.250428	0.250004	0.083509	0.449296	
0.709889	5.51453	0	0	-0.898758	-0.224016	-0.200776	0.258417	-0.150564	0.113475	-0.128333	0.240038	-0.156419	0.0840215	-0.10077	0.151989	-0.213385	-0.103687	-0.144724	0.350777	-0.191364	-0.0113917	-0.306273	0.0495473	-0.137547	0.0539512	-0.168334	0.0156395	-0.237737	0.0644648	0.0464855	0.162599	-0.244091	0.24938	0.0866805	0.45313	
0.709662	5.50995	0	0	-0.89536	-0.22141	-0.194954	0.260204	-0.144571	0.117716	-0.122963	0.24188	-0.157179	0.086171	-0.097895	0.155502	-0.2119	-0.097809	-0.149407	0.350149	-0.189741	-0.007192	-0.304796	0.045373	-0.129898	0.050785	-0.15971	0.019745	-0.24262	0.06528	0.052601	0.161953	-0.237754	0.248755	0.089852	0.456964	
0.707937	5.50232	0	0	-0.897583	-0.215127	-0.20087	0.2678	-0.149446	0.120901	-0.126059	0.242119	-0.156419	0.0840215	-0.105734	0.16602	-0.214003	-0.091865	-0.149407	0.350149	-0.189734	0.00157975	-0.306273	0.0495473	-0.131556	0.0647035	-0.15257	0.0280892	-0.241019	0.07374	0.0556353	0.17003	-0.23303	0.252707	0.0903023	0.468497	
0.705151	5.49164	0	0	-0.899806	-0.208845	-0.206786	0.275396	-0.154321	0.124086	-0.129155	0.242358	-0.155658	0.081872	-0.113574	0.176538	-0.216106	-0.085921	-0.149407	0.350149	-0.189727	0.0103515	-0.30775	0.0537215	-0.133215	0.078622	-0.145429	0.0364335	-0.239419	0.0822	0.0586695	0.178108	-0.228306	0.256658	0.0907525	0.480031	
0.701754	5.48706	0	0	-0.902029	-0.202563	-0.212702	0.282992	-0.159196	0.127272	-0.132251	0.242597	-0.154897	0.0797225	-0.121414	0.187055	-0.218209	-0.079977	-0.149407	0.350149	-0.18972	0.0191232	-0.309227	0.0578957	-0.134873	0.0925405	-0.138289	0.0447778	-0.237818	0.09066	0.0617038	0.186185	-0.223582	0.260609	0.0912027	0.491564	
0.698197	5.4779	0	0	-0.904252	-0.19628	-0.218618	0.290588	-0.164071	0.130457	-0.135347	0.242836	-0.154137	0.077573	-0.129253	0.197573	-0.220312	-0.074033	-0.149407	0.350149	-0.189713	0.027895	-0.310704	0.06207	-0.136531	0.106459	-0.131149	0.053122	-0.236217	0.09912	0.064738	0.194262	-0.218858	0.264561	0.091653	0.503097	
0.694928	5.46875	0	0	-0.905364	-0.193137	-0.221098	0.288478	-0.164071	0.130457	-0.137621	0.240755	-0.157773	0.079949	-0.129641	0.18704	-0.222847	-0.0769468	-0.152391	0.344728	-0.188905	0.0256108	-0.310704	0.06207	-0.135687	0.104072	-0.136217	0.053179	-0.239503	0.108405	0.0654823	0.20049	-0.220479	0.269142	0.0920978	0.514654	
0.692309	5.46875	0	0	-0.906476	-0.189994	-0.223578	0.286369	-0.164071	0.130457	-0.139894	0.238674	-0.161409	0.082325	-0.130029	0.176507	-0.225381	-0.0798605	-0.155374	0.339306	-0.188096	0.0233265	-0.310704	0.06207	-0.134842	0.101685	-0.141286	0.053236	-0.242788	0.11769	0.0662265	0.206718	-0.2221	0.273722	0.0925425	0.526211	
0.690359	5.4779	0	0	-0.907588	-0.186851	-0.226058	0.284259	-0.164071	0.130457	-0.142168	0.236593	-0.165046	0.084701	-0.130417	0.165974	-0.227915	-0.0827742	-0.158358	0.333885	-0.187288	0.0210422	-0.310704	0.06207	-0.133997	0.099298	-0.146354	0.053293	-0.246074	0.126975	0.0669707	0.212947	-0.223721	0.278303	0.0929872	0.537768	
0.689024	5.49774	0	0	-0.9087	-0.183708	-0.228538	0.282149	-0.164071	0.130457	-0.144441	0.234512	-0.168682	0.087077	-0.130805	0.155441	-0.23045	-0.085688	-0.161341	0.328464	-0.18648	0.018758	-0.310704	0.06207	-0.133153	0.096911	-0.151423	0.05335	-0.249359	0.13626	0.067715	0.219175	-0.225342	0.282884	0.093432	0.549325	
0.688247	5.51758	0	0	-0.905302	-0.181093	-0.230255	0.287001	-0.16501	0.133111	-0.145262	0.236831	-0.168682	0.087077	-0.129565	0.151937	-0.234034	-0.0856298	-0.161341	0.328464	-0.18324	0.018397	-0.305954	0.0621768	-0.132309	0.0945247	-0.141282	0.0532345	-0.246074	0.126975	0.0692605	0.214807	-0.225342	0.282884	0.099334	0.545468	
0.687971	5.54352	0	0	-0.901904	-0.178478	-0.231972	0.291853	-0.165949	0.135766	-0.146083	0.23915	-0.168682	0.087077	-0.128326	0.148432	-0.237617	-0.0855715	-0.161341	0.328464	-0.18	0.018036	-0.301204	0.0622835	-0.131464	0.0921385	-0.13114	0.053119	-0.242788	0.11769	0.070806	0.210439	-0.225342	0.282884	0.105236	0.541612	
0.688137	5.72815	0	0	-0.898507	-0.175864	-0.233689	0.296706	-0.166889	0.138421	-0.146903	0.24147	-0.168682	0.087077	-0.127086	0.144928	-0.241201	-0.0855132	-0.161341	0.328464	-0.176759	0.017675	-0.296454	0.0623902	-0.13062	0.0897523	-0.120999	0.0530035	-0.239503	0.108405	0.0723515	0.206071	-0.225342	0.282884	0.111138	0.537756	
0.68862	5.60303	0	0	-0.895109	-0.173249	-0.235406	0.301558	-0.167828	0.141075	-0.147724	0.243789	-0.168682	0.087077	-0.125846	0.141424	-0.244785	-0.085455	-0.161341	0.328464	-0.173519	0.017314	-0.291704	0.062497	-0.129776	0.087366	-0.110858	0.052888	-0.236217	0.09912	0.073897	0.201703	-0.225342	0.282884	0.11704	0.533899	
0.689236	5.63049	0	0	-0.897336	-0.166955	-0.231306	0.308214	-0.168767	0.14373	-0.149366	0.248429	-0.171556	0.0873027	-0.131195	0.144919	-0.245836	-0.0824845	-0.166018	0.327837	-0.171086	0.0192377	-0.294661	0.070855	-0.13231	0.0945267	-0.112357	0.0571255	-0.240005	0.0968403	0.073897	0.201703	-0.225342	0.282884	0.118404	0.530044	
0.689797	5.65948	0	0	-0.899563	-0.160662	-0.227207	0.31487	-0.169706	0.146385	-0.151008	0.25307	-0.17443	0.0875285	-0.136545	0.148415	-0.246887	-0.079514	-0.170694	0.32721	-0.168653	0.0211615	-0.297619	0.079213	-0.134844	0.101688	-0.113857	0.061363	-0.243792	0.0945605	0.073897	0.201703	-0.225342	0.282884	0.119768	0.526189	
0.690114	5.68542	0	0	-0.90179	-0.154369	-0.223107	0.321526	-0.170646	0.14904	-0.15265	0.257711	-0.177305	0.0877543	-0.141894	0.151911	-0.247939	-0.0765435	-0.175371	0.326584	-0.16622	0.0230853	-0.300576	0.087571	-0.137377	0.108848	-0.115357	0.0656005	-0.24758	0.0922807	0.073897	0.201703	-0.225342	0.282884	0.121132	0.522334	
0.69	5.70679	0	0	-0.904017	-0.148075	-0.219007	0.328182	-0.171585	0.151695	-0.154292	0.262351	-0.180179	0.08798	-0.147243	0.155406	-0.24899	-0.073573	-0.180047	0.325957	-0.163787	0.025009	-0.303533	0.095929	-0.139911	0.116009	-0.116856	0.069838	-0.251367	0.090001	0.073897	0.201703	-0.225342	0.282884	0.122496	0.518479	
0.689332	5.72357	0	0	-0.90179	-0.154369	-0.218051	0.316357	-0.17364	0.146916	-0.158014	0.255868	-0.183812	0.090354	-0.147634	0.144896	-0.248371	-0.0853882	-0.187696	0.31992	-0.167028	0.02537	-0.300261	0.100223	-0.14416	0.118786	-0.123427	0.074132	-0.252461	0.0930928	0.0692898	0.206392	-0.234927	0.292671	0.117958	0.518482	
0.688243	5.74493	0	0	-0.899563	-0.160662	-0.217095	0.304532	-0.175694	0.142136	-0.161736	0.249384	-0.187445	0.092728	-0.148026	0.134385	-0.247752	-0.0972035	-0.195346	0.313883	-0.17027	0.025731	-0.296989	0.104516	-0.148409	0.121562	-0.129998	0.078426	-0.253555	0.0961845	0.0646825	0.211081	-0.244512	0.302458	0.11342	0.518485	
0.686931	5.75561	0	0	-0.897336	-0.166955	-0.21614	0.292707	-0.177748	0.137356	-0.165457	0.2429	-0.191078	0.095102	-0.148417	0.123875	-0.247132	-0.109019	-0.202995	0.307846	-0.173511	0.026092	-0.293717	0.10881	-0.152658	0.124339	-0.13657	0.08272	-0.254649	0.0992762	0.0600753	0.215771	-0.254097	0.312244	0.108881	0.518487	
0.685595	5.76782	0	0	-0.895109	-0.173249	-0.215184	0.280882	-0.179803	0.132577	-0.169179	0.236417	-0.194711	0.097476	-0.148808	0.113365	-0.246513	-0.120834	-0.210644	0.301809	-0.176753	0.026453	-0.290445	0.113104	-0.156907	0.127115	-0.143141	0.087014	-0.255743	0.102368	0.055468	0.22046	-0.263682	0.322031	0.104343	0.51849	
0.684432	5.77698	0	0	-0.892884	-0.179538	-0.215949	0.273925	-0.181857	0.127803	-0.1659	0.22715	-0.202733	0.10437	-0.153307	0.102872	-0.246948	-0.129665	-0.207262	0.292253	-0.184045	0.0206845	-0.293717	0.10881	-0.160333	0.118348	-0.150276	0.0786537	-0.261124	0.0916348	0.0486075	0.214876	-0.265156	0.30891	0.0934705	0.5108	
0.683634	5.78155	0	0	-0.890659	-0.185827	-0.216714	0.266968	-0.183912	0.123028	-0.162622	0.217884	-0.210755	0.111264	-0.157807	0.0923785	-0.247383	-0.138495	-0.203881	0.282696	-0.191336	0.014916	-0.296989	0.104516	-0.16376	0.109581	-0.15741	0.0702935	-0.266506	0.0809015	0.041747	0.209291	-0.26663	0.29579	0.082598	0.503111	
0.683268	5.76935	0	0	-0.888433	-0.192116	-0.217479	0.260012	-0.185966	0.118254	-0.159343	0.208618	-0.218778	0.118158	-0.162307	0.0818852	-0.247817	-0.147326	-0.200499	0.273139	-0.198628	0.0091475	-0.300261	0.100223	-0.167186	0.100814	-0.164544	0.0619333	-0.271887	0.0701683	0.0348865	0.203707	-0.268103	0.28267	0.0717255	0.495422	
0.683281	5.76019	0	0	-0.886208	-0.198405	-0.218244	0.253055	-0.18802	0.11348	-0.156064	0.199351	-0.2268	0.125052	-0.166806	0.071392	-0.248252	-0.156157	-0.197118	0.263583	-0.20592	0.003379	-0.303533	0.095929	-0.170612	0.092047	-0.171679	0.053573	-0.277268	0.059435	0.028026	0.198123	-0.269577	0.269549	0.060853	0.487732	
0.683619	5.75256	0	0	-0.885096	-0.201548	-0.214047	0.250312	-0.184089	0.112949	-0.159974	0.201906	-0.22317	0.12268	-0.162702	0.071395	-0.248252	-0.156157	-0.201786	0.262962	-0.203499	-0.0034635	-0.302054	0.091749	-0.171482	0.0852883	-0.168687	0.045116	-0.283736	0.0518095	0.0288247	0.187549	-0.27429	0.265597	0.0500025	0.48006	
0.684225	5.74951	0	0	-0.883984	-0.204691	-0.20985	0.24757	-0.180157	0.112419	-0.163884	0.20446	-0.21954	0.120308	-0.158599	0.071398	-0.248252	-0.156157	-0.206454	0.262342	-0.201077	-0.010306	-0.300575	0.087569	-0.172353	0.0785295	-0.165694	0.036659	-0.290204	0.044184	0.0296235	0.176974	-0.279002	0.261645	0.039152	0.472388	
0.685043	5.74646	0	0	-0.882871	-0.207834	-0.205653	0.244827	-0.176226	0.111889	-0.167794	0.207015	-0.21591	0.117936	-0.154495	0.071401	-0.248252	-0.156157	-0.211121	0.261721	-0.198656	-0.0171485	-0.299096	0.083389	-0.173223	0.0717707	-0.162702	0.028202	-0.296671	0.0365585	0.0304222	0.1664	-0.283714	0.257694	0.0283015	0.464716	
0.685986	5.74798	0	0	-0.881759	-0.210977	-0.201456	0.242085	-0.172295	0.111358	-0.171704	0.20957	-0.21228	0.115564	-0.150391	0.071404	-0.248252	-0.156157	-0.215789	0.2611	-0.196235	-0.023991	-0.297617	0.079209	-0.174093	0.065012	-0.15971	0.019745	-0.303139	0.028933	0.031221	0.155826	-0.288427	0.253742	0.017451	0.457044	
0.686846	5.74493	0	0	-0.880648	-0.214119	-0.20651	0.247251	-0.176226	0.111889	-0.173974	0.207494	-0.215149	0.115787	-0.150391	0.071404	-0.252879	-0.153133	-0.220453	0.260479	-0.194622	-0.0285497	-0.302366	0.0791002	-0.173251	0.0626307	-0.164771	0.0198037	-0.302049	0.025853	0.027395	0.158326	-0.28681	0.249173	0.007065	0.460882	
0.687396	5.75104	0	0	-0.879536	-0.21726	-0.211565	0.252417	-0.180157	0.112419	-0.176243	0.205419	-0.218019	0.11601	-0.150391	0.071404	-0.257507	-0.15011	-0.225116	0.259857	-0.193009	-0.0331085	-0.307116	0.0789915	-0.172408	0.0602495	-0.169832	0.0198625	-0.300959	0.022773	0.023569	0.160826	-0.285193	0.244604	-0.003321	0.46472	
0.687404	5.76019	0	0	-0.878424	-0.220402	-0.21662	0.257584	-0.184089	0.112949	-0.178513	0.203343	-0.220889	0.116233	-0.150391	0.071404	-0.262134	-0.147086	-0.22978	0.259236	-0.191396	-0.0376672	-0.311866	0.0788828	-0.171566	0.0578683	-0.174894	0.0199213	-0.29987	0.019693	0.019743	0.163326	-0.283577	0.240034	-0.013707	0.468558	
0.68664	5.77545	0	0	-0.877313	-0.223544	-0.221674	0.26275	-0.18802	0.11348	-0.180783	0.201267	-0.223758	0.116456	-0.150391	0.071404	-0.266762	-0.144062	-0.234444	0.258615	-0.189783	-0.042226	-0.316615	0.078774	-0.170723	0.055487	-0.179955	0.01998	-0.29878	0.016613	0.015917	0.165826	-0.28196	0.235465	-0.024093	0.472396	
0.684895	5.78308	0	0	-0.879603	-0.229289	-0.221583	0.253379	-0.190074	0.108711	-0.180598	0.192256	-0.223758	0.116456	-0.158596	0.0713972	-0.268244	-0.149922	-0.23107	0.249079	-0.197876	-0.0456918	-0.319883	0.0744902	-0.176676	0.0538877	-0.188572	0.0158737	-0.30096	0.022774	0.015917	0.165826	-0.289901	0.240654	-0.0299585	0.476228	
0.682317	5.79834	0	0	-0.881893	-0.235033	-0.221493	0.244007	-0.192128	0.103942	-0.180413	0.183245	-0.223758	0.116456	-0.166801	0.0713905	-0.269726	-0.155782	-0.227695	0.239543	-0.205969	-0.0491575	-0.323152	0.0702065	-0.182629	0.0522885	-0.197188	0.0117675	-0.30314	0.028935	0.015917	0.165826	-0.297842	0.245843	-0.035824	0.480061	
0.67936	5.80597	0	0	-0.884184	-0.240777	-0.221402	0.234636	-0.194182	0.099173	-0.180227	0.174233	-0.223758	0.116456	-0.175005	0.0713837	-0.271209	-0.161641	-0.224321	0.230007	-0.214063	-0.0526232	-0.326421	0.0659228	-0.188582	0.0506893	-0.205805	0.00766125	-0.30532	0.035096	0.015917	0.165826	-0.305783	0.251031	-0.0416895	0.483893	
0.67649	5.8197	0	0	-0.886474	-0.246522	-0.221311	0.225265	-0.196236	0.094404	-0.180042	0.165222	-0.223758	0.116456	-0.18321	0.071377	-0.272691	-0.167501	-0.220947	0.220471	-0.222156	-0.056089	-0.329689	0.061639	-0.194535	0.04909	-0.214421	0.003555	-0.3075	0.041257	0.015917	0.165826	-0.313724	0.25622	-0.047555	0.487726	
0.67417	5.83496	0	0	-0.885364	-0.24966	-0.219598	0.220424	-0.191369	0.0912243	-0.179224	0.162911	-0.224519	0.118605	-0.176639	0.064401	-0.268066	-0.170523	-0.220947	0.220471	-0.218936	-0.0651878	-0.332956	0.05736	-0.195406	0.0423475	-0.217978	-0.00060375	-0.309097	0.0328303	0.008299	0.162438	-0.312108	0.251653	-0.047994	0.476231	
0.672864	5.84717	0	0	-0.884254	-0.252797	-0.217886	0.215584	-0.186503	0.0880445	-0.178407	0.1606	-0.225279	0.120754	-0.170069	0.057425	-0.263441	-0.173545	-0.220947	0.220471	-0.215716	-0.0742865	-0.336222	0.053081	-0.196277	0.035605	-0.221535	-0.0047625	-0.310694	0.0244035	0.000681	0.15905	-0.310493	0.247086	-0.048433	0.464736	
0.672833	5.85937	0	0	-0.883144	-0.255935	-0.216173	0.210744	-0.181637	0.0848647	-0.177589	0.158289	-0.22604	0.122903	-0.163498	0.050449	-0.258816	-0.176567	-0.220947	0.220471	-0.212497	-0.0833852	-0.339489	0.048802	-0.197148	0.0288625	-0.225093	-0.00892125	-0.31229	0.0159768	-0.006937	0.155661	-0.308877	0.24252	-0.048872	0.453242	
0.673857	5.87768	0	0	-0.882034	-0.259072	-0.21446	0.205903	-0.17677	0.081685	-0.176771	0.155978	-0.2268	0.125052	-0.156927	0.043473	-0.254191	-0.179589	-0.220947	0.220471	-0.209277	-0.092484	-0.342756	0.044523	-0.198019	0.02212	-0.22865	-0.01308	-0.313887	0.00755	-0.014555	0.152273	-0.307261	0.237953	-0.049311	0.441747	
0.675644	5.88837	0	0	-0.883144	-0.255935	-0.208638	0.207681	-0.175651	0.0891032	-0.176137	0.162673	-0.215145	0.115784	-0.151186	0.050458	-0.250173	-0.17083	-0.216281	0.221087	-0.210082	-0.0902102	-0.341281	0.0403545	-0.196306	0.026484	-0.230142	-0.0088645	-0.310622	-0.00167725	-0.012247	0.145751	-0.307261	0.237953	-0.0569612	0.437923	
0.677904	5.9021	0	0	-0.884254	-0.252797	-0.202815	0.209459	-0.174533	0.0965215	-0.175503	0.169368	-0.203489	0.106516	-0.145446	0.057443	-0.246155	-0.162071	-0.211616	0.221703	-0.210886	-0.0879365	-0.339807	0.036186	-0.194594	0.030848	-0.231633	-0.004649	-0.307357	-0.0109045	-0.009939	0.139228	-0.307261	0.237953	-0.0646115	0.434098	
0.680343	5.91888	0	0	-0.885364	-0.24966	-0.196993	0.211237	-0.173414	0.10394	-0.174868	0.176063	-0.191834	0.097248	-0.139705	0.064428	-0.242138	-0.153313	-0.20695	0.222319	-0.211691	-0.0856628	-0.338332	0.0320175	-0.192881	0.035212	-0.233125	-0.0004335	-0.304092	-0.0201317	-0.007631	0.132705	-0.307261	0.237953	-0.0722617	0.430274	
0.682697	5.93109	0	0	-0.886474	-0.246522	-0.19117	0.213015	-0.172295	0.111358	-0.174234	0.182758	-0.180179	0.08798	-0.133964	0.071413	-0.23812	-0.144554	-0.202284	0.222935	-0.212496	-0.083389	-0.336857	0.027849	-0.191168	0.039576	-0.234617	0.003782	-0.300827	-0.029359	-0.005323	0.126183	-0.307261	0.237953	-0.079912	0.42645	
0.684929	5.93719	0	0	-0.885364	-0.24966	-0.198705	0.216078	-0.176226	0.111889	-0.175686	0.178374	-0.176544	0.085605	-0.136437	0.0784038	-0.237685	-0.135717	-0.203972	0.227705	-0.211677	-0.0769268	-0.340123	0.0235787	-0.186899	0.045935	-0.231061	0.00794475	-0.299226	-0.020945	-0.00381	0.130209	-0.300936	0.237331	-0.0826185	0.434099	
0.687132	5.94177	0	0	-0.884254	-0.252797	-0.20624	0.21914	-0.180157	0.112419	-0.177138	0.17399	-0.172909	0.08323	-0.138911	0.0853945	-0.237251	-0.12688	-0.205659	0.232474	-0.210859	-0.0704645	-0.34339	0.0193085	-0.182631	0.052294	-0.227505	0.0121075	-0.297625	-0.012531	-0.002297	0.134234	-0.29461	0.236709	-0.085325	0.441748	
0.689398	5.94635	0	0	-0.883144	-0.255935	-0.213776	0.222202	-0.184089	0.112949	-0.17859	0.169606	-0.169275	0.080855	-0.141385	0.0923853	-0.236816	-0.118043	-0.207347	0.237243	-0.21004	-0.0640023	-0.346656	0.0150382	-0.178362	0.058653	-0.223949	0.0162702	-0.296023	-0.004117	-0.000784	0.13826	-0.288285	0.236087	-0.0880315	0.449398	
0.691821	5.95093	0	0	-0.882034	-0.259072	-0.221311	0.225265	-0.18802	0.11348	-0.180042	0.165222	-0.16564	0.07848	-0.143858	0.099376	-0.236381	-0.109206	-0.209035	0.242013	-0.209222	-0.05754	-0.349922	0.010768	-0.174093	0.065012	-0.220393	0.020433	-0.294422	0.004297	0.000729	0.142286	-0.28196	0.235465	-0.090738	0.457047	
0.694492	5.94635	0	0	-0.880924	-0.262208	-0.22208	0.218326	-0.187082	0.11083	-0.178407	0.160601	-0.16564	0.07848	-0.142621	0.09588	-0.231746	-0.112235	-0.207347	0.237243	-0.210845	-0.0617277	-0.348449	0.0066055	-0.180045	0.0634108	-0.217408	0.011996	-0.297691	0.013537	-0.0038615	0.146958	-0.291518	0.245223	-0.0979417	0.464696	
0.697401	5.94482	0	0	-0.879814	-0.265344	-0.222848	0.211388	-0.186144	0.108179	-0.176771	0.155979	-0.16564	0.07848	-0.141384	0.092384	-0.227111	-0.115263	-0.205659	0.232474	-0.212469	-0.0659155	-0.346977	0.002443	-0.185997	0.0618095	-0.214422	0.003559	-0.300961	0.022777	-0.008452	0.15163	-0.301075	0.254981	-0.105146	0.472345	
0.70029	5.9433	0	0	-0.878705	-0.268481	-0.223616	0.20445	-0.185207	0.105529	-0.175136	0.151358	-0.16564	0.07848	-0.140147	0.088888	-0.222476	-0.118292	-0.203972	0.227705	-0.214092	-0.0701032	-0.345504	-0.0017195	-0.19195	0.0602082	-0.211436	-0.004878	-0.304231	0.032017	-0.0130425	0.156302	-0.310633	0.264739	-0.112349	0.479995	
0.702864	5.94025	0	0	-0.877595	-0.271617	-0.224385	0.197511	-0.184269	0.102879	-0.173501	0.146737	-0.16564	0.07848	-0.13891	0.085392	-0.217841	-0.121321	-0.202284	0.222935	-0.215715	-0.074291	-0.344031	-0.005882	-0.197902	0.058607	-0.208451	-0.013315	-0.3075	0.041257	-0.017633	0.160974	-0.320191	0.274497	-0.119553	0.487644	
0.704831	5.93872	0	0	-0.874192	-0.269018	-0.223616	0.20445	-0.182214	0.107651	-0.172866	0.153429	-0.16564	0.07848	-0.136039	0.088892	-0.216356	-0.115443	-0.197615	0.22355	-0.21491	-0.0765655	-0.348768	-0.005985	-0.19706	0.0562277	-0.208451	-0.013315	-0.311275	0.0389873	-0.0199133	0.15912	-0.328125	0.279681	-0.122691	0.483811	
0.705895	5.94025	0	0	-0.870788	-0.266418	-0.222848	0.211388	-0.180159	0.112423	-0.172231	0.160122	-0.16564	0.07848	-0.133167	0.092392	-0.214871	-0.109565	-0.192945	0.224166	-0.214106	-0.07884	-0.353506	-0.006088	-0.196219	0.0538485	-0.208451	-0.013315	-0.315051	0.0367175	-0.0221935	0.157266	-0.336059	0.284865	-0.125829	0.479978	
0.70578	5.94025	0	0	-0.867385	-0.263818	-0.22208	0.218326	-0.178104	0.117194	-0.171596	0.166815	-0.16564	0.07848	-0.130296	0.095892	-0.213385	-0.103687	-0.188276	0.224781	-0.213301	-0.0811145	-0.358243	-0.006191	-0.195377	0.0514693	-0.208451	-0.013315	-0.318826	0.0344477	-0.0244737	0.155411	-0.343993	0.29005	-0.128966	0.476145	
0.704547	5.94025	0	0	-0.863982	-0.261219	-0.221311	0.225265	-0.176049	0.121966	-0.170961	0.173507	-0.16564	0.07848	-0.127424	0.099392	-0.2119	-0.097809	-0.183607	0.225397	-0.212496	-0.083389	-0.362981	-0.006294	-0.194535	0.04909	-0.208451	-0.013315	-0.322601	0.032178	-0.026754	0.153557	-0.351927	0.295234	-0.132104	0.472312	
0.70257	5.93567	0	0	-0.8628	-0.252335	-0.217298	0.241279	-0.176813	0.134711	-0.168876	0.1846	-0.155487	0.0734983	-0.124157	0.113412	-0.208931	-0.086031	-0.178933	0.226012	-0.207637	-0.0795673	-0.356771	-0.0103515	-0.186025	0.05268	-0.207878	-0.0007105	-0.317736	0.0313667	-0.0206528	0.152915	-0.339288	0.294007	-0.126258	0.468492	
0.700239	5.92956	0	0	-0.861617	-0.243451	-0.213284	0.257294	-0.177577	0.147456	-0.166791	0.195693	-0.145334	0.0685165	-0.12089	0.127433	-0.205962	-0.074253	-0.17426	0.226627	-0.202777	-0.0757455	-0.350561	-0.014409	-0.177515	0.05627	-0.207306	0.011894	-0.31287	0.0305555	-0.0145515	0.152272	-0.326649	0.292779	-0.120413	0.464673	
0.69794	5.92651	0	0	-0.860434	-0.234568	-0.20927	0.273308	-0.178341	0.160201	-0.164705	0.206786	-0.135181	0.0635348	-0.117623	0.141453	-0.202993	-0.062475	-0.169587	0.227242	-0.197918	-0.0719237	-0.344352	-0.0184665	-0.169004	0.05986	-0.206733	0.0244985	-0.308005	0.0297442	-0.00845025	0.15163	-0.31401	0.291552	-0.114568	0.460854	
0.696061	5.92651	0	0	-0.859252	-0.225684	-0.205257	0.289322	-0.179105	0.172946	-0.16262	0.217879	-0.125028	0.058553	-0.114356	0.155473	-0.200024	-0.050697	-0.164913	0.227857	-0.193059	-0.068102	-0.338142	-0.022524	-0.160494	0.06345	-0.20616	0.037103	-0.303139	0.028933	-0.002349	0.150987	-0.301371	0.290324	-0.108722	0.457034	
0.694925	5.92499	0	0	-0.860364	-0.222541	-0.203539	0.284468	-0.179105	0.172946	-0.1618	0.215563	-0.125028	0.058553	-0.119322	0.169509	-0.199595	-0.0418167	-0.168293	0.237408	-0.193853	-0.0570742	-0.339614	-0.0183635	-0.158752	0.0769785	-0.205594	0.0497362	-0.292888	0.0388332	0.001417	0.165272	-0.301527	0.308035	-0.11414	0.472346	
0.694565	5.92193	0	0	-0.861476	-0.219398	-0.201822	0.279614	-0.179105	0.172946	-0.160981	0.213247	-0.125028	0.058553	-0.124289	0.183546	-0.199166	-0.0329365	-0.171673	0.24696	-0.194647	-0.0460465	-0.341086	-0.014203	-0.157011	0.090507	-0.205027	0.0623695	-0.282637	0.0487335	0.005183	0.179558	-0.301683	0.325746	-0.119558	0.487657	
0.694931	5.91888	0	0	-0.862588	-0.216255	-0.200105	0.274761	-0.179105	0.172946	-0.160162	0.21093	-0.125028	0.058553	-0.129255	0.197582	-0.198737	-0.0240563	-0.175052	0.256512	-0.195441	-0.0350188	-0.342559	-0.0100425	-0.15527	0.104036	-0.20446	0.0750028	-0.272387	0.0586337	0.008949	0.193843	-0.301839	0.343457	-0.124976	0.502969	
0.695973	5.91278	0	0	-0.8637	-0.213112	-0.198387	0.269907	-0.179105	0.172946	-0.159342	0.208614	-0.125028	0.058553	-0.134222	0.211618	-0.198308	-0.015176	-0.178432	0.266063	-0.196235	-0.023991	-0.344031	-0.005882	-0.153528	0.117564	-0.203894	0.087636	-0.262136	0.068534	0.012715	0.208128	-0.301995	0.361168	-0.130394	0.518281	
0.697643	5.9082	0	0	-0.852364	-0.208425	-0.199246	0.272334	-0.177052	0.177735	-0.15789	0.213009	-0.122148	0.0583235	-0.131352	0.215145	-0.194289	-0.00633475	-0.175449	0.271465	-0.193804	-0.0220727	-0.344031	-0.005882	-0.155218	0.12234	-0.197337	0.0833518	-0.268103	0.0724333	0.00888875	0.210628	-0.301995	0.361168	-0.129039	0.514451	
0.69989	5.90515	0	0	-0.841028	-0.203739	-0.200105	0.27476	-0.174999	0.182525	-0.156438	0.217403	-0.119267	0.058094	-0.128482	0.218672	-0.190269	0.0025065	-0.172465	0.276867	-0.191374	-0.0201545	-0.344031	-0.005882	-0.156908	0.127115	-0.190781	0.0790675	-0.274071	0.0763325	0.0050625	0.213128	-0.301995	0.361168	-0.127683	0.51062	
0.702603	5.90057	0	0	-0.829691	-0.199053	-0.200963	0.277187	-0.172946	0.187314	-0.154985	0.221798	-0.116387	0.0578645	-0.125613	0.222198	-0.18625	0.0113477	-0.169482	0.282268	-0.188943	-0.0182362	-0.344031	-0.005882	-0.158597	0.131891	-0.184224	0.0747833	-0.280038	0.0802317	0.00123625	0.215628	-0.301995	0.361168	-0.126328	0.50679	
0.70559	5.89447	0	0	-0.818355	-0.194366	-0.201822	0.279613	-0.170893	0.192104	-0.153533	0.226193	-0.113507	0.057635	-0.122743	0.225725	-0.18223	0.020189	-0.166499	0.28767	-0.186512	-0.016318	-0.344031	-0.005882	-0.160287	0.136667	-0.177668	0.070499	-0.286006	0.084131	-0.00259	0.218128	-0.301995	0.361168	-0.124972	0.502959	
0.708651	5.88989	0	0	-0.804693	-0.183898	-0.198574	0.288694	-0.171666	0.204888	-0.15145	0.237317	-0.103336	0.052642	-0.114125	0.236325	-0.179267	0.03204	-0.157139	0.288913	-0.184888	-0.012116	-0.344031	-0.005882	-0.156038	0.133891	-0.174103	0.0746808	-0.284913	0.0810435	0.0004645	0.217809	-0.303619	0.365756	-0.124972	0.502959	
0.711586	5.88989	0	0	-0.79103	-0.17343	-0.195325	0.297775	-0.17244	0.217672	-0.149367	0.248441	-0.093165	0.047649	-0.105507	0.246924	-0.176305	0.043891	-0.147779	0.290155	-0.183264	-0.007914	-0.344031	-0.005882	-0.151789	0.131115	-0.170538	0.0788625	-0.283821	0.077956	0.003519	0.21749	-0.305242	0.370344	-0.124972	0.502959	
0.714196	5.88379	0	0	-0.777368	-0.162963	-0.192077	0.306856	-0.173213	0.230457	-0.147285	0.259566	-0.082994	0.042656	-0.096889	0.257524	-0.173343	0.055742	-0.138418	0.291397	-0.18164	-0.003712	-0.344031	-0.005882	-0.14754	0.128338	-0.166974	0.0830443	-0.282728	0.0748685	0.0065735	0.217171	-0.306866	0.374932	-0.124972	0.502959	
0.716291	5.88074	0	0	-0.763706	-0.152495	-0.188829	0.315937	-0.173987	0.243241	-0.145202	0.27069	-0.072823	0.037663	-0.088271	0.268124	-0.17038	0.067593	-0.129058	0.29264	-0.180016	0.00049	-0.344031	-0.005882	-0.143291	0.125562	-0.163409	0.087226	-0.281636	0.071781	0.009628	0.216852	-0.308489	0.37952	-0.124972	0.502959	
0.71782	5.87463	0	0	-0.76022	-0.137757	-0.193994	0.330534	-0.176816	0.251237	-0.147668	0.277659	-0.0691757	0.03528	-0.0891403	0.282247	-0.16996	0.076525	-0.132449	0.302222	-0.180009	0.00926625	-0.346977	0.002445	-0.139861	0.134348	-0.162845	0.0998975	-0.280041	0.080238	0.0141622	0.228999	-0.305409	0.3881	-0.12319	0.510633	
0.71882	5.86853	0	0	-0.756735	-0.123019	-0.199159	0.34513	-0.179646	0.259234	-0.150134	0.284628	-0.0655285	0.032897	-0.0900095	0.296371	-0.16954	0.085457	-0.13584	0.311805	-0.180002	0.0180425	-0.349923	0.010772	-0.136432	0.143133	-0.16228	0.112569	-0.278445	0.088695	0.0186965	0.241146	-0.302328	0.39668	-0.121409	0.518307	
0.719332	5.85785	0	0	-0.75325	-0.10828	-0.204324	0.359727	-0.182476	0.26723	-0.1526	0.291596	-0.0618812	0.030514	-0.0908787	0.310495	-0.169119	0.094389	-0.13923	0.321387	-0.179995	0.0268188	-0.35287	0.019099	-0.133002	0.151919	-0.161715	0.125241	-0.276849	0.097152	0.0232308	0.253294	-0.299247	0.405259	-0.119627	0.525981	
0.719398	5.84717	0	0	-0.749764	-0.093542	-0.209489	0.374323	-0.185305	0.275226	-0.155066	0.298565	-0.058234	0.028131	-0.091748	0.324618	-0.168699	0.103321	-0.142621	0.330969	-0.179988	0.035595	-0.355816	0.027426	-0.129573	0.160704	-0.161151	0.137912	-0.275254	0.105609	0.027765	0.265441	-0.296167	0.413839	-0.117845	0.533655	
0.719057	5.83496	0	0	-0.742916	-0.0882745	-0.204422	0.369141	-0.189239	0.275747	-0.155066	0.298565	-0.0662878	0.0350468	-0.0946205	0.32107	-0.170178	0.0973815	-0.142621	0.330969	-0.182419	0.03367	-0.349602	0.0233655	-0.137231	0.163869	-0.154579	0.133618	-0.279632	0.117982	0.0269533	0.276063	-0.293087	0.422435	-0.12056	0.541327	
0.718354	5.8258	0	0	-0.736069	-0.083007	-0.199356	0.363959	-0.193173	0.276268	-0.155066	0.298565	-0.0743415	0.0419625	-0.097493	0.317521	-0.171657	0.091442	-0.142621	0.330969	-0.184851	0.031745	-0.343388	0.019305	-0.144889	0.167034	-0.148008	0.129325	-0.28401	0.130356	0.0261415	0.286685	-0.290006	0.431031	-0.123275	0.549	
0.717351	5.81055	0	0	-0.729221	-0.0777395	-0.194289	0.358776	-0.197108	0.276789	-0.155066	0.298565	-0.0823953	0.0488782	-0.100365	0.313972	-0.173136	0.0855025	-0.142621	0.330969	-0.187282	0.02982	-0.337174	0.0152445	-0.152547	0.170198	-0.141437	0.125031	-0.288389	0.14273	0.0253298	0.297308	-0.286925	0.439627	-0.125989	0.556673	
0.716116	5.79986	0	0	-0.722373	-0.072472	-0.189222	0.353594	-0.201042	0.27731	-0.155066	0.298565	-0.090449	0.055794	-0.103238	0.310424	-0.174615	0.079563	-0.142621	0.330969	-0.189713	0.027895	-0.33096	0.011184	-0.160205	0.173363	-0.134865	0.120737	-0.292767	0.155103	0.024518	0.30793	-0.283845	0.448223	-0.128704	0.564345	
0.714716	5.79376	0	0	-0.71664	-0.064021	-0.1876	0.35815	-0.198995	0.282124	-0.155263	0.307633	-0.089688	0.0536433	-0.103238	0.310424	-0.173556	0.0765705	-0.142621	0.330969	-0.18324	0.0183985	-0.32769	0.0154553	-0.158513	0.168581	-0.134865	0.120737	-0.291672	0.152008	0.0252925	0.305741	-0.282216	0.443621	-0.128704	0.564345	
0.71322	5.77698	0	0	-0.710907	-0.05557	-0.185977	0.362706	-0.196948	0.286938	-0.15546	0.3167	-0.088927	0.0514925	-0.103238	0.310424	-0.172497	0.073578	-0.142621	0.330969	-0.176767	0.008902	-0.324421	0.0197265	-0.156821	0.163799	-0.134865	0.120737	-0.290577	0.148913	0.026067	0.303551	-0.280588	0.439019	-0.128704	0.564345	
0.711696	5.76324	0	0	-0.705174	-0.047119	-0.184355	0.367262	-0.194902	0.291752	-0.155657	0.325767	-0.088166	0.0493417	-0.103238	0.310424	-0.171439	0.0705855	-0.142621	0.330969	-0.170295	-0.0005945	-0.321151	0.0239977	-0.155129	0.159017	-0.134865	0.120737	-0.289482	0.145818	0.0268415	0.301362	-0.27896	0.434417	-0.128704	0.564345	
0.710242	5.75714	0	0	-0.699441	-0.038668	-0.182732	0.371818	-0.192855	0.296566	-0.155854	0.334835	-0.087405	0.047191	-0.103238	0.310424	-0.17038	0.067593	-0.142621	0.330969	-0.163822	-0.010091	-0.317881	0.028269	-0.153437	0.154235	-0.134865	0.120737	-0.288387	0.142723	0.027616	0.299173	-0.277331	0.429815	-0.128704	0.564345	
0.709019	5.74341	0	0	-0.694829	-0.0270162	-0.182079	0.388267	-0.19459	0.312074	-0.153783	0.346015	-0.0845205	0.0469595	-0.101244	0.328128	-0.17208	0.0825188	-0.141333	0.341192	-0.163813	-0.001316	-0.316087	0.0367192	-0.150011	0.163032	-0.129226	0.133387	-0.28351	0.141916	0.0360258	0.300413	-0.270989	0.429209	-0.130062	0.568183	
0.708199	5.7373	0	0	-0.690217	-0.0153645	-0.181425	0.404716	-0.196326	0.327582	-0.151712	0.357196	-0.081636	0.046728	-0.0992495	0.345833	-0.173781	0.0974445	-0.140045	0.351415	-0.163804	0.007459	-0.314292	0.0451695	-0.146586	0.171829	-0.123586	0.146037	-0.278633	0.141109	0.0444355	0.301652	-0.264647	0.428603	-0.13142	0.572022	
0.707954	5.7312	0	0	-0.685605	-0.00371275	-0.180772	0.421165	-0.198062	0.343091	-0.149641	0.368376	-0.0787515	0.0464965	-0.0972553	0.363538	-0.175482	0.11237	-0.138756	0.361639	-0.163796	0.016234	-0.312498	0.0536197	-0.14316	0.180626	-0.117947	0.158688	-0.273757	0.140302	0.0528452	0.302891	-0.258304	0.427997	-0.132779	0.57586	
0.708455	5.72052	0	0	-0.680993	0.007939	-0.180118	0.437614	-0.199797	0.358599	-0.14757	0.379557	-0.075867	0.046265	-0.095261	0.381242	-0.177182	0.127296	-0.137468	0.371862	-0.163787	0.025009	-0.310704	0.06207	-0.139735	0.189423	-0.112307	0.171338	-0.26888	0.139495	0.061255	0.304131	-0.251962	0.427391	-0.134137	0.579699	
0.70986	5.70984	0	0	-0.677559	0.010591	-0.179254	0.435173	-0.194914	0.355408	-0.144473	0.379325	-0.075867	0.046265	-0.0940098	0.377706	-0.172522	0.124251	-0.134482	0.377298	-0.163781	0.0337975	-0.308911	0.0705348	-0.138007	0.203035	-0.111748	0.184069	-0.263503	0.150275	0.0588865	0.319167	-0.250506	0.440611	-0.127865	0.587418	
0.712045	5.71136	0	0	-0.674126	0.013243	-0.17839	0.432731	-0.19003	0.352217	-0.141375	0.379094	-0.075867	0.046265	-0.0927585	0.37417	-0.167861	0.121205	-0.131497	0.382733	-0.163775	0.042586	-0.307118	0.0789995	-0.136278	0.216647	-0.111189	0.1968	-0.258126	0.161056	0.056518	0.334203	-0.24905	0.45383	-0.121593	0.595136	
0.714628	5.70831	0	0	-0.670693	0.015895	-0.177526	0.430289	-0.185147	0.349026	-0.138278	0.378862	-0.075867	0.046265	-0.0915072	0.370634	-0.163201	0.11816	-0.128511	0.388169	-0.16377	0.0513745	-0.305326	0.0874642	-0.13455	0.23026	-0.11063	0.209532	-0.252748	0.171836	0.0541495	0.34924	-0.247594	0.46705	-0.115321	0.602855	
0.717214	5.71136	0	0	-0.667259	0.018547	-0.176662	0.427848	-0.180264	0.345835	-0.135181	0.378631	-0.075867	0.046265	-0.090256	0.367098	-0.158541	0.115115	-0.125525	0.393604	-0.163764	0.060163	-0.303533	0.095929	-0.132822	0.243872	-0.110071	0.222263	-0.247371	0.182616	0.051781	0.364276	-0.246138	0.480269	-0.109049	0.610574	
0.71941	5.70831	0	0	-0.660386	0.023857	-0.172448	0.425095	-0.183104	0.35386	-0.132907	0.380732	-0.075106	0.0441145	-0.090256	0.367098	-0.154939	0.115067	-0.122538	0.399047	-0.163764	0.060163	-0.294024	0.0961475	-0.131973	0.241473	-0.103479	0.217956	-0.245177	0.176414	0.0502708	0.360202	-0.242875	0.471048	-0.107688	0.606729	
0.720821	5.71136	0	0	-0.653512	0.029167	-0.168235	0.422342	-0.185943	0.361885	-0.130634	0.382832	-0.074345	0.041964	-0.090256	0.367098	-0.151338	0.115018	-0.119552	0.40449	-0.163764	0.060163	-0.284516	0.096366	-0.131124	0.239073	-0.0968875	0.213648	-0.242982	0.170212	0.0487605	0.356127	-0.239613	0.461827	-0.106327	0.602883	
0.721114	5.71594	0	0	-0.646639	0.034477	-0.164021	0.419588	-0.188782	0.369911	-0.12836	0.384933	-0.073584	0.0398135	-0.090256	0.367098	-0.147736	0.11497	-0.116565	0.409932	-0.163764	0.060163	-0.275007	0.0965845	-0.130276	0.236674	-0.0902958	0.209341	-0.240788	0.16401	0.0472503	0.352052	-0.23635	0.452605	-0.104967	0.599038	
0.720439	5.71747	0	0	-0.639765	0.039787	-0.159807	0.416835	-0.191622	0.377936	-0.126086	0.387033	-0.072823	0.037663	-0.090256	0.367098	-0.144134	0.114922	-0.113578	0.415375	-0.163764	0.060163	-0.265498	0.096803	-0.129427	0.234275	-0.083704	0.205034	-0.238594	0.157808	0.04574	0.347978	-0.233087	0.443384	-0.103606	0.595193	
0.719191	5.71594	0	0	-0.632883	0.0451055	-0.159914	0.426296	-0.185637	0.38226	-0.127117	0.398477	-0.072823	0.037663	-0.0940113	0.377711	-0.141592	0.117873	-0.116985	0.425004	-0.16133	0.0620925	-0.265185	0.10948	-0.121754	0.231106	-0.0801255	0.209253	-0.236401	0.151611	0.051132	0.341083	-0.231457	0.438777	-0.102246	0.591349	
0.71777	5.71747	0	0	-0.626001	0.050424	-0.160021	0.435756	-0.179653	0.386584	-0.128147	0.40992	-0.072823	0.037663	-0.0977665	0.388323	-0.139049	0.120825	-0.120392	0.434632	-0.158896	0.064022	-0.264873	0.122157	-0.114082	0.227938	-0.076547	0.213473	-0.234208	0.145414	0.056524	0.334187	-0.229827	0.434171	-0.100886	0.587506	
0.716572	5.71442	0	0	-0.619119	0.0557425	-0.160127	0.445217	-0.173669	0.390909	-0.129178	0.421364	-0.072823	0.037663	-0.101522	0.398935	-0.136507	0.123776	-0.123799	0.444261	-0.156462	0.0659515	-0.26456	0.134834	-0.10641	0.224769	-0.0729685	0.217692	-0.232015	0.139216	0.061916	0.327292	-0.228197	0.429564	-0.099526	0.583662	
0.715995	5.71289	0	0	-0.612237	0.061061	-0.160234	0.454678	-0.167684	0.395233	-0.130209	0.432807	-0.072823	0.037663	-0.105277	0.409548	-0.133964	0.126727	-0.127206	0.45389	-0.154028	0.067881	-0.264247	0.147511	-0.098737	0.2216	-0.06939	0.221911	-0.229822	0.133019	0.067308	0.320396	-0.226567	0.424957	-0.098166	0.579819	
0.716291	5.70221	0	0	-0.617939	0.0647865	-0.163585	0.454988	-0.175563	0.396263	-0.131656	0.428365	-0.0801125	0.042426	-0.108146	0.405982	-0.141169	0.126823	-0.133596	0.458066	-0.151593	0.0698118	-0.26097	0.151819	-0.098721	0.230819	-0.068833	0.234681	-0.22603	0.135306	0.067268	0.328856	-0.218581	0.419739	-0.0950253	0.583678	
0.717181	5.69763	0	0	-0.623641	0.068512	-0.166936	0.455298	-0.183442	0.397292	-0.133103	0.423923	-0.087402	0.047189	-0.111015	0.402417	-0.148375	0.126918	-0.139986	0.462241	-0.149158	0.0717425	-0.257692	0.156128	-0.098705	0.240038	-0.068276	0.247451	-0.222239	0.137593	0.067228	0.337315	-0.210596	0.414521	-0.0918845	0.587536	
0.718263	5.69458	0	0	-0.629342	0.0722375	-0.170286	0.455608	-0.191321	0.398322	-0.134549	0.419481	-0.0946915	0.051952	-0.113884	0.398851	-0.15558	0.127014	-0.146376	0.466417	-0.146723	0.0736732	-0.254415	0.160436	-0.098689	0.249257	-0.067719	0.260222	-0.218448	0.139881	0.067188	0.345775	-0.20261	0.409303	-0.0887437	0.591395	
0.719139	5.68542	0	0	-0.635044	0.075963	-0.173637	0.455918	-0.1992	0.399352	-0.135996	0.415039	-0.101981	0.056715	-0.116753	0.395285	-0.162785	0.127109	-0.152766	0.470592	-0.144288	0.075604	-0.251138	0.164744	-0.098673	0.258476	-0.067162	0.272992	-0.214656	0.142168	0.067148	0.354235	-0.194625	0.404085	-0.085603	0.595254	
0.719407	5.67474	0	0	-0.633914	0.0727695	-0.175257	0.451342	-0.196359	0.391322	-0.133519	0.408037	-0.112143	0.061702	-0.121237	0.384633	-0.166802	0.118216	-0.149359	0.460963	-0.144293	0.0668062	-0.244887	0.16066	-0.09784	0.246858	-0.0692292	0.26449	-0.224428	0.143788	0.061796	0.352671	-0.197725	0.395496	-0.097322	0.602911	
0.718672	5.66864	0	0	-0.632784	0.069576	-0.176878	0.446766	-0.193518	0.383292	-0.131041	0.401036	-0.122305	0.066689	-0.125722	0.373981	-0.170819	0.109323	-0.145952	0.451334	-0.144298	0.0580085	-0.238637	0.156576	-0.097007	0.235239	-0.0712965	0.255988	-0.234199	0.145408	0.056444	0.351106	-0.200825	0.386908	-0.109041	0.610569	
0.716863	5.65948	0	0	-0.631654	0.0663825	-0.178498	0.44219	-0.190676	0.375262	-0.128563	0.394035	-0.132466	0.071676	-0.130207	0.36333	-0.174835	0.100429	-0.142545	0.441706	-0.144304	0.0492107	-0.232386	0.152492	-0.096174	0.223621	-0.0733638	0.247485	-0.243971	0.147029	0.051092	0.349542	-0.203926	0.378319	-0.12076	0.618227	
0.714495	5.65185	0	0	-0.630524	0.063189	-0.180118	0.437614	-0.187835	0.367232	-0.126086	0.387033	-0.142628	0.076663	-0.134691	0.352678	-0.178852	0.091536	-0.139138	0.432077	-0.144309	0.040413	-0.226136	0.148408	-0.095341	0.212003	-0.075431	0.238983	-0.253742	0.148649	0.04574	0.347978	-0.207026	0.36973	-0.132479	0.625884	
0.712143	5.64422	0	0	-0.625952	0.062657	-0.178498	0.44219	-0.188782	0.369908	-0.128563	0.394035	-0.142628	0.076663	-0.133442	0.349149	-0.176734	0.0855503	-0.145524	0.43625	-0.141072	0.0312652	-0.226136	0.148408	-0.0979057	0.209991	-0.067319	0.230401	-0.255337	0.140172	0.0457805	0.339524	-0.205399	0.365132	-0.128399	0.614353	
0.71038	5.63965	0	0	-0.621381	0.062125	-0.176878	0.446766	-0.189728	0.372584	-0.131041	0.401036	-0.142628	0.076663	-0.132194	0.345619	-0.174616	0.0795645	-0.151909	0.440422	-0.137835	0.0221175	-0.226136	0.148408	-0.10047	0.20798	-0.059207	0.22182	-0.256931	0.131694	0.045821	0.33107	-0.203772	0.360535	-0.124319	0.602823	
0.709784	5.63507	0	0	-0.616809	0.061593	-0.175257	0.451342	-0.190675	0.37526	-0.133519	0.408037	-0.142628	0.076663	-0.130945	0.34209	-0.172498	0.0735787	-0.158295	0.444595	-0.134599	0.0129697	-0.226136	0.148408	-0.103035	0.205968	-0.051095	0.213238	-0.258526	0.123216	0.0458615	0.322616	-0.202146	0.355938	-0.120239	0.591292	
0.71088	5.63202	0	0	-0.612237	0.061061	-0.173637	0.455918	-0.191622	0.377936	-0.135996	0.415039	-0.142628	0.076663	-0.129696	0.338561	-0.17038	0.067593	-0.16468	0.448767	-0.131362	0.003822	-0.226136	0.148408	-0.1056	0.203957	-0.042983	0.204656	-0.260121	0.114739	0.045902	0.314162	-0.200519	0.35134	-0.116159	0.579761	
0.713501	5.62897	0	0	-0.617939	0.0647865	-0.178716	0.461116	-0.190675	0.37526	-0.138268	0.412935	-0.142628	0.076663	-0.132194	0.345621	-0.171439	0.0705855	-0.158295	0.444595	-0.133789	0.010682	-0.232386	0.152492	-0.0996205	0.205582	-0.044493	0.208924	-0.25524	0.113928	0.0489648	0.313845	-0.208497	0.356553	-0.110301	0.575933	
0.716936	5.62439	0	0	-0.623641	0.068512	-0.183794	0.466313	-0.189728	0.372584	-0.140541	0.410831	-0.142628	0.076663	-0.134692	0.352681	-0.172497	0.073578	-0.151909	0.440422	-0.136217	0.017542	-0.238637	0.156576	-0.093641	0.207206	-0.046003	0.213192	-0.250358	0.113117	0.0520275	0.313529	-0.216475	0.361766	-0.104444	0.572106	
0.720465	5.62286	0	0	-0.629342	0.0722375	-0.188872	0.471511	-0.188782	0.369908	-0.142813	0.408727	-0.142628	0.076663	-0.13719	0.35974	-0.173556	0.0765705	-0.145524	0.43625	-0.138644	0.024402	-0.244887	0.16066	-0.0876615	0.208831	-0.047513	0.21746	-0.245477	0.112307	0.0550903	0.313213	-0.224453	0.366979	-0.0985865	0.568279	
0.723366	5.62134	0	0	-0.635044	0.075963	-0.193951	0.476709	-0.187835	0.367232	-0.145085	0.406623	-0.142628	0.076663	-0.139688	0.3668	-0.174615	0.079563	-0.139138	0.432077	-0.141071	0.031262	-0.251138	0.164744	-0.081682	0.210455	-0.049023	0.221728	-0.240596	0.111496	0.058153	0.312896	-0.232431	0.372192	-0.092729	0.564451	
0.724916	5.62134	0	0	-0.637353	0.070109	-0.19384	0.467245	-0.18988	0.3624	-0.148802	0.400088	-0.142628	0.076663	-0.13881	0.352665	-0.176095	0.0736307	-0.143822	0.431439	-0.145133	0.0251285	-0.254415	0.160436	-0.0868133	0.206433	-0.0510965	0.213244	-0.242787	0.117687	0.0504785	0.317911	-0.245114	0.373416	-0.0940883	0.568293	
0.724515	5.61981	0	0	-0.639662	0.064255	-0.193729	0.457782	-0.191924	0.357569	-0.15252	0.393552	-0.142628	0.076663	-0.137931	0.338531	-0.177574	0.0676985	-0.148505	0.430801	-0.149195	0.018995	-0.257692	0.156128	-0.0919445	0.202412	-0.05317	0.20476	-0.244978	0.123878	0.042804	0.322925	-0.257797	0.37464	-0.0954475	0.572135	
0.722466	5.61676	0	0	-0.641971	0.058401	-0.193619	0.448319	-0.193968	0.352737	-0.156237	0.387016	-0.142628	0.076663	-0.137052	0.324396	-0.179054	0.0617663	-0.153189	0.430163	-0.153256	0.0128615	-0.26097	0.151819	-0.0970758	0.19839	-0.0552435	0.196276	-0.247168	0.130069	0.0351295	0.32794	-0.27048	0.375863	-0.0968067	0.575977	
0.719474	5.61676	0	0	-0.64428	0.052547	-0.193508	0.438855	-0.196013	0.347905	-0.159954	0.380481	-0.142628	0.076663	-0.136174	0.310261	-0.180534	0.055834	-0.157872	0.429525	-0.157318	0.006728	-0.264247	0.147511	-0.102207	0.194369	-0.057317	0.187792	-0.249359	0.13626	0.027455	0.332955	-0.283163	0.377087	-0.098166	0.579819	
0.716246	5.61828	0	0	-0.643151	0.049357	-0.193401	0.429407	-0.193177	0.33989	-0.162224	0.378382	-0.145505	0.0768905	-0.136549	0.299677	-0.179901	0.0439375	-0.156171	0.424717	-0.157329	-0.0020415	-0.266041	0.13902	-0.106487	0.187958	-0.064478	0.179375	-0.248768	0.121604	0.029818	0.317945	-0.27033	0.35812	-0.0985895	0.568288	
0.713489	5.61371	0	0	-0.642022	0.046167	-0.193294	0.419959	-0.19034	0.331874	-0.164494	0.376283	-0.148383	0.077118	-0.136925	0.289093	-0.179269	0.032041	-0.15447	0.419909	-0.15734	-0.010811	-0.267834	0.130528	-0.110766	0.181547	-0.071639	0.170957	-0.248176	0.106949	0.032181	0.302936	-0.257496	0.339152	-0.099013	0.556758	
0.711911	5.60913	0	0	-0.640894	0.042977	-0.193187	0.410511	-0.187504	0.323858	-0.166764	0.374183	-0.15126	0.0773455	-0.1373	0.278509	-0.178637	0.0201445	-0.152768	0.415102	-0.157351	-0.0195805	-0.269628	0.122037	-0.115045	0.175136	-0.0788	0.16254	-0.247584	0.0922935	0.034544	0.287926	-0.244663	0.320185	-0.0994365	0.545227	
0.711872	5.60455	0	0	-0.639765	0.039787	-0.19308	0.401063	-0.184668	0.315843	-0.169034	0.372084	-0.154137	0.077573	-0.137675	0.267925	-0.178004	0.008248	-0.151067	0.410294	-0.157362	-0.02835	-0.271422	0.113546	-0.119325	0.168725	-0.085961	0.154123	-0.246993	0.077638	0.036907	0.272916	-0.231829	0.301218	-0.09986	0.533697	
0.71271	5.60303	0	0	-0.638637	0.036598	-0.193943	0.403501	-0.187659	0.313692	-0.166562	0.365099	-0.154137	0.077573	-0.139298	0.260875	-0.179487	0.0023365	-0.154048	0.404855	-0.158183	-0.0348268	-0.273218	0.105069	-0.12104	0.164328	-0.0829515	0.145618	-0.254562	0.0730872	0.035395	0.268861	-0.242885	0.297877	-0.107494	0.529843	
0.713578	5.59845	0	0	-0.637509	0.033409	-0.194806	0.40594	-0.19065	0.311542	-0.164091	0.358113	-0.154137	0.077573	-0.140921	0.253825	-0.18097	-0.003575	-0.157029	0.399417	-0.159003	-0.0413035	-0.275013	0.096593	-0.122756	0.159931	-0.079942	0.137112	-0.26213	0.0685365	0.033883	0.264807	-0.253942	0.294536	-0.115127	0.525989	
0.713629	5.59692	0	0	-0.63638	0.03022	-0.195668	0.408378	-0.193641	0.309391	-0.161619	0.351128	-0.154137	0.077573	-0.142544	0.246774	-0.182454	-0.0094865	-0.16001	0.393978	-0.159824	-0.0477802	-0.276809	0.0881165	-0.124471	0.155533	-0.0769325	0.128607	-0.269699	0.0639858	0.032371	0.260752	-0.264998	0.291195	-0.122761	0.522135	
0.712015	5.58929	0	0	-0.635252	0.027031	-0.196531	0.410816	-0.196632	0.30724	-0.159147	0.344143	-0.154137	0.077573	-0.144167	0.239724	-0.183937	-0.015398	-0.162991	0.388539	-0.160644	-0.054257	-0.278604	0.07964	-0.126187	0.151136	-0.073923	0.120102	-0.277268	0.059435	0.030859	0.256697	-0.276054	0.287854	-0.130394	0.518281	
0.707929	5.58777	0	0	-0.63531	0.0148243	-0.196326	0.391959	-0.194906	0.291764	-0.16349	0.330895	-0.16428	0.0825488	-0.150282	0.222138	-0.187339	-0.036061	-0.175316	0.381843	-0.167137	-0.06227	-0.286629	0.0752475	-0.127057	0.144353	-0.0840842	0.120209	-0.269117	0.049366	0.028574	0.25483	-0.282383	0.288471	-0.123189	0.510629	
0.701892	5.58472	0	0	-0.635369	0.0026175	-0.196122	0.373103	-0.19318	0.276287	-0.167832	0.317647	-0.174424	0.0875245	-0.156397	0.204551	-0.190741	-0.056724	-0.187642	0.375148	-0.173631	-0.070283	-0.294654	0.070855	-0.127927	0.137571	-0.0942455	0.120316	-0.260966	0.039297	0.026289	0.252964	-0.288713	0.289089	-0.115984	0.502976	
0.696049	5.58014	0	0	-0.635427	-0.00958925	-0.195917	0.354246	-0.191453	0.260811	-0.172175	0.304399	-0.184567	0.0925002	-0.162513	0.186965	-0.194143	-0.077387	-0.199967	0.368452	-0.180124	-0.078296	-0.302679	0.0664625	-0.128797	0.130789	-0.104407	0.120423	-0.252816	0.029228	0.024004	0.251097	-0.295042	0.289707	-0.108779	0.495324	
0.692641	5.57556	0	0	-0.635485	-0.021796	-0.195712	0.335389	-0.189727	0.245334	-0.176517	0.291151	-0.194711	0.097476	-0.168628	0.169379	-0.197545	-0.09805	-0.212292	0.361756	-0.186617	-0.086309	-0.310704	0.06207	-0.129667	0.124006	-0.114568	0.12053	-0.244665	0.019159	0.021719	0.24923	-0.301371	0.290324	-0.101574	0.487671	
0.693912	5.57098	0	0	-0.636674	-0.0307995	-0.193038	0.3187	-0.188952	0.232553	-0.175503	0.279786	-0.198343	0.099849	-0.167778	0.155369	-0.196931	-0.109866	-0.208903	0.352179	-0.189066	-0.0969425	-0.317242	0.0535147	-0.132255	0.112852	-0.120212	0.107913	-0.250056	0.0084715	0.021782	0.232414	-0.302843	0.277231	-0.105149	0.472365	
0.702104	5.56793	0	0	-0.637863	-0.039803	-0.190364	0.302011	-0.188178	0.219772	-0.174488	0.268421	-0.201975	0.102222	-0.166928	0.141359	-0.196318	-0.121681	-0.205514	0.342602	-0.191515	-0.107576	-0.323781	0.0449595	-0.134844	0.101697	-0.125856	0.095297	-0.255447	-0.002216	0.021845	0.215598	-0.304316	0.264138	-0.108725	0.457059	
0.718641	5.56488	0	0	-0.639052	-0.0488065	-0.187691	0.285322	-0.187404	0.20699	-0.173474	0.257055	-0.205606	0.104595	-0.166079	0.12735	-0.195705	-0.133496	-0.202126	0.333025	-0.193963	-0.11821	-0.330319	0.0364042	-0.137432	0.0905433	-0.1315	0.0826805	-0.260838	-0.0129035	0.021908	0.198783	-0.305789	0.251046	-0.1123	0.441752	
0.738574	5.56183	0	0	-0.640241	-0.05781	-0.185017	0.268633	-0.186629	0.194209	-0.17246	0.24569	-0.209238	0.106968	-0.165229	0.11334	-0.195091	-0.145312	-0.198737	0.323448	-0.196412	-0.128843	-0.336857	0.027849	-0.14002	0.079389	-0.137144	0.070064	-0.266229	-0.023591	0.021971	0.181967	-0.307261	0.237953	-0.115875	0.426446	
0.753969	5.5603	0	0	-0.639116	-0.0609878	-0.182442	0.261356	-0.180813	0.188365	-0.169181	0.236421	-0.205606	0.104595	-0.163992	0.109844	-0.194041	-0.148279	-0.203406	0.32282	-0.197236	-0.135286	-0.343388	0.0193132	-0.144296	0.0730225	-0.139216	0.061654	-0.265661	-0.0381423	0.0197135	0.171724	-0.310352	0.22945	-0.122152	0.418812	
0.756876	5.55725	0	0	-0.637992	-0.0641655	-0.179867	0.254078	-0.174998	0.182522	-0.165901	0.227152	-0.201975	0.102222	-0.162755	0.106348	-0.192991	-0.151245	-0.208074	0.322192	-0.19806	-0.141728	-0.349919	0.0107775	-0.148571	0.066656	-0.141289	0.053244	-0.265094	-0.0526935	0.017456	0.161482	-0.313443	0.220948	-0.12843	0.411177	
0.739342	5.55725	0	0	-0.636867	-0.0673432	-0.177292	0.246801	-0.169183	0.176678	-0.162622	0.217883	-0.198343	0.099849	-0.161518	0.102852	-0.191942	-0.154212	-0.212743	0.321565	-0.198884	-0.148171	-0.35645	0.00224175	-0.152846	0.0602895	-0.143362	0.044834	-0.264526	-0.0672447	0.0151985	0.151239	-0.316533	0.212445	-0.134707	0.403542	
0.693438	5.55725	0	0	-0.635743	-0.070521	-0.174717	0.239523	-0.163367	0.170835	-0.159342	0.208614	-0.194711	0.097476	-0.160281	0.099356	-0.190892	-0.157178	-0.217412	0.320937	-0.199708	-0.154613	-0.362981	-0.006294	-0.157122	0.053923	-0.145434	0.036424	-0.263959	-0.081796	0.012941	0.140996	-0.319624	0.203942	-0.140984	0.395908	
0.619655	5.55725	0	0	-0.635814	-0.0826763	-0.177974	0.230475	-0.162604	0.158087	-0.163699	0.195455	-0.193951	0.0953275	-0.167248	0.0958517	-0.193432	-0.160078	-0.214029	0.311375	-0.205369	-0.156145	-0.370974	-0.0106578	-0.15628	0.0515417	-0.150499	0.0364818	-0.269914	-0.0779047	0.012941	0.140996	-0.3164	0.194829	-0.139635	0.392095	
0.539514	5.55725	0	0	-0.635885	-0.0948315	-0.18123	0.221427	-0.161841	0.145339	-0.168056	0.182296	-0.19319	0.093179	-0.174216	0.0923475	-0.195971	-0.162977	-0.210645	0.301813	-0.211029	-0.157678	-0.378968	-0.0150215	-0.155437	0.0491605	-0.155564	0.0365395	-0.275869	-0.0740135	0.012941	0.140996	-0.313175	0.185717	-0.138286	0.388283	
0.477767	5.55725	0	0	-0.635956	-0.106987	-0.184486	0.212378	-0.161078	0.132591	-0.172414	0.169137	-0.19243	0.0910305	-0.181183	0.0888432	-0.198511	-0.165877	-0.207262	0.292252	-0.21669	-0.159211	-0.386962	-0.0193852	-0.154594	0.0467793	-0.160628	0.0365972	-0.281825	-0.0701222	0.012941	0.140996	-0.309951	0.176604	-0.136938	0.38447	
0.458492	5.55725	0	0	-0.636027	-0.119142	-0.187743	0.20333	-0.160315	0.119843	-0.176771	0.155978	-0.19167	0.088882	-0.18815	0.085339	-0.20105	-0.168777	-0.203879	0.28269	-0.222351	-0.160743	-0.394955	-0.023749	-0.153752	0.044398	-0.165693	0.036655	-0.28778	-0.066231	0.012941	0.140996	-0.306726	0.167491	-0.135589	0.380658	
0.48793	5.55115	0	0	-0.638345	-0.124938	-0.190144	0.191884	-0.159559	0.107122	-0.175774	0.144676	-0.198932	0.093627	-0.184847	0.0644182	-0.201938	-0.186402	-0.209833	0.271902	-0.2232	-0.175858	-0.393811	-0.0404448	-0.158061	0.028934	-0.168345	0.0156695	-0.290473	-0.0715507	0.00532475	0.137615	-0.325653	0.169363	-0.138726	0.37685	
0.553139	5.55572	0	0	-0.640663	-0.130734	-0.192546	0.180438	-0.158803	0.0944005	-0.174777	0.133375	-0.206194	0.098372	-0.181545	0.0434975	-0.202827	-0.204027	-0.215786	0.261114	-0.224048	-0.190972	-0.392667	-0.0571405	-0.162369	0.01347	-0.170996	-0.005316	-0.293165	-0.0768705	-0.0022915	0.134235	-0.34458	0.171235	-0.141863	0.373042	
0.64023	5.55115	0	0	-0.642981	-0.136529	-0.194947	0.168991	-0.158048	0.0816793	-0.17378	0.122073	-0.213455	0.103117	-0.178243	0.0225768	-0.203715	-0.221652	-0.22174	0.250326	-0.224897	-0.206087	-0.391523	-0.0738363	-0.166678	-0.001994	-0.173648	-0.0263015	-0.295858	-0.0821903	-0.00990775	0.130854	-0.363507	0.173106	-0.145001	0.369233	
0.735312	5.54809	0	0	-0.645299	-0.142325	-0.197349	0.157545	-0.157292	0.068958	-0.172783	0.110771	-0.220717	0.107862	-0.17494	0.001656	-0.204603	-0.239277	-0.227694	0.239538	-0.225746	-0.221202	-0.390379	-0.090532	-0.170987	-0.017458	-0.176299	-0.047287	-0.298551	-0.08751	-0.017524	0.127473	-0.382434	0.174978	-0.148138	0.365425	
0.824495	5.54199	0	0	-0.643058	-0.148659	-0.195639	0.152714	-0.160288	0.0668443	-0.170335	0.103853	-0.220717	0.107862	-0.175345	-0.0087775	-0.208635	-0.247996	-0.228984	0.229393	-0.229	-0.229502	-0.392175	-0.09891	-0.174421	-0.026159	-0.179864	-0.0514345	-0.297992	-0.102013	-0.0159642	0.11477	-0.379218	0.165888	-0.148582	0.354014	
0.893891	5.54352	0	0	-0.640816	-0.154993	-0.19393	0.147882	-0.163283	0.0647305	-0.167887	0.0969345	-0.220717	0.107862	-0.175751	-0.019211	-0.212667	-0.256716	-0.230274	0.219248	-0.232255	-0.237802	-0.393971	-0.107288	-0.177854	-0.03486	-0.18343	-0.055582	-0.297432	-0.116515	-0.0144045	0.102067	-0.376001	0.156799	-0.149026	0.342603	
0.929608	5.54047	0	0	-0.638575	-0.161326	-0.192221	0.14305	-0.166279	0.0626167	-0.165439	0.0900163	-0.220717	0.107862	-0.176156	-0.0296445	-0.216698	-0.265435	-0.231565	0.209103	-0.235509	-0.246102	-0.395766	-0.115666	-0.181288	-0.043561	-0.186995	-0.0597295	-0.296872	-0.131018	-0.0128448	0.089364	-0.372785	0.147709	-0.14947	0.331191	
0.922868	5.53741	0	0	-0.636334	-0.16766	-0.190511	0.138219	-0.169275	0.060503	-0.162991	0.083098	-0.220717	0.107862	-0.176561	-0.040078	-0.22073	-0.274155	-0.232855	0.198958	-0.238763	-0.254402	-0.397562	-0.124044	-0.184722	-0.052262	-0.19056	-0.063877	-0.296313	-0.14552	-0.011285	0.076661	-0.369569	0.138619	-0.149914	0.31978	
0.883023	5.54352	0	0	-0.635214	-0.170825	-0.187171	0.137893	-0.168339	0.0578565	-0.166078	0.083343	-0.220717	0.107862	-0.177791	-0.036601	-0.224311	-0.274084	-0.229488	0.189442	-0.241988	-0.254031	-0.402285	-0.124138	-0.181327	-0.0526578	-0.19056	-0.063877	-0.302256	-0.141637	-0.011285	0.076661	-0.366356	0.129539	-0.148569	0.315979	
0.823449	5.54962	0	0	-0.634095	-0.17399	-0.183831	0.137568	-0.167402	0.05521	-0.169165	0.083588	-0.220717	0.107862	-0.179022	-0.033124	-0.227892	-0.274012	-0.226121	0.179926	-0.245212	-0.25366	-0.407008	-0.124233	-0.177931	-0.0530535	-0.19056	-0.063877	-0.308198	-0.137754	-0.011285	0.076661	-0.363143	0.120458	-0.147224	0.312178	
0.757518	5.55115	0	0	-0.632975	-0.177156	-0.18049	0.137242	-0.166466	0.0525635	-0.172252	0.083833	-0.220717	0.107862	-0.180253	-0.029647	-0.231473	-0.273941	-0.222754	0.170411	-0.248437	-0.253289	-0.411732	-0.124328	-0.174535	-0.0534492	-0.19056	-0.063877	-0.314141	-0.133871	-0.011285	0.076661	-0.35993	0.111377	-0.145879	0.308377	
0.698605	5.55878	0	0	-0.631855	-0.180321	-0.17715	0.136916	-0.165529	0.049917	-0.175339	0.084078	-0.220717	0.107862	-0.181483	-0.02617	-0.235054	-0.27387	-0.219387	0.160895	-0.251661	-0.252918	-0.416455	-0.124422	-0.17114	-0.053845	-0.19056	-0.063877	-0.320084	-0.129988	-0.011285	0.076661	-0.356717	0.102297	-0.144534	0.304576	
0.659393	5.56335	0	0	-0.629616	-0.186648	-0.177074	0.127587	-0.161786	0.039339	-0.175165	0.0751113	-0.217087	0.10549	-0.181891	-0.0365895	-0.231924	-0.282716	-0.216024	0.151389	-0.250893	-0.263828	-0.424428	-0.128746	-0.173738	-0.0648968	-0.196197	-0.0763598	-0.317368	-0.150566	-0.0173595	0.0689665	-0.367705	0.099019	-0.148124	0.289414	
0.642235	5.5664	0	0	-0.627378	-0.192975	-0.176998	0.118259	-0.158043	0.028761	-0.174991	0.0661445	-0.213457	0.103118	-0.182299	-0.047009	-0.228794	-0.291563	-0.21266	0.141883	-0.250124	-0.274738	-0.432401	-0.13307	-0.176337	-0.0759485	-0.201835	-0.0888425	-0.314652	-0.171145	-0.023434	0.061272	-0.378694	0.095741	-0.151714	0.274253	
0.641532	5.57251	0	0	-0.625139	-0.199302	-0.176922	0.10893	-0.1543	0.018183	-0.174818	0.0571777	-0.209827	0.100746	-0.182706	-0.0574285	-0.225663	-0.300409	-0.209296	0.132378	-0.249356	-0.285649	-0.440375	-0.137393	-0.178935	-0.0870003	-0.207472	-0.101325	-0.311936	-0.191723	-0.0295085	0.0535775	-0.389682	0.092463	-0.155303	0.259091	
0.651479	5.58166	0	0	-0.6229	-0.205629	-0.176846	0.099601	-0.150557	0.007605	-0.174644	0.048211	-0.206197	0.098374	-0.183114	-0.067848	-0.222533	-0.309256	-0.205933	0.122872	-0.248587	-0.296559	-0.448348	-0.141717	-0.181534	-0.098052	-0.213109	-0.113808	-0.30922	-0.212302	-0.035583	0.045883	-0.40067	0.089185	-0.158893	0.243929	
0.666273	5.58319	0	0	-0.625315	-0.223473	-0.179978	0.0720372	-0.149085	-0.0176965	-0.177226	0.021644	-0.220708	0.107856	-0.179047	-0.102464	-0.22748	-0.335418	-0.210221	0.107438	-0.257557	-0.323553	-0.447564	-0.170751	-0.188512	-0.13341	-0.219941	-0.151199	-0.309773	-0.249395	-0.0530417	0.037342	-0.402047	0.058805	-0.171888	0.217539	
0.680116	5.58166	0	0	-0.62773	-0.241317	-0.183109	0.0444735	-0.147614	-0.042998	-0.179808	-0.004923	-0.235219	0.117338	-0.174981	-0.13708	-0.232426	-0.36158	-0.214509	0.092004	-0.266526	-0.350546	-0.446781	-0.199785	-0.195489	-0.168768	-0.226774	-0.18859	-0.310327	-0.286488	-0.0705005	0.028801	-0.403423	0.028425	-0.184884	0.191149	
0.689071	5.58014	0	0	-0.630145	-0.259162	-0.186241	0.0169098	-0.146142	-0.0682995	-0.182391	-0.03149	-0.249731	0.126819	-0.170914	-0.171696	-0.237373	-0.387742	-0.218797	0.07657	-0.275496	-0.37754	-0.445997	-0.228818	-0.202467	-0.204126	-0.233606	-0.22598	-0.31088	-0.32358	-0.0879593	0.02026	-0.404799	-0.001955	-0.197879	0.164759	
0.693642	5.57556	0	0	-0.63256	-0.277006	-0.189372	-0.010654	-0.14467	-0.093601	-0.184973	-0.058057	-0.264242	0.136301	-0.166848	-0.206312	-0.242319	-0.413904	-0.223085	0.061136	-0.284466	-0.404534	-0.445213	-0.257852	-0.209445	-0.239484	-0.240438	-0.263371	-0.311433	-0.360673	-0.105418	0.011719	-0.406176	-0.032335	-0.210874	0.138369	
0.694984	5.57403	0	0	-0.634985	-0.294789	-0.191738	-0.0312322	-0.145084	-0.113548	-0.189196	-0.079925	-0.271488	0.141036	-0.177106	-0.223481	-0.243712	-0.440016	-0.230359	0.0404398	-0.292604	-0.425044	-0.458576	-0.286966	-0.213838	-0.263698	-0.250246	-0.29218	-0.318461	-0.379386	-0.113735	0.00222975	-0.420219	-0.0439325	-0.211809	0.115823	
0.694252	5.56488	0	0	-0.63741	-0.312572	-0.194103	-0.0518105	-0.145499	-0.133494	-0.193419	-0.101793	-0.278734	0.145771	-0.187364	-0.240649	-0.245106	-0.466127	-0.237633	0.0197435	-0.300741	-0.445554	-0.471938	-0.31608	-0.218231	-0.287911	-0.260053	-0.320989	-0.325489	-0.398099	-0.122053	-0.0072595	-0.434263	-0.05553	-0.212743	0.093278	
0.692598	5.56183	0	0	-0.639836	-0.330354	-0.196469	-0.0723888	-0.145913	-0.153441	-0.197643	-0.123661	-0.285981	0.150506	-0.197623	-0.257818	-0.246499	-0.492238	-0.244906	-0.00095275	-0.308879	-0.466065	-0.485301	-0.345195	-0.222624	-0.312125	-0.269861	-0.349797	-0.332517	-0.416812	-0.13037	-0.0167488	-0.448306	-0.0671275	-0.213677	0.0707325	
0.691118	5.55267	0	0	-0.642261	-0.348137	-0.198834	-0.092967	-0.146327	-0.173387	-0.201866	-0.145529	-0.293227	0.155241	-0.207881	-0.274987	-0.247892	-0.51835	-0.25218	-0.021649	-0.317016	-0.486575	-0.498663	-0.374309	-0.227017	-0.336339	-0.279668	-0.378606	-0.339545	-0.435525	-0.138687	-0.026238	-0.46235	-0.078725	-0.214612	0.048187	
0.690133	5.54809	0	0	-0.645806	-0.362722	-0.205439	-0.101524	-0.146758	-0.193264	-0.204639	-0.163006	-0.303325	0.160188	-0.209965	-0.292135	-0.261597	-0.529591	-0.253145	-0.0463738	-0.321897	-0.498835	-0.511649	-0.390939	-0.231289	-0.342552	-0.285307	-0.39087	-0.337404	-0.441576	-0.140193	-0.0302213	-0.45758	-0.0922053	-0.211953	0.040673	
0.68943	5.54047	0	0	-0.649351	-0.377308	-0.212045	-0.11008	-0.147188	-0.21314	-0.207411	-0.180482	-0.313423	0.165134	-0.212049	-0.309283	-0.275303	-0.540833	-0.254109	-0.0710985	-0.326778	-0.511096	-0.524635	-0.407568	-0.235562	-0.348764	-0.290945	-0.403135	-0.335263	-0.447626	-0.141699	-0.0342045	-0.452811	-0.105685	-0.209294	0.033159	
0.688789	5.53436	0	0	-0.652897	-0.391893	-0.21865	-0.118637	-0.147618	-0.233016	-0.210183	-0.197959	-0.323521	0.170081	-0.214132	-0.326432	-0.289009	-0.552074	-0.255074	-0.0958232	-0.33166	-0.523357	-0.537621	-0.424198	-0.239835	-0.354976	-0.296583	-0.415399	-0.333122	-0.453676	-0.143205	-0.0381877	-0.448041	-0.119166	-0.206636	0.025645	
0.687985	5.52826	0	0	-0.656442	-0.406478	-0.225255	-0.127194	-0.148049	-0.252893	-0.212956	-0.215436	-0.333619	0.175028	-0.216216	-0.34358	-0.302714	-0.563315	-0.256039	-0.120548	-0.336541	-0.535617	-0.550607	-0.440827	-0.244107	-0.361189	-0.302222	-0.427663	-0.330981	-0.459727	-0.144711	-0.042171	-0.443271	-0.132646	-0.203977	0.018131	
0.686797	5.52826	0	0	-0.656554	-0.418453	-0.220186	-0.141521	-0.151268	-0.264865	-0.218149	-0.226037	-0.345224	0.184262	-0.218309	-0.360672	-0.306188	-0.583416	-0.266647	-0.13167	-0.344622	-0.547462	-0.563565	-0.457383	-0.251751	-0.366984	-0.312867	-0.439796	-0.335265	-0.447622	-0.140157	-0.0468018	-0.454304	-0.118529	-0.205306	0.0218873	
0.68513	5.52673	0	0	-0.656665	-0.430427	-0.215116	-0.155849	-0.154487	-0.276837	-0.223343	-0.236637	-0.356828	0.193496	-0.220403	-0.377764	-0.309663	-0.603517	-0.277254	-0.142792	-0.352704	-0.559308	-0.576523	-0.473939	-0.259394	-0.372779	-0.323513	-0.451929	-0.339548	-0.435517	-0.135603	-0.0514325	-0.465337	-0.104413	-0.206635	0.0256435	
0.683227	5.52215	0	0	-0.656777	-0.442402	-0.210046	-0.170176	-0.157707	-0.288809	-0.228537	-0.247237	-0.368432	0.20273	-0.222497	-0.394856	-0.313138	-0.623619	-0.287861	-0.153915	-0.360785	-0.571153	-0.589482	-0.490495	-0.267038	-0.378574	-0.334159	-0.464063	-0.343832	-0.423412	-0.131049	-0.0560632	-0.476369	-0.0902965	-0.207964	0.0293997	
0.681386	5.52521	0	0	-0.656889	-0.454376	-0.204977	-0.184503	-0.160926	-0.300781	-0.23373	-0.257838	-0.380037	0.211964	-0.22459	-0.411948	-0.316612	-0.64372	-0.298469	-0.165037	-0.368867	-0.582998	-0.60244	-0.507051	-0.274682	-0.384369	-0.344804	-0.476196	-0.348115	-0.411307	-0.126495	-0.060694	-0.487402	-0.07618	-0.209293	0.033156	
0.679903	5.52521	0	0	-0.65234	-0.45494	-0.204977	-0.184503	-0.157003	-0.301335	-0.227584	-0.258358	-0.376424	0.209603	-0.218085	-0.418831	-0.319142	-0.646532	-0.293494	-0.179097	-0.369706	-0.589288	-0.60424	-0.515235	-0.273029	-0.389042	-0.343342	-0.480328	-0.342201	-0.415171	-0.124972	-0.064998	-0.485812	-0.0806735	-0.209293	0.033156	
0.679075	5.52673	0	0	-0.647792	-0.455504	-0.204977	-0.184503	-0.153081	-0.301889	-0.221439	-0.258877	-0.372811	0.207242	-0.21158	-0.425715	-0.321673	-0.649344	-0.288519	-0.193157	-0.370544	-0.595579	-0.60604	-0.52342	-0.271375	-0.393715	-0.34188	-0.48446	-0.336287	-0.419036	-0.123449	-0.069302	-0.484222	-0.085167	-0.209293	0.033156	
0.679179	5.53284	0	0	-0.643243	-0.456069	-0.204977	-0.184503	-0.149158	-0.302443	-0.215293	-0.259397	-0.369197	0.204881	-0.205075	-0.432598	-0.324203	-0.652157	-0.283544	-0.207218	-0.371383	-0.601869	-0.60784	-0.531604	-0.269721	-0.398389	-0.340418	-0.488591	-0.330372	-0.4229	-0.121926	-0.073606	-0.482632	-0.0896605	-0.209293	0.033156	
0.680286	5.53894	0	0	-0.638695	-0.456633	-0.204977	-0.184503	-0.145235	-0.302997	-0.209148	-0.259917	-0.365584	0.20252	-0.19857	-0.439482	-0.326733	-0.654969	-0.278569	-0.221278	-0.372222	-0.608159	-0.60964	-0.539788	-0.268068	-0.403062	-0.338956	-0.492723	-0.324458	-0.426764	-0.120403	-0.07791	-0.481042	-0.094154	-0.209293	0.033156	
0.682352	5.54047	0	0	-0.632918	-0.448356	-0.200054	-0.171191	-0.141086	-0.293642	-0.202335	-0.25387	-0.354735	0.195431	-0.191163	-0.425869	-0.319139	-0.646526	-0.270937	-0.215455	-0.366555	-0.598178	-0.612511	-0.531673	-0.263735	-0.387911	-0.333323	-0.480507	-0.322829	-0.418509	-0.11586	-0.0742592	-0.484223	-0.085165	-0.201691	0.0368597	
0.68533	5.54352	0	0	-0.62714	-0.44008	-0.195132	-0.157879	-0.136937	-0.284287	-0.195522	-0.247824	-0.343886	0.188342	-0.183757	-0.412255	-0.311546	-0.638082	-0.263306	-0.209632	-0.360889	-0.588197	-0.615382	-0.523558	-0.259401	-0.37276	-0.32769	-0.46829	-0.3212	-0.410255	-0.111317	-0.0706085	-0.487403	-0.076176	-0.19409	0.0405635	
0.689174	5.54962	0	0	-0.621363	-0.431804	-0.19021	-0.144567	-0.132787	-0.274932	-0.188709	-0.241778	-0.333037	0.181254	-0.176351	-0.398642	-0.303952	-0.629638	-0.255675	-0.20381	-0.355222	-0.578216	-0.618254	-0.515443	-0.255068	-0.357608	-0.322058	-0.456074	-0.319571	-0.402	-0.106774	-0.0669577	-0.490584	-0.067187	-0.186489	0.0442673	
0.693839	5.54809	0	0	-0.615585	-0.423527	-0.185287	-0.131255	-0.128638	-0.265577	-0.181896	-0.235731	-0.322188	0.174165	-0.168944	-0.385029	-0.296358	-0.621195	-0.248043	-0.197987	-0.349556	-0.568235	-0.621125	-0.507328	-0.250735	-0.342457	-0.316425	-0.443858	-0.317942	-0.393746	-0.102231	-0.063307	-0.493765	-0.058198	-0.178887	0.047971	
0.69917	5.54962	0	0	-0.614362	-0.41467	-0.180311	-0.127148	-0.126563	-0.260892	-0.18043	-0.231434	-0.311325	0.167067	-0.169718	-0.371312	-0.30001	-0.600894	-0.234081	-0.196283	-0.347046	-0.549299	-0.609978	-0.49899	-0.241301	-0.323366	-0.307236	-0.427545	-0.304977	-0.378865	-0.0946608	-0.0516775	-0.48134	-0.0420745	-0.176611	0.0667578	
0.704756	5.54504	0	0	-0.613139	-0.405813	-0.175334	-0.12304	-0.124488	-0.256207	-0.178963	-0.227137	-0.300462	0.159969	-0.170492	-0.357596	-0.303663	-0.580593	-0.22012	-0.19458	-0.344535	-0.530363	-0.598831	-0.490652	-0.231868	-0.304275	-0.298046	-0.411232	-0.292011	-0.363984	-0.0870905	-0.040048	-0.468914	-0.025951	-0.174334	0.0855445	
0.710147	5.54809	0	0	-0.611915	-0.396955	-0.170357	-0.118933	-0.122413	-0.251521	-0.177497	-0.222841	-0.2896	0.152871	-0.171266	-0.343879	-0.307315	-0.560291	-0.206158	-0.192876	-0.342024	-0.511426	-0.587685	-0.482313	-0.222434	-0.285184	-0.288857	-0.394919	-0.279046	-0.349102	-0.0795203	-0.0284185	-0.456488	-0.0098275	-0.172057	0.104331	
0.714892	5.53894	0	0	-0.610692	-0.388098	-0.165381	-0.114826	-0.120338	-0.246836	-0.176031	-0.218544	-0.278737	0.145773	-0.17204	-0.330162	-0.310967	-0.53999	-0.192196	-0.191172	-0.339514	-0.49249	-0.576538	-0.473975	-0.213	-0.266093	-0.279668	-0.378606	-0.266081	-0.334221	-0.07195	-0.016789	-0.444063	0.006296	-0.169781	0.123118	
0.71854	5.53589	0	0	-0.600345	-0.380349	-0.162097	-0.105919	-0.118262	-0.242146	-0.1684	-0.214762	-0.275873	0.145554	-0.165071	-0.326777	-0.302338	-0.534408	-0.184534	-0.185335	-0.330635	-0.482819	-0.562121	-0.461465	-0.207002	-0.255539	-0.268994	-0.366394	-0.268767	-0.313726	-0.065119	-0.0112877	-0.442581	0.0192187	-0.17333	0.145771	
0.720652	5.52978	0	0	-0.589997	-0.3726	-0.158812	-0.097012	-0.116187	-0.237455	-0.16077	-0.210981	-0.27301	0.145335	-0.158102	-0.323391	-0.293709	-0.528826	-0.176872	-0.179499	-0.321755	-0.473147	-0.547705	-0.448955	-0.201005	-0.244984	-0.25832	-0.354182	-0.271454	-0.293231	-0.058288	-0.0057865	-0.441099	0.0321415	-0.176879	0.168425	
0.721186	5.52673	0	0	-0.57965	-0.364851	-0.155527	-0.088105	-0.114112	-0.232764	-0.153139	-0.207199	-0.270147	0.145115	-0.151134	-0.320006	-0.28508	-0.523244	-0.169209	-0.173662	-0.312876	-0.463476	-0.533288	-0.436445	-0.195007	-0.23443	-0.247646	-0.341969	-0.27414	-0.272736	-0.051457	-0.00028525	-0.439617	0.0450643	-0.180428	0.191079	
0.720605	5.52215	0	0	-0.569303	-0.357102	-0.152243	-0.079198	-0.112036	-0.228074	-0.145508	-0.203418	-0.267283	0.144896	-0.144165	-0.316621	-0.276451	-0.517662	-0.161547	-0.167825	-0.303997	-0.453805	-0.518871	-0.423935	-0.189009	-0.223876	-0.236972	-0.329757	-0.276826	-0.252241	-0.044626	0.005216	-0.438135	0.057987	-0.183977	0.213732	
0.719407	5.51453	0	0	-0.563406	-0.336703	-0.146526	-0.0589243	-0.104878	-0.216602	-0.142722	-0.18591	-0.256402	0.137786	-0.142071	-0.299429	-0.271952	-0.500358	-0.157211	-0.152548	-0.29268	-0.442241	-0.50261	-0.403109	-0.179612	-0.213697	-0.227757	-0.313326	-0.275205	-0.243911	-0.041599	0.0132175	-0.428769	0.0657865	-0.173226	0.221269	
0.718087	5.51147	0	0	-0.557508	-0.316304	-0.140809	-0.0386505	-0.0977195	-0.205129	-0.139936	-0.168403	-0.245521	0.130676	-0.139977	-0.282237	-0.267454	-0.483054	-0.152874	-0.137271	-0.281363	-0.430677	-0.486348	-0.382283	-0.170214	-0.203519	-0.218541	-0.296894	-0.273583	-0.235581	-0.038572	0.021219	-0.419403	0.073586	-0.162474	0.228805	
0.717144	5.5069	0	0	-0.551611	-0.295906	-0.135091	-0.0183768	-0.0905613	-0.193657	-0.13715	-0.150896	-0.234639	0.123566	-0.137884	-0.265046	-0.262956	-0.465751	-0.148537	-0.121993	-0.270045	-0.419112	-0.470087	-0.361458	-0.160817	-0.19334	-0.209325	-0.280463	-0.271962	-0.227252	-0.035545	0.0292205	-0.410036	0.0813855	-0.151723	0.236342	
0.717029	5.49927	0	0	-0.545713	-0.275507	-0.129374	0.001897	-0.083403	-0.182184	-0.134364	-0.133388	-0.223758	0.116456	-0.13579	-0.247854	-0.258457	-0.448447	-0.144201	-0.106716	-0.258728	-0.407548	-0.453826	-0.340632	-0.151419	-0.183162	-0.20011	-0.264031	-0.27034	-0.218922	-0.032518	0.037222	-0.40067	0.089185	-0.140972	0.243878	
0.7177	5.49774	0	0	-0.540943	-0.251847	-0.127083	0.0319238	-0.0829775	-0.162221	-0.132399	-0.113525	-0.213624	0.111486	-0.127949	-0.22371	-0.252467	-0.425277	-0.128833	-0.0949618	-0.248147	-0.385058	-0.434254	-0.315488	-0.142795	-0.161512	-0.185223	-0.235097	-0.261148	-0.206112	-0.0226445	0.0507727	-0.402407	0.111252	-0.13289	0.259035	
0.718799	5.48859	0	0	-0.536174	-0.228187	-0.124791	0.0619505	-0.082552	-0.142258	-0.130435	-0.0936615	-0.203489	0.106517	-0.120108	-0.199567	-0.246478	-0.402107	-0.113465	-0.0832075	-0.237567	-0.362568	-0.414683	-0.290343	-0.13417	-0.139863	-0.170335	-0.206162	-0.251955	-0.193302	-0.012771	0.0643235	-0.404144	0.13332	-0.124808	0.274193	
0.719963	5.48706	0	0	-0.531404	-0.204527	-0.1225	0.0919772	-0.0821265	-0.122294	-0.12847	-0.0737982	-0.193355	0.101547	-0.112267	-0.175424	-0.240488	-0.378937	-0.098097	-0.0714532	-0.226986	-0.340077	-0.395112	-0.265199	-0.125546	-0.118213	-0.155447	-0.177228	-0.242762	-0.180492	-0.0028975	0.0778743	-0.405881	0.155387	-0.116726	0.28935	
0.720827	5.48096	0	0	-0.526634	-0.180867	-0.120209	0.122004	-0.081701	-0.102331	-0.126505	-0.053935	-0.183221	0.096577	-0.104426	-0.15128	-0.234498	-0.355767	-0.082729	-0.059699	-0.216405	-0.317587	-0.37554	-0.240055	-0.116922	-0.096563	-0.14056	-0.148293	-0.23357	-0.167682	0.006976	0.091425	-0.407618	0.177454	-0.108644	0.304507	
0.721029	5.47485	0	0	-0.5185	-0.166642	-0.114438	0.133118	-0.0814945	-0.092323	-0.124389	-0.0429515	-0.17671	0.0939755	-0.105232	-0.137409	-0.233593	-0.338243	-0.0783848	-0.044321	-0.21148	-0.296495	-0.359181	-0.218972	-0.115112	-0.0740113	-0.139371	-0.123174	-0.233594	-0.141708	0.016865	0.105024	-0.404693	0.203552	-0.0974055	0.323531	
0.720302	5.47333	0	0	-0.510365	-0.152418	-0.108666	0.144232	-0.081288	-0.082315	-0.122274	-0.031968	-0.1702	0.091374	-0.106038	-0.123537	-0.232689	-0.320718	-0.0740405	-0.028943	-0.206555	-0.275404	-0.342823	-0.19789	-0.113301	-0.0514595	-0.138182	-0.098054	-0.233619	-0.115735	0.026754	0.118623	-0.401767	0.22965	-0.086167	0.342555	
0.718902	5.46722	0	0	-0.502231	-0.138193	-0.102895	0.155347	-0.0810815	-0.072307	-0.120158	-0.0209845	-0.16369	0.0887725	-0.106843	-0.109666	-0.231784	-0.303194	-0.0696962	-0.013565	-0.20163	-0.254312	-0.326464	-0.176808	-0.11149	-0.0289077	-0.136993	-0.0729345	-0.233643	-0.0897615	0.036643	0.132222	-0.398842	0.255748	-0.0749285	0.361579	
0.717257	5.46417	0	0	-0.494096	-0.123969	-0.097124	0.166461	-0.080875	-0.062299	-0.118042	-0.010001	-0.157179	0.086171	-0.107649	-0.095795	-0.230879	-0.285669	-0.065352	0.001813	-0.196705	-0.23322	-0.310106	-0.155725	-0.10968	-0.006356	-0.135804	-0.047815	-0.233667	-0.063788	0.046532	0.145821	-0.395917	0.281846	-0.06369	0.380603	
0.715795	5.46417	0	0	-0.492806	-0.102763	-0.0939278	0.184893	-0.0786005	-0.0475252	-0.11137	0.005117	-0.146261	0.079037	-0.100239	-0.0819105	-0.223864	-0.265265	-0.0596852	0.0273575	-0.186945	-0.216947	-0.295176	-0.130361	-0.104512	0.006747	-0.126571	-0.0311083	-0.230966	-0.0584568	0.047278	0.152033	-0.378603	0.28458	-0.063245	0.392064	
0.714944	5.45807	0	0	-0.491517	-0.0815565	-0.0907315	0.203324	-0.076326	-0.0327515	-0.104698	0.020235	-0.135343	0.071903	-0.0928295	-0.068026	-0.21685	-0.244862	-0.0540185	0.052902	-0.177185	-0.200673	-0.280247	-0.104997	-0.099343	0.01985	-0.117338	-0.0144015	-0.228264	-0.0531255	0.048024	0.158246	-0.36129	0.287315	-0.0628	0.403525	
0.715131	5.46265	0	0	-0.490227	-0.0603502	-0.0875352	0.221755	-0.0740515	-0.0179778	-0.0980267	0.035353	-0.124425	0.064769	-0.0854197	-0.0541415	-0.209835	-0.224459	-0.0483517	0.0784465	-0.167426	-0.184399	-0.265317	-0.0796338	-0.0941745	0.032953	-0.108104	0.00230525	-0.225562	-0.0477942	0.04877	0.164459	-0.343976	0.290049	-0.062355	0.414985	
0.716536	5.45349	0	0	-0.488938	-0.039144	-0.084339	0.240187	-0.071777	-0.003204	-0.091355	0.050471	-0.113507	0.057635	-0.07801	-0.040257	-0.20282	-0.204055	-0.042685	0.103991	-0.157666	-0.168126	-0.250387	-0.05427	-0.089006	0.046056	-0.098871	0.019012	-0.222861	-0.042463	0.049516	0.170671	-0.326662	0.292783	-0.06191	0.426446	
0.718755	5.45196	0	0	-0.479598	-0.0157373	-0.0778812	0.267801	-0.069318	0.0216943	-0.0871368	0.0725845	-0.0968013	0.0500255	-0.0780205	-0.005337	-0.191775	-0.174764	-0.0370333	0.12967	-0.151118	-0.142671	-0.235427	-0.0287455	-0.0863753	0.066372	-0.0860423	0.0399773	-0.215274	-0.0379475	0.0571562	0.174063	-0.317251	0.30071	-0.0497433	0.430268	
0.721303	5.45196	0	0	-0.470259	0.0076695	-0.0714235	0.295415	-0.066859	0.0465925	-0.0829185	0.094698	-0.0800955	0.042416	-0.078031	0.029583	-0.180731	-0.145473	-0.0313815	0.15535	-0.144571	-0.117216	-0.220468	-0.003221	-0.0837445	0.086688	-0.0732135	0.0609425	-0.207686	-0.033432	0.0647965	0.177455	-0.30784	0.308638	-0.0375765	0.43409	
0.723696	5.45044	0	0	-0.460919	0.0310762	-0.0649657	0.32303	-0.0644	0.0714908	-0.0787002	0.116811	-0.0633897	0.0348065	-0.0780415	0.064503	-0.169686	-0.116181	-0.0257297	0.181029	-0.138024	-0.091761	-0.205508	0.0223035	-0.0811137	0.107004	-0.0603848	0.0819078	-0.200098	-0.0289165	0.0724367	0.180847	-0.298429	0.316565	-0.0254098	0.437911	
0.725447	5.44739	0	0	-0.45158	0.054483	-0.058508	0.350644	-0.061941	0.096389	-0.074482	0.138925	-0.046684	0.027197	-0.078052	0.099423	-0.158641	-0.08689	-0.020078	0.206708	-0.131476	-0.066306	-0.190548	0.047828	-0.078483	0.12732	-0.047556	0.102873	-0.192511	-0.024401	0.080077	0.184239	-0.289018	0.324492	-0.013243	0.441733	
0.72608	5.44281	0	0	-0.446909	0.0662332	-0.0568725	0.355208	-0.0608125	0.103828	-0.070737	0.145382	-0.043795	0.026963	-0.0776532	0.109941	-0.156718	-0.0721132	-0.0157522	0.222303	-0.129009	-0.0468515	-0.178856	0.0692055	-0.0741678	0.142917	-0.0449032	0.124053	-0.193082	-0.00979325	0.0830852	0.200755	-0.282842	0.341625	-0.0110037	0.460919	
0.725473	5.43976	0	0	-0.442238	0.0779835	-0.055237	0.359772	-0.059684	0.111266	-0.066992	0.151838	-0.040906	0.026729	-0.0772545	0.120458	-0.154795	-0.0573365	-0.0114265	0.237899	-0.126543	-0.027397	-0.167163	0.090583	-0.0698525	0.158515	-0.0422505	0.145233	-0.193653	0.0048145	0.0860935	0.21727	-0.276666	0.358758	-0.0087645	0.480105	
0.723998	5.43518	0	0	-0.437568	0.0897338	-0.0536015	0.364337	-0.0585555	0.118705	-0.063247	0.158295	-0.038017	0.026495	-0.0768558	0.130976	-0.152871	-0.0425598	-0.00710075	0.253494	-0.124076	-0.0079425	-0.155471	0.111961	-0.0655372	0.174112	-0.0395978	0.166413	-0.194225	0.0194222	0.0891017	0.233786	-0.27049	0.375892	-0.00652525	0.49929	
0.722061	5.43213	0	0	-0.432897	0.101484	-0.051966	0.368901	-0.057427	0.126143	-0.059502	0.164752	-0.035128	0.026261	-0.076457	0.141494	-0.150948	-0.027783	-0.002775	0.269089	-0.121609	0.011512	-0.143779	0.133338	-0.061222	0.189709	-0.036945	0.187593	-0.194796	0.03403	0.09211	0.250301	-0.264314	0.393025	-0.004286	0.518476	
0.72007	5.42602	0	0	-0.4317	0.110588	-0.0478295	0.375597	-0.0563002	0.133593	-0.0565765	0.17354	-0.035128	0.026261	-0.07482	0.148519	-0.146917	-0.0189415	-0.003165	0.284117	-0.11754	0.0176497	-0.140163	0.150388	-0.062071	0.192108	-0.0333577	0.19181	-0.193703	0.0309415	0.0928843	0.248113	-0.249992	0.387201	0.0002315	0.518479	
0.718433	5.42602	0	0	-0.430502	0.119691	-0.043693	0.382292	-0.0551735	0.141042	-0.053651	0.182329	-0.035128	0.026261	-0.073183	0.155544	-0.142885	-0.0101	-0.003555	0.299145	-0.113471	0.0237875	-0.136547	0.167438	-0.06292	0.194507	-0.0297705	0.196026	-0.192611	0.027853	0.0936585	0.245925	-0.23567	0.381378	0.004749	0.518482	
0.717524	5.42145	0	0	-0.429304	0.128795	-0.0395565	0.388988	-0.0540468	0.148491	-0.0507255	0.191117	-0.035128	0.026261	-0.071546	0.162569	-0.138854	-0.0012585	-0.003945	0.314173	-0.109402	0.0299253	-0.13293	0.184488	-0.063769	0.196907	-0.0261833	0.200242	-0.191518	0.0247645	0.0944327	0.243737	-0.221348	0.375554	0.0092665	0.518485	
0.717295	5.41992	0	0	-0.428107	0.137898	-0.03542	0.395684	-0.05292	0.155941	-0.0478	0.199905	-0.035128	0.026261	-0.069909	0.169594	-0.134823	0.007583	-0.004335	0.329201	-0.105333	0.036063	-0.129314	0.201538	-0.064618	0.199306	-0.022596	0.204459	-0.190425	0.021676	0.095207	0.241549	-0.207026	0.36973	0.013784	0.518488	
0.717398	5.41839	0	0	-0.417679	0.145939	-0.0322482	0.414334	-0.0497268	0.168203	-0.0450595	0.217774	-0.027823	0.0214877	-0.0666377	0.183675	-0.13185	0.019436	-0.004735	0.344267	-0.101261	0.0422102	-0.119413	0.214537	-0.0620482	0.201317	-0.0139015	0.208631	-0.196405	0.0255835	0.0975	0.243416	-0.200668	0.369112	0.0124235	0.522333	
0.717478	5.41687	0	0	-0.40725	0.153981	-0.0290765	0.432984	-0.0465335	0.180465	-0.042319	0.235644	-0.020518	0.0167145	-0.0633665	0.197756	-0.128876	0.031289	-0.005135	0.359333	-0.0971895	0.0483575	-0.109512	0.227536	-0.0594785	0.203328	-0.005207	0.212803	-0.202385	0.029491	0.099793	0.245282	-0.19431	0.368494	0.011063	0.526178	
0.71718	5.41687	0	0	-0.396821	0.162022	-0.0259048	0.451635	-0.0433403	0.192727	-0.0395785	0.253513	-0.013213	0.0119413	-0.0600953	0.211837	-0.125903	0.043142	-0.005535	0.3744	-0.0931177	0.0545047	-0.099611	0.240534	-0.0569087	0.205339	0.0034875	0.216975	-0.208365	0.0333985	0.102086	0.247148	-0.187952	0.367876	0.0097025	0.530024	
0.71615	5.41839	0	0	-0.386393	0.170064	-0.022733	0.470285	-0.040147	0.204989	-0.036838	0.271382	-0.005908	0.007168	-0.056824	0.225918	-0.122929	0.054995	-0.005935	0.389466	-0.089046	0.060652	-0.08971	0.253533	-0.054339	0.20735	0.012182	0.221147	-0.214345	0.037306	0.104379	0.249015	-0.181594	0.367258	0.008342	0.533869	
0.714131	5.41992	0	0	-0.387534	0.173289	-0.0270778	0.482564	-0.040147	0.204989	-0.038486	0.276039	-0.00666925	0.00931975	-0.0618102	0.24001	-0.127169	0.0669783	-0.00634475	0.404571	-0.0874098	0.073699	-0.084599	0.266459	-0.0560208	0.221381	0.0112318	0.238221	-0.206754	0.041849	0.106641	0.259327	-0.170488	0.370621	0.0119333	0.549286	
0.711381	5.41687	0	0	-0.388675	0.176513	-0.0314225	0.494843	-0.040147	0.204989	-0.040134	0.280697	-0.0074305	0.0114715	-0.0667965	0.254101	-0.131409	0.0789615	-0.0067545	0.419675	-0.0857735	0.086746	-0.079488	0.279386	-0.0577025	0.235411	0.0102815	0.255294	-0.199163	0.046392	0.108903	0.269638	-0.159383	0.373984	0.0155245	0.564704	
0.708335	5.42297	0	0	-0.389816	0.179737	-0.0357673	0.507122	-0.040147	0.204989	-0.041782	0.285355	-0.00819175	0.0136232	-0.0717828	0.268193	-0.13565	0.0909448	-0.00716425	0.43478	-0.0841372	0.099793	-0.074377	0.292312	-0.0593842	0.249441	0.00933125	0.272368	-0.191573	0.050935	0.111165	0.279949	-0.148278	0.377348	0.0191158	0.580121	
0.705424	5.4245	0	0	-0.390957	0.182962	-0.040112	0.519401	-0.040147	0.204989	-0.04343	0.290012	-0.008953	0.015775	-0.076769	0.282285	-0.13989	0.102928	-0.007574	0.449885	-0.082501	0.11284	-0.069266	0.305238	-0.061066	0.263472	0.008381	0.289442	-0.183982	0.055478	0.113427	0.290261	-0.137172	0.380711	0.022707	0.595538	
0.703083	5.42755	0	0	-0.395575	0.183501	-0.040112	0.519401	-0.0420365	0.210329	-0.0411458	0.292102	-0.008953	0.015775	-0.076769	0.282285	-0.137347	0.105877	-0.0062815	0.460189	-0.0857558	0.113201	-0.06596	0.309595	-0.062784	0.259049	0.00989675	0.285158	-0.19325	0.06867	0.108806	0.294966	-0.138803	0.385321	0.0213425	0.599395	
0.701739	5.4306	0	0	-0.400193	0.184039	-0.040112	0.519401	-0.043926	0.215668	-0.0388615	0.294191	-0.008953	0.015775	-0.076769	0.282285	-0.134804	0.108827	-0.004989	0.470494	-0.0890105	0.113561	-0.062654	0.313951	-0.064502	0.254627	0.0114125	0.280873	-0.202519	0.081862	0.104185	0.299671	-0.140434	0.38993	0.019978	0.603252	
0.701566	5.42755	0	0	-0.404811	0.184578	-0.040112	0.519401	-0.0458155	0.221008	-0.0365772	0.296281	-0.008953	0.015775	-0.076769	0.282285	-0.132261	0.111777	-0.0036965	0.480798	-0.0922652	0.113922	-0.059348	0.318308	-0.06622	0.250204	0.0129283	0.276589	-0.211788	0.095054	0.099564	0.304377	-0.142065	0.394539	0.0186135	0.607109	
0.702285	5.43213	0	0	-0.409429	0.185116	-0.040112	0.519401	-0.047705	0.226348	-0.034293	0.298371	-0.008953	0.015775	-0.076769	0.282285	-0.129718	0.114726	-0.002404	0.491102	-0.09552	0.114283	-0.056042	0.322665	-0.067938	0.245782	0.014444	0.272305	-0.221056	0.108246	0.094943	0.309082	-0.143696	0.399149	0.017249	0.610966	
0.703572	5.4306	0	0	-0.41057	0.188341	-0.0368503	0.528615	-0.042625	0.233302	-0.0313727	0.307221	-0.00164175	0.0109975	-0.073892	0.285828	-0.125692	0.123636	0.00059925	0.496582	-0.0922652	0.113922	-0.0575428	0.326906	-0.0662377	0.240977	0.0108515	0.26807	-0.218866	0.102057	0.0964948	0.304697	-0.151696	0.404376	0.0158835	0.614824	
0.705102	5.4306	0	0	-0.411711	0.191565	-0.0335885	0.537829	-0.037545	0.240256	-0.0284525	0.316072	0.0056695	0.00622	-0.071015	0.289372	-0.121665	0.132546	0.0036025	0.502062	-0.0890105	0.113561	-0.0590435	0.331148	-0.0645375	0.236172	0.007259	0.263834	-0.216676	0.095868	0.0980465	0.300312	-0.159696	0.409604	0.014518	0.618683	
0.706551	5.4306	0	0	-0.412852	0.19479	-0.0303267	0.547043	-0.032465	0.247211	-0.0255322	0.324923	0.0129808	0.0014425	-0.068138	0.292915	-0.117639	0.141456	0.00660575	0.507543	-0.0857558	0.113201	-0.0605443	0.33539	-0.0628372	0.231366	0.0036665	0.259599	-0.214487	0.089679	0.0995982	0.295926	-0.167697	0.414832	0.0131525	0.622541	
0.707612	5.42755	0	0	-0.413993	0.198015	-0.027065	0.556257	-0.027385	0.254165	-0.022612	0.333773	0.020292	-0.003335	-0.065261	0.296458	-0.113612	0.150366	0.009609	0.513023	-0.082501	0.11284	-0.062045	0.339631	-0.061137	0.226561	7.4E-05	0.255363	-0.212297	0.08349	0.10115	0.291541	-0.175697	0.420059	0.011787	0.6264	
0.708194	5.42297	0	0	-0.417467	0.195327	-0.030551	0.566109	-0.0341837	0.262721	-0.0250908	0.340778	0.020292	-0.003335	-0.0690088	0.30705	-0.112131	0.156332	0.00617975	0.522714	-0.0808713	0.117076	-0.0731508	0.343627	-0.0628372	0.231366	-0.0014405	0.259643	-0.207408	0.0826737	0.104219	0.291221	-0.166066	0.410222	0.0222048	0.62256	
0.70836	5.42145	0	0	-0.42094	0.19264	-0.034037	0.57596	-0.0409825	0.271277	-0.0275695	0.347784	0.020292	-0.003335	-0.0727565	0.317642	-0.110649	0.162298	0.0027505	0.532405	-0.0792415	0.121313	-0.0842565	0.347623	-0.0645375	0.236172	-0.002955	0.263923	-0.202518	0.0818575	0.107289	0.290901	-0.156434	0.400385	0.0326225	0.618721	
0.708175	5.41839	0	0	-0.424414	0.189952	-0.037523	0.585812	-0.0477812	0.279834	-0.0300482	0.354789	0.020292	-0.003335	-0.0765042	0.328233	-0.109168	0.168264	-0.00067875	0.542097	-0.0776117	0.125549	-0.0953622	0.351619	-0.0662377	0.240977	-0.0044695	0.268204	-0.197628	0.0810413	0.110358	0.290581	-0.146803	0.390548	0.0430402	0.614881	
0.707706	5.41839	0	0	-0.427888	0.187265	-0.041009	0.595664	-0.05458	0.28839	-0.032527	0.361794	0.020292	-0.003335	-0.080252	0.338825	-0.107686	0.17423	-0.004108	0.551788	-0.075982	0.129785	-0.106468	0.355615	-0.067938	0.245782	-0.005984	0.272484	-0.192739	0.080225	0.113427	0.290261	-0.137172	0.380711	0.053458	0.611042	
0.707019	5.41382	0	0	-0.432552	0.175462	-0.0417657	0.588585	-0.0507945	0.277691	-0.0370943	0.357598	0.0129808	0.0014425	-0.0793813	0.32469	-0.111712	0.165308	-0.0088215	0.551141	-0.084932	0.128566	-0.111264	0.35549	-0.0781857	0.246938	-0.0146718	0.268294	-0.199818	0.0872303	0.112651	0.292454	-0.137172	0.380711	0.0507242	0.618767	
0.706178	5.41077	0	0	-0.437216	0.16366	-0.0425225	0.581506	-0.047009	0.266993	-0.0416615	0.353403	0.0056695	0.00622	-0.0785105	0.310555	-0.115738	0.156386	-0.013535	0.550495	-0.093882	0.127347	-0.11606	0.355364	-0.0884335	0.248093	-0.0233595	0.264103	-0.206898	0.0942355	0.111875	0.294647	-0.137172	0.380711	0.0479905	0.626493	
0.705245	5.40771	0	0	-0.44188	0.151857	-0.0432792	0.574426	-0.0432235	0.256294	-0.0462287	0.349208	-0.00164175	0.0109975	-0.0776398	0.29642	-0.119764	0.147464	-0.0182485	0.549848	-0.102832	0.126128	-0.120857	0.355239	-0.0986812	0.249249	-0.0320472	0.259913	-0.213977	0.101241	0.111099	0.296839	-0.137172	0.380711	0.0452567	0.634219	
0.704278	5.40466	0	0	-0.446544	0.140054	-0.044036	0.567347	-0.039438	0.245596	-0.050796	0.345012	-0.008953	0.015775	-0.076769	0.282285	-0.12379	0.138542	-0.022962	0.549202	-0.111782	0.124909	-0.125653	0.355113	-0.108929	0.250404	-0.040735	0.255723	-0.221056	0.108246	0.110323	0.299032	-0.137172	0.380711	0.042523	0.641944	
0.703336	5.40314	0	0	-0.446603	0.127742	-0.0456647	0.562736	-0.0424498	0.243455	-0.0499705	0.342679	-0.0154968	0.0183965	-0.0771523	0.271702	-0.118482	0.12354	-0.0276715	0.548555	-0.114224	0.114154	-0.135234	0.354859	-0.109812	0.234386	-0.0478987	0.24727	-0.220471	0.0935995	0.103446	0.293417	-0.140284	0.372125	0.0362045	0.6342	
0.702478	5.39856	0	0	-0.446662	0.11543	-0.0472935	0.558126	-0.0454615	0.241314	-0.049145	0.340345	-0.0220405	0.021018	-0.0775355	0.261119	-0.113174	0.108538	-0.032381	0.547908	-0.116665	0.1034	-0.144814	0.354606	-0.110696	0.218368	-0.0550625	0.238817	-0.219886	0.078953	0.096569	0.287802	-0.143397	0.363539	0.029886	0.626455	
0.701761	5.39551	0	0	-0.446722	0.103118	-0.0489223	0.553515	-0.0484733	0.239173	-0.0483195	0.338012	-0.0285842	0.0236395	-0.0779187	0.250535	-0.107866	0.093536	-0.0370905	0.547262	-0.119107	0.0926447	-0.154394	0.354352	-0.111579	0.20235	-0.0622262	0.230364	-0.219301	0.0643065	0.089692	0.282186	-0.14651	0.354953	0.0235675	0.61871	
0.701182	5.39245	0	0	-0.446781	0.090806	-0.050551	0.548904	-0.051485	0.237032	-0.047494	0.335679	-0.035128	0.026261	-0.078302	0.239952	-0.102558	0.078534	-0.0418	0.546615	-0.121548	0.08189	-0.163975	0.354098	-0.112463	0.186332	-0.06939	0.221911	-0.218716	0.04966	0.082815	0.276571	-0.149622	0.346367	0.017249	0.610966	
0.700645	5.3894	0	0	-0.459449	0.0892187	-0.0574015	0.559055	-0.051485	0.237032	-0.0499713	0.342681	-0.038017	0.026495	-0.0795478	0.243473	-0.11083	0.0816353	-0.040087	0.541773	-0.123175	0.077667	-0.167262	0.349738	-0.114178	0.18193	-0.0663717	0.213381	-0.219231	0.0381327	0.085913	0.267815	-0.162346	0.34761	0.027231	0.595552	
0.700049	5.38483	0	0	-0.472117	0.0876315	-0.064252	0.569206	-0.051485	0.237032	-0.0524485	0.349683	-0.040906	0.026729	-0.0807935	0.246994	-0.119103	0.0847365	-0.038374	0.536932	-0.124802	0.073444	-0.17055	0.345379	-0.115894	0.177529	-0.0633535	0.204851	-0.219747	0.0266055	0.089011	0.25906	-0.175071	0.348853	0.037213	0.580137	
0.699293	5.3833	0	0	-0.484785	0.0860443	-0.0711025	0.579358	-0.051485	0.237032	-0.0549258	0.356684	-0.043795	0.026963	-0.0820392	0.250515	-0.127376	0.0878378	-0.036661	0.53209	-0.126429	0.069221	-0.173837	0.341019	-0.11761	0.173127	-0.0603352	0.196322	-0.220262	0.0150783	0.092109	0.250305	-0.187795	0.350097	0.047195	0.564723	
0.698274	5.3833	0	5	-0.497453	0.084457	-0.077953	0.589509	-0.051485	0.237032	-0.057403	0.363686	-0.046684	0.027197	-0.083285	0.254036	-0.135648	0.090939	-0.034948	0.527248	-0.128056	0.064998	-0.177124	0.336659	-0.119325	0.168725	-0.057317	0.187792	-0.220778	0.003551	0.095207	0.241549	-0.200519	0.35134	0.057177	0.549309	
0.69692	5.37872	0	5	-0.499845	0.066333	-0.075229	0.572606	-0.0507185	0.224219	-0.0634197	0.355064	-0.0532188	0.0298135	-0.0861602	0.250502	-0.13819	0.087994	-0.0396545	0.526603	-0.138603	0.0683678	-0.178915	0.328078	-0.122733	0.169112	-0.0689975	0.192148	-0.214802	-0.00035375	0.0944327	0.243737	-0.192533	0.346122	0.0512872	0.553157	
0.69537	5.37872	0	5	-0.502236	0.048209	-0.072505	0.555703	-0.049952	0.211407	-0.0694365	0.346442	-0.0597535	0.03243	-0.0890355	0.246968	-0.140733	0.085049	-0.044361	0.525958	-0.149151	0.0717375	-0.180705	0.319498	-0.126142	0.1695	-0.080678	0.196504	-0.208826	-0.0042585	0.0936585	0.245925	-0.184548	0.340904	0.0453975	0.557006	
0.693869	5.3772	0	5	-0.504628	0.030085	-0.069781	0.538801	-0.0491855	0.198595	-0.0754532	0.33782	-0.0662882	0.0350465	-0.0919107	0.243434	-0.143276	0.082104	-0.0490675	0.525313	-0.159698	0.0751073	-0.182496	0.310918	-0.12955	0.169887	-0.0923585	0.20086	-0.202851	-0.00816325	0.0928843	0.248113	-0.176562	0.335687	0.0395078	0.560855	
0.692663	5.37872	0	5	-0.50702	0.011961	-0.067057	0.521898	-0.048419	0.185782	-0.08147	0.329198	-0.072823	0.037663	-0.094786	0.2399	-0.145818	0.079159	-0.053774	0.524668	-0.170245	0.078477	-0.184286	0.302337	-0.132959	0.170274	-0.104039	0.205216	-0.196875	-0.012068	0.09211	0.250301	-0.168576	0.330469	0.033618	0.564703	
0.691996	5.38025	0	5	-0.512808	0.00346725	-0.0736762	0.513018	-0.055381	0.184184	-0.0812772	0.320119	-0.0764685	0.040045	-0.103019	0.239872	-0.146242	0.0702327	-0.0601882	0.528859	-0.17349	0.0700428	-0.195627	0.293528	-0.139791	0.161872	-0.101593	0.183992	-0.205551	-0.0135078	0.085238	0.244704	-0.184389	0.323156	0.0318195	0.556998	
0.692111	5.38177	0	5	-0.518595	-0.0050265	-0.0802955	0.504138	-0.062343	0.182586	-0.0810845	0.31104	-0.080114	0.042427	-0.111252	0.239843	-0.146667	0.0613065	-0.0666025	0.533051	-0.176735	0.0616085	-0.206968	0.284718	-0.146623	0.153471	-0.0991465	0.162767	-0.214226	-0.0149475	0.078366	0.239108	-0.200203	0.315843	0.030021	0.549293	
0.69306	5.38025	0	5	-0.524383	-0.0135202	-0.0869148	0.495257	-0.069305	0.180987	-0.0808918	0.301962	-0.0837595	0.044809	-0.119485	0.239814	-0.147092	0.0523802	-0.0730168	0.537242	-0.179979	0.0531743	-0.218309	0.275909	-0.153455	0.145069	-0.0967003	0.141543	-0.222902	-0.0163872	0.071494	0.233512	-0.216016	0.308531	0.0282225	0.541589	
0.694506	5.3772	0	5	-0.530171	-0.022014	-0.093534	0.486377	-0.076267	0.179389	-0.080699	0.292883	-0.087405	0.047191	-0.127718	0.239786	-0.147516	0.043454	-0.079431	0.541433	-0.183224	0.04474	-0.22965	0.2671	-0.160287	0.136667	-0.094254	0.120318	-0.231578	-0.017827	0.064622	0.227915	-0.231829	0.301218	0.026424	0.533884	
0.696066	5.3772	0	5	-0.531371	-0.0310345	-0.093534	0.486377	-0.0713727	0.176191	-0.0823465	0.297539	-0.090288	0.047422	-0.126474	0.236271	-0.150058	0.0405177	-0.0824185	0.53595	-0.186468	0.0363215	-0.236205	0.258435	-0.158624	0.122738	-0.107976	0.116231	-0.238064	-0.0254205	0.0638785	0.221684	-0.222237	0.291426	0.0187465	0.530032	
0.697357	5.3833	0	5	-0.532572	-0.040055	-0.093534	0.486377	-0.0664785	0.172992	-0.083994	0.302196	-0.093171	0.047653	-0.12523	0.232756	-0.152599	0.0375815	-0.085406	0.530468	-0.189713	0.027903	-0.24276	0.24977	-0.15696	0.10881	-0.121698	0.112145	-0.24455	-0.033014	0.063135	0.215454	-0.212644	0.281635	0.011069	0.52618	
0.697999	5.37262	0	5	-0.533772	-0.0490755	-0.093534	0.486377	-0.0615843	0.169794	-0.0856415	0.306852	-0.096054	0.047884	-0.123987	0.22924	-0.155141	0.0346453	-0.0883935	0.524986	-0.192958	0.0194845	-0.249315	0.241105	-0.155297	0.0948807	-0.13542	0.108059	-0.251035	-0.0406075	0.0623915	0.209223	-0.203051	0.271844	0.0033915	0.522328	
0.697644	5.36499	0	5	-0.534973	-0.058096	-0.093534	0.486377	-0.05669	0.166596	-0.087289	0.311508	-0.098937	0.048115	-0.122743	0.225725	-0.157683	0.031709	-0.091381	0.519503	-0.196202	0.011066	-0.25587	0.23244	-0.153633	0.080952	-0.149142	0.103972	-0.257521	-0.048201	0.061648	0.202992	-0.193459	0.262052	-0.004286	0.518476	
0.696382	5.37109	0	5	-0.543008	-0.0601905	-0.0986295	0.491592	-0.063649	0.165001	-0.0926683	0.309654	-0.102579	0.050495	-0.125613	0.222198	-0.167413	0.0288823	-0.0926597	0.509202	-0.192972	0.00193925	-0.260933	0.219597	-0.155348	0.0765765	-0.15121	0.09555	-0.260217	-0.0535282	0.0624205	0.20081	-0.206152	0.263304	-0.00156775	0.510794	
0.694592	5.36804	0	5	-0.551042	-0.062285	-0.103725	0.496806	-0.070608	0.163407	-0.0980475	0.307801	-0.106222	0.052875	-0.128482	0.218672	-0.177144	0.0260555	-0.0939385	0.498901	-0.189743	-0.0071875	-0.265995	0.206755	-0.157063	0.072201	-0.153278	0.087128	-0.262914	-0.0588555	0.063193	0.198627	-0.218845	0.264556	0.0011505	0.503112	
0.69266	5.36499	0	5	-0.559076	-0.0643795	-0.108821	0.50202	-0.077567	0.161812	-0.103427	0.305947	-0.109865	0.055255	-0.131352	0.215145	-0.186874	0.0232287	-0.0952173	0.4886	-0.186513	-0.0163142	-0.271058	0.193912	-0.158779	0.0678255	-0.155347	0.078706	-0.265611	-0.0641828	0.0639655	0.196444	-0.231538	0.265808	0.00386875	0.495429	
0.69097	5.36194	5	0	-0.567111	-0.066474	-0.113916	0.507235	-0.084526	0.160217	-0.108806	0.304093	-0.113507	0.057635	-0.134222	0.211618	-0.196605	0.020402	-0.096496	0.478299	-0.183284	-0.025441	-0.276121	0.181069	-0.160494	0.06345	-0.157415	0.070284	-0.268307	-0.06951	0.064738	0.194262	-0.244231	0.26706	0.006587	0.487747	
0.689906	5.36499	5	0	-0.571761	-0.078101	-0.121386	0.500814	-0.089595	0.153305	-0.115632	0.297828	-0.127301	0.0649955	-0.142823	0.201058	-0.201049	0.0026845	-0.10886	0.471556	-0.192197	-0.0353785	-0.288897	0.176524	-0.168162	0.0574815	-0.164545	0.0619335	-0.269394	-0.0664373	0.0639655	0.196444	-0.242612	0.262484	0.00522825	0.491587	
0.689694	5.37262	5	0	-0.57641	-0.089728	-0.128857	0.494394	-0.094664	0.146392	-0.122457	0.291563	-0.141095	0.072356	-0.151425	0.190499	-0.205493	-0.015033	-0.121223	0.464814	-0.201109	-0.045316	-0.301674	0.171979	-0.175831	0.051513	-0.171675	0.053583	-0.270482	-0.0633645	0.063193	0.198627	-0.240992	0.257908	0.0038695	0.495428	
0.69014	5.38025	5	0	-0.58106	-0.101355	-0.136327	0.487974	-0.099733	0.139479	-0.129283	0.285298	-0.154888	0.0797165	-0.160027	0.179939	-0.209937	-0.0327505	-0.133587	0.458071	-0.210022	-0.0552535	-0.31445	0.167433	-0.1835	0.0455445	-0.178805	0.0452325	-0.271569	-0.0602917	0.0624205	0.20081	-0.239373	0.253331	0.00251075	0.499268	
0.690977	5.40008	5	0	-0.58571	-0.112982	-0.143797	0.481553	-0.104802	0.132567	-0.136109	0.279033	-0.168682	0.087077	-0.168628	0.169379	-0.214381	-0.050468	-0.145951	0.451329	-0.218935	-0.065191	-0.327226	0.162888	-0.191168	0.039576	-0.185935	0.036882	-0.272656	-0.057219	0.061648	0.202992	-0.237754	0.248755	0.001152	0.503108	
0.691941	5.41687	5	0	-0.58234	-0.122505	-0.140334	0.471766	-0.102921	0.127253	-0.135287	0.27671	-0.172317	0.089452	-0.170254	0.162365	-0.213761	-0.0623032	-0.14723	0.44107	-0.22218	-0.073558	-0.330796	0.145926	-0.194594	0.0308525	-0.18651	0.0242727	-0.274265	-0.065612	0.0555568	0.195235	-0.258363	0.25519	-0.00515925	0.49543	
0.692765	5.43823	5	0	-0.578971	-0.132027	-0.136871	0.461979	-0.101041	0.121939	-0.134465	0.274387	-0.175951	0.091827	-0.17188	0.155352	-0.213141	-0.0741385	-0.148509	0.430812	-0.225425	-0.081925	-0.334367	0.128964	-0.19802	0.022129	-0.187085	0.0116635	-0.275873	-0.074005	0.0494655	0.187477	-0.278973	0.261626	-0.0114705	0.487752	
0.693202	5.46265	5	0	-0.575601	-0.141549	-0.133408	0.452192	-0.0991605	0.116624	-0.133643	0.272064	-0.179586	0.094202	-0.173505	0.148339	-0.21252	-0.0859737	-0.149788	0.420553	-0.22867	-0.090292	-0.337937	0.112002	-0.201445	0.0134055	-0.18766	-0.00094575	-0.277481	-0.082398	0.0433742	0.17972	-0.299582	0.268062	-0.0177817	0.480074	
0.693283	5.48248	5	0	-0.572232	-0.151072	-0.129945	0.442405	-0.09728	0.11131	-0.132821	0.269741	-0.183221	0.096577	-0.175131	0.141325	-0.2119	-0.097809	-0.151067	0.410294	-0.231915	-0.098659	-0.341507	0.09504	-0.204871	0.004682	-0.188235	-0.013555	-0.27909	-0.090791	0.037283	0.171962	-0.320191	0.274497	-0.024093	0.472396	
0.693254	5.49774	5	0	-0.572232	-0.151072	-0.12832	0.446985	-0.095215	0.11609	-0.129724	0.269503	-0.179586	0.094202	-0.172266	0.144836	-0.212951	-0.0948375	-0.155748	0.409658	-0.230308	-0.103202	-0.348033	0.0864712	-0.203191	-6.6E-05	-0.190307	-0.021924	-0.274749	-0.103058	0.043425	0.162924	-0.318574	0.269928	-0.0213805	0.46473	
0.69337	5.513	5	0	-0.572232	-0.151072	-0.126695	0.451566	-0.09315	0.12087	-0.126628	0.269265	-0.175951	0.091827	-0.169401	0.148346	-0.214002	-0.091866	-0.160428	0.409022	-0.228701	-0.107744	-0.35456	0.0779025	-0.201511	-0.004814	-0.192378	-0.030293	-0.270408	-0.115325	0.049567	0.153887	-0.316958	0.265358	-0.018668	0.457064	
0.693884	5.52978	5	0	-0.572232	-0.151072	-0.12507	0.456147	-0.091085	0.12565	-0.123531	0.269028	-0.172317	0.089452	-0.166535	0.151857	-0.215054	-0.0888945	-0.165108	0.408386	-0.227093	-0.112286	-0.361087	0.0693337	-0.199831	-0.009562	-0.194449	-0.038662	-0.266068	-0.127593	0.055709	0.144849	-0.315341	0.260789	-0.0159555	0.449399	
0.69505	5.54657	5	0	-0.572232	-0.151072	-0.123445	0.460727	-0.08902	0.13043	-0.120434	0.26879	-0.168682	0.087077	-0.16367	0.155367	-0.216105	-0.085923	-0.169789	0.40775	-0.225486	-0.116829	-0.367613	0.060765	-0.198151	-0.01431	-0.196521	-0.047031	-0.261727	-0.13986	0.061851	0.135812	-0.313724	0.25622	-0.013243	0.441733	
0.696996	5.55878	5	0	-0.580251	-0.153146	-0.12929	0.458904	-0.0950285	0.126185	-0.128898	0.26718	-0.175189	0.0896767	-0.167774	0.155357	-0.217589	-0.091804	-0.172767	0.402313	-0.228716	-0.116464	-0.375605	0.056378	-0.198151	-0.01431	-0.196521	-0.047031	-0.263897	-0.133729	0.0595385	0.142347	-0.313724	0.25622	-0.014599	0.445565	
0.69939	5.56183	5	0	-0.588269	-0.155219	-0.135134	0.457081	-0.101037	0.12194	-0.137363	0.26557	-0.181696	0.0922765	-0.171878	0.155346	-0.219074	-0.097685	-0.175745	0.396876	-0.231945	-0.116099	-0.383598	0.051991	-0.198151	-0.01431	-0.196521	-0.047031	-0.266066	-0.127597	0.057226	0.148883	-0.313724	0.25622	-0.015955	0.449397	
0.701799	5.56488	5	0	-0.596287	-0.157293	-0.140979	0.455257	-0.107046	0.117695	-0.145827	0.263961	-0.188204	0.0948762	-0.175981	0.155335	-0.220558	-0.103566	-0.178723	0.39144	-0.235175	-0.115735	-0.39159	0.047604	-0.198151	-0.01431	-0.196521	-0.047031	-0.268236	-0.121466	0.0549135	0.155418	-0.313724	0.25622	-0.017311	0.453229	
0.703786	5.56335	0	5	-0.604306	-0.159366	-0.146824	0.453434	-0.113054	0.11345	-0.154292	0.262351	-0.194711	0.097476	-0.180085	0.155325	-0.222043	-0.109447	-0.181701	0.386003	-0.238405	-0.11537	-0.399582	0.043217	-0.198151	-0.01431	-0.196521	-0.047031	-0.270406	-0.115334	0.052601	0.161953	-0.313724	0.25622	-0.018667	0.457061	
0.704916	5.55878	0	5	-0.607751	-0.161987	-0.146718	0.443971	-0.115117	0.108676	-0.154923	0.25563	-0.201973	0.102221	-0.184573	0.144814	-0.228595	-0.121124	-0.187654	0.375151	-0.240046	-0.128245	-0.404621	0.0305242	-0.20074	-0.0253778	-0.202155	-0.0595238	-0.275272	-0.114512	0.0503133	0.160098	-0.320042	0.256837	-0.0290382	0.460892	
0.704764	5.55267	0	5	-0.611196	-0.164607	-0.146613	0.434508	-0.117179	0.103902	-0.155553	0.248909	-0.209234	0.106966	-0.189061	0.134302	-0.235148	-0.132802	-0.193607	0.3643	-0.241687	-0.14112	-0.409661	0.0178315	-0.20333	-0.0364455	-0.207788	-0.0720165	-0.280138	-0.113689	0.0480255	0.158243	-0.32636	0.257455	-0.0394095	0.464722	
0.703263	5.54504	0	5	-0.61464	-0.167228	-0.146507	0.425046	-0.119242	0.0991273	-0.156184	0.242187	-0.216496	0.111711	-0.193549	0.123791	-0.2417	-0.144479	-0.19956	0.353448	-0.243329	-0.153996	-0.414701	0.00513875	-0.20592	-0.0475133	-0.213422	-0.0845093	-0.285004	-0.112867	0.0457378	0.156387	-0.332678	0.258072	-0.0497807	0.468552	
0.700823	5.53589	0	5	-0.618085	-0.169848	-0.146401	0.415583	-0.121305	0.094353	-0.156814	0.235466	-0.223758	0.116456	-0.198037	0.11328	-0.248252	-0.156157	-0.205513	0.342597	-0.24497	-0.166871	-0.41974	-0.007554	-0.208509	-0.058581	-0.219056	-0.097002	-0.28987	-0.112045	0.04345	0.154532	-0.338996	0.258689	-0.060152	0.472383	
0.697889	5.52826	0	5	-0.611278	-0.17673	-0.14813	0.420468	-0.121305	0.094353	-0.153721	0.235228	-0.231014	0.121197	-0.196801	0.109787	-0.24869	-0.164974	-0.213153	0.336554	-0.244992	-0.17556	-0.420058	-0.0201078	-0.211101	-0.0696235	-0.214598	-0.109601	-0.292564	-0.117352	0.0388775	0.150825	-0.335767	0.249562	-0.061945	0.464724	
0.694905	5.52063	0	5	-0.604471	-0.183612	-0.149859	0.425354	-0.121305	0.094353	-0.150628	0.234989	-0.238269	0.125938	-0.195565	0.106294	-0.249128	-0.173791	-0.220793	0.33051	-0.245014	-0.184248	-0.420376	-0.0326615	-0.213693	-0.080666	-0.21014	-0.1222	-0.295258	-0.122659	0.034305	0.147118	-0.332537	0.240435	-0.063738	0.457066	
0.692315	5.51453	0	5	-0.597664	-0.190494	-0.151587	0.430239	-0.121305	0.094353	-0.147534	0.234751	-0.245525	0.130679	-0.194329	0.1028	-0.249566	-0.182607	-0.228432	0.324467	-0.245036	-0.192937	-0.420694	-0.0452152	-0.216286	-0.0917085	-0.205682	-0.134799	-0.297953	-0.127965	0.0297325	0.14341	-0.329307	0.231309	-0.065531	0.449407	
0.690508	5.50995	0	5	-0.590857	-0.197376	-0.153316	0.435125	-0.121305	0.094353	-0.144441	0.234512	-0.252781	0.13542	-0.193093	0.099307	-0.250004	-0.191424	-0.236072	0.318424	-0.245058	-0.201626	-0.421012	-0.057769	-0.218878	-0.102751	-0.201224	-0.147398	-0.300647	-0.133272	0.02516	0.139703	-0.326078	0.222182	-0.067324	0.441748	
0.689539	5.50079	0	5	-0.597664	-0.190494	-0.153424	0.444595	-0.122244	0.0970065	-0.149996	0.241708	-0.249154	0.13305	-0.191466	0.106304	-0.255676	-0.185443	-0.234381	0.313644	-0.245058	-0.201626	-0.424267	-0.0620142	-0.215489	-0.103148	-0.201224	-0.147398	-0.299563	-0.136334	0.0312735	0.139055	-0.324464	0.217622	-0.0659705	0.437922	
0.689336	5.49774	0	5	-0.604471	-0.183612	-0.153532	0.454064	-0.123183	0.09966	-0.155552	0.248905	-0.245527	0.13068	-0.18984	0.113301	-0.261348	-0.179463	-0.232689	0.308865	-0.245058	-0.201626	-0.427521	-0.0662595	-0.212099	-0.103544	-0.201224	-0.147398	-0.29848	-0.139396	0.037387	0.138407	-0.322851	0.213062	-0.064617	0.434097	
0.689824	5.49164	0	5	-0.611278	-0.17673	-0.15364	0.463533	-0.124122	0.102314	-0.161107	0.256101	-0.2419	0.12831	-0.188214	0.120299	-0.267019	-0.173482	-0.230998	0.304086	-0.245058	-0.201626	-0.430776	-0.0705048	-0.20871	-0.10394	-0.201224	-0.147398	-0.297397	-0.142458	0.0435005	0.137759	-0.321238	0.208502	-0.0632635	0.430271	
0.690931	5.48096	0	5	-0.618085	-0.169848	-0.153748	0.473003	-0.125061	0.104967	-0.166662	0.263298	-0.238273	0.12594	-0.186587	0.127296	-0.272691	-0.167501	-0.229307	0.299306	-0.245058	-0.201626	-0.434031	-0.07475	-0.205321	-0.104337	-0.201224	-0.147398	-0.296313	-0.14552	0.049614	0.137111	-0.319624	0.203942	-0.06191	0.426446	
0.692582	5.4779	0	5	-0.615845	-0.176179	-0.157855	0.466288	-0.133875	0.108686	-0.172021	0.261451	-0.2419	0.12831	-0.193546	0.123783	-0.268506	-0.17933	-0.23228	0.293905	-0.246682	-0.205781	-0.43582	-0.083128	-0.209547	-0.101576	-0.212797	-0.143062	-0.295787	-0.134085	0.0495895	0.145501	-0.324467	0.217629	-0.0659725	0.437927	
0.694649	5.47485	0	5	-0.613604	-0.182511	-0.161963	0.459573	-0.142688	0.112405	-0.177381	0.259603	-0.245527	0.13068	-0.200506	0.120271	-0.264321	-0.191158	-0.235253	0.288504	-0.248307	-0.209935	-0.437609	-0.091506	-0.213773	-0.0988145	-0.22437	-0.138725	-0.295262	-0.12265	0.049565	0.153891	-0.32931	0.231316	-0.070035	0.449408	
0.696915	5.46722	0	5	-0.611364	-0.188842	-0.166071	0.452858	-0.151502	0.116124	-0.182741	0.257756	-0.249154	0.13305	-0.207465	0.116758	-0.260135	-0.202987	-0.238225	0.283104	-0.249932	-0.21409	-0.439397	-0.099884	-0.217999	-0.0960533	-0.235944	-0.134388	-0.294736	-0.111215	0.0495405	0.162281	-0.334153	0.245002	-0.0740975	0.46089	
0.699156	5.46265	5	0	-0.609124	-0.195174	-0.170178	0.446143	-0.160315	0.119843	-0.1881	0.255909	-0.252781	0.13542	-0.214424	0.113245	-0.25595	-0.214815	-0.241198	0.277703	-0.251556	-0.218245	-0.441186	-0.108262	-0.222225	-0.093292	-0.247517	-0.130052	-0.29421	-0.09978	0.049516	0.170671	-0.338996	0.258689	-0.07816	0.472371	
0.701148	5.46112	5	0	-0.609124	-0.195174	-0.168449	0.441258	-0.158438	0.114538	-0.191188	0.256144	-0.26003	0.140157	-0.216048	0.106256	-0.257437	-0.220656	-0.244169	0.272309	-0.251582	-0.226913	-0.441515	-0.120755	-0.223103	-0.0999872	-0.248107	-0.142554	-0.288789	-0.115101	0.04877	0.164459	-0.337381	0.254124	-0.079951	0.464714	
0.702666	5.45807	5	0	-0.609124	-0.195174	-0.16672	0.436372	-0.156561	0.109234	-0.194275	0.25638	-0.26728	0.144894	-0.217672	0.0992665	-0.258924	-0.226496	-0.247141	0.266916	-0.251609	-0.235581	-0.441844	-0.133249	-0.223982	-0.106682	-0.248697	-0.155056	-0.283367	-0.130422	0.048024	0.158246	-0.335766	0.24956	-0.081742	0.457058	
0.703503	5.45807	5	0	-0.609124	-0.195174	-0.164992	0.431487	-0.154684	0.103929	-0.197363	0.256615	-0.274529	0.14963	-0.219297	0.0922773	-0.260411	-0.232337	-0.250112	0.261522	-0.251635	-0.24425	-0.442174	-0.145742	-0.22486	-0.113378	-0.249287	-0.167557	-0.277946	-0.145743	0.047278	0.152033	-0.33415	0.244996	-0.083533	0.449402	
0.70361	5.45807	5	0	-0.609124	-0.195174	-0.163263	0.426602	-0.152807	0.098624	-0.200451	0.256851	-0.281778	0.154367	-0.220921	0.085288	-0.261898	-0.238178	-0.253084	0.256129	-0.251661	-0.252918	-0.442503	-0.158236	-0.225738	-0.120073	-0.249877	-0.180059	-0.272525	-0.161064	0.046532	0.145821	-0.332535	0.240431	-0.085324	0.441745	
0.703035	5.45807	5	0	-0.611364	-0.188842	-0.164992	0.431487	-0.149809	0.100743	-0.198184	0.258934	-0.28464	0.154585	-0.220921	0.085288	-0.268003	-0.240995	-0.256054	0.250742	-0.254884	-0.252548	-0.447216	-0.15833	-0.224067	-0.124797	-0.249877	-0.180059	-0.275224	-0.166358	0.0503617	0.143319	-0.337234	0.236488	-0.083971	0.437921	
0.701828	5.45959	5	0	-0.613604	-0.182511	-0.16672	0.436372	-0.146811	0.102863	-0.195916	0.261018	-0.287502	0.154804	-0.220921	0.085288	-0.274108	-0.243811	-0.259025	0.245356	-0.258107	-0.252178	-0.451929	-0.158423	-0.222395	-0.129521	-0.249877	-0.180059	-0.277923	-0.171652	0.0541915	0.140817	-0.341932	0.232545	-0.082618	0.434098	
0.700038	5.46265	5	0	-0.615845	-0.176179	-0.168449	0.441258	-0.143813	0.104983	-0.193649	0.263101	-0.290365	0.155023	-0.220921	0.085288	-0.280214	-0.246627	-0.261995	0.23997	-0.26133	-0.251808	-0.456643	-0.158517	-0.220723	-0.134245	-0.249877	-0.180059	-0.280621	-0.176946	0.0580213	0.138314	-0.346631	0.228602	-0.081265	0.430274	
0.697715	5.46265	5	0	-0.618085	-0.169848	-0.170178	0.446143	-0.140815	0.107102	-0.191382	0.265184	-0.293227	0.155241	-0.220921	0.085288	-0.286319	-0.249444	-0.264966	0.234583	-0.264553	-0.251438	-0.461356	-0.158611	-0.219052	-0.138969	-0.249877	-0.180059	-0.28332	-0.18224	0.061851	0.135812	-0.35133	0.224659	-0.079912	0.42645	
0.694982	5.4657	5	0	-0.616965	-0.173014	-0.175256	0.45134	-0.148685	0.108166	-0.193649	0.263101	-0.297608	0.159755	-0.226247	0.0887683	-0.288847	-0.252325	-0.275953	0.238101	-0.260531	-0.254066	-0.455182	-0.162645	-0.217336	-0.134642	-0.239793	-0.180207	-0.281705	-0.173884	0.0641168	0.14606	-0.346631	0.228602	-0.076765	0.430275	
0.69217	5.46722	5	0	-0.615844	-0.176181	-0.180335	0.456537	-0.156555	0.10923	-0.195916	0.261018	-0.30199	0.16427	-0.231573	0.0922485	-0.291376	-0.255206	-0.28694	0.241619	-0.25651	-0.256694	-0.449009	-0.166679	-0.215619	-0.130316	-0.22971	-0.180356	-0.280089	-0.165527	0.0663825	0.156309	-0.341932	0.232545	-0.073618	0.434099	
0.68965	5.46875	5	0	-0.614723	-0.179347	-0.185413	0.461734	-0.164425	0.110294	-0.198184	0.258934	-0.306371	0.168785	-0.236899	0.0957288	-0.293905	-0.258087	-0.297927	0.245138	-0.252488	-0.259321	-0.442835	-0.170713	-0.213903	-0.125989	-0.219627	-0.180504	-0.278474	-0.157171	0.0686483	0.166557	-0.337234	0.236488	-0.070471	0.437923	
0.687792	5.46417	5	0	-0.613603	-0.182513	-0.190491	0.466931	-0.172295	0.111358	-0.200451	0.256851	-0.310752	0.173299	-0.242225	0.099209	-0.296433	-0.260968	-0.308914	0.248656	-0.248466	-0.261949	-0.436661	-0.174747	-0.212187	-0.121662	-0.209543	-0.180652	-0.276859	-0.148815	0.070914	0.176806	-0.332535	0.240431	-0.067324	0.441748	
0.686965	5.46722	5	0	-0.619286	-0.1788	-0.192973	0.464796	-0.176226	0.111889	-0.202717	0.254769	-0.317989	0.178028	-0.243847	0.0922277	-0.301487	-0.266724	-0.305547	0.23914	-0.253314	-0.26572	-0.436661	-0.174747	-0.214739	-0.123627	-0.213105	-0.184765	-0.281197	-0.136556	0.0724323	0.180847	-0.342077	0.250175	-0.077242	0.457059	
0.687507	5.46875	5	0	-0.624969	-0.175087	-0.195456	0.462661	-0.180157	0.112419	-0.204984	0.252687	-0.325226	0.182757	-0.245469	0.0852465	-0.306541	-0.272479	-0.30218	0.229625	-0.258162	-0.26949	-0.436661	-0.174747	-0.217291	-0.125592	-0.216667	-0.188878	-0.285535	-0.124298	0.0739505	0.184888	-0.351618	0.259918	-0.08716	0.47237	
0.689283	5.46722	5	0	-0.630651	-0.171373	-0.197938	0.460526	-0.184089	0.112949	-0.207251	0.250605	-0.332463	0.187486	-0.247091	0.0782653	-0.311595	-0.278234	-0.298812	0.220109	-0.26301	-0.273261	-0.436661	-0.174747	-0.219843	-0.127557	-0.220229	-0.192991	-0.289872	-0.112039	0.0754688	0.188929	-0.36116	0.269662	-0.097078	0.487681	
0.691812	5.4779	5	0	-0.636334	-0.16766	-0.20042	0.458391	-0.18802	0.11348	-0.209517	0.248523	-0.3397	0.192215	-0.248713	0.071284	-0.316649	-0.28399	-0.295445	0.210593	-0.267858	-0.277032	-0.436661	-0.174747	-0.222395	-0.129522	-0.223791	-0.197104	-0.29421	-0.09978	0.076987	0.19297	-0.370701	0.279406	-0.106996	0.502992	
0.694606	5.46875	5	0	-0.634014	-0.161871	-0.199668	0.465415	-0.185966	0.118254	-0.209712	0.257561	-0.33894	0.190066	-0.249946	0.074769	-0.315608	-0.286933	-0.298812	0.220109	-0.264636	-0.277403	-0.433405	-0.170527	-0.219007	-0.12992	-0.218746	-0.197181	-0.295295	-0.0967125	0.0723797	0.197659	-0.362775	0.274227	-0.106996	0.502992	
0.697176	5.4718	5	0	-0.631693	-0.156082	-0.198915	0.47244	-0.183912	0.123028	-0.209907	0.266599	-0.338179	0.187918	-0.251179	0.078254	-0.314566	-0.289876	-0.30218	0.229625	-0.261414	-0.277775	-0.430148	-0.166306	-0.215618	-0.130318	-0.213702	-0.197258	-0.296381	-0.093645	0.0677725	0.202348	-0.354849	0.269047	-0.106996	0.502992	
0.699032	5.47943	5	0	-0.629373	-0.150293	-0.198163	0.479465	-0.181857	0.127803	-0.210102	0.275638	-0.337419	0.18577	-0.252413	0.081739	-0.313524	-0.292819	-0.305547	0.23914	-0.258193	-0.278146	-0.426891	-0.162085	-0.21223	-0.130715	-0.208657	-0.197334	-0.297466	-0.0905775	0.0631653	0.207036	-0.346922	0.263868	-0.106996	0.502992	
0.699829	5.47943	5	0	-0.627053	-0.144504	-0.197411	0.486489	-0.179803	0.132577	-0.210297	0.284676	-0.336659	0.183621	-0.253646	0.085224	-0.312483	-0.295762	-0.308914	0.248656	-0.254971	-0.278517	-0.423635	-0.157865	-0.208842	-0.131113	-0.203613	-0.197411	-0.298551	-0.08751	0.058558	0.211725	-0.338996	0.258689	-0.106996	0.502992	
0.69975	5.4779	5	0	-0.626978	-0.13236	-0.196779	0.503017	-0.180569	0.145327	-0.211317	0.296051	-0.333041	0.181257	-0.25326	0.0957	-0.315608	-0.28693	-0.304265	0.249279	-0.250919	-0.272488	-0.42184	-0.149504	-0.202015	-0.122848	-0.203016	-0.184908	-0.300723	-0.0813723	0.0623637	0.217637	-0.338996	0.258689	-0.102498	0.502999	
