3.57361	0	0	-0.118803	0.369437	-0.118867	0.273244	-0.120955	0.307926	-0.152266	0.311757	-0.066862	0.248914	-0.043025	0.200743	-0.062839	0.213993	-0.134187	0.316019	0.00175	0.090749	-0.365403	-0.048084	-0.01671	0.110335	0.057868	0.057621	-0.094942	0.218598	-0.12609	0.184956	-0.086157	0.207699	-0.29732	0.13615	
3.57208	0	0	-0.127838	0.370924	-0.120039	0.259157	-0.117544	0.298287	-0.149834	0.304882	-0.0719723	0.252253	-0.0503113	0.205504	-0.062839	0.213993	-0.139308	0.316136	-0.003623	0.0942598	-0.36673	-0.044334	-0.01671	0.110335	0.0538655	0.0689328	-0.0842652	0.216058	-0.117122	0.191339	-0.0805167	0.20966	-0.300792	0.145964	
3.56598	0	0	-0.136874	0.372412	-0.12121	0.245069	-0.114133	0.288648	-0.147401	0.298007	-0.0770825	0.255592	-0.0575975	0.210265	-0.062839	0.213993	-0.144429	0.316253	-0.008996	0.0977705	-0.368057	-0.040584	-0.01671	0.110335	0.049863	0.0802445	-0.0735885	0.213518	-0.108153	0.197723	-0.0748765	0.21162	-0.304265	0.155778	
3.5675	0	0	-0.145909	0.373899	-0.122382	0.230982	-0.110723	0.279009	-0.144969	0.291132	-0.0821928	0.258931	-0.0648837	0.215027	-0.062839	0.213993	-0.149549	0.316371	-0.014369	0.101281	-0.369384	-0.036834	-0.01671	0.110335	0.0458605	0.0915563	-0.0629117	0.210979	-0.0991845	0.204107	-0.0692362	0.213581	-0.307737	0.165592	
3.5675	0	0	-0.154945	0.375386	-0.123554	0.216894	-0.107312	0.26937	-0.142536	0.284257	-0.087303	0.26227	-0.07217	0.219788	-0.062839	0.213993	-0.15467	0.316488	-0.019742	0.104792	-0.370711	-0.033084	-0.01671	0.110335	0.041858	0.102868	-0.052235	0.208439	-0.090216	0.21049	-0.063596	0.215542	-0.31121	0.175406	
3.56598	0	0	-0.150883	0.363907	-0.12303	0.19803	-0.115355	0.270923	-0.147658	0.284963	-0.0854943	0.257158	-0.0764887	0.216175	-0.0660885	0.211803	-0.158302	0.312408	-0.0178167	0.0993515	-0.368058	-0.0405825	-0.0198783	0.108407	0.0405955	0.0863113	-0.0649537	0.21675	-0.106477	0.208872	-0.0705352	0.217253	-0.31983	0.181038	
3.5675	0	0	-0.146821	0.352428	-0.122506	0.179167	-0.123398	0.272477	-0.152781	0.285669	-0.0836855	0.252046	-0.0808075	0.212562	-0.069338	0.209612	-0.161934	0.308329	-0.0158915	0.093911	-0.365405	-0.048081	-0.0230465	0.106478	0.039333	0.0697545	-0.0776725	0.22506	-0.122739	0.207253	-0.0774745	0.218963	-0.32845	0.186671	
3.56293	0	0	-0.14276	0.340949	-0.121982	0.160304	-0.131441	0.27403	-0.157904	0.286375	-0.0818767	0.246934	-0.0851263	0.208949	-0.0725875	0.207421	-0.165566	0.30425	-0.0139662	0.0884705	-0.362751	-0.0555795	-0.0262147	0.10455	0.0380705	0.0531977	-0.0903912	0.233371	-0.139	0.205634	-0.0844138	0.220673	-0.337069	0.192303	
3.56293	0	0	-0.138698	0.32947	-0.121458	0.14144	-0.139484	0.275583	-0.163026	0.287081	-0.080068	0.241822	-0.089445	0.205336	-0.075837	0.205231	-0.169198	0.30017	-0.012041	0.08303	-0.360098	-0.063078	-0.029383	0.102621	0.036808	0.036641	-0.10311	0.241682	-0.155261	0.204016	-0.091353	0.222384	-0.345689	0.197935	
3.56445	0	0	-0.138698	0.32947	-0.124865	0.151069	-0.141188	0.280398	-0.157904	0.286375	-0.080068	0.241822	-0.0879652	0.201154	-0.0738527	0.199623	-0.167714	0.295976	-0.00666825	0.0795193	-0.358772	-0.0668247	-0.029383	0.102621	0.0315477	0.0314038	-0.108441	0.242947	-0.162798	0.193666	-0.090054	0.218713	-0.342217	0.188121	
3.56293	0	0	-0.138698	0.32947	-0.128272	0.160697	-0.142892	0.285214	-0.152781	0.285669	-0.080068	0.241822	-0.0864855	0.196972	-0.0718685	0.194015	-0.16623	0.291783	-0.0012955	0.0760085	-0.357447	-0.0705715	-0.029383	0.102621	0.0262875	0.0261665	-0.113772	0.244211	-0.170334	0.183316	-0.088755	0.215041	-0.338744	0.178308	
3.56293	0	0	-0.138698	0.32947	-0.131679	0.170326	-0.144596	0.29003	-0.147658	0.284963	-0.080068	0.241822	-0.0850058	0.192791	-0.0698843	0.188407	-0.164746	0.287589	0.00407725	0.0724977	-0.356121	-0.0743183	-0.029383	0.102621	0.0210273	0.0209292	-0.119103	0.245476	-0.17787	0.172967	-0.087456	0.21137	-0.335272	0.168494	
3.55987	0	0	-0.138698	0.32947	-0.135086	0.179955	-0.1463	0.294845	-0.142536	0.284257	-0.080068	0.241822	-0.083526	0.188609	-0.0679	0.182799	-0.163262	0.283395	0.00945	0.068987	-0.354795	-0.078065	-0.029383	0.102621	0.015767	0.015692	-0.124434	0.246741	-0.185407	0.162617	-0.086157	0.207699	-0.331799	0.15868	
3.55987	0	0	-0.138698	0.32947	-0.133911	0.194016	-0.1463	0.294845	-0.155208	0.292537	-0.0809722	0.244378	-0.0864863	0.196975	-0.068892	0.185603	-0.159629	0.287471	0.00945	0.068987	-0.354795	-0.078065	-0.0284632	0.100021	0.0210273	0.0209292	-0.122393	0.240972	-0.176723	0.153892	-0.0835603	0.200361	-0.338676	0.159404	
3.55987	0	0	-0.138698	0.32947	-0.132736	0.208077	-0.1463	0.294845	-0.16788	0.300817	-0.0818765	0.246934	-0.0894465	0.20534	-0.069884	0.188406	-0.155996	0.291547	0.00945	0.068987	-0.354795	-0.078065	-0.0275435	0.097422	0.0262875	0.0261665	-0.120352	0.235203	-0.168038	0.145167	-0.0809635	0.193022	-0.345552	0.160127	
3.55987	0	0	-0.138698	0.32947	-0.13156	0.222138	-0.1463	0.294845	-0.180551	0.309097	-0.0827808	0.249489	-0.0924067	0.213706	-0.070876	0.191209	-0.152362	0.295622	0.00945	0.068987	-0.354795	-0.078065	-0.0266238	0.0948225	0.0315477	0.0314038	-0.11831	0.229434	-0.159354	0.136441	-0.0783667	0.185684	-0.352428	0.160851	
3.55682	0	0	-0.138698	0.32947	-0.130385	0.236199	-0.1463	0.294845	-0.193223	0.317377	-0.083685	0.252045	-0.095367	0.222072	-0.071868	0.194013	-0.148729	0.299698	0.00945	0.068987	-0.354795	-0.078065	-0.025704	0.092223	0.036808	0.036641	-0.116269	0.223665	-0.15067	0.127716	-0.07577	0.178346	-0.359305	0.161575	
3.55682	0	0	-0.156735	0.332442	-0.139553	0.227361	-0.152629	0.291578	-0.190792	0.310507	-0.086984	0.250272	-0.10116	0.222641	-0.0751162	0.191825	-0.152362	0.295622	0.006001	0.0670605	-0.354795	-0.078065	-0.025704	0.092223	0.0348098	0.042288	-0.117289	0.226549	-0.150411	0.142814	-0.0796658	0.189356	-0.355901	0.170665	
3.5553	0	0	-0.174773	0.335415	-0.148722	0.218523	-0.158958	0.288311	-0.188362	0.303638	-0.090283	0.248499	-0.106954	0.22321	-0.0783645	0.189638	-0.155996	0.291547	0.002552	0.065134	-0.354795	-0.078065	-0.025704	0.092223	0.0328115	0.047935	-0.11831	0.229433	-0.150151	0.157912	-0.0835615	0.200365	-0.352497	0.179755	
3.55072	0	0	-0.19281	0.338388	-0.15789	0.209684	-0.165287	0.285044	-0.185931	0.296768	-0.093582	0.246725	-0.112748	0.22378	-0.0816128	0.187451	-0.159629	0.287471	-0.000897	0.0632075	-0.354795	-0.078065	-0.025704	0.092223	0.0308133	0.053582	-0.119331	0.232317	-0.149891	0.17301	-0.0874573	0.211374	-0.349093	0.188845	
3.55224	0	0	-0.210848	0.34136	-0.167058	0.200846	-0.171616	0.281777	-0.1835	0.289898	-0.096881	0.244952	-0.118541	0.224349	-0.084861	0.185263	-0.163262	0.283395	-0.004346	0.061281	-0.354795	-0.078065	-0.025704	0.092223	0.028815	0.059229	-0.120351	0.235201	-0.149632	0.188108	-0.091353	0.222384	-0.345689	0.197935	
3.54919	0	0	-0.206797	0.329911	-0.169935	0.191625	-0.179639	0.283321	-0.182285	0.286465	-0.101985	0.248287	-0.117061	0.220167	-0.0890983	0.185878	-0.166893	0.279324	-0.00242325	0.055847	-0.358474	-0.0814185	-0.028871	0.0902972	0.0163105	0.054384	-0.12772	0.242234	-0.155512	0.188894	-0.0995837	0.227762	-0.3543	0.203562	
3.54767	0	0	-0.202746	0.318462	-0.172811	0.182403	-0.187661	0.284865	-0.18107	0.283033	-0.107089	0.251622	-0.115582	0.215985	-0.0933355	0.186493	-0.170524	0.275253	-0.0005005	0.050413	-0.362153	-0.084772	-0.032038	0.0883715	0.003806	0.049539	-0.135088	0.249267	-0.161391	0.18968	-0.107815	0.233141	-0.362912	0.209188	
3.54614	0	0	-0.198694	0.307012	-0.175687	0.173182	-0.195684	0.286409	-0.179856	0.2796	-0.112193	0.254957	-0.114102	0.211803	-0.0975727	0.187107	-0.174155	0.271181	0.00142225	0.044979	-0.365832	-0.0881255	-0.035205	0.0864458	-0.0086985	0.044694	-0.142457	0.256299	-0.167271	0.190465	-0.116045	0.238519	-0.371523	0.214815	
3.54462	0	0	-0.194643	0.295563	-0.178564	0.163961	-0.203707	0.287953	-0.178641	0.276167	-0.117297	0.258292	-0.112622	0.207621	-0.10181	0.187722	-0.177786	0.26711	0.003345	0.039545	-0.369511	-0.091479	-0.038372	0.08452	-0.021203	0.039849	-0.149825	0.263332	-0.173151	0.191251	-0.124276	0.243897	-0.380134	0.220442	
3.53699	0	0	-0.196668	0.301286	-0.167694	0.167959	-0.205409	0.292764	-0.181071	0.283034	-0.116393	0.255738	-0.112622	0.207621	-0.10181	0.187722	-0.177786	0.26711	0.003345	0.039545	-0.374511	-0.0910887	-0.038372	0.08452	-0.0172155	0.02858	-0.147784	0.257563	-0.180681	0.180911	-0.1312	0.245599	-0.378397	0.215534	
3.54462	0	0	-0.198693	0.307009	-0.156825	0.171958	-0.207111	0.297574	-0.183501	0.289901	-0.115489	0.253184	-0.112622	0.207621	-0.10181	0.187722	-0.177786	0.26711	0.003345	0.039545	-0.379511	-0.0906985	-0.038372	0.08452	-0.013228	0.017311	-0.145742	0.251794	-0.188212	0.170571	-0.138124	0.2473	-0.376661	0.210625	
3.54767	0	0	-0.200718	0.312731	-0.145956	0.175957	-0.208813	0.302385	-0.185931	0.296768	-0.114586	0.25063	-0.112622	0.207621	-0.10181	0.187722	-0.177786	0.26711	0.003345	0.039545	-0.384511	-0.0903083	-0.038372	0.08452	-0.0092405	0.006042	-0.143701	0.246024	-0.195743	0.16023	-0.145048	0.249002	-0.374924	0.205717	
3.54919	0	0	-0.202743	0.318454	-0.135086	0.179955	-0.210515	0.307195	-0.188361	0.303635	-0.113682	0.248076	-0.112622	0.207621	-0.10181	0.187722	-0.177786	0.26711	0.003345	0.039545	-0.389511	-0.089918	-0.038372	0.08452	-0.005253	-0.005227	-0.14166	0.240255	-0.203273	0.14989	-0.151972	0.250704	-0.373187	0.200809	
3.54462	0	0	-0.202743	0.318454	-0.135619	0.198845	-0.20079	0.300841	-0.190793	0.310507	-0.11549	0.253185	-0.115582	0.215987	-0.102801	0.190524	-0.174155	0.271181	0.003345	0.039545	-0.384511	-0.0903083	-0.038372	0.08452	0.0019965	-0.0056335	-0.14064	0.237372	-0.195999	0.145137	-0.143749	0.245331	-0.357693	0.194458	
3.55987	0	0	-0.202743	0.318454	-0.136153	0.217734	-0.191065	0.294486	-0.193224	0.317379	-0.117297	0.258294	-0.118542	0.224353	-0.103793	0.193325	-0.170524	0.275253	0.003345	0.039545	-0.379511	-0.0906985	-0.038372	0.08452	0.009246	-0.00604	-0.13962	0.234489	-0.188725	0.140384	-0.135526	0.239958	-0.342198	0.188107	
3.5553	0	0	-0.202743	0.318454	-0.136686	0.236623	-0.181341	0.288131	-0.195656	0.324252	-0.119105	0.263403	-0.121503	0.232718	-0.104785	0.196127	-0.166893	0.279324	0.003345	0.039545	-0.374511	-0.0910887	-0.038372	0.08452	0.0164955	-0.0064465	-0.138599	0.231606	-0.181451	0.135631	-0.127303	0.234585	-0.326704	0.181757	
3.5202	0	0	-0.202743	0.318454	-0.137219	0.255513	-0.171616	0.281777	-0.198087	0.331124	-0.120913	0.268512	-0.124463	0.241084	-0.105776	0.198929	-0.163262	0.283395	0.003345	0.039545	-0.369511	-0.091479	-0.038372	0.08452	0.023745	-0.006853	-0.137579	0.228723	-0.174177	0.130878	-0.11908	0.229212	-0.31121	0.175406	
3.52783	0	0	-0.200718	0.312731	-0.14809	0.251485	-0.179639	0.283321	-0.195656	0.324252	-0.124207	0.266736	-0.122982	0.2369	-0.104785	0.196127	-0.169859	0.287706	-0.0020245	0.0430538	-0.370835	-0.0877355	-0.0392912	0.087118	0.0177582	0.0100663	-0.133272	0.230343	-0.173921	0.145971	-0.10781	0.233145	-0.292255	0.178135	
3.52325	0	0	-0.198693	0.307009	-0.15896	0.247457	-0.187661	0.284865	-0.193224	0.317379	-0.1275	0.26496	-0.121502	0.232716	-0.103793	0.193325	-0.176455	0.292016	-0.007394	0.0465625	-0.37216	-0.083992	-0.0402105	0.089716	0.0117715	0.0269855	-0.128965	0.231962	-0.173664	0.161064	-0.0965395	0.237077	-0.273299	0.180864	
3.50647	0	0	-0.196668	0.301286	-0.16983	0.24343	-0.195684	0.286409	-0.190793	0.310507	-0.130794	0.263184	-0.120022	0.228533	-0.102801	0.190524	-0.183052	0.296326	-0.0127635	0.0500712	-0.373484	-0.0802485	-0.0411298	0.092314	0.00578475	0.0439048	-0.124658	0.233581	-0.173407	0.176158	-0.0852692	0.24101	-0.254344	0.183592	
3.52783	0	0	-0.194643	0.295563	-0.180701	0.239402	-0.203707	0.287953	-0.188361	0.303635	-0.134087	0.261408	-0.118541	0.224349	-0.10181	0.187722	-0.189649	0.300637	-0.018133	0.05358	-0.374809	-0.076505	-0.042049	0.094912	-0.000202	0.060824	-0.120351	0.235201	-0.173151	0.191251	-0.073999	0.244943	-0.235389	0.186321	
3.54919	0	0	-0.192619	0.289844	-0.175586	0.224947	-0.202006	0.283145	-0.188361	0.303635	-0.138282	0.262186	-0.124329	0.224916	-0.106044	0.188336	-0.188166	0.296445	-0.010842	0.0446407	-0.378485	-0.0798583	-0.039292	0.0871202	-0.003458	0.049944	-0.12772	0.242234	-0.180431	0.196008	-0.076602	0.2523	-0.242361	0.206024	
3.56598	0	0	-0.190596	0.284125	-0.170471	0.210493	-0.200304	0.278338	-0.188361	0.303635	-0.142476	0.262964	-0.130117	0.225483	-0.110279	0.188949	-0.186683	0.292253	-0.003551	0.0357015	-0.38216	-0.0832115	-0.036535	0.0793285	-0.006714	0.039064	-0.135088	0.249267	-0.187712	0.200765	-0.079205	0.259656	-0.249333	0.225728	
3.53393	0	0	-0.188573	0.278405	-0.165357	0.196039	-0.198603	0.27353	-0.188361	0.303635	-0.146671	0.263742	-0.135906	0.22605	-0.114514	0.189563	-0.185199	0.288061	0.00374	0.0267623	-0.385835	-0.0865647	-0.033778	0.0715367	-0.00997	0.028184	-0.142457	0.256299	-0.194992	0.205522	-0.081808	0.267012	-0.256304	0.245431	
3.55224	0	0	-0.186549	0.272686	-0.160242	0.181584	-0.196902	0.268722	-0.188361	0.303635	-0.150865	0.26452	-0.141694	0.226617	-0.118748	0.190177	-0.183716	0.283869	0.011031	0.017823	-0.389511	-0.089918	-0.031021	0.063745	-0.013226	0.017304	-0.149825	0.263332	-0.202272	0.210279	-0.084411	0.274369	-0.263276	0.265135	
3.56293	0	0	-0.190598	0.284128	-0.159071	0.195639	-0.198603	0.27353	-0.185675	0.309807	-0.149962	0.261967	-0.141694	0.226617	-0.113522	0.186762	-0.183716	0.283869	0.011031	0.017823	-0.388188	-0.0936587	-0.0319398	0.0663415	-0.009241	0.00604225	-0.154126	0.261707	-0.20533	0.203117	-0.0831092	0.27069	-0.261532	0.260205	
3.55682	0	0	-0.194646	0.29557	-0.157899	0.209695	-0.200304	0.278338	-0.18299	0.315979	-0.149058	0.259414	-0.141694	0.226617	-0.108297	0.183348	-0.183716	0.283869	0.011031	0.017823	-0.386864	-0.0973995	-0.0328585	0.068938	-0.005256	-0.0052195	-0.158428	0.260083	-0.208388	0.195954	-0.0818075	0.267011	-0.259787	0.255275	
3.56445	0	0	-0.198694	0.307012	-0.156727	0.22375	-0.202006	0.283145	-0.180305	0.322151	-0.148155	0.256862	-0.141694	0.226617	-0.103072	0.179934	-0.183716	0.283869	0.011031	0.017823	-0.38554	-0.10114	-0.0337772	0.0715345	-0.001271	-0.0164813	-0.16273	0.258459	-0.211445	0.188792	-0.0805058	0.263332	-0.258043	0.250345	
3.56293	0	0	-0.202743	0.318454	-0.155556	0.237805	-0.203707	0.287953	-0.177619	0.328323	-0.147252	0.254309	-0.141694	0.226617	-0.097846	0.176519	-0.183716	0.283869	0.011031	0.017823	-0.384217	-0.104881	-0.034696	0.074131	0.002714	-0.027743	-0.167031	0.256834	-0.214503	0.181629	-0.079204	0.259653	-0.256298	0.245415	
3.5614	0	0	-0.197786	0.328431	-0.153234	0.266026	-0.207112	0.297577	-0.169809	0.333803	-0.148155	0.256862	-0.133075	0.233855	-0.098837	0.17932	-0.174969	0.287826	0.0100705	0.0205378	-0.38554	-0.10114	-0.0296902	0.0708602	0.00797175	-0.0225205	-0.167031	0.256834	-0.205571	0.18801	-0.0805058	0.263332	-0.244216	0.248897	
3.57056	0	0	-0.192829	0.338408	-0.150913	0.294247	-0.210517	0.3072	-0.161998	0.339282	-0.149058	0.259414	-0.124456	0.241092	-0.099828	0.182121	-0.166222	0.291783	0.00911	0.0232525	-0.386864	-0.0973995	-0.0246845	0.0675895	0.0132295	-0.017298	-0.167031	0.256834	-0.19664	0.194391	-0.0818075	0.267011	-0.232134	0.252379	
3.56445	0	0	-0.187872	0.348385	-0.148592	0.322469	-0.213922	0.316823	-0.154188	0.344762	-0.149962	0.261967	-0.115838	0.248329	-0.100819	0.184921	-0.157476	0.295741	0.0081495	0.0259672	-0.388188	-0.0936587	-0.0196787	0.0643187	0.0184873	-0.0120755	-0.167031	0.256834	-0.187709	0.200771	-0.0831092	0.27069	-0.220052	0.255861	
3.5614	0	0	-0.182915	0.358362	-0.14627	0.35069	-0.217327	0.326447	-0.146378	0.350242	-0.150865	0.26452	-0.107219	0.255567	-0.10181	0.187722	-0.148729	0.299698	0.007189	0.028682	-0.389511	-0.089918	-0.014673	0.061048	0.023745	-0.006853	-0.167031	0.256834	-0.178777	0.207152	-0.084411	0.274369	-0.20797	0.259343	
3.57056	0	0	-0.180886	0.352628	-0.141686	0.355149	-0.215624	0.321634	-0.147597	0.353687	-0.151769	0.267073	-0.110184	0.263948	-0.102801	0.190524	-0.153187	0.312297	0.0106397	0.0306035	-0.385835	-0.0865647	-0.0174308	0.0688417	0.0230132	0.015318	-0.169073	0.262603	-0.157797	0.227152	-0.0800727	0.280026	-0.195933	0.281907	
3.57208	0	0	-0.178857	0.346894	-0.137101	0.359608	-0.213921	0.316821	-0.148816	0.357131	-0.152672	0.269626	-0.11315	0.27233	-0.103793	0.193325	-0.157645	0.324896	0.0140905	0.032525	-0.38216	-0.0832115	-0.0201885	0.0766355	0.0222815	0.037489	-0.171114	0.268372	-0.136817	0.247151	-0.0757345	0.285683	-0.183895	0.304472	
3.57056	0	0	-0.176828	0.341161	-0.132517	0.364068	-0.212218	0.312008	-0.150035	0.360576	-0.153576	0.27218	-0.116116	0.280712	-0.104785	0.196127	-0.162103	0.337494	0.0175413	0.0344465	-0.378485	-0.0798583	-0.0229463	0.0844292	0.0215497	0.05966	-0.173155	0.274141	-0.115838	0.267151	-0.0713963	0.291341	-0.171858	0.327037	
3.57056	0	0	-0.174799	0.335427	-0.127933	0.368527	-0.210515	0.307195	-0.151254	0.364021	-0.154479	0.274733	-0.119081	0.289093	-0.105776	0.198929	-0.166561	0.350093	0.020992	0.036368	-0.374809	-0.076505	-0.025704	0.092223	0.020818	0.081831	-0.175197	0.27991	-0.094858	0.287151	-0.067058	0.296998	-0.159821	0.349601	
3.57513	0	0	-0.172772	0.329697	-0.134232	0.368915	-0.210515	0.307195	-0.147345	0.366767	-0.158671	0.275509	-0.119081	0.289093	-0.111002	0.202344	-0.166561	0.350093	0.020992	0.036368	-0.376134	-0.0727597	-0.0266238	0.0948225	0.0188175	0.087485	-0.171919	0.284426	-0.0958077	0.321646	-0.0640223	0.306353	-0.147766	0.37229	
3.57361	0	0	-0.170744	0.323966	-0.140532	0.369302	-0.210515	0.307195	-0.143437	0.369513	-0.162863	0.276285	-0.119081	0.289093	-0.116227	0.205758	-0.166561	0.350093	0.020992	0.036368	-0.37746	-0.0690145	-0.0275435	0.097422	0.016817	0.093139	-0.16864	0.288942	-0.0967575	0.356141	-0.0609865	0.315709	-0.135712	0.394979	
3.57056	0	0	-0.168716	0.318236	-0.146832	0.36969	-0.210515	0.307195	-0.139528	0.372258	-0.167054	0.27706	-0.119081	0.289093	-0.121453	0.209172	-0.166561	0.350093	0.020992	0.036368	-0.378785	-0.0652693	-0.0284632	0.100021	0.0148165	0.098793	-0.165361	0.293458	-0.0977072	0.390637	-0.0579508	0.325064	-0.123657	0.417668	
3.57361	0	0	-0.166689	0.312506	-0.153131	0.370078	-0.210515	0.307195	-0.13562	0.375004	-0.171246	0.277836	-0.119081	0.289093	-0.126678	0.212587	-0.166561	0.350093	0.020992	0.036368	-0.38011	-0.061524	-0.029383	0.102621	0.012816	0.104447	-0.162083	0.297974	-0.098657	0.425132	-0.054915	0.334419	-0.111603	0.440357	
3.57056	0	0	-0.168716	0.318236	-0.142243	0.374155	-0.221932	0.318355	-0.134152	0.384657	-0.170343	0.275284	-0.113285	0.28853	-0.125687	0.209785	-0.166561	0.350093	0.0200305	0.0390855	-0.376433	-0.058164	-0.0284632	0.100021	0.010814	0.110104	-0.167404	0.299231	-0.0955922	0.432397	-0.0631695	0.339813	-0.10817	0.449611	
3.57361	0	0	-0.170744	0.323966	-0.131356	0.378232	-0.233349	0.329515	-0.132684	0.394309	-0.16944	0.272731	-0.107489	0.287967	-0.124695	0.206983	-0.166561	0.350093	0.019069	0.041803	-0.372756	-0.054804	-0.0275435	0.097422	0.008812	0.115762	-0.172725	0.300488	-0.0925275	0.439663	-0.071424	0.345206	-0.104736	0.458865	
3.57208	0	0	-0.172772	0.329697	-0.120468	0.382309	-0.244766	0.340676	-0.131215	0.403961	-0.168536	0.270178	-0.101692	0.287403	-0.123704	0.204182	-0.166561	0.350093	0.0181075	0.0445205	-0.36908	-0.051444	-0.0266238	0.0948225	0.00681	0.121419	-0.178046	0.301745	-0.0894628	0.446928	-0.0796785	0.3506	-0.101302	0.468118	
3.57361	0	0	-0.174799	0.335427	-0.109581	0.386386	-0.256183	0.351836	-0.129747	0.413614	-0.167633	0.267626	-0.095896	0.28684	-0.122712	0.20138	-0.166561	0.350093	0.017146	0.047238	-0.365403	-0.048084	-0.025704	0.092223	0.004808	0.127077	-0.183367	0.303002	-0.086398	0.454193	-0.087933	0.355994	-0.097869	0.477372	
3.57208	0	0	-0.178858	0.346898	-0.0992435	0.409564	-0.251584	0.359943	-0.12192	0.419128	-0.16944	0.272732	-0.0930655	0.294672	-0.123704	0.204182	-0.171025	0.36271	0.0215605	0.0464433	-0.359371	-0.0375985	-0.022535	0.09415	0.0120672	0.126686	-0.182345	0.300115	-0.0774155	0.4607	-0.087933	0.355994	-0.0856925	0.480932	
3.57361	0	0	-0.182918	0.35837	-0.088906	0.432742	-0.246984	0.368051	-0.114092	0.424642	-0.171246	0.277838	-0.090235	0.302504	-0.124695	0.206983	-0.175489	0.375327	0.025975	0.0456485	-0.35334	-0.027113	-0.019366	0.096077	0.0193265	0.126295	-0.181324	0.297228	-0.068433	0.467207	-0.087933	0.355994	-0.073516	0.484492	
3.57513	0	0	-0.186977	0.369841	-0.0785685	0.45592	-0.242385	0.376159	-0.106265	0.430155	-0.173053	0.282944	-0.0874045	0.310336	-0.125687	0.209785	-0.179954	0.387944	0.0303895	0.0448537	-0.347308	-0.0166275	-0.016197	0.098004	0.0265857	0.125904	-0.180303	0.294341	-0.0594505	0.473714	-0.087933	0.355994	-0.0613395	0.488053	
3.57513	0	0	-0.191036	0.381313	-0.068231	0.479098	-0.237786	0.384266	-0.098438	0.435669	-0.17486	0.28805	-0.084574	0.318168	-0.126678	0.212587	-0.184418	0.400561	0.034804	0.044059	-0.341276	-0.006142	-0.013028	0.099931	0.033845	0.125513	-0.179281	0.291454	-0.050468	0.480221	-0.087933	0.355994	-0.049163	0.491613	
3.57513	0	0	-0.202076	0.388526	-0.07973	0.494116	-0.245794	0.385792	-0.107248	0.446746	-0.175764	0.290604	-0.0875482	0.326573	-0.12767	0.21539	-0.180791	0.404665	0.0338418	0.046778	-0.33022	0.003986	-0.014869	0.105134	0.0350922	0.142135	-0.179281	0.291454	-0.0310277	0.489231	-0.0835982	0.361678	-0.0457205	0.5009	
3.57818	0	0	-0.213116	0.39574	-0.091229	0.509133	-0.253802	0.387319	-0.116059	0.457823	-0.176667	0.293158	-0.0905225	0.334979	-0.128662	0.218193	-0.177164	0.408769	0.0328795	0.049497	-0.319164	0.014114	-0.01671	0.110337	0.0363395	0.158757	-0.179281	0.291454	-0.0115875	0.498241	-0.0792635	0.367362	-0.042278	0.510186	
3.57361	0	0	-0.224155	0.402954	-0.102728	0.52415	-0.26181	0.388845	-0.124869	0.4689	-0.177571	0.295713	-0.0934968	0.343384	-0.129653	0.220995	-0.173537	0.412873	0.0319173	0.052216	-0.308107	0.024242	-0.018551	0.115539	0.0375868	0.175379	-0.179281	0.291454	0.00785275	0.50725	-0.0749288	0.373047	-0.0388355	0.519473	
3.57818	0	0	-0.235195	0.410167	-0.114227	0.539168	-0.269818	0.390371	-0.13368	0.479977	-0.178475	0.298267	-0.096471	0.351789	-0.130645	0.223798	-0.16991	0.416977	0.030955	0.054935	-0.297051	0.03437	-0.020392	0.120742	0.038834	0.192001	-0.179281	0.291454	0.027293	0.51626	-0.070594	0.378731	-0.035393	0.528759	
3.57666	0	0	-0.231136	0.398695	-0.115362	0.52491	-0.277816	0.391893	-0.132456	0.476516	-0.176668	0.293159	-0.096471	0.351789	-0.133884	0.221606	-0.173537	0.412873	0.032879	0.0494978	-0.293361	0.0377525	-0.017631	0.112939	0.0315698	0.192384	-0.180303	0.294341	0.0187023	0.540539	-0.0814645	0.391517	-0.0249555	0.53735	
3.55987	0	0	-0.227077	0.387224	-0.116497	0.510652	-0.285814	0.393415	-0.131231	0.473055	-0.174861	0.288052	-0.096471	0.351789	-0.137124	0.219414	-0.177164	0.408769	0.034803	0.0440605	-0.28967	0.041135	-0.01487	0.105136	0.0243055	0.192768	-0.181324	0.297228	0.0101115	0.564818	-0.092335	0.404304	-0.014518	0.545941	
3.59039	0	0	-0.223018	0.375753	-0.117631	0.496395	-0.293812	0.394937	-0.130006	0.469595	-0.173053	0.282944	-0.096471	0.351789	-0.140363	0.217222	-0.180791	0.404665	0.036727	0.0386232	-0.285979	0.0445175	-0.012109	0.097333	0.0170413	0.193151	-0.182345	0.300115	0.00152075	0.589097	-0.103206	0.417091	-0.0040805	0.554533	
3.24402	0	0	-0.218959	0.364281	-0.118766	0.482137	-0.30181	0.396459	-0.128782	0.466134	-0.171246	0.277836	-0.096471	0.351789	-0.143602	0.21503	-0.184418	0.400561	0.038651	0.033186	-0.282289	0.0479	-0.009348	0.08953	0.009777	0.193534	-0.183367	0.303002	-0.00707	0.613376	-0.114076	0.429877	0.006357	0.563124	
3.53393	0	0	-0.229984	0.371486	-0.123351	0.477646	-0.30181	0.396459	-0.123645	0.465438	-0.175435	0.278611	-0.0891783	0.347024	-0.142611	0.212229	-0.188043	0.396462	0.0351975	0.031265	-0.283315	0.0369875	-0.00750875	0.0843317	0.0065315	0.182581	-0.187663	0.30137	-0.005847	0.593911	-0.11146	0.422484	0.0099055	0.553095	
3.57971	0	0	-0.24101	0.37869	-0.127935	0.473154	-0.30181	0.396459	-0.118508	0.464742	-0.179623	0.279386	-0.0818855	0.342259	-0.14162	0.209428	-0.191668	0.392362	0.031744	0.029344	-0.284341	0.026075	-0.0056695	0.0791335	0.003286	0.171628	-0.191958	0.299739	-0.004624	0.574447	-0.108844	0.415092	0.013454	0.543066	
3.59039	0	0	-0.252035	0.385894	-0.13252	0.468662	-0.30181	0.396459	-0.11337	0.464046	-0.183812	0.28016	-0.0745927	0.337494	-0.140629	0.206627	-0.195293	0.388262	0.0282905	0.027423	-0.285367	0.0151625	-0.00383025	0.0739353	4.05E-05	0.160675	-0.196253	0.298108	-0.003401	0.554982	-0.106228	0.407699	0.0170025	0.533038	
3.58429	0	0	-0.263061	0.393099	-0.137104	0.464171	-0.30181	0.396459	-0.108233	0.46335	-0.188001	0.280935	-0.0673	0.332729	-0.139638	0.203826	-0.198918	0.384163	0.024837	0.025502	-0.286393	0.00425	-0.001991	0.068737	-0.003205	0.149722	-0.200549	0.296476	-0.002178	0.535517	-0.103612	0.400306	0.020551	0.523009	
3.57818	0	0	-0.258126	0.403107	-0.129658	0.478039	-0.30181	0.396459	-0.104317	0.466116	-0.187098	0.278383	-0.0600012	0.32796	-0.139638	0.203826	-0.198918	0.384163	0.0257978	0.0227863	-0.302466	-0.0054705	-0.0060805	0.0694118	-0.00120175	0.144061	-0.204841	0.294845	0.0021085	0.523402	-0.0953575	0.394912	0.006565	0.524446	
3.57208	0	0	-0.253191	0.413116	-0.122211	0.491907	-0.30181	0.396459	-0.100401	0.468881	-0.186195	0.275831	-0.0527025	0.32319	-0.139638	0.203826	-0.198918	0.384163	0.0267585	0.0200705	-0.318539	-0.015191	-0.01017	0.0700865	0.0008015	0.1384	-0.209133	0.293215	0.006395	0.511288	-0.087103	0.389518	-0.007421	0.525884	
3.5675	0	0	-0.248256	0.423125	-0.114764	0.505774	-0.30181	0.396459	-0.096485	0.471646	-0.185292	0.273279	-0.0454037	0.318421	-0.139638	0.203826	-0.198918	0.384163	0.0277193	0.0173547	-0.334613	-0.0249115	-0.0142595	0.0707612	0.00280475	0.132738	-0.213426	0.291585	0.0106815	0.499173	-0.0788485	0.384125	-0.021407	0.527321	
3.56293	0	0	-0.243321	0.433133	-0.107318	0.519642	-0.30181	0.396459	-0.092569	0.474412	-0.184389	0.270727	-0.038105	0.313652	-0.139638	0.203826	-0.198918	0.384163	0.02868	0.014639	-0.350686	-0.034632	-0.018349	0.071436	0.004808	0.127077	-0.217718	0.289954	0.014968	0.487058	-0.070594	0.378731	-0.035393	0.528759	
3.5965	0	0	-0.245354	0.438878	-0.118812	0.53466	-0.30181	0.396459	-0.0913435	0.470948	-0.190381	0.276604	-0.039593	0.317858	-0.139638	0.203826	-0.205515	0.388473	0.0242678	0.015435	-0.366712	-0.0443243	-0.01743	0.068839	0.00681	0.121419	-0.216698	0.287071	0.0163958	0.483023	-0.0870952	0.389513	-0.0318525	0.518753	
3.57818	0	0	-0.247387	0.444623	-0.130305	0.549678	-0.30181	0.396459	-0.090118	0.467485	-0.196373	0.282481	-0.041081	0.322063	-0.139638	0.203826	-0.212112	0.392784	0.0198555	0.016231	-0.382738	-0.0540165	-0.016511	0.066242	0.008812	0.115762	-0.215678	0.284187	0.0178235	0.478989	-0.103597	0.400296	-0.028312	0.508746	
3.56598	0	0	-0.249419	0.450368	-0.141798	0.564695	-0.30181	0.396459	-0.0888925	0.464022	-0.202365	0.288359	-0.042569	0.326268	-0.139638	0.203826	-0.218708	0.397095	0.0154432	0.017027	-0.398763	-0.0637087	-0.015592	0.063645	0.010814	0.110104	-0.214658	0.281304	0.0192512	0.474955	-0.120098	0.411078	-0.0247715	0.49874	
3.56903	0	0	-0.251452	0.456113	-0.153292	0.579713	-0.30181	0.396459	-0.087667	0.460558	-0.208357	0.294236	-0.044057	0.330474	-0.139638	0.203826	-0.225305	0.401405	0.011031	0.017823	-0.414789	-0.073401	-0.014673	0.061048	0.012816	0.104447	-0.213638	0.278421	0.020679	0.47092	-0.136599	0.42186	-0.021231	0.488734	
3.5675	0	0	-0.256383	0.446093	-0.147523	0.545962	-0.308095	0.393163	-0.0903597	0.454336	-0.206551	0.289133	-0.042569	0.326268	-0.141886	0.198839	-0.232538	0.393213	0.00854175	0.013192	-0.420802	-0.0838387	-0.0178415	0.0591265	-0.00167925	0.105228	-0.214658	0.281304	0.0118897	0.479765	-0.127045	0.412777	-0.0194623	0.483735	
3.57056	0	0	-0.261315	0.436074	-0.141755	0.512211	-0.31438	0.389867	-0.0930525	0.448113	-0.204745	0.284029	-0.041081	0.322063	-0.144134	0.193852	-0.23977	0.385022	0.0060525	0.008561	-0.426815	-0.0942765	-0.02101	0.057205	-0.0161745	0.106008	-0.215678	0.284187	0.0031005	0.48861	-0.117491	0.403695	-0.0176935	0.478736	
3.5675	0	0	-0.266246	0.426055	-0.135986	0.47846	-0.320664	0.386571	-0.0957453	0.441891	-0.20294	0.278926	-0.039593	0.317858	-0.146381	0.188865	-0.247003	0.37683	0.00356325	0.00393	-0.432828	-0.104714	-0.0241785	0.0552835	-0.0306697	0.106788	-0.216698	0.287071	-0.00568875	0.497454	-0.107938	0.394612	-0.0159248	0.473737	
3.5614	0	0	-0.271177	0.416035	-0.130217	0.444709	-0.326949	0.383275	-0.098438	0.435669	-0.201134	0.273823	-0.038105	0.313652	-0.148629	0.183878	-0.254236	0.368638	0.001074	-0.000701	-0.438841	-0.115152	-0.027347	0.053362	-0.045165	0.107569	-0.217718	0.289954	-0.014478	0.506299	-0.098384	0.385529	-0.014156	0.468738	
3.56598	0	0	-0.26712	0.404571	-0.131363	0.430516	-0.325247	0.378465	-0.090848	0.428051	-0.203514	0.269497	-0.0424298	0.310016	-0.1551	0.179508	-0.254883	0.356168	-0.00045625	-0.00803625	-0.446168	-0.121836	-0.0318447	0.0443397	-0.0516505	0.0858	-0.222007	0.288324	-0.0220505	0.495752	-0.116573	0.383232	-0.0245852	0.460202	
3.56293	0	0	-0.263064	0.393107	-0.132509	0.416323	-0.323545	0.373655	-0.083258	0.420432	-0.205893	0.265171	-0.0467545	0.30638	-0.161572	0.175139	-0.25553	0.343697	-0.0019865	-0.0153715	-0.453495	-0.12852	-0.0363425	0.0353175	-0.058136	0.064031	-0.226296	0.286694	-0.029623	0.485206	-0.134762	0.380934	-0.0350145	0.451665	
3.5614	0	0	-0.259008	0.381642	-0.133655	0.402129	-0.321843	0.368844	-0.075668	0.412814	-0.208272	0.260845	-0.0510792	0.302744	-0.168043	0.170769	-0.256178	0.331226	-0.00351675	-0.0227067	-0.460821	-0.135205	-0.0408403	0.0262953	-0.0646215	0.042262	-0.230585	0.285064	-0.0371955	0.474659	-0.15295	0.378636	-0.0454437	0.443129	
3.55835	0	0	-0.254951	0.370178	-0.134801	0.387936	-0.320141	0.364034	-0.068078	0.405196	-0.210652	0.256519	-0.055404	0.299108	-0.174514	0.166399	-0.256825	0.318756	-0.005047	-0.030042	-0.468148	-0.141889	-0.045338	0.017273	-0.071107	0.020493	-0.234874	0.283434	-0.044768	0.464112	-0.171139	0.376339	-0.055873	0.434593	
3.55987	0	0	-0.263936	0.371646	-0.130215	0.392406	-0.312151	0.362511	-0.068078	0.405196	-0.206468	0.255745	-0.0481053	0.294339	-0.177747	0.164216	-0.26192	0.318865	-0.0012155	-0.04087	-0.463166	-0.142278	-0.0457548	0.00759325	-0.07634	0.0152653	-0.238141	0.278925	-0.0419198	0.456063	-0.182365	0.372349	-0.0662828	0.426078	
3.5614	0	0	-0.272921	0.373115	-0.125629	0.396876	-0.304161	0.360989	-0.068078	0.405196	-0.202284	0.25497	-0.0408065	0.289569	-0.18098	0.162033	-0.267015	0.318975	0.002616	-0.051698	-0.458184	-0.142667	-0.0461715	-0.0020865	-0.081573	0.0100375	-0.241407	0.274417	-0.0390715	0.448014	-0.19359	0.368359	-0.0766925	0.417563	
3.55987	0	0	-0.281907	0.374584	-0.121042	0.401347	-0.296172	0.359467	-0.068078	0.405196	-0.198099	0.254196	-0.0335078	0.2848	-0.184213	0.159851	-0.272109	0.319084	0.0064475	-0.062526	-0.453202	-0.143056	-0.0465882	-0.0117663	-0.086806	0.00480975	-0.244673	0.269908	-0.0362232	0.439964	-0.204816	0.364369	-0.0871022	0.409048	
3.56903	0	0	-0.290892	0.376052	-0.116456	0.405817	-0.288182	0.357944	-0.068078	0.405196	-0.193915	0.253422	-0.026209	0.280031	-0.187446	0.157668	-0.277204	0.319194	0.010279	-0.073354	-0.44822	-0.143445	-0.047005	-0.021446	-0.092039	-0.000418	-0.24794	0.265399	-0.033375	0.431915	-0.216042	0.360379	-0.097512	0.400533	
3.5614	0	0	-0.288867	0.370329	-0.117033	0.424897	-0.288182	0.357944	-0.0629305	0.404491	-0.193915	0.253422	-0.023366	0.287868	-0.18547	0.152085	-0.272109	0.319084	0.00683025	-0.0752592	-0.443531	-0.129287	-0.0501687	-0.0233553	-0.086806	0.00480975	-0.246921	0.26252	-0.0215193	0.430356	-0.213439	0.353023	-0.102709	0.396283	
3.56598	0	0	-0.286842	0.364607	-0.117611	0.443977	-0.288182	0.357944	-0.057783	0.403786	-0.193915	0.253422	-0.020523	0.295706	-0.183495	0.146501	-0.267015	0.318975	0.0033815	-0.0771645	-0.438841	-0.115129	-0.0533325	-0.0252645	-0.081573	0.0100375	-0.245903	0.259642	-0.0096635	0.428797	-0.210836	0.345666	-0.107907	0.392033	
3.57361	0	0	-0.284817	0.358884	-0.118189	0.463057	-0.288182	0.357944	-0.0526355	0.403081	-0.193915	0.253422	-0.01768	0.303544	-0.181519	0.140918	-0.26192	0.318865	-6.725E-05	-0.0790698	-0.434152	-0.100972	-0.0564962	-0.0271737	-0.07634	0.0152653	-0.244885	0.256764	0.00219225	0.427239	-0.208233	0.33831	-0.113104	0.387784	
3.57056	0	0	-0.282792	0.353161	-0.118766	0.482137	-0.288182	0.357944	-0.047488	0.402376	-0.193915	0.253422	-0.014837	0.311381	-0.179543	0.135334	-0.256825	0.318756	-0.003516	-0.080975	-0.429463	-0.086814	-0.05966	-0.029083	-0.071107	0.020493	-0.243866	0.253885	0.014048	0.42568	-0.20563	0.330954	-0.118301	0.383534	
3.58124	0	0	-0.287722	0.3432	-0.124492	0.463442	-0.284779	0.348326	-0.0501898	0.396169	-0.193013	0.250873	-0.014837	0.311381	-0.182775	0.133156	-0.263402	0.323053	-0.003516	-0.080975	-0.412426	-0.0662608	-0.05966	-0.029083	-0.069859	0.0370045	-0.245903	0.259643	0.0247335	0.443507	-0.206931	0.334631	-0.104378	0.382082	
3.58429	0	0	-0.292652	0.333239	-0.130219	0.444746	-0.281376	0.338707	-0.0528915	0.389962	-0.192111	0.248324	-0.014837	0.311381	-0.186007	0.130978	-0.269978	0.32735	-0.003516	-0.080975	-0.395388	-0.0457075	-0.05966	-0.029083	-0.068611	0.053516	-0.247941	0.265401	0.035419	0.461334	-0.208232	0.338309	-0.090456	0.380631	
3.58581	0	0	-0.297583	0.323278	-0.135945	0.426051	-0.277972	0.329089	-0.0555932	0.383754	-0.19121	0.245775	-0.014837	0.311381	-0.18924	0.128801	-0.276555	0.331648	-0.003516	-0.080975	-0.37835	-0.0251542	-0.05966	-0.029083	-0.067363	0.0700275	-0.249979	0.271159	0.0461045	0.47916	-0.209534	0.341986	-0.0765335	0.37918	
3.5965	0	0	-0.302513	0.313317	-0.141672	0.407356	-0.274569	0.319471	-0.058295	0.377547	-0.190308	0.243226	-0.014837	0.311381	-0.192472	0.126623	-0.283131	0.335945	-0.003516	-0.080975	-0.361313	-0.004601	-0.05966	-0.029083	-0.066115	0.086539	-0.252016	0.276917	0.05679	0.496987	-0.210835	0.345663	-0.062611	0.377728	
3.60565	0	0	-0.309458	0.309081	-0.149115	0.393578	-0.271169	0.309863	-0.0570727	0.374093	-0.194492	0.244001	-0.013349	0.307176	-0.194716	0.12166	-0.288221	0.336051	-0.0025595	-0.0836783	-0.337864	0.0119102	-0.0569165	-0.0368365	-0.066115	0.086539	-0.258335	0.281046	0.0584457	0.508343	-0.209534	0.341986	-0.062611	0.377728	
3.61023	0	0	-0.316403	0.304845	-0.156559	0.379799	-0.267769	0.300255	-0.0558505	0.370639	-0.198677	0.244776	-0.011861	0.30297	-0.19696	0.116696	-0.293311	0.336157	-0.001603	-0.0863815	-0.314415	0.0284215	-0.054173	-0.04459	-0.066115	0.086539	-0.264655	0.285176	0.0601015	0.519699	-0.208232	0.338309	-0.062611	0.377728	
3.61481	0	0	-0.323348	0.300609	-0.164002	0.366021	-0.26437	0.290647	-0.0546283	0.367185	-0.202861	0.245551	-0.010373	0.298764	-0.199204	0.111733	-0.2984	0.336263	-0.0006465	-0.0890847	-0.290967	0.0449327	-0.0514295	-0.0523435	-0.066115	0.086539	-0.270975	0.289305	0.0617572	0.531055	-0.206931	0.334631	-0.062611	0.377728	
3.62396	0	0	-0.330293	0.296373	-0.171446	0.352243	-0.26097	0.281039	-0.053406	0.363731	-0.207045	0.246326	-0.008885	0.294559	-0.201448	0.106769	-0.30349	0.336369	0.00031	-0.091788	-0.267518	0.061444	-0.048686	-0.060097	-0.066115	0.086539	-0.277294	0.293434	0.063413	0.542411	-0.20563	0.330954	-0.062611	0.377728	
3.63312	0	0	-0.321328	0.294901	-0.150829	0.346222	-0.262669	0.285842	-0.048257	0.363022	-0.206144	0.243778	-0.008885	0.294559	-0.205662	0.107381	-0.30349	0.336369	0.00126625	-0.0944905	-0.245309	0.0818282	-0.0527632	-0.0594185	-0.0641195	0.0808993	-0.275257	0.287676	0.0588962	0.539141	-0.209937	0.325294	-0.0695763	0.378455	
3.63769	0	0	-0.312364	0.293428	-0.130212	0.340201	-0.264369	0.290644	-0.043108	0.362313	-0.205242	0.241231	-0.008885	0.294559	-0.209876	0.107993	-0.30349	0.336369	0.0022225	-0.097193	-0.2231	0.102212	-0.0568405	-0.05874	-0.062124	0.0752595	-0.273219	0.281918	0.0543795	0.53587	-0.214244	0.319633	-0.0765415	0.379182	
3.64685	0	0	-0.303399	0.291956	-0.109595	0.33418	-0.266068	0.295447	-0.037959	0.361604	-0.204341	0.238683	-0.008885	0.294559	-0.214091	0.108605	-0.30349	0.336369	0.00317875	-0.0998955	-0.200891	0.122597	-0.0609177	-0.0580615	-0.0601285	0.0696197	-0.271181	0.27616	0.0498627	0.5326	-0.218551	0.313972	-0.0835067	0.37991	
3.65753	0	0	-0.294434	0.290484	-0.088978	0.328159	-0.267767	0.30025	-0.03281	0.360895	-0.203439	0.236135	-0.008885	0.294559	-0.218305	0.109217	-0.30349	0.336369	0.004135	-0.102598	-0.178682	0.142981	-0.064995	-0.057383	-0.058133	0.06398	-0.269144	0.270402	0.045346	0.529329	-0.222858	0.308312	-0.090472	0.380637	
3.66211	0	0	-0.298475	0.301904	-0.084941	0.351662	-0.271168	0.309863	-0.0301035	0.367099	-0.205242	0.241231	-0.0045505	0.298195	-0.219291	0.112003	-0.299883	0.340453	0.00317875	-0.0998955	-0.156384	0.163485	-0.060004	-0.0606443	-0.054891	0.0748772	-0.267108	0.264648	0.0586817	0.523725	-0.221559	0.304641	-0.088713	0.375666	
3.66974	0	0	-0.302515	0.313325	-0.080904	0.375166	-0.27457	0.319476	-0.027397	0.373304	-0.207045	0.246327	-0.000216	0.301831	-0.220276	0.114789	-0.296276	0.344537	0.0022225	-0.097193	-0.134085	0.183988	-0.055013	-0.0639055	-0.051649	0.0857745	-0.265072	0.258893	0.0720175	0.518122	-0.220259	0.30097	-0.086954	0.370695	
3.67279	0	0	-0.306556	0.324745	-0.076867	0.39867	-0.277971	0.329089	-0.0246905	0.379508	-0.208849	0.251423	0.0041185	0.305466	-0.221262	0.117575	-0.292668	0.34862	0.00126625	-0.0944905	-0.111786	0.204492	-0.050022	-0.0671667	-0.048407	0.0966718	-0.263036	0.253139	0.0853532	0.512518	-0.21896	0.297298	-0.085195	0.365724	
3.67737	0	0	-0.310597	0.336165	-0.07283	0.422173	-0.281373	0.338702	-0.021984	0.385712	-0.210652	0.256519	0.008453	0.309102	-0.222248	0.120361	-0.289061	0.352704	0.00031	-0.091788	-0.089488	0.224996	-0.045031	-0.070428	-0.045165	0.107569	-0.261	0.247385	0.098689	0.506914	-0.217661	0.293627	-0.083436	0.360753	
3.68652	0	0	-0.308576	0.330453	-0.0825905	0.432293	-0.279672	0.333894	-0.0195372	0.378797	-0.210652	0.256519	0.00696325	0.313311	-0.223234	0.123148	-0.283968	0.352599	0.0037595	-0.0898845	-0.073547	0.249834	-0.0459447	-0.0678452	-0.034675	0.118107	-0.262018	0.250262	0.104879	0.52156	-0.21896	0.297298	-0.0782298	0.364997	
3.6911	0	0	-0.306555	0.324741	-0.092351	0.442414	-0.277971	0.329087	-0.0170905	0.371882	-0.210652	0.256519	0.0054735	0.317521	-0.22422	0.125935	-0.278875	0.352493	0.007209	-0.087981	-0.057606	0.274672	-0.0468585	-0.0652625	-0.024185	0.128645	-0.263036	0.253138	0.11107	0.536206	-0.220259	0.30097	-0.0730235	0.36924	
3.6911	0	0	-0.304534	0.319029	-0.102111	0.452534	-0.27627	0.324279	-0.0146438	0.364967	-0.210652	0.256519	0.00398375	0.321731	-0.225207	0.128722	-0.273781	0.352387	0.0106585	-0.0860775	-0.041665	0.299511	-0.0477723	-0.0626798	-0.013695	0.139184	-0.264054	0.256015	0.11726	0.550852	-0.221559	0.304641	-0.0678172	0.373484	
3.70178	0	0	-0.302513	0.313317	-0.111872	0.462654	-0.274569	0.319471	-0.012197	0.358052	-0.210652	0.256519	0.002494	0.32594	-0.226193	0.131509	-0.268688	0.352282	0.014108	-0.084174	-0.025724	0.324349	-0.048686	-0.060097	-0.003205	0.149722	-0.265072	0.258892	0.12345	0.565498	-0.222858	0.308312	-0.062611	0.377728	
3.70331	0	0	-0.309458	0.309081	-0.115887	0.439122	-0.272869	0.314666	-0.0224992	0.359472	-0.208849	0.251423	-0.00183875	0.3223	-0.228433	0.126547	-0.273781	0.352387	0.0160213	-0.0895818	-0.0080475	0.330494	-0.0518498	-0.0620007	-0.0124575	0.155768	-0.26609	0.261769	0.11914	0.577679	-0.224158	0.311985	-0.0573997	0.381977	
3.70636	0	0	-0.316403	0.304845	-0.119902	0.41559	-0.271168	0.30986	-0.0328015	0.360892	-0.207045	0.246327	-0.0061715	0.318661	-0.230672	0.121584	-0.278875	0.352493	0.0179345	-0.0949895	0.009629	0.336639	-0.0550135	-0.0639045	-0.02171	0.161813	-0.267108	0.264647	0.11483	0.589859	-0.225457	0.315658	-0.0521885	0.386226	
3.71094	0	0	-0.323348	0.300609	-0.123918	0.392059	-0.269467	0.305055	-0.0431038	0.362311	-0.205242	0.241231	-0.0105042	0.315021	-0.232911	0.116622	-0.283968	0.352599	0.0198477	-0.100397	0.0273055	0.342785	-0.0581772	-0.0658082	-0.0309625	0.167859	-0.268126	0.267524	0.11052	0.60204	-0.226756	0.319331	-0.0469772	0.390475	
3.71399	0	0	-0.330293	0.296373	-0.127933	0.368527	-0.267767	0.30025	-0.053406	0.363731	-0.203439	0.236135	-0.014837	0.311381	-0.235151	0.11166	-0.289061	0.352704	0.021761	-0.105805	0.044982	0.34893	-0.061341	-0.067712	-0.040215	0.173905	-0.269144	0.270402	0.10621	0.614221	-0.228056	0.323004	-0.041766	0.394724	
3.71704	0	0	-0.332311	0.302077	-0.126217	0.363677	-0.277459	0.306583	-0.0470348	0.359568	-0.202538	0.233588	-0.00752575	0.306604	-0.234166	0.108876	-0.287579	0.348514	0.021761	-0.105805	0.0613523	0.358936	-0.0595142	-0.072874	-0.0382118	0.168244	-0.266091	0.261772	0.103121	0.606875	-0.224159	0.31199	-0.0469772	0.390475	
3.71704	0	0	-0.33433	0.307782	-0.124501	0.358828	-0.287151	0.312916	-0.0406635	0.355405	-0.201636	0.231042	-0.0002145	0.301826	-0.233181	0.106092	-0.286096	0.344325	0.021761	-0.105805	0.0777225	0.368942	-0.0576875	-0.078036	-0.0362085	0.162583	-0.263037	0.253142	0.100031	0.59953	-0.220261	0.300976	-0.0521885	0.386226	
3.71551	0	0	-0.336348	0.313487	-0.122785	0.353979	-0.296843	0.319248	-0.0342923	0.351242	-0.200735	0.228495	0.00709675	0.297049	-0.232196	0.103307	-0.284614	0.340135	0.021761	-0.105805	0.0940928	0.378947	-0.0558608	-0.083198	-0.0342052	0.156921	-0.259983	0.244512	0.0969415	0.592184	-0.216364	0.289961	-0.0573997	0.381977	
3.71857	0	0	-0.338367	0.319191	-0.121069	0.349129	-0.306535	0.325581	-0.027921	0.347079	-0.199834	0.225948	0.014408	0.292272	-0.231211	0.100523	-0.283131	0.335945	0.021761	-0.105805	0.110463	0.388953	-0.054034	-0.08836	-0.032202	0.15126	-0.25693	0.235882	0.093852	0.584838	-0.212467	0.278947	-0.062611	0.377728	
3.72009	0	0	-0.329403	0.317723	-0.117047	0.372642	-0.308235	0.330386	-0.0252132	0.353279	-0.200735	0.228495	0.0187473	0.295908	-0.232196	0.103307	-0.281004	0.344223	0.021761	-0.105805	0.120382	0.403237	-0.0549473	-0.0857795	-0.0249528	0.150875	-0.255913	0.233007	0.102687	0.575946	-0.211169	0.275279	-0.060851	0.372754	
3.72162	0	0	-0.32044	0.316254	-0.113026	0.396155	-0.309936	0.335191	-0.0225055	0.359479	-0.201636	0.231042	0.0230865	0.299543	-0.233181	0.106092	-0.278878	0.352501	0.021761	-0.105805	0.1303	0.417521	-0.0558605	-0.083199	-0.0177035	0.150491	-0.254895	0.230133	0.111522	0.567055	-0.209871	0.27161	-0.059091	0.367781	
3.72314	0	0	-0.311476	0.314785	-0.109004	0.419669	-0.311636	0.339997	-0.0197978	0.365679	-0.202538	0.233588	0.0274258	0.303179	-0.234166	0.108876	-0.276751	0.360779	0.021761	-0.105805	0.140218	0.431805	-0.0567737	-0.0806185	-0.0104542	0.150107	-0.253878	0.227258	0.120357	0.558164	-0.208573	0.267942	-0.057331	0.362807	
3.72009	0	0	-0.302513	0.313317	-0.104982	0.443182	-0.313336	0.344802	-0.01709	0.371879	-0.203439	0.236135	0.031765	0.306815	-0.235151	0.11166	-0.274624	0.369057	0.021761	-0.105805	0.150137	0.446089	-0.057687	-0.078038	-0.003205	0.149722	-0.252861	0.224383	0.129192	0.549272	-0.207275	0.264274	-0.055571	0.357833	
3.72009	0	0	-0.313496	0.320494	-0.116459	0.458168	-0.313336	0.344802	-0.0234658	0.376045	-0.199255	0.235359	0.0287838	0.31524	-0.236136	0.114445	-0.272498	0.37735	0.0261707	-0.106608	0.156301	0.456932	-0.0536093	-0.0787178	4.05E-05	0.160675	-0.247559	0.223129	0.130853	0.56067	-0.209871	0.271612	-0.048597	0.3571	
3.72314	0	0	-0.324479	0.32767	-0.127935	0.473154	-0.313336	0.344802	-0.0298415	0.380212	-0.19507	0.234584	0.0258025	0.323665	-0.237122	0.11723	-0.270373	0.385642	0.0305805	-0.107411	0.162465	0.467775	-0.0495315	-0.0793975	0.003286	0.171628	-0.242256	0.221874	0.132513	0.572068	-0.212468	0.27895	-0.041623	0.356367	
3.71551	0	0	-0.335463	0.334847	-0.139411	0.48814	-0.313336	0.344802	-0.0362172	0.384378	-0.190886	0.233808	0.0228213	0.33209	-0.238107	0.120015	-0.268247	0.393935	0.0349903	-0.108214	0.168629	0.478618	-0.0454538	-0.0800772	0.0065315	0.182581	-0.236954	0.220619	0.134174	0.583466	-0.215064	0.286289	-0.034649	0.355633	
3.71857	0	0	-0.346446	0.342024	-0.150888	0.503126	-0.313336	0.344802	-0.042593	0.388544	-0.186701	0.233032	0.01984	0.340515	-0.239093	0.1228	-0.266121	0.402228	0.0394	-0.109017	0.174793	0.489461	-0.041376	-0.080757	0.009777	0.193534	-0.231652	0.219365	0.135834	0.594864	-0.217661	0.293627	-0.027675	0.3549	
3.71246	0	0	-0.344426	0.336316	-0.150303	0.484041	-0.311636	0.339997	-0.04137	0.385087	-0.190886	0.233808	0.0155035	0.336871	-0.238107	0.120015	-0.268247	0.393935	0.0359465	-0.110917	0.176163	0.485589	-0.0445405	-0.0826578	0.0005145	0.199586	-0.233687	0.225117	0.137491	0.606288	-0.210753	0.291936	-0.022455	0.359143	
3.71094	0	0	-0.342406	0.330607	-0.149718	0.464956	-0.309936	0.335191	-0.040147	0.38163	-0.19507	0.234584	0.011167	0.333228	-0.237122	0.11723	-0.270373	0.385642	0.032493	-0.112816	0.177533	0.481717	-0.047705	-0.0845585	-0.008748	0.205639	-0.235723	0.23087	0.139147	0.617711	-0.203845	0.290244	-0.017235	0.363387	
3.70788	0	0	-0.340387	0.324899	-0.149132	0.445871	-0.308235	0.330386	-0.038924	0.378174	-0.199255	0.235359	0.0068305	0.329584	-0.236136	0.114445	-0.272498	0.37735	0.0290395	-0.114715	0.178903	0.477845	-0.0508695	-0.0864592	-0.0180105	0.211691	-0.237758	0.236623	0.140803	0.629135	-0.196937	0.288552	-0.012015	0.36763	
3.70483	0	0	-0.338367	0.319191	-0.148547	0.426786	-0.306535	0.325581	-0.037701	0.374717	-0.203439	0.236135	0.002494	0.32594	-0.235151	0.11166	-0.274624	0.369057	0.025586	-0.116615	0.180273	0.473973	-0.054034	-0.08836	-0.027273	0.217743	-0.239793	0.242375	0.14246	0.640559	-0.190029	0.286861	-0.006795	0.371873	
3.70178	0	0	-0.336348	0.313487	-0.147978	0.407762	-0.304835	0.320779	-0.0416272	0.371971	-0.201637	0.231042	0.0054725	0.317523	-0.233181	0.106092	-0.279716	0.369161	0.0230902	-0.121214	0.170342	0.459662	-0.0512963	-0.0960977	-0.035746	0.201504	-0.242043	0.235003	0.139143	0.617737	-0.186133	0.275851	-0.008496	0.357685	
3.70026	0	0	-0.33433	0.307782	-0.147408	0.388738	-0.303136	0.315976	-0.0455535	0.369224	-0.199835	0.225949	0.008451	0.309106	-0.231211	0.100524	-0.284809	0.369264	0.0205945	-0.125812	0.160411	0.44535	-0.0485585	-0.103835	-0.044219	0.185265	-0.244293	0.227631	0.135826	0.594915	-0.182237	0.264842	-0.010197	0.343496	
3.69568	0	0	-0.332311	0.302077	-0.146839	0.369714	-0.301436	0.311173	-0.0494798	0.366478	-0.198033	0.220856	0.0114295	0.300689	-0.229241	0.0949567	-0.289901	0.369368	0.0180988	-0.13041	0.150479	0.431038	-0.0458208	-0.111573	-0.052692	0.169026	-0.246543	0.22026	0.132509	0.572094	-0.178342	0.253833	-0.011898	0.329308	
3.6972	0	0	-0.330293	0.296373	-0.14627	0.35069	-0.299737	0.306371	-0.053406	0.363731	-0.196231	0.215763	0.014408	0.292272	-0.227271	0.089389	-0.294994	0.369471	0.015603	-0.135009	0.140548	0.416727	-0.043083	-0.119311	-0.061165	0.152787	-0.248793	0.212888	0.129192	0.549272	-0.174446	0.242823	-0.013599	0.31512	
3.69415	0	0	-0.323348	0.300609	-0.13538	0.354759	-0.291744	0.304841	-0.0470348	0.359568	-0.19533	0.213218	0.0129193	0.29648	-0.226287	0.0866065	-0.288417	0.365174	0.013108	-0.139602	0.126877	0.399008	-0.0453358	-0.123783	-0.057165	0.141483	-0.245744	0.204272	0.127527	0.537899	-0.180059	0.240853	-0.006573	0.295263	
3.68652	0	0	-0.316403	0.304845	-0.12449	0.358828	-0.283752	0.303311	-0.0406635	0.355405	-0.194429	0.210672	0.0114305	0.300687	-0.225302	0.083824	-0.281841	0.360876	0.010613	-0.144196	0.113205	0.38129	-0.0475885	-0.128254	-0.053165	0.130178	-0.242696	0.195655	0.125862	0.526526	-0.185672	0.238884	0.000453	0.275406	
3.68805	0	0	-0.309458	0.309081	-0.113599	0.362898	-0.275759	0.30178	-0.0342923	0.351242	-0.193529	0.208127	0.00994175	0.304894	-0.224318	0.0810415	-0.275264	0.356579	0.008118	-0.148789	0.0995335	0.363572	-0.0498413	-0.132725	-0.049165	0.118873	-0.239648	0.187039	0.124198	0.515153	-0.191285	0.236915	0.007479	0.25555	
3.68347	0	0	-0.302513	0.313317	-0.102709	0.366967	-0.267767	0.30025	-0.027921	0.347079	-0.192628	0.205582	0.008453	0.309102	-0.223333	0.078259	-0.268688	0.352282	0.005623	-0.153383	0.085862	0.345853	-0.052094	-0.137197	-0.045165	0.107569	-0.236599	0.178423	0.122533	0.50378	-0.196898	0.234945	0.014505	0.235693	
3.68347	0	0	-0.313496	0.320494	-0.115888	0.386782	-0.275759	0.30178	-0.0318493	0.344338	-0.193529	0.208127	0.00696325	0.313311	-0.224318	0.0810415	-0.271656	0.360671	0.00312875	-0.157971	0.062349	0.31409	-0.0511827	-0.139773	-0.045165	0.107569	-0.236599	0.178423	0.1285	0.502994	-0.188691	0.229582	0.005771	0.2414	
3.67889	0	0	-0.324479	0.32767	-0.129068	0.406597	-0.283752	0.303311	-0.0357775	0.341597	-0.194429	0.210672	0.0054735	0.317521	-0.225302	0.083824	-0.274625	0.369061	0.0006345	-0.162559	0.038836	0.282327	-0.0502715	-0.142348	-0.045165	0.107569	-0.236599	0.178423	0.134467	0.502209	-0.180483	0.224219	-0.002963	0.247107	
3.67737	0	0	-0.335463	0.334847	-0.142247	0.426412	-0.291744	0.304841	-0.0397057	0.338855	-0.19533	0.213218	0.00398375	0.321731	-0.226287	0.0866065	-0.277593	0.377451	-0.00185975	-0.167148	0.015323	0.250563	-0.0493603	-0.144923	-0.045165	0.107569	-0.236599	0.178423	0.140434	0.501423	-0.172276	0.218857	-0.011697	0.252814	
3.67126	0	0	-0.346446	0.342024	-0.155426	0.446227	-0.299737	0.306371	-0.043634	0.336114	-0.196231	0.215763	0.002494	0.32594	-0.227271	0.089389	-0.280562	0.38584	-0.004354	-0.171736	-0.00819	0.2188	-0.048449	-0.147499	-0.045165	0.107569	-0.236599	0.178423	0.146401	0.500637	-0.164069	0.213494	-0.020431	0.258521	
3.66821	0	0	-0.342408	0.330611	-0.156006	0.41305	-0.296341	0.296773	-0.050263	0.327194	-0.199513	0.213994	-0.00183875	0.3223	-0.224318	0.081044	-0.28417	0.381748	-0.0068475	-0.176319	-0.04679	0.188476	-0.0516125	-0.14939	-0.068838	0.114358	-0.236599	0.178423	0.137568	0.509523	-0.173573	0.222522	-0.018677	0.253564	
3.67279	0	0	-0.338369	0.319198	-0.156585	0.379873	-0.292945	0.287176	-0.056892	0.318273	-0.202794	0.212226	-0.0061715	0.318661	-0.221365	0.072699	-0.287778	0.377656	-0.009341	-0.180902	-0.08539	0.158152	-0.054776	-0.151282	-0.092511	0.121146	-0.236599	0.178423	0.128735	0.518409	-0.183077	0.23155	-0.016923	0.248607	
3.67126	0	0	-0.334331	0.307786	-0.157164	0.346697	-0.289549	0.277578	-0.063521	0.309353	-0.206076	0.210457	-0.0105042	0.315021	-0.218413	0.064354	-0.291386	0.373563	-0.0118345	-0.185486	-0.12399	0.127827	-0.0579395	-0.153173	-0.116184	0.127935	-0.236599	0.178423	0.119902	0.527295	-0.192581	0.240579	-0.015169	0.243649	
3.66821	0	0	-0.330293	0.296373	-0.157744	0.31352	-0.286153	0.26798	-0.07015	0.300433	-0.209358	0.208688	-0.014837	0.311381	-0.21546	0.056009	-0.294994	0.369471	-0.014328	-0.190069	-0.16259	0.097503	-0.061103	-0.155064	-0.139857	0.134723	-0.236599	0.178423	0.111069	0.536181	-0.202085	0.249607	-0.013415	0.238692	
3.66516	0	0	-0.328276	0.290672	-0.15549	0.289768	-0.284457	0.263185	-0.0716362	0.290821	-0.211738	0.204378	-0.016194	0.299344	-0.217704	0.0510655	-0.300723	0.357117	-0.0114713	-0.198142	-0.195901	0.0670575	-0.062445	-0.162097	-0.14431	0.10734	-0.232539	0.166948	0.109166	0.509445	-0.189989	0.233253	-0.0290598	0.226092	
3.66516	0	0	-0.326259	0.284971	-0.153236	0.266016	-0.28276	0.25839	-0.0731225	0.281209	-0.214118	0.200068	-0.017551	0.287307	-0.219948	0.046122	-0.306451	0.344762	-0.0086145	-0.206215	-0.229212	0.036612	-0.063787	-0.16913	-0.148763	0.079956	-0.228478	0.155473	0.107263	0.482709	-0.177893	0.216898	-0.0447045	0.213492	
3.66516	0	0	-0.324241	0.27927	-0.150983	0.242263	-0.281063	0.253595	-0.0746088	0.271597	-0.216499	0.195757	-0.018908	0.275269	-0.222191	0.0411785	-0.31218	0.332407	-0.00575775	-0.214289	-0.262522	0.0061665	-0.065129	-0.176163	-0.153217	0.0525725	-0.224417	0.143997	0.105361	0.455973	-0.165796	0.200544	-0.0603493	0.200892	
3.66669	0	0	-0.322224	0.273569	-0.148729	0.218511	-0.279367	0.2488	-0.076095	0.261985	-0.218879	0.191447	-0.020265	0.263232	-0.224435	0.036235	-0.317909	0.320053	-0.002901	-0.222362	-0.295833	-0.024279	-0.066471	-0.183196	-0.15767	0.025189	-0.220357	0.132522	0.103458	0.429237	-0.1537	0.18419	-0.075994	0.188292	
3.66211	0	0	-0.311241	0.266392	-0.148729	0.218511	-0.269675	0.242467	-0.0812307	0.262698	-0.217081	0.186364	-0.02311	0.255414	-0.22766	0.0340727	-0.316429	0.315871	-0.00539625	-0.226933	-0.316606	-0.0481685	-0.0637435	-0.190905	-0.158914	0.00875075	-0.222617	0.125188	0.0927382	0.411466	-0.158023	0.178575	-0.0759657	0.169312	
3.66058	0	0	-0.300258	0.259215	-0.148729	0.218511	-0.259983	0.236134	-0.0863665	0.26341	-0.215282	0.181281	-0.025955	0.247596	-0.230886	0.0319105	-0.314949	0.311689	-0.0078915	-0.231504	-0.337379	-0.072058	-0.061016	-0.198613	-0.160157	-0.0076875	-0.224876	0.117853	0.0820185	0.393696	-0.162346	0.172959	-0.0759375	0.150333	
3.66211	0	0	-0.289274	0.252039	-0.148729	0.218511	-0.250291	0.229802	-0.0915023	0.264122	-0.213483	0.176198	-0.0288	0.239778	-0.234112	0.0297483	-0.31347	0.307507	-0.0103868	-0.236074	-0.358152	-0.0959475	-0.0582885	-0.206322	-0.161401	-0.0241258	-0.227136	0.110519	0.0712987	0.375926	-0.166668	0.167344	-0.0759093	0.131354	
3.66363	0	0	-0.278291	0.244862	-0.148729	0.218511	-0.240599	0.223469	-0.096638	0.264835	-0.211685	0.171115	-0.031645	0.23196	-0.237337	0.027586	-0.31199	0.303325	-0.012882	-0.240645	-0.378925	-0.119837	-0.055561	-0.214031	-0.162644	-0.040564	-0.229396	0.103185	0.060579	0.358155	-0.170991	0.161729	-0.075881	0.112374	
3.66516	0	0	-0.280308	0.250563	-0.152143	0.22816	-0.238903	0.218676	-0.0993388	0.258676	-0.211685	0.171115	-0.031645	0.23196	-0.233129	0.0269708	-0.31199	0.303325	-0.0119312	-0.243332	-0.404891	-0.128687	-0.0546522	-0.216599	-0.160662	-0.0461648	-0.228383	0.100322	0.0634233	0.350117	-0.16149	0.15271	-0.0793463	0.103287	
3.66669	0	0	-0.282326	0.256264	-0.155558	0.23781	-0.237208	0.213884	-0.10204	0.252518	-0.211685	0.171115	-0.031645	0.23196	-0.22892	0.0263555	-0.31199	0.303325	-0.0109805	-0.24602	-0.430856	-0.137537	-0.0537435	-0.219168	-0.158681	-0.0517655	-0.22737	0.0974595	0.0662675	0.342079	-0.151989	0.14369	-0.0828115	0.0941995	
3.66058	0	0	-0.284343	0.261965	-0.158972	0.247459	-0.235513	0.209092	-0.10474	0.246359	-0.211685	0.171115	-0.031645	0.23196	-0.224712	0.0257402	-0.31199	0.303325	-0.0100298	-0.248707	-0.456821	-0.146388	-0.0528347	-0.221736	-0.156699	-0.0573662	-0.226357	0.0945967	0.0691117	0.33404	-0.142488	0.134671	-0.0862767	0.0851123	
3.66363	0	0	-0.28636	0.267666	-0.162386	0.257109	-0.233817	0.204299	-0.107441	0.2402	-0.211685	0.171115	-0.031645	0.23196	-0.220504	0.025125	-0.31199	0.303325	-0.009079	-0.251394	-0.482787	-0.155238	-0.051926	-0.224304	-0.154717	-0.062967	-0.225344	0.091734	0.071956	0.326002	-0.132987	0.125652	-0.089742	0.076025	
3.66211	0	0	-0.282327	0.256268	-0.174408	0.239035	-0.24012	0.201055	-0.108928	0.230621	-0.209888	0.166035	-0.0432582	0.233105	-0.218539	0.019573	-0.315594	0.299254	-0.0081285	-0.25408	-0.493752	-0.165231	-0.051926	-0.224304	-0.165872	-0.0513722	-0.220042	0.0904705	0.0676888	0.338062	-0.135575	0.132966	-0.0827927	0.075266	
3.66058	0	0	-0.278293	0.24487	-0.186431	0.220961	-0.246423	0.197811	-0.110415	0.221042	-0.208091	0.160955	-0.0548715	0.234249	-0.216575	0.014021	-0.319198	0.295184	-0.007178	-0.256767	-0.504716	-0.175223	-0.051926	-0.224304	-0.177027	-0.0397775	-0.214741	0.089207	0.0634215	0.350122	-0.138163	0.140281	-0.0758435	0.074507	
3.66211	0	0	-0.27426	0.233471	-0.198454	0.202888	-0.252726	0.194567	-0.111902	0.211463	-0.206293	0.155875	-0.0664848	0.235394	-0.214611	0.008469	-0.322802	0.291113	-0.0062275	-0.259453	-0.51568	-0.185216	-0.051926	-0.224304	-0.188182	-0.0281827	-0.209439	0.0879435	0.0591542	0.362182	-0.140751	0.147595	-0.0688943	0.073748	
3.66211	0	0	-0.270227	0.222073	-0.210476	0.184814	-0.259029	0.191323	-0.113389	0.201884	-0.204496	0.150795	-0.078098	0.236539	-0.212646	0.002917	-0.326406	0.287042	-0.005277	-0.262139	-0.526645	-0.195209	-0.051926	-0.224304	-0.199337	-0.016588	-0.204137	0.08668	0.054887	0.374242	-0.143339	0.154909	-0.061945	0.072989	
3.66669	0	0	-0.268212	0.216379	-0.201979	0.160801	-0.257336	0.186538	-0.11609	0.195747	-0.206879	0.146498	-0.075135	0.228165	-0.215873	0.00076	-0.328531	0.278803	-0.010623	-0.258646	-0.5389	-0.201467	-0.0559972	-0.223617	-0.202559	-0.0273925	-0.209439	0.0879435	0.0472795	0.363767	-0.151546	0.160272	-0.082769	0.0752567	
3.67584	0	0	-0.266197	0.210685	-0.193483	0.136787	-0.255643	0.181754	-0.118791	0.189609	-0.209261	0.142201	-0.072172	0.219792	-0.219101	-0.001397	-0.330657	0.270565	-0.015969	-0.255153	-0.551154	-0.207724	-0.0600685	-0.222931	-0.20578	-0.038197	-0.214741	0.089207	0.039672	0.353292	-0.159753	0.165634	-0.103593	0.0775245	
3.67126	0	0	-0.264183	0.204992	-0.184986	0.112773	-0.25395	0.176969	-0.121493	0.183472	-0.211643	0.137904	-0.069209	0.211418	-0.222329	-0.003554	-0.332782	0.262327	-0.021315	-0.251659	-0.563408	-0.213982	-0.0641397	-0.222245	-0.209002	-0.0490015	-0.220042	0.0904705	0.0320645	0.342817	-0.167961	0.170997	-0.124417	0.0797922	
3.67432	0	0	-0.262168	0.199298	-0.176489	0.08876	-0.252257	0.172184	-0.124194	0.177335	-0.214026	0.133607	-0.066246	0.203044	-0.225556	-0.005711	-0.334908	0.254088	-0.026661	-0.248166	-0.575663	-0.22024	-0.068211	-0.221558	-0.212224	-0.059806	-0.225344	0.091734	0.024457	0.332342	-0.176168	0.17636	-0.145241	0.08206	
3.67432	0	0	-0.257219	0.209204	-0.167321	0.0975345	-0.245952	0.175423	-0.119068	0.176619	-0.209847	0.132827	-0.070566	0.199435	-0.225556	-0.005711	-0.339984	0.254199	-0.021315	-0.251659	-0.576685	-0.230963	-0.0641397	-0.222245	-0.215447	-0.0705853	-0.224331	0.0888722	0.0140232	0.329909	-0.165373	0.163683	-0.162526	0.0744978	
3.67279	0	0	-0.252269	0.21911	-0.158153	0.106309	-0.239647	0.178662	-0.113942	0.175902	-0.205668	0.132047	-0.074886	0.195827	-0.225556	-0.005711	-0.345059	0.254309	-0.015969	-0.255153	-0.577706	-0.241687	-0.0600685	-0.222931	-0.21867	-0.0813645	-0.223319	0.0860105	0.0035895	0.327475	-0.154577	0.151006	-0.179812	0.0669355	
3.66821	0	0	-0.247319	0.229016	-0.148985	0.115084	-0.233342	0.181901	-0.108815	0.175185	-0.201489	0.131267	-0.079206	0.192218	-0.225556	-0.005711	-0.350135	0.25442	-0.010623	-0.258646	-0.578727	-0.25241	-0.0559972	-0.223617	-0.221894	-0.0921437	-0.222306	0.0831487	-0.00684425	0.325041	-0.143782	0.138329	-0.197097	0.0593733	
3.65753	0	0	-0.24237	0.238922	-0.139817	0.123858	-0.227037	0.18514	-0.103689	0.174469	-0.19731	0.130487	-0.083526	0.188609	-0.225556	-0.005711	-0.355211	0.254531	-0.005277	-0.262139	-0.579749	-0.263134	-0.051926	-0.224304	-0.225117	-0.102923	-0.221294	0.080287	-0.017278	0.322608	-0.132987	0.125652	-0.214382	0.051811	
3.66516	0	0	-0.235397	0.24314	-0.142587	0.166437	-0.220725	0.188382	-0.106114	0.181323	-0.193128	0.129706	-0.083526	0.188609	-0.222329	-0.003554	-0.353736	0.250362	-0.0062275	-0.259453	-0.588337	-0.266053	-0.051926	-0.224304	-0.225117	-0.102923	-0.221294	0.080287	-0.01161	0.306589	-0.138608	0.123707	-0.224722	0.043519	
3.66363	0	0	-0.228424	0.247358	-0.145358	0.209016	-0.214413	0.191625	-0.108539	0.188177	-0.188946	0.128924	-0.083526	0.188609	-0.219101	-0.001397	-0.352262	0.246194	-0.007178	-0.256767	-0.596925	-0.268972	-0.051926	-0.224304	-0.225117	-0.102923	-0.221294	0.080287	-0.005942	0.29057	-0.14423	0.121762	-0.235061	0.035227	
3.65753	0	0	-0.22145	0.251575	-0.148128	0.251595	-0.2081	0.194867	-0.110964	0.19503	-0.184764	0.128143	-0.083526	0.188609	-0.215873	0.00076	-0.350787	0.242026	-0.0081285	-0.25408	-0.605514	-0.27189	-0.051926	-0.224304	-0.225117	-0.102923	-0.221294	0.080287	-0.000274	0.274551	-0.149851	0.119816	-0.245401	0.026935	
3.64685	0	0	-0.214477	0.255793	-0.150898	0.294174	-0.201788	0.198109	-0.113389	0.201884	-0.180582	0.127362	-0.083526	0.188609	-0.212646	0.002917	-0.349312	0.237857	-0.009079	-0.251394	-0.614102	-0.274809	-0.051926	-0.224304	-0.225117	-0.102923	-0.221294	0.080287	0.005394	0.258532	-0.155472	0.117871	-0.255741	0.018643	
3.65143	0	0	-0.212457	0.250085	-0.150356	0.275258	-0.198398	0.188527	-0.121212	0.196462	-0.183866	0.125606	-0.089321	0.189182	-0.211664	0.00014225	-0.357979	0.233916	-0.009079	-0.251394	-0.616431	-0.281807	-0.0528347	-0.221736	-0.234261	-0.0969482	-0.221294	0.080287	0.0068095	0.254532	-0.156765	0.121524	-0.262632	0.0193885	
3.656	0	0	-0.210437	0.244376	-0.149813	0.256343	-0.195007	0.178945	-0.129035	0.191039	-0.18715	0.12385	-0.095116	0.189755	-0.210682	-0.0026325	-0.366646	0.229975	-0.009079	-0.251394	-0.61876	-0.288806	-0.0537435	-0.219168	-0.243405	-0.0909735	-0.221294	0.080287	0.008225	0.250532	-0.158058	0.125177	-0.269522	0.020134	
3.65295	0	0	-0.208418	0.238668	-0.149271	0.237427	-0.191616	0.169362	-0.136859	0.185616	-0.190434	0.122093	-0.100911	0.190328	-0.209701	-0.00540725	-0.375313	0.226033	-0.009079	-0.251394	-0.621089	-0.295804	-0.0546522	-0.216599	-0.252549	-0.0849987	-0.221294	0.080287	0.0096405	0.246531	-0.15935	0.128831	-0.276413	0.0208795	
3.64838	0	0	-0.206398	0.23296	-0.148729	0.218511	-0.188226	0.15978	-0.144682	0.180194	-0.193718	0.120337	-0.106706	0.190901	-0.208719	-0.008182	-0.38398	0.222092	-0.009079	-0.251394	-0.623418	-0.302802	-0.055561	-0.214031	-0.261693	-0.079024	-0.221294	0.080287	0.011056	0.242531	-0.160643	0.132484	-0.283304	0.021625	
3.64227	0	0	-0.204379	0.227255	-0.157366	0.190871	-0.19285	0.151766	-0.14617	0.170648	-0.197	0.118582	-0.109541	0.183121	-0.207737	-0.010956	-0.381037	0.213773	-0.00717825	-0.256766	-0.625747	-0.309789	-0.0596317	-0.213345	-0.264908	-0.0897845	-0.220281	0.077426	-0.0066915	0.24491	-0.160643	0.132484	-0.290187	0.0223677	
3.63159	0	0	-0.202361	0.221551	-0.166004	0.163231	-0.197473	0.143752	-0.147658	0.161102	-0.200282	0.116826	-0.112376	0.175342	-0.206756	-0.01373	-0.378093	0.205454	-0.0052775	-0.262138	-0.628077	-0.316777	-0.0637025	-0.21266	-0.268123	-0.100545	-0.219269	0.074565	-0.024439	0.247288	-0.160643	0.132484	-0.29707	0.0231105	
3.656	0	0	-0.200343	0.215846	-0.174642	0.13559	-0.202097	0.135738	-0.149146	0.151556	-0.203564	0.115071	-0.115211	0.167563	-0.205774	-0.016504	-0.375149	0.197134	-0.00337675	-0.267509	-0.630406	-0.323765	-0.0677733	-0.211974	-0.271337	-0.111306	-0.218256	0.071704	-0.0421865	0.249667	-0.160643	0.132484	-0.303953	0.0238532	
3.63922	0	0	-0.198324	0.210142	-0.183279	0.10795	-0.206721	0.127724	-0.150634	0.14201	-0.206846	0.113316	-0.118046	0.159783	-0.204793	-0.019278	-0.372206	0.188815	-0.001476	-0.272881	-0.632735	-0.330752	-0.071844	-0.211288	-0.274552	-0.122066	-0.217244	0.068843	-0.059934	0.252046	-0.160643	0.132484	-0.310836	0.024596	
3.64838	0	0	-0.198324	0.210142	-0.178189	0.0935653	-0.208413	0.132506	-0.155749	0.142725	-0.199975	0.104929	-0.115094	0.151441	-0.202831	-0.0248233	-0.367795	0.176351	-0.003973	-0.277439	-0.63246	-0.345091	-0.0722813	-0.220865	-0.271871	-0.149469	-0.225814	0.0656515	-0.067767	0.226527	-0.170576	0.124942	-0.326269	0.0121937	
3.64227	0	0	-0.198324	0.210142	-0.173099	0.0791805	-0.210106	0.137289	-0.160864	0.14344	-0.193105	0.0965415	-0.112142	0.143099	-0.200869	-0.0303685	-0.363385	0.163886	-0.00647	-0.281998	-0.632184	-0.35943	-0.0727185	-0.230443	-0.269189	-0.176871	-0.234383	0.06246	-0.0756	0.201008	-0.180509	0.117401	-0.341701	-0.0002085	
3.63617	0	0	-0.198324	0.210142	-0.168009	0.0647957	-0.211798	0.142071	-0.165979	0.144156	-0.186234	0.0881543	-0.10919	0.134756	-0.198906	-0.0359138	-0.358974	0.151422	-0.008967	-0.286556	-0.631908	-0.37377	-0.0731558	-0.24002	-0.266508	-0.204273	-0.242953	0.0592685	-0.083433	0.175489	-0.190441	0.109859	-0.357133	-0.0126107	
3.63769	0	0	-0.198324	0.210142	-0.162919	0.050411	-0.21349	0.146853	-0.171094	0.144871	-0.179363	0.079767	-0.106238	0.126414	-0.196944	-0.041459	-0.354564	0.138958	-0.011464	-0.291114	-0.631633	-0.388109	-0.073593	-0.249598	-0.263827	-0.231676	-0.251523	0.056077	-0.091266	0.14997	-0.200374	0.102318	-0.372566	-0.025013	
3.64685	0	0	-0.198324	0.210142	-0.166312	0.0599983	-0.21349	0.146853	-0.171094	0.144871	-0.182647	0.0780173	-0.11055	0.122824	-0.198214	-0.0491473	-0.366822	0.131026	-0.0183518	-0.294858	-0.641229	-0.401613	-0.07494	-0.256599	-0.277424	-0.252596	-0.253783	0.048774	-0.0932203	0.12379	-0.203401	0.0930907	-0.370827	-0.048562	
3.65143	0	0	-0.198324	0.210142	-0.169704	0.0695855	-0.21349	0.146853	-0.171094	0.144871	-0.185931	0.0762675	-0.114863	0.119234	-0.199485	-0.0568355	-0.379079	0.123094	-0.0252395	-0.298602	-0.650825	-0.415116	-0.076287	-0.263599	-0.291022	-0.273516	-0.256043	0.041471	-0.0951745	0.09761	-0.206427	0.0838635	-0.369089	-0.072111	
3.65448	0	0	-0.198324	0.210142	-0.173097	0.0791728	-0.21349	0.146853	-0.171094	0.144871	-0.189215	0.0745177	-0.119176	0.115645	-0.200755	-0.0645237	-0.391336	0.115163	-0.0321273	-0.302347	-0.660421	-0.42862	-0.077634	-0.270599	-0.30462	-0.294436	-0.258303	0.034168	-0.0971287	0.07143	-0.209454	0.0746363	-0.36735	-0.09566	
3.65143	0	0	-0.198324	0.210142	-0.176489	0.08876	-0.21349	0.146853	-0.171094	0.144871	-0.192499	0.072768	-0.123488	0.112055	-0.202025	-0.072212	-0.403594	0.107231	-0.039015	-0.306091	-0.670017	-0.442124	-0.078981	-0.2776	-0.318217	-0.315356	-0.260563	0.026865	-0.099083	0.04525	-0.212481	0.065409	-0.365611	-0.119209	
3.656	0	0	-0.176258	0.195724	-0.169549	0.121198	-0.210107	0.137291	-0.174997	0.14217	-0.191603	0.0702357	-0.135047	0.113206	-0.207213	-0.0688225	-0.409312	0.0950633	-0.036172	-0.314126	-0.684513	-0.455181	-0.08214	-0.279473	-0.328567	-0.325567	-0.254262	0.0227478	-0.0993705	0.0302313	-0.205586	0.063703	-0.381023	-0.112867	
3.65448	0	0	-0.154193	0.181306	-0.162609	0.153636	-0.206724	0.127729	-0.178899	0.139469	-0.190707	0.0677035	-0.146605	0.114357	-0.2124	-0.065433	-0.41503	0.0828955	-0.033329	-0.32216	-0.69901	-0.468238	-0.085299	-0.281345	-0.338917	-0.335778	-0.247962	0.0186305	-0.099658	0.0152125	-0.19869	0.061997	-0.396435	-0.106525	
3.66669	0	0	-0.132128	0.166887	-0.155669	0.186073	-0.20334	0.118168	-0.182802	0.136768	-0.189811	0.0651713	-0.158164	0.115508	-0.217587	-0.0620435	-0.420748	0.0707278	-0.030486	-0.330195	-0.713506	-0.481295	-0.088458	-0.283218	-0.349267	-0.345988	-0.241661	0.0145133	-0.0999455	0.00019375	-0.191795	0.060291	-0.411846	-0.100183	
3.685	0	0	-0.110062	0.152469	-0.148729	0.218511	-0.199957	0.108606	-0.186705	0.134067	-0.188915	0.062639	-0.169723	0.116659	-0.222775	-0.058654	-0.426466	0.05856	-0.027643	-0.33823	-0.728003	-0.494352	-0.091617	-0.28509	-0.359617	-0.356199	-0.23536	0.010396	-0.100233	-0.014825	-0.1849	0.058585	-0.427258	-0.093841	
3.685	0	0	-0.110062	0.152469	-0.151607	0.209279	-0.206269	0.105387	-0.188192	0.124548	-0.192197	0.0608918	-0.175494	0.117231	-0.222775	-0.058654	-0.438683	0.0506755	-0.031085	-0.340096	-0.733945	-0.504512	-0.091617	-0.28509	-0.361568	-0.350685	-0.23637	0.0132498	-0.104431	-0.00296225	-0.180577	0.0641657	-0.420415	-0.0945845	
3.69415	0	0	-0.110062	0.152469	-0.154485	0.200047	-0.212581	0.102169	-0.189678	0.11503	-0.19548	0.0591445	-0.181266	0.117804	-0.222775	-0.058654	-0.4509	0.042791	-0.034527	-0.341961	-0.739888	-0.514673	-0.091617	-0.28509	-0.363519	-0.34517	-0.23738	0.0161035	-0.108628	0.0089005	-0.176254	0.0697465	-0.413571	-0.095328	
3.70331	0	0	-0.110062	0.152469	-0.157364	0.190816	-0.218893	0.0989505	-0.191165	0.105511	-0.198763	0.0573972	-0.187037	0.118376	-0.222775	-0.058654	-0.463117	0.0349065	-0.037969	-0.343827	-0.745831	-0.524833	-0.091617	-0.28509	-0.365471	-0.339656	-0.238389	0.0189573	-0.112825	0.0207633	-0.171931	0.0753272	-0.406728	-0.0960715	
3.70941	0	0	-0.110062	0.152469	-0.160242	0.181584	-0.225205	0.095732	-0.192652	0.095993	-0.202045	0.05565	-0.192808	0.118948	-0.222775	-0.058654	-0.475334	0.027022	-0.041411	-0.345693	-0.751773	-0.534993	-0.091617	-0.28509	-0.367422	-0.334142	-0.239399	0.021811	-0.117023	0.032626	-0.167608	0.080908	-0.399884	-0.096815	
3.71704	0	0	-0.110062	0.152469	-0.156837	0.17196	-0.223517	0.09096	-0.196551	0.0933015	-0.200255	0.05059	-0.195633	0.111207	-0.220816	-0.0641888	-0.481036	0.0149175	-0.0448513	-0.347558	-0.751519	-0.549174	-0.0938693	-0.289519	-0.375802	-0.349838	-0.240409	0.0246655	-0.12738	0.0302733	-0.16199	0.0828465	-0.410161	-0.0863697	
3.72314	0	0	-0.110062	0.152469	-0.153432	0.162337	-0.221828	0.086188	-0.20045	0.09061	-0.198464	0.04553	-0.198458	0.103466	-0.218858	-0.0697235	-0.486738	0.002813	-0.0482915	-0.349422	-0.751265	-0.563354	-0.0961215	-0.293949	-0.384181	-0.365533	-0.241419	0.02752	-0.137737	0.0279205	-0.156372	0.084785	-0.420437	-0.0759245	
3.73382	0	0	-0.110062	0.152469	-0.150027	0.152714	-0.220139	0.081416	-0.204349	0.0879185	-0.196674	0.04047	-0.201282	0.095725	-0.216899	-0.0752582	-0.492441	-0.0092915	-0.0517317	-0.351287	-0.751011	-0.577535	-0.0983737	-0.298378	-0.392561	-0.381228	-0.242429	0.0303745	-0.148093	0.0255678	-0.150755	0.0867235	-0.430713	-0.0654793	
3.74298	0	0	-0.110062	0.152469	-0.146622	0.14309	-0.218451	0.076644	-0.208248	0.085227	-0.194884	0.03541	-0.204107	0.087984	-0.214941	-0.080793	-0.498143	-0.021396	-0.055172	-0.353152	-0.750757	-0.591716	-0.100626	-0.302807	-0.40094	-0.396924	-0.243439	0.033229	-0.15845	0.023215	-0.145137	0.088662	-0.44099	-0.055034	
3.75061	0	0	-0.11208	0.158174	-0.13114	0.151485	-0.218451	0.076644	-0.208248	0.085227	-0.19906	0.0361947	-0.201169	0.0796805	-0.214941	-0.080793	-0.498813	-0.0335965	-0.054226	-0.355826	-0.754372	-0.594952	-0.102877	-0.307232	-0.409311	-0.41256	-0.246711	0.0287853	-0.166284	-0.00197875	-0.150755	0.0867235	-0.434128	-0.0744273	
3.75671	0	0	-0.114099	0.163878	-0.115659	0.15988	-0.218451	0.076644	-0.208248	0.085227	-0.203236	0.0369795	-0.198231	0.071377	-0.214941	-0.080793	-0.499484	-0.045797	-0.05328	-0.358499	-0.757988	-0.598187	-0.105129	-0.311657	-0.417683	-0.428196	-0.249982	0.0243415	-0.174118	-0.0271725	-0.156372	0.084785	-0.427266	-0.0938205	
3.75976	0	0	-0.116117	0.169583	-0.100178	0.168276	-0.218451	0.076644	-0.208248	0.085227	-0.207412	0.0377642	-0.195292	0.0630735	-0.214941	-0.080793	-0.500154	-0.0579975	-0.052334	-0.361173	-0.761603	-0.601422	-0.10738	-0.316081	-0.426054	-0.443833	-0.253254	0.0198978	-0.181951	-0.0523663	-0.16199	0.0828465	-0.420404	-0.113214	
3.76739	0	0	-0.118136	0.175288	-0.084696	0.176671	-0.218451	0.076644	-0.208248	0.085227	-0.211588	0.038549	-0.192354	0.05477	-0.214941	-0.080793	-0.500824	-0.070198	-0.051388	-0.363846	-0.765218	-0.604658	-0.109632	-0.320506	-0.434425	-0.459469	-0.256526	0.015454	-0.189785	-0.07756	-0.167608	0.080908	-0.413542	-0.132607	
3.76892	0	0	-0.122177	0.186708	-0.080624	0.20001	-0.212137	0.0798575	-0.209453	0.0886337	-0.212483	0.0410777	-0.201054	0.0636458	-0.221104	-0.0746385	-0.500824	-0.070198	-0.0567175	-0.360364	-0.775014	-0.603851	-0.110536	-0.317951	-0.432486	-0.46495	-0.254508	0.00975125	-0.191471	-0.088546	-0.163739	0.0699748	-0.42038	-0.131861	
3.77655	0	0	-0.126218	0.198128	-0.076552	0.223349	-0.205823	0.083071	-0.210659	0.0920405	-0.213378	0.0436065	-0.209754	0.0725215	-0.227268	-0.068484	-0.500824	-0.070198	-0.062047	-0.356881	-0.784809	-0.603044	-0.11144	-0.315395	-0.430546	-0.47043	-0.25249	0.0040485	-0.193158	-0.099532	-0.15987	0.0590415	-0.427218	-0.131115	
3.78265	0	0	-0.130259	0.209549	-0.07248	0.246688	-0.199509	0.0862845	-0.211865	0.0954472	-0.214273	0.0461353	-0.218454	0.0813973	-0.233432	-0.0623295	-0.500824	-0.070198	-0.0673765	-0.353399	-0.794605	-0.602236	-0.112345	-0.312839	-0.428607	-0.475911	-0.250472	-0.00165425	-0.194844	-0.110518	-0.156002	0.0481082	-0.434055	-0.13037	
3.78723	0	0	-0.1343	0.220969	-0.068408	0.270027	-0.193195	0.089498	-0.21307	0.098854	-0.215168	0.048664	-0.227154	0.090273	-0.239595	-0.056175	-0.500824	-0.070198	-0.072706	-0.349916	-0.804401	-0.601429	-0.113249	-0.310284	-0.426668	-0.481391	-0.248454	-0.007357	-0.19653	-0.121504	-0.152133	0.037175	-0.440893	-0.129624	
3.79028	0	0	-0.1343	0.220969	-0.0844463	0.280507	-0.202887	0.0958307	-0.21307	0.098854	-0.215168	0.048664	-0.228623	0.0944258	-0.243797	-0.0555565	-0.507306	-0.0659628	-0.0683225	-0.350725	-0.804401	-0.601429	-0.115059	-0.305171	-0.430548	-0.470427	-0.249463	-0.004506	-0.19653	-0.121504	-0.146512	0.0391048	-0.442606	-0.124782	
3.79333	0	0	-0.1343	0.220969	-0.100485	0.290987	-0.212579	0.102163	-0.21307	0.098854	-0.215168	0.048664	-0.230092	0.0985785	-0.248	-0.054938	-0.513788	-0.0617275	-0.063939	-0.351534	-0.804401	-0.601429	-0.116868	-0.300057	-0.434427	-0.459462	-0.250472	-0.001655	-0.19653	-0.121504	-0.140892	0.0410345	-0.444319	-0.11994	
3.79639	0	0	-0.1343	0.220969	-0.116523	0.301466	-0.222271	0.108496	-0.21307	0.098854	-0.215168	0.048664	-0.231562	0.102731	-0.252202	-0.0543195	-0.52027	-0.0574922	-0.0595555	-0.352343	-0.804401	-0.601429	-0.118677	-0.294943	-0.438307	-0.448497	-0.25148	0.001196	-0.19653	-0.121504	-0.135271	0.0429643	-0.446033	-0.115099	
3.80401	0	0	-0.1343	0.220969	-0.132561	0.311946	-0.231963	0.114829	-0.21307	0.098854	-0.215168	0.048664	-0.233031	0.106884	-0.256404	-0.053701	-0.526752	-0.053257	-0.055172	-0.353152	-0.804401	-0.601429	-0.120487	-0.28983	-0.442187	-0.437533	-0.252489	0.004047	-0.19653	-0.121504	-0.12965	0.044894	-0.447746	-0.110257	
3.80554	0	0	-0.141299	0.216762	-0.141185	0.284171	-0.228585	0.105283	-0.222062	0.0968752	-0.222617	0.0477008	-0.237318	0.103301	-0.254447	-0.0592325	-0.535346	-0.057105	-0.0614475	-0.346995	-0.804401	-0.601429	-0.121392	-0.287272	-0.453157	-0.426146	-0.259795	0.011013	-0.203773	-0.116771	-0.13094	0.0485398	-0.435781	-0.106896	
3.80554	0	0	-0.148297	0.212556	-0.14981	0.256396	-0.225207	0.0957365	-0.231054	0.0948965	-0.230067	0.0467375	-0.241605	0.0997185	-0.25249	-0.064764	-0.54394	-0.060953	-0.067723	-0.340839	-0.804401	-0.601429	-0.122297	-0.284714	-0.464127	-0.41476	-0.2671	0.017979	-0.211016	-0.112038	-0.13223	0.0521855	-0.423815	-0.103536	
3.81012	0	0	-0.155296	0.208349	-0.158434	0.228621	-0.221829	0.0861902	-0.240045	0.0929178	-0.237516	0.0457742	-0.245892	0.0961357	-0.250532	-0.0702955	-0.552533	-0.064801	-0.0739985	-0.334682	-0.804401	-0.601429	-0.123202	-0.282157	-0.475097	-0.403373	-0.274405	0.024945	-0.21826	-0.107305	-0.13352	0.0558312	-0.411849	-0.100176	
3.81012	0	0	-0.162295	0.204143	-0.167058	0.200846	-0.218451	0.076644	-0.249037	0.090939	-0.244965	0.044811	-0.250179	0.092553	-0.248575	-0.075827	-0.561127	-0.068649	-0.080274	-0.328525	-0.804401	-0.601429	-0.124107	-0.279599	-0.486067	-0.391986	-0.281711	0.031911	-0.225503	-0.102572	-0.13481	0.059477	-0.399884	-0.096815	
3.81012	0	0	-0.160276	0.198438	-0.171113	0.177622	-0.215077	0.067108	-0.246629	0.0841348	-0.247345	0.0405408	-0.252996	0.084829	-0.247597	-0.0785913	-0.561796	-0.0808095	-0.0793278	-0.331199	-0.808007	-0.604661	-0.123202	-0.282157	-0.48539	-0.413496	-0.280702	0.029059	-0.23887	-0.11193	-0.151201	0.0701873	-0.413564	-0.095331	
3.81164	0	0	-0.158258	0.192734	-0.175169	0.154398	-0.211703	0.057572	-0.244222	0.0773305	-0.249726	0.0362705	-0.255812	0.077105	-0.246618	-0.0813555	-0.562466	-0.09297	-0.0783815	-0.333874	-0.811613	-0.607893	-0.122297	-0.284714	-0.484712	-0.435005	-0.279693	0.026207	-0.252236	-0.121287	-0.167592	0.0808975	-0.427243	-0.093847	
3.81164	0	0	-0.15624	0.187029	-0.179224	0.131174	-0.208328	0.048036	-0.241814	0.0705262	-0.252107	0.0320003	-0.258629	0.069381	-0.24564	-0.0841198	-0.563135	-0.105131	-0.0774352	-0.336548	-0.815219	-0.611126	-0.121392	-0.287272	-0.484035	-0.456515	-0.278684	0.023355	-0.265603	-0.130645	-0.183983	0.0916078	-0.440922	-0.092363	
3.81012	0	0	-0.154221	0.181324	-0.183279	0.10795	-0.204954	0.0385	-0.239406	0.063722	-0.254487	0.02773	-0.261446	0.061657	-0.244662	-0.086884	-0.563804	-0.117291	-0.076489	-0.339222	-0.818825	-0.614358	-0.120487	-0.28983	-0.483358	-0.478025	-0.277675	0.020503	-0.278969	-0.140003	-0.200374	0.102318	-0.454602	-0.090879	
3.81164	0	0	-0.143181	0.17411	-0.178189	0.0935653	-0.204954	0.0385	-0.238203	0.0603218	-0.252701	0.0226815	-0.265728	0.0580857	-0.248862	-0.0862643	-0.567371	-0.12125	-0.076489	-0.339222	-0.818825	-0.614358	-0.119582	-0.292387	-0.486564	-0.488539	-0.28622	0.017324	-0.286778	-0.164947	-0.195217	0.0877435	-0.473353	-0.0935118	
3.80707	0	0	-0.132141	0.166897	-0.173099	0.0791805	-0.204954	0.0385	-0.237	0.0569215	-0.250915	0.017633	-0.270009	0.0545145	-0.253063	-0.0856445	-0.570939	-0.12521	-0.076489	-0.339222	-0.818825	-0.614358	-0.118677	-0.294944	-0.48977	-0.499054	-0.294766	0.014145	-0.294588	-0.189892	-0.19006	0.073169	-0.492105	-0.0961445	
3.80707	0	0	-0.121102	0.159683	-0.168009	0.0647957	-0.204954	0.0385	-0.235797	0.0535212	-0.249128	0.0125845	-0.27429	0.0509432	-0.257263	-0.0850247	-0.574506	-0.129169	-0.076489	-0.339222	-0.818825	-0.614358	-0.117773	-0.297501	-0.492976	-0.509568	-0.303312	0.010966	-0.302397	-0.214836	-0.184903	0.0585945	-0.510856	-0.0987772	
3.80401	0	0	-0.110062	0.152469	-0.162919	0.050411	-0.204954	0.0385	-0.234594	0.050121	-0.247342	0.007536	-0.278572	0.047372	-0.261464	-0.084405	-0.578073	-0.133128	-0.076489	-0.339222	-0.818825	-0.614358	-0.116868	-0.300058	-0.496182	-0.520083	-0.311857	0.007787	-0.310206	-0.239781	-0.179746	0.04402	-0.529607	-0.10141	
3.80554	0	0	-0.121102	0.159683	-0.17089	0.055619	-0.212949	0.0400615	-0.244777	0.0515497	-0.246449	0.005013	-0.278572	0.047372	-0.260486	-0.0871677	-0.571611	-0.137351	-0.0774352	-0.336548	-0.81754	-0.61799	-0.117773	-0.297501	-0.496182	-0.520083	-0.309843	0.00209325	-0.314957	-0.257632	-0.175884	0.0331045	-0.524479	-0.115904	
3.80249	0	0	-0.132141	0.166897	-0.178861	0.060827	-0.220944	0.041623	-0.25496	0.0529785	-0.245557	0.00249	-0.278572	0.047372	-0.259508	-0.0899305	-0.565148	-0.141574	-0.0783815	-0.333874	-0.816254	-0.621623	-0.118677	-0.294944	-0.496182	-0.520083	-0.307828	-0.0036005	-0.319707	-0.275483	-0.172021	0.022189	-0.519351	-0.130397	
3.79944	0	0	-0.143181	0.17411	-0.186831	0.066035	-0.22894	0.0431845	-0.265143	0.0544072	-0.244664	-3.3E-05	-0.278572	0.047372	-0.258531	-0.0926933	-0.558685	-0.145796	-0.0793278	-0.331199	-0.814969	-0.625255	-0.119582	-0.292387	-0.496182	-0.520083	-0.305813	-0.00929425	-0.324458	-0.293333	-0.168159	0.0112735	-0.514222	-0.144891	
3.79944	0	0	-0.154221	0.181324	-0.194802	0.071243	-0.236935	0.044746	-0.275326	0.055836	-0.243771	-0.002556	-0.278572	0.047372	-0.257553	-0.095456	-0.552223	-0.150019	-0.080274	-0.328525	-0.813684	-0.628888	-0.120487	-0.28983	-0.496182	-0.520083	-0.303799	-0.014988	-0.329209	-0.311184	-0.164297	0.000358	-0.509094	-0.159385	
3.79944	0	0	-0.159199	0.171437	-0.216455	0.0633273	-0.243236	0.0415435	-0.276809	0.0463667	-0.246153	-0.0068155	-0.277107	0.0432325	-0.256576	-0.0982177	-0.554348	-0.158055	-0.0793278	-0.331199	-0.817289	-0.632115	-0.119582	-0.292387	-0.489106	-0.520506	-0.309074	-0.0137282	-0.326459	-0.318957	-0.169908	-0.001564	-0.50568	-0.169035	
3.79486	0	0	-0.164177	0.161549	-0.238109	0.0554115	-0.249537	0.038341	-0.278292	0.0368975	-0.248536	-0.011075	-0.275643	0.039093	-0.255598	-0.100979	-0.556473	-0.166092	-0.0783815	-0.333874	-0.820893	-0.635341	-0.118677	-0.294944	-0.482029	-0.52093	-0.31435	-0.0124685	-0.323709	-0.326729	-0.17552	-0.003486	-0.502265	-0.178684	
3.80096	0	0	-0.169155	0.151662	-0.259763	0.0474957	-0.255839	0.0351385	-0.279775	0.0274283	-0.250918	-0.0153345	-0.274178	0.0349535	-0.254621	-0.103741	-0.558598	-0.174128	-0.0774352	-0.336548	-0.824498	-0.638567	-0.117773	-0.297501	-0.474953	-0.521353	-0.319626	-0.0112087	-0.320959	-0.334502	-0.181132	-0.005408	-0.49885	-0.188333	
3.79486	0	0	-0.174133	0.141774	-0.281416	0.03958	-0.26214	0.031936	-0.281258	0.017959	-0.2533	-0.019594	-0.272713	0.030814	-0.253644	-0.106503	-0.560723	-0.182164	-0.076489	-0.339222	-0.828103	-0.641794	-0.116868	-0.300058	-0.467877	-0.521776	-0.324901	-0.009949	-0.318209	-0.342274	-0.186743	-0.00733	-0.495436	-0.197983	
3.79181	0	0	-0.179108	0.13191	-0.282104	0.00706525	-0.257093	0.0176737	-0.281546	0.00512125	-0.249734	-0.0296708	-0.274068	0.018985	-0.254913	-0.11416	-0.561406	-0.194263	-0.0799235	-0.341088	-0.825536	-0.649049	-0.124981	-0.298687	-0.48009	-0.52639	-0.317612	-0.0168987	-0.328459	-0.34453	-0.186743	-0.00733	-0.510756	-0.191679	
3.79333	0	0	-0.184084	0.122046	-0.282793	-0.0254495	-0.252047	0.0034115	-0.281833	-0.0077165	-0.246169	-0.0397475	-0.275423	0.007156	-0.256182	-0.121818	-0.562089	-0.206363	-0.083358	-0.342954	-0.822969	-0.656303	-0.133094	-0.297316	-0.492303	-0.531003	-0.310323	-0.0238485	-0.338709	-0.346785	-0.186743	-0.00733	-0.526076	-0.185375	
3.78876	0	0	-0.189059	0.112181	-0.283481	-0.0579643	-0.247	-0.0108507	-0.28212	-0.0205542	-0.242603	-0.0498243	-0.276778	-0.004673	-0.257451	-0.129475	-0.562773	-0.218463	-0.0867925	-0.34482	-0.820402	-0.663558	-0.141207	-0.295945	-0.504516	-0.535616	-0.303034	-0.0307982	-0.34896	-0.34904	-0.186743	-0.00733	-0.541396	-0.179071	
3.78723	0	0	-0.194034	0.102317	-0.284169	-0.090479	-0.241953	-0.025113	-0.282408	-0.033392	-0.239037	-0.059901	-0.278133	-0.016502	-0.25872	-0.137133	-0.563456	-0.230562	-0.090227	-0.346686	-0.817835	-0.670813	-0.14932	-0.294574	-0.516729	-0.54023	-0.295745	-0.037748	-0.35921	-0.351296	-0.186743	-0.00733	-0.556716	-0.172767	
3.78723	0	0	-0.192025	0.0966378	-0.289926	-0.108606	-0.240273	-0.029862	-0.278816	-0.0435422	-0.240532	-0.0666628	-0.273751	-0.0288855	-0.256769	-0.142648	-0.564145	-0.242635	-0.0883365	-0.352029	-0.820158	-0.677653	-0.146609	-0.302236	-0.516082	-0.561591	-0.304283	-0.04091	-0.374183	-0.371273	-0.196665	-0.0147985	-0.558402	-0.18647	
3.7857	0	0	-0.190015	0.0909585	-0.295682	-0.126734	-0.238592	-0.034611	-0.275224	-0.0536925	-0.242026	-0.0734245	-0.26937	-0.041269	-0.254818	-0.148162	-0.564834	-0.254707	-0.086446	-0.357372	-0.82248	-0.684493	-0.143898	-0.309898	-0.515436	-0.582952	-0.31282	-0.044072	-0.389156	-0.39125	-0.206588	-0.022267	-0.560088	-0.200173	
3.78418	0	0	-0.188005	0.0852793	-0.301438	-0.144862	-0.236912	-0.03936	-0.271633	-0.0638428	-0.243521	-0.0801863	-0.264988	-0.0536525	-0.252866	-0.153676	-0.565523	-0.26678	-0.0845555	-0.362714	-0.824803	-0.691333	-0.141186	-0.317561	-0.51479	-0.604314	-0.321357	-0.047234	-0.404129	-0.411227	-0.21651	-0.0297355	-0.561775	-0.213876	
3.78265	0	0	-0.185996	0.0796	-0.307195	-0.162989	-0.235232	-0.044109	-0.268041	-0.073993	-0.245015	-0.086948	-0.260606	-0.066036	-0.250915	-0.159191	-0.566212	-0.278853	-0.082665	-0.368057	-0.827126	-0.698173	-0.138475	-0.325223	-0.514143	-0.625675	-0.329895	-0.050396	-0.419102	-0.431204	-0.226433	-0.037204	-0.563461	-0.227579	
3.7857	0	0	-0.183988	0.0739242	-0.297607	-0.172895	-0.233552	-0.0488555	-0.271927	-0.0766515	-0.244125	-0.0894627	-0.253399	-0.070745	-0.24994	-0.161947	-0.563334	-0.286987	-0.0860985	-0.369919	-0.829449	-0.705002	-0.141625	-0.327089	-0.508375	-0.641977	-0.326881	-0.0589135	-0.413978	-0.461227	-0.222586	-0.048075	-0.571939	-0.240501	
3.78265	0	0	-0.18198	0.0682485	-0.288019	-0.182802	-0.231873	-0.053602	-0.275813	-0.07931	-0.243235	-0.0919775	-0.246193	-0.075454	-0.248965	-0.164703	-0.560456	-0.29512	-0.089532	-0.37178	-0.831773	-0.711832	-0.144776	-0.328955	-0.502607	-0.658278	-0.323867	-0.067431	-0.408853	-0.491251	-0.21874	-0.058946	-0.580418	-0.253422	
3.7796	0	0	-0.179971	0.0625728	-0.278432	-0.192708	-0.230193	-0.0583485	-0.279699	-0.0819685	-0.242346	-0.0944922	-0.238986	-0.080163	-0.24799	-0.167459	-0.557578	-0.303254	-0.0929655	-0.373641	-0.834096	-0.718662	-0.147926	-0.330821	-0.496839	-0.67458	-0.320854	-0.0759485	-0.403729	-0.521274	-0.214894	-0.069817	-0.588896	-0.266344	
3.77655	0	0	-0.177963	0.056897	-0.268844	-0.202614	-0.228514	-0.063095	-0.283585	-0.084627	-0.241456	-0.097007	-0.231779	-0.084872	-0.247015	-0.170215	-0.5547	-0.311387	-0.096399	-0.375503	-0.836419	-0.725491	-0.151076	-0.332687	-0.491071	-0.690882	-0.31784	-0.084466	-0.398605	-0.551297	-0.211047	-0.080688	-0.597374	-0.279265	
3.7735	0	0	-0.184948	0.0527425	-0.279638	-0.206473	-0.225158	-0.0725805	-0.286273	-0.090659	-0.234621	-0.105338	-0.238986	-0.080163	-0.24604	-0.17297	-0.553262	-0.315451	-0.096399	-0.375503	-0.835139	-0.729107	-0.151076	-0.332687	-0.500052	-0.685013	-0.315832	-0.09014	-0.398952	-0.565845	-0.215365	-0.0862137	-0.585498	-0.294395	
3.77502	0	0	-0.191933	0.048588	-0.290432	-0.210333	-0.221801	-0.082066	-0.288962	-0.096691	-0.227787	-0.113669	-0.246193	-0.075454	-0.245065	-0.175725	-0.551824	-0.319515	-0.096399	-0.375503	-0.833859	-0.732723	-0.151076	-0.332687	-0.509033	-0.679145	-0.313825	-0.095814	-0.399298	-0.580394	-0.219684	-0.0917395	-0.573622	-0.309526	
3.77045	0	0	-0.198917	0.0444335	-0.301226	-0.214193	-0.218445	-0.0915515	-0.291651	-0.102723	-0.220952	-0.121999	-0.253399	-0.070745	-0.24409	-0.17848	-0.550386	-0.323579	-0.096399	-0.375503	-0.83258	-0.73634	-0.151076	-0.332687	-0.518014	-0.673277	-0.311817	-0.101488	-0.399644	-0.594942	-0.224002	-0.0972652	-0.561747	-0.324657	
3.77045	0	0	-0.205902	0.040279	-0.31202	-0.218052	-0.215089	-0.101037	-0.294339	-0.108755	-0.214117	-0.13033	-0.260606	-0.066036	-0.243115	-0.181235	-0.548948	-0.327643	-0.096399	-0.375503	-0.8313	-0.739956	-0.151076	-0.332687	-0.526995	-0.667408	-0.309809	-0.107162	-0.399991	-0.60949	-0.22832	-0.102791	-0.549871	-0.339787	
3.76739	0	0	-0.199893	0.0232955	-0.322335	-0.240327	-0.211736	-0.110512	-0.295834	-0.118149	-0.216507	-0.134562	-0.25623	-0.0784025	-0.239219	-0.192247	-0.548216	-0.343722	-0.0935672	-0.383507	-0.833625	-0.746771	-0.153322	-0.337101	-0.534046	-0.666973	-0.316082	-0.103063	-0.404416	-0.612499	-0.2296	-0.099173	-0.554966	-0.343821	
3.76739	0	0	-0.193883	0.006312	-0.332651	-0.262602	-0.208383	-0.119988	-0.29733	-0.127544	-0.218896	-0.138793	-0.251854	-0.090769	-0.235322	-0.203259	-0.547484	-0.359801	-0.0907355	-0.39151	-0.83595	-0.753586	-0.155568	-0.341516	-0.541098	-0.666538	-0.322356	-0.0989635	-0.408841	-0.615509	-0.23088	-0.095555	-0.560061	-0.347855	
3.76434	0	0	-0.187873	-0.0106715	-0.342967	-0.284877	-0.20503	-0.129464	-0.298825	-0.136938	-0.221286	-0.143024	-0.247479	-0.103135	-0.231426	-0.21427	-0.546751	-0.37588	-0.0879038	-0.399514	-0.838275	-0.7604	-0.157815	-0.345931	-0.548149	-0.666103	-0.32863	-0.0948642	-0.413266	-0.618518	-0.232161	-0.091937	-0.565155	-0.351888	
3.76282	0	0	-0.181864	-0.027655	-0.353282	-0.307152	-0.201677	-0.138939	-0.30032	-0.146332	-0.223676	-0.147256	-0.243103	-0.115502	-0.22753	-0.225282	-0.546019	-0.391959	-0.085072	-0.407518	-0.8406	-0.767215	-0.160061	-0.350345	-0.5552	-0.665668	-0.334903	-0.090765	-0.417691	-0.621528	-0.233441	-0.088319	-0.57025	-0.355922	
3.75824	0	0	-0.188847	-0.031783	-0.341643	-0.340046	-0.207987	-0.142093	-0.300627	-0.159073	-0.226065	-0.151483	-0.245934	-0.123146	-0.224611	-0.233532	-0.54673	-0.40395	-0.088505	-0.409374	-0.836769	-0.778042	-0.162307	-0.354755	-0.554578	-0.686899	-0.330892	-0.102102	-0.428237	-0.63819	-0.236476	-0.0974545	-0.582115	-0.359199	
3.75519	0	0	-0.195831	-0.035911	-0.330004	-0.372939	-0.214297	-0.145247	-0.300935	-0.171814	-0.228454	-0.155711	-0.248766	-0.13079	-0.221691	-0.241782	-0.54744	-0.41594	-0.091938	-0.41123	-0.832938	-0.78887	-0.164553	-0.359165	-0.553956	-0.70813	-0.32688	-0.113439	-0.438783	-0.654853	-0.239511	-0.10659	-0.593981	-0.362475	
3.75366	0	0	-0.202814	-0.040039	-0.318365	-0.405832	-0.220607	-0.1484	-0.301242	-0.184555	-0.230843	-0.159938	-0.251597	-0.138434	-0.218772	-0.250032	-0.54815	-0.427931	-0.095371	-0.413085	-0.829107	-0.799697	-0.166799	-0.363575	-0.553334	-0.72936	-0.322869	-0.124776	-0.449329	-0.671515	-0.242547	-0.115725	-0.605846	-0.365752	
3.75366	0	0	-0.209797	-0.044167	-0.306726	-0.438726	-0.226917	-0.151554	-0.30155	-0.197296	-0.233232	-0.164165	-0.254428	-0.146078	-0.215853	-0.258282	-0.548861	-0.439922	-0.098804	-0.414941	-0.825276	-0.810524	-0.169045	-0.367985	-0.552712	-0.750591	-0.318857	-0.136113	-0.459875	-0.688177	-0.245582	-0.124861	-0.617711	-0.369028	
3.75061	0	0	-0.209797	-0.044167	-0.314601	-0.43358	-0.225244	-0.156283	-0.299171	-0.204021	-0.231457	-0.169181	-0.252973	-0.150191	-0.220052	-0.257651	-0.545999	-0.448011	-0.0969185	-0.42027	-0.827606	-0.817316	-0.17039	-0.374935	-0.554018	-0.766352	-0.32112	-0.143339	-0.4633	-0.709412	-0.241749	-0.135692	-0.619414	-0.382594	
3.74603	0	0	-0.209797	-0.044167	-0.322477	-0.428434	-0.223571	-0.161012	-0.296791	-0.210746	-0.229683	-0.174197	-0.251518	-0.154304	-0.224252	-0.25702	-0.543137	-0.456101	-0.095033	-0.425598	-0.829935	-0.824107	-0.171735	-0.381885	-0.555324	-0.782112	-0.323382	-0.150566	-0.466724	-0.730647	-0.237917	-0.146524	-0.621116	-0.396159	
3.74298	0	0	-0.209797	-0.044167	-0.330352	-0.423288	-0.221897	-0.165741	-0.294411	-0.217471	-0.227908	-0.179212	-0.250062	-0.158416	-0.228452	-0.256389	-0.540274	-0.46419	-0.0931475	-0.430926	-0.832265	-0.830898	-0.173079	-0.388835	-0.556631	-0.797872	-0.325645	-0.157792	-0.470149	-0.751882	-0.234084	-0.157356	-0.622818	-0.409725	
3.7384	0	0	-0.209797	-0.044167	-0.338228	-0.418142	-0.220224	-0.17047	-0.292032	-0.224196	-0.226133	-0.184228	-0.248607	-0.162529	-0.232651	-0.255758	-0.537412	-0.472279	-0.091262	-0.436255	-0.834595	-0.83769	-0.174424	-0.395785	-0.557937	-0.813633	-0.327907	-0.165018	-0.473574	-0.773117	-0.230251	-0.168187	-0.624521	-0.423291	
3.73688	0	0	-0.207799	-0.0498137	-0.341549	-0.408756	-0.208893	-0.181508	-0.297102	-0.223466	-0.221967	-0.185022	-0.250062	-0.158416	-0.228452	-0.256389	-0.533831	-0.4684	-0.091262	-0.436255	-0.828439	-0.841713	-0.170376	-0.396473	-0.552805	-0.808684	-0.325906	-0.170674	-0.470879	-0.780734	-0.227698	-0.175401	-0.622834	-0.428058	
3.73535	0	0	-0.2058	-0.0554605	-0.34487	-0.399371	-0.197561	-0.192546	-0.302173	-0.222737	-0.217801	-0.185816	-0.251518	-0.154304	-0.224252	-0.25702	-0.53025	-0.464521	-0.091262	-0.436255	-0.822283	-0.845735	-0.166329	-0.397162	-0.547673	-0.803736	-0.323905	-0.17633	-0.468184	-0.78835	-0.225146	-0.182615	-0.621148	-0.432824	
3.73077	0	0	-0.203802	-0.0611072	-0.348191	-0.389985	-0.186229	-0.203584	-0.307244	-0.222007	-0.213636	-0.186611	-0.252973	-0.150191	-0.220052	-0.257651	-0.52667	-0.460641	-0.091262	-0.436255	-0.816126	-0.849757	-0.162282	-0.39785	-0.542541	-0.798787	-0.321903	-0.181985	-0.465489	-0.795967	-0.222593	-0.189828	-0.619461	-0.437591	
3.73077	0	0	-0.201804	-0.066754	-0.351512	-0.380599	-0.174898	-0.214622	-0.312314	-0.221277	-0.20947	-0.187405	-0.254428	-0.146078	-0.215853	-0.258282	-0.523089	-0.456762	-0.091262	-0.436255	-0.80997	-0.85378	-0.158234	-0.398539	-0.537409	-0.793838	-0.319902	-0.187641	-0.462794	-0.803584	-0.220041	-0.197042	-0.617775	-0.442358	
3.72925	0	0	-0.199807	-0.0723975	-0.352741	-0.39422	-0.181215	-0.217756	-0.309937	-0.227994	-0.208583	-0.189912	-0.254428	-0.146078	-0.214881	-0.26103	-0.521657	-0.460807	-0.0965783	-0.432781	-0.80997	-0.85378	-0.159135	-0.395993	-0.534187	-0.783472	-0.327167	-0.180721	-0.458378	-0.800614	-0.221317	-0.193436	-0.611003	-0.443118	
3.72162	0	0	-0.197811	-0.078041	-0.353971	-0.40784	-0.187532	-0.22089	-0.30756	-0.234712	-0.207695	-0.19242	-0.254428	-0.146078	-0.213908	-0.263779	-0.520226	-0.464853	-0.101894	-0.429308	-0.80997	-0.85378	-0.160035	-0.393448	-0.530965	-0.773105	-0.334431	-0.1738	-0.453962	-0.797643	-0.222593	-0.18983	-0.604232	-0.443878	
3.72009	0	0	-0.195814	-0.0836845	-0.355201	-0.421461	-0.193849	-0.224023	-0.305183	-0.241429	-0.206808	-0.194928	-0.254428	-0.146078	-0.212935	-0.266527	-0.518795	-0.468898	-0.107211	-0.425834	-0.80997	-0.85378	-0.160936	-0.390902	-0.527743	-0.762738	-0.341695	-0.166879	-0.449546	-0.794673	-0.223869	-0.186224	-0.59746	-0.444638	
3.72009	0	0	-0.193817	-0.089328	-0.35643	-0.435081	-0.200166	-0.227157	-0.302806	-0.248146	-0.205921	-0.197435	-0.254428	-0.146078	-0.211963	-0.269275	-0.517363	-0.472944	-0.112527	-0.42236	-0.80997	-0.85378	-0.161836	-0.388357	-0.524521	-0.752372	-0.34896	-0.159959	-0.44513	-0.791703	-0.225145	-0.182618	-0.590688	-0.445398	
3.71704	0	0	-0.200796	-0.0934365	-0.349805	-0.453803	-0.198496	-0.231876	-0.306686	-0.250771	-0.204147	-0.202448	-0.251518	-0.154302	-0.210991	-0.272023	-0.513073	-0.48507	-0.112527	-0.42236	-0.803809	-0.857805	-0.161836	-0.388357	-0.529655	-0.757334	-0.34896	-0.159959	-0.459346	-0.782414	-0.234567	-0.173688	-0.592375	-0.440629	
3.71551	0	0	-0.207776	-0.097545	-0.343181	-0.472526	-0.196827	-0.236595	-0.310566	-0.253396	-0.202373	-0.207461	-0.248609	-0.162525	-0.210019	-0.27477	-0.508782	-0.497196	-0.112527	-0.42236	-0.797649	-0.861831	-0.161836	-0.388357	-0.53479	-0.762297	-0.34896	-0.159959	-0.473562	-0.773124	-0.243988	-0.164759	-0.594063	-0.43586	
3.71399	0	0	-0.214755	-0.101653	-0.336557	-0.491248	-0.195157	-0.241314	-0.314446	-0.256021	-0.2006	-0.212474	-0.245699	-0.170748	-0.209047	-0.277517	-0.504491	-0.509321	-0.112527	-0.42236	-0.791489	-0.865857	-0.161836	-0.388357	-0.539924	-0.767259	-0.34896	-0.159959	-0.487779	-0.763835	-0.25341	-0.155829	-0.595751	-0.43109	
3.71094	0	0	-0.221735	-0.105762	-0.329932	-0.509971	-0.193487	-0.246033	-0.318326	-0.258646	-0.198826	-0.217487	-0.242789	-0.178972	-0.208075	-0.280265	-0.500201	-0.521447	-0.112527	-0.42236	-0.785328	-0.869882	-0.161836	-0.388357	-0.545058	-0.772221	-0.34896	-0.159959	-0.501995	-0.754546	-0.262831	-0.146899	-0.597438	-0.426321	
3.70941	0	0	-0.221735	-0.105762	-0.336139	-0.509509	-0.191818	-0.25075	-0.309698	-0.26944	-0.197939	-0.219992	-0.24853	-0.17838	-0.207103	-0.283012	-0.498772	-0.525485	-0.107211	-0.425834	-0.785328	-0.869882	-0.160035	-0.393447	-0.541235	-0.783027	-0.346959	-0.165613	-0.508109	-0.768103	-0.259003	-0.157718	-0.600836	-0.435094	
3.71094	0	0	-0.221735	-0.105762	-0.342346	-0.509046	-0.190149	-0.255466	-0.301069	-0.280235	-0.197053	-0.222498	-0.254271	-0.177787	-0.206131	-0.285759	-0.497343	-0.529524	-0.101894	-0.429308	-0.785328	-0.869882	-0.158234	-0.398537	-0.537412	-0.793832	-0.344959	-0.171267	-0.514224	-0.781659	-0.255175	-0.168536	-0.604235	-0.443868	
3.70788	0	0	-0.221735	-0.105762	-0.348553	-0.508584	-0.18848	-0.260182	-0.292441	-0.291029	-0.196167	-0.225003	-0.260011	-0.177195	-0.205159	-0.288505	-0.495915	-0.533562	-0.0965783	-0.432781	-0.785328	-0.869882	-0.156433	-0.403628	-0.533588	-0.804638	-0.342958	-0.176921	-0.520338	-0.795216	-0.251347	-0.179355	-0.607633	-0.452642	
3.70483	0	0	-0.221735	-0.105762	-0.35476	-0.508122	-0.186811	-0.264899	-0.283813	-0.301824	-0.19528	-0.227508	-0.265752	-0.176603	-0.204187	-0.291252	-0.494486	-0.5376	-0.091262	-0.436255	-0.785328	-0.869882	-0.154632	-0.408718	-0.529765	-0.815443	-0.340957	-0.182575	-0.526453	-0.808773	-0.247519	-0.190173	-0.611031	-0.461415	
3.70788	0	0	-0.221735	-0.105762	-0.350208	-0.503907	-0.18848	-0.260182	-0.290068	-0.297737	-0.196167	-0.225003	-0.260011	-0.177195	-0.199984	-0.291887	-0.489467	-0.537775	-0.0922045	-0.433591	-0.780438	-0.870307	-0.155532	-0.406173	-0.531676	-0.810042	-0.332694	-0.192319	-0.521079	-0.823961	-0.24497	-0.197378	-0.607662	-0.470936	
3.70483	0	0	-0.221735	-0.105762	-0.345656	-0.499692	-0.190149	-0.255466	-0.296323	-0.29365	-0.197053	-0.222498	-0.254271	-0.177787	-0.195781	-0.292521	-0.484448	-0.537949	-0.093147	-0.430927	-0.775548	-0.870732	-0.156433	-0.403629	-0.533587	-0.804641	-0.324431	-0.202062	-0.515705	-0.839149	-0.24242	-0.204583	-0.604294	-0.480457	
3.70178	0	0	-0.221735	-0.105762	-0.341103	-0.495478	-0.191818	-0.25075	-0.302578	-0.289562	-0.197939	-0.219992	-0.24853	-0.17838	-0.191578	-0.293156	-0.479429	-0.538124	-0.0940895	-0.428263	-0.770657	-0.871157	-0.157334	-0.401084	-0.535498	-0.799239	-0.316167	-0.211806	-0.510331	-0.854338	-0.23987	-0.211788	-0.600925	-0.489978	
3.70026	0	0	-0.221735	-0.105762	-0.336551	-0.491263	-0.193487	-0.246033	-0.308833	-0.285475	-0.198826	-0.217487	-0.242789	-0.178972	-0.187375	-0.293791	-0.47441	-0.538299	-0.095032	-0.425599	-0.765767	-0.871582	-0.158234	-0.398539	-0.537409	-0.793838	-0.307904	-0.22155	-0.504957	-0.869526	-0.237321	-0.218993	-0.597556	-0.499499	
3.70026	0	0	-0.221735	-0.105762	-0.35104	-0.467394	-0.193487	-0.246033	-0.308833	-0.285475	-0.195544	-0.215778	-0.238498	-0.175454	-0.18932	-0.288295	-0.472248	-0.53039	-0.0978615	-0.417603	-0.762149	-0.868402	-0.160937	-0.3909	-0.520067	-0.784371	-0.308903	-0.218725	-0.498829	-0.856008	-0.233001	-0.213505	-0.594152	-0.490741	
3.70331	0	0	-0.221735	-0.105762	-0.36553	-0.443526	-0.193487	-0.246033	-0.308833	-0.285475	-0.192262	-0.214068	-0.234207	-0.171935	-0.191264	-0.282799	-0.470085	-0.52248	-0.100691	-0.409606	-0.758531	-0.865223	-0.163639	-0.383262	-0.502725	-0.774903	-0.309903	-0.2159	-0.4927	-0.84249	-0.228681	-0.208017	-0.590749	-0.481982	
3.70026	0	0	-0.221735	-0.105762	-0.380019	-0.419657	-0.193487	-0.246033	-0.308833	-0.285475	-0.188979	-0.212359	-0.229916	-0.168417	-0.193209	-0.277304	-0.467923	-0.514571	-0.103521	-0.40161	-0.754914	-0.862043	-0.166342	-0.375623	-0.485382	-0.765436	-0.310903	-0.213075	-0.486572	-0.828972	-0.224361	-0.20253	-0.587345	-0.473224	
3.70178	0	0	-0.221735	-0.105762	-0.394508	-0.395788	-0.193487	-0.246033	-0.308833	-0.285475	-0.185697	-0.21065	-0.225625	-0.164899	-0.195153	-0.271808	-0.465761	-0.506662	-0.10635	-0.393614	-0.751296	-0.858864	-0.169045	-0.367985	-0.46804	-0.755969	-0.311902	-0.21025	-0.480444	-0.815454	-0.220041	-0.197042	-0.583941	-0.464465	
3.70331	0	0	-0.219742	-0.111394	-0.383331	-0.410295	-0.191818	-0.25075	-0.313898	-0.284743	-0.18481	-0.213157	-0.232826	-0.160194	-0.195153	-0.271808	-0.467193	-0.502617	-0.107294	-0.390947	-0.750231	-0.848459	-0.167701	-0.361025	-0.475719	-0.734266	-0.310636	-0.200209	-0.472598	-0.791278	-0.225148	-0.182609	-0.575442	-0.451676	
3.70178	0	0	-0.217749	-0.117027	-0.372154	-0.424803	-0.190149	-0.255466	-0.318962	-0.28401	-0.183923	-0.215664	-0.240026	-0.155489	-0.195153	-0.271808	-0.468624	-0.498571	-0.108238	-0.38828	-0.749166	-0.838054	-0.166357	-0.354066	-0.483399	-0.712564	-0.309369	-0.190167	-0.464751	-0.767101	-0.230256	-0.168175	-0.566943	-0.438887	
3.70178	0	0	-0.215755	-0.122659	-0.360977	-0.43931	-0.18848	-0.260182	-0.324026	-0.283277	-0.183036	-0.21817	-0.247227	-0.150783	-0.195153	-0.271808	-0.470055	-0.494526	-0.109181	-0.385613	-0.748101	-0.827649	-0.165014	-0.347106	-0.491078	-0.690862	-0.308103	-0.180126	-0.456904	-0.742924	-0.235363	-0.153742	-0.558444	-0.426097	
3.70483	0	0	-0.213762	-0.128292	-0.3498	-0.453818	-0.186811	-0.264899	-0.329091	-0.282545	-0.182149	-0.220677	-0.254428	-0.146078	-0.195153	-0.271808	-0.471487	-0.49048	-0.110125	-0.382946	-0.747036	-0.817244	-0.16367	-0.340146	-0.498757	-0.669159	-0.306836	-0.170085	-0.449058	-0.718748	-0.24047	-0.139309	-0.549945	-0.413308	
3.70483	0	0	-0.204786	-0.129827	-0.351457	-0.449134	-0.178821	-0.266494	-0.317771	-0.287365	-0.183036	-0.21817	-0.247227	-0.150783	-0.190947	-0.272442	-0.461432	-0.490826	-0.107638	-0.378416	-0.739792	-0.810859	-0.161424	-0.335729	-0.493613	-0.664162	-0.307837	-0.167255	-0.451762	-0.711105	-0.234874	-0.137411	-0.553328	-0.403746	
3.70483	0	0	-0.19581	-0.131362	-0.353115	-0.444449	-0.170831	-0.268089	-0.306452	-0.292184	-0.183923	-0.215664	-0.240026	-0.155489	-0.186742	-0.273077	-0.451376	-0.491171	-0.105152	-0.373886	-0.732549	-0.804474	-0.159179	-0.331313	-0.488469	-0.659166	-0.308839	-0.164425	-0.454466	-0.703463	-0.229278	-0.135512	-0.556712	-0.394184	
3.70483	0	0	-0.186834	-0.132897	-0.354773	-0.439765	-0.162841	-0.269684	-0.295133	-0.297004	-0.18481	-0.213157	-0.232826	-0.160194	-0.182536	-0.273711	-0.441321	-0.491517	-0.102665	-0.369356	-0.725305	-0.798088	-0.156934	-0.326896	-0.483325	-0.654169	-0.309841	-0.161595	-0.457171	-0.69582	-0.223682	-0.133614	-0.560095	-0.384623	
3.70636	0	0	-0.177858	-0.134432	-0.35643	-0.435081	-0.154851	-0.271279	-0.283813	-0.301824	-0.185697	-0.21065	-0.225625	-0.164899	-0.178331	-0.274346	-0.431266	-0.491862	-0.100178	-0.364826	-0.718061	-0.791703	-0.154688	-0.322479	-0.478181	-0.649173	-0.310842	-0.158765	-0.459875	-0.688177	-0.218086	-0.131716	-0.563478	-0.375061	
3.70788	0	0	-0.170864	-0.130333	-0.338205	-0.418111	-0.148521	-0.268157	-0.281114	-0.295851	-0.182413	-0.20894	-0.227081	-0.160784	-0.181251	-0.266093	-0.4255	-0.480043	-0.098636	-0.357618	-0.719565	-0.774008	-0.15425	-0.312947	-0.47496	-0.638722	-0.312846	-0.153102	-0.451039	-0.682184	-0.218086	-0.131716	-0.558382	-0.371032	
3.70178	0	0	-0.163871	-0.126233	-0.31998	-0.401142	-0.142191	-0.265035	-0.278415	-0.289879	-0.179128	-0.20723	-0.228536	-0.15667	-0.184171	-0.257841	-0.419735	-0.468225	-0.097094	-0.35041	-0.72107	-0.756313	-0.153812	-0.303415	-0.471739	-0.628272	-0.31485	-0.147439	-0.442202	-0.676192	-0.218086	-0.131716	-0.553285	-0.367003	
3.70026	0	0	-0.156878	-0.122134	-0.301755	-0.384173	-0.135862	-0.261914	-0.275716	-0.283907	-0.175844	-0.205519	-0.229992	-0.152555	-0.187092	-0.249588	-0.413969	-0.456406	-0.095552	-0.343203	-0.722575	-0.738618	-0.153375	-0.293883	-0.468517	-0.617822	-0.316853	-0.141776	-0.433366	-0.670199	-0.218086	-0.131716	-0.548188	-0.362975	
3.70026	0	0	-0.149884	-0.118035	-0.28353	-0.367203	-0.129532	-0.258792	-0.273017	-0.277934	-0.17256	-0.203809	-0.231448	-0.148441	-0.190012	-0.241336	-0.408203	-0.444587	-0.09401	-0.335995	-0.724079	-0.720923	-0.152937	-0.284351	-0.465296	-0.607371	-0.318857	-0.136113	-0.42453	-0.664206	-0.218086	-0.131716	-0.543092	-0.358946	
3.70331	0	0	-0.153879	-0.106745	-0.290652	-0.329915	-0.132876	-0.249342	-0.271506	-0.268593	-0.171939	-0.194565	-0.224318	-0.137262	-0.184519	-0.234338	-0.405314	-0.424594	-0.0953115	-0.320744	-0.715775	-0.704003	-0.149352	-0.272924	-0.469811	-0.575035	-0.315592	-0.131711	-0.422474	-0.639001	-0.221925	-0.120867	-0.534583	-0.346074	
3.70026	0	0	-0.157874	-0.0954545	-0.297775	-0.292627	-0.13622	-0.239891	-0.269996	-0.259251	-0.171318	-0.185321	-0.217188	-0.126082	-0.179026	-0.22734	-0.402425	-0.404601	-0.096613	-0.305494	-0.707471	-0.687083	-0.145767	-0.261497	-0.474327	-0.542698	-0.312327	-0.127308	-0.420417	-0.613796	-0.225764	-0.110017	-0.526075	-0.333202	
3.70026	0	0	-0.161869	-0.0841642	-0.304898	-0.25534	-0.139564	-0.23044	-0.268486	-0.24991	-0.170698	-0.176077	-0.210058	-0.114903	-0.173533	-0.220342	-0.399537	-0.384608	-0.0979145	-0.290243	-0.699167	-0.670163	-0.142183	-0.250071	-0.478843	-0.510362	-0.309061	-0.122906	-0.418361	-0.588591	-0.229602	-0.0991682	-0.517566	-0.320331	
3.69415	0	0	-0.165864	-0.072874	-0.31202	-0.218052	-0.142908	-0.22099	-0.266975	-0.240568	-0.170077	-0.166833	-0.202928	-0.103724	-0.16804	-0.213344	-0.396648	-0.364615	-0.099216	-0.274993	-0.690863	-0.653243	-0.138598	-0.238644	-0.483358	-0.478025	-0.305796	-0.118504	-0.416304	-0.563386	-0.233441	-0.088319	-0.509057	-0.307459	
3.69568	0	0	-0.174849	-0.071344	-0.31202	-0.218052	-0.154251	-0.209943	-0.268165	-0.237206	-0.170966	-0.164321	-0.201469	-0.107848	-0.169015	-0.210587	-0.393044	-0.360705	-0.09768	-0.267754	-0.692393	-0.635436	-0.139075	-0.226509	-0.485978	-0.451025	-0.305543	-0.105579	-0.409845	-0.535018	-0.231689	-0.0755403	-0.493715	-0.2953	
3.69568	0	0	-0.183834	-0.069814	-0.31202	-0.218052	-0.165595	-0.198895	-0.269354	-0.233845	-0.171855	-0.161808	-0.20001	-0.111972	-0.169991	-0.207831	-0.38944	-0.356796	-0.096144	-0.260516	-0.693924	-0.617629	-0.139551	-0.214373	-0.488598	-0.424025	-0.30529	-0.0926545	-0.403386	-0.506651	-0.229937	-0.0627615	-0.478374	-0.283141	
3.6911	0	0	-0.192819	-0.068284	-0.31202	-0.218052	-0.176938	-0.187848	-0.270543	-0.230483	-0.172744	-0.159296	-0.19855	-0.116096	-0.170967	-0.205074	-0.385837	-0.352886	-0.094608	-0.253277	-0.695454	-0.599821	-0.140028	-0.202237	-0.491218	-0.397024	-0.305037	-0.0797298	-0.396927	-0.478283	-0.228185	-0.0499827	-0.463033	-0.270981	
3.69263	0	0	-0.201804	-0.066754	-0.31202	-0.218052	-0.188281	-0.1768	-0.271733	-0.227121	-0.173633	-0.156783	-0.197091	-0.12022	-0.171942	-0.202317	-0.382233	-0.348976	-0.093072	-0.246038	-0.696985	-0.582014	-0.140505	-0.190102	-0.493838	-0.370024	-0.304784	-0.066805	-0.390468	-0.449915	-0.226433	-0.037204	-0.447691	-0.258822	
3.6911	0	0	-0.203802	-0.0611072	-0.304115	-0.223217	-0.189955	-0.172069	-0.275305	-0.217028	-0.169457	-0.157579	-0.197091	-0.12022	-0.168706	-0.20019	-0.380071	-0.340981	-0.0959202	-0.237989	-0.692316	-0.568217	-0.14323	-0.182402	-0.493838	-0.370024	-0.304784	-0.066805	-0.389101	-0.453777	-0.232028	-0.0391205	-0.449396	-0.254004	
3.68957	0	0	-0.2058	-0.0554605	-0.296211	-0.228382	-0.191629	-0.167338	-0.278876	-0.206935	-0.165281	-0.158376	-0.197091	-0.12022	-0.165471	-0.198064	-0.377909	-0.332987	-0.0987685	-0.22994	-0.687647	-0.554419	-0.145954	-0.174702	-0.493838	-0.370024	-0.304784	-0.066805	-0.387735	-0.457639	-0.237624	-0.041037	-0.451101	-0.249186	
3.68347	0	0	-0.207799	-0.0498137	-0.288306	-0.233547	-0.193303	-0.162606	-0.282448	-0.196842	-0.161106	-0.159172	-0.197091	-0.12022	-0.162235	-0.195938	-0.375747	-0.324993	-0.101617	-0.221891	-0.682977	-0.540621	-0.148678	-0.167003	-0.493838	-0.370024	-0.304784	-0.066805	-0.386369	-0.4615	-0.24322	-0.0429535	-0.452806	-0.244368	
3.68347	0	0	-0.209797	-0.044167	-0.280401	-0.238712	-0.194977	-0.157875	-0.286019	-0.186749	-0.15693	-0.159968	-0.197091	-0.12022	-0.158999	-0.193811	-0.373585	-0.316998	-0.104465	-0.213842	-0.678308	-0.526824	-0.151403	-0.159303	-0.493838	-0.370024	-0.304784	-0.066805	-0.385002	-0.465362	-0.248815	-0.04487	-0.454511	-0.23955	
3.685	0	0	-0.215799	-0.0272047	-0.277981	-0.211155	-0.190335	-0.149984	-0.278245	-0.181469	-0.154531	-0.155736	-0.188488	-0.11315	-0.157716	-0.18616	-0.367816	-0.30506	-0.103885	-0.203895	-0.68116	-0.505251	-0.150981	-0.149701	-0.483555	-0.359832	-0.305789	-0.063964	-0.381939	-0.458453	-0.233769	-0.0519158	-0.449389	-0.235482	
3.68042	0	0	-0.221801	-0.0102425	-0.275562	-0.183597	-0.185693	-0.142093	-0.270471	-0.176189	-0.152133	-0.151504	-0.179885	-0.106081	-0.156432	-0.178509	-0.362047	-0.293122	-0.103304	-0.193948	-0.684013	-0.483678	-0.150559	-0.140099	-0.473272	-0.349641	-0.306794	-0.061123	-0.378875	-0.451543	-0.218722	-0.0589615	-0.444268	-0.231414	
3.67737	0	0	-0.227802	0.00671975	-0.273142	-0.156039	-0.181051	-0.134202	-0.262697	-0.17091	-0.149734	-0.147271	-0.171282	-0.0990115	-0.155148	-0.170859	-0.356278	-0.281184	-0.102724	-0.184001	-0.686865	-0.462105	-0.150137	-0.130498	-0.462989	-0.339449	-0.3078	-0.058282	-0.375812	-0.444634	-0.203676	-0.0660073	-0.439146	-0.227346	
3.67584	0	0	-0.233804	0.023682	-0.270722	-0.128482	-0.176409	-0.126311	-0.254923	-0.16563	-0.147336	-0.143039	-0.162679	-0.091942	-0.153865	-0.163208	-0.350509	-0.269246	-0.102144	-0.174054	-0.689717	-0.440532	-0.149715	-0.120896	-0.452706	-0.329257	-0.308805	-0.055441	-0.372748	-0.437725	-0.18863	-0.073053	-0.434025	-0.223278	
3.67584	0	0	-0.222821	0.0165052	-0.272891	-0.105129	-0.178087	-0.121569	-0.245943	-0.163718	-0.150898	-0.132971	-0.168531	-0.075404	-0.152583	-0.155546	-0.34764	-0.249069	-0.102521	-0.161396	-0.686364	-0.422958	-0.146146	-0.109376	-0.450226	-0.29693	-0.30554	-0.0510178	-0.366302	-0.409165	-0.19248	-0.0621733	-0.425479	-0.210291	
3.67126	0	0	-0.211838	0.0093285	-0.275061	-0.081776	-0.179764	-0.116828	-0.236963	-0.161805	-0.154461	-0.122902	-0.174382	-0.058866	-0.151302	-0.147884	-0.344771	-0.228893	-0.102897	-0.148738	-0.68301	-0.405384	-0.142576	-0.097856	-0.447746	-0.264604	-0.302275	-0.0465945	-0.359855	-0.380605	-0.196329	-0.0512935	-0.416932	-0.197304	
3.66974	0	0	-0.200854	0.00215175	-0.27723	-0.058423	-0.181442	-0.112087	-0.227984	-0.159892	-0.158024	-0.112834	-0.180234	-0.042328	-0.15002	-0.140221	-0.341902	-0.208716	-0.103274	-0.136081	-0.679656	-0.387809	-0.139007	-0.086336	-0.445265	-0.232277	-0.29901	-0.0421712	-0.353409	-0.352045	-0.200179	-0.0404138	-0.408386	-0.184317	
3.66669	0	0	-0.189871	-0.005025	-0.279399	-0.03507	-0.183119	-0.107345	-0.219004	-0.15798	-0.161586	-0.102766	-0.186086	-0.02579	-0.148738	-0.132559	-0.339033	-0.18854	-0.10365	-0.123423	-0.676303	-0.370235	-0.135438	-0.074816	-0.442785	-0.199951	-0.295745	-0.037748	-0.346963	-0.323485	-0.204029	-0.029534	-0.39984	-0.17133	
3.66974	0	0	-0.191874	0.00063625	-0.277714	-0.0398317	-0.175117	-0.108927	-0.221393	-0.151227	-0.157406	-0.10356	-0.184622	-0.0299273	-0.15589	-0.123632	-0.341938	-0.180328	-0.10651	-0.11534	-0.675281	-0.359582	-0.143148	-0.0638327	-0.446703	-0.188878	-0.294494	-0.0276242	-0.343595	-0.301753	-0.20228	-0.0167135	-0.399851	-0.152701	
3.66211	0	0	-0.193878	0.0062975	-0.27603	-0.0445935	-0.167114	-0.110508	-0.223783	-0.144475	-0.153226	-0.104355	-0.183158	-0.0340645	-0.163041	-0.114705	-0.344844	-0.172116	-0.10937	-0.107257	-0.674258	-0.34893	-0.150859	-0.0528495	-0.450621	-0.177804	-0.293242	-0.0175005	-0.340227	-0.280021	-0.200531	-0.003893	-0.399862	-0.134073	
3.66516	0	0	-0.195881	0.0119587	-0.274345	-0.0493552	-0.159112	-0.11209	-0.226172	-0.137722	-0.149047	-0.105149	-0.181694	-0.0382017	-0.170192	-0.105778	-0.347749	-0.163904	-0.11223	-0.0991733	-0.673236	-0.338278	-0.158569	-0.0418663	-0.454539	-0.166731	-0.291991	-0.00737675	-0.336859	-0.258288	-0.198781	0.0089275	-0.399873	-0.115444	
3.66058	0	0	-0.197884	0.01762	-0.27266	-0.054117	-0.15111	-0.113672	-0.228562	-0.130969	-0.144867	-0.105944	-0.18023	-0.042339	-0.177344	-0.096851	-0.350655	-0.155692	-0.11509	-0.09109	-0.672214	-0.327625	-0.166279	-0.030883	-0.458457	-0.155658	-0.29074	0.002747	-0.333491	-0.236556	-0.197032	0.021748	-0.399884	-0.096815	
3.66058	0	0	-0.199888	0.0232847	-0.268097	-0.0497753	-0.152789	-0.108925	-0.232149	-0.12083	-0.145759	-0.103425	-0.172999	-0.047064	-0.174109	-0.094708	-0.341981	-0.151879	-0.112613	-0.0864885	-0.672502	-0.31326	-0.15998	-0.0270635	-0.453314	-0.150496	-0.29074	0.002747	-0.333491	-0.236556	-0.195746	0.0181125	-0.401601	-0.0919627	
3.66058	0	0	-0.201893	0.0289495	-0.263533	-0.0454335	-0.154469	-0.104179	-0.235736	-0.110691	-0.14665	-0.100905	-0.165768	-0.051789	-0.170874	-0.092565	-0.333307	-0.148066	-0.110136	-0.081887	-0.672791	-0.298895	-0.153682	-0.023244	-0.44817	-0.145333	-0.29074	0.002747	-0.333491	-0.236556	-0.194459	0.014477	-0.403317	-0.0871105	
3.65753	0	0	-0.203898	0.0346142	-0.25897	-0.0410917	-0.156148	-0.0994325	-0.239324	-0.100553	-0.147541	-0.0983855	-0.158537	-0.056514	-0.16764	-0.090422	-0.324632	-0.144253	-0.10766	-0.0772855	-0.673079	-0.28453	-0.147384	-0.0194245	-0.443026	-0.14017	-0.29074	0.002747	-0.333491	-0.236556	-0.193172	0.0108415	-0.405034	-0.0822583	
3.656	0	0	-0.205902	0.040279	-0.254407	-0.03675	-0.157828	-0.094686	-0.242911	-0.090414	-0.148433	-0.095866	-0.151306	-0.061239	-0.164405	-0.088279	-0.315958	-0.14044	-0.105183	-0.072684	-0.673367	-0.270165	-0.141085	-0.015605	-0.437883	-0.135008	-0.29074	0.002747	-0.333491	-0.236556	-0.191886	0.007206	-0.406751	-0.077406	
3.65448	0	0	-0.200926	0.0501093	-0.242387	-0.01891	-0.15318	-0.0867643	-0.235122	-0.0850967	-0.146928	-0.089096	-0.149929	-0.0494067	-0.16313	-0.0805913	-0.315259	-0.128235	-0.109004	-0.0618853	-0.668727	-0.256146	-0.140676	-0.0059405	-0.427582	-0.12466	-0.291748	0.00559625	-0.32905	-0.233461	-0.191886	0.007206	-0.398183	-0.0830045	
3.65295	0	0	-0.195949	0.0599395	-0.230368	-0.00107	-0.148532	-0.0788425	-0.227333	-0.0797795	-0.145423	-0.082326	-0.148552	-0.0375745	-0.161855	-0.0729035	-0.314561	-0.11603	-0.112825	-0.0510865	-0.664087	-0.242126	-0.140267	0.003724	-0.41728	-0.114312	-0.292756	0.0084455	-0.324609	-0.230367	-0.191886	0.007206	-0.389615	-0.088603	
3.6499	0	0	-0.190972	0.0697698	-0.218348	0.01677	-0.143884	-0.0709208	-0.219544	-0.0744622	-0.143917	-0.075556	-0.147174	-0.0257423	-0.160579	-0.0652158	-0.313862	-0.103825	-0.116647	-0.0402877	-0.659448	-0.228107	-0.139859	0.0133885	-0.406979	-0.103964	-0.293765	0.0112947	-0.320168	-0.227272	-0.191886	0.007206	-0.381047	-0.0942015	
3.65143	0	0	-0.185996	0.0796	-0.206328	0.03461	-0.139236	-0.062999	-0.211755	-0.069145	-0.142412	-0.068786	-0.145797	-0.01391	-0.159304	-0.057528	-0.313163	-0.09162	-0.120468	-0.029489	-0.654808	-0.214088	-0.13945	0.023053	-0.396678	-0.093616	-0.294773	0.014144	-0.315727	-0.224178	-0.191886	0.007206	-0.372479	-0.0998	
3.6499	0	0	-0.185996	0.0796	-0.212592	0.0350265	-0.140919	-0.0582422	-0.212953	-0.0657578	-0.139121	-0.0670565	-0.147264	-0.009765	-0.157049	-0.0526043	-0.319001	-0.0751202	-0.119908	-0.019463	-0.660051	-0.199271	-0.139045	0.0327347	-0.401386	-0.0605488	-0.290498	0.0157338	-0.310986	-0.206248	-0.194459	0.0144785	-0.362194	-0.0915788	
3.64685	0	0	-0.185996	0.0796	-0.218856	0.035443	-0.142602	-0.0534855	-0.214152	-0.0623705	-0.135829	-0.065327	-0.14873	-0.00562	-0.154793	-0.0476805	-0.32484	-0.0586205	-0.119348	-0.009437	-0.665293	-0.184455	-0.13864	0.0424165	-0.406094	-0.0274815	-0.286224	0.0173235	-0.306245	-0.188317	-0.197032	0.021751	-0.351909	-0.0833575	
3.64532	0	0	-0.185996	0.0796	-0.225119	0.0358595	-0.144286	-0.0487288	-0.215351	-0.0589833	-0.132538	-0.0635975	-0.150197	-0.001475	-0.152537	-0.0427567	-0.330678	-0.0421207	-0.118788	0.000589	-0.670536	-0.169638	-0.138236	0.0520982	-0.410802	0.00558575	-0.28195	0.0189132	-0.301503	-0.170386	-0.199606	0.0290235	-0.341623	-0.0751363	
3.64532	0	0	-0.185996	0.0796	-0.231383	0.036276	-0.145969	-0.043972	-0.216549	-0.055596	-0.129247	-0.061868	-0.151664	0.00267	-0.150282	-0.037833	-0.336516	-0.025621	-0.118228	0.010615	-0.675779	-0.154822	-0.137831	0.06178	-0.41551	0.038653	-0.277675	0.020503	-0.296762	-0.152456	-0.202179	0.036296	-0.331338	-0.066915	
3.64532	0	0	-0.194985	0.0811102	-0.226312	0.021945	-0.134583	-0.0550687	-0.216549	-0.055596	-0.129247	-0.061868	-0.150197	-0.001475	-0.150282	-0.037833	-0.335055	-0.0297488	-0.119185	0.0133207	-0.67084	-0.155198	-0.137831	0.06178	-0.413534	0.0330698	-0.279693	0.0262078	-0.30536	-0.143829	-0.211643	0.0452768	-0.345091	-0.0467007	
3.64685	0	0	-0.203974	0.0826205	-0.221242	0.007614	-0.123197	-0.0661655	-0.216549	-0.055596	-0.129247	-0.061868	-0.14873	-0.00562	-0.150282	-0.037833	-0.333595	-0.0338765	-0.120142	0.0160265	-0.665902	-0.155575	-0.137831	0.06178	-0.411558	0.0274865	-0.281712	0.0319125	-0.313958	-0.135202	-0.221106	0.0542575	-0.358844	-0.0264865	
3.6438	0	0	-0.212963	0.0841308	-0.216171	-0.006717	-0.111811	-0.0772622	-0.216549	-0.055596	-0.129247	-0.061868	-0.147264	-0.009765	-0.150282	-0.037833	-0.332134	-0.0380043	-0.1211	0.0187322	-0.660964	-0.155951	-0.137831	0.06178	-0.409583	0.0219032	-0.28373	0.0376172	-0.322556	-0.126574	-0.230569	0.0632382	-0.372597	-0.00627225	
3.64075	0	0	-0.221952	0.085641	-0.2111	-0.021048	-0.100425	-0.088359	-0.216549	-0.055596	-0.129247	-0.061868	-0.145797	-0.01391	-0.150282	-0.037833	-0.330673	-0.042132	-0.122057	0.021438	-0.656025	-0.156327	-0.137831	0.06178	-0.407607	0.01632	-0.285749	0.043322	-0.331154	-0.117947	-0.240033	0.072219	-0.38635	0.013942	
3.64227	0	0	-0.214973	0.08981	-0.208215	-0.0119155	-0.103792	-0.0788432	-0.20635	-0.057049	-0.13014	-0.0593435	-0.147264	-0.009765	-0.151264	-0.0350575	-0.327064	-0.0381423	-0.123973	0.026852	-0.658651	-0.148906	-0.14373	0.0676252	-0.398502	0.0103705	-0.278443	0.036355	-0.334207	-0.124976	-0.221099	0.0542538	-0.384627	0.00907125	
3.63922	0	0	-0.207993	0.093979	-0.20533	-0.002783	-0.107159	-0.0693275	-0.196151	-0.058502	-0.131033	-0.056819	-0.14873	-0.00562	-0.152246	-0.032282	-0.323454	-0.0341525	-0.125889	0.032266	-0.661277	-0.141486	-0.149628	0.0734705	-0.389397	0.004421	-0.271137	0.029388	-0.33726	-0.132004	-0.202165	0.0362885	-0.382903	0.0042005	
3.63922	0	0	-0.201014	0.098148	-0.202445	0.0063495	-0.110526	-0.0598117	-0.185953	-0.059955	-0.131927	-0.0542945	-0.150197	-0.001475	-0.153228	-0.0295065	-0.319844	-0.0301627	-0.127804	0.03768	-0.663902	-0.134066	-0.155527	0.0793158	-0.380292	-0.0015285	-0.263832	0.022421	-0.340314	-0.139033	-0.183231	0.0183232	-0.38118	-0.00067025	
3.63617	0	0	-0.194034	0.102317	-0.19956	0.015482	-0.113893	-0.050296	-0.175754	-0.061408	-0.13282	-0.05177	-0.151664	0.00267	-0.15421	-0.026731	-0.316235	-0.026173	-0.12972	0.043094	-0.666528	-0.126645	-0.161426	0.085161	-0.371187	-0.007478	-0.256526	0.015454	-0.343367	-0.146062	-0.164297	0.000358	-0.379456	-0.005541	
3.64075	0	0	-0.20007	0.119376	-0.198887	0.0482018	-0.117264	-0.04077	-0.180556	-0.0478357	-0.130421	-0.0475115	-0.141575	0.005647	-0.152938	-0.0190198	-0.315551	-0.0139057	-0.132596	0.0512215	-0.664216	-0.11959	-0.155126	0.089014	-0.36482	0.0141568	-0.256526	0.015454	-0.327267	-0.144547	-0.165584	0.003995	-0.372594	-0.00628	
3.63922	0	0	-0.206107	0.136436	-0.198215	0.0809215	-0.120634	-0.031244	-0.185358	-0.0342635	-0.128023	-0.043253	-0.131487	0.008624	-0.151667	-0.0113085	-0.314866	-0.0016385	-0.135471	0.059349	-0.661903	-0.112535	-0.148826	0.092867	-0.358453	0.0357915	-0.256526	0.015454	-0.311168	-0.143033	-0.166871	0.007632	-0.365733	-0.007019	
3.63922	0	0	-0.212143	0.153495	-0.197542	0.113641	-0.124005	-0.021718	-0.190161	-0.0206913	-0.125625	-0.0389945	-0.121399	0.011601	-0.150395	-0.00359725	-0.314182	0.0106288	-0.138347	0.0674765	-0.65959	-0.105479	-0.142526	0.09672	-0.352085	0.0574262	-0.256526	0.015454	-0.295069	-0.141518	-0.168157	0.011269	-0.358871	-0.007758	
3.63769	0	0	-0.218179	0.170554	-0.19687	0.146361	-0.127376	-0.012192	-0.194963	-0.007119	-0.123226	-0.034736	-0.11131	0.014578	-0.149123	0.004114	-0.313497	0.022896	-0.141223	0.075604	-0.657278	-0.098424	-0.136226	0.100573	-0.345718	0.079061	-0.256526	0.015454	-0.278969	-0.140003	-0.169444	0.014906	-0.352009	-0.008497	
3.63617	0	0	-0.227163	0.17205	-0.199745	0.137169	-0.12569	-0.0169562	-0.193762	-0.010514	-0.123226	-0.034736	-0.121499	0.0276225	-0.149123	0.004114	-0.314962	0.0270353	-0.144101	0.0837388	-0.662543	-0.083546	-0.140817	0.113548	-0.348501	0.106772	-0.253254	0.0198977	-0.27423	-0.121988	-0.166405	0.0241162	-0.341716	-0.00022375	
3.63312	0	0	-0.236147	0.173546	-0.20262	0.127977	-0.124004	-0.0217205	-0.19256	-0.013909	-0.123226	-0.034736	-0.131688	0.040667	-0.149123	0.004114	-0.316426	0.0311745	-0.14698	0.0918735	-0.667807	-0.068668	-0.145408	0.126523	-0.351284	0.134483	-0.249982	0.0243415	-0.26949	-0.103973	-0.163367	0.0333265	-0.331423	0.0080495	
3.63159	0	0	-0.245131	0.175042	-0.205496	0.118785	-0.122319	-0.0264847	-0.191359	-0.017304	-0.123226	-0.034736	-0.141876	0.0537115	-0.149123	0.004114	-0.317891	0.0353138	-0.149859	0.100008	-0.673072	-0.05379	-0.149999	0.139498	-0.354067	0.162193	-0.246711	0.0287852	-0.26475	-0.0859588	-0.160328	0.0425367	-0.321129	0.0163227	
3.63159	0	0	-0.254115	0.176538	-0.208371	0.109593	-0.120633	-0.031249	-0.190158	-0.020699	-0.123226	-0.034736	-0.152065	0.066756	-0.149123	0.004114	-0.319356	0.039453	-0.152737	0.108143	-0.678336	-0.038912	-0.15459	0.152473	-0.35685	0.189904	-0.243439	0.033229	-0.260011	-0.067944	-0.157289	0.051747	-0.310836	0.024596	
3.63464	0	0	-0.256128	0.182228	-0.211247	0.100419	-0.122319	-0.0264848	-0.185054	-0.021424	-0.123226	-0.034736	-0.150595	0.0626012	-0.149123	0.004114	-0.324428	0.0395848	-0.154657	0.11357	-0.678336	-0.038912	-0.15459	0.152473	-0.354861	0.184282	-0.244449	0.0360845	-0.264463	-0.0710735	-0.165481	0.0570995	-0.312564	0.02948	
3.63006	0	0	-0.258142	0.187918	-0.214123	0.0912455	-0.124004	-0.0217205	-0.179949	-0.022149	-0.123226	-0.034736	-0.149125	0.0584465	-0.149123	0.004114	-0.329499	0.0397165	-0.156578	0.118998	-0.678336	-0.038912	-0.15459	0.152473	-0.352871	0.178659	-0.245459	0.03894	-0.268915	-0.074203	-0.173673	0.062452	-0.314292	0.034364	
3.62701	0	0	-0.260155	0.193608	-0.217	0.0820717	-0.12569	-0.0169562	-0.174845	-0.022874	-0.123226	-0.034736	-0.147655	0.0542917	-0.149123	0.004114	-0.334571	0.0398483	-0.158498	0.124425	-0.678336	-0.038912	-0.15459	0.152473	-0.350881	0.173037	-0.24647	0.0417955	-0.273367	-0.0773325	-0.181864	0.0678045	-0.316021	0.039248	
3.62701	0	0	-0.262168	0.199298	-0.219876	0.072898	-0.127376	-0.012192	-0.169741	-0.023599	-0.123226	-0.034736	-0.146185	0.050137	-0.149123	0.004114	-0.339643	0.03998	-0.160418	0.129852	-0.678336	-0.038912	-0.15459	0.152473	-0.348892	0.167415	-0.24748	0.044651	-0.277819	-0.080462	-0.190056	0.073157	-0.317749	0.044132	
3.62396	0	0	-0.255201	0.203503	-0.210727	0.081661	-0.13075	-0.00265575	-0.173348	-0.0134062	-0.125015	-0.0296805	-0.138936	0.0454	-0.145884	0.00627275	-0.336036	0.0439895	-0.156994	0.131789	-0.674712	-0.0355538	-0.156428	0.157668	-0.341737	0.167062	-0.24748	0.044651	-0.282267	-0.0835888	-0.188767	0.069514	-0.317749	0.044132	
3.62091	0	0	-0.248235	0.207708	-0.201577	0.090424	-0.134124	0.0068805	-0.176955	-0.0032135	-0.126804	-0.024625	-0.131686	0.040663	-0.142646	0.0084315	-0.33243	0.047999	-0.153569	0.133726	-0.671088	-0.0321955	-0.158267	0.162863	-0.334583	0.16671	-0.24748	0.044651	-0.286716	-0.0867155	-0.187478	0.065871	-0.317749	0.044132	
3.62091	0	0	-0.241268	0.211913	-0.192428	0.099187	-0.137499	0.0164168	-0.180561	0.00697925	-0.128592	-0.0195695	-0.124437	0.035926	-0.139407	0.0105902	-0.328823	0.0520085	-0.150144	0.135664	-0.667464	-0.0288373	-0.160106	0.168059	-0.327429	0.166357	-0.24748	0.044651	-0.291164	-0.0898422	-0.186189	0.062228	-0.317749	0.044132	
3.62244	0	0	-0.234301	0.216118	-0.183279	0.10795	-0.140873	0.025953	-0.184168	0.017172	-0.130381	-0.014514	-0.117187	0.031189	-0.136168	0.012749	-0.325217	0.056018	-0.14672	0.137601	-0.66384	-0.025479	-0.161944	0.173254	-0.320274	0.166004	-0.24748	0.044651	-0.295612	-0.092969	-0.1849	0.058585	-0.317749	0.044132	
3.62396	0	0	-0.234301	0.216118	-0.190078	0.127166	-0.131159	0.0196057	-0.179061	0.016449	-0.126193	-0.0153065	-0.114344	0.038918	-0.137152	0.0155307	-0.323076	0.064179	-0.144255	0.142258	-0.662853	-0.0146568	-0.161556	0.182996	-0.309926	0.176559	-0.242185	0.0433873	-0.292553	-0.0859157	-0.186189	0.062228	-0.310867	0.043392	
