3.7796	0	0	-0.116362	0.310009	-0.078209	0.312844	-0.173534	0.383717	-0.087871	0.361909	-0.089487	0.671048	-0.029034	0.514528	-0.122581	0.820643	-0.098691	0.655083	-0.01842	0.531878	-0.093268	0.606457	-0.019171	0.550327	0.03012	0.537219	-0.069011	0.406206	-0.056026	0.324163	0.188231	0.572221	0.086148	0.414915	
3.77655	0	0	-0.116362	0.310009	-0.0842637	0.319022	-0.17911	0.38736	-0.0887335	0.364347	-0.0943175	0.6847	-0.0329685	0.525647	-0.123243	0.832858	-0.0972005	0.66527	-0.019384	0.544592	-0.0893725	0.611665	-0.0174273	0.564053	0.032658	0.547609	-0.0661952	0.411809	-0.057784	0.329131	0.18319	0.586468	0.090023	0.419137	
3.76892	0	0	-0.116362	0.310009	-0.0903185	0.3252	-0.184685	0.391003	-0.089596	0.366784	-0.099148	0.698352	-0.036903	0.536766	-0.123905	0.845074	-0.09571	0.675457	-0.020348	0.557306	-0.085477	0.616873	-0.0156835	0.577778	0.035196	0.558	-0.0633795	0.417411	-0.059542	0.3341	0.178149	0.600715	0.093898	0.423359	
3.77502	0	0	-0.116362	0.310009	-0.0963733	0.331378	-0.19026	0.394647	-0.0904585	0.369222	-0.103979	0.712004	-0.0408375	0.547886	-0.124566	0.857289	-0.0942195	0.685644	-0.021312	0.57002	-0.0815815	0.622081	-0.0139398	0.591504	0.037734	0.568391	-0.0605637	0.423013	-0.0613	0.339068	0.173108	0.614962	0.097773	0.427582	
3.77197	0	0	-0.116362	0.310009	-0.102428	0.337556	-0.195836	0.39829	-0.091321	0.37166	-0.108809	0.725656	-0.044772	0.559005	-0.125228	0.869504	-0.092729	0.695831	-0.022276	0.582734	-0.077686	0.627289	-0.012196	0.60523	0.040272	0.578781	-0.057748	0.428616	-0.063058	0.344037	0.168067	0.629209	0.101648	0.431804	
3.76892	0	0	-0.122106	0.310544	-0.102428	0.337556	-0.201408	0.401931	-0.091321	0.37166	-0.114675	0.725989	-0.044772	0.559005	-0.134748	0.875725	-0.0993563	0.700161	-0.020421	0.577492	-0.08515	0.632166	-0.0156338	0.605616	0.0340382	0.578836	-0.0651318	0.435924	-0.0677155	0.34708	0.157968	0.639463	0.0830175	0.454122	
3.77045	0	0	-0.12785	0.311079	-0.102428	0.337556	-0.20698	0.405571	-0.091321	0.37166	-0.120541	0.726322	-0.044772	0.559005	-0.144267	0.881945	-0.105984	0.704492	-0.018566	0.572249	-0.092614	0.637043	-0.0190715	0.606002	0.0278045	0.57889	-0.0725155	0.443231	-0.072373	0.350124	0.147869	0.649717	0.064387	0.476439	
3.76434	0	0	-0.133594	0.311615	-0.102428	0.337556	-0.212552	0.409212	-0.091321	0.37166	-0.126407	0.726654	-0.044772	0.559005	-0.153787	0.888166	-0.112611	0.708822	-0.016711	0.567006	-0.100078	0.641921	-0.0225093	0.606389	0.0215707	0.578944	-0.0798993	0.450538	-0.0770305	0.353167	0.13777	0.65997	0.0457565	0.498757	
3.76739	0	0	-0.139338	0.31215	-0.102428	0.337556	-0.218124	0.412853	-0.091321	0.37166	-0.132273	0.726987	-0.044772	0.559005	-0.163307	0.894386	-0.119238	0.713152	-0.014856	0.561764	-0.107542	0.646798	-0.025947	0.606775	0.015337	0.578999	-0.087283	0.457846	-0.081688	0.35621	0.127671	0.670224	0.027126	0.521074	
3.76587	0	0	-0.146557	0.316867	-0.103451	0.340446	-0.223692	0.416492	-0.0981277	0.381733	-0.136009	0.729428	-0.044772	0.559005	-0.159634	0.894345	-0.114325	0.713666	-0.0231217	0.565151	-0.105757	0.641754	-0.026803	0.609194	0.0234203	0.573717	-0.0963255	0.456309	-0.0837065	0.3518	0.120945	0.670964	0.0248225	0.512435	
3.76587	0	0	-0.153776	0.321584	-0.104473	0.343337	-0.229261	0.42013	-0.104934	0.391806	-0.139745	0.731869	-0.044772	0.559005	-0.155962	0.894304	-0.109411	0.71418	-0.0313875	0.568538	-0.103972	0.63671	-0.027659	0.611614	0.0315035	0.568436	-0.105368	0.454773	-0.085725	0.347391	0.114219	0.671705	0.022519	0.503796	
3.76282	0	0	-0.160994	0.326301	-0.105496	0.346228	-0.234829	0.423768	-0.111741	0.401879	-0.143482	0.734311	-0.044772	0.559005	-0.152289	0.894263	-0.104498	0.714694	-0.0396533	0.571925	-0.102188	0.631666	-0.028515	0.614033	0.0395868	0.563154	-0.11441	0.453236	-0.0877435	0.342981	0.107492	0.672445	0.0202155	0.495158	
3.76129	0	0	-0.168213	0.331018	-0.106519	0.349118	-0.240397	0.427407	-0.118548	0.411952	-0.147218	0.736752	-0.044772	0.559005	-0.148616	0.894222	-0.099585	0.715208	-0.047919	0.575312	-0.100403	0.626622	-0.029371	0.616452	0.04767	0.557872	-0.123453	0.451699	-0.089762	0.338571	0.100766	0.673185	0.017912	0.486519	
3.76282	0	0	-0.176907	0.339917	-0.104557	0.354507	-0.248168	0.437277	-0.121139	0.419275	-0.151247	0.748139	-0.0487112	0.570138	-0.155138	0.912654	-0.107928	0.724385	-0.0470337	0.582794	-0.104294	0.621415	-0.0302183	0.628175	0.04397	0.568329	-0.123453	0.451699	-0.0868645	0.340496	0.107492	0.672445	0.017912	0.486519	
3.76282	0	0	-0.185601	0.348816	-0.102596	0.359897	-0.255939	0.447148	-0.12373	0.426598	-0.155276	0.759525	-0.0526505	0.581271	-0.16166	0.931087	-0.11627	0.733563	-0.0461485	0.590277	-0.108185	0.616208	-0.0310655	0.639899	0.04027	0.578787	-0.123453	0.451699	-0.083967	0.342422	0.114219	0.671705	0.017912	0.486519	
3.76434	0	0	-0.194295	0.357714	-0.100634	0.365287	-0.263709	0.457018	-0.126322	0.433922	-0.159305	0.770912	-0.0565898	0.592404	-0.168182	0.94952	-0.124612	0.742741	-0.0452633	0.597759	-0.112076	0.611002	-0.0319127	0.651622	0.03657	0.589244	-0.123453	0.451699	-0.0810695	0.344347	0.120945	0.670964	0.017912	0.486519	
3.76282	0	0	-0.202989	0.366613	-0.098672	0.370676	-0.27148	0.466888	-0.128913	0.441245	-0.163334	0.782299	-0.060529	0.603537	-0.174704	0.967952	-0.132955	0.751918	-0.044378	0.605241	-0.115967	0.605795	-0.03276	0.663346	0.03287	0.599701	-0.123453	0.451699	-0.078172	0.346272	0.127671	0.670224	0.017912	0.486519	
3.76739	0	0	-0.215916	0.371841	-0.10268	0.371071	-0.281496	0.471036	-0.128913	0.441245	-0.166262	0.782461	-0.067545	0.610977	-0.179462	0.971062	-0.129761	0.757289	-0.0471635	0.613113	-0.11775	0.610833	-0.0370508	0.675472	0.0372565	0.604884	-0.129166	0.467846	-0.086345	0.359256	0.122619	0.684502	0.0295015	0.499249	
3.76892	0	0	-0.228842	0.37707	-0.106689	0.371466	-0.291511	0.475183	-0.128913	0.441245	-0.169191	0.782622	-0.074561	0.618416	-0.184221	0.974171	-0.126566	0.762661	-0.049949	0.620985	-0.119532	0.615871	-0.0413415	0.687597	0.041643	0.610067	-0.134879	0.483992	-0.094518	0.37224	0.117567	0.698779	0.041091	0.51198	
3.76129	0	0	-0.241768	0.382298	-0.110698	0.37186	-0.301526	0.47933	-0.128913	0.441245	-0.172119	0.782783	-0.081577	0.625856	-0.188979	0.97728	-0.123371	0.768033	-0.0527345	0.628856	-0.121315	0.62091	-0.0456322	0.699723	0.0460295	0.615249	-0.140593	0.500139	-0.102691	0.385224	0.112515	0.713057	0.0526805	0.52471	
3.76587	0	0	-0.254695	0.387526	-0.114706	0.372255	-0.311542	0.483478	-0.128913	0.441245	-0.175047	0.782945	-0.088593	0.633296	-0.193738	0.98039	-0.120177	0.773404	-0.05552	0.636728	-0.123098	0.625948	-0.049923	0.711849	0.050416	0.620432	-0.146306	0.516285	-0.110864	0.398208	0.107463	0.727335	0.06427	0.53744	
3.76739	0	0	-0.256176	0.391712	-0.119735	0.375541	-0.318199	0.490225	-0.134857	0.448885	-0.17666	0.787503	-0.0899078	0.637012	-0.197004	0.989621	-0.128522	0.782589	-0.056449	0.639353	-0.136211	0.630643	-0.0473448	0.713897	0.048562	0.625671	-0.145162	0.513053	-0.105329	0.39268	0.11588	0.721835	0.06271	0.541849	
3.76587	0	0	-0.257657	0.395898	-0.124765	0.378827	-0.324856	0.496972	-0.140801	0.456525	-0.178273	0.792061	-0.0912225	0.640728	-0.20027	0.998851	-0.136868	0.791775	-0.057378	0.641979	-0.149324	0.635337	-0.0447665	0.715945	0.046708	0.630911	-0.144019	0.509821	-0.099794	0.387151	0.124297	0.716336	0.06115	0.546258	
3.77045	0	0	-0.259138	0.400084	-0.129794	0.382114	-0.331513	0.503718	-0.146746	0.464165	-0.179885	0.796618	-0.0925373	0.644443	-0.203537	1.00808	-0.145213	0.80096	-0.058307	0.644605	-0.162437	0.640032	-0.0421882	0.717993	0.044854	0.636151	-0.142875	0.50659	-0.094259	0.381623	0.132713	0.710836	0.05959	0.550667	
3.77655	0	0	-0.260619	0.40427	-0.134823	0.3854	-0.33817	0.510465	-0.15269	0.471805	-0.181498	0.801176	-0.093852	0.648159	-0.206803	1.01731	-0.153558	0.810145	-0.059236	0.64723	-0.17555	0.644727	-0.03961	0.720041	0.043	0.64139	-0.141732	0.503358	-0.088724	0.376095	0.14113	0.705336	0.05803	0.555076	
3.77502	0	0	-0.270778	0.417349	-0.133891	0.393693	-0.347032	0.523451	-0.151935	0.478829	-0.183918	0.808017	-0.0907813	0.651869	-0.201643	1.02341	-0.155277	0.815002	-0.056497	0.649479	-0.179426	0.639519	-0.0378905	0.72452	0.043	0.64139	-0.139446	0.496898	-0.0924995	0.376651	0.14113	0.705336	0.05959	0.550667	
3.77502	5	0	-0.280937	0.430428	-0.132959	0.401986	-0.355894	0.536437	-0.151179	0.485853	-0.186339	0.814857	-0.0877105	0.655579	-0.196484	1.02952	-0.156996	0.81986	-0.053758	0.651728	-0.183301	0.634311	-0.036171	0.728998	0.043	0.64139	-0.137161	0.490438	-0.096275	0.377207	0.14113	0.705336	0.06115	0.546258	
3.7735	5	0	-0.291096	0.443506	-0.132027	0.410279	-0.364756	0.549424	-0.150423	0.492878	-0.188759	0.821697	-0.0846397	0.65929	-0.191325	1.03562	-0.158714	0.824717	-0.051019	0.653977	-0.187176	0.629103	-0.0344515	0.733477	0.043	0.64139	-0.134875	0.483979	-0.100051	0.377762	0.14113	0.705336	0.06271	0.541849	
3.78113	5	0	-0.301255	0.456585	-0.131095	0.418572	-0.373618	0.56241	-0.149668	0.499902	-0.19118	0.828538	-0.081569	0.663	-0.186165	1.04172	-0.160433	0.829575	-0.04828	0.656226	-0.191052	0.623895	-0.032732	0.737956	0.043	0.64139	-0.132589	0.477519	-0.103826	0.378318	0.14113	0.705336	0.06427	0.53744	
3.77807	5	0	-0.299772	0.452395	-0.14115	0.425142	-0.378061	0.562913	-0.153884	0.502657	-0.199451	0.835697	-0.089904	0.674168	-0.193108	1.051	-0.160433	0.829575	-0.0510703	0.664112	-0.194925	0.618694	-0.0318732	0.744872	0.0492437	0.641341	-0.139959	0.484818	-0.100931	0.380249	0.147869	0.704595	0.061149	0.54626	
3.7796	5	0	-0.29829	0.448206	-0.151206	0.431713	-0.382503	0.563417	-0.158099	0.505412	-0.207722	0.842855	-0.098239	0.685336	-0.200052	1.06028	-0.160433	0.829575	-0.0538605	0.671998	-0.198798	0.613493	-0.0310145	0.751788	0.0554875	0.641292	-0.14733	0.492117	-0.098035	0.38218	0.154608	0.703854	0.058028	0.555081	
3.77807	5	0	-0.296808	0.444016	-0.161262	0.438284	-0.386945	0.563921	-0.162315	0.508166	-0.215994	0.850014	-0.106574	0.696503	-0.206995	1.06956	-0.160433	0.829575	-0.0566507	0.679883	-0.202671	0.608292	-0.0301557	0.758703	0.0617312	0.641242	-0.1547	0.499415	-0.0951395	0.38411	0.161348	0.703113	0.054907	0.563901	
3.78265	5	0	-0.295325	0.439826	-0.171317	0.444854	-0.391388	0.564424	-0.16653	0.510921	-0.224265	0.857173	-0.114909	0.707671	-0.213939	1.07883	-0.160433	0.829575	-0.059441	0.687769	-0.206544	0.603091	-0.029297	0.765619	0.067975	0.641193	-0.16207	0.506714	-0.092244	0.386041	0.168087	0.702372	0.051786	0.572721	
3.78265	5	0	-0.306733	0.440843	-0.174291	0.442345	-0.39916	0.562309	-0.173225	0.511535	-0.228495	0.852924	-0.123668	0.707673	-0.22018	1.0758	-0.171953	0.833368	-0.0612485	0.682887	-0.214283	0.592711	-0.0353137	0.763942	0.0635852	0.636003	-0.164357	0.513176	-0.096899	0.389083	0.151245	0.713377	0.0502245	0.577134	
3.77502	5	0	-0.318141	0.441859	-0.177265	0.439836	-0.406932	0.560195	-0.179919	0.51215	-0.232725	0.848674	-0.132427	0.707674	-0.226421	1.07277	-0.183474	0.837162	-0.063056	0.678006	-0.222022	0.58233	-0.0413305	0.762265	0.0591955	0.630812	-0.166643	0.519638	-0.101554	0.392124	0.134404	0.724382	0.048663	0.581548	
3.7735	5	0	-0.32955	0.442876	-0.18024	0.437327	-0.414704	0.55808	-0.186614	0.512764	-0.236954	0.844425	-0.141185	0.707676	-0.232663	1.06974	-0.194995	0.840955	-0.0648635	0.673125	-0.229761	0.571949	-0.0473473	0.760588	0.0548058	0.625622	-0.16893	0.5261	-0.106209	0.395166	0.117562	0.735387	0.0471015	0.585962	
3.77045	5	0	-0.340958	0.443893	-0.183214	0.434818	-0.422476	0.555965	-0.193308	0.513378	-0.241184	0.840176	-0.149944	0.707678	-0.238904	1.0667	-0.206515	0.844748	-0.066671	0.668243	-0.2375	0.561569	-0.053364	0.758911	0.050416	0.620432	-0.171217	0.532562	-0.110864	0.398208	0.10072	0.746392	0.04554	0.590375	
3.7796	5	0	-0.342439	0.448079	-0.184238	0.437713	-0.424683	0.562202	-0.198383	0.518574	-0.243298	0.838053	-0.153003	0.70396	-0.242567	1.06673	-0.21947	0.838296	-0.0703368	0.668619	-0.252629	0.556052	-0.053364	0.758911	0.0460295	0.615249	-0.175154	0.530166	-0.118407	0.399314	0.10072	0.746392	0.03314	0.595084	
3.77502	5	0	-0.34392	0.452264	-0.185263	0.440608	-0.42689	0.568438	-0.203458	0.523769	-0.245412	0.835931	-0.156062	0.700242	-0.24623	1.06675	-0.232425	0.831843	-0.0740025	0.668994	-0.267758	0.550534	-0.053364	0.758911	0.041643	0.610067	-0.17909	0.52777	-0.12595	0.40042	0.10072	0.746392	0.02074	0.599793	
3.76739	5	0	-0.345402	0.45645	-0.186287	0.443504	-0.429096	0.574674	-0.208532	0.528964	-0.247525	0.833808	-0.159122	0.696525	-0.249894	1.06678	-0.24538	0.825391	-0.0776682	0.66937	-0.282887	0.545017	-0.053364	0.758911	0.0372565	0.604884	-0.183026	0.525375	-0.133494	0.401526	0.10072	0.746392	0.00834	0.604503	
3.76587	5	0	-0.346883	0.460636	-0.187312	0.446399	-0.431303	0.580911	-0.213607	0.53416	-0.249639	0.831685	-0.162181	0.692807	-0.253557	1.0668	-0.258335	0.818938	-0.081334	0.669746	-0.298016	0.5395	-0.053364	0.758911	0.03287	0.599701	-0.186963	0.522979	-0.141037	0.402632	0.10072	0.746392	-0.00406	0.609212	
3.77045	5	0	-0.349847	0.469014	-0.18639	0.454707	-0.434616	0.590274	-0.213727	0.543645	-0.251252	0.836242	-0.162181	0.692807	-0.253167	1.07603	-0.263217	0.818404	-0.0758608	0.674252	-0.320477	0.538809	-0.0516472	0.763398	0.0310183	0.604934	-0.18074	0.518913	-0.141037	0.402632	0.10072	0.746392	-0.00406	0.609212	
3.77807	5	0	-0.352812	0.477391	-0.185468	0.463016	-0.437929	0.599636	-0.213846	0.55313	-0.252864	0.8408	-0.162181	0.692807	-0.252776	1.08525	-0.2681	0.81787	-0.0703875	0.678757	-0.342939	0.538117	-0.0499305	0.767885	0.0291665	0.610167	-0.174516	0.514846	-0.141037	0.402632	0.10072	0.746392	-0.00406	0.609212	
3.78418	5	0	-0.355776	0.485769	-0.184545	0.471324	-0.441242	0.608999	-0.213966	0.562614	-0.254476	0.845357	-0.162181	0.692807	-0.252386	1.09448	-0.272982	0.817337	-0.0649143	0.683263	-0.365401	0.537426	-0.0482137	0.772372	0.0273147	0.615401	-0.168293	0.51078	-0.141037	0.402632	0.10072	0.746392	-0.00406	0.609212	
3.79333	5	0	-0.35874	0.494147	-0.183623	0.479632	-0.444555	0.618362	-0.214086	0.572099	-0.256089	0.849915	-0.162181	0.692807	-0.251996	1.1037	-0.277865	0.816803	-0.059441	0.687769	-0.387862	0.536734	-0.046497	0.776859	0.025463	0.620634	-0.16207	0.506714	-0.141037	0.402632	0.10072	0.746392	-0.00406	0.609212	
3.80707	5	0	-0.364434	0.494646	-0.193667	0.486195	-0.448986	0.618857	-0.221637	0.575151	-0.261924	0.850224	-0.167868	0.696522	-0.251996	1.1037	-0.282743	0.816268	-0.0622337	0.695662	-0.384331	0.526756	-0.0499422	0.786595	0.02361	0.62587	-0.158129	0.509107	-0.142796	0.407604	0.105763	0.750428	-0.000206	0.613482	
3.82233	5	0	-0.370128	0.495146	-0.203711	0.492757	-0.453418	0.619352	-0.229187	0.578202	-0.26776	0.850533	-0.173554	0.700238	-0.251996	1.1037	-0.287622	0.815734	-0.0650265	0.703554	-0.3808	0.516778	-0.0533875	0.796331	0.021757	0.631107	-0.154188	0.511499	-0.144556	0.412577	0.110805	0.754465	0.003648	0.617751	
3.83911	5	0	-0.375822	0.495646	-0.213754	0.49932	-0.457849	0.619848	-0.236737	0.581253	-0.273595	0.850842	-0.17924	0.703954	-0.251996	1.1037	-0.2925	0.815199	-0.0678192	0.711447	-0.37727	0.506799	-0.0568328	0.806068	0.019904	0.636344	-0.150247	0.513892	-0.146316	0.41755	0.115847	0.758501	0.007502	0.62202	
3.85589	5	0	-0.381516	0.496145	-0.223798	0.505883	-0.46228	0.620343	-0.244288	0.584305	-0.27943	0.851151	-0.184927	0.707669	-0.251996	1.1037	-0.297379	0.814664	-0.070612	0.71934	-0.373739	0.496821	-0.060278	0.815804	0.018051	0.64158	-0.146306	0.516285	-0.148075	0.422522	0.12089	0.762537	0.011356	0.62629	
3.87115	5	0	-0.387205	0.496642	-0.222772	0.502984	-0.467812	0.623958	-0.246761	0.582158	-0.278624	0.848873	-0.19061	0.711382	-0.251996	1.1037	-0.303965	0.818968	-0.072417	0.714452	-0.386705	0.50146	-0.0619917	0.811309	0.0217558	0.63111	-0.15647	0.517958	-0.145436	0.415065	0.124264	0.753001	0.007502	0.62202	
3.88794	5	0	-0.392894	0.49714	-0.221747	0.500085	-0.473345	0.627573	-0.249234	0.580011	-0.277818	0.846596	-0.196293	0.715095	-0.251996	1.1037	-0.310552	0.823272	-0.074222	0.709563	-0.39967	0.5061	-0.0637055	0.806814	0.0254605	0.620641	-0.166634	0.519632	-0.142798	0.407607	0.127638	0.743465	0.003648	0.617751	
3.90625	5	0	-0.398583	0.497638	-0.220721	0.497186	-0.478877	0.631188	-0.251708	0.577864	-0.277012	0.844318	-0.201975	0.718809	-0.251996	1.1037	-0.317138	0.827575	-0.076027	0.704674	-0.412635	0.51074	-0.0654192	0.80232	0.0291653	0.610171	-0.176799	0.521305	-0.140159	0.400149	0.131013	0.733929	-0.000206	0.613482	
3.92151	5	0	-0.404272	0.498135	-0.219695	0.494287	-0.484409	0.634803	-0.254181	0.575717	-0.276206	0.84204	-0.207658	0.722522	-0.251996	1.1037	-0.323725	0.831879	-0.077832	0.699786	-0.425601	0.515379	-0.067133	0.797825	0.03287	0.599701	-0.186963	0.522979	-0.13752	0.392692	0.134387	0.724393	-0.00406	0.609212	
3.93677	5	0	-0.398583	0.497638	-0.220721	0.497186	-0.481086	0.637433	-0.252574	0.580312	-0.2754	0.839762	-0.201975	0.718809	-0.25418	1.10987	-0.328595	0.831341	-0.072304	0.694152	-0.427671	0.505247	-0.0679867	0.790904	0.0284868	0.594526	-0.183536	0.513295	-0.139531	0.388277	0.137758	0.714867	-0.00249925	0.604801	
3.94897	5	0	-0.392894	0.49714	-0.221747	0.500085	-0.477764	0.640064	-0.250967	0.584908	-0.274594	0.837485	-0.196293	0.715095	-0.256363	1.11605	-0.333464	0.830802	-0.066776	0.688519	-0.42974	0.495115	-0.0688405	0.783983	0.0241035	0.58935	-0.180109	0.50361	-0.141542	0.383862	0.141128	0.705341	-0.0009385	0.600389	
3.9566	5	0	-0.387205	0.496642	-0.222772	0.502984	-0.474442	0.642694	-0.24936	0.589503	-0.273789	0.835207	-0.19061	0.711382	-0.258547	1.12222	-0.338333	0.830264	-0.061248	0.682886	-0.43181	0.484982	-0.0696942	0.777061	0.0197203	0.584175	-0.176683	0.493926	-0.143553	0.379448	0.144499	0.695815	0.00062225	0.595978	
3.96881	5	0	-0.381516	0.496145	-0.223798	0.505883	-0.471119	0.645324	-0.247753	0.594098	-0.272983	0.83293	-0.184927	0.707669	-0.260731	1.12839	-0.343203	0.829725	-0.05572	0.677252	-0.433879	0.47485	-0.070548	0.77014	0.015337	0.578999	-0.173256	0.484242	-0.145564	0.375033	0.14787	0.686289	0.002183	0.591567	
3.97034	5	0	-0.388687	0.50083	-0.224824	0.508783	-0.476652	0.648939	-0.251958	0.596846	-0.27751	0.837639	-0.191925	0.715099	-0.259254	1.13455	-0.343203	0.829725	-0.05572	0.677252	-0.443294	0.469536	-0.0679687	0.762851	0.0171855	0.573775	-0.16475	0.473725	-0.144685	0.372551	0.157979	0.676025	-0.003229	0.591714	
3.97797	5	0	-0.395857	0.505516	-0.225851	0.511683	-0.482184	0.652554	-0.256163	0.599594	-0.282037	0.842348	-0.198923	0.72253	-0.257776	1.14071	-0.343203	0.829725	-0.05572	0.677252	-0.452708	0.464222	-0.0653895	0.755561	0.019034	0.568551	-0.156245	0.463209	-0.143807	0.370068	0.168088	0.66576	-0.008641	0.59186	
3.98102	5	0	-0.403028	0.510201	-0.226877	0.514583	-0.487716	0.656169	-0.260369	0.602341	-0.286565	0.847057	-0.205921	0.729961	-0.256299	1.14686	-0.343203	0.829725	-0.05572	0.677252	-0.462122	0.458909	-0.0628102	0.748271	0.0208825	0.563327	-0.147739	0.452692	-0.142929	0.367586	0.178197	0.655496	-0.014053	0.592007	
3.98559	5	0	-0.410199	0.514887	-0.227903	0.517483	-0.493249	0.659784	-0.264574	0.605089	-0.291092	0.851766	-0.212919	0.737391	-0.254822	1.15302	-0.343203	0.829725	-0.05572	0.677252	-0.471537	0.453595	-0.060231	0.740982	0.022731	0.558103	-0.139234	0.442175	-0.14205	0.365103	0.188306	0.645232	-0.019465	0.592154	
3.98254	5	0	-0.414401	0.511195	-0.234858	0.515341	-0.495464	0.65403	-0.266179	0.600492	-0.295002	0.83858	-0.214654	0.729955	-0.260346	1.13765	-0.344648	0.819521	-0.0611942	0.672749	-0.473605	0.4435	-0.0645223	0.734456	0.0183488	0.552941	-0.140375	0.4454	-0.14205	0.365103	0.178197	0.655496	-0.0156137	0.596418	
3.98407	5	0	-0.418602	0.507502	-0.241812	0.513199	-0.497679	0.648277	-0.267784	0.595895	-0.298911	0.825394	-0.216388	0.722519	-0.265871	1.12228	-0.346093	0.809316	-0.0666685	0.668246	-0.475673	0.433405	-0.0688135	0.727931	0.0139665	0.547779	-0.141516	0.448624	-0.14205	0.365103	0.168088	0.66576	-0.0117625	0.600683	
3.98559	5	0	-0.422804	0.50381	-0.248767	0.511057	-0.499893	0.642524	-0.269389	0.591299	-0.302821	0.812207	-0.218123	0.715082	-0.271396	1.10691	-0.347539	0.799111	-0.0721428	0.663744	-0.477742	0.423311	-0.0731048	0.721405	0.00958425	0.542617	-0.142657	0.451848	-0.14205	0.365103	0.157979	0.676025	-0.00791125	0.604947	
3.98254	5	0	-0.427006	0.500118	-0.255722	0.508915	-0.502108	0.63677	-0.270994	0.586702	-0.306731	0.799021	-0.219858	0.707646	-0.27692	1.09154	-0.348984	0.788907	-0.077617	0.659241	-0.47981	0.413216	-0.077396	0.714879	0.005202	0.537455	-0.143798	0.455073	-0.14205	0.365103	0.14787	0.686289	-0.00406	0.609212	
3.97949	5	0	-0.431204	0.49643	-0.252648	0.500226	-0.505426	0.634142	-0.268398	0.579365	-0.307733	0.785714	-0.220282	0.696514	-0.27879	1.0762	-0.355293	0.778193	-0.0803028	0.646879	-0.487453	0.402979	-0.0833995	0.703901	0.0045085	0.521885	-0.150539	0.447091	-0.146949	0.35877	0.146184	0.672767	-0.01176	0.600688	
3.97949	5	0	-0.435403	0.492741	-0.249573	0.491538	-0.508744	0.631513	-0.265802	0.572028	-0.308736	0.772407	-0.220706	0.685381	-0.28066	1.06086	-0.361602	0.767478	-0.0829885	0.634517	-0.495097	0.392741	-0.089403	0.692922	0.003815	0.506316	-0.15728	0.43911	-0.151848	0.352437	0.144498	0.659246	-0.01946	0.592164	
3.98407	5	0	-0.439601	0.489053	-0.246499	0.482849	-0.512061	0.628885	-0.263205	0.564691	-0.309738	0.7591	-0.22113	0.674249	-0.282529	1.04552	-0.367911	0.756764	-0.0856742	0.622156	-0.50274	0.382503	-0.0954065	0.681944	0.0031215	0.490746	-0.164021	0.431129	-0.156748	0.346104	0.142811	0.645724	-0.02716	0.58364	
3.98865	5	0	-0.443799	0.485365	-0.243424	0.47416	-0.515379	0.626257	-0.260609	0.557354	-0.310741	0.745793	-0.221554	0.663116	-0.284399	1.03017	-0.37422	0.74605	-0.08836	0.609794	-0.510383	0.372266	-0.10141	0.670965	0.002428	0.475176	-0.170762	0.423147	-0.161647	0.339771	0.141125	0.632202	-0.03486	0.575116	
3.99475	5	0	-0.443799	0.485365	-0.244449	0.477056	-0.515379	0.626257	-0.261474	0.559799	-0.314955	0.741576	-0.225914	0.663115	-0.286967	1.02713	-0.382226	0.740174	-0.0892412	0.602316	-0.51627	0.357121	-0.100559	0.659254	-0.00195175	0.47004	-0.177495	0.415183	-0.159017	0.332338	0.144485	0.622706	-0.03715	0.566464	
4.00543	5	0	-0.443799	0.485365	-0.245473	0.479951	-0.515379	0.626257	-0.26234	0.562244	-0.319169	0.737359	-0.230274	0.663115	-0.289535	1.02408	-0.390232	0.734299	-0.0901225	0.594838	-0.522158	0.341975	-0.099708	0.647544	-0.0063315	0.464905	-0.184229	0.407218	-0.156387	0.324905	0.147844	0.613211	-0.03944	0.557811	
4.02527	5	0	-0.443799	0.485365	-0.246497	0.482847	-0.515379	0.626257	-0.263205	0.564689	-0.323383	0.733143	-0.234634	0.663114	-0.292102	1.02103	-0.398238	0.728424	-0.0910037	0.58736	-0.528045	0.326829	-0.098857	0.635833	-0.0107113	0.459769	-0.190962	0.399253	-0.153757	0.317472	0.151204	0.603715	-0.04173	0.549158	
4.04205	5	0	-0.443799	0.485365	-0.247522	0.485742	-0.515379	0.626257	-0.26407	0.567134	-0.327597	0.728926	-0.238994	0.663113	-0.29467	1.01798	-0.406244	0.722548	-0.091885	0.579882	-0.533932	0.311684	-0.098006	0.624122	-0.015091	0.454634	-0.197695	0.391289	-0.151127	0.310039	0.154564	0.594219	-0.04402	0.540506	
4.05731	5	0	-0.449473	0.485858	-0.251509	0.486121	-0.518695	0.623631	-0.271605	0.570178	-0.328902	0.724555	-0.238994	0.663113	-0.29941	1.02108	-0.411093	0.722018	-0.090959	0.577265	-0.54156	0.301512	-0.099723	0.619673	-0.0114145	0.444244	-0.19376	0.393661	-0.152004	0.312516	0.161301	0.593466	-0.0471333	0.549305	
4.0741	5	0	-0.455147	0.486352	-0.255497	0.486501	-0.52201	0.621004	-0.27914	0.573222	-0.330207	0.720185	-0.238994	0.663113	-0.30415	1.02418	-0.415942	0.721488	-0.090033	0.574648	-0.549188	0.29134	-0.10144	0.615224	-0.007738	0.433853	-0.189826	0.396033	-0.15288	0.314993	0.168039	0.592713	-0.0502465	0.558103	
4.09393	5	0	-0.46082	0.486846	-0.259484	0.48688	-0.525326	0.618378	-0.286675	0.576265	-0.331511	0.715814	-0.238994	0.663113	-0.308891	1.02728	-0.420792	0.720959	-0.089107	0.572031	-0.556817	0.281168	-0.103157	0.610776	-0.0040615	0.423462	-0.185891	0.398405	-0.153756	0.31747	0.174776	0.59196	-0.0533597	0.566901	
4.11224	5	0	-0.466494	0.487339	-0.263471	0.487259	-0.528642	0.615752	-0.29421	0.579309	-0.332816	0.711443	-0.238994	0.663113	-0.313631	1.03037	-0.425641	0.720429	-0.088181	0.569414	-0.564445	0.270996	-0.104874	0.606327	-0.000385	0.413072	-0.181956	0.400777	-0.154633	0.319947	0.181513	0.591207	-0.056473	0.5757	
4.1275	5	0	-0.465016	0.483161	-0.262447	0.484365	-0.531956	0.613128	-0.297542	0.579607	-0.33833	0.702874	-0.235063	0.652003	-0.317673	1.02122	-0.427086	0.710291	-0.086292	0.554113	-0.566516	0.261004	-0.111729	0.597826	-0.00476575	0.407956	-0.178018	0.40315	-0.156386	0.324903	0.163007	0.60695	-0.0526285	0.579959	
4.14123	5	0	-0.463537	0.478983	-0.261423	0.481471	-0.535269	0.610503	-0.300875	0.579905	-0.343844	0.694306	-0.231131	0.640893	-0.321715	1.01206	-0.428532	0.700152	-0.084403	0.538811	-0.568587	0.251012	-0.118585	0.589325	-0.0091465	0.40284	-0.174081	0.405524	-0.15814	0.329859	0.144502	0.622693	-0.048784	0.584218	
4.14886	5	0	-0.462058	0.474805	-0.260398	0.478576	-0.538583	0.607879	-0.304207	0.580203	-0.349358	0.685737	-0.2272	0.629783	-0.325756	1.0029	-0.429978	0.690014	-0.082514	0.523509	-0.570658	0.24102	-0.125441	0.580824	-0.0135273	0.397723	-0.170144	0.407898	-0.159894	0.334815	0.125997	0.638436	-0.0449395	0.588476	
4.15954	5	0	-0.46058	0.470627	-0.259374	0.475682	-0.541897	0.605255	-0.307539	0.580501	-0.354872	0.677168	-0.223269	0.618673	-0.329798	0.993742	-0.431423	0.679876	-0.080625	0.508208	-0.572729	0.231028	-0.132296	0.572323	-0.017908	0.392607	-0.166206	0.410271	-0.161647	0.339771	0.107491	0.654179	-0.041095	0.592735	
4.16107	5	0	-0.46058	0.470627	-0.25835	0.472789	-0.541897	0.605255	-0.302477	0.575315	-0.354289	0.659436	-0.225011	0.61128	-0.331673	0.978483	-0.434568	0.674553	-0.0833273	0.495935	-0.574802	0.221056	-0.130605	0.558262	-0.0186217	0.377143	-0.174078	0.405525	-0.162781	0.332894	0.11253	0.639939	-0.051895	0.593021	
4.1626	5	0	-0.46058	0.470627	-0.257327	0.469895	-0.541897	0.605255	-0.297415	0.570129	-0.353706	0.641704	-0.226752	0.603888	-0.333548	0.963223	-0.437713	0.66923	-0.0860295	0.483662	-0.576876	0.211085	-0.128915	0.544202	-0.0193355	0.36168	-0.181951	0.40078	-0.163915	0.326016	0.117568	0.6257	-0.062695	0.593307	
4.15954	5	0	-0.46058	0.470627	-0.256303	0.467002	-0.541897	0.605255	-0.292354	0.564943	-0.353123	0.623972	-0.228493	0.596495	-0.335423	0.947963	-0.440859	0.663906	-0.0887317	0.47139	-0.578949	0.201113	-0.127225	0.530141	-0.0200493	0.346217	-0.189823	0.396035	-0.165049	0.319139	0.122607	0.61146	-0.073495	0.593593	
4.15802	5	0	-0.46058	0.470627	-0.255279	0.464108	-0.541897	0.605255	-0.287292	0.559757	-0.35254	0.60624	-0.230235	0.589102	-0.337298	0.932704	-0.444004	0.658583	-0.091434	0.459117	-0.581022	0.191141	-0.125534	0.51608	-0.020763	0.330753	-0.197695	0.391289	-0.166183	0.312262	0.127645	0.597221	-0.084295	0.593879	
4.15954	5	0	-0.46058	0.470627	-0.251291	0.463727	-0.54631	0.605745	-0.288157	0.562201	-0.357258	0.595474	-0.233284	0.585413	-0.337698	0.923563	-0.450291	0.647957	-0.093247	0.454294	-0.588639	0.181045	-0.126402	0.509254	-0.0171035	0.320411	-0.194285	0.381653	-0.168193	0.307867	0.120923	0.597968	-0.0780715	0.576291	
4.15192	5	0	-0.46058	0.470627	-0.247304	0.463346	-0.550723	0.606235	-0.289021	0.564644	-0.361977	0.584707	-0.236334	0.581724	-0.338097	0.914422	-0.456577	0.637332	-0.09506	0.449471	-0.596256	0.170949	-0.12727	0.502429	-0.013444	0.310068	-0.190876	0.372018	-0.170204	0.303473	0.1142	0.598715	-0.071848	0.558702	
4.14581	5	0	-0.46058	0.470627	-0.243316	0.462964	-0.555136	0.606725	-0.289886	0.567088	-0.366695	0.573941	-0.239383	0.578036	-0.338497	0.905282	-0.462864	0.626707	-0.096873	0.444648	-0.603873	0.160853	-0.128137	0.495603	-0.0097845	0.299725	-0.187467	0.362382	-0.172214	0.299079	0.107478	0.599463	-0.0656245	0.541114	
4.13666	5	0	-0.46058	0.470627	-0.239328	0.462583	-0.559549	0.607215	-0.290751	0.569532	-0.371413	0.563175	-0.242432	0.574347	-0.338897	0.896141	-0.469151	0.616081	-0.098686	0.439825	-0.61149	0.150757	-0.129005	0.488778	-0.006125	0.289383	-0.184057	0.352746	-0.174224	0.294684	0.100755	0.60021	-0.059401	0.523525	
4.13208	5	0	-0.464772	0.466947	-0.240246	0.45429	-0.559558	0.595266	-0.29149	0.562504	-0.380331	0.54828	-0.24548	0.570662	-0.35022	0.887118	-0.470601	0.605999	-0.105072	0.437995	-0.611835	0.135943	-0.129874	0.481961	-0.006125	0.289383	-0.185193	0.355957	-0.170462	0.294128	0.100755	0.60021	-0.0540002	0.523374	
4.12292	5	0	-0.468965	0.463266	-0.241165	0.445996	-0.559566	0.583317	-0.29223	0.555475	-0.389249	0.533386	-0.248528	0.566976	-0.361544	0.878094	-0.472051	0.595917	-0.111458	0.436166	-0.612181	0.121129	-0.130744	0.475145	-0.006125	0.289383	-0.186329	0.359167	-0.1667	0.293572	0.100755	0.60021	-0.0485995	0.523223	
4.11224	5	0	-0.473157	0.459585	-0.242083	0.437702	-0.559575	0.571367	-0.292969	0.548446	-0.398167	0.518491	-0.251575	0.563291	-0.372868	0.86907	-0.473502	0.585835	-0.117845	0.434337	-0.612526	0.106314	-0.131613	0.468328	-0.006125	0.289383	-0.187466	0.362378	-0.162938	0.293016	0.100755	0.60021	-0.0431988	0.523072	
4.10614	5	0	-0.477349	0.455905	-0.243001	0.429409	-0.559584	0.559418	-0.293709	0.541418	-0.407085	0.503597	-0.254623	0.559606	-0.384191	0.860047	-0.474952	0.575753	-0.124231	0.432507	-0.612872	0.0915	-0.132482	0.461512	-0.006125	0.289383	-0.188602	0.365589	-0.159176	0.29246	0.100755	0.60021	-0.037798	0.522921	
4.10004	5	0	-0.474397	0.447563	-0.249949	0.427287	-0.560696	0.550596	-0.294451	0.534399	-0.411521	0.484117	-0.260713	0.552247	-0.387559	0.838855	-0.481234	0.56518	-0.125097	0.415097	-0.622208	0.0863415	-0.138487	0.45069	-0.00685675	0.273987	-0.192535	0.363224	-0.161188	0.28807	0.089007	0.596963	-0.051703	0.532007	
4.08935	5	0	-0.471445	0.439221	-0.256898	0.425164	-0.561809	0.541773	-0.295192	0.52738	-0.415957	0.464638	-0.266804	0.544887	-0.390927	0.817662	-0.487517	0.554607	-0.125963	0.397686	-0.631544	0.081183	-0.144492	0.439869	-0.0075885	0.25859	-0.196468	0.360858	-0.163199	0.283679	0.077259	0.593715	-0.065608	0.541093	
4.08478	5	0	-0.468493	0.430878	-0.263846	0.423041	-0.562922	0.532951	-0.295934	0.520361	-0.420393	0.445158	-0.272894	0.537528	-0.394294	0.79647	-0.493799	0.544033	-0.126828	0.380276	-0.640879	0.0760245	-0.150497	0.429047	-0.00832025	0.243194	-0.200402	0.358492	-0.165211	0.279289	0.065511	0.590467	-0.079513	0.550179	
4.0802	5	0	-0.465541	0.422536	-0.270794	0.420919	-0.564034	0.524129	-0.296675	0.513342	-0.424829	0.425679	-0.278985	0.530169	-0.397662	0.775278	-0.500081	0.53346	-0.127694	0.362866	-0.650215	0.070866	-0.156502	0.418226	-0.009052	0.227797	-0.204335	0.356127	-0.167223	0.274899	0.053763	0.58722	-0.093418	0.559265	
4.07867	5	0	-0.465541	0.422536	-0.271816	0.423807	-0.564034	0.524129	-0.29507	0.51792	-0.429543	0.415024	-0.276379	0.522803	-0.396999	0.763178	-0.501535	0.523422	-0.12584	0.347706	-0.645042	0.0562457	-0.155681	0.406651	-0.0134355	0.222738	-0.207131	0.350557	-0.169235	0.270513	0.0654943	0.572281	-0.0957003	0.550627	
4.0802	5	0	-0.465541	0.422536	-0.272837	0.426695	-0.564034	0.524129	-0.293465	0.522498	-0.434257	0.404369	-0.273772	0.515438	-0.396336	0.751078	-0.502989	0.513384	-0.123986	0.332546	-0.639868	0.0416255	-0.154861	0.395077	-0.017819	0.217678	-0.209927	0.344986	-0.171247	0.266127	0.0772255	0.557342	-0.0979825	0.54199	
4.08478	5	0	-0.465541	0.422536	-0.273859	0.429583	-0.564034	0.524129	-0.29186	0.527076	-0.43897	0.393714	-0.271166	0.508073	-0.395672	0.738978	-0.504443	0.503346	-0.122132	0.317385	-0.634695	0.0270053	-0.15404	0.383502	-0.0222025	0.212619	-0.212724	0.339416	-0.173258	0.261742	0.0889568	0.542404	-0.100265	0.533352	
4.08783	5	0	-0.465541	0.422536	-0.274881	0.432471	-0.564034	0.524129	-0.290255	0.531654	-0.443684	0.383059	-0.26856	0.500707	-0.395009	0.726878	-0.505897	0.493308	-0.120278	0.302225	-0.629522	0.012385	-0.153219	0.371928	-0.026586	0.20756	-0.21552	0.333846	-0.17527	0.257356	0.100688	0.527465	-0.102547	0.524714	
4.09241	5	0	-0.472682	0.427202	-0.272943	0.437869	-0.573941	0.528217	-0.291119	0.534095	-0.4463	0.374485	-0.275512	0.50808	-0.402269	0.726961	-0.51072	0.492801	-0.119362	0.299636	-0.642292	0.0169868	-0.153219	0.371928	-0.0167337	0.197164	-0.209319	0.329794	-0.171509	0.256798	0.100688	0.527465	-0.100995	0.520327	
4.10004	5	0	-0.479822	0.431868	-0.271004	0.443267	-0.583848	0.532305	-0.291982	0.536536	-0.448916	0.365911	-0.282463	0.515454	-0.409528	0.727043	-0.515543	0.492293	-0.118445	0.297047	-0.655062	0.0215885	-0.153219	0.371928	-0.0068815	0.186768	-0.203118	0.325743	-0.167749	0.25624	0.100688	0.527465	-0.099442	0.515939	
4.10156	5	0	-0.486963	0.436533	-0.269066	0.448665	-0.593754	0.536393	-0.292845	0.538977	-0.451531	0.357337	-0.289415	0.522827	-0.416787	0.727125	-0.520365	0.491785	-0.117529	0.294458	-0.667832	0.0261902	-0.153219	0.371928	0.00297075	0.176372	-0.196918	0.321691	-0.163988	0.255683	0.100688	0.527465	-0.0978895	0.511551	
4.10766	5	0	-0.494104	0.441199	-0.267128	0.454063	-0.603661	0.540481	-0.293709	0.541418	-0.454147	0.348763	-0.296367	0.5302	-0.424047	0.727208	-0.525188	0.491278	-0.116613	0.291869	-0.680602	0.030792	-0.153219	0.371928	0.012823	0.165976	-0.190717	0.31764	-0.160227	0.255125	0.100688	0.527465	-0.096337	0.507164	
4.11224	5	0	-0.494104	0.441199	-0.265082	0.448283	-0.605867	0.534772	-0.296177	0.539278	-0.453617	0.331312	-0.29246	0.519159	-0.421249	0.70909	-0.520142	0.477015	-0.119345	0.289675	-0.671637	0.0211935	-0.15494	0.36754	0.012823	0.165976	-0.192986	0.324053	-0.161976	0.260068	0.0990147	0.532194	-0.100997	0.520333	
4.10766	5	0	-0.494104	0.441199	-0.263037	0.442503	-0.608073	0.529062	-0.298644	0.537138	-0.453087	0.313862	-0.288554	0.508117	-0.41845	0.690973	-0.515095	0.462753	-0.122077	0.287482	-0.662672	0.011595	-0.15666	0.363151	0.012823	0.165976	-0.195255	0.330466	-0.163725	0.265012	0.0973415	0.536923	-0.105657	0.533501	
4.10766	5	0	-0.494104	0.441199	-0.260991	0.436722	-0.610278	0.523353	-0.301112	0.534997	-0.452558	0.296411	-0.284647	0.497076	-0.415652	0.672856	-0.510048	0.448491	-0.12481	0.285288	-0.653708	0.0019965	-0.15838	0.358762	0.012823	0.165976	-0.197525	0.33688	-0.165474	0.269956	0.0956682	0.541652	-0.110316	0.54667	
4.10614	5	0	-0.494104	0.441199	-0.258946	0.430942	-0.612484	0.517644	-0.30358	0.532857	-0.452028	0.27896	-0.28074	0.486035	-0.412853	0.654738	-0.505002	0.434228	-0.127542	0.283094	-0.644743	-0.007602	-0.160101	0.354374	0.012823	0.165976	-0.199794	0.343293	-0.167223	0.274899	0.093995	0.546381	-0.114976	0.559839	
4.10309	5	0	-0.486963	0.436533	-0.256902	0.425165	-0.610292	0.511449	-0.297659	0.525237	-0.453865	0.268212	-0.279439	0.482357	-0.411137	0.639686	-0.503321	0.429479	-0.126615	0.270565	-0.644743	-0.007602	-0.159288	0.342831	0.0164635	0.155687	-0.195257	0.330471	-0.167487	0.265574	0.0973405	0.536926	-0.115703	0.546819	
4.10156	5	0	-0.479822	0.431868	-0.254858	0.419389	-0.6081	0.505254	-0.291737	0.517617	-0.455703	0.257465	-0.278137	0.47868	-0.409421	0.624633	-0.501641	0.42473	-0.125688	0.258037	-0.644743	-0.007602	-0.158475	0.331288	0.020104	0.145399	-0.190721	0.317649	-0.167751	0.256248	0.100686	0.52747	-0.11643	0.533799	
4.09546	5	0	-0.472682	0.427202	-0.252815	0.413612	-0.605907	0.499058	-0.285816	0.509997	-0.45754	0.246718	-0.276836	0.475002	-0.407705	0.60958	-0.49996	0.419981	-0.124762	0.245508	-0.644743	-0.007602	-0.157663	0.319746	0.0237445	0.13511	-0.186184	0.304827	-0.168015	0.246923	0.104031	0.518015	-0.117157	0.520778	
4.08935	5	0	-0.465541	0.422536	-0.250771	0.407836	-0.603715	0.492863	-0.279895	0.502377	-0.459377	0.23597	-0.275535	0.471325	-0.405989	0.594528	-0.49828	0.415232	-0.123835	0.232979	-0.644743	-0.007602	-0.15685	0.308203	0.027385	0.124821	-0.181647	0.292005	-0.168279	0.237598	0.107377	0.50856	-0.117884	0.507758	
4.0863	5	0	-0.465541	0.422536	-0.252815	0.413612	-0.602619	0.489767	-0.281621	0.507256	-0.457808	0.231535	-0.268585	0.463958	-0.402788	0.585481	-0.503102	0.414734	-0.123828	0.223054	-0.648546	-0.012592	-0.157729	0.301446	0.0310215	0.114544	-0.183317	0.283253	-0.161024	0.227165	0.120781	0.488912	-0.118618	0.494769	
4.07867	5	0	-0.465541	0.422536	-0.254858	0.419389	-0.601524	0.486671	-0.283348	0.512134	-0.456238	0.2271	-0.261636	0.456591	-0.399587	0.576434	-0.507925	0.414235	-0.123821	0.213129	-0.652349	-0.017582	-0.158608	0.294689	0.034658	0.104267	-0.184987	0.274501	-0.153769	0.216732	0.134185	0.469264	-0.119351	0.481779	
4.07257	5	0	-0.465541	0.422536	-0.256902	0.425165	-0.600429	0.483575	-0.285075	0.517013	-0.454669	0.222664	-0.254686	0.449224	-0.396386	0.567388	-0.512747	0.413737	-0.123813	0.203205	-0.656152	-0.022572	-0.159487	0.287933	0.0382945	0.0939907	-0.186658	0.265749	-0.146514	0.2063	0.147589	0.449617	-0.120085	0.468789	
4.06647	5	0	-0.465541	0.422536	-0.258946	0.430942	-0.599333	0.480479	-0.286801	0.521892	-0.4531	0.218229	-0.247736	0.441857	-0.393185	0.558341	-0.517569	0.413239	-0.123806	0.19328	-0.659955	-0.027562	-0.160366	0.281176	0.041931	0.083714	-0.188328	0.256997	-0.139259	0.195867	0.160993	0.429969	-0.120819	0.4558	
4.06036	5	0	-0.471207	0.423034	-0.257924	0.428053	-0.601542	0.474787	-0.289269	0.519755	-0.455197	0.216191	-0.253385	0.445548	-0.400437	0.558447	-0.51589	0.408495	-0.122894	0.190701	-0.658236	-0.0324195	-0.159523	0.278793	0.041931	0.083714	-0.188328	0.256997	-0.139259	0.195867	0.152601	0.435453	-0.122368	0.460177	
4.05578	5	0	-0.476873	0.423531	-0.256902	0.425165	-0.603751	0.469094	-0.291738	0.517617	-0.457294	0.214153	-0.259035	0.449239	-0.407689	0.558553	-0.514212	0.403751	-0.121981	0.188123	-0.656517	-0.037277	-0.15868	0.276411	0.041931	0.083714	-0.188328	0.256997	-0.139259	0.195867	0.144209	0.440936	-0.123916	0.464553	
4.04968	5	0	-0.482538	0.424029	-0.25588	0.422276	-0.605961	0.463402	-0.294207	0.515479	-0.459391	0.212115	-0.264684	0.45293	-0.414941	0.558659	-0.512533	0.399007	-0.121069	0.185545	-0.654799	-0.0421345	-0.157837	0.274029	0.041931	0.083714	-0.188328	0.256997	-0.139259	0.195867	0.135817	0.446419	-0.125465	0.46893	
4.04663	5	0	-0.488204	0.424526	-0.254858	0.419387	-0.60817	0.45771	-0.296675	0.513342	-0.461488	0.210077	-0.270333	0.456621	-0.422193	0.558765	-0.510854	0.394263	-0.120157	0.182966	-0.65308	-0.046992	-0.156994	0.271646	0.041931	0.083714	-0.188328	0.256997	-0.139259	0.195867	0.127425	0.451903	-0.127014	0.473307	
4.04358	5	0	-0.485256	0.416195	-0.256799	0.413997	-0.614772	0.452521	-0.297418	0.506332	-0.462801	0.205826	-0.274678	0.456635	-0.420493	0.543774	-0.509177	0.389521	-0.121978	0.168317	-0.651362	-0.051847	-0.158758	0.258163	0.0393473	0.073568	-0.188328	0.256997	-0.148527	0.201923	0.122378	0.447951	-0.133941	0.477833	
4.03595	5	0	-0.482309	0.407865	-0.25874	0.408608	-0.621375	0.447333	-0.298162	0.499322	-0.464114	0.201574	-0.279023	0.45665	-0.418793	0.528784	-0.507499	0.38478	-0.123798	0.153669	-0.649644	-0.056702	-0.160523	0.244681	0.0367635	0.063422	-0.188328	0.256997	-0.157794	0.207979	0.117331	0.443998	-0.140869	0.482359	
4.04053	5	0	-0.479361	0.399534	-0.260682	0.403218	-0.627978	0.442144	-0.298905	0.492312	-0.465426	0.197323	-0.283368	0.456665	-0.417093	0.513794	-0.505822	0.380039	-0.125618	0.13902	-0.647926	-0.061557	-0.162287	0.231199	0.0341798	0.053276	-0.188328	0.256997	-0.167062	0.214034	0.112284	0.440046	-0.147796	0.486886	
4.04205	5	0	-0.476413	0.391203	-0.262623	0.397828	-0.63458	0.436955	-0.299648	0.485302	-0.466739	0.193072	-0.287713	0.456679	-0.415393	0.498803	-0.504144	0.375297	-0.127439	0.124372	-0.646208	-0.066412	-0.164051	0.217716	0.031596	0.04313	-0.188328	0.256997	-0.176329	0.22009	0.107237	0.436094	-0.154723	0.491412	
4.04205	5	0	-0.476413	0.391203	-0.262623	0.397828	-0.63458	0.436955	-0.299648	0.485302	-0.463075	0.190678	-0.280768	0.449317	-0.413266	0.492793	-0.497642	0.371049	-0.126534	0.111926	-0.644491	-0.0712643	-0.164935	0.210988	0.0290103	0.0330058	-0.192261	0.254651	-0.169951	0.21213	0.11057	0.426673	-0.158548	0.487183	
4.04358	5	0	-0.476413	0.391203	-0.262623	0.397828	-0.63458	0.436955	-0.299648	0.485302	-0.45941	0.188283	-0.273823	0.441956	-0.41114	0.486784	-0.49114	0.3668	-0.12563	0.0994805	-0.642774	-0.0761165	-0.16582	0.20426	0.0264245	0.0228815	-0.196194	0.252304	-0.163574	0.204171	0.113903	0.417253	-0.162373	0.482955	
4.04968	5	0	-0.476413	0.391203	-0.262623	0.397828	-0.63458	0.436955	-0.299648	0.485302	-0.455746	0.185889	-0.266879	0.434594	-0.409014	0.480774	-0.484639	0.362552	-0.124725	0.0870347	-0.641057	-0.0809687	-0.166704	0.197532	0.0238387	0.0127572	-0.200128	0.249958	-0.157196	0.196211	0.117237	0.407832	-0.166198	0.478726	
4.04358	5	0	-0.476413	0.391203	-0.262623	0.397828	-0.63458	0.436955	-0.299648	0.485302	-0.452082	0.183495	-0.259934	0.427232	-0.406887	0.474764	-0.478137	0.358304	-0.12382	0.074589	-0.63934	-0.085821	-0.167588	0.190804	0.021253	0.002633	-0.204061	0.247612	-0.150818	0.188251	0.12057	0.398412	-0.170023	0.474498	
4.04663	5	0	-0.483548	0.395865	-0.260682	0.403218	-0.630186	0.436459	-0.29718	0.487436	-0.448669	0.189782	-0.255584	0.427214	-0.400698	0.477652	-0.478137	0.358304	-0.122912	0.0720215	-0.63934	-0.085821	-0.165908	0.186056	0.029276	-0.0026095	-0.197865	0.243563	-0.151691	0.190717	0.112195	0.403885	-0.161554	0.465603	
4.0451	5	0	-0.490683	0.400527	-0.25874	0.408608	-0.625793	0.435963	-0.294711	0.489569	-0.445256	0.196069	-0.251235	0.427196	-0.39451	0.48054	-0.478137	0.358304	-0.122003	0.069454	-0.63934	-0.085821	-0.164228	0.181308	0.037299	-0.007852	-0.191669	0.239515	-0.152563	0.193183	0.103819	0.409357	-0.153085	0.456708	
4.04358	5	0	-0.497818	0.405189	-0.256799	0.413997	-0.6214	0.435466	-0.292242	0.491703	-0.441843	0.202356	-0.246886	0.427177	-0.388321	0.483427	-0.478137	0.358304	-0.121094	0.0668865	-0.63934	-0.085821	-0.162549	0.17656	0.045322	-0.0130945	-0.185473	0.235466	-0.153436	0.195649	0.0954435	0.41483	-0.144617	0.447813	
4.04053	5	0	-0.504953	0.409851	-0.254858	0.419387	-0.617006	0.43497	-0.289774	0.493837	-0.43843	0.208643	-0.242536	0.427159	-0.382132	0.486315	-0.478137	0.358304	-0.120186	0.064319	-0.63934	-0.085821	-0.160869	0.171812	0.053345	-0.018337	-0.179277	0.231417	-0.154308	0.198115	0.087068	0.420303	-0.136148	0.438918	
4.03747	5	0	-0.500536	0.39737	-0.256799	0.413997	-0.619215	0.429293	-0.286326	0.484093	-0.436862	0.20421	-0.241236	0.423486	-0.381507	0.474358	-0.478137	0.358304	-0.122011	0.0595938	-0.630381	-0.0954035	-0.162596	0.167469	0.0471325	-0.018211	-0.173076	0.227365	-0.150546	0.197553	0.0954435	0.41483	-0.139243	0.447665	
4.03747	5	0	-0.49612	0.384888	-0.25874	0.408608	-0.621424	0.423615	-0.282878	0.474349	-0.435293	0.199777	-0.239936	0.419814	-0.380883	0.462401	-0.478137	0.358304	-0.123836	0.0548685	-0.621422	-0.104986	-0.164322	0.163125	0.04092	-0.018085	-0.166876	0.223313	-0.146784	0.196991	0.103819	0.409357	-0.142338	0.456412	
4.03442	5	0	-0.491704	0.372406	-0.260682	0.403218	-0.623633	0.417938	-0.27943	0.464604	-0.433724	0.195344	-0.238637	0.416141	-0.380259	0.450444	-0.478137	0.358304	-0.125662	0.0501433	-0.612462	-0.114568	-0.166049	0.158782	0.0347075	-0.017959	-0.160675	0.219262	-0.143021	0.196429	0.112195	0.403885	-0.145433	0.465159	
4.03442	5	0	-0.487287	0.359925	-0.262623	0.397828	-0.625842	0.41226	-0.275982	0.45486	-0.432156	0.190911	-0.237337	0.412468	-0.379634	0.438487	-0.478137	0.358304	-0.127487	0.045418	-0.603503	-0.124151	-0.167775	0.154439	0.028495	-0.017833	-0.154474	0.21521	-0.139259	0.195867	0.12057	0.398412	-0.148528	0.473906	
4.03442	5	0	-0.490006	0.352119	-0.260582	0.392059	-0.623659	0.40609	-0.278452	0.452732	-0.429804	0.184265	-0.23909	0.405149	-0.382641	0.426619	-0.474784	0.348828	-0.129326	0.0308633	-0.603503	-0.124151	-0.174629	0.146168	0.0277107	-0.0330315	-0.161221	0.207343	-0.139533	0.186569	0.127226	0.379601	-0.149263	0.460944	
4.02984	5	0	-0.492724	0.344313	-0.258541	0.38629	-0.621476	0.399921	-0.280923	0.450603	-0.427453	0.177619	-0.240844	0.397831	-0.385649	0.414751	-0.471432	0.339353	-0.131164	0.0163085	-0.603503	-0.124151	-0.181482	0.137897	0.0269265	-0.04823	-0.167968	0.199476	-0.139806	0.177272	0.133882	0.360789	-0.149998	0.447981	
4.02984	5	0	-0.495443	0.336507	-0.256499	0.38052	-0.619293	0.393751	-0.283394	0.448475	-0.425102	0.170974	-0.242598	0.390512	-0.388656	0.402883	-0.468079	0.329878	-0.133003	0.00175375	-0.603503	-0.124151	-0.188336	0.129625	0.0261422	-0.0634285	-0.174715	0.191609	-0.140079	0.167974	0.140538	0.341978	-0.150732	0.435018	
4.02984	5	0	-0.498161	0.328701	-0.254458	0.374751	-0.61711	0.387581	-0.285864	0.446347	-0.42275	0.164328	-0.244351	0.383194	-0.391663	0.391015	-0.464726	0.320402	-0.134842	-0.012801	-0.603503	-0.124151	-0.19519	0.121354	0.025358	-0.078627	-0.181462	0.183742	-0.140353	0.158676	0.147194	0.323167	-0.151467	0.422056	
4.02527	5	0	-0.50088	0.320909	-0.257421	0.372255	-0.614928	0.381416	-0.27995	0.438742	-0.423534	0.166543	-0.248699	0.383216	-0.390603	0.38802	-0.463051	0.315668	-0.138495	-0.0222075	-0.607317	-0.129109	-0.194405	0.109932	0.0209592	-0.0835953	-0.182014	0.171849	-0.141501	0.151854	0.137093	0.315336	-0.152208	0.409124	
4.02527	5	0	-0.503599	0.313116	-0.260383	0.369758	-0.612747	0.37525	-0.274035	0.431137	-0.424317	0.168758	-0.253047	0.383238	-0.389543	0.385024	-0.461376	0.310935	-0.142148	-0.031614	-0.611131	-0.134068	-0.193621	0.098509	0.0165605	-0.0885635	-0.182566	0.159956	-0.142648	0.145032	0.126993	0.307504	-0.15295	0.396192	
4.02222	5	0	-0.506317	0.305323	-0.263346	0.367262	-0.610566	0.369084	-0.26812	0.423531	-0.4251	0.170972	-0.257395	0.38326	-0.388484	0.382029	-0.459701	0.306201	-0.145801	-0.0410205	-0.614946	-0.139026	-0.192836	0.0870865	0.0121617	-0.0935317	-0.183118	0.148062	-0.143795	0.13821	0.116892	0.299673	-0.153691	0.38326	
4.01764	5	0	-0.509036	0.297531	-0.266309	0.364766	-0.608384	0.362919	-0.262206	0.415926	-0.425884	0.173187	-0.261743	0.383282	-0.387424	0.379034	-0.458026	0.301467	-0.149454	-0.050427	-0.61876	-0.143985	-0.192051	0.075664	0.007763	-0.0985	-0.18367	0.136169	-0.144943	0.131388	0.106791	0.291842	-0.154432	0.370328	
4.02069	5	0	-0.517402	0.290259	-0.264271	0.359004	-0.614988	0.357764	-0.267149	0.411681	-0.429551	0.175583	-0.260446	0.379617	-0.386364	0.37604	-0.458026	0.301467	-0.147647	-0.0555345	-0.622572	-0.148937	-0.193778	0.071344	0.00956625	-0.103596	-0.182543	0.132985	-0.145814	0.133849	0.116817	0.281688	-0.154432	0.370328	
4.01764	5	0	-0.525767	0.282987	-0.262232	0.353243	-0.621591	0.352609	-0.272093	0.407436	-0.433219	0.17798	-0.259149	0.375951	-0.385305	0.373046	-0.458026	0.301467	-0.14584	-0.060642	-0.626383	-0.153889	-0.195504	0.067024	0.0113695	-0.108691	-0.181416	0.129801	-0.146684	0.13631	0.126842	0.271533	-0.154432	0.370328	
4.01306	5	0	-0.534133	0.275715	-0.260194	0.347481	-0.628194	0.347454	-0.277037	0.403191	-0.436887	0.180376	-0.257852	0.372286	-0.384246	0.370051	-0.458026	0.301467	-0.144032	-0.0657495	-0.630195	-0.158841	-0.197231	0.062704	0.0131728	-0.113787	-0.180289	0.126616	-0.147555	0.138771	0.136868	0.261379	-0.154432	0.370328	
4.01153	5	0	-0.542498	0.268443	-0.258155	0.341719	-0.634798	0.342299	-0.28198	0.398946	-0.440554	0.182772	-0.256555	0.368621	-0.383186	0.367057	-0.458026	0.301467	-0.142225	-0.070857	-0.634007	-0.163793	-0.198958	0.058384	0.014976	-0.118883	-0.179162	0.123432	-0.148426	0.141232	0.146894	0.251225	-0.154432	0.370328	
4.01153	5	0	-0.543752	0.256548	-0.259082	0.333474	-0.634834	0.330503	-0.281873	0.389544	-0.442653	0.180739	-0.253963	0.361295	-0.388315	0.361208	-0.456352	0.296735	-0.150413	-0.0772735	-0.62677	-0.168522	-0.203246	0.0521148	0.0105787	-0.123839	-0.186476	0.130659	-0.148426	0.141232	0.145235	0.255912	-0.154432	0.370328	
4.00848	5	0	-0.545005	0.244652	-0.260008	0.325229	-0.63487	0.318708	-0.281767	0.380143	-0.444751	0.178705	-0.25137	0.353969	-0.393444	0.355359	-0.454677	0.292004	-0.158601	-0.08369	-0.619533	-0.173251	-0.207533	0.0458455	0.0061815	-0.128794	-0.19379	0.137886	-0.148426	0.141232	0.143577	0.260598	-0.154432	0.370328	
4.00848	5	0	-0.546258	0.232757	-0.260935	0.316984	-0.634906	0.306912	-0.281661	0.370741	-0.44685	0.176672	-0.248778	0.346642	-0.398573	0.34951	-0.453003	0.287272	-0.166789	-0.0901065	-0.612295	-0.177979	-0.211821	0.0395763	0.00178425	-0.133749	-0.201105	0.145114	-0.148426	0.141232	0.141919	0.265285	-0.154432	0.370328	
4.00848	5	0	-0.547512	0.220862	-0.261861	0.308739	-0.634942	0.295116	-0.281554	0.361339	-0.448949	0.174639	-0.246186	0.339316	-0.403702	0.343661	-0.451329	0.282541	-0.174977	-0.096523	-0.605058	-0.182708	-0.216109	0.033307	-0.002613	-0.138705	-0.208419	0.152341	-0.148426	0.141232	0.14026	0.269972	-0.154432	0.370328	
4.01153	5	0	-0.551689	0.217243	-0.259826	0.302988	-0.633855	0.292044	-0.27898	0.354064	-0.442934	0.165604	-0.243596	0.331996	-0.399473	0.33171	-0.449656	0.277812	-0.1741	-0.108842	-0.603347	-0.187545	-0.214501	0.0195773	-0.005209	-0.148735	-0.208972	0.14047	-0.148704	0.131958	0.128506	0.266849	-0.156719	0.361777	
4.00696	5	0	-0.555867	0.213624	-0.257792	0.297238	-0.632769	0.288973	-0.276406	0.346788	-0.436919	0.15657	-0.241005	0.324676	-0.395244	0.319759	-0.447982	0.273083	-0.173224	-0.121162	-0.601635	-0.192381	-0.212894	0.0058475	-0.007805	-0.158766	-0.209525	0.1286	-0.148982	0.122684	0.116752	0.263726	-0.159006	0.353227	
4.00543	5	0	-0.560045	0.210006	-0.255757	0.291488	-0.631682	0.285902	-0.273831	0.339512	-0.430904	0.147536	-0.238415	0.317355	-0.391016	0.307807	-0.446309	0.268354	-0.172347	-0.133481	-0.599924	-0.197218	-0.211286	-0.00788225	-0.010401	-0.168796	-0.210078	0.116729	-0.14926	0.11341	0.104997	0.260602	-0.161294	0.344676	
4.0039	5	0	-0.564222	0.206387	-0.253722	0.285737	-0.630595	0.28283	-0.271257	0.332237	-0.424889	0.138501	-0.235825	0.310035	-0.386787	0.295856	-0.444636	0.263625	-0.17147	-0.1458	-0.598213	-0.202054	-0.209678	-0.021612	-0.012997	-0.178826	-0.210631	0.104859	-0.149538	0.104136	0.093243	0.257479	-0.163581	0.336126	
4.00238	5	0	-0.562762	0.202261	-0.252705	0.282863	-0.628422	0.27669	-0.270399	0.329813	-0.427772	0.138685	-0.233237	0.302721	-0.387242	0.286977	-0.446123	0.253702	-0.171499	-0.155554	-0.60203	-0.20699	-0.213966	-0.0278523	-0.009404	-0.18898	-0.216241	0.0938747	-0.149819	0.0948772	0.093162	0.239564	-0.171232	0.327754	
3.99933	5	0	-0.561302	0.198135	-0.251688	0.279989	-0.62625	0.27055	-0.269541	0.327389	-0.430655	0.138868	-0.230649	0.295407	-0.387697	0.278099	-0.44761	0.243778	-0.171529	-0.165309	-0.605847	-0.211927	-0.218255	-0.0340925	-0.005811	-0.199134	-0.221851	0.0828905	-0.150101	0.0856185	0.093081	0.221648	-0.178882	0.319383	
3.99322	5	0	-0.559842	0.194009	-0.250671	0.277115	-0.624078	0.26441	-0.268684	0.324966	-0.433538	0.139051	-0.228061	0.288093	-0.388152	0.269221	-0.449097	0.233854	-0.171558	-0.175063	-0.609665	-0.216863	-0.222543	-0.0403328	-0.002218	-0.209288	-0.22746	0.0719063	-0.150383	0.0763598	0.093	0.203733	-0.186532	0.311011	
3.9917	5	0	-0.558382	0.189883	-0.249654	0.274241	-0.621905	0.25827	-0.267826	0.322542	-0.436421	0.139235	-0.225473	0.280779	-0.388607	0.260342	-0.450584	0.223931	-0.171587	-0.184817	-0.613482	-0.221799	-0.226831	-0.046573	0.001375	-0.219442	-0.23307	0.060922	-0.150664	0.067101	0.092919	0.185817	-0.194183	0.302639	
3.9917	5	0	-0.558186	0.173917	-0.255581	0.269283	-0.626337	0.247025	-0.266872	0.310748	-0.439837	0.132971	-0.227237	0.273505	-0.396301	0.251629	-0.447245	0.214496	-0.17704	-0.189062	-0.610066	-0.231454	-0.227727	-0.0532125	-0.0048155	-0.219297	-0.235874	0.055441	-0.153552	0.065215	0.0978705	0.171823	-0.196469	0.294122	
3.98254	5	0	-0.55799	0.15795	-0.261508	0.264325	-0.63077	0.23578	-0.265918	0.298955	-0.443254	0.126708	-0.229	0.266232	-0.403996	0.242916	-0.443907	0.20506	-0.182494	-0.193308	-0.60665	-0.241109	-0.228624	-0.059852	-0.011006	-0.219152	-0.238677	0.04996	-0.156441	0.063329	0.102822	0.157829	-0.198756	0.285605	
3.98254	5	0	-0.557794	0.141984	-0.267435	0.259368	-0.635203	0.224534	-0.264964	0.287162	-0.446671	0.120444	-0.230764	0.258958	-0.411691	0.234203	-0.440569	0.195625	-0.187947	-0.197553	-0.603233	-0.250763	-0.229521	-0.0664915	-0.0171965	-0.219007	-0.24148	0.044479	-0.15933	0.061443	0.107774	0.143835	-0.201042	0.277088	
3.97797	5	0	-0.557598	0.126018	-0.273362	0.25441	-0.639635	0.213289	-0.26401	0.275368	-0.450087	0.11418	-0.232527	0.251684	-0.419385	0.22549	-0.43723	0.18619	-0.193401	-0.201798	-0.599817	-0.260418	-0.230417	-0.073131	-0.023387	-0.218862	-0.244284	0.038998	-0.162218	0.059557	0.112725	0.129841	-0.203328	0.268571	
3.97491	5	0	-0.557413	0.110095	-0.268289	0.240073	-0.639687	0.20156	-0.267245	0.26633	-0.455599	0.105905	-0.237346	0.240813	-0.423918	0.207892	-0.445217	0.180542	-0.194367	-0.218704	-0.596405	-0.270062	-0.237259	-0.081286	-0.0259865	-0.22885	-0.248207	0.0366903	-0.170593	0.063143	0.0910173	0.136862	-0.208682	0.268736	
3.97644	5	0	-0.557228	0.094173	-0.263216	0.225736	-0.639738	0.189831	-0.270479	0.257292	-0.461112	0.0976295	-0.242165	0.229942	-0.428451	0.190295	-0.453205	0.174895	-0.195334	-0.23561	-0.592992	-0.279706	-0.244101	-0.089441	-0.028586	-0.238838	-0.25213	0.0343825	-0.178967	0.066729	0.0693095	0.143883	-0.214036	0.2689	
3.96881	5	0	-0.557043	0.0782505	-0.258143	0.211398	-0.63979	0.178103	-0.273714	0.248254	-0.466624	0.0893542	-0.246985	0.21907	-0.432985	0.172698	-0.461192	0.169247	-0.1963	-0.252515	-0.58958	-0.289351	-0.250943	-0.097596	-0.0311855	-0.248825	-0.256053	0.0320747	-0.187341	0.070315	0.0476017	0.150905	-0.21939	0.269065	
3.96423	5	0	-0.556858	0.062328	-0.25307	0.197061	-0.639842	0.166374	-0.276949	0.239216	-0.472136	0.081079	-0.251804	0.208199	-0.437518	0.1551	-0.469179	0.1636	-0.197267	-0.269421	-0.586167	-0.298995	-0.257785	-0.105751	-0.033785	-0.258813	-0.259976	0.029767	-0.195716	0.073901	0.025894	0.157926	-0.224744	0.26923	
3.96881	5	0	-0.562487	0.0628505	-0.256034	0.194594	-0.643141	0.16383	-0.27524	0.234386	-0.473452	0.0768552	-0.254857	0.204594	-0.436933	0.143323	-0.472336	0.158428	-0.206331	-0.273222	-0.591693	-0.299088	-0.262066	-0.111958	-0.0461382	-0.258521	-0.267814	0.0251565	-0.196864	0.0671125	0.0158478	0.150187	-0.233905	0.265225	
3.97186	5	0	-0.568116	0.063373	-0.258999	0.192127	-0.64644	0.161286	-0.273531	0.229556	-0.474769	0.0726315	-0.25791	0.200989	-0.436349	0.131545	-0.475494	0.153257	-0.215394	-0.277023	-0.59722	-0.299181	-0.266346	-0.118166	-0.0584915	-0.25823	-0.275651	0.020546	-0.198012	0.060324	0.0058015	0.142448	-0.243066	0.26122	
3.97186	5	0	-0.573745	0.0638955	-0.261963	0.18966	-0.649739	0.158743	-0.271822	0.224726	-0.476085	0.0684078	-0.260964	0.197383	-0.435764	0.119767	-0.478651	0.148085	-0.224458	-0.280824	-0.602746	-0.299275	-0.270627	-0.124373	-0.0708447	-0.257938	-0.283489	0.0159355	-0.199159	0.0535355	-0.00424475	0.134708	-0.252228	0.257214	
3.97797	5	0	-0.579374	0.064418	-0.264927	0.187193	-0.653038	0.156199	-0.270113	0.219896	-0.477402	0.064184	-0.264017	0.193778	-0.435179	0.10799	-0.481808	0.142913	-0.233522	-0.284625	-0.608272	-0.299368	-0.274908	-0.13058	-0.083198	-0.257646	-0.291327	0.011325	-0.200307	0.046747	-0.014291	0.126969	-0.261389	0.253209	
3.98407	5	0	-0.587716	0.0572597	-0.263842	0.173289	-0.652016	0.141453	-0.272498	0.208474	-0.480036	0.0557485	-0.258868	0.179227	-0.440771	0.0934502	-0.478482	0.133512	-0.235434	-0.308593	-0.602746	-0.299275	-0.277606	-0.150379	-0.080436	-0.282738	-0.290227	-0.0185068	-0.205487	0.0313215	-0.0127443	0.104558	-0.268232	0.227793	
3.99628	5	0	-0.596059	0.0501015	-0.262757	0.159386	-0.650995	0.126706	-0.274883	0.197052	-0.482669	0.047313	-0.253719	0.164676	-0.446363	0.0789105	-0.475155	0.124112	-0.237345	-0.332561	-0.59722	-0.299181	-0.280304	-0.170179	-0.077674	-0.307829	-0.289127	-0.0483385	-0.210668	0.015896	-0.0111975	0.082148	-0.275075	0.202377	
4.0039	5	0	-0.604401	0.0429433	-0.261673	0.145483	-0.649973	0.11196	-0.277268	0.18563	-0.485303	0.0388775	-0.248571	0.150125	-0.451955	0.0643708	-0.471828	0.114711	-0.239256	-0.356529	-0.591693	-0.299088	-0.283002	-0.189978	-0.074912	-0.332921	-0.288027	-0.0781702	-0.215848	0.0004705	-0.00965075	0.0597375	-0.281918	0.176961	
4.01153	5	0	-0.612744	0.035785	-0.260588	0.131579	-0.648952	0.097214	-0.279653	0.174208	-0.487937	0.030442	-0.243422	0.135574	-0.457547	0.049831	-0.468502	0.10531	-0.241168	-0.380497	-0.586167	-0.298995	-0.2857	-0.209777	-0.07215	-0.358013	-0.286927	-0.108002	-0.221028	-0.014955	-0.008104	0.037327	-0.288761	0.151545	
4.02222	5	0	-0.612405	0.00414075	-0.26544	0.112814	-0.653461	0.074424	-0.281111	0.151119	-0.496076	0.0138055	-0.246965	0.121143	-0.469769	0.0238335	-0.468342	0.090774	-0.249371	-0.396402	-0.571686	-0.308457	-0.292608	-0.226758	-0.0809145	-0.367767	-0.297552	-0.117985	-0.219589	-0.0290318	-0.0165008	0.025031	-0.288	0.1345	
4.03137	5	0	-0.612065	-0.0275035	-0.270292	0.0940485	-0.657971	0.051634	-0.28257	0.12803	-0.504214	-0.002831	-0.250507	0.106712	-0.48199	-0.002164	-0.468182	0.076238	-0.257574	-0.412307	-0.557206	-0.317918	-0.299515	-0.24374	-0.089679	-0.377521	-0.308178	-0.127968	-0.218151	-0.0431085	-0.0248975	0.012735	-0.287239	0.117455	
4.03442	5	0	-0.611725	-0.0591477	-0.275144	0.0752832	-0.66248	0.028844	-0.284028	0.104941	-0.512352	-0.0194675	-0.25405	0.092281	-0.494212	-0.0281615	-0.468022	0.061702	-0.265777	-0.428212	-0.542725	-0.32738	-0.306422	-0.260721	-0.0984435	-0.387275	-0.318804	-0.13795	-0.216713	-0.0571853	-0.0332942	0.000439	-0.286478	0.100409	
4.039	5	0	-0.611386	-0.090792	-0.279996	0.056518	-0.666989	0.006054	-0.285486	0.081852	-0.520491	-0.036104	-0.257593	0.07785	-0.506434	-0.054159	-0.467862	0.047166	-0.27398	-0.444117	-0.528245	-0.336842	-0.31333	-0.277703	-0.107208	-0.397029	-0.329429	-0.147933	-0.215274	-0.071262	-0.041691	-0.011857	-0.285717	0.083364	
4.0451	5	0	-0.618279	-0.101945	-0.277925	0.0398515	-0.663847	-0.0146565	-0.286187	0.065715	-0.525759	-0.052865	-0.26114	0.0634625	-0.51402	-0.083018	-0.466056	0.0279893	-0.283118	-0.467039	-0.524836	-0.346476	-0.318595	-0.299255	-0.114184	-0.411772	-0.330006	-0.15962	-0.22477	-0.0744248	-0.050077	-0.0241137	-0.29485	0.079422	
4.0451	5	0	-0.625173	-0.113099	-0.275853	0.023185	-0.660705	-0.035367	-0.286888	0.049578	-0.531027	-0.069626	-0.264686	0.049075	-0.521607	-0.111877	-0.46425	0.0088125	-0.292255	-0.489961	-0.521427	-0.35611	-0.323859	-0.320808	-0.121161	-0.426516	-0.330583	-0.171308	-0.234266	-0.0775875	-0.058463	-0.0363705	-0.303983	0.07548	
4.0451	5	0	-0.632066	-0.124253	-0.273782	0.0065185	-0.657562	-0.0560775	-0.28759	0.033441	-0.536295	-0.086387	-0.268232	0.0346875	-0.529193	-0.140736	-0.462444	-0.0103642	-0.301392	-0.512883	-0.518019	-0.365744	-0.329124	-0.34236	-0.128137	-0.44126	-0.33116	-0.182995	-0.243763	-0.0807502	-0.066849	-0.0486273	-0.313116	0.071538	
4.04816	5	0	-0.638959	-0.135406	-0.271711	-0.010148	-0.65442	-0.076788	-0.288291	0.017304	-0.541563	-0.103148	-0.271779	0.0203	-0.536779	-0.169595	-0.460638	-0.029541	-0.31053	-0.535805	-0.51461	-0.375378	-0.334389	-0.363912	-0.135113	-0.456003	-0.331737	-0.194682	-0.253259	-0.083913	-0.075235	-0.060884	-0.322249	0.067596	
4.04816	5	0	-0.636081	-0.143539	-0.267691	-0.0215103	-0.652277	-0.0828445	-0.284902	0.007727	-0.54706	-0.111314	-0.272276	0.0095105	-0.545953	-0.183811	-0.473429	-0.0355468	-0.314247	-0.554487	-0.520585	-0.389955	-0.339571	-0.376545	-0.143855	-0.465694	-0.337333	-0.205475	-0.251831	-0.0979403	-0.0753555	-0.0784963	-0.328334	0.0550878	
4.04358	5	0	-0.633203	-0.151673	-0.263671	-0.0328725	-0.650133	-0.088901	-0.281513	-0.00185	-0.552558	-0.11948	-0.272772	-0.001279	-0.555126	-0.198027	-0.48622	-0.0415525	-0.317963	-0.573169	-0.526559	-0.404532	-0.344753	-0.389178	-0.152597	-0.475384	-0.342929	-0.216267	-0.250402	-0.111967	-0.075476	-0.0961085	-0.334419	0.0425795	
4.03442	5	0	-0.630325	-0.159807	-0.25965	-0.0442348	-0.64799	-0.0949575	-0.278125	-0.011427	-0.558055	-0.127646	-0.273269	-0.0120685	-0.564299	-0.212243	-0.499012	-0.0475582	-0.32168	-0.591851	-0.532533	-0.41911	-0.349934	-0.40181	-0.161339	-0.485075	-0.348526	-0.227059	-0.248973	-0.125995	-0.0755965	-0.113721	-0.340505	0.0300712	
4.02832	5	0	-0.627447	-0.16794	-0.25563	-0.055597	-0.645847	-0.101014	-0.274736	-0.021004	-0.563552	-0.135812	-0.273766	-0.022858	-0.573473	-0.226459	-0.511803	-0.053564	-0.325397	-0.610533	-0.538508	-0.433687	-0.355116	-0.414443	-0.170081	-0.494766	-0.354122	-0.237852	-0.247545	-0.140022	-0.075717	-0.131333	-0.34659	0.017563	
4.02679	5	0	-0.621839	-0.168479	-0.25764	-0.0499177	-0.645847	-0.101014	-0.272261	-0.0189405	-0.562007	-0.140177	-0.266877	-0.0301357	-0.574991	-0.23219	-0.506854	-0.0675507	-0.327225	-0.615085	-0.544481	-0.448216	-0.35348	-0.419067	-0.168311	-0.499768	-0.354122	-0.237852	-0.242947	-0.143026	-0.0839715	-0.125939	-0.345075	0.0132807	
4.01916	5	0	-0.616231	-0.169017	-0.259649	-0.0442385	-0.645847	-0.101014	-0.269786	-0.016877	-0.560463	-0.144542	-0.259987	-0.0374135	-0.576509	-0.237922	-0.501905	-0.0815375	-0.329053	-0.619636	-0.550453	-0.462745	-0.351844	-0.42369	-0.166541	-0.504769	-0.354122	-0.237852	-0.238349	-0.146031	-0.092226	-0.120545	-0.34356	0.0089985	
4.01611	5	0	-0.610622	-0.169555	-0.261659	-0.0385593	-0.645847	-0.101014	-0.267312	-0.0148135	-0.558919	-0.148907	-0.253098	-0.0446913	-0.578027	-0.243653	-0.496956	-0.0955243	-0.330882	-0.624188	-0.556426	-0.477274	-0.350208	-0.428314	-0.164771	-0.509771	-0.354122	-0.237852	-0.233752	-0.149035	-0.100481	-0.115152	-0.342044	0.00471625	
4.01001	5	0	-0.605014	-0.170094	-0.263668	-0.03288	-0.645847	-0.101014	-0.264837	-0.01275	-0.557374	-0.153272	-0.246208	-0.051969	-0.579545	-0.249385	-0.492007	-0.109511	-0.33271	-0.62874	-0.562399	-0.491803	-0.348572	-0.432938	-0.163001	-0.514773	-0.354122	-0.237852	-0.229154	-0.152039	-0.108735	-0.109758	-0.340529	0.000434	
4.0039	5	0	-0.606453	-0.166026	-0.264673	-0.030039	-0.640402	-0.104572	-0.258973	-0.0202625	-0.556602	-0.155454	-0.246208	-0.051969	-0.585671	-0.252099	-0.490359	-0.114169	-0.338062	-0.623328	-0.55732	-0.506157	-0.347662	-0.426421	-0.15863	-0.509937	-0.341287	-0.2342	-0.224254	-0.14589	-0.0971005	-0.106751	-0.331405	0.004353	
4.00085	5	0	-0.607892	-0.161959	-0.265679	-0.027198	-0.634958	-0.10813	-0.253109	-0.027775	-0.55583	-0.157635	-0.246208	-0.051969	-0.591797	-0.254812	-0.488711	-0.118826	-0.343414	-0.617916	-0.552241	-0.520511	-0.346753	-0.419905	-0.154259	-0.5051	-0.328452	-0.230548	-0.219355	-0.139742	-0.085466	-0.103744	-0.322281	0.008272	
3.99933	5	0	-0.609332	-0.157891	-0.266684	-0.024357	-0.629513	-0.111687	-0.247244	-0.0352875	-0.555058	-0.159817	-0.246208	-0.051969	-0.597924	-0.257526	-0.487063	-0.123483	-0.348765	-0.612504	-0.547162	-0.534865	-0.345843	-0.413388	-0.149888	-0.500263	-0.315616	-0.226896	-0.214455	-0.133593	-0.0738315	-0.100737	-0.313156	0.012191	
3.98865	5	0	-0.610771	-0.153824	-0.267689	-0.021516	-0.624069	-0.115245	-0.24138	-0.0428	-0.554286	-0.161999	-0.246208	-0.051969	-0.60405	-0.26024	-0.485415	-0.128141	-0.354117	-0.607092	-0.542083	-0.549219	-0.344933	-0.406871	-0.145517	-0.495427	-0.302781	-0.223244	-0.209556	-0.127444	-0.062197	-0.09773	-0.304032	0.01611	
3.98407	5	0	-0.600982	-0.15083	-0.263718	-0.021926	-0.619692	-0.115777	-0.242227	-0.0404067	-0.553514	-0.16418	-0.249267	-0.0555185	-0.604538	-0.268867	-0.488579	-0.133229	-0.351474	-0.614562	-0.547611	-0.549281	-0.341567	-0.407291	-0.143746	-0.500432	-0.303309	-0.208425	-0.213865	-0.115265	-0.073719	-0.0831195	-0.294892	0.0200335	
3.98559	5	0	-0.591193	-0.147836	-0.259746	-0.022336	-0.615316	-0.116309	-0.243073	-0.0380135	-0.552742	-0.166361	-0.252325	-0.059068	-0.605026	-0.277494	-0.491744	-0.138317	-0.348831	-0.622032	-0.553138	-0.549344	-0.338201	-0.407712	-0.141975	-0.505436	-0.303837	-0.193605	-0.218174	-0.103087	-0.085241	-0.068509	-0.285753	0.023957	
3.98254	5	0	-0.581404	-0.144843	-0.255775	-0.022746	-0.610939	-0.116841	-0.24392	-0.0356202	-0.551971	-0.168542	-0.255383	-0.0626175	-0.605514	-0.286121	-0.494908	-0.143405	-0.346188	-0.629503	-0.558666	-0.549407	-0.334835	-0.408133	-0.140204	-0.510441	-0.304364	-0.178785	-0.222484	-0.0909085	-0.096763	-0.0538985	-0.276613	0.0278805	
3.97949	5	0	-0.571615	-0.141849	-0.251804	-0.023156	-0.606562	-0.117373	-0.244767	-0.033227	-0.551199	-0.170723	-0.258442	-0.066167	-0.606002	-0.294748	-0.498072	-0.148493	-0.343545	-0.636973	-0.564194	-0.549469	-0.331469	-0.408553	-0.138433	-0.515445	-0.304892	-0.163966	-0.226793	-0.07873	-0.108285	-0.039288	-0.267473	0.031804	
3.97491	5	0	-0.566142	-0.126606	-0.246874	-0.0154425	-0.606473	-0.10578	-0.240658	-0.026705	-0.550652	-0.16437	-0.259719	-0.0625595	-0.60806	-0.288932	-0.502879	-0.148927	-0.340836	-0.634915	-0.562504	-0.554246	-0.32801	-0.40013	-0.141976	-0.505433	-0.30209	-0.158548	-0.224776	-0.074424	-0.108285	-0.039288	-0.270513	0.0403953	
3.97644	5	0	-0.560669	-0.111363	-0.241945	-0.007729	-0.606383	-0.094188	-0.236548	-0.020183	-0.550106	-0.158018	-0.260995	-0.058952	-0.610118	-0.283116	-0.507687	-0.149361	-0.338128	-0.632856	-0.560813	-0.559023	-0.324551	-0.391707	-0.145518	-0.495422	-0.299288	-0.153131	-0.222759	-0.070118	-0.108285	-0.039288	-0.273553	0.0489865	
3.97034	5	0	-0.555196	-0.09612	-0.237015	-1.55E-05	-0.606294	-0.0825955	-0.232438	-0.013661	-0.549559	-0.151665	-0.262271	-0.0553445	-0.612176	-0.2773	-0.512494	-0.149794	-0.335419	-0.630798	-0.559123	-0.5638	-0.321093	-0.383283	-0.149061	-0.48541	-0.296485	-0.147713	-0.220743	-0.065812	-0.108285	-0.039288	-0.276593	0.0575778	
3.97644	5	0	-0.549723	-0.080877	-0.232086	0.007698	-0.606205	-0.071003	-0.228329	-0.007139	-0.549013	-0.145312	-0.263548	-0.051737	-0.614234	-0.271484	-0.517301	-0.150228	-0.33271	-0.62874	-0.557433	-0.568577	-0.317634	-0.37486	-0.152604	-0.475398	-0.293683	-0.142295	-0.218726	-0.061506	-0.108285	-0.039288	-0.279633	0.066169	
3.98254	5	0	-0.548602	-0.053284	-0.22721	0.0264335	-0.598429	-0.057402	-0.227616	0.00899925	-0.542967	-0.130777	-0.258711	-0.0410135	-0.606108	-0.254393	-0.515787	-0.140487	-0.328992	-0.610076	-0.571853	-0.559155	-0.311538	-0.355639	-0.143855	-0.465694	-0.295338	-0.12427	-0.211809	-0.0510065	-0.0999153	-0.0270207	-0.273529	0.078721	
3.99475	5	0	-0.547481	-0.025691	-0.222334	0.045169	-0.590652	-0.043801	-0.226903	0.0251375	-0.536921	-0.116242	-0.253873	-0.03029	-0.597983	-0.237301	-0.514273	-0.130745	-0.325274	-0.591413	-0.586272	-0.549732	-0.305442	-0.336418	-0.135107	-0.45599	-0.296994	-0.106245	-0.204891	-0.040507	-0.0915455	-0.0147535	-0.267426	0.091273	
3.99933	5	0	-0.546361	0.001902	-0.217459	0.0639045	-0.582875	-0.0302	-0.22619	0.0412757	-0.530875	-0.101707	-0.249035	-0.0195665	-0.589858	-0.22021	-0.512759	-0.121003	-0.321556	-0.572749	-0.600692	-0.54031	-0.299346	-0.317197	-0.126359	-0.446287	-0.298649	-0.0882192	-0.197973	-0.0300075	-0.0831757	-0.00248625	-0.261323	0.103825	
4.01764	5	0	-0.54524	0.029495	-0.212583	0.08264	-0.575099	-0.016599	-0.225477	0.057414	-0.524829	-0.087172	-0.244198	-0.008843	-0.581732	-0.203119	-0.511245	-0.111262	-0.317838	-0.554085	-0.615112	-0.530888	-0.29325	-0.297976	-0.11761	-0.436583	-0.300304	-0.070194	-0.191056	-0.019508	-0.074806	0.009781	-0.255219	0.116377	
4.0329	5	0	-0.534137	0.044352	-0.208661	0.0932638	-0.573942	-0.007995	-0.224699	0.0642978	-0.521651	-0.0723995	-0.246264	0.00920525	-0.579259	-0.180009	-0.509734	-0.101502	-0.308701	-0.531187	-0.611286	-0.526041	-0.285428	-0.27442	-0.106245	-0.41694	-0.287982	-0.0515353	-0.182978	-0.002195	-0.071346	0.0359942	-0.234582	0.132765	
4.04816	5	0	-0.523033	0.059209	-0.204739	0.103887	-0.572785	0.000609	-0.22392	0.0711815	-0.518474	-0.057627	-0.24833	0.0272535	-0.576787	-0.156899	-0.508223	-0.091742	-0.299565	-0.508289	-0.607461	-0.521194	-0.277606	-0.250864	-0.09488	-0.397298	-0.27566	-0.0328765	-0.174901	0.015118	-0.067886	0.0622075	-0.213945	0.149153	
4.06189	5	0	-0.51193	0.074066	-0.200817	0.114511	-0.571627	0.009213	-0.223141	0.0780653	-0.515297	-0.0428545	-0.250396	0.0453018	-0.574314	-0.13379	-0.506712	-0.081982	-0.290428	-0.485391	-0.603635	-0.516346	-0.269784	-0.227308	-0.083515	-0.377656	-0.263337	-0.0142178	-0.166824	0.032431	-0.064426	0.0884208	-0.193308	0.165542	
4.07867	5	0	-0.500827	0.088923	-0.196895	0.125135	-0.57047	0.017817	-0.222363	0.084949	-0.512119	-0.028082	-0.252462	0.06335	-0.571841	-0.11068	-0.505201	-0.072222	-0.281291	-0.462493	-0.59981	-0.511499	-0.261962	-0.203752	-0.07215	-0.358013	-0.251015	0.004441	-0.158746	0.049744	-0.060966	0.114634	-0.172671	0.18193	
4.09088	5	0	-0.498282	0.112618	-0.197976	0.139053	-0.566002	0.028962	-0.218254	0.0915157	-0.506852	-0.0112508	-0.254543	0.0814488	-0.564288	-0.0817548	-0.507	-0.0530967	-0.273089	-0.446605	-0.597676	-0.501858	-0.257602	-0.188623	-0.0713353	-0.343029	-0.245406	0.0153895	-0.155575	0.0608843	-0.0509418	0.122365	-0.168077	0.198916	
4.10309	5	0	-0.495737	0.136314	-0.199056	0.152971	-0.561534	0.040107	-0.214145	0.0980825	-0.501585	0.0055805	-0.256624	0.0995475	-0.556735	-0.0528295	-0.508798	-0.0339715	-0.264887	-0.430717	-0.595542	-0.492217	-0.253242	-0.173493	-0.0705205	-0.328045	-0.239797	0.026338	-0.152403	0.0720245	-0.0409175	0.130097	-0.163484	0.215902	
4.11529	5	0	-0.493191	0.160009	-0.200137	0.16689	-0.557065	0.051252	-0.210035	0.104649	-0.496318	0.0224117	-0.258705	0.117646	-0.549181	-0.0239043	-0.510597	-0.0148462	-0.256685	-0.414829	-0.593409	-0.482576	-0.248882	-0.158364	-0.0697057	-0.313062	-0.234189	0.0372865	-0.149231	0.0831647	-0.0308932	0.137828	-0.15889	0.232888	
4.13055	5	0	-0.490646	0.183704	-0.201218	0.180808	-0.552597	0.062397	-0.205926	0.111216	-0.491051	0.039243	-0.260786	0.135745	-0.541628	0.005021	-0.512396	0.004279	-0.248483	-0.398941	-0.591275	-0.472935	-0.244522	-0.143235	-0.068891	-0.298078	-0.22858	0.048235	-0.14606	0.094305	-0.020869	0.145559	-0.154296	0.249874	
4.14581	5	0	-0.488121	0.207506	-0.197302	0.191486	-0.549211	0.0766292	-0.20771	0.125356	-0.482909	0.0559527	-0.257252	0.150216	-0.526886	0.0339665	-0.509399	0.0239222	-0.240274	-0.382992	-0.585314	-0.458398	-0.235943	-0.130816	-0.0583235	-0.293323	-0.226898	0.0568953	-0.146651	0.106037	-0.00917825	0.148651	-0.155078	0.267086	
4.16412	5	0	-0.485595	0.231309	-0.193385	0.202164	-0.545824	0.0908615	-0.209495	0.139495	-0.474766	0.0726625	-0.253717	0.164686	-0.512143	0.062912	-0.506401	0.0435655	-0.232065	-0.367043	-0.579354	-0.443861	-0.227364	-0.118396	-0.047756	-0.288568	-0.225216	0.0655555	-0.147243	0.117768	0.0025125	0.151743	-0.155859	0.284297	
4.17938	5	0	-0.48307	0.255111	-0.189469	0.212843	-0.542438	0.105094	-0.21128	0.153635	-0.466624	0.0893723	-0.250183	0.179156	-0.497401	0.0918575	-0.503404	0.0632087	-0.223855	-0.351094	-0.573393	-0.429324	-0.218785	-0.105977	-0.0371885	-0.283813	-0.223534	0.0742157	-0.147835	0.1295	0.0142033	0.154834	-0.156641	0.301509	
4.19311	5	0	-0.480544	0.278913	-0.185553	0.223521	-0.539052	0.119326	-0.213064	0.167774	-0.458481	0.106082	-0.246648	0.193627	-0.482659	0.120803	-0.500407	0.082852	-0.215646	-0.335145	-0.567432	-0.414787	-0.210206	-0.093557	-0.026621	-0.279058	-0.221852	0.082876	-0.148426	0.141232	0.025894	0.157926	-0.157423	0.318721	
4.20685	5	0	-0.480759	0.295009	-0.187667	0.240378	-0.538987	0.131054	-0.214002	0.179527	-0.453999	0.125254	-0.243118	0.208141	-0.472562	0.153001	-0.497422	0.102571	-0.210118	-0.311535	-0.563601	-0.409904	-0.205846	-0.0783335	-0.019622	-0.264154	-0.220172	0.0915515	-0.144389	0.149958	0.0259723	0.175797	-0.149759	0.327103	
4.21905	5	0	-0.480974	0.311106	-0.189781	0.257236	-0.538921	0.142782	-0.21494	0.191279	-0.449518	0.144427	-0.239588	0.222656	-0.462464	0.1852	-0.494436	0.12229	-0.204591	-0.287925	-0.559769	-0.405021	-0.201486	-0.06311	-0.012623	-0.24925	-0.218492	0.100227	-0.140352	0.158685	0.0260505	0.193667	-0.142095	0.335486	
4.22974	5	0	-0.481189	0.327202	-0.191895	0.274093	-0.538855	0.154509	-0.215878	0.203032	-0.445036	0.1636	-0.236057	0.23717	-0.452367	0.217398	-0.491451	0.14201	-0.199063	-0.264314	-0.555937	-0.400138	-0.197126	-0.0478865	-0.005624	-0.234346	-0.216811	0.108902	-0.136315	0.167411	0.0261287	0.211537	-0.134432	0.343868	
4.23584	5	0	-0.481404	0.343298	-0.194009	0.290951	-0.53879	0.166237	-0.216816	0.214785	-0.440554	0.182772	-0.232527	0.251684	-0.442269	0.249596	-0.488465	0.161729	-0.193535	-0.240704	-0.552106	-0.395255	-0.192766	-0.032663	0.001375	-0.219442	-0.215131	0.117578	-0.132278	0.176137	0.026207	0.229408	-0.126768	0.352251	
4.23889	5	0	-0.480156	0.355274	-0.188997	0.287676	-0.54096	0.172368	-0.217672	0.217202	-0.436354	0.186842	-0.235112	0.258989	-0.43202	0.261233	-0.48531	0.166906	-0.191674	-0.226316	-0.544436	-0.38547	-0.196099	-0.0232425	-0.0066105	-0.214224	-0.213453	0.126269	-0.132005	0.185443	0.0212475	0.243424	-0.120639	0.365021	
4.24347	5	0	-0.478908	0.367251	-0.183986	0.284401	-0.543129	0.1785	-0.218527	0.219619	-0.432154	0.190913	-0.237697	0.266294	-0.421772	0.272869	-0.482154	0.172082	-0.189813	-0.211928	-0.536766	-0.375685	-0.199433	-0.013822	-0.014596	-0.209006	-0.211775	0.13496	-0.131733	0.19475	0.016288	0.25744	-0.114511	0.377791	
4.24347	5	0	-0.477661	0.379227	-0.178975	0.281127	-0.545298	0.184632	-0.219382	0.222037	-0.427954	0.194984	-0.240282	0.2736	-0.411523	0.284506	-0.478999	0.177259	-0.187952	-0.19754	-0.529096	-0.3659	-0.202766	-0.0044015	-0.0225815	-0.203789	-0.210097	0.14365	-0.131461	0.204057	0.0113285	0.271456	-0.108382	0.390561	
4.24499	5	0	-0.476413	0.391203	-0.173963	0.277852	-0.547468	0.190763	-0.220238	0.224454	-0.423754	0.199054	-0.242867	0.280905	-0.401274	0.296142	-0.475844	0.182436	-0.186091	-0.183152	-0.521426	-0.356115	-0.206099	0.005019	-0.030567	-0.198571	-0.208419	0.152341	-0.131188	0.213363	0.006369	0.285472	-0.102254	0.403331	
4.24194	5	0	-0.47517	0.403207	-0.181013	0.286886	-0.548553	0.19383	-0.216902	0.224133	-0.422438	0.20331	-0.237225	0.277219	-0.391007	0.307816	-0.479179	0.191861	-0.186063	-0.1734	-0.517587	-0.351213	-0.209493	0.00542575	-0.0367502	-0.198431	-0.213475	0.153197	-0.129441	0.208426	0.008023	0.280798	-0.109181	0.407857	
4.23736	5	0	-0.473928	0.41521	-0.188063	0.295921	-0.549639	0.196898	-0.213567	0.223813	-0.421122	0.207565	-0.231583	0.273532	-0.38074	0.319489	-0.482514	0.201287	-0.186035	-0.163648	-0.513748	-0.346311	-0.212888	0.0058325	-0.0429335	-0.19829	-0.218531	0.154052	-0.127694	0.203489	0.009677	0.276123	-0.116109	0.412384	
4.23126	5	0	-0.472685	0.427214	-0.195112	0.304955	-0.550725	0.199965	-0.210231	0.223493	-0.419806	0.21182	-0.225942	0.269845	-0.370473	0.331162	-0.485849	0.210712	-0.186007	-0.153895	-0.50991	-0.341409	-0.216283	0.00623925	-0.0491168	-0.198149	-0.223587	0.154908	-0.125948	0.198553	0.011331	0.271448	-0.123036	0.416911	
4.22821	5	0	-0.471443	0.439217	-0.202162	0.31399	-0.55181	0.203033	-0.206896	0.223172	-0.41849	0.216076	-0.2203	0.266159	-0.360206	0.342836	-0.489184	0.220138	-0.185979	-0.144143	-0.506071	-0.336507	-0.219677	0.006646	-0.0553	-0.198009	-0.228643	0.155763	-0.124201	0.193616	0.012985	0.266774	-0.129963	0.421437	
4.22211	5	0	-0.474396	0.447563	-0.193155	0.31032	-0.548495	0.205586	-0.204415	0.22527	-0.4135	0.217935	-0.218536	0.273439	-0.355679	0.360617	-0.479534	0.221086	-0.180524	-0.139881	-0.515027	-0.326947	-0.219677	0.006646	-0.0632705	-0.192801	-0.231444	0.150254	-0.124201	0.193616	0.011331	0.271448	-0.12149	0.412543	
4.21448	5	0	-0.477349	0.45591	-0.184148	0.30665	-0.545181	0.208139	-0.201934	0.227369	-0.408511	0.219794	-0.216772	0.28072	-0.351152	0.378398	-0.469884	0.222034	-0.175069	-0.135619	-0.523983	-0.317386	-0.219677	0.006646	-0.071241	-0.187593	-0.234244	0.144744	-0.124201	0.193616	0.009677	0.276123	-0.113017	0.403648	
4.21295	5	0	-0.480303	0.464256	-0.175142	0.30298	-0.541866	0.210692	-0.199453	0.229467	-0.403521	0.221653	-0.215008	0.288	-0.346624	0.396179	-0.460234	0.222983	-0.169615	-0.131356	-0.532939	-0.307825	-0.219677	0.006646	-0.0792115	-0.182385	-0.237044	0.139235	-0.124201	0.193616	0.008023	0.280798	-0.104545	0.394753	
4.21295	5	0	-0.483256	0.472602	-0.166135	0.29931	-0.538551	0.213245	-0.196972	0.231565	-0.398532	0.223512	-0.213244	0.29528	-0.342097	0.41396	-0.450584	0.223931	-0.16416	-0.127094	-0.541895	-0.298265	-0.219677	0.006646	-0.087182	-0.177177	-0.239845	0.133726	-0.124201	0.193616	0.006369	0.285472	-0.096072	0.385859	
4.22363	5	0	-0.487444	0.468921	-0.168092	0.293946	-0.54078	0.207624	-0.197742	0.224632	-0.398532	0.223512	-0.213244	0.29528	-0.340589	0.419902	-0.452255	0.228652	-0.166864	-0.119451	-0.539771	-0.288516	-0.222236	0.00469725	-0.087182	-0.177177	-0.239845	0.133726	-0.125074	0.196084	0.016358	0.275352	-0.106091	0.399124	
4.21295	5	0	-0.491631	0.465241	-0.170049	0.288581	-0.543009	0.202004	-0.198513	0.217699	-0.398532	0.223512	-0.213244	0.29528	-0.339081	0.425843	-0.453925	0.233374	-0.169569	-0.111809	-0.537648	-0.278767	-0.224796	0.0027485	-0.087182	-0.177177	-0.239845	0.133726	-0.125947	0.198552	0.026347	0.265231	-0.11611	0.412388	
4.19922	5	0	-0.495818	0.461561	-0.172006	0.283216	-0.545239	0.196383	-0.199283	0.210765	-0.398532	0.223512	-0.213244	0.29528	-0.337574	0.431785	-0.455596	0.238096	-0.172273	-0.104166	-0.535524	-0.269018	-0.227355	0.00079975	-0.087182	-0.177177	-0.239845	0.133726	-0.126821	0.20102	0.036336	0.255111	-0.126129	0.425653	
4.21295	5	0	-0.500006	0.45788	-0.173963	0.277852	-0.547468	0.190763	-0.200053	0.203832	-0.398532	0.223512	-0.213244	0.29528	-0.336066	0.437727	-0.457267	0.242817	-0.174977	-0.096523	-0.5334	-0.259269	-0.229914	-0.001149	-0.087182	-0.177177	-0.239845	0.133726	-0.127694	0.203488	0.046325	0.24499	-0.136148	0.438918	
4.2099	5	0	-0.502716	0.450037	-0.179911	0.272891	-0.555176	0.18873	-0.200825	0.196908	-0.399064	0.217035	-0.209363	0.284311	-0.329242	0.428649	-0.457267	0.242817	-0.179528	-0.103339	-0.526145	-0.26401	-0.235922	-0.0116893	-0.0879757	-0.192236	-0.243769	0.131402	-0.131458	0.20405	0.03462	0.241868	-0.136148	0.438918	
4.20685	5	0	-0.505427	0.442195	-0.18586	0.26793	-0.562885	0.186697	-0.201597	0.189984	-0.399597	0.210558	-0.205481	0.273342	-0.322418	0.419571	-0.457267	0.242817	-0.184079	-0.110155	-0.518889	-0.268751	-0.241929	-0.0222295	-0.0887695	-0.207294	-0.247693	0.129078	-0.135222	0.204613	0.022915	0.238747	-0.136148	0.438918	
4.19769	5	0	-0.508137	0.434352	-0.191808	0.262969	-0.570593	0.184665	-0.202369	0.183059	-0.40013	0.204081	-0.2016	0.262373	-0.315593	0.410493	-0.457267	0.242817	-0.18863	-0.116972	-0.511633	-0.273492	-0.247937	-0.0327698	-0.0895633	-0.222353	-0.251617	0.126753	-0.138987	0.205175	0.01121	0.235625	-0.136148	0.438918	
4.19311	5	0	-0.510847	0.426509	-0.197756	0.258008	-0.578302	0.182632	-0.203141	0.176135	-0.400662	0.197604	-0.197719	0.251404	-0.308769	0.401415	-0.457267	0.242817	-0.193181	-0.123788	-0.504378	-0.278233	-0.253945	-0.04331	-0.090357	-0.237412	-0.255541	0.124429	-0.142751	0.205737	-0.000495	0.232503	-0.136148	0.438918	
4.17786	5	0	-0.517976	0.431167	-0.201744	0.258404	-0.577218	0.179569	-0.201433	0.171308	-0.395419	0.190768	-0.19207	0.247713	-0.304068	0.398343	-0.457267	0.242817	-0.194106	-0.131006	-0.502668	-0.283064	-0.260778	-0.051478	-0.099108	-0.247236	-0.263381	0.119785	-0.148528	0.201927	-0.0055135	0.228612	-0.145349	0.434855	
4.17633	5	0	-0.525105	0.435825	-0.205733	0.2588	-0.576134	0.176506	-0.199724	0.166481	-0.390176	0.183932	-0.186421	0.244022	-0.299366	0.395271	-0.457267	0.242817	-0.195031	-0.138223	-0.500959	-0.287895	-0.26761	-0.059646	-0.107859	-0.257061	-0.27122	0.115141	-0.154305	0.198118	-0.010532	0.22472	-0.15455	0.430793	
4.19311	5	0	-0.532233	0.440483	-0.209722	0.259196	-0.575051	0.173443	-0.198016	0.161653	-0.384933	0.177097	-0.180772	0.24033	-0.294665	0.3922	-0.457267	0.242817	-0.195956	-0.145441	-0.49925	-0.292727	-0.274443	-0.067814	-0.11661	-0.266885	-0.27906	0.110497	-0.160081	0.194308	-0.0155505	0.220829	-0.163751	0.426731	
4.17328	5	0	-0.539362	0.445141	-0.21371	0.259592	-0.573967	0.17038	-0.196308	0.156826	-0.37969	0.170261	-0.175123	0.236639	-0.289964	0.389128	-0.457267	0.242817	-0.196881	-0.152659	-0.49754	-0.297558	-0.281276	-0.075982	-0.125361	-0.276709	-0.286899	0.105853	-0.165858	0.190498	-0.020569	0.216938	-0.172952	0.422668	
4.15954	5	0	-0.537888	0.440977	-0.207687	0.253447	-0.572883	0.167318	-0.195454	0.154413	-0.376554	0.161397	-0.166885	0.22564	-0.292541	0.386196	-0.447425	0.229128	-0.202327	-0.156913	-0.49754	-0.297558	-0.284722	-0.0845397	-0.12179	-0.2868	-0.28745	0.0940245	-0.167001	0.183669	-0.015625	0.202966	-0.175233	0.414098	
4.17175	5	0	-0.536415	0.436812	-0.201665	0.247302	-0.5718	0.164255	-0.194601	0.152	-0.373417	0.152533	-0.158647	0.214641	-0.295118	0.383264	-0.437583	0.21544	-0.207774	-0.161167	-0.49754	-0.297558	-0.288168	-0.0930975	-0.11822	-0.296891	-0.288	0.082196	-0.168145	0.176839	-0.010681	0.188993	-0.177513	0.405528	
4.15344	5	0	-0.534942	0.432648	-0.195642	0.241158	-0.570716	0.161193	-0.193747	0.149588	-0.370281	0.143669	-0.15041	0.203643	-0.297694	0.380332	-0.427741	0.201751	-0.213221	-0.165422	-0.49754	-0.297558	-0.291613	-0.101655	-0.11465	-0.306982	-0.288551	0.0703675	-0.169288	0.17001	-0.005737	0.175021	-0.179793	0.396959	
4.14886	5	0	-0.533468	0.428484	-0.189619	0.235013	-0.569633	0.158131	-0.192893	0.147175	-0.367144	0.134805	-0.142172	0.192644	-0.300271	0.3774	-0.417899	0.188062	-0.218667	-0.169676	-0.49754	-0.297558	-0.295059	-0.110213	-0.111079	-0.317073	-0.289102	0.058539	-0.170431	0.163181	-0.000793	0.161049	-0.182074	0.388389	
4.14276	5	0	-0.540351	0.416996	-0.189545	0.223929	-0.567535	0.140304	-0.191113	0.133042	-0.371897	0.124301	-0.1496	0.189082	-0.304817	0.359638	-0.427561	0.187125	-0.223211	-0.176461	-0.495831	-0.302387	-0.299332	-0.116416	-0.123387	-0.31678	-0.291897	0.0530625	-0.168689	0.158258	-0.00252375	0.147884	-0.172081	0.375161	
4.13666	5	0	-0.547233	0.405508	-0.189472	0.212844	-0.565436	0.122476	-0.189332	0.118908	-0.376649	0.113797	-0.157029	0.185521	-0.309363	0.341877	-0.437222	0.186188	-0.227755	-0.183246	-0.494123	-0.307215	-0.303604	-0.122619	-0.135695	-0.316487	-0.294692	0.047586	-0.166947	0.153335	-0.0042545	0.134718	-0.162087	0.361933	
4.13055	5	0	-0.554115	0.394019	-0.189398	0.20176	-0.563338	0.104649	-0.187551	0.104774	-0.381402	0.103294	-0.164458	0.181959	-0.313909	0.324115	-0.446883	0.185251	-0.232299	-0.19003	-0.492414	-0.312044	-0.307877	-0.128822	-0.148004	-0.316193	-0.297487	0.0421095	-0.165205	0.148412	-0.00598525	0.121552	-0.152093	0.348705	
4.13055	5	0	-0.560998	0.382531	-0.189324	0.190675	-0.56124	0.086822	-0.185771	0.090641	-0.386154	0.09279	-0.171886	0.178397	-0.318455	0.306353	-0.456545	0.184314	-0.236843	-0.196815	-0.490706	-0.316873	-0.31215	-0.135025	-0.160312	-0.3159	-0.300282	0.036633	-0.163463	0.143489	-0.007716	0.108387	-0.1421	0.335477	
4.13055	5	0	-0.562236	0.370578	-0.188242	0.176748	-0.561314	0.0751397	-0.18485	0.0789415	-0.386458	0.077711	-0.165441	0.160183	-0.323006	0.288658	-0.451546	0.170187	-0.245921	-0.210349	-0.488998	-0.321699	-0.31649	-0.150144	-0.161118	-0.330846	-0.306987	0.0288602	-0.169234	0.139697	-0.017747	0.100675	-0.158196	0.335959	
4.12903	5	0	-0.563473	0.358625	-0.187161	0.162821	-0.561387	0.0634575	-0.183929	0.067242	-0.386763	0.062632	-0.158996	0.141968	-0.327558	0.270962	-0.446548	0.15606	-0.254999	-0.223884	-0.48729	-0.326525	-0.32083	-0.165263	-0.161923	-0.345792	-0.313692	0.0210875	-0.175005	0.135904	-0.027778	0.092963	-0.174292	0.336442	
4.1275	5	0	-0.564711	0.346671	-0.186079	0.148893	-0.56146	0.0517752	-0.183008	0.0555425	-0.387068	0.047553	-0.152551	0.123753	-0.33211	0.253267	-0.44155	0.141934	-0.264078	-0.237418	-0.485583	-0.331351	-0.32517	-0.180381	-0.162728	-0.360737	-0.320398	0.0133148	-0.180777	0.132111	-0.037809	0.085251	-0.190388	0.336924	
4.12903	5	0	-0.565949	0.334718	-0.184997	0.134966	-0.561534	0.040093	-0.182087	0.043843	-0.387372	0.032474	-0.146106	0.105539	-0.336661	0.235571	-0.436551	0.127807	-0.273156	-0.250952	-0.483875	-0.336177	-0.32951	-0.1955	-0.163534	-0.375683	-0.327103	0.005542	-0.186548	0.128319	-0.04784	0.077539	-0.206484	0.337406	
4.12903	5	0	-0.561551	0.322288	-0.182972	0.129241	-0.559377	0.033997	-0.179536	0.0366343	-0.387138	0.023848	-0.147891	0.098317	-0.340752	0.226788	-0.438052	0.117944	-0.280403	-0.25981	-0.487718	-0.34108	-0.331307	-0.208656	-0.164348	-0.390589	-0.3338	-0.00221425	-0.191445	0.122076	-0.0661232	0.0752485	-0.212583	0.324698	
4.13055	5	0	-0.557153	0.309859	-0.180946	0.123517	-0.55722	0.027901	-0.176986	0.0294255	-0.386904	0.015222	-0.149676	0.091095	-0.344842	0.218004	-0.439553	0.108081	-0.28765	-0.268669	-0.491561	-0.345983	-0.333103	-0.221811	-0.165162	-0.405494	-0.340498	-0.0099705	-0.196342	0.115833	-0.0844065	0.072958	-0.218683	0.311991	
4.1275	5	0	-0.552755	0.29743	-0.17892	0.117792	-0.555063	0.021805	-0.174435	0.0222168	-0.386671	0.006596	-0.15146	0.083873	-0.348933	0.209221	-0.441054	0.0982188	-0.294897	-0.277527	-0.495404	-0.350887	-0.3349	-0.234967	-0.165976	-0.420399	-0.347195	-0.0177267	-0.201238	0.10959	-0.10269	0.0706675	-0.224782	0.299283	
4.12903	5	0	-0.548357	0.285	-0.176895	0.112067	-0.552906	0.015709	-0.171884	0.015008	-0.386437	-0.00203	-0.153245	0.076651	-0.353024	0.200437	-0.442555	0.088356	-0.302144	-0.286386	-0.499247	-0.35579	-0.336697	-0.248123	-0.16679	-0.435305	-0.353893	-0.025483	-0.206135	0.103347	-0.120973	0.068377	-0.230881	0.286575	
4.12598	5	0	-0.552534	0.281366	-0.175882	0.109206	-0.550751	0.00961725	-0.174369	0.0129395	-0.385428	-0.0128435	-0.143744	0.0620645	-0.357113	0.191672	-0.439232	0.0789653	-0.303071	-0.293536	-0.495838	-0.365424	-0.341788	-0.25195	-0.17906	-0.434993	-0.355567	-0.0340797	-0.20728	0.0965503	-0.117702	0.0591322	-0.224748	0.269242	
4.13208	5	0	-0.55671	0.277732	-0.17487	0.106345	-0.548595	0.0035255	-0.176854	0.010871	-0.384418	-0.023657	-0.134242	0.047478	-0.361203	0.182907	-0.435909	0.0695745	-0.303998	-0.300686	-0.492429	-0.375057	-0.34688	-0.255777	-0.191329	-0.434682	-0.357241	-0.0426765	-0.208425	0.0897535	-0.11443	0.0498875	-0.218615	0.25191	
4.12292	5	0	-0.560886	0.274098	-0.173857	0.103484	-0.546439	-0.00256625	-0.17934	0.0088025	-0.383409	-0.0344705	-0.124741	0.0328915	-0.365293	0.174142	-0.432587	0.0601838	-0.304925	-0.307836	-0.489021	-0.384691	-0.351971	-0.259604	-0.203599	-0.43437	-0.358915	-0.0512732	-0.20957	0.0829567	-0.111159	0.0406427	-0.212482	0.234577	
4.12445	5	0	-0.565063	0.270464	-0.172845	0.100623	-0.544284	-0.008658	-0.181825	0.006734	-0.3824	-0.045284	-0.11524	0.018305	-0.369382	0.165377	-0.429264	0.050793	-0.305852	-0.314986	-0.485612	-0.394325	-0.357062	-0.263431	-0.215869	-0.434059	-0.360589	-0.05987	-0.210715	0.07616	-0.107888	0.031398	-0.206349	0.217245	
4.1214	5	0	-0.571946	0.25908	-0.176775	0.0900085	-0.543295	-0.023335	-0.180067	-0.007322	-0.387163	-0.055687	-0.121393	0.0111707	-0.372891	0.144852	-0.435598	0.0405153	-0.31398	-0.321292	-0.487755	-0.404019	-0.360505	-0.271898	-0.212327	-0.444071	-0.362265	-0.0684518	-0.212728	0.0718223	-0.11125	0.0229475	-0.21017	0.213089	
4.1214	5	0	-0.578829	0.247695	-0.180705	0.079394	-0.542306	-0.038012	-0.17831	-0.021378	-0.391926	-0.06609	-0.127546	0.0040365	-0.376401	0.124328	-0.441931	0.0302375	-0.322109	-0.327599	-0.489898	-0.413714	-0.363949	-0.280365	-0.208784	-0.454083	-0.363941	-0.0770335	-0.214741	0.0674845	-0.114612	0.014497	-0.213991	0.208932	
4.11682	5	0	-0.585712	0.236311	-0.184635	0.0687795	-0.541317	-0.052689	-0.176552	-0.035434	-0.396688	-0.076493	-0.133698	-0.00309775	-0.37991	0.103804	-0.448265	0.0199598	-0.330237	-0.333905	-0.492041	-0.423409	-0.367392	-0.288831	-0.205241	-0.464094	-0.365617	-0.0856153	-0.216754	0.0631468	-0.117974	0.0060465	-0.217811	0.204776	
4.11682	5	0	-0.592595	0.224927	-0.188565	0.058165	-0.540328	-0.067366	-0.174794	-0.04949	-0.401451	-0.086896	-0.139851	-0.010232	-0.38342	0.083279	-0.454599	0.009682	-0.338365	-0.340211	-0.494184	-0.433103	-0.370835	-0.297298	-0.201699	-0.474106	-0.367293	-0.094197	-0.218767	0.058809	-0.121336	-0.002404	-0.221632	0.20062	
4.11377	5	0	-0.590933	0.204831	-0.192495	0.0475757	-0.545884	-0.0754062	-0.173045	-0.0635157	-0.406988	-0.0950825	-0.139083	-0.024652	-0.395782	0.0777023	-0.457764	0.004553	-0.339333	-0.356967	-0.496329	-0.442778	-0.370999	-0.315015	-0.202523	-0.488936	-0.370082	-0.0996232	-0.219914	0.052028	-0.136206	0.0037665	-0.223922	0.192149	
4.11224	5	0	-0.589271	0.184735	-0.196425	0.0369865	-0.55144	-0.0834465	-0.171297	-0.0775415	-0.412524	-0.103269	-0.138316	-0.039072	-0.408143	0.0721255	-0.460928	-0.000576	-0.340302	-0.373723	-0.498475	-0.452453	-0.371163	-0.332732	-0.203347	-0.503766	-0.372871	-0.10505	-0.22106	0.045247	-0.151076	0.009937	-0.226212	0.183677	
4.10919	5	0	-0.58761	0.164639	-0.200354	0.0263972	-0.556996	-0.0914868	-0.169548	-0.0915673	-0.418061	-0.111455	-0.137548	-0.053492	-0.420504	0.0665488	-0.464093	-0.005705	-0.34127	-0.39048	-0.50062	-0.462128	-0.371327	-0.350448	-0.204171	-0.518596	-0.37566	-0.110476	-0.222207	0.038466	-0.165945	0.0161075	-0.228502	0.175206	
4.10461	5	0	-0.585948	0.144543	-0.204284	0.015808	-0.562552	-0.099527	-0.167799	-0.105593	-0.423597	-0.119642	-0.13678	-0.067912	-0.432866	0.060972	-0.467258	-0.010834	-0.342238	-0.407236	-0.502765	-0.471803	-0.371491	-0.368165	-0.204995	-0.533426	-0.378449	-0.115902	-0.223354	0.031685	-0.180815	0.022278	-0.230792	0.166735	
4.10004	5	0	-0.594286	0.137347	-0.206249	0.0105227	-0.559334	-0.108623	-0.172771	-0.109695	-0.419722	-0.130593	-0.134221	-0.0751432	-0.432294	0.0492402	-0.463949	-0.0201852	-0.349467	-0.416007	-0.504912	-0.481459	-0.374121	-0.378896	-0.205827	-0.548216	-0.377908	-0.13073	-0.223637	0.0224687	-0.180907	0.0046385	-0.231557	0.153968	
4.09546	5	0	-0.602625	0.130152	-0.208214	0.0052375	-0.556115	-0.117719	-0.177742	-0.113797	-0.415847	-0.141545	-0.131663	-0.0823745	-0.431721	0.0375085	-0.46064	-0.0295365	-0.356696	-0.424778	-0.507059	-0.491115	-0.37675	-0.389627	-0.20666	-0.563006	-0.377367	-0.145558	-0.22392	0.0132525	-0.181	-0.013001	-0.232322	0.141201	
4.09393	5	0	-0.610963	0.122956	-0.210179	-4.775E-05	-0.552897	-0.126814	-0.182714	-0.1179	-0.411972	-0.152496	-0.129104	-0.0896058	-0.431149	0.0257768	-0.457331	-0.0388877	-0.363926	-0.433548	-0.509207	-0.500771	-0.379379	-0.400358	-0.207493	-0.577796	-0.376826	-0.160386	-0.224204	0.00403625	-0.181092	-0.0306405	-0.233088	0.128434	
4.09088	5	0	-0.619301	0.11576	-0.212144	-0.005333	-0.549678	-0.13591	-0.187686	-0.122002	-0.408097	-0.163447	-0.126545	-0.096837	-0.430577	0.014045	-0.454022	-0.048239	-0.371155	-0.442319	-0.511354	-0.510427	-0.382009	-0.411089	-0.208325	-0.592586	-0.376285	-0.175214	-0.224487	-0.00518	-0.181184	-0.04828	-0.233853	0.115667	
4.0863	5	0	-0.616395	0.107548	-0.209123	-0.0138692	-0.548606	-0.13894	-0.180974	-0.131895	-0.408654	-0.169811	-0.122711	-0.107673	-0.431054	0.00528375	-0.450717	-0.0575807	-0.371202	-0.451911	-0.515196	-0.515279	-0.382099	-0.419909	-0.22056	-0.592245	-0.376861	-0.186877	-0.228515	-0.0138125	-0.173059	-0.0712438	-0.239964	0.103112	
4.08325	5	0	-0.61349	0.099336	-0.206103	-0.0224055	-0.547534	-0.14197	-0.174263	-0.141789	-0.409211	-0.176175	-0.118876	-0.118509	-0.43153	-0.0034775	-0.447411	-0.0669225	-0.371248	-0.461504	-0.519039	-0.520131	-0.382189	-0.428728	-0.232795	-0.591905	-0.377436	-0.19854	-0.232544	-0.022445	-0.164933	-0.0942075	-0.246075	0.0905565	
4.08478	5	0	-0.610584	0.091124	-0.203082	-0.0309418	-0.546462	-0.145	-0.167552	-0.151682	-0.409767	-0.182539	-0.115042	-0.129344	-0.432007	-0.0122388	-0.444106	-0.0762643	-0.371294	-0.471096	-0.522881	-0.524983	-0.38228	-0.437548	-0.245031	-0.591564	-0.378012	-0.210202	-0.236572	-0.0310775	-0.156808	-0.117171	-0.252185	0.0780013	
4.08325	5	0	-0.607678	0.082912	-0.200062	-0.039478	-0.54539	-0.14803	-0.16084	-0.161576	-0.410324	-0.188903	-0.111208	-0.14018	-0.432484	-0.021	-0.440801	-0.085606	-0.371341	-0.480688	-0.526724	-0.529835	-0.38237	-0.446368	-0.257266	-0.591223	-0.378588	-0.221865	-0.2406	-0.03971	-0.148682	-0.140135	-0.258296	0.065446	
4.08172	5	0	-0.617459	0.0798437	-0.20203	-0.0447487	-0.546564	-0.156573	-0.164127	-0.170431	-0.41376	-0.195059	-0.113013	-0.147321	-0.440173	-0.029562	-0.44714	-0.095805	-0.37763	-0.482346	-0.527182	-0.544237	-0.387452	-0.450142	-0.255506	-0.596197	-0.382487	-0.224127	-0.238011	-0.0470272	-0.165136	-0.129384	-0.26211	0.06133	
4.08172	5	0	-0.627239	0.0767755	-0.203997	-0.0500195	-0.547737	-0.165115	-0.167414	-0.179286	-0.417196	-0.201214	-0.114818	-0.154463	-0.447863	-0.038124	-0.453479	-0.106004	-0.383919	-0.484004	-0.52764	-0.55864	-0.392533	-0.453916	-0.253746	-0.601171	-0.386385	-0.22639	-0.235422	-0.0543445	-0.18159	-0.118632	-0.265923	0.057214	
4.0802	5	0	-0.63702	0.0737073	-0.205965	-0.0552902	-0.548911	-0.173657	-0.170701	-0.188141	-0.420631	-0.20737	-0.116622	-0.161604	-0.455552	-0.046686	-0.459818	-0.116203	-0.390209	-0.485661	-0.528099	-0.573043	-0.397615	-0.45769	-0.251986	-0.606145	-0.390284	-0.228652	-0.232832	-0.0616618	-0.198044	-0.10788	-0.269737	0.053098	
4.08325	5	0	-0.646801	0.070639	-0.207933	-0.060561	-0.550085	-0.1822	-0.173988	-0.196996	-0.424067	-0.213526	-0.118427	-0.168745	-0.463242	-0.055248	-0.466157	-0.126402	-0.396498	-0.487319	-0.528557	-0.587445	-0.402697	-0.461464	-0.250226	-0.611119	-0.394183	-0.230914	-0.230243	-0.068979	-0.214498	-0.097129	-0.273551	0.048982	
4.08325	5	0	-0.643902	0.0624457	-0.208897	-0.0686637	-0.55233	-0.187707	-0.178959	-0.201073	-0.423082	-0.224237	-0.123312	-0.179398	-0.470921	-0.0637902	-0.470846	-0.141222	-0.40278	-0.488976	-0.536237	-0.597097	-0.411941	-0.462511	-0.254577	-0.615917	-0.401398	-0.223796	-0.233121	-0.0708462	-0.212875	-0.101715	-0.273551	0.048982	
4.09088	5	0	-0.641003	0.0542525	-0.20986	-0.0767665	-0.554575	-0.193214	-0.183931	-0.20515	-0.422097	-0.234947	-0.128198	-0.190051	-0.4786	-0.0723325	-0.475534	-0.156043	-0.409062	-0.490634	-0.543917	-0.60675	-0.421184	-0.463558	-0.258929	-0.620715	-0.408612	-0.216677	-0.235998	-0.0727135	-0.211253	-0.1063	-0.273551	0.048982	
4.08783	5	0	-0.638104	0.0460592	-0.210823	-0.0848693	-0.556821	-0.198721	-0.188903	-0.209227	-0.421112	-0.245657	-0.133083	-0.200704	-0.48628	-0.0808747	-0.480223	-0.170864	-0.415345	-0.492291	-0.551596	-0.616402	-0.430427	-0.464606	-0.26328	-0.625513	-0.415826	-0.209559	-0.238876	-0.0745808	-0.20963	-0.110886	-0.273551	0.048982	
4.09546	5	0	-0.635205	0.037866	-0.211787	-0.092972	-0.559066	-0.204228	-0.193874	-0.213304	-0.420127	-0.256368	-0.137968	-0.211357	-0.493959	-0.089417	-0.484912	-0.185684	-0.421627	-0.493948	-0.559276	-0.626054	-0.439671	-0.465653	-0.267631	-0.630311	-0.423041	-0.20244	-0.241754	-0.076448	-0.208008	-0.115472	-0.273551	0.048982	
4.09241	5	0	-0.635205	0.037866	-0.212791	-0.0901337	-0.553611	-0.207792	-0.189703	-0.216029	-0.42146	-0.260525	-0.135423	-0.21855	-0.49444	-0.0981275	-0.486436	-0.195396	-0.418094	-0.503932	-0.570777	-0.640486	-0.434689	-0.470679	-0.262363	-0.645199	-0.419722	-0.211819	-0.247505	-0.0801795	-0.214601	-0.114687	-0.277363	0.0448708	
4.10004	5	0	-0.635205	0.037866	-0.213795	-0.0872955	-0.548156	-0.211357	-0.185533	-0.218754	-0.422793	-0.264682	-0.132878	-0.225744	-0.494922	-0.106838	-0.487961	-0.205108	-0.414562	-0.513916	-0.582278	-0.654918	-0.429708	-0.475704	-0.257095	-0.660088	-0.416404	-0.221199	-0.253256	-0.083911	-0.221195	-0.113903	-0.281174	0.0407595	
4.10919	5	0	-0.635205	0.037866	-0.2148	-0.0844572	-0.542701	-0.214921	-0.181362	-0.221479	-0.424126	-0.268839	-0.130332	-0.232938	-0.495403	-0.115548	-0.489485	-0.214821	-0.411029	-0.5239	-0.593779	-0.669351	-0.424727	-0.48073	-0.251827	-0.674976	-0.413085	-0.230578	-0.259007	-0.0876425	-0.227788	-0.113119	-0.284986	0.0366483	
4.11987	5	0	-0.635205	0.037866	-0.215804	-0.081619	-0.537246	-0.218485	-0.177192	-0.224204	-0.425459	-0.272996	-0.127787	-0.240131	-0.495884	-0.124259	-0.491009	-0.224533	-0.407496	-0.533884	-0.60528	-0.683783	-0.419745	-0.485756	-0.246559	-0.689865	-0.409766	-0.239957	-0.264758	-0.091374	-0.234381	-0.112334	-0.288797	0.032537	
4.13513	5	0	-0.636654	0.0419617	-0.212831	-0.0791955	-0.533927	-0.216005	-0.177192	-0.224204	-0.424126	-0.268839	-0.13341	-0.236457	-0.493325	-0.12142	-0.495816	-0.224958	-0.408379	-0.531389	-0.620112	-0.688684	-0.421375	-0.481149	-0.25442	-0.684728	-0.40866	-0.243081	-0.263036	-0.0962407	-0.23276	-0.116915	-0.285761	0.0239583	
4.15039	5	0	-0.638103	0.0460575	-0.209858	-0.076772	-0.530608	-0.213526	-0.177192	-0.224204	-0.422793	-0.264682	-0.139033	-0.232783	-0.490766	-0.118581	-0.500622	-0.225383	-0.409262	-0.528894	-0.634943	-0.693585	-0.423005	-0.476542	-0.262281	-0.679592	-0.407555	-0.246206	-0.261314	-0.101107	-0.231139	-0.121496	-0.282726	0.0153795	
4.16565	5	0	-0.639552	0.0501532	-0.206885	-0.0743485	-0.527289	-0.211046	-0.177192	-0.224204	-0.42146	-0.260525	-0.144656	-0.229108	-0.488208	-0.115742	-0.505429	-0.225808	-0.410144	-0.526399	-0.649775	-0.698487	-0.424636	-0.471935	-0.270142	-0.674455	-0.40645	-0.24933	-0.259592	-0.105974	-0.229518	-0.126077	-0.27969	0.00680075	
4.17786	5	0	-0.641001	0.054249	-0.203912	-0.071925	-0.52397	-0.208566	-0.177192	-0.224204	-0.420127	-0.256368	-0.150279	-0.225434	-0.485649	-0.112903	-0.510236	-0.226233	-0.411027	-0.523904	-0.664607	-0.703388	-0.426266	-0.467328	-0.278003	-0.669319	-0.405344	-0.252454	-0.25787	-0.110841	-0.227897	-0.130658	-0.276654	-0.001778	
4.19159	5	0	-0.642451	0.0583465	-0.204917	-0.069084	-0.530499	-0.201975	-0.177192	-0.224204	-0.419567	-0.250024	-0.147201	-0.221915	-0.490845	-0.098217	-0.510236	-0.226233	-0.40651	-0.517257	-0.673914	-0.70823	-0.42119	-0.463556	-0.264029	-0.674637	-0.402554	-0.247069	-0.254133	-0.111412	-0.221303	-0.131445	-0.271322	-0.0019655	
4.19922	5	0	-0.643901	0.062444	-0.205923	-0.066243	-0.537027	-0.195383	-0.177192	-0.224204	-0.419006	-0.243681	-0.144124	-0.218395	-0.496042	-0.083531	-0.510236	-0.226233	-0.401994	-0.51061	-0.683221	-0.713073	-0.416114	-0.459784	-0.250055	-0.679955	-0.399763	-0.241684	-0.250397	-0.111983	-0.214709	-0.132232	-0.265989	-0.002153	
4.2099	5	0	-0.645351	0.0665415	-0.206928	-0.063402	-0.543556	-0.188792	-0.177192	-0.224204	-0.418446	-0.237338	-0.141046	-0.214876	-0.501238	-0.068845	-0.510236	-0.226233	-0.397477	-0.503962	-0.692529	-0.717916	-0.411037	-0.456011	-0.23608	-0.685272	-0.396973	-0.236299	-0.24666	-0.112555	-0.208115	-0.133018	-0.260657	-0.0023405	
4.216	5	0	-0.646801	0.070639	-0.207933	-0.060561	-0.550085	-0.1822	-0.177192	-0.224204	-0.417886	-0.230994	-0.137968	-0.211357	-0.506434	-0.054159	-0.510236	-0.226233	-0.392961	-0.497315	-0.701836	-0.722758	-0.405961	-0.452239	-0.222106	-0.69059	-0.394183	-0.230914	-0.242923	-0.113126	-0.201521	-0.133805	-0.255325	-0.002528	
4.21753	5	0	-0.648251	0.0747382	-0.209945	-0.0548765	-0.550085	-0.1822	-0.177192	-0.224204	-0.422307	-0.226427	-0.143591	-0.207683	-0.505394	-0.057098	-0.510236	-0.226233	-0.399198	-0.489397	-0.705647	-0.727541	-0.40841	-0.445317	-0.223862	-0.685627	-0.393608	-0.219259	-0.241769	-0.106393	-0.204765	-0.124636	-0.253026	0.00587025	
4.22058	5	0	-0.649702	0.0788375	-0.211956	-0.049192	-0.550085	-0.1822	-0.177192	-0.224204	-0.426728	-0.221859	-0.149214	-0.204008	-0.504355	-0.060037	-0.510236	-0.226233	-0.405435	-0.481478	-0.709458	-0.732324	-0.41086	-0.438395	-0.225618	-0.680665	-0.393033	-0.207605	-0.240615	-0.09966	-0.20801	-0.115467	-0.250727	0.0142685	
4.22211	5	0	-0.651153	0.0829368	-0.213968	-0.0435075	-0.550085	-0.1822	-0.177192	-0.224204	-0.431149	-0.217291	-0.154837	-0.200334	-0.503315	-0.062976	-0.510236	-0.226233	-0.411672	-0.47356	-0.71327	-0.737106	-0.413309	-0.431473	-0.227374	-0.675702	-0.392457	-0.19595	-0.23946	-0.092927	-0.211254	-0.106298	-0.248429	0.0226667	
4.22363	5	0	-0.652603	0.087036	-0.215979	-0.037823	-0.550085	-0.1822	-0.177192	-0.224204	-0.43557	-0.212724	-0.16046	-0.19666	-0.502275	-0.065915	-0.510236	-0.226233	-0.417909	-0.465641	-0.717081	-0.741889	-0.415758	-0.424551	-0.22913	-0.670739	-0.391882	-0.184296	-0.238306	-0.086194	-0.214498	-0.097129	-0.24613	0.031065	
4.22211	5	0	-0.64699	0.0865215	-0.212	-0.0382367	-0.546768	-0.179714	-0.178034	-0.221823	-0.429817	-0.213125	-0.154837	-0.200334	-0.500758	-0.060125	-0.505429	-0.225808	-0.414326	-0.46606	-0.715409	-0.746615	-0.412402	-0.424969	-0.22913	-0.670739	-0.390774	-0.187428	-0.236583	-0.0910647	-0.204652	-0.107088	-0.251466	0.0312497	
4.22363	5	0	-0.641377	0.086007	-0.20802	-0.0386505	-0.543451	-0.177229	-0.178877	-0.219442	-0.424064	-0.213527	-0.149214	-0.204008	-0.499242	-0.054335	-0.500622	-0.225383	-0.410742	-0.466479	-0.713736	-0.751341	-0.409046	-0.425387	-0.22913	-0.670739	-0.389665	-0.190559	-0.234859	-0.0959355	-0.194807	-0.117046	-0.256802	0.0314345	
4.21905	5	0	-0.635764	0.0854925	-0.204041	-0.0390643	-0.540134	-0.174743	-0.17972	-0.217061	-0.41831	-0.213928	-0.143591	-0.207683	-0.497725	-0.048545	-0.495816	-0.224958	-0.407158	-0.466898	-0.712063	-0.756068	-0.405691	-0.425805	-0.22913	-0.670739	-0.388557	-0.193691	-0.233135	-0.100806	-0.184962	-0.127005	-0.262137	0.0316193	
4.21295	5	0	-0.630151	0.084978	-0.200062	-0.039478	-0.536817	-0.172257	-0.180562	-0.21468	-0.412557	-0.214329	-0.137968	-0.211357	-0.496208	-0.042755	-0.491009	-0.224533	-0.403575	-0.467317	-0.710391	-0.760794	-0.402335	-0.426223	-0.22913	-0.670739	-0.387449	-0.196823	-0.231412	-0.105677	-0.175116	-0.136964	-0.267473	0.031804	
4.21295	5	0	-0.625985	0.0885665	-0.198094	-0.034201	-0.535643	-0.163708	-0.179762	-0.207875	-0.409894	-0.205985	-0.136163	-0.204233	-0.49422	-0.0282058	-0.494294	-0.21525	-0.394584	-0.463572	-0.717544	-0.75612	-0.396436	-0.424751	-0.230887	-0.665773	-0.388557	-0.193691	-0.232274	-0.103242	-0.176738	-0.132379	-0.267473	0.031804	
4.20685	5	0	-0.621819	0.092155	-0.196126	-0.028924	-0.534469	-0.15516	-0.178962	-0.20107	-0.40723	-0.197641	-0.134358	-0.197108	-0.492231	-0.0136565	-0.497579	-0.205966	-0.385593	-0.459828	-0.724697	-0.751447	-0.390537	-0.423278	-0.232644	-0.660807	-0.389665	-0.190559	-0.233135	-0.100807	-0.178361	-0.127793	-0.267473	0.031804	
4.20074	5	0	-0.617654	0.0957435	-0.194159	-0.023647	-0.533294	-0.146612	-0.178162	-0.194266	-0.404566	-0.189297	-0.132553	-0.189984	-0.490243	0.00089275	-0.500863	-0.196683	-0.376601	-0.456083	-0.731849	-0.746773	-0.384637	-0.421805	-0.234401	-0.655842	-0.390774	-0.187428	-0.233997	-0.098372	-0.179983	-0.123207	-0.267473	0.031804	
4.19159	5	0	-0.613488	0.099332	-0.192191	-0.01837	-0.53212	-0.138063	-0.177362	-0.187461	-0.401903	-0.180953	-0.130748	-0.18286	-0.488255	0.015442	-0.504148	-0.1874	-0.36761	-0.452338	-0.739002	-0.7421	-0.378738	-0.420333	-0.236158	-0.650876	-0.391882	-0.184296	-0.234859	-0.095937	-0.181606	-0.118622	-0.267473	0.031804	
4.18854	5	0	-0.616395	0.107548	-0.196223	-0.0069755	-0.534266	-0.131998	-0.178205	-0.185077	-0.400015	-0.170403	-0.128944	-0.175725	-0.484183	0.024124	-0.507436	-0.178107	-0.368453	-0.440225	-0.739002	-0.7421	-0.375288	-0.411921	-0.223917	-0.651234	-0.389092	-0.178891	-0.23198	-0.0940722	-0.184854	-0.109443	-0.262137	0.0316193	
4.18548	5	0	-0.619302	0.115764	-0.200255	0.004419	-0.536412	-0.125933	-0.179049	-0.182692	-0.398127	-0.159853	-0.12714	-0.168591	-0.480111	0.032806	-0.510725	-0.168814	-0.369297	-0.428112	-0.739002	-0.7421	-0.371838	-0.403509	-0.211676	-0.651591	-0.386302	-0.173485	-0.229102	-0.0922075	-0.188101	-0.100265	-0.256802	0.0314345	
4.17938	5	0	-0.622209	0.123979	-0.204286	0.0158135	-0.538558	-0.119868	-0.179893	-0.180308	-0.39624	-0.149302	-0.125335	-0.161456	-0.476039	0.041488	-0.514013	-0.159521	-0.37014	-0.415999	-0.739002	-0.7421	-0.368388	-0.395096	-0.199435	-0.651949	-0.383513	-0.168079	-0.226223	-0.0903427	-0.191349	-0.0910865	-0.251466	0.0312497	
4.16717	5	0	-0.625116	0.132195	-0.208318	0.027208	-0.540704	-0.113803	-0.180736	-0.177924	-0.394352	-0.138752	-0.123531	-0.154321	-0.471967	0.05017	-0.517301	-0.150228	-0.370984	-0.403886	-0.739002	-0.7421	-0.364938	-0.386684	-0.187194	-0.652306	-0.380723	-0.162674	-0.223344	-0.088478	-0.194597	-0.081908	-0.24613	0.031065	
4.1626	5	0	-0.625116	0.132195	-0.208318	0.027208	-0.540704	-0.113803	-0.180736	-0.177924	-0.391469	-0.13895	-0.123531	-0.154321	-0.471967	0.05017	-0.512494	-0.149794	-0.36828	-0.401794	-0.733522	-0.742047	-0.365757	-0.384369	-0.188954	-0.647332	-0.379043	-0.154122	-0.225069	-0.0836033	-0.191244	-0.073501	-0.243833	0.0394782	
4.15649	5	0	-0.625116	0.132195	-0.208318	0.027208	-0.540704	-0.113803	-0.180736	-0.177924	-0.388587	-0.139149	-0.123531	-0.154321	-0.471967	0.05017	-0.507687	-0.149361	-0.365576	-0.399703	-0.728042	-0.741995	-0.366576	-0.382055	-0.190713	-0.642358	-0.377363	-0.14557	-0.226793	-0.0787285	-0.187891	-0.065094	-0.241535	0.0478915	
4.14886	5	0	-0.625116	0.132195	-0.208318	0.027208	-0.540704	-0.113803	-0.180736	-0.177924	-0.385705	-0.139347	-0.123531	-0.154321	-0.471967	0.05017	-0.502879	-0.148927	-0.362872	-0.397612	-0.722561	-0.741942	-0.367395	-0.37974	-0.192473	-0.637384	-0.375684	-0.137017	-0.228518	-0.0738537	-0.184537	-0.056687	-0.239237	0.0563048	
4.14276	5	0	-0.625116	0.132195	-0.208318	0.027208	-0.540704	-0.113803	-0.180736	-0.177924	-0.382822	-0.139545	-0.123531	-0.154321	-0.471967	0.05017	-0.498072	-0.148493	-0.360168	-0.39552	-0.717081	-0.741889	-0.368214	-0.377425	-0.194233	-0.63241	-0.374004	-0.128465	-0.230243	-0.068979	-0.181184	-0.04828	-0.23694	0.064718	
4.13971	5	0	-0.619495	0.131682	-0.205345	0.0296495	-0.537386	-0.111305	-0.17825	-0.175881	-0.379938	-0.139744	-0.123531	-0.154321	-0.464755	0.0499997	-0.491614	-0.152713	-0.356574	-0.395938	-0.711595	-0.741838	-0.36485	-0.377843	-0.192473	-0.637384	-0.372893	-0.131605	-0.233983	-0.0684093	-0.179557	-0.0528775	-0.23694	0.064718	
4.13208	5	0	-0.613873	0.131169	-0.202371	0.032091	-0.534069	-0.108808	-0.175763	-0.173838	-0.377054	-0.139943	-0.123531	-0.154321	-0.457543	0.0498295	-0.485156	-0.156932	-0.35298	-0.396357	-0.70611	-0.741786	-0.361487	-0.378261	-0.190713	-0.642358	-0.371782	-0.134744	-0.237724	-0.0678395	-0.17793	-0.057475	-0.23694	0.064718	
4.12903	5	0	-0.608252	0.130657	-0.199398	0.0345325	-0.530751	-0.10631	-0.173276	-0.171795	-0.374171	-0.140142	-0.123531	-0.154321	-0.45033	0.0496593	-0.478699	-0.161152	-0.349385	-0.396776	-0.700624	-0.741734	-0.358124	-0.378679	-0.188954	-0.647332	-0.370671	-0.137883	-0.241464	-0.0672697	-0.176304	-0.0620725	-0.23694	0.064718	
4.1214	5	0	-0.602631	0.130144	-0.196425	0.036974	-0.527433	-0.103812	-0.17079	-0.169752	-0.371287	-0.140341	-0.123531	-0.154321	-0.443118	0.049489	-0.472241	-0.165371	-0.345791	-0.397194	-0.695139	-0.741683	-0.35476	-0.379097	-0.187194	-0.652306	-0.36956	-0.141023	-0.245204	-0.0667	-0.174677	-0.06667	-0.23694	0.064718	
4.11682	5	0	-0.604086	0.134257	-0.19446	0.0422717	-0.524113	-0.101312	-0.169147	-0.16532	-0.367845	-0.134156	-0.121728	-0.147175	-0.439038	0.058192	-0.477183	-0.151406	-0.343084	-0.395102	-0.702298	-0.737005	-0.351395	-0.379516	-0.179304	-0.657461	-0.36956	-0.141023	-0.244341	-0.069137	-0.166438	-0.0720532	-0.230074	0.0602315	
4.11835	5	0	-0.605541	0.13837	-0.192495	0.0475695	-0.520793	-0.0988125	-0.167505	-0.160889	-0.364402	-0.127972	-0.119925	-0.14003	-0.434958	0.066895	-0.482124	-0.137441	-0.340376	-0.39301	-0.709456	-0.732328	-0.348029	-0.379935	-0.171414	-0.662617	-0.36956	-0.141023	-0.243479	-0.071574	-0.158199	-0.0774365	-0.223208	0.055745	
4.11377	5	0	-0.606997	0.142482	-0.19053	0.0528673	-0.517473	-0.0963128	-0.165862	-0.156457	-0.36096	-0.121787	-0.118122	-0.132884	-0.430878	0.075598	-0.487066	-0.123476	-0.337669	-0.390917	-0.716615	-0.72765	-0.344664	-0.380353	-0.163524	-0.667772	-0.36956	-0.141023	-0.242617	-0.074011	-0.149961	-0.0828197	-0.216341	0.0512585	
4.10766	5	0	-0.608452	0.146595	-0.188565	0.058165	-0.514153	-0.093813	-0.164219	-0.152026	-0.357518	-0.115603	-0.116319	-0.125738	-0.426798	0.084301	-0.492007	-0.109511	-0.334962	-0.388825	-0.723774	-0.722973	-0.341299	-0.380772	-0.155634	-0.672927	-0.36956	-0.141023	-0.241754	-0.076448	-0.141722	-0.088203	-0.209475	0.046772	
4.10766	5	0	-0.608452	0.146595	-0.19457	0.0642838	-0.515228	-0.0907747	-0.160886	-0.152368	-0.354074	-0.109409	-0.114517	-0.118582	-0.427379	0.0960687	-0.482376	-0.108637	-0.334032	-0.381703	-0.7128	-0.722867	-0.338751	-0.378875	-0.149497	-0.673114	-0.365657	-0.138745	-0.233408	-0.0800275	-0.135102	-0.0889942	-0.210998	0.0510748	
4.10766	5	0	-0.608452	0.146595	-0.200574	0.0704025	-0.516303	-0.0877365	-0.157552	-0.15271	-0.350631	-0.103216	-0.112714	-0.111425	-0.42796	0.107837	-0.472745	-0.107764	-0.333103	-0.37458	-0.701826	-0.72276	-0.336204	-0.376977	-0.143359	-0.6733	-0.361754	-0.136468	-0.225063	-0.083607	-0.128482	-0.0897855	-0.212521	0.0553775	
4.10156	5	0	-0.608452	0.146595	-0.206578	0.0765213	-0.517378	-0.0846983	-0.154218	-0.153053	-0.347187	-0.0970218	-0.110912	-0.104269	-0.428541	0.119604	-0.463113	-0.10689	-0.332174	-0.367458	-0.690852	-0.722654	-0.333657	-0.37508	-0.137221	-0.673486	-0.357851	-0.13419	-0.216718	-0.0871865	-0.121862	-0.0905768	-0.214043	0.0596802	
4.10004	5	0	-0.608452	0.146595	-0.212583	0.08264	-0.518453	-0.08166	-0.150885	-0.153395	-0.343743	-0.090828	-0.10911	-0.097113	-0.429122	0.131372	-0.453482	-0.106017	-0.331244	-0.360336	-0.679878	-0.722548	-0.331109	-0.373182	-0.131084	-0.673673	-0.353948	-0.131912	-0.208372	-0.090766	-0.115242	-0.091368	-0.215566	0.063983	
4.09851	5	0	-0.606997	0.142482	-0.206578	0.0765212	-0.517378	-0.0846983	-0.153374	-0.15544	-0.346631	-0.0906305	-0.106552	-0.104341	-0.425976	0.122481	-0.453482	-0.106017	-0.330354	-0.36285	-0.681554	-0.717811	-0.334476	-0.372763	-0.137221	-0.673486	-0.34893	-0.132775	-0.209235	-0.0883282	-0.115242	-0.091368	-0.211741	0.0681047	
4.09393	5	0	-0.605541	0.13837	-0.200574	0.0704025	-0.516303	-0.0877365	-0.155863	-0.157486	-0.349519	-0.090433	-0.103994	-0.11157	-0.42283	0.113591	-0.453482	-0.106017	-0.329464	-0.365365	-0.68323	-0.713075	-0.337843	-0.372344	-0.143359	-0.6733	-0.343911	-0.133639	-0.210097	-0.0858905	-0.115242	-0.091368	-0.207917	0.0722265	
4.09088	5	0	-0.604086	0.134257	-0.19457	0.0642838	-0.515228	-0.0907747	-0.158351	-0.159531	-0.352408	-0.0902355	-0.101437	-0.118798	-0.419685	0.104701	-0.453482	-0.106017	-0.328575	-0.36788	-0.684906	-0.708338	-0.34121	-0.371926	-0.149497	-0.673114	-0.338893	-0.134502	-0.21096	-0.0834528	-0.115242	-0.091368	-0.204093	0.0763483	
4.08783	5	0	-0.602631	0.130144	-0.188565	0.058165	-0.514153	-0.093813	-0.16084	-0.161576	-0.355296	-0.090038	-0.098879	-0.126026	-0.416539	0.09581	-0.453482	-0.106017	-0.327685	-0.370394	-0.686582	-0.703602	-0.344577	-0.371507	-0.155634	-0.672927	-0.333875	-0.135366	-0.211823	-0.081015	-0.115242	-0.091368	-0.200268	0.08047	
4.08783	5	0	-0.597005	0.129629	-0.188565	0.058165	-0.514153	-0.093813	-0.16084	-0.161576	-0.350075	-0.0968273	-0.098879	-0.126026	-0.418056	0.0899733	-0.451832	-0.110679	-0.325017	-0.377934	-0.677735	-0.713024	-0.345485	-0.378034	-0.152117	-0.682867	-0.341686	-0.139919	-0.213841	-0.0853173	-0.120236	-0.095172	-0.20257	0.0720455	
4.08783	5	0	-0.591378	0.129115	-0.188565	0.058165	-0.514153	-0.093813	-0.16084	-0.161576	-0.344855	-0.103617	-0.098879	-0.126026	-0.419574	0.0841365	-0.450182	-0.115341	-0.32235	-0.385473	-0.668888	-0.722446	-0.346392	-0.384562	-0.1486	-0.692806	-0.349496	-0.144471	-0.215859	-0.0896195	-0.12523	-0.098976	-0.204871	0.063621	
4.08935	5	0	-0.585751	0.1286	-0.188565	0.058165	-0.514153	-0.093813	-0.16084	-0.161576	-0.339635	-0.110406	-0.098879	-0.126026	-0.421092	0.0782998	-0.448533	-0.120004	-0.319682	-0.393012	-0.660042	-0.731868	-0.3473	-0.391089	-0.145083	-0.702746	-0.357307	-0.149024	-0.217877	-0.0939217	-0.130224	-0.10278	-0.207173	0.0551965	
4.08783	5	0	-0.580125	0.128085	-0.188565	0.058165	-0.514153	-0.093813	-0.16084	-0.161576	-0.334414	-0.117195	-0.098879	-0.126026	-0.422609	0.072463	-0.446883	-0.124666	-0.317014	-0.400552	-0.651195	-0.74129	-0.348208	-0.397616	-0.141566	-0.712685	-0.365118	-0.153577	-0.219895	-0.098224	-0.135218	-0.106584	-0.209475	0.046772	
4.0863	5	0	-0.57595	0.131685	-0.1816	0.060202	-0.505355	-0.0948895	-0.155016	-0.159874	-0.333079	-0.113	-0.0932375	-0.129712	-0.420044	0.075338	-0.45335	-0.12044	-0.313414	-0.400973	-0.655017	-0.74607	-0.344023	-0.40035	-0.131912	-0.722811	-0.357882	-0.160717	-0.219033	-0.10066	-0.133593	-0.111177	-0.207953	0.0424713	
4.08935	0	5	-0.571775	0.135285	-0.174635	0.062239	-0.496557	-0.095966	-0.149192	-0.158171	-0.331744	-0.108804	-0.087596	-0.133399	-0.417478	0.078213	-0.459817	-0.116214	-0.309813	-0.401394	-0.658838	-0.750849	-0.339839	-0.403085	-0.122257	-0.732936	-0.350647	-0.167857	-0.218172	-0.103095	-0.131968	-0.115769	-0.206431	0.0381705	
4.08478	0	5	-0.567599	0.138884	-0.16767	0.064276	-0.48776	-0.0970425	-0.143367	-0.156468	-0.330409	-0.104608	-0.0819545	-0.137085	-0.414913	0.081088	-0.466285	-0.111988	-0.306212	-0.401815	-0.662659	-0.755629	-0.335654	-0.405819	-0.112603	-0.743062	-0.343411	-0.174997	-0.21731	-0.10553	-0.130343	-0.120362	-0.20491	0.0338698	
4.0863	0	5	-0.563424	0.142484	-0.160705	0.066313	-0.478962	-0.098119	-0.137543	-0.154766	-0.329074	-0.100413	-0.076313	-0.140771	-0.412347	0.083963	-0.472752	-0.107762	-0.302612	-0.402236	-0.666481	-0.760409	-0.331469	-0.408553	-0.102949	-0.753188	-0.336176	-0.182137	-0.216448	-0.107966	-0.128718	-0.124955	-0.203388	0.029569	
4.08325	0	5	-0.564881	0.146602	-0.165765	0.0806132	-0.481114	-0.0920375	-0.140926	-0.145204	-0.330854	-0.087411	-0.0801503	-0.129927	-0.413977	0.0987005	-0.472752	-0.107762	-0.298075	-0.395535	-0.684611	-0.755832	-0.32801	-0.40013	-0.0985595	-0.748419	-0.339507	-0.172722	-0.208959	-0.109114	-0.122096	-0.125751	-0.207956	0.0424775	
4.0863	0	5	-0.566339	0.15072	-0.170825	0.0949135	-0.483266	-0.085956	-0.144309	-0.135643	-0.332634	-0.074409	-0.0839875	-0.119082	-0.415607	0.113438	-0.472752	-0.107762	-0.293538	-0.388833	-0.702742	-0.751254	-0.324551	-0.391707	-0.09417	-0.74365	-0.342839	-0.163306	-0.20147	-0.110262	-0.115475	-0.126547	-0.212524	0.055386	
4.09088	0	5	-0.567796	0.154839	-0.175885	0.109214	-0.485417	-0.0798745	-0.147693	-0.126081	-0.334414	-0.061407	-0.0878247	-0.108238	-0.417237	0.128175	-0.472752	-0.107762	-0.289001	-0.382131	-0.720872	-0.746677	-0.321093	-0.383283	-0.0897805	-0.738882	-0.34617	-0.15389	-0.193982	-0.111409	-0.108854	-0.127342	-0.217091	0.0682945	
4.09393	0	5	-0.569253	0.158957	-0.180945	0.123514	-0.487569	-0.073793	-0.151076	-0.11652	-0.336194	-0.048405	-0.091662	-0.097393	-0.418867	0.142913	-0.472752	-0.107762	-0.284464	-0.37543	-0.739002	-0.7421	-0.317634	-0.37486	-0.085391	-0.734113	-0.349502	-0.144475	-0.186493	-0.112557	-0.102232	-0.128138	-0.221659	0.081203	
4.10156	0	5	-0.574883	0.15947	-0.179932	0.120652	-0.487569	-0.073793	-0.153564	-0.11857	-0.334862	-0.0441955	-0.0973035	-0.0937065	-0.411634	0.142751	-0.479214	-0.103539	-0.287136	-0.367878	-0.731849	-0.746773	-0.316725	-0.368322	-0.0889097	-0.724168	-0.343912	-0.133627	-0.190807	-0.100365	-0.0988575	-0.119739	-0.21401	0.0894598	
4.11835	0	5	-0.580514	0.159983	-0.17892	0.11779	-0.487569	-0.073793	-0.156053	-0.12062	-0.33353	-0.039986	-0.102945	-0.09002	-0.404401	0.142588	-0.485677	-0.099317	-0.289809	-0.360325	-0.724697	-0.751447	-0.315817	-0.361785	-0.0924285	-0.714223	-0.338322	-0.12278	-0.195121	-0.0881735	-0.095483	-0.111341	-0.206362	0.0977165	
4.12903	0	5	-0.586144	0.160496	-0.177907	0.114929	-0.487569	-0.073793	-0.158542	-0.122671	-0.332197	-0.0357765	-0.108587	-0.0863335	-0.397169	0.142426	-0.49214	-0.0950945	-0.292481	-0.352773	-0.717544	-0.75612	-0.314908	-0.355247	-0.0959472	-0.704278	-0.332732	-0.111932	-0.199435	-0.0759818	-0.0921085	-0.102942	-0.198713	0.105973	
4.14581	0	5	-0.591774	0.161009	-0.176895	0.112067	-0.487569	-0.073793	-0.16103	-0.124721	-0.330865	-0.031567	-0.114228	-0.082647	-0.389936	0.142263	-0.498602	-0.090872	-0.295153	-0.345221	-0.710391	-0.760794	-0.313999	-0.348709	-0.099466	-0.694333	-0.327142	-0.101085	-0.203749	-0.06379	-0.088734	-0.094543	-0.191064	0.11423	
4.16412	0	5	-0.591774	0.161009	-0.177907	0.114929	-0.489722	-0.0677075	-0.161876	-0.12233	-0.325079	-0.0319587	-0.112948	-0.0862635	-0.388419	0.148122	-0.498602	-0.090872	-0.29244	-0.343121	-0.708719	-0.765518	-0.315641	-0.344067	-0.099466	-0.694333	-0.332163	-0.100223	-0.202022	-0.0686688	-0.0871065	-0.099143	-0.196415	0.11441	
4.18243	0	5	-0.591774	0.161009	-0.17892	0.11779	-0.491876	-0.061622	-0.162722	-0.11994	-0.319293	-0.0323505	-0.111669	-0.08988	-0.386902	0.153982	-0.498602	-0.090872	-0.289726	-0.341021	-0.707048	-0.770242	-0.317284	-0.339426	-0.099466	-0.694333	-0.337183	-0.0993615	-0.200296	-0.0735475	-0.085479	-0.103743	-0.201766	0.11459	
4.19311	0	5	-0.591774	0.161009	-0.179932	0.120652	-0.494029	-0.0555365	-0.163568	-0.117549	-0.313507	-0.0327423	-0.11039	-0.0934965	-0.385384	0.159841	-0.498602	-0.090872	-0.287013	-0.33892	-0.705377	-0.774966	-0.318927	-0.334785	-0.099466	-0.694333	-0.342204	-0.0984997	-0.19857	-0.0784263	-0.0838515	-0.108343	-0.207117	0.114771	
4.20532	0	5	-0.591774	0.161009	-0.180945	0.123514	-0.496182	-0.049451	-0.164414	-0.115158	-0.307721	-0.033134	-0.10911	-0.097113	-0.383867	0.165701	-0.498602	-0.090872	-0.284299	-0.33682	-0.703705	-0.77969	-0.320569	-0.330143	-0.099466	-0.694333	-0.347225	-0.097638	-0.196843	-0.083305	-0.082224	-0.112943	-0.212468	0.114951	
4.22363	0	5	-0.593231	0.165127	-0.182971	0.129241	-0.493936	-0.043895	-0.166953	-0.107982	-0.306616	-0.0202842	-0.106028	-0.093565	-0.37721	0.177364	-0.500252	-0.0862095	-0.277083	-0.33766	-0.712529	-0.770293	-0.314646	-0.328657	-0.0915543	-0.699503	-0.345	-0.103927	-0.19598	-0.0857433	-0.082224	-0.112943	-0.209418	0.106331	
4.23279	0	5	-0.594688	0.169245	-0.184997	0.134967	-0.491689	-0.038339	-0.169492	-0.100806	-0.30551	-0.0074345	-0.102946	-0.090017	-0.370553	0.189026	-0.501902	-0.081547	-0.269867	-0.338499	-0.721353	-0.760895	-0.308723	-0.327171	-0.0836425	-0.704673	-0.342774	-0.110216	-0.195117	-0.0881815	-0.082224	-0.112943	-0.206368	0.0977105	
4.24499	0	5	-0.596146	0.173364	-0.187024	0.140694	-0.489443	-0.032783	-0.172032	-0.09363	-0.304404	0.00541525	-0.099864	-0.086469	-0.363897	0.200688	-0.503551	-0.0768845	-0.26265	-0.339338	-0.730178	-0.751497	-0.302801	-0.325684	-0.0757307	-0.709842	-0.340549	-0.116505	-0.194255	-0.0906197	-0.082224	-0.112943	-0.203318	0.0890902	
4.25873	0	5	-0.597603	0.177482	-0.18905	0.146421	-0.487196	-0.027227	-0.174571	-0.086454	-0.303299	0.018265	-0.096782	-0.082921	-0.35724	0.212351	-0.505201	-0.072222	-0.255434	-0.340178	-0.739002	-0.7421	-0.296878	-0.324198	-0.067819	-0.715012	-0.338324	-0.122794	-0.193392	-0.093058	-0.082224	-0.112943	-0.200268	0.08047	
4.27704	0	5	-0.601771	0.173875	-0.190064	0.149285	-0.491597	-0.0266933	-0.172032	-0.09363	-0.303531	0.0269127	-0.106267	-0.0683725	-0.354207	0.224124	-0.510155	-0.0582207	-0.256288	-0.32798	-0.740674	-0.737374	-0.295971	-0.317642	-0.0634227	-0.71023	-0.336642	-0.11422	-0.191371	-0.0887533	-0.08548	-0.103741	-0.197967	0.08891	
4.29993	0	5	-0.605939	0.170268	-0.191078	0.15215	-0.495999	-0.0261595	-0.169492	-0.100806	-0.303763	0.0355605	-0.115753	-0.053824	-0.351174	0.235896	-0.515109	-0.0442195	-0.257142	-0.315781	-0.742347	-0.732647	-0.295064	-0.311087	-0.0590265	-0.705449	-0.33496	-0.105645	-0.18935	-0.0844485	-0.088736	-0.094539	-0.195666	0.09735	
4.32434	0	5	-0.610107	0.16666	-0.192091	0.155014	-0.5004	-0.0256257	-0.166953	-0.107982	-0.303995	0.0442082	-0.125238	-0.0392755	-0.34814	0.247668	-0.520064	-0.0302182	-0.257996	-0.303583	-0.744019	-0.72792	-0.294157	-0.304532	-0.0546303	-0.700667	-0.333278	-0.0970705	-0.187329	-0.0801437	-0.091992	-0.085337	-0.193365	0.10579	
4.3457	0	5	-0.614275	0.163053	-0.193105	0.157879	-0.504801	-0.025092	-0.164414	-0.115158	-0.304227	0.052856	-0.134723	-0.024727	-0.345107	0.259441	-0.525018	-0.016217	-0.25885	-0.291385	-0.745691	-0.723194	-0.29325	-0.297976	-0.050234	-0.695886	-0.331596	-0.088496	-0.185308	-0.075839	-0.095248	-0.076135	-0.191064	0.11423	
4.37317	0	5	-0.615731	0.167169	-0.193105	0.157879	-0.499322	-0.0286722	-0.168593	-0.112428	-0.299997	0.0568967	-0.130364	-0.0247897	-0.33996	0.265263	-0.51705	-0.010642	-0.256132	-0.289277	-0.743561	-0.713673	-0.292427	-0.300301	-0.050234	-0.695886	-0.331032	-0.0767538	-0.187899	-0.0685158	-0.0985073	-0.0669232	-0.190294	0.127006	
4.39148	0	5	-0.617188	0.171286	-0.193105	0.157879	-0.493843	-0.0322525	-0.172771	-0.109698	-0.295768	0.0609375	-0.126004	-0.0248525	-0.334814	0.271085	-0.509082	-0.005067	-0.253414	-0.287168	-0.741431	-0.704152	-0.291605	-0.302627	-0.050234	-0.695886	-0.330468	-0.0650115	-0.190491	-0.0611925	-0.101767	-0.0577115	-0.189523	0.139783	
4.40979	0	5	-0.618645	0.175402	-0.193105	0.157879	-0.488363	-0.0358327	-0.17695	-0.106967	-0.291538	0.0649783	-0.121645	-0.0249152	-0.329668	0.276908	-0.501115	0.000508	-0.250695	-0.28506	-0.739301	-0.694632	-0.290782	-0.304953	-0.050234	-0.695886	-0.329903	-0.0532693	-0.193082	-0.0538693	-0.105026	-0.0484997	-0.188753	0.15256	
4.42352	0	5	-0.620101	0.179518	-0.193105	0.157879	-0.482884	-0.039413	-0.181128	-0.104237	-0.287308	0.069019	-0.117285	-0.024978	-0.324521	0.28273	-0.493147	0.006083	-0.247977	-0.282952	-0.737171	-0.685111	-0.289959	-0.307278	-0.050234	-0.695886	-0.329339	-0.041527	-0.195673	-0.046546	-0.108285	-0.039288	-0.187982	0.165336	
