4.35943	0	0	0.094732	-0.594136	0.153979	-0.473257	0.057956	-0.385143	0.091218	-0.512166	0.031608	-0.387069	0.069699	-0.431914	-0.149469	-0.482293	-0.053053	-0.66679	-0.198167	-0.781351	-0.051757	-0.879652	-0.008784	-0.626533	0.164496	-0.564432	0.083651	-0.411827	0.231865	-0.551513	0.097654	-0.418727	0.049305	-0.500359	
4.35638	0	0	0.0973997	-0.601676	0.152046	-0.478992	0.0600235	-0.390986	0.0983185	-0.52147	0.031856	-0.396068	0.0742468	-0.444767	-0.150026	-0.491575	-0.054375	-0.676497	-0.203761	-0.785613	-0.0480932	-0.890006	-0.0096305	-0.633788	0.170038	-0.580095	0.0820655	-0.420038	0.230727	-0.559341	0.102519	-0.432477	0.0485467	-0.511956	
4.35486	0	0	0.100068	-0.609215	0.150114	-0.484727	0.062091	-0.396829	0.105419	-0.530774	0.032104	-0.405068	0.0787945	-0.45762	-0.150583	-0.500858	-0.055697	-0.686204	-0.209355	-0.789874	-0.0444295	-0.900361	-0.010477	-0.641044	0.175581	-0.595758	0.08048	-0.428249	0.229589	-0.567169	0.107384	-0.446226	0.0477885	-0.523554	
4.35486	0	0	0.102735	-0.616754	0.148181	-0.490461	0.0641585	-0.402671	0.112519	-0.540077	0.032352	-0.414068	0.0833422	-0.470473	-0.151141	-0.51014	-0.057019	-0.695911	-0.214949	-0.794135	-0.0407658	-0.910715	-0.0113235	-0.6483	0.181123	-0.611421	0.0788945	-0.436459	0.228451	-0.574997	0.11225	-0.459976	0.0470303	-0.535151	
4.35486	0	0	0.105403	-0.624294	0.146248	-0.496196	0.066226	-0.408514	0.11962	-0.549381	0.0326	-0.423067	0.08789	-0.483326	-0.151698	-0.519422	-0.058341	-0.705618	-0.220543	-0.798397	-0.037102	-0.921069	-0.01217	-0.655555	0.186665	-0.627084	0.077309	-0.44467	0.227313	-0.582825	0.117115	-0.473726	0.046272	-0.546748	
4.35638	0	0	0.104069	-0.620525	0.151401	-0.499563	0.0609295	-0.405053	0.11962	-0.549381	0.0334127	-0.425364	0.08789	-0.483326	-0.153367	-0.525558	-0.0551017	-0.714773	-0.217813	-0.806113	-0.0465358	-0.926828	-0.0112723	-0.658092	0.186665	-0.627084	0.073597	-0.446864	0.228298	-0.58561	0.110735	-0.473077	0.0490513	-0.554603	
4.35028	0	0	0.102736	-0.616756	0.156554	-0.502931	0.055633	-0.401592	0.11962	-0.549381	0.0342255	-0.427662	0.08789	-0.483326	-0.155035	-0.531694	-0.0518625	-0.723928	-0.215083	-0.813828	-0.0559695	-0.932586	-0.0103745	-0.66063	0.186665	-0.627084	0.069885	-0.449057	0.229284	-0.588396	0.104354	-0.472428	0.0518305	-0.562458	
4.34723	0	0	0.101403	-0.612987	0.161708	-0.506298	0.0503365	-0.398131	0.11962	-0.549381	0.0350382	-0.429959	0.08789	-0.483326	-0.156703	-0.537829	-0.0486232	-0.733082	-0.212353	-0.821543	-0.0654032	-0.938345	-0.00947675	-0.663168	0.186665	-0.627084	0.066173	-0.45125	0.230269	-0.591181	0.0979742	-0.471779	0.0546097	-0.570312	
4.34723	0	0	0.100069	-0.609218	0.166861	-0.509665	0.04504	-0.39467	0.11962	-0.549381	0.035851	-0.432256	0.08789	-0.483326	-0.158372	-0.543965	-0.045384	-0.742237	-0.209623	-0.829259	-0.074837	-0.944104	-0.008579	-0.665705	0.186665	-0.627084	0.062461	-0.453444	0.231255	-0.593966	0.091594	-0.47113	0.057389	-0.578167	
4.34875	0	0	0.104068	-0.62052	0.170079	-0.518758	0.0438772	-0.402885	0.118955	-0.558266	0.031467	-0.436451	0.0844945	-0.487687	-0.160041	-0.550092	-0.0528923	-0.747875	-0.216123	-0.830938	-0.07301	-0.949268	-0.008579	-0.665705	0.184819	-0.621866	0.070951	-0.452062	0.234367	-0.591716	0.0867312	-0.457387	0.0546097	-0.570312	
4.34875	0	0	0.108067	-0.631822	0.173296	-0.527851	0.0427145	-0.4111	0.11829	-0.567151	0.027083	-0.440646	0.081099	-0.492047	-0.16171	-0.55622	-0.0604005	-0.753513	-0.222623	-0.832618	-0.071183	-0.954432	-0.008579	-0.665705	0.182972	-0.616648	0.079441	-0.450681	0.237478	-0.589467	0.0818685	-0.443644	0.0518305	-0.562458	
4.35486	0	0	0.112066	-0.643124	0.176513	-0.536943	0.0415517	-0.419316	0.117626	-0.576035	0.022699	-0.444842	0.0777035	-0.496408	-0.163379	-0.562348	-0.0679087	-0.75915	-0.229122	-0.834297	-0.069356	-0.959595	-0.008579	-0.665705	0.181126	-0.61143	0.087931	-0.449299	0.24059	-0.587217	0.0770057	-0.429902	0.0490513	-0.554603	
4.35333	0	0	0.116065	-0.654426	0.179731	-0.546036	0.040389	-0.427531	0.116961	-0.58492	0.018315	-0.449037	0.074308	-0.500769	-0.165048	-0.568475	-0.075417	-0.764788	-0.235622	-0.835976	-0.067529	-0.964759	-0.008579	-0.665705	0.17928	-0.606212	0.096421	-0.447917	0.243702	-0.584967	0.072143	-0.416159	0.046272	-0.546748	
4.34723	0	0	0.117397	-0.65819	0.176721	-0.548725	0.041421	-0.430447	0.114152	-0.58774	0.0207498	-0.455918	0.0709145	-0.505125	-0.166717	-0.574595	-0.073801	-0.769355	-0.237507	-0.840666	-0.071329	-0.970209	-0.0112222	-0.667878	0.181126	-0.61143	0.092706	-0.45011	0.245673	-0.590538	0.083386	-0.430551	0.0504397	-0.558527	
4.34723	0	0	0.118729	-0.661955	0.17371	-0.551414	0.042453	-0.433364	0.111344	-0.59056	0.0231845	-0.462799	0.067521	-0.509481	-0.168387	-0.580715	-0.072185	-0.773922	-0.239392	-0.845356	-0.075129	-0.975658	-0.0138655	-0.67005	0.182972	-0.616648	0.088991	-0.452302	0.247644	-0.596109	0.094629	-0.444943	0.0546075	-0.570307	
4.35181	0	0	0.120061	-0.665719	0.1707	-0.554104	0.043485	-0.43628	0.108536	-0.593379	0.0256192	-0.46968	0.0641275	-0.513837	-0.170056	-0.586834	-0.070569	-0.778489	-0.241277	-0.850045	-0.078929	-0.981108	-0.0165087	-0.672223	0.184819	-0.621866	0.085276	-0.454495	0.249616	-0.60168	0.105872	-0.459334	0.0587753	-0.582086	
4.35181	0	0	0.121393	-0.669483	0.16769	-0.556793	0.044517	-0.439196	0.105727	-0.596199	0.028054	-0.476561	0.060734	-0.518193	-0.171726	-0.592954	-0.068953	-0.783056	-0.243162	-0.854735	-0.082729	-0.986558	-0.019152	-0.674396	0.186665	-0.627084	0.081561	-0.456688	0.251587	-0.607251	0.117115	-0.473726	0.062943	-0.593865	
4.35028	0	0	0.120061	-0.665719	0.171772	-0.557133	0.043485	-0.43628	0.114561	-0.599644	0.0272425	-0.474268	0.0641275	-0.513837	-0.173938	-0.586702	-0.067338	-0.78762	-0.241346	-0.859866	-0.0865267	-0.992	-0.0138167	-0.679831	0.18851	-0.632299	0.0826237	-0.459691	0.252572	-0.610035	0.110735	-0.473077	0.062943	-0.593865	
4.35028	0	0	0.118729	-0.661955	0.175853	-0.557472	0.042453	-0.433364	0.123394	-0.603089	0.026431	-0.471975	0.067521	-0.509481	-0.17615	-0.58045	-0.065723	-0.792185	-0.23953	-0.864997	-0.0903245	-0.997442	-0.0084815	-0.685267	0.190356	-0.637514	0.0836865	-0.462695	0.253557	-0.61282	0.104354	-0.472428	0.062943	-0.593865	
4.35028	0	0	0.117397	-0.65819	0.179935	-0.557811	0.041421	-0.430447	0.132228	-0.606534	0.0256195	-0.469682	0.0709145	-0.505125	-0.178362	-0.574199	-0.064108	-0.796749	-0.237715	-0.870128	-0.0941222	-1.00288	-0.00314625	-0.690702	0.192201	-0.642729	0.0847492	-0.465699	0.254543	-0.615604	0.0979742	-0.471779	0.062943	-0.593865	
4.34723	0	0	0.116065	-0.654426	0.184017	-0.558151	0.040389	-0.427531	0.141062	-0.609979	0.024808	-0.467389	0.074308	-0.500769	-0.180574	-0.567947	-0.062493	-0.801314	-0.235899	-0.875259	-0.09792	-1.00833	0.002189	-0.696137	0.194046	-0.647944	0.085812	-0.468702	0.255528	-0.618388	0.091594	-0.47113	0.062943	-0.593865	
4.34875	0	0	0.110708	-0.653819	0.181006	-0.560838	0.0424525	-0.433362	0.13825	-0.612795	0.0256195	-0.469682	0.0727943	-0.496491	-0.184453	-0.567816	-0.0608788	-0.805876	-0.239599	-0.874813	-0.0960982	-1.01347	0.0057325	-0.696503	0.206156	-0.647836	0.0884642	-0.463506	0.262746	-0.616681	0.102739	-0.467847	0.0763713	-0.590562	
4.3396	0	0	0.10535	-0.653212	0.177995	-0.563525	0.044516	-0.439194	0.135437	-0.615611	0.026431	-0.471975	0.0712805	-0.492213	-0.188333	-0.567685	-0.0592645	-0.810439	-0.2433	-0.874367	-0.0942765	-1.01862	0.009276	-0.69687	0.218267	-0.647728	0.0911165	-0.45831	0.269965	-0.614974	0.113885	-0.464564	0.0897995	-0.58726	
4.3396	0	0	0.0999933	-0.652606	0.174985	-0.566213	0.0465795	-0.445025	0.132625	-0.618426	0.0272425	-0.474268	0.0697667	-0.487935	-0.192212	-0.567554	-0.0576503	-0.815001	-0.247	-0.87392	-0.0924548	-1.02377	0.0128195	-0.697236	0.230377	-0.647621	0.0937688	-0.453113	0.277183	-0.613268	0.12503	-0.461282	0.103228	-0.583957	
4.3396	0	0	0.094636	-0.651999	0.171974	-0.5689	0.048643	-0.450856	0.129813	-0.621242	0.028054	-0.476561	0.068253	-0.483657	-0.196091	-0.567423	-0.056036	-0.819563	-0.2507	-0.873474	-0.090633	-1.02892	0.016363	-0.697602	0.242487	-0.647513	0.096421	-0.447917	0.284402	-0.611561	0.136176	-0.457999	0.116656	-0.580654	
4.3457	0	0	0.089283	-0.651394	0.174115	-0.574951	0.0401282	-0.449772	0.128072	-0.627078	0.0282937	-0.485525	0.072792	-0.496485	-0.196653	-0.576662	-0.0528098	-0.828681	-0.250772	-0.883276	-0.0813675	-1.03893	0.0155092	-0.704837	0.250399	-0.652683	0.0953573	-0.44491	0.292617	-0.612643	0.136176	-0.457999	0.130116	-0.577351	
4.34723	0	0	0.08393	-0.650789	0.176256	-0.581001	0.0316135	-0.448689	0.126331	-0.632915	0.0285335	-0.49449	0.077331	-0.509313	-0.197214	-0.585901	-0.0495835	-0.837798	-0.250845	-0.893077	-0.072102	-1.04894	0.0146555	-0.712073	0.25831	-0.657852	0.0942935	-0.441904	0.300831	-0.613725	0.136176	-0.457999	0.143577	-0.574048	
4.34418	5	0	0.078577	-0.650184	0.178397	-0.587052	0.0230988	-0.447605	0.124589	-0.638751	0.0287733	-0.503454	0.08187	-0.522142	-0.197775	-0.59514	-0.0463573	-0.846916	-0.250917	-0.902879	-0.0628365	-1.05895	0.0138017	-0.719308	0.266222	-0.663022	0.0932298	-0.438897	0.309045	-0.614806	0.136176	-0.457999	0.157037	-0.570745	
4.3457	0	0	0.073224	-0.649579	0.180538	-0.593103	0.014584	-0.446522	0.122848	-0.644587	0.029013	-0.512419	0.086409	-0.53497	-0.198337	-0.604379	-0.043131	-0.856033	-0.250989	-0.912681	-0.053571	-1.06896	0.012948	-0.726543	0.274134	-0.668192	0.092166	-0.435891	0.31726	-0.615888	0.136176	-0.457999	0.170498	-0.567442	
4.35028	0	0	0.0799083	-0.653947	0.181608	-0.596127	0.0156145	-0.449434	0.123917	-0.647609	0.0238193	-0.514305	0.0815017	-0.535047	-0.201109	-0.607366	-0.0460823	-0.861107	-0.25197	-0.919909	-0.0573772	-1.07438	0.0120925	-0.733769	0.277826	-0.678625	0.0942932	-0.441903	0.315123	-0.620919	0.137798	-0.462583	0.171891	-0.571379	
4.34723	0	0	0.0865925	-0.658315	0.182677	-0.59915	0.016645	-0.452346	0.124987	-0.65063	0.0186255	-0.51619	0.0765945	-0.535125	-0.20388	-0.610353	-0.0490335	-0.866181	-0.252951	-0.927137	-0.0611835	-1.0798	0.011237	-0.740994	0.281517	-0.689058	0.0964205	-0.447914	0.312987	-0.625951	0.13942	-0.467166	0.173284	-0.575316	
4.34418	0	0	0.0932767	-0.662682	0.183747	-0.602174	0.0176755	-0.455259	0.126056	-0.653651	0.0134317	-0.518076	0.0716873	-0.535203	-0.206651	-0.61334	-0.0519847	-0.871255	-0.253931	-0.934366	-0.0649897	-1.08522	0.0103815	-0.74822	0.285208	-0.699491	0.0985478	-0.453926	0.31085	-0.630983	0.141041	-0.471749	0.174677	-0.579253	
4.3457	0	0	0.099961	-0.66705	0.184817	-0.605197	0.018706	-0.458171	0.127125	-0.656673	0.008238	-0.519962	0.06678	-0.53528	-0.209423	-0.616327	-0.054936	-0.876329	-0.254912	-0.941594	-0.068796	-1.09064	0.009526	-0.755445	0.2889	-0.709924	0.100675	-0.459938	0.308713	-0.636014	0.142663	-0.476333	0.17607	-0.58319	
4.34112	0	0	0.0972977	-0.659523	0.18676	-0.59949	0.0134225	-0.454719	0.126056	-0.653651	0.0104293	-0.517875	0.0765988	-0.535126	-0.210527	-0.613207	-0.0611052	-0.872298	-0.259512	-0.938588	-0.0725997	-1.09605	0.013069	-0.755815	0.287055	-0.704709	0.106521	-0.463758	0.313808	-0.639343	0.15708	-0.482229	0.17607	-0.58319	
4.34112	0	0	0.0946345	-0.651996	0.188702	-0.593783	0.008139	-0.451267	0.124987	-0.65063	0.0126205	-0.515788	0.0864175	-0.534971	-0.21163	-0.610087	-0.0672745	-0.868267	-0.264112	-0.935582	-0.0764035	-1.10146	0.016612	-0.756185	0.28521	-0.699494	0.112366	-0.467577	0.318904	-0.642672	0.171496	-0.488125	0.17607	-0.58319	
4.34112	0	0	0.0919713	-0.644469	0.190644	-0.588076	0.0028555	-0.447814	0.123917	-0.647609	0.0148118	-0.5137	0.0962362	-0.534817	-0.212734	-0.606967	-0.0734438	-0.864235	-0.268713	-0.932577	-0.0802073	-1.10687	0.020155	-0.756554	0.283364	-0.694279	0.118211	-0.471397	0.323999	-0.646002	0.185913	-0.494022	0.17607	-0.58319	
4.34112	0	0	0.089308	-0.636942	0.192587	-0.582369	-0.002428	-0.444362	0.122848	-0.644587	0.017003	-0.511613	0.106055	-0.534663	-0.213838	-0.603847	-0.079613	-0.860204	-0.273313	-0.929571	-0.084011	-1.11228	0.023698	-0.756924	0.281519	-0.689064	0.124057	-0.475217	0.329094	-0.649331	0.200329	-0.499918	0.17607	-0.58319	
4.34112	0	0	0.09064	-0.640706	0.193658	-0.585395	0.00491525	-0.453636	0.121107	-0.650416	0.0164308	-0.518276	0.0962362	-0.534817	-0.210528	-0.613203	-0.08095	-0.86982	-0.272408	-0.932128	-0.0934245	-1.11796	0.0219065	-0.751861	0.281519	-0.689064	0.119801	-0.463189	0.326136	-0.64097	0.187436	-0.480912	0.181029	-0.583404	
4.3396	0	0	0.091972	-0.64447	0.194728	-0.588421	0.0122585	-0.46291	0.119365	-0.656245	0.0158585	-0.524938	0.0864175	-0.534971	-0.207217	-0.622559	-0.082287	-0.879437	-0.271504	-0.934685	-0.102838	-1.12363	0.020115	-0.746799	0.281519	-0.689064	0.115545	-0.451161	0.323177	-0.63261	0.174542	-0.461905	0.185989	-0.583618	
4.3457	0	0	0.093304	-0.648235	0.195798	-0.591447	0.0196018	-0.472184	0.117623	-0.662073	0.0152862	-0.531601	0.0765988	-0.535126	-0.203906	-0.631916	-0.083624	-0.889053	-0.270599	-0.937242	-0.112252	-1.12931	0.0183235	-0.741736	0.281519	-0.689064	0.111289	-0.439134	0.320218	-0.624249	0.161649	-0.442899	0.190948	-0.583831	
4.3457	0	0	0.094636	-0.651999	0.196869	-0.594473	0.026945	-0.481458	0.115882	-0.667902	0.014714	-0.538263	0.06678	-0.53528	-0.200596	-0.641272	-0.084961	-0.89867	-0.269694	-0.939799	-0.121665	-1.13498	0.016532	-0.736673	0.281519	-0.689064	0.107033	-0.427106	0.31726	-0.615888	0.148756	-0.423893	0.195907	-0.584045	
4.34723	0	0	0.094636	-0.651999	0.197939	-0.597498	0.0216615	-0.478006	0.11695	-0.670921	0.0201428	-0.545326	0.0747098	-0.543744	-0.200596	-0.641272	-0.0771882	-0.907242	-0.26879	-0.942355	-0.116053	-1.13471	0.0183235	-0.741736	0.281519	-0.689064	0.113947	-0.433937	0.318246	-0.618676	0.156779	-0.429135	0.190948	-0.583831	
4.3396	0	0	0.094636	-0.651999	0.19901	-0.600523	0.016378	-0.474553	0.118018	-0.673939	0.0255715	-0.552388	0.0826395	-0.552208	-0.200596	-0.641272	-0.0694155	-0.915814	-0.267885	-0.944912	-0.110441	-1.13444	0.020115	-0.746799	0.281519	-0.689064	0.120861	-0.440767	0.319233	-0.621463	0.164802	-0.434377	0.185989	-0.583618	
4.3396	0	0	0.094636	-0.651999	0.20008	-0.603547	0.0110945	-0.471101	0.119087	-0.676957	0.0310003	-0.559451	0.0905693	-0.560673	-0.200596	-0.641272	-0.0616427	-0.924386	-0.26698	-0.947468	-0.10483	-1.13416	0.0219065	-0.751861	0.281519	-0.689064	0.127775	-0.447597	0.320219	-0.624251	0.172825	-0.43962	0.181029	-0.583404	
4.34418	0	0	0.094636	-0.651999	0.201151	-0.606572	0.005811	-0.467649	0.120155	-0.679976	0.036429	-0.566514	0.098499	-0.569137	-0.200596	-0.641272	-0.05387	-0.932958	-0.266076	-0.950024	-0.099218	-1.13389	0.023698	-0.756924	0.281519	-0.689064	0.134689	-0.454428	0.321206	-0.627039	0.180848	-0.444862	0.17607	-0.58319	
4.33502	0	0	0.098661	-0.64884	0.203095	-0.600864	0.00903475	-0.465279	0.126849	-0.677385	0.040819	-0.56235	0.098875	-0.556242	-0.198927	-0.635169	-0.0509167	-0.9279	-0.267885	-0.944911	-0.099218	-1.13389	0.0228025	-0.754393	0.279673	-0.683846	0.133625	-0.45142	0.325318	-0.627583	0.179223	-0.440269	0.17607	-0.58319	
4.35943	0	0	0.102686	-0.645681	0.205039	-0.595155	0.0122585	-0.46291	0.133542	-0.674794	0.045209	-0.558186	0.099251	-0.543348	-0.197258	-0.629067	-0.0479635	-0.922841	-0.269694	-0.939798	-0.099218	-1.13389	0.021907	-0.751862	0.277826	-0.678628	0.13256	-0.448411	0.329429	-0.628126	0.177598	-0.435677	0.17607	-0.58319	
4.35943	0	0	0.106711	-0.642522	0.206984	-0.589447	0.0154822	-0.460541	0.140236	-0.672204	0.049599	-0.554021	0.099627	-0.530454	-0.195589	-0.622965	-0.0450103	-0.917783	-0.271504	-0.934684	-0.099218	-1.13389	0.0210115	-0.749331	0.27598	-0.67341	0.131495	-0.445403	0.333541	-0.628669	0.175973	-0.431084	0.17607	-0.58319	
4.36249	0	0	0.110736	-0.639363	0.208928	-0.583739	0.018706	-0.458171	0.146929	-0.669613	0.053989	-0.549857	0.100003	-0.517559	-0.19392	-0.616862	-0.042057	-0.912725	-0.273313	-0.929571	-0.099218	-1.13389	0.020116	-0.7468	0.274134	-0.668192	0.130431	-0.442395	0.337653	-0.629213	0.174348	-0.426491	0.17607	-0.58319	
4.35486	0	0	0.109403	-0.635596	0.214087	-0.58711	0.0250227	-0.464537	0.146929	-0.669613	0.0523692	-0.54528	0.0984893	-0.513281	-0.191146	-0.613875	-0.0407137	-0.903107	-0.267808	-0.935134	-0.0917862	-1.13875	0.01922	-0.744268	0.280206	-0.668146	0.129366	-0.439385	0.335679	-0.623635	0.190416	-0.436991	0.173284	-0.575314	
4.35181	0	0	0.108069	-0.631829	0.219247	-0.590482	0.0313395	-0.470903	0.146929	-0.669613	0.0507495	-0.540702	0.0969755	-0.509003	-0.188373	-0.610888	-0.0393705	-0.89349	-0.262303	-0.940697	-0.0843545	-1.1436	0.018324	-0.741737	0.286277	-0.668099	0.128302	-0.436376	0.333705	-0.618057	0.206485	-0.44749	0.170497	-0.567439	
4.34875	0	0	0.106736	-0.628061	0.224407	-0.593854	0.0376563	-0.477268	0.146929	-0.669613	0.0491297	-0.536125	0.0954617	-0.504724	-0.1856	-0.6079	-0.0380272	-0.883872	-0.256798	-0.946259	-0.0769227	-1.14846	0.017428	-0.739205	0.292349	-0.668052	0.127237	-0.433366	0.331732	-0.612478	0.222553	-0.457989	0.16771	-0.559563	
4.36249	0	0	0.105403	-0.624294	0.229566	-0.597225	0.043973	-0.483634	0.146929	-0.669613	0.04751	-0.531547	0.093948	-0.500446	-0.182826	-0.604913	-0.036684	-0.874254	-0.251293	-0.951822	-0.069491	-1.15332	0.016532	-0.736673	0.298421	-0.668006	0.126172	-0.430357	0.329758	-0.6069	0.238621	-0.468489	0.164924	-0.551688	
4.35943	0	0	0.113431	-0.632436	0.221392	-0.596537	0.039716	-0.48309	0.149066	-0.675654	0.0469342	-0.538207	0.0969747	-0.509	-0.186166	-0.61712	-0.035073	-0.878807	-0.256955	-0.96579	-0.069491	-1.15332	0.017465	-0.748953	0.294195	-0.67327	0.122452	-0.432553	0.331732	-0.612478	0.225802	-0.467173	0.153627	-0.547334	
4.33044	0	0	0.121458	-0.640578	0.213218	-0.595849	0.035459	-0.482546	0.151203	-0.681694	0.0463585	-0.544868	0.100001	-0.517554	-0.189505	-0.629326	-0.033462	-0.88336	-0.262617	-0.979758	-0.069491	-1.15332	0.018398	-0.761232	0.28997	-0.678535	0.118732	-0.434748	0.333705	-0.618057	0.212983	-0.465857	0.14233	-0.54298	
4.34418	0	0	0.129486	-0.648719	0.205043	-0.595161	0.031202	-0.482002	0.153341	-0.687735	0.0457827	-0.551528	0.103028	-0.526109	-0.192845	-0.641532	-0.031851	-0.887913	-0.268278	-0.993727	-0.069491	-1.15332	0.019331	-0.773512	0.285745	-0.6838	0.115011	-0.436944	0.335679	-0.623635	0.200164	-0.46454	0.131033	-0.538627	
4.39148	0	0	0.137514	-0.656861	0.196869	-0.594473	0.026945	-0.481458	0.155478	-0.693775	0.045207	-0.558188	0.106055	-0.534663	-0.196185	-0.653739	-0.03024	-0.892466	-0.27394	-1.0077	-0.069491	-1.15332	0.020264	-0.785791	0.281519	-0.689064	0.111291	-0.43914	0.337653	-0.629213	0.187345	-0.463224	0.119736	-0.534273	
4.36706	0	0	0.136181	-0.653093	0.197939	-0.597498	0.0279745	-0.484368	0.155478	-0.693775	0.051448	-0.567538	0.107567	-0.538937	-0.196754	-0.662942	-0.0286297	-0.897016	-0.278701	-1.02416	-0.0789108	-1.15897	0.017649	-0.797672	0.285209	-0.699491	0.114483	-0.448159	0.334527	-0.631456	0.188969	-0.467812	0.123913	-0.546078	
4.3045	0	0	0.134848	-0.649326	0.19901	-0.600523	0.029004	-0.487277	0.155478	-0.693775	0.057689	-0.576889	0.109079	-0.543211	-0.197324	-0.672146	-0.0270195	-0.901567	-0.283461	-1.04063	-0.0883305	-1.16463	0.015034	-0.809554	0.288898	-0.709917	0.117674	-0.457178	0.331402	-0.6337	0.190592	-0.4724	0.12809	-0.557883	
4.36401	0	0	0.133515	-0.645559	0.20008	-0.603547	0.0300335	-0.490186	0.155478	-0.693775	0.06393	-0.58624	0.110592	-0.547485	-0.197893	-0.681349	-0.0254093	-0.906118	-0.288222	-1.0571	-0.0977502	-1.17029	0.012419	-0.821435	0.292588	-0.720344	0.120866	-0.466198	0.328276	-0.635943	0.192216	-0.476988	0.132267	-0.569689	
4.39758	0	0	0.132182	-0.641791	0.201151	-0.606572	0.031063	-0.493096	0.155478	-0.693775	0.070171	-0.59559	0.112104	-0.551759	-0.198463	-0.690553	-0.023799	-0.910668	-0.292982	-1.07356	-0.10717	-1.17595	0.009804	-0.833316	0.296277	-0.730771	0.124057	-0.475217	0.32515	-0.638187	0.193839	-0.481576	0.136444	-0.581494	
4.35333	0	0	0.126821	-0.641184	0.202221	-0.609595	0.028866	-0.498366	0.156546	-0.696794	0.0679735	-0.597667	0.113616	-0.556031	-0.199036	-0.699741	-0.0219343	-0.929352	-0.294961	-1.08789	-0.11296	-1.19181	0.00894125	-0.840506	0.29205	-0.736016	0.122462	-0.483409	0.327122	-0.643758	0.205114	-0.495992	0.139226	-0.589355	
4.393	0	0	0.121459	-0.640577	0.20329	-0.612619	0.026669	-0.503637	0.157614	-0.699812	0.065776	-0.599744	0.115127	-0.560303	-0.199608	-0.708929	-0.0200695	-0.948036	-0.296939	-1.10222	-0.11875	-1.20767	0.0080785	-0.847695	0.287824	-0.741261	0.120866	-0.491601	0.329093	-0.649329	0.216389	-0.510409	0.142008	-0.597217	
4.39148	0	0	0.116097	-0.63997	0.20436	-0.615643	0.024472	-0.508907	0.158682	-0.70283	0.0635785	-0.601821	0.116639	-0.564575	-0.200181	-0.718117	-0.0182047	-0.966721	-0.298918	-1.11655	-0.124539	-1.22353	0.00721575	-0.854885	0.283597	-0.746506	0.119271	-0.499793	0.331064	-0.6549	0.227663	-0.524825	0.144789	-0.605079	
4.38385	0	0	0.110736	-0.639363	0.20543	-0.618666	0.022275	-0.514177	0.15975	-0.705849	0.061381	-0.603898	0.118151	-0.568847	-0.200754	-0.727305	-0.01634	-0.985405	-0.300896	-1.13088	-0.130329	-1.2394	0.006353	-0.862075	0.27937	-0.751751	0.117675	-0.507985	0.333036	-0.660471	0.238938	-0.539241	0.147571	-0.61294	
4.393	0	0	0.114732	-0.650656	0.205621	-0.630402	0.0231585	-0.528147	0.158383	-0.723493	0.0594097	-0.614891	0.112855	-0.581785	-0.2052	-0.736334	-0.026817	-0.995981	-0.305569	-1.13757	-0.128719	-1.26004	-0.00247225	-0.865988	0.275146	-0.756988	0.118737	-0.510985	0.334021	-0.663255	0.238938	-0.539241	0.152524	-0.613155	
4.40369	0	0	0.118727	-0.661949	0.205812	-0.642138	0.024042	-0.542117	0.157016	-0.741138	0.0574385	-0.625884	0.10756	-0.594723	-0.209647	-0.745363	-0.037294	-1.00656	-0.310242	-1.14426	-0.127109	-1.28068	-0.0112975	-0.869901	0.270923	-0.762226	0.119799	-0.513985	0.335006	-0.66604	0.238938	-0.539241	0.157476	-0.61337	
4.37012	0	0	0.122723	-0.673241	0.206003	-0.653875	0.0249255	-0.556086	0.155649	-0.758782	0.0554673	-0.636876	0.102265	-0.60766	-0.214093	-0.754392	-0.047771	-1.01713	-0.314915	-1.15095	-0.1255	-1.30132	-0.0201227	-0.873814	0.266699	-0.767463	0.12086	-0.516986	0.335991	-0.668825	0.238938	-0.539241	0.162429	-0.613584	
4.44031	0	0	0.126719	-0.684534	0.206194	-0.665611	0.025809	-0.570056	0.154282	-0.776426	0.053496	-0.647869	0.096969	-0.620598	-0.218539	-0.763421	-0.058248	-1.02771	-0.319588	-1.15765	-0.12389	-1.32196	-0.028948	-0.877727	0.262475	-0.772701	0.121922	-0.519986	0.336976	-0.671609	0.238938	-0.539241	0.167381	-0.613799	
4.44336	0	0	0.12938	-0.692055	0.206379	-0.677323	0.0203858	-0.577653	0.155721	-0.791236	0.053718	-0.656772	0.0965795	-0.633434	-0.219117	-0.772576	-0.058004	-1.04177	-0.326144	-1.16893	-0.131489	-1.33262	-0.030675	-0.892058	0.269824	-0.79347	0.121383	-0.531156	0.335819	-0.679408	0.235768	-0.547729	0.165208	-0.621439	
4.44488	0	0	0.132041	-0.699575	0.206564	-0.689036	0.0149625	-0.585249	0.15716	-0.806046	0.05394	-0.665676	0.09619	-0.64627	-0.219695	-0.781731	-0.05776	-1.05584	-0.3327	-1.18021	-0.139088	-1.34329	-0.032402	-0.906389	0.277173	-0.814238	0.120844	-0.542326	0.334662	-0.687207	0.232598	-0.556218	0.163034	-0.629078	
4.4281	0	0	0.134702	-0.707095	0.206748	-0.700748	0.00953925	-0.592846	0.158598	-0.820857	0.054162	-0.674579	0.0958005	-0.659105	-0.220273	-0.790886	-0.057516	-1.0699	-0.339257	-1.19149	-0.146687	-1.35395	-0.034129	-0.920719	0.284522	-0.835007	0.120306	-0.553495	0.333504	-0.695006	0.229427	-0.564707	0.160861	-0.636718	
4.47693	0	0	0.137363	-0.714616	0.206933	-0.712461	0.004116	-0.600442	0.160037	-0.835667	0.054384	-0.683483	0.095411	-0.671941	-0.220851	-0.800041	-0.057272	-1.08397	-0.345813	-1.20277	-0.154286	-1.36462	-0.035856	-0.93505	0.291871	-0.855776	0.119767	-0.564665	0.332347	-0.702805	0.226257	-0.573195	0.158688	-0.644358	
4.47998	0	0	0.138692	-0.718374	0.206933	-0.712461	0.0104142	-0.606783	0.156157	-0.835441	0.0551898	-0.68576	0.0984192	-0.680442	-0.219755	-0.803138	-0.0586323	-1.09349	-0.343234	-1.21998	-0.161876	-1.37526	-0.034061	-0.949721	0.281584	-0.861005	0.118166	-0.572822	0.33628	-0.71392	0.237523	-0.587588	0.156514	-0.651985	
4.49066	0	0	0.140022	-0.722132	0.206933	-0.712461	0.0167125	-0.613125	0.152278	-0.835215	0.0559955	-0.688036	0.101428	-0.688943	-0.218659	-0.806235	-0.0599925	-1.10301	-0.340655	-1.2372	-0.169465	-1.38589	-0.032266	-0.964392	0.271297	-0.866235	0.116564	-0.580979	0.340213	-0.725035	0.24879	-0.601981	0.15434	-0.659612	
4.48761	0	0	0.141352	-0.725889	0.206933	-0.712461	0.0230108	-0.619466	0.148398	-0.834989	0.0568012	-0.690313	0.104436	-0.697445	-0.217563	-0.809332	-0.0613528	-1.11253	-0.338076	-1.25441	-0.177055	-1.39653	-0.030471	-0.979063	0.26101	-0.871464	0.114962	-0.589136	0.344145	-0.736149	0.260056	-0.616373	0.152166	-0.66724	
4.50439	0	0	0.142681	-0.729647	0.206933	-0.712461	0.029309	-0.625807	0.144518	-0.834763	0.057607	-0.69259	0.107444	-0.705946	-0.216467	-0.812429	-0.062713	-1.12205	-0.335497	-1.27162	-0.184644	-1.40716	-0.028676	-0.993734	0.250723	-0.876694	0.113361	-0.597293	0.348078	-0.747264	0.271323	-0.630766	0.149992	-0.674867	
4.50745	0	0	0.142681	-0.729647	0.212083	-0.715826	0.029309	-0.625807	0.150523	-0.840995	0.0622215	-0.697355	0.112354	-0.705888	-0.219239	-0.815378	-0.0640763	-1.13156	-0.339276	-1.28078	-0.190437	-1.42282	-0.029547	-1.00087	0.252554	-0.881869	0.115477	-0.603272	0.350042	-0.752816	0.27294	-0.635335	0.145045	-0.674648	
4.51355	0	0	0.142681	-0.729647	0.217233	-0.719191	0.029309	-0.625807	0.156527	-0.847226	0.066836	-0.70212	0.117264	-0.705829	-0.22201	-0.818326	-0.0654395	-1.14106	-0.343056	-1.28993	-0.19623	-1.43848	-0.030418	-1.008	0.254386	-0.887045	0.117593	-0.609252	0.352007	-0.758368	0.274556	-0.639905	0.140098	-0.674429	
4.52118	0	0	0.142681	-0.729647	0.222384	-0.722557	0.029309	-0.625807	0.162532	-0.853458	0.0714505	-0.706885	0.122175	-0.70577	-0.224782	-0.821275	-0.0668028	-1.15057	-0.346836	-1.29909	-0.202022	-1.45414	-0.031289	-1.01513	0.256217	-0.89222	0.119708	-0.615231	0.353971	-0.76392	0.276173	-0.644474	0.135152	-0.67421	
4.5227	0	0	0.142681	-0.729647	0.227534	-0.725922	0.029309	-0.625807	0.168537	-0.85969	0.076065	-0.71165	0.127085	-0.705712	-0.227554	-0.824224	-0.068166	-1.16007	-0.350615	-1.30824	-0.207815	-1.4698	-0.03216	-1.02226	0.258049	-0.897396	0.121824	-0.621211	0.355936	-0.769472	0.27779	-0.649043	0.130205	-0.673991	
4.52728	0	0	0.145339	-0.737158	0.22771	-0.737609	0.0291525	-0.636823	0.165022	-0.871226	0.077084	-0.722806	0.120272	-0.714319	-0.225951	-0.839531	-0.0663513	-1.17855	-0.354394	-1.31738	-0.213608	-1.4854	-0.038328	-1.024	0.261709	-0.907738	0.121824	-0.621211	0.354954	-0.766697	0.271375	-0.648363	0.136539	-0.67813	
4.52423	0	0	0.147997	-0.744669	0.227886	-0.749297	0.028996	-0.64784	0.161506	-0.882762	0.078103	-0.733962	0.113459	-0.722927	-0.224348	-0.854837	-0.0645365	-1.19702	-0.358173	-1.32651	-0.2194	-1.50101	-0.044496	-1.02574	0.265368	-0.91808	0.121824	-0.621211	0.353971	-0.763921	0.264961	-0.647682	0.142873	-0.682268	
4.52728	0	0	0.150654	-0.75218	0.228062	-0.760984	0.0288395	-0.658857	0.157991	-0.894298	0.079122	-0.745118	0.106646	-0.731534	-0.222744	-0.870144	-0.0627218	-1.2155	-0.361951	-1.33565	-0.225193	-1.51661	-0.050664	-1.02748	0.269027	-0.928423	0.121824	-0.621211	0.352989	-0.761146	0.258547	-0.647002	0.149206	-0.686406	
4.52728	0	0	0.153312	-0.759691	0.228238	-0.772671	0.028683	-0.669873	0.154476	-0.905834	0.080141	-0.756274	0.099833	-0.740141	-0.221141	-0.885451	-0.060907	-1.23397	-0.36573	-1.34478	-0.230986	-1.53222	-0.056832	-1.02922	0.272687	-0.938765	0.121824	-0.621211	0.352007	-0.75837	0.252132	-0.646322	0.15554	-0.690545	
4.52423	0	0	0.155968	-0.767196	0.231429	-0.78169	0.0317495	-0.678539	0.161535	-0.915051	0.0773485	-0.764923	0.0994275	-0.75291	-0.224502	-0.897484	-0.0729578	-1.2399	-0.37051	-1.36095	-0.231214	-1.54754	-0.0576928	-1.04594	0.26846	-0.943945	0.121274	-0.632331	0.347714	-0.768358	0.247339	-0.650206	0.148419	-0.697932	
4.52118	0	0	0.158623	-0.774701	0.234621	-0.790709	0.034816	-0.687206	0.168594	-0.924268	0.074556	-0.773573	0.099022	-0.76568	-0.227863	-0.909517	-0.0850085	-1.24582	-0.37529	-1.37713	-0.231441	-1.56286	-0.0585535	-1.06266	0.264232	-0.949124	0.120723	-0.64345	0.343422	-0.778347	0.242545	-0.654091	0.141298	-0.705319	
4.52118	0	0	0.161278	-0.782205	0.237812	-0.799729	0.0378825	-0.695872	0.175653	-0.933486	0.0717635	-0.782223	0.0986165	-0.778449	-0.231225	-0.921551	-0.0970592	-1.25175	-0.38007	-1.3933	-0.231669	-1.57819	-0.0594143	-1.07938	0.260004	-0.954304	0.120173	-0.65457	0.339129	-0.788335	0.237752	-0.657976	0.134177	-0.712706	
4.5227	0	0	0.163934	-0.78971	0.241003	-0.808748	0.040949	-0.704538	0.182712	-0.942703	0.068971	-0.790872	0.098211	-0.791218	-0.234586	-0.933584	-0.10911	-1.25768	-0.38485	-1.40948	-0.231897	-1.59351	-0.060275	-1.0961	0.255777	-0.959484	0.119623	-0.66569	0.334836	-0.798323	0.232958	-0.66186	0.127056	-0.720093	
4.52576	0	0	0.169301	-0.790333	0.24509	-0.809108	0.0462227	-0.707984	0.181652	-0.939709	0.0705763	-0.795409	0.109526	-0.795355	-0.237357	-0.93651	-0.104355	-1.27112	-0.387743	-1.42106	-0.239471	-1.604	-0.0611503	-1.1032	0.257603	-0.964645	0.118014	-0.673808	0.337776	-0.806632	0.237796	-0.675533	0.126264	-0.731594	
4.52423	0	0	0.174669	-0.790956	0.249177	-0.809468	0.0514965	-0.71143	0.180593	-0.936715	0.0721815	-0.799945	0.120841	-0.799492	-0.240127	-0.939437	-0.099599	-1.28456	-0.390637	-1.43264	-0.247045	-1.61449	-0.0620255	-1.11029	0.259429	-0.969805	0.116404	-0.681926	0.340716	-0.814941	0.242634	-0.689206	0.125471	-0.743095	
4.52576	0	0	0.180036	-0.791578	0.253263	-0.809827	0.0567703	-0.714876	0.179534	-0.93372	0.0737867	-0.804482	0.132157	-0.80363	-0.242898	-0.942363	-0.0948435	-1.298	-0.39353	-1.44423	-0.254618	-1.62498	-0.0629008	-1.11739	0.261255	-0.974966	0.114795	-0.690045	0.343656	-0.823249	0.247472	-0.702878	0.124678	-0.754596	
4.53033	0	0	0.185403	-0.792201	0.25735	-0.810187	0.062044	-0.718322	0.178474	-0.930726	0.075392	-0.809019	0.143472	-0.807767	-0.245669	-0.945289	-0.090088	-1.31144	-0.396423	-1.45582	-0.262192	-1.63546	-0.063776	-1.12448	0.263081	-0.980127	0.113186	-0.698163	0.346596	-0.831558	0.25231	-0.716551	0.123886	-0.766097	
4.53796	0	0	0.185403	-0.792201	0.2522	-0.806822	0.062044	-0.718322	0.178474	-0.930726	0.0745895	-0.806751	0.140473	-0.79929	-0.249527	-0.945135	-0.0946297	-1.31191	-0.398313	-1.46035	-0.264204	-1.64571	-0.059372	-1.12736	0.263081	-0.980127	0.112131	-0.695183	0.345616	-0.828789	0.250698	-0.711996	0.128828	-0.766324	
4.53796	0	0	0.185403	-0.792201	0.24705	-0.803457	0.062044	-0.718322	0.178474	-0.930726	0.073787	-0.804483	0.137473	-0.790813	-0.253386	-0.944981	-0.0991715	-1.31238	-0.400203	-1.46488	-0.266215	-1.65595	-0.054968	-1.13024	0.263081	-0.980127	0.111077	-0.692202	0.344637	-0.826021	0.249086	-0.707441	0.13377	-0.76655	
4.53949	0	0	0.185403	-0.792201	0.2419	-0.800091	0.062044	-0.718322	0.178474	-0.930726	0.0729845	-0.802215	0.134473	-0.782336	-0.257244	-0.944826	-0.103713	-1.31286	-0.402092	-1.46941	-0.268227	-1.66619	-0.050564	-1.13312	0.263081	-0.980127	0.110022	-0.689221	0.343657	-0.823252	0.247475	-0.702885	0.138712	-0.766776	
4.54101	0	0	0.185403	-0.792201	0.23675	-0.796726	0.062044	-0.718322	0.178474	-0.930726	0.072182	-0.799947	0.131474	-0.773859	-0.261103	-0.944672	-0.108255	-1.31333	-0.403982	-1.47394	-0.270239	-1.67643	-0.04616	-1.13599	0.263081	-0.980127	0.108968	-0.686241	0.342677	-0.820483	0.245863	-0.69833	0.143654	-0.767003	
4.54254	0	0	0.188057	-0.799702	0.238876	-0.802736	0.0577918	-0.717763	0.176712	-0.936478	0.0715868	-0.80653	0.128064	-0.778148	-0.258925	-0.950827	-0.10213	-1.31733	-0.404105	-1.48346	-0.268468	-1.68143	-0.0488012	-1.1381	0.272789	-0.990435	0.112687	-0.684087	0.341697	-0.817713	0.24425	-0.693772	0.140888	-0.759186	
4.54864	0	0	0.190712	-0.807204	0.241003	-0.808746	0.0535395	-0.717204	0.17495	-0.942231	0.0709915	-0.813113	0.124655	-0.782437	-0.256748	-0.956981	-0.0960045	-1.32133	-0.404228	-1.49299	-0.266697	-1.68644	-0.0514425	-1.1402	0.282497	-1.00074	0.116406	-0.681933	0.340717	-0.814944	0.242638	-0.689215	0.138122	-0.75137	
4.5517	0	0	0.193366	-0.814706	0.243129	-0.814755	0.0492872	-0.716645	0.173188	-0.947984	0.0703962	-0.819696	0.121245	-0.786726	-0.25457	-0.963136	-0.0898792	-1.32534	-0.40435	-1.50251	-0.264926	-1.69144	-0.0540837	-1.14231	0.292204	-1.01105	0.120126	-0.679778	0.339737	-0.812175	0.241025	-0.684657	0.135357	-0.743553	
4.5517	0	0	0.19602	-0.822207	0.245256	-0.820765	0.045035	-0.716086	0.171426	-0.953736	0.069801	-0.826279	0.117835	-0.791015	-0.252392	-0.969291	-0.083754	-1.32934	-0.404473	-1.51203	-0.263155	-1.69645	-0.056725	-1.14441	0.301912	-1.02136	0.123845	-0.677624	0.338757	-0.809405	0.239412	-0.680099	0.132591	-0.735736	
4.55475	0	0	0.19602	-0.822207	0.250406	-0.82413	0.0503087	-0.719532	0.180249	-0.957201	0.0744067	-0.831031	0.125743	-0.799439	-0.256249	-0.969136	-0.0776242	-1.33334	-0.405482	-1.51904	-0.263155	-1.69645	-0.0540825	-1.15188	0.303736	-1.02651	0.125955	-0.683588	0.339737	-0.812175	0.241025	-0.684657	0.135357	-0.743553	
4.55322	0	0	0.19602	-0.822207	0.255556	-0.827495	0.0555825	-0.722978	0.189072	-0.960665	0.0790125	-0.835782	0.133651	-0.807862	-0.260105	-0.96898	-0.0714945	-1.33735	-0.40649	-1.52605	-0.263155	-1.69645	-0.05144	-1.15935	0.30556	-1.03167	0.128065	-0.689551	0.340717	-0.814944	0.242638	-0.689215	0.138122	-0.75137	
4.5517	0	0	0.19602	-0.822207	0.260706	-0.830861	0.0608562	-0.726424	0.197895	-0.964129	0.0836183	-0.840533	0.141559	-0.816285	-0.263962	-0.968824	-0.0653647	-1.34135	-0.407499	-1.53306	-0.263155	-1.69645	-0.0487975	-1.16681	0.307384	-1.03682	0.130176	-0.695515	0.341697	-0.817713	0.24425	-0.693772	0.140888	-0.759186	
4.54864	0	0	0.19602	-0.822207	0.265856	-0.834226	0.06613	-0.72987	0.206718	-0.967594	0.088224	-0.845285	0.149467	-0.824709	-0.267819	-0.968669	-0.059235	-1.34536	-0.408508	-1.54008	-0.263155	-1.69645	-0.046155	-1.17428	0.309208	-1.04198	0.132286	-0.701478	0.342677	-0.820483	0.245863	-0.69833	0.143654	-0.767003	
4.55017	0	0	0.200066	-0.819084	0.267819	-0.828577	0.0683415	-0.724654	0.208485	-0.961842	0.0890255	-0.84755	0.160801	-0.828859	-0.261786	-0.974975	-0.059235	-1.34536	-0.406744	-1.54506	-0.254055	-1.70624	-0.0452748	-1.17677	0.315274	-1.04198	0.13334	-0.704459	0.348746	-0.826577	0.247475	-0.702885	0.146418	-0.774813	
4.5517	0	0	0.204111	-0.81596	0.269782	-0.822928	0.070553	-0.719439	0.210251	-0.95609	0.089827	-0.849816	0.172135	-0.833009	-0.255753	-0.981281	-0.059235	-1.34536	-0.40498	-1.55005	-0.244955	-1.71603	-0.0443945	-1.17926	0.32134	-1.04198	0.134395	-0.707439	0.354815	-0.832671	0.249086	-0.707441	0.149181	-0.782623	
4.55017	0	0	0.208156	-0.812836	0.271745	-0.817279	0.0727645	-0.714224	0.212017	-0.950339	0.0906285	-0.852081	0.18347	-0.837159	-0.24972	-0.987587	-0.059235	-1.34536	-0.403216	-1.55503	-0.235856	-1.72582	-0.0435142	-1.18175	0.327406	-1.04198	0.13545	-0.710419	0.360883	-0.838765	0.250698	-0.711996	0.151945	-0.790433	
4.54407	0	0	0.212202	-0.809713	0.273708	-0.81163	0.074976	-0.709008	0.213784	-0.944587	0.09143	-0.854346	0.194804	-0.841309	-0.243687	-0.993893	-0.059235	-1.34536	-0.401452	-1.56002	-0.226756	-1.73561	-0.042634	-1.18423	0.333472	-1.04198	0.136504	-0.7134	0.366952	-0.844859	0.25231	-0.716551	0.154708	-0.798243	
4.54101	0	0	0.214856	-0.817214	0.275835	-0.817642	0.07702	-0.714785	0.218021	-0.956562	0.09083	-0.860916	0.186465	-0.845624	-0.244284	-1.00295	-0.0576523	-1.34983	-0.403345	-1.56452	-0.232317	-1.73582	-0.040874	-1.18921	0.333472	-1.04198	0.136504	-0.7134	0.365972	-0.84209	0.260333	-0.721793	0.153327	-0.794339	
4.53644	0	0	0.21751	-0.824716	0.277963	-0.823654	0.079064	-0.720561	0.222258	-0.968538	0.09023	-0.867485	0.178126	-0.849939	-0.244881	-1.01201	-0.0560695	-1.35431	-0.405238	-1.56903	-0.237878	-1.73603	-0.039114	-1.19418	0.333472	-1.04198	0.136504	-0.7134	0.364992	-0.839322	0.268355	-0.727035	0.151945	-0.790435	
4.53186	0	0	0.220165	-0.832218	0.28009	-0.829666	0.081108	-0.726338	0.226496	-0.980513	0.08963	-0.874054	0.169787	-0.854254	-0.245478	-1.02106	-0.0544868	-1.35878	-0.407131	-1.57354	-0.24344	-1.73624	-0.037354	-1.19916	0.333472	-1.04198	0.136504	-0.7134	0.364013	-0.836553	0.276378	-0.732278	0.150564	-0.78653	
4.53186	0	0	0.222819	-0.839719	0.282217	-0.835678	0.083152	-0.732115	0.230733	-0.992489	0.08903	-0.880624	0.161448	-0.858569	-0.246075	-1.03012	-0.052904	-1.36325	-0.409024	-1.57805	-0.249001	-1.73645	-0.035594	-1.20413	0.333472	-1.04198	0.136504	-0.7134	0.363033	-0.833784	0.284401	-0.73752	0.149182	-0.782626	
4.52576	0	0	0.225471	-0.847214	0.286467	-0.847689	0.087236	-0.743657	0.228962	-0.998228	0.090827	-0.893964	0.161021	-0.871287	-0.249446	-1.04207	-0.0481605	-1.37666	-0.413689	-1.58456	-0.239903	-1.74623	-0.0364788	-1.21119	0.337119	-1.05229	0.135942	-0.724477	0.367928	-0.847619	0.282817	-0.750475	0.143439	-0.793868	
4.52576	0	0	0.228123	-0.85471	0.290717	-0.859701	0.09132	-0.755198	0.227191	-1.00397	0.092624	-0.907304	0.160593	-0.884005	-0.252816	-1.05401	-0.043417	-1.39006	-0.418354	-1.59108	-0.230805	-1.75602	-0.0373635	-1.21826	0.340765	-1.06259	0.13538	-0.735555	0.372824	-0.861455	0.281234	-0.763431	0.137697	-0.80511	
4.5227	0	0	0.230776	-0.862205	0.294968	-0.871713	0.095404	-0.76674	0.225421	-1.00971	0.094421	-0.920643	0.160165	-0.896723	-0.256187	-1.06595	-0.0386735	-1.40347	-0.423019	-1.59759	-0.221708	-1.76581	-0.0382482	-1.22532	0.344412	-1.0729	0.134818	-0.746633	0.377719	-0.87529	0.27965	-0.776386	0.131955	-0.816351	
4.52423	0	0	0.233428	-0.8697	0.299218	-0.883724	0.099488	-0.778282	0.22365	-1.01545	0.096218	-0.933983	0.159738	-0.909441	-0.259558	-1.0779	-0.03393	-1.41688	-0.427684	-1.60411	-0.21261	-1.77559	-0.039133	-1.23238	0.348059	-1.08321	0.134256	-0.75771	0.382615	-0.889125	0.278066	-0.789342	0.126212	-0.827593	
4.5166	0	0	0.234753	-0.873445	0.30225	-0.881089	0.099488	-0.778282	0.232485	-1.01892	0.094814	-0.938273	0.164653	-0.909406	-0.260161	-1.08692	-0.0369013	-1.4218	-0.424167	-1.61405	-0.216407	-1.78079	-0.0364978	-1.23983	0.355956	-1.08837	0.137412	-0.76663	0.387707	-0.892452	0.281281	-0.798427	0.131722	-0.843165	
4.51507	0	0	0.236078	-0.87719	0.305282	-0.878455	0.099488	-0.778282	0.241321	-1.0224	0.09341	-0.942562	0.169568	-0.90937	-0.260765	-1.09594	-0.0398725	-1.42672	-0.42065	-1.62399	-0.220204	-1.78598	-0.0338625	-1.24728	0.363853	-1.09353	0.140568	-0.775551	0.392799	-0.895779	0.284496	-0.807512	0.137232	-0.858737	
4.51507	0	0	0.237404	-0.880936	0.308314	-0.875821	0.099488	-0.778282	0.250157	-1.02587	0.092006	-0.946852	0.174483	-0.909334	-0.261369	-1.10496	-0.0428437	-1.43164	-0.417133	-1.63393	-0.224002	-1.79117	-0.0312272	-1.25473	0.371751	-1.09869	0.143725	-0.784471	0.397891	-0.899107	0.28771	-0.816597	0.142742	-0.874309	
4.51355	0	0	0.238729	-0.884681	0.311346	-0.873186	0.099488	-0.778282	0.258992	-1.02935	0.090602	-0.951142	0.179398	-0.909299	-0.261972	-1.11398	-0.045815	-1.43656	-0.413616	-1.64387	-0.227799	-1.79637	-0.028592	-1.26217	0.379648	-1.10385	0.146881	-0.793391	0.402983	-0.902434	0.290925	-0.825682	0.148252	-0.889881	
4.51355	0	0	0.234678	-0.887789	0.312408	-0.876188	0.0972705	-0.783481	0.26005	-1.03234	0.0921987	-0.955655	0.179398	-0.909299	-0.264741	-1.11687	-0.0396852	-1.44056	-0.411859	-1.64883	-0.226034	-1.80136	-0.0277142	-1.26465	0.387552	-1.10901	0.146881	-0.793391	0.401026	-0.896902	0.300554	-0.835464	0.145498	-0.882099	
4.51202	0	0	0.230627	-0.890897	0.31347	-0.87919	0.095053	-0.788679	0.261107	-1.03533	0.0937955	-0.960168	0.179398	-0.909299	-0.267511	-1.11977	-0.0335555	-1.44457	-0.410102	-1.6538	-0.22427	-1.80634	-0.0268365	-1.26714	0.395457	-1.11418	0.146881	-0.793391	0.399068	-0.891371	0.310183	-0.845245	0.142744	-0.874316	
4.5105	0	0	0.226575	-0.894005	0.314533	-0.882193	0.0928355	-0.793878	0.262165	-1.03832	0.0953923	-0.96468	0.179398	-0.909299	-0.270281	-1.12266	-0.0274257	-1.44857	-0.408345	-1.65876	-0.222505	-1.81133	-0.0259587	-1.26962	0.403362	-1.11934	0.146881	-0.793391	0.397111	-0.88584	0.319812	-0.855027	0.13999	-0.866534	
4.51202	0	0	0.222524	-0.897113	0.315595	-0.885195	0.090618	-0.799077	0.263223	-1.0413	0.096989	-0.969193	0.179398	-0.909299	-0.27305	-1.12555	-0.021296	-1.45258	-0.406588	-1.66373	-0.22074	-1.81632	-0.025081	-1.2721	0.411266	-1.12451	0.146881	-0.793391	0.395154	-0.880308	0.329441	-0.864808	0.137236	-0.858751	
4.50592	0	0	0.225171	-0.904593	0.316657	-0.888196	0.092656	-0.804837	0.262502	-1.05002	0.096381	-0.975729	0.183879	-0.921963	-0.269806	-1.13472	-0.0181408	-1.4615	-0.411257	-1.67021	-0.217213	-1.82629	-0.0242183	-1.28409	0.400927	-1.12962	0.146881	-0.793391	0.397111	-0.88584	0.321418	-0.859565	0.137236	-0.858751	
4.50745	0	0	0.227818	-0.912072	0.317719	-0.891198	0.094694	-0.810596	0.261782	-1.05873	0.095773	-0.982266	0.18836	-0.934628	-0.266563	-1.14389	-0.0149855	-1.47041	-0.415926	-1.6767	-0.213687	-1.83625	-0.0233555	-1.29609	0.390587	-1.13473	0.146881	-0.793391	0.399068	-0.891371	0.313395	-0.854323	0.137236	-0.858751	
4.50745	0	0	0.230464	-0.919552	0.318781	-0.8942	0.096732	-0.816356	0.261061	-1.06745	0.095165	-0.988802	0.192841	-0.947292	-0.263319	-1.15305	-0.0118303	-1.47933	-0.420594	-1.68318	-0.21016	-1.84622	-0.0224927	-1.30809	0.380248	-1.13985	0.146881	-0.793391	0.401026	-0.896902	0.305372	-0.849081	0.137236	-0.858751	
4.50439	0	0	0.233111	-0.927031	0.319843	-0.897201	0.09877	-0.822116	0.26034	-1.07616	0.094557	-0.995338	0.197322	-0.959957	-0.260075	-1.16222	-0.008675	-1.48825	-0.425263	-1.68966	-0.206633	-1.85619	-0.02163	-1.32009	0.369909	-1.14496	0.146881	-0.793391	0.402983	-0.902434	0.297349	-0.843838	0.137236	-0.858751	
4.49982	0	0	0.238488	-0.92767	0.325002	-0.900572	0.103028	-0.822685	0.264232	-1.07641	0.0953543	-0.997591	0.200306	-0.96839	-0.262845	-1.16511	-0.0132283	-1.4887	-0.421757	-1.69957	-0.20311	-1.86614	-0.0190022	-1.32751	0.375362	-1.16037	0.144209	-0.798496	0.401802	-0.91016	0.292543	-0.847672	0.141366	-0.870422	
4.49676	0	0	0.243865	-0.928308	0.330162	-0.903944	0.107287	-0.823253	0.268124	-1.07666	0.0961515	-0.999844	0.20329	-0.976823	-0.265616	-1.16799	-0.0177815	-1.48915	-0.41825	-1.70948	-0.199587	-1.8761	-0.0163745	-1.33494	0.380815	-1.17578	0.141536	-0.8036	0.40062	-0.917885	0.287738	-0.851506	0.145496	-0.882094	
4.49982	0	0	0.249241	-0.928947	0.335321	-0.907315	0.111545	-0.823822	0.272015	-1.07691	0.0969488	-1.0021	0.206274	-0.985256	-0.268386	-1.17087	-0.0223348	-1.4896	-0.414744	-1.71939	-0.196064	-1.88606	-0.0137468	-1.34237	0.386268	-1.19119	0.138864	-0.808704	0.399439	-0.925611	0.282933	-0.855339	0.149626	-0.893765	
4.49676	0	0	0.254618	-0.929586	0.340481	-0.910686	0.115803	-0.824391	0.275907	-1.07715	0.097746	-1.00435	0.209258	-0.993689	-0.271156	-1.17376	-0.026888	-1.49005	-0.411238	-1.7293	-0.192541	-1.89601	-0.011119	-1.34979	0.391721	-1.2066	0.136191	-0.813809	0.398258	-0.933336	0.278127	-0.859173	0.153756	-0.905436	
4.49524	0	0	0.255941	-0.933325	0.341542	-0.913686	0.116822	-0.82727	0.273071	-1.07989	0.103139	-1.01134	0.209258	-0.993689	-0.267918	-1.18291	-0.0237375	-1.49895	-0.413136	-1.73377	-0.196346	-1.90117	-0.0137655	-1.35187	0.393536	-1.21173	0.145167	-0.826518	0.400212	-0.938857	0.281333	-0.868235	0.156506	-0.913208	
4.49371	0	0	0.257264	-0.937064	0.342604	-0.916687	0.117841	-0.830149	0.270236	-1.08263	0.108532	-1.01832	0.209258	-0.993689	-0.26468	-1.19206	-0.020587	-1.50786	-0.415033	-1.73824	-0.200151	-1.90633	-0.016412	-1.35394	0.395352	-1.21686	0.154143	-0.839227	0.402166	-0.944379	0.28454	-0.877297	0.159256	-0.920981	
4.48913	0	0	0.258587	-0.940803	0.343666	-0.919687	0.118859	-0.833029	0.2674	-1.08536	0.113925	-1.02531	0.209258	-0.993689	-0.261441	-1.20121	-0.0174365	-1.51676	-0.416931	-1.74271	-0.203956	-1.91149	-0.0190585	-1.35602	0.397168	-1.22199	0.163118	-0.851936	0.404119	-0.9499	0.287746	-0.886359	0.162006	-0.928754	
4.48913	0	0	0.25991	-0.944542	0.344727	-0.922688	0.119878	-0.835908	0.264564	-1.0881	0.119318	-1.0323	0.209258	-0.993689	-0.258203	-1.21037	-0.014286	-1.52566	-0.418829	-1.74717	-0.207761	-1.91665	-0.021705	-1.35809	0.398983	-1.22713	0.172094	-0.864645	0.406073	-0.955421	0.290952	-0.895421	0.164756	-0.936526	
4.48608	0	0	0.263876	-0.95575	0.338654	-0.927939	0.12395	-0.847417	0.265947	-1.10275	0.117294	-1.04308	0.205379	-1.01057	-0.26159	-1.2222	-0.0141198	-1.53944	-0.419852	-1.75411	-0.211564	-1.9218	-0.0234758	-1.36263	0.394721	-1.23222	0.171044	-0.861679	0.400984	-0.952096	0.298967	-0.900659	0.16613	-0.94041	
4.48303	0	0	0.267841	-0.966957	0.332581	-0.933189	0.128023	-0.858925	0.267331	-1.11741	0.11527	-1.05387	0.2015	-1.02745	-0.264977	-1.23404	-0.0139535	-1.55322	-0.420875	-1.76104	-0.215366	-1.92696	-0.0252465	-1.36718	0.390459	-1.23732	0.169994	-0.858712	0.395895	-0.94877	0.306983	-0.905896	0.167505	-0.944294	
4.48151	0	0	0.271807	-0.978165	0.326509	-0.93844	0.132095	-0.870433	0.268714	-1.13206	0.113246	-1.06465	0.197622	-1.04433	-0.268363	-1.24588	-0.0137872	-1.567	-0.421898	-1.76798	-0.219168	-1.93211	-0.0270172	-1.37172	0.386197	-1.24242	0.168945	-0.855745	0.390806	-0.945445	0.314999	-0.911134	0.168879	-0.948177	
4.48456	0	0	0.275773	-0.989373	0.320436	-0.943691	0.136167	-0.881942	0.270097	-1.14671	0.111222	-1.07544	0.193743	-1.0612	-0.27175	-1.25771	-0.013621	-1.58078	-0.422921	-1.77491	-0.222971	-1.93726	-0.028788	-1.37627	0.381935	-1.24752	0.167895	-0.852779	0.385717	-0.94212	0.323014	-0.916371	0.170253	-0.952061	
4.48151	0	0	0.278414	-0.996837	0.324673	-0.955666	0.133941	-0.887116	0.269366	-1.15539	0.110606	-1.08195	0.191801	-1.06962	-0.277288	-1.26345	-0.0150315	-1.59009	-0.426717	-1.78382	-0.21946	-1.94718	-0.028812	-1.38575	0.387369	-1.26287	0.161492	-0.859991	0.390596	-0.955908	0.311794	-0.919477	0.158185	-0.959085	
4.47693	0	0	0.281055	-1.0043	0.32891	-0.967642	0.131714	-0.892289	0.268636	-1.16406	0.10999	-1.08845	0.18986	-1.07804	-0.282827	-1.26918	-0.016442	-1.5994	-0.430513	-1.79273	-0.215948	-1.95711	-0.028836	-1.39522	0.392803	-1.27823	0.15509	-0.867203	0.395474	-0.969696	0.300575	-0.922583	0.146116	-0.966108	
4.47388	0	0	0.283696	-1.01176	0.333148	-0.979617	0.129488	-0.897463	0.267906	-1.17274	0.109375	-1.09496	0.187918	-1.08646	-0.288365	-1.27491	-0.0178525	-1.60872	-0.43431	-1.80164	-0.212437	-1.96703	-0.02886	-1.4047	0.398238	-1.29359	0.148688	-0.874415	0.400353	-0.983484	0.289355	-0.925688	0.134047	-0.973132	
4.47998	0	0	0.286337	-1.01923	0.337385	-0.991592	0.127261	-0.902637	0.267175	-1.18141	0.108759	-1.10146	0.185976	-1.09487	-0.293904	-1.28064	-0.019263	-1.61803	-0.438106	-1.81055	-0.208926	-1.97695	-0.028884	-1.41418	0.403672	-1.30895	0.142285	-0.881627	0.405232	-0.997272	0.278135	-0.928794	0.121979	-0.980155	
4.47693	0	0	0.279637	-1.01485	0.338444	-0.994583	0.127261	-0.902637	0.268227	-1.18438	0.109553	-1.10371	0.185976	-1.09487	-0.289606	-1.29279	-0.023811	-1.61847	-0.440003	-1.815	-0.21273	-1.98209	-0.0280108	-1.41664	0.403672	-1.30895	0.146475	-0.893468	0.404043	-1.00496	0.289341	-0.943066	0.121157	-0.991522	
4.4754	0	0	0.272937	-1.01047	0.339502	-0.997575	0.127261	-0.902637	0.26928	-1.18736	0.110348	-1.10596	0.185976	-1.09487	-0.285308	-1.30493	-0.028359	-1.6189	-0.441901	-1.81944	-0.216534	-1.98722	-0.0271375	-1.41911	0.403672	-1.30895	0.150664	-0.905308	0.402855	-1.01266	0.300548	-0.957337	0.120335	-1.00289	
4.4754	0	0	0.266237	-1.00609	0.34056	-1.00057	0.127261	-0.902637	0.270332	-1.19033	0.111142	-1.1082	0.185976	-1.09487	-0.28101	-1.31708	-0.032907	-1.61934	-0.443798	-1.82389	-0.220338	-1.99236	-0.0262642	-1.42158	0.403672	-1.30895	0.154853	-0.917148	0.401666	-1.02035	0.311754	-0.971608	0.119513	-1.01426	
4.47998	0	0	0.259537	-1.00172	0.341619	-1.00356	0.127261	-0.902637	0.271384	-1.1933	0.111937	-1.11045	0.185976	-1.09487	-0.276712	-1.32923	-0.037455	-1.61978	-0.445696	-1.82834	-0.224142	-1.99749	-0.025391	-1.42405	0.403672	-1.30895	0.159043	-0.928989	0.400478	-1.02804	0.32296	-0.98588	0.118691	-1.02562	
4.48151	0	0	0.263495	-1.0129	0.339639	-1.00916	0.12605	-0.910674	0.2717	-1.20493	0.110525	-1.1147	0.187461	-1.09907	-0.283323	-1.3319	-0.03432	-1.62864	-0.444824	-1.8308	-0.22239	-2.00244	-0.025391	-1.42405	0.403672	-1.30895	0.159043	-0.928989	0.405564	-1.03136	0.32296	-0.98588	0.118691	-1.02562	
4.48151	0	0	0.267452	-1.02409	0.337659	-1.01476	0.12484	-0.91871	0.272015	-1.21655	0.109114	-1.11895	0.188945	-1.10326	-0.289934	-1.33458	-0.031185	-1.6375	-0.443952	-1.83327	-0.220638	-2.00739	-0.025391	-1.42405	0.403672	-1.30895	0.159043	-0.928989	0.41065	-1.03469	0.32296	-0.98588	0.118691	-1.02562	
4.48151	0	0	0.271409	-1.03527	0.335679	-1.02036	0.123629	-0.926747	0.272331	-1.22818	0.107702	-1.12321	0.19043	-1.10746	-0.296546	-1.33725	-0.02805	-1.64636	-0.44308	-1.83573	-0.218886	-2.01235	-0.025391	-1.42405	0.403672	-1.30895	0.159043	-0.928989	0.415736	-1.03801	0.32296	-0.98588	0.118691	-1.02562	
4.48456	0	0	0.275367	-1.04645	0.333699	-1.02596	0.122418	-0.934783	0.272647	-1.2398	0.10629	-1.12746	0.191914	-1.11166	-0.303157	-1.33993	-0.024915	-1.65522	-0.442208	-1.8382	-0.217134	-2.0173	-0.025391	-1.42405	0.403672	-1.30895	0.159043	-0.928989	0.420822	-1.04133	0.32296	-0.98588	0.118691	-1.02562	
4.47998	0	0	0.276685	-1.05018	0.331719	-1.03155	0.124448	-0.940519	0.26981	-1.24251	0.103291	-1.12722	0.187003	-1.11167	-0.305924	-1.34278	-0.024915	-1.65522	-0.444106	-1.84264	-0.208071	-2.02702	-0.0227735	-1.43144	0.405481	-1.31406	0.155318	-0.931102	0.417683	-1.04351	0.31655	-0.985164	0.116498	-1.03311	
4.47998	0	0	0.278003	-1.0539	0.329739	-1.03715	0.126477	-0.946254	0.266973	-1.24522	0.100293	-1.12699	0.182092	-1.11169	-0.30869	-1.34563	-0.024915	-1.65522	-0.446005	-1.84708	-0.199009	-2.03675	-0.020156	-1.43884	0.40729	-1.31917	0.151593	-0.933215	0.414544	-1.04569	0.310141	-0.984447	0.114304	-1.04059	
4.48303	0	0	0.279321	-1.05763	0.327758	-1.04274	0.128507	-0.95199	0.264136	-1.24793	0.0972945	-1.12675	0.177181	-1.1117	-0.311457	-1.34848	-0.024915	-1.65522	-0.447903	-1.85152	-0.189946	-2.04648	-0.0175385	-1.44624	0.4091	-1.32429	0.147868	-0.935327	0.411405	-1.04787	0.303731	-0.983731	0.112111	-1.04807	
4.47693	0	0	0.280639	-1.06135	0.325778	-1.04834	0.130537	-0.957726	0.261299	-1.25063	0.094296	-1.12652	0.17227	-1.11172	-0.314224	-1.35133	-0.024915	-1.65522	-0.449801	-1.85596	-0.180884	-2.0562	-0.014921	-1.45364	0.410909	-1.3294	0.144143	-0.93744	0.408266	-1.05005	0.297321	-0.983015	0.109917	-1.05555	
4.48151	0	0	0.279321	-1.05763	0.329872	-1.04872	0.134796	-0.958305	0.265186	-1.25089	0.101882	-1.13148	0.178665	-1.11589	-0.309313	-1.35454	-0.0187985	-1.65921	-0.44893	-1.85842	-0.189946	-2.04648	-0.0140488	-1.4561	0.410909	-1.3294	0.146234	-0.94335	0.405129	-1.05223	0.292514	-0.986813	0.111284	-1.05941	
4.47693	0	0	0.278003	-1.0539	0.333966	-1.04909	0.139055	-0.958883	0.269073	-1.25115	0.109468	-1.13643	0.18506	-1.12007	-0.304401	-1.35775	-0.012682	-1.66321	-0.448059	-1.86088	-0.199009	-2.03675	-0.0131765	-1.45857	0.410909	-1.3294	0.148325	-0.949261	0.401992	-1.05441	0.287707	-0.990611	0.11265	-1.06327	
4.4754	0	0	0.276685	-1.05018	0.33806	-1.04947	0.143314	-0.959461	0.27296	-1.25141	0.117055	-1.14139	0.191455	-1.12425	-0.29949	-1.36096	-0.0065655	-1.66721	-0.447187	-1.86335	-0.208071	-2.02702	-0.0123042	-1.46103	0.410909	-1.3294	0.150417	-0.955171	0.398854	-1.05658	0.2829	-0.994408	0.114016	-1.06714	
4.4693	0	0	0.275367	-1.04645	0.342154	-1.04985	0.147573	-0.96004	0.276847	-1.25167	0.124641	-1.14635	0.19785	-1.12843	-0.294579	-1.36417	-0.000449	-1.6712	-0.446316	-1.86581	-0.217134	-2.0173	-0.011432	-1.46349	0.410909	-1.3294	0.152508	-0.961081	0.395717	-1.05876	0.278093	-0.998206	0.115383	-1.071	
4.47235	0	0	0.274048	-1.04273	0.345194	-1.04725	0.141284	-0.953726	0.27086	-1.24548	0.125261	-1.13985	0.193396	-1.11584	-0.29181	-1.36132	-0.00358375	-1.66234	-0.447187	-1.86335	-0.208071	-2.02702	-0.0079115	-1.4639	0.426696	-1.33972	0.156234	-0.958972	0.399827	-1.05933	0.278093	-0.998206	0.121679	-1.07511	
4.47388	0	0	0.27273	-1.039	0.348233	-1.04464	0.134995	-0.947412	0.264873	-1.23929	0.125881	-1.13336	0.188942	-1.10326	-0.28904	-1.35847	-0.0067185	-1.65348	-0.448059	-1.86088	-0.199009	-2.03675	-0.004391	-1.46431	0.442484	-1.35003	0.159961	-0.956863	0.403938	-1.05991	0.278093	-0.998206	0.127975	-1.07923	
4.47082	0	0	0.271412	-1.03527	0.351272	-1.04204	0.128707	-0.941097	0.258887	-1.23309	0.1265	-1.12686	0.184488	-1.09067	-0.286271	-1.35562	-0.00985325	-1.64462	-0.44893	-1.85842	-0.189946	-2.04648	-0.0008705	-1.46471	0.458271	-1.36035	0.163688	-0.954755	0.408048	-1.06048	0.278093	-0.998206	0.134272	-1.08334	
4.4693	0	0	0.270093	-1.03155	0.354312	-1.03943	0.122418	-0.934783	0.2529	-1.2269	0.12712	-1.12037	0.180034	-1.07808	-0.283502	-1.35277	-0.012988	-1.63576	-0.449801	-1.85596	-0.180884	-2.0562	0.00265	-1.46512	0.474058	-1.37067	0.167414	-0.952646	0.412158	-1.06105	0.278093	-0.998206	0.140568	-1.08745	
4.46167	0	0	0.27273	-1.039	0.356426	-1.0454	0.124448	-0.940519	0.256049	-1.2358	0.1265	-1.12686	0.189404	-1.09066	-0.281357	-1.35883	-0.00529925	-1.64419	-0.448059	-1.86088	-0.173566	-2.06098	1.25E-06	-1.46718	0.467969	-1.37062	0.166368	-0.949689	0.412158	-1.06105	0.276497	-0.993694	0.131538	-1.07561	
4.46472	0	0	0.275366	-1.04645	0.35854	-1.05138	0.126477	-0.946254	0.259198	-1.2447	0.125881	-1.13336	0.198773	-1.10323	-0.279212	-1.36489	0.0023895	-1.65262	-0.446317	-1.86581	-0.166249	-2.06577	-0.0026475	-1.46923	0.46188	-1.37057	0.165322	-0.946732	0.412158	-1.06105	0.2749	-0.989183	0.122508	-1.06377	
4.46167	0	0	0.278003	-1.0539	0.360653	-1.05735	0.128507	-0.95199	0.262347	-1.2536	0.125261	-1.13985	0.208143	-1.11581	-0.277068	-1.37095	0.0100783	-1.66106	-0.444575	-1.87073	-0.158932	-2.07055	-0.00529625	-1.47129	0.455791	-1.37052	0.164275	-0.943776	0.412158	-1.06105	0.273304	-0.984671	0.113479	-1.05194	
4.46167	0	0	0.280639	-1.06135	0.362767	-1.06332	0.130537	-0.957726	0.265496	-1.2625	0.124641	-1.14635	0.217513	-1.12838	-0.274923	-1.37702	0.017767	-1.66949	-0.442833	-1.87565	-0.151614	-2.07533	-0.007945	-1.47335	0.449702	-1.37047	0.163229	-0.940819	0.412158	-1.06105	0.271708	-0.980159	0.104449	-1.0401	
4.46167	0	0	0.279321	-1.05763	0.35867	-1.06294	0.131551	-0.960592	0.270433	-1.26572	0.126228	-1.15083	0.21408	-1.13259	-0.276623	-1.38289	0.0147793	-1.67434	-0.441962	-1.87811	-0.151614	-2.07533	-0.006202	-1.47828	0.441812	-1.36531	0.161594	-0.948838	0.414103	-1.06655	0.2749	-0.98918	0.103622	-1.05143	
4.45709	0	0	0.278003	-1.0539	0.354573	-1.06256	0.132566	-0.963459	0.27537	-1.26895	0.127814	-1.15532	0.210647	-1.13679	-0.278323	-1.38876	0.0117915	-1.6792	-0.441091	-1.88057	-0.151614	-2.07533	-0.004459	-1.4832	0.433922	-1.36016	0.159959	-0.956857	0.416049	-1.07205	0.278091	-0.998201	0.102795	-1.06276	
4.45557	0	0	0.276685	-1.05018	0.350476	-1.06218	0.13358	-0.966326	0.280306	-1.27217	0.129401	-1.1598	0.207215	-1.14099	-0.280023	-1.39463	0.00880375	-1.68405	-0.440221	-1.88303	-0.151614	-2.07533	-0.002716	-1.48813	0.426032	-1.355	0.158324	-0.964877	0.417994	-1.07754	0.281283	-1.00722	0.101968	-1.0741	
4.45404	0	0	0.275367	-1.04645	0.346379	-1.0618	0.134594	-0.969192	0.285243	-1.2754	0.130988	-1.16429	0.203782	-1.1452	-0.281723	-1.40051	0.005816	-1.68891	-0.43935	-1.88549	-0.151614	-2.07533	-0.000973	-1.49306	0.418142	-1.34984	0.156689	-0.972896	0.419939	-1.08304	0.284475	-1.01624	0.101141	-1.08543	
4.45404	0	0	0.280748	-1.04711	0.349419	-1.05919	0.13358	-0.966326	0.283144	-1.26947	0.13399	-1.16452	0.207215	-1.14099	-0.281723	-1.40051	0.005816	-1.68891	-0.440221	-1.88303	-0.157181	-2.07549	-0.0018445	-1.49059	0.418142	-1.34984	0.157734	-0.975849	0.420911	-1.08579	0.28607	-1.02075	0.094854	-1.08132	
4.45099	0	0	0.286129	-1.04776	0.35246	-1.05659	0.132566	-0.963459	0.281045	-1.26354	0.136993	-1.16476	0.210647	-1.13679	-0.281723	-1.40051	0.005816	-1.68891	-0.441091	-1.88057	-0.162749	-2.07566	-0.002716	-1.48813	0.418142	-1.34984	0.158778	-0.978801	0.421883	-1.08853	0.287664	-1.02526	0.088567	-1.07721	
4.44946	0	0	0.291511	-1.04841	0.3555	-1.05398	0.131551	-0.960592	0.278946	-1.2576	0.139995	-1.165	0.21408	-1.13259	-0.281723	-1.40051	0.005816	-1.68891	-0.441962	-1.87811	-0.168316	-2.07582	-0.0035875	-1.48567	0.418142	-1.34984	0.159823	-0.981754	0.422856	-1.09128	0.289259	-1.02976	0.08228	-1.0731	
4.44794	0	0	0.296892	-1.04906	0.35854	-1.05138	0.130537	-0.957726	0.276847	-1.25167	0.142997	-1.16524	0.217513	-1.12838	-0.281723	-1.40051	0.005816	-1.68891	-0.442833	-1.87565	-0.173883	-2.07599	-0.004459	-1.4832	0.418142	-1.34984	0.160868	-0.984707	0.423828	-1.09403	0.290854	-1.03427	0.075993	-1.06899	
4.44946	0	0	0.291511	-1.04841	0.360653	-1.05735	0.132565	-0.963458	0.275058	-1.25734	0.139995	-1.165	0.211113	-1.1242	-0.280652	-1.40353	0.005816	-1.68891	-0.440933	-1.87122	-0.162743	-2.07566	-0.00268175	-1.47868	0.422415	-1.34478	0.16355	-0.979647	0.419937	-1.08303	0.287664	-1.02525	0.0858405	-1.0695	
4.44641	0	0	0.286129	-1.04776	0.362766	-1.06332	0.134593	-0.96919	0.273269	-1.26301	0.136993	-1.16476	0.204713	-1.12002	-0.279582	-1.40656	0.005816	-1.68891	-0.439033	-1.86678	-0.151604	-2.07533	-0.0009045	-1.47416	0.426687	-1.33971	0.166233	-0.974587	0.416047	-1.07204	0.284473	-1.01624	0.095688	-1.07	
4.44488	0	0	0.280748	-1.04711	0.364879	-1.06929	0.136622	-0.974922	0.271481	-1.26868	0.13399	-1.16452	0.198314	-1.11584	-0.278511	-1.40958	0.005816	-1.68891	-0.437134	-1.86234	-0.140464	-2.075	0.00087275	-1.46964	0.430959	-1.33464	0.168915	-0.969528	0.412157	-1.06104	0.281283	-1.00722	0.105536	-1.0705	
4.44488	0	0	0.275367	-1.04645	0.366992	-1.07526	0.13865	-0.980654	0.269692	-1.27435	0.130988	-1.16429	0.191914	-1.11166	-0.27744	-1.41261	0.005816	-1.68891	-0.435234	-1.8579	-0.129324	-2.07468	0.00265	-1.46512	0.435232	-1.32957	0.171597	-0.964468	0.408266	-1.05005	0.278093	-0.998206	0.115383	-1.071	
4.44794	0	0	0.274048	-1.04273	0.366992	-1.07526	0.13865	-0.980654	0.269692	-1.27435	0.129401	-1.1598	0.198314	-1.11584	-0.278511	-1.40958	0.0103707	-1.68848	-0.432462	-1.85593	-0.125499	-2.06956	0.00177775	-1.46265	0.441319	-1.32961	0.172643	-0.967423	0.413352	-1.05337	0.286094	-1.00343	0.116749	-1.07486	
4.44336	0	0	0.27273	-1.039	0.366992	-1.07526	0.13865	-0.980654	0.269692	-1.27435	0.127814	-1.15532	0.204713	-1.12002	-0.279582	-1.40656	0.0149255	-1.68805	-0.42969	-1.85395	-0.121674	-2.06444	0.0009055	-1.46019	0.447406	-1.32966	0.173688	-0.970378	0.418438	-1.0567	0.294094	-1.00866	0.118115	-1.07872	
4.44488	0	0	0.271412	-1.03527	0.366992	-1.07526	0.13865	-0.980654	0.269692	-1.27435	0.126228	-1.15083	0.211113	-1.1242	-0.280652	-1.40353	0.0194802	-1.68763	-0.426918	-1.85197	-0.11785	-2.05932	3.325E-05	-1.45772	0.453492	-1.3297	0.174733	-0.973332	0.423524	-1.06002	0.302094	-1.01389	0.119481	-1.08258	
4.44641	0	0	0.270093	-1.03155	0.366992	-1.07526	0.13865	-0.980654	0.269692	-1.27435	0.124641	-1.14635	0.217513	-1.12838	-0.281723	-1.40051	0.024035	-1.6872	-0.424146	-1.85	-0.114025	-2.05421	-0.000839	-1.45526	0.459579	-1.32975	0.175779	-0.976287	0.42861	-1.06334	0.310095	-1.01912	0.120847	-1.08644	
4.44946	0	0	0.279539	-1.02912	0.368978	-1.06968	0.145143	-0.97608	0.27432	-1.26598	0.129058	-1.14233	0.217975	-1.11577	-0.278324	-1.38875	0.0300173	-1.67748	-0.419471	-1.84357	-0.104611	-2.04892	0.00533475	-1.4536	0.46386	-1.32467	0.178463	-0.971224	0.431752	-1.06117	0.308499	-1.0146	0.124411	-1.08283	
4.45251	0	0	0.288984	-1.02669	0.370965	-1.06409	0.151635	-0.971507	0.278948	-1.2576	0.133475	-1.13832	0.218437	-1.10316	-0.274925	-1.377	0.0359995	-1.66776	-0.414796	-1.83715	-0.0951975	-2.04363	0.0115085	-1.45195	0.468141	-1.31959	0.181147	-0.966161	0.434894	-1.05899	0.306902	-1.01009	0.127974	-1.07922	
4.44946	0	0	0.29843	-1.02426	0.372951	-1.0585	0.158128	-0.966933	0.283575	-1.24922	0.137892	-1.13431	0.218899	-1.09055	-0.271525	-1.36525	0.0419817	-1.65804	-0.410121	-1.83073	-0.0857837	-2.03834	0.0176823	-1.45029	0.472421	-1.31452	0.183832	-0.961098	0.438036	-1.05681	0.305306	-1.00558	0.131538	-1.07561	
4.44946	0	0	0.307876	-1.02183	0.374938	-1.05291	0.164621	-0.962359	0.288203	-1.24084	0.142309	-1.13029	0.219361	-1.07794	-0.268126	-1.35349	0.047964	-1.64832	-0.405446	-1.8243	-0.07637	-2.03305	0.023856	-1.44864	0.476702	-1.30944	0.186516	-0.956035	0.441178	-1.05463	0.303709	-1.00107	0.135102	-1.07201	
4.44946	0	0	0.303912	-1.01063	0.376924	-1.04731	0.16259	-0.956619	0.289992	-1.23516	0.145934	-1.12403	0.219816	-1.0653	-0.258728	-1.34797	0.0478128	-1.63456	-0.397989	-1.81588	-0.076055	-2.01798	0.027414	-1.43957	0.487089	-1.3044	0.188153	-0.948005	0.445517	-1.04476	0.316537	-1.00251	0.142237	-1.06478	
4.44641	0	0	0.299948	-0.999423	0.37891	-1.04171	0.160559	-0.95088	0.291782	-1.22947	0.14956	-1.11776	0.220272	-1.05267	-0.24933	-1.34244	0.0476615	-1.62081	-0.390532	-1.80746	-0.07574	-2.0029	0.030972	-1.4305	0.497476	-1.29936	0.189791	-0.939975	0.449856	-1.03489	0.329365	-1.00395	0.149371	-1.05755	
4.44946	0	0	0.295984	-0.98822	0.380897	-1.03612	0.158529	-0.945141	0.293571	-1.22379	0.153186	-1.11149	0.220727	-1.04003	-0.239932	-1.33692	0.0475102	-1.60705	-0.383076	-1.79904	-0.075425	-1.98782	0.03453	-1.42143	0.507864	-1.29432	0.191429	-0.931946	0.454195	-1.02502	0.342194	-1.00539	0.156506	-1.05033	
4.44946	0	0	0.29202	-0.977017	0.382883	-1.03052	0.156498	-0.939401	0.29536	-1.21811	0.156811	-1.10523	0.221183	-1.02739	-0.230534	-1.33139	0.047359	-1.5933	-0.375619	-1.79062	-0.07511	-1.97274	0.038088	-1.41237	0.518251	-1.28928	0.193066	-0.923916	0.458534	-1.01515	0.355022	-1.00683	0.163641	-1.0431	
4.44794	0	0	0.29202	-0.977017	0.386987	-1.0309	0.156498	-0.939401	0.294308	-1.21514	0.160613	-1.10771	0.227597	-1.03158	-0.227756	-1.32853	0.0549183	-1.58798	-0.374591	-1.78368	-0.0600752	-1.96725	0.0416172	-1.41277	0.514617	-1.27901	0.195751	-0.918837	0.460704	-1.0102	0.345408	-0.997074	0.165841	-1.03561	
4.44794	0	0	0.29202	-0.977017	0.391091	-1.03128	0.156498	-0.939401	0.293257	-1.21217	0.164415	-1.1102	0.234011	-1.03577	-0.224978	-1.32568	0.0624775	-1.58266	-0.373563	-1.77675	-0.0450405	-1.96176	0.0451465	-1.41318	0.510983	-1.26874	0.198435	-0.913759	0.462874	-1.00526	0.335793	-0.987318	0.168042	-1.02811	
4.44336	0	0	0.29202	-0.977017	0.395195	-1.03167	0.156498	-0.939401	0.292205	-1.20919	0.168218	-1.11268	0.240425	-1.03996	-0.222201	-1.32282	0.0700367	-1.57734	-0.372534	-1.76981	-0.0300057	-1.95627	0.0486758	-1.41358	0.507348	-1.25847	0.20112	-0.908681	0.465044	-1.00032	0.326179	-0.977563	0.170242	-1.02062	
4.44031	0	0	0.29202	-0.977017	0.399299	-1.03205	0.156498	-0.939401	0.291153	-1.20622	0.17202	-1.11516	0.246839	-1.04415	-0.219423	-1.31996	0.077596	-1.57201	-0.371506	-1.76288	-0.014971	-1.95077	0.052205	-1.41399	0.503714	-1.2482	0.203805	-0.903602	0.467214	-0.995371	0.316565	-0.967807	0.172442	-1.01313	
4.44183	0	0	0.296085	-0.973925	0.397181	-1.02606	0.159746	-0.937108	0.298942	-1.20674	0.175029	-1.1154	0.245349	-1.03994	-0.216644	-1.3171	0.0805913	-1.56712	-0.369603	-1.75841	-0.0128942	-1.94062	0.0539857	-1.40945	0.501896	-1.24306	0.203805	-0.903602	0.466237	-0.992611	0.316565	-0.967807	0.177386	-1.01338	
4.43878	0	0	0.30015	-0.970834	0.395063	-1.02008	0.162994	-0.934816	0.306731	-1.20725	0.178037	-1.11564	0.243859	-1.03573	-0.213865	-1.31424	0.0835865	-1.56223	-0.367699	-1.75394	-0.0108175	-1.93047	0.0557665	-1.40491	0.500077	-1.23792	0.203805	-0.903602	0.465261	-0.989851	0.316565	-0.967807	0.18233	-1.01363	
4.44183	0	0	0.304215	-0.967742	0.392945	-1.01409	0.166242	-0.932523	0.314519	-1.20777	0.181045	-1.11588	0.242368	-1.03152	-0.211086	-1.31138	0.0865817	-1.55734	-0.365795	-1.74947	-0.00874075	-1.92031	0.0575473	-1.40037	0.498258	-1.23278	0.203805	-0.903602	0.464284	-0.987091	0.316565	-0.967807	0.187273	-1.01388	
4.44031	0	0	0.30828	-0.96465	0.390827	-1.00811	0.16949	-0.93023	0.322308	-1.20829	0.184054	-1.11611	0.240878	-1.02731	-0.208307	-1.30852	0.089577	-1.55245	-0.363892	-1.74501	-0.006664	-1.91016	0.059328	-1.39582	0.49644	-1.22764	0.203805	-0.903602	0.463307	-0.984331	0.316565	-0.967807	0.192217	-1.01413	
4.44183	0	0	0.311023	-0.957812	0.397982	-1.00587	0.17274	-0.927936	0.318095	-1.19638	0.184676	-1.1096	0.247753	-1.01883	-0.202745	-1.3028	0.0909945	-1.54309	-0.360962	-1.73358	-0.00459	-1.89999	0.0593555	-1.38632	0.506838	-1.22256	0.201707	-0.897672	0.470581	-0.982714	0.329403	-0.969243	0.190845	-1.01026	
4.43725	0	0	0.313767	-0.950974	0.405137	-1.00364	0.17599	-0.925641	0.313881	-1.18447	0.185298	-1.10309	0.254628	-1.01036	-0.197182	-1.29707	0.092412	-1.53373	-0.358033	-1.72215	-0.002516	-1.88981	0.059383	-1.37682	0.517235	-1.21749	0.199608	-0.891742	0.477854	-0.981096	0.342241	-0.970679	0.189473	-1.00638	
4.43725	0	0	0.31651	-0.944135	0.412292	-1.00141	0.17924	-0.923346	0.309667	-1.17257	0.18592	-1.09658	0.261502	-1.00188	-0.19162	-1.29135	0.0938295	-1.52437	-0.355104	-1.71072	-0.000442	-1.87964	0.0594105	-1.36732	0.527633	-1.21241	0.19751	-0.885812	0.485127	-0.979478	0.35508	-0.972115	0.188101	-1.0025	
4.43725	0	0	0.319253	-0.937297	0.419447	-0.999172	0.18249	-0.921052	0.305454	-1.16066	0.186542	-1.09007	0.268377	-0.99341	-0.186058	-1.28562	0.095247	-1.51501	-0.352174	-1.69928	0.001632	-1.86946	0.059438	-1.35782	0.538031	-1.20734	0.195412	-0.879882	0.492401	-0.977861	0.367918	-0.973551	0.186729	-0.998625	
4.43725	0	0	0.324649	-0.937943	0.424619	-1.00255	0.183507	-0.923926	0.311459	-1.16687	0.19035	-1.09256	0.268377	-0.99341	-0.188214	-1.27953	0.0982433	-1.5101	-0.348367	-1.69031	0.00754825	-1.85407	0.0603397	-1.35079	0.532559	-1.19188	0.201831	-0.872666	0.491636	-0.964604	0.363112	-0.959969	0.197458	-0.987725	
4.43725	0	0	0.330044	-0.938589	0.429791	-1.00593	0.184524	-0.926799	0.317464	-1.17308	0.194157	-1.09505	0.268377	-0.99341	-0.19037	-1.27343	0.101239	-1.50519	-0.34456	-1.68134	0.0134645	-1.83868	0.0612415	-1.34375	0.527088	-1.17641	0.208251	-0.86545	0.490872	-0.951346	0.358306	-0.946386	0.208187	-0.976825	
4.43878	0	0	0.33544	-0.939236	0.434963	-1.00931	0.185541	-0.929673	0.323468	-1.1793	0.197965	-1.09753	0.268377	-0.99341	-0.192527	-1.26734	0.104236	-1.50029	-0.340753	-1.67237	0.0193808	-1.82329	0.0621433	-1.33672	0.521616	-1.16095	0.214671	-0.858234	0.490107	-0.938089	0.3535	-0.932804	0.218917	-0.965925	
4.43878	0	0	0.340835	-0.939882	0.440135	-1.01269	0.186558	-0.932547	0.329473	-1.18551	0.201772	-1.10002	0.268377	-0.99341	-0.194683	-1.26125	0.107232	-1.49538	-0.336946	-1.6634	0.025297	-1.80789	0.063045	-1.32968	0.516144	-1.14548	0.22109	-0.851018	0.489343	-0.924832	0.348694	-0.919221	0.229646	-0.955025	
4.43725	0	0	0.346236	-0.94053	0.448367	-1.01346	0.188793	-0.927377	0.337275	-1.18603	0.203988	-1.09801	0.274805	-0.997611	-0.189118	-1.2555	0.113228	-1.48554	-0.336804	-1.65393	0.0312137	-1.79245	0.0648237	-1.32512	0.522259	-1.14551	0.220038	-0.848047	0.493474	-0.925403	0.355121	-0.919936	0.22827	-0.951136	
4.43878	0	0	0.351636	-0.941178	0.456598	-1.01423	0.191028	-0.922208	0.345078	-1.18655	0.206204	-1.096	0.281234	-1.00181	-0.183553	-1.24976	0.119224	-1.47571	-0.336661	-1.64446	0.0371305	-1.777	0.0666025	-1.32056	0.528374	-1.14554	0.218987	-0.845075	0.497604	-0.925973	0.361548	-0.920651	0.226894	-0.947248	
4.43878	0	0	0.357036	-0.941827	0.46483	-1.015	0.193263	-0.917038	0.35288	-1.18707	0.20842	-1.09398	0.287662	-1.00601	-0.177988	-1.24402	0.125221	-1.46588	-0.336518	-1.63499	0.0430473	-1.76155	0.0683813	-1.316	0.534489	-1.14557	0.217936	-0.842104	0.501734	-0.926543	0.367974	-0.921366	0.225518	-0.943359	
4.43725	0	0	0.362437	-0.942475	0.473061	-1.01577	0.195498	-0.911868	0.360682	-1.18758	0.210636	-1.09197	0.294091	-1.01021	-0.172423	-1.23827	0.131217	-1.45604	-0.336376	-1.62552	0.048964	-1.7461	0.07016	-1.31143	0.540604	-1.1456	0.216884	-0.839132	0.505865	-0.927114	0.374401	-0.922081	0.224142	-0.93947	
4.4342	0	0	0.365188	-0.935623	0.473995	-1.00715	0.203027	-0.91015	0.364271	-1.17617	0.213475	-1.08343	0.300983	-1.00172	-0.165148	-1.22658	0.137218	-1.44618	-0.32802	-1.61948	0.0640913	-1.7405	0.0710595	-1.30438	0.544897	-1.14046	0.227519	-0.843796	0.508038	-0.922144	0.372796	-0.917547	0.235437	-0.94386	
4.43878	0	0	0.367939	-0.928772	0.474929	-0.998532	0.210556	-0.908433	0.367861	-1.16476	0.216314	-1.07489	0.307876	-0.993237	-0.157872	-1.21489	0.143219	-1.43632	-0.319663	-1.61345	0.0792185	-1.73489	0.071959	-1.29733	0.54919	-1.13532	0.238154	-0.848461	0.51021	-0.917173	0.371192	-0.913012	0.246732	-0.948249	
4.4342	0	0	0.370689	-0.921921	0.475863	-0.989914	0.218084	-0.906716	0.37145	-1.15334	0.219153	-1.06635	0.314769	-0.98475	-0.150597	-1.2032	0.14922	-1.42647	-0.311306	-1.60742	0.0943458	-1.72929	0.0728585	-1.29028	0.553484	-1.13019	0.24879	-0.853125	0.512382	-0.912203	0.369588	-0.908478	0.258028	-0.952638	
4.43725	0	0	0.37344	-0.915069	0.476797	-0.981296	0.225613	-0.904998	0.375039	-1.14193	0.221992	-1.05781	0.321661	-0.976263	-0.143322	-1.19151	0.155221	-1.41661	-0.30295	-1.60138	0.109473	-1.72368	0.073758	-1.28323	0.557777	-1.12505	0.259425	-0.857789	0.514555	-0.907233	0.367983	-0.903943	0.269323	-0.957028	
4.43725	0	0	0.374767	-0.918821	0.488232	-0.991075	0.225613	-0.904998	0.381061	-1.14816	0.225008	-1.05805	0.321661	-0.976263	-0.140534	-1.18862	0.158223	-1.41167	-0.302811	-1.59188	0.117198	-1.71321	0.075536	-1.27865	0.562073	-1.11991	0.255215	-0.845889	0.516728	-0.902257	0.37281	-0.90012	0.276501	-0.949741	
4.43725	0	0	0.376094	-0.922572	0.499666	-1.00086	0.225613	-0.904998	0.387082	-1.15439	0.228024	-1.05828	0.321661	-0.976263	-0.137746	-1.18574	0.161226	-1.40673	-0.302673	-1.58238	0.124922	-1.70273	0.077314	-1.27408	0.566369	-1.11476	0.251004	-0.83399	0.5189	-0.897281	0.377637	-0.896296	0.283679	-0.942454	
4.43725	0	0	0.377422	-0.926323	0.5111	-1.01063	0.225613	-0.904998	0.393103	-1.16062	0.231041	-1.05852	0.321661	-0.976263	-0.134959	-1.18286	0.164228	-1.40179	-0.302534	-1.57287	0.132647	-1.69225	0.079092	-1.26951	0.570666	-1.10962	0.246793	-0.822091	0.521073	-0.892305	0.382463	-0.892473	0.290857	-0.935168	
4.43878	0	0	0.378749	-0.930075	0.522535	-1.02041	0.225613	-0.904998	0.399125	-1.16685	0.234057	-1.05876	0.321661	-0.976263	-0.132171	-1.17997	0.167231	-1.39685	-0.302395	-1.56337	0.140372	-1.68178	0.08087	-1.26493	0.574962	-1.10447	0.242583	-0.810191	0.523246	-0.887329	0.38729	-0.888649	0.298035	-0.927881	
4.43268	0	0	0.386813	-0.938227	0.522535	-1.02041	0.231928	-0.911337	0.405149	-1.17308	0.234855	-1.06101	0.318214	-0.980509	-0.132171	-1.17997	0.173414	-1.40089	-0.303279	-1.56087	0.149898	-1.67633	0.0773325	-1.26454	0.567006	-1.09928	0.245742	-0.819117	0.525209	-0.892876	0.390501	-0.897725	0.299414	-0.931778	
4.4342	0	0	0.394876	-0.946379	0.522535	-1.02041	0.238243	-0.917677	0.411173	-1.17931	0.235653	-1.06327	0.314766	-0.984755	-0.132171	-1.17997	0.179597	-1.40493	-0.304163	-1.55838	0.159424	-1.67089	0.073795	-1.26414	0.559051	-1.09408	0.2489	-0.828043	0.527172	-0.898423	0.393713	-0.906801	0.300793	-0.935675	
4.43268	0	0	0.40294	-0.95453	0.522535	-1.02041	0.244558	-0.924016	0.417198	-1.18554	0.236451	-1.06552	0.311319	-0.989001	-0.132171	-1.17997	0.18578	-1.40897	-0.305047	-1.55588	0.16895	-1.66545	0.0702575	-1.26374	0.551095	-1.08888	0.252059	-0.836969	0.529134	-0.90397	0.396924	-0.915876	0.302172	-0.939573	
4.43268	0	0	0.411004	-0.962682	0.522535	-1.02041	0.250873	-0.930355	0.423222	-1.19177	0.237249	-1.06778	0.307872	-0.993247	-0.132171	-1.17997	0.191963	-1.41301	-0.305931	-1.55338	0.178476	-1.66001	0.06672	-1.26334	0.543139	-1.08368	0.255217	-0.845895	0.531097	-0.909517	0.400135	-0.924952	0.303551	-0.94347	
4.43573	0	0	0.408349	-0.95518	0.5256	-1.0178	0.249855	-0.927477	0.42608	-1.18905	0.239469	-1.06576	0.319258	-0.997439	-0.129382	-1.17709	0.194971	-1.40807	-0.307699	-1.54838	0.182349	-1.65475	0.0702575	-1.26374	0.549264	-1.0837	0.257321	-0.851841	0.530116	-0.906744	0.40174	-0.929486	0.306307	-0.95126	
4.42963	0	0	0.405695	-0.947679	0.528666	-1.01519	0.248836	-0.924598	0.428939	-1.18633	0.241688	-1.06374	0.330645	-1.00163	-0.126592	-1.1742	0.197979	-1.40313	-0.309468	-1.54339	0.186221	-1.64949	0.073795	-1.26414	0.555388	-1.08373	0.259425	-0.857787	0.529135	-0.903971	0.403344	-0.934021	0.309064	-0.959049	
4.43268	0	0	0.403041	-0.940177	0.531732	-1.01257	0.247817	-0.92172	0.431798	-1.1836	0.243907	-1.06172	0.342031	-1.00582	-0.123803	-1.17131	0.200987	-1.39819	-0.311236	-1.53839	0.190094	-1.64423	0.0773325	-1.26454	0.561512	-1.08375	0.261528	-0.863732	0.528153	-0.901198	0.404948	-0.938555	0.31182	-0.966839	
4.42963	0	0	0.400386	-0.932676	0.534797	-1.00996	0.246799	-0.918841	0.434656	-1.18088	0.246127	-1.05971	0.353417	-1.01001	-0.121014	-1.16843	0.203995	-1.39325	-0.313004	-1.53339	0.193967	-1.63897	0.08087	-1.26493	0.567637	-1.08377	0.263632	-0.869678	0.527172	-0.898425	0.406553	-0.94309	0.314576	-0.974628	
4.42963	0	0	0.403041	-0.940177	0.536922	-1.01596	0.248836	-0.924597	0.437824	-1.18984	0.246127	-1.05971	0.345478	-1.00158	-0.122098	-1.16536	0.202404	-1.38875	-0.310217	-1.53137	0.194249	-1.62355	0.0844095	-1.26534	0.565804	-1.07859	0.266325	-0.86458	0.529346	-0.893446	0.403343	-0.934019	0.310441	-0.962941	
4.42963	0	0	0.405695	-0.947679	0.539047	-1.02197	0.250872	-0.930354	0.440992	-1.19879	0.246127	-1.05971	0.337539	-0.993138	-0.123182	-1.1623	0.200814	-1.38426	-0.30743	-1.52934	0.194531	-1.60813	0.087949	-1.26574	0.563972	-1.07341	0.269018	-0.859482	0.531519	-0.888467	0.400134	-0.924948	0.306306	-0.951255	
4.42352	0	0	0.408349	-0.95518	0.541173	-1.02798	0.252909	-0.93611	0.44416	-1.20774	0.246127	-1.05971	0.3296	-0.9847	-0.124266	-1.15923	0.199223	-1.37976	-0.304643	-1.52732	0.194814	-1.59271	0.0914885	-1.26614	0.56214	-1.06824	0.271712	-0.854384	0.533693	-0.883487	0.396924	-0.915876	0.30217	-0.939568	
4.422	0	0	0.411004	-0.962682	0.543298	-1.03398	0.254946	-0.941866	0.447328	-1.2167	0.246127	-1.05971	0.321661	-0.976263	-0.12535	-1.15617	0.197632	-1.37526	-0.301856	-1.5253	0.195096	-1.57729	0.095028	-1.26654	0.560307	-1.06306	0.274405	-0.849286	0.535867	-0.878508	0.393714	-0.906805	0.298035	-0.927881	
4.422	0	0	0.41233	-0.96643	0.54436	-1.03698	0.261264	-0.948206	0.447328	-1.2167	0.249945	-1.0622	0.323157	-0.98049	-0.121475	-1.15634	0.202232	-1.37481	-0.300971	-1.5278	0.206447	-1.5769	0.0914885	-1.26614	0.56827	-1.06826	0.269608	-0.848438	0.536849	-0.881283	0.387281	-0.906089	0.305766	-0.935929	
4.42047	0	0	0.413656	-0.970179	0.545422	-1.03998	0.267582	-0.954545	0.447328	-1.2167	0.253763	-1.06469	0.324653	-0.984718	-0.1176	-1.15652	0.206833	-1.37436	-0.300087	-1.5303	0.217797	-1.5765	0.087949	-1.26574	0.576234	-1.07346	0.264811	-0.84759	0.537832	-0.884059	0.380849	-0.905374	0.313497	-0.943977	
4.41894	0	0	0.414983	-0.973928	0.546484	-1.04299	0.273899	-0.960884	0.447328	-1.2167	0.25758	-1.06719	0.326148	-0.988946	-0.113726	-1.1567	0.211433	-1.37391	-0.299202	-1.5328	0.229148	-1.5761	0.0844095	-1.26534	0.584197	-1.07867	0.260014	-0.846743	0.538814	-0.886834	0.374416	-0.904659	0.321229	-0.952025	
4.42047	0	0	0.416309	-0.977676	0.547546	-1.04599	0.280217	-0.967224	0.447328	-1.2167	0.261398	-1.06968	0.327644	-0.993173	-0.109851	-1.15687	0.216033	-1.37346	-0.298317	-1.5353	0.240499	-1.5757	0.08087	-1.26493	0.59216	-1.08387	0.255217	-0.845895	0.539796	-0.88961	0.367983	-0.903943	0.32896	-0.960073	
4.41742	0	0	0.413656	-0.970178	0.549553	-1.04037	0.282465	-0.962056	0.45019	-1.21398	0.262022	-1.06315	0.337542	-0.993139	-0.109231	-1.14784	0.223651	-1.36805	-0.295528	-1.53328	0.242579	-1.56532	0.08087	-1.26493	0.590327	-1.07869	0.254165	-0.842921	0.544919	-0.892957	0.385671	-0.918987	0.322608	-0.955922	
4.41284	0	0	0.411002	-0.96268	0.551559	-1.03476	0.284714	-0.956889	0.453052	-1.21126	0.262647	-1.05662	0.347441	-0.993105	-0.10861	-1.13881	0.231268	-1.36264	-0.292739	-1.53125	0.24466	-1.55494	0.08087	-1.26493	0.588494	-1.07351	0.253112	-0.839946	0.550041	-0.896305	0.403359	-0.93403	0.316256	-0.951771	
4.41284	0	0	0.408349	-0.955181	0.553566	-1.02915	0.286963	-0.951721	0.455915	-1.20854	0.263271	-1.05008	0.35734	-0.993071	-0.10799	-1.12978	0.238886	-1.35724	-0.289951	-1.52923	0.24674	-1.54456	0.08087	-1.26493	0.58666	-1.06833	0.252059	-0.836972	0.555163	-0.899652	0.421047	-0.949074	0.309903	-0.947621	
4.41131	0	0	0.405696	-0.947683	0.555573	-1.02353	0.289211	-0.946554	0.458777	-1.20582	0.263895	-1.04355	0.367238	-0.993037	-0.10737	-1.12075	0.246503	-1.35183	-0.287162	-1.52721	0.24882	-1.53418	0.08087	-1.26493	0.584827	-1.06314	0.251007	-0.833998	0.560286	-0.902999	0.438735	-0.964118	0.303551	-0.94347	
4.41131	0	0	0.409675	-0.958928	0.556636	-1.02654	0.285944	-0.948845	0.454859	-1.20556	0.266917	-1.04378	0.36079	-0.988824	-0.103491	-1.12093	0.249518	-1.34687	-0.29172	-1.52423	0.252703	-1.52888	0.0844095	-1.26534	0.582992	-1.05796	0.255804	-0.834845	0.558321	-0.897447	0.435525	-0.955047	0.313502	-0.943979	
4.41284	0	0	0.413654	-0.970173	0.557698	-1.02954	0.282678	-0.951136	0.450941	-1.20529	0.269938	-1.04402	0.354343	-0.984611	-0.0996125	-1.1211	0.252533	-1.34191	-0.296279	-1.52125	0.256586	-1.52358	0.087949	-1.26574	0.581157	-1.05277	0.260601	-0.835692	0.556357	-0.891895	0.432315	-0.945976	0.323453	-0.944487	
4.40979	0	0	0.417633	-0.981418	0.558761	-1.03254	0.279411	-0.953427	0.447023	-1.20503	0.272959	-1.04426	0.347895	-0.980398	-0.0957338	-1.12128	0.255548	-1.33694	-0.300837	-1.51827	0.260468	-1.51828	0.0914885	-1.26614	0.579323	-1.04759	0.265397	-0.836538	0.554393	-0.886342	0.429106	-0.936904	0.333403	-0.944995	
4.40369	0	0	0.421612	-0.992663	0.559824	-1.03555	0.276145	-0.955718	0.443105	-1.20476	0.275981	-1.0445	0.341447	-0.976185	-0.091855	-1.12145	0.258563	-1.33198	-0.305396	-1.51529	0.264351	-1.51298	0.095028	-1.26654	0.577488	-1.04241	0.270194	-0.837385	0.552428	-0.88079	0.425896	-0.927833	0.343354	-0.945504	
4.40674	0	0	0.422937	-0.996408	0.560886	-1.03855	0.283483	-0.964935	0.45019	-1.21398	0.27678	-1.04676	0.349391	-0.984627	-0.0907685	-1.12452	0.258563	-1.33198	-0.307298	-1.51982	0.270043	-1.51277	0.094128	-1.2736	0.57136	-1.04239	0.265397	-0.836538	0.54927	-0.882995	0.422664	-0.936179	0.338376	-0.945249	
4.40063	0	0	0.424262	-1.00015	0.561948	-1.04155	0.290822	-0.974153	0.457275	-1.22319	0.27758	-1.04902	0.357336	-0.99307	-0.089682	-1.12759	0.258563	-1.33198	-0.3092	-1.52434	0.275734	-1.51257	0.093228	-1.28066	0.565231	-1.04237	0.260601	-0.835692	0.546112	-0.8852	0.419432	-0.944526	0.333399	-0.944994	
4.40216	0	0	0.425588	-1.0039	0.563011	-1.04455	0.29816	-0.983371	0.464359	-1.23241	0.27838	-1.05127	0.365281	-1.00151	-0.0885955	-1.13066	0.258563	-1.33198	-0.311102	-1.52887	0.281425	-1.51237	0.092328	-1.28771	0.559102	-1.04235	0.255804	-0.834845	0.542954	-0.887405	0.4162	-0.952872	0.328422	-0.944739	
4.40216	0	0	0.426913	-1.00764	0.564073	-1.04756	0.305499	-0.992588	0.471444	-1.24162	0.279179	-1.05353	0.373225	-1.00995	-0.087509	-1.13373	0.258563	-1.33198	-0.313004	-1.53339	0.287117	-1.51216	0.091428	-1.29477	0.552974	-1.04233	0.251007	-0.833998	0.539796	-0.88961	0.412968	-0.961218	0.323444	-0.944484	
4.39911	0	0	0.426913	-1.00764	0.568208	-1.04795	0.305499	-0.992588	0.470389	-1.23864	0.283002	-1.05603	0.366777	-1.00574	-0.086423	-1.1368	0.258563	-1.33198	-0.314906	-1.53791	0.285311	-1.50706	0.0896477	-1.29934	0.56277	-1.05272	0.254163	-0.842918	0.53664	-0.891814	0.408135	-0.965023	0.319849	-0.948126	
4.40369	0	0	0.426913	-1.00764	0.572342	-1.04834	0.305499	-0.992588	0.469333	-1.23566	0.286824	-1.05853	0.360329	-1.00153	-0.085337	-1.13987	0.258563	-1.33198	-0.316807	-1.54243	0.283505	-1.50196	0.0878675	-1.30391	0.572567	-1.0631	0.257319	-0.851838	0.533484	-0.894018	0.403301	-0.968828	0.316254	-0.951769	
4.40216	0	0	0.426913	-1.00764	0.576477	-1.04874	0.305499	-0.992588	0.468278	-1.23268	0.290646	-1.06103	0.353881	-0.997316	-0.084251	-1.14294	0.258563	-1.33198	-0.318709	-1.54695	0.281699	-1.49685	0.0860873	-1.30848	0.582364	-1.07348	0.260476	-0.860758	0.530328	-0.896221	0.398468	-0.972634	0.31266	-0.955411	
4.40216	0	0	0.426913	-1.00764	0.580612	-1.04913	0.305499	-0.992588	0.467223	-1.22969	0.294469	-1.06353	0.347433	-0.993103	-0.083165	-1.14601	0.258563	-1.33198	-0.32061	-1.55147	0.279893	-1.49175	0.084307	-1.31304	0.59216	-1.08387	0.263632	-0.869678	0.527172	-0.898425	0.393635	-0.976439	0.309065	-0.959053	
4.40216	0	0	0.422825	-1.01073	0.570221	-1.04234	0.30223	-0.994872	0.459388	-1.22916	0.29367	-1.06127	0.352384	-0.993086	-0.083165	-1.14601	0.258563	-1.33198	-0.324278	-1.55099	0.279893	-1.49175	0.0878458	-1.31344	0.59216	-1.08387	0.26258	-0.866706	0.53131	-0.898996	0.393635	-0.976439	0.307686	-0.955157	
4.40521	0	0	0.418737	-1.01381	0.55983	-1.03555	0.298961	-0.997155	0.451554	-1.22863	0.29287	-1.05901	0.357336	-0.99307	-0.083165	-1.14601	0.258563	-1.33198	-0.327946	-1.55052	0.279893	-1.49175	0.0913845	-1.31385	0.59216	-1.08387	0.261528	-0.863733	0.535447	-0.899567	0.393635	-0.976439	0.306308	-0.951261	
4.40369	0	0	0.414649	-1.0169	0.549439	-1.02876	0.295693	-0.999439	0.44372	-1.22809	0.292071	-1.05675	0.362287	-0.993053	-0.083165	-1.14601	0.258563	-1.33198	-0.331614	-1.55004	0.279893	-1.49175	0.0949233	-1.31425	0.59216	-1.08387	0.260477	-0.860761	0.539585	-0.900138	0.393635	-0.976439	0.30493	-0.947366	
4.40826	0	0	0.410561	-1.01998	0.539048	-1.02197	0.292424	-1.00172	0.435885	-1.22756	0.291272	-1.05449	0.367238	-0.993037	-0.083165	-1.14601	0.258563	-1.33198	-0.335282	-1.54956	0.279893	-1.49175	0.098462	-1.31465	0.59216	-1.08387	0.259425	-0.857789	0.543723	-0.900709	0.393635	-0.976439	0.303551	-0.94347	
4.40979	0	0	0.406476	-1.02306	0.54011	-1.02497	0.294457	-1.00747	0.431972	-1.22729	0.292071	-1.05675	0.368735	-0.997266	-0.0909215	-1.14566	0.264773	-1.33604	-0.337182	-1.55408	0.279893	-1.49175	0.0966802	-1.31922	0.586029	-1.08385	0.257321	-0.851841	0.53664	-0.891814	0.3824	-0.962134	0.300793	-0.935674	
4.41437	0	0	0.402392	-1.02614	0.541173	-1.02798	0.29649	-1.01321	0.428058	-1.22703	0.29287	-1.05901	0.370231	-1.0015	-0.098678	-1.14531	0.270983	-1.3401	-0.339082	-1.55859	0.279893	-1.49175	0.0948985	-1.32378	0.579898	-1.08382	0.255216	-0.845894	0.529556	-0.882918	0.371165	-0.94783	0.298034	-0.927878	
4.41437	0	0	0.398307	-1.02922	0.542235	-1.03098	0.298522	-1.01896	0.424145	-1.22676	0.29367	-1.06127	0.371728	-1.00573	-0.106435	-1.14496	0.277192	-1.34415	-0.340981	-1.56311	0.279893	-1.49175	0.0931167	-1.32834	0.573768	-1.0838	0.253111	-0.839946	0.522473	-0.874022	0.359929	-0.933526	0.295276	-0.920081	
4.41284	0	0	0.394222	-1.03231	0.543298	-1.03398	0.300555	-1.0247	0.420231	-1.22649	0.294469	-1.06353	0.373225	-1.00995	-0.114191	-1.14461	0.283402	-1.34821	-0.342881	-1.56762	0.279893	-1.49175	0.091335	-1.3329	0.567637	-1.08377	0.251007	-0.833998	0.51539	-0.865127	0.348694	-0.919221	0.292517	-0.912285	
4.41284	0	0	0.392899	-1.02857	0.54743	-1.03437	0.299539	-1.02183	0.429115	-1.23001	0.296695	-1.06151	0.378181	-1.00994	-0.106435	-1.14496	0.289616	-1.35227	-0.341116	-1.57261	0.278086	-1.48664	0.0939688	-1.34035	0.567637	-1.08377	0.249954	-0.831022	0.516372	-0.867903	0.358327	-0.928998	0.292517	-0.912285	
4.41437	0	0	0.391576	-1.02483	0.551561	-1.03476	0.298523	-1.01896	0.438	-1.23352	0.29892	-1.05949	0.383137	-1.00993	-0.098678	-1.14531	0.29583	-1.35633	-0.339351	-1.5776	0.276278	-1.48153	0.0966025	-1.34779	0.567637	-1.08377	0.248901	-0.828047	0.517354	-0.870678	0.367961	-0.938775	0.292517	-0.912285	
4.41437	0	0	0.390253	-1.02109	0.555692	-1.03516	0.297506	-1.01609	0.446885	-1.23704	0.301146	-1.05747	0.388093	-1.00992	-0.0909215	-1.14566	0.302044	-1.36039	-0.337586	-1.58258	0.274471	-1.47642	0.0992362	-1.35523	0.567637	-1.08377	0.247849	-0.825072	0.518336	-0.873454	0.377594	-0.948552	0.292517	-0.912285	
4.41284	0	0	0.38893	-1.01735	0.559824	-1.03555	0.29649	-1.01321	0.455769	-1.24055	0.303372	-1.05545	0.393049	-1.0099	-0.083165	-1.14601	0.308258	-1.36445	-0.335821	-1.58757	0.272664	-1.47132	0.10187	-1.36268	0.567637	-1.08377	0.246796	-0.822096	0.519318	-0.87623	0.387227	-0.958329	0.292517	-0.912285	
4.41131	0	0	0.394338	-1.01801	0.567032	-1.03333	0.299759	-1.01093	0.452603	-1.2316	0.308626	-1.05367	0.395013	-1.00142	-0.0814563	-1.14004	0.311283	-1.35949	-0.335821	-1.58757	0.280167	-1.47622	0.100114	-1.35772	0.573768	-1.0838	0.252645	-0.825918	0.523455	-0.876799	0.388829	-0.962857	0.291137	-0.908385	
4.41131	0	0	0.399745	-1.01866	0.57424	-1.03111	0.303029	-1.00865	0.449437	-1.22266	0.313881	-1.05189	0.396976	-0.992941	-0.0797475	-1.13408	0.314308	-1.35453	-0.335821	-1.58757	0.28767	-1.48112	0.0983585	-1.35275	0.579898	-1.08382	0.258495	-0.82974	0.527592	-0.877369	0.390431	-0.967384	0.289756	-0.904484	
4.41131	0	0	0.405153	-1.01932	0.581447	-1.02889	0.306299	-1.00637	0.446271	-1.21371	0.319135	-1.05011	0.39894	-0.98446	-0.0780387	-1.12811	0.317334	-1.34957	-0.335821	-1.58757	0.295174	-1.48602	0.0966028	-1.34779	0.586029	-1.08385	0.264344	-0.833563	0.53173	-0.877938	0.392033	-0.971911	0.288376	-0.900583	
4.40826	5	0	0.410561	-1.01998	0.588655	-1.02667	0.309568	-1.00409	0.443105	-1.20476	0.324389	-1.04832	0.400904	-0.975979	-0.07633	-1.12215	0.320359	-1.34461	-0.335821	-1.58757	0.302677	-1.49093	0.094847	-1.34283	0.59216	-1.08387	0.270194	-0.837385	0.535867	-0.878508	0.393635	-0.976439	0.286996	-0.896683	
4.40826	5	0	0.413208	-1.02746	0.585581	-1.02928	0.310585	-1.00696	0.4413	-1.21046	0.325189	-1.05059	0.405398	-0.98868	-0.0780387	-1.12811	0.321956	-1.34912	-0.337722	-1.59208	0.304484	-1.49603	0.0913097	-1.34243	0.593993	-1.08905	0.273941	-0.835256	0.534885	-0.875731	0.392033	-0.971911	0.290586	-0.893027	
4.40369	5	0	0.415855	-1.03494	0.582508	-1.03189	0.311602	-1.00983	0.439495	-1.21616	0.325989	-1.05285	0.409892	-1.00138	-0.0797475	-1.13408	0.323553	-1.35363	-0.339623	-1.59658	0.306291	-1.50114	0.0877725	-1.34202	0.595825	-1.09423	0.277687	-0.833127	0.533902	-0.872955	0.390431	-0.967384	0.294176	-0.889371	
4.40216	5	0	0.418501	-1.04242	0.579435	-1.0345	0.312619	-1.01271	0.43769	-1.22186	0.32679	-1.05511	0.414386	-1.01408	-0.0814563	-1.14004	0.325151	-1.35815	-0.341525	-1.60109	0.308099	-1.50625	0.0842353	-1.34162	0.597657	-1.09941	0.281434	-0.830998	0.53292	-0.870178	0.388829	-0.962857	0.297766	-0.885716	
4.40063	5	0	0.421148	-1.0499	0.576361	-1.03712	0.313636	-1.01558	0.435885	-1.22756	0.32759	-1.05737	0.41888	-1.02678	-0.083165	-1.14601	0.326748	-1.36266	-0.343426	-1.60559	0.309906	-1.51136	0.080698	-1.34122	0.59949	-1.10458	0.285181	-0.828869	0.531938	-0.867402	0.387227	-0.958329	0.301356	-0.88206	
4.39911	5	0	0.417061	-1.05297	0.578486	-1.04312	0.315669	-1.02133	0.43694	-1.23054	0.32696	-1.06391	0.415415	-1.03102	-0.0837895	-1.15503	0.323721	-1.36762	-0.344446	-1.61258	0.309906	-1.51136	0.084207	-1.35113	0.591527	-1.09938	0.282487	-0.833973	0.530747	-0.875158	0.374377	-0.956892	0.306878	-0.897666	
4.39911	5	0	0.412973	-1.05605	0.580611	-1.04913	0.317702	-1.02707	0.437994	-1.23352	0.326331	-1.07044	0.411949	-1.03526	-0.084414	-1.16406	0.320694	-1.37258	-0.345467	-1.61957	0.309906	-1.51136	0.087716	-1.36105	0.583563	-1.09418	0.279793	-0.839077	0.529555	-0.882914	0.361527	-0.955456	0.3124	-0.913272	
4.39606	5	0	0.408886	-1.05912	0.582736	-1.05513	0.319734	-1.03282	0.439049	-1.2365	0.325702	-1.07698	0.408484	-1.03949	-0.0850385	-1.17308	0.317667	-1.37753	-0.346487	-1.62656	0.309906	-1.51136	0.091225	-1.37097	0.5756	-1.08898	0.277099	-0.844182	0.528363	-0.890669	0.348677	-0.954019	0.317922	-0.928878	
4.39758	5	0	0.404799	-1.0622	0.584861	-1.06114	0.321767	-1.03856	0.440103	-1.23948	0.325072	-1.08352	0.405019	-1.04373	-0.085663	-1.1821	0.31464	-1.38249	-0.347507	-1.63355	0.309906	-1.51136	0.094734	-1.38088	0.567637	-1.08377	0.274405	-0.849286	0.527172	-0.898425	0.335827	-0.952582	0.323444	-0.944484	
4.39453	5	0	0.410209	-1.06286	0.578602	-1.05474	0.321767	-1.03856	0.440103	-1.23948	0.325072	-1.08352	0.403523	-1.0395	-0.083495	-1.18823	0.311614	-1.38744	-0.350288	-1.63556	0.306014	-1.51666	0.094734	-1.38088	0.569468	-1.08895	0.27066	-0.851412	0.528153	-0.901198	0.34545	-0.962347	0.319849	-0.948126	
4.39148	5	0	0.415618	-1.06352	0.572342	-1.04834	0.321767	-1.03856	0.440103	-1.23948	0.325072	-1.08352	0.402027	-1.03528	-0.081327	-1.19436	0.308589	-1.39239	-0.35307	-1.63757	0.302122	-1.52196	0.094734	-1.38088	0.571299	-1.09412	0.266915	-0.853538	0.529135	-0.903971	0.355073	-0.972113	0.316254	-0.951769	
4.393	5	0	0.421027	-1.06419	0.566083	-1.04195	0.321767	-1.03856	0.440103	-1.23948	0.325072	-1.08352	0.400532	-1.03105	-0.079159	-1.20048	0.305563	-1.39734	-0.355851	-1.63958	0.29823	-1.52727	0.094734	-1.38088	0.573131	-1.0993	0.26317	-0.855663	0.530116	-0.906744	0.364697	-0.981878	0.31266	-0.955411	
4.393	5	0	0.426437	-1.06485	0.559824	-1.03555	0.321767	-1.03856	0.440103	-1.23948	0.325072	-1.08352	0.399036	-1.02682	-0.076991	-1.20661	0.302538	-1.4023	-0.358632	-1.64158	0.294338	-1.53257	0.094734	-1.38088	0.574962	-1.10447	0.259425	-0.857789	0.531097	-0.909517	0.37432	-0.991643	0.309065	-0.959053	
4.38843	5	0	0.42367	-1.07165	0.564071	-1.04755	0.319511	-1.04371	0.433331	-1.24192	0.322844	-1.08554	0.397068	-1.03528	-0.0836635	-1.20931	0.299514	-1.40724	-0.362291	-1.6411	0.294338	-1.53257	0.093857	-1.37841	0.573131	-1.0993	0.26317	-0.855663	0.530116	-0.906744	0.37432	-0.991643	0.306307	-0.95126	
4.39148	5	0	0.420903	-1.07846	0.568318	-1.05955	0.317254	-1.04885	0.426559	-1.24437	0.320616	-1.08755	0.395101	-1.04374	-0.090336	-1.21201	0.29649	-1.41219	-0.365951	-1.64062	0.294338	-1.53257	0.09298	-1.37593	0.571299	-1.09412	0.266915	-0.853538	0.529135	-0.903971	0.37432	-0.991643	0.30355	-0.943467	
4.38843	5	0	0.418135	-1.08526	0.572566	-1.07156	0.314998	-1.054	0.419788	-1.24681	0.318387	-1.08957	0.393134	-1.0522	-0.0970085	-1.21471	0.293466	-1.41713	-0.369611	-1.64014	0.294338	-1.53257	0.092103	-1.37345	0.569468	-1.08895	0.27066	-0.851412	0.528153	-0.901198	0.37432	-0.991643	0.300793	-0.935674	
4.38843	5	0	0.415368	-1.09207	0.576813	-1.08356	0.312742	-1.05914	0.413016	-1.24926	0.316159	-1.09159	0.391166	-1.06066	-0.103681	-1.21741	0.290442	-1.42208	-0.37327	-1.63966	0.294338	-1.53257	0.091226	-1.37097	0.567637	-1.08377	0.274405	-0.849286	0.527172	-0.898425	0.37432	-0.991643	0.298035	-0.927881	
4.38843	5	0	0.416688	-1.0958	0.57374	-1.08616	0.314771	-1.06488	0.420087	-1.25845	0.313133	-1.09134	0.39266	-1.06488	-0.107555	-1.21723	0.285828	-1.42252	-0.375169	-1.64416	0.288645	-1.53277	0.0885665	-1.37304	0.561512	-1.08375	0.27651	-0.855234	0.524998	-0.903398	0.37432	-0.991643	0.305766	-0.935929	
4.38843	5	0	0.418009	-1.09953	0.570668	-1.08876	0.316801	-1.07062	0.427158	-1.26765	0.310107	-1.0911	0.394154	-1.0691	-0.11143	-1.21705	0.281214	-1.42296	-0.377067	-1.64865	0.282953	-1.53297	0.085907	-1.37512	0.555388	-1.08373	0.278614	-0.861182	0.522825	-0.908371	0.37432	-0.991643	0.313497	-0.943977	
4.393	5	0	0.419329	-1.10326	0.567596	-1.09137	0.318831	-1.07635	0.43423	-1.27684	0.307082	-1.09086	0.395647	-1.07333	-0.115304	-1.21687	0.276601	-1.42341	-0.378966	-1.65314	0.27726	-1.53317	0.0832475	-1.37719	0.549264	-1.0837	0.280718	-0.86713	0.520651	-0.913345	0.37432	-0.991643	0.321229	-0.952025	
4.39606	5	0	0.420649	-1.10699	0.564523	-1.09397	0.32086	-1.08209	0.441301	-1.28604	0.304056	-1.09062	0.397141	-1.07755	-0.119178	-1.21669	0.271987	-1.42385	-0.380865	-1.65763	0.271568	-1.53337	0.080588	-1.37926	0.543139	-1.08368	0.282823	-0.873078	0.518477	-0.918318	0.37432	-0.991643	0.32896	-0.960073	
4.39911	5	0	0.42606	-1.10766	0.566534	-1.08837	0.323118	-1.07695	0.438142	-1.27711	0.30931	-1.08884	0.394153	-1.0691	-0.12026	-1.21363	0.278192	-1.4279	-0.379986	-1.66011	0.280868	-1.54337	0.0841245	-1.37967	0.551095	-1.08888	0.282823	-0.873078	0.522613	-0.91889	0.375919	-0.996164	0.323986	-0.959818	
4.40674	5	0	0.431471	-1.10833	0.568545	-1.08277	0.325376	-1.07181	0.434982	-1.26818	0.314564	-1.08707	0.391165	-1.06066	-0.121343	-1.21057	0.284397	-1.43196	-0.379107	-1.6626	0.290168	-1.55336	0.087661	-1.38007	0.559051	-1.09408	0.282823	-0.873078	0.526749	-0.919461	0.377519	-1.00068	0.319012	-0.959563	
4.40979	5	0	0.436882	-1.10899	0.570557	-1.07716	0.327635	-1.06667	0.431822	-1.25925	0.319818	-1.0853	0.388177	-1.05221	-0.122425	-1.20751	0.290603	-1.43601	-0.378228	-1.66508	0.299467	-1.56336	0.0911975	-1.38048	0.567006	-1.09928	0.282823	-0.873078	0.530884	-0.920033	0.379119	-1.00521	0.314039	-0.959308	
4.41589	5	0	0.442293	-1.10966	0.572568	-1.07156	0.329893	-1.06153	0.428663	-1.25032	0.325072	-1.08352	0.385189	-1.04377	-0.123507	-1.20446	0.296808	-1.44007	-0.377349	-1.66756	0.308767	-1.57335	0.094734	-1.38088	0.574962	-1.10447	0.282823	-0.873078	0.53502	-0.920605	0.380718	-1.00973	0.309065	-0.959053	
4.42047	5	0	0.436882	-1.10899	0.570557	-1.07716	0.325605	-1.06093	0.425805	-1.25303	0.321246	-1.08102	0.380236	-1.04378	-0.122425	-1.20751	0.292193	-1.44051	-0.378228	-1.66508	0.295583	-1.56865	0.0982725	-1.38129	0.573131	-1.0993	0.287625	-0.873929	0.539159	-0.921178	0.387149	-1.01045	0.31266	-0.955411	
4.42352	5	0	0.431471	-1.10833	0.568545	-1.08277	0.321318	-1.06034	0.422946	-1.25574	0.31742	-1.07852	0.375282	-1.04379	-0.121343	-1.21057	0.287579	-1.44095	-0.379107	-1.6626	0.282398	-1.56395	0.101811	-1.3817	0.571299	-1.09412	0.292426	-0.87478	0.543297	-0.921751	0.39358	-1.01118	0.316254	-0.951769	
4.42505	5	0	0.42606	-1.10766	0.566534	-1.08837	0.31703	-1.05974	0.420088	-1.25845	0.313593	-1.07602	0.370329	-1.0438	-0.12026	-1.21363	0.282965	-1.44139	-0.379986	-1.66011	0.269213	-1.55925	0.105349	-1.38211	0.569468	-1.08895	0.297227	-0.875632	0.547435	-0.922324	0.400011	-1.01191	0.319849	-0.948126	
4.42963	5	0	0.420649	-1.10699	0.564523	-1.09397	0.312742	-1.05914	0.417229	-1.26116	0.309767	-1.07352	0.365375	-1.04381	-0.119178	-1.21669	0.27835	-1.44183	-0.380865	-1.65763	0.256029	-1.55455	0.108888	-1.38251	0.567637	-1.08377	0.302029	-0.876483	0.551574	-0.922897	0.406442	-1.01263	0.323444	-0.944484	
4.42963	5	0	0.421968	-1.11072	0.561453	-1.09657	0.315786	-1.06775	0.414372	-1.26387	0.30754	-1.07554	0.361919	-1.04804	-0.120887	-1.22263	0.273739	-1.44227	-0.381885	-1.6646	0.256029	-1.55455	0.107103	-1.38706	0.569468	-1.08895	0.300382	-0.884546	0.54526	-0.927292	0.395185	-1.0157	0.321227	-0.95202	
4.4281	5	0	0.423288	-1.11445	0.558382	-1.09917	0.318829	-1.07635	0.411515	-1.26658	0.305314	-1.07755	0.358463	-1.05227	-0.122595	-1.22856	0.269128	-1.44272	-0.382906	-1.67157	0.256029	-1.55455	0.105318	-1.39161	0.571299	-1.09412	0.298735	-0.892609	0.538946	-0.931688	0.383928	-1.01876	0.31901	-0.959556	
4.42657	5	0	0.424608	-1.11818	0.555311	-1.10177	0.321873	-1.08495	0.408657	-1.26928	0.303088	-1.07957	0.355006	-1.0565	-0.124304	-1.23449	0.264518	-1.44316	-0.383927	-1.67853	0.256029	-1.55455	0.103532	-1.39616	0.573131	-1.0993	0.297087	-0.900672	0.532632	-0.936083	0.372671	-1.02183	0.316793	-0.967092	
4.4281	5	0	0.425927	-1.12191	0.552241	-1.10437	0.324917	-1.09355	0.4058	-1.27199	0.300861	-1.08159	0.35155	-1.06073	-0.126013	-1.24043	0.259907	-1.4436	-0.384947	-1.6855	0.256029	-1.55455	0.101747	-1.4007	0.574962	-1.10447	0.29544	-0.908735	0.526318	-0.940478	0.361414	-1.02489	0.314576	-0.974628	
4.42657	5	0	0.424608	-1.11818	0.551181	-1.10137	0.319617	-1.09009	0.408657	-1.26928	0.300861	-1.08159	0.357993	-1.06494	-0.129883	-1.24025	0.258476	-1.45302	-0.387723	-1.6875	0.25963	-1.56473	0.102623	-1.40318	0.568836	-1.10445	0.292741	-0.913818	0.528277	-0.946015	0.364608	-1.03392	0.304639	-0.974118	
4.42352	5	0	0.423288	-1.11445	0.550121	-1.09838	0.314318	-1.08663	0.411515	-1.26658	0.300861	-1.08159	0.364436	-1.06915	-0.133753	-1.24007	0.257045	-1.46243	-0.3905	-1.6895	0.263231	-1.57491	0.103499	-1.40566	0.562711	-1.10442	0.290043	-0.918901	0.530236	-0.951551	0.367801	-1.04295	0.294702	-0.973609	
4.42505	5	0	0.421968	-1.11072	0.549061	-1.09538	0.309018	-1.08316	0.414372	-1.26387	0.300861	-1.08159	0.370879	-1.07336	-0.137623	-1.23989	0.255613	-1.47185	-0.393276	-1.6915	0.266832	-1.58508	0.104375	-1.40813	0.556585	-1.1044	0.287345	-0.923984	0.532196	-0.957088	0.370995	-1.05197	0.284766	-0.9731	
4.422	5	0	0.420649	-1.10699	0.548001	-1.09239	0.303718	-1.0797	0.417229	-1.26116	0.300861	-1.08159	0.377322	-1.07757	-0.141493	-1.23971	0.254182	-1.48127	-0.396053	-1.6935	0.270433	-1.59526	0.105251	-1.41061	0.55046	-1.10437	0.284646	-0.929067	0.534155	-0.962625	0.374188	-1.061	0.274829	-0.97259	
4.41894	5	0	0.41788	-1.11378	0.545992	-1.09798	0.302475	-1.0877	0.411516	-1.26657	0.294016	-1.07885	0.370879	-1.07336	-0.148146	-1.2424	0.249577	-1.48171	-0.396053	-1.6935	0.264748	-1.59546	0.104375	-1.40813	0.54863	-1.0992	0.282546	-0.923131	0.533176	-0.959857	0.372592	-1.05648	0.284766	-0.9731	
4.42047	5	0	0.415111	-1.12057	0.543983	-1.10357	0.301233	-1.09569	0.405803	-1.27199	0.287171	-1.07611	0.364436	-1.06915	-0.154799	-1.24509	0.244972	-1.48215	-0.396053	-1.6935	0.259064	-1.59565	0.103499	-1.40566	0.546799	-1.09403	0.280446	-0.917196	0.532196	-0.957089	0.370995	-1.05197	0.294702	-0.973609	
4.41742	5	0	0.412343	-1.12736	0.541974	-1.10917	0.29999	-1.10369	0.400091	-1.2774	0.280326	-1.07338	0.357993	-1.06494	-0.161451	-1.24779	0.240367	-1.48259	-0.396053	-1.6935	0.253379	-1.59584	0.102623	-1.40318	0.544969	-1.08885	0.278345	-0.91126	0.531216	-0.954321	0.369399	-1.04746	0.304639	-0.974118	
4.41589	5	0	0.409574	-1.13415	0.539965	-1.11476	0.298747	-1.11169	0.394378	-1.28281	0.273481	-1.07064	0.35155	-1.06073	-0.168104	-1.25048	0.235762	-1.48302	-0.396053	-1.6935	0.247695	-1.59604	0.101747	-1.4007	0.543139	-1.08368	0.276245	-0.905324	0.530237	-0.951553	0.367802	-1.04295	0.314576	-0.974628	
4.41894	5	0	0.410892	-1.13787	0.541024	-1.11775	0.29976	-1.11455	0.391524	-1.28551	0.27428	-1.0729	0.346604	-1.06074	-0.167024	-1.25353	0.237348	-1.48751	-0.397951	-1.69798	0.247695	-1.59604	0.103499	-1.40565	0.544969	-1.08885	0.2725	-0.90744	0.527082	-0.953747	0.362978	-1.04673	0.309606	-0.974373	
4.42047	5	0	0.41221	-1.1416	0.542083	-1.12074	0.300772	-1.11741	0.38867	-1.28822	0.275078	-1.07515	0.341658	-1.06075	-0.165945	-1.25658	0.238934	-1.49199	-0.399849	-1.70246	0.247695	-1.59604	0.105251	-1.41061	0.546799	-1.09403	0.268755	-0.909556	0.523927	-0.95594	0.358155	-1.05052	0.304635	-0.974117	
4.41742	5	0	0.413528	-1.14532	0.543141	-1.12374	0.301785	-1.12027	0.385815	-1.29092	0.275876	-1.07741	0.336712	-1.06076	-0.164865	-1.25963	0.24052	-1.49647	-0.401748	-1.70693	0.247695	-1.59604	0.107003	-1.41556	0.54863	-1.0992	0.265009	-0.911673	0.520773	-0.958134	0.353332	-1.0543	0.299665	-0.973861	
4.422	5	0	0.414846	-1.14905	0.5442	-1.12673	0.302798	-1.12313	0.382961	-1.29362	0.276675	-1.07967	0.331766	-1.06078	-0.163786	-1.26268	0.242106	-1.50095	-0.403646	-1.71141	0.247695	-1.59604	0.108755	-1.42051	0.55046	-1.10437	0.261264	-0.913789	0.517618	-0.960328	0.348508	-1.05808	0.294694	-0.973606	
4.42352	5	0	0.418936	-1.14599	0.543141	-1.12374	0.300772	-1.11741	0.385815	-1.29092	0.278899	-1.07765	0.330274	-1.05656	-0.164865	-1.25963	0.242106	-1.50095	-0.402769	-1.71389	0.243813	-1.60131	0.106093	-1.42258	0.544341	-1.10435	0.262314	-0.916755	0.518597	-0.963094	0.350103	-1.06259	0.296071	-0.977496	
4.42352	5	0	0.423025	-1.14293	0.542083	-1.12074	0.298747	-1.11168	0.38867	-1.28822	0.281122	-1.07563	0.328782	-1.05234	-0.165945	-1.25658	0.242106	-1.50095	-0.401892	-1.71637	0.23993	-1.60659	0.103431	-1.42464	0.538221	-1.10432	0.263363	-0.919722	0.519575	-0.965861	0.351697	-1.0671	0.297447	-0.981387	
4.42352	5	0	0.427114	-1.13988	0.541024	-1.11775	0.296721	-1.10596	0.391524	-1.28551	0.283346	-1.07361	0.327289	-1.04812	-0.167024	-1.25353	0.242106	-1.50095	-0.401016	-1.71884	0.236048	-1.61186	0.100769	-1.42671	0.532102	-1.1043	0.264413	-0.922689	0.520554	-0.968627	0.353292	-1.0716	0.298824	-0.985278	
4.42505	0	0	0.431204	-1.13682	0.539965	-1.11476	0.294695	-1.10023	0.394378	-1.28281	0.28557	-1.0716	0.325797	-1.04391	-0.168104	-1.25048	0.242106	-1.50095	-0.400139	-1.72132	0.232166	-1.61713	0.098107	-1.42877	0.525983	-1.10427	0.265463	-0.925655	0.521533	-0.971393	0.354887	-1.07611	0.300201	-0.989168	
4.42505	0	0	0.425796	-1.13615	0.538906	-1.11177	0.289402	-1.09678	0.389421	-1.27957	0.284771	-1.06934	0.332235	-1.04811	-0.168104	-1.25048	0.237504	-1.50139	-0.400139	-1.72132	0.228287	-1.6224	0.101645	-1.42918	0.532102	-1.1043	0.270259	-0.926508	0.520554	-0.968627	0.359712	-1.07233	0.297447	-0.981385	
4.422	0	0	0.420389	-1.13548	0.537847	-1.10877	0.284108	-1.09332	0.384464	-1.27633	0.283972	-1.06708	0.338673	-1.05232	-0.168104	-1.25048	0.232901	-1.50183	-0.400139	-1.72132	0.224407	-1.62767	0.105182	-1.42959	0.538221	-1.10432	0.275054	-0.927361	0.519575	-0.965861	0.364538	-1.06855	0.294693	-0.973603	
4.42047	0	0	0.414982	-1.13482	0.536788	-1.10578	0.278815	-1.08986	0.379508	-1.27309	0.283174	-1.06482	0.345112	-1.05653	-0.168104	-1.25048	0.228299	-1.50226	-0.400139	-1.72132	0.220528	-1.63294	0.10872	-1.43	0.544341	-1.10435	0.27985	-0.928214	0.518597	-0.963094	0.369363	-1.06477	0.29194	-0.96582	
4.41894	0	0	0.409574	-1.13415	0.535729	-1.10279	0.273522	-1.0864	0.374551	-1.26986	0.282375	-1.06257	0.35155	-1.06073	-0.168104	-1.25048	0.223697	-1.5027	-0.400139	-1.72132	0.216648	-1.6382	0.112258	-1.43041	0.55046	-1.10437	0.284646	-0.929067	0.517618	-0.960328	0.374188	-1.061	0.289186	-0.958037	
4.41894	0	0	0.410892	-1.13787	0.537847	-1.10877	0.277572	-1.09784	0.37275	-1.27553	0.281748	-1.0691	0.348096	-1.06496	-0.168731	-1.25945	0.222265	-1.51209	-0.395759	-1.7337	0.220235	-1.64834	0.11222	-1.43989	0.555944	-1.11987	0.272959	-0.921431	0.513486	-0.959755	0.358165	-1.05053	0.281465	-0.949999	
4.42047	0	0	0.41221	-1.1416	0.539964	-1.11476	0.281622	-1.10929	0.37095	-1.2812	0.281122	-1.07563	0.344641	-1.06919	-0.169358	-1.26841	0.220833	-1.52147	-0.391379	-1.74608	0.223822	-1.65848	0.112181	-1.44937	0.561429	-1.13537	0.261272	-0.913794	0.509355	-0.959183	0.342141	-1.04006	0.273745	-0.94196	
4.41437	0	0	0.413528	-1.14532	0.542082	-1.12074	0.285672	-1.12074	0.36915	-1.28688	0.280495	-1.08216	0.341187	-1.07341	-0.169985	-1.27738	0.219401	-1.53086	-0.387	-1.75846	0.227408	-1.66861	0.112143	-1.45885	0.566913	-1.15087	0.249585	-0.906157	0.505224	-0.95861	0.326118	-1.02959	0.266024	-0.933922	
4.41437	0	0	0.414846	-1.14905	0.5442	-1.12673	0.289722	-1.13218	0.367349	-1.29255	0.279868	-1.08869	0.337733	-1.07764	-0.170612	-1.28635	0.217969	-1.54025	-0.38262	-1.77083	0.230995	-1.67875	0.112105	-1.46833	0.572398	-1.16637	0.237898	-0.898521	0.501092	-0.958037	0.310095	-1.01912	0.258303	-0.925884	
4.41437	0	0	0.414846	-1.14905	0.540074	-1.12633	0.290733	-1.13504	0.368399	-1.29552	0.277645	-1.0907	0.342203	-1.09027	-0.177255	-1.28903	0.20878	-1.54111	-0.388173	-1.77481	0.221446	-1.68418	0.110316	-1.47286	0.558334	-1.16115	0.241046	-0.907417	0.496963	-0.957465	0.31169	-1.02363	0.25472	-0.929528	
4.41131	0	0	0.414846	-1.14905	0.535948	-1.12594	0.291745	-1.1379	0.369449	-1.29849	0.275421	-1.09272	0.346674	-1.10291	-0.183899	-1.29171	0.199591	-1.54198	-0.393726	-1.77878	0.211897	-1.68962	0.108527	-1.47739	0.544271	-1.15593	0.244194	-0.916314	0.492834	-0.956893	0.313286	-1.02813	0.251136	-0.933173	
4.40521	0	0	0.414846	-1.14905	0.531822	-1.12554	0.292756	-1.14076	0.3705	-1.30146	0.273198	-1.09473	0.351145	-1.11554	-0.190542	-1.29439	0.190401	-1.54285	-0.399278	-1.78276	0.202348	-1.69505	0.106739	-1.48192	0.530208	-1.15071	0.247342	-0.925211	0.488706	-0.956321	0.314882	-1.03264	0.247553	-0.936818	
4.40369	0	0	0.414846	-1.14905	0.527696	-1.12514	0.293768	-1.14362	0.37155	-1.30443	0.270975	-1.09675	0.355615	-1.12818	-0.197185	-1.29708	0.181212	-1.54372	-0.404831	-1.78673	0.192799	-1.70049	0.10495	-1.48644	0.516144	-1.14548	0.25049	-0.934107	0.484577	-0.955749	0.316477	-1.03715	0.24397	-0.940462	
4.40521	0	0	0.414846	-1.14905	0.523573	-1.12475	0.289489	-1.14302	0.367649	-1.30416	0.270975	-1.09675	0.354125	-1.12397	-0.196108	-1.30012	0.182793	-1.54818	-0.403957	-1.7892	0.185053	-1.71096	0.103202	-1.4815	0.524085	-1.15067	0.25049	-0.934107	0.483598	-0.952984	0.32608	-1.04689	0.242593	-0.93657	
4.40216	0	0	0.414846	-1.14905	0.51945	-1.12435	0.285211	-1.14242	0.363749	-1.30389	0.270975	-1.09675	0.352636	-1.11976	-0.195031	-1.30316	0.184373	-1.55265	-0.403083	-1.79167	0.177306	-1.72143	0.101455	-1.47656	0.532026	-1.15586	0.25049	-0.934107	0.48262	-0.950218	0.335682	-1.05663	0.241215	-0.932678	
4.40063	0	0	0.414846	-1.14905	0.515327	-1.12396	0.280933	-1.14182	0.359848	-1.30362	0.270975	-1.09675	0.351147	-1.11555	-0.193955	-1.30621	0.185953	-1.55712	-0.402208	-1.79415	0.16956	-1.7319	0.0997068	-1.47163	0.539967	-1.16105	0.25049	-0.934107	0.481642	-0.947453	0.345284	-1.06637	0.239838	-0.928785	
4.40216	5	0	0.414846	-1.14905	0.511204	-1.12356	0.276654	-1.14122	0.355947	-1.30336	0.270975	-1.09675	0.349657	-1.11134	-0.192878	-1.30925	0.187534	-1.56158	-0.401334	-1.79662	0.161813	-1.74237	0.097959	-1.46669	0.547908	-1.16624	0.25049	-0.934107	0.480663	-0.944688	0.354887	-1.07611	0.238461	-0.924893	
4.40674	5	0	0.409442	-1.14838	0.512262	-1.12655	0.272378	-1.14063	0.356996	-1.30632	0.26955	-1.10102	0.346202	-1.11555	-0.195659	-1.31211	0.189113	-1.56605	-0.404109	-1.7986	0.165382	-1.75246	0.098833	-1.46916	0.541792	-1.16621	0.247342	-0.925211	0.484791	-0.945259	0.342093	-1.05735	0.240664	-0.917348	
4.40826	5	0	0.404039	-1.14771	0.513319	-1.12954	0.268103	-1.14003	0.358046	-1.30929	0.268124	-1.10528	0.342747	-1.11976	-0.19844	-1.31497	0.190693	-1.57051	-0.406884	-1.80058	0.168951	-1.76254	0.099707	-1.47163	0.535676	-1.16618	0.244194	-0.916314	0.48892	-0.94583	0.329298	-1.03859	0.242867	-0.909802	
4.40979	5	0	0.398636	-1.14704	0.514377	-1.13253	0.263827	-1.13943	0.359096	-1.31226	0.266699	-1.10955	0.339292	-1.12398	-0.201222	-1.31783	0.192273	-1.57498	-0.409658	-1.80257	0.172519	-1.77263	0.100581	-1.4741	0.52956	-1.16615	0.241046	-0.907417	0.493049	-0.946401	0.316503	-1.01983	0.24507	-0.902257	
4.41284	5	0	0.393232	-1.14637	0.515435	-1.13552	0.259551	-1.13884	0.360145	-1.31522	0.265274	-1.11382	0.335837	-1.12819	-0.204003	-1.32069	0.193852	-1.57944	-0.412433	-1.80455	0.176088	-1.78271	0.101455	-1.47657	0.523444	-1.16611	0.237898	-0.898521	0.497177	-0.946972	0.303709	-1.00107	0.247273	-0.894712	
4.41894	5	0	0.398636	-1.14704	0.5185	-1.13293	0.263827	-1.13943	0.358046	-1.30929	0.266071	-1.11607	0.34227	-1.13239	-0.207858	-1.32051	0.195431	-1.5839	-0.411559	-1.80702	0.164783	-1.78307	0.0979203	-1.47615	0.523444	-1.16611	0.237898	-0.898521	0.49207	-0.943635	0.305306	-1.00558	0.247273	-0.894712	
4.422	5	0	0.404039	-1.14771	0.521566	-1.13033	0.268103	-1.14003	0.355946	-1.30336	0.266868	-1.11832	0.348703	-1.1366	-0.211713	-1.32033	0.19701	-1.58836	-0.410686	-1.80949	0.153477	-1.78343	0.0943855	-1.47574	0.523444	-1.16611	0.237898	-0.898521	0.486962	-0.940298	0.306902	-1.01009	0.247273	-0.894712	
4.42352	5	0	0.409442	-1.14838	0.524631	-1.12774	0.272378	-1.14063	0.353846	-1.29742	0.267665	-1.12057	0.355137	-1.1408	-0.215568	-1.32014	0.198588	-1.59283	-0.409813	-1.81196	0.142172	-1.78379	0.0908508	-1.47533	0.523444	-1.16611	0.237898	-0.898521	0.481855	-0.93696	0.308499	-1.0146	0.247273	-0.894712	
4.4281	5	0	0.414846	-1.14905	0.527696	-1.12514	0.276654	-1.14122	0.351747	-1.29149	0.268462	-1.12283	0.36157	-1.14501	-0.219423	-1.31996	0.200167	-1.59729	-0.408939	-1.81443	0.130867	-1.78415	0.087316	-1.47492	0.523444	-1.16611	0.237898	-0.898521	0.476748	-0.933623	0.310095	-1.01912	0.247273	-0.894712	
4.43115	5	0	0.412209	-1.1416	0.525579	-1.11916	0.270356	-1.13491	0.350696	-1.28852	0.267665	-1.12057	0.360081	-1.1408	-0.218348	-1.323	0.200167	-1.59729	-0.412586	-1.81394	0.121362	-1.78954	0.0908508	-1.47533	0.523444	-1.16611	0.243739	-0.902338	0.481855	-0.93696	0.318103	-1.02435	0.253616	-0.898857	
4.4281	5	0	0.409573	-1.13414	0.523462	-1.11318	0.264058	-1.1286	0.349646	-1.28555	0.266868	-1.11832	0.358592	-1.13659	-0.217273	-1.32604	0.200167	-1.59729	-0.416233	-1.81346	0.111857	-1.79493	0.0943855	-1.47574	0.523444	-1.16611	0.249581	-0.906155	0.486962	-0.940298	0.32611	-1.02958	0.259959	-0.903002	
4.4281	5	0	0.406936	-1.12669	0.521344	-1.10719	0.257759	-1.12229	0.348596	-1.28258	0.266071	-1.11607	0.357104	-1.13238	-0.216197	-1.32908	0.200167	-1.59729	-0.41988	-1.81297	0.102353	-1.80032	0.0979203	-1.47615	0.523444	-1.16611	0.255422	-0.909972	0.49207	-0.943635	0.334118	-1.03481	0.266302	-0.907146	
4.42963	5	0	0.404299	-1.11924	0.519227	-1.10121	0.251461	-1.11597	0.347545	-1.27961	0.265274	-1.11382	0.355615	-1.12818	-0.215122	-1.33212	0.200167	-1.59729	-0.423527	-1.81249	0.092848	-1.80571	0.101455	-1.47657	0.523444	-1.16611	0.261264	-0.913789	0.497177	-0.946972	0.342126	-1.04005	0.272645	-0.911291	
4.42963	5	0	0.406936	-1.12669	0.516163	-1.10381	0.253483	-1.12169	0.345747	-1.28528	0.262423	-1.12234	0.355133	-1.14079	-0.219604	-1.34086	0.197153	-1.60217	-0.425426	-1.81693	0.0964025	-1.81575	0.0970465	-1.47369	0.525268	-1.17127	0.260214	-0.910821	0.495219	-0.941437	0.34053	-1.03553	0.269885	-0.903491	
4.42505	5	0	0.409573	-1.13414	0.513099	-1.10641	0.255506	-1.12741	0.343949	-1.29095	0.259572	-1.13086	0.35465	-1.15341	-0.224086	-1.3496	0.194139	-1.60706	-0.427326	-1.82138	0.099957	-1.8258	0.092638	-1.4708	0.527092	-1.17642	0.259164	-0.907854	0.49326	-0.935902	0.338933	-1.03102	0.267125	-0.895691	
4.42657	5	0	0.412209	-1.1416	0.510035	-1.109	0.257528	-1.13312	0.342151	-1.29662	0.256722	-1.13938	0.354168	-1.16602	-0.228568	-1.35834	0.191125	-1.61195	-0.429225	-1.82583	0.103511	-1.83584	0.0882295	-1.46792	0.528915	-1.18158	0.258114	-0.904887	0.491301	-0.930367	0.337337	-1.02651	0.264365	-0.887892	
4.42657	5	0	0.414846	-1.14905	0.506971	-1.1116	0.259551	-1.13884	0.340353	-1.30229	0.253871	-1.1479	0.353686	-1.17864	-0.23305	-1.36709	0.188111	-1.61683	-0.431124	-1.83028	0.107066	-1.84589	0.083821	-1.46504	0.530739	-1.18673	0.257064	-0.901919	0.489343	-0.924832	0.335741	-1.022	0.261605	-0.880092	
4.42047	5	0	0.414846	-1.14905	0.508029	-1.11459	0.260562	-1.14169	0.336457	-1.30202	0.254036	-1.15665	0.348743	-1.17863	-0.233682	-1.376	0.186673	-1.62616	-0.428508	-1.83767	0.0975717	-1.85125	0.0802883	-1.46463	0.530739	-1.18673	0.253322	-0.904036	0.486194	-0.92703	0.329329	-1.02128	0.264365	-0.887892	
4.41894	5	0	0.414846	-1.14905	0.509087	-1.11758	0.261572	-1.14455	0.332562	-1.30176	0.2542	-1.1654	0.343801	-1.17863	-0.234314	-1.38491	0.185235	-1.63549	-0.425891	-1.84507	0.0880775	-1.85662	0.0767555	-1.46422	0.530739	-1.18673	0.249581	-0.906153	0.483046	-0.929227	0.322918	-1.02056	0.267125	-0.895691	
4.422	5	0	0.414846	-1.14905	0.510146	-1.12057	0.262583	-1.14741	0.328666	-1.30149	0.254365	-1.17415	0.338859	-1.17863	-0.234946	-1.39381	0.183797	-1.64482	-0.423275	-1.85246	0.0785832	-1.86198	0.0732228	-1.46381	0.530739	-1.18673	0.245839	-0.90827	0.479897	-0.931425	0.316507	-1.01984	0.269885	-0.903491	
4.42505	5	0	0.414846	-1.14905	0.511204	-1.12356	0.263594	-1.15026	0.32477	-1.30123	0.25453	-1.1829	0.333916	-1.17863	-0.235578	-1.40272	0.182359	-1.65416	-0.420659	-1.85985	0.069089	-1.86735	0.06969	-1.46341	0.530739	-1.18673	0.242097	-0.910387	0.476748	-0.933623	0.310095	-1.01912	0.272645	-0.911291	
4.42963	5	0	0.412209	-1.1416	0.509088	-1.11758	0.262583	-1.14741	0.327616	-1.29853	0.253735	-1.18065	0.338859	-1.17863	-0.239426	-1.40254	0.176198	-1.65013	-0.424303	-1.85937	0.0596115	-1.8727	0.0776312	-1.4667	0.524628	-1.1867	0.243146	-0.913353	0.480876	-0.934193	0.308499	-1.0146	0.272645	-0.911291	
4.43573	5	0	0.409573	-1.13414	0.506971	-1.1116	0.261572	-1.14455	0.330462	-1.29583	0.25294	-1.17841	0.343801	-1.17863	-0.243274	-1.40235	0.170038	-1.6461	-0.427947	-1.85888	0.050134	-1.87806	0.0855725	-1.46999	0.518517	-1.18667	0.244196	-0.916318	0.485004	-0.934763	0.306902	-1.01009	0.272645	-0.911291	
4.44488	5	0	0.406936	-1.12669	0.504854	-1.10562	0.260562	-1.14169	0.333309	-1.29313	0.252145	-1.17616	0.348743	-1.17863	-0.247121	-1.40217	0.163877	-1.64208	-0.43159	-1.85839	0.0406565	-1.88342	0.0935138	-1.47328	0.512407	-1.18664	0.245245	-0.919283	0.489132	-0.935334	0.305306	-1.00558	0.272645	-0.911291	
4.45251	5	0	0.404299	-1.11924	0.502738	-1.09964	0.259551	-1.13884	0.336155	-1.29042	0.25135	-1.17391	0.353686	-1.17864	-0.250969	-1.40198	0.157716	-1.63805	-0.435234	-1.8579	0.031179	-1.88877	0.101455	-1.47657	0.506296	-1.1866	0.246294	-0.922249	0.49326	-0.935904	0.303709	-1.00107	0.272645	-0.911291	
4.46625	5	0	0.411025	-1.12364	0.502738	-1.09964	0.255278	-1.13824	0.333309	-1.29313	0.253735	-1.18065	0.350229	-1.18283	-0.247756	-1.41106	0.15929	-1.6425	-0.434363	-1.86037	0.0273308	-1.89394	0.0961725	-1.47122	0.504473	-1.18145	0.247936	-0.914198	0.491301	-0.930367	0.308522	-0.997272	0.273471	-0.899833	
4.47693	5	0	0.417751	-1.12803	0.502738	-1.09964	0.251005	-1.13765	0.330462	-1.29583	0.256119	-1.18739	0.346772	-1.18703	-0.244543	-1.42014	0.160864	-1.64695	-0.433492	-1.86283	0.0234825	-1.89912	0.09089	-1.46586	0.50265	-1.1763	0.249579	-0.906147	0.489342	-0.92483	0.313335	-0.993475	0.274296	-0.888374	
4.48303	5	0	0.424478	-1.13243	0.502738	-1.09964	0.246733	-1.13705	0.327616	-1.29853	0.258503	-1.19413	0.343314	-1.19123	-0.24133	-1.42922	0.162439	-1.6514	-0.43262	-1.86529	0.0196342	-1.90429	0.0856075	-1.46051	0.500827	-1.17115	0.251221	-0.898096	0.487383	-0.919294	0.318147	-0.989677	0.275122	-0.876915	
4.49371	5	0	0.431204	-1.13682	0.502738	-1.09964	0.24246	-1.13645	0.32477	-1.30123	0.260888	-1.20087	0.339857	-1.19542	-0.238117	-1.4383	0.164013	-1.65585	-0.431749	-1.86776	0.015786	-1.90947	0.080325	-1.45516	0.499004	-1.166	0.252863	-0.890045	0.485424	-0.913757	0.32296	-0.98588	0.275947	-0.865457	
4.49676	5	0	0.428565	-1.12936	0.503796	-1.10263	0.247744	-1.13991	0.329715	-1.30446	0.258666	-1.20287	0.341342	-1.19962	-0.240894	-1.44114	0.15943	-1.65627	-0.435391	-1.86727	0.0101735	-1.90964	0.081199	-1.45763	0.500827	-1.17115	0.254963	-0.895981	0.486404	-0.916526	0.334171	-1.00015	0.272361	-0.869116	
4.49982	5	0	0.425926	-1.12191	0.504854	-1.10562	0.253027	-1.14336	0.33466	-1.30769	0.256444	-1.20487	0.342826	-1.20381	-0.243671	-1.44397	0.154847	-1.6567	-0.439032	-1.86678	0.004561	-1.90981	0.082073	-1.4601	0.50265	-1.1763	0.257064	-0.901917	0.487383	-0.919295	0.345381	-1.01442	0.268776	-0.872775	
4.50897	5	0	0.423288	-1.11445	0.505913	-1.10861	0.25831	-1.14681	0.339605	-1.31092	0.254222	-1.20687	0.344311	-1.20801	-0.246447	-1.44681	0.150264	-1.65712	-0.442674	-1.8663	-0.0010515	-1.90999	0.082947	-1.46257	0.504473	-1.18145	0.259164	-0.907853	0.488363	-0.922063	0.356592	-1.02868	0.26519	-0.876433	
4.50745	5	0	0.420649	-1.10699	0.506971	-1.1116	0.263594	-1.15026	0.34455	-1.31415	0.252	-1.20887	0.345795	-1.2122	-0.249224	-1.44965	0.145681	-1.65754	-0.446316	-1.86581	-0.006664	-1.91016	0.083821	-1.46504	0.506296	-1.1866	0.261264	-0.913789	0.489343	-0.924832	0.367802	-1.04295	0.261605	-0.880092	
4.50745	5	0	0.42606	-1.10766	0.508976	-1.10601	0.262583	-1.14741	0.342451	-1.30822	0.252	-1.20887	0.342825	-1.20381	-0.253069	-1.44946	0.142674	-1.66241	-0.444574	-1.87073	-0.00697675	-1.9253	0.0873555	-1.46545	0.506296	-1.1866	0.263363	-0.919721	0.486194	-0.92703	0.359787	-1.03771	0.262985	-0.883993	
4.50592	5	0	0.431471	-1.10833	0.510981	-1.10042	0.261572	-1.14455	0.340353	-1.30229	0.252	-1.20887	0.339855	-1.19542	-0.256913	-1.44927	0.139666	-1.66728	-0.442833	-1.87565	-0.0072895	-1.94044	0.09089	-1.46586	0.506296	-1.1866	0.265462	-0.925653	0.483046	-0.929227	0.351772	-1.03248	0.264365	-0.887894	
4.50592	5	0	0.436882	-1.10899	0.512986	-1.09483	0.260562	-1.14169	0.338254	-1.29636	0.252	-1.20887	0.336886	-1.18702	-0.260757	-1.44908	0.136658	-1.67214	-0.441092	-1.88057	-0.00760225	-1.95558	0.0944245	-1.46628	0.506296	-1.1866	0.267561	-0.931585	0.479897	-0.931425	0.343756	-1.02724	0.265746	-0.891794	
4.50592	5	0	0.442293	-1.10966	0.514991	-1.08924	0.259551	-1.13884	0.336155	-1.29042	0.252	-1.20887	0.333916	-1.17863	-0.264602	-1.44889	0.133651	-1.67701	-0.43935	-1.88549	-0.007915	-1.97071	0.097959	-1.46669	0.506296	-1.1866	0.26966	-0.937517	0.476748	-0.933623	0.335741	-1.022	0.267126	-0.895695	
4.49982	5	0	0.443613	-1.11339	0.512986	-1.09483	0.262582	-1.1474	0.334358	-1.29609	0.251366	-1.21535	0.331946	-1.18702	-0.265238	-1.45776	0.132214	-1.6863	-0.437609	-1.89041	-0.0191195	-1.97105	0.0970847	-1.46422	0.51423	-1.19179	0.268611	-0.934551	0.480876	-0.934193	0.342159	-1.02272	0.264365	-0.887892	
4.49676	5	0	0.444933	-1.11712	0.510981	-1.10042	0.265613	-1.15597	0.33256	-1.30176	0.250732	-1.22184	0.329976	-1.19541	-0.265875	-1.46664	0.130777	-1.6956	-0.435869	-1.89533	-0.030324	-1.97139	0.0962105	-1.46174	0.522164	-1.19697	0.267562	-0.931586	0.485004	-0.934763	0.348577	-1.02345	0.261604	-0.880089	
4.49371	5	0	0.446254	-1.12085	0.508976	-1.10601	0.268645	-1.16454	0.330763	-1.30742	0.250098	-1.22832	0.328006	-1.2038	-0.266512	-1.47551	0.129341	-1.7049	-0.434129	-1.90025	-0.0415285	-1.97173	0.0953363	-1.45927	0.530097	-1.20216	0.266512	-0.928621	0.489132	-0.935334	0.354996	-1.02417	0.258843	-0.872286	
4.49219	5	0	0.447574	-1.12458	0.506971	-1.1116	0.271676	-1.1731	0.328966	-1.31309	0.249464	-1.23481	0.326036	-1.21219	-0.267148	-1.48438	0.127904	-1.71419	-0.432388	-1.90517	-0.052733	-1.97206	0.094462	-1.4568	0.538031	-1.20734	0.265463	-0.925655	0.49326	-0.935904	0.361414	-1.02489	0.256082	-0.864483	
4.48608	5	0	0.448894	-1.12831	0.503909	-1.1142	0.268411	-1.17536	0.332111	-1.32197	0.248828	-1.24128	0.327519	-1.21638	-0.268854	-1.49022	0.124897	-1.71904	-0.438798	-1.90665	-0.0474533	-1.98698	0.0926755	-1.46133	0.531919	-1.2073	0.263817	-0.933694	0.485985	-0.93753	0.354996	-1.02417	0.25388	-0.87204	
4.47998	5	0	0.450214	-1.13204	0.500846	-1.11679	0.265147	-1.17761	0.335255	-1.33086	0.248192	-1.24776	0.329002	-1.22057	-0.27056	-1.49606	0.121891	-1.72389	-0.445207	-1.90813	-0.0421735	-2.00191	0.090889	-1.46586	0.525807	-1.20727	0.26217	-0.941733	0.47871	-0.939156	0.348577	-1.02345	0.251677	-0.879598	
4.47998	5	0	0.451533	-1.13577	0.497784	-1.11939	0.261883	-1.17986	0.3384	-1.33975	0.247557	-1.25423	0.330486	-1.22477	-0.272267	-1.50191	0.118884	-1.72874	-0.451617	-1.90961	-0.0368938	-2.01683	0.0891025	-1.47039	0.519695	-1.20723	0.260524	-0.949772	0.471435	-0.940782	0.342159	-1.02272	0.249475	-0.887155	
4.47693	5	0	0.452853	-1.1395	0.494722	-1.12199	0.258618	-1.18212	0.341545	-1.34864	0.246921	-1.26071	0.331969	-1.22896	-0.273973	-1.50775	0.115878	-1.73359	-0.458027	-1.91109	-0.031614	-2.03175	0.087316	-1.47492	0.513583	-1.2072	0.258877	-0.957811	0.46416	-0.942408	0.335741	-1.022	0.247273	-0.894712	
4.4754	5	0	0.451533	-1.13577	0.4999	-1.12537	0.258618	-1.18212	0.340497	-1.34567	0.243908	-1.26046	0.330486	-1.22477	-0.277812	-1.50756	0.105173	-1.73	-0.456289	-1.91601	-0.041047	-2.03704	0.0881895	-1.47739	0.513583	-1.2072	0.256182	-0.962878	0.467094	-0.950699	0.345353	-1.03175	0.243692	-0.898363	
4.4754	5	0	0.450214	-1.13204	0.505078	-1.12875	0.258618	-1.18212	0.339449	-1.34271	0.240895	-1.26022	0.329002	-1.22057	-0.281651	-1.50737	0.094467	-1.72641	-0.454551	-1.92092	-0.05048	-2.04233	0.089063	-1.47986	0.513583	-1.2072	0.253488	-0.967945	0.470028	-0.95899	0.354965	-1.0415	0.240111	-0.902014	
4.47388	5	0	0.448894	-1.12831	0.510257	-1.13214	0.258618	-1.18212	0.338401	-1.33975	0.237881	-1.25997	0.327519	-1.21638	-0.285489	-1.50718	0.0837615	-1.72282	-0.452813	-1.92583	-0.059913	-2.04762	0.0899365	-1.48233	0.513583	-1.2072	0.250793	-0.973013	0.472961	-0.967281	0.364576	-1.05125	0.236531	-0.905666	
4.4754	0	0	0.447574	-1.12458	0.515435	-1.13552	0.258618	-1.18212	0.337353	-1.33679	0.234868	-1.25972	0.326036	-1.21219	-0.289328	-1.50699	0.073056	-1.71923	-0.451075	-1.93074	-0.069346	-2.0529	0.09081	-1.4848	0.513583	-1.2072	0.248098	-0.97808	0.475895	-0.975572	0.374188	-1.061	0.23295	-0.909317	
4.47998	0	0	0.436755	-1.12325	0.508253	-1.13772	0.252095	-1.18662	0.331661	-1.34217	0.232648	-1.26171	0.319617	-1.208	-0.292098	-1.50981	0.0761877	-1.72808	-0.454712	-1.93025	-0.0787625	-2.05818	0.094345	-1.48521	0.513583	-1.2072	0.251841	-0.975974	0.474917	-0.972809	0.364576	-1.05125	0.236531	-0.905666	
4.48456	0	0	0.425937	-1.12191	0.50107	-1.13991	0.245573	-1.19113	0.325968	-1.34756	0.230428	-1.26371	0.313198	-1.2038	-0.294869	-1.51263	0.0793195	-1.73693	-0.458349	-1.92976	-0.088179	-2.06346	0.09788	-1.48562	0.513583	-1.2072	0.255584	-0.973869	0.47394	-0.970047	0.354965	-1.0415	0.240111	-0.902014	
4.48761	0	0	0.415118	-1.12058	0.493888	-1.14211	0.23905	-1.19563	0.320276	-1.35294	0.228209	-1.2657	0.306779	-1.19961	-0.29764	-1.51545	0.0824513	-1.74578	-0.461986	-1.92927	-0.0975955	-2.06875	0.101415	-1.48603	0.513583	-1.2072	0.259326	-0.971763	0.472962	-0.967284	0.345353	-1.03175	0.243692	-0.898363	
4.49066	0	0	0.404299	-1.11924	0.486706	-1.14431	0.232527	-1.20013	0.314584	-1.35832	0.225989	-1.26769	0.30036	-1.19541	-0.30041	-1.51828	0.085583	-1.75463	-0.465623	-1.92879	-0.107012	-2.07403	0.10495	-1.48644	0.513583	-1.2072	0.263069	-0.969657	0.471984	-0.964521	0.335741	-1.022	0.247273	-0.894712	
4.49219	0	0	0.405618	-1.12297	0.487762	-1.14729	0.233535	-1.20298	0.316677	-1.36424	0.226781	-1.26993	0.303326	-1.20379	-0.30041	-1.51828	0.081018	-1.75505	-0.466654	-1.93566	-0.10526	-2.07898	0.103161	-1.49097	0.517224	-1.21749	0.259326	-0.971763	0.474916	-0.972806	0.348543	-1.04077	0.242314	-0.894468	
