0.66	3.79028	0	0	-0.171979	-0.240725	-0.099662	-0.241411	-0.002253	-0.298611	-0.057346	-0.200682	-0.096379	-0.211073	-0.071641	-0.133641	-0.140654	-0.16267	-0.069635	-0.198838	-0.056489	-0.220343	-0.062577	-0.285168	-0.067828	-0.205334	-0.090016	-0.118654	0.01505	-0.321416	-0.125226	-0.31198	-0.00516	-0.259095	0.021301	-0.276138	
0.658447	3.79181	0	0	-0.164662	-0.236618	-0.0982553	-0.228004	-0.0039245	-0.293887	-0.0596065	-0.194294	-0.096379	-0.211073	-0.067437	-0.13041	-0.135367	-0.166125	-0.065988	-0.195343	-0.0574187	-0.217716	-0.063802	-0.281706	-0.0687038	-0.202858	-0.0864785	-0.109056	0.0213325	-0.325521	-0.119491	-0.312977	0.003008	-0.264432	0.021301	-0.276138	
0.656805	3.78876	0	0	-0.157345	-0.232511	-0.0968485	-0.214597	-0.005596	-0.289163	-0.061867	-0.187906	-0.096379	-0.211073	-0.063233	-0.127178	-0.13008	-0.169579	-0.062341	-0.191848	-0.0583485	-0.215089	-0.065027	-0.278243	-0.0695795	-0.200383	-0.082941	-0.099458	0.027615	-0.329626	-0.113756	-0.313974	0.011176	-0.269769	0.021301	-0.276138	
0.655167	3.79181	0	0	-0.150029	-0.228404	-0.0954417	-0.20119	-0.0072675	-0.284439	-0.0641275	-0.181518	-0.096379	-0.211073	-0.059029	-0.123947	-0.124794	-0.173034	-0.058694	-0.188352	-0.0592782	-0.212462	-0.066252	-0.274781	-0.0704552	-0.197907	-0.0794035	-0.08986	0.0338975	-0.333731	-0.108021	-0.314972	0.019344	-0.275106	0.021301	-0.276138	
0.653622	3.79486	0	0	-0.142712	-0.224297	-0.094035	-0.187783	-0.008939	-0.279715	-0.066388	-0.17513	-0.096379	-0.211073	-0.054825	-0.120716	-0.119507	-0.176488	-0.055047	-0.184857	-0.060208	-0.209835	-0.067477	-0.271319	-0.071331	-0.195432	-0.075866	-0.080262	0.04018	-0.337836	-0.102286	-0.315969	0.027512	-0.280443	0.021301	-0.276138	
0.652261	3.79181	0	0	-0.152073	-0.222626	-0.102036	-0.182556	-0.0072675	-0.284439	-0.0591323	-0.182327	-0.0972745	-0.208543	-0.0562017	-0.116825	-0.119507	-0.176488	-0.0564007	-0.181032	-0.0611377	-0.207207	-0.0699285	-0.264391	-0.0690068	-0.191238	-0.0759942	-0.060283	0.0382233	-0.332306	-0.0958725	-0.303636	0.031921	-0.275139	0.0248932	-0.267693	
0.651174	3.79181	0	0	-0.161435	-0.220954	-0.110036	-0.177328	-0.005596	-0.289163	-0.0518765	-0.189524	-0.09817	-0.206012	-0.0575785	-0.112935	-0.119507	-0.176488	-0.0577545	-0.177206	-0.0620675	-0.204579	-0.07238	-0.257462	-0.0666825	-0.187045	-0.0761225	-0.040304	0.0362665	-0.326777	-0.089459	-0.291302	0.03633	-0.269835	0.0284855	-0.259248	
0.650453	3.79486	0	0	-0.170796	-0.219282	-0.118037	-0.1721	-0.0039245	-0.293887	-0.0446208	-0.196721	-0.0990655	-0.203482	-0.0589553	-0.109045	-0.119507	-0.176488	-0.0591083	-0.17338	-0.0629973	-0.201952	-0.0748315	-0.250534	-0.0643583	-0.182851	-0.0762508	-0.020325	0.0343097	-0.321247	-0.0830455	-0.278969	0.040739	-0.264531	0.0320778	-0.250803	
0.650187	3.79639	0	0	-0.180157	-0.217611	-0.126037	-0.166873	-0.002253	-0.298611	-0.037365	-0.203918	-0.099961	-0.200952	-0.060332	-0.105154	-0.119507	-0.176488	-0.060462	-0.169555	-0.063927	-0.199324	-0.077283	-0.243606	-0.062034	-0.178657	-0.076379	-0.000346	0.032353	-0.315717	-0.076632	-0.266635	0.045148	-0.259227	0.03567	-0.242358	
0.650467	3.79333	0	0	-0.178113	-0.223389	-0.121091	-0.180852	0.0076175	-0.305061	-0.037365	-0.203918	-0.0981705	-0.206012	-0.056204	-0.11682	-0.12184	-0.181381	-0.0627552	-0.176876	-0.0629973	-0.201952	-0.076057	-0.247071	-0.0652345	-0.180374	-0.0817415	-0.004807	0.0303952	-0.310184	-0.0874537	-0.251287	0.042634	-0.252122	0.030695	-0.228298	
0.651384	3.79028	0	0	-0.176068	-0.229168	-0.116144	-0.194832	0.017488	-0.31151	-0.037365	-0.203918	-0.09638	-0.211071	-0.052076	-0.128487	-0.124173	-0.186275	-0.0650485	-0.184196	-0.0620675	-0.204579	-0.074831	-0.250536	-0.068435	-0.182092	-0.087104	-0.009268	0.0284375	-0.304651	-0.0982755	-0.235938	0.04012	-0.245017	0.02572	-0.214237	
0.653013	3.79028	0	0	-0.174023	-0.234947	-0.111198	-0.208811	0.0273585	-0.31796	-0.037365	-0.203918	-0.0945895	-0.216131	-0.047948	-0.140154	-0.126506	-0.191168	-0.0673418	-0.191517	-0.0611377	-0.207207	-0.073605	-0.254	-0.0716355	-0.18381	-0.0924665	-0.013729	0.0264797	-0.299117	-0.109097	-0.22059	0.037606	-0.237913	0.020745	-0.200177	
0.655169	3.79028	0	0	-0.171979	-0.240725	-0.106251	-0.222791	0.037229	-0.324409	-0.037365	-0.203918	-0.092799	-0.221191	-0.04382	-0.15182	-0.128839	-0.196061	-0.069635	-0.198838	-0.060208	-0.209835	-0.072379	-0.257465	-0.074836	-0.185527	-0.097829	-0.01819	0.024522	-0.293584	-0.119919	-0.205242	0.035092	-0.230808	0.01577	-0.186117	
0.657447	3.78876	0	0	-0.171979	-0.240725	-0.106251	-0.222791	0.037229	-0.324409	-0.037365	-0.203918	-0.0910098	-0.226248	-0.042445	-0.155705	-0.126871	-0.201622	-0.0605795	-0.210628	-0.0592782	-0.212462	-0.0711535	-0.260929	-0.0780347	-0.187244	-0.108538	-0.0270945	0.0211758	-0.297778	-0.119311	-0.222183	0.0306862	-0.236121	0.010528	-0.1899	
0.659438	3.78876	0	0	-0.171979	-0.240725	-0.106251	-0.222791	0.037229	-0.324409	-0.037365	-0.203918	-0.0892205	-0.231305	-0.04107	-0.159591	-0.124904	-0.207182	-0.051524	-0.222418	-0.0583485	-0.215089	-0.069928	-0.264392	-0.0812335	-0.188961	-0.119248	-0.035999	0.0178295	-0.301971	-0.118703	-0.239125	0.0262805	-0.241433	0.005286	-0.193683	
0.660731	3.78876	0	0	-0.171979	-0.240725	-0.106251	-0.222791	0.037229	-0.324409	-0.037365	-0.203918	-0.0874313	-0.236362	-0.039695	-0.163476	-0.122937	-0.212743	-0.0424685	-0.234209	-0.0574187	-0.217716	-0.0687025	-0.267855	-0.0844323	-0.190677	-0.129957	-0.0449035	0.0144832	-0.306165	-0.118095	-0.256066	0.0218747	-0.246746	4.4E-05	-0.197465	
0.66092	3.78723	0	0	-0.171979	-0.240725	-0.106251	-0.222791	0.037229	-0.324409	-0.037365	-0.203918	-0.085642	-0.241419	-0.03832	-0.167361	-0.120969	-0.218304	-0.033413	-0.245999	-0.056489	-0.220343	-0.067477	-0.271319	-0.087631	-0.192394	-0.140666	-0.053808	0.011137	-0.310358	-0.117487	-0.273007	0.017469	-0.252059	-0.005198	-0.201248	
0.659898	3.78265	0	0	-0.174023	-0.234947	-0.101547	-0.218701	0.0273585	-0.31796	-0.039626	-0.197527	-0.085642	-0.241419	-0.03832	-0.167361	-0.115682	-0.221758	-0.0284072	-0.246334	-0.0618385	-0.216847	-0.067477	-0.271319	-0.087631	-0.192394	-0.142494	-0.0486415	0.0121152	-0.313123	-0.113687	-0.283747	0.0118117	-0.253818	-0.001884	-0.210614	
0.6581	3.78113	0	0	-0.176068	-0.229168	-0.0968435	-0.214612	0.017488	-0.31151	-0.041887	-0.191137	-0.085642	-0.241419	-0.03832	-0.167361	-0.110395	-0.225213	-0.0234015	-0.246669	-0.067188	-0.213352	-0.067477	-0.271319	-0.087631	-0.192394	-0.144323	-0.043475	0.0130935	-0.315887	-0.109886	-0.294488	0.0061545	-0.255577	0.00143	-0.219981	
0.656018	3.78265	0	0	-0.178113	-0.223389	-0.0921397	-0.210523	0.0076175	-0.305061	-0.044148	-0.184746	-0.085642	-0.241419	-0.03832	-0.167361	-0.105109	-0.228667	-0.0183957	-0.247003	-0.0725375	-0.209857	-0.067477	-0.271319	-0.087631	-0.192394	-0.146151	-0.0383085	0.0140717	-0.318651	-0.106086	-0.305229	0.00049725	-0.257336	0.004744	-0.229347	
0.654141	3.78265	0	0	-0.180157	-0.217611	-0.087436	-0.206433	-0.002253	-0.298611	-0.046409	-0.178356	-0.085642	-0.241419	-0.03832	-0.167361	-0.099822	-0.232122	-0.01339	-0.247338	-0.077887	-0.206361	-0.067477	-0.271319	-0.087631	-0.192394	-0.147979	-0.033142	0.01505	-0.321416	-0.102286	-0.315969	-0.00516	-0.259095	0.008058	-0.238713	
0.652961	3.77807	0	0	-0.189504	-0.215946	-0.0970862	-0.196543	-0.00058225	-0.303332	-0.0452782	-0.181552	-0.0865365	-0.238891	-0.0410703	-0.159589	-0.106092	-0.225887	-0.0160943	-0.239695	-0.0788165	-0.203734	-0.0748988	-0.263807	-0.083556	-0.193154	-0.14446	-0.023511	0.01505	-0.321416	-0.106086	-0.305229	-0.00641525	-0.255548	0.0116452	-0.230253	
0.652805	3.76892	0	0	-0.198852	-0.21428	-0.106737	-0.186653	0.0010885	-0.308053	-0.0441475	-0.184748	-0.087431	-0.236363	-0.0438205	-0.151816	-0.112363	-0.219653	-0.0187985	-0.232052	-0.079746	-0.201107	-0.0823205	-0.256294	-0.079481	-0.193913	-0.140942	-0.01388	0.01505	-0.321416	-0.109886	-0.294488	-0.0076705	-0.252	0.0152325	-0.221794	
0.653453	3.76739	0	0	-0.208199	-0.212615	-0.116387	-0.176763	0.00275925	-0.312775	-0.0430167	-0.187943	-0.0883255	-0.233834	-0.0465707	-0.144043	-0.118634	-0.213419	-0.0215028	-0.22441	-0.0806755	-0.19848	-0.0897422	-0.248782	-0.075406	-0.194672	-0.137424	-0.004249	0.01505	-0.321416	-0.113687	-0.283747	-0.00892575	-0.248453	0.0188197	-0.213334	
0.654567	3.76282	0	0	-0.217546	-0.21095	-0.126037	-0.166873	0.00443	-0.317496	-0.041886	-0.191139	-0.08922	-0.231306	-0.049321	-0.136271	-0.124904	-0.207184	-0.024207	-0.216767	-0.081605	-0.195853	-0.097164	-0.24127	-0.071331	-0.195432	-0.133905	0.005382	0.01505	-0.321416	-0.117487	-0.273007	-0.010181	-0.244905	0.022407	-0.204874	
0.655811	3.76434	0	0	-0.213461	-0.222496	-0.129083	-0.17563	0.0077685	-0.326931	-0.0407558	-0.194334	-0.0916935	-0.235519	-0.0465707	-0.144043	-0.127237	-0.212069	-0.0251577	-0.227892	-0.0860215	-0.194987	-0.0947135	-0.248196	-0.08123	-0.188964	-0.141083	0.00609325	0.0130932	-0.315886	-0.121292	-0.262254	-0.0057815	-0.239592	0.025995	-0.196398	
0.656847	3.76587	0	0	-0.209375	-0.234041	-0.13213	-0.184387	0.011107	-0.336367	-0.0396255	-0.197528	-0.094167	-0.239732	-0.0438205	-0.151816	-0.129571	-0.216954	-0.0261085	-0.239017	-0.090438	-0.194121	-0.092263	-0.255122	-0.091129	-0.182496	-0.148261	0.0068045	0.0111365	-0.310356	-0.125097	-0.251501	-0.001382	-0.234278	0.029583	-0.187921	
0.657377	3.76892	0	0	-0.20529	-0.245587	-0.135176	-0.193143	0.0144455	-0.345803	-0.0384953	-0.200723	-0.0966405	-0.243945	-0.0410703	-0.159589	-0.131904	-0.221839	-0.0270592	-0.250143	-0.0948545	-0.193254	-0.0898125	-0.262047	-0.101028	-0.176028	-0.155439	0.00751575	0.00917975	-0.304827	-0.128902	-0.240747	0.0030175	-0.228965	0.033171	-0.179445	
0.657386	3.76129	0	0	-0.201205	-0.257132	-0.138222	-0.2019	0.017784	-0.355238	-0.037365	-0.203918	-0.099114	-0.248158	-0.03832	-0.167361	-0.134237	-0.226724	-0.02801	-0.261268	-0.099271	-0.192388	-0.087362	-0.268973	-0.110927	-0.16956	-0.162617	0.008227	0.007223	-0.299297	-0.132707	-0.229994	0.007417	-0.223651	0.036759	-0.170968	
0.656987	3.75366	0	0	-0.212582	-0.249698	-0.133283	-0.215858	0.007925	-0.348796	-0.0434903	-0.199915	-0.101587	-0.252366	-0.0411545	-0.174462	-0.132272	-0.232278	-0.0303138	-0.26856	-0.096484	-0.200265	-0.091105	-0.271847	-0.1083	-0.176984	-0.171467	-0.005851	0.00290175	-0.300724	-0.137832	-0.24592	0.00993	-0.230753	0.03842	-0.175662	
0.656292	3.77502	0	0	-0.223959	-0.242264	-0.128345	-0.229816	-0.001934	-0.342353	-0.0496155	-0.195913	-0.104059	-0.256575	-0.043989	-0.181563	-0.130307	-0.237832	-0.0326175	-0.275851	-0.093697	-0.208141	-0.094848	-0.274722	-0.105673	-0.184409	-0.180316	-0.019929	-0.0014195	-0.302152	-0.142956	-0.261846	0.012443	-0.237855	0.040081	-0.180357	
0.655415	3.76129	0	0	-0.235336	-0.234831	-0.123406	-0.243773	-0.011793	-0.335911	-0.0557407	-0.19191	-0.106532	-0.260784	-0.0468235	-0.188665	-0.128342	-0.243385	-0.0349213	-0.283143	-0.09091	-0.216018	-0.098591	-0.277596	-0.103045	-0.191833	-0.189166	-0.034007	-0.00574075	-0.30358	-0.148081	-0.277771	0.014956	-0.244957	0.041742	-0.185051	
0.654468	3.75976	0	0	-0.246713	-0.227397	-0.118467	-0.257731	-0.021652	-0.329469	-0.061866	-0.187908	-0.109005	-0.264992	-0.049658	-0.195766	-0.126377	-0.248939	-0.037225	-0.290434	-0.088123	-0.223894	-0.102334	-0.28047	-0.100418	-0.199258	-0.198016	-0.048085	-0.010062	-0.305007	-0.153206	-0.293697	0.017469	-0.252059	0.043403	-0.189745	
0.653553	3.75671	0	0	-0.246713	-0.227397	-0.120112	-0.253081	-0.021652	-0.329469	-0.061866	-0.187908	-0.108112	-0.267516	-0.0482858	-0.199645	-0.121093	-0.252391	-0.0345288	-0.298054	-0.0934658	-0.220403	-0.107298	-0.279885	-0.104488	-0.1985	-0.194367	-0.0583972	-0.0134025	-0.309196	-0.157071	-0.313133	0.0143207	-0.260908	0.0414697	-0.202898	
0.652766	3.75519	0	0	-0.246713	-0.227397	-0.121758	-0.24843	-0.021652	-0.329469	-0.061866	-0.187908	-0.107218	-0.27004	-0.0469135	-0.203523	-0.11581	-0.255844	-0.0318325	-0.305674	-0.0988085	-0.216912	-0.112262	-0.279301	-0.108558	-0.197742	-0.190718	-0.0687095	-0.016743	-0.313385	-0.160937	-0.332569	0.0111725	-0.269758	0.0395365	-0.216052	
0.6522	3.75366	0	0	-0.246713	-0.227397	-0.123403	-0.24378	-0.021652	-0.329469	-0.061866	-0.187908	-0.106325	-0.272564	-0.0455412	-0.207402	-0.110526	-0.259296	-0.0291363	-0.313294	-0.104151	-0.213421	-0.117225	-0.278716	-0.112628	-0.196985	-0.187069	-0.0790218	-0.0200835	-0.317575	-0.164802	-0.352006	0.00802425	-0.278608	0.0376032	-0.229205	
0.651949	3.74298	0	0	-0.246713	-0.227397	-0.125049	-0.23913	-0.021652	-0.329469	-0.061866	-0.187908	-0.105432	-0.275088	-0.044169	-0.211281	-0.105243	-0.262749	-0.02644	-0.320914	-0.109494	-0.20993	-0.122189	-0.278131	-0.116698	-0.196227	-0.18342	-0.089334	-0.023424	-0.321764	-0.168667	-0.371442	0.004876	-0.287457	0.03567	-0.242358	
0.652104	3.74756	0	0	-0.256034	-0.22574	-0.134681	-0.22926	-0.0314997	-0.323034	-0.061866	-0.187908	-0.105432	-0.275088	-0.0469145	-0.203522	-0.109544	-0.262072	-0.0277877	-0.317105	-0.113905	-0.209065	-0.125926	-0.281003	-0.116698	-0.196227	-0.187069	-0.0790218	-0.023424	-0.321764	-0.168667	-0.371442	0.0061295	-0.291	0.0271105	-0.236765	
0.652616	3.74451	0	0	-0.265355	-0.224083	-0.144313	-0.219389	-0.0413475	-0.3166	-0.061866	-0.187908	-0.105432	-0.275088	-0.04966	-0.195763	-0.113846	-0.261396	-0.0291355	-0.313295	-0.118316	-0.2082	-0.129663	-0.283876	-0.116698	-0.196227	-0.190718	-0.0687095	-0.023424	-0.321764	-0.168667	-0.371442	0.007383	-0.294544	0.018551	-0.231172	
0.653226	3.74756	0	0	-0.274676	-0.222427	-0.153944	-0.209518	-0.0511952	-0.310165	-0.061866	-0.187908	-0.105432	-0.275088	-0.0524055	-0.188004	-0.118147	-0.260719	-0.0304832	-0.309486	-0.122727	-0.207335	-0.1334	-0.286748	-0.116698	-0.196227	-0.194367	-0.0583972	-0.023424	-0.321764	-0.168667	-0.371442	0.0086365	-0.298087	0.0099915	-0.225578	
0.653655	3.74451	0	0	-0.283997	-0.22077	-0.163576	-0.199648	-0.061043	-0.30373	-0.061866	-0.187908	-0.105432	-0.275088	-0.055151	-0.180245	-0.122448	-0.260042	-0.031831	-0.305677	-0.127138	-0.20647	-0.137137	-0.28962	-0.116698	-0.196227	-0.198016	-0.048085	-0.023424	-0.321764	-0.168667	-0.371442	0.00989	-0.30163	0.001432	-0.219985	
0.653626	3.74451	0	0	-0.28923	-0.230635	-0.172945	-0.207822	-0.057708	-0.313156	-0.070715	-0.189489	-0.107905	-0.27929	-0.0579833	-0.18734	-0.124784	-0.264914	-0.0391337	-0.312612	-0.130618	-0.208229	-0.134693	-0.296527	-0.12483	-0.194715	-0.205172	-0.0473742	-0.0244012	-0.319002	-0.172454	-0.36074	-0.00893075	-0.283883	-0.0002255	-0.215301	
0.65286	3.74298	0	0	-0.294462	-0.240501	-0.182314	-0.215997	-0.054373	-0.322581	-0.079564	-0.19107	-0.110377	-0.283492	-0.0608155	-0.194435	-0.127119	-0.269785	-0.0464365	-0.319546	-0.134098	-0.209988	-0.132249	-0.303434	-0.132962	-0.193203	-0.212328	-0.0466635	-0.0253785	-0.31624	-0.17624	-0.350039	-0.0277515	-0.266136	-0.001883	-0.210617	
0.651245	3.74451	0	0	-0.299694	-0.250366	-0.191683	-0.224171	-0.051038	-0.332006	-0.088413	-0.19265	-0.11285	-0.287694	-0.0636478	-0.20153	-0.129455	-0.274656	-0.0537393	-0.326481	-0.137578	-0.211747	-0.129805	-0.310341	-0.141095	-0.191691	-0.219484	-0.0459528	-0.0263558	-0.313478	-0.180027	-0.339337	-0.0465723	-0.248389	-0.0035405	-0.205932	
0.649127	3.73993	0	0	-0.304927	-0.260231	-0.201052	-0.232346	-0.047703	-0.341432	-0.097262	-0.194231	-0.115323	-0.291896	-0.06648	-0.208625	-0.131791	-0.279528	-0.061042	-0.333416	-0.141058	-0.213506	-0.127361	-0.317248	-0.149227	-0.190179	-0.22664	-0.045242	-0.027333	-0.310716	-0.183813	-0.328635	-0.065393	-0.230642	-0.005198	-0.201248	
0.646932	3.74451	0	0	-0.302892	-0.265983	-0.202449	-0.2457	-0.0558732	-0.339714	-0.0961333	-0.197421	-0.117795	-0.296094	-0.0693122	-0.215708	-0.128849	-0.287842	-0.0620015	-0.344475	-0.138276	-0.221368	-0.136051	-0.319527	-0.150667	-0.196835	-0.226502	-0.0651235	-0.0326245	-0.309382	-0.191455	-0.337348	-0.07103	-0.232408	-0.0173218	-0.204124	
0.645087	3.74298	0	0	-0.300856	-0.271736	-0.203846	-0.259053	-0.0640435	-0.337996	-0.0950045	-0.200611	-0.120266	-0.300291	-0.0721445	-0.222792	-0.125908	-0.296156	-0.062961	-0.355534	-0.135494	-0.229231	-0.144741	-0.321806	-0.152107	-0.203491	-0.226365	-0.085005	-0.037916	-0.308048	-0.199097	-0.346062	-0.076667	-0.234174	-0.0294455	-0.207001	
0.644017	3.7384	0	0	-0.298821	-0.277488	-0.205243	-0.272407	-0.0722137	-0.336277	-0.0938757	-0.203801	-0.122738	-0.304488	-0.0749768	-0.229875	-0.122966	-0.30447	-0.0639205	-0.366594	-0.132712	-0.237094	-0.153431	-0.324085	-0.153547	-0.210147	-0.226228	-0.104887	-0.0432075	-0.306713	-0.206738	-0.354776	-0.082304	-0.235939	-0.0415692	-0.209877	
0.644007	3.74298	0	0	-0.296786	-0.28324	-0.20664	-0.285761	-0.080384	-0.334559	-0.092747	-0.206991	-0.12521	-0.308686	-0.077809	-0.236958	-0.120024	-0.312784	-0.06488	-0.377653	-0.12993	-0.244956	-0.162121	-0.326364	-0.154987	-0.216803	-0.22609	-0.124768	-0.048499	-0.305379	-0.21438	-0.363489	-0.087941	-0.237705	-0.053693	-0.212753	
0.644724	3.74298	0	0	-0.308118	-0.275836	-0.198677	-0.290964	-0.080384	-0.334559	-0.0938757	-0.203801	-0.124319	-0.311205	-0.077809	-0.236958	-0.124321	-0.312106	-0.0635367	-0.381449	-0.132483	-0.249327	-0.159682	-0.333257	-0.152367	-0.224207	-0.2296	-0.134323	-0.0528095	-0.306807	-0.222012	-0.372182	-0.076038	-0.253648	-0.0641382	-0.220299	
0.64566	3.74298	0	0	-0.319449	-0.268431	-0.190713	-0.296168	-0.080384	-0.334559	-0.0950045	-0.200611	-0.123427	-0.313724	-0.077809	-0.236958	-0.128618	-0.311427	-0.0621935	-0.385246	-0.135037	-0.253698	-0.157243	-0.340151	-0.149748	-0.231611	-0.233109	-0.143877	-0.05712	-0.308235	-0.229643	-0.380875	-0.064135	-0.269591	-0.0745835	-0.227845	
0.64631	3.74451	0	0	-0.330781	-0.261027	-0.18275	-0.301371	-0.080384	-0.334559	-0.0961333	-0.197421	-0.122536	-0.316242	-0.077809	-0.236958	-0.132915	-0.310748	-0.0608502	-0.389042	-0.13759	-0.258069	-0.154803	-0.347044	-0.147128	-0.239015	-0.236619	-0.153432	-0.0614305	-0.309664	-0.237274	-0.389568	-0.052232	-0.285534	-0.0850288	-0.235391	
0.646168	3.73993	0	0	-0.342113	-0.253623	-0.174787	-0.306574	-0.080384	-0.334559	-0.097262	-0.194231	-0.121645	-0.318761	-0.077809	-0.236958	-0.137212	-0.31007	-0.059507	-0.392838	-0.140143	-0.26244	-0.152364	-0.353938	-0.144508	-0.246419	-0.240128	-0.162987	-0.065741	-0.311092	-0.244906	-0.398261	-0.040329	-0.301477	-0.095474	-0.242937	
0.644814	3.74145	0	0	-0.340079	-0.259371	-0.17971	-0.29266	-0.0787185	-0.339265	-0.098391	-0.19104	-0.121645	-0.318761	-0.079179	-0.233086	-0.137212	-0.31007	-0.0608502	-0.389042	-0.140143	-0.26244	-0.157314	-0.353351	-0.144508	-0.246419	-0.241945	-0.157853	-0.0637885	-0.31661	-0.242391	-0.405368	-0.054108	-0.297912	-0.0905225	-0.256931	
0.642465	3.74451	0	0	-0.338044	-0.26512	-0.184634	-0.278745	-0.077053	-0.343972	-0.09952	-0.187848	-0.121645	-0.318761	-0.080549	-0.229214	-0.137212	-0.31007	-0.0621935	-0.385246	-0.140143	-0.26244	-0.162265	-0.352765	-0.144508	-0.246419	-0.243761	-0.152719	-0.061836	-0.322128	-0.239876	-0.412476	-0.067887	-0.294347	-0.085571	-0.270925	
0.639623	3.74298	0	0	-0.33601	-0.270869	-0.189557	-0.264831	-0.0753875	-0.348679	-0.100649	-0.184657	-0.121645	-0.318761	-0.081919	-0.225342	-0.137212	-0.31007	-0.0635367	-0.381449	-0.140143	-0.26244	-0.167216	-0.352179	-0.144508	-0.246419	-0.245578	-0.147585	-0.0598835	-0.327645	-0.237362	-0.419583	-0.081666	-0.290781	-0.0806195	-0.284919	
0.636792	3.74298	0	0	-0.333976	-0.276617	-0.19448	-0.250917	-0.073722	-0.353385	-0.101778	-0.181466	-0.121645	-0.318761	-0.083289	-0.22147	-0.137212	-0.31007	-0.06488	-0.377653	-0.140143	-0.26244	-0.172166	-0.351592	-0.144508	-0.246419	-0.247394	-0.142451	-0.057931	-0.333163	-0.234847	-0.426691	-0.095445	-0.287216	-0.075668	-0.298913	
0.634475	3.74298	0	0	-0.341228	-0.280709	-0.19752	-0.259628	-0.0818828	-0.351669	-0.104504	-0.187042	-0.125898	-0.317918	-0.0888575	-0.220808	-0.140526	-0.312161	-0.0748565	-0.37697	-0.143621	-0.264191	-0.16973	-0.358478	-0.148569	-0.245662	-0.249212	-0.137314	-0.058907	-0.330404	-0.230401	-0.424132	-0.088559	-0.288997	-0.0858348	-0.288685	
0.633124	3.74298	0	0	-0.348481	-0.284801	-0.20056	-0.268339	-0.0900435	-0.349953	-0.10723	-0.192618	-0.130151	-0.317075	-0.094426	-0.220146	-0.143841	-0.314251	-0.084833	-0.376287	-0.147098	-0.265942	-0.167294	-0.365364	-0.15263	-0.244905	-0.25103	-0.132177	-0.059883	-0.327646	-0.225955	-0.421573	-0.081673	-0.290778	-0.0960015	-0.278458	
0.632699	3.7384	0	0	-0.355733	-0.288892	-0.2036	-0.27705	-0.0982042	-0.348237	-0.109956	-0.198195	-0.134404	-0.316232	-0.0999945	-0.219485	-0.147155	-0.316341	-0.0948095	-0.375604	-0.150576	-0.267693	-0.164857	-0.372249	-0.156691	-0.244148	-0.252847	-0.12704	-0.060859	-0.324887	-0.221508	-0.419014	-0.074787	-0.292558	-0.106168	-0.26823	
0.632892	3.73993	0	0	-0.362986	-0.292984	-0.20664	-0.285761	-0.106365	-0.346521	-0.112682	-0.203771	-0.138657	-0.315389	-0.105563	-0.218823	-0.15047	-0.318432	-0.104786	-0.374921	-0.154054	-0.269444	-0.162421	-0.379135	-0.160752	-0.243391	-0.254665	-0.121903	-0.061835	-0.322129	-0.217062	-0.416455	-0.067901	-0.294339	-0.116335	-0.258003	
0.633391	3.73688	0	0	-0.372258	-0.291337	-0.217629	-0.289261	-0.103039	-0.355922	-0.115407	-0.20934	-0.141126	-0.31958	-0.108389	-0.225899	-0.152804	-0.323287	-0.104405	-0.389738	-0.156605	-0.273808	-0.16988	-0.384836	-0.167122	-0.246809	-0.263484	-0.135864	-0.0671185	-0.320798	-0.228464	-0.414469	-0.0841675	-0.28371	-0.123194	-0.257105	
0.633887	3.73688	0	0	-0.381529	-0.28969	-0.228618	-0.292762	-0.0997125	-0.365322	-0.118133	-0.214909	-0.143595	-0.323771	-0.111215	-0.232975	-0.155139	-0.328141	-0.104024	-0.404554	-0.159155	-0.278172	-0.177338	-0.390537	-0.173492	-0.250227	-0.272303	-0.149826	-0.072402	-0.319466	-0.239865	-0.412484	-0.100434	-0.273081	-0.130053	-0.256208	
0.634093	3.73688	0	0	-0.390801	-0.288042	-0.239606	-0.296262	-0.0963863	-0.374723	-0.120858	-0.220478	-0.146065	-0.327962	-0.114042	-0.24005	-0.157473	-0.332996	-0.103644	-0.41937	-0.161706	-0.282536	-0.184797	-0.396239	-0.179863	-0.253644	-0.281121	-0.163787	-0.0776855	-0.318134	-0.251267	-0.410498	-0.1167	-0.262453	-0.136912	-0.25531	
0.634034	3.74145	0	0	-0.400073	-0.286395	-0.250595	-0.299762	-0.09306	-0.384123	-0.123583	-0.226047	-0.148534	-0.332153	-0.116868	-0.247126	-0.159807	-0.337851	-0.103263	-0.434187	-0.164256	-0.2869	-0.192255	-0.40194	-0.186233	-0.257062	-0.28994	-0.177748	-0.082969	-0.316803	-0.262668	-0.408512	-0.132967	-0.251824	-0.143771	-0.254413	
0.63394	3.73688	0	0	-0.398044	-0.292129	-0.24101	-0.309582	-0.101212	-0.382407	-0.129686	-0.222059	-0.145865	-0.339697	-0.121061	-0.250328	-0.162141	-0.3427	-0.106905	-0.437626	-0.166806	-0.291259	-0.193552	-0.411652	-0.187673	-0.263693	-0.29694	-0.196768	-0.0862978	-0.320986	-0.27346	-0.423273	-0.136087	-0.260653	-0.144036	-0.272134	
0.634046	3.73688	0	0	-0.396015	-0.297863	-0.231424	-0.319402	-0.109364	-0.380691	-0.13579	-0.218071	-0.143196	-0.34724	-0.125253	-0.25353	-0.164474	-0.347549	-0.110546	-0.441065	-0.169355	-0.295618	-0.194848	-0.421363	-0.189113	-0.270323	-0.30394	-0.215788	-0.0896265	-0.325169	-0.284253	-0.438035	-0.139207	-0.269482	-0.1443	-0.289855	
0.634584	3.73535	0	0	-0.393986	-0.303597	-0.221838	-0.329221	-0.117516	-0.378975	-0.141894	-0.214082	-0.140526	-0.354784	-0.129445	-0.256733	-0.166808	-0.352398	-0.114188	-0.444504	-0.171905	-0.299977	-0.196144	-0.431075	-0.190554	-0.276954	-0.31094	-0.234807	-0.0929552	-0.329352	-0.295046	-0.452796	-0.142326	-0.278312	-0.144565	-0.307575	
0.63577	3.73535	0	0	-0.391957	-0.309331	-0.212253	-0.339041	-0.125668	-0.377259	-0.147997	-0.210094	-0.137857	-0.362328	-0.133638	-0.259935	-0.169142	-0.357247	-0.11783	-0.447943	-0.174455	-0.304336	-0.197441	-0.440786	-0.191994	-0.283585	-0.31794	-0.253827	-0.096284	-0.333535	-0.305838	-0.467558	-0.145446	-0.287141	-0.144829	-0.325296	
0.637513	3.7323	0	0	-0.393986	-0.303597	-0.21389	-0.334415	-0.125668	-0.377259	-0.149124	-0.206908	-0.137857	-0.362328	-0.132272	-0.263797	-0.168164	-0.360009	-0.116492	-0.451725	-0.172607	-0.309557	-0.199953	-0.447053	-0.190253	-0.288505	-0.314329	-0.264034	-0.0996107	-0.337714	-0.304012	-0.487781	-0.1417	-0.297728	-0.156873	-0.32814	
0.639467	3.73382	0	0	-0.396015	-0.297863	-0.215527	-0.329789	-0.125668	-0.377259	-0.150251	-0.203723	-0.137857	-0.362328	-0.130905	-0.267659	-0.167187	-0.362771	-0.115153	-0.455506	-0.17076	-0.314778	-0.202464	-0.453321	-0.188512	-0.293426	-0.310717	-0.27424	-0.102937	-0.341893	-0.302187	-0.508004	-0.137954	-0.308316	-0.168917	-0.330984	
0.641281	3.7323	0	0	-0.398044	-0.292129	-0.217164	-0.325163	-0.125668	-0.377259	-0.151379	-0.200538	-0.137857	-0.362328	-0.129539	-0.271521	-0.166209	-0.365533	-0.113815	-0.459288	-0.168912	-0.32	-0.204976	-0.459588	-0.186771	-0.298346	-0.307106	-0.284446	-0.106264	-0.346071	-0.300361	-0.528227	-0.134207	-0.318904	-0.180962	-0.333828	
0.642602	3.73077	0	0	-0.400073	-0.286395	-0.218801	-0.320537	-0.125668	-0.377259	-0.152506	-0.197352	-0.137857	-0.362328	-0.128172	-0.275383	-0.165232	-0.368295	-0.112477	-0.46307	-0.167065	-0.325221	-0.207488	-0.465855	-0.18503	-0.303266	-0.303495	-0.294653	-0.109591	-0.35025	-0.298535	-0.54845	-0.130461	-0.329491	-0.193006	-0.336672	
0.643089	3.7323	0	0	-0.398044	-0.292129	-0.228387	-0.310715	-0.124007	-0.381953	-0.157478	-0.196552	-0.142105	-0.361484	-0.13646	-0.266998	-0.164255	-0.371056	-0.117454	-0.462724	-0.170538	-0.326963	-0.211211	-0.468689	-0.188212	-0.304967	-0.29457	-0.300485	-0.109591	-0.35025	-0.292852	-0.549448	-0.131709	-0.325963	-0.198198	-0.340413	
0.642677	3.7323	0	0	-0.396015	-0.297863	-0.237973	-0.300893	-0.122346	-0.386648	-0.16245	-0.195752	-0.146354	-0.36064	-0.144749	-0.258613	-0.163278	-0.373817	-0.122431	-0.462377	-0.174011	-0.328705	-0.214935	-0.471523	-0.191394	-0.306669	-0.285645	-0.306316	-0.109591	-0.35025	-0.287169	-0.550446	-0.132958	-0.322435	-0.20339	-0.344154	
0.641638	3.73382	0	0	-0.393986	-0.303597	-0.247559	-0.29107	-0.120685	-0.391342	-0.167422	-0.194953	-0.150603	-0.359796	-0.153037	-0.250229	-0.162302	-0.376578	-0.127409	-0.462031	-0.177485	-0.330447	-0.218658	-0.474358	-0.194577	-0.30837	-0.27672	-0.312148	-0.109591	-0.35025	-0.281486	-0.551444	-0.134206	-0.318908	-0.208581	-0.347894	
0.640261	3.73382	0	0	-0.391957	-0.309331	-0.257145	-0.281248	-0.119024	-0.396036	-0.172394	-0.194153	-0.154851	-0.358952	-0.161325	-0.241844	-0.161325	-0.379339	-0.132386	-0.461685	-0.180958	-0.332189	-0.222381	-0.477192	-0.197759	-0.310071	-0.267795	-0.31798	-0.109591	-0.35025	-0.275803	-0.552442	-0.135454	-0.31538	-0.213773	-0.351635	
0.638838	3.72925	0	0	-0.401216	-0.307686	-0.260176	-0.289937	-0.127167	-0.394322	-0.170141	-0.20052	-0.158208	-0.360621	-0.159959	-0.245706	-0.168921	-0.38074	-0.136023	-0.465117	-0.184429	-0.33393	-0.224891	-0.483445	-0.196889	-0.312529	-0.278525	-0.307046	-0.110565	-0.347496	-0.275121	-0.539295	-0.136703	-0.311851	-0.208581	-0.347894	
0.637655	3.72925	0	0	-0.410476	-0.306041	-0.263206	-0.298627	-0.135309	-0.392609	-0.167888	-0.206888	-0.161565	-0.36229	-0.158592	-0.249568	-0.176516	-0.38214	-0.13966	-0.46855	-0.1879	-0.335672	-0.227401	-0.489699	-0.19602	-0.314987	-0.289255	-0.296113	-0.111539	-0.344743	-0.274439	-0.526148	-0.137952	-0.308322	-0.20339	-0.344154	
0.636863	3.73382	0	0	-0.419736	-0.304396	-0.266236	-0.307316	-0.143452	-0.390895	-0.165635	-0.213256	-0.164922	-0.36396	-0.157225	-0.25343	-0.184112	-0.383541	-0.143297	-0.471982	-0.191371	-0.337413	-0.229911	-0.495952	-0.195151	-0.317445	-0.299986	-0.285179	-0.112514	-0.34199	-0.273756	-0.513001	-0.1392	-0.304793	-0.198198	-0.340413	
0.636389	3.72925	0	0	-0.428995	-0.302751	-0.269267	-0.316005	-0.151595	-0.389181	-0.163382	-0.219623	-0.168279	-0.365629	-0.155859	-0.257292	-0.191708	-0.384942	-0.146934	-0.475414	-0.194842	-0.339154	-0.232421	-0.502205	-0.194281	-0.319903	-0.310716	-0.274246	-0.113488	-0.339236	-0.273074	-0.499854	-0.140449	-0.301264	-0.193006	-0.336672	
0.636146	3.72925	0	0	-0.426969	-0.308477	-0.259691	-0.325815	-0.149936	-0.39387	-0.162256	-0.222805	-0.166502	-0.37065	-0.160044	-0.260491	-0.189757	-0.390456	-0.142928	-0.486735	-0.192998	-0.344366	-0.234931	-0.508449	-0.200641	-0.3233	-0.314219	-0.283717	-0.119734	-0.335155	-0.285693	-0.494329	-0.157919	-0.287134	-0.199839	-0.335775	
0.636041	3.72925	0	0	-0.424943	-0.314204	-0.250115	-0.335626	-0.148277	-0.39856	-0.16113	-0.225988	-0.164726	-0.375671	-0.164228	-0.263691	-0.187806	-0.395971	-0.138922	-0.498057	-0.191154	-0.349577	-0.23744	-0.514693	-0.207001	-0.326697	-0.317723	-0.293187	-0.12598	-0.331074	-0.298312	-0.488804	-0.175389	-0.273005	-0.206672	-0.334878	
0.635987	3.72467	0	0	-0.422916	-0.319931	-0.240538	-0.345436	-0.146617	-0.403249	-0.160004	-0.22917	-0.162949	-0.380693	-0.168413	-0.266891	-0.185854	-0.401485	-0.134916	-0.509378	-0.18931	-0.354789	-0.23995	-0.520937	-0.213361	-0.330095	-0.321226	-0.302658	-0.132225	-0.326992	-0.310931	-0.48328	-0.192858	-0.258875	-0.213505	-0.33398	
0.635956	3.72772	0	0	-0.42089	-0.325657	-0.230962	-0.355246	-0.144958	-0.407938	-0.158878	-0.232352	-0.161172	-0.385714	-0.172598	-0.27009	-0.183903	-0.407	-0.13091	-0.520699	-0.187466	-0.360001	-0.24246	-0.527181	-0.219721	-0.333492	-0.324729	-0.312129	-0.138471	-0.322911	-0.32355	-0.477755	-0.210328	-0.244746	-0.220338	-0.333083	
0.636048	3.7262	0	0	-0.422916	-0.319931	-0.237508	-0.336747	-0.146617	-0.403249	-0.16113	-0.225987	-0.161172	-0.385714	-0.171233	-0.273947	-0.183903	-0.407	-0.132245	-0.516927	-0.185623	-0.36521	-0.235113	-0.534608	-0.218853	-0.335947	-0.319326	-0.327399	-0.137497	-0.325665	-0.326724	-0.483837	-0.206582	-0.255334	-0.225523	-0.336824	
0.636374	3.7262	0	0	-0.424943	-0.314204	-0.244054	-0.318247	-0.148277	-0.39856	-0.163382	-0.219621	-0.161172	-0.385714	-0.169869	-0.277804	-0.183903	-0.407	-0.13358	-0.513155	-0.183779	-0.370419	-0.227766	-0.542035	-0.217984	-0.338401	-0.313922	-0.342669	-0.136522	-0.328418	-0.329897	-0.489919	-0.202836	-0.265921	-0.230708	-0.340566	
0.637049	3.72772	0	0	-0.426969	-0.308477	-0.250599	-0.299748	-0.149936	-0.39387	-0.165635	-0.213255	-0.161172	-0.385714	-0.168504	-0.281661	-0.183903	-0.407	-0.134914	-0.509383	-0.181936	-0.375628	-0.220419	-0.549462	-0.217115	-0.340855	-0.308519	-0.35794	-0.135548	-0.331172	-0.33307	-0.496001	-0.199089	-0.276509	-0.235894	-0.344307	
0.638186	3.72772	0	0	-0.428995	-0.302751	-0.257145	-0.281248	-0.151595	-0.389181	-0.167887	-0.20689	-0.161172	-0.385714	-0.167139	-0.285518	-0.183903	-0.407	-0.136249	-0.505611	-0.180093	-0.380837	-0.213072	-0.556889	-0.216247	-0.34331	-0.303116	-0.37321	-0.134574	-0.333925	-0.336244	-0.502083	-0.195343	-0.287097	-0.241079	-0.348048	
0.639834	3.7262	0	0	-0.433052	-0.291287	-0.255756	-0.267904	-0.154916	-0.379795	-0.165169	-0.201319	-0.167192	-0.37985	-0.169869	-0.277803	-0.183903	-0.407	-0.131274	-0.505961	-0.181936	-0.375628	-0.214281	-0.553473	-0.213067	-0.341613	-0.299604	-0.363765	-0.132627	-0.339429	-0.329317	-0.506609	-0.187237	-0.292394	-0.246259	-0.351786	
0.641874	3.72314	0	0	-0.437108	-0.279822	-0.254367	-0.25456	-0.158237	-0.37041	-0.162451	-0.195748	-0.173212	-0.373987	-0.172599	-0.270087	-0.183903	-0.407	-0.126299	-0.50631	-0.183779	-0.370419	-0.215489	-0.550057	-0.209888	-0.339916	-0.296091	-0.354321	-0.130679	-0.344934	-0.322389	-0.511136	-0.17913	-0.29769	-0.251439	-0.355523	
0.644159	3.72162	0	0	-0.441164	-0.268358	-0.252978	-0.241216	-0.161558	-0.361024	-0.159734	-0.190177	-0.179232	-0.368124	-0.175329	-0.262371	-0.183903	-0.407	-0.121324	-0.50666	-0.185623	-0.36521	-0.216697	-0.546642	-0.206708	-0.338219	-0.292578	-0.344877	-0.128731	-0.350438	-0.315462	-0.515663	-0.171023	-0.302987	-0.25662	-0.35926	
0.646542	3.72162	0	0	-0.445221	-0.256894	-0.251589	-0.227872	-0.164879	-0.351638	-0.157016	-0.184606	-0.185252	-0.36226	-0.178059	-0.254656	-0.183903	-0.407	-0.116349	-0.507009	-0.187466	-0.360001	-0.217906	-0.543226	-0.203529	-0.336522	-0.289066	-0.335432	-0.126784	-0.355942	-0.308535	-0.520189	-0.162917	-0.308284	-0.2618	-0.362998	
0.648874	3.72314	0	0	-0.454464	-0.255263	-0.262822	-0.213395	-0.163218	-0.356332	-0.163115	-0.18062	-0.187029	-0.357237	-0.180791	-0.246934	-0.190136	-0.400808	-0.125331	-0.495333	-0.188388	-0.357395	-0.219115	-0.539809	-0.205267	-0.33161	-0.289167	-0.315755	-0.127758	-0.35319	-0.302175	-0.508023	-0.172272	-0.299459	-0.249793	-0.360157	
0.651029	3.72314	0	0	-0.463707	-0.253631	-0.274056	-0.198917	-0.161557	-0.361027	-0.169214	-0.176635	-0.188806	-0.352214	-0.183524	-0.239212	-0.196369	-0.394616	-0.134314	-0.483658	-0.189309	-0.35479	-0.220324	-0.536392	-0.207005	-0.326697	-0.289268	-0.296078	-0.128731	-0.350438	-0.295816	-0.495858	-0.181626	-0.290635	-0.237786	-0.357316	
0.65298	3.72009	0	0	-0.472951	-0.251999	-0.285289	-0.18444	-0.159896	-0.365721	-0.175314	-0.17265	-0.190584	-0.347192	-0.186256	-0.23149	-0.202602	-0.388423	-0.143296	-0.471982	-0.190231	-0.352185	-0.221534	-0.532974	-0.208743	-0.321785	-0.289369	-0.276401	-0.129705	-0.347687	-0.289457	-0.483692	-0.190981	-0.28181	-0.22578	-0.354476	
0.654727	3.71857	0	0	-0.482194	-0.250368	-0.296522	-0.169963	-0.158235	-0.370415	-0.181413	-0.168664	-0.192361	-0.342169	-0.188989	-0.223768	-0.208835	-0.382231	-0.152279	-0.460306	-0.191153	-0.349579	-0.222743	-0.529557	-0.210481	-0.316873	-0.28947	-0.256724	-0.130679	-0.344935	-0.283097	-0.471526	-0.200336	-0.272985	-0.213773	-0.351635	
0.656271	3.72009	0	0	-0.491424	-0.248742	-0.301178	-0.174058	-0.166366	-0.368708	-0.188636	-0.161494	-0.196601	-0.34133	-0.194533	-0.223114	-0.213114	-0.381555	-0.155913	-0.463738	-0.190231	-0.352185	-0.217809	-0.530153	-0.215398	-0.31366	-0.291278	-0.251613	-0.133602	-0.336675	-0.286197	-0.447678	-0.206585	-0.255325	-0.220343	-0.333068	
0.657613	3.71704	0	0	-0.500654	-0.247117	-0.305835	-0.178152	-0.174498	-0.367002	-0.195858	-0.154324	-0.200841	-0.340491	-0.200077	-0.222461	-0.217392	-0.380878	-0.159546	-0.46717	-0.189309	-0.35479	-0.212876	-0.530748	-0.220314	-0.310447	-0.293087	-0.246503	-0.136524	-0.328414	-0.289296	-0.423831	-0.212834	-0.237665	-0.226912	-0.314501	
0.658753	3.71704	0	0	-0.509883	-0.245492	-0.310491	-0.182247	-0.18263	-0.365295	-0.203081	-0.147153	-0.20508	-0.339651	-0.205621	-0.221807	-0.221671	-0.380201	-0.163179	-0.470603	-0.188388	-0.357395	-0.207943	-0.531344	-0.225231	-0.307235	-0.294895	-0.241393	-0.139447	-0.320154	-0.292396	-0.399984	-0.219082	-0.220006	-0.233482	-0.295935	
0.65968	3.71704	0	0	-0.519113	-0.243866	-0.315147	-0.186341	-0.190761	-0.363589	-0.210304	-0.139983	-0.20932	-0.338812	-0.211165	-0.221154	-0.22595	-0.379525	-0.166813	-0.474035	-0.187466	-0.360001	-0.203009	-0.531939	-0.230148	-0.304022	-0.296703	-0.236282	-0.14237	-0.311894	-0.295496	-0.376136	-0.225331	-0.202346	-0.240052	-0.277368	
0.660379	3.71399	0	0	-0.52317	-0.232402	-0.312134	-0.177601	-0.194082	-0.354203	-0.207595	-0.134395	-0.20932	-0.338812	-0.211165	-0.221154	-0.224975	-0.382281	-0.168149	-0.470259	-0.186544	-0.362606	-0.210362	-0.524506	-0.230148	-0.304022	-0.305628	-0.23045	-0.149586	-0.305061	-0.301183	-0.375152	-0.226582	-0.19881	-0.248518	-0.271836	
0.660831	3.71399	0	0	-0.527226	-0.220938	-0.309122	-0.168861	-0.197403	-0.344817	-0.204887	-0.128807	-0.20932	-0.338812	-0.211165	-0.221154	-0.224	-0.385037	-0.169484	-0.466484	-0.185622	-0.36521	-0.217715	-0.517072	-0.230148	-0.304022	-0.314553	-0.224618	-0.156802	-0.298227	-0.30687	-0.374167	-0.227834	-0.195273	-0.256985	-0.266304	
0.661021	3.70941	0	0	-0.531282	-0.209474	-0.30611	-0.160122	-0.200724	-0.335432	-0.202179	-0.12322	-0.20932	-0.338812	-0.211165	-0.221154	-0.223025	-0.387793	-0.17082	-0.462708	-0.184701	-0.367815	-0.225068	-0.509638	-0.230148	-0.304022	-0.323478	-0.218787	-0.164018	-0.291394	-0.312556	-0.373182	-0.229085	-0.191737	-0.265452	-0.260771	
0.660931	3.71094	0	0	-0.535339	-0.19801	-0.303097	-0.151382	-0.204045	-0.326046	-0.19947	-0.117632	-0.20932	-0.338812	-0.211165	-0.221154	-0.22205	-0.390549	-0.172156	-0.458933	-0.183779	-0.37042	-0.232421	-0.502205	-0.230148	-0.304022	-0.332403	-0.212955	-0.171234	-0.284561	-0.318243	-0.372198	-0.230336	-0.188201	-0.273918	-0.255239	
0.6606	3.70941	0	0	-0.530176	-0.188142	-0.306678	-0.123991	-0.20737	-0.316651	-0.205122	-0.101659	-0.211098	-0.333788	-0.213898	-0.213428	-0.224	-0.385036	-0.1712	-0.447936	-0.187467	-0.359996	-0.224975	-0.496544	-0.22784	-0.299861	-0.319975	-0.209276	-0.170259	-0.287316	-0.315072	-0.366072	-0.229085	-0.191737	-0.265452	-0.260771	
0.66013	3.71246	0	0	-0.525013	-0.178274	-0.31026	-0.0966	-0.210694	-0.307255	-0.210774	-0.085686	-0.212875	-0.328763	-0.216632	-0.205703	-0.225951	-0.379524	-0.170243	-0.436939	-0.191155	-0.349573	-0.21753	-0.490882	-0.225532	-0.295701	-0.307547	-0.205596	-0.169285	-0.290072	-0.311901	-0.359946	-0.227834	-0.195273	-0.256985	-0.266304	
0.659632	3.70941	0	0	-0.51985	-0.168405	-0.313841	-0.069209	-0.214019	-0.297859	-0.216426	-0.069713	-0.214653	-0.323739	-0.219365	-0.197978	-0.227902	-0.374011	-0.169287	-0.425942	-0.194844	-0.339149	-0.210085	-0.485221	-0.223225	-0.29154	-0.295118	-0.201916	-0.16831	-0.292827	-0.30873	-0.35382	-0.226582	-0.19881	-0.248518	-0.271836	
0.659214	3.70941	0	0	-0.514687	-0.158537	-0.317422	-0.041818	-0.217343	-0.288464	-0.222078	-0.05374	-0.216431	-0.318715	-0.222099	-0.190252	-0.229852	-0.368498	-0.16833	-0.414945	-0.198532	-0.328725	-0.202639	-0.47956	-0.220917	-0.287379	-0.28269	-0.198237	-0.167335	-0.295582	-0.305559	-0.347694	-0.225331	-0.202346	-0.240052	-0.277368	
0.658986	3.70788	0	0	-0.530014	-0.13968	-0.330651	-0.00443175	-0.228787	-0.277372	-0.226607	-0.0409407	-0.21999	-0.308658	-0.223403	-0.171551	-0.23278	-0.360223	-0.163745	-0.40047	-0.196908	-0.321763	-0.202553	-0.466435	-0.222093	-0.273365	-0.27036	-0.174727	-0.169285	-0.290071	-0.290336	-0.330244	-0.22098	-0.19703	-0.244988	-0.263418	
0.65902	3.70636	0	0	-0.545341	-0.120824	-0.34388	0.0329545	-0.240231	-0.26628	-0.231135	-0.0281415	-0.223549	-0.298601	-0.224708	-0.15285	-0.235708	-0.351947	-0.159161	-0.385995	-0.195285	-0.3148	-0.202468	-0.45331	-0.22327	-0.259351	-0.25803	-0.151217	-0.171235	-0.28456	-0.275113	-0.312794	-0.216629	-0.191715	-0.249924	-0.249468	
0.65928	3.70331	0	0	-0.560668	-0.101967	-0.357108	0.0703408	-0.251675	-0.255187	-0.235664	-0.0153422	-0.227107	-0.288544	-0.226013	-0.134149	-0.238637	-0.343672	-0.154577	-0.371521	-0.193661	-0.307838	-0.202383	-0.440185	-0.224446	-0.245337	-0.245699	-0.127707	-0.173185	-0.279049	-0.25989	-0.295343	-0.212277	-0.186399	-0.25486	-0.235517	
0.659714	3.70331	0	0	-0.575995	-0.08311	-0.370337	0.107727	-0.263119	-0.244095	-0.240193	-0.002543	-0.230666	-0.278487	-0.227317	-0.115448	-0.241565	-0.335396	-0.149992	-0.357046	-0.192038	-0.300876	-0.202297	-0.42706	-0.225623	-0.231323	-0.233369	-0.104197	-0.175135	-0.273538	-0.244667	-0.277893	-0.207926	-0.181083	-0.259796	-0.221567	
0.660269	3.70331	0	0	-0.575995	-0.08311	-0.370337	0.107727	-0.264784	-0.239391	-0.24246	0.0038635	-0.235792	-0.275138	-0.234227	-0.110932	-0.242541	-0.332636	-0.157649	-0.349127	-0.190415	-0.293904	-0.202219	-0.413905	-0.225062	-0.222213	-0.246136	-0.0681138	-0.173774	-0.263824	-0.244646	-0.247643	-0.20608	-0.168669	-0.252733	-0.204681	
0.660892	3.70178	0	0	-0.575995	-0.08311	-0.370337	0.107727	-0.266448	-0.234687	-0.244727	0.01027	-0.240917	-0.271788	-0.241138	-0.106417	-0.243518	-0.329876	-0.165306	-0.341207	-0.188792	-0.286932	-0.202141	-0.400751	-0.224501	-0.213103	-0.258904	-0.0320305	-0.172413	-0.254109	-0.244624	-0.217392	-0.204235	-0.156254	-0.245671	-0.187796	
0.66153	3.70331	0	0	-0.575995	-0.08311	-0.370337	0.107727	-0.268112	-0.229983	-0.246993	0.0166765	-0.246042	-0.268439	-0.248049	-0.101902	-0.244495	-0.327116	-0.172963	-0.333288	-0.18717	-0.279959	-0.202063	-0.387596	-0.223941	-0.203992	-0.271672	0.00405275	-0.171052	-0.244395	-0.244603	-0.187142	-0.202389	-0.14384	-0.238608	-0.17091	
0.662125	3.6972	0	0	-0.575995	-0.08311	-0.370337	0.107727	-0.269777	-0.225279	-0.24926	0.023083	-0.251168	-0.26509	-0.254959	-0.097386	-0.245471	-0.324356	-0.18062	-0.325369	-0.185547	-0.272987	-0.201985	-0.374441	-0.22338	-0.194882	-0.284439	0.040136	-0.169691	-0.234681	-0.244582	-0.156892	-0.200544	-0.131426	-0.231545	-0.154025	
0.662616	3.69568	0	0	-0.578032	-0.0773537	-0.370337	0.107727	-0.273108	-0.215864	-0.246564	0.0287157	-0.252058	-0.262574	-0.260493	-0.0967477	-0.245471	-0.324356	-0.181963	-0.321574	-0.187397	-0.267759	-0.199477	-0.368144	-0.225126	-0.189947	-0.27364	0.02911	-0.175932	-0.230603	-0.244582	-0.156892	-0.208658	-0.126124	-0.240029	-0.148482	
0.662943	3.70026	0	0	-0.580068	-0.0715975	-0.370337	0.107727	-0.27644	-0.206448	-0.243868	0.0343485	-0.252949	-0.260058	-0.266027	-0.0961095	-0.245471	-0.324356	-0.183306	-0.31778	-0.189248	-0.26253	-0.196969	-0.361847	-0.226872	-0.185011	-0.262842	0.018084	-0.182173	-0.226525	-0.244582	-0.156892	-0.216772	-0.120822	-0.248512	-0.142938	
0.663046	3.69568	0	0	-0.582105	-0.0658413	-0.370337	0.107727	-0.279772	-0.197032	-0.241173	0.0399813	-0.253839	-0.257542	-0.271562	-0.0954713	-0.245471	-0.324356	-0.184648	-0.313986	-0.191098	-0.257301	-0.194461	-0.35555	-0.228619	-0.180076	-0.252043	0.007058	-0.188415	-0.222446	-0.244582	-0.156892	-0.224886	-0.115521	-0.256996	-0.137395	
0.662869	3.69415	0	0	-0.584141	-0.060085	-0.370337	0.107727	-0.283103	-0.187617	-0.238477	0.045614	-0.254729	-0.255026	-0.277096	-0.094833	-0.245471	-0.324356	-0.185991	-0.310191	-0.192948	-0.252073	-0.191953	-0.349253	-0.230365	-0.175141	-0.241244	-0.003968	-0.194656	-0.218368	-0.244582	-0.156892	-0.233	-0.110219	-0.265479	-0.131852	
0.662431	3.69263	0	0	-0.576961	-0.0559175	-0.361053	0.116077	-0.28477	-0.182905	-0.241884	0.0552428	-0.25651	-0.249992	-0.272933	-0.091596	-0.247425	-0.318833	-0.185053	-0.299123	-0.194799	-0.246841	-0.189445	-0.342947	-0.226313	-0.175891	-0.235918	0.000494	-0.193679	-0.221128	-0.250291	-0.155919	-0.230491	-0.117309	-0.265479	-0.131852	
0.661821	3.69415	0	0	-0.569781	-0.05175	-0.351769	0.124427	-0.286437	-0.178194	-0.245291	0.0648715	-0.258292	-0.244958	-0.268769	-0.088359	-0.24938	-0.31331	-0.184114	-0.288054	-0.196651	-0.241609	-0.186936	-0.336641	-0.222262	-0.17664	-0.230592	0.004956	-0.192702	-0.223888	-0.256001	-0.154945	-0.227983	-0.1244	-0.265479	-0.131852	
0.66113	3.6911	0	0	-0.562602	-0.0475825	-0.342485	0.132777	-0.288104	-0.173483	-0.248698	0.0745002	-0.260073	-0.239924	-0.264606	-0.085122	-0.251334	-0.307787	-0.183175	-0.276986	-0.198502	-0.236378	-0.184427	-0.330335	-0.21821	-0.177389	-0.225267	0.009418	-0.191726	-0.226649	-0.26171	-0.153971	-0.225474	-0.131491	-0.265479	-0.131852	
0.66045	3.6911	0	0	-0.555422	-0.043415	-0.333201	0.141127	-0.289771	-0.168771	-0.252105	0.084129	-0.261854	-0.23489	-0.260443	-0.081885	-0.253288	-0.302264	-0.182237	-0.265918	-0.200353	-0.231146	-0.181919	-0.324029	-0.214158	-0.178139	-0.219941	0.01388	-0.190749	-0.229409	-0.267419	-0.152998	-0.222965	-0.138581	-0.265479	-0.131852	
0.659871	3.6911	0	0	-0.572805	-0.0187463	-0.34318	0.169329	-0.302877	-0.152957	-0.256653	0.0969832	-0.265419	-0.224813	-0.265934	-0.066367	-0.256222	-0.293973	-0.188971	-0.246888	-0.197809	-0.22677	-0.181854	-0.31081	-0.213601	-0.169005	-0.212942	0.0331875	-0.191726	-0.226649	-0.25536	-0.141557	-0.21736	-0.136792	-0.260301	-0.128053	
0.659436	3.6911	0	0	-0.590189	0.0059225	-0.353159	0.19753	-0.315983	-0.137144	-0.261201	0.109838	-0.268985	-0.214736	-0.271425	-0.050849	-0.259155	-0.285682	-0.195704	-0.227858	-0.195265	-0.222395	-0.181788	-0.29759	-0.213044	-0.159871	-0.205943	0.052495	-0.192702	-0.223888	-0.243302	-0.130115	-0.211755	-0.135003	-0.255123	-0.124255	
0.659095	3.68957	0	0	-0.607572	0.0305912	-0.363137	0.225732	-0.329089	-0.12133	-0.26575	0.122692	-0.27255	-0.204659	-0.276916	-0.035331	-0.262089	-0.277392	-0.202437	-0.208829	-0.192721	-0.21802	-0.181723	-0.284371	-0.212488	-0.150738	-0.198943	0.0718025	-0.193679	-0.221128	-0.231243	-0.118673	-0.206149	-0.133215	-0.249945	-0.120456	
0.658785	3.68957	0	0	-0.624955	0.05526	-0.373116	0.253934	-0.342195	-0.105516	-0.270298	0.135546	-0.276116	-0.194582	-0.282407	-0.019813	-0.265023	-0.269101	-0.209171	-0.189799	-0.190177	-0.213644	-0.181657	-0.271152	-0.211931	-0.141604	-0.191944	0.09111	-0.194656	-0.218368	-0.219185	-0.107232	-0.200544	-0.131426	-0.244767	-0.116658	
0.658443	3.68957	0	0	-0.622912	0.0494852	-0.37775	0.249727	-0.342195	-0.105516	-0.270298	0.135546	-0.281238	-0.191235	-0.282407	-0.019813	-0.270274	-0.26567	-0.216834	-0.181862	-0.192958	-0.205784	-0.186549	-0.257327	-0.214557	-0.134184	-0.193964	0.116394	-0.192324	-0.211397	-0.212207	-0.0813197	-0.197446	-0.122535	-0.242897	-0.103494	
0.658008	3.68805	0	0	-0.620869	0.0437105	-0.382383	0.24552	-0.342195	-0.105516	-0.270298	0.135546	-0.286361	-0.187888	-0.282407	-0.019813	-0.275525	-0.262238	-0.224498	-0.173925	-0.19574	-0.197924	-0.19144	-0.243503	-0.217183	-0.126763	-0.195985	0.141679	-0.189993	-0.204426	-0.205229	-0.0554075	-0.194348	-0.113644	-0.241026	-0.0903305	
0.657432	3.685	0	0	-0.618825	0.0379358	-0.387016	0.241312	-0.342195	-0.105516	-0.270298	0.135546	-0.291484	-0.184541	-0.282407	-0.019813	-0.280776	-0.258807	-0.232161	-0.165988	-0.198521	-0.190063	-0.196332	-0.229679	-0.219808	-0.119342	-0.198005	0.166963	-0.187661	-0.197455	-0.198251	-0.0294953	-0.191251	-0.104753	-0.239155	-0.0771668	
0.656731	3.68652	0	0	-0.616782	0.032161	-0.39165	0.237105	-0.342195	-0.105516	-0.270298	0.135546	-0.296606	-0.181194	-0.282407	-0.019813	-0.286027	-0.255376	-0.239824	-0.158051	-0.201302	-0.182203	-0.201223	-0.215854	-0.222434	-0.111922	-0.200025	0.192248	-0.185329	-0.190484	-0.191273	-0.003583	-0.188153	-0.095862	-0.237285	-0.064003	
0.65594	3.68194	0	0	-0.616782	0.032161	-0.388324	0.227705	-0.342195	-0.105516	-0.272575	0.14198	-0.295714	-0.183714	-0.287938	-0.0191832	-0.286027	-0.255376	-0.239824	-0.158051	-0.195976	-0.185683	-0.202447	-0.212394	-0.223309	-0.109447	-0.207194	0.192932	-0.192549	-0.183641	-0.199558	0.004607	-0.204389	-0.0852533	-0.247434	-0.05377	
0.655091	3.68347	0	0	-0.616782	0.032161	-0.384997	0.218304	-0.342195	-0.105516	-0.274852	0.148415	-0.294822	-0.186234	-0.29347	-0.0185535	-0.286027	-0.255376	-0.239824	-0.158051	-0.190649	-0.189163	-0.203672	-0.208935	-0.224185	-0.106972	-0.214362	0.193616	-0.199768	-0.176798	-0.207842	0.012797	-0.220624	-0.0746445	-0.257584	-0.043537	
0.654217	3.68347	0	0	-0.616782	0.032161	-0.381671	0.208904	-0.342195	-0.105516	-0.277128	0.154849	-0.293931	-0.188755	-0.299001	-0.0179238	-0.286027	-0.255376	-0.239824	-0.158051	-0.185323	-0.192644	-0.204896	-0.205476	-0.22506	-0.104498	-0.221531	0.1943	-0.206987	-0.169956	-0.216127	0.020987	-0.23686	-0.0640358	-0.267733	-0.033304	
0.653359	3.68347	0	0	-0.616782	0.032161	-0.378345	0.199503	-0.342195	-0.105516	-0.279405	0.161283	-0.293039	-0.191275	-0.304532	-0.017294	-0.286027	-0.255376	-0.239824	-0.158051	-0.179997	-0.196124	-0.20612	-0.202016	-0.225936	-0.102023	-0.228699	0.194984	-0.214207	-0.163113	-0.224412	0.029177	-0.253095	-0.053427	-0.277882	-0.023071	
0.652623	3.68194	0	0	-0.62087	0.043714	-0.377038	0.213111	-0.343865	-0.100797	-0.27672	0.166955	-0.295715	-0.183712	-0.305906	-0.013412	-0.287984	-0.249844	-0.237558	-0.150735	-0.180925	-0.193502	-0.202396	-0.199127	-0.221005	-0.105245	-0.21785	0.183897	-0.213229	-0.165878	-0.220579	0.0183455	-0.243725	-0.0622805	-0.274568	-0.032437	
0.65215	3.685	0	0	-0.624958	0.055267	-0.37573	0.226718	-0.345535	-0.096078	-0.274034	0.172627	-0.298391	-0.176149	-0.307279	-0.00953	-0.289941	-0.244313	-0.235291	-0.14342	-0.181853	-0.190881	-0.198672	-0.196238	-0.216075	-0.108467	-0.207001	0.17281	-0.212251	-0.168642	-0.216747	0.007514	-0.234354	-0.071134	-0.271254	-0.041803	
0.652079	3.68194	0	0	-0.629045	0.06682	-0.374423	0.240326	-0.347204	-0.091359	-0.271348	0.178298	-0.301067	-0.168586	-0.308652	-0.005648	-0.291899	-0.238782	-0.233025	-0.136104	-0.18278	-0.188259	-0.194947	-0.19335	-0.211144	-0.111689	-0.196151	0.161724	-0.211273	-0.171406	-0.212914	-0.0033175	-0.224984	-0.0799875	-0.267939	-0.051169	
0.65255	3.68347	0	0	-0.633133	0.078373	-0.373116	0.253934	-0.348874	-0.08664	-0.268663	0.18397	-0.303743	-0.161023	-0.310026	-0.001766	-0.293856	-0.23325	-0.230759	-0.128788	-0.183708	-0.185638	-0.191223	-0.190461	-0.206213	-0.114911	-0.185302	0.150637	-0.210295	-0.174171	-0.209081	-0.014149	-0.215613	-0.088841	-0.264625	-0.060535	
0.653688	3.67737	0	0	-0.623922	0.0767995	-0.371816	0.267577	-0.352216	-0.0771947	-0.272085	0.19364	-0.305528	-0.155977	-0.312775	0.00600325	-0.295814	-0.227715	-0.234813	-0.117331	-0.185564	-0.180392	-0.187496	-0.18757	-0.208842	-0.107482	-0.183649	0.165561	-0.210295	-0.174171	-0.212914	-0.0033175	-0.224984	-0.0799875	-0.256133	-0.0660837	
0.655342	3.68194	0	0	-0.61471	0.075226	-0.370515	0.281219	-0.355558	-0.0677495	-0.275506	0.203311	-0.307314	-0.150932	-0.315524	0.0137725	-0.297773	-0.22218	-0.238866	-0.105875	-0.18742	-0.175146	-0.183769	-0.184678	-0.21147	-0.100053	-0.181996	0.180485	-0.210295	-0.174171	-0.216747	0.007514	-0.234354	-0.071134	-0.247642	-0.0716325	
0.657097	3.68042	0	0	-0.605499	0.0736525	-0.369215	0.294862	-0.358901	-0.0583043	-0.278928	0.212981	-0.309099	-0.145887	-0.318273	0.0215418	-0.299732	-0.216645	-0.24292	-0.0944177	-0.189276	-0.169901	-0.180042	-0.181787	-0.214098	-0.0926247	-0.180343	0.19541	-0.210295	-0.174171	-0.220579	0.0183455	-0.243725	-0.0622805	-0.23915	-0.0771813	
0.658531	3.68194	0	0	-0.596288	0.072079	-0.367914	0.308505	-0.362243	-0.048859	-0.28235	0.222651	-0.310884	-0.140841	-0.321022	0.029311	-0.30169	-0.21111	-0.246974	-0.082961	-0.191132	-0.164655	-0.176315	-0.178896	-0.216727	-0.085196	-0.17869	0.210334	-0.210295	-0.174171	-0.224412	0.029177	-0.253095	-0.053427	-0.230658	-0.08273	
0.659221	3.67737	0	0	-0.605499	0.0736525	-0.378844	0.304774	-0.358901	-0.0583043	-0.286172	0.220191	-0.310884	-0.140841	-0.322398	0.033198	-0.30169	-0.21111	-0.253289	-0.0788345	-0.192989	-0.159407	-0.178768	-0.171962	-0.213547	-0.0834638	-0.175197	0.220079	-0.20601	-0.172719	-0.219354	0.0453418	-0.238117	-0.0604828	-0.23729	-0.063988	
0.658746	3.68194	0	0	-0.61471	0.075226	-0.389774	0.301044	-0.355558	-0.0677495	-0.289994	0.217731	-0.310884	-0.140841	-0.323773	0.037085	-0.30169	-0.21111	-0.259604	-0.074708	-0.194846	-0.154158	-0.181222	-0.165029	-0.210367	-0.0817315	-0.171704	0.229825	-0.201726	-0.171268	-0.214296	0.0615065	-0.223138	-0.0675385	-0.243922	-0.045246	
0.656972	3.67889	0	0	-0.623922	0.0767995	-0.400704	0.297314	-0.352216	-0.0771947	-0.293816	0.215272	-0.310884	-0.140841	-0.325148	0.040972	-0.30169	-0.21111	-0.265919	-0.0705815	-0.196704	-0.14891	-0.183675	-0.158095	-0.207186	-0.0799992	-0.168212	0.239571	-0.197441	-0.169816	-0.209238	0.0776712	-0.208159	-0.0745943	-0.250553	-0.026504	
0.654316	3.68194	0	0	-0.633133	0.078373	-0.411634	0.293583	-0.348874	-0.08664	-0.297638	0.212812	-0.310884	-0.140841	-0.326524	0.044859	-0.30169	-0.21111	-0.272234	-0.066455	-0.198561	-0.143661	-0.186129	-0.151162	-0.204006	-0.078267	-0.164719	0.249316	-0.193156	-0.168365	-0.20418	0.093836	-0.193181	-0.08165	-0.257185	-0.007762	
0.651254	3.68042	0	0	-0.631088	0.0725947	-0.41293	0.279961	-0.358632	-0.080264	-0.302597	0.213575	-0.314218	-0.142541	-0.330673	0.0415947	-0.30498	-0.213216	-0.280796	-0.0696685	-0.20203	-0.14543	-0.189854	-0.154058	-0.207186	-0.0799992	-0.168212	0.239571	-0.199397	-0.164287	-0.211192	0.098418	-0.210674	-0.0674867	-0.258845	-0.00307025	
0.648262	3.68042	0	0	-0.629044	0.0668165	-0.414226	0.266338	-0.368391	-0.073888	-0.307556	0.214338	-0.317553	-0.144242	-0.334823	0.0383305	-0.308269	-0.215322	-0.289358	-0.072882	-0.205499	-0.147198	-0.193579	-0.156955	-0.210367	-0.0817315	-0.171704	0.229825	-0.205639	-0.160208	-0.218204	0.103	-0.228168	-0.0533235	-0.260505	0.0016215	
0.645819	3.68042	0	0	-0.627	0.0610382	-0.415523	0.252715	-0.378149	-0.067512	-0.312515	0.215101	-0.320887	-0.145943	-0.338972	0.0350663	-0.311559	-0.217428	-0.29792	-0.0760955	-0.208967	-0.148967	-0.197304	-0.159852	-0.213547	-0.0834638	-0.175197	0.220079	-0.21188	-0.15613	-0.225217	0.107582	-0.245661	-0.0391603	-0.262165	0.00631325	
0.644249	3.68042	0	0	-0.624955	0.05526	-0.416819	0.239093	-0.387907	-0.061136	-0.317474	0.215864	-0.324221	-0.147643	-0.343121	0.031802	-0.314848	-0.219534	-0.306482	-0.079309	-0.212436	-0.150735	-0.201029	-0.162748	-0.216727	-0.085196	-0.17869	0.210334	-0.218121	-0.152052	-0.232229	0.112164	-0.263155	-0.024997	-0.263825	0.011005	
0.643413	3.68042	0	0	-0.624955	0.05526	-0.402563	0.233393	-0.378149	-0.067512	-0.312515	0.215101	-0.324221	-0.147643	-0.341747	0.0279182	-0.314848	-0.219534	-0.301527	-0.0796118	-0.21058	-0.155981	-0.199803	-0.166213	-0.219029	-0.0894028	-0.182183	0.200609	-0.222401	-0.153506	-0.232832	0.0986458	-0.259383	-0.035656	-0.258848	-0.00306275	
0.643079	3.68194	0	0	-0.624955	0.05526	-0.388308	0.227693	-0.368391	-0.073888	-0.307556	0.214338	-0.324221	-0.147643	-0.340372	0.0240345	-0.314848	-0.219534	-0.296572	-0.0799145	-0.208724	-0.161226	-0.198577	-0.169677	-0.221332	-0.0936095	-0.185675	0.190885	-0.226682	-0.154961	-0.233435	0.0851275	-0.255612	-0.046315	-0.25387	-0.0171305	
0.64302	3.68347	0	0	-0.624955	0.05526	-0.374053	0.221992	-0.358632	-0.080264	-0.302597	0.213575	-0.324221	-0.147643	-0.338998	0.0201507	-0.314848	-0.219534	-0.291617	-0.0802172	-0.206868	-0.166471	-0.197351	-0.173142	-0.223634	-0.0978162	-0.189168	0.181161	-0.230962	-0.156416	-0.234039	0.0716092	-0.251841	-0.056974	-0.248892	-0.0311982	
0.643004	3.68957	0	0	-0.624955	0.05526	-0.359797	0.216292	-0.348874	-0.08664	-0.297638	0.212812	-0.324221	-0.147643	-0.337624	0.016267	-0.314848	-0.219534	-0.286662	-0.08052	-0.205012	-0.171717	-0.196125	-0.176607	-0.225936	-0.102023	-0.192661	0.171436	-0.235242	-0.15787	-0.234642	0.058091	-0.248069	-0.067633	-0.243915	-0.045266	
0.642848	3.68957	0	0	-0.629046	0.0668205	-0.360157	0.234629	-0.360303	-0.0755425	-0.294957	0.218498	-0.325113	-0.14512	-0.333473	0.019528	-0.315827	-0.216767	-0.289365	-0.0728805	-0.20594	-0.169095	-0.198577	-0.169676	-0.226812	-0.0995475	-0.187325	0.175952	-0.235242	-0.15787	-0.227635	0.0535127	-0.246813	-0.0711833	-0.252407	-0.0397173	
0.642578	3.6972	0	0	-0.633136	0.078381	-0.360518	0.252966	-0.371731	-0.064445	-0.292276	0.224183	-0.326006	-0.142598	-0.329323	0.022789	-0.316806	-0.214	-0.292068	-0.065241	-0.206868	-0.166472	-0.201029	-0.162745	-0.227688	-0.097072	-0.181989	0.180467	-0.235242	-0.15787	-0.220629	0.0489345	-0.245557	-0.0747335	-0.260899	-0.0341685	
0.642284	3.70026	0	0	-0.637227	0.0899415	-0.360878	0.271302	-0.38316	-0.0533475	-0.289596	0.229869	-0.326898	-0.140076	-0.325172	0.02605	-0.317785	-0.211232	-0.294772	-0.0576015	-0.207796	-0.16385	-0.203482	-0.155814	-0.228564	-0.0945965	-0.176653	0.184982	-0.235242	-0.15787	-0.213622	0.0443562	-0.2443	-0.0782837	-0.26939	-0.0286197	
0.642058	3.70331	0	0	-0.641317	0.101502	-0.361239	0.289639	-0.394589	-0.04225	-0.286915	0.235554	-0.327791	-0.137553	-0.321022	0.029311	-0.318764	-0.208465	-0.297475	-0.049962	-0.208724	-0.161227	-0.205934	-0.148883	-0.22944	-0.092121	-0.171317	0.189498	-0.235242	-0.15787	-0.206616	0.039778	-0.243044	-0.081834	-0.277882	-0.023071	
0.641988	3.70636	0	0	-0.648469	0.0972875	-0.365874	0.285422	-0.392919	-0.0469715	-0.296835	0.237077	-0.328684	-0.13503	-0.329297	0.0377062	-0.319744	-0.205697	-0.305133	-0.0420198	-0.204326	-0.162084	-0.207161	-0.145415	-0.225385	-0.0928665	-0.169667	0.204453	-0.229005	-0.161945	-0.206007	0.0532925	-0.236186	-0.0835858	-0.2812	-0.013695	
0.642154	3.70941	0	0	-0.655621	0.093073	-0.37051	0.281204	-0.391248	-0.051693	-0.306756	0.2386	-0.329576	-0.132506	-0.337572	0.0461015	-0.320723	-0.202929	-0.312791	-0.0340775	-0.199928	-0.162941	-0.208388	-0.141948	-0.22133	-0.093612	-0.168018	0.219407	-0.222769	-0.166021	-0.205398	0.066807	-0.229328	-0.0853375	-0.284517	-0.004319	
0.642549	3.71399	0	0	-0.662773	0.0888585	-0.375145	0.276987	-0.389578	-0.0564145	-0.316677	0.240124	-0.330469	-0.129983	-0.345847	0.0544967	-0.321703	-0.200162	-0.320449	-0.0261352	-0.19553	-0.163798	-0.209615	-0.138481	-0.217276	-0.0943575	-0.166369	0.234362	-0.216532	-0.170096	-0.204789	0.0803215	-0.222471	-0.0870893	-0.287834	0.005057	
0.643133	3.71246	0	0	-0.669925	0.084644	-0.379781	0.27277	-0.387907	-0.061136	-0.326597	0.241647	-0.331362	-0.12746	-0.354122	0.062892	-0.322682	-0.197394	-0.328107	-0.018193	-0.191132	-0.164655	-0.210842	-0.135013	-0.213221	-0.095103	-0.164719	0.249316	-0.210295	-0.174171	-0.20418	0.093836	-0.215613	-0.088841	-0.291152	0.014433	
0.643861	3.71857	0	0	-0.667882	0.0788693	-0.381085	0.259152	-0.386237	-0.0658548	-0.324316	0.235201	-0.334693	-0.129162	-0.351372	0.0551195	-0.319745	-0.205695	-0.329002	-0.0293547	-0.194602	-0.16642	-0.208389	-0.141947	-0.2164	-0.096833	-0.177231	0.245464	-0.212252	-0.168641	-0.208028	0.104711	-0.216869	-0.0852893	-0.285981	0.01827	
0.644691	3.72467	0	0	-0.665838	0.0730945	-0.382389	0.245534	-0.384568	-0.0705735	-0.322036	0.228756	-0.338024	-0.130865	-0.348622	0.047347	-0.316808	-0.213996	-0.329896	-0.0405165	-0.198072	-0.168186	-0.205935	-0.14888	-0.219579	-0.098563	-0.189742	0.241611	-0.214208	-0.163111	-0.211876	0.115587	-0.218126	-0.0817375	-0.280811	0.022107	
0.645577	3.72467	0	0	-0.663795	0.0673197	-0.383692	0.231917	-0.382898	-0.0752923	-0.319755	0.22231	-0.341355	-0.132568	-0.345871	0.0395745	-0.31387	-0.222297	-0.33079	-0.0516782	-0.201542	-0.169952	-0.203482	-0.155814	-0.222757	-0.100293	-0.202254	0.237759	-0.216165	-0.157582	-0.215725	0.126462	-0.219383	-0.0781857	-0.27564	0.025944	
0.646418	3.72467	0	0	-0.661752	0.061545	-0.384996	0.218299	-0.381228	-0.080011	-0.317474	0.215864	-0.344686	-0.13427	-0.343121	0.031802	-0.310933	-0.230598	-0.331685	-0.06284	-0.205012	-0.171717	-0.201029	-0.162748	-0.225936	-0.102023	-0.214765	0.233906	-0.218121	-0.152052	-0.219573	0.137338	-0.220639	-0.074634	-0.270469	0.029781	
0.647077	3.72925	0	0	-0.65971	0.055774	-0.387966	0.209408	-0.379559	-0.0847275	-0.317474	0.215864	-0.342902	-0.139313	-0.345894	0.0246605	-0.314221	-0.232701	-0.328985	-0.0704697	-0.20848	-0.173482	-0.204751	-0.165642	-0.227363	-0.108698	-0.216409	0.218976	-0.221423	-0.15627	-0.231621	0.125717	-0.224985	-0.0799828	-0.273981	0.0212547	
0.647415	3.73382	0	0	-0.657668	0.050003	-0.390937	0.200516	-0.37789	-0.089444	-0.317474	0.215864	-0.341117	-0.144355	-0.348667	0.017519	-0.317509	-0.234803	-0.326286	-0.0780995	-0.211948	-0.175246	-0.208474	-0.168537	-0.228789	-0.115374	-0.218052	0.204045	-0.224726	-0.160488	-0.243669	0.114096	-0.22933	-0.0853315	-0.277492	0.0127285	
0.647295	3.73077	0	0	-0.655626	0.044232	-0.393907	0.191625	-0.376221	-0.0941605	-0.317474	0.215864	-0.339333	-0.149398	-0.35144	0.0103775	-0.320797	-0.236906	-0.323586	-0.0857292	-0.215416	-0.17701	-0.212196	-0.171431	-0.230216	-0.122049	-0.219696	0.189115	-0.228028	-0.164706	-0.255716	0.102475	-0.233676	-0.0906803	-0.281004	0.00420225	
0.646585	3.7323	0	0	-0.653584	0.038461	-0.396877	0.182734	-0.374552	-0.098877	-0.317474	0.215864	-0.337549	-0.154441	-0.354213	0.003236	-0.324085	-0.239009	-0.320887	-0.093359	-0.218884	-0.178775	-0.215918	-0.174325	-0.231643	-0.128724	-0.221339	0.174185	-0.23133	-0.168924	-0.267764	0.090854	-0.238021	-0.096029	-0.284515	-0.004324	
0.645309	3.73382	0	0	-0.642342	0.031115	-0.392244	0.186926	-0.376221	-0.0941605	-0.312515	0.215101	-0.338441	-0.15192	-0.348692	0.00261175	-0.324085	-0.239009	-0.322236	-0.089545	-0.218884	-0.178775	-0.217143	-0.170861	-0.231643	-0.128724	-0.21233	0.168298	-0.229375	-0.174449	-0.262649	0.0763972	-0.243618	-0.0978258	-0.289683	-0.00815175	
0.643659	3.73535	0	0	-0.631099	0.023769	-0.387611	0.191119	-0.37789	-0.089444	-0.307556	0.214338	-0.339333	-0.149399	-0.343171	0.0019875	-0.324085	-0.239009	-0.323586	-0.085731	-0.218884	-0.178775	-0.218369	-0.167398	-0.231643	-0.128724	-0.203321	0.162411	-0.22742	-0.179974	-0.257533	0.0619405	-0.249214	-0.0996225	-0.29485	-0.0119795	
0.641836	3.73382	0	0	-0.619857	0.016423	-0.382978	0.195311	-0.379559	-0.0847275	-0.302597	0.213575	-0.340225	-0.146878	-0.33765	0.00136325	-0.324085	-0.239009	-0.324935	-0.081917	-0.218884	-0.178775	-0.219594	-0.163935	-0.231643	-0.128724	-0.194311	0.156524	-0.225466	-0.185498	-0.252418	0.0474838	-0.25481	-0.101419	-0.300017	-0.0158073	
0.640042	3.73535	0	0	-0.608614	0.009077	-0.378345	0.199503	-0.381228	-0.080011	-0.297638	0.212812	-0.341117	-0.144357	-0.332129	0.000739	-0.324085	-0.239009	-0.326285	-0.078103	-0.218884	-0.178775	-0.22082	-0.160471	-0.231643	-0.128724	-0.185302	0.150637	-0.223511	-0.191023	-0.247303	0.033027	-0.260407	-0.103216	-0.305185	-0.019635	
0.638474	3.73535	0	0	-0.608614	0.009077	-0.377038	0.213111	-0.381228	-0.080011	-0.304878	0.220021	-0.342902	-0.139313	-0.336252	0.01239	-0.326042	-0.233479	-0.324036	-0.0707683	-0.220739	-0.173532	-0.223272	-0.15354	-0.233393	-0.123777	-0.183649	0.165561	-0.224488	-0.188261	-0.239691	0.0419487	-0.253555	-0.104967	-0.298359	-0.020494	
0.637294	3.73535	0	0	-0.608614	0.009077	-0.37573	0.226718	-0.381228	-0.080011	-0.312118	0.22723	-0.344687	-0.134269	-0.340375	0.024041	-0.327998	-0.227949	-0.321788	-0.0634335	-0.222594	-0.16829	-0.225725	-0.146609	-0.235144	-0.118831	-0.181996	0.180485	-0.225465	-0.185499	-0.232079	0.0508705	-0.246704	-0.106717	-0.291534	-0.021353	
0.636602	3.73382	0	0	-0.608614	0.009077	-0.374423	0.240326	-0.381228	-0.080011	-0.319357	0.234438	-0.346471	-0.129224	-0.344497	0.035692	-0.329955	-0.22242	-0.319539	-0.0560988	-0.224449	-0.163048	-0.228178	-0.139678	-0.236894	-0.113884	-0.180343	0.19541	-0.226443	-0.182737	-0.224467	0.0597922	-0.239852	-0.108468	-0.284708	-0.022212	
0.636496	3.73535	0	0	-0.608614	0.009077	-0.373116	0.253934	-0.381228	-0.080011	-0.326597	0.241647	-0.348256	-0.12418	-0.34862	0.047343	-0.331912	-0.21689	-0.31729	-0.048764	-0.226304	-0.157805	-0.23063	-0.132747	-0.238644	-0.108938	-0.17869	0.210334	-0.22742	-0.179975	-0.216855	0.068714	-0.233	-0.110219	-0.277882	-0.023071	
0.637072	3.73535	0	0	-0.617816	0.0106558	-0.374423	0.240326	-0.379559	-0.0847275	-0.325457	0.238424	-0.352477	-0.123361	-0.347245	0.0434578	-0.330933	-0.219656	-0.320889	-0.052283	-0.221909	-0.158661	-0.225683	-0.133314	-0.240395	-0.103989	-0.177045	0.2253	-0.223139	-0.178524	-0.2118	0.0849122	-0.227397	-0.108425	-0.276029	-0.009858	
0.638425	3.73688	0	0	-0.627018	0.0122345	-0.37573	0.226718	-0.37789	-0.089444	-0.324316	0.2352	-0.356698	-0.122542	-0.34587	0.0395725	-0.329955	-0.222421	-0.324488	-0.055802	-0.217514	-0.159516	-0.220736	-0.13388	-0.242146	-0.09904	-0.175399	0.240267	-0.218858	-0.177073	-0.206745	0.10111	-0.221794	-0.10663	-0.274176	0.003355	
0.640475	3.73382	0	0	-0.636219	0.0138132	-0.377038	0.213111	-0.376221	-0.0941605	-0.323176	0.231977	-0.360918	-0.121724	-0.344496	0.0356872	-0.328977	-0.225186	-0.328086	-0.059321	-0.213119	-0.160372	-0.215789	-0.134446	-0.243898	-0.094091	-0.173754	0.255234	-0.214576	-0.175622	-0.201691	0.117309	-0.216191	-0.104836	-0.272322	0.016568	
0.642809	3.73535	0	0	-0.645421	0.015392	-0.378345	0.199503	-0.374552	-0.098877	-0.322035	0.228753	-0.365139	-0.120905	-0.343121	0.031802	-0.327998	-0.227952	-0.331685	-0.06284	-0.208724	-0.161227	-0.210842	-0.135013	-0.245649	-0.089142	-0.172109	0.2702	-0.210295	-0.174171	-0.196636	0.133507	-0.210588	-0.103042	-0.270469	0.029781	
0.644974	3.72925	0	0	-0.643382	0.0096285	-0.379659	0.18593	-0.382631	-0.097222	-0.320895	0.225531	-0.363355	-0.125948	-0.347267	0.0285407	-0.326042	-0.23348	-0.335282	-0.0663555	-0.213119	-0.160372	-0.210842	-0.135013	-0.244773	-0.091617	-0.173754	0.255234	-0.210295	-0.174171	-0.208099	0.13542	-0.226808	-0.0924432	-0.272131	0.0344778	
0.646517	3.72925	0	0	-0.641343	0.003865	-0.380972	0.172357	-0.39071	-0.095567	-0.319754	0.222309	-0.361571	-0.130991	-0.351413	0.0252795	-0.324086	-0.239008	-0.338878	-0.069871	-0.217514	-0.159516	-0.210842	-0.135013	-0.243897	-0.094092	-0.175399	0.240267	-0.210295	-0.174171	-0.219562	0.137333	-0.243029	-0.0818445	-0.273792	0.0391745	
0.646988	3.7262	0	0	-0.639303	-0.0018985	-0.382286	0.158784	-0.398789	-0.093912	-0.318614	0.219086	-0.359786	-0.136033	-0.355559	0.0220182	-0.322129	-0.244536	-0.342475	-0.0733865	-0.221909	-0.158661	-0.210842	-0.135013	-0.243022	-0.096567	-0.177045	0.2253	-0.210295	-0.174171	-0.231026	0.139246	-0.259249	-0.0712457	-0.275454	0.0438713	
0.64614	3.7262	0	0	-0.637264	-0.007662	-0.3836	0.145211	-0.406868	-0.092257	-0.317474	0.215864	-0.358002	-0.141076	-0.359705	0.018757	-0.320173	-0.250064	-0.346072	-0.076902	-0.226304	-0.157805	-0.210842	-0.135013	-0.242146	-0.099042	-0.17869	0.210334	-0.210295	-0.174171	-0.242489	0.141159	-0.275469	-0.060647	-0.277116	0.048568	
0.644383	3.72467	0	0	-0.637264	-0.007662	-0.385259	0.1499	-0.406868	-0.092257	-0.312515	0.215101	-0.358002	-0.141076	-0.359705	0.018757	-0.319195	-0.252827	-0.339776	-0.0810162	-0.221909	-0.158661	-0.210842	-0.135013	-0.242146	-0.099042	-0.184024	0.205813	-0.213599	-0.178384	-0.248808	0.128583	-0.264852	-0.07304	-0.282285	0.0447258	
0.642253	3.7262	0	0	-0.637264	-0.007662	-0.386918	0.154589	-0.406868	-0.092257	-0.307556	0.214338	-0.358002	-0.141076	-0.359705	0.018757	-0.318218	-0.25559	-0.333479	-0.0851305	-0.217514	-0.159516	-0.210842	-0.135013	-0.242146	-0.099042	-0.189358	0.201291	-0.216903	-0.182597	-0.255127	0.116007	-0.254235	-0.085433	-0.287454	0.0408835	
0.640287	3.72467	0	0	-0.637264	-0.007662	-0.388578	0.159279	-0.406868	-0.092257	-0.302597	0.213575	-0.358002	-0.141076	-0.359705	0.018757	-0.317241	-0.258352	-0.327183	-0.0892447	-0.213119	-0.160372	-0.210842	-0.135013	-0.242146	-0.099042	-0.194691	0.196769	-0.220207	-0.18681	-0.261445	0.10343	-0.243617	-0.097826	-0.292623	0.0370412	
0.639023	3.72467	0	0	-0.637264	-0.007662	-0.390237	0.163968	-0.406868	-0.092257	-0.297638	0.212812	-0.358002	-0.141076	-0.359705	0.018757	-0.316263	-0.261115	-0.320887	-0.093359	-0.208724	-0.161227	-0.210842	-0.135013	-0.242146	-0.099042	-0.200025	0.192248	-0.223511	-0.191023	-0.267764	0.090854	-0.233	-0.110219	-0.297792	0.033199	
0.638842	3.72009	0	0	-0.639303	-0.0018985	-0.388927	0.177551	-0.406868	-0.092257	-0.298779	0.216035	-0.358894	-0.138555	-0.355559	0.0220182	-0.317241	-0.258352	-0.317286	-0.0898465	-0.208724	-0.161227	-0.207119	-0.132111	-0.242146	-0.099042	-0.194691	0.196769	-0.221557	-0.196544	-0.260763	0.0862795	-0.230491	-0.117309	-0.296132	0.0285075	
0.639444	3.71857	0	0	-0.641343	0.003865	-0.387617	0.191134	-0.406868	-0.092257	-0.299919	0.219259	-0.359786	-0.136034	-0.351413	0.0252795	-0.318218	-0.25559	-0.313684	-0.086334	-0.208724	-0.161227	-0.203396	-0.129209	-0.242146	-0.099042	-0.189358	0.201291	-0.219604	-0.202066	-0.253763	0.081705	-0.227983	-0.1244	-0.294472	0.023816	
0.640344	3.71551	0	0	-0.643382	0.0096285	-0.386306	0.204716	-0.406868	-0.092257	-0.30106	0.222482	-0.360678	-0.133513	-0.347267	0.0285407	-0.319195	-0.252827	-0.310083	-0.0828215	-0.208724	-0.161227	-0.199673	-0.126307	-0.242146	-0.099042	-0.184024	0.205813	-0.21765	-0.207587	-0.246762	0.0771305	-0.225474	-0.131491	-0.292812	0.0191245	
0.641055	3.71094	0	0	-0.645421	0.015392	-0.384996	0.218299	-0.406868	-0.092257	-0.3022	0.225706	-0.36157	-0.130992	-0.343121	0.031802	-0.320173	-0.250064	-0.306482	-0.079309	-0.208724	-0.161227	-0.19595	-0.123405	-0.242146	-0.099042	-0.17869	0.210334	-0.215696	-0.213108	-0.239761	0.072556	-0.222965	-0.138581	-0.291152	0.014433	
0.64109	3.71399	0	0	-0.652572	0.0112052	-0.383333	0.2136	-0.405201	-0.0969685	-0.307159	0.226468	-0.36157	-0.130992	-0.337596	0.0311792	-0.321151	-0.2473	-0.309184	-0.0716728	-0.209652	-0.158604	-0.197179	-0.119933	-0.23897	-0.0973118	-0.177045	0.2253	-0.218627	-0.204825	-0.233431	0.0851247	-0.218615	-0.133245	-0.280806	0.0221115	
0.640052	3.71246	0	0	-0.659722	0.0070185	-0.381671	0.208901	-0.403534	-0.10168	-0.312118	0.22723	-0.36157	-0.130992	-0.332071	0.0305565	-0.322129	-0.244536	-0.311886	-0.0640365	-0.21058	-0.155981	-0.198407	-0.116462	-0.235793	-0.0955815	-0.175399	0.240267	-0.221558	-0.196541	-0.2271	0.0976935	-0.214265	-0.127909	-0.270459	0.02979	
0.638131	3.71094	0	0	-0.666872	0.00283175	-0.380008	0.204202	-0.401867	-0.106391	-0.317076	0.227991	-0.36157	-0.130992	-0.326547	0.0299337	-0.323107	-0.241773	-0.314588	-0.0564002	-0.211508	-0.153358	-0.199635	-0.112991	-0.232617	-0.0938512	-0.173754	0.255234	-0.224489	-0.188258	-0.22077	0.110262	-0.209915	-0.122573	-0.260112	0.0374685	
0.635754	3.70636	0	0	-0.674023	-0.001355	-0.378345	0.199503	-0.4002	-0.111103	-0.322035	0.228753	-0.36157	-0.130992	-0.321022	0.029311	-0.324085	-0.239009	-0.31729	-0.048764	-0.212436	-0.150735	-0.200864	-0.109519	-0.22944	-0.092121	-0.172109	0.2702	-0.22742	-0.179975	-0.21444	0.122831	-0.205565	-0.117237	-0.249766	0.045147	
0.633345	3.70788	0	0	-0.660759	-0.0144475	-0.381318	0.190619	-0.398534	-0.115812	-0.320895	0.225531	-0.359786	-0.136033	-0.326547	0.0299337	-0.32213	-0.244535	-0.320889	-0.052283	-0.212436	-0.150735	-0.207042	-0.105482	-0.22944	-0.092121	-0.182986	0.281323	-0.228398	-0.177212	-0.222147	0.144613	-0.209334	-0.106586	-0.254759	0.059259	
0.63133	3.70483	0	0	-0.647494	-0.02754	-0.384291	0.181735	-0.396868	-0.120521	-0.319754	0.222309	-0.358003	-0.141074	-0.332071	0.0305565	-0.320174	-0.250062	-0.324488	-0.055802	-0.212436	-0.150735	-0.21322	-0.101445	-0.22944	-0.092121	-0.193862	0.292446	-0.229375	-0.174449	-0.229854	0.166395	-0.213102	-0.0959355	-0.259753	0.073371	
0.630089	3.70331	0	0	-0.63423	-0.0406325	-0.387264	0.172852	-0.395201	-0.12523	-0.318614	0.219086	-0.356219	-0.146116	-0.337596	0.0311792	-0.318219	-0.255588	-0.328086	-0.059321	-0.212436	-0.150735	-0.219399	-0.097408	-0.22944	-0.092121	-0.204739	0.30357	-0.230353	-0.171687	-0.237562	0.188177	-0.21687	-0.0852848	-0.264746	0.087483	
0.629643	3.70178	0	0	-0.620965	-0.053725	-0.390237	0.163968	-0.393535	-0.129939	-0.317474	0.215864	-0.354435	-0.151157	-0.343121	0.031802	-0.316263	-0.261115	-0.331685	-0.06284	-0.212436	-0.150735	-0.225577	-0.093371	-0.22944	-0.092121	-0.215616	0.314693	-0.23133	-0.168924	-0.245269	0.209959	-0.220639	-0.074634	-0.26974	0.101595	
0.629851	3.70331	0	0	-0.620965	-0.053725	-0.380622	0.15408	-0.393535	-0.129939	-0.311375	0.211879	-0.358654	-0.150338	-0.340373	0.0240362	-0.320527	-0.260452	-0.324034	-0.070773	-0.216831	-0.14988	-0.21817	-0.100879	-0.228564	-0.0945965	-0.217248	0.299708	-0.230353	-0.171687	-0.247141	0.200014	-0.227496	-0.0728837	-0.276575	0.102443	
0.630574	3.70026	0	0	-0.620965	-0.053725	-0.371007	0.144193	-0.393535	-0.129939	-0.305275	0.207894	-0.362872	-0.149518	-0.337625	0.0162705	-0.324792	-0.259789	-0.316383	-0.078706	-0.221226	-0.149025	-0.210763	-0.108388	-0.227688	-0.097072	-0.218879	0.284724	-0.229375	-0.174449	-0.249013	0.190069	-0.234354	-0.0711335	-0.283409	0.103291	
0.631667	3.69415	0	0	-0.620965	-0.053725	-0.361391	0.134305	-0.393535	-0.129939	-0.299176	0.203908	-0.367091	-0.148699	-0.334877	0.00850475	-0.329056	-0.259126	-0.308732	-0.086639	-0.22562	-0.14817	-0.203357	-0.115896	-0.226812	-0.0995475	-0.22051	0.269739	-0.228398	-0.177212	-0.250885	0.180123	-0.241212	-0.0693833	-0.290244	0.104138	
0.632994	3.6911	0	0	-0.620965	-0.053725	-0.351776	0.124417	-0.393535	-0.129939	-0.293077	0.199923	-0.37131	-0.147879	-0.332129	0.000739	-0.33332	-0.258463	-0.301081	-0.094572	-0.230015	-0.147315	-0.19595	-0.123405	-0.225936	-0.102023	-0.222142	0.254754	-0.22742	-0.179975	-0.252757	0.170178	-0.248069	-0.067633	-0.297079	0.104986	
0.634444	3.69415	0	0	-0.623002	-0.047969	-0.355096	0.133798	-0.395201	-0.12523	-0.295358	0.206369	-0.372201	-0.14536	-0.333503	0.004621	-0.33332	-0.258463	-0.302431	-0.0907563	-0.224692	-0.150793	-0.203357	-0.115896	-0.225936	-0.102023	-0.211279	0.243649	-0.230721	-0.184186	-0.25335	0.15663	-0.251154	-0.0765288	-0.302243	0.101129	
0.635922	3.6911	0	0	-0.625039	-0.042213	-0.358415	0.143178	-0.396868	-0.120521	-0.297639	0.212814	-0.373093	-0.14284	-0.334877	0.008503	-0.33332	-0.258463	-0.303781	-0.0869405	-0.219369	-0.154271	-0.210763	-0.108388	-0.225936	-0.102023	-0.200416	0.232544	-0.234023	-0.188397	-0.253943	0.143083	-0.254238	-0.0854245	-0.307407	0.0972725	
0.637336	3.68652	0	0	-0.627075	-0.036457	-0.361734	0.152559	-0.398534	-0.115812	-0.299919	0.21926	-0.373984	-0.140321	-0.33625	0.012385	-0.33332	-0.258463	-0.305132	-0.0831247	-0.214047	-0.157749	-0.21817	-0.100879	-0.225936	-0.102023	-0.189553	0.221439	-0.237324	-0.192608	-0.254535	0.129535	-0.257323	-0.0943202	-0.31257	0.0934157	
0.638589	3.69263	0	0	-0.629112	-0.030701	-0.365054	0.16194	-0.4002	-0.111103	-0.3022	0.225706	-0.374876	-0.137801	-0.337624	0.016267	-0.33332	-0.258463	-0.306482	-0.079309	-0.208724	-0.161227	-0.225577	-0.093371	-0.225936	-0.102023	-0.17869	0.210334	-0.240625	-0.196819	-0.255128	0.115987	-0.260407	-0.103216	-0.317734	0.089559	
0.639593	3.68957	0	0	-0.629112	-0.030701	-0.368377	0.171331	-0.4002	-0.111103	-0.303341	0.22893	-0.370657	-0.13862	-0.332099	0.0156425	-0.330033	-0.256363	-0.302878	-0.075793	-0.214047	-0.157749	-0.219399	-0.097408	-0.226812	-0.0995475	-0.173351	0.214861	-0.233416	-0.203651	-0.248122	0.111409	-0.251047	-0.112057	-0.309242	0.0840102	
0.640322	3.68347	0	0	-0.629112	-0.030701	-0.371699	0.180722	-0.4002	-0.111103	-0.304482	0.232155	-0.366439	-0.139439	-0.326573	0.015018	-0.326746	-0.254263	-0.299274	-0.072277	-0.219369	-0.154271	-0.21322	-0.101445	-0.227688	-0.097072	-0.168012	0.219389	-0.226208	-0.210482	-0.241115	0.106831	-0.241686	-0.120899	-0.300751	0.0784615	
0.640796	3.685	0	0	-0.629112	-0.030701	-0.375022	0.190112	-0.4002	-0.111103	-0.305623	0.23538	-0.362221	-0.140257	-0.321048	0.0143935	-0.32346	-0.252164	-0.295671	-0.068761	-0.224692	-0.150793	-0.207042	-0.105482	-0.228564	-0.0945965	-0.162673	0.223917	-0.219	-0.217313	-0.234108	0.102253	-0.232325	-0.12974	-0.292259	0.0729127	
0.641035	3.68347	0	0	-0.629112	-0.030701	-0.378345	0.199503	-0.4002	-0.111103	-0.306764	0.238604	-0.358002	-0.141076	-0.315523	0.013769	-0.320173	-0.250064	-0.292067	-0.065245	-0.230015	-0.147315	-0.200864	-0.109519	-0.22944	-0.092121	-0.157334	0.228444	-0.211791	-0.224145	-0.227102	0.097675	-0.222965	-0.138581	-0.283767	0.067364	
0.641061	3.68194	0	0	-0.636267	-0.034873	-0.381318	0.190619	-0.398534	-0.115812	-0.310582	0.236141	-0.35711	-0.143596	-0.322423	0.0182772	-0.32346	-0.252164	-0.298373	-0.0611247	-0.230015	-0.147315	-0.202093	-0.106046	-0.22944	-0.092121	-0.171905	0.250006	-0.212767	-0.221386	-0.227788	0.114848	-0.225474	-0.131491	-0.28026	0.0759217	
0.640895	3.68194	0	0	-0.643423	-0.039045	-0.384291	0.181735	-0.396868	-0.120521	-0.314399	0.233679	-0.356218	-0.146117	-0.329322	0.0227855	-0.326746	-0.254263	-0.304679	-0.0570045	-0.230015	-0.147315	-0.203321	-0.102573	-0.22944	-0.092121	-0.186475	0.271568	-0.213744	-0.218627	-0.228473	0.132021	-0.227983	-0.1244	-0.276753	0.0844795	
0.640551	3.68194	0	0	-0.650579	-0.043217	-0.387264	0.172852	-0.395201	-0.12523	-0.318217	0.231216	-0.355327	-0.148637	-0.336222	0.0272937	-0.330033	-0.256363	-0.310984	-0.0528843	-0.230015	-0.147315	-0.20455	-0.0991	-0.22944	-0.092121	-0.201045	0.293131	-0.21472	-0.215867	-0.229159	0.149195	-0.230491	-0.117309	-0.273247	0.0930373	
0.640041	3.68042	0	0	-0.657734	-0.047389	-0.390237	0.163968	-0.393535	-0.129939	-0.322035	0.228753	-0.354435	-0.151157	-0.343121	0.031802	-0.33332	-0.258463	-0.31729	-0.048764	-0.230015	-0.147315	-0.205779	-0.095627	-0.22944	-0.092121	-0.215616	0.314693	-0.215696	-0.213108	-0.229845	0.166368	-0.233	-0.110219	-0.26974	0.101595	
0.639375	3.68194	0	0	-0.653667	-0.0588825	-0.389898	0.14574	-0.390205	-0.13935	-0.319755	0.22231	-0.357762	-0.152856	-0.347267	0.0285407	-0.331367	-0.263984	-0.319539	-0.0560988	-0.227232	-0.15518	-0.2095	-0.0985345	-0.230866	-0.0987987	-0.219093	0.304923	-0.216673	-0.210348	-0.239427	0.178214	-0.235511	-0.103123	-0.274741	0.115729	
0.638562	3.68194	0	0	-0.649601	-0.070376	-0.389559	0.127513	-0.386876	-0.14876	-0.317475	0.215867	-0.36109	-0.154556	-0.351413	0.0252795	-0.329413	-0.269506	-0.321788	-0.0634335	-0.224449	-0.163045	-0.213221	-0.101442	-0.232291	-0.105477	-0.22257	0.295154	-0.217649	-0.207587	-0.249009	0.190059	-0.238022	-0.0960265	-0.279743	0.129864	
0.637614	3.67584	0	0	-0.645534	-0.0818695	-0.38922	0.109285	-0.383546	-0.15817	-0.315195	0.209423	-0.364418	-0.156255	-0.355559	0.0220182	-0.32746	-0.275027	-0.324036	-0.0707683	-0.221667	-0.17091	-0.216942	-0.10435	-0.233717	-0.112154	-0.226046	0.285384	-0.218626	-0.204827	-0.258592	0.201905	-0.240533	-0.0889303	-0.284744	0.143999	
0.636626	3.67889	0	0	-0.641467	-0.093363	-0.388881	0.091057	-0.380216	-0.167581	-0.312915	0.20298	-0.367745	-0.157954	-0.359705	0.018757	-0.325506	-0.280548	-0.326285	-0.078103	-0.218884	-0.178775	-0.220663	-0.107257	-0.235143	-0.118832	-0.229523	0.275614	-0.219603	-0.202067	-0.268174	0.213751	-0.243044	-0.081834	-0.289745	0.158133	
0.635798	3.67889	0	0	-0.630239	-0.1007	-0.374632	0.085344	-0.380216	-0.167581	-0.307955	0.202216	-0.366854	-0.160472	-0.351438	0.010372	-0.32453	-0.283307	-0.324935	-0.081917	-0.22235	-0.180538	-0.219435	-0.110727	-0.238319	-0.120559	-0.223991	0.259978	-0.222906	-0.206273	-0.274477	0.20113	-0.239278	-0.0924763	-0.293244	0.149553	
0.635341	3.67584	0	0	-0.619011	-0.108037	-0.360384	0.079631	-0.380216	-0.167581	-0.302996	0.201452	-0.365963	-0.162991	-0.343171	0.001987	-0.323553	-0.286067	-0.323586	-0.085731	-0.225815	-0.182302	-0.218207	-0.114198	-0.241495	-0.122285	-0.218458	0.244343	-0.22621	-0.210479	-0.28078	0.18851	-0.235513	-0.103119	-0.296743	0.140973	
0.635462	3.67889	0	0	-0.607783	-0.115373	-0.346135	0.073918	-0.380216	-0.167581	-0.298036	0.200687	-0.365072	-0.165509	-0.334904	-0.006398	-0.322576	-0.288826	-0.322236	-0.089545	-0.22928	-0.184065	-0.21698	-0.117668	-0.24467	-0.124012	-0.212925	0.228707	-0.229513	-0.214684	-0.287084	0.17589	-0.231747	-0.113761	-0.300242	0.132392	
0.636369	3.67889	0	0	-0.596555	-0.12271	-0.331887	0.068205	-0.380216	-0.167581	-0.293077	0.199923	-0.364181	-0.168027	-0.326637	-0.014783	-0.3216	-0.291585	-0.320887	-0.093359	-0.232746	-0.185829	-0.215752	-0.121138	-0.247846	-0.125739	-0.207393	0.213071	-0.232816	-0.21889	-0.293387	0.163269	-0.227981	-0.124403	-0.303741	0.123812	
0.638025	3.67737	0	0	-0.600622	-0.111216	-0.328896	0.0770545	-0.38188	-0.162877	-0.294217	0.203145	-0.365963	-0.16299	-0.321111	-0.0154107	-0.323553	-0.286065	-0.317286	-0.0898465	-0.228353	-0.186686	-0.21698	-0.117668	-0.243795	-0.126485	-0.205551	0.207865	-0.230865	-0.224404	-0.289542	0.152402	-0.232326	-0.129736	-0.300411	0.114402	
0.639988	3.67737	0	0	-0.604689	-0.0997225	-0.325905	0.085904	-0.383545	-0.158173	-0.295357	0.206367	-0.367745	-0.157953	-0.315585	-0.0160385	-0.325506	-0.280546	-0.313684	-0.086334	-0.223961	-0.187542	-0.218207	-0.114198	-0.239744	-0.127231	-0.203709	0.202659	-0.228913	-0.229918	-0.285697	0.141536	-0.236671	-0.135069	-0.297081	0.104991	
0.641776	3.67737	0	0	-0.608756	-0.0882287	-0.322914	0.0947535	-0.385209	-0.153469	-0.296498	0.20959	-0.369528	-0.152916	-0.310058	-0.0166663	-0.327459	-0.275027	-0.310083	-0.0828215	-0.219568	-0.188398	-0.219435	-0.110727	-0.235694	-0.127978	-0.201867	0.197454	-0.226962	-0.235433	-0.281852	0.130669	-0.241017	-0.140401	-0.293752	0.0955805	
0.642908	3.67737	0	0	-0.612823	-0.076735	-0.319923	0.103603	-0.386873	-0.148765	-0.297638	0.212812	-0.37131	-0.147879	-0.304532	-0.017294	-0.329412	-0.269507	-0.306482	-0.079309	-0.215175	-0.189255	-0.220663	-0.107257	-0.231643	-0.128724	-0.200025	0.192248	-0.225011	-0.240947	-0.278007	0.119802	-0.245362	-0.145734	-0.290422	0.08617	
0.642904	3.67737	0	0	-0.622017	-0.0751472	-0.321582	0.108292	-0.394945	-0.147108	-0.303737	0.216797	-0.37131	-0.147879	-0.305906	-0.013412	-0.329412	-0.269507	-0.309184	-0.0716728	-0.215175	-0.189255	-0.220663	-0.107257	-0.232518	-0.126251	-0.20371	0.202662	-0.225011	-0.240947	-0.273569	0.122471	-0.238509	-0.147489	-0.292086	0.090874	
0.641564	3.68042	0	0	-0.631211	-0.0735595	-0.323242	0.112981	-0.403016	-0.14545	-0.309837	0.220782	-0.37131	-0.147879	-0.307279	-0.00953	-0.329412	-0.269507	-0.311886	-0.0640365	-0.215175	-0.189255	-0.220663	-0.107257	-0.233393	-0.123778	-0.207395	0.213077	-0.225011	-0.240947	-0.269131	0.125139	-0.231656	-0.149244	-0.293751	0.095578	
0.639391	3.68194	0	0	-0.640404	-0.0719718	-0.324901	0.117671	-0.411087	-0.143793	-0.315936	0.224768	-0.37131	-0.147879	-0.308652	-0.005648	-0.329412	-0.269507	-0.314588	-0.0564002	-0.215175	-0.189255	-0.220663	-0.107257	-0.234268	-0.121305	-0.21108	0.223492	-0.225011	-0.240947	-0.264693	0.127808	-0.224803	-0.150999	-0.295415	0.100282	
0.636993	3.68347	0	0	-0.649598	-0.070384	-0.32656	0.12236	-0.419159	-0.142135	-0.322035	0.228753	-0.37131	-0.147879	-0.310026	-0.001766	-0.329412	-0.269507	-0.31729	-0.048764	-0.215175	-0.189255	-0.220663	-0.107257	-0.235143	-0.118832	-0.214765	0.233906	-0.225011	-0.240947	-0.260255	0.130476	-0.21795	-0.152754	-0.297079	0.104986	
0.634982	3.68042	0	0	-0.656747	-0.0745433	-0.334192	0.10934	-0.417496	-0.146837	-0.312517	0.215104	-0.369528	-0.152916	-0.314179	-0.00502025	-0.332697	-0.271604	-0.319539	-0.0560988	-0.220495	-0.185779	-0.220663	-0.107257	-0.239194	-0.118087	-0.216609	0.239118	-0.225986	-0.23819	-0.26282	0.137725	-0.212344	-0.150968	-0.29191	0.108847	
0.633966	3.67889	0	0	-0.663895	-0.0787025	-0.341824	0.096321	-0.415832	-0.151538	-0.302998	0.201456	-0.367745	-0.157953	-0.318331	-0.0082745	-0.335982	-0.273701	-0.321788	-0.0634335	-0.225814	-0.182303	-0.220663	-0.107257	-0.243244	-0.117341	-0.218454	0.24433	-0.226962	-0.235434	-0.265385	0.144974	-0.206738	-0.149182	-0.286742	0.112708	
0.634319	3.67889	0	0	-0.671044	-0.0828617	-0.349455	0.0833015	-0.414168	-0.15624	-0.29348	0.187807	-0.365963	-0.16299	-0.322484	-0.0115287	-0.339268	-0.275797	-0.324036	-0.0707683	-0.231133	-0.178827	-0.220663	-0.107257	-0.247294	-0.116596	-0.220298	0.249542	-0.227938	-0.232677	-0.26795	0.152223	-0.201131	-0.147396	-0.281574	0.11657	
0.635688	3.67737	0	0	-0.678193	-0.087021	-0.357087	0.070282	-0.412505	-0.160941	-0.283961	0.174158	-0.364181	-0.168027	-0.326637	-0.014783	-0.342553	-0.277894	-0.326285	-0.078103	-0.236453	-0.175351	-0.220663	-0.107257	-0.251345	-0.115851	-0.222142	0.254754	-0.228913	-0.22992	-0.270515	0.159472	-0.195525	-0.14561	-0.276405	0.120431	
0.63758	3.67737	0	0	-0.662921	-0.105819	-0.360073	0.0614522	-0.399444	-0.176698	-0.288921	0.174925	-0.367507	-0.169724	-0.329416	-0.0219092	-0.344861	-0.282746	-0.32089	-0.0933492	-0.238064	-0.18235	-0.223155	-0.11363	-0.247847	-0.125735	-0.229103	0.235296	-0.226962	-0.235433	-0.279383	0.154125	-0.209238	-0.142099	-0.284905	0.125985	
0.639501	3.67737	0	0	-0.647649	-0.124618	-0.36306	0.0526225	-0.386384	-0.192456	-0.293882	0.175691	-0.370833	-0.171421	-0.332194	-0.0290355	-0.347169	-0.287598	-0.315495	-0.108595	-0.239675	-0.189349	-0.225646	-0.120002	-0.24435	-0.13562	-0.236063	0.215837	-0.225012	-0.240946	-0.288251	0.148779	-0.22295	-0.138589	-0.293405	0.13154	
0.640958	3.67737	0	0	-0.632377	-0.143417	-0.366046	0.0437927	-0.373324	-0.208213	-0.298842	0.176457	-0.374159	-0.173118	-0.334973	-0.0361617	-0.349477	-0.29245	-0.310101	-0.123842	-0.241285	-0.196348	-0.228138	-0.126375	-0.240852	-0.145504	-0.243024	0.196379	-0.223061	-0.246458	-0.297119	0.143432	-0.236662	-0.135078	-0.301906	0.137094	
0.641562	3.67889	0	0	-0.617105	-0.162215	-0.369033	0.034963	-0.360263	-0.22397	-0.303802	0.177224	-0.377485	-0.174815	-0.337751	-0.043288	-0.351785	-0.297302	-0.304706	-0.139088	-0.242896	-0.203347	-0.23063	-0.132747	-0.237355	-0.155388	-0.249984	0.176921	-0.22111	-0.251971	-0.305987	0.138085	-0.250375	-0.131567	-0.310406	0.142648	
0.641384	3.68194	0	0	-0.607906	-0.163818	-0.354782	0.0292428	-0.360263	-0.22397	-0.296564	0.170021	-0.376595	-0.177331	-0.330857	-0.0477925	-0.351785	-0.297302	-0.304706	-0.139088	-0.24197	-0.205963	-0.235573	-0.132182	-0.239657	-0.159578	-0.253464	0.167223	-0.225388	-0.253411	-0.311007	0.121911	-0.246617	-0.142188	-0.322385	0.13962	
0.640627	3.68042	0	0	-0.598707	-0.16542	-0.340531	0.0235225	-0.360263	-0.22397	-0.289327	0.162818	-0.375704	-0.179847	-0.323964	-0.052297	-0.351785	-0.297302	-0.304706	-0.139088	-0.241044	-0.20858	-0.240516	-0.131616	-0.241959	-0.163768	-0.256945	0.157526	-0.229667	-0.254851	-0.316026	0.105737	-0.242859	-0.152809	-0.334364	0.136593	
0.639495	3.67432	0	0	-0.589508	-0.167022	-0.326279	0.0178023	-0.360263	-0.22397	-0.282089	0.155615	-0.374814	-0.182363	-0.31707	-0.0568015	-0.351785	-0.297302	-0.304706	-0.139088	-0.240119	-0.211196	-0.245459	-0.131051	-0.24426	-0.167957	-0.260425	0.147829	-0.233946	-0.256291	-0.321045	0.089563	-0.2391	-0.16343	-0.346343	0.133566	
0.63819	3.67126	0	0	-0.580309	-0.168625	-0.312028	0.012082	-0.360263	-0.22397	-0.274851	0.148412	-0.373924	-0.184879	-0.310176	-0.061306	-0.351785	-0.297302	-0.304706	-0.139088	-0.239193	-0.213812	-0.250402	-0.130486	-0.246562	-0.172147	-0.263906	0.138131	-0.238224	-0.257731	-0.326065	0.073389	-0.235342	-0.174051	-0.358322	0.130538	
0.636899	3.67584	0	0	-0.593567	-0.155551	-0.30903	0.0209095	-0.361925	-0.219274	-0.277128	0.154849	-0.374814	-0.182363	-0.311547	-0.0574308	-0.347525	-0.297966	-0.299753	-0.139396	-0.240119	-0.211196	-0.245459	-0.131051	-0.247435	-0.169679	-0.258588	0.142635	-0.236276	-0.263237	-0.322236	0.0625662	-0.240938	-0.175833	-0.356658	0.125836	
0.635704	3.67737	0	0	-0.606825	-0.142477	-0.306031	0.029737	-0.363587	-0.214577	-0.279406	0.161285	-0.375704	-0.179847	-0.312918	-0.0535555	-0.343266	-0.29863	-0.294799	-0.139705	-0.241044	-0.20858	-0.240516	-0.131616	-0.248309	-0.167211	-0.253269	0.147139	-0.234327	-0.268743	-0.318406	0.0517435	-0.246533	-0.177615	-0.354995	0.121134	
0.634645	3.67432	0	0	-0.620083	-0.129403	-0.303033	0.0385645	-0.365248	-0.20988	-0.281684	0.167721	-0.376595	-0.177331	-0.31429	-0.0496802	-0.339006	-0.299294	-0.289846	-0.140013	-0.24197	-0.205963	-0.235573	-0.132182	-0.249182	-0.164743	-0.247951	0.151642	-0.232379	-0.274249	-0.314576	0.0409207	-0.252129	-0.179397	-0.353331	0.116433	
0.633765	3.67584	0	0	-0.633341	-0.116329	-0.300034	0.047392	-0.36691	-0.205184	-0.283961	0.174158	-0.377485	-0.174815	-0.315661	-0.045805	-0.334746	-0.299958	-0.284893	-0.140321	-0.242896	-0.203347	-0.23063	-0.132747	-0.250055	-0.162275	-0.242633	0.156146	-0.230431	-0.279755	-0.310747	0.030098	-0.257725	-0.181179	-0.351668	0.111731	
0.633106	3.66974	0	0	-0.631311	-0.122066	-0.314297	0.0531145	-0.363587	-0.214575	-0.287783	0.171707	-0.376595	-0.177331	-0.317033	-0.041928	-0.339981	-0.296537	-0.292543	-0.132393	-0.242896	-0.203347	-0.23063	-0.132747	-0.24688	-0.160553	-0.23731	0.160656	-0.225177	-0.281072	-0.307593	0.0363575	-0.250878	-0.182934	-0.346513	0.115593	
0.632705	3.66974	0	0	-0.629281	-0.127804	-0.328561	0.058837	-0.360264	-0.223965	-0.291605	0.169256	-0.375704	-0.179847	-0.318404	-0.038051	-0.345216	-0.293117	-0.300192	-0.124465	-0.242896	-0.203347	-0.23063	-0.132747	-0.243705	-0.158832	-0.231986	0.165166	-0.219923	-0.282388	-0.304439	0.042617	-0.24403	-0.18469	-0.341357	0.119456	
0.632572	3.66974	0	0	-0.62725	-0.133541	-0.342824	0.0645595	-0.356942	-0.233356	-0.295426	0.166805	-0.374814	-0.182363	-0.319776	-0.034174	-0.350451	-0.289696	-0.307841	-0.116537	-0.242896	-0.203347	-0.23063	-0.132747	-0.24053	-0.15711	-0.226662	0.169675	-0.21467	-0.283705	-0.301284	0.0488765	-0.237183	-0.186446	-0.336202	0.123318	
0.632707	3.66821	0	0	-0.62522	-0.139279	-0.357087	0.070282	-0.353619	-0.242747	-0.299248	0.164354	-0.373924	-0.184879	-0.321148	-0.030297	-0.355686	-0.286275	-0.315491	-0.108609	-0.242896	-0.203347	-0.23063	-0.132747	-0.237355	-0.155388	-0.221339	0.174185	-0.209416	-0.285022	-0.29813	0.055136	-0.230336	-0.188201	-0.331047	0.127181	
0.633106	3.66669	0	0	-0.621163	-0.150743	-0.358421	0.0567827	-0.361695	-0.241077	-0.296972	0.157922	-0.372144	-0.189909	-0.322558	-0.0412903	-0.352761	-0.294543	-0.316397	-0.119728	-0.24197	-0.205963	-0.235573	-0.132182	-0.24053	-0.15711	-0.235653	0.17555	-0.215644	-0.280953	-0.29813	0.055136	-0.231588	-0.184664	-0.334378	0.136596	
0.633768	3.66669	0	0	-0.617107	-0.162208	-0.359756	0.0432835	-0.369771	-0.239407	-0.294696	0.151491	-0.370364	-0.194939	-0.323968	-0.0522835	-0.349835	-0.30281	-0.317303	-0.130848	-0.241044	-0.20858	-0.240516	-0.131616	-0.243705	-0.158832	-0.249967	0.176915	-0.221871	-0.276884	-0.29813	0.055136	-0.232839	-0.181126	-0.33771	0.146012	
0.634682	3.66669	0	0	-0.613051	-0.173672	-0.36109	0.0297842	-0.377846	-0.237737	-0.29242	0.145059	-0.368585	-0.199968	-0.325378	-0.0632768	-0.34691	-0.311078	-0.318209	-0.141967	-0.240119	-0.211196	-0.245459	-0.131051	-0.24688	-0.160553	-0.264281	0.17828	-0.228099	-0.272814	-0.29813	0.055136	-0.234091	-0.177589	-0.341041	0.155427	
0.635764	3.66669	0	0	-0.608994	-0.185136	-0.362424	0.016285	-0.385922	-0.236067	-0.290144	0.138627	-0.366805	-0.204998	-0.326788	-0.07427	-0.343985	-0.319346	-0.319115	-0.153086	-0.239193	-0.213812	-0.250402	-0.130486	-0.250055	-0.162275	-0.278595	0.179645	-0.234327	-0.268745	-0.29813	0.055136	-0.235342	-0.174051	-0.344373	0.164843	
0.636889	3.66516	0	0	-0.618181	-0.183535	-0.363765	0.00281975	-0.384263	-0.240756	-0.293965	0.136182	-0.37013	-0.20669	-0.32405	-0.0820088	-0.347268	-0.321435	-0.32137	-0.160383	-0.24173	-0.218185	-0.252891	-0.136848	-0.252356	-0.166463	-0.276572	0.154415	-0.232379	-0.274249	-0.308862	0.0399832	-0.239687	-0.179368	-0.34786	0.156267	
0.637929	3.66516	0	0	-0.627368	-0.181935	-0.365105	-0.0106455	-0.382604	-0.245445	-0.297786	0.133738	-0.373455	-0.208382	-0.321311	-0.0897475	-0.350551	-0.323524	-0.323626	-0.167679	-0.244268	-0.222557	-0.255379	-0.14321	-0.254656	-0.17065	-0.274549	0.129184	-0.230432	-0.279753	-0.319595	0.0248305	-0.244032	-0.184685	-0.351347	0.147691	
0.63876	3.66516	0	0	-0.636555	-0.180335	-0.366445	-0.0241108	-0.380945	-0.250135	-0.301606	0.131293	-0.376781	-0.210074	-0.318573	-0.0974862	-0.353834	-0.325613	-0.325881	-0.174976	-0.246806	-0.22693	-0.257867	-0.149573	-0.256957	-0.174837	-0.272526	0.103954	-0.228484	-0.285257	-0.330327	0.00967775	-0.248377	-0.190001	-0.354835	0.139114	
0.639261	3.66211	0	0	-0.645742	-0.178734	-0.367786	-0.037576	-0.379286	-0.254824	-0.305427	0.128848	-0.380106	-0.211766	-0.315835	-0.105225	-0.357117	-0.327702	-0.328136	-0.182273	-0.249343	-0.231302	-0.260356	-0.155935	-0.259257	-0.179025	-0.270503	0.078723	-0.226536	-0.290761	-0.341059	-0.005475	-0.252722	-0.195318	-0.358322	0.130538	
0.639441	3.66211	0	0	-0.645742	-0.178734	-0.359845	-0.0427647	-0.379286	-0.254824	-0.299332	0.124865	-0.379217	-0.214279	-0.314467	-0.109092	-0.356143	-0.330454	-0.326792	-0.186073	-0.247494	-0.236528	-0.251742	-0.166883	-0.25664	-0.186421	-0.265016	0.063214	-0.223617	-0.299011	-0.344818	-0.0251133	-0.247724	-0.209443	-0.363471	0.126675	
0.6394	3.65906	0	0	-0.645742	-0.178734	-0.351904	-0.0479535	-0.379286	-0.254824	-0.293238	0.120883	-0.378328	-0.216791	-0.313099	-0.112959	-0.355169	-0.333207	-0.325447	-0.189872	-0.245644	-0.241754	-0.243128	-0.177832	-0.254023	-0.193817	-0.259528	0.047705	-0.220698	-0.307261	-0.348577	-0.0447515	-0.242726	-0.223568	-0.368619	0.122812	
0.639239	3.66058	0	0	-0.645742	-0.178734	-0.343963	-0.0531423	-0.379286	-0.254824	-0.287143	0.116901	-0.377439	-0.219304	-0.31173	-0.116826	-0.354195	-0.33596	-0.324102	-0.193671	-0.243795	-0.246979	-0.234515	-0.18878	-0.251406	-0.201213	-0.254041	0.032196	-0.217779	-0.315511	-0.352335	-0.0643898	-0.237728	-0.237693	-0.373768	0.118949	
0.639063	3.66058	0	0	-0.645742	-0.178734	-0.336022	-0.058331	-0.379286	-0.254824	-0.281048	0.112918	-0.37655	-0.221816	-0.310362	-0.120693	-0.353221	-0.338712	-0.322758	-0.197471	-0.241946	-0.252205	-0.225901	-0.199729	-0.248789	-0.208609	-0.248553	0.016687	-0.21486	-0.323761	-0.356094	-0.084028	-0.23273	-0.251818	-0.378917	0.115086	
0.638967	3.65753	0	0	-0.645742	-0.178734	-0.339321	-0.049009	-0.377628	-0.25951	-0.29437	0.124093	-0.37655	-0.221816	-0.313099	-0.112957	-0.353221	-0.338712	-0.319156	-0.193982	-0.241946	-0.252205	-0.23329	-0.192241	-0.249661	-0.206144	-0.25221	0.0270232	-0.212915	-0.329257	-0.356094	-0.084028	-0.23273	-0.251818	-0.36878	0.104852	
0.63893	3.656	0	5	-0.645742	-0.178734	-0.342619	-0.039687	-0.375969	-0.264197	-0.307693	0.135269	-0.37655	-0.221816	-0.315836	-0.105222	-0.353221	-0.338712	-0.315553	-0.190493	-0.241946	-0.252205	-0.240679	-0.184754	-0.250534	-0.20368	-0.255868	0.0373595	-0.210971	-0.334753	-0.356094	-0.084028	-0.23273	-0.251818	-0.358644	0.0946175	
0.638806	3.65753	0	5	-0.645742	-0.178734	-0.345917	-0.030365	-0.37431	-0.268883	-0.321015	0.146444	-0.37655	-0.221816	-0.318573	-0.0974865	-0.353221	-0.338712	-0.311951	-0.187003	-0.241946	-0.252205	-0.248069	-0.177266	-0.251406	-0.201215	-0.259525	0.0476958	-0.209026	-0.340248	-0.356094	-0.084028	-0.23273	-0.251818	-0.348507	0.0843833	
0.638445	3.66058	0	5	-0.645742	-0.178734	-0.349216	-0.021043	-0.372652	-0.27357	-0.334337	0.157619	-0.37655	-0.221816	-0.32131	-0.089751	-0.353221	-0.338712	-0.308349	-0.183514	-0.241946	-0.252205	-0.255458	-0.169778	-0.252278	-0.19875	-0.263182	0.058032	-0.207081	-0.345744	-0.356094	-0.084028	-0.23273	-0.251818	-0.33837	0.074149	
0.637697	3.65906	0	5	-0.654915	-0.17714	-0.352211	-0.0298335	-0.369338	-0.282936	-0.329792	0.144774	-0.375661	-0.224328	-0.32131	-0.089751	-0.353221	-0.338712	-0.319583	-0.179096	-0.241946	-0.252205	-0.249293	-0.173806	-0.25315	-0.196285	-0.259695	0.0676905	-0.209026	-0.340248	-0.347247	-0.0787708	-0.233979	-0.248289	-0.334875	0.082703	
0.636417	3.65906	0	5	-0.664089	-0.175546	-0.355206	-0.038624	-0.366024	-0.292303	-0.325246	0.131929	-0.374773	-0.22684	-0.32131	-0.089751	-0.353221	-0.338712	-0.330816	-0.174677	-0.241946	-0.252205	-0.243128	-0.177835	-0.254023	-0.19382	-0.256208	0.077349	-0.210971	-0.334753	-0.3384	-0.0735135	-0.235227	-0.244759	-0.331379	0.091257	
0.634653	3.656	0	5	-0.673263	-0.173951	-0.3582	-0.0474145	-0.36271	-0.301669	-0.320701	0.119083	-0.373884	-0.229351	-0.32131	-0.089751	-0.353221	-0.338712	-0.34205	-0.170259	-0.241946	-0.252205	-0.236963	-0.181863	-0.254895	-0.191354	-0.252721	0.0870075	-0.212915	-0.329257	-0.329552	-0.0682563	-0.236476	-0.24123	-0.327884	0.099811	
0.632702	3.65906	0	5	-0.682436	-0.172357	-0.361195	-0.056205	-0.359396	-0.311035	-0.316156	0.106238	-0.372995	-0.231863	-0.32131	-0.089751	-0.353221	-0.338712	-0.353284	-0.165841	-0.241946	-0.252205	-0.230798	-0.185891	-0.255767	-0.188889	-0.249234	0.096666	-0.21486	-0.323761	-0.320705	-0.062999	-0.237725	-0.237701	-0.324389	0.108365	
0.63088	3.656	0	5	-0.67839	-0.183792	-0.370472	-0.064447	-0.367465	-0.30936	-0.319972	0.103799	-0.37632	-0.233551	-0.325461	-0.0929855	-0.356503	-0.340798	-0.349253	-0.177234	-0.241022	-0.254817	-0.235739	-0.185322	-0.259812	-0.188142	-0.261693	0.0928698	-0.21486	-0.323761	-0.327672	-0.058447	-0.238974	-0.234171	-0.327719	0.117776	
0.629501	3.65753	0	5	-0.674344	-0.195227	-0.379748	-0.072689	-0.375534	-0.307685	-0.323789	0.10136	-0.379644	-0.235239	-0.329612	-0.09622	-0.359785	-0.342884	-0.345221	-0.188628	-0.240098	-0.257428	-0.240679	-0.184754	-0.263856	-0.187394	-0.274151	0.0890735	-0.21486	-0.323761	-0.334638	-0.053895	-0.240223	-0.23064	-0.331048	0.127186	
0.628874	3.656	0	5	-0.670298	-0.206661	-0.389025	-0.080931	-0.383603	-0.30601	-0.327605	0.0989218	-0.382968	-0.236928	-0.333764	-0.0994545	-0.363066	-0.34497	-0.34119	-0.200021	-0.239174	-0.26004	-0.24562	-0.184185	-0.2679	-0.186646	-0.28661	0.0852772	-0.21486	-0.323761	-0.341605	-0.049343	-0.241473	-0.227109	-0.334378	0.136597	
0.629045	3.656	0	5	-0.666252	-0.218096	-0.398302	-0.089173	-0.391672	-0.304335	-0.331421	0.096483	-0.386293	-0.238616	-0.337915	-0.102689	-0.366348	-0.347056	-0.337159	-0.211415	-0.23825	-0.262651	-0.250561	-0.183616	-0.271945	-0.185899	-0.299069	0.081481	-0.21486	-0.323761	-0.348571	-0.044791	-0.242722	-0.223579	-0.337708	0.146007	
0.629687	3.656	0	5	-0.668274	-0.21238	-0.398302	-0.089173	-0.381947	-0.310689	-0.32647	0.0957135	-0.386293	-0.238616	-0.33518	-0.110418	-0.365375	-0.349806	-0.335816	-0.215209	-0.242636	-0.261792	-0.248114	-0.190531	-0.270201	-0.190828	-0.298896	0.0615187	-0.219139	-0.325191	-0.35487	-0.0572257	-0.247067	-0.22888	-0.339535	0.132739	
0.630445	3.656	0	5	-0.670296	-0.206665	-0.398302	-0.089173	-0.372223	-0.317044	-0.321518	0.094944	-0.386293	-0.238616	-0.332446	-0.118147	-0.364402	-0.352556	-0.334473	-0.219004	-0.247022	-0.260934	-0.245667	-0.197445	-0.268457	-0.195756	-0.298723	0.0415565	-0.223417	-0.32662	-0.361169	-0.0696605	-0.251412	-0.234181	-0.341363	0.119471	
0.630964	3.65295	0	5	-0.672319	-0.20095	-0.398302	-0.089173	-0.362498	-0.323398	-0.316566	0.0941745	-0.386293	-0.238616	-0.329711	-0.125875	-0.363429	-0.355306	-0.333131	-0.222798	-0.251407	-0.260076	-0.243221	-0.20436	-0.266713	-0.200684	-0.298549	0.0215942	-0.227695	-0.328049	-0.367468	-0.0820953	-0.255756	-0.239481	-0.34319	0.106203	
0.630894	3.65448	0	5	-0.674341	-0.195234	-0.398302	-0.089173	-0.352773	-0.329752	-0.311615	0.093405	-0.386293	-0.238616	-0.326976	-0.133604	-0.362456	-0.358056	-0.331788	-0.226593	-0.255793	-0.259217	-0.240774	-0.211275	-0.264969	-0.205613	-0.298376	0.001632	-0.231974	-0.329479	-0.373767	-0.09453	-0.260101	-0.244782	-0.345017	0.092935	
0.630122	3.65295	0	5	-0.674341	-0.195234	-0.384086	-0.0948887	-0.352773	-0.329752	-0.305524	0.0894252	-0.386293	-0.238616	-0.326976	-0.133604	-0.362456	-0.358056	-0.333131	-0.222798	-0.24956	-0.265297	-0.240774	-0.211275	-0.264097	-0.208076	-0.296552	-0.00352275	-0.230031	-0.334971	-0.371853	-0.11504	-0.257606	-0.251833	-0.348509	0.0843905	
0.628925	3.656	0	5	-0.674341	-0.195234	-0.369871	-0.100604	-0.352773	-0.329752	-0.299434	0.0854455	-0.386293	-0.238616	-0.326976	-0.133604	-0.362456	-0.358056	-0.334473	-0.219004	-0.243327	-0.271377	-0.240774	-0.211275	-0.263226	-0.21054	-0.294728	-0.0086775	-0.228087	-0.340464	-0.369939	-0.135549	-0.255111	-0.258884	-0.352001	0.075846	
0.627613	3.656	0	5	-0.674341	-0.195234	-0.355656	-0.10632	-0.352773	-0.329752	-0.293343	0.0814658	-0.386293	-0.238616	-0.326976	-0.133604	-0.362456	-0.358056	-0.335816	-0.215209	-0.237093	-0.277456	-0.240774	-0.211275	-0.262355	-0.213003	-0.292904	-0.0138323	-0.226143	-0.345956	-0.368024	-0.156059	-0.252616	-0.265936	-0.355493	0.0673015	
0.626495	3.65448	0	5	-0.674341	-0.195234	-0.34144	-0.112036	-0.352773	-0.329752	-0.287253	0.077486	-0.386293	-0.238616	-0.326976	-0.133604	-0.362456	-0.358056	-0.337159	-0.211415	-0.23086	-0.283536	-0.240774	-0.211275	-0.261483	-0.215467	-0.29108	-0.018987	-0.2242	-0.351448	-0.36611	-0.176569	-0.250121	-0.272987	-0.358985	0.058757	
0.625879	3.65295	0	5	-0.672319	-0.20095	-0.352665	-0.0975493	-0.362498	-0.323398	-0.292209	0.0782585	-0.386293	-0.238616	-0.329711	-0.125875	-0.362456	-0.358056	-0.338502	-0.207619	-0.23617	-0.280066	-0.240774	-0.211275	-0.261483	-0.215467	-0.285767	-0.0145308	-0.2242	-0.351448	-0.362956	-0.170383	-0.243277	-0.274749	-0.358985	0.058757	
0.625885	3.65143	0	5	-0.670296	-0.206665	-0.363891	-0.0830625	-0.372223	-0.317044	-0.297164	0.079031	-0.386293	-0.238616	-0.332446	-0.118147	-0.362456	-0.358056	-0.339845	-0.203822	-0.24148	-0.276597	-0.240774	-0.211275	-0.261483	-0.215467	-0.280454	-0.0100745	-0.2242	-0.351448	-0.359802	-0.164196	-0.236433	-0.276511	-0.358985	0.058757	
0.626326	3.65295	0	5	-0.668274	-0.21238	-0.375116	-0.0685757	-0.381947	-0.310689	-0.30212	0.0798035	-0.386293	-0.238616	-0.33518	-0.110418	-0.362456	-0.358056	-0.341188	-0.200026	-0.246789	-0.273128	-0.240774	-0.211275	-0.261483	-0.215467	-0.27514	-0.00561825	-0.2242	-0.351448	-0.356648	-0.15801	-0.22959	-0.278273	-0.358985	0.058757	
0.626985	3.65295	0	5	-0.666252	-0.218096	-0.386341	-0.054089	-0.391672	-0.304335	-0.307076	0.080576	-0.386293	-0.238616	-0.337915	-0.102689	-0.362456	-0.358056	-0.342531	-0.19623	-0.252099	-0.269658	-0.240774	-0.211275	-0.261483	-0.215467	-0.269827	-0.001162	-0.2242	-0.351448	-0.353494	-0.151824	-0.222746	-0.280035	-0.358985	0.058757	
0.627647	3.656	0	5	-0.662211	-0.229516	-0.379761	-0.0726845	-0.388363	-0.313686	-0.30976	0.074938	-0.385405	-0.241126	-0.34343	-0.102057	-0.366709	-0.357391	-0.34747	-0.195921	-0.251176	-0.272267	-0.245712	-0.210705	-0.261483	-0.215467	-0.282442	0.0150188	-0.21992	-0.350022	-0.352875	-0.138461	-0.233333	-0.267694	-0.355493	0.0673015	
0.628096	3.66058	0	5	-0.65817	-0.240936	-0.373181	-0.09128	-0.385055	-0.323037	-0.312445	0.0693	-0.384517	-0.243636	-0.348945	-0.101425	-0.370961	-0.356726	-0.352409	-0.195612	-0.250252	-0.274876	-0.25065	-0.210135	-0.261483	-0.215467	-0.295058	0.0311995	-0.215641	-0.348596	-0.352256	-0.125098	-0.243921	-0.255353	-0.352001	0.075846	
0.628218	3.66211	0	5	-0.654129	-0.252357	-0.366602	-0.109876	-0.381746	-0.332389	-0.315129	0.063662	-0.383629	-0.246145	-0.35446	-0.100792	-0.375214	-0.35606	-0.357349	-0.195303	-0.249329	-0.277486	-0.255588	-0.209565	-0.261483	-0.215467	-0.307673	0.0473802	-0.211361	-0.34717	-0.351638	-0.111735	-0.254508	-0.243012	-0.348509	0.0843905	
0.628076	3.65906	0	5	-0.650088	-0.263777	-0.360022	-0.128471	-0.378437	-0.34174	-0.317813	0.058024	-0.382741	-0.248655	-0.359975	-0.10016	-0.379467	-0.355395	-0.362288	-0.194994	-0.248406	-0.280095	-0.260526	-0.208995	-0.261483	-0.215467	-0.320289	0.063561	-0.207081	-0.345744	-0.351019	-0.098372	-0.265095	-0.230671	-0.345017	0.092935	
0.627752	3.66363	0	5	-0.650088	-0.263777	-0.366306	-0.127935	-0.378437	-0.34174	-0.317813	0.058024	-0.386064	-0.250341	-0.358608	-0.104024	-0.377522	-0.360891	-0.36454	-0.202271	-0.24656	-0.285311	-0.264238	-0.211879	-0.263784	-0.219642	-0.323764	0.0539288	-0.214276	-0.33893	-0.359243	-0.0902412	-0.257004	-0.235958	-0.355155	0.103172	
0.627327	3.66363	0	5	-0.650088	-0.263777	-0.372589	-0.127398	-0.378437	-0.34174	-0.317813	0.058024	-0.389386	-0.252026	-0.357241	-0.107887	-0.375578	-0.366387	-0.366791	-0.209548	-0.244715	-0.290528	-0.26795	-0.214763	-0.266084	-0.223817	-0.327238	0.0442965	-0.221472	-0.332117	-0.367467	-0.0821105	-0.248913	-0.241244	-0.365293	0.113408	
0.626881	3.66516	0	5	-0.650088	-0.263777	-0.378873	-0.126862	-0.378437	-0.34174	-0.317813	0.058024	-0.392709	-0.253712	-0.355874	-0.111751	-0.373633	-0.371882	-0.369043	-0.216825	-0.242869	-0.295744	-0.271663	-0.217648	-0.268385	-0.227991	-0.330713	0.0346643	-0.228667	-0.325303	-0.375691	-0.0739798	-0.240821	-0.246531	-0.37543	0.123645	
0.626481	3.66516	0	5	-0.650088	-0.263777	-0.385156	-0.126326	-0.378437	-0.34174	-0.317813	0.058024	-0.396032	-0.255398	-0.354507	-0.115615	-0.371688	-0.377378	-0.371295	-0.224102	-0.241023	-0.300961	-0.275375	-0.220532	-0.270685	-0.232166	-0.334188	0.025032	-0.235863	-0.318489	-0.383915	-0.065849	-0.23273	-0.251818	-0.385568	0.133882	
0.626163	3.66821	5	0	-0.650088	-0.263777	-0.378873	-0.126862	-0.378437	-0.34174	-0.318947	0.0612277	-0.396919	-0.25289	-0.361384	-0.111121	-0.371688	-0.377378	-0.366358	-0.224413	-0.245407	-0.300101	-0.274154	-0.223984	-0.268944	-0.237087	-0.337663	0.0154207	-0.240138	-0.31992	-0.385792	-0.0756428	-0.238325	-0.253585	-0.395847	0.12616	
0.625964	3.67126	5	0	-0.650088	-0.263777	-0.372589	-0.127398	-0.378437	-0.34174	-0.32008	0.0644315	-0.397807	-0.250382	-0.368262	-0.106628	-0.371688	-0.377378	-0.361422	-0.224723	-0.24979	-0.299241	-0.272933	-0.227435	-0.267203	-0.242007	-0.341138	0.0058095	-0.244412	-0.32135	-0.38767	-0.0854365	-0.24392	-0.255352	-0.406127	0.118438	
0.625917	3.67126	5	0	-0.650088	-0.263777	-0.366306	-0.127935	-0.378437	-0.34174	-0.321213	0.0676352	-0.398695	-0.247873	-0.375139	-0.102134	-0.371688	-0.377378	-0.356486	-0.225034	-0.254174	-0.29838	-0.271711	-0.230886	-0.265462	-0.246928	-0.344613	-0.00380175	-0.248686	-0.322781	-0.389548	-0.0952303	-0.249515	-0.25712	-0.416406	0.110715	
0.626057	3.67279	5	0	-0.650088	-0.263777	-0.360022	-0.128471	-0.378437	-0.34174	-0.322347	0.070839	-0.399582	-0.245365	-0.382016	-0.09764	-0.371688	-0.377378	-0.351549	-0.225345	-0.258558	-0.29752	-0.27049	-0.234338	-0.263721	-0.251848	-0.348088	-0.013413	-0.252961	-0.324212	-0.391425	-0.105024	-0.25511	-0.258887	-0.426685	0.102993	
0.626366	3.67432	5	0	-0.64293	-0.259674	-0.354022	-0.110936	-0.373677	-0.334064	-0.315844	0.0789187	-0.392047	-0.244501	-0.373728	-0.0911668	-0.368407	-0.375297	-0.349732	-0.203169	-0.254174	-0.29838	-0.267999	-0.228002	-0.259678	-0.252599	-0.341138	0.0058305	-0.247714	-0.325529	-0.383255	-0.082778	-0.260699	-0.260654	-0.426685	0.102993	
0.626731	3.67737	5	0	-0.635773	-0.255571	-0.348022	-0.093401	-0.368916	-0.326387	-0.309342	0.0869985	-0.384512	-0.243636	-0.36544	-0.0846935	-0.365127	-0.373216	-0.347915	-0.180993	-0.24979	-0.299241	-0.265508	-0.221666	-0.255634	-0.25335	-0.334188	0.025074	-0.242468	-0.326846	-0.375085	-0.060532	-0.266289	-0.262421	-0.426685	0.102993	
0.627027	3.67737	5	0	-0.628615	-0.251468	-0.342022	-0.075866	-0.364156	-0.318711	-0.30284	0.0950783	-0.376976	-0.242772	-0.357152	-0.0782203	-0.361846	-0.371134	-0.346099	-0.158817	-0.245407	-0.300101	-0.263017	-0.215331	-0.25159	-0.254101	-0.327239	0.0443175	-0.237221	-0.328162	-0.366914	-0.038286	-0.271879	-0.264187	-0.426685	0.102993	
0.627128	3.68347	5	0	-0.621458	-0.247365	-0.336022	-0.058331	-0.359396	-0.311035	-0.296337	0.103158	-0.369441	-0.241907	-0.348864	-0.071747	-0.358565	-0.369053	-0.344282	-0.136641	-0.241023	-0.300961	-0.260526	-0.208995	-0.247547	-0.254852	-0.320289	0.063561	-0.231974	-0.329479	-0.358744	-0.01604	-0.277468	-0.265954	-0.426685	0.102993	
0.62691	3.68194	5	0	1.00767	-1.29428	-0.345928	-0.0303355	-0.352974	-0.30803	-0.29861	0.10958	-0.367893	-0.235194	-0.347457	-0.060757	-0.352971	-0.362134	-0.336182	-0.118491	-0.238482	-0.296605	-0.254319	-0.199758	-0.246986	-0.245755	-0.31334	0.0828872	-0.230615	-0.3198	-0.345469	-0.00811	-0.278715	-0.262431	-0.421548	0.106852	
0.626313	3.68194	5	0	2.63679	-2.34119	-0.355834	-0.00234	-0.346552	-0.305026	-0.300882	0.116003	-0.366344	-0.228481	-0.34605	-0.049767	-0.347377	-0.355215	-0.328083	-0.10034	-0.235941	-0.292249	-0.248111	-0.190522	-0.246424	-0.236658	-0.306391	0.102213	-0.229255	-0.31012	-0.332195	-0.00018	-0.279961	-0.258907	-0.416411	0.110711	
0.625406	3.68042	5	0	4.26592	-3.3881	-0.36574	0.0256555	-0.340131	-0.302021	-0.303154	0.122425	-0.364795	-0.221767	-0.344643	-0.038777	-0.341783	-0.348296	-0.319983	-0.0821903	-0.233401	-0.287892	-0.241903	-0.181285	-0.245863	-0.227561	-0.299441	0.12154	-0.227896	-0.30044	-0.31892	0.00775	-0.281208	-0.255383	-0.411273	0.11457	
0.624268	3.68042	5	0	5.89504	-4.43501	-0.375646	0.053651	-0.333709	-0.299017	-0.305427	0.128848	-0.363247	-0.215054	-0.343236	-0.027787	-0.336189	-0.341377	-0.311884	-0.06404	-0.23086	-0.283536	-0.235696	-0.172048	-0.245302	-0.218464	-0.292492	0.140866	-0.226536	-0.290761	-0.305645	0.01568	-0.282455	-0.25186	-0.406136	0.118429	
0.622982	3.685	5	0	6.03379	-4.53008	-0.366044	0.0437852	-0.333709	-0.299017	-0.309245	0.126405	-0.367462	-0.214232	-0.352895	-0.0304095	-0.338138	-0.335869	-0.320431	-0.0672555	-0.23086	-0.283536	-0.245573	-0.170914	-0.251091	-0.212787	-0.304929	0.137048	-0.216998	-0.290645	-0.315772	0.01399	-0.276867	-0.25009	-0.414594	0.123956	
0.621631	3.68194	5	0	6.17254	-4.62514	-0.356442	0.0339195	-0.333709	-0.299017	-0.313063	0.123962	-0.371676	-0.21341	-0.362554	-0.033032	-0.340087	-0.330361	-0.328978	-0.070471	-0.23086	-0.283536	-0.25545	-0.169781	-0.256879	-0.207111	-0.317365	0.133231	-0.20746	-0.290529	-0.325899	0.0123	-0.271278	-0.248321	-0.423052	0.129483	
0.62033	3.67889	5	0	6.31129	-4.72021	-0.346841	0.0240537	-0.333709	-0.299017	-0.316881	0.121519	-0.375891	-0.212588	-0.372213	-0.0356545	-0.342036	-0.324854	-0.337525	-0.0736865	-0.23086	-0.283536	-0.265327	-0.168648	-0.262668	-0.201434	-0.329802	0.129414	-0.197922	-0.290414	-0.336026	0.01061	-0.26569	-0.246551	-0.431511	0.135009	
0.619262	3.68194	5	0	6.45005	-4.81527	-0.337239	0.014188	-0.333709	-0.299017	-0.320699	0.119076	-0.380106	-0.211766	-0.381872	-0.038277	-0.343985	-0.319346	-0.346072	-0.076902	-0.23086	-0.283536	-0.275204	-0.167514	-0.268457	-0.195758	-0.342239	0.125596	-0.188384	-0.290298	-0.346153	0.00892	-0.260101	-0.244782	-0.439969	0.140536	
0.618616	3.67889	5	0	5.99381	-4.51716	-0.341884	0.010045	-0.343445	-0.292655	-0.32338	0.113428	-0.384318	-0.210945	-0.395646	-0.044141	-0.349217	-0.315928	-0.354158	-0.0950315	-0.237785	-0.287032	-0.283884	-0.183082	-0.273055	-0.204112	-0.35974	0.0973675	-0.196566	-0.280716	-0.368219	-0.00427975	-0.277509	-0.230695	-0.453539	0.142187	
0.61858	3.67889	5	0	5.53758	-4.21905	-0.346529	0.005902	-0.353181	-0.286293	-0.32606	0.10778	-0.388531	-0.210124	-0.40942	-0.050005	-0.354448	-0.312509	-0.362243	-0.113161	-0.244709	-0.290528	-0.292563	-0.198651	-0.277652	-0.212465	-0.37724	0.069139	-0.204747	-0.271135	-0.390284	-0.0174795	-0.294916	-0.216609	-0.46711	0.143839	
0.619339	3.68194	5	0	5.08135	-3.92094	-0.351173	0.001759	-0.362916	-0.279932	-0.32874	0.102131	-0.392743	-0.209304	-0.423194	-0.055869	-0.35968	-0.30909	-0.370328	-0.131291	-0.251634	-0.294024	-0.301242	-0.21422	-0.28225	-0.220818	-0.394741	0.0409105	-0.212928	-0.261553	-0.412349	-0.0306793	-0.312323	-0.202522	-0.480681	0.14549	
0.62087	3.685	5	0	4.62512	-3.62283	-0.355818	-0.002384	-0.372652	-0.27357	-0.331421	0.096483	-0.396955	-0.208483	-0.436968	-0.061733	-0.364912	-0.305672	-0.378414	-0.14942	-0.258558	-0.29752	-0.309922	-0.229788	-0.286848	-0.229172	-0.412242	0.012682	-0.22111	-0.251971	-0.434415	-0.043879	-0.329731	-0.188436	-0.494251	0.147142	
0.622808	3.68347	5	0	4.29192	-3.4051	-0.349521	-0.0029105	-0.37431	-0.268883	-0.336369	0.097251	-0.396955	-0.208483	-0.446586	-0.0643515	-0.365887	-0.302917	-0.389176	-0.159895	-0.260174	-0.304476	-0.319808	-0.241859	-0.291443	-0.237508	-0.420811	-0.0211547	-0.226363	-0.250657	-0.452603	-0.0677325	-0.332809	-0.197267	-0.50793	0.130884	
0.624761	3.68957	5	0	3.95871	-3.18738	-0.343224	-0.003437	-0.375969	-0.264197	-0.341316	0.098019	-0.396955	-0.208483	-0.456205	-0.06697	-0.366862	-0.300162	-0.399938	-0.17037	-0.26179	-0.311431	-0.329695	-0.25393	-0.296038	-0.245845	-0.42938	-0.0549915	-0.231616	-0.249342	-0.470791	-0.091586	-0.335888	-0.206097	-0.521608	0.114627	
0.626336	3.68957	5	0	3.62551	-2.96966	-0.336927	-0.0039635	-0.377628	-0.25951	-0.346264	0.098787	-0.396955	-0.208483	-0.465823	-0.0695885	-0.367837	-0.297407	-0.410701	-0.180846	-0.263406	-0.318387	-0.339581	-0.266001	-0.300633	-0.254181	-0.437948	-0.0888282	-0.236869	-0.248028	-0.488978	-0.11544	-0.338966	-0.214928	-0.535287	0.0983695	
0.627143	3.69263	5	0	3.29231	-2.75194	-0.33063	-0.00449	-0.379286	-0.254824	-0.351211	0.099555	-0.396955	-0.208483	-0.475441	-0.072207	-0.368812	-0.294652	-0.421463	-0.191321	-0.265022	-0.325343	-0.349468	-0.278072	-0.305228	-0.262518	-0.446517	-0.122665	-0.242122	-0.246714	-0.507166	-0.139293	-0.342044	-0.223759	-0.548966	0.082112	
0.627099	3.69568	5	0	3.05473	-2.5923	-0.341884	0.0100452	-0.371209	-0.256496	-0.357289	0.103526	-0.398733	-0.203458	-0.480926	-0.071588	-0.370762	-0.289139	-0.428626	-0.198287	-0.262259	-0.333151	-0.359338	-0.290104	-0.306656	-0.269133	-0.455248	-0.136594	-0.240173	-0.252222	-0.512773	-0.168454	-0.346367	-0.229054	-0.564261	0.070583	
0.626631	3.70178	5	0	2.81715	-2.43265	-0.353138	0.0245805	-0.363132	-0.258169	-0.363366	0.107497	-0.400512	-0.198432	-0.486411	-0.070969	-0.372713	-0.283627	-0.435789	-0.205253	-0.259497	-0.340958	-0.369208	-0.302136	-0.308084	-0.275749	-0.463978	-0.150523	-0.238225	-0.25773	-0.518381	-0.197614	-0.35069	-0.23435	-0.579556	0.059054	
0.626216	3.70178	5	0	2.57957	-2.27301	-0.364392	0.0391157	-0.355056	-0.259841	-0.369443	0.111469	-0.40229	-0.193406	-0.491896	-0.07035	-0.374663	-0.278114	-0.442953	-0.21222	-0.256734	-0.348765	-0.379079	-0.314168	-0.309513	-0.282365	-0.472708	-0.164451	-0.236276	-0.263237	-0.523988	-0.226775	-0.355013	-0.239646	-0.594851	0.047525	
0.626332	3.70636	5	0	2.34198	-2.11337	-0.375646	0.053651	-0.346979	-0.261513	-0.375521	0.11544	-0.404068	-0.188381	-0.497381	-0.069731	-0.376614	-0.272601	-0.450116	-0.219186	-0.253971	-0.356573	-0.388949	-0.3262	-0.310941	-0.28898	-0.481439	-0.17838	-0.234327	-0.268745	-0.529595	-0.255936	-0.359336	-0.244941	-0.610146	0.035996	
0.62745	3.70483	5	0	2.14852	-1.98695	-0.371006	0.0578087	-0.358375	-0.25046	-0.38046	0.116204	-0.410056	-0.182536	-0.502861	-0.069114	-0.37759	-0.269843	-0.464853	-0.218279	-0.261807	-0.35745	-0.393905	-0.338763	-0.313238	-0.293136	-0.495562	-0.17699	-0.241524	-0.261925	-0.530216	-0.269161	-0.359336	-0.244941	-0.613588	0.0275092	
0.629657	3.70941	5	0	1.95506	-1.86054	-0.366366	0.0619665	-0.369771	-0.239406	-0.3854	0.116967	-0.416043	-0.176691	-0.508341	-0.068497	-0.378565	-0.267085	-0.47959	-0.217371	-0.269644	-0.358327	-0.398861	-0.351326	-0.315535	-0.297292	-0.509684	-0.175599	-0.248722	-0.255105	-0.530836	-0.282386	-0.359336	-0.244941	-0.617031	0.0190225	
0.632364	3.71399	5	0	1.76159	-1.73413	-0.361727	0.0661242	-0.381167	-0.228353	-0.390339	0.117731	-0.42203	-0.170845	-0.513821	-0.06788	-0.379541	-0.264328	-0.494326	-0.216464	-0.27748	-0.359204	-0.403818	-0.363889	-0.317831	-0.301447	-0.523807	-0.174208	-0.255919	-0.248286	-0.531456	-0.295612	-0.359336	-0.244941	-0.620474	0.0105358	
0.634913	3.71094	5	0	1.56813	-1.60772	-0.357087	0.070282	-0.392563	-0.2173	-0.395278	0.118494	-0.428018	-0.165	-0.519301	-0.067263	-0.380517	-0.26157	-0.509063	-0.215557	-0.285316	-0.360081	-0.408774	-0.376452	-0.320128	-0.305603	-0.53793	-0.172818	-0.263116	-0.241466	-0.532077	-0.308837	-0.359336	-0.244941	-0.623916	0.002049	
0.636645	3.71551	0	5	1.43964	-1.52816	-0.366362	0.0619715	-0.389244	-0.226681	-0.40288	0.113614	-0.432223	-0.164185	-0.530247	-0.0660348	-0.38477	-0.260911	-0.525988	-0.221909	-0.293141	-0.360959	-0.421037	-0.38158	-0.328185	-0.304107	-0.546781	-0.167035	-0.257868	-0.242778	-0.541473	-0.297248	-0.35626	-0.236122	-0.623916	0.002049	
0.636907	3.71857	0	5	1.31115	-1.4486	-0.375637	0.053661	-0.385925	-0.236062	-0.410481	0.108734	-0.436429	-0.16337	-0.541192	-0.0648065	-0.389023	-0.260252	-0.542913	-0.228262	-0.300967	-0.361838	-0.4333	-0.386707	-0.336242	-0.30261	-0.555632	-0.161251	-0.252619	-0.24409	-0.550869	-0.285659	-0.353183	-0.227302	-0.623916	0.002049	
0.635483	3.72009	0	5	1.18266	-1.36905	-0.384913	0.0453505	-0.382605	-0.245443	-0.418083	0.103854	-0.440635	-0.162554	-0.552138	-0.0635783	-0.393276	-0.259594	-0.559837	-0.234614	-0.308793	-0.362716	-0.445562	-0.391834	-0.344299	-0.301114	-0.564484	-0.155468	-0.24737	-0.245402	-0.560265	-0.274071	-0.350107	-0.218483	-0.623916	0.002049	
0.63317	3.71857	0	5	1.05417	-1.28949	-0.394188	0.03704	-0.379286	-0.254824	-0.425685	0.098974	-0.44484	-0.161739	-0.563084	-0.06235	-0.397529	-0.258935	-0.576762	-0.240966	-0.316618	-0.363595	-0.457825	-0.396962	-0.352356	-0.299617	-0.573335	-0.149684	-0.242122	-0.246714	-0.569661	-0.262482	-0.347031	-0.209664	-0.623916	0.002049	
0.630904	3.71857	0	5	0.950865	-1.22639	-0.389236	0.023046	-0.387352	-0.253156	-0.423421	0.0925768	-0.443062	-0.166764	-0.565827	-0.0694343	-0.395578	-0.264448	-0.587425	-0.251366	-0.318231	-0.370522	-0.467649	-0.408897	-0.357805	-0.305469	-0.589037	-0.162884	-0.245048	-0.238446	-0.580913	-0.260579	-0.357586	-0.197346	-0.622271	-0.002601	
0.629621	3.72467	0	5	0.847561	-1.16329	-0.384285	0.009052	-0.395419	-0.251489	-0.421157	0.0861795	-0.441283	-0.17179	-0.568569	-0.0765185	-0.393628	-0.26996	-0.598087	-0.261765	-0.319844	-0.377449	-0.477473	-0.420832	-0.363254	-0.31132	-0.604739	-0.176083	-0.247973	-0.230179	-0.592165	-0.258676	-0.368142	-0.185028	-0.620625	-0.007251	
0.630256	3.72009	0	5	0.744258	-1.10019	-0.379333	-0.004942	-0.403485	-0.249821	-0.418894	0.0797822	-0.439505	-0.176816	-0.571312	-0.0836028	-0.391677	-0.275473	-0.60875	-0.272165	-0.321458	-0.384376	-0.487298	-0.432766	-0.368702	-0.317171	-0.620441	-0.189282	-0.250899	-0.221911	-0.603417	-0.256772	-0.378698	-0.172709	-0.61898	-0.011901	
0.633267	3.72009	0	5	0.640954	-1.03709	-0.374382	-0.018936	-0.411552	-0.248153	-0.41663	0.073385	-0.437727	-0.181841	-0.574055	-0.090687	-0.389726	-0.280985	-0.619413	-0.282565	-0.323071	-0.391303	-0.497122	-0.444701	-0.374151	-0.323023	-0.636143	-0.202482	-0.253824	-0.213643	-0.614669	-0.254869	-0.389253	-0.160391	-0.617334	-0.016551	
0.637887	3.72162	0	5	0.567396	-0.980221	-0.371393	-0.0101308	-0.403485	-0.249821	-0.424954	0.0837423	-0.444597	-0.173488	-0.580877	-0.086229	-0.390701	-0.278229	-0.622963	-0.286025	-0.32652	-0.393037	-0.500794	-0.447537	-0.376441	-0.327167	-0.63778	-0.217007	-0.26529	-0.20827	-0.620895	-0.267122	-0.388005	-0.163917	-0.629146	-0.0195468	
0.643159	3.72467	0	5	0.493838	-0.923355	-0.368403	-0.0013255	-0.395419	-0.251489	-0.433278	0.0940995	-0.451468	-0.165135	-0.5877	-0.081771	-0.391676	-0.275473	-0.626513	-0.289485	-0.329968	-0.394771	-0.504467	-0.450372	-0.37873	-0.331312	-0.639417	-0.231533	-0.276756	-0.202897	-0.627121	-0.279375	-0.386757	-0.167444	-0.640958	-0.0225425	
0.648126	3.72162	0	5	0.42028	-0.866488	-0.365414	0.00747975	-0.387352	-0.253156	-0.441602	0.104457	-0.458338	-0.156783	-0.594523	-0.077313	-0.392652	-0.272718	-0.630062	-0.292944	-0.333417	-0.396504	-0.508139	-0.453207	-0.38102	-0.335456	-0.641054	-0.246058	-0.288223	-0.197524	-0.633348	-0.291628	-0.38551	-0.170971	-0.65277	-0.0255382	
0.651828	3.72009	0	5	0.346722	-0.809621	-0.362424	0.016285	-0.379286	-0.254824	-0.449926	0.114814	-0.465209	-0.14843	-0.601345	-0.072855	-0.393627	-0.269962	-0.633612	-0.296404	-0.336865	-0.398238	-0.511811	-0.456043	-0.38331	-0.339601	-0.642691	-0.260584	-0.299689	-0.192151	-0.639574	-0.303881	-0.384262	-0.174497	-0.664582	-0.028534	
0.653524	3.71857	0	5	0.285171	-0.760589	-0.36109	0.0297842	-0.382605	-0.245443	-0.446131	0.117256	-0.461896	-0.146729	-0.595884	-0.073466	-0.396554	-0.261689	-0.633612	-0.296404	-0.336865	-0.398238	-0.511811	-0.456043	-0.380155	-0.337903	-0.635669	-0.261277	-0.292495	-0.19897	-0.635825	-0.314477	-0.389821	-0.176284	-0.668018	-0.036986	
0.653508	3.72009	0	5	0.223619	-0.711556	-0.359756	0.0432835	-0.385925	-0.236062	-0.442336	0.119698	-0.458583	-0.145028	-0.590422	-0.074077	-0.399481	-0.253416	-0.633612	-0.296404	-0.336865	-0.398238	-0.511811	-0.456043	-0.376999	-0.336205	-0.628648	-0.261969	-0.285301	-0.20579	-0.632076	-0.325073	-0.39538	-0.17807	-0.671454	-0.045438	
0.65239	3.71704	0	5	0.162068	-0.662524	-0.358421	0.0567827	-0.389244	-0.226681	-0.438541	0.12214	-0.45527	-0.143326	-0.58496	-0.074688	-0.402409	-0.245143	-0.633612	-0.296404	-0.336865	-0.398238	-0.511811	-0.456043	-0.373843	-0.334506	-0.621626	-0.262662	-0.278108	-0.212609	-0.628326	-0.335669	-0.400939	-0.179857	-0.67489	-0.05389	
0.65078	3.71704	0	5	0.100517	-0.613491	-0.357087	0.070282	-0.392563	-0.2173	-0.434746	0.124582	-0.451957	-0.141625	-0.579499	-0.075299	-0.405336	-0.23687	-0.633612	-0.296404	-0.336865	-0.398238	-0.511811	-0.456043	-0.370688	-0.332808	-0.614604	-0.263355	-0.270914	-0.219428	-0.624577	-0.346265	-0.406498	-0.181643	-0.678326	-0.062342	
0.649289	3.71857	0	5	0.045434	-0.581907	-0.360399	0.0796432	-0.392563	-0.2173	-0.435879	0.127784	-0.453738	-0.136594	-0.589046	-0.0631423	-0.406312	-0.234111	-0.639817	-0.292349	-0.3387	-0.393052	-0.513016	-0.452639	-0.367531	-0.331109	-0.611165	-0.253903	-0.278108	-0.212609	-0.62146	-0.340155	-0.398445	-0.186905	-0.671607	-0.0631685	
0.648473	3.71551	0	5	-0.009649	-0.550323	-0.363712	0.0890045	-0.392563	-0.2173	-0.437013	0.130987	-0.455518	-0.131562	-0.598592	-0.0509855	-0.407288	-0.231351	-0.646022	-0.288295	-0.340535	-0.387865	-0.51422	-0.449235	-0.364374	-0.32941	-0.607726	-0.24445	-0.285301	-0.20579	-0.618343	-0.334046	-0.390392	-0.192167	-0.664888	-0.063995	
0.648424	3.71246	0	5	-0.064732	-0.518739	-0.367025	0.0983658	-0.392563	-0.2173	-0.438146	0.134189	-0.457298	-0.126531	-0.608139	-0.0388288	-0.408265	-0.228592	-0.652228	-0.28424	-0.34237	-0.382679	-0.515424	-0.445831	-0.361216	-0.327711	-0.604286	-0.234997	-0.292495	-0.19897	-0.615226	-0.327936	-0.382339	-0.197429	-0.658169	-0.0648215	
0.648986	3.71551	0	5	-0.119815	-0.487155	-0.370337	0.107727	-0.392563	-0.2173	-0.439279	0.137392	-0.459079	-0.1215	-0.617686	-0.026672	-0.409241	-0.225833	-0.658433	-0.280185	-0.344205	-0.377493	-0.516629	-0.442427	-0.358059	-0.326012	-0.600847	-0.225545	-0.299689	-0.192151	-0.612109	-0.321827	-0.374286	-0.202691	-0.65145	-0.065648	
0.650003	3.71399	0	5	-0.151873	-0.470613	-0.379605	0.099397	-0.390903	-0.221992	-0.443073	0.134948	-0.463281	-0.120689	-0.616324	-0.0305223	-0.412514	-0.227936	-0.665517	-0.2871	-0.348567	-0.376636	-0.521502	-0.44186	-0.366968	-0.322072	-0.613266	-0.209619	-0.297374	-0.185182	-0.614003	-0.301544	-0.372464	-0.190326	-0.656376	-0.0517265	
0.65132	3.71399	0	5	-0.18393	-0.454071	-0.388873	0.091067	-0.389242	-0.226683	-0.446867	0.132504	-0.467483	-0.119877	-0.614961	-0.0343725	-0.415787	-0.23004	-0.672601	-0.294016	-0.35293	-0.37578	-0.526375	-0.441292	-0.375877	-0.318132	-0.625685	-0.193694	-0.295059	-0.178213	-0.615897	-0.281262	-0.370642	-0.177961	-0.661302	-0.037805	
