3.71857	0	0	-0.131146	-0.262916	0.040356	-0.323007	0.044653	-0.173147	0.151314	-0.225852	0.024714	-0.040556	0.178709	-0.229632	-0.068761	-0.14892	0.123103	-0.221421	-0.080051	-0.046152	0.005413	-0.081422	-0.07321	-0.065956	-0.159607	-0.039199	0.021383	-0.151801	-0.006373	-0.052752	-0.09543	-0.205548	-0.113326	-0.199523	
3.71704	0	0	-0.132431	-0.284303	0.0388715	-0.335907	0.044653	-0.173147	0.162153	-0.230562	0.0290103	-0.0414267	0.171956	-0.22522	-0.0721497	-0.150987	0.121814	-0.217777	-0.0817215	-0.0530463	0.006598	-0.084771	-0.0779212	-0.074075	-0.156142	-0.0489913	0.021383	-0.151801	-0.00329375	-0.0467135	-0.0971158	-0.217817	-0.128582	-0.193107	
3.71857	0	0	-0.133715	-0.30569	0.037387	-0.348807	0.044653	-0.173147	0.172992	-0.235271	0.0333065	-0.0422975	0.165204	-0.220807	-0.0755385	-0.153054	0.120524	-0.214132	-0.083392	-0.0599405	0.007783	-0.08812	-0.0826325	-0.082194	-0.152677	-0.0587835	0.021383	-0.151801	-0.0002145	-0.040675	-0.0988015	-0.230086	-0.143839	-0.186691	
3.71551	0	0	-0.134999	-0.327077	0.0359025	-0.361708	0.044653	-0.173147	0.183831	-0.239981	0.0376027	-0.0431683	0.158451	-0.216395	-0.0789273	-0.155122	0.119234	-0.210487	-0.0850625	-0.0668347	0.008968	-0.091469	-0.0873437	-0.090313	-0.149213	-0.0685757	0.021383	-0.151801	0.00286475	-0.0346365	-0.100487	-0.242355	-0.159095	-0.180275	
3.71399	0	0	-0.136284	-0.348464	0.034418	-0.374608	0.044653	-0.173147	0.19467	-0.244691	0.041899	-0.044039	0.151698	-0.211983	-0.082316	-0.157189	0.117945	-0.206843	-0.086733	-0.073729	0.010153	-0.094818	-0.092055	-0.098432	-0.145748	-0.078368	0.021383	-0.151801	0.005944	-0.028598	-0.102173	-0.254624	-0.174351	-0.173859	
3.71246	0	0	-0.147783	-0.34095	0.0312277	-0.365592	0.054478	-0.179567	0.192485	-0.238515	0.041899	-0.044039	0.162589	-0.213409	-0.082316	-0.157189	0.130105	-0.200763	-0.0876515	-0.0711333	0.0126827	-0.0887437	-0.093772	-0.0935798	-0.138825	-0.0791282	0.0223532	-0.154544	0.00163	-0.0311473	-0.0955633	-0.256271	-0.167545	-0.174754	
3.71094	0	0	-0.159282	-0.333437	0.0280375	-0.356575	0.064303	-0.185987	0.1903	-0.232339	0.041899	-0.044039	0.173481	-0.214835	-0.082316	-0.157189	0.142265	-0.194682	-0.08857	-0.0685375	0.0152125	-0.0826695	-0.095489	-0.0887275	-0.131902	-0.0798885	0.0233235	-0.157286	-0.002684	-0.0336965	-0.0889535	-0.257918	-0.160739	-0.175649	
3.70941	0	0	-0.170781	-0.325924	0.0248472	-0.347559	0.074128	-0.192407	0.188114	-0.226162	0.041899	-0.044039	0.184372	-0.216261	-0.082316	-0.157189	0.154425	-0.188601	-0.0894885	-0.0659417	0.0177423	-0.0765953	-0.097206	-0.0838752	-0.12498	-0.0806487	0.0242938	-0.160028	-0.006998	-0.0362458	-0.0823437	-0.259565	-0.153932	-0.176543	
3.71094	0	0	-0.18228	-0.31841	0.021657	-0.338543	0.083953	-0.198827	0.185929	-0.219986	0.041899	-0.044039	0.195264	-0.217687	-0.082316	-0.157189	0.166585	-0.182521	-0.090407	-0.063346	0.020272	-0.070521	-0.098923	-0.079023	-0.118057	-0.081409	0.025264	-0.162771	-0.011312	-0.038795	-0.075734	-0.261212	-0.147126	-0.177438	
3.70026	0	0	-0.186368	-0.306857	0.0278105	-0.321727	0.075788	-0.197099	0.179961	-0.216087	0.0376027	-0.0431683	0.192643	-0.210279	-0.0808993	-0.149549	0.167625	-0.171959	-0.0887375	-0.0564487	0.0216142	-0.0610813	-0.0959352	-0.0660333	-0.114612	-0.0534812	0.0242938	-0.160028	-0.012547	-0.0353045	-0.0740435	-0.248941	-0.1283	-0.17551	
3.70331	0	0	-0.190456	-0.295304	0.033964	-0.304911	0.067623	-0.195371	0.173994	-0.212187	0.0333065	-0.0422975	0.190022	-0.202871	-0.0794825	-0.141908	0.168666	-0.161397	-0.087068	-0.0495515	0.0229565	-0.0516415	-0.0929475	-0.0530435	-0.111166	-0.0255535	0.0233235	-0.157286	-0.013782	-0.031814	-0.072353	-0.23667	-0.109475	-0.173581	
3.70483	0	0	-0.194544	-0.28375	0.0401175	-0.288095	0.059458	-0.193642	0.168026	-0.208288	0.0290103	-0.0414267	0.1874	-0.195462	-0.0780657	-0.134268	0.169706	-0.150836	-0.0853985	-0.0426542	0.0242988	-0.0422017	-0.0899597	-0.0400537	-0.10772	0.00237425	0.0223532	-0.154544	-0.015017	-0.0283235	-0.0706625	-0.224398	-0.0906488	-0.171653	
3.70331	0	0	-0.198632	-0.272197	0.046271	-0.271279	0.051293	-0.191914	0.162058	-0.204389	0.024714	-0.040556	0.184779	-0.188054	-0.076649	-0.126628	0.170746	-0.140274	-0.083729	-0.035757	0.025641	-0.032762	-0.086972	-0.027064	-0.104275	0.030302	0.021383	-0.151801	-0.016252	-0.024833	-0.068972	-0.212127	-0.071823	-0.169724	
3.70331	0	0	-0.187133	-0.279711	0.039996	-0.270656	0.0546105	-0.20129	0.159372	-0.209755	0.0170208	-0.041335	0.180642	-0.191047	-0.076649	-0.126628	0.170746	-0.140274	-0.0874097	-0.0253545	0.02817	-0.0266667	-0.0814015	-0.0213487	-0.109499	0.0450675	0.0194413	-0.146314	-0.016252	-0.024833	-0.0594255	-0.204963	-0.0715537	-0.152071	
3.70026	0	0	-0.175634	-0.287224	0.033721	-0.270033	0.057928	-0.210666	0.156686	-0.21512	0.0093275	-0.042114	0.176505	-0.194039	-0.076649	-0.126628	0.170746	-0.140274	-0.0910905	-0.014952	0.030699	-0.0205715	-0.075831	-0.0156335	-0.114724	0.059833	0.0174995	-0.140826	-0.016252	-0.024833	-0.049879	-0.197799	-0.0712845	-0.134418	
3.70788	0	0	-0.164135	-0.294738	0.027446	-0.26941	0.0612455	-0.220041	0.154	-0.220486	0.00163425	-0.042893	0.172369	-0.197031	-0.076649	-0.126628	0.170746	-0.140274	-0.0947713	-0.0045495	0.033228	-0.0144762	-0.0702605	-0.00991825	-0.119949	0.0745985	0.0155577	-0.135339	-0.016252	-0.024833	-0.0403325	-0.190635	-0.0710153	-0.116766	
3.70178	0	0	-0.152636	-0.302252	0.021171	-0.268787	0.064563	-0.229417	0.151314	-0.225852	-0.006059	-0.043672	0.168232	-0.200024	-0.076649	-0.126628	0.170746	-0.140274	-0.098452	0.005853	0.035757	-0.008381	-0.06469	-0.004203	-0.125173	0.089364	0.013616	-0.129852	-0.016252	-0.024833	-0.030786	-0.183471	-0.070746	-0.099113	
3.70788	0	0	-0.156729	-0.290684	0.0149022	-0.268166	0.0547492	-0.223004	0.146447	-0.225044	-0.00856725	-0.0478345	0.164098	-0.203014	-0.0776355	-0.12384	0.173334	-0.147588	-0.0949445	0.0075635	0.035757	-0.008381	-0.0614717	-0.00256025	-0.118209	0.0696823	0.0155577	-0.135339	-0.0322387	-0.038501	-0.039882	-0.174844	-0.077578	-0.0982183	
3.71094	0	0	-0.160822	-0.279116	0.0086335	-0.267545	0.0449355	-0.216592	0.141579	-0.224235	-0.0110755	-0.051997	0.159965	-0.206004	-0.078622	-0.121052	0.175922	-0.154902	-0.091437	0.009274	0.035757	-0.008381	-0.0582535	-0.0009175	-0.111244	0.0500005	0.0174995	-0.140826	-0.0482255	-0.052169	-0.048978	-0.166217	-0.08441	-0.0973235	
3.70941	0	0	-0.164916	-0.267547	0.00236475	-0.266925	0.0351217	-0.21018	0.136711	-0.223427	-0.0135837	-0.0561595	0.155832	-0.208993	-0.0796085	-0.118265	0.17851	-0.162216	-0.0879295	0.0109845	0.035757	-0.008381	-0.0550353	0.00072525	-0.10428	0.0303188	0.0194413	-0.146314	-0.0642122	-0.065837	-0.058074	-0.15759	-0.091242	-0.0964287	
3.70941	0	0	-0.169009	-0.255979	-0.003904	-0.266304	0.025308	-0.203767	0.131844	-0.222618	-0.016092	-0.060322	0.151698	-0.211983	-0.080595	-0.115477	0.181098	-0.16953	-0.084422	0.012695	0.035757	-0.008381	-0.051817	0.002368	-0.097316	0.010637	0.021383	-0.151801	-0.080199	-0.079505	-0.06717	-0.148963	-0.098074	-0.095534	
3.70941	0	0	-0.161593	-0.25192	-0.000837	-0.257877	0.0155052	-0.197362	0.125889	-0.218727	-0.021267	-0.0569405	0.144951	-0.207574	-0.0815815	-0.112688	0.179804	-0.165874	-0.0818345	0.0170117	0.0406665	-0.0090045	-0.0503225	0.008889	-0.097316	0.010637	0.017145	-0.153248	-0.0838767	-0.0984655	-0.059309	-0.1541	-0.094791	-0.104812	
3.71551	0	0	-0.154177	-0.247861	0.00223	-0.249449	0.0057025	-0.190957	0.119933	-0.214836	-0.026442	-0.053559	0.138204	-0.203165	-0.082568	-0.109899	0.178511	-0.162217	-0.079247	0.0213285	0.045576	-0.009628	-0.048828	0.01541	-0.097316	0.010637	0.012907	-0.154695	-0.0875545	-0.117426	-0.051448	-0.159236	-0.091508	-0.114091	
3.71246	0	0	-0.146762	-0.243801	0.005297	-0.241021	-0.00410025	-0.184551	0.113978	-0.210944	-0.031617	-0.0501775	0.131456	-0.198756	-0.0835545	-0.107111	0.177217	-0.158561	-0.0766595	0.0256452	0.0504855	-0.0102515	-0.0473335	0.021931	-0.097316	0.010637	0.008669	-0.156142	-0.0912323	-0.136387	-0.043587	-0.164373	-0.088225	-0.123369	
3.71399	0	0	-0.139346	-0.239742	0.008364	-0.232594	-0.013903	-0.178146	0.108023	-0.207053	-0.036792	-0.046796	0.124709	-0.194347	-0.084541	-0.104322	0.175923	-0.154905	-0.074072	0.029962	0.055395	-0.010875	-0.045839	0.028452	-0.097316	0.010637	0.004431	-0.157589	-0.09491	-0.155347	-0.035726	-0.169509	-0.084942	-0.132648	
3.71551	0	0	-0.154964	-0.22062	0.006762	-0.228067	-0.0122455	-0.18283	0.102072	-0.203164	-0.036792	-0.046796	0.130147	-0.195056	-0.0811527	-0.102246	0.173334	-0.147588	-0.0777625	0.040392	0.0530147	-0.00414775	-0.0452097	0.037424	-0.0938568	0.0197217	0.00540075	-0.16033	-0.0924568	-0.162281	-0.0290935	-0.171158	-0.086583	-0.12801	
3.71704	0	0	-0.170582	-0.201498	0.00516	-0.223539	-0.010588	-0.187515	0.096121	-0.199276	-0.036792	-0.046796	0.135585	-0.195765	-0.0777645	-0.100171	0.170745	-0.14027	-0.081453	0.050822	0.0506345	0.0025795	-0.0445805	0.046396	-0.0903975	0.0288065	0.0063705	-0.163071	-0.0900035	-0.169214	-0.022461	-0.172808	-0.088224	-0.123372	
3.72162	0	0	-0.186201	-0.182376	0.003558	-0.219011	-0.0089305	-0.192199	0.09017	-0.195387	-0.036792	-0.046796	0.141023	-0.196473	-0.0743763	-0.0980955	0.168156	-0.132953	-0.0851435	0.061252	0.0482542	0.00930675	-0.0439512	0.055368	-0.0869382	0.0378913	0.00734025	-0.165811	-0.0875502	-0.176148	-0.0158285	-0.174457	-0.089865	-0.118734	
3.71399	0	0	-0.201819	-0.163254	0.001956	-0.214484	-0.007273	-0.196883	0.084219	-0.191499	-0.036792	-0.046796	0.146461	-0.197182	-0.070988	-0.09602	0.165567	-0.125636	-0.088834	0.071682	0.045874	0.016034	-0.043322	0.06434	-0.083479	0.046976	0.00831	-0.168552	-0.085097	-0.183082	-0.009196	-0.176106	-0.091506	-0.114096	
3.71551	0	0	-0.199766	-0.169055	-0.002709	-0.218396	-0.0137522	-0.199846	0.0864012	-0.197666	-0.0401852	-0.0484435	0.141023	-0.196473	-0.0700005	-0.0988102	0.161942	-0.128893	-0.088834	0.071682	0.038584	0.023385	-0.045051	0.0692268	-0.0939025	0.057573	0.0135185	-0.169848	-0.0875502	-0.176148	-0.0116685	-0.169118	-0.094791	-0.104813	
3.71704	0	0	-0.197713	-0.174856	-0.007374	-0.222307	-0.0202315	-0.20281	0.0885835	-0.203834	-0.0435785	-0.050091	0.135585	-0.195765	-0.069013	-0.1016	0.158316	-0.13215	-0.088834	0.071682	0.031294	0.030736	-0.04678	0.0741135	-0.104326	0.06817	0.018727	-0.171145	-0.0900035	-0.169214	-0.014141	-0.162131	-0.098076	-0.095529	
3.71704	0	0	-0.195661	-0.180657	-0.012039	-0.226218	-0.0267107	-0.205773	0.0907658	-0.210002	-0.0469717	-0.0517385	0.130147	-0.195056	-0.0680255	-0.104391	0.154691	-0.135406	-0.088834	0.071682	0.024004	0.038087	-0.048509	0.0790002	-0.11475	0.078767	0.0239355	-0.172441	-0.0924568	-0.162281	-0.0166135	-0.155143	-0.101361	-0.0862455	
3.71551	0	0	-0.193608	-0.186458	-0.016704	-0.23013	-0.03319	-0.208736	0.092948	-0.216169	-0.050365	-0.053386	0.124709	-0.194347	-0.067038	-0.107181	0.151066	-0.138663	-0.088834	0.071682	0.016714	0.045438	-0.050238	0.083887	-0.125173	0.089364	0.029144	-0.173737	-0.09491	-0.155347	-0.019086	-0.148155	-0.104646	-0.076962	
3.72009	0	0	-0.193608	-0.186458	-0.021365	-0.234037	-0.03319	-0.208736	0.089182	-0.218446	-0.053756	-0.055033	0.126018	-0.198046	-0.0714137	-0.106466	0.153653	-0.145974	-0.088834	0.071682	0.0190953	0.038708	-0.0493733	0.0814432	-0.128621	0.0802652	0.0239355	-0.172441	-0.102269	-0.163857	-0.019086	-0.148155	-0.11147	-0.0760727	
3.71551	0	0	-0.193608	-0.186458	-0.026026	-0.237944	-0.03319	-0.208736	0.085416	-0.220724	-0.057147	-0.05668	0.127327	-0.201744	-0.0757895	-0.105751	0.15624	-0.153286	-0.088834	0.071682	0.0214765	0.031978	-0.0485085	0.0789995	-0.132069	0.0711665	0.018727	-0.171145	-0.109629	-0.172367	-0.019086	-0.148155	-0.118293	-0.0751835	
3.70941	0	0	-0.193608	-0.186458	-0.030687	-0.241851	-0.03319	-0.208736	0.08165	-0.223002	-0.060538	-0.058327	0.128635	-0.205443	-0.0801653	-0.105037	0.158827	-0.160597	-0.088834	0.071682	0.0238577	0.025248	-0.0476437	0.0765558	-0.135516	0.0620678	0.0135185	-0.169848	-0.116988	-0.180877	-0.019086	-0.148155	-0.125117	-0.0742943	
3.71246	0	0	-0.193608	-0.186458	-0.035348	-0.245758	-0.03319	-0.208736	0.077884	-0.225279	-0.063929	-0.059974	0.129944	-0.209142	-0.084541	-0.104322	0.161414	-0.167908	-0.088834	0.071682	0.026239	0.018518	-0.046779	0.074112	-0.138964	0.052969	0.00831	-0.168552	-0.124348	-0.189387	-0.019086	-0.148155	-0.131941	-0.073405	
3.70941	0	0	-0.195661	-0.180657	-0.030687	-0.241851	-0.03319	-0.208736	0.0757032	-0.219116	-0.063929	-0.059974	0.129944	-0.209142	-0.0855283	-0.101532	0.161414	-0.167908	-0.088834	0.071682	0.026239	0.018518	-0.046779	0.074112	-0.133748	0.038228	0.0050435	-0.172735	-0.124966	-0.202275	-0.023246	-0.153494	-0.135476	-0.0817922	
3.71094	0	0	-0.197713	-0.174856	-0.026026	-0.237944	-0.03319	-0.208736	0.0735225	-0.212952	-0.063929	-0.059974	0.129944	-0.209142	-0.0865155	-0.098743	0.161414	-0.167908	-0.088834	0.071682	0.026239	0.018518	-0.046779	0.074112	-0.128532	0.023487	0.001777	-0.176918	-0.125585	-0.215164	-0.027406	-0.158832	-0.13901	-0.0901795	
3.70788	0	0	-0.199766	-0.169055	-0.021365	-0.234037	-0.03319	-0.208736	0.0713417	-0.206789	-0.063929	-0.059974	0.129944	-0.209142	-0.0875028	-0.0959535	0.161414	-0.167908	-0.088834	0.071682	0.026239	0.018518	-0.046779	0.074112	-0.123316	0.008746	-0.0014895	-0.1811	-0.126203	-0.228052	-0.031566	-0.16417	-0.142545	-0.0985667	
3.71246	0	0	-0.201819	-0.163254	-0.016704	-0.23013	-0.03319	-0.208736	0.069161	-0.200626	-0.063929	-0.059974	0.129944	-0.209142	-0.08849	-0.093164	0.161414	-0.167908	-0.088834	0.071682	0.026239	0.018518	-0.046779	0.074112	-0.1181	-0.005995	-0.004756	-0.185283	-0.126822	-0.240941	-0.035726	-0.169509	-0.14608	-0.106954	
3.70483	0	0	-0.203873	-0.157449	-0.02151	-0.216547	-0.03319	-0.208736	0.069161	-0.200626	-0.0657068	-0.0549497	0.128635	-0.205443	-0.0841145	-0.093878	0.160121	-0.164253	-0.0906808	0.0769015	0.0189535	0.025865	-0.0435577	0.0757653	-0.123316	0.008746	-0.004756	-0.185283	-0.121308	-0.241887	-0.035726	-0.169509	-0.144441	-0.111587	
3.70636	0	0	-0.205927	-0.151645	-0.026316	-0.202964	-0.03319	-0.208736	0.069161	-0.200626	-0.0674845	-0.0499255	0.127327	-0.201744	-0.079739	-0.094592	0.158828	-0.160598	-0.0925275	0.082121	0.011668	0.033212	-0.0403365	0.0774185	-0.128532	0.023487	-0.004756	-0.185283	-0.115794	-0.242834	-0.035726	-0.169509	-0.142801	-0.11622	
3.70483	0	0	-0.20798	-0.14584	-0.031122	-0.189382	-0.03319	-0.208736	0.069161	-0.200626	-0.0692622	-0.0449013	0.126018	-0.198046	-0.0753635	-0.095306	0.157534	-0.156943	-0.0943742	0.0873405	0.0043825	0.040559	-0.0371153	0.0790717	-0.133748	0.038228	-0.004756	-0.185283	-0.11028	-0.243781	-0.035726	-0.169509	-0.141162	-0.120854	
3.70636	0	0	-0.210034	-0.140035	-0.035928	-0.175799	-0.03319	-0.208736	0.069161	-0.200626	-0.07104	-0.039877	0.124709	-0.194347	-0.070988	-0.09602	0.156241	-0.153288	-0.096221	0.09256	-0.002903	0.047906	-0.033894	0.080725	-0.138964	0.052969	-0.004756	-0.185283	-0.104766	-0.244727	-0.035726	-0.169509	-0.139523	-0.125487	
3.70483	0	0	-0.219479	-0.138326	-0.038983	-0.184245	-0.0429703	-0.202345	0.0702515	-0.203708	-0.070151	-0.0423895	0.126018	-0.198046	-0.0753635	-0.095306	0.152617	-0.156539	-0.096221	0.09256	-0.0017125	0.0445417	-0.03971	0.086405	-0.140705	0.057888	-0.006694	-0.179806	-0.108437	-0.234353	-0.0369615	-0.166017	-0.134344	-0.121745	
3.70331	0	0	-0.228924	-0.136618	-0.042038	-0.192691	-0.0527505	-0.195955	0.071342	-0.20679	-0.069262	-0.044902	0.127327	-0.201744	-0.079739	-0.094592	0.148994	-0.15979	-0.096221	0.09256	-0.000522	0.0411775	-0.045526	0.092085	-0.142445	0.062807	-0.008632	-0.174329	-0.112108	-0.223978	-0.038197	-0.162525	-0.129165	-0.118003	
3.70331	0	0	-0.238369	-0.134909	-0.045093	-0.201137	-0.0625307	-0.189564	0.0724325	-0.209872	-0.068373	-0.0474145	0.128635	-0.205443	-0.0841145	-0.093878	0.14537	-0.16304	-0.096221	0.09256	0.0006685	0.0378132	-0.051342	0.097765	-0.144185	0.067726	-0.01057	-0.168852	-0.115779	-0.213604	-0.0394325	-0.159033	-0.123987	-0.114261	
3.70026	0	0	-0.247814	-0.1332	-0.048148	-0.209583	-0.072311	-0.183173	0.073523	-0.212954	-0.067484	-0.049927	0.129944	-0.209142	-0.08849	-0.093164	0.141746	-0.166291	-0.096221	0.09256	0.001859	0.034449	-0.057158	0.103445	-0.145926	0.072645	-0.012508	-0.163375	-0.11945	-0.20323	-0.040668	-0.155541	-0.118808	-0.110519	
3.6972	0	0	-0.245762	-0.139001	-0.051203	-0.218013	-0.0706563	-0.18785	0.0697603	-0.215232	-0.0665952	-0.0524387	0.119081	-0.207728	-0.0928623	-0.0924515	0.139416	-0.173187	-0.099727	0.090838	-0.000663	0.0283433	-0.058647	0.096902	-0.154551	0.0593928	-0.0115388	-0.166114	-0.128024	-0.208259	-0.0394325	-0.159033	-0.132437	-0.10874	
3.70026	0	0	-0.243709	-0.144802	-0.054258	-0.226443	-0.0690015	-0.192527	0.0659975	-0.21751	-0.0657065	-0.0549505	0.108218	-0.206313	-0.0972345	-0.091739	0.137085	-0.180084	-0.103233	0.089116	-0.003185	0.0222375	-0.060136	0.090359	-0.163176	0.0461405	-0.0105695	-0.168853	-0.136599	-0.213289	-0.038197	-0.162525	-0.146065	-0.106961	
3.70178	0	0	-0.241656	-0.150603	-0.057313	-0.234874	-0.0673467	-0.197204	0.0622348	-0.219789	-0.0648178	-0.0574622	0.0973558	-0.204899	-0.101607	-0.0910265	0.134755	-0.18698	-0.106739	0.087394	-0.005707	0.0161318	-0.061625	0.083816	-0.1718	0.0328883	-0.00960025	-0.171592	-0.145174	-0.218318	-0.0369615	-0.166017	-0.159693	-0.105181	
3.69568	0	0	-0.239604	-0.156404	-0.060368	-0.243304	-0.065692	-0.201881	0.058472	-0.222067	-0.063929	-0.059974	0.086493	-0.203485	-0.105979	-0.090314	0.132425	-0.193877	-0.110245	0.085672	-0.008229	0.010026	-0.063114	0.077273	-0.180425	0.019636	-0.008631	-0.174331	-0.153748	-0.223348	-0.035726	-0.169509	-0.173322	-0.103402	
3.69568	0	0	-0.228105	-0.163917	-0.060368	-0.243304	-0.065692	-0.201881	0.0644148	-0.22595	-0.0690947	-0.0565985	0.0945368	-0.211581	-0.105979	-0.090314	0.133716	-0.197524	-0.108399	0.0804555	-0.0119383	0.0072855	-0.066331	0.0756202	-0.180402	0.0007845	-0.0066935	-0.179807	-0.153148	-0.239657	-0.0386495	-0.178326	-0.175214	-0.116395	
3.6972	0	0	-0.216606	-0.171431	-0.060368	-0.243304	-0.065692	-0.201881	0.0703575	-0.229833	-0.0742605	-0.053223	0.10258	-0.219677	-0.105979	-0.090314	0.135006	-0.201172	-0.106553	0.075239	-0.0156475	0.004545	-0.069548	0.0739675	-0.180378	-0.018067	-0.004756	-0.185282	-0.152548	-0.255967	-0.041573	-0.187144	-0.177107	-0.129388	
3.6911	0	0	-0.205107	-0.178945	-0.060368	-0.243304	-0.065692	-0.201881	0.0763003	-0.233716	-0.0794263	-0.0498475	0.110624	-0.227773	-0.105979	-0.090314	0.136297	-0.204819	-0.104707	0.0700225	-0.0193567	0.0018045	-0.072765	0.0723147	-0.180355	-0.0369185	-0.0028185	-0.190757	-0.151948	-0.272277	-0.0444965	-0.195961	-0.179	-0.142381	
3.69263	0	0	-0.193608	-0.186458	-0.060368	-0.243304	-0.065692	-0.201881	0.082243	-0.237599	-0.084592	-0.046472	0.118668	-0.235869	-0.105979	-0.090314	0.137588	-0.208466	-0.102861	0.064806	-0.023066	-0.000936	-0.075982	0.070662	-0.180332	-0.05577	-0.000881	-0.196233	-0.151348	-0.288586	-0.04742	-0.204779	-0.180892	-0.155374	
3.68957	0	0	-0.193608	-0.186458	-0.054113	-0.243918	-0.0559115	-0.208272	0.082243	-0.237599	-0.084592	-0.046472	0.118668	-0.235869	-0.104992	-0.0931028	0.138878	-0.212112	-0.101016	0.0595927	-0.020691	-0.007648	-0.0742547	0.0657805	-0.178601	-0.0606623	-0.000881	-0.196233	-0.147692	-0.29892	-0.0540407	-0.203132	-0.18769	-0.154485	
3.6911	0	0	-0.193608	-0.186458	-0.047858	-0.244531	-0.046131	-0.214663	0.082243	-0.237599	-0.084592	-0.046472	0.118668	-0.235869	-0.104006	-0.0958915	0.140168	-0.215758	-0.099172	0.0543795	-0.018316	-0.01436	-0.0725275	0.060899	-0.17687	-0.0655545	-0.000881	-0.196233	-0.144035	-0.309254	-0.0606615	-0.201485	-0.194489	-0.153595	
3.68805	0	0	-0.193608	-0.186458	-0.041603	-0.245144	-0.0363505	-0.221053	0.082243	-0.237599	-0.084592	-0.046472	0.118668	-0.235869	-0.103019	-0.0986802	0.141458	-0.219404	-0.0973275	0.0491663	-0.015941	-0.021072	-0.0708002	0.0560175	-0.175139	-0.0704468	-0.000881	-0.196233	-0.140379	-0.319589	-0.0672822	-0.199839	-0.201287	-0.152706	
3.68347	0	0	-0.193608	-0.186458	-0.035348	-0.245758	-0.02657	-0.227444	0.082243	-0.237599	-0.084592	-0.046472	0.118668	-0.235869	-0.102032	-0.101469	0.142748	-0.22305	-0.095483	0.043953	-0.013566	-0.027784	-0.069073	0.051136	-0.173408	-0.075339	-0.000881	-0.196233	-0.136722	-0.329923	-0.073903	-0.198192	-0.208085	-0.151817	
3.68347	0	0	-0.201006	-0.190535	-0.0462545	-0.249047	-0.0346965	-0.225728	0.0795675	-0.24295	-0.0837035	-0.0489832	0.113238	-0.23516	-0.106402	-0.100757	0.131641	-0.218594	-0.0999105	0.0448428	-0.0233522	-0.026546	-0.073152	0.0519257	-0.182045	-0.0696953	-0.000881	-0.196233	-0.139159	-0.323035	-0.0672823	-0.199839	-0.194481	-0.153598	
3.67889	0	0	-0.208404	-0.194612	-0.057161	-0.252337	-0.042823	-0.224012	0.076892	-0.248301	-0.082815	-0.0514945	0.107808	-0.234451	-0.110771	-0.100045	0.120533	-0.214138	-0.104338	0.0457325	-0.0331385	-0.025308	-0.077231	0.0527155	-0.190683	-0.0640515	-0.000881	-0.196233	-0.141597	-0.316146	-0.0606615	-0.201485	-0.180877	-0.15538	
3.68042	0	0	-0.215801	-0.198689	-0.0680675	-0.255626	-0.0509495	-0.222295	0.0742165	-0.253651	-0.0819265	-0.0540057	0.102377	-0.233741	-0.115141	-0.099333	0.109426	-0.209682	-0.108766	0.0466222	-0.0429247	-0.02407	-0.08131	0.0535053	-0.19932	-0.0584078	-0.000881	-0.196233	-0.144034	-0.309258	-0.0540407	-0.203132	-0.167274	-0.157162	
3.67889	0	0	-0.223199	-0.202766	-0.078974	-0.258915	-0.059076	-0.220579	0.071541	-0.259002	-0.081038	-0.056517	0.096947	-0.233032	-0.119511	-0.098621	0.098318	-0.205226	-0.113193	0.047512	-0.052711	-0.022832	-0.085389	0.054295	-0.207957	-0.052764	-0.000881	-0.196233	-0.146471	-0.30237	-0.04742	-0.204779	-0.15367	-0.158943	
3.67279	0	0	-0.22115	-0.208556	-0.0820268	-0.26732	-0.0476425	-0.231642	0.0677787	-0.261272	-0.0844243	-0.0581635	0.0928273	-0.236014	-0.118525	-0.101408	0.0959918	-0.212104	-0.115775	0.043193	-0.0552277	-0.0289147	-0.0868778	0.0477703	-0.207945	-0.0715465	-0.0070505	-0.192202	-0.156252	-0.303921	-0.0540407	-0.203132	-0.168909	-0.15254	
3.67584	0	0	-0.219102	-0.214345	-0.0850795	-0.275726	-0.036209	-0.242704	0.0640165	-0.263542	-0.0878105	-0.05981	0.0887075	-0.238997	-0.117539	-0.104194	0.0936655	-0.218982	-0.118357	0.038874	-0.0577445	-0.0349975	-0.0883665	0.0412455	-0.207932	-0.090329	-0.01322	-0.18817	-0.166034	-0.305472	-0.0606615	-0.201485	-0.184148	-0.146138	
3.67584	0	0	-0.217054	-0.220135	-0.0881322	-0.284131	-0.0247755	-0.253767	0.0602542	-0.265812	-0.0911967	-0.0614565	0.0845878	-0.241979	-0.116553	-0.106981	0.0913392	-0.225861	-0.120938	0.034555	-0.0602613	-0.0410802	-0.0898552	0.0347208	-0.20792	-0.109112	-0.0193895	-0.184139	-0.175815	-0.307022	-0.0672822	-0.199839	-0.199386	-0.139735	
3.66974	0	0	-0.215005	-0.225925	-0.091185	-0.292536	-0.013342	-0.26483	0.056492	-0.268082	-0.094583	-0.063103	0.080468	-0.244961	-0.115567	-0.109768	0.089013	-0.232739	-0.12352	0.030236	-0.062778	-0.047163	-0.091344	0.028196	-0.207907	-0.127894	-0.025559	-0.180108	-0.185596	-0.308573	-0.073903	-0.198192	-0.214625	-0.133332	
3.66821	0	0	-0.215005	-0.225925	-0.0849405	-0.293152	-0.013342	-0.26483	0.056492	-0.268082	-0.094583	-0.063103	0.0885045	-0.253047	-0.115567	-0.109768	0.0903005	-0.236378	-0.122599	0.0276335	-0.0604092	-0.0538577	-0.08962	0.023324	-0.218242	-0.136123	-0.0236227	-0.18558	-0.186224	-0.321379	-0.078053	-0.203512	-0.218147	-0.141684	
3.66821	0	0	-0.215005	-0.225925	-0.078696	-0.293767	-0.013342	-0.26483	0.056492	-0.268082	-0.094583	-0.063103	0.096541	-0.261134	-0.115567	-0.109768	0.091588	-0.240016	-0.121678	0.025031	-0.0580405	-0.0605525	-0.087896	0.018452	-0.228577	-0.144352	-0.0216865	-0.191052	-0.186851	-0.334185	-0.082203	-0.208832	-0.221669	-0.150035	
3.66516	0	0	-0.215005	-0.225925	-0.0724515	-0.294382	-0.013342	-0.26483	0.056492	-0.268082	-0.094583	-0.063103	0.104578	-0.26922	-0.115567	-0.109768	0.0928755	-0.243654	-0.120757	0.0224285	-0.0556718	-0.0672472	-0.086172	0.01358	-0.238913	-0.152582	-0.0197503	-0.196524	-0.187478	-0.346991	-0.086353	-0.214152	-0.225191	-0.158386	
3.66211	0	0	-0.215005	-0.225925	-0.066207	-0.294998	-0.013342	-0.26483	0.056492	-0.268082	-0.094583	-0.063103	0.112614	-0.277306	-0.115567	-0.109768	0.094163	-0.247293	-0.119836	0.019826	-0.053303	-0.073942	-0.084448	0.008708	-0.249248	-0.160811	-0.017814	-0.201996	-0.188106	-0.359797	-0.090503	-0.219472	-0.228713	-0.166738	
3.66363	0	0	-0.226488	-0.218421	-0.075642	-0.285366	-0.0231223	-0.258439	0.055404	-0.265007	-0.095471	-0.0605935	0.104578	-0.26922	-0.115567	-0.109768	0.094163	-0.247293	-0.123338	0.0181142	-0.050936	-0.0806315	-0.088523	0.0094985	-0.238915	-0.171303	-0.017814	-0.201996	-0.185676	-0.366664	-0.0892717	-0.222951	-0.233866	-0.170464	
3.66363	0	0	-0.237972	-0.210917	-0.085077	-0.275734	-0.0329025	-0.252049	0.054316	-0.261933	-0.096359	-0.058084	0.096541	-0.261134	-0.115567	-0.109768	0.094163	-0.247293	-0.12684	0.0164025	-0.048569	-0.087321	-0.092598	0.010289	-0.228582	-0.181795	-0.017814	-0.201996	-0.183246	-0.373532	-0.0880405	-0.226431	-0.239018	-0.17419	
3.66363	0	0	-0.249455	-0.203414	-0.094512	-0.266103	-0.0426828	-0.245658	0.053228	-0.258858	-0.097247	-0.0555745	0.0885045	-0.253047	-0.115567	-0.109768	0.094163	-0.247293	-0.130342	0.0146907	-0.046202	-0.0940105	-0.096673	0.0110795	-0.21825	-0.192288	-0.017814	-0.201996	-0.180817	-0.380399	-0.0868093	-0.22991	-0.24417	-0.177917	
3.66516	0	0	-0.260939	-0.19591	-0.103947	-0.256471	-0.052463	-0.239267	0.05214	-0.255783	-0.098135	-0.053065	0.080468	-0.244961	-0.115567	-0.109768	0.094163	-0.247293	-0.133844	0.012979	-0.043835	-0.1007	-0.100748	0.01187	-0.207917	-0.20278	-0.017814	-0.201996	-0.178387	-0.387266	-0.085578	-0.23339	-0.249323	-0.181643	
3.66211	0	0	-0.268314	-0.199985	-0.105402	-0.269377	-0.06058	-0.237553	0.0494682	-0.261126	-0.0963593	-0.0580835	0.081773	-0.248649	-0.119934	-0.109057	0.0967362	-0.254566	-0.132924	0.0103787	-0.0487213	-0.100077	-0.103959	0.0102258	-0.21825	-0.192288	-0.0168463	-0.204731	-0.179601	-0.383833	-0.0777315	-0.238517	-0.242538	-0.182531	
3.66669	0	0	-0.275689	-0.20406	-0.106856	-0.282282	-0.068697	-0.23584	0.0467965	-0.26647	-0.0945835	-0.063102	0.083078	-0.252337	-0.124301	-0.108345	0.0993095	-0.261838	-0.132003	0.0077785	-0.0536075	-0.0994545	-0.107171	0.0085815	-0.228582	-0.181795	-0.0158785	-0.207466	-0.180816	-0.3804	-0.069885	-0.243644	-0.235753	-0.183419	
3.66821	0	0	-0.283064	-0.208134	-0.108311	-0.295188	-0.076814	-0.234126	0.0441247	-0.271813	-0.0928077	-0.0681205	0.084383	-0.256025	-0.128668	-0.107634	0.101883	-0.26911	-0.131083	0.00517825	-0.0584938	-0.0988317	-0.110382	0.00693725	-0.238915	-0.171303	-0.0149108	-0.210201	-0.18203	-0.376967	-0.0620385	-0.248772	-0.228968	-0.184307	
3.66974	0	0	-0.290439	-0.212209	-0.109766	-0.308094	-0.084931	-0.232412	0.041453	-0.277156	-0.091032	-0.073139	0.085688	-0.259713	-0.133035	-0.106922	0.104456	-0.276383	-0.130163	0.002578	-0.06338	-0.098209	-0.113593	0.005293	-0.249248	-0.160811	-0.013943	-0.212936	-0.183245	-0.373534	-0.054192	-0.253899	-0.222183	-0.185195	
3.66974	0	0	-0.286351	-0.223762	-0.114407	-0.311979	-0.0832795	-0.237079	0.0376958	-0.279423	-0.0944167	-0.0747835	0.0815702	-0.26269	-0.132049	-0.109707	0.095942	-0.279198	-0.132744	-0.00172925	-0.0658988	-0.104267	-0.114222	-0.00364375	-0.249252	-0.179491	-0.013943	-0.212936	-0.188736	-0.372586	-0.0620385	-0.248772	-0.2306	-0.179695	
3.67584	0	0	-0.282263	-0.235315	-0.119049	-0.315863	-0.081628	-0.241746	0.0339385	-0.28169	-0.0978015	-0.076428	0.0774525	-0.265666	-0.131064	-0.112492	0.087428	-0.282012	-0.135325	-0.0060365	-0.0684175	-0.110326	-0.11485	-0.0125805	-0.249256	-0.19817	-0.013943	-0.212936	-0.194226	-0.371637	-0.069885	-0.243644	-0.239017	-0.174196	
3.67584	0	0	-0.278175	-0.246868	-0.12369	-0.319748	-0.0799765	-0.246413	0.0301812	-0.283957	-0.101186	-0.0780725	0.0733348	-0.268643	-0.130079	-0.115278	0.078914	-0.284827	-0.137906	-0.0103438	-0.0709363	-0.116385	-0.115479	-0.0215173	-0.24926	-0.21685	-0.013943	-0.212936	-0.199716	-0.370689	-0.0777315	-0.238517	-0.247433	-0.168696	
3.67737	0	0	-0.274087	-0.258421	-0.128331	-0.323633	-0.078325	-0.25108	0.026424	-0.286224	-0.104571	-0.079717	0.069217	-0.271619	-0.129093	-0.118063	0.0704	-0.287642	-0.140487	-0.014651	-0.073455	-0.122443	-0.116108	-0.030454	-0.249264	-0.23553	-0.013943	-0.212936	-0.205207	-0.369741	-0.085578	-0.23339	-0.25585	-0.163196	
3.67737	0	0	-0.27613	-0.252646	-0.128331	-0.323633	-0.0766745	-0.255745	0.026424	-0.286224	-0.103684	-0.0822237	0.069217	-0.271619	-0.128108	-0.120847	0.0704	-0.287642	-0.143985	-0.016358	-0.0722737	-0.125781	-0.114389	-0.0353127	-0.25271	-0.244464	-0.0129758	-0.21567	-0.207053	-0.379081	-0.0818872	-0.243821	-0.252587	-0.172417	
3.67889	0	0	-0.278174	-0.246872	-0.128331	-0.323633	-0.075024	-0.26041	0.026424	-0.286224	-0.102796	-0.0847305	0.069217	-0.271619	-0.127123	-0.123632	0.0704	-0.287642	-0.147483	-0.018065	-0.0710925	-0.129119	-0.11267	-0.0401715	-0.256156	-0.253397	-0.0120085	-0.218404	-0.208898	-0.388421	-0.0781965	-0.254252	-0.249325	-0.181638	
3.67889	0	0	-0.280217	-0.241098	-0.128331	-0.323633	-0.0733735	-0.265074	0.026424	-0.286224	-0.101909	-0.0872373	0.069217	-0.271619	-0.126137	-0.126416	0.0704	-0.287642	-0.150982	-0.019772	-0.0699113	-0.132457	-0.11095	-0.0450303	-0.259602	-0.262331	-0.0110412	-0.221138	-0.210744	-0.397762	-0.0745058	-0.264683	-0.246062	-0.190859	
3.67737	0	0	-0.28226	-0.235323	-0.128331	-0.323633	-0.071723	-0.269739	0.026424	-0.286224	-0.101022	-0.089744	0.069217	-0.271619	-0.125152	-0.1292	0.0704	-0.287642	-0.15448	-0.021479	-0.06873	-0.135795	-0.109231	-0.049889	-0.263048	-0.271264	-0.010074	-0.223872	-0.21259	-0.407102	-0.070815	-0.275114	-0.242799	-0.20008	
3.67737	0	0	-0.295758	-0.222061	-0.125283	-0.315246	-0.0733735	-0.265074	0.0242508	-0.280082	-0.102796	-0.0847298	0.0800663	-0.273041	-0.131487	-0.12292	0.0740125	-0.284419	-0.155399	-0.0188825	-0.0699113	-0.132457	-0.116738	-0.0393798	-0.26132	-0.257476	-0.010074	-0.223872	-0.201611	-0.409005	-0.0720448	-0.271639	-0.234382	-0.20558	
3.67737	0	0	-0.309255	-0.208799	-0.122235	-0.306859	-0.075024	-0.26041	0.0220775	-0.27394	-0.104571	-0.0797155	0.0909155	-0.274462	-0.137821	-0.116641	0.077625	-0.281195	-0.156317	-0.016286	-0.0710925	-0.129119	-0.124246	-0.0288705	-0.259591	-0.243688	-0.010074	-0.223872	-0.190632	-0.410907	-0.0732745	-0.268163	-0.225965	-0.21108	
3.68194	0	0	-0.322752	-0.195537	-0.119187	-0.298471	-0.0766745	-0.255745	0.0199042	-0.267798	-0.106345	-0.0747012	0.101765	-0.275884	-0.144156	-0.110361	0.0812375	-0.277971	-0.157236	-0.0136895	-0.0722737	-0.125781	-0.131753	-0.0183612	-0.257863	-0.229899	-0.010074	-0.223872	-0.179654	-0.41281	-0.0745042	-0.264688	-0.217549	-0.216579	
3.67737	0	0	-0.33625	-0.182275	-0.116139	-0.290084	-0.078325	-0.25108	0.017731	-0.261656	-0.10812	-0.069687	0.112614	-0.277306	-0.15049	-0.104081	0.08485	-0.274748	-0.158155	-0.011093	-0.073455	-0.122443	-0.139261	-0.007852	-0.256135	-0.216111	-0.010074	-0.223872	-0.168675	-0.414713	-0.075734	-0.261212	-0.209132	-0.222079	
3.68194	0	0	-0.324797	-0.189758	-0.116139	-0.290084	-0.0864325	-0.249369	0.017731	-0.261656	-0.109007	-0.0671787	0.108697	-0.266238	-0.147112	-0.102005	0.0822777	-0.267479	-0.159074	-0.00849575	-0.0697538	-0.119726	-0.136914	-0.00377675	-0.257859	-0.192547	-0.012009	-0.218403	-0.163755	-0.399446	-0.0715797	-0.255904	-0.20887	-0.204514	
3.68194	0	0	-0.313345	-0.197242	-0.116139	-0.290084	-0.09454	-0.247658	0.017731	-0.261656	-0.109895	-0.0646705	0.10478	-0.255169	-0.143734	-0.0999295	0.0797055	-0.260209	-0.159993	-0.0058985	-0.0660525	-0.117009	-0.134567	0.0002985	-0.259583	-0.168983	-0.013944	-0.212934	-0.158835	-0.38418	-0.0674255	-0.250596	-0.208609	-0.186948	
3.68194	0	0	-0.301892	-0.204726	-0.116139	-0.290084	-0.102648	-0.245946	0.017731	-0.261656	-0.110783	-0.0621623	0.100864	-0.2441	-0.140356	-0.0978538	0.0771333	-0.252939	-0.160912	-0.00330125	-0.0623513	-0.114293	-0.13222	0.00437375	-0.261308	-0.145419	-0.015879	-0.207465	-0.153915	-0.368914	-0.0632713	-0.245288	-0.208347	-0.169382	
3.67737	0	0	-0.290439	-0.212209	-0.116139	-0.290084	-0.110755	-0.244235	0.017731	-0.261656	-0.11167	-0.059654	0.096947	-0.233032	-0.136978	-0.095778	0.074561	-0.24567	-0.161831	-0.000704	-0.05865	-0.111576	-0.129873	0.008449	-0.263032	-0.121855	-0.017814	-0.201996	-0.148995	-0.353647	-0.059117	-0.23998	-0.208085	-0.151817	
3.67889	0	0	-0.292485	-0.206427	-0.119328	-0.281072	-0.109105	-0.248897	0.0107175	-0.254711	-0.11167	-0.059654	0.0902158	-0.228633	-0.142327	-0.0922825	0.074561	-0.24567	-0.16275	0.001894	-0.0598325	-0.108234	-0.130734	0.010882	-0.261308	-0.126726	-0.018782	-0.199261	-0.159363	-0.338936	-0.0640467	-0.226048	-0.196118	-0.148973	
3.67889	0	0	-0.294531	-0.200645	-0.122517	-0.272061	-0.107456	-0.253559	0.003704	-0.247766	-0.11167	-0.059654	0.0834845	-0.224235	-0.147676	-0.088787	0.074561	-0.24567	-0.163669	0.004492	-0.061015	-0.104892	-0.131595	0.013315	-0.259585	-0.131597	-0.01975	-0.196525	-0.169731	-0.324226	-0.0689765	-0.212116	-0.184151	-0.146128	
3.67737	0	0	-0.296576	-0.194862	-0.125705	-0.263049	-0.105806	-0.258222	-0.0033095	-0.240821	-0.11167	-0.059654	0.0767532	-0.219836	-0.153026	-0.0852915	0.074561	-0.24567	-0.164589	0.00709	-0.0621975	-0.101551	-0.132456	0.015748	-0.257861	-0.136467	-0.020718	-0.19379	-0.180099	-0.309515	-0.0739063	-0.198183	-0.172184	-0.143284	
3.67584	0	0	-0.298622	-0.18908	-0.128894	-0.254037	-0.104156	-0.262884	-0.010323	-0.233876	-0.11167	-0.059654	0.070022	-0.215438	-0.158375	-0.081796	0.074561	-0.24567	-0.165508	0.009688	-0.06338	-0.098209	-0.133317	0.018181	-0.256138	-0.141338	-0.021686	-0.191054	-0.190467	-0.294805	-0.078836	-0.184251	-0.160217	-0.140439	
3.67737	0	0	-0.302718	-0.177505	-0.118011	-0.250743	-0.105806	-0.258222	-0.00657225	-0.2316	-0.117714	-0.0537757	0.0754468	-0.216144	-0.159361	-0.0790093	0.0794615	-0.246076	-0.161091	0.0088	-0.059677	-0.0954875	-0.129247	0.0173927	-0.245804	-0.151833	-0.0145485	-0.197821	-0.186815	-0.305127	-0.07637	-0.19122	-0.160217	-0.140439	
3.67432	0	0	-0.306814	-0.165929	-0.107129	-0.247449	-0.107456	-0.253559	-0.0028215	-0.229324	-0.123758	-0.0478975	0.0808715	-0.21685	-0.160347	-0.0762225	0.084362	-0.246482	-0.156675	0.007912	-0.055974	-0.092766	-0.125177	0.0166045	-0.23547	-0.162328	-0.007411	-0.204588	-0.183163	-0.315449	-0.073904	-0.198189	-0.160217	-0.140439	
3.67584	0	0	-0.31091	-0.154353	-0.0962457	-0.244154	-0.109105	-0.248897	0.00092925	-0.227048	-0.129802	-0.0420193	0.0862962	-0.217555	-0.161334	-0.0734357	0.0892625	-0.246887	-0.152258	0.007024	-0.052271	-0.0900445	-0.121108	0.0158163	-0.225137	-0.172823	-0.0002735	-0.211354	-0.17951	-0.325772	-0.071438	-0.205158	-0.160217	-0.140439	
3.66821	0	0	-0.315006	-0.142778	-0.085363	-0.24086	-0.110755	-0.244235	0.00468	-0.224772	-0.135846	-0.036141	0.091721	-0.218261	-0.16232	-0.070649	0.094163	-0.247293	-0.147842	0.006136	-0.048568	-0.087323	-0.117038	0.015028	-0.214803	-0.183318	0.006864	-0.218121	-0.175858	-0.336094	-0.068972	-0.212127	-0.160217	-0.140439	
3.66669	0	0	-0.317056	-0.136984	-0.0933607	-0.218256	-0.112406	-0.23957	0.00734425	-0.219417	-0.136734	-0.0336313	0.090414	-0.214567	-0.157957	-0.0713565	0.0915875	-0.240015	-0.148762	0.0087355	-0.0436785	-0.087946	-0.118761	0.0198975	-0.209629	-0.179212	0.006864	-0.218121	-0.173425	-0.342969	-0.06774	-0.215609	-0.165386	-0.144173	
3.66821	0	0	-0.319106	-0.131191	-0.101358	-0.195653	-0.114056	-0.234905	0.0100085	-0.214061	-0.137622	-0.0311215	0.089107	-0.210873	-0.153594	-0.072064	0.089012	-0.232737	-0.149681	0.011335	-0.038789	-0.088569	-0.120484	0.024767	-0.204456	-0.175105	0.006864	-0.218121	-0.170992	-0.349844	-0.066508	-0.219091	-0.170554	-0.147906	
3.66516	0	0	-0.321156	-0.125397	-0.109356	-0.173049	-0.115707	-0.230241	0.0126727	-0.208705	-0.13851	-0.0286117	0.0878	-0.207179	-0.149231	-0.0727715	0.0864365	-0.225458	-0.150601	0.0139345	-0.0338995	-0.089192	-0.122207	0.0296365	-0.199282	-0.170998	0.006864	-0.218121	-0.16856	-0.356719	-0.065276	-0.222574	-0.175723	-0.15164	
3.66211	0	0	-0.323206	-0.119604	-0.117354	-0.150446	-0.117357	-0.225576	0.015337	-0.20335	-0.139398	-0.026102	0.086493	-0.203485	-0.144868	-0.073479	0.083861	-0.21818	-0.151521	0.016534	-0.02901	-0.089815	-0.12393	0.034506	-0.194108	-0.166892	0.006864	-0.218121	-0.166127	-0.363594	-0.064044	-0.226056	-0.180892	-0.155374	
3.66363	0	0	-0.323206	-0.119604	-0.109508	-0.155573	-0.117357	-0.225576	0.0104957	-0.202553	-0.139398	-0.026102	0.0784538	-0.195391	-0.151204	-0.067195	0.0776737	-0.214137	-0.155937	0.0174212	-0.0350833	-0.0858467	-0.123068	0.0320708	-0.194108	-0.166892	-0.0002735	-0.211354	-0.160628	-0.364545	-0.064044	-0.226056	-0.172451	-0.16089	
3.65906	0	0	-0.323206	-0.119604	-0.101661	-0.1607	-0.117357	-0.225576	0.0056545	-0.201756	-0.139398	-0.026102	0.0704145	-0.187297	-0.15754	-0.060911	0.0714865	-0.210094	-0.160353	0.0183085	-0.0411565	-0.0818785	-0.122206	0.0296355	-0.194108	-0.166892	-0.007411	-0.204588	-0.155128	-0.365497	-0.064044	-0.226056	-0.164009	-0.166406	
3.656	0	0	-0.323206	-0.119604	-0.0938145	-0.165828	-0.117357	-0.225576	0.00081325	-0.200958	-0.139398	-0.026102	0.0623753	-0.179202	-0.163876	-0.054627	0.0652993	-0.206051	-0.16477	0.0191958	-0.0472298	-0.0779103	-0.121345	0.0272002	-0.194108	-0.166892	-0.0145485	-0.197821	-0.149628	-0.366448	-0.064044	-0.226056	-0.155567	-0.171922	
3.656	0	0	-0.323206	-0.119604	-0.085968	-0.170955	-0.117357	-0.225576	-0.004028	-0.200161	-0.139398	-0.026102	0.054336	-0.171108	-0.170212	-0.048343	0.059112	-0.202008	-0.169186	0.020083	-0.053303	-0.073942	-0.120483	0.024765	-0.194108	-0.166892	-0.021686	-0.191054	-0.144129	-0.367399	-0.064044	-0.226056	-0.147126	-0.177438	
3.65753	0	0	-0.319107	-0.131187	-0.0843668	-0.17548	-0.115707	-0.230241	-0.00777725	-0.202441	-0.144551	-0.0227348	0.0448105	-0.173404	-0.170212	-0.048343	0.0567915	-0.208883	-0.170842	0.013177	-0.0546398	-0.0833505	-0.12111	0.0158217	-0.199294	-0.189673	-0.021686	-0.191054	-0.153908	-0.368933	-0.064044	-0.226056	-0.155567	-0.171922	
3.66058	0	0	-0.315009	-0.14277	-0.0827655	-0.180005	-0.114056	-0.234905	-0.0115265	-0.204722	-0.149704	-0.0193675	0.035285	-0.1757	-0.170212	-0.048343	0.054471	-0.215759	-0.172498	0.006271	-0.0559765	-0.092759	-0.121736	0.0068785	-0.204481	-0.212454	-0.021686	-0.191054	-0.163687	-0.370466	-0.064044	-0.226056	-0.164009	-0.166406	
3.656	0	0	-0.31091	-0.154353	-0.0811642	-0.184531	-0.112406	-0.23957	-0.0152758	-0.207002	-0.154858	-0.0160003	0.0257595	-0.177996	-0.170212	-0.048343	0.0521505	-0.222634	-0.174155	-0.000635	-0.0573133	-0.102167	-0.122362	-0.00206475	-0.209668	-0.235234	-0.021686	-0.191054	-0.173466	-0.372	-0.064044	-0.226056	-0.172451	-0.16089	
3.656	0	0	-0.306812	-0.165936	-0.079563	-0.189056	-0.110755	-0.244235	-0.019025	-0.209282	-0.160011	-0.012633	0.016234	-0.180292	-0.170212	-0.048343	0.04983	-0.22951	-0.175811	-0.007541	-0.05865	-0.111576	-0.122989	-0.011008	-0.214854	-0.258015	-0.021686	-0.191054	-0.183245	-0.373534	-0.064044	-0.226056	-0.180892	-0.155374	
3.65753	0	0	-0.306812	-0.165936	-0.0779627	-0.193579	-0.110755	-0.244235	-0.0238592	-0.208487	-0.163385	-0.0142865	0.01213	-0.183285	-0.169226	-0.0511317	0.046224	-0.232742	-0.177468	-0.014437	-0.0599895	-0.120967	-0.127685	-0.0191463	-0.218341	-0.285523	-0.013581	-0.200556	-0.184524	-0.399044	-0.0669665	-0.234845	-0.181158	-0.172946	
3.66058	0	0	-0.306812	-0.165936	-0.0763625	-0.198102	-0.110755	-0.244235	-0.0286935	-0.207692	-0.16676	-0.01594	0.008026	-0.186277	-0.168239	-0.0539205	0.042618	-0.235974	-0.179125	-0.021333	-0.061329	-0.130358	-0.132381	-0.0272845	-0.221828	-0.31303	-0.005476	-0.210058	-0.185804	-0.424555	-0.069889	-0.243634	-0.181424	-0.190518	
3.656	0	0	-0.306812	-0.165936	-0.0747623	-0.202625	-0.110755	-0.244235	-0.0335278	-0.206897	-0.170134	-0.0175935	0.003922	-0.189269	-0.167252	-0.0567093	0.039012	-0.239207	-0.180783	-0.028229	-0.0626685	-0.13975	-0.137076	-0.0354228	-0.225316	-0.340538	0.002629	-0.219559	-0.187083	-0.450065	-0.0728115	-0.252423	-0.18169	-0.20809	
3.65753	0	0	-0.306812	-0.165936	-0.073162	-0.207148	-0.110755	-0.244235	-0.038362	-0.206102	-0.173509	-0.019247	-0.000182	-0.192262	-0.166266	-0.059498	0.035406	-0.242439	-0.18244	-0.035125	-0.064008	-0.149141	-0.141772	-0.043561	-0.228803	-0.368046	0.010734	-0.229061	-0.188362	-0.475575	-0.075734	-0.261212	-0.181956	-0.225662	
3.65448	0	0	-0.304764	-0.171722	-0.0747623	-0.202625	-0.109105	-0.248897	-0.0372745	-0.209176	-0.172621	-0.0217553	0.00242725	-0.199636	-0.165279	-0.0622858	0.0318022	-0.245668	-0.185015	-0.0394205	-0.0653502	-0.158515	-0.14818	-0.0468345	-0.22885	-0.386566	0.00649925	-0.230497	-0.193285	-0.49074	-0.072046	-0.271635	-0.183862	-0.23858	
3.66058	0	0	-0.302717	-0.177508	-0.0763625	-0.198102	-0.107456	-0.253559	-0.036187	-0.21225	-0.171734	-0.0242635	0.0050365	-0.207011	-0.164293	-0.0650735	0.0281985	-0.248898	-0.187589	-0.043716	-0.0666925	-0.167889	-0.154589	-0.050108	-0.228897	-0.405087	0.0022645	-0.231932	-0.198209	-0.505906	-0.068358	-0.282057	-0.185769	-0.251498	
3.66058	0	0	-0.300669	-0.183294	-0.0779627	-0.193579	-0.105806	-0.258222	-0.0350995	-0.215323	-0.170847	-0.0267718	0.00764575	-0.214386	-0.163306	-0.0678612	0.0245947	-0.252128	-0.190164	-0.0480115	-0.0680347	-0.177264	-0.160997	-0.0533815	-0.228944	-0.423608	-0.00197025	-0.233368	-0.203132	-0.521071	-0.06467	-0.29248	-0.187675	-0.264416	
3.65753	0	0	-0.298622	-0.18908	-0.079563	-0.189056	-0.104156	-0.262884	-0.034012	-0.218397	-0.169959	-0.02928	0.010255	-0.22176	-0.16232	-0.070649	0.020991	-0.255357	-0.192739	-0.052307	-0.069377	-0.186638	-0.167405	-0.056655	-0.228991	-0.442128	-0.006205	-0.234804	-0.208056	-0.536236	-0.060982	-0.302903	-0.189581	-0.277334	
3.66058	0	0	-0.305984	-0.193157	-0.082611	-0.197491	-0.110606	-0.265832	-0.0366698	-0.223745	-0.168185	-0.0342942	0.00484875	-0.22106	-0.16668	-0.0699425	0.0186727	-0.26221	-0.194397	-0.0591863	-0.0755972	-0.195366	-0.168035	-0.065558	-0.242727	-0.440559	-0.00427175	-0.240268	-0.204437	-0.546464	-0.0675933	-0.301252	-0.1847	-0.291126	
3.66058	0	0	-0.313346	-0.197234	-0.085659	-0.205925	-0.117056	-0.26878	-0.0393275	-0.229092	-0.166411	-0.0393085	-0.0005575	-0.220361	-0.17104	-0.069236	0.0163545	-0.269063	-0.196055	-0.0660655	-0.0818175	-0.204095	-0.168664	-0.074461	-0.256464	-0.43899	-0.0023385	-0.245732	-0.200818	-0.556692	-0.0742045	-0.299601	-0.17982	-0.304918	
3.65906	0	0	-0.320709	-0.201311	-0.088707	-0.21436	-0.123507	-0.271729	-0.0419853	-0.234439	-0.164636	-0.0443228	-0.00596375	-0.219661	-0.1754	-0.0685295	0.0140363	-0.275916	-0.197713	-0.0729448	-0.0880377	-0.212823	-0.169294	-0.083364	-0.2702	-0.437421	-0.00040525	-0.251196	-0.197199	-0.566919	-0.0808158	-0.29795	-0.174939	-0.318711	
3.66363	0	0	-0.328071	-0.205388	-0.091755	-0.222795	-0.129957	-0.274677	-0.044643	-0.239787	-0.162862	-0.049337	-0.01137	-0.218961	-0.17976	-0.067823	0.011718	-0.282769	-0.199371	-0.079824	-0.094258	-0.221551	-0.169924	-0.092267	-0.283936	-0.435852	0.001528	-0.25666	-0.19358	-0.577147	-0.087427	-0.296299	-0.170059	-0.332503	
3.66821	0	0	-0.326028	-0.211163	-0.094803	-0.231214	-0.129957	-0.274677	-0.0472998	-0.245128	-0.167122	-0.04848	-0.008764	-0.226326	-0.178774	-0.070609	0.0093995	-0.289612	-0.20103	-0.0866935	-0.100472	-0.23026	-0.174612	-0.100364	-0.287448	-0.463103	0.001528	-0.25666	-0.203328	-0.578631	-0.086199	-0.299769	-0.178476	-0.327004	
3.66974	0	0	-0.323985	-0.216938	-0.097851	-0.239633	-0.129957	-0.274677	-0.0499565	-0.250469	-0.171382	-0.047623	-0.006158	-0.233692	-0.177789	-0.073395	0.007081	-0.296455	-0.202689	-0.093563	-0.106686	-0.238968	-0.179301	-0.108462	-0.29096	-0.490355	0.001528	-0.25666	-0.213077	-0.580116	-0.084971	-0.303239	-0.186892	-0.321504	
3.67584	0	0	-0.321941	-0.222712	-0.100899	-0.248052	-0.129957	-0.274677	-0.0526133	-0.25581	-0.175643	-0.046766	-0.003552	-0.241058	-0.176803	-0.076181	0.0047625	-0.303297	-0.204348	-0.100432	-0.1129	-0.247676	-0.183989	-0.116559	-0.294472	-0.517606	0.001528	-0.25666	-0.222825	-0.5816	-0.083743	-0.30671	-0.195309	-0.316004	
3.67737	0	0	-0.319898	-0.228487	-0.103947	-0.256471	-0.129957	-0.274677	-0.05527	-0.261151	-0.179903	-0.045909	-0.000946	-0.248423	-0.175817	-0.078967	0.002444	-0.31014	-0.206007	-0.107302	-0.119114	-0.256385	-0.188677	-0.124656	-0.297984	-0.544857	0.001528	-0.25666	-0.232573	-0.583084	-0.082515	-0.31018	-0.203726	-0.310505	
3.67889	0	0	-0.317856	-0.234258	-0.100756	-0.265487	-0.138046	-0.272971	-0.054185	-0.264217	-0.177244	-0.053423	-0.00374575	-0.255078	-0.179189	-0.0810455	0.0001255	-0.316972	-0.207667	-0.114161	-0.119287	-0.269017	-0.185257	-0.134321	-0.3049	-0.562415	-0.00173925	-0.260821	-0.229627	-0.605909	-0.0788343	-0.320582	-0.204017	-0.327951	
3.68194	0	0	-0.315814	-0.240029	-0.097566	-0.274504	-0.146135	-0.271264	-0.0531	-0.267284	-0.174586	-0.060937	-0.0065455	-0.261734	-0.182561	-0.083124	-0.002193	-0.323805	-0.209327	-0.121021	-0.11946	-0.281648	-0.181837	-0.143986	-0.311816	-0.579972	-0.0050065	-0.264982	-0.226682	-0.628734	-0.0751535	-0.330985	-0.204309	-0.345396	
3.68805	0	0	-0.313772	-0.2458	-0.0943755	-0.28352	-0.154223	-0.269558	-0.052015	-0.27035	-0.171927	-0.068451	-0.00934525	-0.26839	-0.185933	-0.0852025	-0.0045115	-0.330638	-0.210987	-0.127881	-0.119633	-0.29428	-0.178418	-0.153652	-0.318731	-0.59753	-0.00827375	-0.269143	-0.223737	-0.65156	-0.0714728	-0.341388	-0.2046	-0.362842	
3.68957	0	0	-0.31173	-0.251571	-0.091185	-0.292536	-0.162312	-0.267851	-0.05093	-0.273416	-0.169268	-0.075965	-0.012145	-0.275045	-0.189305	-0.087281	-0.00683	-0.33747	-0.212647	-0.13474	-0.119806	-0.306912	-0.174998	-0.163317	-0.325647	-0.615087	-0.011541	-0.273304	-0.220791	-0.674385	-0.067792	-0.35179	-0.204892	-0.380288	
3.69415	0	0	-0.323167	-0.244097	-0.0849405	-0.293152	-0.162312	-0.267851	-0.045016	-0.27728	-0.169268	-0.075965	-0.00544	-0.279426	-0.18832	-0.0900642	-0.0006695	-0.341496	-0.211734	-0.137321	-0.123497	-0.309592	-0.179052	-0.162524	-0.323957	-0.619864	-0.002481	-0.285514	-0.215992	-0.687947	-0.0797728	-0.35195	-0.206813	-0.393109	
3.69263	0	0	-0.334605	-0.236624	-0.078696	-0.293767	-0.162312	-0.267851	-0.039102	-0.281145	-0.169268	-0.075965	0.001265	-0.283807	-0.187335	-0.0928475	0.005491	-0.345521	-0.21082	-0.139903	-0.127189	-0.312271	-0.183105	-0.161732	-0.322267	-0.624641	0.006579	-0.297725	-0.211193	-0.701509	-0.0917535	-0.352109	-0.208735	-0.405929	
3.6972	0	0	-0.346043	-0.229151	-0.0724515	-0.294382	-0.162312	-0.267851	-0.033188	-0.285009	-0.169268	-0.075965	0.00797	-0.288189	-0.18635	-0.0956308	0.0116515	-0.349546	-0.209906	-0.142485	-0.130881	-0.314951	-0.187159	-0.16094	-0.320576	-0.629418	0.015639	-0.309935	-0.206395	-0.715071	-0.103734	-0.352268	-0.210656	-0.41875	
3.69568	0	0	-0.35748	-0.221677	-0.066207	-0.294998	-0.162312	-0.267851	-0.027274	-0.288873	-0.169268	-0.075965	0.014675	-0.29257	-0.185365	-0.098414	0.017812	-0.353572	-0.208993	-0.145066	-0.134572	-0.31763	-0.191213	-0.160147	-0.318886	-0.634195	0.024699	-0.322145	-0.201596	-0.728633	-0.115715	-0.352428	-0.212578	-0.431571	
3.6972	0	0	-0.35748	-0.221677	-0.0740463	-0.289875	-0.162312	-0.267851	-0.0321035	-0.288074	-0.170154	-0.073461	0.012072	-0.285214	-0.185365	-0.098414	0.016532	-0.349954	-0.208993	-0.145066	-0.135743	-0.314319	-0.192068	-0.157732	-0.308576	-0.62623	0.0227692	-0.316691	-0.199721	-0.719432	-0.109115	-0.354079	-0.207415	-0.42791	
3.70331	0	0	-0.35748	-0.221677	-0.0818855	-0.284753	-0.162312	-0.267851	-0.036933	-0.287275	-0.17104	-0.070957	0.009469	-0.277857	-0.185365	-0.098414	0.015252	-0.346336	-0.208993	-0.145066	-0.136915	-0.311009	-0.192922	-0.155317	-0.298266	-0.618265	0.0208395	-0.311238	-0.197846	-0.71023	-0.102515	-0.35573	-0.202253	-0.424249	
3.70178	0	0	-0.35748	-0.221677	-0.0897247	-0.279631	-0.162312	-0.267851	-0.0417625	-0.286476	-0.171926	-0.068453	0.006866	-0.270501	-0.185365	-0.098414	0.013972	-0.342718	-0.208993	-0.145066	-0.138087	-0.307698	-0.193776	-0.152903	-0.287956	-0.6103	0.0189097	-0.305784	-0.19597	-0.701029	-0.095915	-0.357381	-0.197091	-0.420587	
3.70026	0	0	-0.35748	-0.221677	-0.097564	-0.274508	-0.162312	-0.267851	-0.046592	-0.285677	-0.172812	-0.065949	0.004263	-0.263145	-0.185365	-0.098414	0.012692	-0.3391	-0.208993	-0.145066	-0.139258	-0.304387	-0.194631	-0.150488	-0.277646	-0.602335	0.01698	-0.30033	-0.194095	-0.691828	-0.089315	-0.359032	-0.191928	-0.416926	
3.70331	0	0	-0.35748	-0.221677	-0.103802	-0.273897	-0.170391	-0.266149	-0.046592	-0.285677	-0.172812	-0.065949	0.0109735	-0.26753	-0.184381	-0.101197	0.0078115	-0.338693	-0.209906	-0.142485	-0.133223	-0.30833	-0.194631	-0.150488	-0.28273	-0.587965	0.0140832	-0.292143	-0.189147	-0.676777	-0.0797755	-0.351942	-0.190005	-0.404092	
3.70026	0	0	-0.35748	-0.221677	-0.110039	-0.273286	-0.178469	-0.264447	-0.046592	-0.285677	-0.172812	-0.065949	0.017684	-0.271915	-0.183396	-0.10398	0.002931	-0.338285	-0.21082	-0.139903	-0.127188	-0.312273	-0.194631	-0.150488	-0.287815	-0.573596	0.0111865	-0.283956	-0.1842	-0.661725	-0.070236	-0.344851	-0.188082	-0.391258	
3.70331	0	0	-0.35748	-0.221677	-0.116277	-0.272676	-0.186548	-0.262745	-0.046592	-0.285677	-0.172812	-0.065949	0.0243945	-0.276299	-0.182412	-0.106762	-0.0019495	-0.337877	-0.211734	-0.137321	-0.121154	-0.316217	-0.194631	-0.150488	-0.2929	-0.559227	0.00828975	-0.275769	-0.179252	-0.646674	-0.0606965	-0.337761	-0.186158	-0.378423	
3.69873	0	0	-0.35748	-0.221677	-0.122515	-0.272065	-0.194626	-0.261043	-0.046592	-0.285677	-0.172812	-0.065949	0.031105	-0.280684	-0.181427	-0.109545	-0.00683	-0.33747	-0.212647	-0.13474	-0.115119	-0.32016	-0.194631	-0.150488	-0.297984	-0.544857	0.005393	-0.267582	-0.174305	-0.631623	-0.051157	-0.33067	-0.184235	-0.365589	
3.69568	0	0	-0.35748	-0.221677	-0.12411	-0.267558	-0.186548	-0.262745	-0.0487615	-0.279546	-0.173698	-0.0634445	0.031105	-0.280684	-0.187751	-0.103274	-0.0006695	-0.341496	-0.213561	-0.132158	-0.112597	-0.314167	-0.196341	-0.145657	-0.297984	-0.544857	0.005393	-0.267582	-0.178582	-0.634057	-0.0565423	-0.332484	-0.192644	-0.360095	
3.70026	0	0	-0.35748	-0.221677	-0.125704	-0.263051	-0.178469	-0.264447	-0.050931	-0.273414	-0.174585	-0.06094	0.031105	-0.280684	-0.194075	-0.097002	0.005491	-0.345521	-0.214475	-0.129576	-0.110074	-0.308173	-0.19805	-0.140825	-0.297984	-0.544857	0.005393	-0.267582	-0.18286	-0.636491	-0.0619275	-0.334298	-0.201052	-0.3546	
3.69873	0	0	-0.35748	-0.221677	-0.127299	-0.258544	-0.170391	-0.266149	-0.0531005	-0.267283	-0.175471	-0.0584355	0.031105	-0.280684	-0.200399	-0.0907305	0.0116515	-0.349546	-0.215388	-0.126993	-0.107552	-0.30218	-0.19976	-0.135994	-0.297984	-0.544857	0.005393	-0.267582	-0.187137	-0.638925	-0.0673128	-0.336111	-0.20946	-0.349106	
3.70331	0	0	-0.35748	-0.221677	-0.128894	-0.254037	-0.162312	-0.267851	-0.05527	-0.261151	-0.176357	-0.055931	0.031105	-0.280684	-0.206723	-0.084459	0.017812	-0.353572	-0.216302	-0.124411	-0.10503	-0.296187	-0.201469	-0.131163	-0.297984	-0.544857	0.005393	-0.267582	-0.191414	-0.641359	-0.072698	-0.337925	-0.217869	-0.343612	
3.69415	0	0	-0.361565	-0.210131	-0.119609	-0.246227	-0.163959	-0.263196	-0.0526133	-0.25581	-0.17387	-0.0517758	0.0271965	-0.269638	-0.204339	-0.079595	0.01397	-0.342714	-0.214643	-0.117549	-0.102508	-0.290185	-0.195927	-0.12549	-0.289366	-0.532037	0.00442675	-0.264852	-0.187137	-0.638925	-0.0739247	-0.334457	-0.211084	-0.344518	
3.6972	0	0	-0.365651	-0.198586	-0.110325	-0.238416	-0.165606	-0.258541	-0.0499565	-0.250469	-0.171384	-0.0476205	0.023288	-0.258592	-0.201956	-0.074731	0.010128	-0.331856	-0.212984	-0.110686	-0.0999855	-0.284183	-0.190385	-0.119816	-0.280747	-0.519217	0.0034605	-0.262121	-0.18286	-0.636491	-0.0751515	-0.33099	-0.204299	-0.345425	
3.69263	0	0	-0.369737	-0.18704	-0.10104	-0.230605	-0.167254	-0.253886	-0.0472998	-0.245128	-0.168897	-0.0434652	0.0193795	-0.247546	-0.199572	-0.069867	0.006286	-0.320998	-0.211325	-0.103823	-0.0974633	-0.278182	-0.184844	-0.114143	-0.272128	-0.506397	0.00249425	-0.25939	-0.178582	-0.634057	-0.0763782	-0.327522	-0.197514	-0.346331	
3.68957	0	0	-0.373822	-0.175494	-0.091755	-0.222795	-0.168901	-0.249231	-0.044643	-0.239787	-0.16641	-0.03931	0.015471	-0.2365	-0.197188	-0.065003	0.002444	-0.31014	-0.209666	-0.096961	-0.094941	-0.27218	-0.179302	-0.10847	-0.26351	-0.493577	0.001528	-0.25666	-0.174305	-0.631623	-0.077605	-0.324055	-0.190729	-0.347237	
3.69263	0	0	-0.375866	-0.169716	-0.0949533	-0.213756	-0.170549	-0.244573	-0.0468163	-0.233645	-0.174219	-0.028422	0.0169678	-0.226139	-0.19916	-0.05943	0.0021955	-0.296043	-0.208924	-0.0874995	-0.089895	-0.260152	-0.179529	-0.0971517	-0.251415	-0.471854	-0.00233975	-0.245729	-0.163866	-0.617487	-0.0734492	-0.318767	-0.190442	-0.329761	
3.6911	0	0	-0.377911	-0.163937	-0.0981515	-0.204717	-0.172197	-0.239916	-0.0489895	-0.227503	-0.182029	-0.017534	0.0184645	-0.215778	-0.201132	-0.053857	0.001947	-0.281946	-0.208182	-0.078038	-0.084849	-0.248123	-0.179756	-0.0858335	-0.23932	-0.450132	-0.0062075	-0.234798	-0.153427	-0.603352	-0.0692935	-0.313479	-0.190155	-0.312285	
3.6911	0	0	-0.379956	-0.158158	-0.10135	-0.195678	-0.173844	-0.235259	-0.0511627	-0.221361	-0.189838	-0.006646	0.0199612	-0.205417	-0.203103	-0.048284	0.0016985	-0.267848	-0.207441	-0.0685765	-0.079803	-0.236095	-0.179983	-0.0745153	-0.227226	-0.428409	-0.0100753	-0.223867	-0.142989	-0.589217	-0.0651377	-0.308191	-0.189868	-0.29481	
3.68652	0	0	-0.382	-0.15238	-0.104548	-0.186639	-0.175492	-0.230601	-0.053336	-0.215219	-0.197648	0.004242	0.021458	-0.195056	-0.205075	-0.042711	0.00145	-0.253751	-0.206699	-0.059115	-0.074757	-0.224067	-0.18021	-0.063197	-0.215131	-0.406686	-0.013943	-0.212936	-0.13255	-0.575081	-0.060982	-0.302903	-0.189581	-0.277334	
3.68805	0	0	-0.382	-0.15238	-0.112388	-0.181516	-0.175492	-0.230601	-0.0544232	-0.212146	-0.192501	0.00087875	0.021458	-0.195056	-0.206062	-0.0399233	0.00633525	-0.254153	-0.204126	-0.0548218	-0.0673515	-0.21867	-0.178725	-0.0567105	-0.211666	-0.397808	-0.00547225	-0.210057	-0.141014	-0.551161	-0.0592845	-0.290652	-0.182506	-0.260701	
3.68652	0	0	-0.382	-0.15238	-0.120227	-0.176394	-0.175492	-0.230601	-0.0555105	-0.209074	-0.187354	-0.0024845	0.021458	-0.195056	-0.207048	-0.0371355	0.0112205	-0.254554	-0.201553	-0.0505285	-0.059946	-0.213272	-0.17724	-0.050224	-0.2082	-0.388929	0.0029985	-0.207178	-0.149477	-0.527241	-0.057587	-0.278401	-0.17543	-0.244067	
3.68194	0	0	-0.382	-0.15238	-0.128066	-0.171271	-0.175492	-0.230601	-0.0565978	-0.206002	-0.182207	-0.00584775	0.021458	-0.195056	-0.208035	-0.0343477	0.0161057	-0.254956	-0.19898	-0.0462352	-0.0525405	-0.207875	-0.175755	-0.0437375	-0.204734	-0.380051	0.0114692	-0.204299	-0.15794	-0.503322	-0.0558895	-0.26615	-0.168355	-0.227434	
3.68042	0	0	-0.382	-0.15238	-0.135906	-0.166149	-0.175492	-0.230601	-0.057685	-0.202929	-0.17706	-0.009211	0.021458	-0.195056	-0.209021	-0.03156	0.020991	-0.255357	-0.196407	-0.041942	-0.045135	-0.202478	-0.17427	-0.037251	-0.201269	-0.371173	0.01994	-0.20142	-0.166404	-0.479402	-0.054192	-0.253899	-0.16128	-0.210801	
3.67737	0	0	-0.374656	-0.148285	-0.13287	-0.157696	-0.177141	-0.225941	-0.0550308	-0.197572	-0.179725	-0.00168	0.0175383	-0.183978	-0.206639	-0.0266827	0.0233087	-0.248494	-0.200077	-0.0315698	-0.0449693	-0.18977	-0.172786	-0.0307557	-0.199517	-0.357432	0.0127972	-0.194648	-0.16091	-0.480361	-0.056655	-0.246938	-0.159378	-0.197836	
3.67737	0	0	-0.367312	-0.144191	-0.129834	-0.149243	-0.17879	-0.221282	-0.0523765	-0.192215	-0.182389	0.005851	0.0136185	-0.172901	-0.204258	-0.0218055	0.0256265	-0.24163	-0.203747	-0.0211975	-0.0448035	-0.177062	-0.171303	-0.0242605	-0.197765	-0.343691	0.0056545	-0.187876	-0.155416	-0.48132	-0.059118	-0.239978	-0.157475	-0.184872	
3.67279	0	0	-0.359967	-0.140097	-0.126799	-0.140789	-0.180439	-0.216622	-0.0497222	-0.186857	-0.185054	0.013382	0.00969875	-0.161823	-0.201876	-0.0169282	0.0279443	-0.234766	-0.207417	-0.0108253	-0.0446377	-0.164354	-0.169819	-0.0177653	-0.196014	-0.329951	-0.00148825	-0.181103	-0.149922	-0.482279	-0.061581	-0.233017	-0.155573	-0.171907	
3.67126	0	0	-0.352623	-0.136002	-0.123763	-0.132336	-0.182088	-0.211962	-0.047068	-0.1815	-0.187719	0.020913	0.005779	-0.150745	-0.199494	-0.012051	0.030262	-0.227903	-0.211087	-0.000453	-0.044472	-0.151646	-0.168335	-0.01127	-0.194262	-0.31621	-0.008631	-0.174331	-0.144428	-0.483238	-0.064044	-0.226056	-0.15367	-0.158943	
3.66821	0	0	-0.358773	-0.118622	-0.120908	-0.106292	-0.183737	-0.2073	-0.051425	-0.169186	-0.190386	0.0284505	0.00857525	-0.144045	-0.199089	-0.00157925	0.036186	-0.217788	-0.205945	0.0081655	-0.0406065	-0.136188	-0.161303	0.00096075	-0.189056	-0.293485	-0.00439575	-0.172886	-0.146851	-0.47639	-0.059888	-0.220737	-0.148495	-0.15521	
3.66363	0	0	-0.364923	-0.101242	-0.118053	-0.0802475	-0.185387	-0.202638	-0.055782	-0.156872	-0.193053	0.035988	0.0113715	-0.137345	-0.198684	0.0088925	0.04211	-0.207672	-0.200802	0.016784	-0.036741	-0.120731	-0.154271	0.0131915	-0.18385	-0.270759	-0.0001605	-0.171442	-0.149275	-0.469541	-0.055732	-0.215417	-0.143319	-0.151477	
3.66516	0	0	-0.371072	-0.0838612	-0.115198	-0.0542033	-0.187036	-0.197975	-0.060139	-0.144559	-0.19572	0.0435255	0.0141677	-0.130645	-0.19828	0.0193642	0.048034	-0.197557	-0.19566	0.0254025	-0.0328755	-0.105273	-0.147239	0.0254223	-0.178644	-0.248034	0.00407475	-0.169997	-0.151698	-0.462693	-0.051576	-0.210098	-0.138144	-0.147744	
3.66211	0	0	-0.377222	-0.066481	-0.112343	-0.028159	-0.188686	-0.193313	-0.064496	-0.132245	-0.198387	0.051063	0.016964	-0.123945	-0.197875	0.029836	0.053958	-0.187442	-0.190518	0.034021	-0.02901	-0.089815	-0.140207	0.037653	-0.173438	-0.225309	0.00831	-0.168552	-0.154121	-0.455844	-0.04742	-0.204779	-0.132968	-0.144011	
3.66058	0	0	-0.367822	-0.0681635	-0.107702	-0.0241967	-0.188686	-0.193313	-0.0655862	-0.129164	-0.199277	0.0535767	0.0130345	-0.112839	-0.199854	0.0354283	0.0513795	-0.180155	-0.190708	0.0461448	-0.0239623	-0.0776615	-0.141313	0.0514905	-0.168243	-0.202477	0.00539975	-0.160327	-0.146762	-0.447472	-0.0432615	-0.199452	-0.125888	-0.127249	
3.65906	0	0	-0.358422	-0.069846	-0.10306	-0.0202345	-0.188686	-0.193313	-0.0666765	-0.126082	-0.200166	0.0560905	0.009105	-0.101734	-0.201832	0.0410205	0.048801	-0.172868	-0.190898	0.0582685	-0.0189145	-0.065508	-0.142418	0.065328	-0.163048	-0.179644	0.0024895	-0.152103	-0.139402	-0.439101	-0.039103	-0.194125	-0.118807	-0.110487	
3.65753	0	0	-0.349021	-0.0715285	-0.0984185	-0.0162722	-0.188686	-0.193313	-0.0677668	-0.123001	-0.201055	0.0586042	0.0051755	-0.0906285	-0.203811	0.0466128	0.0462225	-0.16558	-0.191088	0.0703923	-0.0138668	-0.0533545	-0.143523	0.0791655	-0.157853	-0.156812	-0.00042075	-0.143878	-0.132043	-0.430729	-0.0349445	-0.188798	-0.111727	-0.0937243	
3.65906	0	0	-0.339621	-0.073211	-0.093777	-0.01231	-0.188686	-0.193313	-0.068857	-0.11992	-0.201945	0.061118	0.001246	-0.079523	-0.20579	0.052205	0.043644	-0.158293	-0.191278	0.082516	-0.008819	-0.041201	-0.144629	0.093003	-0.152658	-0.13398	-0.003331	-0.135653	-0.124683	-0.422357	-0.030786	-0.183471	-0.104646	-0.076962	
3.65295	0	0	-0.341675	-0.0674063	-0.0875198	-0.0128982	-0.190337	-0.188648	-0.0699475	-0.116838	-0.202835	0.0636328	-0.005475	-0.0751315	-0.203411	0.0571043	0.0410635	-0.151	-0.188707	0.0868437	-0.011193	-0.0344915	-0.142286	0.0971002	-0.150931	-0.138861	-0.0043015	-0.13291	-0.130184	-0.4214	-0.032021	-0.17998	-0.10629	-0.0723167	
3.65448	0	0	-0.343729	-0.0616015	-0.0812625	-0.0134865	-0.191987	-0.183984	-0.071038	-0.113756	-0.203725	0.0661475	-0.012196	-0.07074	-0.201032	0.0620035	0.038483	-0.143707	-0.186136	0.0911715	-0.013567	-0.027782	-0.139942	0.101197	-0.149203	-0.143743	-0.005272	-0.130166	-0.135686	-0.420443	-0.033256	-0.17649	-0.107933	-0.0676715	
3.64838	0	0	-0.345783	-0.0557967	-0.0750052	-0.0140748	-0.193638	-0.179319	-0.0721285	-0.110674	-0.204614	0.0686623	-0.018917	-0.0663485	-0.198653	0.0669028	0.0359025	-0.136413	-0.183564	0.0954993	-0.015941	-0.0210725	-0.137598	0.105295	-0.147476	-0.148624	-0.0062425	-0.127423	-0.141187	-0.419487	-0.034491	-0.173	-0.109576	-0.0630263	
3.65143	0	0	-0.347837	-0.049992	-0.068748	-0.014663	-0.195289	-0.174654	-0.073219	-0.107592	-0.205504	0.071177	-0.025638	-0.061957	-0.196274	0.071802	0.033322	-0.12912	-0.180993	0.099827	-0.018315	-0.014363	-0.135255	0.109392	-0.145749	-0.153506	-0.007213	-0.12468	-0.146688	-0.41853	-0.035726	-0.169509	-0.11122	-0.058381	
3.65448	0	0	-0.340481	-0.0458648	-0.0657105	-0.00613625	-0.198593	-0.165317	-0.0646445	-0.106081	-0.208175	0.078725	-0.020228	-0.0626437	-0.199247	0.0802045	0.0369265	-0.125864	-0.178421	0.10416	-0.0157935	-0.00826575	-0.134641	0.118382	-0.144023	-0.158385	-0.008184	-0.121936	-0.150972	-0.421005	-0.0332563	-0.176489	-0.11122	-0.058381	
3.64838	0	0	-0.333124	-0.0417375	-0.062673	0.0023905	-0.201896	-0.155981	-0.05607	-0.10457	-0.210845	0.086273	-0.014818	-0.0633305	-0.20222	0.088607	0.040531	-0.122608	-0.175849	0.108492	-0.013272	-0.0021685	-0.134026	0.127371	-0.142296	-0.163264	-0.009155	-0.119192	-0.155255	-0.423479	-0.0307865	-0.183468	-0.11122	-0.058381	
3.64532	0	0	-0.325768	-0.0376102	-0.0596355	0.0109172	-0.205199	-0.146644	-0.0474955	-0.10306	-0.213516	0.093821	-0.009408	-0.0640172	-0.205194	0.0970095	0.0441355	-0.119351	-0.173278	0.112824	-0.0107505	0.00392875	-0.133412	0.136361	-0.14057	-0.168142	-0.010126	-0.116448	-0.159538	-0.425953	-0.0283167	-0.190448	-0.11122	-0.058381	
3.64838	0	0	-0.318412	-0.033483	-0.056598	0.019444	-0.208503	-0.137307	-0.038921	-0.101549	-0.216187	0.101369	-0.003998	-0.064704	-0.208167	0.105412	0.04774	-0.116095	-0.170706	0.117157	-0.008229	0.010026	-0.132798	0.145351	-0.138844	-0.173021	-0.011097	-0.113704	-0.163822	-0.428428	-0.025847	-0.197428	-0.11122	-0.058381	
3.64532	0	0	-0.308986	-0.0351705	-0.0535605	0.027987	-0.190673	-0.145366	-0.035175	-0.09925	-0.21886	0.108924	-0.0066215	-0.0572895	-0.206783	0.11313	0.043862	-0.105135	-0.174399	0.127596	-0.0117975	0.0201113	-0.131321	0.151908	-0.13538	-0.164026	-0.0068615	-0.112251	-0.157111	-0.432813	-0.0283167	-0.190448	-0.10439	-0.059271	
3.6438	0	0	-0.299561	-0.036858	-0.050523	0.03653	-0.172844	-0.153424	-0.031429	-0.096951	-0.221533	0.116478	-0.009245	-0.049875	-0.205398	0.120848	0.039984	-0.094175	-0.178093	0.138035	-0.015366	0.0301965	-0.129843	0.158464	-0.131915	-0.155031	-0.002626	-0.110797	-0.150401	-0.437198	-0.0307865	-0.183468	-0.0975595	-0.060161	
3.64227	0	0	-0.290135	-0.0385455	-0.0474855	0.045073	-0.155014	-0.161483	-0.027683	-0.094652	-0.224206	0.124033	-0.0118685	-0.0424605	-0.204014	0.128567	0.036106	-0.083215	-0.181787	0.148474	-0.0189345	0.0402818	-0.128365	0.165021	-0.128451	-0.146037	0.0016095	-0.109343	-0.14369	-0.441582	-0.0332563	-0.176489	-0.0907292	-0.061051	
3.6438	0	0	-0.28071	-0.040233	-0.044448	0.053616	-0.137185	-0.169541	-0.023937	-0.092353	-0.226879	0.131587	-0.014492	-0.035046	-0.20263	0.136285	0.032228	-0.072255	-0.18548	0.158913	-0.022503	0.050367	-0.126888	0.171577	-0.124987	-0.137042	0.005845	-0.10789	-0.13698	-0.445967	-0.035726	-0.169509	-0.083899	-0.061941	
3.64685	0	0	-0.290135	-0.0385455	-0.0490997	0.0496352	-0.146932	-0.163172	-0.0298675	-0.088478	-0.221729	0.128222	-0.00776575	-0.039441	-0.198267	0.135591	0.032228	-0.072255	-0.187329	0.164137	-0.0187937	0.0531173	-0.12862	0.176473	-0.128446	-0.127266	0.0029285	-0.0996475	-0.13512	-0.436632	-0.031566	-0.16417	-0.0803543	-0.0535267	
3.6438	0	0	-0.299561	-0.036858	-0.0537515	0.0456545	-0.156678	-0.156803	-0.035798	-0.084603	-0.216579	0.124857	-0.0010395	-0.043836	-0.193904	0.134898	0.032228	-0.072255	-0.189177	0.169361	-0.0150845	0.0558675	-0.130353	0.18137	-0.131906	-0.117489	1.2E-05	-0.091405	-0.133261	-0.427296	-0.027406	-0.158832	-0.0768095	-0.0451125	
3.63922	0	0	-0.308986	-0.0351705	-0.0584033	0.0416737	-0.166425	-0.150434	-0.0417285	-0.080728	-0.211429	0.121491	0.00568675	-0.048231	-0.18954	0.134204	0.032228	-0.072255	-0.191025	0.174585	-0.0113752	0.0586177	-0.132085	0.186266	-0.135365	-0.107713	-0.0029045	-0.0831625	-0.131402	-0.417961	-0.023246	-0.153494	-0.0732648	-0.0366983	
3.6438	0	0	-0.318412	-0.033483	-0.063055	0.037693	-0.176172	-0.144065	-0.047659	-0.076853	-0.206279	0.118126	0.012413	-0.052626	-0.185177	0.13351	0.032228	-0.072255	-0.192874	0.179809	-0.007666	0.061368	-0.133818	0.191162	-0.138824	-0.097937	-0.005821	-0.07492	-0.129542	-0.408625	-0.019086	-0.148155	-0.06972	-0.028284	
3.63922	0	0	-0.318412	-0.033483	-0.0614408	0.0331308	-0.168079	-0.145759	-0.048752	-0.0737645	-0.20717	0.120646	0.013725	-0.056334	-0.18617	0.136317	0.032228	-0.072255	-0.187531	0.176318	-0.007666	0.061368	-0.133818	0.191162	-0.142283	-0.106948	-0.0048485	-0.0776682	-0.132615	-0.414531	-0.008738	-0.160289	-0.07491	-0.0320483	
3.64075	0	0	-0.318412	-0.033483	-0.0598265	0.0285685	-0.159987	-0.147454	-0.049845	-0.070676	-0.208062	0.123165	0.015037	-0.060042	-0.187164	0.139124	0.032228	-0.072255	-0.182188	0.172827	-0.007666	0.061368	-0.133818	0.191162	-0.145741	-0.115958	-0.003876	-0.0804165	-0.135687	-0.420438	0.00161	-0.172423	-0.0801	-0.0358125	
3.63617	0	0	-0.318412	-0.033483	-0.0582123	0.0240062	-0.151894	-0.149149	-0.050938	-0.0675875	-0.208954	0.125685	0.016349	-0.06375	-0.188157	0.141932	0.032228	-0.072255	-0.176846	0.169336	-0.007666	0.061368	-0.133818	0.191162	-0.149199	-0.124969	-0.0029035	-0.0831648	-0.13876	-0.426345	0.011958	-0.184556	-0.08529	-0.0395767	
3.63922	0	0	-0.318412	-0.033483	-0.056598	0.019444	-0.143801	-0.150843	-0.052031	-0.064499	-0.209845	0.128204	0.017661	-0.067458	-0.18915	0.144739	0.032228	-0.072255	-0.171503	0.165845	-0.007666	0.061368	-0.133818	0.191162	-0.152658	-0.13398	-0.001931	-0.085913	-0.141833	-0.432251	0.022306	-0.19669	-0.09048	-0.043341	
3.63769	0	0	-0.322529	-0.021847	-0.0614433	0.0331377	-0.145456	-0.146166	-0.0493813	-0.059102	-0.207368	0.1324	0.0150365	-0.0600405	-0.186772	0.149663	0.040733	-0.069376	-0.173353	0.171072	-0.010049	0.068103	-0.131476	0.195282	-0.152658	-0.13398	-0.0029035	-0.0831648	-0.144905	-0.438149	0.0156662	-0.195036	-0.09048	-0.043341	
3.63769	0	0	-0.326646	-0.010211	-0.0662885	0.0468315	-0.147111	-0.141489	-0.0467315	-0.053705	-0.204891	0.136596	0.012412	-0.052623	-0.184395	0.154587	0.049238	-0.066497	-0.175202	0.176299	-0.012432	0.074838	-0.129134	0.199402	-0.152658	-0.13398	-0.003876	-0.0804165	-0.147977	-0.444048	0.0090265	-0.193382	-0.09048	-0.043341	
3.63617	0	0	-0.330764	0.001425	-0.0711338	0.0605252	-0.148765	-0.136812	-0.0440817	-0.048308	-0.202413	0.140791	0.0097875	-0.0452055	-0.182017	0.159512	0.057743	-0.063618	-0.177052	0.181526	-0.014815	0.081573	-0.126792	0.203521	-0.152658	-0.13398	-0.0048485	-0.0776682	-0.151049	-0.449946	0.00238675	-0.191728	-0.09048	-0.043341	
3.63617	0	0	-0.334881	0.013061	-0.075979	0.074219	-0.15042	-0.132135	-0.041432	-0.042911	-0.199936	0.144987	0.007163	-0.037788	-0.179639	0.164436	0.066248	-0.060739	-0.178902	0.186753	-0.017198	0.088308	-0.12445	0.207641	-0.152658	-0.13398	-0.005821	-0.07492	-0.154121	-0.455844	-0.004253	-0.190074	-0.09048	-0.043341	
3.63464	0	0	-0.336942	0.0188845	-0.0666783	0.0822037	-0.153732	-0.122774	-0.0436213	-0.036724	-0.196565	0.146663	0.0112675	-0.034763	-0.181628	0.170058	0.0698575	-0.0574675	-0.177258	0.193723	-0.013488	0.0910655	-0.123844	0.216672	-0.142276	-0.125732	-0.001584	-0.073461	-0.145547	-0.450904	0.00115075	-0.188235	-0.08529	-0.0395768	
3.63464	0	0	-0.339002	0.024708	-0.0573775	0.0901885	-0.157045	-0.113412	-0.0458105	-0.030537	-0.193194	0.14834	0.015372	-0.031738	-0.183617	0.17568	0.073467	-0.054196	-0.175615	0.200693	-0.009778	0.093823	-0.123237	0.225703	-0.131893	-0.117484	0.002653	-0.072002	-0.136973	-0.445964	0.0065545	-0.186395	-0.0801	-0.0358125	
3.63464	0	0	-0.341062	0.0305315	-0.0480768	0.0981733	-0.160358	-0.104051	-0.0479997	-0.02435	-0.189823	0.150016	0.0194765	-0.028713	-0.185607	0.181302	0.0770765	-0.0509245	-0.173971	0.207664	-0.006068	0.0965805	-0.122631	0.234734	-0.121511	-0.109237	0.00689	-0.070543	-0.1284	-0.441023	0.0119583	-0.184556	-0.07491	-0.0320483	
3.63312	0	0	-0.343123	0.036355	-0.038776	0.106158	-0.16367	-0.09469	-0.050189	-0.018163	-0.186452	0.151692	0.023581	-0.025688	-0.187596	0.186924	0.080686	-0.047653	-0.172327	0.214634	-0.002358	0.099338	-0.122025	0.243765	-0.111129	-0.100989	0.011127	-0.069084	-0.119826	-0.436083	0.017362	-0.182717	-0.06972	-0.028284	
3.63464	0	0	-0.341062	0.0305315	-0.0434285	0.102163	-0.16367	-0.09469	-0.050189	-0.018163	-0.186452	0.151692	0.0248948	-0.0294005	-0.187596	0.186924	0.073189	-0.0399375	-0.173253	0.217252	-0.009646	0.106692	-0.121157	0.241311	-0.126699	-0.0945765	0.008206	-0.0608288	-0.124686	-0.422349	0.013651	-0.172229	-0.0661748	-0.019853	
3.63617	0	0	-0.339002	0.024708	-0.048081	0.0981685	-0.16367	-0.09469	-0.050189	-0.018163	-0.186452	0.151692	0.0262085	-0.033113	-0.187596	0.186924	0.065692	-0.032222	-0.174179	0.219869	-0.016934	0.114047	-0.120288	0.238858	-0.142269	-0.088164	0.005285	-0.0525735	-0.129546	-0.408615	0.00994	-0.161741	-0.0626295	-0.011422	
3.63617	0	0	-0.336942	0.0188845	-0.0527335	0.0941738	-0.16367	-0.09469	-0.050189	-0.018163	-0.186452	0.151692	0.0275223	-0.0368255	-0.187596	0.186924	0.058195	-0.0245065	-0.175106	0.222487	-0.024222	0.121402	-0.11942	0.236404	-0.157838	-0.0817515	0.002364	-0.0443183	-0.134405	-0.394881	0.006229	-0.151253	-0.0590842	-0.002991	
3.63922	0	0	-0.334881	0.013061	-0.057386	0.090179	-0.16367	-0.09469	-0.050189	-0.018163	-0.186452	0.151692	0.028836	-0.040538	-0.187596	0.186924	0.050698	-0.016791	-0.176032	0.225105	-0.03151	0.128756	-0.118552	0.23395	-0.173408	-0.075339	-0.000557	-0.036063	-0.139265	-0.381147	0.002518	-0.140765	-0.055539	0.00544	
3.63312	0	0	-0.336942	0.0188845	-0.0511142	0.0895975	-0.165327	-0.0900057	-0.0453495	-0.018946	-0.187345	0.154216	0.028836	-0.040538	-0.188591	0.189737	0.0568985	-0.0208428	-0.176958	0.227724	-0.0254153	0.124774	-0.120289	0.238858	-0.171678	-0.0802285	-0.000557	-0.036063	-0.142335	-0.387061	0.002518	-0.140765	-0.0538892	0.00077775	
3.63617	0	0	-0.339002	0.024708	-0.0448425	0.089016	-0.166985	-0.0853215	-0.04051	-0.019729	-0.188238	0.156739	0.028836	-0.040538	-0.189586	0.192549	0.063099	-0.0248945	-0.177885	0.230343	-0.0193205	0.120791	-0.122026	0.243766	-0.169948	-0.085118	-0.000557	-0.036063	-0.145405	-0.392976	0.002518	-0.140765	-0.0522395	-0.0038845	
3.63464	0	0	-0.341062	0.0305315	-0.0385708	0.0884345	-0.168642	-0.0806373	-0.0356705	-0.020512	-0.189131	0.159263	0.028836	-0.040538	-0.190581	0.195361	0.0692995	-0.0289462	-0.178812	0.232961	-0.0132258	0.116808	-0.123762	0.248675	-0.168217	-0.0900075	-0.000557	-0.036063	-0.148475	-0.39889	0.002518	-0.140765	-0.0505897	-0.00854675	
3.63769	0	0	-0.343123	0.036355	-0.032299	0.087853	-0.170299	-0.075953	-0.030831	-0.021295	-0.190024	0.161787	0.028836	-0.040538	-0.191576	0.198174	0.0755	-0.032998	-0.179738	0.23558	-0.007131	0.112826	-0.125499	0.253583	-0.166487	-0.094897	-0.000557	-0.036063	-0.151545	-0.404804	0.002518	-0.140765	-0.04894	-0.013209	
3.63769	0	0	-0.356653	0.049676	-0.038781	0.106172	-0.171958	-0.0712663	-0.0400532	-0.00812575	-0.191811	0.166837	0.0329448	-0.0375132	-0.193567	0.203801	0.0778127	-0.026052	-0.181592	0.240819	-0.010713	0.12295	-0.123158	0.257717	-0.15438	-0.091525	0.004656	-0.0373525	-0.144829	-0.409192	0.002518	-0.140765	-0.0456432	-0.0225263	
3.63464	0	0	-0.370183	0.062997	-0.045263	0.124491	-0.173616	-0.0665795	-0.0492755	0.0050435	-0.193598	0.171886	0.0370535	-0.0344885	-0.195558	0.209428	0.0801255	-0.019106	-0.183446	0.246059	-0.014295	0.133073	-0.120816	0.261852	-0.142272	-0.088153	0.009869	-0.038642	-0.138114	-0.413581	0.002518	-0.140765	-0.0423465	-0.0318435	
3.63464	0	0	-0.383714	0.076318	-0.051745	0.14281	-0.175274	-0.0618928	-0.0584978	0.0182127	-0.195384	0.176936	0.0411622	-0.0314637	-0.19755	0.215056	0.0824383	-0.01216	-0.1853	0.251298	-0.017877	0.143197	-0.118475	0.265986	-0.130164	-0.084781	0.015082	-0.0399315	-0.131399	-0.417969	0.002518	-0.140765	-0.0390498	-0.0411608	
3.63312	0	0	-0.397244	0.089639	-0.058227	0.161129	-0.176933	-0.057206	-0.06772	0.031382	-0.197171	0.181986	0.045271	-0.028439	-0.199541	0.220683	0.084751	-0.005214	-0.187154	0.256537	-0.021459	0.15332	-0.116134	0.27012	-0.118057	-0.081409	0.020295	-0.041221	-0.124683	-0.422357	0.002518	-0.140765	-0.035753	-0.050478	
3.63464	0	0	-0.397244	0.089639	-0.0549845	0.151965	-0.175274	-0.0618928	-0.0714583	0.0290618	-0.197171	0.181986	0.0439563	-0.0247232	-0.194178	0.217179	0.0834525	-0.00154425	-0.182732	0.255663	-0.0238492	0.160075	-0.117873	0.275035	-0.124994	-0.061803	0.0183458	-0.0357118	-0.117314	-0.413966	0.00792425	-0.138917	-0.0321992	-0.0420527	
3.63464	0	0	-0.397244	0.089639	-0.051742	0.1428	-0.173616	-0.0665795	-0.0751965	0.0267415	-0.197171	0.181986	0.0426415	-0.0210075	-0.188815	0.213674	0.082154	0.0021255	-0.17831	0.254788	-0.0262395	0.16683	-0.119613	0.27995	-0.131932	-0.042197	0.0163965	-0.0302025	-0.109945	-0.405575	0.0133305	-0.137068	-0.0286455	-0.0336275	
3.63312	0	0	-0.397244	0.089639	-0.0484995	0.133636	-0.171958	-0.0712663	-0.0789347	0.0244212	-0.197171	0.181986	0.0413267	-0.0172918	-0.183453	0.21017	0.0808555	0.00579525	-0.173887	0.253914	-0.0286297	0.173586	-0.121352	0.284865	-0.138869	-0.022591	0.0144473	-0.0246932	-0.102576	-0.397184	0.0187367	-0.13522	-0.0250918	-0.0252023	
3.63312	0	0	-0.397244	0.089639	-0.045257	0.124472	-0.170299	-0.075953	-0.082673	0.022101	-0.197171	0.181986	0.040012	-0.013576	-0.17809	0.206666	0.079557	0.009465	-0.169465	0.253039	-0.03102	0.180341	-0.123091	0.28978	-0.145807	-0.002985	0.012498	-0.019184	-0.095207	-0.388793	0.024143	-0.133372	-0.021538	-0.016777	
3.63312	0	0	-0.395182	0.0838115	-0.0436368	0.119894	-0.170299	-0.075953	-0.0837688	0.0251982	-0.192905	0.181141	0.040012	-0.013576	-0.179086	0.209481	0.079557	0.009465	-0.171321	0.258283	-0.03102	0.180341	-0.123961	0.292238	-0.150991	-0.00713825	0.012498	-0.019184	-0.106221	-0.386881	0.0162603	-0.128221	-0.021538	-0.016777	
3.63006	0	0	-0.39312	0.077984	-0.0420165	0.115315	-0.170299	-0.075953	-0.0848645	0.0282955	-0.18864	0.180295	0.040012	-0.013576	-0.180082	0.212296	0.079557	0.009465	-0.173177	0.263527	-0.03102	0.180341	-0.124831	0.294697	-0.156175	-0.0112915	0.012498	-0.019184	-0.117236	-0.38497	0.0083775	-0.12307	-0.021538	-0.016777	
3.63006	0	0	-0.391058	0.0721565	-0.0403962	0.110737	-0.170299	-0.075953	-0.0859602	0.0313927	-0.184374	0.17945	0.040012	-0.013576	-0.181078	0.215111	0.079557	0.009465	-0.175032	0.268771	-0.03102	0.180341	-0.125701	0.297156	-0.161359	-0.0154448	0.012498	-0.019184	-0.12825	-0.383059	0.00049475	-0.11792	-0.021538	-0.016777	
3.62701	0	0	-0.388996	0.066329	-0.038776	0.106158	-0.170299	-0.075953	-0.087056	0.03449	-0.180108	0.178605	0.040012	-0.013576	-0.182074	0.217926	0.079557	0.009465	-0.176888	0.274015	-0.03102	0.180341	-0.126571	0.299614	-0.166543	-0.019598	0.012498	-0.019184	-0.139265	-0.381147	-0.007388	-0.112769	-0.021538	-0.016777	
3.62701	0	0	-0.37959	0.064663	-0.0357417	0.11474	-0.171958	-0.0712663	-0.077384	0.0329345	-0.181896	0.183659	0.040012	-0.013576	-0.184067	0.223559	0.083168	0.0127517	-0.177816	0.276638	-0.0261168	0.179735	-0.12249	0.298838	-0.156155	-0.0301532	0.0115228	-0.016428	-0.136834	-0.388016	0.00173325	-0.12142	-0.0283885	-0.015885	
3.62701	0	0	-0.370183	0.062997	-0.0327075	0.123323	-0.173616	-0.0665795	-0.067712	0.031379	-0.183685	0.188713	0.040012	-0.013576	-0.18606	0.229191	0.086779	0.0160385	-0.178744	0.279261	-0.0212135	0.179129	-0.11841	0.298063	-0.145766	-0.0407085	0.0105475	-0.013672	-0.134404	-0.394886	0.0108545	-0.130071	-0.035239	-0.014993	
3.63006	0	0	-0.360777	0.061331	-0.0296732	0.131906	-0.175274	-0.0618928	-0.05804	0.0298235	-0.185474	0.193767	0.040012	-0.013576	-0.188053	0.234824	0.09039	0.0193253	-0.179672	0.281885	-0.0163102	0.178524	-0.114329	0.297287	-0.135378	-0.0512637	0.00957225	-0.010916	-0.131973	-0.401756	0.0199758	-0.138722	-0.0420895	-0.014101	
3.62244	0	0	-0.351371	0.059665	-0.026639	0.140488	-0.176933	-0.057206	-0.048368	0.028268	-0.187262	0.198821	0.040012	-0.013576	-0.190046	0.240457	0.094001	0.022612	-0.1806	0.284508	-0.011407	0.177918	-0.110248	0.296511	-0.124989	-0.061819	0.008597	-0.00816	-0.129542	-0.408625	0.029097	-0.147373	-0.04894	-0.013209	
3.62244	0	0	-0.362839	0.0671585	-0.029885	0.149662	-0.176933	-0.057206	-0.0553995	0.0352462	-0.188157	0.201349	0.044123	-0.0105455	-0.191043	0.243275	0.090099	0.0336398	-0.182457	0.289756	-0.0138	0.184681	-0.107906	0.300656	-0.130193	-0.0471105	0.0147887	-0.012206	-0.127684	-0.399272	0.0357485	-0.149028	-0.0505897	-0.00854675	
3.62701	0	0	-0.374308	0.074652	-0.033131	0.158836	-0.176933	-0.057206	-0.062431	0.0422245	-0.189051	0.203877	0.048234	-0.007515	-0.19204	0.246092	0.086197	0.0446675	-0.184314	0.295005	-0.016193	0.191444	-0.105564	0.304801	-0.135398	-0.032402	0.0209805	-0.016252	-0.125827	-0.389919	0.0424	-0.150683	-0.0522395	-0.0038845	
3.62244	0	0	-0.385776	0.0821455	-0.036377	0.168009	-0.176933	-0.057206	-0.0694625	0.0492028	-0.189946	0.206406	0.052345	-0.0044845	-0.193037	0.24891	0.082295	0.0556953	-0.186172	0.300254	-0.018586	0.198207	-0.103222	0.308945	-0.140602	-0.0176935	0.0271722	-0.020298	-0.123969	-0.380566	0.0490515	-0.152339	-0.0538892	0.00077775	
3.62701	0	0	-0.397244	0.089639	-0.039623	0.177183	-0.176933	-0.057206	-0.076494	0.056181	-0.19084	0.208934	0.056456	-0.001454	-0.194034	0.251728	0.078393	0.066723	-0.188029	0.305502	-0.020979	0.20497	-0.10088	0.31309	-0.145807	-0.002985	0.033364	-0.024344	-0.122112	-0.371213	0.055703	-0.153994	-0.055539	0.00544	
3.62396	0	0	-0.395182	0.0838115	-0.0426523	0.168586	-0.176933	-0.057206	-0.0694625	0.0492028	-0.19084	0.208934	0.0577717	-0.00517275	-0.194034	0.251728	0.0796943	0.0630455	-0.188029	0.305502	-0.020979	0.20497	-0.104963	0.313866	-0.152726	-0.0022355	0.0294603	-0.0133118	-0.119038	-0.365286	0.0428543	-0.134824	-0.051993	0.0138873	
3.62244	0	0	-0.39312	0.077984	-0.0456815	0.15999	-0.176933	-0.057206	-0.062431	0.0422245	-0.19084	0.208934	0.0590875	-0.0088915	-0.194034	0.251728	0.0809955	0.059368	-0.188029	0.305502	-0.020979	0.20497	-0.109046	0.314642	-0.159644	-0.001486	0.0255565	-0.0022795	-0.115964	-0.359358	0.0300055	-0.115654	-0.048447	0.0223345	
3.62244	0	0	-0.391058	0.0721565	-0.0487107	0.151393	-0.176933	-0.057206	-0.0553995	0.0352462	-0.19084	0.208934	0.0604033	-0.0126102	-0.194034	0.251728	0.0822968	0.0556905	-0.188029	0.305502	-0.020979	0.20497	-0.113129	0.315417	-0.166563	-0.0007365	0.0216527	0.00875275	-0.112891	-0.35343	0.0171567	-0.0964847	-0.044901	0.0307818	
3.62396	0	0	-0.388996	0.066329	-0.05174	0.142796	-0.176933	-0.057206	-0.048368	0.028268	-0.19084	0.208934	0.061719	-0.016329	-0.194034	0.251728	0.083598	0.052013	-0.188029	0.305502	-0.020979	0.20497	-0.117212	0.316193	-0.173482	1.3E-05	0.017749	0.019785	-0.109817	-0.347503	0.004308	-0.077315	-0.041355	0.039229	
3.62091	0	0	-0.377528	0.0588355	-0.043843	0.137636	-0.167175	-0.0635823	-0.0435265	0.027488	-0.19084	0.208934	0.064349	-0.0237617	-0.194034	0.251728	0.0848988	0.048337	-0.1871	0.302878	-0.0258815	0.205573	-0.115471	0.311273	-0.178659	-0.0041405	0.0187255	0.0170257	-0.112891	-0.35343	0.00678825	-0.084325	-0.0380513	0.0298923	
3.62396	0	0	-0.366059	0.051342	-0.035946	0.132475	-0.157417	-0.0699585	-0.038685	0.026708	-0.19084	0.208934	0.066979	-0.0311945	-0.194034	0.251728	0.0861995	0.044661	-0.186171	0.300253	-0.030784	0.206177	-0.11373	0.306352	-0.183837	-0.008294	0.019702	0.0142665	-0.115964	-0.359358	0.0092685	-0.091335	-0.0347475	0.0205555	
3.62244	0	0	-0.354591	0.0438485	-0.028049	0.127315	-0.147659	-0.0763348	-0.0338435	0.025928	-0.19084	0.208934	0.069609	-0.0386273	-0.194034	0.251728	0.0875003	0.040985	-0.185243	0.297628	-0.0356865	0.20678	-0.111989	0.301432	-0.189014	-0.0124475	0.0206785	0.0115073	-0.119038	-0.365286	0.0117487	-0.098345	-0.0314437	0.0112187	
3.62091	0	0	-0.343123	0.036355	-0.020152	0.122155	-0.137901	-0.082711	-0.029002	0.025148	-0.19084	0.208934	0.072239	-0.04606	-0.194034	0.251728	0.088801	0.037309	-0.184314	0.295004	-0.040589	0.207383	-0.110248	0.296511	-0.194191	-0.016601	0.021655	0.008748	-0.122112	-0.371213	0.014229	-0.105355	-0.02814	0.001882	
3.62091	0	0	-0.356653	0.049676	-0.017115	0.130747	-0.149318	-0.0716455	-0.036038	0.0321297	-0.187467	0.210619	0.0750405	-0.0393172	-0.190663	0.25386	0.0911115	0.0442808	-0.180819	0.296756	-0.0368837	0.210163	-0.11286	0.303893	-0.189014	-0.0124475	0.021655	0.008748	-0.114169	-0.379046	0.014229	-0.105355	-0.0264895	-0.00278275	
3.61786	0	0	-0.370183	0.062997	-0.014078	0.139339	-0.160736	-0.06058	-0.043074	0.0391115	-0.184094	0.212304	0.077842	-0.0325745	-0.187291	0.255991	0.093422	0.0512525	-0.177324	0.298509	-0.0331785	0.212944	-0.115472	0.311275	-0.183837	-0.008294	0.021655	0.008748	-0.106227	-0.386879	0.014229	-0.105355	-0.024839	-0.0074475	
3.61938	0	0	-0.383714	0.076318	-0.011041	0.147931	-0.172153	-0.0495145	-0.05011	0.0460933	-0.180722	0.213989	0.0806435	-0.0258317	-0.18392	0.258122	0.0957325	0.0582243	-0.173829	0.300262	-0.0294732	0.215724	-0.118083	0.318656	-0.178659	-0.0041405	0.021655	0.008748	-0.0982838	-0.394712	0.014229	-0.105355	-0.0231885	-0.0121123	
3.61786	0	0	-0.397244	0.089639	-0.008004	0.156523	-0.18357	-0.038449	-0.057146	0.053075	-0.177349	0.215674	0.083445	-0.019089	-0.180549	0.260254	0.098043	0.065196	-0.170334	0.302014	-0.025768	0.218504	-0.120695	0.326038	-0.173482	1.3E-05	0.021655	0.008748	-0.090341	-0.402545	0.014229	-0.105355	-0.021538	-0.016777	
3.61633	0	0	-0.397244	0.089639	-0.0142852	0.1571	-0.18357	-0.038449	-0.057146	0.053075	-0.182511	0.219047	0.0753813	-0.01096	-0.186913	0.266581	0.0905265	0.072937	-0.176616	0.308138	-0.0269655	0.221889	-0.121566	0.3285	-0.180431	0.0196515	0.0249212	0.0129797	-0.089697	-0.38974	0.0105077	-0.094838	-0.00781425	-0.0185702	
3.61633	0	0	-0.397244	0.089639	-0.0205665	0.157677	-0.18357	-0.038449	-0.057146	0.053075	-0.187674	0.222421	0.0673175	-0.002831	-0.193277	0.272907	0.08301	0.080678	-0.182898	0.314261	-0.028163	0.225274	-0.122438	0.330962	-0.18738	0.03929	0.0281875	0.0172115	-0.089053	-0.376934	0.0067865	-0.084321	0.0059095	-0.0203635	
3.61328	0	0	-0.397244	0.089639	-0.0268478	0.158254	-0.18357	-0.038449	-0.057146	0.053075	-0.192837	0.225794	0.0592538	0.005298	-0.199641	0.279234	0.0754935	0.088419	-0.18918	0.320385	-0.0293605	0.228658	-0.123309	0.333423	-0.194329	0.0589285	0.0314538	0.0214432	-0.088409	-0.364128	0.00306525	-0.073804	0.0196332	-0.0221567	
3.61175	0	0	-0.397244	0.089639	-0.033129	0.158831	-0.18357	-0.038449	-0.057146	0.053075	-0.197999	0.229167	0.05119	0.013427	-0.206005	0.285561	0.067977	0.09616	-0.195462	0.326509	-0.030558	0.232043	-0.12418	0.335885	-0.201278	0.078567	0.03472	0.025675	-0.087765	-0.351323	-0.000656	-0.063287	0.033357	-0.02395	
3.61175	0	0	-0.395182	0.0838115	-0.0315065	0.154245	-0.18357	-0.038449	-0.0560485	0.0499737	-0.198895	0.231698	0.0525065	0.00970675	-0.200639	0.282054	0.0692793	0.0924795	-0.194533	0.323883	-0.0293605	0.228658	-0.123309	0.333423	-0.20124	0.0596752	0.035697	0.022914	-0.0975687	-0.352856	0.008475	-0.0719495	0.0264912	-0.0230517	
3.6087	0	0	-0.39312	0.077984	-0.029884	0.14966	-0.18357	-0.038449	-0.054951	0.0468725	-0.19979	0.234228	0.053823	0.0059865	-0.195273	0.278548	0.0705815	0.088799	-0.193603	0.321257	-0.028163	0.225274	-0.122438	0.330962	-0.201203	0.0407835	0.036674	0.020153	-0.107373	-0.354389	0.017606	-0.080612	0.0196255	-0.0221535	
3.61023	0	0	-0.391058	0.0721565	-0.0282615	0.145074	-0.18357	-0.038449	-0.0538535	0.0437712	-0.200686	0.236759	0.0551395	0.00226625	-0.189907	0.275042	0.0718837	0.0851185	-0.192674	0.31863	-0.0269655	0.221889	-0.121566	0.3285	-0.201165	0.0218918	0.037651	0.017392	-0.117176	-0.355922	0.026737	-0.0892745	0.0127598	-0.0212552	
3.6087	0	0	-0.388996	0.066329	-0.026639	0.140488	-0.18357	-0.038449	-0.052756	0.04067	-0.201581	0.239289	0.056456	-0.001454	-0.184541	0.271535	0.073186	0.081438	-0.191745	0.316004	-0.025768	0.218504	-0.120695	0.326038	-0.201127	0.003	0.038628	0.014631	-0.12698	-0.357455	0.035868	-0.097937	0.005894	-0.020357	
3.6087	0	0	-0.37959	0.064663	-0.020357	0.139909	-0.173812	-0.0448252	-0.0490125	0.0429935	-0.196418	0.235916	0.056456	-0.001454	-0.186538	0.277178	0.078098	0.081058	-0.191745	0.316004	-0.0245707	0.21512	-0.119824	0.323577	-0.19766	-0.00679775	0.0458052	0.00781925	-0.12762	-0.370248	0.0371082	-0.101443	-0.0078145	-0.01857	
3.6087	0	0	-0.370183	0.062997	-0.014075	0.139329	-0.164054	-0.0512015	-0.045269	0.045317	-0.191256	0.232542	0.056456	-0.001454	-0.188534	0.282822	0.08301	0.080678	-0.191745	0.316004	-0.0233735	0.211737	-0.118953	0.321115	-0.194194	-0.0165955	0.0529825	0.0010075	-0.128261	-0.38304	0.0383485	-0.104949	-0.021523	-0.016783	
3.60565	0	0	-0.360777	0.061331	-0.007793	0.13875	-0.154295	-0.0575777	-0.0415255	0.0476405	-0.186093	0.229168	0.056456	-0.001454	-0.190531	0.288466	0.087922	0.080298	-0.191745	0.316004	-0.0221763	0.208354	-0.118083	0.318654	-0.190727	-0.0263933	0.0601597	-0.00580425	-0.128902	-0.395833	0.0395887	-0.108454	-0.0352315	-0.014996	
3.60412	0	0	-0.351371	0.059665	-0.001511	0.138171	-0.144537	-0.063954	-0.037782	0.049964	-0.18093	0.225795	0.056456	-0.001454	-0.192528	0.294109	0.092834	0.079918	-0.191745	0.316004	-0.020979	0.20497	-0.117212	0.316193	-0.18726	-0.036191	0.067337	-0.012616	-0.129542	-0.408625	0.040829	-0.11196	-0.04894	-0.013209	
3.60107	0	0	-0.351371	0.059665	-0.0047585	0.147349	-0.144537	-0.063954	-0.0437208	0.0538443	-0.181826	0.228326	0.0538225	0.00598825	-0.193527	0.296932	0.088924	0.0909685	-0.185463	0.309881	-0.020979	0.20497	-0.113129	0.315417	-0.180347	-0.036943	0.0663602	-0.009856	-0.124036	-0.409583	0.0316987	-0.103299	-0.0404397	-0.0187633	
3.60412	0	0	-0.351371	0.059665	-0.008006	0.156528	-0.144537	-0.063954	-0.0496595	0.0577245	-0.182721	0.230857	0.051189	0.0134305	-0.194526	0.299755	0.085014	0.102019	-0.179181	0.303758	-0.020979	0.20497	-0.109046	0.314642	-0.173434	-0.037695	0.0653835	-0.007096	-0.11853	-0.41054	0.0225685	-0.0946375	-0.0319395	-0.0243175	
3.59802	0	0	-0.351371	0.059665	-0.0112535	0.165707	-0.144537	-0.063954	-0.0555983	0.0616047	-0.183617	0.233388	0.0485555	0.0208727	-0.195525	0.302578	0.081104	0.113069	-0.1729	0.297635	-0.020979	0.20497	-0.104963	0.313866	-0.16652	-0.038447	0.0644067	-0.004336	-0.113025	-0.411498	0.0134382	-0.0859763	-0.0234393	-0.0298718	
3.60107	0	0	-0.351371	0.059665	-0.014501	0.174885	-0.144537	-0.063954	-0.061537	0.065485	-0.184512	0.235919	0.045922	0.028315	-0.196524	0.305401	0.077194	0.12412	-0.166618	0.291512	-0.020979	0.20497	-0.10088	0.31309	-0.159607	-0.039199	0.06343	-0.001576	-0.107519	-0.412455	0.004308	-0.077315	-0.014939	-0.035426	
3.59955	0	0	-0.360777	0.061331	-0.0207815	0.17546	-0.144537	-0.063954	-0.0555983	0.0616047	-0.188779	0.236761	0.047239	0.024593	-0.194526	0.299756	0.073587	0.120812	-0.171042	0.292385	-0.0197823	0.201588	-0.104092	0.311405	-0.16652	-0.038447	0.0614758	0.003947	-0.111167	-0.402145	0.0242755	-0.0822705	-0.00973075	-0.0316587	
3.59497	0	0	-0.370183	0.062997	-0.027062	0.176034	-0.144537	-0.063954	-0.0496595	0.0577245	-0.193047	0.237604	0.048556	0.020871	-0.192529	0.29411	0.06998	0.117504	-0.175466	0.293258	-0.0185855	0.198206	-0.107304	0.30972	-0.173434	-0.037695	0.0595215	0.00947	-0.114816	-0.391834	0.044243	-0.087226	-0.0045225	-0.0278915	
3.59192	0	0	-0.37959	0.064663	-0.0333425	0.176609	-0.144537	-0.063954	-0.0437208	0.0538443	-0.197314	0.238447	0.049873	0.017149	-0.190532	0.288465	0.066373	0.114196	-0.17989	0.294131	-0.0173888	0.194824	-0.110517	0.308036	-0.180347	-0.036943	0.0575673	0.014993	-0.118464	-0.381524	0.0642105	-0.0921815	0.00068575	-0.0241242	
3.59192	0	0	-0.388996	0.066329	-0.039623	0.177183	-0.144537	-0.063954	-0.037782	0.049964	-0.201581	0.239289	0.05119	0.013427	-0.188534	0.28282	0.062766	0.110888	-0.184314	0.295004	-0.016192	0.191442	-0.113729	0.306351	-0.18726	-0.036191	0.055613	0.020516	-0.122112	-0.371213	0.084178	-0.097137	0.005894	-0.020357	
3.59344	0	0	-0.388996	0.066329	-0.039623	0.177183	-0.144537	-0.063954	-0.0437208	0.0538443	-0.200686	0.236759	0.0525065	0.00970675	-0.188534	0.28282	0.0640688	0.107206	-0.187807	0.293252	-0.019899	0.188667	-0.111118	0.298973	-0.190704	-0.0452238	0.0575673	0.014993	-0.122755	-0.383999	0.0775153	-0.0954818	0.00068575	-0.0241242	
3.59192	0	0	-0.388996	0.066329	-0.039623	0.177183	-0.144537	-0.063954	-0.0496595	0.0577245	-0.19979	0.234228	0.053823	0.0059865	-0.188534	0.28282	0.0653715	0.103524	-0.1913	0.2915	-0.023606	0.185891	-0.108508	0.291596	-0.194148	-0.0542565	0.0595215	0.00947	-0.123397	-0.396785	0.0708525	-0.0938265	-0.0045225	-0.0278915	
3.58887	0	0	-0.388996	0.066329	-0.039623	0.177183	-0.144537	-0.063954	-0.0555983	0.0616047	-0.198895	0.231698	0.0551395	0.00226625	-0.188534	0.28282	0.0666742	0.099842	-0.194792	0.289749	-0.027313	0.183116	-0.105898	0.284218	-0.197592	-0.0632892	0.0614758	0.003947	-0.12404	-0.409571	0.0641898	-0.0921712	-0.00973075	-0.0316587	
3.58734	0	0	-0.388996	0.066329	-0.039623	0.177183	-0.144537	-0.063954	-0.061537	0.065485	-0.197999	0.229167	0.056456	-0.001454	-0.188534	0.28282	0.067977	0.09616	-0.198285	0.287997	-0.03102	0.180341	-0.103287	0.27684	-0.201036	-0.072322	0.06343	-0.001576	-0.124683	-0.422357	0.057527	-0.090516	-0.014939	-0.035426	
3.58887	0	0	-0.393121	0.0779877	-0.0349677	0.181201	-0.146197	-0.0592622	-0.058894	0.0709188	-0.198895	0.231698	0.0551395	0.00226625	-0.194899	0.289149	0.071585	0.099465	-0.192936	0.284502	-0.0298247	0.176963	-0.103287	0.27684	-0.199307	-0.0772087	0.065383	-0.0070955	-0.127757	-0.42826	0.0533525	-0.095877	-0.00999525	-0.0493982	
3.58734	0	0	-0.397247	0.0896465	-0.0303125	0.18522	-0.147858	-0.0545705	-0.056251	0.0763525	-0.19979	0.234228	0.053823	0.0059865	-0.201263	0.295477	0.075193	0.10277	-0.187586	0.281006	-0.0286295	0.173585	-0.103287	0.27684	-0.197578	-0.0820955	0.067336	-0.012615	-0.130831	-0.434162	0.049178	-0.101238	-0.0050515	-0.0633705	
3.58734	0	0	-0.401372	0.101305	-0.0256572	0.189238	-0.149518	-0.0498787	-0.053608	0.0817863	-0.200686	0.236759	0.0525065	0.00970675	-0.207628	0.301806	0.078801	0.106075	-0.182237	0.27751	-0.0274343	0.170206	-0.103287	0.27684	-0.195849	-0.0869823	0.069289	-0.0181345	-0.133906	-0.440064	0.0450035	-0.106599	-0.00010775	-0.0773427	
3.58734	0	0	-0.405497	0.112964	-0.021002	0.193256	-0.151178	-0.045187	-0.050965	0.08722	-0.201581	0.239289	0.05119	0.013427	-0.213993	0.308134	0.082409	0.10938	-0.176888	0.274015	-0.026239	0.166828	-0.103287	0.27684	-0.19412	-0.091869	0.071242	-0.023654	-0.13698	-0.445967	0.040829	-0.11196	0.004836	-0.091315	
3.58276	0	0	-0.403434	0.107133	-0.0289065	0.198421	-0.151178	-0.045187	-0.0569038	0.0911003	-0.202477	0.24182	0.055303	0.0164635	-0.213993	0.308134	0.0761947	0.11344	-0.176888	0.274015	-0.026239	0.166828	-0.103287	0.27684	-0.188942	-0.0877365	0.0702658	-0.0208945	-0.131478	-0.446926	0.047486	-0.113615	0.001541	-0.0820027	
3.57818	0	0	-0.40137	0.101301	-0.036811	0.203586	-0.151178	-0.045187	-0.0628425	0.0949805	-0.203372	0.24435	0.059416	0.0195	-0.213993	0.308134	0.0699805	0.117501	-0.176888	0.274015	-0.026239	0.166828	-0.103287	0.27684	-0.183764	-0.083604	0.0692895	-0.018135	-0.125975	-0.447885	0.054143	-0.115269	-0.001754	-0.0726905	
3.57971	0	0	-0.399307	0.0954702	-0.0447155	0.208751	-0.151178	-0.045187	-0.0687812	0.0988607	-0.204268	0.246881	0.063529	0.0225365	-0.213993	0.308134	0.0637662	0.121562	-0.176888	0.274015	-0.026239	0.166828	-0.103287	0.27684	-0.178586	-0.0794715	0.0683132	-0.0153755	-0.120473	-0.448845	0.0608	-0.116923	-0.005049	-0.0633782	
3.57818	0	0	-0.397244	0.089639	-0.05262	0.213916	-0.151178	-0.045187	-0.07472	0.102741	-0.205163	0.249412	0.067642	0.025573	-0.213993	0.308134	0.057552	0.125622	-0.176888	0.274015	-0.026239	0.166828	-0.103287	0.27684	-0.173408	-0.075339	0.067337	-0.012616	-0.114971	-0.449804	0.067457	-0.118578	-0.008344	-0.054066	
3.57818	0	0	-0.395182	0.0838115	-0.0493707	0.204733	-0.159276	-0.0435025	-0.07472	0.102741	-0.204268	0.246881	0.056787	0.026942	-0.212994	0.305312	0.0601582	0.118257	-0.179454	0.269645	-0.0299445	0.164058	-0.104761	0.270248	-0.182033	-0.0884778	0.0663602	-0.009856	-0.114971	-0.449804	0.066216	-0.115071	-0.008344	-0.054066	
3.57666	0	0	-0.39312	0.077984	-0.0461215	0.195549	-0.167374	-0.041818	-0.07472	0.102741	-0.203372	0.24435	0.045932	0.028311	-0.211996	0.30249	0.0627645	0.110891	-0.182021	0.265276	-0.03365	0.161288	-0.106235	0.263655	-0.190658	-0.101616	0.0653835	-0.007096	-0.114971	-0.449804	0.064975	-0.111564	-0.008344	-0.054066	
3.57513	0	0	-0.391058	0.0721565	-0.0428723	0.186366	-0.175472	-0.0401335	-0.07472	0.102741	-0.202477	0.24182	0.035077	0.02968	-0.210997	0.299668	0.0653707	0.103525	-0.184587	0.260907	-0.0373555	0.158517	-0.107708	0.257063	-0.199282	-0.114755	0.0644067	-0.004336	-0.114971	-0.449804	0.063734	-0.108057	-0.008344	-0.054066	
3.57361	0	0	-0.388996	0.066329	-0.039623	0.177183	-0.18357	-0.038449	-0.07472	0.102741	-0.201581	0.239289	0.024222	0.031049	-0.209998	0.296846	0.067977	0.09616	-0.187154	0.256537	-0.041061	0.155747	-0.109182	0.250471	-0.207907	-0.127894	0.06343	-0.001576	-0.114971	-0.449804	0.062493	-0.10455	-0.008344	-0.054066	
3.57208	0	0	-0.398388	0.067989	-0.039623	0.177183	-0.18523	-0.0337575	-0.0758193	0.105848	-0.201581	0.239289	0.0255385	0.0273287	-0.209	0.294025	0.0630697	0.096537	-0.188793	0.249555	-0.0374802	0.145627	-0.105708	0.240654	-0.216521	-0.140989	0.065383	-0.0070955	-0.122335	-0.458162	0.0649742	-0.111563	-0.0203947	-0.056928	
3.57361	0	0	-0.40778	0.069649	-0.039623	0.177183	-0.18689	-0.029066	-0.0769185	0.108955	-0.201581	0.239289	0.026855	0.0236085	-0.208002	0.291204	0.0581625	0.096914	-0.190433	0.242572	-0.0338995	0.135508	-0.102235	0.230838	-0.225135	-0.154083	0.067336	-0.012615	-0.129699	-0.466521	0.0674555	-0.118576	-0.0324455	-0.05979	
3.57208	0	0	-0.417173	0.071309	-0.039623	0.177183	-0.18855	-0.0243745	-0.0780177	0.112062	-0.201581	0.239289	0.0281715	0.0198882	-0.207003	0.288382	0.0532553	0.097291	-0.192072	0.23559	-0.0303188	0.125388	-0.0987615	0.221022	-0.233748	-0.167178	0.069289	-0.0181345	-0.137064	-0.47488	0.0699367	-0.125588	-0.0444963	-0.062652	
3.57361	0	0	-0.426565	0.072969	-0.039623	0.177183	-0.19021	-0.019683	-0.079117	0.115169	-0.201581	0.239289	0.029488	0.016168	-0.206005	0.285561	0.048348	0.097668	-0.193711	0.228607	-0.026738	0.115268	-0.095288	0.211205	-0.242362	-0.180273	0.071242	-0.023654	-0.144428	-0.483238	0.072418	-0.132601	-0.056547	-0.065514	
3.56903	0	0	-0.428625	0.0787925	-0.0428723	0.186366	-0.19021	-0.019683	-0.0813168	0.121386	-0.201581	0.239289	0.0268545	0.02361	-0.211368	0.289065	0.0470455	0.101349	-0.193711	0.228607	-0.0316358	0.115877	-0.096156	0.213658	-0.235472	-0.181034	0.0722182	-0.0264125	-0.142007	-0.490081	0.072418	-0.132601	-0.0447652	-0.0803605	
3.57056	0	0	-0.430686	0.084616	-0.0461215	0.195549	-0.19021	-0.019683	-0.0835165	0.127603	-0.201581	0.239289	0.024221	0.031052	-0.216731	0.29257	0.045743	0.105029	-0.193711	0.228607	-0.0365335	0.116486	-0.097024	0.216111	-0.228582	-0.181795	0.0731945	-0.029171	-0.139585	-0.496924	0.072418	-0.132601	-0.0329835	-0.095207	
3.5675	0	0	-0.432747	0.0904395	-0.0493707	0.204733	-0.19021	-0.019683	-0.0857162	0.133819	-0.201581	0.239289	0.0215875	0.038494	-0.222094	0.296074	0.0444405	0.10871	-0.193711	0.228607	-0.0414313	0.117095	-0.097892	0.218564	-0.221693	-0.182557	0.0741708	-0.0319295	-0.137163	-0.503768	0.072418	-0.132601	-0.0212017	-0.110053	
3.56445	0	0	-0.434807	0.096263	-0.05262	0.213916	-0.19021	-0.019683	-0.087916	0.140036	-0.201581	0.239289	0.018954	0.045936	-0.227457	0.299578	0.043138	0.11239	-0.193711	0.228607	-0.046329	0.117704	-0.09876	0.221017	-0.214803	-0.183318	0.075147	-0.034688	-0.134742	-0.510611	0.072418	-0.132601	-0.00942	-0.1249	
3.56445	0	0	-0.434807	0.096263	-0.058892	0.214483	-0.19021	-0.019683	-0.086816	0.136927	-0.20674	0.24266	0.0109	0.0540612	-0.227457	0.299578	0.036933	0.116445	-0.193711	0.228607	-0.046329	0.117704	-0.10284	0.221797	-0.211354	-0.174338	0.0793998	-0.0332247	-0.132877	-0.501304	0.086994	-0.13943	-0.01271	-0.115602	
3.5614	0	0	-0.434807	0.096263	-0.065164	0.215051	-0.19021	-0.019683	-0.085716	0.133818	-0.2119	0.246032	0.002846	0.0621865	-0.227457	0.299578	0.030728	0.1205	-0.193711	0.228607	-0.046329	0.117704	-0.10692	0.222577	-0.207904	-0.165358	0.0836525	-0.0317615	-0.131011	-0.491997	0.10157	-0.146259	-0.016	-0.106304	
3.5614	0	0	-0.434807	0.096263	-0.071436	0.215618	-0.19021	-0.019683	-0.084616	0.130709	-0.217059	0.249403	-0.005208	0.0703118	-0.227457	0.299578	0.024523	0.124554	-0.193711	0.228607	-0.046329	0.117704	-0.111	0.223358	-0.204455	-0.156378	0.0879053	-0.0302982	-0.129145	-0.482689	0.116146	-0.153088	-0.01929	-0.0970068	
3.55987	0	0	-0.434807	0.096263	-0.077708	0.216186	-0.19021	-0.019683	-0.083516	0.1276	-0.222218	0.252774	-0.013262	0.078437	-0.227457	0.299578	0.018318	0.128609	-0.193711	0.228607	-0.046329	0.117704	-0.11508	0.224138	-0.201006	-0.147398	0.092158	-0.028835	-0.12728	-0.473382	0.130722	-0.159917	-0.02258	-0.087709	
3.55987	0	0	-0.432747	0.0904395	-0.0760838	0.211595	-0.19021	-0.019683	-0.083516	0.1276	-0.222218	0.252774	-0.005208	0.0703118	-0.231818	0.30026	0.0196202	0.124928	-0.191859	0.223374	-0.0439453	0.110966	-0.113345	0.219234	-0.204455	-0.156378	0.084976	-0.0220202	-0.128492	-0.469956	0.113665	-0.146075	-0.0258733	-0.0784012	
3.55987	0	0	-0.430686	0.084616	-0.0744595	0.207005	-0.19021	-0.019683	-0.083516	0.1276	-0.222218	0.252774	0.002846	0.0621865	-0.23618	0.300941	0.0209225	0.121248	-0.190007	0.218141	-0.0415615	0.104229	-0.11161	0.21433	-0.207904	-0.165358	0.077794	-0.0152055	-0.129705	-0.46653	0.0966075	-0.132234	-0.0291665	-0.0690935	
3.55835	0	0	-0.428625	0.0787925	-0.0728352	0.202414	-0.19021	-0.019683	-0.083516	0.1276	-0.222218	0.252774	0.0109	0.0540612	-0.240542	0.301623	0.0222248	0.117568	-0.188156	0.212907	-0.0391777	0.0974915	-0.109874	0.209425	-0.211354	-0.174338	0.070612	-0.00839075	-0.130917	-0.463103	0.0795502	-0.118392	-0.0324597	-0.0597857	
3.55987	0	0	-0.426565	0.072969	-0.071211	0.197824	-0.19021	-0.019683	-0.083516	0.1276	-0.222218	0.252774	0.018954	0.045936	-0.244903	0.302304	0.023527	0.113887	-0.186304	0.207674	-0.036794	0.090754	-0.108139	0.204521	-0.214803	-0.183318	0.06343	-0.001576	-0.132129	-0.459677	0.062493	-0.10455	-0.035753	-0.050478	
3.55987	0	0	-0.426565	0.072969	-0.0649383	0.197254	-0.19021	-0.019683	-0.0857165	0.133819	-0.222218	0.252774	0.0122175	0.050338	-0.244903	0.302304	0.0173263	0.117939	-0.189796	0.205935	-0.0356025	0.0873872	-0.105538	0.197169	-0.209641	-0.197907	0.065383	-0.0070955	-0.133993	-0.46899	0.063734	-0.108057	-0.0308143	-0.0644357	
3.55224	0	0	-0.426565	0.072969	-0.0586655	0.196684	-0.19021	-0.019683	-0.087917	0.140039	-0.222218	0.252774	0.005481	0.05474	-0.244903	0.302304	0.0111255	0.12199	-0.193289	0.204196	-0.034411	0.0840205	-0.102937	0.189818	-0.204479	-0.212495	0.067336	-0.012615	-0.135856	-0.478302	0.064975	-0.111564	-0.0258755	-0.0783935	
3.54919	0	0	-0.426565	0.072969	-0.0523928	0.196115	-0.19021	-0.019683	-0.0901175	0.146258	-0.222218	0.252774	-0.0012555	0.059142	-0.244903	0.302304	0.00492475	0.126042	-0.196781	0.202457	-0.0332195	0.0806537	-0.100335	0.182467	-0.199318	-0.227083	0.069289	-0.0181345	-0.13772	-0.487615	0.066216	-0.115071	-0.0209367	-0.0923512	
3.55377	0	0	-0.426565	0.072969	-0.04612	0.195545	-0.19021	-0.019683	-0.092318	0.152477	-0.222218	0.252774	-0.007992	0.063544	-0.244903	0.302304	-0.001276	0.130093	-0.200273	0.200718	-0.032028	0.077287	-0.097734	0.175115	-0.194156	-0.241672	0.071242	-0.023654	-0.139584	-0.496927	0.067457	-0.118578	-0.015998	-0.106309	
3.54767	0	0	-0.428625	0.0787925	-0.049371	0.204733	-0.19021	-0.019683	-0.09452	0.1587	-0.222218	0.252774	-0.0093095	0.0672673	-0.244903	0.302304	-0.00257825	0.133773	-0.19493	0.197227	-0.0393055	0.0846308	-0.0936528	0.174332	-0.188976	-0.237581	0.071242	-0.023654	-0.138374	-0.500348	0.0753615	-0.123743	-0.015998	-0.106309	
3.55072	0	0	-0.430686	0.084616	-0.052622	0.213921	-0.19021	-0.019683	-0.096722	0.164924	-0.222218	0.252774	-0.010627	0.0709905	-0.244903	0.302304	-0.0038805	0.137454	-0.189588	0.193736	-0.046583	0.0919745	-0.0895715	0.173548	-0.183797	-0.23349	0.071242	-0.023654	-0.137163	-0.503769	0.083266	-0.128908	-0.015998	-0.106309	
3.55072	0	0	-0.432747	0.0904395	-0.055873	0.223108	-0.19021	-0.019683	-0.098924	0.171147	-0.222218	0.252774	-0.0119445	0.0747138	-0.244903	0.302304	-0.00518275	0.141134	-0.184245	0.190244	-0.0538605	0.0993182	-0.0854902	0.172765	-0.178618	-0.2294	0.071242	-0.023654	-0.135953	-0.50719	0.0911705	-0.134073	-0.015998	-0.106309	
3.54919	0	0	-0.434807	0.096263	-0.059124	0.232296	-0.19021	-0.019683	-0.101126	0.17737	-0.222218	0.252774	-0.013262	0.078437	-0.244903	0.302304	-0.006485	0.144815	-0.178902	0.186753	-0.061138	0.106662	-0.081409	0.171982	-0.173438	-0.225309	0.071242	-0.023654	-0.134742	-0.510611	0.099075	-0.139238	-0.015998	-0.106309	
3.54919	0	0	-0.444184	0.097913	-0.055873	0.223108	-0.19021	-0.019683	-0.105959	0.178136	-0.222218	0.252774	-0.013262	0.078437	-0.243905	0.299485	-0.0126812	0.148864	-0.18332	0.18763	-0.061138	0.106662	-0.086357	0.175215	-0.178606	-0.210705	0.0754942	-0.022189	-0.132877	-0.501304	0.0965925	-0.132222	-0.0124365	-0.0979055	
3.55072	0	0	-0.453561	0.099563	-0.052622	0.213921	-0.19021	-0.019683	-0.110792	0.178901	-0.222218	0.252774	-0.013262	0.078437	-0.242907	0.296665	-0.0188775	0.152913	-0.187738	0.188507	-0.061138	0.106662	-0.091305	0.178449	-0.183773	-0.196101	0.0797465	-0.020724	-0.131011	-0.491997	0.09411	-0.125207	-0.008875	-0.089502	
3.54767	0	0	-0.462938	0.101213	-0.049371	0.204733	-0.19021	-0.019683	-0.115626	0.179667	-0.222218	0.252774	-0.013262	0.078437	-0.24191	0.293845	-0.0250737	0.156961	-0.192155	0.189385	-0.061138	0.106662	-0.096253	0.181682	-0.188941	-0.181496	0.0839987	-0.019259	-0.129145	-0.482689	0.0916275	-0.118192	-0.0053135	-0.0810985	
3.54614	0	0	-0.472315	0.102863	-0.04612	0.195545	-0.19021	-0.019683	-0.120459	0.180432	-0.222218	0.252774	-0.013262	0.078437	-0.240912	0.291026	-0.03127	0.16101	-0.196573	0.190262	-0.061138	0.106662	-0.101201	0.184915	-0.194108	-0.166892	0.088251	-0.017794	-0.12728	-0.473382	0.089145	-0.111176	-0.001752	-0.072695	
3.54462	0	0	-0.460877	0.0953895	-0.0444958	0.190954	-0.19021	-0.019683	-0.113424	0.173443	-0.221323	0.250244	-0.0199935	0.0828355	-0.245271	0.291707	-0.0299678	0.157329	-0.195648	0.187649	-0.058756	0.0999295	-0.0994677	0.180016	-0.19756	-0.175864	0.090204	-0.0233135	-0.130356	-0.479268	0.089145	-0.111176	0.00154125	-0.0820025	
3.54767	0	0	-0.44944	0.087916	-0.0428715	0.186364	-0.19021	-0.019683	-0.106388	0.166455	-0.220427	0.247714	-0.026725	0.087234	-0.24963	0.292388	-0.0286655	0.153649	-0.194723	0.185035	-0.056374	0.093197	-0.0977345	0.175117	-0.201012	-0.184836	0.092157	-0.028833	-0.133432	-0.485155	0.089145	-0.111176	0.0048345	-0.09131	
3.54462	0	0	-0.438003	0.0804425	-0.0412472	0.181774	-0.19021	-0.019683	-0.0993533	0.159466	-0.219532	0.245183	-0.0334565	0.0916325	-0.253988	0.29307	-0.0273632	0.149969	-0.193799	0.182422	-0.053992	0.0864645	-0.0960013	0.170218	-0.204465	-0.193808	0.09411	-0.0343525	-0.136508	-0.491041	0.089145	-0.111176	0.00812775	-0.100617	
3.54156	0	0	-0.426565	0.072969	-0.039623	0.177183	-0.19021	-0.019683	-0.092318	0.152477	-0.218637	0.242653	-0.040188	0.096031	-0.258347	0.293751	-0.026061	0.146288	-0.192874	0.179809	-0.05161	0.079732	-0.094268	0.165319	-0.207917	-0.20278	0.096063	-0.039872	-0.139584	-0.496927	0.089145	-0.111176	0.011421	-0.109925	
3.54156	0	0	-0.417173	0.071309	-0.0444983	0.190961	-0.191871	-0.0149887	-0.09452	0.1587	-0.224689	0.248553	-0.0334565	0.0916325	-0.259344	0.29657	-0.021167	0.14592	-0.193799	0.182422	-0.0467145	0.0791207	-0.0910533	0.166985	-0.199297	-0.208412	0.0950867	-0.0371127	-0.143869	-0.499387	0.089145	-0.111176	0.011421	-0.109925	
3.54156	0	0	-0.40778	0.069649	-0.0493735	0.20474	-0.193532	-0.0102945	-0.096722	0.164924	-0.230741	0.254452	-0.026725	0.087234	-0.260342	0.299389	-0.016273	0.145552	-0.194723	0.185035	-0.041819	0.0785095	-0.0878385	0.16865	-0.190677	-0.214044	0.0941105	-0.0343535	-0.148153	-0.501846	0.089145	-0.111176	0.011421	-0.109925	
3.54004	0	0	-0.398388	0.067989	-0.0542487	0.218518	-0.195193	-0.00560025	-0.098924	0.171147	-0.236792	0.260352	-0.0199935	0.0828355	-0.26134	0.302207	-0.011379	0.145183	-0.195648	0.187649	-0.0369235	0.0778983	-0.0846237	0.170316	-0.182058	-0.219677	0.0931343	-0.0315942	-0.152438	-0.504306	0.089145	-0.111176	0.011421	-0.109925	
3.54156	0	0	-0.388996	0.066329	-0.059124	0.232296	-0.196854	-0.000906	-0.101126	0.17737	-0.242844	0.266251	-0.013262	0.078437	-0.262337	0.305026	-0.006485	0.144815	-0.196573	0.190262	-0.032028	0.077287	-0.081409	0.171982	-0.173438	-0.225309	0.092158	-0.028835	-0.156722	-0.506765	0.089145	-0.111176	0.011421	-0.109925	
3.54462	0	0	-0.393121	0.0779877	-0.0640068	0.246096	-0.196854	-0.000906	-0.10333	0.183598	-0.239479	0.267944	-0.0172178	0.0896168	-0.257978	0.304346	-0.00909125	0.15218	-0.19308	0.191999	-0.0344113	0.084022	-0.07906	0.1761	-0.16479	-0.212237	0.0911813	-0.0260748	-0.148149	-0.501844	0.095815	-0.112836	0.0012745	-0.0997182	
3.54156	0	0	-0.397247	0.0896465	-0.0688895	0.259895	-0.196854	-0.000906	-0.105534	0.189825	-0.236114	0.269637	-0.0211735	0.100797	-0.25362	0.303665	-0.0116975	0.159546	-0.189587	0.193737	-0.0367945	0.090757	-0.076711	0.180219	-0.156141	-0.199165	0.0902045	-0.0233145	-0.139577	-0.496924	0.102485	-0.114496	-0.008872	-0.0895115	
3.53699	0	0	-0.401372	0.101305	-0.0737722	0.273695	-0.196854	-0.000906	-0.107737	0.196053	-0.232749	0.271331	-0.0251292	0.111976	-0.249261	0.302984	-0.0143038	0.166911	-0.186095	0.195474	-0.0391777	0.097492	-0.074362	0.184337	-0.147492	-0.186093	0.0892277	-0.0205542	-0.131004	-0.492003	0.109155	-0.116156	-0.0190185	-0.0793048	
3.54004	0	0	-0.405497	0.112964	-0.078655	0.287494	-0.196854	-0.000906	-0.109941	0.202281	-0.229384	0.273024	-0.029085	0.123156	-0.244903	0.302304	-0.01691	0.174277	-0.182602	0.197212	-0.041561	0.104227	-0.072013	0.188455	-0.138844	-0.173021	0.088251	-0.017794	-0.122432	-0.487082	0.115825	-0.117816	-0.029165	-0.069098	
3.53699	0	0	-0.403434	0.107133	-0.069122	0.277727	-0.196854	-0.000906	-0.108839	0.199167	-0.227593	0.267961	-0.0264472	0.115701	-0.243905	0.299485	-0.0143038	0.166911	-0.182602	0.197212	-0.041561	0.104227	-0.076964	0.19169	-0.147481	-0.167377	0.091529	-0.0135658	-0.120567	-0.477762	0.120015	-0.112453	-0.0272583	-0.0560178	
3.53699	0	0	-0.40137	0.101301	-0.059589	0.26796	-0.196854	-0.000906	-0.107737	0.196052	-0.225801	0.262899	-0.0238095	0.108246	-0.242907	0.296665	-0.0116975	0.159546	-0.182602	0.197212	-0.041561	0.104227	-0.081915	0.194925	-0.156118	-0.161734	0.094807	-0.0093375	-0.118702	-0.468443	0.124206	-0.10709	-0.0253515	-0.0429375	
3.53699	0	0	-0.399307	0.0954702	-0.050056	0.258192	-0.196854	-0.000906	-0.106635	0.192938	-0.22401	0.257837	-0.0211717	0.100792	-0.24191	0.293845	-0.00909125	0.15218	-0.182602	0.197212	-0.041561	0.104227	-0.086866	0.19816	-0.164756	-0.15609	0.098085	-0.00510925	-0.116836	-0.459124	0.128396	-0.101727	-0.0234448	-0.0298573	
3.53393	0	0	-0.397244	0.089639	-0.040523	0.248425	-0.196854	-0.000906	-0.105533	0.189824	-0.222218	0.252774	-0.018534	0.093337	-0.240912	0.291026	-0.006485	0.144815	-0.182602	0.197212	-0.041561	0.104227	-0.091817	0.201395	-0.173393	-0.150446	0.101363	-0.000881	-0.114971	-0.449804	0.132587	-0.096364	-0.021538	-0.016777	
3.53393	0	0	-0.399307	0.0954702	-0.040523	0.248425	-0.196854	-0.000906	-0.105533	0.189824	-0.226479	0.253613	-0.017216	0.089612	-0.245271	0.291707	-0.006485	0.144815	-0.182602	0.197212	-0.041561	0.104227	-0.0851312	0.193257	-0.180296	-0.149684	0.103318	-0.00640575	-0.123547	-0.454739	0.125911	-0.0947035	-0.0165915	-0.0307565	
3.53241	0	0	-0.40137	0.101301	-0.040523	0.248425	-0.196854	-0.000906	-0.105533	0.189824	-0.230741	0.254452	-0.015898	0.085887	-0.24963	0.292388	-0.006485	0.144815	-0.182602	0.197212	-0.041561	0.104227	-0.0784455	0.185119	-0.187199	-0.148922	0.105272	-0.0119305	-0.132123	-0.459673	0.119236	-0.093043	-0.011645	-0.044736	
3.53241	0	0	-0.403434	0.107133	-0.040523	0.248425	-0.196854	-0.000906	-0.105533	0.189824	-0.235002	0.255291	-0.01458	0.082162	-0.253988	0.29307	-0.006485	0.144815	-0.182602	0.197212	-0.041561	0.104227	-0.0717598	0.176982	-0.194103	-0.14816	0.107227	-0.0174552	-0.140698	-0.464608	0.11256	-0.0913825	-0.0066985	-0.0587155	
3.53241	0	0	-0.405497	0.112964	-0.040523	0.248425	-0.196854	-0.000906	-0.105533	0.189824	-0.239263	0.25613	-0.013262	0.078437	-0.258347	0.293751	-0.006485	0.144815	-0.182602	0.197212	-0.041561	0.104227	-0.065074	0.168844	-0.201006	-0.147398	0.109182	-0.02298	-0.149274	-0.469543	0.105884	-0.089722	-0.001752	-0.072695	
3.53088	0	0	-0.407562	0.118799	-0.0342395	0.247858	-0.198516	0.0037905	-0.100696	0.189058	-0.240158	0.25866	-0.0158987	0.0858885	-0.258347	0.293751	-0.00778775	0.148497	-0.182602	0.197212	-0.0366625	0.103617	-0.0676765	0.176199	-0.194103	-0.14816	0.103949	-0.0216835	-0.140141	-0.480774	0.099215	-0.0880647	-0.00860525	-0.0717957	
3.52325	0	0	-0.409627	0.124635	-0.027956	0.24729	-0.200178	0.008487	-0.0958595	0.188292	-0.241054	0.26119	-0.0185355	0.09334	-0.258347	0.293751	-0.0090905	0.152179	-0.182602	0.197212	-0.031764	0.103007	-0.070279	0.183555	-0.187199	-0.148922	0.0987165	-0.020387	-0.131008	-0.492004	0.092546	-0.0864075	-0.0154585	-0.0708965	
3.53088	0	0	-0.411691	0.13047	-0.0216725	0.246723	-0.201839	0.0131835	-0.0910227	0.187525	-0.241949	0.263721	-0.0211723	0.100792	-0.258347	0.293751	-0.0103932	0.155861	-0.182602	0.197212	-0.0268655	0.102396	-0.0728815	0.19091	-0.180296	-0.149684	0.0934838	-0.0190905	-0.121876	-0.503235	0.085877	-0.0847502	-0.0223118	-0.0699973	
3.52478	0	0	-0.413756	0.136305	-0.015389	0.246155	-0.203501	0.01788	-0.086186	0.186759	-0.242844	0.266251	-0.023809	0.108243	-0.258347	0.293751	-0.011696	0.159543	-0.182602	0.197212	-0.021967	0.101786	-0.075484	0.198265	-0.173393	-0.150446	0.088251	-0.017794	-0.112743	-0.514466	0.079208	-0.083093	-0.029165	-0.069098	
3.52478	0	0	-0.413756	0.136305	-0.0216725	0.246723	-0.201839	0.0131835	-0.0969572	0.191403	-0.242844	0.266251	-0.025128	0.111971	-0.25735	0.290933	-0.011696	0.159543	-0.178181	0.196334	-0.0243527	0.108528	-0.0772202	0.203172	-0.163021	-0.142208	0.087274	-0.015033	-0.109661	-0.508583	0.0925528	-0.0864108	-0.0239598	-0.06534	
3.52478	0	0	-0.413756	0.136305	-0.027956	0.24729	-0.200178	0.008487	-0.107729	0.196047	-0.242844	0.266251	-0.026447	0.1157	-0.256353	0.288116	-0.011696	0.159543	-0.173761	0.195457	-0.0267385	0.115271	-0.0789565	0.208079	-0.152648	-0.13397	0.086297	-0.012272	-0.10658	-0.5027	0.105898	-0.0897285	-0.0187545	-0.061582	
3.52478	0	0	-0.413756	0.136305	-0.0342395	0.247858	-0.198516	0.0037905	-0.1185	0.200691	-0.242844	0.266251	-0.027766	0.119428	-0.255356	0.285299	-0.011696	0.159543	-0.169341	0.194579	-0.0291243	0.122014	-0.0806928	0.212986	-0.142276	-0.125732	0.08532	-0.009511	-0.103499	-0.496818	0.119242	-0.0930462	-0.0135493	-0.057824	
3.5202	0	0	-0.413756	0.136305	-0.040523	0.248425	-0.196854	-0.000906	-0.129271	0.205335	-0.242844	0.266251	-0.029085	0.123156	-0.254359	0.282481	-0.011696	0.159543	-0.16492	0.193701	-0.03151	0.128756	-0.082429	0.217893	-0.131904	-0.117494	0.084343	-0.00675	-0.100417	-0.490935	0.132587	-0.096364	-0.008344	-0.054066	
3.5202	0	0	-0.411691	0.13047	-0.0388955	0.243825	-0.196854	-0.000906	-0.122235	0.198344	-0.241949	0.263721	-0.0264472	0.115701	-0.253362	0.279664	-0.0103932	0.155861	-0.168415	0.191964	-0.0291243	0.122014	-0.0806928	0.212986	-0.135365	-0.126497	0.0833658	-0.003988	-0.105921	-0.489972	0.123424	-0.0876743	-0.0168443	-0.0485118	
3.5202	0	0	-0.409627	0.124635	-0.037268	0.239226	-0.196854	-0.000906	-0.115198	0.191352	-0.241054	0.26119	-0.0238095	0.108246	-0.252366	0.276848	-0.0090905	0.152179	-0.171911	0.190227	-0.0267385	0.115271	-0.0789565	0.208079	-0.138826	-0.1355	0.0823885	-0.001226	-0.111425	-0.489009	0.114261	-0.0789845	-0.0253445	-0.0429575	
3.52173	0	0	-0.407562	0.118799	-0.0356405	0.234626	-0.196854	-0.000906	-0.108162	0.184361	-0.240158	0.25866	-0.0211717	0.100792	-0.25137	0.274031	-0.00778775	0.148497	-0.175407	0.18849	-0.0243527	0.108528	-0.0772202	0.203172	-0.142288	-0.144503	0.0814113	0.001536	-0.116928	-0.488045	0.105098	-0.0702948	-0.0338448	-0.0374032	
3.51868	0	0	-0.405497	0.112964	-0.034013	0.230026	-0.196854	-0.000906	-0.101126	0.17737	-0.239263	0.25613	-0.018534	0.093337	-0.250373	0.271214	-0.006485	0.144815	-0.178902	0.186753	-0.021967	0.101786	-0.075484	0.198265	-0.145749	-0.153506	0.080434	0.004298	-0.122432	-0.487082	0.095935	-0.061605	-0.042345	-0.031849	
3.51715	0	0	-0.407562	0.118799	-0.034013	0.230026	-0.198516	0.0037905	-0.102228	0.180483	-0.240158	0.25866	-0.017216	0.089612	-0.254729	0.271896	-0.006485	0.144815	-0.178902	0.186753	-0.0207748	0.0984165	-0.0746162	0.195813	-0.14921	-0.162491	0.0814113	0.001536	-0.125509	-0.492964	0.0905105	-0.0634645	-0.0491888	-0.0309578	
3.51868	0	0	-0.409627	0.124635	-0.034013	0.230026	-0.200178	0.008487	-0.103329	0.183597	-0.241054	0.26119	-0.015898	0.085887	-0.259085	0.272578	-0.006485	0.144815	-0.178902	0.186753	-0.0195825	0.095047	-0.0737485	0.19336	-0.152672	-0.171475	0.0823885	-0.001226	-0.128587	-0.498847	0.085086	-0.065324	-0.0560325	-0.0300665	
3.51562	0	0	-0.411691	0.13047	-0.034013	0.230026	-0.201839	0.0131835	-0.104431	0.186711	-0.241949	0.263721	-0.01458	0.082162	-0.263442	0.273259	-0.006485	0.144815	-0.178902	0.186753	-0.0183903	0.0916775	-0.0728807	0.190908	-0.156133	-0.180459	0.0833658	-0.003988	-0.131664	-0.504729	0.0796615	-0.0671835	-0.0628762	-0.0291752	
3.51715	0	0	-0.413756	0.136305	-0.034013	0.230026	-0.203501	0.01788	-0.105533	0.189824	-0.242844	0.266251	-0.013262	0.078437	-0.267798	0.273941	-0.006485	0.144815	-0.178902	0.186753	-0.017198	0.088308	-0.072013	0.188455	-0.159594	-0.189444	0.084343	-0.00675	-0.134742	-0.510611	0.074237	-0.069043	-0.06972	-0.028284	
3.51715	0	0	-0.413756	0.136305	-0.0356405	0.234626	-0.203501	0.01788	-0.105533	0.189824	-0.242844	0.266251	-0.013262	0.078437	-0.267798	0.273941	-0.006485	0.144815	-0.178902	0.186753	-0.017198	0.088308	-0.0728807	0.190908	-0.152681	-0.190214	0.084343	-0.00675	-0.134742	-0.510611	0.0663325	-0.063878	-0.068073	-0.0329388	
3.51715	0	0	-0.413756	0.136305	-0.037268	0.239226	-0.203501	0.01788	-0.105533	0.189824	-0.242844	0.266251	-0.013262	0.078437	-0.267798	0.273941	-0.006485	0.144815	-0.178902	0.186753	-0.017198	0.088308	-0.0737485	0.19336	-0.145769	-0.190985	0.084343	-0.00675	-0.134742	-0.510611	0.058428	-0.058713	-0.066426	-0.0375935	
3.5141	0	0	-0.413756	0.136305	-0.0388955	0.243825	-0.203501	0.01788	-0.105533	0.189824	-0.242844	0.266251	-0.013262	0.078437	-0.267798	0.273941	-0.006485	0.144815	-0.178902	0.186753	-0.017198	0.088308	-0.0746162	0.195813	-0.138856	-0.191755	0.084343	-0.00675	-0.134742	-0.510611	0.0505235	-0.053548	-0.064779	-0.0422483	
3.5141	0	0	-0.413756	0.136305	-0.040523	0.248425	-0.203501	0.01788	-0.105533	0.189824	-0.242844	0.266251	-0.013262	0.078437	-0.267798	0.273941	-0.006485	0.144815	-0.178902	0.186753	-0.017198	0.088308	-0.075484	0.198265	-0.131943	-0.192525	0.084343	-0.00675	-0.134742	-0.510611	0.042619	-0.048383	-0.063132	-0.046903	
3.5141	0	0	-0.409628	0.124639	-0.0435473	0.239798	-0.201839	0.0131835	-0.108164	0.184365	-0.247102	0.267088	-0.017359	0.0753903	-0.265806	0.268312	-0.008776	0.137827	-0.182395	0.185017	-0.022097	0.0889195	-0.0778325	0.194145	-0.14058	-0.186881	0.0833658	-0.003988	-0.137163	-0.503768	0.0480362	-0.0465187	-0.0579352	-0.0431395	
3.51562	0	0	-0.4055	0.112972	-0.0465715	0.231171	-0.200178	0.008487	-0.110795	0.178906	-0.25136	0.267925	-0.021456	0.0723435	-0.263814	0.262682	-0.011067	0.130839	-0.185888	0.183281	-0.026996	0.089531	-0.080181	0.190024	-0.149217	-0.181237	0.0823885	-0.001226	-0.139585	-0.496924	0.0534535	-0.0446545	-0.0527385	-0.039376	
3.5141	0	0	-0.401372	0.101305	-0.0495958	0.222543	-0.198516	0.0037905	-0.113425	0.173447	-0.255618	0.268762	-0.025553	0.0692968	-0.261823	0.257053	-0.013358	0.123851	-0.189381	0.181545	-0.031895	0.0901425	-0.0825295	0.185904	-0.157854	-0.175594	0.0814113	0.001536	-0.142007	-0.490081	0.0588707	-0.0427903	-0.0475418	-0.0356125	
3.5141	0	0	-0.397244	0.089639	-0.05262	0.213916	-0.196854	-0.000906	-0.116056	0.167988	-0.259876	0.269599	-0.02965	0.06625	-0.259831	0.251424	-0.015649	0.116863	-0.192874	0.179809	-0.036794	0.090754	-0.084878	0.181784	-0.166491	-0.16995	0.080434	0.004298	-0.144428	-0.483238	0.064288	-0.040926	-0.042345	-0.031849	
3.51715	0	0	-0.395182	0.0838115	-0.0493707	0.204733	-0.195193	-0.00560025	-0.109021	0.161	-0.258086	0.26454	-0.0270178	0.058811	-0.25784	0.245798	-0.01924	0.113558	-0.195441	0.175463	-0.0344117	0.0840218	-0.0872255	0.177668	-0.176847	-0.178157	0.076183	0.0028295	-0.146292	-0.492538	0.0667752	-0.0479552	-0.0458955	-0.0402653	
3.5141	0	0	-0.39312	0.077984	-0.0461215	0.195549	-0.193532	-0.0102945	-0.101986	0.154012	-0.256296	0.259482	-0.0243855	0.051372	-0.25585	0.240173	-0.022831	0.110254	-0.198008	0.171117	-0.0320295	0.0772895	-0.089573	0.173551	-0.187204	-0.186365	0.071932	0.001361	-0.148156	-0.501838	0.0692625	-0.0549845	-0.049446	-0.0486815	
3.5141	0	0	-0.391058	0.0721565	-0.0428723	0.186366	-0.191871	-0.0149887	-0.094951	0.147024	-0.254506	0.254424	-0.0217532	0.043933	-0.25386	0.234547	-0.026422	0.10695	-0.200576	0.166771	-0.0296472	0.0705573	-0.0919205	0.169435	-0.19756	-0.194572	0.067681	-0.0001075	-0.15002	-0.511139	0.0717498	-0.0620137	-0.0529965	-0.0570978	
3.5141	0	0	-0.388996	0.066329	-0.039623	0.177183	-0.19021	-0.019683	-0.087916	0.140036	-0.252716	0.249365	-0.019121	0.036494	-0.251869	0.228922	-0.030013	0.103645	-0.203143	0.162425	-0.027265	0.063825	-0.094268	0.165319	-0.207917	-0.20278	0.06343	-0.001576	-0.151884	-0.520439	0.074237	-0.069043	-0.056547	-0.065514	
3.51257	0	0	-0.37959	0.064663	-0.0428723	0.186366	-0.191871	-0.0149887	-0.0890165	0.143146	-0.248457	0.248527	-0.020437	0.0402127	-0.257219	0.232417	-0.0251213	0.103274	-0.203143	0.162425	-0.0333512	0.0678018	-0.094268	0.165319	-0.199297	-0.208412	0.06343	-0.001576	-0.154958	-0.526308	0.0688177	-0.0709015	-0.0617402	-0.0692685	
3.5141	0	0	-0.370183	0.062997	-0.0461215	0.195549	-0.193532	-0.0102945	-0.090117	0.146257	-0.244199	0.247689	-0.021753	0.0439315	-0.262568	0.235913	-0.0202295	0.102903	-0.203143	0.162425	-0.0394375	0.0717785	-0.094268	0.165319	-0.190677	-0.214044	0.06343	-0.001576	-0.158032	-0.532178	0.0633985	-0.07276	-0.0669335	-0.073023	
3.51257	0	0	-0.360777	0.061331	-0.0493707	0.204733	-0.195193	-0.00560025	-0.0912175	0.149367	-0.239941	0.24685	-0.023069	0.0476502	-0.267917	0.239408	-0.0153378	0.102531	-0.203143	0.162425	-0.0455238	0.0757552	-0.094268	0.165319	-0.182058	-0.219677	0.06343	-0.001576	-0.161106	-0.538048	0.0579793	-0.0746185	-0.0721268	-0.0767775	
3.51257	0	0	-0.351371	0.059665	-0.05262	0.213916	-0.196854	-0.000906	-0.092318	0.152477	-0.235682	0.246012	-0.024385	0.051369	-0.273267	0.242904	-0.010446	0.10216	-0.203143	0.162425	-0.05161	0.079732	-0.094268	0.165319	-0.173438	-0.225309	0.06343	-0.001576	-0.16418	-0.543917	0.05256	-0.076477	-0.07732	-0.080532	
3.5141	0	0	-0.360777	0.061331	-0.05262	0.213916	-0.195193	-0.00560025	-0.097152	0.153245	-0.236577	0.248542	-0.0283357	0.0625345	-0.274262	0.245716	-0.0117468	0.105836	-0.198727	0.161547	-0.0467145	0.0791207	-0.0910533	0.166985	-0.171701	-0.211469	0.0624533	0.00118525	-0.162316	-0.534629	0.065891	-0.0797883	-0.08061	-0.0712342	
3.51257	0	0	-0.370183	0.062997	-0.05262	0.213916	-0.193532	-0.0102945	-0.101986	0.154012	-0.237473	0.251071	-0.0322865	0.0737	-0.275257	0.248529	-0.0130475	0.109511	-0.194311	0.160669	-0.041819	0.0785095	-0.0878385	0.16865	-0.169965	-0.19763	0.0614765	0.0039465	-0.160451	-0.525341	0.079222	-0.0830995	-0.0839	-0.0619365	
3.51562	0	0	-0.37959	0.064663	-0.05262	0.213916	-0.191871	-0.0149887	-0.10682	0.154779	-0.238368	0.253601	-0.0362372	0.0848655	-0.276252	0.251341	-0.0143482	0.113187	-0.189896	0.159791	-0.0369235	0.0778983	-0.0846237	0.170316	-0.168228	-0.18379	0.0604997	0.00670775	-0.158586	-0.516053	0.092553	-0.0864107	-0.08719	-0.0526387	
3.51715	0	0	-0.388996	0.066329	-0.05262	0.213916	-0.19021	-0.019683	-0.111654	0.155547	-0.239263	0.25613	-0.040188	0.096031	-0.277247	0.254153	-0.015649	0.116863	-0.18548	0.158913	-0.032028	0.077287	-0.081409	0.171982	-0.166491	-0.16995	0.059523	0.009469	-0.156722	-0.506765	0.105884	-0.089722	-0.09048	-0.043341	
