7.9834	0	0	-0.126855	-0.358638	0.62536	2.06123	0.209655	-0.305821	0.127518	1.09817	1.19686	0.541048	0.991767	2.20973	1.97484	1.60732	3.4178	3.46686	0.824264	-0.470203	1.52413	1.12948	0.554074	0.203239	0.860125	1.17632	0.626093	0.699501	1.43763	1.37949	0.495708	-0.309977	1.08568	1.27319	
7.9895	0	0	-0.129989	-0.358883	0.627436	2.07339	0.211322	-0.292343	0.132263	1.11099	1.2067	0.553043	0.997857	2.23494	1.98475	1.61321	3.43405	3.49243	0.828704	-0.469763	1.53421	1.14301	0.560443	0.225423	0.873175	1.18443	0.626869	0.723063	1.44039	1.39676	0.493926	-0.304941	1.08781	1.28306	
7.9956	0	0	-0.133122	-0.359129	0.629511	2.08554	0.212989	-0.278866	0.137008	1.1238	1.21654	0.565038	1.00395	2.26016	1.99466	1.6191	3.45031	3.518	0.833145	-0.469324	1.5443	1.15654	0.566812	0.247608	0.886224	1.19254	0.627645	0.746625	1.44314	1.41404	0.492144	-0.299906	1.08994	1.29294	
7.99866	0	0	-0.136256	-0.359374	0.631586	2.0977	0.214656	-0.265389	0.141753	1.13662	1.22639	0.577034	1.01004	2.28538	2.00457	1.62499	3.46656	3.54357	0.837586	-0.468884	1.55439	1.17007	0.573182	0.269792	0.899274	1.20065	0.628421	0.770188	1.4459	1.43131	0.490363	-0.294871	1.09207	1.30281	
8.00629	0	0	-0.139389	-0.359619	0.633662	2.10986	0.216323	-0.251911	0.146498	1.14944	1.23623	0.589029	1.01613	2.31059	2.01448	1.63088	3.48281	3.56914	0.842026	-0.468444	1.56448	1.18361	0.579551	0.291976	0.912324	1.20876	0.629197	0.79375	1.44866	1.44859	0.488581	-0.289835	1.0942	1.31269	
8.02002	0	0	-0.151844	-0.378935	0.631168	2.08988	0.210754	-0.272533	0.144191	1.12973	1.22096	0.565873	1.01491	2.28219	2.00424	1.60055	3.48658	3.54654	0.823518	-0.468037	1.54339	1.19067	0.552791	0.317385	0.884915	1.23	0.623206	0.82787	1.43876	1.47659	0.484122	-0.277234	1.09217	1.33435	
8.03528	0	0	-0.164298	-0.398251	0.628674	2.0699	0.205185	-0.293155	0.141884	1.11002	1.20569	0.542717	1.0137	2.25379	1.994	1.57021	3.49035	3.52395	0.805009	-0.46763	1.5223	1.19774	0.526032	0.342793	0.857506	1.25124	0.617216	0.86199	1.42885	1.50459	0.479664	-0.264632	1.09014	1.356	
8.05054	0	0	-0.176752	-0.417567	0.62618	2.04992	0.199617	-0.313777	0.139578	1.09031	1.19042	0.519562	1.01249	2.22538	1.98376	1.53988	3.49412	3.50136	0.786501	-0.467222	1.50121	1.20481	0.499273	0.368202	0.830097	1.27248	0.611225	0.89611	1.41894	1.53259	0.475205	-0.25203	1.0881	1.37766	
8.06885	0	0	-0.189207	-0.436883	0.623686	2.02995	0.194048	-0.334399	0.137271	1.07061	1.17515	0.496406	1.01128	2.19698	1.97352	1.50954	3.49789	3.47877	0.767992	-0.466815	1.48012	1.21187	0.472513	0.393611	0.802688	1.29373	0.605235	0.93023	1.40903	1.56059	0.470746	-0.239429	1.08607	1.39932	
8.08563	0	0	-0.189237	-0.427725	0.624934	2.05344	0.194599	-0.317786	0.142022	1.08341	1.16179	0.481311	1.00979	2.20119	1.93098	1.46145	3.43633	3.45099	0.753281	-0.470534	1.46044	1.20463	0.461107	0.395781	0.79236	1.30047	0.605714	0.946081	1.41232	1.56803	0.468067	-0.23186	1.09186	1.40686	
8.09479	0	0	-0.189267	-0.418566	0.626183	2.07694	0.195151	-0.301173	0.146773	1.09621	1.14842	0.466217	1.0083	2.2054	1.88843	1.41336	3.37478	3.42321	0.738571	-0.474253	1.44076	1.19738	0.449701	0.39795	0.782031	1.30722	0.606194	0.961932	1.41561	1.57547	0.465389	-0.224291	1.09765	1.4144	
8.11157	0	0	-0.189296	-0.409408	0.627432	2.10044	0.195702	-0.284559	0.151523	1.10901	1.13505	0.451122	1.00681	2.20961	1.84589	1.36526	3.31322	3.39544	0.72386	-0.477973	1.42109	1.19013	0.438295	0.40012	0.771703	1.31397	0.606674	0.977783	1.4189	1.58291	0.462711	-0.216721	1.10343	1.42194	
8.1131	0	0	-0.189326	-0.400249	0.62868	2.12393	0.196253	-0.267946	0.156274	1.12181	1.12168	0.436027	1.00532	2.21383	1.80334	1.31717	3.25166	3.36766	0.709149	-0.481692	1.40141	1.18288	0.426889	0.40229	0.761375	1.32072	0.607153	0.993634	1.42219	1.59035	0.460032	-0.209152	1.10922	1.42948	
8.12378	0	0	-0.202774	-0.425671	0.623706	2.11097	0.186792	-0.295669	0.138746	1.10149	1.07893	0.405651	0.975983	2.19102	1.75358	1.25778	3.19974	3.3382	0.676692	-0.473789	1.3705	1.17636	0.390367	0.4156	0.736595	1.32359	0.603887	1.02009	1.41445	1.61222	0.458549	-0.196529	1.10454	1.45069	
8.12836	0	0	-0.216223	-0.451093	0.618731	2.098	0.177332	-0.323392	0.121219	1.08117	1.03619	0.375275	0.946649	2.16822	1.70383	1.1984	3.14781	3.30875	0.644235	-0.465887	1.33958	1.16985	0.353846	0.428909	0.711815	1.32647	0.600622	1.04654	1.40671	1.63409	0.457065	-0.183906	1.09985	1.4719	
8.13293	0	0	-0.229672	-0.476514	0.613757	2.08503	0.167871	-0.351116	0.103691	1.06085	0.993438	0.344899	0.917315	2.14541	1.65407	1.13901	3.09588	3.27929	0.611777	-0.457985	1.30867	1.16333	0.317324	0.442218	0.687034	1.32934	0.597356	1.07299	1.39897	1.65596	0.455581	-0.171283	1.09517	1.49311	
8.13446	0	0	-0.24312	-0.501936	0.608783	2.07206	0.15841	-0.378839	0.086163	1.04053	0.95069	0.314523	0.887981	2.1226	1.60431	1.07962	3.04395	3.24983	0.57932	-0.450082	1.27775	1.15682	0.280802	0.455528	0.662254	1.33221	0.59409	1.09944	1.39123	1.67783	0.454098	-0.15866	1.09048	1.51433	
8.12988	0	0	-0.249377	-0.493296	0.612922	2.09641	0.152846	-0.363113	0.0893225	1.04904	0.938313	0.329872	0.891758	2.13302	1.59607	1.09462	3.05635	3.27335	0.578653	-0.454629	1.2745	1.15561	0.278374	0.46239	0.658644	1.33125	0.589899	1.09407	1.38796	1.67036	0.450218	-0.156125	1.08208	1.5062	
8.12836	0	0	-0.255634	-0.484656	0.61706	2.12076	0.147282	-0.347387	0.092482	1.05755	0.925936	0.34522	0.895535	2.14344	1.58783	1.10962	3.06874	3.29687	0.577986	-0.459176	1.27125	1.15441	0.275946	0.469251	0.655034	1.33028	0.585708	1.08869	1.38468	1.66289	0.446338	-0.15359	1.07368	1.49807	
8.11615	0	0	-0.261892	-0.476016	0.621198	2.14511	0.141717	-0.331662	0.0956415	1.06606	0.913559	0.360569	0.899312	2.15386	1.57959	1.12462	3.08114	3.32039	0.577318	-0.463724	1.26799	1.1532	0.273518	0.476113	0.651423	1.32931	0.581516	1.08331	1.3814	1.65542	0.442458	-0.151055	1.06528	1.48994	
8.11005	0	0	-0.268149	-0.467376	0.625337	2.16945	0.136153	-0.315936	0.098801	1.07457	0.901182	0.375918	0.903089	2.16428	1.57135	1.13962	3.09354	3.34392	0.576651	-0.468271	1.26474	1.152	0.27109	0.482975	0.647813	1.32835	0.577325	1.07794	1.37812	1.64795	0.438578	-0.14852	1.05689	1.48181	
8.10242	0	0	-0.284682	-0.483837	0.61457	2.15484	0.123389	-0.334165	0.0849525	1.04405	0.873487	0.375875	0.879129	2.14776	1.56165	1.13395	3.07925	3.33742	0.564919	-0.467243	1.24372	1.14909	0.256404	0.48466	0.6262	1.32255	0.567539	1.08839	1.36605	1.64863	0.430824	-0.143453	1.04276	1.48197	
8.09021	0	0	-0.301214	-0.500297	0.603803	2.14022	0.110625	-0.352394	0.071104	1.01352	0.845792	0.375833	0.85517	2.13125	1.55194	1.12827	3.06497	3.33092	0.553187	-0.466216	1.22271	1.14619	0.241719	0.486344	0.604588	1.31675	0.557752	1.09884	1.35398	1.64932	0.423069	-0.138386	1.02863	1.48214	
8.07648	0	0	-0.317746	-0.516757	0.593036	2.12561	0.097861	-0.370624	0.0572555	0.982998	0.818096	0.37579	0.83121	2.11473	1.54223	1.1226	3.05069	3.32442	0.541454	-0.465188	1.2017	1.14328	0.227033	0.488028	0.582975	1.31095	0.547966	1.10929	1.34191	1.65	0.415315	-0.133319	1.01451	1.48231	
8.06274	0	0	-0.334279	-0.533218	0.582269	2.11099	0.085097	-0.388853	0.043407	0.952475	0.790401	0.375747	0.80725	2.09821	1.53252	1.11692	3.03641	3.31793	0.529722	-0.46416	1.18068	1.14037	0.212347	0.489713	0.561362	1.30516	0.53818	1.11974	1.32984	1.65069	0.407561	-0.128252	1.00038	1.48247	
8.04596	0	0	-0.343555	-0.54301	0.582269	2.11099	0.0778915	-0.386555	0.0350447	0.950052	0.784408	0.379663	0.800939	2.10555	1.53301	1.12381	3.05427	3.32605	0.524676	-0.469152	1.1725	1.13244	0.210468	0.475145	0.550045	1.29269	0.527513	1.09836	1.31731	1.62776	0.398923	-0.145895	0.98678	1.45748	
8.03223	0	0	-0.352831	-0.552802	0.582269	2.11099	0.070686	-0.384258	0.0266825	0.947628	0.778415	0.383578	0.794628	2.11288	1.5335	1.1307	3.07213	3.33417	0.519631	-0.474144	1.16431	1.12451	0.208589	0.460577	0.538727	1.28022	0.516845	1.07699	1.30478	1.60484	0.390286	-0.163539	0.973179	1.43248	
8.02154	0	0	-0.362108	-0.562595	0.582269	2.11099	0.0634805	-0.38196	0.0183203	0.945205	0.772423	0.387494	0.788316	2.12021	1.53399	1.13759	3.08998	3.3423	0.514586	-0.479137	1.15612	1.11658	0.20671	0.44601	0.527409	1.26775	0.506178	1.05561	1.29224	1.58191	0.381649	-0.181182	0.959579	1.40748	
8.01086	0	0	-0.371384	-0.572387	0.582269	2.11099	0.056275	-0.379662	0.009958	0.942782	0.76643	0.39141	0.782005	2.12755	1.53448	1.14448	3.10784	3.35042	0.50954	-0.484129	1.14793	1.10865	0.204831	0.431442	0.516092	1.25529	0.495511	1.03424	1.27971	1.55899	0.373011	-0.198825	0.945978	1.38249	
7.99408	0	0	-0.388878	-0.585796	0.56572	2.12181	0.0369203	-0.379054	-0.0091425	0.944761	0.746364	0.370188	0.766733	2.11829	1.49922	1.09577	3.05632	3.30918	0.483882	-0.475642	1.1297	1.07758	0.183087	0.403705	0.500672	1.23238	0.486472	0.99985	1.26938	1.53001	0.364076	-0.223914	0.938095	1.34944	
7.9834	0	0	-0.406372	-0.599204	0.549171	2.13262	0.0175655	-0.378446	-0.028243	0.94674	0.726298	0.348966	0.751462	2.10902	1.46397	1.04706	3.0048	3.26793	0.458224	-0.467156	1.11147	1.04651	0.161342	0.375969	0.485252	1.20948	0.477433	0.965464	1.25906	1.50103	0.355142	-0.249003	0.930212	1.31639	
7.96966	0	0	-0.423866	-0.612613	0.532621	2.14344	-0.00178925	-0.377838	-0.0473435	0.948718	0.706232	0.327744	0.73619	2.09976	1.42871	0.998359	2.95329	3.22669	0.432565	-0.458669	1.09324	1.01544	0.139598	0.348233	0.469832	1.18658	0.468395	0.931077	1.24873	1.47205	0.346208	-0.274092	0.922329	1.28334	
7.96051	0	0	-0.44136	-0.626021	0.516072	2.15425	-0.021144	-0.37723	-0.066444	0.950697	0.686166	0.306522	0.720918	2.0905	1.39345	0.949653	2.90177	3.18544	0.406907	-0.450182	1.07501	0.984372	0.117854	0.320496	0.454412	1.16368	0.459356	0.896691	1.2384	1.44307	0.337273	-0.299181	0.914446	1.25029	
7.9422	0	0	-0.460789	-0.669446	0.500024	2.11895	-0.0412358	-0.41921	-0.0848948	0.907879	0.628346	0.231673	0.692431	2.00424	1.30258	0.800501	2.75709	3.03351	0.335325	-0.413331	1.01739	0.891426	0.067967	0.215954	0.424985	1.08168	0.428999	0.820779	1.21122	1.37114	0.311418	-0.351367	0.893984	1.19011	
7.93304	0	0	-0.480218	-0.712872	0.483976	2.08366	-0.0613275	-0.461191	-0.103346	0.865061	0.570527	0.156825	0.663944	1.91799	1.2117	0.65135	2.61242	2.88157	0.263744	-0.37648	0.959773	0.79848	0.01808	0.111412	0.395558	0.999672	0.398643	0.744868	1.18404	1.29921	0.285562	-0.403554	0.873522	1.12993	
7.92084	0	0	-0.499648	-0.756297	0.467927	2.04836	-0.0814192	-0.503171	-0.121796	0.822242	0.512707	0.0819758	0.635456	1.83173	1.12083	0.502198	2.46774	2.72964	0.192162	-0.339628	0.902156	0.705533	-0.031807	0.00687	0.36613	0.917667	0.368287	0.668956	1.15686	1.22728	0.259707	-0.45574	0.853061	1.06975	
7.91931	0	0	-0.519077	-0.799722	0.451879	2.01307	-0.101511	-0.545151	-0.140247	0.779424	0.454887	0.007127	0.606969	1.74547	1.02995	0.353047	2.32306	2.5777	0.12058	-0.302777	0.844539	0.612587	-0.081694	-0.097672	0.336703	0.835662	0.33793	0.593044	1.12969	1.15535	0.233852	-0.507926	0.832599	1.00957	
7.90863	0	0	-0.557833	-0.849994	0.41171	1.9752	-0.14151	-0.592599	-0.184972	0.725865	0.380678	-0.0499587	0.549077	1.69244	0.903611	0.226496	2.15513	2.46413	0.0618468	-0.269355	0.77799	0.588491	-0.129749	-0.117319	0.299794	0.830666	0.334433	0.577524	1.12101	1.14696	0.228195	-0.5252	0.825307	0.998836	
7.89947	0	0	-0.596588	-0.900266	0.371541	1.93733	-0.181508	-0.640047	-0.229697	0.672306	0.30647	-0.107045	0.491185	1.63942	0.777272	0.0999455	1.9872	2.35057	0.0031135	-0.235932	0.711441	0.564396	-0.177804	-0.136965	0.262885	0.82567	0.330935	0.562005	1.11234	1.13857	0.222539	-0.542474	0.818016	0.9881	
7.88422	0	0	-0.635344	-0.950537	0.331373	1.89946	-0.221506	-0.687495	-0.274422	0.618746	0.232261	-0.16413	0.433293	1.58639	0.650933	-0.0266052	1.81927	2.237	-0.0556197	-0.20251	0.644891	0.540301	-0.225858	-0.156612	0.225977	0.820674	0.327437	0.546486	1.10367	1.13018	0.216883	-0.559748	0.810724	0.977363	
7.88269	0	0	-0.6741	-1.00081	0.291204	1.86159	-0.261505	-0.734943	-0.319147	0.565187	0.158052	-0.221216	0.375401	1.53336	0.524594	-0.153156	1.65133	2.12343	-0.114353	-0.169088	0.578342	0.516205	-0.273913	-0.176259	0.189068	0.815678	0.32394	0.530966	1.095	1.12179	0.211226	-0.577022	0.803433	0.966626	
7.87353	0	0	-0.6741	-1.00965	0.283044	1.86692	-0.264504	-0.735344	-0.322263	0.556945	0.140612	-0.241179	0.369405	1.50932	0.487701	-0.189227	1.62805	2.08031	-0.129427	-0.16419	0.568492	0.493881	-0.284468	-0.194744	0.181453	0.804534	0.317455	0.515474	1.09064	1.10128	0.205568	-0.594231	0.797716	0.959311	
7.86133	0	0	-0.674099	-1.01849	0.274883	1.87226	-0.267502	-0.735745	-0.32538	0.548703	0.123171	-0.261141	0.36341	1.48529	0.450808	-0.225298	1.60477	2.03718	-0.144501	-0.159293	0.558641	0.471557	-0.295023	-0.213228	0.173837	0.793389	0.310971	0.499982	1.08628	1.08077	0.199909	-0.61144	0.791999	0.951996	
7.8537	0	0	-0.674098	-1.02733	0.266723	1.87759	-0.2705	-0.736147	-0.328496	0.540461	0.10573	-0.281104	0.357414	1.46125	0.413915	-0.261369	1.58149	1.99405	-0.159575	-0.154395	0.54879	0.449233	-0.305579	-0.231713	0.166221	0.782245	0.304486	0.484489	1.08192	1.06026	0.19425	-0.628648	0.786281	0.944682	
7.84912	0	0	-0.674098	-1.03617	0.258562	1.88292	-0.273499	-0.736548	-0.331612	0.532219	0.08829	-0.301067	0.351419	1.43721	0.377022	-0.29744	1.55821	1.95092	-0.174649	-0.149497	0.53894	0.426909	-0.316134	-0.250198	0.158606	0.7711	0.298001	0.468997	1.07756	1.03974	0.188592	-0.645857	0.780564	0.937367	
7.84454	0	0	-0.679202	-1.00406	0.248756	1.91063	-0.2743	-0.707644	-0.339895	0.555628	0.0854338	-0.267842	0.346546	1.47147	0.366764	-0.252909	1.55811	1.9947	-0.151028	-0.153371	0.550665	0.464039	-0.298535	-0.203178	0.170866	0.801842	0.301098	0.502527	1.07544	1.06215	0.191304	-0.628626	0.786357	0.960133	
7.84607	0	0	-0.684306	-0.97196	0.23895	1.93835	-0.275101	-0.67874	-0.348178	0.579037	0.0825775	-0.234617	0.341673	1.50572	0.356507	-0.208378	1.55801	2.03847	-0.127407	-0.157246	0.56239	0.501168	-0.280937	-0.156159	0.183126	0.832585	0.304196	0.536057	1.07332	1.08456	0.194016	-0.611395	0.79215	0.9829	
7.84302	0	0	-0.689409	-0.939856	0.229144	1.96606	-0.275903	-0.649835	-0.356461	0.602446	0.0797212	-0.201392	0.3368	1.53997	0.346249	-0.163848	1.55791	2.08224	-0.103786	-0.16112	0.574115	0.538297	-0.263338	-0.10914	0.195387	0.863327	0.307293	0.569587	1.0712	1.10697	0.196727	-0.594164	0.797942	1.00567	
7.83691	0	0	-0.694513	-0.907752	0.219338	1.99377	-0.276704	-0.620931	-0.364744	0.625855	0.076865	-0.168167	0.331927	1.57422	0.335991	-0.119317	1.55781	2.12602	-0.080165	-0.164995	0.58584	0.575427	-0.245739	-0.06212	0.207647	0.894069	0.31039	0.603117	1.06907	1.12938	0.199439	-0.576933	0.803735	1.02843	
7.83691	0	0	-0.677253	-0.876765	0.225437	2.00314	-0.263335	-0.596407	-0.35616	0.63571	0.086532	-0.163999	0.33336	1.57017	0.351238	-0.0845075	1.57947	2.14116	-0.063514	-0.174222	0.593625	0.573551	-0.229271	-0.0600922	0.209137	0.889857	0.30003	0.590111	1.05881	1.1174	0.194106	-0.586756	0.795982	1.02685	
7.83691	0	0	-0.659992	-0.845779	0.231537	2.0125	-0.249966	-0.571883	-0.347577	0.645565	0.096199	-0.159831	0.334793	1.56612	0.366484	-0.049698	1.60114	2.1563	-0.046863	-0.183449	0.60141	0.571675	-0.212804	-0.0580645	0.210627	0.885646	0.289671	0.577106	1.04854	1.10542	0.188773	-0.596579	0.788229	1.02527	
7.83081	0	0	-0.642732	-0.814793	0.237636	2.02187	-0.236596	-0.547358	-0.338994	0.65542	0.105866	-0.155663	0.336225	1.56207	0.381731	-0.0148885	1.6228	2.17144	-0.030212	-0.192676	0.609195	0.569798	-0.196336	-0.0560368	0.212118	0.881435	0.279312	0.5641	1.03827	1.09344	0.18344	-0.606401	0.780477	1.02369	
7.82165	0	0	-0.625471	-0.783806	0.243735	2.03123	-0.223227	-0.522834	-0.33041	0.665275	0.115533	-0.151495	0.337658	1.55802	0.396978	0.019921	1.64446	2.18658	-0.013561	-0.201903	0.61698	0.567922	-0.179868	-0.054009	0.213608	0.877223	0.268952	0.551094	1.028	1.08146	0.178107	-0.616224	0.772724	1.02211	
7.82776	0	0	-0.621514	-0.741619	0.237964	2.05642	-0.218361	-0.483013	-0.330156	0.698733	0.130071	-0.129443	0.351639	1.58008	0.420359	0.0791615	1.67785	2.23483	0.010207	-0.205851	0.630205	0.601155	-0.167634	-0.0106123	0.218797	0.906279	0.275416	0.566645	1.03179	1.09533	0.173733	-0.603863	0.777956	1.03865	
7.83386	0	0	-0.617558	-0.699433	0.232194	2.0816	-0.213495	-0.443192	-0.329903	0.732192	0.144609	-0.107392	0.365621	1.60214	0.443741	0.138402	1.71125	2.28309	0.033975	-0.209799	0.64343	0.634387	-0.1554	0.0327845	0.223986	0.935335	0.28188	0.582197	1.03558	1.1092	0.169359	-0.591503	0.783188	1.05519	
7.84149	0	0	-0.613602	-0.657246	0.226423	2.10678	-0.208629	-0.40337	-0.32965	0.765651	0.159147	-0.0853405	0.379603	1.6242	0.467122	0.197642	1.74465	2.33134	0.057743	-0.213748	0.656655	0.66762	-0.143166	0.0761813	0.229176	0.964392	0.288343	0.597748	1.03938	1.12308	0.164986	-0.579142	0.78842	1.07174	
7.84912	0	0	-0.609645	-0.615059	0.220653	2.13197	-0.203763	-0.363549	-0.329396	0.799109	0.173685	-0.063289	0.393584	1.64625	0.490504	0.256883	1.77805	2.3796	0.081511	-0.217696	0.66988	0.700853	-0.130932	0.119578	0.234365	0.993448	0.294807	0.613299	1.04317	1.13695	0.160612	-0.566781	0.793652	1.08828	
7.8537	0	0	-0.611753	-0.600193	0.219035	2.12767	-0.20597	-0.357313	-0.325103	0.804086	0.173685	-0.063289	0.393168	1.63715	0.512476	0.297234	1.8134	2.41234	0.0851882	-0.221755	0.673045	0.702016	-0.136358	0.115391	0.235312	0.979832	0.279242	0.62347	1.03023	1.14072	0.147983	-0.564233	0.77821	1.10059	
7.86285	0	0	-0.61386	-0.585327	0.217417	2.12336	-0.208176	-0.351076	-0.320809	0.809064	0.173685	-0.063289	0.392753	1.62805	0.534448	0.337584	1.84875	2.44507	0.0888655	-0.225814	0.676211	0.70318	-0.141785	0.111203	0.236258	0.966216	0.263677	0.63364	1.0173	1.1445	0.135355	-0.561684	0.762768	1.1129	
7.87811	0	0	-0.615968	-0.570461	0.215798	2.11906	-0.210383	-0.344839	-0.316516	0.814042	0.173685	-0.063289	0.392338	1.61895	0.55642	0.377935	1.8841	2.47781	0.0925428	-0.229872	0.679376	0.704344	-0.147211	0.107015	0.237205	0.9526	0.248112	0.643811	1.00437	1.14828	0.122727	-0.559136	0.747326	1.12521	
7.88574	0	0	-0.618075	-0.555595	0.21418	2.11476	-0.21259	-0.338603	-0.312222	0.819019	0.173685	-0.063289	0.391922	1.60985	0.578392	0.418286	1.91945	2.51054	0.09622	-0.233931	0.682541	0.705507	-0.152638	0.102828	0.238152	0.938984	0.232547	0.653981	0.991433	1.15205	0.110098	-0.556587	0.731884	1.13753	
7.89795	0	0	-0.614106	-0.531131	0.212849	2.14516	-0.206369	-0.311422	-0.304976	0.858555	0.190034	-0.033445	0.408203	1.6462	0.623582	0.497173	1.97874	2.58865	0.117035	-0.229296	0.706811	0.738308	-0.131419	0.140683	0.25193	0.965783	0.239689	0.69302	0.998978	1.17992	0.112777	-0.539309	0.736061	1.15705	
7.9071	0	0	-0.610137	-0.506667	0.211519	2.17556	-0.200149	-0.28424	-0.297731	0.898091	0.206383	-0.003601	0.424484	1.68256	0.668772	0.576061	2.03803	2.66676	0.13785	-0.224661	0.731081	0.771108	-0.1102	0.178538	0.265708	0.992582	0.246831	0.73206	1.00652	1.20778	0.115457	-0.52203	0.740237	1.17658	
7.91473	0	0	-0.606167	-0.482204	0.210189	2.20596	-0.193928	-0.257058	-0.290485	0.937626	0.222732	0.026243	0.440766	1.71891	0.713961	0.654949	2.09732	2.74488	0.158664	-0.220026	0.755352	0.803909	-0.0889802	0.216392	0.279486	1.01938	0.253972	0.771099	1.01407	1.23565	0.118136	-0.504752	0.744413	1.1961	
7.92236	0	0	-0.602198	-0.45774	0.208858	2.23636	-0.187707	-0.229877	-0.283239	0.977162	0.239081	0.056087	0.457047	1.75527	0.759151	0.733836	2.1566	2.82299	0.179479	-0.215391	0.779622	0.83671	-0.067761	0.254247	0.293264	1.04618	0.261114	0.810138	1.02161	1.26351	0.120815	-0.487473	0.74859	1.21563	
7.93609	0	0	-0.604228	-0.460931	0.20117	2.22257	-0.191522	-0.237014	-0.277736	0.978793	0.24818	0.043076	0.461385	1.74301	0.799817	0.763292	2.19967	2.82533	0.183933	-0.22162	0.77476	0.830127	-0.0651137	0.23696	0.287121	1.03064	0.232237	0.840975	1.00166	1.2789	0.107322	-0.482466	0.725423	1.22631	
7.95135	0	0	-0.606258	-0.464121	0.193482	2.20879	-0.195337	-0.24415	-0.272234	0.980425	0.25728	0.030065	0.465722	1.73075	0.840483	0.792749	2.24274	2.82766	0.188387	-0.22785	0.769899	0.823544	-0.0624665	0.219674	0.280979	1.0151	0.20336	0.871812	0.981711	1.29428	0.093829	-0.477459	0.702255	1.23699	
7.97424	0	0	-0.608287	-0.467312	0.185793	2.19501	-0.199151	-0.251287	-0.266732	0.982056	0.266379	0.017054	0.47006	1.71849	0.88115	0.822205	2.28581	2.83	0.19284	-0.234079	0.765037	0.816962	-0.0598193	0.202387	0.274836	0.999567	0.174482	0.90265	0.961761	1.30966	0.080336	-0.472453	0.679088	1.24767	
7.99866	0	0	-0.610317	-0.470503	0.178105	2.18123	-0.202966	-0.258424	-0.261229	0.983688	0.275479	0.004043	0.474398	1.70623	0.921816	0.851661	2.32888	2.83234	0.197294	-0.240309	0.760175	0.810379	-0.057172	0.185101	0.268693	0.984029	0.145605	0.933487	0.94181	1.32505	0.066843	-0.467446	0.655921	1.25835	
8.02002	0	0	-0.602249	-0.448628	0.176008	2.19602	-0.196445	-0.240999	-0.258319	1.01849	0.2893	0.0286372	0.482243	1.73573	0.957811	0.903564	2.35996	2.85801	0.211691	-0.236429	0.769902	0.823556	-0.0455925	0.211286	0.274836	0.999567	0.149922	0.946657	0.943382	1.34519	0.0604048	-0.457523	0.656442	1.2647	
8.04443	0	0	-0.594181	-0.426754	0.173911	2.21082	-0.189924	-0.223575	-0.255408	1.05329	0.303121	0.0532315	0.490088	1.76522	0.993807	0.955467	2.39104	2.88368	0.226087	-0.23255	0.779629	0.836732	-0.034013	0.237471	0.280979	1.0151	0.154239	0.959826	0.944954	1.36534	0.0539665	-0.4476	0.656963	1.27105	
8.06732	0	0	-0.586112	-0.40488	0.171813	2.22562	-0.183404	-0.206151	-0.252497	1.08809	0.316943	0.0778257	0.497934	1.79472	1.0298	1.00737	2.42212	2.90935	0.240484	-0.22867	0.789357	0.849909	-0.0224335	0.263656	0.287121	1.03064	0.158556	0.972995	0.946526	1.38548	0.0475283	-0.437678	0.657483	1.27739	
8.08716	0	0	-0.578044	-0.383005	0.169716	2.24042	-0.176883	-0.188726	-0.249587	1.12289	0.330764	0.10242	0.505779	1.82421	1.0658	1.05927	2.45319	2.93502	0.254881	-0.224791	0.799084	0.863086	-0.010854	0.289841	0.293264	1.04618	0.162873	0.986165	0.948098	1.40563	0.04109	-0.427755	0.658004	1.28374	
8.10394	0	0	-0.571948	-0.373374	0.155611	2.20943	-0.182297	-0.209279	-0.246831	1.12372	0.334844	0.0908893	0.495042	1.80289	1.07327	1.05439	2.42387	2.90438	0.246977	-0.227934	0.776474	0.835609	-0.026688	0.256084	0.280036	1.02877	0.129534	0.995953	0.929245	1.41795	0.0273375	-0.430196	0.634901	1.29438	
8.1131	0	0	-0.565853	-0.363743	0.141505	2.17844	-0.187711	-0.229832	-0.244075	1.12454	0.338924	0.0793585	0.484306	1.78156	1.08075	1.0495	2.39455	2.87375	0.239073	-0.231076	0.753864	0.808132	-0.042522	0.222328	0.266808	1.01136	0.0961955	1.00574	0.910392	1.43027	0.013585	-0.432637	0.611798	1.30502	
8.1192	0	0	-0.559758	-0.354113	0.127399	2.14745	-0.193124	-0.250385	-0.241319	1.12537	0.343004	0.0678277	0.473569	1.76024	1.08823	1.04462	2.36523	2.84311	0.23117	-0.234219	0.731253	0.780655	-0.058356	0.188571	0.253579	0.993943	0.0628567	1.01553	0.891539	1.44259	-0.0001675	-0.435078	0.588695	1.31565	
8.12988	0	0	-0.553662	-0.344482	0.113294	2.11646	-0.198538	-0.270938	-0.238563	1.1262	0.347084	0.056297	0.462833	1.73892	1.0957	1.03973	2.33591	2.81248	0.223266	-0.237362	0.708643	0.753178	-0.07419	0.154814	0.240351	0.97653	0.029518	1.02532	0.872686	1.45491	-0.01392	-0.437519	0.565592	1.32629	
8.13599	0	0	-0.535343	-0.315449	0.0950615	2.11503	-0.197431	-0.274066	-0.235695	1.16124	0.358669	0.068245	0.457444	1.76447	1.09071	1.06198	2.29626	2.81172	0.233339	-0.233974	0.697833	0.763482	-0.0735135	0.172498	0.241441	0.995351	0.0324767	1.02538	0.876902	1.47575	-0.0118733	-0.435049	0.571231	1.33376	
8.13751	0	0	-0.517024	-0.286415	0.076829	2.11359	-0.196325	-0.277193	-0.232826	1.19628	0.370254	0.080193	0.452055	1.79002	1.08571	1.08423	2.25661	2.81097	0.243412	-0.230586	0.687024	0.773786	-0.072837	0.190182	0.24253	1.01417	0.0354355	1.02545	0.881119	1.4966	-0.0098265	-0.43258	0.576871	1.34122	
8.13446	0	0	-0.498706	-0.257381	0.0585965	2.11216	-0.195218	-0.28032	-0.229958	1.23132	0.381839	0.092141	0.446666	1.81557	1.08071	1.10648	2.21695	2.81022	0.253484	-0.227198	0.676215	0.78409	-0.0721605	0.207865	0.24362	1.03299	0.0383943	1.02551	0.885336	1.51745	-0.00777975	-0.430111	0.58251	1.34869	
8.13446	0	0	-0.480387	-0.228348	0.040364	2.11072	-0.194111	-0.283448	-0.22709	1.26635	0.393424	0.104089	0.441277	1.84113	1.07572	1.12874	2.1773	2.80946	0.263557	-0.22381	0.665405	0.794394	-0.071484	0.225549	0.244709	1.05181	0.041353	1.02558	0.889552	1.53829	-0.005733	-0.427641	0.588149	1.35616	
8.13446	0	0	-0.483543	-0.219428	0.0238885	2.0869	-0.208265	-0.314946	-0.23139	1.26124	0.385914	0.0806253	0.419663	1.83008	1.07946	1.12629	2.15511	2.79362	0.25565	-0.226953	0.644603	0.77242	-0.0884668	0.195286	0.231514	1.0344	0.0114425	1.00925	0.872959	1.52789	-0.0255797	-0.437483	0.573284	1.35918	
8.13141	0	0	-0.4867	-0.210508	0.007413	2.06307	-0.222419	-0.346444	-0.23569	1.25612	0.378404	0.0571615	0.39805	1.81903	1.0832	1.12384	2.13292	2.77777	0.247744	-0.230095	0.623802	0.750447	-0.10545	0.165022	0.218318	1.017	-0.018468	0.992917	0.856366	1.51749	-0.0454265	-0.447325	0.55842	1.3622	
8.12836	0	0	-0.489856	-0.201587	-0.0090625	2.03925	-0.236574	-0.377942	-0.239991	1.251	0.370893	0.0336978	0.376437	1.80798	1.08694	1.1214	2.11072	2.76193	0.239837	-0.233238	0.603001	0.728473	-0.122432	0.134759	0.205123	0.999586	-0.0483785	0.976587	0.839773	1.50708	-0.0652733	-0.457166	0.543555	1.36522	
8.1192	0	0	-0.493012	-0.192667	-0.025538	2.01543	-0.250728	-0.40944	-0.244291	1.24589	0.363383	0.010234	0.354823	1.79693	1.09069	1.11895	2.08853	2.74608	0.23193	-0.23638	0.582199	0.706499	-0.139415	0.104495	0.191928	0.982176	-0.078289	0.960258	0.82318	1.49668	-0.08512	-0.467008	0.52869	1.36824	
8.10852	0	0	-0.490144	-0.164744	-0.0276085	2.03006	-0.258935	-0.404077	-0.250374	1.26308	0.357677	0.0263603	0.35416	1.81938	1.09407	1.15009	2.09346	2.77701	0.237668	-0.233483	0.587201	0.722607	-0.132118	0.122962	0.190009	1.00946	-0.0724	0.960387	0.825278	1.5071	-0.0763745	-0.467027	0.536879	1.37628	
8.10242	0	0	-0.487277	-0.136822	-0.029679	2.0447	-0.267143	-0.398714	-0.256457	1.28027	0.351971	0.0424865	0.353498	1.84183	1.09746	1.18123	2.09838	2.80794	0.243405	-0.230585	0.592203	0.738715	-0.124822	0.141429	0.188089	1.03675	-0.066511	0.960515	0.827376	1.51753	-0.067629	-0.467046	0.545068	1.38432	
8.08563	0	0	-0.48441	-0.108899	-0.0317495	2.05933	-0.27535	-0.393352	-0.262539	1.29746	0.346265	0.0586128	0.352835	1.86429	1.10085	1.21237	2.10331	2.83887	0.249143	-0.227688	0.597205	0.754824	-0.117525	0.159895	0.18617	1.06403	-0.060622	0.960644	0.829473	1.52795	-0.0588835	-0.467065	0.553258	1.39236	
8.07953	0	0	-0.481542	-0.080976	-0.03382	2.07397	-0.283557	-0.387989	-0.268622	1.31465	0.340559	0.074739	0.352172	1.88674	1.10424	1.24351	2.10824	2.8698	0.254881	-0.224791	0.602207	0.770932	-0.110228	0.178362	0.184251	1.09132	-0.054733	0.960773	0.831571	1.53838	-0.050138	-0.467084	0.561447	1.4004	
8.0719	0	0	-0.50112	-0.0796588	-0.0430188	2.05609	-0.302041	-0.406908	-0.281163	1.30699	0.324289	0.057065	0.340091	1.86947	1.10268	1.23975	2.11516	2.86148	0.238193	-0.222193	0.584792	0.759711	-0.128368	0.151535	0.169071	1.06871	-0.061383	0.895856	0.820492	1.49621	-0.05686	-0.48923	0.557873	1.37153	
8.06732	0	0	-0.520698	-0.0783415	-0.0522175	2.03821	-0.320526	-0.425827	-0.293705	1.29933	0.308019	0.039391	0.32801	1.85221	1.10113	1.23599	2.12208	2.85315	0.221504	-0.219596	0.567376	0.74849	-0.146509	0.124707	0.15389	1.04611	-0.068033	0.830939	0.809414	1.45405	-0.063582	-0.511375	0.554299	1.34266	
8.05664	0	0	-0.540277	-0.0770243	-0.0614162	2.02033	-0.33901	-0.444746	-0.306246	1.29167	0.291749	0.021717	0.315929	1.83494	1.09958	1.23223	2.129	2.84483	0.204815	-0.216999	0.549961	0.737269	-0.16465	0.0978803	0.13871	1.0235	-0.074683	0.766023	0.798335	1.41189	-0.070304	-0.533521	0.550725	1.31378	
8.05511	0	0	-0.559855	-0.075707	-0.070615	2.00245	-0.357494	-0.463665	-0.318787	1.284	0.275479	0.004043	0.303848	1.81767	1.09802	1.22847	2.13591	2.8365	0.188127	-0.214401	0.532545	0.726048	-0.18279	0.071053	0.12353	1.0009	-0.081333	0.701106	0.787256	1.36972	-0.077026	-0.555667	0.547151	1.28491	
8.05054	0	0	-0.581572	-0.059223	-0.0811197	2.01462	-0.379786	-0.453855	-0.334937	1.28664	0.267521	0.00747725	0.294402	1.82385	1.09518	1.24466	2.12217	2.84169	0.188127	-0.214401	0.524949	0.737461	-0.186601	0.0915668	0.127589	1.01124	-0.0731875	0.678086	0.788897	1.35694	-0.0679815	-0.548321	0.568186	1.29567	
8.04748	0	0	-0.603289	-0.042739	-0.0916245	2.02678	-0.402077	-0.444045	-0.351088	1.28928	0.259564	0.0109115	0.284956	1.83002	1.09233	1.26086	2.10842	2.84687	0.188127	-0.214401	0.517353	0.748874	-0.190412	0.11208	0.131648	1.02158	-0.065042	0.655066	0.790537	1.34416	-0.058937	-0.540975	0.589221	1.30644	
8.04443	0	0	-0.625006	-0.026255	-0.102129	2.03895	-0.424369	-0.434236	-0.367238	1.29192	0.251607	0.0143458	0.27551	1.83619	1.08948	1.27705	2.09467	2.85205	0.188127	-0.214401	0.509757	0.760288	-0.194222	0.132594	0.135706	1.03192	-0.0568965	0.632045	0.792177	1.33138	-0.0498925	-0.533628	0.610255	1.3172	
8.03528	0	0	-0.646723	-0.009771	-0.112634	2.05111	-0.446661	-0.424426	-0.383389	1.29456	0.243649	0.01778	0.266064	1.84236	1.08664	1.29324	2.08092	2.85724	0.188127	-0.214401	0.502161	0.771701	-0.198033	0.153108	0.139765	1.04225	-0.048751	0.609025	0.793818	1.31859	-0.040848	-0.526282	0.63129	1.32797	
8.02612	0	0	-0.657847	-0.0231167	-0.129834	2.03853	-0.459059	-0.442426	-0.40012	1.2818	0.229555	0.0005655	0.248938	1.81911	1.08619	1.28637	2.0707	2.85253	0.171483	-0.211822	0.494053	0.754451	-0.211627	0.123426	0.133138	1.01739	-0.0580708	0.560345	0.788543	1.2847	-0.0501938	-0.540995	0.63795	1.30133	
8.02154	0	0	-0.668971	-0.0364625	-0.147034	2.02594	-0.471458	-0.460426	-0.416851	1.26905	0.215461	-0.016649	0.231812	1.79585	1.08574	1.27949	2.06047	2.84782	0.154839	-0.209244	0.485946	0.7372	-0.225222	0.093744	0.126511	0.992525	-0.0673905	0.511664	0.783268	1.25081	-0.0595395	-0.555708	0.64461	1.27469	
8.01086	0	0	-0.680095	-0.0498082	-0.164233	2.01335	-0.483857	-0.478425	-0.433583	1.25629	0.201367	-0.0338635	0.214685	1.7726	1.08529	1.27262	2.05024	2.84312	0.138195	-0.206666	0.477838	0.71995	-0.238816	0.064062	0.119884	0.967659	-0.0767102	0.462983	0.777993	1.21691	-0.0688852	-0.570421	0.651269	1.24806	
8.00781	0	0	-0.691219	-0.063154	-0.181433	2.00077	-0.496255	-0.496425	-0.450314	1.24353	0.187273	-0.051078	0.197559	1.74934	1.08483	1.26574	2.04001	2.83841	0.121551	-0.204087	0.469731	0.7027	-0.25241	0.03438	0.113257	0.942794	-0.08603	0.414303	0.772718	1.18302	-0.078231	-0.585134	0.657929	1.22142	
7.99713	0	0	-0.706722	-0.0461595	-0.177899	2.01698	-0.511401	-0.488896	-0.465476	1.23507	0.18064	-0.0449852	0.192858	1.75241	1.08308	1.27884	2.02972	2.84514	0.124471	-0.205995	0.469905	0.712241	-0.25621	0.054833	0.11081	0.960597	-0.0772275	0.414399	0.78447	1.18233	-0.0741457	-0.58024	0.668226	1.2236	
7.99255	0	0	-0.722225	-0.029165	-0.174365	2.0332	-0.526547	-0.481368	-0.480637	1.22661	0.174007	-0.0388925	0.188157	1.75548	1.08133	1.29194	2.01942	2.85187	0.127391	-0.207903	0.470079	0.721781	-0.26001	0.075286	0.108364	0.9784	-0.068425	0.414494	0.796222	1.18164	-0.0700605	-0.575346	0.678523	1.22578	
7.98035	0	0	-0.737727	-0.0121705	-0.170831	2.04941	-0.541692	-0.473839	-0.495799	1.21815	0.167374	-0.0327998	0.183456	1.75856	1.07958	1.30504	2.00912	2.85859	0.130312	-0.209811	0.470254	0.731321	-0.26381	0.095739	0.105917	0.996203	-0.0596225	0.41459	0.807974	1.18094	-0.0659752	-0.570451	0.68882	1.22795	
7.97577	0	0	-0.75323	0.004824	-0.167297	2.06562	-0.556838	-0.46631	-0.510961	1.20969	0.160741	-0.026707	0.178755	1.76163	1.07783	1.31814	1.99883	2.86532	0.133232	-0.211719	0.470428	0.740862	-0.26761	0.116192	0.103471	1.01401	-0.05082	0.414686	0.819726	1.18025	-0.06189	-0.565557	0.699117	1.23013	
7.96509	0	0	-0.762293	-0.005261	-0.167184	2.0391	-0.558117	-0.489109	-0.526707	1.186	0.154605	-0.047275	0.167807	1.7314	1.08268	1.31257	1.99891	2.85389	0.125371	-0.214869	0.463985	0.728989	-0.270136	0.0845073	0.091854	0.992456	-0.058824	0.379089	0.813328	1.14957	-0.0724015	-0.585125	0.685693	1.20557	
7.95898	0	0	-0.771357	-0.015346	-0.167071	2.01258	-0.559396	-0.511907	-0.542453	1.1623	0.14847	-0.067843	0.15686	1.70117	1.08754	1.30701	1.999	2.84247	0.11751	-0.21802	0.457542	0.717116	-0.272662	0.0528225	0.080237	0.970907	-0.066828	0.343492	0.80693	1.11889	-0.082913	-0.604692	0.672268	1.18101	
7.95593	0	0	-0.78042	-0.025431	-0.166959	1.98606	-0.560675	-0.534706	-0.558199	1.13861	0.142334	-0.088411	0.145913	1.67094	1.09239	1.30145	1.99909	2.83104	0.109649	-0.22117	0.451099	0.705243	-0.275188	0.0211378	0.06862	0.949357	-0.074832	0.307894	0.800533	1.08822	-0.0934245	-0.62426	0.658843	1.15644	
7.95898	0	0	-0.789483	-0.035516	-0.166846	1.95954	-0.561954	-0.557505	-0.573945	1.11491	0.136198	-0.108979	0.134965	1.64071	1.09724	1.29588	1.99918	2.81961	0.101788	-0.224321	0.444656	0.69337	-0.277714	-0.010547	0.057003	0.927808	-0.082836	0.272297	0.794135	1.05754	-0.103936	-0.643828	0.645419	1.13188	
7.96356	0	0	-0.799683	-0.0334175	-0.182899	1.97003	-0.574093	-0.549573	-0.585686	1.12259	0.141042	-0.0910833	0.132879	1.66697	1.10279	1.32102	2.01944	2.85197	0.109649	-0.22117	0.451436	0.724372	-0.270715	0.018215	0.0606203	0.961077	-0.071745	0.282517	0.803216	1.0725	-0.101592	-0.634042	0.645947	1.13819	
7.96356	0	0	-0.809883	-0.031319	-0.198952	1.98052	-0.586232	-0.541641	-0.597426	1.13026	0.145886	-0.0731875	0.130794	1.69324	1.10834	1.34617	2.03969	2.88433	0.11751	-0.21802	0.458216	0.755374	-0.263716	0.046977	0.0642375	0.994346	-0.060654	0.292738	0.812296	1.08746	-0.0992475	-0.624257	0.646475	1.1445	
7.96814	0	0	-0.820084	-0.0292205	-0.215006	1.99101	-0.598372	-0.533709	-0.609166	1.13793	0.150729	-0.0552918	0.128708	1.7195	1.11388	1.37131	2.05994	2.91669	0.125371	-0.214869	0.464996	0.786376	-0.256717	0.075739	0.0678547	1.02761	-0.049563	0.302959	0.821376	1.10242	-0.0969032	-0.614471	0.647003	1.15081	
7.97272	0	0	-0.830284	-0.027122	-0.231059	2.0015	-0.610511	-0.525777	-0.620907	1.1456	0.155573	-0.037396	0.126622	1.74576	1.11943	1.39645	2.0802	2.94905	0.133232	-0.211719	0.471776	0.817378	-0.249718	0.104501	0.071472	1.06088	-0.038472	0.313179	0.830457	1.11738	-0.094559	-0.604686	0.647531	1.15711	
7.97424	0	0	-0.83113	-0.0425278	-0.24259	1.99058	-0.611002	-0.541952	-0.62273	1.13376	0.160909	-0.0461542	0.127669	1.73261	1.12209	1.39712	2.09054	2.94229	0.127526	-0.214621	0.466989	0.810824	-0.258146	0.0894745	0.0704135	1.04212	-0.045365	0.282792	0.821376	1.10242	-0.0989427	-0.616907	0.638772	1.1429	
7.97729	0	0	-0.831977	-0.0579335	-0.254122	1.97966	-0.611494	-0.558126	-0.624553	1.12193	0.166246	-0.0549125	0.128716	1.71947	1.12474	1.39779	2.10088	2.93554	0.121819	-0.217523	0.462202	0.80427	-0.266573	0.074448	0.069355	1.02335	-0.052258	0.252404	0.812296	1.08746	-0.103327	-0.629128	0.630013	1.12868	
7.9834	0	0	-0.832823	-0.0733392	-0.265653	1.96874	-0.611985	-0.574301	-0.626375	1.1101	0.171582	-0.0636707	0.129762	1.70633	1.1274	1.39845	2.11122	2.92878	0.116113	-0.220425	0.457416	0.797717	-0.275	0.0594215	0.0682965	1.00458	-0.059151	0.222017	0.803216	1.0725	-0.10771	-0.641349	0.621254	1.11446	
7.9834	0	0	-0.833669	-0.088745	-0.277185	1.95783	-0.612476	-0.590476	-0.628198	1.09826	0.176919	-0.072429	0.130809	1.69318	1.13006	1.39912	2.12156	2.92202	0.110407	-0.223327	0.452629	0.791163	-0.283428	0.044395	0.067238	0.985815	-0.066044	0.19163	0.794135	1.05754	-0.112094	-0.65357	0.612495	1.10024	
7.98492	0	0	-0.834819	-0.0765983	-0.2761	1.98085	-0.612772	-0.580862	-0.629085	1.10926	0.18776	-0.0460597	0.131963	1.7205	1.13936	1.42194	2.12821	2.94824	0.12475	-0.219432	0.465347	0.805464	-0.267489	0.0673775	0.0768278	1.00226	-0.0585115	0.21189	0.801613	1.0689	-0.102457	-0.631555	0.623329	1.12421	
7.9834	0	0	-0.835969	-0.0644515	-0.275014	2.00388	-0.613067	-0.571248	-0.629972	1.12026	0.198601	-0.0196905	0.133117	1.74781	1.14867	1.44475	2.13486	2.97446	0.139093	-0.215536	0.478066	0.819765	-0.251549	0.09036	0.0864175	1.0187	-0.050979	0.232149	0.80909	1.08026	-0.092819	-0.60954	0.634163	1.14817	
7.9834	0	0	-0.837119	-0.0523047	-0.273929	2.0269	-0.613363	-0.561633	-0.630859	1.13126	0.209442	0.00667875	0.134271	1.77512	1.15798	1.46757	2.14151	3.00068	0.153435	-0.211641	0.490784	0.834067	-0.235609	0.113343	0.0960073	1.03514	-0.0434465	0.252409	0.816568	1.09162	-0.0831815	-0.587525	0.644997	1.17214	
7.97119	0	0	-0.838269	-0.040158	-0.272844	2.04993	-0.613658	-0.552019	-0.631746	1.14225	0.220283	0.033048	0.135425	1.80244	1.16729	1.49039	2.14816	3.0269	0.167778	-0.207745	0.503502	0.848368	-0.21967	0.136325	0.105597	1.05158	-0.035914	0.272668	0.824045	1.10298	-0.073544	-0.56551	0.655831	1.19611	
7.96814	0	0	-0.834172	-0.0428347	-0.272718	2.02348	-0.609322	-0.564274	-0.6381	1.11779	0.220451	0.0135508	0.129196	1.76911	1.15643	1.46378	2.11257	2.98157	0.152539	-0.202766	0.490444	0.814967	-0.231144	0.110424	0.0934485	1.02064	-0.040778	0.244867	0.815495	1.07842	-0.073846	-0.572874	0.65992	1.18455	
7.96356	0	0	-0.830075	-0.0455115	-0.272591	1.99703	-0.604985	-0.576528	-0.644454	1.09333	0.22062	-0.0059465	0.122968	1.73578	1.14557	1.43717	2.07699	2.93625	0.137299	-0.197786	0.477386	0.781565	-0.242617	0.0845235	0.0813	0.989695	-0.045642	0.217066	0.806944	1.05387	-0.074148	-0.580238	0.66401	1.173	
7.95441	0	0	-0.825979	-0.0481883	-0.272465	1.97058	-0.600649	-0.588782	-0.650807	1.06887	0.220788	-0.0254438	0.116739	1.70245	1.13471	1.41056	2.0414	2.89092	0.12206	-0.192806	0.464329	0.748163	-0.25409	0.0586228	0.0691515	0.958751	-0.050506	0.189265	0.798394	1.02932	-0.07445	-0.587602	0.668099	1.16144	
7.95288	0	0	-0.821882	-0.050865	-0.272339	1.94413	-0.596313	-0.601037	-0.657161	1.04441	0.220956	-0.044941	0.110511	1.66912	1.12385	1.38396	2.00581	2.84559	0.10682	-0.187827	0.451271	0.714762	-0.265564	0.032722	0.057003	0.927808	-0.05537	0.161464	0.789844	1.00477	-0.074752	-0.594966	0.672188	1.14988	
7.9422	0	0	-0.822932	-0.0478978	-0.277914	1.94251	-0.597396	-0.597975	-0.674875	1.03525	0.225332	-0.0319423	0.0993368	1.67021	1.11059	1.38063	1.97355	2.83641	0.110503	-0.191892	0.442048	0.720788	-0.266999	0.0464857	0.0590275	0.93295	-0.050132	0.171577	0.790917	1.01796	-0.0721077	-0.577774	0.671694	1.15909	
7.9422	0	0	-0.823982	-0.0449305	-0.28349	1.9409	-0.59848	-0.594913	-0.692589	1.02609	0.229709	-0.0189435	0.0881625	1.6713	1.09732	1.3773	1.94129	2.82722	0.114185	-0.195957	0.432825	0.726815	-0.268433	0.0602495	0.061052	0.938092	-0.044894	0.181691	0.79199	1.03115	-0.0694635	-0.560583	0.671199	1.1683	
7.93762	0	0	-0.825032	-0.0419633	-0.289065	1.93928	-0.599564	-0.591851	-0.710304	1.01693	0.234085	-0.00594475	0.0769882	1.67239	1.08406	1.37397	1.90904	2.81804	0.117868	-0.200022	0.423603	0.732841	-0.269868	0.0740133	0.0630765	0.943234	-0.039656	0.191804	0.793062	1.04435	-0.0668192	-0.543392	0.670705	1.17751	
7.93457	0	0	-0.826082	-0.038996	-0.29464	1.93766	-0.600647	-0.588789	-0.728018	1.00777	0.238461	0.007054	0.065814	1.67347	1.07079	1.37064	1.87678	2.80885	0.121551	-0.204087	0.41438	0.738867	-0.271303	0.087777	0.065101	0.948376	-0.034418	0.201918	0.794135	1.05754	-0.064175	-0.5262	0.670211	1.18671	
7.92847	0	0	-0.830927	-0.060884	-0.298532	1.91396	-0.600069	-0.607977	-0.726598	0.978434	0.241707	-0.00211975	0.063216	1.65037	1.06571	1.35242	1.87696	2.78613	0.110779	-0.205335	0.40466	0.716337	-0.278296	0.0590482	0.0534978	0.926913	-0.0451577	0.174182	0.783466	1.03906	-0.0723395	-0.536005	0.661934	1.16329	
7.92847	0	0	-0.835771	-0.082772	-0.302424	1.89025	-0.599492	-0.627165	-0.725178	0.949098	0.244953	-0.0112935	0.060618	1.62727	1.06062	1.3342	1.87713	2.7634	0.100006	-0.206583	0.394939	0.693808	-0.285289	0.0303195	0.0418945	0.90545	-0.0558975	0.146446	0.772798	1.02058	-0.080504	-0.54581	0.653657	1.13986	
7.92389	0	0	-0.840615	-0.10466	-0.306315	1.86655	-0.598914	-0.646353	-0.723759	0.919761	0.248199	-0.0204672	0.05802	1.60417	1.05553	1.31598	1.87731	2.74068	0.0892343	-0.207831	0.385219	0.671278	-0.292282	0.00159075	0.0302912	0.883988	-0.0666373	0.118709	0.762129	1.0021	-0.0886685	-0.555614	0.64538	1.11644	
7.91778	0	0	-0.84546	-0.126548	-0.310207	1.84285	-0.598336	-0.665541	-0.722339	0.890425	0.251445	-0.029641	0.055422	1.58107	1.05045	1.29777	1.87749	2.71795	0.078462	-0.209079	0.375498	0.648748	-0.299275	-0.027138	0.018688	0.862525	-0.077377	0.090973	0.75146	0.983624	-0.096833	-0.565419	0.637103	1.09301	
7.91321	0	0	-0.851449	-0.136262	-0.320593	1.85488	-0.603454	-0.659848	-0.7301	0.895497	0.266397	-0.0146945	0.0562042	1.59915	1.05464	1.3022	1.88755	2.73398	0.0792242	-0.211233	0.375671	0.658249	-0.295313	-0.00925475	0.0177423	0.876036	-0.0730283	0.103556	0.758926	0.99493	-0.0895408	-0.553149	0.634535	1.09248	
7.90863	0	0	-0.857438	-0.145975	-0.33098	1.8669	-0.608572	-0.654156	-0.737862	0.900568	0.281349	0.000252	0.0569865	1.61723	1.05884	1.30663	1.89762	2.75002	0.0799865	-0.213388	0.375844	0.667749	-0.291351	0.0086285	0.0167965	0.889548	-0.0686795	0.116139	0.766392	1.00624	-0.0822485	-0.54088	0.631968	1.09194	
7.91015	0	0	-0.863427	-0.155689	-0.341367	1.87893	-0.613689	-0.648463	-0.745623	0.90564	0.2963	0.0151985	0.0577688	1.63531	1.06303	1.31106	1.90768	2.76605	0.0807488	-0.215542	0.376017	0.677249	-0.28739	0.0265117	0.0158508	0.90306	-0.0643308	0.128722	0.773858	1.01754	-0.0749563	-0.528611	0.629401	1.09141	
7.91473	0	0	-0.869416	-0.165403	-0.351753	1.89096	-0.618807	-0.64277	-0.753385	0.910711	0.311252	0.030145	0.058551	1.65339	1.06723	1.31549	1.91775	2.78208	0.081511	-0.217696	0.37619	0.68675	-0.283428	0.044395	0.014905	0.916571	-0.059982	0.141305	0.781324	1.02885	-0.067664	-0.516341	0.626833	1.09087	
7.92084	0	0	-0.876265	-0.19036	-0.355266	1.87493	-0.620395	-0.655811	-0.750154	0.893154	0.310764	0.0251603	0.0595873	1.64031	1.07053	1.30616	1.93479	2.7785	0.0699965	-0.216793	0.369775	0.674926	-0.287146	0.0161393	0.0103263	0.897015	-0.0677958	0.113675	0.77332	1.01097	-0.0758262	-0.526151	0.610878	1.06598	
7.93457	0	0	-0.883115	-0.215317	-0.358779	1.8589	-0.621984	-0.668852	-0.746923	0.875596	0.310275	0.0201755	0.0606235	1.62724	1.07383	1.29683	1.95184	2.77492	0.058482	-0.21589	0.36336	0.663102	-0.290863	-0.0121165	0.0057475	0.877459	-0.0756095	0.086045	0.765316	0.99309	-0.0839885	-0.535961	0.594923	1.0411	
7.95441	0	0	-0.889965	-0.240275	-0.362292	1.84287	-0.623572	-0.681893	-0.743692	0.858039	0.309787	0.0151907	0.0616597	1.61416	1.07713	1.2875	1.96888	2.77133	0.0469675	-0.214987	0.356946	0.651279	-0.294581	-0.0403722	0.00116875	0.857903	-0.0834233	0.058415	0.757313	0.97521	-0.0921508	-0.545772	0.578967	1.01621	
7.97424	0	0	-0.896814	-0.265232	-0.365805	1.82684	-0.62516	-0.694934	-0.740461	0.840482	0.309299	0.010206	0.062696	1.60109	1.08044	1.27817	1.98592	2.76775	0.035453	-0.214084	0.350531	0.639455	-0.298299	-0.068628	-0.00341	0.838347	-0.091237	0.030785	0.749309	0.957331	-0.100313	-0.555582	0.563012	0.991327	
7.9895	0	0	-0.899848	-0.265509	-0.367483	1.84888	-0.621698	-0.678418	-0.739812	0.855504	0.324449	0.0375197	0.0801122	1.6332	1.08863	1.30395	2.013	2.80316	0.0462053	-0.212833	0.365013	0.668492	-0.289187	-0.0362037	0.0037205	0.872386	-0.0863528	0.0583992	0.757848	0.981809	-0.0927275	-0.535913	0.564074	1.00385	
8.00781	0	0	-0.902882	-0.265785	-0.369162	1.87093	-0.618236	-0.661903	-0.739164	0.870526	0.339599	0.0648335	0.0975285	1.66531	1.09683	1.32973	2.04007	2.83858	0.0569575	-0.211581	0.379494	0.697529	-0.280076	-0.0037795	0.010851	0.906426	-0.0814685	0.0860135	0.766387	1.00629	-0.085142	-0.516244	0.565136	1.01638	
8.02307	0	0	-0.905915	-0.266062	-0.37084	1.89297	-0.614773	-0.645387	-0.738515	0.885549	0.354748	0.0921472	0.114945	1.69743	1.10503	1.35551	2.06715	2.87399	0.0677097	-0.21033	0.393976	0.726566	-0.270964	0.0286448	0.0179815	0.940465	-0.0765842	0.113628	0.774925	1.03076	-0.0775565	-0.496576	0.566198	1.02891	
8.02917	0	0	-0.908949	-0.266338	-0.372518	1.91502	-0.611311	-0.628871	-0.737866	0.900571	0.369898	0.119461	0.132361	1.72954	1.11323	1.38129	2.09423	2.9094	0.078462	-0.209079	0.408458	0.755603	-0.261853	0.061069	0.025112	0.974505	-0.0717	0.141242	0.783464	1.05524	-0.069971	-0.476907	0.56726	1.04143	
8.0368	0	0	-0.905752	-0.284218	-0.371311	1.91161	-0.603231	-0.63415	-0.732799	0.894683	0.376267	0.120632	0.133795	1.72549	1.12386	1.38396	2.11651	2.91391	0.0741585	-0.209579	0.414548	0.748407	-0.260423	0.0473177	0.0260662	0.960958	-0.077199	0.123642	0.781328	1.04506	-0.071139	-0.481834	0.559539	1.02446	
8.04291	0	0	-0.902556	-0.302098	-0.370105	1.9082	-0.595152	-0.63943	-0.727731	0.888795	0.382637	0.121803	0.135229	1.72143	1.13449	1.38662	2.13879	2.91841	0.069855	-0.210079	0.420639	0.74121	-0.258992	0.0335665	0.0270205	0.94741	-0.082698	0.106041	0.779192	1.03488	-0.072307	-0.486762	0.551818	1.00748	
8.04443	0	0	-0.89936	-0.319977	-0.368898	1.90478	-0.587072	-0.64471	-0.722664	0.882907	0.389007	0.122973	0.136663	1.71738	1.14512	1.38928	2.16108	2.92292	0.0655515	-0.21058	0.426729	0.734014	-0.257561	0.0198152	0.0279747	0.933863	-0.088197	0.0884405	0.777055	1.0247	-0.073475	-0.491689	0.544097	0.990509	
8.04596	0	0	-0.896163	-0.337857	-0.367691	1.90137	-0.578992	-0.649989	-0.717596	0.877019	0.395376	0.124144	0.138097	1.71333	1.15575	1.39195	2.18336	2.92742	0.061248	-0.21108	0.43282	0.726818	-0.256131	0.006064	0.028929	0.920316	-0.093696	0.07084	0.774919	1.01452	-0.074643	-0.496616	0.536376	0.973534	
8.04748	0	0	-0.896243	-0.328786	-0.36661	1.9243	-0.574732	-0.626868	-0.718139	0.895431	0.408104	0.158638	0.147587	1.74774	1.1644	1.42486	2.20723	2.96165	0.077717	-0.206924	0.444371	0.76444	-0.242793	0.0461793	0.034556	0.958731	-0.0856328	0.106089	0.78025	1.04815	-0.0723145	-0.462017	0.54105	0.999119	
8.04443	0	0	-0.896323	-0.319715	-0.365529	1.94723	-0.570473	-0.603747	-0.718681	0.913844	0.420833	0.193132	0.157076	1.78216	1.17306	1.45778	2.2311	2.99587	0.094186	-0.202769	0.455922	0.802062	-0.229455	0.0862945	0.040183	0.997146	-0.0775695	0.141338	0.785581	1.08178	-0.069986	-0.427418	0.545724	1.0247	
8.04596	0	0	-0.896402	-0.310644	-0.364448	1.97016	-0.566213	-0.580626	-0.719224	0.932256	0.433562	0.227625	0.166565	1.81658	1.18171	1.4907	2.25498	3.0301	0.110655	-0.198613	0.467473	0.839685	-0.216118	0.12641	0.04581	1.03556	-0.0695062	0.176587	0.790911	1.11541	-0.0676575	-0.392818	0.550399	1.05029	
8.0368	0	0	-0.896482	-0.301573	-0.363367	1.99309	-0.561954	-0.557505	-0.719766	0.950668	0.44629	0.262119	0.176055	1.85099	1.19036	1.52362	2.27885	3.06432	0.127124	-0.194458	0.479024	0.877307	-0.20278	0.166525	0.051437	1.07398	-0.061443	0.211836	0.796242	1.14904	-0.065329	-0.358219	0.555073	1.07587	
8.03223	0	0	-0.893368	-0.310373	-0.359377	1.99048	-0.556024	-0.55666	-0.715879	0.948128	0.451036	0.267971	0.180761	1.84792	1.20147	1.5333	2.29087	3.07573	0.130809	-0.198525	0.483654	0.874282	-0.199221	0.156466	0.0509125	1.06458	-0.0666728	0.20172	0.796782	1.13939	-0.064452	-0.360698	0.549432	1.06853	
8.02612	0	0	-0.890254	-0.319173	-0.355387	1.98787	-0.550094	-0.555814	-0.711993	0.945588	0.455782	0.273822	0.185468	1.84484	1.21259	1.54298	2.30288	3.08713	0.134494	-0.202591	0.488284	0.871256	-0.195662	0.146408	0.050388	1.05519	-0.0719025	0.191605	0.797321	1.12974	-0.063575	-0.363177	0.54379	1.06119	
8.01849	0	0	-0.887141	-0.327973	-0.351397	1.98527	-0.544164	-0.554968	-0.708106	0.943049	0.460529	0.279673	0.190174	1.84177	1.2237	1.55266	2.3149	3.09854	0.138179	-0.206658	0.492914	0.868231	-0.192103	0.136349	0.0498635	1.04579	-0.0771322	0.181489	0.79786	1.12009	-0.062698	-0.365656	0.538148	1.05385	
8.01086	0	0	-0.884027	-0.336773	-0.347407	1.98266	-0.538234	-0.554123	-0.704219	0.940509	0.465275	0.285525	0.19488	1.83869	1.23481	1.56235	2.32692	3.10994	0.141864	-0.210725	0.497544	0.865206	-0.188544	0.12629	0.049339	1.0364	-0.082362	0.171374	0.7984	1.11044	-0.061821	-0.368135	0.532507	1.0465	
8.00171	0	0	-0.887061	-0.337044	-0.351041	1.99293	-0.538529	-0.54448	-0.708106	0.943049	0.471949	0.31169	0.189477	1.86419	1.24035	1.58787	2.32671	3.13326	0.156992	-0.208988	0.504147	0.886836	-0.179423	0.159083	0.0574158	1.05712	-0.073685	0.196675	0.802111	1.14061	-0.0551285	-0.345778	0.535622	1.06876	
7.99866	0	0	-0.890095	-0.337315	-0.354676	2.0032	-0.538825	-0.534836	-0.711993	0.945588	0.478623	0.337856	0.184074	1.88969	1.24589	1.61339	2.32651	3.15658	0.17212	-0.207252	0.510751	0.908467	-0.170301	0.191877	0.0654925	1.07783	-0.065008	0.221976	0.805823	1.17078	-0.048436	-0.323421	0.538736	1.09101	
7.98645	0	0	-0.893129	-0.337586	-0.35831	2.01347	-0.539121	-0.525193	-0.715879	0.948128	0.485298	0.364021	0.178671	1.91519	1.25143	1.63892	2.3263	3.1799	0.187248	-0.205515	0.517355	0.930097	-0.16118	0.22467	0.0735693	1.09855	-0.056331	0.247277	0.809535	1.20095	-0.0417435	-0.301064	0.541851	1.11326	
7.97577	0	0	-0.896163	-0.337857	-0.361944	2.02374	-0.539416	-0.515549	-0.719766	0.950668	0.491972	0.390187	0.173268	1.9407	1.25697	1.66444	2.32609	3.20322	0.202376	-0.203779	0.523958	0.951727	-0.152059	0.257463	0.081646	1.11927	-0.047654	0.272578	0.813246	1.23112	-0.035051	-0.278707	0.544966	1.13551	
7.96661	0	0	-0.892982	-0.355691	-0.361449	2.00501	-0.533184	-0.524347	-0.716202	0.940594	0.495765	0.385909	0.171079	1.92643	1.25965	1.66513	2.32965	3.19315	0.201741	-0.208347	0.519164	0.945119	-0.153908	0.243144	0.0725987	1.11217	-0.057851	0.259868	0.805782	1.21968	-0.0382547	-0.286172	0.537791	1.12474	
7.95593	0	0	-0.8898	-0.373525	-0.360953	1.98627	-0.526952	-0.533146	-0.712637	0.93052	0.499558	0.381631	0.16889	1.91216	1.26232	1.66582	2.33321	3.18309	0.201106	-0.212915	0.51437	0.938511	-0.155757	0.228824	0.0635515	1.10507	-0.068048	0.247158	0.798318	1.20824	-0.0414585	-0.293637	0.530615	1.11396	
7.9483	0	0	-0.886618	-0.391359	-0.360457	1.96754	-0.520721	-0.541945	-0.709072	0.920446	0.503351	0.377353	0.166701	1.89789	1.265	1.6665	2.33677	3.17303	0.200471	-0.217484	0.509575	0.931902	-0.157605	0.214504	0.0545042	1.09798	-0.078245	0.234448	0.790854	1.1968	-0.0446623	-0.301102	0.52344	1.10318	
7.94067	0	0	-0.883437	-0.409193	-0.359962	1.9488	-0.514489	-0.550743	-0.705508	0.910372	0.507144	0.373075	0.164512	1.88362	1.26767	1.66719	2.34033	3.16297	0.199836	-0.222052	0.504781	0.925294	-0.159454	0.200185	0.045457	1.09088	-0.088442	0.221738	0.78339	1.18536	-0.047866	-0.308567	0.516265	1.0924	
7.92847	0	0	-0.893494	-0.416097	-0.365516	1.94718	-0.521512	-0.548516	-0.713597	0.907922	0.509891	0.3911	0.158732	1.89995	1.26586	1.68056	2.33154	3.17645	0.210026	-0.225389	0.512722	0.933096	-0.154568	0.225487	0.0515062	1.10645	-0.0818185	0.244547	0.791378	1.20346	-0.0461452	-0.288645	0.519865	1.10552	
7.91931	0	0	-0.90355	-0.423001	-0.37107	1.94556	-0.528535	-0.546289	-0.721687	0.905471	0.512638	0.409125	0.152953	1.91628	1.26405	1.69392	2.32274	3.18993	0.220217	-0.228725	0.520663	0.940898	-0.149683	0.250788	0.0575555	1.12202	-0.075195	0.267357	0.799365	1.22156	-0.0444245	-0.268724	0.523464	1.11863	
7.91321	0	0	-0.913606	-0.429906	-0.376624	1.94394	-0.535558	-0.544063	-0.729777	0.903021	0.515385	0.42715	0.147173	1.93262	1.26224	1.70729	2.31395	3.20341	0.230407	-0.232062	0.528604	0.948701	-0.144798	0.27609	0.0636047	1.13759	-0.0685715	0.290166	0.807352	1.23967	-0.0427037	-0.248802	0.527064	1.13175	
7.90253	0	0	-0.923663	-0.43681	-0.382178	1.94232	-0.542581	-0.541836	-0.737866	0.900571	0.518132	0.445175	0.141394	1.94895	1.26043	1.72066	2.30516	3.21689	0.240597	-0.235399	0.536545	0.956503	-0.139912	0.301392	0.069654	1.15316	-0.061948	0.312976	0.81534	1.25777	-0.040983	-0.22888	0.530664	1.14486	
7.89184	0	0	-0.92353	-0.454823	-0.381697	1.92366	-0.539322	-0.551048	-0.73194	0.883825	0.519313	0.435387	0.139212	1.93468	1.26604	1.70481	2.30527	3.20522	0.234863	-0.238294	0.530097	0.944481	-0.145987	0.279453	0.0701085	1.13009	-0.069462	0.292683	0.80895	1.24328	-0.0386195	-0.243825	0.522973	1.1278	
7.88269	0	0	-0.923397	-0.472836	-0.381216	1.90499	-0.536062	-0.560259	-0.726015	0.867079	0.520493	0.4256	0.13703	1.92042	1.27165	1.68896	2.30538	3.19355	0.229129	-0.241189	0.523649	0.932459	-0.152062	0.257514	0.070563	1.10702	-0.076976	0.27239	0.802559	1.22879	-0.036256	-0.258769	0.515281	1.11074	
7.87659	0	0	-0.923265	-0.490849	-0.380735	1.88633	-0.532803	-0.569471	-0.72009	0.850333	0.521674	0.415812	0.134848	1.90615	1.27725	1.67311	2.30549	3.18187	0.223396	-0.244084	0.517201	0.920438	-0.158138	0.235576	0.0710175	1.08395	-0.08449	0.252098	0.796169	1.2143	-0.0338925	-0.273714	0.50759	1.09369	
7.87048	0	0	-0.923132	-0.508862	-0.380254	1.86767	-0.529544	-0.578683	-0.714164	0.833587	0.522855	0.406024	0.132666	1.89188	1.28286	1.65726	2.3056	3.1702	0.217662	-0.246979	0.510753	0.908416	-0.164213	0.213637	0.071472	1.06088	-0.092004	0.231805	0.789779	1.19982	-0.031529	-0.288659	0.499898	1.07663	
7.86133	0	0	-0.928218	-0.503301	-0.387849	1.88049	-0.527956	-0.56555	-0.724291	0.845351	0.528218	0.429604	0.130506	1.91842	1.28105	1.67063	2.30716	3.18853	0.222631	-0.241923	0.515705	0.924667	-0.151514	0.236441	0.0715325	1.0934	-0.085135	0.262237	0.795615	1.22402	-0.0277662	-0.26621	0.499924	1.09206	
7.85675	0	0	-0.933304	-0.497739	-0.395444	1.89331	-0.526368	-0.552416	-0.734417	0.857115	0.533581	0.453183	0.128347	1.94496	1.27924	1.68399	2.30872	3.20686	0.2276	-0.236867	0.520656	0.940918	-0.138815	0.259246	0.071593	1.12591	-0.078266	0.29267	0.801451	1.24822	-0.0240035	-0.243762	0.49995	1.1075	
7.8598	0	0	-0.938391	-0.492177	-0.403039	1.90613	-0.52478	-0.539283	-0.744544	0.868878	0.538944	0.476763	0.126187	1.97149	1.27744	1.69736	2.31027	3.22518	0.23257	-0.231811	0.525608	0.95717	-0.126115	0.28205	0.0716535	1.15843	-0.071397	0.323102	0.807286	1.27242	-0.0202408	-0.221313	0.499977	1.12293	
7.85522	0	0	-0.943477	-0.486616	-0.410634	1.91895	-0.523192	-0.52615	-0.754671	0.880642	0.544307	0.500343	0.124027	1.99803	1.27563	1.71073	2.31183	3.24351	0.237539	-0.226755	0.530559	0.973421	-0.113416	0.304854	0.071714	1.19094	-0.064528	0.353534	0.813122	1.29662	-0.016478	-0.198864	0.500003	1.13836	
7.85675	0	0	-0.939421	-0.489266	-0.407018	1.90873	-0.516162	-0.528378	-0.750793	0.878108	0.542998	0.497581	0.123665	1.98884	1.27632	1.70053	2.31016	3.23686	0.231806	-0.229652	0.527258	0.96258	-0.121885	0.289637	0.0706805	1.17207	-0.069105	0.333225	0.809407	1.28269	-0.0196808	-0.206362	0.490296	1.12705	
7.85522	0	0	-0.935365	-0.491916	-0.403401	1.89851	-0.509133	-0.530607	-0.746915	0.875574	0.541689	0.494819	0.123303	1.97964	1.277	1.69033	2.30849	3.2302	0.226073	-0.232549	0.523958	0.95174	-0.130353	0.27442	0.069647	1.15319	-0.073682	0.312916	0.805692	1.26876	-0.0228835	-0.21386	0.480588	1.11574	
7.8598	0	0	-0.931309	-0.494567	-0.399785	1.88829	-0.502104	-0.532836	-0.743037	0.87304	0.54038	0.492057	0.122941	1.97044	1.27769	1.68013	2.30683	3.22355	0.220339	-0.235446	0.520657	0.940899	-0.138822	0.259203	0.0686135	1.13432	-0.078259	0.292606	0.801977	1.25484	-0.0260862	-0.221357	0.470881	1.10443	
7.86285	0	0	-0.927253	-0.497217	-0.396169	1.87807	-0.495074	-0.535064	-0.739159	0.870506	0.539071	0.489295	0.122579	1.96125	1.27838	1.66993	2.30516	3.21689	0.214606	-0.238343	0.517357	0.930059	-0.14729	0.243986	0.06758	1.11544	-0.082836	0.272297	0.798262	1.24091	-0.029289	-0.228855	0.461174	1.09311	
7.86743	0	0	-0.930416	-0.479463	-0.396654	1.89673	-0.493787	-0.512213	-0.741209	0.884729	0.544422	0.512976	0.125107	1.98478	1.27657	1.6833	2.30671	3.23526	0.221741	-0.233038	0.522307	0.946329	-0.140295	0.273166	0.0756523	1.13625	-0.0750773	0.300259	0.804092	1.26516	-0.0208387	-0.211337	0.467312	1.10676	
7.87048	0	0	-0.933578	-0.461708	-0.397139	1.9154	-0.492499	-0.489363	-0.743259	0.898953	0.549773	0.536656	0.127634	2.00831	1.27476	1.69668	2.30826	3.25362	0.228877	-0.227734	0.527257	0.9626	-0.1333	0.302347	0.0837245	1.15705	-0.0673185	0.328221	0.809923	1.28941	-0.0123885	-0.193819	0.473449	1.1204	
7.87506	0	0	-0.93674	-0.443954	-0.397623	1.93406	-0.491212	-0.466512	-0.745309	0.913176	0.555124	0.560337	0.130162	2.03184	1.27295	1.71005	2.3098	3.27199	0.236013	-0.222429	0.532208	0.97887	-0.126304	0.331527	0.0917967	1.17786	-0.0595598	0.356183	0.815754	1.31366	-0.00393825	-0.176301	0.479587	1.13405	
7.87811	0	0	-0.939903	-0.426199	-0.398108	1.95273	-0.489925	-0.443662	-0.747359	0.927399	0.560475	0.584017	0.13269	2.05538	1.27114	1.72342	2.31135	3.29036	0.243148	-0.217124	0.537158	0.99514	-0.119309	0.360707	0.099869	1.19867	-0.051801	0.384145	0.821584	1.33792	0.004512	-0.158783	0.485725	1.14769	
7.87659	0	0	-0.928751	-0.431242	-0.3969	1.94931	-0.48288	-0.445891	-0.738407	0.918971	0.558218	0.570984	0.135231	2.03796	1.2707	1.71639	2.31671	3.27523	0.240343	-0.221938	0.533858	0.984287	-0.123265	0.342502	0.0973327	1.18401	-0.0572702	0.366327	0.816275	1.32033	0.0042365	-0.166292	0.479587	1.13405	
7.87964	0	0	-0.917598	-0.436285	-0.395693	1.9459	-0.475835	-0.448121	-0.729456	0.910543	0.555961	0.557951	0.137771	2.02055	1.27027	1.70935	2.32206	3.26009	0.237539	-0.226752	0.530558	0.973434	-0.127221	0.324298	0.0947965	1.16936	-0.0627395	0.348509	0.810967	1.30274	0.003961	-0.1738	0.473449	1.1204	
7.87506	0	0	-0.906446	-0.441329	-0.394485	1.94249	-0.468791	-0.45035	-0.720504	0.902115	0.553704	0.544918	0.140312	2.00314	1.26984	1.70232	2.32741	3.24496	0.234735	-0.231566	0.527258	0.96258	-0.131178	0.306094	0.0922603	1.1547	-0.0682087	0.330691	0.805659	1.28515	0.0036855	-0.181309	0.467312	1.10676	
7.87048	0	0	-0.895293	-0.446372	-0.393277	1.93907	-0.461746	-0.45258	-0.711552	0.893687	0.551447	0.531885	0.142852	1.98573	1.26941	1.69528	2.33277	3.22983	0.23193	-0.23638	0.523958	0.951727	-0.135134	0.287889	0.089724	1.14005	-0.073678	0.312873	0.80035	1.26756	0.00341	-0.188817	0.461174	1.09311	
7.87048	0	0	-0.895362	-0.437343	-0.395338	1.95355	-0.463143	-0.439787	-0.715114	0.903753	0.552756	0.534654	0.147925	1.99186	1.27096	1.69915	2.3292	3.23992	0.23193	-0.23638	0.533404	0.95531	-0.131178	0.306094	0.093763	1.15045	-0.066169	0.333255	0.80514	1.27846	0.0086625	-0.178789	0.463226	1.1028	
7.86438	0	0	-0.895431	-0.428314	-0.397398	1.96803	-0.464539	-0.426994	-0.718676	0.91382	0.554065	0.537423	0.152998	1.99799	1.27252	1.70301	2.32563	3.25	0.23193	-0.23638	0.542849	0.958893	-0.127221	0.324298	0.097802	1.16086	-0.05866	0.353637	0.809929	1.28937	0.013915	-0.168761	0.465279	1.11249	
7.86285	0	0	-0.8955	-0.419286	-0.399459	1.9825	-0.465936	-0.414201	-0.722237	0.923887	0.555374	0.540191	0.15807	2.00413	1.27407	1.70687	2.32206	3.26009	0.23193	-0.23638	0.552295	0.962476	-0.123265	0.342502	0.101841	1.17127	-0.051151	0.374019	0.814719	1.30027	0.0191675	-0.158732	0.467332	1.12218	
7.8598	0	0	-0.895569	-0.410257	-0.40152	1.99698	-0.467333	-0.401408	-0.725799	0.933953	0.556683	0.54296	0.163143	2.01026	1.27563	1.71073	2.31849	3.27017	0.23193	-0.23638	0.56174	0.966059	-0.119309	0.360707	0.10588	1.18168	-0.043642	0.394401	0.819509	1.31117	0.02442	-0.148704	0.469384	1.13187	
7.8537	0	0	-0.899635	-0.4076	-0.396326	1.99096	-0.468122	-0.408023	-0.72612	0.926424	0.550845	0.514227	0.154081	1.98474	1.2732	1.69283	2.31527	3.24518	0.224035	-0.23952	0.548993	0.951648	-0.126304	0.331527	0.0978023	1.16089	-0.0522955	0.368944	0.813149	1.2803	0.0218188	-0.166225	0.466811	1.11591	
7.84912	0	0	-0.903701	-0.404944	-0.391132	1.98494	-0.468912	-0.414638	-0.726442	0.918895	0.545008	0.485493	0.145018	1.95923	1.27078	1.67493	2.31205	3.22018	0.216139	-0.24266	0.536247	0.937237	-0.1333	0.302347	0.0897245	1.1401	-0.060949	0.343488	0.806788	1.24943	0.0192175	-0.183747	0.464238	1.09995	
7.85065	0	0	-0.907766	-0.402287	-0.385938	1.97891	-0.469701	-0.421253	-0.726764	0.911366	0.53917	0.456759	0.135956	1.93371	1.26835	1.65703	2.30883	3.19519	0.208244	-0.2458	0.5235	0.922827	-0.140295	0.273166	0.0816467	1.11931	-0.0696025	0.318031	0.800427	1.21857	0.0166162	-0.201268	0.461665	1.08399	
7.84607	0	0	-0.911832	-0.39963	-0.380744	1.97289	-0.47049	-0.427868	-0.727085	0.903837	0.533333	0.428026	0.126893	1.9082	1.26593	1.63913	2.3056	3.1702	0.200349	-0.24894	0.510753	0.908416	-0.14729	0.243986	0.073569	1.09851	-0.078256	0.292574	0.794067	1.1877	0.014015	-0.218789	0.459092	1.06804	
7.84302	0	0	-0.904881	-0.383916	-0.377256	1.98903	-0.465933	-0.414196	-0.730966	0.906373	0.53001	0.437417	0.128706	1.91329	1.26257	1.64862	2.29871	3.16698	0.203913	-0.246291	0.515549	0.915018	-0.14241	0.269346	0.0826283	1.10562	-0.066913	0.310429	0.80046	1.20218	0.0192727	-0.208776	0.46932	1.08562	
7.84302	0	0	-0.89793	-0.368201	-0.373769	2.00517	-0.461377	-0.400523	-0.734848	0.90891	0.526687	0.446808	0.130518	1.91838	1.25921	1.65812	2.29182	3.16376	0.207477	-0.243642	0.520346	0.92162	-0.137531	0.294705	0.0916875	1.11272	-0.05557	0.328284	0.806854	1.21666	0.0245305	-0.198762	0.479548	1.1032	
7.83844	0	0	-0.890978	-0.352487	-0.370281	2.02131	-0.45682	-0.38685	-0.73873	0.911446	0.523364	0.456198	0.132331	1.92347	1.25585	1.66761	2.28492	3.16054	0.211042	-0.240992	0.525143	0.928223	-0.132652	0.320064	0.100747	1.11982	-0.044227	0.346139	0.813247	1.23114	0.0297883	-0.188749	0.489775	1.12078	
7.83234	0	0	-0.884027	-0.336773	-0.366793	2.03745	-0.452263	-0.373178	-0.742611	0.913982	0.520041	0.465589	0.134143	1.92856	1.25249	1.67711	2.27803	3.15732	0.214606	-0.238343	0.529939	0.934825	-0.127772	0.345424	0.109806	1.12692	-0.032884	0.363994	0.81964	1.24562	0.035046	-0.178735	0.500003	1.13836	
7.82928	0	0	-0.881953	-0.342635	-0.365085	2.01529	-0.451957	-0.382897	-0.743257	0.898952	0.519435	0.44795	0.128332	1.90416	1.25697	1.66445	2.27125	3.14248	0.208116	-0.23908	0.529618	0.915576	-0.132652	0.320065	0.100222	1.11041	-0.0424418	0.341093	0.810051	1.22392	0.026579	-0.196242	0.497424	1.12239	
7.82776	0	0	-0.879879	-0.348497	-0.363378	1.99313	-0.451651	-0.392616	-0.743904	0.883923	0.518829	0.430311	0.12252	1.87977	1.26145	1.65179	2.26447	3.12764	0.201625	-0.239818	0.529296	0.896327	-0.137531	0.294705	0.090639	1.0939	-0.0519995	0.318193	0.800463	1.20221	0.018112	-0.213749	0.494846	1.10642	
7.82013	0	0	-0.877804	-0.354359	-0.36167	1.97097	-0.451345	-0.402335	-0.74455	0.868893	0.518223	0.412673	0.116708	1.85537	1.26593	1.63913	2.25769	3.1128	0.195134	-0.240555	0.528975	0.877079	-0.14241	0.269346	0.0810555	1.07739	-0.0615572	0.295293	0.790874	1.18051	0.009645	-0.231256	0.492267	1.09045	
7.8186	0	0	-0.87573	-0.360221	-0.359962	1.9488	-0.451039	-0.412054	-0.745196	0.853864	0.517617	0.395034	0.110897	1.83097	1.27041	1.62647	2.25091	3.09796	0.188644	-0.241292	0.528653	0.85783	-0.14729	0.243986	0.071472	1.06088	-0.071115	0.272392	0.781285	1.15881	0.001178	-0.248763	0.489689	1.07448	
7.8125	0	0	-0.876845	-0.348221	-0.366367	1.95825	-0.450557	-0.395701	-0.749935	0.867258	0.528097	0.417065	0.115263	1.85945	1.27551	1.64505	2.26626	3.12266	0.197171	-0.233581	0.540077	0.886082	-0.133663	0.27404	0.0815762	1.08684	-0.0586187	0.29532	0.793548	1.1811	0.0152343	-0.238753	0.495839	1.08812	
7.80945	0	0	-0.877959	-0.33622	-0.372772	1.96769	-0.450076	-0.379348	-0.754674	0.880652	0.538577	0.439095	0.119629	1.88793	1.28062	1.66363	2.2816	3.14736	0.205699	-0.22587	0.551501	0.914335	-0.120036	0.304094	0.0916805	1.11279	-0.0461225	0.318248	0.805811	1.20339	0.0292905	-0.228743	0.501988	1.10176	
7.80792	0	0	-0.879073	-0.324219	-0.379177	1.97713	-0.449595	-0.362996	-0.759414	0.894046	0.549057	0.461125	0.123996	1.91642	1.28572	1.68221	2.29694	3.17206	0.214227	-0.218159	0.562925	0.942587	-0.106409	0.334149	0.101785	1.13874	-0.0336262	0.341176	0.818074	1.22568	0.0433468	-0.218734	0.508138	1.11539	
7.80334	0	0	-0.880188	-0.312219	-0.385582	1.98657	-0.449113	-0.346643	-0.764153	0.90744	0.559537	0.483156	0.128362	1.9449	1.29083	1.70079	2.31228	3.19676	0.222754	-0.210448	0.574349	0.970839	-0.092782	0.364203	0.111889	1.16469	-0.02113	0.364104	0.830337	1.24797	0.057403	-0.208724	0.514288	1.12903	
7.79724	0	0	-0.876037	-0.323951	-0.388713	1.97811	-0.446919	-0.352843	-0.762968	0.90409	0.562033	0.476101	0.134511	1.93774	1.30112	1.69651	2.33302	3.20646	0.223646	-0.219336	0.579001	0.967799	-0.0979405	0.349366	0.114366	1.14678	-0.0304407	0.348796	0.82394	1.23349	0.0530195	-0.221219	0.503559	1.12059	
7.79571	0	0	-0.871886	-0.335682	-0.391845	1.96965	-0.444726	-0.359042	-0.761782	0.90074	0.56453	0.469046	0.14066	1.93058	1.31141	1.69223	2.35376	3.21615	0.224539	-0.228224	0.583654	0.964759	-0.103099	0.334529	0.116844	1.12886	-0.0397515	0.333488	0.817543	1.219	0.048636	-0.233715	0.492829	1.11215	
7.79266	0	0	-0.867735	-0.347413	-0.394977	1.96119	-0.442532	-0.365241	-0.760596	0.897389	0.567026	0.46199	0.146809	1.92343	1.3217	1.68794	2.3745	3.22585	0.225431	-0.237112	0.588307	0.961719	-0.108258	0.319691	0.119321	1.11095	-0.0490623	0.31818	0.811146	1.20452	0.0442525	-0.24621	0.4821	1.10371	
7.78961	0	0	-0.863584	-0.359145	-0.398108	1.95273	-0.440339	-0.371441	-0.759411	0.894039	0.569523	0.454935	0.152958	1.91627	1.33199	1.68366	2.39524	3.23554	0.226323	-0.246	0.592959	0.958679	-0.113416	0.304854	0.121798	1.09303	-0.058373	0.302872	0.804749	1.19003	0.039869	-0.258706	0.47137	1.09527	
7.78808	0	0	-0.87077	-0.347686	-0.398608	1.97145	-0.445826	-0.355934	-0.762969	0.904094	0.571912	0.480537	0.159129	1.95001	1.33598	1.70549	2.41571	3.28064	0.234992	-0.245022	0.609074	0.984053	-0.105219	0.330742	0.123363	1.12137	-0.0447275	0.330947	0.807919	1.21364	0.0501262	-0.246203	0.483637	1.10713	
7.78503	0	0	-0.877957	-0.336228	-0.399108	1.99017	-0.451313	-0.340427	-0.766527	0.914149	0.5743	0.506139	0.165299	1.98376	1.33997	1.72733	2.43618	3.32573	0.243662	-0.244043	0.625188	1.00943	-0.097022	0.356629	0.124928	1.14971	-0.031082	0.359023	0.811089	1.23724	0.0603835	-0.233701	0.495904	1.11898	
7.78503	0	0	-0.885143	-0.324769	-0.399608	2.00889	-0.4568	-0.32492	-0.770085	0.924204	0.576689	0.53174	0.17147	2.0175	1.34396	1.74916	2.45664	3.37082	0.252331	-0.243064	0.641302	1.0348	-0.088825	0.382516	0.126494	1.17805	-0.0174365	0.387098	0.814258	1.26085	0.0706408	-0.221198	0.508172	1.13084	
7.77893	0	0	-0.892329	-0.31331	-0.400108	2.02762	-0.462287	-0.309413	-0.773643	0.934259	0.579078	0.557342	0.177641	2.05125	1.34795	1.771	2.47711	3.41591	0.261001	-0.242086	0.657417	1.06018	-0.080628	0.408404	0.128059	1.20639	-0.003791	0.415173	0.817428	1.28445	0.080898	-0.208696	0.520439	1.1427	
7.77283	0	0	-0.887217	-0.318905	-0.396122	2.02501	-0.451142	-0.314308	-0.769765	0.931725	0.585041	0.553445	0.185264	2.03995	1.35601	1.77308	2.49801	3.42578	0.255262	-0.244979	0.657417	1.06018	-0.0836665	0.397354	0.124017	1.19597	-0.00877475	0.412575	0.816383	1.27112	0.0785607	-0.218698	0.513794	1.1382	
7.77588	0	0	-0.882106	-0.3245	-0.392135	2.02241	-0.439997	-0.319204	-0.765887	0.929191	0.591005	0.549548	0.192888	2.02866	1.36408	1.77516	2.51892	3.43565	0.249522	-0.247872	0.657417	1.06018	-0.086705	0.386304	0.119974	1.18554	-0.0137585	0.409978	0.815337	1.25778	0.0762235	-0.228701	0.507149	1.1337	
7.7713	0	0	-0.876995	-0.330095	-0.388149	2.0198	-0.428852	-0.324099	-0.762009	0.926657	0.596969	0.545652	0.200511	2.01737	1.37214	1.77724	2.53982	3.44552	0.243783	-0.250765	0.657417	1.06018	-0.0897435	0.375253	0.115932	1.17512	-0.0187423	0.407381	0.814292	1.24445	0.0738863	-0.238703	0.500503	1.1292	
7.7652	0	0	-0.871883	-0.33569	-0.384163	2.0172	-0.417707	-0.328995	-0.758131	0.924123	0.602932	0.541755	0.208135	2.00608	1.38021	1.77931	2.56072	3.45539	0.238044	-0.253658	0.657417	1.06018	-0.092782	0.364203	0.111889	1.16469	-0.023726	0.404783	0.813246	1.23112	0.071549	-0.248705	0.493858	1.12471	
7.76825	0	0	-0.868923	-0.326341	-0.381898	2.0368	-0.417235	-0.312572	-0.757813	0.931654	0.609973	0.560783	0.210315	2.02044	1.38759	1.79167	2.56758	3.47057	0.245312	-0.255086	0.659226	1.07538	-0.0867072	0.386329	0.119459	1.17608	-0.008515	0.420247	0.820718	1.24259	0.0827082	-0.238695	0.504598	1.13316	
7.76367	0	0	-0.865964	-0.316991	-0.379632	2.05641	-0.416764	-0.296148	-0.757495	0.939186	0.617013	0.579811	0.212496	2.0348	1.39497	1.80403	2.57444	3.48576	0.25258	-0.256515	0.661034	1.09058	-0.0806325	0.408456	0.127028	1.18747	0.006696	0.435712	0.828191	1.25406	0.0938675	-0.228685	0.515339	1.14162	
7.75757	0	0	-0.863004	-0.307642	-0.377366	2.07601	-0.416293	-0.279725	-0.757177	0.946717	0.624054	0.598838	0.214676	2.04916	1.40235	1.81639	2.58129	3.50094	0.259849	-0.257943	0.662843	1.10578	-0.0745578	0.430582	0.134598	1.19886	0.021907	0.451176	0.835663	1.26554	0.105027	-0.218675	0.526079	1.15008	
7.74994	0	0	-0.860045	-0.298293	-0.375101	2.09562	-0.415821	-0.263302	-0.756859	0.954248	0.631094	0.617866	0.216856	2.06353	1.40973	1.82874	2.58815	3.51613	0.267117	-0.259372	0.664651	1.12098	-0.068483	0.452709	0.142168	1.21025	0.037118	0.46664	0.843135	1.27701	0.116186	-0.208665	0.536819	1.15854	
7.74536	0	0	-0.850921	-0.297476	-0.368327	2.09383	-0.40654	-0.271759	-0.749416	0.941645	0.633487	0.59812	0.219027	2.03687	1.41425	1.81597	2.5884	3.49237	0.25921	-0.262504	0.659523	1.09487	-0.0766765	0.42676	0.1406	1.1819	0.0334265	0.443649	0.837283	1.25282	0.115611	-0.223671	0.534759	1.14883	
7.74383	0	0	-0.841798	-0.296658	-0.361552	2.09205	-0.397259	-0.280216	-0.741972	0.929042	0.635879	0.578374	0.221199	2.01021	1.41877	1.80319	2.58865	3.46862	0.251302	-0.265636	0.654396	1.06876	-0.08487	0.40081	0.139033	1.15355	0.029735	0.420658	0.83143	1.22863	0.115036	-0.238676	0.532698	1.13912	
7.74536	0	0	-0.832674	-0.295841	-0.354778	2.09026	-0.387978	-0.288673	-0.734528	0.91644	0.638271	0.558628	0.22337	1.98354	1.42329	1.79042	2.5889	3.44486	0.243395	-0.268769	0.649268	1.04265	-0.0930635	0.374861	0.137465	1.1252	0.0260435	0.397666	0.825578	1.20444	0.114462	-0.253682	0.530638	1.1294	
7.74078	0	0	-0.823551	-0.295024	-0.348004	2.08847	-0.378697	-0.29713	-0.727085	0.903837	0.640664	0.538882	0.225542	1.95688	1.42781	1.77764	2.58915	3.4211	0.235488	-0.271901	0.64414	1.01654	-0.101257	0.348912	0.135897	1.09685	0.022352	0.374675	0.819726	1.18025	0.113887	-0.268688	0.528578	1.11969	
7.73773	0	0	-0.817539	-0.285374	-0.338086	2.09521	-0.37602	-0.286908	-0.726764	0.911366	0.644251	0.55472	0.227732	1.97122	1.42755	1.79501	2.58023	3.43478	0.243395	-0.268769	0.652132	1.0244	-0.0906575	0.368062	0.147013	1.10915	0.034895	0.397758	0.830409	1.19894	0.12035	-0.253679	0.539858	1.13445	
7.74383	0	0	-0.811527	-0.275725	-0.328168	2.10194	-0.373342	-0.276686	-0.726442	0.918895	0.647839	0.570559	0.229923	1.98555	1.42729	1.81238	2.57132	3.44847	0.251302	-0.265636	0.660125	1.03225	-0.080058	0.387212	0.158129	1.12146	0.047438	0.420841	0.841091	1.21764	0.126813	-0.238671	0.551138	1.14922	
7.74994	0	0	-0.805516	-0.266076	-0.31825	2.10868	-0.370665	-0.266464	-0.72612	0.926424	0.651427	0.586398	0.232113	1.99989	1.42703	1.82975	2.5624	3.46215	0.25921	-0.262504	0.668117	1.04011	-0.0694585	0.406362	0.169245	1.13376	0.059981	0.443925	0.851774	1.23633	0.133277	-0.223662	0.562418	1.16398	
7.76672	0	0	-0.799504	-0.256426	-0.308332	2.11542	-0.367987	-0.256242	-0.725799	0.933953	0.655014	0.602236	0.234303	2.01422	1.42677	1.84712	2.55349	3.47583	0.267117	-0.259372	0.676109	1.04796	-0.058859	0.425512	0.180361	1.14607	0.072524	0.467008	0.862457	1.25503	0.13974	-0.208653	0.573698	1.17874	
7.78198	0	0	-0.793329	-0.26499	-0.306252	2.10084	-0.360583	-0.268266	-0.720726	0.928058	0.660038	0.588038	0.235384	2.0009	1.43939	1.83641	2.5747	3.46196	0.264308	-0.264176	0.675952	1.03826	-0.062822	0.407233	0.181333	1.13238	0.0670243	0.449082	0.856577	1.24719	0.137103	-0.226162	0.568056	1.17136	
7.80792	0	0	-0.787154	-0.273554	-0.304172	2.08627	-0.353179	-0.280289	-0.715653	0.922162	0.665061	0.57384	0.236466	1.98758	1.45202	1.8257	2.59592	3.4481	0.261498	-0.26898	0.675794	1.02855	-0.066785	0.388954	0.182306	1.11869	0.0615245	0.431156	0.850696	1.23935	0.134466	-0.243671	0.562413	1.16397	
7.82623	0	0	-0.780978	-0.282118	-0.302093	2.07169	-0.345775	-0.292312	-0.710581	0.916267	0.670085	0.559642	0.237548	1.97426	1.46465	1.81499	2.61714	3.43423	0.258689	-0.273785	0.675636	1.01884	-0.070748	0.370674	0.183279	1.10501	0.0560247	0.41323	0.844816	1.23151	0.131828	-0.261179	0.55677	1.15658	
7.85217	0	0	-0.774803	-0.290682	-0.300013	2.05712	-0.338371	-0.304336	-0.705508	0.910372	0.675109	0.545444	0.238629	1.96093	1.47727	1.80428	2.63836	3.42037	0.25588	-0.278589	0.675479	1.00913	-0.074711	0.352395	0.184251	1.09132	0.050525	0.395304	0.838936	1.22367	0.129191	-0.278688	0.551128	1.14919	
7.87201	0	0	-0.777852	-0.290953	-0.313226	2.06839	-0.345775	-0.292312	-0.709072	0.920446	0.676187	0.568412	0.238275	1.99275	1.47431	1.82098	2.63112	3.44084	0.266731	-0.277378	0.689832	1.01939	-0.063177	0.378802	0.190877	1.11639	0.061277	0.423528	0.85391	1.24664	0.135661	-0.263684	0.560374	1.16976	
7.88879	0	0	-0.780902	-0.291223	-0.32644	2.07967	-0.353179	-0.280289	-0.712637	0.93052	0.677264	0.591379	0.237921	2.02456	1.47134	1.83769	2.62387	3.46131	0.277582	-0.276168	0.704184	1.02965	-0.051643	0.40521	0.197502	1.14147	0.072029	0.451751	0.868884	1.26962	0.142131	-0.248679	0.569619	1.19033	
7.90253	0	0	-0.783951	-0.291494	-0.339653	2.09094	-0.360583	-0.268266	-0.716202	0.940594	0.678342	0.614347	0.237566	2.05637	1.46838	1.8544	2.61663	3.48178	0.288432	-0.274957	0.718537	1.0399	-0.040109	0.431617	0.204127	1.16654	0.082781	0.479975	0.883858	1.2926	0.148602	-0.233675	0.578865	1.2109	
7.90863	0	0	-0.787	-0.291765	-0.352867	2.10222	-0.367987	-0.256242	-0.719766	0.950668	0.67942	0.637315	0.237212	2.08819	1.46542	1.87111	2.60939	3.50225	0.299283	-0.273746	0.73289	1.05016	-0.028575	0.458024	0.210753	1.19162	0.093533	0.508199	0.898832	1.31557	0.155072	-0.218671	0.588111	1.23147	
7.91931	0	0	-0.779858	-0.294168	-0.355136	2.0826	-0.358689	-0.264714	-0.71318	0.948948	0.68793	0.626284	0.239389	2.06149	1.46725	1.8576	2.59915	3.47358	0.296468	-0.278548	0.724876	1.0423	-0.0289398	0.42953	0.208193	1.17694	0.0886813	0.480027	0.895098	1.30161	0.159793	-0.223682	0.587605	1.24069	
7.92389	0	0	-0.772715	-0.296572	-0.357405	2.06298	-0.34939	-0.273186	-0.706593	0.947228	0.696441	0.615254	0.241566	2.03479	1.46908	1.84409	2.58891	3.44492	0.293654	-0.283351	0.716862	1.03444	-0.0293045	0.401035	0.205633	1.16226	0.0838295	0.451856	0.891365	1.28765	0.164514	-0.228692	0.5871	1.24992	
7.92694	0	0	-0.765573	-0.298976	-0.359675	2.04336	-0.340092	-0.281657	-0.700007	0.945507	0.704951	0.604223	0.243743	2.00809	1.47091	1.83058	2.57867	3.41625	0.290839	-0.288153	0.708848	1.02658	-0.0296693	0.372541	0.203074	1.14758	0.0789777	0.423685	0.887631	1.27369	0.169235	-0.233703	0.586594	1.25914	
7.92694	0	0	-0.758431	-0.301379	-0.361944	2.02374	-0.330794	-0.290129	-0.693421	0.943787	0.713461	0.593192	0.24592	1.98139	1.47274	1.81707	2.56842	3.38758	0.288024	-0.292955	0.700834	1.01872	-0.030034	0.344047	0.200514	1.1329	0.074126	0.395513	0.883897	1.25973	0.173956	-0.238713	0.586088	1.26837	
7.92694	0	0	-0.760441	-0.304592	-0.374966	2.00859	-0.333481	-0.300341	-0.708412	0.935518	0.703634	0.601436	0.223413	1.98349	1.45543	1.8161	2.52477	3.38482	0.293776	-0.290072	0.700992	1.02844	-0.029386	0.361894	0.203074	1.14758	0.0825903	0.413475	0.888154	1.28039	0.187238	-0.22618	0.595846	1.29544	
7.91778	0	0	-0.762451	-0.307805	-0.387987	1.99344	-0.336168	-0.310552	-0.723403	0.927249	0.693808	0.60968	0.200906	1.98559	1.43811	1.81513	2.48112	3.38206	0.299528	-0.287189	0.701151	1.03815	-0.028738	0.379742	0.205633	1.16226	0.0910545	0.431438	0.892412	1.30105	0.200519	-0.213647	0.605604	1.32252	
7.91168	0	0	-0.764461	-0.311017	-0.401009	1.97828	-0.338856	-0.320764	-0.738394	0.91898	0.683982	0.617923	0.1784	1.9877	1.42079	1.81415	2.43747	3.37931	0.30528	-0.284306	0.701309	1.04787	-0.02809	0.397589	0.208193	1.17694	0.0995187	0.4494	0.896669	1.32171	0.213801	-0.201114	0.615362	1.3496	
7.90863	0	0	-0.766471	-0.31423	-0.414031	1.96313	-0.341543	-0.330975	-0.753385	0.910711	0.674155	0.626167	0.155893	1.9898	1.40348	1.81318	2.39382	3.37655	0.311032	-0.281423	0.701467	1.05759	-0.027442	0.415436	0.210753	1.19162	0.107983	0.467362	0.900926	1.34237	0.227082	-0.188581	0.62512	1.37668	
7.89337	0	0	-0.753358	-0.297868	-0.402811	1.94007	-0.333653	-0.326558	-0.742067	0.895588	0.68614	0.618336	0.1519	1.97041	1.4127	1.81207	2.38535	3.35483	0.316263	-0.289823	0.702814	1.04362	-0.025963	0.401414	0.208193	1.17694	0.104777	0.459658	0.898799	1.33203	0.226791	-0.196111	0.629233	1.36505	
7.89184	0	0	-0.740246	-0.281507	-0.39159	1.91701	-0.325762	-0.322141	-0.730749	0.880466	0.698125	0.610504	0.147907	1.95102	1.42191	1.81096	2.37689	3.33311	0.321494	-0.298223	0.70416	1.02965	-0.024484	0.387393	0.205633	1.16226	0.101571	0.451955	0.896672	1.32169	0.226499	-0.203642	0.633347	1.35343	
7.88269	0	0	-0.727133	-0.265146	-0.38037	1.89395	-0.317871	-0.317725	-0.719431	0.865343	0.710111	0.602672	0.143914	1.93162	1.43113	1.80985	2.36842	3.31139	0.326725	-0.306623	0.705507	1.01568	-0.023005	0.373371	0.203074	1.14758	0.0983643	0.444252	0.894544	1.31135	0.226208	-0.211172	0.63746	1.3418	
7.87353	0	0	-0.71402	-0.248784	-0.36915	1.87089	-0.309981	-0.313308	-0.708113	0.85022	0.722096	0.594841	0.139921	1.91223	1.44035	1.80874	2.35995	3.28967	0.331956	-0.315023	0.706854	1.00171	-0.021526	0.359349	0.200514	1.1329	0.095158	0.436548	0.892417	1.30101	0.225916	-0.218702	0.641573	1.33018	
7.86896	0	0	-0.717003	-0.258178	-0.38735	1.86186	-0.318666	-0.324376	-0.724602	0.837864	0.720417	0.599585	0.128345	1.90413	1.44235	1.81973	2.35649	3.28804	0.336307	-0.314545	0.707014	1.01142	-0.0220837	0.380614	0.199536	1.14662	0.101818	0.459668	0.899915	1.31254	0.226208	-0.211172	0.64466	1.3371	
7.86285	0	0	-0.719985	-0.267571	-0.405549	1.85284	-0.327351	-0.335444	-0.74109	0.825508	0.718739	0.604329	0.116769	1.89602	1.44435	1.83072	2.35304	3.28642	0.340658	-0.314067	0.707175	1.02113	-0.0226415	0.401879	0.198558	1.16034	0.108477	0.482787	0.907413	1.32407	0.226499	-0.203642	0.647748	1.34402	
7.85828	0	0	-0.722968	-0.276965	-0.423748	1.84381	-0.336036	-0.346512	-0.757578	0.813151	0.71706	0.609073	0.105193	1.88791	1.44635	1.84171	2.34958	3.28479	0.34501	-0.31359	0.707336	1.03084	-0.0231993	0.423143	0.19758	1.17405	0.115137	0.505907	0.914911	1.33559	0.226791	-0.196111	0.650836	1.35094	
7.85675	0	0	-0.725951	-0.286359	-0.441948	1.83479	-0.344721	-0.35758	-0.774067	0.800795	0.715382	0.613817	0.093617	1.8798	1.44835	1.8527	2.34612	3.28317	0.349361	-0.313112	0.707496	1.04055	-0.023757	0.444408	0.196602	1.18777	0.121796	0.529026	0.922409	1.34712	0.227082	-0.188581	0.653923	1.35786	
7.85065	0	0	-0.721781	-0.298145	-0.441113	1.82381	-0.338428	-0.366468	-0.767504	0.799073	0.725704	0.610721	0.101191	1.86859	1.47156	1.8622	2.37216	3.28949	0.351653	-0.31959	0.712177	1.03749	-0.0234755	0.433766	0.196076	1.1783	0.122453	0.518773	0.920279	1.33678	0.229156	-0.211148	0.647749	1.34403	
7.84454	0	0	-0.71761	-0.30993	-0.440279	1.81283	-0.332135	-0.375356	-0.760941	0.797351	0.736027	0.607625	0.108765	1.85739	1.49477	1.87169	2.3982	3.29582	0.353946	-0.326069	0.716857	1.03443	-0.023194	0.423124	0.195551	1.16884	0.12311	0.50852	0.918149	1.32643	0.231231	-0.233715	0.641574	1.3302	
7.84149	0	0	-0.71344	-0.321716	-0.439445	1.80185	-0.325842	-0.384245	-0.754379	0.795629	0.746349	0.60453	0.116339	1.84618	1.51797	1.88119	2.42424	3.30215	0.356238	-0.332547	0.721538	1.03137	-0.0229125	0.412482	0.195025	1.15937	0.123768	0.498266	0.916018	1.31608	0.233305	-0.256282	0.6354	1.31637	
7.83539	0	0	-0.70927	-0.333502	-0.43861	1.79087	-0.319549	-0.393133	-0.747816	0.793907	0.756672	0.601434	0.123913	1.83497	1.54118	1.89069	2.45028	3.30847	0.35853	-0.339026	0.726219	1.02831	-0.022631	0.40184	0.194499	1.1499	0.124425	0.488013	0.913888	1.30574	0.235379	-0.278849	0.629225	1.30254	
7.83081	0	0	-0.715315	-0.34312	-0.445341	1.79266	-0.32554	-0.393991	-0.750508	0.7931	0.765453	0.615801	0.122845	1.84819	1.5572	1.91241	2.46935	3.32334	0.369425	-0.337842	0.739094	1.04286	-0.011073	0.428335	0.202626	1.17078	0.134959	0.508671	0.923001	1.32093	0.243368	-0.276363	0.63334	1.30655	
7.82623	0	0	-0.72136	-0.352739	-0.452071	1.79446	-0.331531	-0.394849	-0.7532	0.792293	0.774234	0.630167	0.121777	1.86141	1.57322	1.93414	2.48842	3.33821	0.380321	-0.336658	0.751969	1.0574	0.000485	0.45483	0.210753	1.19167	0.145494	0.52933	0.932114	1.33611	0.251356	-0.273877	0.637454	1.31055	
7.8186	0	0	-0.727406	-0.362357	-0.458802	1.79625	-0.337522	-0.395708	-0.755891	0.791485	0.783016	0.644534	0.12071	1.87463	1.58924	1.95587	2.5075	3.35307	0.391216	-0.335474	0.764845	1.07194	0.012043	0.481325	0.218881	1.21255	0.156028	0.549988	0.941228	1.3513	0.259344	-0.271391	0.641568	1.31456	
7.81555	0	0	-0.733451	-0.371976	-0.465533	1.79804	-0.343513	-0.396566	-0.758583	0.790678	0.791797	0.658901	0.119642	1.88786	1.60526	1.97759	2.52657	3.36794	0.402111	-0.33429	0.77772	1.08649	0.023601	0.50782	0.227008	1.23343	0.166563	0.570647	0.950341	1.36649	0.267333	-0.268905	0.645683	1.31856	
7.80792	0	0	-0.733387	-0.381049	-0.456404	1.78947	-0.334228	-0.405018	-0.746626	0.790566	0.807341	0.654238	0.127224	1.87664	1.62749	1.99042	2.55113	3.36756	0.406587	-0.340537	0.785602	1.08462	0.0272243	0.497581	0.235079	1.2216	0.162854	0.547492	0.95145	1.34697	0.258744	-0.286384	0.64515	1.29663	
7.80487	0	0	-0.733324	-0.390122	-0.447275	1.7809	-0.324942	-0.413471	-0.734668	0.790455	0.822886	0.649574	0.134805	1.86542	1.64972	2.00326	2.57569	3.36718	0.411062	-0.346784	0.793484	1.08276	0.0308475	0.487341	0.24315	1.20977	0.159146	0.524337	0.952558	1.32745	0.250156	-0.303864	0.644616	1.27469	
7.79877	0	0	-0.73326	-0.399194	-0.438145	1.77233	-0.315657	-0.421924	-0.722711	0.790343	0.838431	0.64491	0.142387	1.8542	1.67196	2.01609	2.60025	3.3668	0.415538	-0.353031	0.801366	1.0809	0.0344708	0.477102	0.251221	1.19794	0.155438	0.501182	0.953667	1.30793	0.241567	-0.321343	0.644083	1.25276	
7.79724	0	0	-0.733197	-0.408267	-0.429016	1.76376	-0.306371	-0.430376	-0.710754	0.790231	0.853975	0.640247	0.149969	1.84298	1.69419	2.02892	2.62481	3.36642	0.420013	-0.359278	0.809248	1.07903	0.038094	0.466862	0.259292	1.1861	0.151729	0.478027	0.954776	1.2884	0.232979	-0.338822	0.643549	1.23082	
7.78961	0	0	-0.729046	-0.419998	-0.432615	1.77393	-0.306371	-0.430376	-0.703842	0.795996	0.864974	0.655077	0.153977	1.86231	1.70527	2.05665	2.63339	3.38831	0.435311	-0.357638	0.830086	1.09176	0.0566653	0.483636	0.276069	1.2047	0.165002	0.490991	0.964994	1.30053	0.243925	-0.336362	0.645617	1.2406	
7.79114	0	0	-0.724895	-0.43173	-0.436213	1.7841	-0.306371	-0.430376	-0.696929	0.801762	0.875973	0.669907	0.157986	1.88164	1.71636	2.08439	2.64198	3.4102	0.450609	-0.355998	0.850923	1.10449	0.0752365	0.50041	0.292845	1.2233	0.178276	0.503954	0.975212	1.31265	0.25487	-0.333902	0.647684	1.25038	
7.79266	0	0	-0.720744	-0.443462	-0.439812	1.79427	-0.306371	-0.430376	-0.690017	0.807527	0.886973	0.684737	0.161994	1.90097	1.72744	2.11213	2.65057	3.43209	0.465906	-0.354359	0.87176	1.11721	0.0938078	0.517184	0.309621	1.24189	0.191549	0.516918	0.98543	1.32477	0.265816	-0.331443	0.649752	1.26017	
7.79571	0	0	-0.716593	-0.455193	-0.44341	1.80444	-0.306371	-0.430376	-0.683105	0.813292	0.897972	0.699567	0.166002	1.92031	1.73853	2.13986	2.65916	3.45398	0.481204	-0.352719	0.892598	1.12994	0.112379	0.533958	0.326398	1.26049	0.204822	0.529882	0.995648	1.33689	0.276762	-0.328983	0.65182	1.26995	
7.80182	0	0	-0.715503	-0.467163	-0.437043	1.79506	-0.30008	-0.439255	-0.677702	0.814908	0.905711	0.690836	0.175044	1.90498	1.75887	2.14161	2.68216	3.44683	0.486455	-0.361139	0.901869	1.11399	0.118434	0.516846	0.332452	1.24338	0.199933	0.501628	0.994053	1.31679	0.271117	-0.346423	0.648705	1.24751	
7.81097	0	0	-0.714412	-0.479132	-0.430675	1.78569	-0.293789	-0.448133	-0.672298	0.816524	0.91345	0.682105	0.184087	1.88966	1.77922	2.14337	2.70516	3.43967	0.491706	-0.369559	0.911141	1.09805	0.124489	0.499735	0.338506	1.22627	0.195043	0.473373	0.992457	1.29669	0.265471	-0.363862	0.645589	1.22508	
7.82165	0	0	-0.713321	-0.491102	-0.424308	1.77631	-0.287498	-0.457012	-0.666895	0.818141	0.921189	0.673374	0.19313	1.87433	1.79956	2.14512	2.72817	3.43252	0.496956	-0.377979	0.920412	1.0821	0.130543	0.482623	0.344559	1.20917	0.190154	0.445118	0.990862	1.27658	0.259826	-0.381302	0.642473	1.20265	
7.82928	0	0	-0.712231	-0.503071	-0.417941	1.76694	-0.281207	-0.465891	-0.661492	0.819757	0.928928	0.664643	0.202172	1.85901	1.81991	2.14687	2.75117	3.42537	0.502207	-0.386399	0.929683	1.06615	0.136598	0.465511	0.350613	1.19206	0.185264	0.416864	0.989267	1.25648	0.254181	-0.398742	0.639358	1.18021	
7.83844	0	0	-0.71632	-0.500399	-0.418772	1.77791	-0.279303	-0.462367	-0.657269	0.824725	0.937783	0.679091	0.201476	1.88145	1.83177	2.16426	2.75981	3.44737	0.517556	-0.384782	0.949114	1.08317	0.155257	0.482294	0.363894	1.20971	0.193779	0.434874	0.998422	1.27164	0.262481	-0.388806	0.651722	1.19215	
7.84302	0	0	-0.720409	-0.497727	-0.419603	1.78889	-0.277398	-0.458843	-0.653047	0.829693	0.946639	0.693538	0.200781	1.9039	1.84364	2.18166	2.76846	3.46936	0.532906	-0.383165	0.968546	1.10018	0.173917	0.499076	0.377175	1.22736	0.202293	0.452885	1.00758	1.28681	0.270782	-0.37887	0.664085	1.20408	
7.84759	0	0	-0.724498	-0.495056	-0.420434	1.79986	-0.275494	-0.45532	-0.648825	0.834662	0.955495	0.707985	0.200085	1.92634	1.85551	2.19905	2.7771	3.49136	0.548256	-0.381548	0.987977	1.1172	0.192577	0.515858	0.390456	1.24502	0.210807	0.470895	1.01673	1.30197	0.279082	-0.368934	0.676449	1.21602	
7.84912	0	0	-0.728587	-0.492384	-0.421265	1.81083	-0.273589	-0.451796	-0.644602	0.83963	0.96435	0.722433	0.199389	1.94879	1.86738	2.21645	2.78574	3.51336	0.563605	-0.379931	1.00741	1.13422	0.211236	0.532641	0.403737	1.26267	0.219322	0.488905	1.02589	1.31713	0.287382	-0.358998	0.688813	1.22795	
7.84454	0	0	-0.728535	-0.50141	-0.419235	1.79647	-0.267294	-0.460677	-0.636816	0.834542	0.96774	0.712854	0.206622	1.92835	1.8768	2.21533	2.79644	3.50637	0.565904	-0.386427	1.01045	1.12562	0.210575	0.51462	0.406231	1.24457	0.215579	0.465816	1.02806	1.29457	0.287645	-0.376447	0.689805	1.20951	
7.84454	0	0	-0.728484	-0.510436	-0.417205	1.78211	-0.260999	-0.469559	-0.62903	0.829455	0.971129	0.703274	0.213855	1.90791	1.88623	2.21421	2.80714	3.49938	0.568202	-0.392923	1.0135	1.11701	0.209915	0.496599	0.408725	1.22647	0.211837	0.442727	1.03023	1.272	0.287909	-0.393897	0.690796	1.19107	
7.84149	0	0	-0.728432	-0.519463	-0.415175	1.76775	-0.254704	-0.47844	-0.621244	0.824368	0.974519	0.693694	0.221087	1.88747	1.89566	2.21309	2.81784	3.49238	0.5705	-0.399418	1.01654	1.10841	0.209254	0.478578	0.411218	1.20837	0.208095	0.419638	1.0324	1.24944	0.288173	-0.411347	0.691787	1.17263	
7.84302	0	0	-0.72838	-0.528489	-0.413145	1.75339	-0.248409	-0.487322	-0.613458	0.81928	0.977909	0.684115	0.22832	1.86703	1.90508	2.21197	2.82855	3.48539	0.572799	-0.405914	1.01958	1.09981	0.208593	0.460557	0.413712	1.19028	0.204352	0.396549	1.03457	1.22688	0.288436	-0.428796	0.692779	1.15419	
7.83996	0	0	-0.730398	-0.531662	-0.416743	1.76356	-0.249506	-0.484221	-0.616166	0.818473	0.981922	0.692543	0.230523	1.8813	1.90871	2.22728	2.83368	3.50582	0.583791	-0.404771	1.03417	1.11014	0.218139	0.483339	0.424976	1.20268	0.215852	0.414569	1.03997	1.2445	0.296752	-0.418875	0.698991	1.16793	
7.83386	5	0	-0.732415	-0.534836	-0.420341	1.77373	-0.250603	-0.481121	-0.618874	0.817665	0.985934	0.700971	0.232727	1.89558	1.91234	2.24258	2.83881	3.52625	0.594782	-0.403628	1.04875	1.12047	0.227685	0.506121	0.436241	1.21509	0.227353	0.432588	1.04536	1.26212	0.305069	-0.408953	0.705204	1.18166	
7.82318	5	0	-0.734433	-0.53801	-0.42394	1.7839	-0.2517	-0.478021	-0.621582	0.816858	0.989947	0.709399	0.23493	1.90985	1.91597	2.25788	2.84394	3.54668	0.605774	-0.402485	1.06334	1.1308	0.237232	0.528903	0.447505	1.2275	0.238853	0.450608	1.05076	1.27974	0.313385	-0.399031	0.711416	1.19539	
7.82013	5	0	-0.736451	-0.541183	-0.427538	1.79407	-0.252797	-0.47492	-0.62429	0.816051	0.99396	0.717827	0.237133	1.92413	1.91959	2.27318	2.84907	3.56712	0.616766	-0.401342	1.07793	1.14114	0.246778	0.551685	0.458769	1.2399	0.250353	0.468628	1.05615	1.29735	0.321701	-0.38911	0.717628	1.20913	
7.81097	5	0	-0.733352	-0.54994	-0.422741	1.78051	-0.249507	-0.484218	-0.618026	0.806807	0.994672	0.702632	0.244366	1.90369	1.92977	2.26148	2.86518	3.55659	0.610935	-0.404192	1.07927	1.12701	0.245173	0.526347	0.452591	1.22417	0.242724	0.448079	1.05561	1.27422	0.316031	-0.40651	0.712969	1.19882	
7.80487	5	0	-0.730253	-0.558697	-0.417944	1.76695	-0.246217	-0.493515	-0.611761	0.797563	0.995385	0.687437	0.251599	1.88325	1.93995	2.24977	2.88129	3.54606	0.605103	-0.407043	1.08062	1.11288	0.243569	0.501008	0.446412	1.20844	0.235094	0.42753	1.05508	1.25108	0.310361	-0.42391	0.708309	1.18852	
7.79571	5	0	-0.727155	-0.567454	-0.413148	1.75339	-0.242927	-0.502813	-0.605496	0.788319	0.996097	0.672242	0.258831	1.8628	1.95012	2.23807	2.8974	3.53554	0.599271	-0.409894	1.08197	1.09875	0.241964	0.47567	0.440234	1.19271	0.227465	0.40698	1.05454	1.22794	0.304691	-0.44131	0.70365	1.17821	
7.79266	5	0	-0.724056	-0.576211	-0.408351	1.73984	-0.239637	-0.512111	-0.599232	0.779075	0.99681	0.657047	0.266064	1.84236	1.9603	2.22637	2.91351	3.52501	0.59344	-0.412744	1.08331	1.08462	0.24036	0.450332	0.434056	1.17698	0.219836	0.386431	1.05401	1.2048	0.299021	-0.45871	0.69899	1.16791	
7.78503	5	0	-0.733981	-0.636688	-0.424044	1.64673	-0.252497	-0.591262	-0.613197	0.708855	0.973566	0.571816	0.244296	1.75067	1.94869	2.1486	2.89282	3.44389	0.54572	-0.399847	1.05622	1.00703	0.204762	0.34316	0.414191	1.07901	0.179922	0.290096	1.03069	1.11532	0.270434	-0.527591	0.677673	1.0957	
7.78503	5	0	-0.743905	-0.697165	-0.439736	1.55362	-0.265356	-0.670413	-0.627162	0.638636	0.950322	0.486586	0.222527	1.65898	1.93707	2.07084	2.87212	3.36276	0.498	-0.38695	1.02914	0.929439	0.169163	0.235987	0.394325	0.981041	0.140008	0.193761	1.00737	1.02584	0.241848	-0.596472	0.656357	1.02348	
7.77893	5	0	-0.75383	-0.757643	-0.455429	1.46051	-0.278216	-0.749565	-0.641127	0.568416	0.927078	0.401355	0.200759	1.56728	1.92545	1.99308	2.85143	3.28163	0.45028	-0.374054	1.00205	0.851847	0.133565	0.128814	0.37446	0.88307	0.100094	0.097426	0.984047	0.936363	0.213261	-0.665354	0.63504	0.951272	
7.7713	5	0	-0.763754	-0.81812	-0.471121	1.3674	-0.291076	-0.828716	-0.655092	0.498197	0.903834	0.316124	0.17899	1.47559	1.91384	1.91532	2.83074	3.20051	0.40256	-0.361157	0.974964	0.774255	0.097967	0.021642	0.354594	0.785099	0.06018	0.001091	0.960727	0.846884	0.184675	-0.734235	0.613723	0.87906	
7.76825	5	0	-0.7839	-0.928231	-0.508518	1.20961	-0.321551	-0.971452	-0.681454	0.371881	0.838233	0.222602	0.140966	1.32043	1.86359	1.78787	2.76103	3.0644	0.317859	-0.319078	0.920005	0.655293	0.030212	-0.137757	0.304457	0.654724	0.00945325	-0.144451	0.91781	0.7174	0.141875	-0.83555	0.57838	0.778168	
7.76062	5	0	-0.804046	-1.03834	-0.545915	1.05183	-0.352025	-1.11419	-0.707815	0.245566	0.772633	0.12908	0.102943	1.16527	1.81334	1.66042	2.69131	2.9283	0.233157	-0.277	0.865047	0.53633	-0.037543	-0.297157	0.25432	0.524348	-0.0412735	-0.289993	0.874894	0.587917	0.0990745	-0.936866	0.543038	0.677276	
7.75604	5	0	-0.824193	-1.14845	-0.583311	0.894045	-0.3825	-1.25692	-0.734177	0.119251	0.707032	0.0355573	0.0649187	1.01011	1.7631	1.53298	2.6216	2.79219	0.148456	-0.234922	0.810088	0.417368	-0.105298	-0.456556	0.204182	0.393973	-0.0920003	-0.435535	0.831978	0.458434	0.0562742	-1.03818	0.507695	0.576385	
7.74994	5	0	-0.844339	-1.25856	-0.620708	0.73626	-0.412975	-1.39966	-0.760538	-0.007065	0.641431	-0.057965	0.026895	0.854947	1.71285	1.40553	2.55189	2.65609	0.063755	-0.192843	0.755129	0.298405	-0.173053	-0.615955	0.154045	0.263598	-0.142727	-0.581077	0.789061	0.32895	0.013474	-1.1395	0.472352	0.475493	
7.75299	5	0	-0.856487	-1.29412	-0.640421	0.699371	-0.429793	-1.44812	-0.774761	-0.0499075	0.624486	-0.0999925	0.0121417	0.816574	1.67268	1.32777	2.4896	2.59457	0.039238	-0.186757	0.732249	0.262497	-0.19208	-0.658489	0.147245	0.23965	-0.150668	-0.607713	0.785237	0.315668	0.00369325	-1.16089	0.470242	0.466102	
7.75452	5	0	-0.868634	-1.32968	-0.660135	0.662481	-0.446611	-1.49657	-0.788984	-0.09275	0.607541	-0.14202	-0.0026115	0.778202	1.63251	1.25001	2.42731	2.53305	0.014721	-0.180671	0.709369	0.22659	-0.211107	-0.701023	0.140446	0.215703	-0.15861	-0.634349	0.781412	0.302386	-0.0060875	-1.18229	0.468132	0.456711	
7.75757	5	0	-0.880782	-1.36524	-0.679849	0.625592	-0.46343	-1.54502	-0.803208	-0.135593	0.590596	-0.184047	-0.0173648	0.73983	1.59234	1.17224	2.36502	2.47153	-0.009796	-0.174584	0.686488	0.190682	-0.230133	-0.743557	0.133646	0.191756	-0.166551	-0.660985	0.777587	0.289104	-0.0158683	-1.20368	0.466021	0.44732	
7.77893	5	0	-0.89293	-1.4008	-0.699562	0.588703	-0.480248	-1.59348	-0.817431	-0.178435	0.573651	-0.226075	-0.032118	0.701457	1.55217	1.09448	2.30273	2.41001	-0.034313	-0.168498	0.663608	0.154775	-0.24916	-0.786091	0.126846	0.167808	-0.174492	-0.687621	0.773763	0.275822	-0.025649	-1.22507	0.463911	0.437929	
7.80334	5	0	-0.876893	-1.41994	-0.703616	0.566602	-0.476752	-1.62076	-0.811744	-0.194506	0.571121	-0.270112	-0.034905	0.679397	1.51637	1.03911	2.26159	2.34728	-0.0508115	-0.165985	0.648545	0.117278	-0.259218	-0.843917	0.124989	0.140748	-0.199601	-0.665609	0.763846	0.295826	-0.0306073	-1.22738	0.452445	0.462661	
7.83386	5	0	-0.860856	-1.43909	-0.707671	0.544501	-0.473255	-1.64804	-0.806058	-0.210576	0.568591	-0.314149	-0.037692	0.657337	1.48057	0.983732	2.22045	2.28456	-0.06731	-0.163471	0.633482	0.079781	-0.269277	-0.901742	0.123132	0.113688	-0.22471	-0.643596	0.753929	0.315831	-0.0355655	-1.22968	0.440979	0.487393	
7.86438	5	0	-0.844819	-1.45823	-0.711726	0.522399	-0.469759	-1.67532	-0.800372	-0.226647	0.566061	-0.358186	-0.040479	0.635277	1.44477	0.928359	2.17932	2.22184	-0.0838085	-0.160958	0.618419	0.042284	-0.279335	-0.959568	0.121275	0.0866273	-0.24982	-0.621583	0.744012	0.335835	-0.0405237	-1.23199	0.429513	0.512125	
7.8949	5	0	-0.828782	-1.47738	-0.71578	0.500298	-0.466263	-1.7026	-0.794685	-0.242718	0.563531	-0.402223	-0.043266	0.613217	1.40897	0.872985	2.13818	2.15912	-0.100307	-0.158444	0.603356	0.004787	-0.289393	-1.01739	0.119418	0.059567	-0.274929	-0.599571	0.734095	0.355839	-0.045482	-1.23429	0.418047	0.536857	
7.92847	5	0	-0.80543	-1.43829	-0.699233	0.52913	-0.440974	-1.67818	-0.770065	-0.204275	0.589448	-0.385799	-0.0252665	0.652303	1.40837	0.882873	2.13135	2.16729	-0.077099	-0.173608	0.621083	0.024727	-0.273177	-1.00577	0.140315	0.08679	-0.256331	-0.570476	0.759869	0.395637	-0.0286848	-1.20822	0.439144	0.577227	
7.95288	5	0	-0.782078	-1.39921	-0.682687	0.557962	-0.415684	-1.65375	-0.745445	-0.165833	0.615365	-0.369374	-0.007267	0.691388	1.40777	0.892761	2.12452	2.17546	-0.053891	-0.188773	0.63881	0.044667	-0.256961	-0.994139	0.161212	0.114013	-0.237733	-0.541381	0.785643	0.435436	-0.0118875	-1.18216	0.460241	0.617598	
7.97424	5	0	-0.758726	-1.36012	-0.666141	0.586794	-0.390394	-1.62933	-0.720824	-0.12739	0.641282	-0.35295	0.0107325	0.730474	1.40718	0.90265	2.11769	2.18364	-0.030683	-0.203937	0.656538	0.064607	-0.240744	-0.982512	0.182108	0.141236	-0.219136	-0.512286	0.811416	0.475234	0.00490975	-1.15609	0.481337	0.657968	
7.99103	5	0	-0.735374	-1.32103	-0.649594	0.615626	-0.365105	-1.6049	-0.696204	-0.088948	0.667199	-0.336526	0.028732	0.76956	1.40658	0.912538	2.11086	2.19181	-0.007475	-0.219102	0.674265	0.084547	-0.224528	-0.970885	0.203005	0.168459	-0.200538	-0.483191	0.83719	0.515032	0.021707	-1.13002	0.502434	0.698338	
8.00018	5	0	-0.708932	-1.29892	-0.650038	0.608465	-0.351275	-1.60023	-0.67579	-0.079854	0.678217	-0.341965	0.0365775	0.767436	1.39745	0.913759	2.10063	2.16517	0.00567325	-0.230997	0.672559	0.0793453	-0.233073	-0.985059	0.205077	0.173415	-0.201947	-0.446447	0.844399	0.567433	0.0318425	-1.10127	0.510326	0.745575	
8.00781	5	0	-0.682489	-1.2768	-0.650481	0.601305	-0.337445	-1.59557	-0.655375	-0.07076	0.689235	-0.347405	0.044423	0.765313	1.3883	0.91498	2.09039	2.13854	0.0188215	-0.242893	0.670854	0.0741435	-0.241619	-0.999233	0.207149	0.178372	-0.203355	-0.409703	0.851607	0.619833	0.041978	-1.07252	0.518219	0.792813	
8.01544	5	0	-0.656046	-1.25468	-0.650925	0.594144	-0.323615	-1.5909	-0.634961	-0.061666	0.700253	-0.352844	0.0522685	0.763189	1.37916	0.916201	2.08016	2.1119	0.0319697	-0.254788	0.669149	0.0689417	-0.250164	-1.01341	0.209222	0.183328	-0.204763	-0.37296	0.858815	0.672234	0.0521135	-1.04376	0.526111	0.84005	
8.01697	5	0	-0.629604	-1.23256	-0.651369	0.586983	-0.309785	-1.58623	-0.614546	-0.052572	0.711271	-0.358283	0.060114	0.761065	1.37003	0.917422	2.06993	2.08527	0.045118	-0.266684	0.667443	0.06374	-0.258709	-1.02758	0.211294	0.188284	-0.206172	-0.336216	0.866024	0.724634	0.062249	-1.01501	0.534003	0.887287	
8.01849	5	0	-0.58969	-1.19469	-0.647312	0.609199	-0.289425	-1.55596	-0.59285	-0.0216612	0.740587	-0.331513	0.0744677	0.790841	1.38382	0.944121	2.05973	2.09194	0.0776915	-0.276397	0.674264	0.084583	-0.244889	-0.999519	0.22873	0.214876	-0.187846	-0.314079	0.894568	0.765885	0.0917045	-0.991185	0.557697	0.92902	
8.01391	5	0	-0.549777	-1.15682	-0.643255	0.631416	-0.269064	-1.52568	-0.571154	0.0092495	0.769902	-0.304744	0.0888215	0.820618	1.39762	0.97082	2.04952	2.09861	0.110265	-0.28611	0.681084	0.105426	-0.231069	-0.971457	0.246165	0.241469	-0.16952	-0.291942	0.923113	0.807137	0.12116	-0.967363	0.58139	0.970754	
8.00629	5	0	-0.509863	-1.11895	-0.639199	0.653632	-0.248704	-1.49541	-0.549458	0.0401603	0.799217	-0.277974	0.103175	0.850395	1.41142	0.997519	2.03932	2.10527	0.142839	-0.295823	0.687905	0.126269	-0.217249	-0.943394	0.263601	0.268061	-0.151195	-0.269806	0.951657	0.848388	0.150616	-0.943541	0.605084	1.01249	
8.00018	5	0	-0.469949	-1.08109	-0.635142	0.675848	-0.228344	-1.46514	-0.527762	0.071071	0.828533	-0.251204	0.117529	0.880171	1.42522	1.02422	2.02911	2.11194	0.175412	-0.305536	0.694726	0.147112	-0.203429	-0.915332	0.281037	0.294653	-0.132869	-0.247669	0.980201	0.88964	0.180071	-0.919718	0.628778	1.05422	
7.99866	5	0	-0.447315	-1.06479	-0.632594	0.651799	-0.217241	-1.47009	-0.52158	0.0620072	0.842613	-0.258632	0.11984	0.863575	1.42681	1.02796	2.00874	2.08107	0.190033	-0.31509	0.685488	0.153148	-0.224845	-0.874009	0.267262	0.322725	-0.115959	-0.212972	0.999141	0.926032	0.196145	-0.89066	0.644811	1.09476	
7.99103	5	0	-0.424682	-1.04849	-0.630046	0.627749	-0.206138	-1.47504	-0.515398	0.0529435	0.856693	-0.266059	0.122151	0.846979	1.4284	1.03169	1.98838	2.05021	0.204655	-0.324644	0.676251	0.159184	-0.24626	-0.832687	0.253487	0.350797	-0.0990495	-0.178275	1.01808	0.962424	0.212219	-0.861602	0.660845	1.13529	
7.98187	5	0	-0.402049	-1.03219	-0.627498	0.6037	-0.195034	-1.48	-0.509217	0.0438797	0.870773	-0.273486	0.124462	0.830382	1.42999	1.03543	1.96801	2.01934	0.219276	-0.334198	0.667014	0.16522	-0.267676	-0.791365	0.239713	0.37887	-0.0821397	-0.143577	1.03702	0.998816	0.228293	-0.832543	0.676878	1.17583	
7.97577	5	0	-0.379415	-1.01589	-0.62495	0.579651	-0.183931	-1.48495	-0.503035	0.034816	0.884853	-0.280914	0.126773	0.813786	1.43158	1.03917	1.94764	1.98847	0.233897	-0.343752	0.657776	0.171256	-0.289092	-0.750042	0.225938	0.406942	-0.06523	-0.10888	1.05596	1.03521	0.244367	-0.803485	0.692912	1.21637	
7.96356	5	0	-0.35876	-1.00263	-0.617444	0.592151	-0.174233	-1.46823	-0.490202	0.0490692	0.902994	-0.260784	0.136984	0.825222	1.4519	1.06422	1.95612	1.99762	0.25582	-0.354767	0.668961	0.179807	-0.277482	-0.725189	0.234202	0.427054	-0.0444337	-0.101399	1.0695	1.05438	0.256846	-0.78893	0.710472	1.22943	
7.95746	5	0	-0.338105	-0.98937	-0.609938	0.60465	-0.164535	-1.45152	-0.477368	0.0633225	0.921135	-0.240655	0.147195	0.836657	1.47223	1.08927	1.96459	2.00678	0.277743	-0.365783	0.680147	0.188358	-0.265872	-0.700337	0.242466	0.447165	-0.0236375	-0.0939185	1.08305	1.07356	0.269325	-0.774374	0.728032	1.24249	
7.94525	5	0	-0.317449	-0.976108	-0.602433	0.61715	-0.154837	-1.4348	-0.464535	0.0775757	0.939277	-0.220525	0.157406	0.848092	1.49255	1.11432	1.97307	2.01593	0.299665	-0.376798	0.691333	0.19691	-0.254262	-0.675485	0.25073	0.467277	-0.00284125	-0.0864378	1.09659	1.09273	0.281805	-0.759819	0.745593	1.25554	
7.93762	5	0	-0.296794	-0.962846	-0.594927	0.629649	-0.145139	-1.41808	-0.451702	0.091829	0.957418	-0.200396	0.167617	0.859528	1.51287	1.13937	1.98155	2.02509	0.321588	-0.387813	0.702518	0.205461	-0.242652	-0.650632	0.258994	0.487389	0.017955	-0.078957	1.11013	1.11191	0.294284	-0.745264	0.763153	1.2686	
7.92694	5	0	-0.300957	-0.977976	-0.596723	0.601015	-0.148661	-1.44343	-0.446318	0.0681843	0.942994	-0.185625	0.153242	0.859861	1.51225	1.14939	1.97307	2.01593	0.332573	-0.393336	0.702994	0.22423	-0.23566	-0.612548	0.267261	0.507594	0.0264067	-0.0363523	1.1145	1.14895	0.304163	-0.723226	0.775094	1.30563	
7.91778	5	0	-0.305121	-0.993106	-0.59852	0.57238	-0.152183	-1.46879	-0.440935	0.0445395	0.92857	-0.170855	0.138867	0.860194	1.51163	1.15941	1.96459	2.00678	0.343558	-0.398858	0.703469	0.243	-0.228668	-0.574464	0.275528	0.527799	0.0348585	0.0062525	1.11886	1.18599	0.314041	-0.701189	0.787035	1.34266	
7.9071	5	0	-0.309284	-1.00824	-0.600317	0.543746	-0.155705	-1.49414	-0.435551	0.0208947	0.914145	-0.156084	0.124491	0.860528	1.51101	1.16943	1.95612	1.99762	0.354544	-0.404381	0.703945	0.261769	-0.221677	-0.53638	0.283795	0.548003	0.0433103	0.0488572	1.12323	1.22304	0.32392	-0.679152	0.798976	1.37969	
7.90253	5	0	-0.313447	-1.02337	-0.602113	0.515112	-0.159227	-1.5195	-0.430167	-0.00275	0.899721	-0.141314	0.110116	0.860861	1.51039	1.17945	1.94764	1.98847	0.365529	-0.409903	0.704421	0.280539	-0.214685	-0.498296	0.292062	0.568208	0.051762	0.091462	1.1276	1.26008	0.333799	-0.657114	0.810917	1.41671	
7.89337	5	0	-0.305173	-1.01985	-0.586371	0.529656	-0.15358	-1.50015	-0.415716	0.0154968	0.914564	-0.111688	0.121237	0.889906	1.53349	1.20538	1.97991	2.00787	0.388309	-0.423133	0.72686	0.297796	-0.19299	-0.482204	0.307435	0.590306	0.0644357	0.0889785	1.14062	1.27279	0.335008	-0.652191	0.822327	1.41601	
7.88727	0	0	-0.296899	-1.01634	-0.570628	0.544201	-0.147933	-1.4808	-0.401265	0.0337435	0.929407	-0.0820615	0.132357	0.918951	1.55659	1.23131	2.01219	2.02726	0.41109	-0.436362	0.7493	0.315052	-0.171295	-0.466112	0.322808	0.612405	0.0771095	0.086495	1.15365	1.28549	0.336217	-0.647268	0.833738	1.4153	
7.88116	0	0	-0.288625	-1.01283	-0.554886	0.558746	-0.142286	-1.46145	-0.386813	0.0519902	0.944249	-0.0524352	0.143478	0.947995	1.57968	1.25723	2.04446	2.04666	0.43387	-0.449591	0.77174	0.332309	-0.1496	-0.45002	0.338181	0.634503	0.0897833	0.0840115	1.16667	1.2982	0.337426	-0.642345	0.845148	1.4146	
7.87506	0	0	-0.280351	-1.00931	-0.539143	0.57329	-0.136639	-1.4421	-0.372362	0.070237	0.959092	-0.022809	0.154598	0.97704	1.60278	1.28316	2.07673	2.06606	0.456651	-0.462821	0.794179	0.349566	-0.127905	-0.433928	0.353554	0.656601	0.102457	0.081528	1.17969	1.31091	0.338635	-0.637422	0.856559	1.41389	
7.87048	0	0	-0.284525	-1.02441	-0.548272	0.556903	-0.141404	-1.45512	-0.372772	0.062942	0.952695	0.0083135	0.143407	1.00867	1.59992	1.29957	2.07503	2.09305	0.464633	-0.459752	0.798267	0.388613	-0.1221	-0.392067	0.357946	0.698986	0.108568	0.114369	1.196	1.34763	0.347312	-0.620193	0.860202	1.4431	
7.86438	0	0	-0.288699	-1.03951	-0.557401	0.540517	-0.146168	-1.46815	-0.373181	0.055647	0.946298	0.039436	0.132217	1.04029	1.59705	1.31598	2.07334	2.12005	0.472615	-0.456682	0.802354	0.427659	-0.116295	-0.350206	0.362338	0.741371	0.11468	0.147211	1.21231	1.38436	0.35599	-0.602965	0.863845	1.47231	
7.86438	0	0	-0.292873	-1.05462	-0.566531	0.52413	-0.150932	-1.48117	-0.37359	0.048352	0.939901	0.0705585	0.121026	1.07192	1.59419	1.33238	2.07164	2.14705	0.480598	-0.453613	0.806442	0.466706	-0.110491	-0.308346	0.36673	0.783756	0.120791	0.180052	1.22862	1.42109	0.364667	-0.585736	0.867488	1.50151	
7.85675	0	0	-0.297047	-1.06971	-0.57566	0.507743	-0.155697	-1.49419	-0.374	0.041057	0.933504	0.101681	0.109835	1.10355	1.59132	1.34879	2.06994	2.17405	0.48858	-0.450544	0.81053	0.505753	-0.104686	-0.266485	0.371122	0.826141	0.126903	0.212893	1.24493	1.45781	0.373344	-0.568507	0.871131	1.53072	
7.85675	0	0	-0.286644	-1.04528	-0.569967	0.533842	-0.148298	-1.46209	-0.364173	0.0725332	0.957568	0.138347	0.129253	1.13975	1.60905	1.37368	2.09896	2.20342	0.504014	-0.455653	0.828391	0.526347	-0.0904838	-0.257929	0.388022	0.844349	0.131373	0.20026	1.25365	1.46639	0.377192	-0.571022	0.881017	1.52652	
7.8537	0	0	-0.276241	-1.02085	-0.564275	0.559942	-0.140899	-1.42999	-0.354345	0.10401	0.981632	0.175013	0.148671	1.17595	1.62677	1.39858	2.12799	2.23279	0.519448	-0.460762	0.846251	0.54694	-0.0762815	-0.249372	0.404922	0.862556	0.135844	0.187627	1.26237	1.47497	0.381041	-0.573537	0.890904	1.52232	
7.84607	0	0	-0.265838	-0.996422	-0.558582	0.586041	-0.1335	-1.39788	-0.344518	0.135486	1.0057	0.211679	0.168089	1.21215	1.6445	1.42347	2.15701	2.26216	0.534882	-0.465871	0.864112	0.567533	-0.0620793	-0.240816	0.421823	0.880764	0.140314	0.174993	1.2711	1.48355	0.384889	-0.576051	0.90079	1.51813	
7.84454	0	0	-0.255435	-0.971991	-0.55289	0.61214	-0.126101	-1.36578	-0.334691	0.166962	1.02976	0.248345	0.187507	1.24835	1.66222	1.44836	2.18603	2.29154	0.550316	-0.47098	0.881973	0.588127	-0.047877	-0.232259	0.438723	0.898972	0.144784	0.16236	1.27982	1.49213	0.388738	-0.578566	0.910676	1.51393	
7.83691	0	0	-0.261644	-0.972404	-0.55608	0.604271	-0.138117	-1.36718	-0.341325	0.168764	1.0214	0.271964	0.171109	1.27441	1.6507	1.45589	2.17232	2.30797	0.550982	-0.466436	0.879412	0.615722	-0.0506605	-0.204879	0.435348	0.930554	0.146765	0.190244	1.28579	1.51688	0.393248	-0.566204	0.914838	1.53387	
7.83234	0	0	-0.267854	-0.972816	-0.559271	0.596402	-0.150132	-1.36858	-0.347959	0.170566	1.01305	0.295584	0.154712	1.30048	1.63918	1.46342	2.1586	2.3244	0.551648	-0.461891	0.87685	0.643316	-0.053444	-0.177499	0.431972	0.962135	0.148747	0.218128	1.29176	1.54162	0.397758	-0.553843	0.919001	1.55381	
7.82776	0	0	-0.274063	-0.973229	-0.562462	0.588532	-0.162147	-1.36999	-0.354594	0.172368	1.00469	0.319203	0.138315	1.32654	1.62766	1.47094	2.14489	2.34082	0.552313	-0.457346	0.874289	0.67091	-0.0562275	-0.150118	0.428597	0.993717	0.150729	0.246012	1.29773	1.56637	0.402268	-0.541482	0.923164	1.57375	
7.82318	0	0	-0.280272	-0.973642	-0.565652	0.580663	-0.174163	-1.37139	-0.361228	0.17417	0.996331	0.342823	0.121917	1.35261	1.61614	1.47847	2.13117	2.35725	0.552979	-0.452802	0.871728	0.698505	-0.059011	-0.122738	0.425222	1.0253	0.15271	0.273896	1.3037	1.59111	0.406778	-0.52912	0.927326	1.59369	
7.81708	0	0	-0.276087	-0.940536	-0.550848	0.62341	-0.168746	-1.34249	-0.354562	0.197729	1.0071	0.364938	0.133933	1.36938	1.62252	1.49384	2.14484	2.37452	0.558897	-0.456669	0.878117	0.700826	-0.0511995	-0.125281	0.430859	1.03143	0.153961	0.253612	1.30427	1.58118	0.412396	-0.536622	0.929415	1.58778	
7.80792	5	0	-0.271901	-0.907429	-0.536045	0.666157	-0.163329	-1.31359	-0.347896	0.221288	1.01788	0.387054	0.145948	1.38616	1.62889	1.50921	2.1585	2.3918	0.564815	-0.460537	0.884507	0.703146	-0.043388	-0.127824	0.436496	1.03757	0.155211	0.233329	1.30484	1.57125	0.418014	-0.544123	0.931503	1.58188	
7.80334	5	0	-0.267715	-0.874323	-0.521241	0.708905	-0.157912	-1.28469	-0.34123	0.244847	1.02865	0.409169	0.157963	1.40294	1.63526	1.52458	2.17216	2.40907	0.570733	-0.464404	0.890896	0.705466	-0.0355765	-0.130367	0.442134	1.04371	0.156462	0.213045	1.3054	1.56132	0.423633	-0.551624	0.933591	1.57598	
7.79571	5	0	-0.26353	-0.841217	-0.506437	0.751652	-0.152495	-1.25578	-0.334564	0.268406	1.03942	0.431285	0.169979	1.41972	1.64163	1.53995	2.18582	2.42634	0.576651	-0.468271	0.897286	0.707787	-0.027765	-0.13291	0.447771	1.04984	0.157712	0.192762	1.30597	1.55138	0.429251	-0.559126	0.93568	1.57008	
7.79419	5	0	-0.263525	-0.832231	-0.510779	0.746976	-0.163436	-1.26024	-0.347459	0.253985	1.02966	0.452285	0.152712	1.42792	1.63759	1.55972	2.18064	2.44098	0.577318	-0.463724	0.8883	0.733182	-0.0293948	-0.108749	0.443245	1.06263	0.155297	0.207961	1.30377	1.5576	0.430463	-0.554172	0.935153	1.5795	
7.78808	5	0	-0.26352	-0.823244	-0.515122	0.742301	-0.174378	-1.26469	-0.360355	0.239563	1.0199	0.473284	0.135444	1.43612	1.63355	1.5795	2.17546	2.45563	0.577986	-0.459176	0.879314	0.758577	-0.0310245	-0.084589	0.438719	1.07543	0.152882	0.22316	1.30157	1.56382	0.431676	-0.549218	0.934627	1.58892	
7.78351	5	0	-0.263516	-0.814258	-0.519464	0.737625	-0.185319	-1.26915	-0.37325	0.225141	1.01015	0.494284	0.118177	1.44432	1.62951	1.59928	2.17028	2.47027	0.578653	-0.454629	0.870329	0.783972	-0.0326543	-0.0604285	0.434193	1.08822	0.150466	0.238359	1.29937	1.57003	0.432889	-0.544264	0.9341	1.59834	
7.78351	5	0	-0.263511	-0.805272	-0.523806	0.732949	-0.196261	-1.2736	-0.386146	0.21072	1.00039	0.515284	0.10091	1.45252	1.62547	1.61906	2.16509	2.48491	0.57932	-0.450082	0.861343	0.809367	-0.034284	-0.036268	0.429667	1.10101	0.148051	0.253558	1.29717	1.57625	0.434101	-0.53931	0.933573	1.60777	
7.77893	5	0	-0.255219	-0.774613	-0.521332	0.751386	-0.189808	-1.24761	-0.395102	0.219107	1.02918	0.546056	0.107818	1.46344	1.66254	1.67372	2.2097	2.5275	0.589546	-0.446788	0.890149	0.819934	-0.023362	-0.0279643	0.43888	1.10812	0.144279	0.230748	1.29283	1.55522	0.429582	-0.55167	0.929931	1.59427	
7.7713	5	0	-0.246927	-0.743955	-0.518859	0.769823	-0.183355	-1.22161	-0.404058	0.227494	1.05797	0.576829	0.114726	1.47436	1.69962	1.72839	2.25431	2.57009	0.599773	-0.443493	0.918956	0.830502	-0.01244	-0.0196605	0.448093	1.11524	0.140507	0.207939	1.28849	1.53419	0.425064	-0.56403	0.926289	1.58077	
7.76825	5	0	-0.238636	-0.713296	-0.516386	0.78826	-0.176902	-1.19562	-0.413015	0.235882	1.08676	0.607602	0.121635	1.48527	1.73669	1.78305	2.29892	2.61267	0.61	-0.440198	0.947763	0.841069	-0.001518	-0.0113567	0.457306	1.12235	0.136735	0.18513	1.28416	1.51316	0.420546	-0.57639	0.922648	1.56727	
7.76825	5	0	-0.230344	-0.682638	-0.513912	0.806697	-0.170449	-1.16963	-0.421971	0.244269	1.11556	0.638374	0.128543	1.49619	1.77377	1.83771	2.34353	2.65526	0.620226	-0.436904	0.976569	0.851636	0.009404	-0.003053	0.466519	1.12946	0.132963	0.16232	1.27982	1.49213	0.416027	-0.58875	0.919006	1.55377	
7.76672	5	0	-0.229304	-0.685578	-0.520466	0.765941	-0.174313	-1.17641	-0.450733	0.207509	1.13125	0.666932	0.11271	1.50036	1.80349	1.88056	2.36078	2.67442	0.628838	-0.422534	0.981866	0.877691	0.0198737	0.0262688	0.462522	1.15182	0.132343	0.172435	1.2727	1.50393	0.413386	-0.581286	0.916919	1.55966	
7.76367	5	0	-0.228264	-0.688518	-0.527019	0.725186	-0.178177	-1.1832	-0.479494	0.17075	1.14695	0.69549	0.0968765	1.50453	1.83322	1.92341	2.37802	2.69359	0.637451	-0.408164	0.987164	0.903745	0.0303435	0.0555905	0.458525	1.17419	0.131722	0.182551	1.26558	1.51573	0.410745	-0.573823	0.914833	1.56556	
7.75909	5	0	-0.227223	-0.691458	-0.533573	0.68443	-0.182041	-1.18998	-0.508256	0.13399	1.16265	0.724048	0.0810432	1.5087	1.86294	1.96626	2.39526	2.71275	0.646063	-0.393793	0.992461	0.9298	0.0408132	0.0849122	0.454528	1.19654	0.131102	0.192666	1.25847	1.52753	0.408104	-0.566359	0.912747	1.57146	
7.75299	5	0	-0.226183	-0.694398	-0.540126	0.643674	-0.185905	-1.19677	-0.537018	0.097231	1.17835	0.752606	0.06521	1.51287	1.89266	2.0091	2.4125	2.73191	0.654675	-0.379423	0.997758	0.955855	0.051283	0.114234	0.450531	1.2189	0.130482	0.202781	1.25135	1.53933	0.405463	-0.558895	0.91066	1.57735	
7.75299	5	0	-0.209562	-0.669003	-0.546757	0.645513	-0.167425	-1.16919	-0.558663	0.0912845	1.22476	0.794955	0.0688545	1.52285	1.94841	2.0735	2.45417	2.76211	0.682534	-0.367521	1.022	0.969656	0.0777785	0.12807	0.472032	1.22466	0.121972	0.185061	1.25191	1.52943	0.408984	-0.568846	0.915874	1.56262	
7.74994	5	0	-0.192941	-0.643609	-0.553389	0.647353	-0.148944	-1.14161	-0.580309	0.085338	1.27117	0.837303	0.072499	1.53282	2.00415	2.1379	2.49584	2.7923	0.710392	-0.355619	1.04625	0.983457	0.104274	0.141906	0.493532	1.23042	0.113461	0.167341	1.25248	1.51953	0.412504	-0.578796	0.921087	1.54788	
7.74383	5	0	-0.17632	-0.618215	-0.56002	0.649193	-0.130464	-1.11403	-0.601954	0.0793915	1.31758	0.879652	0.0761435	1.5428	2.0599	2.20229	2.53751	2.8225	0.738251	-0.343717	1.0705	0.997258	0.130769	0.155743	0.515033	1.23617	0.104951	0.149622	1.25304	1.50963	0.416025	-0.588747	0.9263	1.53315	
7.74689	5	0	-0.159699	-0.59282	-0.566651	0.651032	-0.111984	-1.08645	-0.623599	0.073445	1.36399	0.922001	0.079788	1.55278	2.11564	2.26669	2.57918	2.85269	0.76611	-0.331815	1.09474	1.01106	0.157265	0.169579	0.536533	1.24193	0.096441	0.131902	1.2536	1.49973	0.419546	-0.598697	0.931514	1.51842	
7.74689	5	0	-0.155527	-0.595546	-0.591669	0.595459	-0.108756	-1.09558	-0.66055	0.0277335	1.38641	0.939273	0.0549038	1.53203	2.16098	2.3111	2.58617	2.85582	0.784337	-0.311803	1.10462	1.02444	0.165378	0.206031	0.537621	1.26108	0.091088	0.14703	1.24812	1.51524	0.414263	-0.583767	0.932555	1.53133	
7.75604	5	0	-0.151354	-0.598272	-0.616686	0.539887	-0.105527	-1.1047	-0.697501	-0.017978	1.40883	0.956545	0.0300195	1.51127	2.20632	2.3555	2.59315	2.85895	0.802564	-0.29179	1.1145	1.03782	0.173491	0.242484	0.538709	1.28023	0.085735	0.162158	1.24263	1.53074	0.40898	-0.568837	0.933597	1.54425	
7.75757	5	0	-0.147181	-0.600999	-0.641703	0.484314	-0.102299	-1.11383	-0.734452	-0.0636895	1.43125	0.973817	0.00513525	1.49052	2.25166	2.39991	2.60013	2.86208	0.820791	-0.271778	1.12438	1.05119	0.181604	0.278936	0.539797	1.29938	0.080382	0.177286	1.23715	1.54624	0.403698	-0.553907	0.934638	1.55716	
7.76367	5	0	-0.143009	-0.603725	-0.666721	0.428741	-0.099071	-1.12295	-0.771403	-0.109401	1.45366	0.991089	-0.019749	1.46977	2.29699	2.44432	2.60712	2.86521	0.839018	-0.251765	1.13426	1.06457	0.189717	0.315388	0.540885	1.31854	0.075029	0.192414	1.23166	1.56174	0.398415	-0.538977	0.93568	1.57008	
7.76062	5	0	-0.123191	-0.577943	-0.667857	0.431951	-0.0826845	-1.08911	-0.788215	-0.103378	1.49028	1.02955	-0.0161195	1.47971	2.35777	2.50805	2.63856	2.90264	0.868471	-0.230474	1.16688	1.08643	0.225305	0.334143	0.556352	1.34166	0.0785987	0.182326	1.23711	1.56295	0.399624	-0.534021	0.944551	1.56882	
7.76367	5	0	-0.103373	-0.552161	-0.668992	0.43516	-0.066298	-1.05527	-0.805028	-0.097355	1.5269	1.06802	-0.01249	1.48966	2.41855	2.57177	2.66999	2.94007	0.897924	-0.209183	1.1995	1.10828	0.260892	0.352898	0.571819	1.36479	0.0821685	0.172237	1.24257	1.56416	0.400833	-0.529065	0.953422	1.56756	
7.76214	5	0	-0.083555	-0.526378	-0.670128	0.438369	-0.0499115	-1.02144	-0.82184	-0.091332	1.56352	1.10648	-0.0088605	1.4996	2.47933	2.6355	2.70143	2.9775	0.927376	-0.187892	1.23212	1.13014	0.29648	0.371653	0.587287	1.38791	0.0857383	0.162149	1.24802	1.56537	0.402042	-0.524108	0.962294	1.5663	
7.75909	5	0	-0.063737	-0.500596	-0.671264	0.441579	-0.033525	-0.987598	-0.838653	-0.085309	1.60013	1.14495	-0.005231	1.50954	2.54011	2.69923	2.73287	3.01493	0.956829	-0.166601	1.26474	1.152	0.332068	0.390408	0.602754	1.41104	0.089308	0.152061	1.25348	1.56658	0.403251	-0.519152	0.971165	1.56504	
7.76062	5	0	-0.0637532	-0.49144	-0.687825	0.413027	-0.025306	-0.992968	-0.860777	-0.105491	1.62238	1.12282	-0.00766675	1.45589	2.58664	2.72639	2.75584	3.00769	0.970833	-0.153694	1.27469	1.16551	0.322356	0.417855	0.594551	1.42306	0.086631	0.159626	1.2431	1.57097	0.406224	-0.519178	0.97639	1.56617	
7.75452	5	0	-0.0637695	-0.482284	-0.704386	0.384474	-0.017087	-0.998339	-0.8829	-0.125673	1.64464	1.10068	-0.0101025	1.40224	2.63317	2.75355	2.77881	3.00044	0.984838	-0.140788	1.28465	1.17902	0.312644	0.445302	0.586348	1.43509	0.083954	0.167191	1.23273	1.57536	0.409197	-0.519204	0.981614	1.56729	
7.75452	5	0	-0.0637858	-0.473128	-0.720947	0.355922	-0.008868	-1.00371	-0.905024	-0.145856	1.66689	1.07855	-0.0125382	1.34858	2.6797	2.78071	2.80179	2.9932	0.998842	-0.127881	1.2946	1.19253	0.302933	0.472749	0.578146	1.44712	0.081277	0.174757	1.22235	1.57975	0.412171	-0.519231	0.986838	1.56842	
7.74689	5	0	-0.063802	-0.463972	-0.737508	0.32737	-0.000649	-1.00908	-0.927148	-0.166038	1.68914	1.05642	-0.014974	1.29493	2.72623	2.80786	2.82476	2.98595	1.01285	-0.114974	1.30455	1.20605	0.293221	0.500196	0.569943	1.45914	0.0786	0.182322	1.21198	1.58415	0.415144	-0.519257	0.992063	1.56955	
7.74689	5	0	-0.0534045	-0.429461	-0.737277	0.351801	0.01276	-0.975373	-0.935492	-0.150707	1.72273	1.07061	-0.00710375	1.29284	2.77451	2.85826	2.86012	3.01354	1.03735	-0.0986193	1.32778	1.23444	0.317577	0.521365	0.59519	1.46603	0.0803848	0.177278	1.21417	1.57794	0.424073	-0.519339	0.995723	1.56716	
7.73773	5	0	-0.043007	-0.39495	-0.737046	0.376232	0.026169	-0.941666	-0.943836	-0.135375	1.75632	1.0848	0.0007665	1.29076	2.82279	2.90865	2.89549	3.04114	1.06185	-0.0822645	1.35101	1.26283	0.341934	0.542534	0.620436	1.47291	0.0821695	0.172234	1.21637	1.57173	0.433002	-0.519421	0.999382	1.56477	
7.7362	5	0	-0.0326095	-0.360439	-0.736814	0.400663	0.039578	-0.907958	-0.95218	-0.120044	1.78991	1.09899	0.00863675	1.28867	2.87107	2.95905	2.93085	3.06873	1.08636	-0.0659098	1.37424	1.29122	0.36629	0.563703	0.645682	1.4798	0.0839542	0.167189	1.21856	1.56553	0.441931	-0.519502	1.00304	1.56238	
7.7301	5	0	-0.022212	-0.325928	-0.736583	0.425094	0.052987	-0.874251	-0.960524	-0.104713	1.8235	1.11319	0.016507	1.28659	2.91935	3.00944	2.96621	3.09632	1.11086	-0.049555	1.39747	1.31962	0.390646	0.584872	0.670929	1.48668	0.085739	0.162145	1.22076	1.55932	0.45086	-0.519584	1.0067	1.55998	
7.72095	5	0	-0.0211822	-0.319692	-0.746762	0.412073	0.054076	-0.877329	-0.973052	-0.118735	1.83087	1.08552	0.00834925	1.24924	2.95292	3.02216	2.97693	3.08932	1.11683	-0.0466245	1.4023	1.31647	0.383587	0.594798	0.663704	1.48471	0.0830615	0.169712	1.21312	1.56432	0.446116	-0.514566	1.01193	1.56111	
7.71332	5	0	-0.0201525	-0.313457	-0.756941	0.399051	0.055165	-0.880407	-0.98558	-0.132756	1.83824	1.05786	0.0001915	1.21188	2.9865	3.03487	2.98764	3.08232	1.12281	-0.043694	1.40712	1.31331	0.376529	0.604724	0.656479	1.48274	0.080384	0.17728	1.20548	1.56931	0.441373	-0.509548	1.01717	1.56223	
7.71332	5	0	-0.0191228	-0.307221	-0.767121	0.38603	0.056254	-0.883485	-0.998107	-0.146778	1.8456	1.0302	-0.00796625	1.17453	3.02008	3.04759	2.99836	3.07532	1.12878	-0.0407635	1.41194	1.31016	0.369471	0.61465	0.649254	1.48078	0.0777065	0.184847	1.19784	1.5743	0.436629	-0.504529	1.0224	1.56336	
7.70416	5	0	-0.018093	-0.300986	-0.7773	0.373008	0.057343	-0.886563	-1.01063	-0.1608	1.85297	1.00254	-0.016124	1.13718	3.05366	3.06031	3.00908	3.06831	1.13475	-0.037833	1.41676	1.30701	0.362412	0.624576	0.642029	1.47881	0.075029	0.192414	1.1902	1.57929	0.431885	-0.499511	1.02763	1.56448	
7.70111	5	0	-0.0118955	-0.272704	-0.768495	0.406657	0.0699073	-0.859193	-1.00874	-0.124989	1.86855	1.0133	-0.00600325	1.14883	3.08294	3.09483	3.03224	3.08456	1.14966	-0.0270335	1.4382	1.31996	0.384667	0.642005	0.653934	1.50118	0.086832	0.192466	1.19837	1.58111	0.442034	-0.49462	1.03444	1.56913	
7.69806	5	0	-0.005698	-0.244422	-0.759691	0.440306	0.0824715	-0.831822	-1.00684	-0.0891775	1.88412	1.02407	0.0041175	1.16047	3.11222	3.12936	3.05541	3.10081	1.16457	-0.016234	1.45963	1.33291	0.406923	0.659434	0.66584	1.52355	0.098635	0.192518	1.20654	1.58293	0.452184	-0.489729	1.04125	1.57378	
7.69043	5	0	0.0004995	-0.216141	-0.750887	0.473955	0.0950358	-0.804451	-1.00494	-0.0533662	1.8997	1.03483	0.0142383	1.17212	3.14151	3.16388	3.07857	3.11706	1.17948	-0.0054345	1.48106	1.34585	0.429179	0.676863	0.677746	1.54592	0.110438	0.192571	1.21471	1.58475	0.462334	-0.484837	1.04806	1.57842	
7.68432	5	0	0.006697	-0.187859	-0.742082	0.507604	0.1076	-0.777081	-1.00304	-0.017555	1.91527	1.04559	0.024359	1.18377	3.17079	3.19841	3.10174	3.13332	1.19438	0.005365	1.50249	1.3588	0.451434	0.694292	0.689651	1.56829	0.122241	0.192623	1.22287	1.58657	0.472483	-0.479946	1.05487	1.58307	
7.68127	5	0	-0.0027615	-0.18862	-0.754078	0.508037	0.0995603	-0.781334	-1.00455	-0.0215173	1.91352	1.0163	0.021662	1.16119	3.18206	3.19374	3.0982	3.11991	1.19911	-0.00800425	1.50696	1.33566	0.453219	0.669133	0.695287	1.54115	0.108918	0.205214	1.20869	1.59345	0.459121	-0.46737	1.05121	1.58547	
7.67822	5	0	-0.01222	-0.189381	-0.766074	0.508471	0.0915205	-0.785586	-1.00607	-0.0254795	1.91176	0.987013	0.018965	1.13862	3.19332	3.18907	3.09467	3.10651	1.20384	-0.0213735	1.51142	1.31252	0.455004	0.643975	0.700922	1.51401	0.0955945	0.217805	1.19451	1.60033	0.445759	-0.454793	1.04754	1.58786	
7.6767	5	0	-0.0216785	-0.190141	-0.77807	0.508904	0.0834807	-0.789839	-1.00758	-0.0294418	1.91	0.957723	0.016268	1.11605	3.20459	3.18441	3.09114	3.0931	1.20858	-0.0347428	1.51589	1.28938	0.456789	0.618816	0.706557	1.48686	0.0822712	0.230397	1.18033	1.60721	0.432397	-0.442217	1.04387	1.59026	
7.67059	5	0	-0.031137	-0.190902	-0.790066	0.509337	0.075441	-0.794092	-1.0091	-0.033404	1.90824	0.928433	0.013571	1.09347	3.21585	3.17974	3.08761	3.0797	1.21331	-0.048112	1.52035	1.26624	0.458574	0.593657	0.712193	1.45972	0.068948	0.242988	1.16614	1.6141	0.419035	-0.429641	1.0402	1.59265	
7.66449	5	0	-0.032297	-0.1693	-0.785602	0.538567	0.0758095	-0.768159	-1.0061	-0.0006245	1.91526	0.942855	0.0245727	1.12282	3.22894	3.20631	3.0983	3.0963	1.22374	-0.0377878	1.53198	1.27549	0.479702	0.614534	0.720518	1.4811	0.0789602	0.248116	1.17865	1.62026	0.438454	-0.417283	1.04964	1.59788	
7.66296	0	0	-0.033457	-0.147697	-0.781138	0.567797	0.076178	-0.742227	-1.0031	0.032155	1.92228	0.957278	0.0355745	1.15217	3.24203	3.23288	3.10898	3.1129	1.23416	-0.0274635	1.54361	1.28474	0.500829	0.635412	0.728843	1.50248	0.0889725	0.253244	1.19116	1.62642	0.457874	-0.404925	1.05908	1.6031	
7.65991	0	0	-0.034617	-0.126095	-0.776674	0.597026	0.0765465	-0.716294	-1.0001	0.0649345	1.9293	0.9717	0.0465762	1.18151	3.25511	3.25944	3.11967	3.12949	1.24459	-0.0171393	1.55524	1.29399	0.521957	0.656289	0.737169	1.52386	0.0989847	0.258371	1.20367	1.63258	0.477294	-0.392567	1.06852	1.60832	
