0.92	6.70929	0	0	1.08377	0.799094	0.5553	2.41625	0.408427	0.58952	0.312626	1.65763	1.22587	1.71471	0.804967	2.67914	2.84403	3.72248	4.35201	5.88172	0.341432	0.679727	0.794078	2.09621	0.038513	0.678722	0.166274	1.94565	1.01155	1.60673	0.259571	1.72364	0.183365	0.401487	0.196324	1.20384	
0.906665	6.71081	0	0	1.06846	0.800518	0.533226	2.41449	0.397966	0.602992	0.298579	1.6602	1.20473	1.71593	0.784049	2.68115	2.79845	3.68275	4.24371	5.79688	0.341029	0.694357	0.776508	2.10434	0.0498212	0.719257	0.178737	1.98948	1.03248	1.624	0.277692	1.75391	0.185954	0.415555	0.201627	1.20224	
0.896576	6.70929	0	0	1.05316	0.801942	0.511152	2.41273	0.387506	0.616464	0.284532	1.66278	1.18359	1.71715	0.763132	2.68316	2.75286	3.64301	4.1354	5.71204	0.340626	0.708988	0.758938	2.11246	0.0611295	0.759792	0.191199	2.0333	1.05341	1.64127	0.295813	1.78418	0.188543	0.429623	0.20693	1.20064	
0.88942	6.70166	0	0	1.03785	0.803366	0.489078	2.41096	0.377045	0.629936	0.270485	1.66535	1.16245	1.71837	0.742214	2.68517	2.70728	3.60328	4.0271	5.62721	0.340224	0.723619	0.741367	2.12059	0.0724377	0.800327	0.203661	2.07713	1.07433	1.65854	0.313933	1.81444	0.191131	0.44369	0.212233	1.19903	
0.884882	6.69708	0	0	1.02255	0.80479	0.467004	2.4092	0.366584	0.643408	0.256438	1.66792	1.14131	1.71959	0.721297	2.68718	2.6617	3.56354	3.91879	5.54237	0.339821	0.738249	0.723797	2.12872	0.083746	0.840862	0.216124	2.12096	1.09526	1.67581	0.332054	1.84471	0.19372	0.457758	0.217536	1.19743	
0.882649	6.68945	0	0	1.03653	0.807088	0.445764	2.39619	0.379262	0.663957	0.249239	1.66603	1.12602	1.70446	0.702667	2.6356	2.61121	3.50987	3.74373	5.34471	0.345004	0.743857	0.70538	2.07735	0.110736	0.868639	0.235707	2.10526	1.08971	1.65324	0.325111	1.80504	0.198645	0.454539	0.206267	1.14911	
0.882406	6.68487	0	0	1.05052	0.809385	0.424524	2.38317	0.391941	0.684507	0.24204	1.66413	1.11073	1.68933	0.684036	2.58401	2.56071	3.4562	3.56868	5.14704	0.350187	0.749466	0.686963	2.02598	0.137726	0.896416	0.255289	2.08957	1.08417	1.63067	0.318167	1.76537	0.20357	0.451321	0.194999	1.10079	
0.88384	6.68182	0	0	1.06451	0.811683	0.403284	2.37016	0.404619	0.705056	0.234842	1.66224	1.09544	1.67421	0.665406	2.53242	2.51022	3.40253	3.39362	4.94938	0.35537	0.755074	0.668545	1.97461	0.164715	0.924192	0.274871	2.07388	1.07862	1.60811	0.311223	1.7257	0.208496	0.448103	0.18373	1.05247	
0.886638	6.67114	0	0	1.0785	0.813981	0.382044	2.35714	0.417297	0.725606	0.227643	1.66034	1.08015	1.65908	0.646776	2.48083	2.45973	3.34886	3.21857	4.75172	0.360553	0.760682	0.650128	1.92325	0.191705	0.951969	0.294454	2.05818	1.07307	1.58554	0.30428	1.68603	0.213421	0.444884	0.172461	1.00415	
0.890484	6.66351	0	0	1.05925	0.826561	0.319556	2.30732	0.427553	0.761265	0.205358	1.64201	1.0558	1.66246	0.602433	2.41811	2.37744	3.2907	2.96323	4.48074	0.378419	0.777871	0.621921	1.85913	0.235954	0.99462	0.313495	2.03416	1.06424	1.57232	0.276373	1.63952	0.217223	0.45556	0.147894	0.953974	
0.895065	6.65893	0	0	1.03999	0.839142	0.257068	2.25749	0.437809	0.796925	0.183072	1.62367	1.03146	1.66584	0.558089	2.35539	2.29514	3.23254	2.70789	4.20976	0.396285	0.79506	0.593715	1.79502	0.280203	1.03727	0.332537	2.01014	1.05541	1.5591	0.248467	1.59302	0.221025	0.466236	0.123326	0.903797	
0.900067	6.65741	0	0	1.02074	0.851723	0.194579	2.20767	0.448065	0.832585	0.160786	1.60534	1.00712	1.66922	0.513745	2.29267	2.21285	3.17439	2.45255	3.93878	0.41415	0.81225	0.565508	1.73091	0.324452	1.07992	0.351578	1.98612	1.04659	1.54589	0.22056	1.54651	0.224827	0.476913	0.0987585	0.85362	
0.905177	6.64673	0	0	1.00149	0.864303	0.132091	2.15784	0.458321	0.868244	0.138501	1.587	0.982774	1.6726	0.469402	2.22994	2.13056	3.11623	2.19721	3.6678	0.432016	0.829439	0.537301	1.6668	0.368701	1.12257	0.370619	1.9621	1.03776	1.53267	0.192654	1.5	0.228629	0.487589	0.074191	0.803443	
0.91008	6.64673	0	0	0.994045	0.874892	0.0821902	2.03074	0.483923	0.885144	0.117793	1.53521	0.978516	1.66288	0.41965	2.11044	2.06867	3.05229	1.97895	3.43141	0.448059	0.831622	0.515115	1.58678	0.40624	1.13266	0.371046	1.90136	1.01239	1.48086	0.138203	1.42015	0.21852	0.462652	0.044023	0.73041	
0.914463	6.64062	0	0	0.986603	0.885481	0.0322895	1.90364	0.509524	0.902043	0.0970845	1.48341	0.974257	1.65316	0.369899	1.99093	2.00677	2.98835	1.76069	3.19501	0.464102	0.833805	0.49293	1.50675	0.443779	1.14275	0.371473	1.84061	0.987021	1.42905	0.0837515	1.3403	0.208411	0.437715	0.013855	0.657377	
0.918024	6.63452	0	0	0.979161	0.89607	-0.0176112	1.77654	0.535126	0.918943	0.0763763	1.43161	0.969998	1.64344	0.320148	1.87142	1.94488	2.92441	1.54243	2.95861	0.480145	0.835988	0.470744	1.42672	0.481318	1.15284	0.3719	1.77987	0.961653	1.37724	0.0293002	1.26045	0.198303	0.412777	-0.016313	0.584344	
0.920647	6.63147	0	0	0.971719	0.906659	-0.067512	1.64944	0.560728	0.935843	0.055668	1.37982	0.96574	1.63373	0.270396	1.75191	1.88299	2.86047	1.32417	2.72221	0.496188	0.838171	0.448558	1.3467	0.518857	1.16293	0.372327	1.71912	0.936284	1.32543	-0.025151	1.1806	0.188194	0.38784	-0.046481	0.511311	
0.922359	6.62536	0	0	0.975102	0.938907	-0.090285	1.60762	0.583566	0.977336	0.0390503	1.37552	0.986179	1.65585	0.249751	1.71823	1.86304	2.85053	1.21753	2.63064	0.518775	0.856089	0.457911	1.34059	0.556203	1.18495	0.382659	1.72959	0.919796	1.29643	-0.0416055	1.15466	0.184297	0.366824	-0.054579	0.475182	
0.923192	6.62689	0	0	0.978485	0.971154	-0.113058	1.5658	0.606403	1.01883	0.0224325	1.37123	1.00662	1.67798	0.229107	1.68456	1.84308	2.84059	1.11089	2.53907	0.541361	0.874008	0.467264	1.33448	0.593549	1.20698	0.392992	1.74006	0.903307	1.26742	-0.05806	1.12872	0.180399	0.345809	-0.062677	0.439053	
0.923176	6.62231	0	0	0.981868	1.0034	-0.135831	1.52398	0.629241	1.06032	0.00581475	1.36693	1.02706	1.70011	0.208462	1.65088	1.82313	2.83064	1.00424	2.4475	0.563948	0.891927	0.476618	1.32836	0.630896	1.22901	0.403324	1.75053	0.886819	1.23842	-0.0745145	1.10278	0.176502	0.324793	-0.070775	0.402925	
0.922341	6.61316	0	0	0.985251	1.03565	-0.158604	1.48216	0.652079	1.10182	-0.010803	1.36264	1.0475	1.72223	0.187817	1.6172	1.80318	2.8207	0.897598	2.35594	0.586534	0.909845	0.485971	1.32225	0.668242	1.25103	0.413656	1.761	0.870331	1.20942	-0.090969	1.07684	0.172604	0.303777	-0.078873	0.366796	
0.92072	6.61774	0	0	0.984764	1.04749	-0.170364	1.43616	0.667389	1.10769	-0.013935	1.34956	1.07238	1.72483	0.179855	1.57555	1.80582	2.81324	0.873365	2.3178	0.605207	0.904926	0.491925	1.30543	0.685663	1.23383	0.422193	1.74681	0.83229	1.19473	-0.126055	1.10383	0.141639	0.284919	-0.105648	0.377113	
0.918342	6.62231	0	0	0.984277	1.05934	-0.182123	1.39015	0.682698	1.11357	-0.017067	1.33649	1.09727	1.72743	0.171892	1.53391	1.80846	2.80578	0.849131	2.27966	0.62388	0.900008	0.497879	1.2886	0.703084	1.21663	0.430729	1.73262	0.79425	1.18005	-0.16114	1.13082	0.110673	0.266061	-0.132423	0.387431	
0.915286	6.63147	0	0	0.98379	1.07118	-0.193882	1.34415	0.698008	1.11944	-0.020199	1.32342	1.12215	1.73003	0.16393	1.49226	1.81109	2.79832	0.824898	2.24152	0.642553	0.895089	0.503833	1.27177	0.720505	1.19942	0.439265	1.71842	0.756209	1.16536	-0.196226	1.15782	0.0797075	0.247203	-0.159198	0.397749	
0.911724	6.64825	0	0	0.983303	1.08302	-0.205642	1.29814	0.713318	1.12532	-0.023331	1.31034	1.14704	1.73263	0.155967	1.45062	1.81373	2.79087	0.800665	2.20338	0.661226	0.89017	0.509787	1.25495	0.737926	1.18222	0.447802	1.70423	0.718169	1.15067	-0.231312	1.18481	0.048742	0.228345	-0.185973	0.408066	
0.907837	6.65283	0	0	0.991964	1.10047	-0.200019	1.31742	0.718594	1.15146	-0.00994925	1.33838	1.15609	1.75826	0.16438	1.47264	1.82707	2.8195	0.835396	2.24104	0.677868	0.904846	0.534323	1.28755	0.750919	1.18829	0.45878	1.72293	0.70512	1.13142	-0.232617	1.21012	0.0302472	0.217081	-0.179738	0.416558	
0.903807	6.66351	0	0	1.00063	1.11792	-0.194396	1.33671	0.723871	1.1776	0.0034325	1.36641	1.16515	1.78389	0.172793	1.49466	1.84041	2.84814	0.870127	2.27869	0.69451	0.919523	0.558859	1.32015	0.763913	1.19436	0.469759	1.74164	0.692071	1.11216	-0.233922	1.23542	0.0117525	0.205817	-0.173503	0.42505	
0.899815	6.66809	0	0	1.00929	1.13537	-0.188773	1.35599	0.729147	1.20374	0.0168143	1.39445	1.1742	1.80952	0.181205	1.51668	1.85375	2.87678	0.904857	2.31635	0.711151	0.9342	0.583395	1.35276	0.776907	1.20043	0.480737	1.76035	0.679023	1.09291	-0.235227	1.26073	-0.00674225	0.194553	-0.167268	0.433543	
0.896043	6.67267	0	0	1.01795	1.15281	-0.18315	1.37528	0.734423	1.22989	0.030196	1.42248	1.18325	1.83515	0.189618	1.53871	1.86709	2.90542	0.939588	2.35401	0.727793	0.948876	0.607931	1.38536	0.7899	1.2065	0.491716	1.77906	0.665974	1.07366	-0.236532	1.28604	-0.025237	0.183289	-0.161033	0.442035	
0.892674	6.67877	0	0	1.00613	1.15475	-0.186548	1.36728	0.726009	1.21261	0.0278212	1.42187	1.16512	1.79869	0.17826	1.51586	1.87199	2.88208	0.954593	2.35059	0.716841	0.952376	0.601935	1.40231	0.760374	1.1938	0.462928	1.80075	0.643324	1.0631	-0.245451	1.31846	-0.0460455	0.178781	-0.159246	0.469677	
0.88987	6.6803	0	0	0.99432	1.15668	-0.189946	1.35929	0.717596	1.19534	0.0254465	1.42125	1.14698	1.76223	0.166901	1.49302	1.87689	2.85874	0.969599	2.34717	0.70589	0.955877	0.595939	1.41925	0.730849	1.1811	0.434141	1.82244	0.620674	1.05253	-0.25437	1.35088	-0.066854	0.174272	-0.157458	0.497319	
0.887745	6.67419	5	0	0.982505	1.15862	-0.193344	1.3513	0.709182	1.17806	0.0230718	1.42063	1.12885	1.72576	0.155543	1.47018	1.88179	2.83539	0.984604	2.34375	0.694938	0.959377	0.589943	1.4362	0.701323	1.1684	0.405354	1.84413	0.598024	1.04197	-0.26329	1.3833	-0.0876625	0.169764	-0.15567	0.524961	
0.886401	6.67114	5	0	0.970691	1.16056	-0.196742	1.3433	0.700768	1.16079	0.020697	1.42001	1.11071	1.6893	0.144184	1.44734	1.88669	2.81205	0.999609	2.34033	0.683986	0.962877	0.583947	1.45315	0.671797	1.15569	0.376566	1.86583	0.575374	1.0314	-0.272209	1.41572	-0.108471	0.165255	-0.153883	0.552603	
0.885944	6.67114	5	0	0.963209	1.17123	-0.180263	1.37605	0.692175	1.16868	0.0275782	1.43724	1.09494	1.68288	0.151761	1.45338	1.88974	2.81294	1.02399	2.36925	0.681878	0.955123	0.588858	1.45972	0.646416	1.13177	0.365521	1.86728	0.555983	1.01192	-0.269832	1.41622	-0.130478	0.153853	-0.146292	0.563902	
0.886475	6.66046	5	0	0.955727	1.1819	-0.163785	1.40879	0.683582	1.17657	0.0344595	1.45446	1.07918	1.67645	0.159337	1.45942	1.89278	2.81382	1.04837	2.39817	0.679771	0.947369	0.593768	1.4663	0.621035	1.10785	0.354475	1.86874	0.536591	0.992447	-0.267454	1.41671	-0.152486	0.142451	-0.138702	0.575201	
0.888098	6.65893	5	0	0.948245	1.19257	-0.147307	1.44154	0.67499	1.18445	0.0413408	1.47169	1.06341	1.67003	0.166913	1.46545	1.89583	2.8147	1.07275	2.4271	0.677663	0.939614	0.598679	1.47288	0.595654	1.08393	0.343429	1.87019	0.5172	0.972971	-0.265077	1.41721	-0.174494	0.131049	-0.131111	0.586501	
0.890917	6.64825	5	0	0.940763	1.20325	-0.130828	1.47428	0.666397	1.19234	0.048222	1.48891	1.04765	1.6636	0.17449	1.47149	1.89887	2.81559	1.09713	2.45602	0.675555	0.93186	0.603589	1.47946	0.570273	1.06001	0.332384	1.87165	0.497808	0.953494	-0.2627	1.41771	-0.196501	0.119647	-0.12352	0.5978	
0.894955	6.64673	5	0	0.927339	1.18891	-0.127425	1.48233	0.648183	1.17022	0.0437155	1.4723	1.02759	1.67671	0.157194	1.50207	1.89755	2.81933	1.12785	2.50703	0.663158	0.932665	0.587967	1.49293	0.533985	1.04632	0.323844	1.88587	0.494685	0.97159	-0.254552	1.44526	-0.2196	0.111619	-0.112176	0.624839	
0.899899	6.63605	5	0	0.913914	1.17458	-0.124023	1.49039	0.629969	1.14809	0.039209	1.4557	1.00753	1.68982	0.139898	1.53265	1.89623	2.82306	1.15856	2.55804	0.650761	0.933469	0.572345	1.50641	0.497696	1.03263	0.315304	1.9001	0.491561	0.989685	-0.246404	1.47282	-0.242698	0.103591	-0.100833	0.651879	
0.905343	6.62994	5	0	0.900489	1.16024	-0.12062	1.49844	0.611755	1.12596	0.0347025	1.43909	0.987467	1.70293	0.122602	1.56322	1.8949	2.8268	1.18928	2.60905	0.638364	0.934273	0.556724	1.51988	0.461408	1.01894	0.306763	1.91432	0.488438	1.00778	-0.238256	1.50037	-0.265797	0.0955623	-0.0894895	0.678918	
0.910881	6.62079	5	0	0.887065	1.1459	-0.117217	1.5065	0.593541	1.10383	0.030196	1.42248	0.967407	1.71603	0.105306	1.5938	1.89358	2.83054	1.22	2.66006	0.625967	0.935078	0.541102	1.53335	0.425119	1.00526	0.298223	1.92855	0.485315	1.02588	-0.230108	1.52793	-0.288896	0.087534	-0.078146	0.705957	
0.916107	6.61468	5	0	0.884914	1.14155	-0.104281	1.54967	0.58499	1.11169	0.0357037	1.43626	0.982554	1.74593	0.117013	1.62486	1.91042	2.86859	1.30494	2.74897	0.613804	0.928456	0.534897	1.54067	0.400909	0.989586	0.283982	1.92921	0.486447	1.04123	-0.225341	1.52894	-0.312078	0.0592195	-0.0710532	0.712238	
0.920616	6.60705	5	0	0.882764	1.13719	-0.091345	1.59284	0.576438	1.11954	0.0412115	1.45004	0.997701	1.77582	0.128719	1.65592	1.92726	2.90664	1.38988	2.83788	0.601642	0.921834	0.528693	1.548	0.3767	0.973917	0.269742	1.92987	0.487579	1.05658	-0.220575	1.52994	-0.335261	0.030905	-0.0639605	0.718518	
0.924002	6.59942	5	0	0.880613	1.13283	-0.078409	1.63601	0.567886	1.12739	0.0467193	1.46381	1.01285	1.80571	0.140426	1.68698	1.94409	2.94469	1.47481	2.92679	0.589479	0.915212	0.522488	1.55532	0.35249	0.958248	0.255501	1.93053	0.48871	1.07194	-0.215808	1.53095	-0.358444	0.0025905	-0.0568677	0.724799	
0.925886	6.5918	5	0	0.878462	1.12847	-0.065473	1.67918	0.559335	1.13524	0.052227	1.47759	1.02799	1.8356	0.152133	1.71805	1.96093	2.98274	1.55975	3.0157	0.577316	0.90859	0.516283	1.56264	0.32828	0.942579	0.24126	1.93119	0.489842	1.08729	-0.211041	1.53196	-0.381626	-0.025724	-0.049775	0.73108	
0.926316	6.59027	5	0	0.877957	1.14033	-0.0440545	1.74335	0.551608	1.16523	0.05107	1.51761	1.04725	1.90542	0.168335	1.78274	1.98334	3.0438	1.63657	3.11302	0.582133	0.929133	0.523226	1.59414	0.330475	0.978374	0.252658	1.95839	0.515748	1.13511	-0.194769	1.55852	-0.402008	-0.0200477	-0.0409395	0.765479	
0.925693	6.58569	5	0	0.877452	1.1522	-0.022636	1.80753	0.54388	1.19523	0.049913	1.55762	1.06651	1.97524	0.184537	1.84743	2.00575	3.10487	1.71338	3.21034	0.58695	0.949677	0.530169	1.62565	0.33267	1.01417	0.264057	1.98559	0.541654	1.18294	-0.178496	1.58509	-0.422389	-0.0143715	-0.032104	0.799878	
0.924427	6.58874	5	0	0.876948	1.16406	-0.0012175	1.8717	0.536153	1.22522	0.048756	1.59763	1.08577	2.04506	0.20074	1.91213	2.02816	3.16593	1.79019	3.30766	0.591767	0.97022	0.537113	1.65715	0.334864	1.04996	0.275455	2.01279	0.567559	1.23076	-0.162223	1.61166	-0.442771	-0.00869525	-0.0232685	0.834277	
0.92293	6.58569	5	0	0.876443	1.17592	0.020201	1.93587	0.528425	1.25522	0.047599	1.63765	1.10502	2.11488	0.216942	1.97682	2.05057	3.22699	1.86701	3.40498	0.596584	0.990763	0.544056	1.68865	0.337059	1.08576	0.286853	2.03999	0.593465	1.27858	-0.145951	1.63823	-0.463153	-0.003019	-0.014433	0.868676	
0.921613	6.58569	5	0	0.886883	1.17777	0.0471972	1.97613	0.536311	1.28195	0.0548228	1.66142	1.1365	2.15838	0.235488	1.99843	2.08114	3.26582	1.93362	3.47421	0.597424	0.988389	0.550461	1.69104	0.340576	1.08633	0.286853	2.03999	0.603203	1.29782	-0.147389	1.63503	-0.469362	-0.0269078	-0.0178062	0.878209	
0.920886	6.58264	5	0	0.897323	1.17961	0.0741935	2.01638	0.544197	1.30868	0.0620465	1.68519	1.16798	2.20188	0.254035	2.02003	2.11171	3.30465	2.00023	3.54344	0.598264	0.986015	0.556867	1.69343	0.344093	1.08691	0.286853	2.03999	0.61294	1.31707	-0.148828	1.63182	-0.475571	-0.0507965	-0.0211795	0.887743	
0.921158	6.5918	5	0	0.907764	1.18145	0.10119	2.05664	0.552083	1.3354	0.0692703	1.70897	1.19946	2.24538	0.272581	2.04164	2.14228	3.34349	2.06684	3.61267	0.599104	0.983641	0.563273	1.69582	0.347611	1.08748	0.286853	2.03999	0.622678	1.33631	-0.150266	1.62862	-0.48178	-0.0746852	-0.0245527	0.897277	
0.922513	6.59027	5	0	0.918204	1.18329	0.128186	2.09689	0.559969	1.36213	0.076494	1.73274	1.23094	2.28887	0.291128	2.06325	2.17285	3.38232	2.13345	3.6819	0.599944	0.981267	0.569678	1.69821	0.351128	1.08805	0.286853	2.03999	0.632416	1.35555	-0.151704	1.62542	-0.487989	-0.098574	-0.027926	0.90681	
0.924322	6.5979	5	0	0.919846	1.19958	0.141579	2.1492	0.563621	1.40095	0.081369	1.77805	1.27173	2.34424	0.315505	2.11527	2.19809	3.43707	2.19923	3.77811	0.600137	1.00125	0.576773	1.73976	0.357262	1.11283	0.292341	2.07413	0.655164	1.38514	-0.139236	1.64841	-0.487989	-0.098574	-0.019295	0.928725	
0.925863	6.60858	5	0	0.921488	1.21586	0.154973	2.2015	0.567273	1.43978	0.086244	1.82335	1.31252	2.39961	0.339882	2.16729	2.22333	3.49182	2.26502	3.87432	0.60033	1.02122	0.583869	1.78131	0.363397	1.13761	0.297828	2.10828	0.677912	1.41473	-0.126767	1.6714	-0.487989	-0.098574	-0.010664	0.950641	
0.926415	6.62231	5	0	0.923131	1.23215	0.168366	2.2538	0.570926	1.4786	0.091119	1.86866	1.3533	2.45498	0.36426	2.21931	2.24857	3.54657	2.3308	3.97054	0.600523	1.0412	0.590964	1.82287	0.369531	1.16239	0.303316	2.14242	0.70066	1.44432	-0.114298	1.69439	-0.487989	-0.098574	-0.002033	0.972557	
0.925255	6.63299	5	0	0.924773	1.24844	0.181759	2.3061	0.574578	1.51742	0.095994	1.91396	1.39409	2.51035	0.388637	2.27133	2.27381	3.60132	2.39658	4.06675	0.600716	1.06118	0.598059	1.86442	0.375665	1.18717	0.308803	2.17657	0.723408	1.47391	-0.10183	1.71738	-0.487989	-0.098574	0.006598	0.994472	
0.921661	6.64825	5	0	0.927438	1.2409	0.201571	2.32255	0.585006	1.529	0.103857	1.92876	1.42364	2.53897	0.399279	2.27862	2.29457	3.62065	2.44682	4.11526	0.599468	1.05102	0.598059	1.86442	0.369948	1.18226	0.304446	2.15907	0.723417	1.4833	-0.109975	1.71854	-0.495176	-0.0989467	0.00135	0.996061	
0.914912	6.65893	5	0	0.930104	1.23337	0.221383	2.339	0.595435	1.54058	0.111721	1.94356	1.45319	2.5676	0.409921	2.28591	2.31534	3.63998	2.49706	4.16377	0.59822	1.04086	0.598059	1.86442	0.364232	1.17734	0.30009	2.14158	0.723425	1.49269	-0.11812	1.7197	-0.502363	-0.0993195	-0.003898	0.997649	
0.904579	6.67419	5	0	0.93277	1.22584	0.241194	2.35544	0.605863	1.55216	0.119585	1.95836	1.48273	2.59623	0.420563	2.2932	2.3361	3.65932	2.5473	4.21228	0.596972	1.03071	0.598059	1.86442	0.358515	1.17243	0.295733	2.12408	0.723434	1.50208	-0.126265	1.72086	-0.509549	-0.0996922	-0.009146	0.999238	
0.891838	6.68793	5	0	0.935435	1.2183	0.261006	2.37189	0.616292	1.56374	0.127448	1.97315	1.51228	2.62486	0.431205	2.30048	2.35686	3.67865	2.59754	4.26079	0.595724	1.02055	0.598059	1.86442	0.352798	1.16752	0.291376	2.10658	0.723442	1.51147	-0.13441	1.72203	-0.516736	-0.100065	-0.014394	1.00083	
0.878413	6.69861	5	0	0.938098	1.21078	0.29119	2.41403	0.631275	1.59552	0.142506	1.98999	1.53878	2.67788	0.447276	2.33002	2.37354	3.70986	2.61703	4.31239	0.597814	1.02833	0.604644	1.87669	0.365105	1.18545	0.293274	2.11115	0.733217	1.53099	-0.130577	1.72576	-0.516645	-0.089983	-0.0098315	1.01443	
0.866029	6.71081	5	0	0.940762	1.20325	0.321375	2.45618	0.646258	1.6273	0.157564	2.00682	1.56528	2.73089	0.463348	2.35955	2.39022	3.74106	2.63652	4.36399	0.599905	1.0361	0.611229	1.88896	0.377412	1.20339	0.295173	2.11572	0.742991	1.55051	-0.126745	1.7295	-0.516554	-0.079901	-0.005269	1.02803	
0.856408	6.72607	5	0	0.943425	1.19572	0.351559	2.49832	0.661242	1.65908	0.172621	2.02365	1.59178	2.7839	0.479419	2.38908	2.4069	3.77227	2.656	4.41559	0.601995	1.04388	0.617815	1.90123	0.389719	1.22133	0.297072	2.12028	0.752765	1.57002	-0.122912	1.73324	-0.516463	-0.069819	-0.0007065	1.04163	
0.851276	6.73523	5	0	0.946088	1.1882	0.381743	2.54046	0.676225	1.69086	0.187679	2.04048	1.61829	2.83691	0.49549	2.41861	2.42358	3.80347	2.67549	4.46719	0.604085	1.05166	0.6244	1.9135	0.402026	1.23927	0.29897	2.12485	0.76254	1.58954	-0.119079	1.73697	-0.516372	-0.059737	0.003856	1.05523	
0.852355	6.74591	5	0	0.94576	1.1682	0.398094	2.52168	0.683825	1.68589	0.188004	2.0247	1.62829	2.82375	0.488766	2.4001	2.42148	3.78977	2.67549	4.46719	0.589009	1.03959	0.603469	1.90068	0.384875	1.22449	0.27126	2.11397	0.756024	1.59852	-0.1277	1.74677	-0.506668	-0.04575	-0.00209275	1.07204	
0.860585	6.75659	5	0	0.945431	1.1482	0.414444	2.50289	0.691424	1.68092	0.188329	2.00892	1.63829	2.81059	0.482042	2.38159	2.41939	3.77607	2.67549	4.46719	0.573932	1.02751	0.582538	1.88786	0.367723	1.20972	0.24355	2.1031	0.749507	1.6075	-0.136322	1.75657	-0.496963	-0.031763	-0.0080415	1.08885	
0.874427	6.77185	5	0	0.945103	1.1282	0.430795	2.48411	0.699024	1.67596	0.188654	1.99313	1.64829	2.79744	0.475319	2.36308	2.41729	3.76238	2.67549	4.46719	0.558855	1.01544	0.561607	1.87504	0.350571	1.19495	0.215839	2.09222	0.742991	1.61648	-0.144944	1.76636	-0.487258	-0.017776	-0.0139902	1.10566	
0.89186	6.78253	5	0	0.944775	1.1082	0.447146	2.46532	0.706624	1.67099	0.188979	1.97735	1.65829	2.78428	0.468595	2.34457	2.4152	3.74868	2.67549	4.46719	0.543779	1.00337	0.540676	1.86222	0.33342	1.18018	0.188129	2.08135	0.736475	1.62545	-0.153565	1.77616	-0.477554	-0.003789	-0.019939	1.12247	
0.91086	6.78863	5	0	0.94959	1.10505	0.450115	2.46608	0.704955	1.66745	0.191727	1.98445	1.66134	2.77567	0.470276	2.34919	2.42007	3.75453	2.70327	4.50673	0.53312	0.999398	0.539309	1.87635	0.322016	1.17036	0.181694	2.07977	0.736477	1.61602	-0.154041	1.77023	-0.460704	0.00048625	-0.0163883	1.1257	
0.929404	6.79626	5	0	0.954404	1.1019	0.453084	2.46684	0.703286	1.66391	0.194476	1.99155	1.66438	2.76706	0.471957	2.35381	2.42494	3.76039	2.73105	4.54628	0.522462	0.995427	0.537942	1.89048	0.310611	1.16055	0.17526	2.07819	0.736479	1.60658	-0.154518	1.76429	-0.443854	0.0047615	-0.0128375	1.12893	
0.945468	6.79779	5	0	0.959219	1.09876	0.456053	2.4676	0.701616	1.66037	0.197225	1.99864	1.66743	2.75845	0.473638	2.35843	2.42981	3.76624	2.75883	4.58582	0.511803	0.991456	0.536575	1.90461	0.299206	1.15074	0.168826	2.07662	0.736481	1.59714	-0.154995	1.75836	-0.427004	0.00903675	-0.00928675	1.13215	
0.957031	6.80694	5	0	0.964034	1.09561	0.459022	2.46836	0.699947	1.65683	0.199973	2.00574	1.67047	2.74985	0.475319	2.36305	2.43468	3.77209	2.78661	4.62537	0.501145	0.987485	0.535208	1.91873	0.287802	1.14092	0.162391	2.07504	0.736483	1.5877	-0.155471	1.75243	-0.410154	0.013312	-0.005736	1.13538	
0.962106	6.81	5	0	0.956714	1.07449	0.452114	2.45131	0.687662	1.62562	0.18557	1.97965	1.64244	2.74615	0.454127	2.38549	2.42565	3.77799	2.78316	4.65665	0.488389	1.00311	0.521324	1.94771	0.274172	1.15846	0.151733	2.10516	0.740821	1.60375	-0.14686	1.77181	-0.394259	0.0412895	0.00763575	1.15073	
0.960284	6.81152	5	0	0.949394	1.05337	0.445206	2.43426	0.675377	1.59441	0.171167	1.95355	1.6144	2.74246	0.432934	2.40792	2.41662	3.78389	2.77972	4.68793	0.475633	1.01873	0.50744	1.97668	0.260543	1.17599	0.141076	2.13528	0.745159	1.61981	-0.138248	1.7912	-0.378364	0.069267	0.0210075	1.16608	
0.95324	6.80847	5	0	0.942073	1.03225	0.438297	2.41721	0.663093	1.56319	0.156764	1.92746	1.58636	2.73877	0.411742	2.43035	2.40759	3.78979	2.77627	4.71921	0.462877	1.03436	0.493556	2.00565	0.246913	1.19352	0.130418	2.1654	0.749497	1.63586	-0.129636	1.81058	-0.362469	0.0972445	0.0343793	1.18143	
0.942795	6.80847	5	0	0.934753	1.01113	0.431389	2.40015	0.650808	1.53198	0.142361	1.90136	1.55832	2.73508	0.39055	2.45279	2.39857	3.79569	2.77283	4.75049	0.450121	1.04998	0.479672	2.03463	0.233283	1.21106	0.11976	2.19552	0.753835	1.65191	-0.121025	1.82997	-0.346574	0.125222	0.047751	1.19678	
0.930768	6.80084	5	0	0.920838	1.00874	0.440293	2.40242	0.64914	1.52847	0.137581	1.90006	1.55156	2.72413	0.394857	2.44998	2.39752	3.80844	2.77935	4.76444	0.443859	1.05407	0.482868	2.03586	0.231958	1.2148	0.119217	2.18718	0.760359	1.64292	-0.123413	1.81484	-0.340507	0.128956	0.0467515	1.18631	
0.918979	6.79321	5	0	0.906923	1.00635	0.449196	2.40468	0.647473	1.52496	0.1328	1.89876	1.54479	2.71318	0.399164	2.44716	2.39648	3.82118	2.78586	4.77839	0.437597	1.05816	0.486063	2.03709	0.230633	1.21854	0.118674	2.17884	0.766883	1.63393	-0.125802	1.79972	-0.33444	0.13269	0.045752	1.17583	
0.90925	6.78558	5	0	0.893008	1.00396	0.4581	2.40694	0.645805	1.52144	0.12802	1.89746	1.53803	2.70224	0.40347	2.44435	2.39544	3.83393	2.79238	4.79234	0.431336	1.06225	0.489258	2.03833	0.229309	1.22229	0.11813	2.1705	0.773406	1.62494	-0.12819	1.7846	-0.328373	0.136425	0.0447525	1.16536	
0.903397	6.77643	5	0	0.879093	1.00158	0.467004	2.4092	0.644137	1.51793	0.12324	1.89616	1.53126	2.69129	0.407777	2.44153	2.3944	3.84668	2.79889	4.80629	0.425074	1.06635	0.492454	2.03956	0.227984	1.22603	0.117587	2.16217	0.77993	1.61595	-0.130579	1.76947	-0.322306	0.140159	0.043753	1.15488	
0.902389	6.77185	5	0	0.865212	0.999184	0.446735	2.41167	0.619051	1.50678	0.100764	1.89317	1.50626	2.69448	0.396872	2.463	2.38884	3.8624	2.80036	4.83456	0.418354	1.08534	0.483385	2.07546	0.218696	1.25228	0.110114	2.19316	0.785367	1.62896	-0.122434	1.78292	-0.313706	0.157687	0.0518778	1.17185	
0.905067	6.76269	5	0	0.851331	0.996792	0.426467	2.41415	0.593965	1.49562	0.078288	1.89019	1.48126	2.69768	0.385966	2.48446	2.38328	3.87812	2.80183	4.86284	0.411635	1.10433	0.474317	2.11136	0.209407	1.27853	0.10264	2.22416	0.790804	1.64197	-0.114288	1.79637	-0.305107	0.175215	0.0600025	1.18881	
0.90995	6.75812	5	0	0.83745	0.9944	0.406199	2.41662	0.568879	1.48447	0.055812	1.8872	1.45625	2.70087	0.375061	2.50592	2.37771	3.89385	2.8033	4.89111	0.404915	1.12332	0.465248	2.14726	0.200119	1.30478	0.0951665	2.25515	0.796241	1.65497	-0.106143	1.80982	-0.296507	0.192744	0.0681273	1.20578	
0.915552	6.75354	5	0	0.823569	0.992008	0.38593	2.4191	0.543793	1.47332	0.033336	1.88421	1.43125	2.70406	0.364156	2.52738	2.37215	3.90957	2.80476	4.91938	0.398195	1.14231	0.456179	2.18316	0.190831	1.33103	0.087693	2.28614	0.801678	1.66798	-0.097997	1.82327	-0.287908	0.210272	0.076252	1.22274	
0.92039	6.74286	5	0	0.829186	0.996932	0.386412	2.42686	0.538368	1.47228	0.0313045	1.88995	1.42696	2.69375	0.367142	2.5283	2.38186	3.92139	2.82287	4.93323	0.401325	1.14026	0.464225	2.19127	0.193488	1.32352	0.089831	2.27023	0.798416	1.65828	-0.101352	1.79629	-0.279451	0.207323	0.078818	1.21549	
0.922982	6.7337	5	0	0.834803	1.00186	0.386894	2.43462	0.532943	1.47125	0.029273	1.8957	1.42267	2.68343	0.370127	2.52922	2.39157	3.93322	2.84097	4.94709	0.404456	1.13822	0.472271	2.19938	0.196144	1.31602	0.091969	2.25431	0.795154	1.64858	-0.104708	1.7693	-0.270994	0.204374	0.081384	1.20824	
0.921843	6.72607	5	0	0.84042	1.00678	0.387376	2.44238	0.527518	1.47021	0.0272415	1.90144	1.41838	2.67311	0.373112	2.53014	2.40129	3.94504	2.85907	4.96094	0.407586	1.13617	0.480316	2.20748	0.1988	1.30851	0.094107	2.2384	0.791892	1.63888	-0.108064	1.74231	-0.262537	0.201425	0.08395	1.20099	
0.915772	6.71692	5	0	0.846037	1.01171	0.387858	2.45014	0.522093	1.46917	0.02521	1.90718	1.4141	2.66279	0.376098	2.53106	2.411	3.95687	2.87717	4.97479	0.410716	1.13413	0.488362	2.21559	0.201457	1.301	0.096245	2.22248	0.78863	1.62918	-0.111419	1.71532	-0.25408	0.198476	0.086516	1.19373	
0.905707	6.71539	5	0	0.833824	1.02542	0.400195	2.46096	0.520586	1.48162	0.0177488	1.92089	1.40705	2.68271	0.375787	2.56004	2.41653	3.9806	2.87351	5.01773	0.411931	1.1443	0.501283	2.2306	0.209304	1.31031	0.101328	2.22787	0.789718	1.6261	-0.111902	1.7094	-0.249175	0.205587	0.0909397	1.19456	
0.893565	6.70624	5	0	0.821611	1.03914	0.412531	2.47178	0.519079	1.49406	0.0102875	1.9346	1.4	2.70262	0.375476	2.58902	2.42205	4.00434	2.86984	5.06068	0.413146	1.15448	0.514204	2.2456	0.217151	1.31962	0.106411	2.23325	0.790806	1.62303	-0.112384	1.70348	-0.244269	0.212699	0.0953635	1.19538	
0.881271	6.69708	5	0	0.809399	1.05285	0.424868	2.4826	0.517572	1.5065	0.00282625	1.94831	1.39296	2.72253	0.375166	2.618	2.42758	4.02808	2.86618	5.10362	0.414361	1.16466	0.527124	2.26061	0.224999	1.32894	0.111494	2.23864	0.791893	1.61995	-0.112867	1.69756	-0.239364	0.21981	0.0997872	1.19621	
0.870746	6.69403	5	0	0.797186	1.06657	0.437205	2.49342	0.516065	1.51894	-0.004635	1.96202	1.38591	2.74244	0.374855	2.64698	2.43311	4.05181	2.86252	5.14656	0.415576	1.17484	0.540045	2.27562	0.232846	1.33825	0.116577	2.24403	0.792981	1.61688	-0.113349	1.69164	-0.234459	0.226921	0.104211	1.19704	
0.863916	6.68335	5	0	0.80593	1.05225	0.436238	2.47786	0.513205	1.50249	-0.0076965	1.94857	1.38095	2.70421	0.369537	2.62455	2.43211	4.02512	2.86762	5.13215	0.404223	1.14575	0.533401	2.25317	0.21594	1.29172	0.106117	2.20455	0.779921	1.57831	-0.127277	1.65104	-0.232347	0.189501	0.097775	1.17527	
0.862702	6.68182	5	0	0.814674	1.03794	0.435271	2.46231	0.510346	1.48603	-0.010758	1.93511	1.376	2.66598	0.36422	2.60212	2.4311	3.99843	2.87272	5.11773	0.392869	1.11667	0.526757	2.23072	0.199034	1.24519	0.0956575	2.16507	0.76686	1.53973	-0.141205	1.61045	-0.230236	0.15208	0.091339	1.1535	
0.868591	6.66962	5	0	0.823419	1.02362	0.434304	2.44675	0.507486	1.46958	-0.0138195	1.92166	1.37104	2.62775	0.358902	2.57969	2.4301	3.97173	2.87782	5.10332	0.381516	1.08759	0.520112	2.20826	0.182128	1.19866	0.0851978	2.12559	0.7538	1.50116	-0.155133	1.56986	-0.228125	0.114659	0.084903	1.13174	
0.880614	6.66656	5	0	0.832163	1.00931	0.433337	2.4312	0.504626	1.45313	-0.016881	1.9082	1.36608	2.58951	0.353584	2.55726	2.4291	3.94504	2.88292	5.0889	0.370163	1.05851	0.513468	2.18581	0.165222	1.15213	0.074738	2.08612	0.740739	1.46259	-0.169061	1.52927	-0.226013	0.077239	0.078467	1.10997	
0.896948	6.66962	5	0	0.837782	1.01424	0.431817	2.45378	0.50297	1.44964	-0.0161953	1.921	1.35252	2.58315	0.352598	2.56941	2.41347	3.94011	2.88623	5.09043	0.365211	1.04538	0.513468	2.18581	0.151741	1.13805	0.0728628	2.08157	0.739646	1.45626	-0.167654	1.51804	-0.223651	0.070562	0.080171	1.10516	
0.915769	6.66656	5	0	0.843401	1.01917	0.430297	2.47637	0.501313	1.44615	-0.0155095	1.9338	1.33897	2.57679	0.351611	2.58155	2.39784	3.93518	2.88954	5.09196	0.36026	1.03225	0.513468	2.18581	0.138259	1.12396	0.0709875	2.07703	0.738552	1.44994	-0.166248	1.50682	-0.221288	0.063885	0.081875	1.10034	
0.935252	6.66351	5	0	0.84902	1.0241	0.428776	2.49895	0.499657	1.44266	-0.0148238	1.9466	1.32542	2.57043	0.350625	2.5937	2.38221	3.93024	2.89284	5.0935	0.355308	1.01913	0.513468	2.18581	0.124778	1.10987	0.0691123	2.07249	0.737459	1.44362	-0.164842	1.49559	-0.218925	0.057208	0.083579	1.09552	
0.953573	6.66199	5	0	0.854639	1.02903	0.427256	2.52153	0.498001	1.43917	-0.014138	1.95939	1.31186	2.56407	0.349638	2.60584	2.36658	3.92531	2.89615	5.09503	0.350356	1.006	0.513468	2.18581	0.111296	1.09579	0.067237	2.06795	0.736365	1.43729	-0.163435	1.48436	-0.216563	0.050531	0.085283	1.09071	
0.968907	6.66504	5	0	0.859079	1.00607	0.441141	2.50976	0.490773	1.4188	-0.0151687	1.94021	1.3029	2.53744	0.343979	2.5751	2.35655	3.90468	2.87812	5.06997	0.33235	0.996009	0.495708	2.16407	0.0909045	1.0806	0.0430023	2.05789	0.733126	1.44645	-0.170079	1.50314	-0.224928	0.063698	0.0757532	1.10434	
0.979431	6.66656	5	0	0.863519	0.983118	0.455025	2.49798	0.483544	1.39842	-0.0161995	1.92102	1.29393	2.51081	0.33832	2.54435	2.34652	3.88406	2.86009	5.04492	0.314343	0.986019	0.477948	2.14233	0.070513	1.06541	0.0187675	2.04784	0.729887	1.4556	-0.176723	1.52192	-0.233292	0.076865	0.0662235	1.11797	
0.98392	6.66351	5	0	0.867958	0.960163	0.468909	2.48621	0.476316	1.37805	-0.0172302	1.90184	1.28496	2.48417	0.332661	2.51361	2.33648	3.86344	2.84207	5.01986	0.296337	0.976029	0.460187	2.12059	0.0501215	1.05022	-0.00546725	2.03778	0.726647	1.46476	-0.183366	1.54069	-0.241656	0.090032	0.0566938	1.13161	
0.98318	6.67114	5	0	0.872398	0.937207	0.482794	2.47443	0.469087	1.35768	-0.018261	1.88265	1.276	2.45754	0.327002	2.48286	2.32645	3.84281	2.82404	4.99481	0.27833	0.966039	0.442427	2.09885	0.02973	1.03503	-0.029702	2.02772	0.723408	1.47391	-0.19001	1.55947	-0.250021	0.103199	0.047164	1.14524	
0.978445	6.67114	5	0	0.882825	0.938982	0.495186	2.48528	0.477204	1.35921	-0.0118038	1.89387	1.28568	2.45986	0.33629	2.49399	2.33442	3.84967	2.84216	5.00873	0.276055	0.965715	0.44881	2.10134	0.0288792	1.02706	-0.0251915	2.02477	0.725568	1.46781	-0.188573	1.56266	-0.247566	0.106734	0.0559977	1.14688	
0.970952	6.67572	5	0	0.893251	0.940756	0.507578	2.49612	0.48532	1.36074	-0.0053465	1.90509	1.29536	2.46219	0.345579	2.50512	2.34238	3.85654	2.86027	5.02266	0.27378	0.965392	0.455192	2.10382	0.0280285	1.01909	-0.020681	2.02183	0.727728	1.4617	-0.187136	1.56585	-0.245111	0.110269	0.0648315	1.14853	
0.961934	6.6803	5	0	0.903678	0.94253	0.51997	2.50696	0.493437	1.36228	0.00111075	1.91632	1.30504	2.46451	0.354868	2.51625	2.35034	3.8634	2.87839	5.03658	0.271506	0.965068	0.461575	2.10631	0.0271778	1.01111	-0.0161705	2.01888	0.729888	1.4556	-0.185699	1.56904	-0.242657	0.113804	0.0736653	1.15017	
0.952627	6.68793	5	0	0.914105	0.944305	0.532362	2.51781	0.501553	1.36381	0.007568	1.92754	1.31472	2.46684	0.364156	2.52738	2.35831	3.87026	2.89651	5.05051	0.269231	0.964745	0.467958	2.10879	0.026327	1.00314	-0.01166	2.01593	0.732048	1.44949	-0.184262	1.57223	-0.240202	0.117339	0.082499	1.15181	
0.944265	6.69708	5	0	0.92069	0.925696	0.5304	2.48665	0.495168	1.32481	0.00481375	1.89849	1.30244	2.42742	0.356802	2.49212	2.3545	3.85165	2.90151	5.04724	0.251292	0.954785	0.447303	2.10566	-0.00434025	0.98633	-0.0410775	2.02081	0.726638	1.45538	-0.186633	1.58618	-0.23766	0.131118	0.0773735	1.1663	
0.938035	6.70929	5	0	0.927275	0.907086	0.528437	2.4555	0.488784	1.2858	0.0020595	1.86944	1.29016	2.388	0.349448	2.45686	2.3507	3.83303	2.90652	5.04397	0.233353	0.944826	0.426649	2.10253	-0.0350075	0.969525	-0.070495	2.02569	0.721227	1.46126	-0.189003	1.60014	-0.235119	0.144898	0.072248	1.18078	
0.93415	6.71692	5	0	0.933859	0.888477	0.526474	2.42434	0.482399	1.2468	-0.00069475	1.84039	1.27788	2.34859	0.342095	2.4216	2.34689	3.81441	2.91152	5.0407	0.215413	0.934867	0.405995	2.0994	-0.0656747	0.952719	-0.0999125	2.03057	0.715816	1.46714	-0.191374	1.61409	-0.232577	0.158677	0.0671225	1.19527	
0.931917	6.72607	5	0	0.940444	0.869868	0.524512	2.39319	0.476014	1.2078	-0.003449	1.81135	1.2656	2.30917	0.334741	2.38633	2.34309	3.7958	2.91653	5.03743	0.197474	0.924907	0.38534	2.09626	-0.096342	0.935913	-0.12933	2.03545	0.710406	1.47302	-0.193744	1.62804	-0.230035	0.172457	0.061997	1.20975	
0.930607	6.73675	5	0	0.955705	0.868477	0.532209	2.39895	0.481844	1.19946	0.00266825	1.81615	1.27186	2.31368	0.344039	2.3974	2.35731	3.80459	2.93643	5.04659	0.197249	0.932274	0.391707	2.09875	-0.0954965	0.943846	-0.121659	2.0333	0.713665	1.48263	-0.189451	1.62317	-0.225042	0.189836	0.0686273	1.211	
0.929494	6.74744	5	0	0.970965	0.867085	0.539906	2.40472	0.487675	1.19112	0.0087855	1.82095	1.27813	2.31819	0.353336	2.40847	2.37152	3.81338	2.95632	5.05574	0.197024	0.93964	0.398073	2.10124	-0.094651	0.951778	-0.113987	2.03116	0.716924	1.49225	-0.185159	1.6183	-0.22005	0.207214	0.0752575	1.21224	
0.927849	6.75812	5	0	0.986226	0.865694	0.547603	2.41049	0.493505	1.18278	0.0149027	1.82575	1.28439	2.3227	0.362634	2.41954	2.38574	3.82218	2.97622	5.0649	0.196798	0.947007	0.40444	2.10372	-0.0938055	0.959711	-0.106315	2.02901	0.720183	1.50186	-0.180867	1.61342	-0.215057	0.224593	0.0818877	1.21348	
0.924945	6.76117	5	0	1.00149	0.864303	0.5553	2.41625	0.499335	1.17444	0.02102	1.83056	1.29065	2.32721	0.371932	2.4306	2.39996	3.83097	2.99612	5.07406	0.196573	0.954374	0.410806	2.10621	-0.09296	0.967643	-0.098644	2.02686	0.723442	1.51147	-0.176574	1.60855	-0.210064	0.241972	0.088518	1.21473	
0.920055	6.76422	5	0	0.991484	0.850835	0.564415	2.35381	0.495174	1.14554	0.013126	1.79402	1.27572	2.31763	0.354053	2.42514	2.39822	3.82607	2.97961	5.05531	0.194078	0.961423	0.401259	2.10248	-0.0955663	0.975009	-0.097325	2.02314	0.732129	1.52463	-0.173701	1.61495	-0.199038	0.25288	0.0873042	1.22482	
0.912931	6.77032	5	0	0.981482	0.837367	0.57353	2.29137	0.491014	1.11664	0.005232	1.75748	1.26079	2.30804	0.336174	2.41968	2.39649	3.82117	2.96311	5.03657	0.191584	0.968473	0.391712	2.09875	-0.0981725	0.982374	-0.096006	2.01941	0.740816	1.53778	-0.170827	1.62135	-0.188012	0.263788	0.0860905	1.23492	
0.904515	6.77338	5	0	0.971479	0.823898	0.582644	2.22892	0.486853	1.08774	-0.002662	1.72094	1.24587	2.29846	0.318296	2.41422	2.39475	3.81627	2.9466	5.01782	0.18909	0.975522	0.382165	2.09502	-0.100779	0.989739	-0.094687	2.01568	0.749502	1.55093	-0.167954	1.62776	-0.176987	0.274695	0.0848768	1.24501	
0.895932	6.77948	5	0	0.961476	0.81043	0.591759	2.16648	0.482693	1.05884	-0.010556	1.6844	1.23094	2.28887	0.300417	2.40876	2.39302	3.81138	2.9301	4.99908	0.186595	0.982572	0.372618	2.09129	-0.103385	0.997105	-0.093368	2.01195	0.758189	1.56409	-0.16508	1.63416	-0.165961	0.285603	0.083663	1.25511	
0.888308	6.78253	5	0	0.973251	0.808445	0.599148	2.1456	0.486206	1.04079	-0.00991025	1.67523	1.22853	2.28831	0.305055	2.4143	2.39961	3.82216	2.95163	5.01454	0.191357	0.975847	0.375799	2.09254	-0.0960255	0.986634	-0.0939103	2.00372	0.762525	1.55183	-0.166537	1.61649	-0.161114	0.282436	0.0813108	1.24177	
0.882768	6.78406	5	0	0.985027	0.80646	0.606537	2.12472	0.48972	1.02274	-0.0092645	1.66606	1.22612	2.28774	0.309694	2.41983	2.40621	3.83294	2.97316	5.03	0.196119	0.969122	0.378979	2.09378	-0.088666	0.976163	-0.0944525	1.99548	0.766861	1.53958	-0.167994	1.59883	-0.156267	0.279269	0.0789585	1.22843	
0.880438	6.78711	5	0	0.996803	0.804475	0.613926	2.10384	0.493233	1.00469	-0.00861875	1.65689	1.22371	2.28717	0.314333	2.42537	2.41281	3.84372	2.99469	5.04546	0.20088	0.962397	0.382159	2.09502	-0.0813065	0.965691	-0.0949948	1.98724	0.771198	1.52732	-0.16945	1.58117	-0.151419	0.276101	0.0766063	1.21509	
0.882443	6.78406	5	0	1.00858	0.80249	0.621315	2.08295	0.496747	0.98664	-0.007973	1.64773	1.2213	2.2866	0.318971	2.4309	2.41941	3.8545	3.01622	5.06092	0.205642	0.955672	0.38534	2.09626	-0.073947	0.95522	-0.095537	1.979	0.775534	1.51507	-0.170907	1.5635	-0.146572	0.272934	0.074254	1.20175	
0.889322	6.78863	5	0	1.00771	0.794491	0.593792	2.08759	0.473676	0.954666	-0.0262843	1.63352	1.20827	2.28653	0.314046	2.45415	2.41837	3.86728	3.021	5.09118	0.204582	0.965402	0.388763	2.11732	-0.0826102	0.969376	-0.0899537	1.99255	0.78098	1.52801	-0.162761	1.5768	-0.133123	0.277113	0.0810307	1.21592	
0.899889	6.78863	5	0	1.00685	0.786493	0.566269	2.09222	0.450604	0.922693	-0.0445955	1.61931	1.19524	2.28647	0.309121	2.4774	2.41732	3.88006	3.02577	5.12143	0.203522	0.975132	0.392185	2.13837	-0.0912735	0.983533	-0.0843705	2.0061	0.786425	1.54094	-0.154614	1.59009	-0.119675	0.281292	0.0878075	1.23009	
0.912646	6.78558	5	0	1.00599	0.778494	0.538747	2.09686	0.427532	0.890719	-0.0629067	1.6051	1.18222	2.28641	0.304197	2.50065	2.41627	3.89285	3.03055	5.15169	0.202463	0.984862	0.395608	2.15943	-0.0999368	0.997689	-0.0787873	2.01964	0.791871	1.55388	-0.146468	1.60338	-0.106226	0.28547	0.0945843	1.24427	
0.926093	6.78711	5	0	1.00513	0.770495	0.511224	2.10149	0.404461	0.858746	-0.081218	1.5909	1.16919	2.28634	0.299272	2.52389	2.41522	3.90563	3.03532	5.18194	0.201403	0.994592	0.39903	2.18048	-0.1086	1.01185	-0.073204	2.03319	0.797317	1.56682	-0.138322	1.61667	-0.092777	0.289649	0.101361	1.25844	
0.93873	6.77948	5	0	1.01429	0.775926	0.50682	2.12306	0.397815	0.84525	-0.0828637	1.60287	1.16778	2.28299	0.308545	2.53505	2.42809	3.91845	3.07542	5.2005	0.206773	0.992892	0.405401	2.18299	-0.099091	1.00563	-0.069245	2.022	0.804934	1.5642	-0.1331	1.59465	-0.092777	0.289649	0.102929	1.24067	
0.949058	6.77338	5	0	1.02345	0.781358	0.502416	2.14464	0.391168	0.831754	-0.0845095	1.61483	1.16636	2.27963	0.317819	2.5462	2.44096	3.93126	3.11551	5.21905	0.212144	0.991192	0.411773	2.18549	-0.089582	0.999418	-0.065286	2.01081	0.81255	1.56158	-0.127878	1.57262	-0.092777	0.289649	0.104497	1.2229	
0.955578	6.76727	5	0	1.03262	0.786789	0.498011	2.16621	0.384522	0.818258	-0.0861553	1.6268	1.16494	2.27628	0.327092	2.55736	2.45383	3.94408	3.1556	5.23761	0.217514	0.989491	0.418145	2.188	-0.080073	0.993205	-0.061327	1.99962	0.820167	1.55897	-0.122656	1.55059	-0.092777	0.289649	0.106064	1.20514	
0.956836	6.76269	5	0	1.04178	0.79222	0.493607	2.18779	0.377875	0.804762	-0.087801	1.63877	1.16352	2.27292	0.336365	2.56851	2.4667	3.95689	3.19569	5.25616	0.222885	0.987791	0.424516	2.1905	-0.070564	0.986991	-0.057368	1.98843	0.827784	1.55635	-0.117434	1.52856	-0.092777	0.289649	0.107632	1.18737	
0.952721	6.75201	5	0	1.04919	0.813143	0.497363	2.22288	0.370692	0.825062	-0.0897548	1.66626	1.16567	2.3037	0.348629	2.6182	2.4729	3.99853	3.19691	5.30795	0.232116	1.00895	0.44865	2.21489	-0.052045	1.01753	-0.0403345	2.00889	0.84307	1.57948	-0.10351	1.54015	-0.075539	0.304392	0.117497	1.19953	
0.94466	6.74286	5	0	1.05659	0.834067	0.501118	2.25798	0.363509	0.845362	-0.0917085	1.69375	1.16782	2.33449	0.360893	2.66788	2.47911	4.04018	3.19812	5.35974	0.241346	1.03011	0.472784	2.23927	-0.033526	1.04806	-0.023301	2.02936	0.858356	1.60262	-0.089586	1.55174	-0.058301	0.319135	0.127362	1.21169	
0.934167	6.73675	5	0	1.064	0.85499	0.504873	2.29307	0.356326	0.865662	-0.0936623	1.72124	1.16997	2.36527	0.373158	2.71756	2.48532	4.08182	3.19933	5.41153	0.250577	1.05127	0.496919	2.26365	-0.015007	1.0786	-0.0062675	2.04982	0.873641	1.62575	-0.075662	1.56333	-0.041063	0.333878	0.137227	1.22385	
0.922755	6.72912	5	0	1.07141	0.875913	0.508629	2.32816	0.349143	0.885962	-0.095616	1.74873	1.17212	2.39605	0.385422	2.76724	2.49153	4.12347	3.20055	5.46332	0.259808	1.07243	0.521053	2.28803	0.003512	1.10913	0.010766	2.07028	0.888927	1.64889	-0.061738	1.57492	-0.023825	0.348621	0.147092	1.23601	
0.911935	6.7215	5	0	1.07095	0.887696	0.525496	2.31714	0.354113	0.896119	-0.0885165	1.75066	1.17693	2.39721	0.392739	2.76536	2.50444	4.13647	3.21236	5.46315	0.269145	1.06633	0.525801	2.28493	0.0130742	1.10288	0.0187058	2.04784	0.890012	1.63633	-0.0661193	1.5509	-0.0152662	0.345635	0.145581	1.22025	
0.90322	6.71387	5	0	1.07048	0.899479	0.542363	2.30612	0.359084	0.906277	-0.081417	1.75259	1.18175	2.39837	0.400056	2.76348	2.51734	4.14946	3.22417	5.46297	0.278481	1.06023	0.530549	2.28182	0.0226365	1.09664	0.0266455	2.0254	0.891096	1.62377	-0.0705005	1.52688	-0.0067075	0.342649	0.14407	1.20449	
0.898116	6.70013	5	0	1.07002	0.911261	0.559229	2.2951	0.364055	0.916435	-0.0743175	1.75452	1.18656	2.39953	0.407372	2.76159	2.53025	4.16246	3.23599	5.4628	0.287817	1.05413	0.535297	2.27872	0.0321987	1.09039	0.0345852	2.00297	0.892181	1.61122	-0.0748817	1.50287	0.00185125	0.339662	0.142559	1.18873	
0.897221	6.69556	5	0	1.06956	0.923044	0.576096	2.28408	0.369025	0.926592	-0.067218	1.75645	1.19138	2.40068	0.414689	2.75971	2.54315	4.17546	3.2478	5.46262	0.297154	1.04803	0.540045	2.27562	0.041761	1.08414	0.042525	1.98053	0.893266	1.59866	-0.079263	1.47885	0.01041	0.336676	0.141048	1.17297	
0.899404	6.69403	5	0	1.07781	0.952214	0.580594	2.30808	0.368837	0.95136	-0.0644675	1.78539	1.20386	2.40976	0.431989	2.78619	2.55641	4.19753	3.26778	5.49501	0.308325	1.05709	0.556208	2.29196	0.0551972	1.09821	0.0558847	1.99193	0.897643	1.60528	-0.0691657	1.48671	0.022834	0.354673	0.147349	1.18187	
0.903341	6.68182	5	0	1.08606	0.981383	0.585092	2.33209	0.368649	0.976127	-0.061717	1.81434	1.21635	2.41885	0.44929	2.81266	2.56967	4.2196	3.28776	5.5274	0.319495	1.06616	0.572372	2.30829	0.0686335	1.11228	0.0692445	2.00333	0.90202	1.61189	-0.0590685	1.49457	0.035258	0.372671	0.15365	1.19078	
0.907705	6.67724	5	0	1.09431	1.01055	0.58959	2.3561	0.368461	1.00089	-0.0589665	1.84328	1.22883	2.42793	0.466591	2.83914	2.58292	4.24167	3.30774	5.55979	0.330666	1.07523	0.588535	2.32463	0.0820697	1.12634	0.0826042	2.01473	0.906397	1.61851	-0.0489713	1.50244	0.047682	0.390668	0.159951	1.19968	
0.911172	6.67267	5	0	1.10256	1.03972	0.594088	2.3801	0.368273	1.02566	-0.056216	1.87222	1.24131	2.43701	0.483891	2.86561	2.59618	4.26375	3.32771	5.59218	0.341837	1.0843	0.604698	2.34097	0.095506	1.14041	0.095964	2.02613	0.910774	1.62513	-0.038874	1.5103	0.060106	0.408666	0.166252	1.20859	
0.912415	6.66199	5	0	1.11395	1.04963	0.596572	2.37308	0.365996	1.01594	-0.0538455	1.87287	1.23378	2.41394	0.486246	2.84952	2.6085	4.25878	3.33785	5.59697	0.335224	1.07588	0.604462	2.32094	0.0881667	1.11951	0.0910867	2.00058	0.899846	1.61806	-0.0565787	1.52394	0.063876	0.419298	0.1531	1.21904	
0.91011	6.66046	5	0	1.12534	1.05953	0.599056	2.36606	0.363719	1.00621	-0.051475	1.87352	1.22625	2.39087	0.488602	2.83342	2.62081	4.25381	3.34798	5.60175	0.328611	1.06747	0.604227	2.30091	0.0808275	1.09861	0.0862095	1.97502	0.888918	1.61099	-0.0742835	1.53757	0.067646	0.429929	0.139949	1.2295	
0.903416	6.64825	5	0	1.13673	1.06943	0.601541	2.35904	0.361441	0.996487	-0.0491045	1.87418	1.21871	2.3678	0.490957	2.81733	2.63313	4.24884	3.35812	5.60654	0.321998	1.05906	0.603992	2.28088	0.0734883	1.0777	0.0813322	1.94947	0.87799	1.60392	-0.0919882	1.55121	0.071416	0.440561	0.126797	1.23996	
0.893578	6.64825	5	0	1.14811	1.07933	0.604025	2.35202	0.359164	0.986762	-0.046734	1.87483	1.21117	2.34474	0.493312	2.80124	2.64545	4.24388	3.36825	5.61132	0.315385	1.05065	0.603756	2.26085	0.066149	1.0568	0.076455	1.92392	0.867062	1.59685	-0.109693	1.56485	0.075186	0.451193	0.113645	1.25041	
0.882403	6.64062	5	0	1.16086	1.08549	0.608517	2.37612	0.358132	0.989677	-0.040286	1.88604	1.21031	2.33242	0.506682	2.80123	2.65352	4.25094	3.38016	5.61116	0.32162	1.04658	0.610063	2.25337	0.066149	1.0568	0.0855025	1.91801	0.865973	1.59993	-0.110645	1.56754	0.0801645	0.458434	0.109716	1.25484	
0.871697	6.64215	5	0	1.17361	1.09165	0.613009	2.40021	0.357101	0.992592	-0.033838	1.89725	1.20944	2.3201	0.520053	2.80122	2.6616	4.258	3.39207	5.61099	0.327854	1.0425	0.61637	2.24589	0.066149	1.0568	0.09455	1.9121	0.864884	1.603	-0.111598	1.57023	0.085143	0.465675	0.105788	1.25927	
0.863265	6.63452	5	0	1.18636	1.09781	0.617502	2.42431	0.35607	0.995508	-0.02739	1.90847	1.20857	2.30779	0.533424	2.80121	2.66968	4.26506	3.40398	5.61083	0.334089	1.03843	0.622676	2.23841	0.066149	1.0568	0.103597	1.90618	0.863795	1.60608	-0.11255	1.57292	0.0901215	0.472916	0.10186	1.2637	
0.858915	6.62689	5	0	1.19911	1.10397	0.621994	2.4484	0.355038	0.998423	-0.020942	1.91968	1.20771	2.29548	0.546794	2.80121	2.67776	4.27211	3.41589	5.61066	0.340323	1.03435	0.628983	2.23093	0.066149	1.0568	0.112645	1.90027	0.862706	1.60916	-0.113502	1.57561	0.0951	0.480157	0.097931	1.26813	
0.860452	6.62994	5	0	1.19036	1.08652	0.633405	2.39775	0.347799	0.97854	-0.0216685	1.88494	1.18781	2.24868	0.534753	2.75975	2.66902	4.24702	3.39603	5.5554	0.328925	1.03272	0.600104	2.21965	0.050111	1.0502	0.08817	1.91053	0.855075	1.62125	-0.116828	1.59229	0.082874	0.493399	0.0957188	1.26771	
0.868833	6.62536	5	0	1.1816	1.06907	0.644817	2.34709	0.34056	0.958658	-0.022395	1.85021	1.16791	2.20189	0.522711	2.7183	2.66028	4.22193	3.37616	5.50014	0.317526	1.03109	0.571225	2.20837	0.034073	1.0436	0.063695	1.92079	0.847444	1.63334	-0.120153	1.60896	0.070648	0.506641	0.0935065	1.2673	
0.882467	6.62384	5	0	1.17285	1.05163	0.656228	2.29644	0.33332	0.938775	-0.0231215	1.81548	1.14802	2.15509	0.51067	2.67685	2.65154	4.19684	3.3563	5.44488	0.306127	1.02946	0.542347	2.19709	0.018035	1.037	0.03922	1.93105	0.839813	1.64543	-0.123479	1.62563	0.058422	0.519883	0.0912942	1.26688	
0.899284	6.61926	5	0	1.16409	1.03418	0.667639	2.24579	0.326081	0.918893	-0.023848	1.78074	1.12812	2.1083	0.498629	2.63539	2.64281	4.17174	3.33644	5.38961	0.294729	1.02782	0.513468	2.18581	0.001997	1.0304	0.014745	1.94131	0.832182	1.65752	-0.126805	1.6423	0.046196	0.533125	0.089082	1.26646	
0.917216	6.61621	5	0	1.17113	1.03537	0.670635	2.24652	0.329791	0.916469	-0.0187483	1.78839	1.12581	2.09281	0.508979	2.63442	2.6488	4.16476	3.34657	5.39432	0.289341	1.02953	0.521412	2.18396	0.00330525	1.02671	0.0121062	1.94877	0.834362	1.65136	-0.122014	1.64332	0.044922	0.526079	0.0838027	1.26805	
0.934194	6.61468	5	0	1.17817	1.03655	0.67363	2.24725	0.333502	0.914044	-0.0136485	1.79604	1.1235	2.07733	0.519328	2.63344	2.65479	4.15777	3.35671	5.39902	0.283953	1.03124	0.529356	2.18212	0.0046135	1.02301	0.0094675	1.95622	0.836542	1.6452	-0.117224	1.64434	0.043648	0.519033	0.0785235	1.26964	
0.948149	6.60705	5	0	1.18521	1.03773	0.676625	2.24799	0.337212	0.91162	-0.00854875	1.80369	1.1212	2.06185	0.529678	2.63246	2.66078	4.15078	3.36684	5.40372	0.278565	1.03294	0.537299	2.18027	0.00592175	1.01931	0.00682875	1.96368	0.838722	1.63904	-0.112434	1.64536	0.042374	0.511988	0.0732442	1.27122	
0.957012	6.5979	5	0	1.19225	1.03892	0.679621	2.24872	0.340922	0.909196	-0.003449	1.81135	1.11889	2.04637	0.540027	2.63148	2.66677	4.14379	3.37698	5.40843	0.273177	1.03465	0.545243	2.17842	0.00723	1.01561	0.00419	1.97114	0.840902	1.63288	-0.107643	1.64638	0.0411	0.504942	0.067965	1.27281	
0.958769	6.5979	5	0	1.18436	1.02963	0.661457	2.26328	0.323197	0.902933	-0.0176815	1.80747	1.10106	2.06014	0.528019	2.66541	2.65621	4.15377	3.37176	5.42318	0.271875	1.05185	0.539307	2.21583	0.0028355	1.03841	0.01277	2.0058	0.848539	1.64923	-0.0927453	1.66992	0.0485522	0.515838	0.0769455	1.28746	
0.953234	6.5918	5	0	1.17646	1.02034	0.643292	2.27785	0.305473	0.89667	-0.031914	1.80359	1.08323	2.07391	0.516012	2.69935	2.64564	4.16375	3.36654	5.43794	0.270574	1.06905	0.53337	2.25323	-0.001559	1.0612	0.02135	2.04046	0.856176	1.66558	-0.0778475	1.69347	0.0560045	0.526734	0.085926	1.3021	
0.942456	6.58569	5	0	1.16856	1.01105	0.625128	2.29241	0.287748	0.890407	-0.0461465	1.79971	1.06541	2.08768	0.504004	2.73328	2.63507	4.17373	3.36132	5.4527	0.269273	1.08625	0.527434	2.29063	-0.0059535	1.08399	0.02993	2.07513	0.863813	1.68193	-0.0629497	1.71701	0.0634568	0.53763	0.0949065	1.31675	
0.928621	6.58569	5	0	1.16066	1.00176	0.606963	2.30697	0.270023	0.884144	-0.060379	1.79583	1.04758	2.10145	0.491996	2.76722	2.6245	4.1837	3.35609	5.46746	0.267971	1.10345	0.521498	2.32804	-0.010348	1.10679	0.03851	2.10979	0.87145	1.69828	-0.048052	1.74056	0.070909	0.548526	0.103887	1.3314	
0.91391	6.58569	5	0	1.16418	1.00235	0.599516	2.32802	0.267972	0.889941	-0.058672	1.8057	1.04855	2.09869	0.498337	2.77761	2.62766	4.18471	3.36952	5.48523	0.271921	1.09905	0.531002	2.32183	-0.005571	1.10366	0.047567	2.10387	0.873633	1.68262	-0.045662	1.7265	0.083149	0.535269	0.100682	1.32043	
0.900509	6.58569	5	0	1.1677	1.00294	0.59207	2.34906	0.265921	0.895738	-0.056965	1.81556	1.04953	2.09593	0.504678	2.78801	2.63082	4.18572	3.38295	5.503	0.275872	1.09465	0.540506	2.31562	-0.000794	1.10054	0.056624	2.09795	0.875817	1.66695	-0.043272	1.71244	0.095389	0.522011	0.097478	1.30946	
0.890602	6.59485	5	0	1.17121	1.00353	0.584623	2.37011	0.263869	0.901536	-0.055258	1.82543	1.05051	2.09317	0.511018	2.7984	2.63399	4.18673	3.39637	5.52077	0.279822	1.09025	0.550009	2.30941	0.003983	1.09742	0.065681	2.09203	0.878	1.65129	-0.040882	1.69837	0.107629	0.508754	0.0942735	1.29849	
0.886348	6.5979	5	0	1.17473	1.00411	0.577176	2.39116	0.261818	0.907333	-0.053551	1.83529	1.05148	2.09042	0.517359	2.8088	2.63715	4.18774	3.4098	5.53855	0.283772	1.08585	0.559513	2.3032	0.00876	1.0943	0.074738	2.08612	0.880184	1.63563	-0.038492	1.68432	0.119869	0.495497	0.091069	1.28753	
0.888369	6.60248	5	0	1.17121	1.00353	0.56424	2.41853	0.248057	0.914095	-0.069431	1.84347	1.03271	2.10692	0.510973	2.83629	2.62832	4.20273	3.40116	5.55179	0.287857	1.10139	0.564495	2.32014	0.0147502	1.11895	0.0841173	2.1089	0.887837	1.65199	-0.0302992	1.69772	0.11994	0.505973	0.0982072	1.29405	
0.894869	6.61468	5	0	1.1677	1.00294	0.551303	2.44591	0.234296	0.920858	-0.085311	1.85165	1.01394	2.12343	0.504587	2.86379	2.6195	4.21773	3.39253	5.56504	0.291942	1.11692	0.569476	2.33707	0.0207405	1.14359	0.0934965	2.13168	0.895491	1.66836	-0.0221065	1.71112	0.120011	0.516449	0.105346	1.30058	
0.903842	6.61621	5	0	1.16418	1.00235	0.538366	2.47329	0.220536	0.92762	-0.101191	1.85983	0.995168	2.13994	0.4982	2.89128	2.61067	4.23273	3.38389	5.57828	0.296026	1.13246	0.574458	2.35401	0.0267308	1.16824	0.102876	2.15446	0.903145	1.68472	-0.0139138	1.72452	0.120082	0.526925	0.112484	1.30712	
0.91328	6.61774	5	0	1.16066	1.00176	0.52543	2.50067	0.206775	0.934383	-0.117071	1.86801	0.976397	2.15645	0.491814	2.91878	2.60185	4.24772	3.37526	5.59153	0.300111	1.148	0.579439	2.37095	0.032721	1.19288	0.112255	2.17724	0.910798	1.70108	-0.005721	1.73793	0.120153	0.537401	0.119622	1.31364	
0.921176	6.62231	5	0	1.16285	1.0061	0.538606	2.50019	0.213346	0.94794	-0.108963	1.8671	0.974559	2.14705	0.496164	2.91594	2.60185	4.24772	3.38203	5.59472	0.302627	1.14089	0.58099	2.36657	0.0331977	1.18113	0.115703	2.15762	0.907512	1.68186	-0.00863625	1.71691	0.127492	0.527342	0.115057	1.29984	
0.925523	6.62079	5	0	1.16504	1.01045	0.551782	2.4997	0.219916	0.961498	-0.100856	1.8662	0.972721	2.13765	0.500514	2.9131	2.60185	4.24772	3.3888	5.59791	0.305144	1.13378	0.582541	2.36218	0.0336745	1.16938	0.119151	2.13801	0.904227	1.66265	-0.0115515	1.6959	0.134831	0.517284	0.110492	1.28604	
0.924314	6.62689	5	0	1.16722	1.0148	0.564959	2.49922	0.226487	0.975055	-0.0927478	1.8653	0.970883	2.12824	0.504865	2.91025	2.60185	4.24772	3.39557	5.60109	0.30766	1.12667	0.584092	2.3578	0.0341513	1.15763	0.1226	2.1184	0.900942	1.64343	-0.0144668	1.67489	0.142171	0.507225	0.105926	1.27224	
0.916167	6.63147	5	0	1.16941	1.01914	0.578135	2.49874	0.233058	0.988612	-0.08464	1.8644	0.969045	2.11884	0.509215	2.90741	2.60185	4.24772	3.40234	5.60428	0.310176	1.11955	0.585643	2.35342	0.034628	1.14588	0.126048	2.09878	0.897656	1.62422	-0.017382	1.65388	0.14951	0.497166	0.101361	1.25844	
0.902737	6.63299	5	0	1.16979	1.03915	0.580362	2.51085	0.23757	1.00804	-0.0893655	1.8851	0.971428	2.1194	0.518564	2.91885	2.60043	4.25173	3.41742	5.62879	0.308735	1.11685	0.592071	2.35596	0.0337855	1.13787	0.124718	2.10254	0.902016	1.61189	-0.0140183	1.65168	0.150795	0.504222	0.105789	1.25927	
0.886598	6.64062	5	0	1.17017	1.05916	0.582589	2.52296	0.242083	1.02747	-0.094091	1.90579	0.973811	2.11997	0.527913	2.93028	2.59902	4.25573	3.43249	5.65329	0.307293	1.11415	0.598499	2.3585	0.032943	1.12985	0.123387	2.1063	0.906377	1.59957	-0.0106545	1.64948	0.152081	0.511278	0.110217	1.26011	
0.870324	6.64215	5	0	1.17055	1.07917	0.584816	2.53507	0.246595	1.0469	-0.0988165	1.92649	0.976194	2.12053	0.537261	2.94172	2.5976	4.25974	3.44757	5.6778	0.305851	1.11145	0.604926	2.36104	0.0321005	1.12184	0.122057	2.11006	0.910737	1.58725	-0.00729075	1.64728	0.153367	0.518335	0.114645	1.26094	
0.856489	6.64673	5	0	1.17093	1.09918	0.587043	2.54718	0.251107	1.06633	-0.103542	1.94719	0.978577	2.12109	0.54661	2.95315	2.59618	4.26375	3.46265	5.7023	0.30441	1.10875	0.611354	2.36358	0.031258	1.11382	0.120727	2.11382	0.915097	1.57493	-0.003927	1.64508	0.154652	0.525391	0.119073	1.26177	
0.847667	6.64673	5	0	1.1736	1.09165	0.587803	2.53583	0.25317	1.0605	-0.102195	1.9287	0.96494	2.09406	0.537958	2.92085	2.59661	4.23273	3.46289	5.67922	0.296223	1.07778	0.60124	2.31979	0.014471	1.06795	0.112861	2.06712	0.898696	1.55495	-0.0188735	1.62165	0.147166	0.514499	0.105659	1.24635	
0.846429	6.64978	5	0	1.17626	1.08411	0.588562	2.52448	0.255232	1.05467	-0.100848	1.91021	0.951303	2.06703	0.529305	2.88855	2.59705	4.20171	3.46313	5.65614	0.288037	1.04682	0.591125	2.27601	-0.002316	1.02209	0.104995	2.02042	0.882294	1.53496	-0.03382	1.59822	0.13968	0.503607	0.0922445	1.23093	
0.854027	6.6513	5	0	1.17893	1.07657	0.589321	2.51313	0.257294	1.04885	-0.0995002	1.89172	0.937666	2.04	0.520652	2.85625	2.59748	4.1707	3.46337	5.63306	0.27985	1.01585	0.581011	2.23222	-0.019103	0.97622	0.0971298	1.97372	0.865892	1.51498	-0.0487665	1.57479	0.132193	0.492716	0.0788303	1.21551	
0.868501	6.6513	5	0	1.1816	1.06904	0.590081	2.50177	0.259357	1.04302	-0.098153	1.87323	0.924029	2.01297	0.512	2.82394	2.59791	4.13968	3.46362	5.60997	0.271663	0.98488	0.570897	2.18843	-0.03589	0.930352	0.089264	1.92702	0.849491	1.495	-0.063713	1.55136	0.124707	0.481824	0.065416	1.20009	
0.887409	6.64978	5	0	1.18379	1.0734	0.604279	2.51695	0.270262	1.06058	-0.089695	1.8787	0.926406	2.01352	0.513667	2.82868	2.59019	4.14166	3.45694	5.59529	0.274996	0.975462	0.567561	2.17723	-0.0272235	0.916204	0.093223	1.91584	0.847322	1.50113	-0.063713	1.55136	0.121005	0.481616	0.0632075	1.19968	
0.908308	6.65436	5	0	1.18597	1.07776	0.618477	2.53212	0.281167	1.07814	-0.081237	1.88418	0.928783	2.01408	0.515333	2.83342	2.58248	4.14364	3.45026	5.58061	0.278328	0.966044	0.564224	2.16603	-0.018557	0.902057	0.097182	1.90465	0.845152	1.50726	-0.063713	1.55136	0.117303	0.481408	0.060999	1.19926	
0.928756	6.6513	5	0	1.18816	1.08213	0.632675	2.54729	0.292072	1.09569	-0.072779	1.88965	0.931161	2.01464	0.517	2.83815	2.57476	4.14561	3.44359	5.56593	0.28166	0.956626	0.560887	2.15484	-0.0098905	0.887909	0.101141	1.89346	0.842982	1.5134	-0.063713	1.55136	0.113601	0.4812	0.0587905	1.19885	
0.946311	6.64673	5	0	1.19035	1.08649	0.646873	2.56246	0.302977	1.11325	-0.064321	1.89513	0.933538	2.01519	0.518667	2.84289	2.56704	4.14759	3.43691	5.55124	0.284993	0.947208	0.557551	2.14364	-0.001224	0.873761	0.1051	1.88227	0.840813	1.51953	-0.063713	1.55136	0.109899	0.480992	0.056582	1.19844	
0.958531	6.6452	5	0	1.1895	1.07836	0.65263	2.53696	0.302364	1.10691	-0.0643455	1.87316	0.923692	1.99216	0.511667	2.81548	2.56322	4.12866	3.43024	5.53661	0.271963	0.950297	0.54167	2.14734	-0.0224025	0.881949	0.0889008	1.89859	0.841925	1.54479	-0.067015	1.58256	0.111182	0.488038	0.0505948	1.21536	
0.963055	6.64215	5	0	1.18864	1.07023	0.658387	2.51146	0.301752	1.10057	-0.06437	1.85119	0.913846	1.96913	0.504668	2.78807	2.55941	4.10973	3.42357	5.52198	0.258933	0.953385	0.525788	2.15104	-0.043581	0.890136	0.0727015	1.91491	0.843036	1.57004	-0.070317	1.61375	0.112464	0.495084	0.0446075	1.23228	
0.959706	6.6391	5	0	1.18778	1.0621	0.664144	2.48597	0.30114	1.09423	-0.0643945	1.82922	0.904	1.94609	0.497669	2.76067	2.55559	4.09081	3.4169	5.50734	0.245903	0.956474	0.509907	2.15473	-0.0647595	0.898324	0.0565023	1.93122	0.844148	1.5953	-0.073619	1.64495	0.113747	0.50213	0.0386203	1.2492	
0.950653	6.6452	5	0	1.18693	1.05397	0.669901	2.46047	0.300527	1.08789	-0.064419	1.80725	0.894154	1.92306	0.490669	2.73326	2.55177	4.07188	3.41023	5.49271	0.232873	0.959563	0.494026	2.15843	-0.085938	0.906512	0.040303	1.94754	0.84526	1.62056	-0.076921	1.67615	0.115029	0.509176	0.032633	1.26612	
0.938181	6.64062	5	0	1.19884	1.05198	0.665656	2.46324	0.316212	1.10014	-0.0555998	1.81907	0.913081	1.94227	0.494005	2.74269	2.55633	4.0689	3.42884	5.50716	0.233705	0.957212	0.500425	2.16093	-0.079035	0.907652	0.0467	1.9491	0.851806	1.62102	-0.077878	1.67885	0.104991	0.484253	0.0238135	1.26445	
0.924574	6.6452	5	0	1.21075	1.04999	0.661412	2.46602	0.331897	1.11238	-0.0467805	1.83089	0.932007	1.96148	0.497342	2.75212	2.56089	4.06592	3.44745	5.5216	0.234536	0.954861	0.506823	2.16343	-0.072132	0.908793	0.053097	1.95066	0.858351	1.62147	-0.078835	1.68155	0.094953	0.459329	0.014994	1.26277	
0.912119	6.64825	5	0	1.22265	1.048	0.657167	2.46879	0.347583	1.12463	-0.0379613	1.84271	0.950934	1.98069	0.500679	2.76155	2.56544	4.06295	3.46605	5.53604	0.235368	0.95251	0.513221	2.16593	-0.065229	0.909933	0.059494	1.95222	0.864897	1.62193	-0.079792	1.68426	0.084915	0.434406	0.0061745	1.2611	
0.903099	6.65283	5	0	1.23456	1.04601	0.652922	2.47156	0.363268	1.13688	-0.029142	1.85453	0.969861	1.9999	0.504015	2.77099	2.57	4.05997	3.48467	5.55049	0.2362	0.950159	0.51962	2.16843	-0.058326	0.911073	0.065891	1.95378	0.871443	1.62239	-0.080749	1.68696	0.074877	0.409483	-0.002645	1.25942	
0.899787	6.65588	5	0	1.22711	1.02486	0.637206	2.43318	0.35935	1.12368	-0.035284	1.8278	0.957327	2.02076	0.477679	2.77948	2.55741	4.05598	3.46759	5.55403	0.232038	0.96192	0.510266	2.18457	-0.0661415	0.93316	0.0585015	1.98449	0.87144	1.65087	-0.081223	1.7248	0.0539577	0.404854	-0.0125517	1.28078	
0.90327	6.66351	5	0	1.21966	1.0037	0.62149	2.39479	0.355432	1.11049	-0.041426	1.80108	0.944792	2.04162	0.451344	2.78798	2.54482	4.052	3.45051	5.55758	0.227877	0.973682	0.500912	2.20071	-0.073957	0.955247	0.051112	2.0152	0.871437	1.67935	-0.081697	1.76264	0.0330385	0.400224	-0.0224585	1.30213	
0.91246	6.66809	5	0	1.21221	0.982548	0.605775	2.3564	0.351514	1.09729	-0.047568	1.77435	0.932258	2.06248	0.425008	2.79648	2.53223	4.04801	3.43343	5.56113	0.223716	0.985444	0.491558	2.21685	-0.0817725	0.977334	0.0437225	2.04591	0.871434	1.70783	-0.082171	1.80048	0.0121192	0.395595	-0.0323652	1.32349	
0.926041	6.67267	5	0	1.20476	0.961393	0.590059	2.31802	0.347596	1.0841	-0.05371	1.74763	0.919724	2.08334	0.398672	2.80498	2.51964	4.04403	3.41635	5.56468	0.219554	0.997205	0.482204	2.23299	-0.089588	0.999421	0.036333	2.07661	0.871431	1.73631	-0.082645	1.83832	-0.0088	0.390966	-0.042272	1.34484	
0.942694	6.67572	5	0	1.20829	0.961977	0.584595	2.32428	0.36124	1.10221	-0.0492765	1.76447	0.937561	2.12048	0.402301	2.82295	2.5329	4.06593	3.42805	5.58753	0.231289	1.01129	0.498325	2.24928	-0.07193	1.02197	0.0561007	2.08968	0.876884	1.74942	-0.0788042	1.84209	-0.0235768	0.379768	-0.0466705	1.34399	
0.961101	6.67572	5	0	1.21181	0.962561	0.579132	2.33055	0.374883	1.12033	-0.044843	1.78132	0.955399	2.15762	0.40593	2.84092	2.54616	4.08784	3.43975	5.61038	0.243024	1.02537	0.514445	2.26557	-0.054272	1.04452	0.0758685	2.10274	0.882337	1.76252	-0.0749635	1.84585	-0.0383535	0.368571	-0.051069	1.34314	
0.979946	6.67877	5	0	1.21533	0.963144	0.573668	2.33681	0.388526	1.13845	-0.0404095	1.79817	0.973236	2.19475	0.409559	2.85889	2.55942	4.10974	3.45145	5.63324	0.254759	1.03945	0.530566	2.28185	-0.036614	1.06707	0.0956363	2.1158	0.887791	1.77563	-0.0711227	1.84962	-0.0531302	0.357374	-0.0554675	1.34229	
0.99791	6.6864	5	0	1.21886	0.963728	0.568204	2.34307	0.40217	1.15656	-0.035976	1.81502	0.991073	2.23189	0.413188	2.87686	2.57268	4.13165	3.46314	5.65609	0.266494	1.05353	0.546686	2.29814	-0.018956	1.08962	0.115404	2.12887	0.893244	1.78873	-0.067282	1.85338	-0.067907	0.346176	-0.059866	1.34144	
1.01368	6.69861	5	0	1.20298	0.976992	0.545875	2.36036	0.398797	1.19044	-0.0498255	1.83946	1.00921	2.29066	0.415772	2.90726	2.57256	4.17167	3.45258	5.68596	0.280661	1.08798	0.558296	2.33774	0.004251	1.1489	0.128289	2.18145	0.905257	1.81194	-0.0547937	1.87668	-0.0727022	0.359728	-0.055356	1.35527	
1.02637	6.71539	5	0	1.1871	0.990255	0.523546	2.37764	0.395424	1.22431	-0.063675	1.86391	1.02734	2.34942	0.418355	2.93767	2.57245	4.21169	3.44201	5.71583	0.294828	1.12244	0.569906	2.37734	0.027458	1.20818	0.141174	2.23404	0.917271	1.83515	-0.0423055	1.89998	-0.0774975	0.373279	-0.050846	1.36909	
1.03615	6.74286	5	0	1.17122	1.00352	0.501217	2.39493	0.39205	1.25819	-0.0775245	1.88836	1.04547	2.40819	0.420938	2.96807	2.57233	4.25171	3.43144	5.7457	0.308995	1.15689	0.581516	2.41694	0.050665	1.26745	0.154059	2.28662	0.929284	1.85837	-0.0298172	1.92328	-0.0822927	0.386831	-0.046336	1.38292	
1.04331	6.7749	5	0	1.15534	1.01678	0.478888	2.41222	0.388677	1.29206	-0.091374	1.9128	1.06361	2.46696	0.423522	2.99847	2.57222	4.29173	3.42087	5.77557	0.323162	1.19134	0.593126	2.45655	0.073872	1.32673	0.166944	2.3392	0.941297	1.88158	-0.017329	1.94658	-0.087088	0.400383	-0.041826	1.39674	
1.04816	6.80847	5	0	1.15886	1.01737	0.476406	2.41923	0.399183	1.31929	-0.0883295	1.92624	1.08646	2.49085	0.426212	2.99087	2.57253	4.30077	3.41423	5.76076	0.331456	1.19506	0.596238	2.44775	0.0934635	1.33411	0.17473	2.33704	0.943501	1.87535	-0.0206865	1.93408	-0.0897053	0.376076	-0.0446233	1.37808	
1.05099	6.84357	5	0	1.16238	1.01796	0.473923	2.42625	0.409689	1.34652	-0.085285	1.93969	1.10932	2.51474	0.428903	2.98326	2.57285	4.30982	3.40759	5.74596	0.33975	1.19878	0.599349	2.43896	0.113055	1.34149	0.182516	2.33487	0.945704	1.86912	-0.024044	1.92157	-0.0923225	0.35177	-0.0474205	1.35941	
1.05211	6.88171	5	0	1.1659	1.01855	0.471441	2.43326	0.420194	1.37376	-0.0822405	1.95313	1.13217	2.53864	0.431594	2.97566	2.57316	4.31886	3.40095	5.73116	0.348043	1.2025	0.602461	2.43016	0.132647	1.34887	0.190303	2.3327	0.947908	1.86289	-0.0274015	1.90907	-0.0949398	0.327464	-0.0502177	1.34075	
1.05182	6.91681	5	0	1.16941	1.01914	0.468959	2.44028	0.4307	1.40099	-0.079196	1.96657	1.15502	2.56253	0.434284	2.96806	2.57348	4.32791	3.39431	5.71636	0.356337	1.20623	0.605573	2.42137	0.152238	1.35625	0.198089	2.33053	0.950112	1.85667	-0.030759	1.89656	-0.097557	0.303157	-0.053015	1.32208	
1.05042	6.94733	5	0	1.14701	1.01935	0.43981	2.44046	0.422755	1.4153	-0.0977787	1.96769	1.16772	2.59328	0.419619	2.9718	2.57695	4.338	3.37052	5.71663	0.366448	1.22528	0.599248	2.42888	0.166059	1.39066	0.201563	2.36044	0.954491	1.86338	-0.021614	1.90739	-0.110929	0.309298	-0.0547277	1.32692	
1.04819	6.97479	5	0	1.12461	1.01955	0.41066	2.44065	0.414809	1.42961	-0.116362	1.9688	1.18042	2.62403	0.404954	2.97554	2.58041	4.34808	3.34673	5.7169	0.376558	1.24433	0.592923	2.43639	0.17988	1.42508	0.205037	2.39036	0.95887	1.8701	-0.012469	1.91821	-0.1243	0.315439	-0.0564405	1.33176	
1.04528	6.99463	5	0	1.10221	1.01976	0.38151	2.44084	0.406863	1.44393	-0.134944	1.96992	1.19312	2.65478	0.39029	2.97928	2.58388	4.35817	3.32294	5.71717	0.386668	1.26338	0.586599	2.4439	0.1937	1.45949	0.208512	2.42027	0.963248	1.87682	-0.003324	1.92904	-0.137672	0.321581	-0.0581533	1.3366	
1.04176	7.01599	5	0	1.07981	1.01996	0.352361	2.44103	0.398918	1.45824	-0.153527	1.97104	1.20582	2.68553	0.375625	2.98302	2.58735	4.36826	3.29916	5.71744	0.396779	1.28244	0.580274	2.45142	0.207521	1.49391	0.211986	2.45019	0.967627	1.88354	0.005821	1.93987	-0.151043	0.327722	-0.059866	1.34144	
1.03772	7.0343	5	0	1.07546	1.01128	0.344257	2.42752	0.40761	1.46626	-0.156901	1.97324	1.22173	2.69256	0.377691	2.95836	2.59825	4.36732	3.31793	5.70898	0.403898	1.27595	0.581725	2.43696	0.221217	1.47625	0.216033	2.43875	0.957784	1.86366	-0.00283625	1.92034	-0.158502	0.306687	-0.0645007	1.31476	
1.03323	7.04193	5	0	1.0711	1.0026	0.336154	2.41401	0.416303	1.47429	-0.160276	1.97545	1.23764	2.69958	0.379758	2.93369	2.60915	4.36638	3.33671	5.70053	0.411016	1.26946	0.583176	2.4225	0.234912	1.45859	0.22008	2.42732	0.947941	1.84378	-0.0114935	1.90081	-0.165962	0.285652	-0.0691355	1.28807	
1.02837	7.05414	5	0	1.06675	0.993922	0.32805	2.4005	0.424996	1.48231	-0.16365	1.97765	1.25355	2.70661	0.381825	2.90903	2.62005	4.36545	3.35549	5.69207	0.418134	1.26298	0.584627	2.40805	0.248608	1.44093	0.224127	2.41588	0.938098	1.8239	-0.0201508	1.88127	-0.173421	0.264618	-0.0737703	1.26139	
1.02323	7.06024	5	0	1.06239	0.985243	0.319947	2.38698	0.433688	1.49033	-0.167024	1.97985	1.26947	2.71364	0.383891	2.88437	2.63096	4.36451	3.37426	5.68362	0.425253	1.25649	0.586078	2.39359	0.262304	1.42327	0.228174	2.40444	0.928255	1.80402	-0.028808	1.86174	-0.18088	0.243583	-0.078405	1.2347	
1.01788	7.05871	5	0	1.04499	0.950707	0.29349	2.33487	0.429036	1.45462	-0.177455	1.93618	1.26038	2.70215	0.357749	2.85506	2.62085	4.34332	3.35588	5.65757	0.421754	1.24594	0.57148	2.37283	0.248775	1.40893	0.223067	2.399	0.918422	1.78424	-0.0355385	1.85149	-0.200446	0.225406	-0.0925405	1.22174	
1.01239	7.05871	5	0	1.02759	0.91617	0.267033	2.28275	0.424384	1.4189	-0.187887	1.8925	1.2513	2.69066	0.331607	2.82575	2.61073	4.32214	3.3375	5.63153	0.418254	1.23538	0.556881	2.35207	0.235246	1.3946	0.21796	2.39355	0.908588	1.76445	-0.042269	1.84124	-0.220012	0.20723	-0.106676	1.20877	
1.00686	7.05566	5	0	1.01019	0.881633	0.240575	2.23063	0.419733	1.38318	-0.198319	1.84883	1.24222	2.67917	0.305466	2.79644	2.60062	4.30096	3.31911	5.60548	0.414754	1.22483	0.542283	2.33131	0.221717	1.38026	0.212853	2.38811	0.898755	1.74467	-0.0489995	1.83099	-0.239579	0.189053	-0.120812	1.19581	
1.00137	7.05414	5	0	0.992794	0.847097	0.214118	2.17851	0.415081	1.34746	-0.20875	1.80515	1.23314	2.66767	0.279324	2.76713	2.59051	4.27977	3.30073	5.57944	0.411255	1.21428	0.527684	2.31056	0.208188	1.36592	0.207746	2.38266	0.888921	1.72489	-0.05573	1.82073	-0.259145	0.170876	-0.134947	1.18284	
0.996012	7.04498	5	0	0.989349	0.815119	0.210424	2.14384	0.423441	1.32384	-0.207771	1.78049	1.24198	2.65755	0.276388	2.72871	2.58845	4.26573	3.30096	5.55655	0.408597	1.20138	0.522591	2.28372	0.207833	1.34594	0.201572	2.36042	0.880184	1.69265	-0.063427	1.78408	-0.28244	0.132248	-0.14446	1.15038	
0.990866	7.03125	5	0	0.985904	0.783141	0.20673	2.10917	0.4318	1.30021	-0.206792	1.75584	1.25082	2.64742	0.273452	2.6903	2.58639	4.25169	3.3012	5.53366	0.405938	1.18847	0.517498	2.25688	0.207478	1.32596	0.195398	2.33817	0.871446	1.66041	-0.071124	1.74742	-0.305735	0.093619	-0.153972	1.11791	
0.986022	7.02515	5	0	0.982459	0.751163	0.203037	2.0745	0.44016	1.27658	-0.205813	1.73118	1.25966	2.6373	0.270515	2.65188	2.58433	4.23764	3.30143	5.51077	0.40328	1.17556	0.512405	2.23005	0.207122	1.30598	0.189223	2.31593	0.862708	1.62818	-0.078821	1.71076	-0.329029	0.0549905	-0.163485	1.08545	
0.981566	7.01446	5	0	0.979014	0.719185	0.199343	2.03983	0.44852	1.25296	-0.204834	1.70652	1.2685	2.62717	0.267579	2.61346	2.58227	4.2236	3.30166	5.48789	0.400622	1.16266	0.507312	2.20321	0.206767	1.28599	0.183049	2.29369	0.853971	1.59594	-0.086518	1.6741	-0.352324	0.016362	-0.172997	1.05298	
0.977587	7.00836	5	0	0.971602	0.667356	0.182378	1.97996	0.447514	1.21518	-0.214706	1.65437	1.27334	2.62836	0.23728	2.58745	2.56587	4.20057	3.2699	5.45589	0.397727	1.15724	0.492872	2.19261	0.198446	1.28855	0.174734	2.28747	0.847431	1.59549	-0.0956215	1.67797	-0.364434	0.008967	-0.179548	1.05176	
0.974171	7.00226	5	0	0.96419	0.615528	0.165412	1.92008	0.446509	1.1774	-0.224578	1.60223	1.27818	2.62955	0.206981	2.56144	2.54947	4.17755	3.23813	5.42389	0.394832	1.15182	0.478433	2.18201	0.190125	1.2911	0.166418	2.28126	0.840891	1.59503	-0.104725	1.68185	-0.376545	0.001572	-0.186099	1.05053	
0.971415	7.00073	5	0	0.956777	0.563699	0.148447	1.86021	0.445503	1.13961	-0.23445	1.55008	1.28302	2.63074	0.176681	2.53542	2.53307	4.15453	3.20637	5.39189	0.391936	1.1464	0.463994	2.1714	0.181803	1.29366	0.158103	2.27505	0.834351	1.59457	-0.113828	1.68572	-0.388656	-0.005823	-0.192649	1.0493	
0.969415	6.99768	5	0	0.949365	0.51187	0.131482	1.80034	0.444498	1.10183	-0.244322	1.49793	1.28785	2.63192	0.146382	2.50941	2.51667	4.1315	3.1746	5.35989	0.389041	1.14098	0.449554	2.1608	0.173482	1.29621	0.149788	2.26884	0.827811	1.59412	-0.122932	1.68959	-0.400766	-0.013218	-0.1992	1.04807	
0.96827	6.99463	5	0	0.947602	0.496111	0.130968	1.79284	0.460706	1.10478	-0.236641	1.49075	1.32572	2.64427	0.158523	2.48438	2.52056	4.11063	3.18168	5.31782	0.396141	1.13452	0.444584	2.14407	0.186632	1.2905	0.151922	2.25291	0.832159	1.58183	-0.125827	1.66866	-0.403397	-0.036937	-0.202864	1.03214	
0.968077	6.9931	5	0	0.945839	0.480352	0.130454	1.78533	0.476915	1.10774	-0.22896	1.48357	1.36358	2.65661	0.170664	2.45935	2.52445	4.08976	3.18876	5.27576	0.403241	1.12805	0.439613	2.12734	0.199781	1.28479	0.154056	2.23698	0.836507	1.56954	-0.128721	1.64774	-0.406029	-0.060656	-0.206527	1.0162	
0.968933	6.98395	5	0	0.944076	0.464593	0.129939	1.77783	0.493123	1.11069	-0.221278	1.47639	1.40144	2.66895	0.182804	2.43431	2.52833	4.06889	3.19584	5.2337	0.410341	1.12159	0.434642	2.11061	0.21293	1.27908	0.15619	2.22106	0.840856	1.55725	-0.131615	1.62682	-0.40866	-0.084375	-0.210191	1.00027	
0.970937	6.97632	5	0	0.942313	0.448834	0.129425	1.77033	0.509331	1.11364	-0.213597	1.46921	1.4393	2.6813	0.194945	2.40928	2.53222	4.04801	3.20292	5.19164	0.417441	1.11512	0.429672	2.09388	0.22608	1.27337	0.158324	2.20513	0.845204	1.54497	-0.13451	1.6059	-0.411291	-0.108094	-0.213855	0.984336	
0.974186	6.96564	5	0	0.930133	0.431505	0.122037	1.74649	0.514526	1.09896	-0.218395	1.44647	1.44747	2.69567	0.178513	2.40012	2.50678	4.03115	3.15625	5.15896	0.418891	1.11783	0.418463	2.0846	0.224268	1.28899	0.152436	2.21189	0.850668	1.55794	-0.130189	1.61551	-0.410123	-0.111396	-0.205127	0.985958	
0.978496	6.95343	5	0	0.917953	0.414175	0.114649	1.72265	0.519721	1.08428	-0.223193	1.42373	1.45563	2.71005	0.162081	2.39096	2.48133	4.01429	3.10957	5.12628	0.420342	1.12053	0.407254	2.07532	0.222456	1.30461	0.146548	2.21864	0.856133	1.57091	-0.125868	1.62512	-0.408954	-0.114698	-0.1964	0.987581	
0.982708	6.95038	5	0	0.905773	0.396846	0.107261	1.69881	0.524916	1.06959	-0.22799	1.40099	1.4638	2.72443	0.145649	2.3818	2.45589	3.99743	3.0629	5.0936	0.421792	1.12324	0.396046	2.06604	0.220644	1.32023	0.140661	2.22539	0.861598	1.58388	-0.121547	1.63473	-0.407786	-0.118	-0.187672	0.989204	
0.985453	6.9397	5	0	0.893593	0.379516	0.099873	1.67497	0.530111	1.05491	-0.232788	1.37824	1.47196	2.73881	0.129217	2.37264	2.43045	3.98057	3.01622	5.06092	0.423242	1.12594	0.384837	2.05676	0.218832	1.33584	0.134773	2.23214	0.867062	1.59685	-0.117226	1.64434	-0.406618	-0.121302	-0.178944	0.990826	
0.985359	6.93054	5	0	0.895769	0.383706	0.102109	1.68652	0.538458	1.07205	-0.22203	1.38414	1.49381	2.75972	0.140696	2.36798	2.43985	3.98355	3.02621	5.0655	0.432414	1.12726	0.397444	2.05184	0.236371	1.33885	0.141996	2.22161	0.867053	1.5874	-0.115343	1.62447	-0.400673	-0.127724	-0.17473	0.978917	
0.981057	6.91833	5	0	0.897944	0.387896	0.104346	1.69808	0.546806	1.08919	-0.211272	1.39004	1.51567	2.78063	0.152174	2.36332	2.44925	3.98652	3.03619	5.07009	0.441586	1.12858	0.410052	2.04692	0.25391	1.34185	0.14922	2.21109	0.867044	1.57795	-0.113459	1.60459	-0.394728	-0.134147	-0.170516	0.967008	
0.971177	6.91681	5	0	0.90012	0.392085	0.106582	1.70963	0.555154	1.10633	-0.200513	1.39593	1.53752	2.80154	0.163653	2.35866	2.45865	3.9895	3.04618	5.07467	0.450759	1.1299	0.422659	2.042	0.271448	1.34485	0.156444	2.20056	0.867036	1.56849	-0.111576	1.58472	-0.388782	-0.14057	-0.166302	0.955098	
0.954348	6.91681	5	0	0.902296	0.396275	0.108818	1.72119	0.563501	1.12346	-0.189755	1.40183	1.55937	2.82244	0.175131	2.35399	2.46805	3.99247	3.05616	5.07925	0.459931	1.13122	0.435266	2.03708	0.288987	1.34786	0.163667	2.19003	0.867027	1.55904	-0.109693	1.56485	-0.382837	-0.146992	-0.162088	0.943189	
0.929325	6.92749	5	0	0.890611	0.398298	0.083654	1.72982	0.557452	1.11611	-0.199523	1.39313	1.55835	2.82531	0.17809	2.3549	2.46525	4.00038	3.05941	5.09196	0.461384	1.13393	0.433738	2.0414	0.287654	1.35162	0.166885	2.19083	0.870301	1.55927	-0.106345	1.56266	-0.371887	-0.136363	-0.15906	0.941211	
0.897661	6.93817	5	0	0.878926	0.400322	0.05849	1.73845	0.551403	1.10876	-0.20929	1.38444	1.55734	2.82818	0.181049	2.35581	2.46245	4.0083	3.06267	5.10468	0.462837	1.13664	0.43221	2.04572	0.286321	1.35539	0.170103	2.19163	0.873574	1.55949	-0.102997	1.56047	-0.360937	-0.125734	-0.156033	0.939233	
0.863681	6.94885	5	0	0.867242	0.402345	0.033326	1.74708	0.545354	1.1014	-0.219058	1.37574	1.55632	2.83105	0.184008	2.35671	2.45965	4.01621	3.06592	5.11739	0.46429	1.13935	0.430683	2.05003	0.284988	1.35916	0.173321	2.19243	0.876848	1.55971	-0.099649	1.55829	-0.349987	-0.115105	-0.153006	0.937254	
0.831829	6.96411	5	0	0.855557	0.404369	0.008162	1.75571	0.539305	1.09405	-0.228826	1.36705	1.55531	2.83392	0.186967	2.35762	2.45685	4.02412	3.06917	5.1301	0.465743	1.14206	0.429155	2.05435	0.283655	1.36292	0.176539	2.19323	0.880122	1.55994	-0.096301	1.5561	-0.339037	-0.104476	-0.149978	0.935276	
0.806548	6.97174	5	0	0.854266	0.408018	0.0134623	1.74964	0.538676	1.08769	-0.221778	1.3689	1.56283	2.82018	0.199425	2.34096	2.46767	4.02315	3.091	5.12327	0.469952	1.13016	0.433596	2.03156	0.292975	1.33659	0.172224	2.17576	0.876799	1.53145	-0.101172	1.52626	-0.336923	-0.131248	-0.15854	0.913477	
0.79228	6.97784	5	0	0.852974	0.411667	0.0187625	1.74358	0.538046	1.08133	-0.21473	1.37075	1.57036	2.80645	0.211883	2.32431	2.47848	4.02217	3.11283	5.11644	0.47416	1.11827	0.438037	2.00876	0.302294	1.31025	0.167909	2.15829	0.873476	1.50297	-0.106044	1.49643	-0.33481	-0.158021	-0.167102	0.891678	
0.793463	6.97937	5	0	0.851683	0.415316	0.0240628	1.73751	0.537416	1.07496	-0.207681	1.37261	1.57788	2.79272	0.224341	2.30765	2.4893	4.02119	3.13466	5.1096	0.478368	1.10638	0.442478	1.98597	0.311613	1.28391	0.163595	2.14082	0.870153	1.47448	-0.110916	1.46659	-0.332697	-0.184793	-0.175665	0.869879	
0.81219	6.97937	5	0	0.850392	0.418965	0.029363	1.73145	0.536787	1.0686	-0.200633	1.37446	1.58541	2.77898	0.236799	2.29099	2.50011	4.02021	3.15649	5.10277	0.482577	1.09448	0.446919	1.96318	0.320933	1.25757	0.15928	2.12334	0.86683	1.446	-0.115787	1.43676	-0.330583	-0.211565	-0.184227	0.84808	
0.844837	6.98242	5	0	0.84435	0.425719	0.0211597	1.73681	0.529706	1.0642	-0.208306	1.38163	1.58482	2.78819	0.237152	2.29928	2.50011	4.02021	3.13637	5.10477	0.490313	1.09308	0.445254	1.95765	0.324451	1.25816	0.168935	2.12572	0.864642	1.44272	-0.119579	1.44747	-0.337931	-0.221953	-0.182045	0.848477	
0.886922	6.97632	5	0	0.838307	0.432474	0.0129565	1.74217	0.522626	1.05981	-0.215979	1.38879	1.58423	2.79739	0.237504	2.30757	2.50011	4.02021	3.11624	5.10678	0.498049	1.09168	0.443588	1.95212	0.327968	1.25875	0.17859	2.1281	0.862455	1.43945	-0.123371	1.45819	-0.34528	-0.232342	-0.179863	0.848874	
0.933966	6.97021	5	0	0.832265	0.439229	0.00475325	1.74753	0.515545	1.05541	-0.223652	1.39596	1.58364	2.80659	0.237856	2.31585	2.50011	4.02021	3.09612	5.10878	0.505784	1.09028	0.441922	1.94659	0.331486	1.25934	0.188244	2.13048	0.860267	1.43617	-0.127164	1.46891	-0.352628	-0.24273	-0.177681	0.849271	
0.981487	6.96258	5	0	0.826223	0.445983	-0.00345	1.75289	0.508465	1.05102	-0.231325	1.40313	1.58305	2.81579	0.238209	2.32414	2.50011	4.02021	3.076	5.11079	0.51352	1.08889	0.440257	1.94106	0.335004	1.25993	0.197899	2.13286	0.85808	1.4329	-0.130956	1.47963	-0.359976	-0.253119	-0.175499	0.849668	
1.025	6.95495	5	0	0.828806	0.438684	0.00714725	1.74076	0.513648	1.03637	-0.217587	1.40062	1.60245	2.79871	0.249014	2.30289	2.50083	3.99845	3.06453	5.07758	0.517944	1.06956	0.436622	1.91044	0.338584	1.22876	0.202105	2.1012	0.847125	1.40722	-0.132945	1.45624	-0.374646	-0.273812	-0.18523	0.83782	
1.06004	6.94122	5	0	0.831389	0.431385	0.0177445	1.72864	0.518831	1.02172	-0.20385	1.39811	1.62184	2.78163	0.259819	2.28164	2.50155	3.9767	3.05306	5.04437	0.522369	1.05023	0.432987	1.87983	0.342164	1.19758	0.206311	2.06953	0.83617	1.38154	-0.134935	1.43285	-0.389317	-0.294505	-0.194961	0.825971	
1.0821	6.93817	5	0	0.833971	0.424085	0.0283417	1.71651	0.524014	1.00708	-0.190112	1.3956	1.64123	2.76454	0.270623	2.26039	2.50226	3.95494	3.04159	5.01116	0.526793	1.03091	0.429352	1.84921	0.345743	1.16641	0.210516	2.03786	0.825215	1.35586	-0.136924	1.40946	-0.403987	-0.315198	-0.204692	0.814123	
1.08688	6.93664	5	0	0.836554	0.416786	0.038939	1.70438	0.529197	0.992428	-0.176374	1.39309	1.66063	2.74746	0.281428	2.23914	2.50298	3.93318	3.03012	4.97795	0.531217	1.01158	0.425717	1.81859	0.349323	1.13523	0.214722	2.00619	0.81426	1.33018	-0.138913	1.38607	-0.418658	-0.335891	-0.214423	0.802275	
1.07415	6.93512	5	0	0.829174	0.396413	0.0344827	1.68135	0.52871	0.961314	-0.17179	1.37286	1.66986	2.70625	0.283475	2.18697	2.48868	3.88507	2.99892	4.90308	0.524549	0.975923	0.407327	1.75858	0.341865	1.0828	0.200323	1.95812	0.798866	1.27966	-0.154872	1.33719	-0.432411	-0.379574	-0.225844	0.762625	
1.04813	6.93207	5	0	0.821794	0.376039	0.0300265	1.65831	0.528223	0.9302	-0.167206	1.35264	1.6791	2.66504	0.285521	2.1348	2.47438	3.83696	2.96772	4.82821	0.51788	0.940267	0.388936	1.69856	0.334406	1.03036	0.185924	1.91005	0.783471	1.22914	-0.170832	1.28832	-0.446164	-0.423257	-0.237264	0.722974	
1.01325	6.93817	5	0	0.814415	0.355665	0.0255703	1.63528	0.527735	0.899085	-0.162621	1.33241	1.68834	2.62382	0.287568	2.08262	2.46007	3.78885	2.93652	4.75334	0.511212	0.904612	0.370545	1.63855	0.326948	0.977922	0.171525	1.86198	0.768077	1.17863	-0.186791	1.23944	-0.459918	-0.466939	-0.248684	0.683323	
0.973942	6.9397	5	0	0.807035	0.335292	0.021114	1.61224	0.527248	0.867971	-0.158037	1.31219	1.69758	2.58261	0.289615	2.03045	2.44577	3.74074	2.90532	4.67847	0.504544	0.868956	0.352155	1.57854	0.31949	0.925485	0.157126	1.81391	0.752683	1.12811	-0.20275	1.19057	-0.473671	-0.510622	-0.260105	0.643673	
0.934633	6.94275	5	0	0.795209	0.27628	0.00604575	1.52182	0.52046	0.790021	-0.16499	1.2376	1.67693	2.49813	0.261214	1.9263	2.40504	3.65091	2.82839	4.56338	0.483042	0.814438	0.312738	1.48803	0.291774	0.847252	0.130146	1.72364	0.724067	1.04094	-0.229986	1.09528	-0.503332	-0.580602	-0.280324	0.570747	
0.899756	6.9458	5	0	0.783382	0.217268	-0.0090225	1.43139	0.513671	0.71207	-0.171942	1.16302	1.65629	2.41365	0.232813	1.82215	2.36431	3.56108	2.75146	4.44829	0.461539	0.75992	0.27332	1.39752	0.264058	0.769018	0.103167	1.63336	0.695452	0.953757	-0.257221	0.999989	-0.532992	-0.650582	-0.300542	0.497821	
0.873668	6.95343	5	0	0.771556	0.158256	-0.0240908	1.34097	0.506883	0.63412	-0.178895	1.08844	1.63564	2.32916	0.204412	1.718	2.32357	3.47125	2.67453	4.33319	0.440036	0.705402	0.233903	1.30702	0.236343	0.690784	0.0761875	1.54309	0.666836	0.866577	-0.284457	0.904699	-0.562652	-0.720562	-0.320761	0.424895	
0.858065	6.95343	5	0	0.75973	0.099244	-0.039159	1.25054	0.500094	0.556169	-0.185848	1.01385	1.61499	2.24468	0.176011	1.61385	2.28284	3.38141	2.59759	4.2181	0.418534	0.650884	0.194486	1.21651	0.208627	0.612551	0.049208	1.45282	0.63822	0.779398	-0.311692	0.809409	-0.592313	-0.790542	-0.34098	0.351969	
0.851249	6.95038	5	0	0.748897	0.0787048	-0.0460265	1.23464	0.49038	0.527194	-0.1927	0.997101	1.60671	2.23066	0.174333	1.60942	2.25806	3.37396	2.56833	4.21594	0.415617	0.645612	0.189667	1.21006	0.206433	0.608359	0.0473133	1.44843	0.633716	0.754987	-0.311427	0.78724	-0.599761	-0.810292	-0.346047	0.333913	
0.851305	6.9458	5	0	0.738063	0.0581655	-0.052894	1.21874	0.480666	0.49822	-0.199552	0.980348	1.59844	2.21664	0.172654	1.60499	2.23328	3.36651	2.53907	4.21378	0.412699	0.64034	0.184848	1.20361	0.20424	0.604167	0.0454185	1.44403	0.629212	0.730576	-0.311163	0.765071	-0.607209	-0.830043	-0.351114	0.315857	
0.856318	6.9397	5	0	0.72723	0.0376262	-0.0597615	1.20284	0.470951	0.469245	-0.206404	0.963595	1.59016	2.20262	0.170976	1.60057	2.2085	3.35906	2.50981	4.21163	0.409782	0.635069	0.180029	1.19716	0.202047	0.599974	0.0435237	1.43964	0.624708	0.706166	-0.310898	0.742902	-0.614658	-0.849793	-0.356181	0.297801	
0.864372	6.93512	5	0	0.716397	0.017087	-0.066629	1.18694	0.461237	0.44027	-0.213256	0.946842	1.58188	2.1886	0.169297	1.59614	2.18372	3.3516	2.48055	4.20947	0.406865	0.629797	0.17521	1.1907	0.199853	0.595782	0.041629	1.43524	0.620204	0.681755	-0.310633	0.720733	-0.622106	-0.869543	-0.361248	0.279745	
0.873551	6.92749	5	0	0.714599	0.001744	-0.0682735	1.16515	0.455881	0.415203	-0.210728	0.932484	1.57659	2.16624	0.174377	1.58178	2.1847	3.33917	2.49517	4.19991	0.409716	0.608233	0.179622	1.17823	0.194567	0.579584	0.039821	1.41114	0.606359	0.693077	-0.327438	0.739704	-0.631642	-0.873134	-0.379095	0.291407	
0.881957	6.91833	5	0	0.712802	-0.013599	-0.069918	1.14336	0.450526	0.390136	-0.208201	0.918126	1.57129	2.14388	0.179457	1.56742	2.18568	3.32674	2.5098	4.19035	0.412567	0.586669	0.184034	1.16576	0.189281	0.563385	0.038013	1.38703	0.592513	0.704399	-0.344244	0.758676	-0.641179	-0.876726	-0.396942	0.303069	
0.888496	6.91376	5	0	0.711005	-0.028942	-0.0715625	1.12157	0.445171	0.365069	-0.205674	0.903768	1.56599	2.12153	0.184538	1.55306	2.18666	3.31431	2.52442	4.1808	0.415418	0.565105	0.188447	1.15329	0.183995	0.547187	0.036205	1.36292	0.578668	0.715721	-0.36105	0.777647	-0.650716	-0.880317	-0.414788	0.31473	
0.89318	6.90307	5	0	0.709207	-0.044285	-0.073207	1.09978	0.439815	0.340002	-0.203146	0.88941	1.56069	2.09917	0.189618	1.53871	2.18764	3.30187	2.53905	4.17124	0.418269	0.543541	0.192859	1.14082	0.178709	0.530988	0.034397	1.33882	0.564823	0.727043	-0.377855	0.796619	-0.660252	-0.883908	-0.432635	0.326392	
0.896106	6.89697	5	0	0.716977	-0.0356	-0.0738257	1.11034	0.441833	0.334299	-0.18865	0.899007	1.55726	2.10141	0.212424	1.55697	2.20214	3.31896	2.57817	4.199	0.425764	0.549383	0.216614	1.1541	0.190071	0.540405	0.0445765	1.34901	0.568111	0.736282	-0.374055	0.800134	-0.650883	-0.89003	-0.428327	0.327134	
0.897371	6.88629	5	0	0.724746	-0.026915	-0.0744445	1.12089	0.443851	0.328597	-0.174154	0.908604	1.55382	2.10366	0.23523	1.57524	2.21663	3.33605	2.61729	4.22675	0.433258	0.555225	0.240368	1.16738	0.201433	0.549822	0.054756	1.35921	0.5714	0.745521	-0.370254	0.80365	-0.641514	-0.896151	-0.424019	0.327875	
0.89707	6.87866	5	0	0.732515	-0.01823	-0.0750632	1.13145	0.445869	0.322894	-0.159659	0.9182	1.55039	2.1059	0.258036	1.5935	2.23113	3.35314	2.65642	4.25451	0.440753	0.561066	0.264122	1.18066	0.212796	0.55924	0.0649355	1.36941	0.574688	0.754761	-0.366453	0.807165	-0.632146	-0.902273	-0.419711	0.328616	
0.895298	6.87408	5	0	0.740285	-0.009545	-0.075682	1.14201	0.447887	0.317191	-0.145163	0.927797	1.54696	2.10814	0.280842	1.61177	2.24562	3.37023	2.69554	4.28227	0.448248	0.566908	0.287877	1.19394	0.224158	0.568657	0.075115	1.3796	0.577977	0.764	-0.362653	0.810681	-0.622777	-0.908395	-0.415403	0.329358	
0.892154	6.86798	5	0	0.741553	-0.0131278	-0.0732842	1.11762	0.439825	0.291847	-0.138335	0.9085	1.52159	2.10541	0.267664	1.6398	2.24327	3.38657	2.7037	4.30196	0.446852	0.591145	0.290165	1.22781	0.22077	0.599033	0.0762195	1.41553	0.587902	0.800962	-0.352873	0.854487	-0.623579	-0.885751	-0.403679	0.36094	
0.887825	6.86798	5	0	0.74282	-0.0167105	-0.0708865	1.09323	0.431763	0.266503	-0.131506	0.889202	1.49623	2.10269	0.254487	1.66784	2.24092	3.4029	2.71187	4.32165	0.445456	0.615383	0.292453	1.26168	0.217381	0.629409	0.077324	1.45146	0.597827	0.837924	-0.343093	0.898292	-0.62438	-0.863107	-0.391954	0.392522	
0.882693	6.87408	5	0	0.744088	-0.0202932	-0.0684888	1.06884	0.423701	0.241159	-0.124678	0.869904	1.47086	2.09996	0.24131	1.69587	2.23857	3.41924	2.72004	4.34133	0.444061	0.63962	0.294741	1.29555	0.213993	0.659784	0.0784285	1.48738	0.607751	0.874886	-0.333314	0.942098	-0.625181	-0.840463	-0.38023	0.424105	
0.877159	6.88324	5	0	0.745356	-0.023876	-0.066091	1.04445	0.415639	0.215815	-0.11785	0.850607	1.4455	2.09723	0.228132	1.7239	2.23622	3.43557	2.7282	4.36102	0.442665	0.663858	0.297029	1.32942	0.210604	0.69016	0.079533	1.52331	0.617676	0.911848	-0.323534	0.985904	-0.625983	-0.817819	-0.368506	0.455687	
0.871627	6.88629	5	0	0.757111	0.00433875	-0.0557622	1.06815	0.42135	0.231747	-0.101102	0.875749	1.44543	2.11229	0.239891	1.75523	2.24626	3.45573	2.74623	4.38515	0.446021	0.681464	0.308401	1.34783	0.221568	0.711273	0.0858123	1.54469	0.628537	0.927729	-0.312522	1.00496	-0.626807	-0.795089	-0.358316	0.472324	
0.866499	6.89239	5	0	0.768867	0.0325535	-0.0454335	1.09185	0.427061	0.247679	-0.084355	0.900892	1.44536	2.12734	0.25165	1.78655	2.25631	3.47589	2.76426	4.40928	0.449378	0.69907	0.319773	1.36623	0.232532	0.732387	0.0920915	1.56607	0.639398	0.943611	-0.301509	1.02401	-0.627631	-0.772359	-0.348125	0.48896	
0.862179	6.8985	5	0	0.780622	0.0607683	-0.0351047	1.11554	0.432772	0.26361	-0.0676075	0.926035	1.44529	2.14239	0.26341	1.81788	2.26635	3.49605	2.78229	4.43341	0.452735	0.716676	0.331146	1.38464	0.243496	0.7535	0.0983708	1.58746	0.650259	0.959492	-0.290496	1.04306	-0.628456	-0.749629	-0.337934	0.505597	
0.859065	6.90918	5	0	0.792377	0.088983	-0.024776	1.13924	0.438483	0.279542	-0.05086	0.951177	1.44522	2.15744	0.275169	1.84921	2.27639	3.51621	2.80032	4.45754	0.456091	0.734282	0.342518	1.40304	0.25446	0.774613	0.10465	1.60884	0.66112	0.975373	-0.279484	1.06211	-0.62928	-0.726899	-0.327744	0.522233	
0.85738	6.92444	5	0	0.788661	0.130279	-0.0284685	1.18502	0.426376	0.313759	-0.0541773	0.989621	1.44262	2.1871	0.279159	1.90272	2.26954	3.53558	2.78052	4.48128	0.464654	0.757588	0.341579	1.43609	0.262388	0.814921	0.117191	1.65191	0.676405	1.00694	-0.26167	1.10531	-0.610006	-0.709792	-0.312497	0.557292	
0.857084	6.94122	5	0	0.784946	0.171575	-0.032161	1.2308	0.414269	0.347975	-0.0574945	1.02806	1.44002	2.21675	0.283149	1.95623	2.26269	3.55494	2.76072	4.50503	0.473217	0.780894	0.340641	1.46913	0.270316	0.855228	0.129731	1.69497	0.691689	1.03851	-0.243857	1.14851	-0.590732	-0.692686	-0.297249	0.592351	
0.858114	6.95801	5	0	0.78123	0.212872	-0.0358535	1.27658	0.402161	0.382192	-0.0608118	1.06651	1.43743	2.24641	0.287138	2.00974	2.25583	3.57431	2.74091	4.52878	0.481779	0.8042	0.339703	1.50218	0.278243	0.895536	0.142272	1.73803	0.706973	1.07008	-0.226043	1.1917	-0.571458	-0.675579	-0.282002	0.62741	
0.860409	6.97937	5	0	0.777514	0.254168	-0.039546	1.32236	0.390054	0.416409	-0.064129	1.10495	1.43483	2.27607	0.291128	2.06325	2.24898	3.59368	2.72111	4.55253	0.490342	0.827506	0.338764	1.53522	0.286171	0.935844	0.154813	1.7811	0.722258	1.10164	-0.208229	1.2349	-0.552184	-0.658473	-0.266755	0.662469	
0.863909	7.00531	5	0	0.784486	0.285903	-0.0357015	1.35576	0.396387	0.438678	-0.0517253	1.13547	1.4396	2.29237	0.302473	2.08689	2.25106	3.60724	2.72107	4.56338	0.496189	0.838181	0.343432	1.53217	0.296264	0.949245	0.157285	1.79379	0.727683	1.10505	-0.197248	1.23997	-0.545032	-0.658184	-0.254541	0.667147	
0.868551	7.02667	5	0	0.791458	0.317638	-0.031857	1.38917	0.402721	0.460947	-0.0393215	1.16598	1.44437	2.30868	0.313817	2.11054	2.25315	3.6208	2.72103	4.57424	0.502036	0.848857	0.3481	1.52912	0.306358	0.962646	0.159757	1.80648	0.733109	1.10845	-0.186268	1.24504	-0.53788	-0.657894	-0.242326	0.671825	
0.874272	7.05414	5	0	0.798429	0.349372	-0.0280125	1.42258	0.409054	0.483215	-0.0269178	1.1965	1.44914	2.32498	0.325162	2.13419	2.25523	3.63436	2.72098	4.58509	0.507884	0.859533	0.352768	1.52607	0.316451	0.976046	0.16223	1.81917	0.738535	1.11186	-0.175288	1.25011	-0.530729	-0.657604	-0.230112	0.676502	
0.880904	7.07092	5	0	0.805401	0.381107	-0.024168	1.45599	0.415387	0.505484	-0.014514	1.22701	1.45391	2.34129	0.336507	2.15783	2.25732	3.64792	2.72094	4.59595	0.513731	0.870208	0.357436	1.52302	0.326544	0.989447	0.164702	1.83186	0.74396	1.11526	-0.164307	1.25518	-0.523577	-0.657315	-0.217897	0.68118	
0.888136	7.08923	5	0	0.808462	0.424036	-0.0176192	1.50853	0.422646	0.549419	-0.00633325	1.28435	1.46889	2.36617	0.359233	2.20553	2.27391	3.67903	2.7454	4.64529	0.523135	0.891326	0.372176	1.55251	0.343255	1.01582	0.181189	1.86419	0.755942	1.12833	-0.149837	1.28671	-0.51239	-0.62729	-0.204959	0.703567	
0.895644	7.10449	5	0	0.811523	0.466966	-0.0110705	1.56108	0.429904	0.593354	0.0018475	1.34169	1.48386	2.39105	0.381958	2.25323	2.29051	3.71014	2.76986	4.69462	0.53254	0.912444	0.386916	1.582	0.359965	1.04219	0.197676	1.89652	0.767924	1.14139	-0.135367	1.31823	-0.501203	-0.597266	-0.192021	0.725955	
0.903107	7.11975	5	0	0.814583	0.509896	-0.00452175	1.61363	0.437163	0.637289	0.0100283	1.39902	1.49883	2.41593	0.404683	2.30093	2.3071	3.74126	2.79432	4.74396	0.541945	0.933562	0.401657	1.61149	0.376676	1.06856	0.214164	1.92884	0.779907	1.15446	-0.120897	1.34975	-0.490017	-0.567241	-0.179083	0.748342	
0.910203	7.13348	5	0	0.817644	0.552825	0.002027	1.66618	0.444421	0.681224	0.018209	1.45636	1.51381	2.44081	0.427409	2.34862	2.3237	3.77237	2.81878	4.7933	0.551349	0.95468	0.416397	1.64098	0.393387	1.09493	0.230651	1.96117	0.791889	1.16752	-0.106427	1.38128	-0.47883	-0.537216	-0.166145	0.770729	
0.916607	7.14874	5	0	0.81505	0.560157	0.007834	1.66758	0.442376	0.687003	0.0270887	1.46795	1.51247	2.42216	0.43471	2.34671	2.33305	3.77528	2.84357	4.79901	0.548422	0.949312	0.41472	1.63554	0.389426	1.07455	0.220989	1.95884	0.776782	1.18204	-0.114915	1.41978	-0.472525	-0.513828	-0.171002	0.797581	
0.922	7.1579	5	0	0.812455	0.567489	0.013641	1.66897	0.440331	0.692781	0.0359685	1.47954	1.51113	2.40351	0.44201	2.34479	2.3424	3.7782	2.86836	4.80472	0.545495	0.943944	0.413042	1.6301	0.385466	1.05417	0.211327	1.95651	0.761676	1.19657	-0.123403	1.45829	-0.46622	-0.49044	-0.175858	0.824433	
0.926055	7.164	5	0	0.809861	0.574821	0.019448	1.67037	0.438287	0.698559	0.0448482	1.49113	1.5098	2.38487	0.449311	2.34288	2.35175	3.78111	2.89316	4.81044	0.542569	0.938575	0.411365	1.62466	0.381505	1.03378	0.201665	1.95419	0.746569	1.21109	-0.131891	1.49679	-0.459915	-0.467051	-0.180715	0.851284	
0.928443	7.17468	5	0	0.807267	0.582153	0.025255	1.67176	0.436242	0.704338	0.053728	1.50272	1.50846	2.36622	0.456612	2.34097	2.3611	3.78403	2.91795	4.81615	0.539642	0.933207	0.409687	1.61922	0.377544	1.0134	0.192003	1.95186	0.731463	1.22561	-0.140379	1.5353	-0.45361	-0.443663	-0.185572	0.878136	
0.928831	7.17621	5	0	0.808127	0.590055	0.0226877	1.69684	0.438556	0.713944	0.0623587	1.52981	1.5099	2.36961	0.471015	2.36593	2.37846	3.79379	2.93941	4.84248	0.544871	0.938892	0.416226	1.6313	0.381948	1.022	0.191805	1.97217	0.730392	1.22864	-0.134612	1.54807	-0.457072	-0.433879	-0.18507	0.883284	
0.926886	7.18689	5	0	0.808987	0.597957	0.0201205	1.72192	0.44087	0.723551	0.0709895	1.5569	1.51135	2.373	0.485418	2.39089	2.39582	3.80355	2.96087	4.86881	0.5501	0.944578	0.422766	1.64338	0.386352	1.03059	0.191607	1.99248	0.729321	1.23166	-0.128846	1.56084	-0.460534	-0.424096	-0.184568	0.888432	
0.922275	7.18078	5	0	0.809848	0.605859	0.0175532	1.747	0.443185	0.733158	0.0796203	1.58399	1.51279	2.37639	0.499821	2.41585	2.41318	3.81331	2.98233	4.89514	0.55533	0.950263	0.429305	1.65546	0.390757	1.03919	0.19141	2.01279	0.72825	1.23469	-0.123079	1.57361	-0.463995	-0.414313	-0.184066	0.89358	
0.914666	7.17926	5	0	0.810708	0.613761	0.014986	1.77208	0.445499	0.742764	0.088251	1.61109	1.51424	2.37978	0.514224	2.44081	2.43053	3.82307	3.00379	4.92147	0.560559	0.955948	0.435844	1.66753	0.395161	1.04779	0.191212	2.0331	0.727179	1.23772	-0.117312	1.58638	-0.467457	-0.404529	-0.183564	0.898728	
0.903726	7.17773	5	0	0.803373	0.593193	0.01294	1.74223	0.440869	0.72357	0.0875085	1.59846	1.49871	2.36397	0.500545	2.43254	2.42844	3.80935	2.9989	4.90263	0.551544	0.974602	0.418764	1.68525	0.380184	1.06907	0.181896	2.05943	0.719694	1.26826	-0.122065	1.62893	-0.473235	-0.3882	-0.182409	0.921752	
0.889324	7.17773	5	0	0.796037	0.572625	0.010894	1.71238	0.436238	0.704376	0.086766	1.58583	1.48318	2.34815	0.486866	2.42427	2.42635	3.79564	2.99401	4.88378	0.542529	0.993256	0.401684	1.70296	0.365206	1.09036	0.172581	2.08575	0.712209	1.2988	-0.126818	1.67147	-0.479013	-0.37187	-0.181254	0.944777	
0.87286	7.18078	5	0	0.788702	0.552057	0.008848	1.68254	0.431608	0.685183	0.0860235	1.57321	1.46765	2.33234	0.473188	2.416	2.42426	3.78193	2.98912	4.86494	0.533514	1.01191	0.384604	1.72067	0.350229	1.11164	0.163266	2.11208	0.704723	1.32934	-0.131571	1.71402	-0.484791	-0.35554	-0.180099	0.967801	
0.856435	7.18231	5	0	0.781367	0.531489	0.006802	1.65269	0.426978	0.665989	0.085281	1.56058	1.45212	2.31653	0.459509	2.40773	2.42216	3.76822	2.98423	4.84609	0.524499	1.03056	0.367524	1.73838	0.335252	1.13292	0.15395	2.13841	0.697238	1.35988	-0.136324	1.75657	-0.490569	-0.339211	-0.178944	0.990826	
0.842154	7.17468	5	0	0.774888	0.549801	0.00953675	1.67167	0.436616	0.695277	0.0929055	1.59062	1.46654	2.35043	0.462249	2.43752	2.42774	3.79174	2.99414	4.86166	0.534726	1.04948	0.377374	1.7615	0.347087	1.16268	0.158804	2.16425	0.700519	1.37879	-0.133935	1.77168	-0.497516	-0.319576	-0.178797	1.00357	
0.832122	7.17163	5	0	0.768409	0.568113	0.0122715	1.69066	0.446254	0.724565	0.10053	1.62065	1.48097	2.38432	0.464989	2.46731	2.43331	3.81527	3.00405	4.87722	0.544954	1.06839	0.387223	1.78463	0.358923	1.19244	0.163658	2.1901	0.703799	1.3977	-0.131546	1.78679	-0.504464	-0.299941	-0.17865	1.01631	
0.828443	7.16705	5	0	0.761929	0.586424	0.0150062	1.70965	0.455893	0.753852	0.108155	1.65069	1.49539	2.41821	0.467728	2.4971	2.43888	3.8388	3.01396	4.89279	0.555181	1.08731	0.397073	1.80775	0.370758	1.2222	0.168513	2.21595	0.707079	1.41662	-0.129157	1.80191	-0.511412	-0.280307	-0.178502	1.02905	
0.833221	7.1579	5	0	0.75545	0.604736	0.017741	1.72863	0.465531	0.78314	0.115779	1.68073	1.50981	2.45211	0.470468	2.52689	2.44445	3.86232	3.02386	4.90836	0.565408	1.10623	0.406923	1.83087	0.382593	1.25196	0.173367	2.24179	0.71036	1.43553	-0.126768	1.81702	-0.518359	-0.260672	-0.178355	1.04179	
0.847382	7.15332	5	0	0.738626	0.621368	-0.00344125	1.75289	0.453588	0.808806	0.102565	1.69595	1.51331	2.50217	0.460522	2.57379	2.44235	3.88794	3.00543	4.92776	0.567174	1.14918	0.405978	1.87441	0.385895	1.31665	0.173349	2.29142	0.719061	1.47687	-0.119142	1.8539	-0.507268	-0.230036	-0.166653	1.07465	
0.868705	7.14569	5	0	0.721802	0.638	-0.0246235	1.77714	0.441646	0.834472	0.0893505	1.71117	1.5168	2.55223	0.450576	2.6207	2.44024	3.91355	2.987	4.94717	0.568939	1.19213	0.405033	1.91795	0.389197	1.38133	0.173331	2.34105	0.727762	1.51821	-0.111516	1.89078	-0.496177	-0.199399	-0.154951	1.10751	
0.894446	7.13806	5	0	0.704979	0.654632	-0.0458057	1.80139	0.429703	0.860137	0.0761363	1.72639	1.52029	2.60229	0.440631	2.6676	2.43814	3.93917	2.96857	4.96658	0.570705	1.23508	0.404087	1.96149	0.392499	1.44602	0.173314	2.39067	0.736464	1.55955	-0.103891	1.92767	-0.485085	-0.168763	-0.143249	1.14037	
0.921864	7.1289	5	0	0.688155	0.671264	-0.066988	1.82564	0.41776	0.885803	0.062922	1.74161	1.52379	2.65235	0.430685	2.7145	2.43604	3.96478	2.95013	4.98599	0.572471	1.27803	0.403142	2.00503	0.395801	1.5107	0.173296	2.4403	0.745165	1.60089	-0.096265	1.96455	-0.473994	-0.138126	-0.131547	1.17323	
0.948214	7.11975	5	0	0.681189	0.70125	-0.070807	1.85423	0.424859	0.930527	0.0623183	1.77282	1.54106	2.69381	0.433001	2.73618	2.44644	3.9945	2.95831	5.00648	0.581231	1.29447	0.406588	2.026	0.412481	1.53787	0.171119	2.45638	0.747332	1.61365	-0.10203	1.96622	-0.475064	-0.124753	-0.130207	1.17605	
0.970755	7.10449	5	0	0.674223	0.731235	-0.074626	1.88282	0.431957	0.975251	0.0617145	1.80403	1.55833	2.73527	0.435318	2.75787	2.45685	4.02422	2.96648	5.02697	0.58999	1.31091	0.410033	2.04697	0.429161	1.56505	0.168942	2.47247	0.7495	1.6264	-0.107796	1.96788	-0.476133	-0.111379	-0.128866	1.17887	
0.986743	7.09381	5	0	0.667257	0.761221	-0.078445	1.91142	0.439055	1.01998	0.0611107	1.83525	1.5756	2.77674	0.437634	2.77955	2.46725	4.05394	2.97466	5.04746	0.59875	1.32734	0.413479	2.06794	0.445841	1.59222	0.166765	2.48855	0.751668	1.63916	-0.113561	1.96955	-0.477202	-0.0980055	-0.127526	1.18169	
0.993442	7.08008	5	0	0.660291	0.791207	-0.082264	1.94001	0.446154	1.0647	0.060507	1.86646	1.59287	2.8182	0.43995	2.80123	2.47766	4.08366	2.98283	5.06795	0.60751	1.34378	0.416925	2.08892	0.462521	1.61939	0.164588	2.50463	0.753835	1.65191	-0.119326	1.97122	-0.478272	-0.084632	-0.126186	1.18451	
0.989551	7.0694	5	0	0.653769	0.80964	-0.0747793	1.94558	0.455083	1.0882	0.0564427	1.87795	1.59863	2.83211	0.438289	2.79651	2.48286	4.0986	2.98275	5.0791	0.606658	1.34618	0.415268	2.08335	0.474517	1.61742	0.162197	2.49154	0.746243	1.63563	-0.133171	1.94468	-0.481868	-0.084819	-0.132885	1.17043	
0.97705	7.05566	5	0	0.647247	0.828072	-0.0672945	1.95116	0.464012	1.1117	0.0523785	1.88943	1.60439	2.84601	0.436629	2.79179	2.48806	4.11353	2.98266	5.09026	0.605807	1.34859	0.413612	2.07779	0.486512	1.61546	0.159805	2.47844	0.73865	1.61934	-0.147017	1.91813	-0.485464	-0.085006	-0.139584	1.15636	
0.958374	7.04651	5	0	0.640725	0.846505	-0.0598098	1.95673	0.472942	1.1352	0.0483142	1.90092	1.61015	2.85992	0.434969	2.78707	2.49326	4.12847	2.98258	5.10142	0.604955	1.351	0.411956	2.07223	0.498508	1.6135	0.157413	2.46534	0.731058	1.60306	-0.160863	1.89159	-0.489061	-0.085193	-0.146283	1.14229	
0.935955	7.03125	5	0	0.634203	0.864938	-0.052325	1.96231	0.481871	1.15871	0.04425	1.9124	1.61591	2.87383	0.433308	2.78234	2.49847	4.1434	2.98249	5.11257	0.604104	1.3534	0.410299	2.06667	0.510503	1.61154	0.155022	2.45224	0.723465	1.58678	-0.174708	1.86505	-0.492657	-0.08538	-0.152982	1.12821	
0.91223	7.02515	5	0	0.613285	0.841823	-0.0632765	1.90431	0.468585	1.1313	0.027526	1.86394	1.59489	2.81277	0.402776	2.71865	2.48146	4.10269	2.95793	5.06229	0.588523	1.3083	0.381035	2.00657	0.483299	1.55041	0.131507	2.38029	0.692073	1.52529	-0.202351	1.7836	-0.512152	-0.123181	-0.177561	1.07278	
0.889632	7.01446	5	0	0.592367	0.818707	-0.074228	1.84631	0.455299	1.10389	0.010802	1.81549	1.57388	2.7517	0.372244	2.65496	2.46446	4.06199	2.93336	5.012	0.572941	1.2632	0.351772	1.94647	0.456095	1.48929	0.107991	2.30834	0.660682	1.4638	-0.229994	1.70216	-0.531647	-0.160983	-0.202141	1.01735	
0.870592	7.00531	5	0	0.571449	0.795592	-0.0851795	1.78832	0.442014	1.07648	-0.005922	1.76703	1.55286	2.69064	0.341711	2.59127	2.44745	4.02128	2.9088	4.96172	0.55736	1.2181	0.322508	1.88637	0.428892	1.42816	0.0844763	2.23639	0.62929	1.40231	-0.257636	1.62072	-0.551141	-0.198785	-0.22672	0.961921	
0.856755	6.99768	5	0	0.550531	0.772476	-0.096131	1.73032	0.428728	1.04908	-0.022646	1.71857	1.53185	2.62958	0.311179	2.52758	2.43045	3.98057	2.88423	4.91143	0.541779	1.17301	0.293244	1.82627	0.401688	1.36703	0.060961	2.16444	0.597898	1.34082	-0.285279	1.53927	-0.570636	-0.236586	-0.251299	0.906491	
0.84801	6.9931	5	0	0.527104	0.756812	-0.116826	1.71795	0.415679	1.03739	-0.043306	1.70365	1.50871	2.59022	0.299916	2.50347	2.40133	3.94516	2.84151	4.88091	0.525523	1.15067	0.26768	1.79718	0.384157	1.33216	0.0502815	2.14544	0.581709	1.31192	-0.303335	1.51822	-0.592281	-0.2576	-0.265829	0.888686	
0.844012	6.98395	5	0	0.503678	0.741148	-0.13752	1.70559	0.402631	1.02569	-0.063966	1.68874	1.48556	2.55086	0.288653	2.47937	2.37222	3.90974	2.79879	4.8504	0.509267	1.12834	0.242117	1.76809	0.366626	1.29728	0.039602	2.12644	0.565521	1.28302	-0.321391	1.49717	-0.613927	-0.278614	-0.280359	0.870881	
0.844413	6.987	5	0	0.480251	0.725484	-0.158215	1.69322	0.389582	1.014	-0.084626	1.67383	1.46242	2.5115	0.27739	2.45527	2.34311	3.87432	2.75607	4.81988	0.493011	1.106	0.216554	1.739	0.349095	1.2624	0.0289225	2.10744	0.549333	1.25412	-0.339446	1.47611	-0.635572	-0.299629	-0.294889	0.853076	
0.848866	6.98242	5	0	0.456825	0.70982	-0.17891	1.68085	0.376534	1.00231	-0.105286	1.65892	1.43928	2.47214	0.266127	2.43117	2.31399	3.8389	2.71335	4.78936	0.476755	1.08367	0.19099	1.70991	0.331564	1.22753	0.018243	2.08844	0.533144	1.22521	-0.357502	1.45506	-0.657217	-0.320643	-0.309419	0.835271	
0.857025	6.98242	5	0	0.437818	0.671858	-0.201032	1.64639	0.364321	0.972269	-0.120873	1.62996	1.41972	2.4158	0.248249	2.38884	2.29397	3.79797	2.68903	4.7401	0.463267	1.04697	0.172983	1.66001	0.304013	1.17947	0.00274225	2.04404	0.499949	1.21687	-0.38254	1.46119	-0.678779	-0.341533	-0.331417	0.838755	
0.868538	6.98242	5	0	0.418812	0.633897	-0.223153	1.61192	0.352108	0.942224	-0.136461	1.601	1.40017	2.35947	0.230371	2.34652	2.27395	3.75704	2.66471	4.69085	0.44978	1.01027	0.154976	1.61012	0.276462	1.13141	-0.0127585	1.99964	0.466754	1.20852	-0.407578	1.46731	-0.70034	-0.362422	-0.353414	0.842239	
0.882696	6.99158	5	0	0.399805	0.595935	-0.245275	1.57745	0.339896	0.912179	-0.152048	1.57204	1.38062	2.30313	0.212493	2.3042	2.25393	3.7161	2.64039	4.64159	0.436292	0.973575	0.136969	1.56022	0.24891	1.08336	-0.0282593	1.95525	0.43356	1.20017	-0.432617	1.47344	-0.721901	-0.383312	-0.375412	0.845723	
0.898144	6.99615	5	0	0.380799	0.557973	-0.267396	1.54298	0.327683	0.882134	-0.167635	1.54307	1.36106	2.2468	0.194615	2.26187	2.23391	3.67517	2.61607	4.59233	0.422805	0.936877	0.118962	1.51032	0.221359	1.0353	-0.04376	1.91085	0.400365	1.19183	-0.457655	1.47957	-0.743463	-0.404202	-0.397409	0.849207	
0.913462	7.00378	5	0	0.367699	0.54426	-0.265035	1.53631	0.33202	0.885995	-0.165919	1.5528	1.36052	2.25575	0.202196	2.26825	2.23563	3.68003	2.62094	4.59996	0.424259	0.939557	0.119125	1.51991	0.221359	1.0353	-0.0405745	1.91163	0.398225	1.18862	-0.461896	1.48438	-0.757647	-0.404895	-0.396574	0.846849	
0.92723	7.00836	5	0	0.354599	0.530546	-0.262674	1.52964	0.336358	0.889855	-0.164204	1.56253	1.35997	2.26471	0.209778	2.27463	2.23736	3.68488	2.62581	4.6076	0.425713	0.942236	0.119288	1.52951	0.221359	1.0353	-0.037389	1.91241	0.396085	1.1854	-0.466136	1.4892	-0.77183	-0.405589	-0.39574	0.84449	
0.938028	7.00989	5	0	0.341498	0.516833	-0.260313	1.52297	0.340695	0.893716	-0.162488	1.57226	1.35943	2.27367	0.217359	2.28102	2.23908	3.68973	2.63068	4.61523	0.427167	0.944916	0.119452	1.5391	0.221359	1.0353	-0.0342035	1.91318	0.393944	1.18219	-0.470376	1.49402	-0.786014	-0.406282	-0.394906	0.842132	
0.944435	7.00531	5	0	0.328398	0.503119	-0.257952	1.51629	0.345033	0.897577	-0.160772	1.582	1.35888	2.28262	0.22494	2.2874	2.24081	3.69459	2.63555	4.62286	0.428621	0.947596	0.119615	1.54869	0.221359	1.0353	-0.031018	1.91396	0.391804	1.17898	-0.474617	1.49883	-0.800198	-0.406975	-0.394071	0.839773	
0.94503	7.00683	5	0	0.313672	0.473936	-0.268587	1.48489	0.345824	0.879221	-0.159858	1.55755	1.34226	2.29994	0.200668	2.30042	2.22876	3.69947	2.61268	4.62339	0.427959	0.969847	0.113804	1.57518	0.217808	1.06626	-0.041025	1.95203	0.398253	1.2071	-0.46613	1.53227	-0.7976	-0.383742	-0.390292	0.868194	
0.938631	7.00836	5	0	0.298946	0.444752	-0.279222	1.45349	0.346616	0.860864	-0.158944	1.5331	1.32564	2.31726	0.176397	2.31344	2.21671	3.70435	2.58981	4.62392	0.427298	0.992099	0.107992	1.60166	0.214257	1.09723	-0.051032	1.99009	0.404702	1.23522	-0.457643	1.5657	-0.795001	-0.36051	-0.386512	0.896614	
0.926277	7.01294	5	0	0.28422	0.415569	-0.289857	1.42209	0.347407	0.842508	-0.158031	1.50865	1.30902	2.33458	0.152125	2.32647	2.20466	3.70923	2.56693	4.62445	0.426636	1.01435	0.102181	1.62814	0.210706	1.12819	-0.061039	2.02816	0.411152	1.26333	-0.449157	1.59914	-0.792403	-0.337278	-0.382732	0.925035	
0.910227	7.02362	5	0	0.269494	0.386386	-0.300492	1.39069	0.348199	0.824152	-0.157117	1.4842	1.29239	2.3519	0.127853	2.33949	2.19261	3.71412	2.54406	4.62498	0.425975	1.0366	0.09637	1.65463	0.207155	1.15916	-0.071046	2.06623	0.417601	1.29145	-0.44067	1.63258	-0.789805	-0.314045	-0.378953	0.953456	
0.892749	7.03583	5	0	0.266121	0.385827	-0.293078	1.39606	0.35918	0.841518	-0.150678	1.49516	1.30109	2.357	0.123936	2.35056	2.19089	3.70926	2.53596	4.61589	0.427202	1.04674	0.101002	1.6516	0.212832	1.16406	-0.0723685	2.06996	0.421883	1.29792	-0.439723	1.6299	-0.795558	-0.297787	-0.372456	0.954676	
0.876114	7.05109	5	0	0.262748	0.385267	-0.285664	1.40142	0.370161	0.858883	-0.144238	1.50612	1.30978	2.3621	0.12002	2.36163	2.18917	3.70441	2.52787	4.60679	0.428428	1.05687	0.105635	1.64857	0.218509	1.16897	-0.073691	2.0737	0.426166	1.30439	-0.438777	1.62722	-0.801311	-0.281529	-0.365959	0.955896	
0.86259	7.06482	0	5	0.259375	0.384708	-0.278251	1.40678	0.381142	0.876248	-0.137798	1.51708	1.31847	2.36719	0.116103	2.3727	2.18745	3.69955	2.51977	4.59769	0.429654	1.06701	0.110268	1.64554	0.224186	1.17388	-0.0750135	2.07744	0.430449	1.31085	-0.43783	1.62455	-0.807063	-0.265271	-0.359462	0.957117	
0.854447	7.0755	0	5	0.256002	0.384149	-0.270837	1.41214	0.392123	0.893614	-0.131359	1.52805	1.32716	2.37229	0.112187	2.38377	2.18573	3.6947	2.51168	4.5886	0.430881	1.07714	0.1149	1.64252	0.229863	1.17878	-0.076336	2.08117	0.434731	1.31732	-0.436883	1.62187	-0.812816	-0.249013	-0.352965	0.958337	
0.853419	7.09839	0	5	0.237897	0.384937	-0.298397	1.41994	0.388406	0.896043	-0.146854	1.52084	1.30781	2.3677	0.0945145	2.37831	2.14599	3.65229	2.44722	4.53793	0.423782	1.0836	0.0916215	1.648	0.215403	1.18823	-0.0829565	2.09989	0.447589	1.32749	-0.427439	1.63836	-0.798451	-0.228308	-0.338478	0.976265	
0.85831	7.10602	0	5	0.219792	0.385724	-0.325958	1.42775	0.38469	0.898471	-0.162349	1.51363	1.28846	2.36311	0.076842	2.37285	2.10624	3.60988	2.38277	4.48726	0.416683	1.09007	0.068343	1.65347	0.200943	1.19768	-0.089577	2.1186	0.460447	1.33766	-0.417996	1.65486	-0.784086	-0.207603	-0.323991	0.994193	
0.866924	7.11059	0	5	0.201686	0.386512	-0.353519	1.43555	0.380973	0.900899	-0.177844	1.50642	1.26912	2.35851	0.0591695	2.36739	2.0665	3.56748	2.31831	4.4366	0.409583	1.09653	0.0450645	1.65895	0.186483	1.20713	-0.0961975	2.13731	0.473305	1.34782	-0.408552	1.67135	-0.769721	-0.186899	-0.309505	1.01212	
0.877065	7.11517	0	5	0.183581	0.387299	-0.381079	1.44335	0.377256	0.903328	-0.193339	1.49921	1.24977	2.35392	0.041497	2.36192	2.02675	3.52507	2.25386	4.38593	0.402484	1.10299	0.021786	1.66443	0.172023	1.21658	-0.102818	2.15602	0.486163	1.35799	-0.399108	1.68784	-0.755356	-0.166194	-0.295018	1.03005	
0.886536	7.11365	0	5	0.174323	0.393348	-0.386952	1.45995	0.377482	0.918843	-0.20103	1.5064	1.23641	2.33259	0.0316705	2.33445	1.98693	3.47461	2.19338	4.32691	0.392956	1.08918	-0.00034625	1.63688	0.159859	1.19871	-0.111553	2.1416	0.482939	1.34849	-0.399096	1.6734	-0.75056	-0.159268	-0.292845	1.03046	
0.893141	7.11212	0	5	0.165066	0.399397	-0.392824	1.47654	0.377709	0.934357	-0.208721	1.51359	1.22305	2.31127	0.021844	2.30698	1.94711	3.42415	2.13289	4.2679	0.383429	1.07536	-0.0224785	1.60933	0.147695	1.18084	-0.120288	2.12717	0.479715	1.33898	-0.399085	1.65896	-0.745765	-0.152341	-0.290671	1.03087	
0.894685	7.10907	0	5	0.155808	0.405446	-0.398697	1.49314	0.377935	0.949872	-0.216411	1.52078	1.20969	2.28994	0.0120175	2.27951	1.90729	3.37368	2.07241	4.20888	0.373901	1.06155	-0.0446108	1.58178	0.135531	1.16297	-0.129023	2.11275	0.476491	1.32948	-0.399073	1.64453	-0.74097	-0.145415	-0.288498	1.03128	
0.889297	7.10144	0	5	0.146551	0.411495	-0.404569	1.50974	0.378161	0.965387	-0.224102	1.52797	1.19633	2.26861	0.002191	2.25204	1.86747	3.32322	2.01193	4.14987	0.364374	1.04773	-0.066743	1.55423	0.123367	1.1451	-0.137758	2.09833	0.473267	1.31997	-0.399061	1.63009	-0.736174	-0.138488	-0.286324	1.03169	
0.878019	7.09686	0	5	0.138115	0.425288	-0.409474	1.5411	0.378583	0.996544	-0.228735	1.54834	1.18758	2.27862	-0.003336	2.25847	1.82026	3.30452	1.95038	4.12748	0.358361	1.04439	-0.0777038	1.5453	0.116402	1.14393	-0.135906	2.10286	0.47756	1.32645	-0.393857	1.63699	-0.718198	-0.117438	-0.273619	1.04171	
0.863413	7.09228	0	5	0.129679	0.43908	-0.414379	1.57246	0.379005	1.0277	-0.233368	1.5687	1.17882	2.28863	-0.008863	2.2649	1.77305	3.28581	1.88883	4.10509	0.352348	1.04104	-0.0886645	1.53637	0.109436	1.14276	-0.134054	2.1074	0.481854	1.33293	-0.388653	1.6439	-0.700222	-0.0963875	-0.260914	1.05174	
0.848055	7.08618	0	5	0.121243	0.452873	-0.419284	1.60381	0.379428	1.05886	-0.238001	1.58907	1.17006	2.29863	-0.01439	2.27133	1.72584	3.26711	1.82729	4.0827	0.346336	1.0377	-0.0996252	1.52744	0.102471	1.14159	-0.132202	2.11193	0.486148	1.33942	-0.383449	1.6508	-0.682245	-0.0753372	-0.24821	1.06177	
0.834521	7.08771	0	5	0.112807	0.466666	-0.424189	1.63517	0.37985	1.09001	-0.242634	1.60943	1.1613	2.30864	-0.019917	2.27776	1.67863	3.2484	1.76574	4.06031	0.340323	1.03435	-0.110586	1.51852	0.095506	1.14041	-0.13035	2.11647	0.490441	1.3459	-0.378245	1.6577	-0.664269	-0.054287	-0.235505	1.0718	
0.825387	7.08465	0	5	0.0986045	0.456641	-0.425856	1.63114	0.382541	1.09051	-0.246331	1.60534	1.15095	2.27907	-0.0313613	2.24589	1.63871	3.18217	1.70356	3.98081	0.324437	1.00487	-0.137465	1.47528	0.0816802	1.10667	-0.147791	2.08775	0.475446	1.34177	-0.395746	1.65678	-0.65829	-0.050603	-0.250611	1.08167	
0.823226	7.08465	0	5	0.084402	0.446616	-0.427524	1.6271	0.385231	1.091	-0.250028	1.60125	1.14059	2.24949	-0.0428055	2.21402	1.59879	3.11594	1.64138	3.90131	0.308551	0.975385	-0.164345	1.43204	0.0678545	1.07293	-0.165233	2.05903	0.460452	1.33764	-0.413246	1.65585	-0.652311	-0.046919	-0.265716	1.09154	
0.829278	7.10297	0	5	0.0701995	0.43659	-0.429192	1.62306	0.387922	1.09149	-0.253726	1.59716	1.13023	2.21991	-0.0542497	2.18216	1.55887	3.04971	1.57921	3.82182	0.292664	0.945901	-0.191224	1.3888	0.0540288	1.03918	-0.182674	2.03031	0.445458	1.33351	-0.430747	1.65492	-0.646333	-0.043235	-0.280822	1.10141	
0.841451	7.13348	0	5	0.055997	0.426565	-0.430859	1.61902	0.390612	1.09198	-0.257423	1.59307	1.11987	2.19034	-0.065694	2.15029	1.51895	2.98348	1.51703	3.74232	0.276778	0.916416	-0.218104	1.34556	0.040203	1.00544	-0.200116	2.00159	0.430463	1.32938	-0.448248	1.65399	-0.640354	-0.039551	-0.295927	1.11128	
0.857144	7.17621	0	5	0.0476955	0.409993	-0.424188	1.6352	0.398273	1.10275	-0.245974	1.61165	1.11846	2.187	-0.0666417	2.16213	1.46383	2.93407	1.43704	3.69663	0.27079	0.913106	-0.232075	1.3356	0.0410548	1.01342	-0.198267	2.00609	0.424053	1.33821	-0.445906	1.66895	-0.649826	-0.0333615	-0.296653	1.12645	
0.873753	7.22351	0	5	0.039394	0.39342	-0.417517	1.65137	0.405934	1.11352	-0.234525	1.63024	1.11704	2.18366	-0.0675895	2.17396	1.40871	2.88465	1.35704	3.65093	0.264802	0.909795	-0.246046	1.32564	0.0419065	1.02139	-0.196418	2.0106	0.417644	1.34704	-0.443564	1.68391	-0.659299	-0.027172	-0.297378	1.14162	
0.888677	7.27234	0	5	0.0310925	0.376848	-0.410847	1.66755	0.413595	1.12429	-0.223077	1.64882	1.11562	2.18033	-0.0685373	2.1858	1.35359	2.83524	1.27705	3.60524	0.258813	0.906485	-0.260017	1.31568	0.0427583	1.02937	-0.19457	2.01511	0.411234	1.35587	-0.441222	1.69887	-0.668771	-0.0209825	-0.298104	1.15679	
0.899312	7.32269	0	5	0.022791	0.360275	-0.404176	1.68372	0.421256	1.13506	-0.211628	1.6674	1.1142	2.17699	-0.069485	2.19764	1.29847	2.78582	1.19706	3.55954	0.252825	0.903174	-0.273988	1.30572	0.04361	1.03735	-0.192721	2.01962	0.404824	1.36469	-0.43888	1.71383	-0.678243	-0.014793	-0.29883	1.17196	
0.903056	7.36236	0	5	-0.0008825	0.337418	-0.406819	1.66491	0.41898	1.12528	-0.206624	1.65326	1.08843	2.16194	-0.09541	2.19776	1.22338	2.73096	1.09571	3.49948	0.236495	0.915649	-0.301362	1.31408	0.0331118	1.06702	-0.200106	2.05023	0.408021	1.39283	-0.434261	1.75844	-0.679339	-0.00140675	-0.29511	1.20087	
0.898047	7.40356	0	5	-0.024556	0.314561	-0.409462	1.64611	0.416704	1.11549	-0.201621	1.63912	1.06265	2.1469	-0.121335	2.19788	1.1483	2.67611	0.994366	3.43942	0.220166	0.928125	-0.328737	1.32245	0.0226135	1.09669	-0.207491	2.08084	0.411219	1.42098	-0.429642	1.80305	-0.680436	0.0119795	-0.291391	1.22978	
0.886016	7.44324	0	5	-0.0482295	0.291704	-0.412106	1.6273	0.414427	1.10571	-0.196617	1.62498	1.03688	2.13185	-0.14726	2.198	1.07321	2.62125	0.893018	3.37935	0.203836	0.9406	-0.356112	1.33081	0.0121153	1.12636	-0.214875	2.11145	0.414416	1.44912	-0.425023	1.84766	-0.681533	0.0253657	-0.287671	1.25869	
0.869781	7.46765	0	5	-0.071903	0.268847	-0.414749	1.6085	0.412151	1.09593	-0.191613	1.61084	1.0111	2.1168	-0.173185	2.19812	0.998116	2.56639	0.79167	3.31929	0.187506	0.953075	-0.383486	1.33917	0.001617	1.15603	-0.22226	2.14206	0.417613	1.47726	-0.420404	1.89227	-0.682629	0.038752	-0.283952	1.2876	
0.852162	7.49359	0	5	-0.0793538	0.26008	-0.41308	1.61253	0.41982	1.1067	-0.182837	1.62251	1.01631	2.12401	-0.175764	2.2054	0.98315	2.5539	0.776729	3.30276	0.190377	0.958425	-0.380417	1.34034	0.0102293	1.17329	-0.223064	2.15408	0.415467	1.48332	-0.418994	1.89551	-0.684964	0.0453525	-0.282626	1.29043	
0.835976	7.5058	0	5	-0.0868045	0.251312	-0.411411	1.61657	0.427489	1.11747	-0.174062	1.63418	1.02152	2.13122	-0.178342	2.21269	0.968185	2.54142	0.761788	3.28623	0.193248	0.963774	-0.377348	1.34151	0.0188415	1.19055	-0.223868	2.16609	0.413321	1.48939	-0.417585	1.89874	-0.6873	0.051953	-0.281299	1.29325	
0.824043	7.53174	0	5	-0.0942552	0.242544	-0.409741	1.62061	0.435159	1.12825	-0.165286	1.64585	1.02673	2.13843	-0.18092	2.21998	0.953219	2.52893	0.746847	3.2697	0.196119	0.969124	-0.374278	1.34267	0.0274537	1.2078	-0.224672	2.17811	0.411175	1.49545	-0.416175	1.90198	-0.689636	0.0585535	-0.279973	1.29608	
0.819141	7.53326	0	5	-0.101706	0.233777	-0.408072	1.62464	0.442828	1.13902	-0.15651	1.65752	1.03194	2.14564	-0.183499	2.22727	0.938253	2.51645	0.731906	3.25317	0.19899	0.974473	-0.371209	1.34384	0.036066	1.22506	-0.225476	2.19013	0.409029	1.50152	-0.414765	1.90522	-0.691971	0.065154	-0.278647	1.29891	
0.822253	7.53326	0	5	-0.124082	0.237509	-0.428903	1.64852	0.423734	1.16054	-0.178655	1.67634	1.01738	2.17217	-0.193834	2.25647	0.912414	2.51668	0.700547	3.254	0.198059	1.00406	-0.375186	1.38464	0.029281	1.2755	-0.228758	2.23843	0.420774	1.52423	-0.406367	1.93935	-0.676326	0.0931095	-0.267558	1.32688	
0.831872	7.54394	0	5	-0.146458	0.24124	-0.449734	1.6724	0.40464	1.18205	-0.2008	1.69517	1.00282	2.1987	-0.20417	2.28568	0.886575	2.51691	0.669189	3.25484	0.197128	1.03364	-0.379162	1.42543	0.022496	1.32593	-0.232039	2.28673	0.43252	1.54694	-0.397969	1.97348	-0.66068	0.121065	-0.25647	1.35485	
0.846311	7.53021	0	5	-0.168835	0.244972	-0.470566	1.69628	0.385546	1.20356	-0.222944	1.714	0.988256	2.22523	-0.214505	2.31489	0.860736	2.51715	0.63783	3.25568	0.196197	1.06323	-0.383138	1.46623	0.015711	1.37637	-0.235321	2.33503	0.444265	1.56965	-0.389572	2.00762	-0.645034	0.149021	-0.245381	1.38282	
0.86388	7.51953	0	5	-0.191211	0.248703	-0.491397	1.72016	0.366452	1.22508	-0.245089	1.73283	0.973693	2.25176	-0.22484	2.3441	0.834897	2.51738	0.606472	3.25651	0.195266	1.09282	-0.387115	1.50702	0.008926	1.4268	-0.238602	2.38333	0.456011	1.59236	-0.381174	2.04175	-0.629389	0.176976	-0.234292	1.41079	
0.882892	7.5058	0	5	-0.19041	0.256346	-0.487606	1.73568	0.372008	1.24182	-0.237011	1.75375	0.983103	2.26908	-0.224523	2.35233	0.831067	2.5282	0.600488	3.26369	0.201	1.1036	-0.385388	1.52187	0.0209865	1.44494	-0.236771	2.38792	0.455991	1.60175	-0.381622	2.03577	-0.626931	0.190701	-0.236474	1.41036	
0.901658	7.49664	0	5	-0.18961	0.263988	-0.483816	1.75121	0.377564	1.25857	-0.228933	1.77468	0.992513	2.28639	-0.224207	2.36057	0.827238	2.53902	0.594505	3.27088	0.206734	1.11439	-0.383661	1.53672	0.033047	1.46307	-0.23494	2.39252	0.455972	1.61114	-0.382069	2.02979	-0.624472	0.204425	-0.238656	1.40992	
0.91849	7.48749	0	5	-0.18881	0.27163	-0.480025	1.76674	0.383121	1.27532	-0.220855	1.79561	1.00192	2.30371	-0.22389	2.3688	0.823408	2.54985	0.588522	3.27806	0.212469	1.12518	-0.381934	1.55157	0.0451075	1.4812	-0.23311	2.39711	0.455952	1.62052	-0.382517	2.02381	-0.622014	0.21815	-0.240838	1.40949	
0.931744	7.47681	0	5	-0.188009	0.279273	-0.476235	1.78226	0.388677	1.29206	-0.212777	1.81653	1.01133	2.32103	-0.223573	2.37703	0.819579	2.56067	0.582538	3.28524	0.218203	1.13597	-0.380207	1.56642	0.057168	1.49933	-0.231279	2.40171	0.455933	1.62991	-0.382964	2.01783	-0.619556	0.231875	-0.24302	1.40906	
0.939942	7.4707	0	5	-0.194438	0.327188	-0.469397	1.82431	0.392427	1.34653	-0.205071	1.87524	1.03905	2.38244	-0.204855	2.41566	0.849456	2.6221	0.619629	3.33669	0.236023	1.1736	-0.355221	1.6047	0.0934818	1.55424	-0.213944	2.43106	0.471971	1.65943	-0.373093	2.0407	-0.61225	0.263007	-0.237242	1.42575	
0.941641	7.4707	0	5	-0.200867	0.375103	-0.46256	1.86635	0.396176	1.401	-0.197365	1.93395	1.06676	2.44386	-0.186138	2.45429	0.879332	2.68354	0.65672	3.38814	0.253843	1.21124	-0.330235	1.64298	0.129796	1.60914	-0.196609	2.46041	0.488009	1.68894	-0.363222	2.06356	-0.604944	0.294139	-0.231465	1.44244	
0.9354	7.47223	0	5	-0.207296	0.423017	-0.455722	1.9084	0.399925	1.45548	-0.18966	1.99266	1.09448	2.50527	-0.16742	2.49291	0.909209	2.74497	0.69381	3.43958	0.271663	1.24888	-0.305249	1.68126	0.166109	1.66405	-0.179275	2.48976	0.504048	1.71845	-0.353351	2.08643	-0.597637	0.325272	-0.225687	1.45913	
0.919777	7.46155	0	5	-0.213725	0.470932	-0.448884	1.95044	0.403675	1.50995	-0.181954	2.05138	1.12219	2.56668	-0.148702	2.53154	0.939086	2.8064	0.730901	3.49103	0.289483	1.28652	-0.280263	1.71954	0.202423	1.71895	-0.16194	2.51911	0.520086	1.74797	-0.34348	2.10929	-0.590331	0.356404	-0.219909	1.47582	
0.893331	7.45544	0	5	-0.215471	0.48579	-0.448155	1.9396	0.406967	1.51695	-0.174874	2.05338	1.12741	2.57409	-0.148336	2.503	0.955674	2.8237	0.750455	3.48488	0.296326	1.28755	-0.2789	1.70576	0.20944	1.72023	-0.171109	2.49602	0.505985	1.77845	-0.371785	2.15301	-0.598602	0.390153	-0.228496	1.50008	
0.854624	7.45392	0	5	-0.217216	0.500649	-0.447426	1.92876	0.410258	1.52395	-0.167793	2.05538	1.13263	2.5815	-0.14797	2.47446	0.972261	2.841	0.770008	3.47872	0.30317	1.28857	-0.277536	1.69198	0.216456	1.7215	-0.180278	2.47293	0.491883	1.80893	-0.400089	2.19673	-0.606873	0.423902	-0.237082	1.52435	
0.804557	7.44781	0	5	-0.218961	0.515507	-0.446696	1.91792	0.41355	1.53095	-0.160713	2.05738	1.13785	2.5889	-0.147603	2.44592	0.988849	2.8583	0.789562	3.47256	0.310013	1.2896	-0.276173	1.6782	0.223472	1.72278	-0.189447	2.44985	0.477781	1.83941	-0.428394	2.24046	-0.615144	0.457651	-0.245669	1.54862	
0.750146	7.45239	0	5	-0.220707	0.530365	-0.445967	1.90708	0.416841	1.53795	-0.153633	2.05938	1.14307	2.59631	-0.147237	2.41738	1.00544	2.8756	0.809115	3.46641	0.316857	1.29062	-0.27481	1.66442	0.230489	1.72405	-0.198616	2.42676	0.46368	1.86989	-0.456699	2.28418	-0.623415	0.4914	-0.254256	1.57289	
0.699394	7.44629	0	5	-0.228038	0.57095	-0.444124	1.93702	0.416605	1.57944	-0.149021	2.10517	1.16582	2.63579	-0.137848	2.43671	1.0345	2.91324	0.837634	3.4943	0.333546	1.31833	-0.259119	1.68967	0.257818	1.77396	-0.198965	2.44733	0.477536	1.89643	-0.447891	2.31009	-0.624563	0.5258	-0.252414	1.59414	
0.660307	7.44324	0	5	-0.235368	0.611536	-0.44228	1.96695	0.416368	1.62092	-0.144408	2.15096	1.18856	2.67527	-0.12846	2.45604	1.06357	2.95087	0.866153	3.52219	0.350236	1.34603	-0.243428	1.71491	0.285146	1.82386	-0.199313	2.4679	0.491393	1.92297	-0.439084	2.33599	-0.625711	0.560199	-0.250573	1.61539	
0.640886	7.44171	0	5	-0.242699	0.652121	-0.440437	1.99688	0.416131	1.66241	-0.139795	2.19675	1.21131	2.71475	-0.119071	2.47537	1.09264	2.9885	0.894672	3.55008	0.366926	1.37373	-0.227737	1.74016	0.312475	1.87376	-0.199662	2.48847	0.505249	1.94951	-0.430277	2.3619	-0.626859	0.594599	-0.248731	1.63664	
0.646823	7.43561	0	5	-0.25003	0.692706	-0.438594	2.02681	0.415895	1.7039	-0.135183	2.24254	1.23405	2.75423	-0.109682	2.4947	1.1217	3.02613	0.923191	3.57797	0.383615	1.40144	-0.212046	1.76541	0.339804	1.92367	-0.200011	2.50904	0.519106	1.97605	-0.421469	2.38781	-0.628007	0.628999	-0.24689	1.6579	
0.674979	7.4234	0	5	-0.266284	0.708851	-0.448513	2.00216	0.412134	1.70635	-0.136523	2.23897	1.2254	2.78613	-0.136312	2.51494	1.12726	3.0567	0.918583	3.59099	0.384331	1.44722	-0.211713	1.79437	0.346163	1.99094	-0.203934	2.54954	0.527407	2.02796	-0.418698	2.4455	-0.62564	0.684776	-0.241938	1.70357	
0.720112	7.4173	0	5	-0.282539	0.724995	-0.458433	1.9775	0.408374	1.70881	-0.137864	2.23539	1.21674	2.81802	-0.162942	2.53518	1.13282	3.08727	0.913976	3.60401	0.385046	1.49299	-0.211381	1.82333	0.352522	2.05821	-0.207858	2.59005	0.535707	2.07987	-0.415928	2.50319	-0.623273	0.740552	-0.236986	1.74924	
