1.034	5.69458	0	0	0.298288	0.241897	0.266528	0.529539	0.237276	0.639161	0.226243	0.471677	0.660419	0.844188	0.629792	0.785207	0.541483	0.346057	0.566463	0.402368	0.39231	0.012375	0.546281	0.119795	0.535148	0.176521	0.702108	0.588455	0.246412	0.258381	0.453598	0.437493	0.079716	0.126257	0.249191	-0.008386	
1.02925	5.6961	0	0	0.286705	0.243787	0.263566	0.546909	0.229535	0.637789	0.219106	0.484683	0.643833	0.849052	0.625881	0.814405	0.522916	0.352687	0.547637	0.411901	0.391458	0.0147845	0.5385	0.141786	0.53604	0.18443	0.700855	0.611748	0.245474	0.269884	0.453782	0.451052	0.0820275	0.129408	0.244167	0.005812	
1.02456	5.69153	0	0	0.275122	0.245677	0.260605	0.564279	0.221795	0.636417	0.211969	0.49769	0.627246	0.853915	0.62197	0.843603	0.50435	0.359318	0.528812	0.421434	0.390605	0.017194	0.530718	0.163777	0.536933	0.192338	0.699602	0.63504	0.244535	0.281386	0.453966	0.464611	0.084339	0.132559	0.239143	0.02001	
1.01996	5.68848	0	0	0.263539	0.247566	0.257644	0.581648	0.214054	0.635046	0.204831	0.510696	0.610659	0.858779	0.618058	0.872802	0.485783	0.365949	0.509987	0.430967	0.389753	0.0196035	0.522937	0.185768	0.537826	0.200246	0.698349	0.658333	0.243596	0.292888	0.454149	0.478169	0.0866505	0.135709	0.234119	0.034208	
1.01546	5.68848	0	0	0.251956	0.249456	0.254682	0.599018	0.206313	0.633674	0.197694	0.523702	0.594073	0.863642	0.614147	0.902	0.467216	0.372579	0.491161	0.4405	0.3889	0.022013	0.515156	0.207759	0.538718	0.208155	0.697096	0.681626	0.242658	0.304391	0.454333	0.491728	0.088962	0.13886	0.229095	0.048406	
1.01109	5.68542	0	0	0.249841	0.245164	0.249954	0.594386	0.204113	0.624409	0.194398	0.525856	0.58437	0.84217	0.611933	0.890113	0.469324	0.357467	0.493707	0.433304	0.38213	0.0134805	0.513129	0.192177	0.527342	0.198615	0.690559	0.660619	0.232326	0.289381	0.443358	0.473517	0.0831008	0.12639	0.223884	0.0299977	
1.00687	5.68542	0	0	0.247725	0.240872	0.245225	0.589754	0.201913	0.615143	0.191101	0.52801	0.574666	0.820697	0.609719	0.878225	0.471432	0.342356	0.496254	0.426107	0.37536	0.004948	0.511102	0.176595	0.515966	0.189076	0.684022	0.639613	0.221995	0.27437	0.432383	0.455307	0.0772395	0.11392	0.218673	0.0115895	
1.00282	5.68542	0	0	0.245609	0.23658	0.240497	0.585123	0.199713	0.605878	0.187805	0.530164	0.564963	0.799225	0.607505	0.866337	0.473539	0.327244	0.4988	0.418911	0.36859	-0.0035845	0.509075	0.161013	0.504589	0.179536	0.677484	0.618607	0.211663	0.25936	0.421408	0.437096	0.0713783	0.101449	0.213462	-0.00681875	
0.99897	5.67932	0	0	0.243494	0.232288	0.235768	0.580491	0.197513	0.596613	0.184508	0.532318	0.55526	0.777752	0.605291	0.85445	0.475647	0.312133	0.501346	0.411715	0.36182	-0.012117	0.507048	0.145431	0.493213	0.169996	0.670947	0.5976	0.201331	0.244349	0.410433	0.418886	0.065517	0.088979	0.208251	-0.025227	
0.995333	5.6839	0	0	0.236657	0.231086	0.232214	0.590535	0.188197	0.592014	0.168045	0.543075	0.538754	0.782592	0.597925	0.875267	0.464282	0.316816	0.486573	0.418604	0.360117	-0.00730525	0.502382	0.158619	0.497596	0.178443	0.667735	0.616541	0.203459	0.256007	0.409716	0.434962	0.0678275	0.0921225	0.208496	-0.0126707	
0.991934	5.67779	0	0	0.22982	0.229883	0.22866	0.600579	0.178881	0.587415	0.151582	0.553833	0.522248	0.787432	0.590559	0.896084	0.452916	0.321499	0.471799	0.425492	0.358415	-0.0024935	0.497715	0.171807	0.501979	0.18689	0.664522	0.635481	0.205586	0.267666	0.409	0.451039	0.070138	0.095266	0.20874	-0.0001145	
0.988794	5.67779	0	0	0.222983	0.228681	0.225106	0.610622	0.169566	0.582816	0.135118	0.56459	0.505742	0.792272	0.583193	0.916902	0.44155	0.326182	0.457026	0.432381	0.356712	0.00231825	0.493049	0.184995	0.506362	0.195337	0.66131	0.654421	0.207713	0.279324	0.408284	0.467116	0.0724485	0.0984095	0.208984	0.0124418	
0.985935	5.67322	0	0	0.216146	0.227479	0.221552	0.620666	0.16025	0.578217	0.118655	0.575348	0.489236	0.797112	0.575827	0.937719	0.430185	0.330865	0.442253	0.43927	0.35501	0.00713	0.488382	0.198183	0.510745	0.203784	0.658098	0.673362	0.209841	0.290983	0.407567	0.483192	0.074759	0.101553	0.209229	0.024998	
0.983379	5.67016	0	0	0.220868	0.224394	0.218015	0.612684	0.163806	0.575893	0.117694	0.578063	0.494263	0.789867	0.574112	0.933501	0.437759	0.336897	0.458691	0.445133	0.355234	-0.00041275	0.485038	0.196987	0.505061	0.199013	0.654192	0.664682	0.200588	0.281808	0.399489	0.470914	0.0678303	0.0921302	0.203186	0.0089745	
0.981149	5.67016	0	0	0.22559	0.221308	0.214478	0.604701	0.167362	0.57357	0.116733	0.580777	0.499289	0.782622	0.572396	0.929283	0.445333	0.342928	0.475129	0.450997	0.355458	-0.0079555	0.481695	0.19579	0.499378	0.194242	0.650285	0.656003	0.191335	0.272633	0.39141	0.458635	0.0609015	0.0827075	0.197144	-0.007049	
0.979265	5.66254	0	0	0.230312	0.218223	0.210941	0.596719	0.170919	0.571246	0.115773	0.583492	0.504316	0.775376	0.570681	0.925065	0.452908	0.34896	0.491566	0.45686	0.355682	-0.0154982	0.478351	0.194594	0.493694	0.18947	0.646378	0.647323	0.182081	0.263459	0.383331	0.446357	0.0539727	0.0732848	0.191102	-0.0230725	
0.97775	5.66101	0	0	0.235034	0.215138	0.207404	0.588736	0.174475	0.568922	0.114812	0.586207	0.509343	0.768131	0.568966	0.920847	0.460482	0.354992	0.508004	0.462723	0.355906	-0.023041	0.475008	0.193397	0.48801	0.184699	0.642472	0.638643	0.172828	0.254284	0.375253	0.434079	0.047044	0.063862	0.185059	-0.039096	
0.976623	5.66101	0	0	0.231616	0.214538	0.193824	0.600182	0.170919	0.571246	0.0993408	0.594229	0.50663	0.78973	0.56282	0.938218	0.458367	0.370125	0.504363	0.481746	0.355055	-0.0206367	0.476795	0.198994	0.488898	0.192604	0.641839	0.650289	0.175951	0.263112	0.37543	0.447615	0.0438355	0.07293	0.186139	-0.0289152	
0.975898	5.65948	0	0	0.228198	0.213939	0.180243	0.611627	0.167362	0.57357	0.0838695	0.602251	0.503916	0.811329	0.556673	0.955589	0.456252	0.385258	0.500723	0.500769	0.354205	-0.0182325	0.478581	0.204591	0.489786	0.200509	0.641207	0.661935	0.179075	0.27194	0.375607	0.461151	0.040627	0.081998	0.187219	-0.0187345	
0.975588	5.65491	0	0	0.22478	0.213339	0.166662	0.623073	0.163806	0.575893	0.0683982	0.610273	0.501203	0.832928	0.550526	0.972961	0.454136	0.400391	0.497082	0.519793	0.353354	-0.0158283	0.480368	0.210188	0.490674	0.208414	0.640574	0.673581	0.182198	0.280768	0.375783	0.474687	0.0374185	0.091066	0.188299	-0.00855375	
0.975707	5.65796	0	0	0.221362	0.212739	0.153082	0.634519	0.16025	0.578217	0.052927	0.618295	0.49849	0.854527	0.54438	0.990332	0.452021	0.415524	0.493442	0.538816	0.352503	-0.013424	0.482154	0.215785	0.491562	0.216319	0.639941	0.685227	0.185321	0.289596	0.37596	0.488223	0.03421	0.100134	0.189379	0.001627	
0.976268	5.65033	0	0	0.22869	0.202288	0.152521	0.60921	0.163806	0.575893	0.051162	0.609022	0.512266	0.857449	0.541704	0.970726	0.462139	0.414421	0.497464	0.536188	0.353794	-0.0308852	0.480135	0.200206	0.486295	0.199978	0.634716	0.660594	0.180072	0.269137	0.365925	0.467504	0.0294305	0.084682	0.17976	-0.0174628	
0.977283	5.64422	0	0	0.236018	0.191837	0.151959	0.583901	0.167362	0.57357	0.049397	0.599749	0.526042	0.86037	0.539027	0.951119	0.472257	0.413318	0.501486	0.53356	0.355085	-0.0483465	0.478115	0.184627	0.481028	0.183638	0.629491	0.635962	0.174824	0.248678	0.35589	0.446785	0.024651	0.06923	0.170141	-0.0365525	
0.978766	5.64422	0	0	0.243346	0.181387	0.151397	0.558592	0.170919	0.571246	0.047632	0.590476	0.539819	0.863291	0.53635	0.931512	0.482375	0.412214	0.505507	0.530932	0.356377	-0.0658077	0.476096	0.169049	0.475762	0.167297	0.624267	0.611329	0.169575	0.228219	0.345855	0.426066	0.0198715	0.053778	0.160522	-0.0556423	
0.98073	5.64117	0	0	0.250674	0.170936	0.150836	0.533283	0.174475	0.568922	0.045867	0.581203	0.553595	0.866213	0.533674	0.911906	0.492493	0.411111	0.509529	0.528304	0.357668	-0.083269	0.474076	0.15347	0.470495	0.150956	0.619042	0.586696	0.164326	0.20776	0.33582	0.405347	0.015092	0.038326	0.150903	-0.074732	
0.983128	5.64117	0	0	0.247255	0.170341	0.142593	0.538669	0.177658	0.57539	0.0369895	0.58492	0.579899	0.896927	0.527535	0.929257	0.493321	0.42712	0.50039	0.545395	0.359148	-0.0805465	0.474309	0.163452	0.473573	0.163069	0.615833	0.605607	0.16845	0.213742	0.336894	0.416322	0.0173975	0.0414585	0.151443	-0.0696555	
0.985826	5.63965	0	0	0.243835	0.169746	0.13435	0.544055	0.180841	0.581858	0.028112	0.588638	0.606202	0.92764	0.521395	0.946608	0.49415	0.44313	0.491251	0.562485	0.360627	-0.077824	0.474542	0.173434	0.47665	0.175183	0.612624	0.624518	0.172575	0.219724	0.337967	0.427296	0.019703	0.044591	0.151983	-0.064579	
0.988686	5.63965	0	0	0.240416	0.169151	0.126108	0.549441	0.184024	0.588325	0.0192345	0.592356	0.632506	0.958354	0.515255	0.963959	0.494978	0.459139	0.482111	0.579576	0.362107	-0.0751015	0.474775	0.183415	0.479727	0.187296	0.609415	0.643429	0.176699	0.225707	0.339041	0.438271	0.0220085	0.0477235	0.152524	-0.0595025	
0.991564	5.63965	0	0	0.236996	0.168556	0.117865	0.554827	0.187207	0.594793	0.010357	0.596073	0.65881	0.989068	0.509116	0.98131	0.495806	0.475148	0.472972	0.596666	0.363587	-0.072379	0.475008	0.193397	0.482805	0.199409	0.606206	0.66234	0.180823	0.231689	0.340115	0.449246	0.024314	0.050856	0.153064	-0.054426	
0.994322	5.63507	0	0	0.23878	0.15326	0.109649	0.542279	0.19433	0.590139	0.0085955	0.586816	0.68336	0.997103	0.507671	0.958262	0.505531	0.466033	0.480833	0.583189	0.362538	-0.0901202	0.474538	0.173451	0.482324	0.179957	0.600989	0.637748	0.171513	0.213937	0.334204	0.423954	0.0172267	0.032323	0.143456	-0.0734498	
0.996818	5.63202	0	0	0.240564	0.137964	0.101433	0.529731	0.201453	0.585484	0.006834	0.57756	0.707909	1.00514	0.506227	0.935214	0.515256	0.456917	0.488694	0.569712	0.361488	-0.107861	0.474068	0.153506	0.481843	0.160506	0.595772	0.613156	0.162204	0.196184	0.328294	0.398663	0.0101395	0.01379	0.133849	-0.0924735	
0.998912	5.63202	0	0	0.242348	0.122668	0.0932177	0.517183	0.208576	0.58083	0.0050725	0.568303	0.732459	1.01317	0.504782	0.912165	0.524981	0.447802	0.496554	0.556235	0.360439	-0.125603	0.473598	0.13356	0.481362	0.141054	0.590555	0.588565	0.152894	0.178431	0.322383	0.373371	0.00305225	-0.004743	0.124241	-0.111497	
1.00046	5.62897	0	0	0.244132	0.107372	0.085002	0.504635	0.215699	0.576176	0.003311	0.559046	0.757009	1.02121	0.503337	0.889117	0.534706	0.438686	0.504415	0.542758	0.35939	-0.143344	0.473128	0.113614	0.480881	0.121603	0.585338	0.563973	0.143584	0.160679	0.316472	0.348079	-0.004035	-0.023276	0.114633	-0.130521	
1.0014	5.63049	0	0	0.236001	0.109863	0.0849827	0.522564	0.220484	0.58589	-0.00283575	0.569305	0.771904	1.04977	0.504782	0.912165	0.532577	0.453895	0.498014	0.560847	0.362353	-0.137915	0.480053	0.125962	0.486155	0.137923	0.588607	0.584228	0.146773	0.178091	0.317192	0.367031	-0.00599375	-0.008107	0.118749	-0.122379	
1.00174	5.63202	0	0	0.227869	0.112354	0.0849635	0.540493	0.22527	0.595605	-0.0089825	0.579565	0.7868	1.07833	0.506227	0.935214	0.530447	0.469103	0.491613	0.578936	0.365316	-0.132486	0.486978	0.13831	0.49143	0.154242	0.591876	0.604484	0.149962	0.195502	0.317912	0.385983	-0.0079525	0.007062	0.122866	-0.114236	
1.00151	5.63049	0	0	0.219737	0.114845	0.0849442	0.558421	0.230055	0.60532	-0.0151293	0.589824	0.801696	1.10689	0.507671	0.958262	0.528318	0.484312	0.485213	0.597025	0.368278	-0.127057	0.493904	0.150658	0.496704	0.170561	0.595145	0.62474	0.153152	0.212914	0.318632	0.404934	-0.00991125	0.022231	0.126982	-0.106094	
1.00075	5.63049	0	0	0.211606	0.117336	0.084925	0.57635	0.23484	0.615034	-0.021276	0.600083	0.816591	1.13545	0.509116	0.98131	0.526189	0.49952	0.478812	0.615114	0.371241	-0.121628	0.500829	0.163006	0.501978	0.186881	0.598414	0.644995	0.156341	0.230326	0.319352	0.423886	-0.01187	0.0374	0.131099	-0.097952	
0.999483	5.62897	0	0	0.210788	0.109409	0.0802347	0.571731	0.238408	0.612702	-0.0249468	0.596239	0.827773	1.13219	0.506929	0.9694	0.531694	0.493157	0.477352	0.610502	0.369972	-0.131843	0.499038	0.157422	0.498895	0.174771	0.597094	0.629057	0.156208	0.213081	0.313091	0.406616	-0.00991125	0.022231	0.122039	-0.111878	
0.997736	5.62134	0	0	0.209971	0.101483	0.0755445	0.567111	0.241976	0.610371	-0.0286175	0.592395	0.838955	1.12893	0.504741	0.957489	0.537199	0.486794	0.475892	0.60589	0.368702	-0.142058	0.497246	0.151838	0.495812	0.162662	0.595774	0.613119	0.156076	0.195835	0.306831	0.389345	-0.0079525	0.007062	0.112979	-0.125804	
0.995541	5.62439	0	0	0.209153	0.0935565	0.0708543	0.562492	0.245545	0.60804	-0.0322882	0.588551	0.850137	1.12566	0.502553	0.945579	0.542704	0.480431	0.474432	0.601278	0.367433	-0.152272	0.495455	0.146255	0.492729	0.150552	0.594455	0.59718	0.155943	0.178589	0.30057	0.372074	-0.00599375	-0.008107	0.103919	-0.139729	
0.992929	5.62897	0	0	0.208336	0.08563	0.066164	0.557872	0.249113	0.605708	-0.035959	0.584707	0.861319	1.1224	0.500366	0.933669	0.548209	0.474068	0.472972	0.596666	0.366164	-0.162487	0.493664	0.140671	0.489646	0.138442	0.593135	0.581242	0.15581	0.161344	0.294309	0.354804	-0.004035	-0.023276	0.094859	-0.153655	
0.990002	5.62439	0	0	0.201032	0.096042	0.0620182	0.578524	0.25132	0.614985	-0.0397905	0.595535	0.877215	1.14851	0.504737	0.957518	0.55031	0.486535	0.470585	0.612149	0.371459	-0.156745	0.499037	0.157443	0.494921	0.154778	0.596403	0.601517	0.160001	0.175938	0.301465	0.369545	-0.00155775	-0.0110055	0.100344	-0.142811	
0.986954	5.62134	0	0	0.193727	0.106454	0.0578725	0.599176	0.253527	0.624262	-0.043622	0.606364	0.89311	1.17463	0.509108	0.981367	0.552412	0.499001	0.468199	0.627632	0.376753	-0.151002	0.50441	0.174215	0.500196	0.171113	0.59967	0.621791	0.164191	0.190532	0.30862	0.384286	0.0009195	0.001265	0.105828	-0.131968	
0.983986	5.62744	0	0	0.186423	0.116866	0.0537268	0.619828	0.255734	0.633539	-0.0474535	0.617192	0.909006	1.20074	0.513479	1.00522	0.554513	0.511468	0.465813	0.643115	0.382048	-0.14526	0.509783	0.190987	0.50547	0.187448	0.602938	0.642066	0.168382	0.205126	0.315776	0.399027	0.00339675	0.0135355	0.111313	-0.121124	
0.981301	5.62134	0	0	0.179119	0.127278	0.049581	0.64048	0.257941	0.642816	-0.051285	0.62802	0.924902	1.22685	0.51785	1.02906	0.556614	0.523935	0.463426	0.658598	0.387343	-0.139518	0.515156	0.207759	0.510745	0.203784	0.606206	0.66234	0.172573	0.21972	0.322932	0.413768	0.005874	0.025806	0.116798	-0.11028	
0.979099	5.61981	0	0	0.180417	0.123609	0.0460798	0.632509	0.2641	0.640938	-0.0503267	0.625312	0.938488	1.22407	0.516895	1.01365	0.560852	0.521165	0.467272	0.647727	0.38607	-0.149727	0.513129	0.192177	0.508962	0.18799	0.600363	0.649344	0.165326	0.20496	0.316669	0.396505	0.00233225	0.016544	0.107743	-0.124194	
0.977582	5.61523	0	0	0.181715	0.119941	0.0425785	0.624538	0.270259	0.639059	-0.0493685	0.622603	0.952074	1.2213	0.515941	0.998241	0.565091	0.518396	0.471119	0.636856	0.384798	-0.159936	0.511102	0.176595	0.507178	0.172196	0.59452	0.636348	0.158079	0.190199	0.310405	0.379243	-0.0012095	0.007282	0.098689	-0.138108	
0.976951	5.61828	0	0	0.183013	0.116273	0.0390773	0.616567	0.276418	0.637181	-0.0484103	0.619895	0.965659	1.21852	0.514986	0.98283	0.56933	0.515626	0.474966	0.625985	0.383525	-0.170146	0.509075	0.161013	0.505395	0.156401	0.588676	0.623352	0.150831	0.175439	0.304141	0.36198	-0.00475125	-0.00198	0.0896345	-0.152022	
0.97739	5.61523	0	0	0.184311	0.112604	0.035576	0.608596	0.282577	0.635302	-0.047452	0.617186	0.979245	1.21575	0.514031	0.967418	0.573568	0.512856	0.478812	0.615114	0.382252	-0.180355	0.507048	0.145431	0.503612	0.140607	0.582833	0.610356	0.143584	0.160679	0.297878	0.344717	-0.008293	-0.011242	0.08058	-0.165936	
0.978803	5.61676	0	0	0.178307	0.119348	0.0308543	0.62194	0.281589	0.638094	-0.0493688	0.622603	0.985348	1.21991	0.517448	0.975872	0.572292	0.516461	0.476071	0.614121	0.380559	-0.17557	0.508841	0.151017	0.505805	0.144822	0.58091	0.625621	0.145644	0.16366	0.299847	0.353129	-0.00048825	-0.014028	0.0802917	-0.158543	
0.980863	5.61218	0	0	0.172302	0.126091	0.0261325	0.635285	0.280602	0.640887	-0.0512855	0.628021	0.991451	1.22406	0.520865	0.984325	0.571017	0.520066	0.473331	0.613128	0.378866	-0.170786	0.510633	0.156604	0.507999	0.149037	0.578987	0.640887	0.147704	0.166641	0.301817	0.361541	0.0073165	-0.016814	0.0800035	-0.15115	
0.983236	5.61218	0	0	0.166298	0.132835	0.0214107	0.648629	0.279614	0.643679	-0.0532022	0.633439	0.997554	1.22822	0.524281	0.992778	0.569742	0.52367	0.470591	0.612136	0.377173	-0.166001	0.512425	0.16219	0.510192	0.153253	0.577065	0.656152	0.149765	0.169623	0.303786	0.369953	0.0151212	-0.0196	0.0797153	-0.143758	
0.985588	5.60608	0	0	0.160294	0.139579	0.016689	0.661973	0.278626	0.646471	-0.055119	0.638856	1.00366	1.23237	0.527698	1.00123	0.568466	0.527275	0.46785	0.611143	0.37548	-0.161217	0.514218	0.167776	0.512385	0.157468	0.575142	0.671417	0.151825	0.172604	0.305756	0.378365	0.022926	-0.022386	0.079427	-0.136365	
0.987587	5.60608	0	0	0.157374	0.127397	0.0184815	0.647981	0.277402	0.634401	-0.057265	0.623614	1.0041	1.20971	0.519898	0.969	0.573145	0.504842	0.460367	0.579948	0.372085	-0.179205	0.506801	0.135538	0.504013	0.129117	0.567994	0.642514	0.139399	0.146179	0.295203	0.35234	0.0168897	-0.0438495	0.0736943	-0.159597	
0.988899	5.59997	0	0	0.154454	0.115216	0.020274	0.633988	0.276178	0.622331	-0.059411	0.608372	1.00455	1.18704	0.512098	0.936768	0.577824	0.48241	0.452883	0.548753	0.36869	-0.197194	0.499383	0.103299	0.49564	0.100766	0.560845	0.613611	0.126973	0.119753	0.28465	0.326315	0.0108535	-0.065313	0.0679615	-0.182829	
0.98919	5.59997	0	0	0.151534	0.103035	0.0220665	0.619995	0.274955	0.610261	-0.061557	0.593129	1.005	1.16438	0.504298	0.904536	0.582503	0.459977	0.4454	0.517558	0.365295	-0.215182	0.491966	0.0710605	0.487268	0.072415	0.553697	0.584709	0.114547	0.0933275	0.274097	0.300291	0.00481725	-0.0867765	0.0622287	-0.20606	
0.988182	5.59692	0	0	0.148614	0.090853	0.023859	0.606003	0.273731	0.598191	-0.063703	0.577887	1.00544	1.14171	0.496498	0.872304	0.587182	0.437544	0.437917	0.486363	0.3619	-0.233171	0.484549	0.038822	0.478896	0.044064	0.546548	0.555806	0.102121	0.066902	0.263544	0.274266	-0.001219	-0.10824	0.056496	-0.229292	
0.98625	5.59692	0	0	0.148614	0.090853	0.019703	0.626675	0.271758	0.603768	-0.0698397	0.588134	1.01249	1.1432	0.499918	0.880714	0.588875	0.441968	0.432449	0.484401	0.364228	-0.232857	0.487893	0.0400003	0.475011	0.055042	0.547208	0.563753	0.108221	0.0672245	0.266404	0.280129	-0.0111315	-0.099457	0.0578655	-0.226596	
0.984194	5.59234	0	0	0.148614	0.090853	0.015547	0.647347	0.269785	0.609344	-0.0759765	0.598381	1.01953	1.14469	0.503337	0.889124	0.590569	0.446392	0.426981	0.48244	0.366556	-0.232544	0.491236	0.0411785	0.471127	0.06602	0.547867	0.5717	0.114322	0.067547	0.269265	0.285992	-0.021044	-0.090674	0.059235	-0.2239	
0.98282	5.59234	0	0	0.148614	0.090853	0.011391	0.668019	0.267812	0.61492	-0.0821132	0.608628	1.02658	1.14618	0.506756	0.897535	0.592262	0.450816	0.421513	0.480478	0.368883	-0.232231	0.49458	0.0423567	0.467243	0.076998	0.548526	0.579648	0.120423	0.0678695	0.272125	0.291854	-0.0309565	-0.081891	0.0606045	-0.221203	
0.982935	5.58777	0	0	0.148614	0.090853	0.007235	0.688691	0.265839	0.620497	-0.08825	0.618875	1.03363	1.14768	0.510176	0.905945	0.593955	0.45524	0.416045	0.478516	0.371211	-0.231917	0.497924	0.043535	0.463358	0.087976	0.549186	0.587595	0.126523	0.068192	0.274985	0.297717	-0.040869	-0.073108	0.061974	-0.218507	
0.985346	5.58014	0	0	0.146983	0.075049	0.006715	0.663393	0.263999	0.602428	-0.08713	0.601524	1.02794	1.12097	0.504069	0.878051	0.59311	0.439215	0.419475	0.451424	0.368647	-0.252224	0.490736	0.0213727	0.458475	0.0602715	0.540748	0.562439	0.116151	0.0448658	0.263548	0.274315	-0.0380565	-0.100268	0.052392	-0.237343	
0.990859	5.57556	0	0	0.145353	0.059245	0.006195	0.638095	0.26216	0.584359	-0.08601	0.584173	1.02225	1.09427	0.497962	0.850157	0.592264	0.423189	0.422905	0.424331	0.366083	-0.272531	0.483548	-0.0007895	0.453592	0.032567	0.532311	0.537282	0.105778	0.0215395	0.252111	0.250914	-0.035244	-0.127428	0.04281	-0.256178	
1.00028	5.57556	0	0	0.143723	0.043441	0.005675	0.612797	0.260321	0.56629	-0.08489	0.566822	1.01655	1.06757	0.491856	0.822263	0.591419	0.407164	0.426334	0.397239	0.363519	-0.292838	0.476361	-0.0229518	0.448708	0.0048625	0.523873	0.512126	0.0954062	-0.00178675	0.240675	0.227512	-0.0324315	-0.154588	0.033228	-0.275014	
1.01425	5.57251	0	0	0.142092	0.027637	0.005155	0.587499	0.258481	0.548221	-0.08377	0.549471	1.01086	1.04087	0.485749	0.794369	0.590574	0.391139	0.429764	0.370147	0.360955	-0.313145	0.469173	-0.045114	0.443825	-0.022842	0.515436	0.48697	0.085034	-0.025113	0.229238	0.20411	-0.029619	-0.181748	0.023646	-0.29385	
1.0311	5.57403	0	0	0.139506	0.0349452	-0.00073925	0.604157	0.259096	0.554237	-0.0904617	0.568383	1.01041	1.04926	0.493081	0.8188	0.591419	0.407164	0.434349	0.392002	0.359069	-0.30093	0.476361	-0.0229517	0.445623	-0.007182	0.523214	0.504179	0.0932682	-0.0133075	0.234067	0.218305	-0.023764	-0.16947	0.0282948	-0.280764	
1.04749	5.57251	0	0	0.13692	0.0422535	-0.0066335	0.620815	0.25971	0.560253	-0.0971535	0.587295	1.00997	1.05765	0.500414	0.84323	0.592264	0.423189	0.438935	0.413856	0.357183	-0.288716	0.483548	-0.0007895	0.447421	0.008478	0.530992	0.521388	0.101502	-0.001502	0.238895	0.2325	-0.017909	-0.157193	0.0329435	-0.267679	
1.06005	5.56793	0	0	0.134334	0.0495618	-0.0125278	0.637474	0.260324	0.56627	-0.103845	0.606207	1.00952	1.06605	0.507746	0.86766	0.59311	0.439215	0.44352	0.435711	0.355297	-0.276501	0.490736	0.0213728	0.449219	0.024138	0.53877	0.538597	0.109737	0.0103035	0.243723	0.246695	-0.012054	-0.144916	0.0375923	-0.254594	
1.06542	5.56793	0	0	0.131748	0.05687	-0.018422	0.654132	0.260939	0.572286	-0.110537	0.625119	1.00907	1.07444	0.515078	0.892091	0.593955	0.45524	0.448106	0.457566	0.353411	-0.264286	0.497924	0.043535	0.451017	0.039798	0.546548	0.555806	0.117971	0.022109	0.248552	0.26089	-0.006199	-0.132638	0.042241	-0.241508	
1.06021	5.5603	0	0	0.132224	0.0453265	-0.0212983	0.635532	0.259709	0.56026	-0.109974	0.616439	1.00244	1.05046	0.508236	0.875297	0.599044	0.440859	0.455934	0.444157	0.356139	-0.27888	0.505656	0.021684	0.451798	0.0168507	0.543276	0.535653	0.117805	0.0050315	0.24318	0.241276	-0.0019615	-0.144613	0.040608	-0.256564	
1.04107	5.56183	0	0	0.132701	0.033783	-0.0241745	0.616932	0.258478	0.548235	-0.109411	0.607759	0.995815	1.02649	0.501394	0.858504	0.604132	0.426478	0.463761	0.430749	0.358866	-0.293473	0.513387	-0.000167	0.452578	-0.0060965	0.540004	0.515499	0.117639	-0.012046	0.237809	0.221663	0.002276	-0.156589	0.038975	-0.27162	
1.00461	5.55878	0	0	0.133178	0.0222395	-0.0270507	0.598332	0.257248	0.53621	-0.108848	0.599079	0.989187	1.00252	0.494551	0.841711	0.60922	0.412097	0.471589	0.417341	0.361594	-0.308067	0.521119	-0.022018	0.453358	-0.0290438	0.536732	0.495346	0.117473	-0.0291235	0.232437	0.202049	0.0065135	-0.168564	0.037342	-0.286677	
0.94829	5.5603	0	0	0.133654	0.010696	-0.029927	0.579732	0.256018	0.524184	-0.108285	0.590399	0.98256	0.978541	0.487709	0.824917	0.614309	0.397716	0.479417	0.403932	0.364322	-0.32266	0.528851	-0.043869	0.454139	-0.051991	0.53346	0.475193	0.117307	-0.046201	0.227066	0.182435	0.010751	-0.180539	0.035709	-0.301733	
0.87796	5.55725	0	0	0.135763	0.0149313	-0.0323338	0.604348	0.25565	0.532975	-0.11172	0.607197	0.982116	0.986906	0.495036	0.849385	0.617704	0.406554	0.485288	0.422235	0.367935	-0.31221	0.536065	-0.0216847	0.458136	-0.0321653	0.535447	0.498977	0.12762	-0.0314507	0.233326	0.199538	0.0233658	-0.16805	0.037342	-0.286677	
0.804359	5.55115	0	0	0.137873	0.0191665	-0.0347405	0.628965	0.255281	0.541766	-0.115155	0.623994	0.981672	0.995272	0.502363	0.873854	0.621099	0.415392	0.491159	0.440537	0.371548	-0.301759	0.543279	0.0004995	0.462132	-0.0123395	0.537435	0.522762	0.137933	-0.0167005	0.239586	0.216642	0.0359805	-0.15556	0.038975	-0.27162	
0.738292	5.5542	0	0	0.139983	0.0234017	-0.0371472	0.653581	0.254912	0.550557	-0.118591	0.640791	0.981229	1.00364	0.509689	0.898322	0.624494	0.424229	0.497031	0.45884	0.37516	-0.291308	0.550494	0.0226837	0.466129	0.00748625	0.539422	0.546547	0.148247	-0.00195025	0.245845	0.233745	0.0485953	-0.14307	0.040608	-0.256564	
0.690565	5.5542	0	0	0.142092	0.027637	-0.039554	0.678197	0.254544	0.559348	-0.122026	0.657589	0.980785	1.012	0.517016	0.92279	0.627889	0.433067	0.502902	0.477142	0.378773	-0.280858	0.557708	0.044868	0.470125	0.027312	0.541409	0.570331	0.15856	0.0128	0.252105	0.250848	0.06121	-0.130581	0.042241	-0.241508	
0.671893	5.54809	0	0	0.139983	0.0234017	-0.0476927	0.665586	0.255895	0.547779	-0.119547	0.643493	0.976985	0.994315	0.514333	0.903254	0.627463	0.425051	0.50124	0.464383	0.37516	-0.291308	0.555648	0.02939	0.468322	0.0116555	0.53686	0.553786	0.153359	0.00114925	0.24496	0.236247	0.0599578	-0.136681	0.0419773	-0.253879	
0.686673	5.54657	0	0	0.137873	0.0191665	-0.0558315	0.652974	0.257247	0.53621	-0.117067	0.629398	0.973186	0.976628	0.511651	0.883717	0.627038	0.417036	0.499578	0.451624	0.371548	-0.301759	0.553589	0.013912	0.466519	-0.004001	0.532311	0.537242	0.148157	-0.0105015	0.237815	0.221647	0.0587055	-0.14278	0.0417135	-0.266251	
0.728939	5.54352	0	0	0.135763	0.0149313	-0.0639703	0.640362	0.258599	0.52464	-0.114588	0.615302	0.969386	0.958941	0.508968	0.864181	0.626612	0.40902	0.497917	0.438864	0.367935	-0.31221	0.55153	-0.001566	0.464715	-0.0196575	0.527761	0.520698	0.142956	-0.0221522	0.230669	0.207046	0.0574532	-0.148879	0.0414498	-0.278622	
0.79176	5.54199	0	0	0.133654	0.010696	-0.072109	0.627751	0.25995	0.513071	-0.112109	0.601206	0.965586	0.941254	0.506285	0.844645	0.626186	0.401004	0.496255	0.426105	0.364322	-0.32266	0.54947	-0.017044	0.462912	-0.035314	0.523212	0.504153	0.137755	-0.033803	0.223524	0.192445	0.056201	-0.154979	0.041186	-0.290993	
0.868205	5.54504	0	0	0.13107	0.017998	-0.0680707	0.643042	0.26155	0.516298	-0.112673	0.609889	0.96983	0.950576	0.508483	0.856506	0.624914	0.404599	0.494982	0.429704	0.365807	-0.319972	0.552823	-0.0158735	0.465106	-0.0311405	0.525818	0.516386	0.139902	-0.0223085	0.226923	0.203707	0.0608295	-0.148778	0.0452953	-0.282928	
0.951343	5.54504	0	0	0.128487	0.0253	-0.0640325	0.658333	0.263151	0.519524	-0.113237	0.618572	0.974073	0.959898	0.510682	0.868368	0.623642	0.408193	0.493708	0.433303	0.367292	-0.317285	0.556175	-0.014703	0.467299	-0.026967	0.528423	0.528618	0.142049	-0.010814	0.230322	0.214969	0.065458	-0.142577	0.0494045	-0.274863	
1.03425	5.54047	0	0	0.125903	0.032602	-0.0599942	0.673624	0.264751	0.522751	-0.113802	0.627256	0.978317	0.969219	0.51288	0.880229	0.622371	0.411787	0.492434	0.436901	0.368777	-0.314598	0.559528	-0.0135325	0.469493	-0.0227935	0.531029	0.540851	0.144197	0.0006805	0.233722	0.226231	0.0700865	-0.136377	0.0535137	-0.266798	
1.10998	5.54047	0	0	0.123319	0.039904	-0.055956	0.688915	0.266351	0.525978	-0.114366	0.635939	0.98256	0.978541	0.515078	0.892091	0.621099	0.415382	0.491161	0.4405	0.370262	-0.31191	0.562881	-0.012362	0.471687	-0.01862	0.533634	0.553084	0.146344	0.012175	0.237121	0.237493	0.074715	-0.130176	0.057623	-0.258733	
1.17162	5.53894	0	0	0.126373	0.0210805	-0.0617332	0.669646	0.272247	0.509316	-0.113241	0.618585	0.986761	0.973779	0.500417	0.888373	0.618974	0.402964	0.481282	0.424853	0.368974	-0.322036	0.555654	-0.0344853	0.468589	-0.0306043	0.531029	0.540851	0.142134	-0.0022655	0.233722	0.226231	0.0688335	-0.142469	0.0557078	-0.266441	
1.21223	5.53131	0	0	0.129428	0.002257	-0.0675105	0.650377	0.278142	0.492655	-0.112116	0.601231	0.990962	0.969016	0.485756	0.884655	0.616849	0.390547	0.471402	0.409205	0.367686	-0.332162	0.548426	-0.0566085	0.46549	-0.0425885	0.528423	0.528618	0.137924	-0.016706	0.230322	0.214969	0.062952	-0.154761	0.0537925	-0.274149	
1.22523	5.53284	0	0	0.132482	-0.0165665	-0.0732877	0.631108	0.284037	0.475994	-0.110991	0.583876	0.995163	0.964254	0.471094	0.880937	0.614724	0.37813	0.461523	0.393558	0.366398	-0.342288	0.541199	-0.0787318	0.462392	-0.0545728	0.525818	0.516386	0.133714	-0.0311465	0.226923	0.203707	0.0570705	-0.167054	0.0518772	-0.281857	
1.21082	5.53284	0	0	0.135536	-0.03539	-0.079065	0.611839	0.289933	0.459332	-0.109866	0.566522	0.999364	0.959492	0.456433	0.877219	0.612599	0.365712	0.451643	0.37791	0.36511	-0.352414	0.533972	-0.100855	0.459293	-0.066557	0.523212	0.504153	0.129504	-0.045587	0.223524	0.192445	0.051189	-0.179347	0.049962	-0.289565	
1.17538	5.52826	0	0	0.122503	-0.079892	-0.0975745	0.522442	0.282039	0.396574	-0.121612	0.49375	0.976566	0.882229	0.430071	0.781132	0.593846	0.290258	0.423527	0.284106	0.347026	-0.404229	0.500473	-0.175411	0.436264	-0.14602	0.500406	0.422294	0.110475	-0.114229	0.200796	0.125047	0.036511	-0.233923	0.0283337	-0.339599	
1.12552	5.52978	0	0	0.10947	-0.124394	-0.116084	0.433045	0.274146	0.333817	-0.133358	0.420978	0.953767	0.804967	0.403709	0.685045	0.575093	0.214803	0.395412	0.190303	0.328942	-0.456044	0.466975	-0.249967	0.413235	-0.225483	0.477599	0.340435	0.091445	-0.18287	0.178068	0.0576495	0.021833	-0.288498	0.0067055	-0.389634	
1.06783	5.52673	0	0	0.096437	-0.168896	-0.134593	0.343648	0.266253	0.271059	-0.145104	0.348206	0.930969	0.727704	0.377347	0.588959	0.55634	0.139349	0.367296	0.0964988	0.310858	-0.507859	0.433476	-0.324524	0.390207	-0.304945	0.454792	0.258576	0.0724155	-0.251512	0.15534	-0.00974825	0.007155	-0.343074	-0.0149228	-0.439668	
1.00892	5.52826	0	0	0.083404	-0.213398	-0.153103	0.254251	0.258359	0.208301	-0.15685	0.275434	0.908171	0.650442	0.350985	0.492872	0.537587	0.063895	0.33918	0.002695	0.292774	-0.559674	0.399977	-0.39908	0.367178	-0.384408	0.431986	0.176717	0.053386	-0.320154	0.132612	-0.077146	-0.007523	-0.39765	-0.036551	-0.489702	
0.95539	5.52215	0	0	0.0661208	-0.295969	-0.195694	0.103094	0.237121	0.106996	-0.18775	0.159584	0.865205	0.505586	0.313982	0.313624	0.49781	-0.068945	0.279307	-0.16139	0.261522	-0.641636	0.342254	-0.518077	0.323441	-0.506011	0.388946	0.047436	0.0114893	-0.366615	0.0837055	-0.10388	-0.0462362	-0.431405	-0.0657005	-0.511339	
0.913841	5.52826	0	0	0.0488375	-0.37854	-0.238286	-0.048064	0.215882	0.0056905	-0.218649	0.043733	0.822238	0.36073	0.276979	0.134377	0.458033	-0.201785	0.219434	-0.325476	0.230269	-0.723598	0.28453	-0.637075	0.279703	-0.627614	0.345906	-0.081845	-0.0304075	-0.413077	0.034799	-0.130613	-0.0849495	-0.46516	-0.09485	-0.532976	
0.888298	5.52368	0	0	0.0315543	-0.461111	-0.280878	-0.199221	0.194643	-0.0956147	-0.249549	-0.0721175	0.779272	0.215874	0.239975	-0.0448712	0.418255	-0.334625	0.159561	-0.489561	0.199017	-0.805559	0.226807	-0.756073	0.235965	-0.749218	0.302866	-0.211126	-0.0723043	-0.459539	-0.0141075	-0.157347	-0.123663	-0.498915	-0.124	-0.554612	
0.876667	5.52673	0	0	0.014271	-0.543682	-0.323469	-0.350379	0.173405	-0.19692	-0.280449	-0.187968	0.736306	0.071018	0.202972	-0.224119	0.378478	-0.467465	0.099688	-0.653647	0.167765	-0.887521	0.169083	-0.87507	0.192228	-0.870821	0.259826	-0.340407	-0.114201	-0.506	-0.063014	-0.184081	-0.162376	-0.53267	-0.153149	-0.576249	
0.875957	5.52521	0	0	0.00834075	-0.567171	-0.326445	-0.368037	0.174958	-0.2166	-0.278544	-0.207284	0.726924	0.0558355	0.200707	-0.235314	0.352449	-0.492904	0.082811	-0.682025	0.165626	-0.895032	0.168765	-0.884539	0.187558	-0.867769	0.261061	-0.343896	-0.109144	-0.503007	-0.0593173	-0.180839	-0.16571	-0.532752	-0.156398	-0.567068	
0.883177	5.52368	0	0	0.0024105	-0.590661	-0.329421	-0.385695	0.176511	-0.23628	-0.276639	-0.226599	0.717541	0.040653	0.198441	-0.246508	0.32642	-0.518343	0.065934	-0.710403	0.163488	-0.902543	0.168448	-0.894008	0.182888	-0.864718	0.262295	-0.347385	-0.104086	-0.500013	-0.0556205	-0.177597	-0.169044	-0.532835	-0.159646	-0.557887	
0.895338	5.52215	0	0	-0.00351975	-0.614151	-0.332396	-0.403354	0.178063	-0.25596	-0.274733	-0.245915	0.708158	0.0254705	0.196176	-0.257703	0.300391	-0.543782	0.049057	-0.738781	0.161349	-0.910053	0.16813	-0.903477	0.178217	-0.861666	0.263529	-0.350874	-0.0990292	-0.49702	-0.0519237	-0.174355	-0.172378	-0.532918	-0.162894	-0.548707	
0.909449	5.5191	0	0	-0.00945	-0.63764	-0.335372	-0.421012	0.179616	-0.27564	-0.272828	-0.26523	0.698776	0.010288	0.193911	-0.268897	0.274362	-0.569221	0.03218	-0.767159	0.15921	-0.917564	0.167812	-0.912946	0.173547	-0.858614	0.264764	-0.354363	-0.093972	-0.494026	-0.048227	-0.171113	-0.175712	-0.533	-0.166143	-0.539526	
0.922519	5.513	0	0	-0.0056815	-0.648291	-0.33312	-0.427375	0.187314	-0.274454	-0.265933	-0.277751	0.710311	0.0124303	0.197406	-0.278774	0.272665	-0.5734	0.0399485	-0.772235	0.157899	-0.893521	0.162488	-0.877158	0.168864	-0.81492	0.251849	-0.308273	-0.0802895	-0.446024	-0.0370217	-0.127303	-0.163826	-0.499953	-0.155815	-0.503773	
0.931854	5.51605	0	0	-0.001913	-0.658942	-0.330869	-0.433738	0.195013	-0.273268	-0.259039	-0.290273	0.721847	0.0145725	0.2009	-0.288651	0.270969	-0.577579	0.047717	-0.777311	0.156587	-0.869478	0.157163	-0.841369	0.164181	-0.771226	0.238933	-0.262184	-0.066607	-0.398022	-0.0258165	-0.083493	-0.15194	-0.466905	-0.145486	-0.46802	
0.937122	5.51147	0	0	0.0018555	-0.669592	-0.328618	-0.440101	0.202711	-0.272082	-0.252144	-0.302794	0.733382	0.0167148	0.204395	-0.298528	0.269272	-0.581758	0.0554855	-0.782387	0.155276	-0.845435	0.151838	-0.805581	0.159497	-0.727532	0.226018	-0.216094	-0.0529245	-0.350019	-0.0146112	-0.039683	-0.140054	-0.433858	-0.135157	-0.432268	
0.939123	5.513	0	0	0.005624	-0.680243	-0.326366	-0.446464	0.210409	-0.270896	-0.245249	-0.315315	0.744917	0.018857	0.20789	-0.308405	0.267575	-0.585937	0.063254	-0.787463	0.153965	-0.821392	0.146514	-0.769792	0.154814	-0.683838	0.213102	-0.170005	-0.039242	-0.302017	-0.003406	0.004127	-0.128168	-0.400811	-0.124829	-0.396515	
0.938664	5.513	0	0	0.019181	-0.648062	-0.31291	-0.40618	0.235611	-0.226982	-0.230257	-0.280906	0.774732	0.081228	0.225634	-0.261567	0.296727	-0.533259	0.110619	-0.726111	0.172365	-0.785007	0.182179	-0.724747	0.180964	-0.635406	0.230502	-0.132662	-0.0165715	-0.261547	0.0148075	0.0284367	-0.10497	-0.361171	-0.109586	-0.374426	
0.936552	5.5069	0	0	0.032738	-0.615882	-0.299453	-0.365897	0.260813	-0.183068	-0.215265	-0.246497	0.804547	0.143599	0.243378	-0.214728	0.325879	-0.480581	0.157983	-0.664759	0.190765	-0.748623	0.217844	-0.679701	0.207115	-0.586974	0.247903	-0.095319	0.006099	-0.221076	0.033021	0.0527465	-0.081771	-0.32153	-0.094342	-0.352336	
0.933594	5.5069	0	0	0.046295	-0.583702	-0.285997	-0.325613	0.286015	-0.139153	-0.200274	-0.212088	0.834361	0.20597	0.261123	-0.16789	0.355032	-0.427902	0.205348	-0.603407	0.209165	-0.712238	0.253508	-0.634656	0.233265	-0.538542	0.265304	-0.057976	0.0287695	-0.180606	0.0512345	0.0770563	-0.0585725	-0.28189	-0.0790985	-0.330246	
0.930598	5.50232	0	0	0.059852	-0.551521	-0.272541	-0.285329	0.311217	-0.095239	-0.185282	-0.177679	0.864176	0.268341	0.278867	-0.121052	0.384184	-0.375224	0.252713	-0.542055	0.227565	-0.675854	0.289173	-0.589611	0.259415	-0.49011	0.282704	-0.020633	0.05144	-0.140135	0.069448	0.101366	-0.035374	-0.24225	-0.063855	-0.308157	
0.928365	5.49927	0	0	0.0729825	-0.538112	-0.271408	-0.288532	0.32611	-0.0756295	-0.172396	-0.186099	0.8759	0.333605	0.266325	-0.0590675	0.401664	-0.324948	0.269269	-0.486175	0.242663	-0.629716	0.308707	-0.539944	0.281821	-0.430287	0.299547	0.0283728	0.0763935	-0.079151	0.0903917	0.15296	-0.0163608	-0.190184	-0.0412112	-0.267403	
0.927373	5.50079	0	0	0.086113	-0.524704	-0.270274	-0.291735	0.341004	-0.05602	-0.15951	-0.19452	0.887625	0.39887	0.253783	0.002917	0.419143	-0.274672	0.285824	-0.430295	0.257761	-0.583579	0.328242	-0.490276	0.304226	-0.370463	0.316389	0.0773785	0.101347	-0.018167	0.111336	0.204554	0.0026525	-0.138119	-0.0185675	-0.226649	
0.927612	5.50079	0	0	0.0992435	-0.511296	-0.269141	-0.294937	0.355897	-0.0364105	-0.146624	-0.20294	0.899349	0.464134	0.24124	0.0649015	0.436623	-0.224397	0.30238	-0.374416	0.27286	-0.537441	0.347776	-0.440608	0.326631	-0.310639	0.333232	0.126384	0.1263	0.042817	0.132279	0.256148	0.0216658	-0.0860528	0.00407625	-0.185894	
0.929034	5.49927	0	0	0.112374	-0.497887	-0.268008	-0.29814	0.37079	-0.016801	-0.133738	-0.21136	0.911073	0.529399	0.228698	0.126886	0.454102	-0.174121	0.318935	-0.318536	0.287958	-0.491303	0.36731	-0.390941	0.349037	-0.250816	0.350075	0.17539	0.151254	0.103801	0.153223	0.307742	0.040679	-0.033987	0.02672	-0.14514	
0.931588	5.49774	0	0	0.130643	-0.468406	-0.262611	-0.252254	0.389304	0.02381	-0.115878	-0.184623	0.948385	0.586743	0.247489	0.171414	0.4851	-0.115785	0.360027	-0.253625	0.302791	-0.46462	0.394511	-0.362347	0.3735	-0.216705	0.368109	0.20207	0.166772	0.130464	0.172791	0.322017	0.0545505	-0.0152258	0.0387757	-0.133197	
0.935226	5.49316	0	0	0.148913	-0.438926	-0.257213	-0.206369	0.407818	0.064421	-0.098018	-0.157886	0.985698	0.644087	0.266279	0.215943	0.516097	-0.0574485	0.401118	-0.188714	0.317624	-0.437937	0.421712	-0.333752	0.397963	-0.182595	0.386143	0.22875	0.182289	0.157126	0.192358	0.336292	0.068422	0.0035355	0.0508315	-0.121255	
0.939897	5.49316	0	0	0.167183	-0.409445	-0.251816	-0.160484	0.426333	0.105032	-0.080158	-0.131148	1.02301	0.701431	0.28507	0.260471	0.547095	0.00088775	0.442209	-0.123803	0.332456	-0.411253	0.448912	-0.305157	0.422426	-0.148484	0.404178	0.25543	0.197807	0.183788	0.211926	0.350568	0.0822935	0.0222967	0.0628873	-0.109312	
0.945552	5.49316	0	0	0.185452	-0.379964	-0.246418	-0.114598	0.444847	0.145643	-0.062298	-0.104411	1.06032	0.758775	0.30386	0.304999	0.578093	0.059224	0.483301	-0.058892	0.347289	-0.38457	0.476113	-0.276563	0.446889	-0.114374	0.422212	0.28211	0.213325	0.210451	0.231494	0.364843	0.096165	0.041058	0.074943	-0.09737	
0.952127	5.49316	0	0	0.177357	-0.346923	-0.262418	-0.0518753	0.43671	0.176404	-0.082284	-0.0690173	1.06338	0.80709	0.317349	0.356081	0.586248	0.100387	0.495635	-0.00691625	0.355802	-0.353564	0.477199	-0.237278	0.453596	-0.0711067	0.431357	0.334238	0.228936	0.245986	0.254696	0.404127	0.115954	0.072415	0.0877995	-0.0677733	
0.959431	5.49164	0	0	0.169262	-0.313882	-0.278417	0.0108475	0.428573	0.207166	-0.10227	-0.0336235	1.06644	0.855406	0.330838	0.407162	0.594403	0.141551	0.507969	0.0450595	0.364314	-0.322558	0.478286	-0.197993	0.460304	-0.0278395	0.440502	0.386365	0.244546	0.281522	0.277897	0.443411	0.135744	0.103772	0.100656	-0.0381765	
0.967211	5.49164	0	0	0.161168	-0.280841	-0.294417	0.0735702	0.420436	0.237927	-0.122256	0.00177025	1.0695	0.903721	0.344327	0.458244	0.602558	0.182715	0.520302	0.0970353	0.372827	-0.291551	0.479372	-0.158707	0.467012	0.0154277	0.449647	0.438493	0.260157	0.317057	0.301098	0.482695	0.155533	0.135129	0.113513	-0.00857975	
0.975213	5.48859	0	0	0.153073	-0.2478	-0.310417	0.136293	0.412299	0.268688	-0.142242	0.037164	1.07256	0.952036	0.357816	0.509325	0.610713	0.223878	0.532636	0.149011	0.38134	-0.260545	0.480458	-0.119422	0.473719	0.058695	0.458792	0.49062	0.275768	0.352593	0.3243	0.521979	0.175322	0.166486	0.126369	0.021017	
0.983186	5.48706	0	0	0.155582	-0.224367	-0.296566	0.167335	0.421039	0.290649	-0.129042	0.063199	1.09004	0.966924	0.372194	0.531389	0.627713	0.240266	0.551054	0.175455	0.384951	-0.250059	0.492029	-0.120294	0.482892	0.0639612	0.469109	0.50057	0.278845	0.352768	0.326259	0.530466	0.175322	0.166486	0.132987	0.022138	
0.990875	5.48248	0	0	0.158092	-0.200934	-0.282716	0.198377	0.429779	0.31261	-0.115842	0.089234	1.10752	0.981812	0.386572	0.553452	0.644713	0.256654	0.569473	0.2019	0.388563	-0.239573	0.503601	-0.121167	0.492065	0.0692275	0.479427	0.51052	0.281923	0.352942	0.328219	0.538954	0.175322	0.166486	0.139605	0.023259	
0.998029	5.48553	0	0	0.160602	-0.177501	-0.268865	0.229419	0.438519	0.334571	-0.102641	0.115269	1.12499	0.996701	0.400949	0.575515	0.661713	0.273042	0.587891	0.228345	0.392174	-0.229088	0.515172	-0.122039	0.501237	0.0744937	0.489745	0.520469	0.285	0.353117	0.330178	0.547442	0.175322	0.166486	0.146224	0.02438	
1.00439	5.49011	0	0	0.163111	-0.154068	-0.255014	0.260461	0.447259	0.356532	-0.089441	0.141304	1.14247	1.01159	0.415327	0.597579	0.678713	0.28943	0.606309	0.254789	0.395785	-0.218602	0.526743	-0.122911	0.51041	0.07976	0.500062	0.530419	0.288077	0.353292	0.332138	0.555929	0.175322	0.166486	0.152842	0.025501	
1.00973	5.49011	0	0	0.166061	-0.142026	-0.248702	0.304252	0.448185	0.377289	-0.0804233	0.172302	1.15393	1.0509	0.427562	0.652937	0.683431	0.322258	0.606084	0.299178	0.408734	-0.206829	0.529074	-0.0976145	0.522697	0.097134	0.515598	0.564978	0.297436	0.371263	0.348397	0.594354	0.177811	0.178905	0.167408	0.0505717	
1.01399	5.49164	0	0	0.169011	-0.129985	-0.24239	0.348043	0.449111	0.398046	-0.0714055	0.203301	1.16539	1.09021	0.439797	0.708295	0.688148	0.355086	0.605859	0.343567	0.421683	-0.195056	0.531405	-0.072318	0.534984	0.114508	0.531133	0.599536	0.306795	0.389235	0.364656	0.632779	0.1803	0.191325	0.181974	0.0756425	
1.0172	5.49011	0	0	0.17196	-0.117943	-0.236077	0.391834	0.450038	0.418803	-0.0623878	0.234299	1.17685	1.12952	0.452031	0.763653	0.692865	0.387914	0.605634	0.387956	0.434633	-0.183284	0.533736	-0.0470215	0.547272	0.131882	0.546669	0.634095	0.316153	0.407207	0.380914	0.671203	0.182788	0.203744	0.19654	0.100713	
1.0194	5.49164	0	0	0.17491	-0.105901	-0.229765	0.435625	0.450964	0.43956	-0.05337	0.265298	1.18831	1.16883	0.464266	0.819011	0.697583	0.420742	0.605409	0.432345	0.447582	-0.171511	0.536067	-0.021725	0.559559	0.149256	0.562205	0.668654	0.325512	0.425178	0.397173	0.709628	0.185277	0.216163	0.211106	0.125784	
1.02063	5.49164	0	0	0.178316	-0.105329	-0.215923	0.467191	0.459415	0.446887	-0.035517	0.292789	1.20493	1.1866	0.481618	0.842235	0.711224	0.428466	0.626812	0.468475	0.446298	-0.181717	0.537612	-0.0260932	0.553359	0.125088	0.565439	0.669345	0.324388	0.410575	0.395742	0.706626	0.174753	0.197312	0.216911	0.129295	
1.02092	5.48859	0	0	0.181722	-0.104758	-0.202081	0.498758	0.467866	0.454214	-0.017664	0.32028	1.22155	1.20438	0.49897	0.865459	0.724864	0.436191	0.648216	0.504605	0.445015	-0.191922	0.539158	-0.0304615	0.547158	0.10092	0.568674	0.670036	0.323263	0.395973	0.394311	0.703624	0.16423	0.17846	0.222716	0.132806	
1.02032	5.48553	0	0	0.185128	-0.104187	-0.18824	0.530324	0.476318	0.461541	0.000189	0.347771	1.23818	1.22216	0.516322	0.888682	0.738504	0.443916	0.66962	0.540735	0.443732	-0.202127	0.540704	-0.0348297	0.540957	0.076752	0.571908	0.670726	0.322138	0.38137	0.39288	0.700622	0.153706	0.159609	0.228521	0.136316	
1.01887	5.48706	0	0	0.188534	-0.103615	-0.174398	0.561891	0.484769	0.468868	0.018042	0.375262	1.2548	1.23994	0.533674	0.911906	0.752145	0.45164	0.691023	0.576865	0.442448	-0.212333	0.542249	-0.039198	0.534757	0.052584	0.575142	0.671417	0.321014	0.366767	0.391449	0.69762	0.143182	0.140758	0.234326	0.139827	
1.0166	5.48706	0	0	0.179608	-0.108965	-0.161722	0.597023	0.479202	0.476794	0.0233727	0.40285	1.26103	1.27288	0.535309	0.961665	0.748309	0.46248	0.689373	0.625612	0.437573	-0.205468	0.543011	-0.009413	0.52169	0.058307	0.571264	0.702055	0.321073	0.375489	0.396788	0.717786	0.137641	0.146713	0.243115	0.161544	
1.01367	5.48859	0	0	0.170682	-0.114314	-0.149046	0.632154	0.473635	0.48472	0.0287035	0.430439	1.26725	1.30581	0.536944	1.01143	0.744474	0.473321	0.687723	0.67436	0.432698	-0.198603	0.543773	0.020372	0.508622	0.06403	0.567387	0.732692	0.321132	0.38421	0.402128	0.737952	0.132101	0.152668	0.251904	0.18326	
1.01034	5.48706	0	0	0.161756	-0.119664	-0.136371	0.667285	0.468067	0.492646	0.0340343	0.458027	1.27347	1.33875	0.53858	1.06118	0.740638	0.484162	0.686073	0.723108	0.427823	-0.191739	0.544536	0.050157	0.495555	0.069753	0.563509	0.76333	0.321191	0.392931	0.407467	0.758118	0.12656	0.158624	0.260694	0.204977	
1.00685	5.49011	0	0	0.15283	-0.125013	-0.123695	0.702417	0.4625	0.500572	0.039365	0.485615	1.2797	1.37168	0.540215	1.11094	0.736802	0.495002	0.684423	0.771855	0.422948	-0.184874	0.545298	0.079942	0.482488	0.075476	0.559631	0.793968	0.32125	0.401653	0.412807	0.778284	0.121019	0.164579	0.269483	0.226693	
1.00346	5.49164	0	0	0.156685	-0.135906	-0.103994	0.735813	0.464749	0.509835	0.055491	0.504206	1.28875	1.38228	0.552466	1.12176	0.745766	0.497489	0.716613	0.795991	0.421666	-0.195069	0.548651	0.081124	0.47243	0.062371	0.555754	0.785246	0.318047	0.384051	0.40008	0.764914	0.11712	0.136834	0.269794	0.219157	
1.00041	5.49164	0	0	0.160539	-0.1468	-0.084292	0.769208	0.466998	0.519099	0.071617	0.522796	1.2978	1.39287	0.564717	1.13258	0.75473	0.499976	0.748803	0.820127	0.420384	-0.205263	0.552004	0.082306	0.462373	0.049266	0.551878	0.776523	0.314845	0.366448	0.387352	0.751543	0.113222	0.10909	0.270104	0.21162	
0.997952	5.48859	0	0	0.164393	-0.157693	-0.0645905	0.802604	0.469247	0.528363	0.087743	0.541387	1.30685	1.40347	0.576968	1.14339	0.763694	0.502462	0.780993	0.844264	0.419103	-0.215458	0.555357	0.083488	0.452315	0.036161	0.548001	0.767801	0.311642	0.348846	0.374625	0.738172	0.109323	0.0813455	0.270415	0.204084	
0.996345	5.49164	0	0	0.168248	-0.168586	-0.044889	0.836	0.471496	0.537626	0.103869	0.559978	1.3159	1.41406	0.589219	1.15421	0.772658	0.504949	0.813183	0.8684	0.417821	-0.225653	0.55871	0.08467	0.442258	0.023056	0.544124	0.759079	0.30844	0.331244	0.361898	0.724802	0.105424	0.053601	0.270726	0.196548	
0.995817	5.49164	0	0	0.159331	-0.173909	-0.042712	0.865598	0.465655	0.53071	0.0981063	0.576265	1.31114	1.42751	0.589375	1.18108	0.762414	0.506078	0.808299	0.899974	0.418463	-0.220558	0.549143	0.10105	0.437086	0.0376722	0.54411	0.778797	0.310576	0.342972	0.364754	0.730814	0.091898	0.0531455	0.274545	0.2124	
0.996351	5.49164	0	0	0.150413	-0.179233	-0.040535	0.895196	0.459814	0.523794	0.0923435	0.592552	1.30638	1.44096	0.589532	1.20796	0.752171	0.507208	0.803416	0.931547	0.419104	-0.215464	0.539575	0.117431	0.431914	0.0522885	0.544096	0.798515	0.312712	0.3547	0.36761	0.736826	0.078372	0.05269	0.278365	0.228252	
0.997738	5.49164	0	0	0.141495	-0.184557	-0.038358	0.924793	0.453973	0.516877	0.0865807	0.608838	1.30163	1.4544	0.589688	1.23484	0.741927	0.508337	0.798533	0.963121	0.419745	-0.210369	0.530007	0.133811	0.426743	0.0669047	0.544082	0.818234	0.314848	0.366428	0.370466	0.742838	0.064846	0.0522345	0.282184	0.244105	
0.999762	5.49469	0	0	0.132578	-0.18988	-0.036181	0.954391	0.448132	0.509961	0.080818	0.625125	1.29687	1.46785	0.589844	1.26171	0.731684	0.509467	0.793649	0.994695	0.420387	-0.205274	0.52044	0.150192	0.421571	0.081521	0.544068	0.837952	0.316984	0.378156	0.373322	0.74885	0.05132	0.051779	0.286003	0.259957	
1.00221	5.49774	0	0	0.13854	-0.19656	-0.0239275	0.964544	0.44687	0.497928	0.0868368	0.629552	1.294	1.447	0.591088	1.2582	0.73509	0.490577	0.804624	0.990368	0.415285	-0.218469	0.510163	0.136664	0.414125	0.0611292	0.53374	0.827804	0.307623	0.360232	0.361378	0.719314	0.0442215	0.0332377	0.278277	0.24849	
1.00487	5.49469	0	0	0.144503	-0.203241	-0.011674	0.974697	0.445608	0.485896	0.0928555	0.63398	1.29114	1.42614	0.592332	1.25468	0.738496	0.471687	0.8156	0.986042	0.410183	-0.231663	0.499885	0.123136	0.406678	0.0407375	0.523413	0.817655	0.298263	0.342307	0.349433	0.689777	0.037123	0.0146965	0.270551	0.237023	
1.00753	5.49316	0	0	0.150465	-0.209921	0.0005795	0.984851	0.444346	0.473863	0.0988742	0.638407	1.28828	1.40529	0.593575	1.25117	0.741902	0.452797	0.826575	0.981715	0.40508	-0.244858	0.489608	0.109609	0.399232	0.0203457	0.513085	0.807507	0.288903	0.324383	0.337489	0.660241	0.0300245	-0.00384475	0.262825	0.225556	
1.00997	5.49621	0	0	0.156427	-0.216602	0.012833	0.995004	0.443084	0.46183	0.104893	0.642834	1.28542	1.38444	0.594819	1.24765	0.745308	0.433907	0.83755	0.977388	0.399978	-0.258053	0.479331	0.096081	0.391786	-4.6E-05	0.502757	0.797358	0.279542	0.306459	0.325545	0.630705	0.022926	-0.022386	0.255099	0.214089	
1.01198	5.49621	0	0	0.14835	-0.214108	0.00565125	1.0153	0.423982	0.438013	0.0923028	0.642701	1.25882	1.35864	0.581002	1.25938	0.728262	0.41736	0.809739	0.967166	0.392147	-0.256603	0.467764	0.0969045	0.382266	0.0061745	0.495647	0.807632	0.280609	0.31231	0.316236	0.628952	0.0140565	-0.0165905	0.257006	0.222013	
1.01345	5.50232	0	0	0.140273	-0.211614	-0.0015305	1.0356	0.40488	0.414196	0.0797125	0.642567	1.23223	1.33284	0.567186	1.27111	0.711216	0.400813	0.781927	0.956944	0.384315	-0.255153	0.456198	0.097728	0.372746	0.012395	0.488537	0.817905	0.281676	0.31816	0.306927	0.627199	0.005187	-0.010795	0.258913	0.229938	
1.01436	5.50232	0	0	0.132195	-0.209119	-0.00871225	1.05589	0.385779	0.390378	0.0671222	0.642434	1.20564	1.30704	0.553369	1.28284	0.694171	0.384267	0.754116	0.946722	0.376483	-0.253704	0.444631	0.0985515	0.363227	0.0186155	0.481426	0.828178	0.282744	0.324011	0.297618	0.625447	-0.0036825	-0.0049995	0.26082	0.237862	
1.01467	5.50842	0	0	0.124118	-0.206625	-0.015894	1.07619	0.366677	0.366561	0.054532	0.642301	1.17905	1.28124	0.539553	1.29457	0.677125	0.36772	0.726305	0.9365	0.368652	-0.252254	0.433064	0.099375	0.353707	0.024836	0.474316	0.838452	0.283811	0.329862	0.288309	0.623694	-0.012552	0.000796	0.262727	0.245786	
1.01437	5.50842	0	0	0.11266	-0.204702	-0.0040425	1.06064	0.358956	0.341857	0.0490857	0.62917	1.15536	1.23348	0.532295	1.26965	0.667335	0.349296	0.70495	0.899638	0.362918	-0.270472	0.42234	0.0661135	0.344104	0.00036625	0.464043	0.808667	0.273393	0.306164	0.272126	0.585498	-0.01857	-0.0206792	0.253945	0.224051	
1.01343	5.5069	0	0	0.101202	-0.202779	0.007809	1.04509	0.351235	0.317152	0.0436395	0.616038	1.13167	1.18571	0.525037	1.24472	0.657545	0.330871	0.683594	0.862776	0.357185	-0.28869	0.411616	0.032852	0.334502	-0.0241035	0.453771	0.778882	0.262975	0.282467	0.255943	0.547303	-0.024588	-0.0421545	0.245163	0.202315	
1.01182	5.50537	0	0	0.089744	-0.200856	0.0196605	1.02954	0.343514	0.292448	0.0381932	0.602907	1.10799	1.13795	0.517779	1.21979	0.647755	0.312447	0.662238	0.825914	0.351452	-0.306909	0.400893	-0.0004095	0.324899	-0.0485732	0.443498	0.749096	0.252558	0.258769	0.23976	0.509108	-0.030606	-0.0636297	0.23638	0.18058	
1.00954	5.50537	0	0	0.078286	-0.198933	0.031512	1.01399	0.335793	0.267743	0.032747	0.589776	1.0843	1.09019	0.510521	1.19487	0.637965	0.294023	0.640883	0.789052	0.345718	-0.325127	0.390169	-0.033671	0.315296	-0.073043	0.433225	0.719311	0.24214	0.235071	0.223577	0.470912	-0.036624	-0.085105	0.227598	0.158844	
1.00655	5.50232	0	0	0.0676727	-0.189217	0.018707	0.996398	0.311947	0.234728	0.0111015	0.572735	1.04059	1.05005	0.492456	1.18249	0.61508	0.276021	0.595062	0.751818	0.34023	-0.323369	0.367165	-0.03201	0.307985	-0.0626865	0.42101	0.724493	0.236004	0.234734	0.216996	0.461619	-0.0376852	-0.0821058	0.223168	0.158084	
1.00292	5.50537	0	0	0.0570595	-0.179501	0.005902	0.978808	0.2881	0.201713	-0.010544	0.555694	0.996883	1.00991	0.474391	1.17011	0.592195	0.258018	0.549241	0.714584	0.334743	-0.32161	0.34416	-0.030349	0.300675	-0.05233	0.408795	0.729675	0.229867	0.234397	0.210415	0.452325	-0.0387465	-0.0791065	0.218738	0.157324	
0.998825	5.50842	0	0	0.0464462	-0.169784	-0.006903	0.961218	0.264254	0.168699	-0.0321895	0.538653	0.953175	0.969769	0.456327	1.15774	0.569311	0.240016	0.503419	0.677349	0.329255	-0.319852	0.321156	-0.028688	0.293364	-0.0419735	0.39658	0.734857	0.22373	0.23406	0.203833	0.443032	-0.0398078	-0.0761073	0.214307	0.156563	
0.994427	5.50995	0	0	0.035833	-0.160068	-0.019708	0.943627	0.240408	0.135684	-0.053835	0.521612	0.909467	0.92963	0.438262	1.14536	0.546426	0.222014	0.457598	0.640115	0.323767	-0.318093	0.298152	-0.027027	0.286053	-0.031617	0.384365	0.740039	0.217594	0.233723	0.197252	0.433739	-0.040869	-0.073108	0.209877	0.155803	
0.9899	5.51147	0	0	0.050666	-0.161409	-0.0242678	0.920747	0.230451	0.102303	-0.0583075	0.505891	0.889251	0.880796	0.431308	1.1018	0.540896	0.201014	0.440475	0.60135	0.317201	-0.33387	0.29079	-0.0588522	0.279928	-0.0554677	0.372204	0.706129	0.202077	0.207025	0.185177	0.391372	-0.054656	-0.0917188	0.194481	0.133056	
0.985413	5.51147	0	0	0.065499	-0.16275	-0.0288275	0.897866	0.220494	0.068923	-0.06278	0.490171	0.869034	0.831962	0.424355	1.05824	0.535366	0.180014	0.423351	0.562585	0.310636	-0.349647	0.283429	-0.0906775	0.273803	-0.0793185	0.360043	0.672219	0.186559	0.180327	0.173103	0.349005	-0.068443	-0.110329	0.179084	0.11031	
0.981139	5.51147	0	0	0.080332	-0.164092	-0.0333873	0.874985	0.210536	0.0355425	-0.0672525	0.47445	0.848818	0.783128	0.417401	1.01467	0.529836	0.159014	0.406228	0.523821	0.30407	-0.365424	0.276068	-0.122503	0.267677	-0.103169	0.347881	0.63831	0.171042	0.153629	0.161029	0.306639	-0.08223	-0.12894	0.163688	0.0875627	
0.977247	5.51147	0	0	0.095165	-0.165433	-0.037947	0.852105	0.200579	0.002162	-0.071725	0.45873	0.828602	0.734294	0.410448	0.97111	0.524306	0.138014	0.389105	0.485056	0.297504	-0.381201	0.268706	-0.154328	0.261552	-0.12702	0.33572	0.6044	0.155525	0.126931	0.148954	0.264272	-0.096017	-0.147551	0.148291	0.064816	
0.9739	5.513	0	0	0.0883845	-0.166571	-0.0537315	0.852102	0.175889	-0.0276025	-0.103005	0.448209	0.79321	0.693958	0.38495	0.953236	0.51162	0.119058	0.35229	0.467759	0.2939	-0.391586	0.247364	-0.15697	0.247762	-0.129119	0.328682	0.595103	0.149342	0.118017	0.143807	0.258013	-0.10501	-0.150857	0.14418	0.056601	
0.97115	5.51453	0	0	0.081604	-0.167708	-0.069516	0.8521	0.151199	-0.057367	-0.134284	0.437689	0.757818	0.653621	0.359451	0.935363	0.498934	0.100102	0.315476	0.450463	0.290296	-0.401971	0.226021	-0.159612	0.233972	-0.131219	0.321645	0.585806	0.143159	0.109102	0.138659	0.251754	-0.114003	-0.154162	0.14007	0.048386	
0.968977	5.5191	0	0	0.0748235	-0.168846	-0.0853005	0.852097	0.12651	-0.0871315	-0.165564	0.427168	0.722426	0.613285	0.333953	0.917489	0.486248	0.081146	0.278661	0.433167	0.286693	-0.412356	0.204678	-0.162255	0.220183	-0.133318	0.314608	0.576509	0.136976	0.100188	0.133512	0.245494	-0.122996	-0.157468	0.13596	0.040171	
0.967356	5.51605	0	0	0.068043	-0.169984	-0.101085	0.852094	0.10182	-0.116896	-0.196844	0.416647	0.687034	0.572948	0.308455	0.899615	0.473562	0.06219	0.241846	0.41587	0.283089	-0.422741	0.183336	-0.164897	0.206393	-0.135417	0.30757	0.567212	0.130793	0.091274	0.128364	0.239235	-0.131989	-0.160774	0.131849	0.031956	
0.966267	5.52215	0	0	0.0693235	-0.173603	-0.0992602	0.838028	0.0899752	-0.144414	-0.19616	0.393585	0.664643	0.524698	0.301476	0.856643	0.469726	0.0456895	0.245262	0.388946	0.279028	-0.445496	0.179286	-0.195307	0.199384	-0.16682	0.298606	0.534311	0.119353	0.0621772	0.115053	0.207664	-0.14467	-0.182245	0.123929	0.00814625	
0.965684	5.51605	0	0	0.070604	-0.177223	-0.0974355	0.823961	0.0781305	-0.171931	-0.195476	0.370523	0.642251	0.476448	0.294496	0.813671	0.465889	0.029189	0.248678	0.362021	0.274968	-0.468252	0.175237	-0.225718	0.192375	-0.198223	0.289641	0.50141	0.107913	0.0330805	0.101742	0.176092	-0.157351	-0.203715	0.116009	-0.0156635	
0.965587	5.50995	0	0	0.0718845	-0.180842	-0.0956107	0.809894	0.0662858	-0.199449	-0.194793	0.347461	0.61986	0.428197	0.287516	0.770699	0.462052	0.0126885	0.252095	0.335097	0.270907	-0.491007	0.171187	-0.256128	0.185366	-0.229626	0.280677	0.468508	0.0964737	0.00398375	0.0884318	0.144521	-0.170033	-0.225186	0.108089	-0.0394733	
0.965952	5.5069	0	0	0.073165	-0.184461	-0.093786	0.795828	0.054441	-0.226966	-0.194109	0.324399	0.597469	0.379947	0.280537	0.727727	0.458216	-0.003812	0.255511	0.308173	0.266846	-0.513762	0.167137	-0.286538	0.178357	-0.261029	0.271713	0.435607	0.085034	-0.025113	0.075121	0.11295	-0.182714	-0.246657	0.100169	-0.063283	
0.96675	5.5069	0	0	0.0736147	-0.195874	-0.096701	0.795161	0.039762	-0.246274	-0.205977	0.315753	0.573941	0.35631	0.263138	0.723324	0.441825	-0.0120572	0.241968	0.303343	0.264718	-0.521424	0.159038	-0.284543	0.172756	-0.265647	0.265983	0.442112	0.0789477	-0.025426	0.0765397	0.115848	-0.188336	-0.249832	0.097136	-0.0613013	
0.967925	5.49927	0	0	0.0740645	-0.207286	-0.099616	0.794493	0.025083	-0.265582	-0.217845	0.307107	0.550413	0.332673	0.24574	0.718921	0.425434	-0.0203025	0.228425	0.298512	0.26259	-0.529085	0.15094	-0.282548	0.167156	-0.270264	0.260253	0.448618	0.0728615	-0.025739	0.0779585	0.118746	-0.193958	-0.253007	0.094103	-0.0593195	
0.96941	5.50232	0	0	0.0745143	-0.218699	-0.102531	0.793826	0.010404	-0.284891	-0.229714	0.298462	0.526886	0.309037	0.228341	0.714519	0.409044	-0.0285477	0.214882	0.293682	0.260462	-0.536747	0.142842	-0.280554	0.161556	-0.274882	0.254523	0.455123	0.0667753	-0.026052	0.0793773	0.121644	-0.199581	-0.256182	0.09107	-0.0573378	
0.97114	5.49774	0	0	0.074964	-0.230111	-0.105446	0.793159	-0.004275	-0.304199	-0.241582	0.289816	0.503358	0.2854	0.210943	0.710116	0.392653	-0.036793	0.201339	0.288852	0.258334	-0.544408	0.134743	-0.278559	0.155955	-0.279499	0.248793	0.461628	0.060689	-0.026365	0.080796	0.124542	-0.205203	-0.259357	0.088037	-0.055356	
0.973047	5.49469	0	0	0.0754077	-0.241502	-0.104263	0.789815	-0.00876425	-0.321834	-0.235932	0.27385	0.49261	0.253633	0.208524	0.672426	0.391756	-0.0524128	0.20366	0.273683	0.253425	-0.56468	0.129168	-0.304517	0.144242	-0.307598	0.239218	0.440322	0.0523032	-0.0551075	0.0734995	0.0968652	-0.210147	-0.283452	0.0754392	-0.0723862	
0.975067	5.49316	0	0	0.0758515	-0.252892	-0.103079	0.786471	-0.0132535	-0.339469	-0.230283	0.257883	0.481861	0.221866	0.206104	0.634737	0.39086	-0.0680325	0.205981	0.258514	0.248517	-0.584951	0.123592	-0.330475	0.132529	-0.335697	0.229644	0.419016	0.0439175	-0.08385	0.066203	0.0691885	-0.215092	-0.307548	0.0628415	-0.0894165	
0.977132	5.49011	0	0	0.0762953	-0.264283	-0.101896	0.783127	-0.0177427	-0.357105	-0.224634	0.241917	0.471113	0.1901	0.203685	0.597047	0.389964	-0.0836522	0.208303	0.243344	0.243608	-0.605222	0.118017	-0.356433	0.120816	-0.363795	0.220069	0.39771	0.0355318	-0.112592	0.0589065	0.0415118	-0.220036	-0.331644	0.0502438	-0.106447	
0.979177	5.48553	0	0	0.076739	-0.275674	-0.100713	0.779783	-0.022232	-0.37474	-0.218984	0.22595	0.460365	0.158333	0.201266	0.559357	0.389067	-0.099272	0.210624	0.228175	0.238699	-0.625494	0.112442	-0.382391	0.109103	-0.391894	0.210494	0.376404	0.027146	-0.141335	0.05161	0.013835	-0.224981	-0.355739	0.037646	-0.123477	
0.981128	5.48553	0	0	0.0746277	-0.279838	-0.105554	0.81128	-0.031739	-0.370582	-0.221808	0.23393	0.44402	0.163214	0.195253	0.576351	0.373622	-0.0918772	0.200003	0.232388	0.24018	-0.622854	0.110931	-0.378121	0.108737	-0.380674	0.216238	0.389175	0.0333085	-0.132548	0.0541115	0.0274495	-0.229168	-0.343907	0.0417445	-0.11534	
0.982885	5.48096	0	0	0.0725165	-0.284002	-0.110396	0.842777	-0.041246	-0.366423	-0.224631	0.241909	0.427674	0.168095	0.18924	0.593345	0.358178	-0.0844825	0.189383	0.2366	0.241661	-0.620215	0.10942	-0.373851	0.108372	-0.369454	0.221982	0.401946	0.039471	-0.123762	0.056613	0.041064	-0.233354	-0.332074	0.045843	-0.107203	
0.984346	5.48248	0	0	0.0704053	-0.288166	-0.115237	0.874274	-0.050753	-0.362264	-0.227455	0.249888	0.411328	0.172976	0.183226	0.61034	0.342734	-0.0770878	0.178762	0.240813	0.243141	-0.617576	0.107909	-0.369581	0.108006	-0.358234	0.227726	0.414717	0.0456335	-0.114976	0.0591145	0.0546785	-0.237541	-0.320242	0.0499415	-0.0990652	
0.985407	5.47943	0	0	0.068294	-0.29233	-0.120078	0.905771	-0.06026	-0.358106	-0.230278	0.257868	0.394983	0.177857	0.177213	0.627334	0.327289	-0.069693	0.168141	0.245026	0.244622	-0.614936	0.106398	-0.365311	0.10764	-0.347014	0.23347	0.427488	0.051796	-0.106189	0.061616	0.068293	-0.241728	-0.308409	0.05404	-0.090928	
0.985965	5.47333	0	0	0.0627995	-0.297047	-0.108953	0.901083	-0.0609075	-0.363839	-0.223281	0.245117	0.387551	0.157638	0.177445	0.608898	0.332249	-0.0837128	0.167753	0.228938	0.241839	-0.627533	0.104094	-0.390023	0.103683	-0.366372	0.231522	0.40399	0.0425092	-0.123593	0.0571525	0.0464473	-0.244197	-0.320436	0.04721	-0.104481	
0.985916	5.47027	0	0	0.057305	-0.301763	-0.097827	0.896395	-0.061555	-0.369573	-0.216284	0.232367	0.380119	0.137418	0.177677	0.590463	0.33721	-0.0977325	0.167366	0.212851	0.239055	-0.640131	0.101789	-0.414735	0.0997255	-0.385731	0.229573	0.380491	0.0332225	-0.140998	0.052689	0.0246015	-0.246667	-0.332464	0.04038	-0.118034	
0.985158	5.4718	0	0	0.0518105	-0.30648	-0.0867015	0.891707	-0.0622025	-0.375306	-0.209286	0.219616	0.372688	0.117199	0.177908	0.572027	0.342171	-0.111752	0.166979	0.196764	0.236271	-0.652729	0.0994845	-0.439447	0.0957682	-0.405089	0.227625	0.356992	0.0239358	-0.158403	0.0482255	0.00275575	-0.249136	-0.344491	0.03355	-0.131587	
0.983587	5.4657	0	0	0.046316	-0.311197	-0.075576	0.887019	-0.06285	-0.38104	-0.202289	0.206866	0.365256	0.09698	0.17814	0.553591	0.347131	-0.125772	0.166591	0.180676	0.233488	-0.665326	0.09718	-0.464159	0.091811	-0.424448	0.225677	0.333494	0.014649	-0.175807	0.043762	-0.01909	-0.251605	-0.356518	0.02672	-0.14514	
0.981214	5.46265	0	0	0.0445988	-0.296225	-0.0744952	0.901823	-0.0656837	-0.373032	-0.205645	0.223378	0.358055	0.103611	0.182486	0.576887	0.342171	-0.111752	0.158882	0.193879	0.235621	-0.657713	0.0974483	-0.454514	0.096134	-0.416309	0.22571	0.352731	0.0217915	-0.169814	0.045389	-0.0030195	-0.246854	-0.341429	0.0321835	-0.134301	
0.978291	5.46265	0	0	0.0428815	-0.281252	-0.0734145	0.916627	-0.0685175	-0.365024	-0.209	0.239889	0.350854	0.110242	0.186833	0.600182	0.33721	-0.0977325	0.151172	0.207082	0.237753	-0.6501	0.0977165	-0.44487	0.100457	-0.408171	0.225744	0.371969	0.028934	-0.163822	0.047016	0.013051	-0.242104	-0.32634	0.037647	-0.123463	
0.975099	5.46112	0	0	0.0411642	-0.26628	-0.0723338	0.931431	-0.0713513	-0.357015	-0.212356	0.2564	0.343653	0.116873	0.191179	0.623478	0.332249	-0.0837128	0.143462	0.220285	0.239886	-0.642486	0.0979847	-0.435225	0.10478	-0.400033	0.225778	0.391206	0.0360765	-0.15783	0.048643	0.0291215	-0.237353	-0.31125	0.0431105	-0.112624	
0.971923	5.46112	0	0	0.039447	-0.251307	-0.071253	0.946235	-0.074185	-0.349007	-0.215712	0.272912	0.336452	0.123504	0.195525	0.646773	0.327289	-0.069693	0.135753	0.233488	0.242018	-0.634873	0.098253	-0.42558	0.109103	-0.391894	0.225811	0.410443	0.043219	-0.151837	0.05027	0.045192	-0.232602	-0.296161	0.048574	-0.101785	
0.969044	5.45044	0	0	0.0402762	-0.243525	-0.0729822	0.942191	-0.0764217	-0.357803	-0.212886	0.264925	0.327154	0.095001	0.198651	0.629037	0.329322	-0.084492	0.142014	0.215793	0.235445	-0.650377	0.0896537	-0.442852	0.0948843	-0.41271	0.217503	0.385632	0.0349093	-0.171962	0.0426395	0.0254433	-0.235071	-0.308197	0.0417452	-0.115329	
0.966744	5.44739	0	0	0.0411055	-0.235743	-0.0747115	0.938147	-0.0786585	-0.3666	-0.21006	0.256939	0.317855	0.066498	0.201777	0.611301	0.331355	-0.099291	0.148276	0.198098	0.228871	-0.665881	0.0810545	-0.460125	0.0806655	-0.433526	0.209195	0.36082	0.0265995	-0.192088	0.035009	0.0056945	-0.237541	-0.320233	0.0349165	-0.128873	
0.965308	5.44586	0	0	0.0419348	-0.22796	-0.0764408	0.934103	-0.0808953	-0.375397	-0.207234	0.248952	0.308557	0.037995	0.204904	0.593566	0.333388	-0.11409	0.154537	0.180403	0.222298	-0.681385	0.0724552	-0.477398	0.0664467	-0.454342	0.200887	0.336009	0.0182897	-0.212213	0.0273785	-0.0140543	-0.240011	-0.332269	0.0280878	-0.142417	
0.965005	5.44281	0	0	0.042764	-0.220178	-0.07817	0.930059	-0.083132	-0.384193	-0.204408	0.240965	0.299259	0.009492	0.20803	0.57583	0.335421	-0.128889	0.160798	0.162708	0.215724	-0.696889	0.063856	-0.49467	0.052228	-0.475158	0.192579	0.311198	0.00998	-0.232339	0.019748	-0.033803	-0.24248	-0.344305	0.021259	-0.155961	
0.965833	5.43823	0	0	0.043591	-0.212385	-0.074175	0.945574	-0.0900845	-0.37965	-0.202647	0.250051	0.291087	0.0052575	0.211898	0.591615	0.331257	-0.126168	0.159547	0.166244	0.210285	-0.695132	0.063856	-0.49467	0.0513262	-0.482757	0.19323	0.319007	0.0069495	-0.232484	0.0257515	-0.0301247	-0.238962	-0.33523	0.0248183	-0.15289	
0.967517	5.43518	0	0	0.044418	-0.204591	-0.07018	0.961089	-0.097037	-0.375107	-0.200887	0.259138	0.282914	0.001023	0.215765	0.607399	0.327093	-0.123447	0.158295	0.169781	0.204846	-0.693375	0.063856	-0.49467	0.0504245	-0.490356	0.193881	0.326815	0.003919	-0.232629	0.031755	-0.0264465	-0.235445	-0.326156	0.0283775	-0.149819	
0.969767	5.43365	0	0	0.045245	-0.196798	-0.066185	0.976605	-0.103989	-0.370564	-0.199126	0.268224	0.274742	-0.0032115	0.219633	0.623184	0.322928	-0.120725	0.157044	0.173317	0.199406	-0.691617	0.063856	-0.49467	0.0495227	-0.497955	0.194531	0.334624	0.0008885	-0.232774	0.0377585	-0.0227683	-0.231928	-0.317082	0.0319367	-0.146748	
0.972293	5.43518	0	0	0.046072	-0.189004	-0.06219	0.99212	-0.110942	-0.366021	-0.197365	0.27731	0.26657	-0.007446	0.223501	0.638969	0.318764	-0.118004	0.155793	0.176853	0.193967	-0.68986	0.063856	-0.49467	0.048621	-0.505554	0.195182	0.342433	-0.002142	-0.232919	0.043762	-0.01909	-0.22841	-0.308007	0.035496	-0.143677	
0.974806	5.42755	0	0	0.045245	-0.196798	-0.058612	0.982008	-0.11288	-0.383181	-0.197243	0.262903	0.256776	-0.0411137	0.224439	0.609602	0.317412	-0.1413	0.153742	0.148348	0.185275	-0.71287	0.051719	-0.522558	0.036023	-0.540828	0.18622	0.309948	-0.0125945	-0.264232	0.031	-0.0448902	-0.231075	-0.328993	0.022098	-0.158278	
0.977018	5.42145	0	0	0.044418	-0.204591	-0.055034	0.971896	-0.114818	-0.400342	-0.197122	0.248496	0.246982	-0.0747815	0.225378	0.580234	0.316059	-0.164597	0.151691	0.119843	0.176583	-0.73588	0.039582	-0.550446	0.023425	-0.576103	0.177258	0.277463	-0.023047	-0.295546	0.018238	-0.0706905	-0.233739	-0.349979	0.0087	-0.17288	
0.978639	5.41839	0	0	0.043591	-0.212385	-0.051456	0.961784	-0.116755	-0.417502	-0.197	0.234089	0.237188	-0.108449	0.226316	0.550867	0.314707	-0.187893	0.14964	0.0913373	0.167891	-0.758891	0.027445	-0.578335	0.010827	-0.611378	0.168295	0.244978	-0.0334995	-0.32686	0.005476	-0.0964908	-0.236403	-0.370965	-0.004698	-0.187482	
0.97942	5.41687	0	0	0.042764	-0.220178	-0.047878	0.951672	-0.118693	-0.434662	-0.196878	0.219682	0.227394	-0.142117	0.227254	0.521499	0.313355	-0.21119	0.147589	0.062832	0.159199	-0.781901	0.015308	-0.606223	-0.001771	-0.646652	0.159333	0.212493	-0.043952	-0.358173	-0.007286	-0.122291	-0.239068	-0.391951	-0.018096	-0.202083	
0.979593	5.41687	0	0	0.0402072	-0.212953	-0.0538437	0.968532	-0.118988	-0.426286	-0.199294	0.233539	0.221503	-0.145873	0.231135	0.537248	0.309198	-0.208474	0.154439	0.0691942	0.157722	-0.784514	0.0155843	-0.596653	-0.00517375	-0.647139	0.156818	0.2196	-0.0449247	-0.355424	-0.00761175	-0.114506	-0.238875	-0.382995	-0.0175588	-0.197051	
0.9797	5.41534	0	0	0.0376505	-0.205728	-0.0598095	0.985391	-0.119283	-0.417909	-0.201709	0.247396	0.215613	-0.149629	0.235015	0.552997	0.305042	-0.205759	0.161288	0.0755565	0.156245	-0.787126	0.0158605	-0.587083	-0.0085765	-0.647625	0.154303	0.226708	-0.0458975	-0.352675	-0.0079375	-0.106721	-0.238683	-0.374039	-0.0170215	-0.19202	
0.980291	5.41229	0	0	0.0350938	-0.198502	-0.0657753	1.00225	-0.119578	-0.409533	-0.204125	0.261254	0.209722	-0.153386	0.238896	0.568745	0.300886	-0.203043	0.168137	0.0819187	0.154768	-0.789739	0.0161368	-0.577514	-0.0119793	-0.648111	0.151789	0.233816	-0.0468702	-0.349925	-0.00826325	-0.0989367	-0.23849	-0.365084	-0.0164842	-0.186988	
0.981912	5.41229	0	0	0.032537	-0.191277	-0.071741	1.01911	-0.119873	-0.401157	-0.206541	0.275111	0.203831	-0.157142	0.242777	0.584494	0.296729	-0.200327	0.174987	0.088281	0.153291	-0.792352	0.016413	-0.567944	-0.015382	-0.648598	0.149274	0.240923	-0.047843	-0.347176	-0.008589	-0.091152	-0.238297	-0.356128	-0.015947	-0.181956	
0.985113	5.40161	0	0	0.0296068	-0.203241	-0.0704282	0.997527	-0.123048	-0.407266	-0.201831	0.2618	0.197808	-0.174078	0.238401	0.561248	0.297051	-0.219285	0.179975	0.0741837	0.142961	-0.810595	0.0140823	-0.592391	-0.0224248	-0.679129	0.14097	0.216349	-0.0542015	-0.372551	-0.0176303	-0.113596	-0.238686	-0.374025	-0.0202885	-0.202414	
0.990441	5.40008	0	0	0.0266765	-0.215205	-0.0691155	0.975942	-0.126222	-0.413374	-0.197121	0.248488	0.191785	-0.191014	0.234025	0.538001	0.297374	-0.238244	0.184964	0.0600865	0.132632	-0.828837	0.0117515	-0.616838	-0.0294675	-0.70966	0.132666	0.191775	-0.06056	-0.397927	-0.0266715	-0.13604	-0.239075	-0.391923	-0.02463	-0.222873	
0.998444	5.39398	0	0	0.0237463	-0.227169	-0.0678027	0.954357	-0.129397	-0.419483	-0.19241	0.235177	0.185763	-0.20795	0.22965	0.514755	0.297696	-0.257203	0.189952	0.0459892	0.122302	-0.84708	0.00942075	-0.641285	-0.0365103	-0.740191	0.124363	0.167202	-0.0669185	-0.423303	-0.0357128	-0.158484	-0.239463	-0.40982	-0.0289715	-0.243331	
1.00954	5.39398	0	0	0.020816	-0.239133	-0.06649	0.932773	-0.132572	-0.425592	-0.1877	0.221865	0.17974	-0.224886	0.225274	0.491508	0.298018	-0.276161	0.19494	0.031892	0.111972	-0.865323	0.00709	-0.665732	-0.043553	-0.770722	0.116059	0.142628	-0.073277	-0.448678	-0.044754	-0.180928	-0.239852	-0.427717	-0.033313	-0.263789	
1.02259	5.3894	0	0	0.0216428	-0.231349	-0.0660755	0.958421	-0.123345	-0.398829	-0.18471	0.248604	0.192662	-0.193429	0.231832	0.526419	0.304776	-0.259146	0.205132	0.06324	0.118695	-0.857231	0.015961	-0.639051	-0.037419	-0.747721	0.126878	0.160094	-0.0620577	-0.43704	-0.036258	-0.163807	-0.236134	-0.409722	-0.0303343	-0.246029	
1.03538	5.3894	0	0	0.0224695	-0.223566	-0.065661	0.984068	-0.114119	-0.372066	-0.181721	0.275344	0.205584	-0.161971	0.238391	0.561329	0.311534	-0.242131	0.215324	0.094588	0.125417	-0.849139	0.024832	-0.61237	-0.031285	-0.724719	0.137696	0.177561	-0.0508385	-0.425401	-0.027762	-0.146687	-0.232416	-0.391728	-0.0273555	-0.228269	
1.04567	5.38788	0	0	0.0232962	-0.215782	-0.0652465	1.00972	-0.104892	-0.345303	-0.178731	0.302083	0.218506	-0.130514	0.244949	0.59624	0.318292	-0.225117	0.225516	0.125936	0.13214	-0.841047	0.033703	-0.585688	-0.025151	-0.701718	0.148514	0.195027	-0.0396193	-0.413763	-0.019266	-0.129567	-0.228699	-0.373734	-0.0243768	-0.210509	
1.05124	5.38483	0	0	0.024123	-0.207998	-0.064832	1.03536	-0.095666	-0.31854	-0.175741	0.328822	0.231428	-0.099057	0.251507	0.63115	0.32505	-0.208102	0.235708	0.157284	0.138863	-0.832955	0.042574	-0.559007	-0.019017	-0.678717	0.159333	0.212493	-0.0284	-0.402125	-0.01077	-0.112446	-0.224981	-0.355739	-0.021398	-0.192749	
1.04984	5.3772	0	0	0.0266775	-0.215218	-0.065365	1.02793	-0.0864697	-0.314269	-0.168309	0.321912	0.236822	-0.100676	0.24812	0.622889	0.32921	-0.210821	0.249061	0.154006	0.133615	-0.838446	0.0408002	-0.564356	-0.0220827	-0.690232	0.154846	0.196334	-0.033583	-0.413497	-0.0187192	-0.124263	-0.22289	-0.36165	-0.0298573	-0.201559	
1.03925	5.37262	0	0	0.029232	-0.222437	-0.065898	1.02049	-0.0772735	-0.309999	-0.160877	0.315002	0.242215	-0.102294	0.244734	0.614627	0.333371	-0.213539	0.262414	0.150727	0.128367	-0.843937	0.0390265	-0.569705	-0.0251485	-0.701747	0.150359	0.180175	-0.038766	-0.424868	-0.0266685	-0.136079	-0.220799	-0.36756	-0.0383165	-0.210369	
1.01723	5.37109	0	0	0.0317865	-0.229656	-0.066431	1.01305	-0.0680773	-0.305729	-0.153445	0.308093	0.247609	-0.103913	0.241347	0.606366	0.337531	-0.216257	0.275768	0.147448	0.123119	-0.849428	0.0372528	-0.575053	-0.0282143	-0.713261	0.145872	0.164017	-0.043949	-0.43624	-0.0346178	-0.147896	-0.218707	-0.373471	-0.0467757	-0.219179	
0.981883	5.36804	0	0	0.034341	-0.236876	-0.066964	1.00561	-0.058881	-0.301458	-0.146013	0.301183	0.253003	-0.105531	0.237961	0.598105	0.341691	-0.218976	0.289121	0.14417	0.117871	-0.854919	0.035479	-0.580402	-0.03128	-0.724776	0.141385	0.147858	-0.049132	-0.447612	-0.042567	-0.159713	-0.216616	-0.379381	-0.055235	-0.227989	
0.936007	5.36957	0	0	0.041939	-0.227957	-0.0665695	1.03134	-0.049001	-0.26871	-0.140729	0.328597	0.265068	-0.0713515	0.252721	0.627821	0.34722	-0.198399	0.304787	0.177665	0.12525	-0.841889	0.0443462	-0.553595	-0.0229948	-0.697702	0.149701	0.172448	-0.0408167	-0.427726	-0.0375613	-0.132713	-0.208326	-0.355208	-0.0487192	-0.207137	
0.885965	5.36804	0	0	0.049537	-0.219037	-0.066175	1.05707	-0.039121	-0.235962	-0.135445	0.356011	0.277132	-0.037172	0.267481	0.657536	0.352748	-0.177822	0.320453	0.211159	0.132628	-0.828858	0.0532135	-0.526788	-0.0147095	-0.670627	0.158017	0.197037	-0.0325015	-0.40784	-0.0325555	-0.105713	-0.200037	-0.331036	-0.0422035	-0.186284	
0.838205	5.36194	0	0	0.057135	-0.210117	-0.0657805	1.0828	-0.029241	-0.203214	-0.130161	0.383426	0.289196	-0.0029925	0.282242	0.687252	0.358276	-0.157245	0.336118	0.244654	0.140006	-0.815827	0.0620807	-0.499981	-0.00642425	-0.643553	0.166332	0.221627	-0.0241863	-0.387954	-0.0275498	-0.078713	-0.191748	-0.306863	-0.0356878	-0.165432	
0.799175	5.36194	0	0	0.064733	-0.201198	-0.065386	1.10853	-0.019361	-0.170466	-0.124877	0.41084	0.301261	0.031187	0.297002	0.716968	0.363805	-0.136668	0.351784	0.278149	0.147385	-0.802797	0.070948	-0.473174	0.001861	-0.616479	0.174648	0.246217	-0.015871	-0.368068	-0.022544	-0.051713	-0.183458	-0.28269	-0.029172	-0.144579	
0.775324	5.35736	0	0	0.0613467	-0.201764	-0.058868	1.09907	-0.009177	-0.168839	-0.119726	0.403351	0.304027	0.0370552	0.292403	0.712083	0.369215	-0.142895	0.359554	0.264851	0.141314	-0.805976	0.0736798	-0.491279	-0.001203	-0.628032	0.166992	0.229372	-0.022997	-0.373973	-0.0282	-0.0631692	-0.184696	-0.28872	-0.0340807	-0.15035	
0.772932	5.35736	0	0	0.0579605	-0.202331	-0.05235	1.0896	0.001007	-0.167211	-0.114576	0.395862	0.306793	0.0429235	0.287803	0.707199	0.374624	-0.149121	0.367324	0.251553	0.135242	-0.809155	0.0764115	-0.509383	-0.004267	-0.639585	0.159336	0.212526	-0.030123	-0.379877	-0.033856	-0.0746255	-0.185935	-0.294751	-0.0389895	-0.156121	
0.793127	5.35278	0	0	0.0545742	-0.202898	-0.045832	1.08014	0.011191	-0.165583	-0.109426	0.388373	0.309559	0.0487918	0.283204	0.702314	0.380033	-0.155347	0.375094	0.238256	0.129171	-0.812335	0.0791432	-0.527488	-0.007331	-0.651139	0.15168	0.19568	-0.037249	-0.385782	-0.039512	-0.0860817	-0.187173	-0.300781	-0.0438982	-0.161892	
0.831004	5.35431	0	0	0.051188	-0.203464	-0.039314	1.07067	0.021375	-0.163956	-0.104275	0.380884	0.312325	0.05466	0.278605	0.697429	0.385443	-0.161574	0.382864	0.224958	0.1231	-0.815514	0.081875	-0.545593	-0.010395	-0.662692	0.144024	0.178835	-0.044375	-0.391687	-0.045168	-0.097538	-0.188411	-0.306812	-0.048807	-0.167663	
0.881318	5.35583	0	0	0.0532948	-0.199281	-0.040657	1.0924	0.0255243	-0.137601	-0.104011	0.401354	0.323396	0.0782145	0.278833	0.723616	0.381725	-0.151065	0.377818	0.239218	0.123753	-0.810581	0.0773703	-0.532862	-0.007331	-0.651139	0.145337	0.194357	-0.038222	-0.383032	-0.0421313	-0.0786797	-0.186987	-0.291773	-0.0433645	-0.156848	
0.938823	5.35431	0	0	0.0554015	-0.195098	-0.042	1.11412	0.0296735	-0.111246	-0.103746	0.421824	0.334466	0.101769	0.279061	0.749802	0.378007	-0.140557	0.372772	0.253478	0.124405	-0.805648	0.0728655	-0.520131	-0.004267	-0.639585	0.146649	0.209879	-0.032069	-0.374378	-0.0390945	-0.0598215	-0.185562	-0.276734	-0.037922	-0.146034	
0.998273	5.35278	0	0	0.0575082	-0.190915	-0.043343	1.13584	0.0338227	-0.0848918	-0.103482	0.442293	0.345537	0.125324	0.279289	0.775989	0.374288	-0.130048	0.367727	0.267739	0.125057	-0.800716	0.0683607	-0.507401	-0.001203	-0.628032	0.147961	0.225401	-0.025916	-0.365723	-0.0360577	-0.0409632	-0.184138	-0.261696	-0.0324795	-0.135219	
1.05442	5.35126	0	0	0.059615	-0.186732	-0.044686	1.15756	0.037972	-0.058537	-0.103217	0.462763	0.356608	0.148878	0.279517	0.802176	0.37057	-0.119539	0.362681	0.281999	0.12571	-0.795783	0.063856	-0.49467	0.001861	-0.616479	0.149274	0.240923	-0.019763	-0.357068	-0.033021	-0.022105	-0.182714	-0.246657	-0.027037	-0.124404	
1.10202	5.34515	0	0	0.0520195	-0.195659	-0.0515855	1.14123	0.0418	-0.0693555	-0.10538	0.447657	0.351569	0.142535	0.270334	0.792363	0.366734	-0.135869	0.350133	0.265555	0.114236	-0.797215	0.0507685	-0.499165	-0.00709725	-0.621472	0.137258	0.246042	-0.019763	-0.357068	-0.0333563	-0.014291	-0.179375	-0.246554	-0.026504	-0.119355	
1.13583	5.34363	0	0	0.044424	-0.204586	-0.058485	1.12489	0.045628	-0.080174	-0.107542	0.432551	0.34653	0.136191	0.26115	0.78255	0.362898	-0.152199	0.337585	0.249111	0.102763	-0.798647	0.037681	-0.50366	-0.0160555	-0.626465	0.125242	0.251161	-0.019763	-0.357068	-0.0336915	-0.006477	-0.176036	-0.246451	-0.025971	-0.114307	
1.15063	5.34515	0	0	0.0368285	-0.213513	-0.0653845	1.10855	0.049456	-0.0909925	-0.109704	0.417445	0.341491	0.129848	0.251966	0.772737	0.359062	-0.168528	0.325037	0.232668	0.0912895	-0.80008	0.0245935	-0.508155	-0.0250138	-0.631458	0.113227	0.256279	-0.019763	-0.357068	-0.0340267	0.001337	-0.172696	-0.246349	-0.025438	-0.109258	
1.14438	5.3421	0	0	0.029233	-0.22244	-0.072284	1.09222	0.053284	-0.101811	-0.111867	0.402339	0.336452	0.123504	0.242783	0.762924	0.355226	-0.184858	0.312489	0.216224	0.079816	-0.801512	0.011506	-0.51265	-0.033972	-0.636451	0.101211	0.261398	-0.019763	-0.357068	-0.034362	0.009151	-0.169357	-0.246246	-0.024905	-0.104209	
1.12126	5.34515	0	0	0.0204262	-0.258188	-0.0871455	1.04493	0.045279	-0.140081	-0.120696	0.356741	0.31785	0.066675	0.223734	0.70987	0.33324	-0.240005	0.290787	0.157002	0.060716	-0.835278	-0.0189132	-0.560865	-0.0572898	-0.691302	0.0771115	0.214593	-0.0374647	-0.402357	-0.0478215	-0.035043	-0.185547	-0.276671	-0.0434018	-0.136968	
1.08618	5.34363	0	0	0.0116195	-0.293935	-0.102007	0.99764	0.037274	-0.178351	-0.129526	0.311142	0.299247	0.009846	0.204684	0.656817	0.311253	-0.295153	0.269085	0.09778	0.041616	-0.869044	-0.0493325	-0.609079	-0.0806075	-0.746152	0.053012	0.167787	-0.0551665	-0.447646	-0.061281	-0.079237	-0.201736	-0.307096	-0.0618985	-0.169728	
1.04404	5.34057	0	0	0.00281275	-0.329682	-0.116869	0.950351	0.029269	-0.21662	-0.138355	0.265543	0.280645	-0.046983	0.185635	0.603763	0.289266	-0.350301	0.247384	0.038558	0.022516	-0.90281	-0.0797517	-0.657293	-0.103925	-0.801003	0.0289125	0.120982	-0.0728682	-0.492934	-0.0747405	-0.123431	-0.217925	-0.337521	-0.0803953	-0.202487	
0.999753	5.34057	0	0	-0.005994	-0.36543	-0.13173	0.903062	0.021264	-0.25489	-0.147184	0.219945	0.262043	-0.103812	0.166585	0.550709	0.26728	-0.405448	0.225682	-0.020664	0.003416	-0.936576	-0.110171	-0.705508	-0.127243	-0.855854	0.004813	0.074176	-0.09057	-0.538223	-0.0882	-0.167625	-0.234115	-0.367946	-0.098892	-0.235246	
0.95821	5.33752	0	0	-0.0282922	-0.433118	-0.158008	0.800024	0.00542875	-0.338877	-0.16772	0.123704	0.215477	-0.209308	0.13671	0.423183	0.227938	-0.508865	0.179354	-0.145467	-0.025427	-1.0093	-0.150465	-0.816531	-0.167081	-0.962627	-0.0283933	-0.04083	-0.127072	-0.57284	-0.136401	-0.181225	-0.271178	-0.395768	-0.132569	-0.250686	
0.92432	5.3421	0	0	-0.0505905	-0.500807	-0.184286	0.696986	-0.0104065	-0.422864	-0.188256	0.0274625	0.16891	-0.314804	0.106834	0.295658	0.188596	-0.612283	0.133025	-0.270271	-0.05427	-1.08202	-0.190759	-0.927554	-0.206919	-1.0694	-0.0615995	-0.155836	-0.163573	-0.607457	-0.184602	-0.194825	-0.308241	-0.42359	-0.166245	-0.266126	
0.902165	5.34363	0	0	-0.0728888	-0.568496	-0.210564	0.593948	-0.0262418	-0.506851	-0.208793	-0.0687787	0.122343	-0.420299	0.0769585	0.168132	0.149254	-0.715701	0.0866973	-0.395074	-0.083113	-1.15474	-0.231053	-1.03858	-0.246757	-1.17617	-0.0948058	-0.270842	-0.200075	-0.642074	-0.232802	-0.208426	-0.345304	-0.451411	-0.199922	-0.281565	
0.891119	5.34057	0	0	-0.095187	-0.636184	-0.236842	0.49091	-0.042077	-0.590838	-0.229329	-0.16502	0.075777	-0.525795	0.047083	0.040607	0.109912	-0.819118	0.040369	-0.519877	-0.111956	-1.22746	-0.271347	-1.1496	-0.286595	-1.28295	-0.128012	-0.385848	-0.236577	-0.676691	-0.281003	-0.222026	-0.382367	-0.479233	-0.233599	-0.297005	
0.888876	5.34057	0	0	-0.101492	-0.648398	-0.241461	0.486326	-0.0455497	-0.588569	-0.238039	-0.161343	0.066317	-0.532686	0.0487755	0.0446078	0.0858672	-0.839858	0.0282008	-0.52777	-0.117953	-1.23054	-0.276023	-1.14654	-0.294504	-1.28041	-0.126791	-0.3893	-0.23047	-0.668194	-0.276809	-0.213521	-0.386709	-0.476396	-0.235236	-0.292378	
0.893126	5.3421	0	0	-0.107797	-0.660613	-0.24608	0.481743	-0.0490225	-0.586299	-0.24675	-0.157666	0.056857	-0.539577	0.050468	0.0486085	0.0618225	-0.860597	0.0160325	-0.535663	-0.123951	-1.23361	-0.280698	-1.14349	-0.302414	-1.27787	-0.12557	-0.392751	-0.224363	-0.659698	-0.272614	-0.205015	-0.39105	-0.47356	-0.236874	-0.287751	
0.901561	5.3421	0	0	-0.114102	-0.672828	-0.250699	0.477159	-0.0524953	-0.58403	-0.25546	-0.153988	0.047397	-0.546468	0.0521605	0.0526092	0.0377777	-0.881336	0.00386425	-0.543556	-0.129948	-1.23669	-0.285374	-1.14044	-0.310323	-1.27533	-0.124348	-0.396203	-0.218257	-0.651201	-0.268419	-0.19651	-0.395392	-0.470723	-0.238511	-0.283123	
0.91187	5.34363	0	0	-0.120407	-0.685042	-0.255318	0.472575	-0.055968	-0.581761	-0.26417	-0.150311	0.037937	-0.553359	0.053853	0.05661	0.013733	-0.902076	-0.008304	-0.551449	-0.135945	-1.23976	-0.290049	-1.13738	-0.318232	-1.2728	-0.123127	-0.399654	-0.21215	-0.642704	-0.264225	-0.188004	-0.399733	-0.467886	-0.240148	-0.278496	
0.921746	5.34057	0	0	-0.121258	-0.692639	-0.256442	0.458131	-0.0499587	-0.583651	-0.26139	-0.158167	0.031581	-0.562253	0.053335	0.04929	7.125E-05	-0.91648	-0.00052525	-0.556532	-0.14254	-1.21445	-0.301715	-1.10441	-0.322755	-1.23028	-0.137813	-0.358148	-0.200549	-0.59801	-0.256841	-0.147659	-0.394645	-0.435051	-0.233995	-0.250417	
0.928932	5.34363	0	0	-0.122108	-0.700236	-0.257567	0.443687	-0.0439495	-0.585541	-0.258611	-0.166023	0.025225	-0.571148	0.052817	0.04197	-0.0135905	-0.930885	0.0072535	-0.561615	-0.149136	-1.18914	-0.313381	-1.07144	-0.327278	-1.18777	-0.1525	-0.316643	-0.188947	-0.553315	-0.249457	-0.107314	-0.389558	-0.402216	-0.227843	-0.222337	
0.932602	5.34668	0	0	-0.122958	-0.707832	-0.258691	0.429243	-0.0379403	-0.58743	-0.255831	-0.173878	0.018869	-0.580042	0.052299	0.03465	-0.0272522	-0.945289	0.0150323	-0.566698	-0.155731	-1.16383	-0.325047	-1.03847	-0.331801	-1.14526	-0.167186	-0.275138	-0.177346	-0.508621	-0.242074	-0.0669683	-0.384471	-0.36938	-0.22169	-0.194257	
0.933459	5.34363	0	0	-0.123809	-0.715429	-0.259815	0.414799	-0.031931	-0.58932	-0.253051	-0.181734	0.012513	-0.588936	0.051781	0.02733	-0.040914	-0.959693	0.022811	-0.571781	-0.162326	-1.13852	-0.336713	-1.0055	-0.336324	-1.10275	-0.181872	-0.233632	-0.165745	-0.463926	-0.23469	-0.026623	-0.379383	-0.336545	-0.215537	-0.166178	
0.932287	5.3482	0	0	-0.10783	-0.690472	-0.2524	0.455591	-0.0171515	-0.547854	-0.233946	-0.15183	0.0326292	-0.551617	0.0756628	0.0655145	-0.018358	-0.91726	0.0712335	-0.51315	-0.148059	-1.09859	-0.308318	-0.963479	-0.310722	-1.05571	-0.166073	-0.193128	-0.149218	-0.424164	-0.216686	-0.002416	-0.357909	-0.311947	-0.204749	-0.144567	
0.929867	5.35278	0	0	-0.0918515	-0.665515	-0.244986	0.496383	-0.002372	-0.506388	-0.21484	-0.121927	0.0527455	-0.514298	0.0995445	0.103699	0.004198	-0.874826	0.119656	-0.45452	-0.133791	-1.05865	-0.279924	-0.921457	-0.28512	-1.00866	-0.150273	-0.152623	-0.132691	-0.384401	-0.198682	0.021791	-0.336435	-0.287349	-0.193961	-0.122957	
0.92698	5.35126	0	0	-0.0758728	-0.640558	-0.237571	0.537175	0.0124075	-0.464923	-0.195735	-0.0920228	0.0728618	-0.47698	0.123426	0.141883	0.026754	-0.832392	0.168078	-0.39589	-0.119524	-1.01872	-0.251529	-0.879435	-0.259518	-0.961624	-0.134473	-0.112119	-0.116164	-0.344638	-0.180677	0.045998	-0.314961	-0.262751	-0.183172	-0.101347	
0.924409	5.35126	0	0	-0.059894	-0.615601	-0.230156	0.577967	0.027187	-0.423457	-0.176629	-0.062119	0.092978	-0.439661	0.147308	0.180068	0.04931	-0.789959	0.216501	-0.337259	-0.105256	-0.978788	-0.223135	-0.837412	-0.233916	-0.914584	-0.118674	-0.071615	-0.099637	-0.304876	-0.162673	0.070205	-0.293487	-0.238153	-0.172384	-0.079736	
0.922934	5.3482	0	0	-0.0535743	-0.603331	-0.228985	0.574659	0.0361433	-0.410811	-0.16788	-0.0658108	0.086852	-0.3886	0.132172	0.249358	0.0612905	-0.73487	0.253638	-0.261921	-0.093449	-0.931555	-0.210301	-0.781451	-0.219959	-0.853946	-0.109743	-0.0208305	-0.0758875	-0.250259	-0.143401	0.118625	-0.277047	-0.189391	-0.158157	-0.034971	
0.923083	5.34668	0	0	-0.0472545	-0.591062	-0.227815	0.57135	0.0450995	-0.398165	-0.159131	-0.0695025	0.080726	-0.337539	0.117036	0.318648	0.073271	-0.679782	0.290774	-0.186583	-0.081642	-0.884323	-0.197468	-0.72549	-0.206002	-0.793308	-0.100813	0.029954	-0.052138	-0.195642	-0.12413	0.167045	-0.260607	-0.14063	-0.143929	0.009794	
0.924597	5.3482	0	0	-0.0409347	-0.578793	-0.226644	0.568042	0.0540557	-0.38552	-0.150382	-0.0731943	0.0746	-0.286477	0.1019	0.387938	0.0852515	-0.624693	0.32791	-0.111246	-0.069835	-0.83709	-0.184634	-0.669528	-0.192044	-0.732669	-0.0918825	0.0807385	-0.0283885	-0.141025	-0.104858	0.215465	-0.244167	-0.0918685	-0.129701	0.054559	
0.927069	5.35126	0	0	-0.034615	-0.566523	-0.225473	0.564734	0.063012	-0.372874	-0.141633	-0.076886	0.068474	-0.235416	0.086764	0.457228	0.097232	-0.569604	0.365047	-0.035908	-0.058028	-0.789857	-0.1718	-0.613567	-0.178087	-0.672031	-0.082952	0.131523	-0.004639	-0.086408	-0.085586	0.263885	-0.227727	-0.043107	-0.115474	0.099324	
0.93009	5.34973	0	0	-0.0198515	-0.537752	-0.213387	0.592529	0.0771505	-0.336684	-0.129348	-0.0483607	0.090045	-0.181175	0.11058	0.496353	0.126568	-0.509307	0.432143	0.0350925	-0.040489	-0.758473	-0.151535	-0.57815	-0.155445	-0.635397	-0.0684587	0.157339	0.0107842	-0.0600737	-0.075398	0.276406	-0.21845	-0.0215305	-0.104349	0.113799	
0.933251	5.34668	0	0	-0.005088	-0.508981	-0.201301	0.620325	0.091289	-0.300495	-0.117063	-0.0198355	0.111616	-0.126935	0.134396	0.535478	0.155905	-0.44901	0.499239	0.106093	-0.02295	-0.727089	-0.131269	-0.542732	-0.132802	-0.598762	-0.0539655	0.183154	0.0262075	-0.0337395	-0.06521	0.288927	-0.209173	4.6E-05	-0.093224	0.128274	
0.936145	5.34363	0	0	0.0096755	-0.480209	-0.189215	0.64812	0.105428	-0.264305	-0.104777	0.00868975	0.133187	-0.0726938	0.158211	0.574603	0.185241	-0.388713	0.566335	0.177094	-0.005411	-0.695705	-0.111004	-0.507315	-0.11016	-0.562128	-0.0394723	0.20897	0.0416308	-0.00740525	-0.055022	0.301448	-0.199896	0.0216225	-0.082099	0.142749	
0.938363	5.34057	0	0	0.024439	-0.451438	-0.177129	0.675916	0.119566	-0.228116	-0.092492	0.037215	0.154758	-0.018453	0.182027	0.613728	0.214577	-0.328416	0.633431	0.248094	0.012128	-0.664321	-0.090738	-0.471898	-0.087518	-0.525493	-0.024979	0.234786	0.057054	0.018929	-0.044834	0.313969	-0.190619	0.043199	-0.070974	0.157224	
0.939537	5.33752	0	0	0.0163932	-0.418608	-0.193642	0.722586	0.115773	-0.194491	-0.100098	0.072795	0.17448	0.028055	0.19405	0.668909	0.23433	-0.285144	0.662363	0.306832	0.022628	-0.626266	-0.086484	-0.432225	-0.0741358	-0.48242	-0.0167603	0.278574	0.0725782	0.0540328	-0.027963	0.349193	-0.1757	0.0681558	-0.0522147	0.183186	
0.939951	5.336	0	0	0.0083475	-0.385777	-0.210156	0.769256	0.11198	-0.160865	-0.107705	0.108375	0.194202	0.074563	0.206073	0.72409	0.254084	-0.241873	0.691296	0.36557	0.033128	-0.588211	-0.08223	-0.392553	-0.0607535	-0.439346	-0.0085415	0.322362	0.0881025	0.0891365	-0.011092	0.384416	-0.160782	0.0931125	-0.0334555	0.209147	
0.940429	5.33752	0	0	0.00030175	-0.352946	-0.22667	0.815926	0.108186	-0.12724	-0.115311	0.143955	0.213924	0.121071	0.218097	0.779272	0.273837	-0.198601	0.720228	0.424308	0.043628	-0.550157	-0.077976	-0.35288	-0.0473712	-0.396273	-0.00032275	0.36615	0.103627	0.12424	0.005779	0.419639	-0.145863	0.118069	-0.0146963	0.235109	
0.941806	5.336	0	0	-0.007744	-0.320116	-0.243183	0.862596	0.104393	-0.093615	-0.122917	0.179535	0.233646	0.167579	0.23012	0.834453	0.29359	-0.15533	0.74916	0.483046	0.054128	-0.512102	-0.073722	-0.313208	-0.033989	-0.3532	0.007896	0.409938	0.119151	0.159344	0.02265	0.454863	-0.130944	0.143026	0.004063	0.26107	
0.944921	5.336	0	0	-0.0027075	-0.304039	-0.24107	0.892119	0.105031	-0.0648333	-0.121787	0.211598	0.25185	0.184609	0.246795	0.849995	0.304496	-0.140933	0.747876	0.486674	0.0593513	-0.506496	-0.0674483	-0.320582	-0.0225065	-0.355226	0.016099	0.41555	0.118156	0.162156	0.028136	0.453212	-0.135514	0.13674	0.004063	0.26107	
0.950612	5.33447	0	0	0.002329	-0.287963	-0.238957	0.921643	0.105668	-0.0360515	-0.120658	0.243662	0.270054	0.201639	0.26347	0.865536	0.315402	-0.126537	0.746592	0.490302	0.0645745	-0.500891	-0.0611745	-0.327956	-0.011024	-0.357251	0.024302	0.421162	0.117161	0.164969	0.033622	0.451562	-0.140085	0.130455	0.004063	0.26107	
0.959716	5.33142	0	0	0.0073655	-0.271886	-0.236845	0.951166	0.106306	-0.00726975	-0.119529	0.275725	0.288257	0.218669	0.280144	0.881078	0.326308	-0.112141	0.745309	0.493931	0.0697978	-0.495285	-0.0549007	-0.335331	0.0004585	-0.359276	0.032505	0.426775	0.116166	0.167781	0.039108	0.449911	-0.144655	0.124169	0.004063	0.26107	
0.97307	5.33752	0	0	0.012402	-0.255809	-0.234732	0.980689	0.106944	0.021512	-0.118399	0.307789	0.306461	0.235699	0.296819	0.89662	0.337214	-0.097744	0.744025	0.497559	0.075021	-0.48968	-0.048627	-0.342705	0.011941	-0.361302	0.040708	0.432387	0.115171	0.170593	0.044594	0.44826	-0.149225	0.117883	0.004063	0.26107	
0.991177	5.33752	0	0	0.00392125	-0.241951	-0.230943	1.01444	0.11364	0.0485592	-0.115007	0.340597	0.335448	0.298402	0.30465	0.955371	0.341913	-0.0656952	0.711819	0.526978	0.0852823	-0.47107	-0.0479032	-0.313648	0.0244648	-0.325509	0.062833	0.475823	0.126585	0.199995	0.0629248	0.486752	-0.140232	0.121279	0.0144	0.278082	
1.01172	5.3421	0	0	-0.0045595	-0.228092	-0.227154	1.0482	0.120336	0.0756065	-0.111614	0.373405	0.364436	0.361105	0.312481	1.01412	0.346612	-0.0336465	0.679612	0.556397	0.0955435	-0.45246	-0.0471795	-0.28459	0.0369885	-0.289716	0.084958	0.519259	0.137998	0.229398	0.0812555	0.525243	-0.13124	0.124675	0.024737	0.295095	
1.03098	5.35126	0	0	-0.0130402	-0.214233	-0.223366	1.08196	0.127031	0.102654	-0.108221	0.406212	0.393423	0.423808	0.320313	1.07287	0.351311	-0.00159775	0.647406	0.585816	0.105805	-0.433849	-0.0464558	-0.255533	0.0495123	-0.253923	0.107083	0.562695	0.149412	0.2588	0.0995863	0.563735	-0.122247	0.128071	0.035074	0.312107	
1.04522	5.35583	0	0	-0.021521	-0.200375	-0.219577	1.11571	0.133727	0.129701	-0.104829	0.43902	0.42241	0.486511	0.328144	1.13163	0.35601	0.030451	0.615199	0.615235	0.116066	-0.415239	-0.045732	-0.226476	0.062036	-0.21813	0.129208	0.606131	0.160826	0.288203	0.117917	0.602227	-0.113255	0.131467	0.045411	0.329119	
1.05069	5.36041	0	0	-0.0248945	-0.200944	-0.213937	1.13542	0.147148	0.160941	-0.0916795	0.465632	0.473515	0.543666	0.345333	1.15524	0.374502	0.0509457	0.617037	0.636416	0.130721	-0.415751	-0.034421	-0.227287	0.0800505	-0.207807	0.147621	0.62184	0.160826	0.288203	0.122151	0.61116	-0.130161	0.121669	0.0413398	0.3208	
1.04367	5.36346	0	0	-0.028268	-0.201514	-0.208297	1.15513	0.160568	0.192181	-0.07853	0.492243	0.524621	0.60082	0.362522	1.17885	0.392995	0.0714405	0.618875	0.657598	0.145376	-0.416264	-0.02311	-0.228099	0.098065	-0.197483	0.166035	0.637549	0.160826	0.288203	0.126386	0.620092	-0.147066	0.111872	0.0372685	0.31248	
1.02042	5.36499	0	0	-0.0316415	-0.202083	-0.202657	1.17483	0.173988	0.223421	-0.0653805	0.518854	0.575726	0.657975	0.379712	1.20246	0.411487	0.0919352	0.620713	0.678779	0.160031	-0.416776	-0.011799	-0.22891	0.116079	-0.18716	0.184448	0.653258	0.160826	0.288203	0.130621	0.629025	-0.163972	0.102074	0.0331972	0.304161	
0.977196	5.37109	0	0	-0.035015	-0.202652	-0.197017	1.19454	0.187409	0.254661	-0.052231	0.545466	0.626831	0.715129	0.396901	1.22608	0.429979	0.11243	0.622551	0.69996	0.174686	-0.417288	-0.000488	-0.229721	0.134094	-0.176837	0.202861	0.668967	0.160826	0.288203	0.134855	0.637958	-0.180878	0.092277	0.029126	0.295842	
0.912623	5.37414	0	0	-0.0434937	-0.188788	-0.196196	1.22794	0.199506	0.29763	-0.0471478	0.587972	0.666814	0.798859	0.414662	1.2847	0.435076	0.152778	0.614003	0.75053	0.189415	-0.390537	0.013309	-0.195815	0.155301	-0.123982	0.225724	0.721066	0.172243	0.317802	0.153224	0.676886	-0.178447	0.104577	0.0350682	0.312101	
0.835942	5.38177	0	0	-0.0519725	-0.174924	-0.195375	1.26133	0.211603	0.340599	-0.0420645	0.630478	0.706797	0.882588	0.432424	1.34332	0.440173	0.193126	0.605455	0.8011	0.204143	-0.363786	0.027106	-0.161909	0.176508	-0.0711265	0.248588	0.773165	0.18366	0.347402	0.171592	0.715815	-0.176015	0.116877	0.0410105	0.328361	
0.759387	5.3833	0	0	-0.0604513	-0.16106	-0.194553	1.29472	0.2237	0.383569	-0.0369813	0.672985	0.746779	0.966317	0.450186	1.40193	0.445271	0.233475	0.596908	0.85167	0.218871	-0.337035	0.040903	-0.128002	0.197715	-0.0182712	0.271452	0.825263	0.195076	0.377001	0.18996	0.754743	-0.173584	0.129178	0.0469528	0.34462	
0.695193	5.3894	0	0	-0.06893	-0.147196	-0.193732	1.32812	0.235797	0.426538	-0.031898	0.715491	0.786762	1.05005	0.467947	1.46055	0.450368	0.273823	0.58836	0.90224	0.2336	-0.310284	0.0547	-0.094096	0.218922	0.034584	0.294315	0.877362	0.206493	0.406601	0.208329	0.793671	-0.171152	0.141478	0.052895	0.36088	
0.655595	5.3894	0	0	-0.0727655	-0.136356	-0.189824	1.3439	0.252796	0.455974	-0.0243575	0.744086	0.828314	1.08153	0.474695	1.4779	0.467233	0.290244	0.599558	0.914697	0.239705	-0.306974	0.0564537	-0.0886145	0.230154	0.0440247	0.298129	0.886107	0.203425	0.40642	0.203693	0.792769	-0.170086	0.138464	0.0479812	0.354928	
0.651424	5.3894	0	0	-0.076601	-0.125516	-0.185916	1.35969	0.269794	0.485411	-0.016817	0.772682	0.869866	1.11302	0.481442	1.49524	0.484098	0.306665	0.610757	0.927153	0.24581	-0.303665	0.0582075	-0.083133	0.241387	0.0534655	0.301943	0.894851	0.200358	0.406239	0.199056	0.791867	-0.169019	0.135451	0.0430675	0.348975	
0.681366	5.38635	0	0	-0.0804365	-0.114675	-0.182007	1.37548	0.286793	0.514848	-0.0092765	0.801277	0.911418	1.14451	0.48819	1.51259	0.500963	0.323087	0.621955	0.93961	0.251914	-0.300355	0.0599613	-0.0776515	0.252619	0.0629062	0.305756	0.903596	0.19729	0.406058	0.19442	0.790966	-0.167953	0.132438	0.0381538	0.343023	
0.737888	5.38635	0	0	-0.084272	-0.103835	-0.178099	1.39126	0.303792	0.544284	-0.001736	0.829872	0.95297	1.176	0.494938	1.52993	0.517828	0.339508	0.633154	0.952067	0.258019	-0.297046	0.061715	-0.07217	0.263851	0.072347	0.30957	0.912341	0.194222	0.405877	0.189784	0.790064	-0.166886	0.129424	0.03324	0.337071	
0.813408	5.38483	0	0	-0.08731	-0.0851515	-0.181954	1.42007	0.304277	0.573996	-0.0044645	0.859013	0.965173	1.21285	0.500856	1.55882	0.523318	0.360712	0.635073	0.982001	0.263925	-0.286285	0.0702585	-0.0545067	0.272521	0.0891187	0.315902	0.933554	0.197338	0.414775	0.190397	0.809342	-0.164456	0.141749	0.0391785	0.353365	
0.900344	5.38635	0	0	-0.090348	-0.066468	-0.18581	1.44887	0.304762	0.603708	-0.007193	0.888154	0.977377	1.24969	0.506774	1.58771	0.528807	0.381916	0.636993	1.01194	0.26983	-0.275524	0.078802	-0.0368435	0.281192	0.10589	0.322235	0.954767	0.200455	0.423673	0.19101	0.82862	-0.162027	0.154074	0.045117	0.36966	
0.991112	5.38025	0	0	-0.093386	-0.0477845	-0.189665	1.47768	0.305246	0.63342	-0.0099215	0.917294	0.98958	1.28654	0.512692	1.61661	0.534297	0.403121	0.638912	1.04187	0.275735	-0.264764	0.0873455	-0.0191803	0.289863	0.122662	0.328568	0.97598	0.203571	0.432572	0.191623	0.847897	-0.159597	0.166398	0.0510555	0.385955	
1.07813	5.38025	0	0	-0.096424	-0.029101	-0.19352	1.50648	0.305731	0.663132	-0.01265	0.946435	1.00178	1.32339	0.51861	1.6455	0.539787	0.424325	0.640832	1.0718	0.281641	-0.254003	0.095889	-0.001517	0.298533	0.139434	0.3349	0.997193	0.206687	0.44147	0.192236	0.867175	-0.157167	0.178723	0.056994	0.402249	
1.15381	5.37567	0	0	-0.102354	-0.0224393	-0.192308	1.50306	0.303751	0.668726	-0.0182563	0.94799	1.00883	1.32492	0.517753	1.62966	0.546556	0.414385	0.643447	1.06442	0.274054	-0.260014	0.0873455	-0.0191802	0.285994	0.133596	0.320189	0.989895	0.197391	0.423511	0.181459	0.848646	-0.162797	0.175442	0.059015	0.389916	
1.21058	5.37109	0	0	-0.108285	-0.0157775	-0.191096	1.49963	0.301772	0.674319	-0.0238625	0.949545	1.01588	1.32644	0.516896	1.61382	0.553326	0.404444	0.646061	1.05703	0.266468	-0.266024	0.078802	-0.0368435	0.273455	0.127757	0.305478	0.982596	0.188095	0.405552	0.170681	0.830118	-0.168427	0.17216	0.061036	0.377584	
1.24085	5.36346	0	0	-0.114215	-0.00911575	-0.189884	1.49621	0.299793	0.679913	-0.0294688	0.9511	1.02293	1.32797	0.51604	1.59798	0.560095	0.394504	0.648676	1.04964	0.258881	-0.272034	0.0702585	-0.0545067	0.260916	0.121918	0.290767	0.975298	0.178799	0.387594	0.159904	0.811589	-0.174056	0.168879	0.063057	0.365252	
1.23842	5.36041	0	0	-0.120145	-0.002454	-0.188672	1.49278	0.297813	0.685507	-0.035075	0.952655	1.02998	1.3295	0.515183	1.58214	0.566864	0.384564	0.651291	1.04225	0.251295	-0.278045	0.061715	-0.07217	0.248377	0.11608	0.276056	0.967999	0.169503	0.369635	0.149127	0.79306	-0.179686	0.165598	0.065078	0.352919	
1.20697	5.35583	0	0	-0.127516	-0.0420942	-0.201363	1.43036	0.292897	0.63729	-0.0514223	0.892036	1.01396	1.26064	0.481002	1.48808	0.548624	0.316982	0.615468	0.958593	0.2342	-0.332316	0.0211015	-0.144375	0.22833	0.0289875	0.246316	0.886833	0.142529	0.296264	0.118024	0.713976	-0.205025	0.112943	0.042329	0.29845	
1.15453	5.35431	0	0	-0.134887	-0.0817345	-0.214054	1.36794	0.28798	0.589074	-0.0677695	0.831417	0.997943	1.19178	0.446821	1.39402	0.530385	0.249399	0.579646	0.874941	0.217106	-0.386586	-0.019512	-0.21658	0.208282	-0.058105	0.216576	0.805666	0.115554	0.222894	0.0869215	0.634892	-0.230364	0.060288	0.01958	0.243981	
1.08915	5.35126	0	0	-0.142259	-0.121375	-0.226745	1.30552	0.283064	0.540857	-0.0841168	0.770797	0.981922	1.12292	0.41264	1.29996	0.512145	0.181816	0.543823	0.791288	0.200011	-0.440857	-0.0601255	-0.288785	0.188235	-0.145197	0.186836	0.7245	0.0885795	0.149523	0.0558188	0.555809	-0.255703	0.007633	-0.003169	0.189513	
1.01889	5.35126	0	0	-0.14963	-0.161015	-0.239436	1.2431	0.278148	0.49264	-0.100464	0.710178	0.965901	1.05407	0.378459	1.2059	0.493905	0.114234	0.508	0.707635	0.182916	-0.495128	-0.100739	-0.36099	0.168188	-0.23229	0.157096	0.643333	0.061605	0.076153	0.024716	0.476725	-0.281042	-0.045022	-0.025918	0.135044	
0.951779	5.3482	0	0	-0.173694	-0.23335	-0.27598	1.1073	0.254244	0.398134	-0.139786	0.595454	0.913197	0.920695	0.329089	1.03193	0.447694	-0.0091985	0.432855	0.555638	0.145862	-0.580398	-0.158874	-0.494051	0.110618	-0.363869	0.103959	0.505476	0.00243225	-0.000433	-0.0479965	0.407198	-0.330654	-0.103815	-0.080525	0.0931042	
0.895875	5.34363	0	0	-0.197759	-0.305685	-0.312524	0.971499	0.23034	0.303627	-0.179108	0.480729	0.860494	0.787326	0.279719	0.857965	0.401483	-0.132631	0.35771	0.403641	0.108809	-0.665668	-0.217009	-0.627113	0.0530475	-0.495449	0.0508215	0.367619	-0.0567405	-0.077019	-0.120709	0.337672	-0.380266	-0.162609	-0.135132	0.0511645	
0.85844	5.34363	0	0	-0.221823	-0.378021	-0.349068	0.835702	0.206435	0.20912	-0.218429	0.366005	0.80779	0.653956	0.230349	0.683998	0.355273	-0.256063	0.282564	0.251645	0.0717548	-0.750937	-0.275144	-0.760174	-0.00452275	-0.627028	-0.00231575	0.229761	-0.115913	-0.153605	-0.193421	0.268145	-0.429877	-0.221402	-0.189739	0.00922475	
0.839589	5.336	0	0	-0.245887	-0.450356	-0.385612	0.699904	0.182531	0.114614	-0.257751	0.251281	0.755086	0.520586	0.180979	0.51003	0.309062	-0.379496	0.207419	0.099648	0.034701	-0.836207	-0.333279	-0.893236	-0.062093	-0.758608	-0.055453	0.091904	-0.175086	-0.230191	-0.266134	0.198618	-0.479489	-0.280195	-0.244346	-0.032715	
0.835614	5.33905	0	0	-0.256279	-0.470854	-0.395845	0.676109	0.172604	0.0812985	-0.274435	0.221424	0.731186	0.46943	0.162197	0.483344	0.273009	-0.430163	0.170097	0.0511233	0.0224788	-0.869052	-0.353383	-0.927746	-0.0789793	-0.801276	-0.0668923	0.0481715	-0.193272	-0.247874	-0.28351	0.179601	-0.497318	-0.295674	-0.254048	-0.0443018	
0.842771	5.33447	0	0	-0.266672	-0.491352	-0.406078	0.652315	0.162678	0.047983	-0.291119	0.191567	0.707286	0.418274	0.143415	0.456658	0.236955	-0.480831	0.132774	0.0025985	0.0102565	-0.901896	-0.373487	-0.962255	-0.0958655	-0.843944	-0.0783315	0.004439	-0.211458	-0.265558	-0.300887	0.160584	-0.515146	-0.311154	-0.26375	-0.0558885	
0.857313	5.336	0	0	-0.277064	-0.51185	-0.416311	0.628521	0.152751	0.0146675	-0.307804	0.16171	0.683385	0.367118	0.124632	0.429973	0.200902	-0.531498	0.0954522	-0.0459262	-0.00196575	-0.934741	-0.393592	-0.996765	-0.112752	-0.886613	-0.0897707	-0.0392935	-0.229644	-0.283241	-0.318263	0.141567	-0.532975	-0.326633	-0.273453	-0.0674752	
0.875496	5.33295	0	0	-0.287456	-0.532348	-0.426544	0.604726	0.142824	-0.018648	-0.324488	0.131853	0.659485	0.315962	0.10585	0.403287	0.164849	-0.582165	0.05813	-0.094451	-0.014188	-0.967586	-0.413696	-1.03127	-0.129638	-0.929281	-0.10121	-0.083026	-0.24783	-0.300925	-0.33564	0.12255	-0.550803	-0.342112	-0.283155	-0.079062	
0.893575	5.32837	0	0	-0.289107	-0.54759	-0.429875	0.57908	0.138648	-0.0451003	-0.330693	0.10752	0.633469	0.278456	0.103855	0.373582	0.147264	-0.612732	0.0479842	-0.125325	-0.0301345	-0.969545	-0.429399	-1.02734	-0.160301	-0.922606	-0.124901	-0.0729135	-0.249687	-0.287056	-0.337745	0.135299	-0.555999	-0.327426	-0.283774	-0.0643202	
0.90792	5.336	0	0	-0.290759	-0.562832	-0.433206	0.553435	0.134472	-0.0715525	-0.336899	0.0831875	0.607452	0.240949	0.10186	0.343877	0.12968	-0.643298	0.0378385	-0.156198	-0.046081	-0.971504	-0.445103	-1.02341	-0.190963	-0.91593	-0.148593	-0.062801	-0.251544	-0.273186	-0.339849	0.148047	-0.561196	-0.31274	-0.284392	-0.0495785	
0.917224	5.33905	0	0	-0.292411	-0.578074	-0.436538	0.527789	0.130297	-0.0980048	-0.343105	0.0588547	0.581436	0.203442	0.0998658	0.314172	0.112095	-0.673865	0.0276928	-0.187072	-0.0620275	-0.973463	-0.460806	-1.01948	-0.221626	-0.909255	-0.172285	-0.0526885	-0.253401	-0.259317	-0.341953	0.160796	-0.566393	-0.298054	-0.28501	-0.0348367	
0.922338	5.3482	0	0	-0.294062	-0.593316	-0.439869	0.502143	0.126121	-0.124457	-0.34931	0.034522	0.55542	0.165936	0.097871	0.284467	0.09451	-0.704432	0.017547	-0.217946	-0.077974	-0.975422	-0.476509	-1.01554	-0.252288	-0.90258	-0.195976	-0.042576	-0.255258	-0.245448	-0.344058	0.173544	-0.571589	-0.283368	-0.285629	-0.020095	
0.924195	5.36041	0	0	-0.283665	-0.572886	-0.436	0.535045	0.131258	-0.100721	-0.334801	0.0493668	0.565104	0.173194	0.114971	0.306892	0.113308	-0.677294	0.0543935	-0.18569	-0.0708305	-0.95531	-0.462884	-0.98321	-0.241609	-0.882811	-0.194682	-0.0273048	-0.246098	-0.22817	-0.339029	0.17975	-0.560366	-0.268064	-0.276446	-0.0135257	
0.923731	5.37872	0	0	-0.273267	-0.552456	-0.432132	0.567947	0.136395	-0.0769855	-0.320292	0.0642115	0.574788	0.180453	0.132071	0.329318	0.132106	-0.650157	0.09124	-0.153434	-0.063687	-0.935198	-0.449259	-0.950877	-0.230931	-0.863043	-0.193388	-0.0120335	-0.236938	-0.210892	-0.334	0.185956	-0.549142	-0.252761	-0.267263	-0.0069565	
0.921878	5.39551	0	0	-0.26287	-0.532027	-0.428263	0.600849	0.141532	-0.0532497	-0.305784	0.0790562	0.584472	0.187711	0.149171	0.351743	0.150904	-0.623019	0.128086	-0.121178	-0.0565435	-0.915085	-0.435634	-0.918544	-0.220252	-0.843274	-0.192094	0.00323775	-0.227779	-0.193614	-0.32897	0.192163	-0.537918	-0.237457	-0.258079	-0.00038725	
0.919571	5.40771	0	0	-0.252473	-0.511597	-0.424394	0.633751	0.146669	-0.029514	-0.291275	0.093901	0.594156	0.194969	0.166271	0.374168	0.169702	-0.595881	0.164933	-0.088922	-0.0494	-0.894973	-0.422009	-0.88621	-0.209573	-0.823505	-0.1908	0.018509	-0.218619	-0.176336	-0.323941	0.198369	-0.526695	-0.222154	-0.248896	0.006182	
0.917741	5.42755	0	0	-0.244971	-0.502847	-0.424932	0.626495	0.143464	-0.0357675	-0.29024	0.0769985	0.564597	0.216227	0.146654	0.420751	0.165779	-0.566911	0.161635	-0.0624825	-0.046536	-0.85594	-0.414273	-0.836965	-0.20756	-0.779111	-0.195092	0.0590673	-0.202168	-0.127512	-0.311329	0.237787	-0.501632	-0.170169	-0.237455	0.0455958	
0.917019	5.44433	0	0	-0.237468	-0.494096	-0.425469	0.619239	0.140259	-0.042021	-0.289206	0.060096	0.535037	0.237485	0.127036	0.467333	0.161856	-0.53794	0.158337	-0.036043	-0.043672	-0.816906	-0.406537	-0.78772	-0.205547	-0.734716	-0.199383	0.0996255	-0.185718	-0.078688	-0.298717	0.277205	-0.476569	-0.118183	-0.226013	0.0850095	
0.917332	5.46417	0	0	-0.229966	-0.485346	-0.426006	0.611982	0.137055	-0.0482745	-0.288171	0.0431935	0.505478	0.258742	0.107419	0.513915	0.157933	-0.50897	0.155039	-0.0096035	-0.040808	-0.777872	-0.3988	-0.738474	-0.203535	-0.690322	-0.203675	0.140184	-0.169267	-0.029864	-0.286105	0.316624	-0.451506	-0.0661975	-0.214571	0.124423	
0.918503	5.4779	0	0	-0.222464	-0.476596	-0.426544	0.604726	0.13385	-0.054528	-0.287136	0.026291	0.475918	0.28	0.087802	0.560498	0.15401	-0.48	0.151741	0.016836	-0.037944	-0.738839	-0.391064	-0.689229	-0.201522	-0.645928	-0.207967	0.180742	-0.152816	0.01896	-0.273493	0.356042	-0.426443	-0.014212	-0.20313	0.163837	
0.920359	5.49621	0	0	-0.209585	-0.432883	-0.419299	0.645764	0.142178	-0.024423	-0.277265	0.0543677	0.476997	0.304605	0.10413	0.594234	0.17543	-0.432872	0.180864	0.0548068	-0.025801	-0.705623	-0.366309	-0.657133	-0.186578	-0.61782	-0.192959	0.195316	-0.137533	0.0453975	-0.263913	0.363186	-0.39841	0.0111215	-0.192059	0.178353	
0.922725	5.50232	0	0	-0.196706	-0.38917	-0.412053	0.686802	0.150507	0.005682	-0.267393	0.0824445	0.478077	0.32921	0.120458	0.62797	0.196849	-0.385744	0.209987	0.0927775	-0.013658	-0.672408	-0.341553	-0.625037	-0.171634	-0.589712	-0.177952	0.20989	-0.122251	0.071835	-0.254332	0.370331	-0.370378	0.036455	-0.180988	0.19287	
0.925425	5.51605	0	0	-0.183827	-0.345458	-0.404808	0.727839	0.158836	0.035787	-0.257522	0.110521	0.479156	0.353814	0.136786	0.661706	0.218269	-0.338616	0.23911	0.130748	-0.001515	-0.639192	-0.316798	-0.592942	-0.15669	-0.561604	-0.162944	0.224464	-0.106968	0.0982725	-0.244752	0.377475	-0.342345	0.0617885	-0.169918	0.207387	
0.928286	5.52521	0	0	-0.170948	-0.301745	-0.397563	0.768877	0.167164	0.065892	-0.24765	0.138598	0.480235	0.378419	0.153114	0.695442	0.239688	-0.291488	0.268233	0.168719	0.010628	-0.605976	-0.292042	-0.560846	-0.141746	-0.533496	-0.147936	0.239038	-0.091685	0.12471	-0.235172	0.384619	-0.314312	0.087122	-0.158847	0.221903	
0.931144	5.52826	0	0	-0.166089	-0.255168	-0.403223	0.828937	0.160351	0.108183	-0.252596	0.180625	0.471308	0.417491	0.160958	0.753499	0.24282	-0.237246	0.269217	0.209082	0.025496	-0.559835	-0.279413	-0.504204	-0.12539	-0.478768	-0.140437	0.294102	-0.0692015	0.166102	-0.217108	0.422833	-0.295759	0.139837	-0.140516	0.25546	
0.933944	5.53589	0	0	-0.16123	-0.20859	-0.408883	0.888996	0.153539	0.150475	-0.257541	0.222652	0.462381	0.456563	0.168802	0.811556	0.245951	-0.183004	0.270201	0.249445	0.040364	-0.513694	-0.266784	-0.447561	-0.109034	-0.424041	-0.132939	0.349166	-0.046718	0.207493	-0.199043	0.461046	-0.277205	0.192551	-0.122186	0.289018	
0.936682	5.53741	0	0	-0.156371	-0.162013	-0.414543	0.949056	0.146726	0.192766	-0.262487	0.264679	0.453454	0.495635	0.176646	0.869613	0.249082	-0.128761	0.271186	0.289808	0.055232	-0.467553	-0.254156	-0.390919	-0.092678	-0.369313	-0.12544	0.404229	-0.0242345	0.248885	-0.180979	0.499259	-0.258652	0.245266	-0.103855	0.322576	
0.939356	5.54352	0	0	-0.151512	-0.115436	-0.420203	1.00912	0.139913	0.235057	-0.267432	0.306706	0.444527	0.534707	0.18449	0.92767	0.252214	-0.074519	0.27217	0.330171	0.0701	-0.421412	-0.241527	-0.334276	-0.076322	-0.314586	-0.117941	0.459293	-0.001751	0.290276	-0.162915	0.537473	-0.240099	0.29798	-0.085524	0.356133	
0.941965	5.54657	0	0	-0.14159	-0.0829725	-0.409539	1.04084	0.144976	0.259208	-0.256269	0.338428	0.437731	0.546992	0.192876	0.948689	0.265206	-0.0479308	0.268382	0.340877	0.0797197	-0.407768	-0.227076	-0.333931	-0.0652377	-0.305377	-0.109786	0.464923	0.00942	0.293814	-0.155184	0.536284	-0.223238	0.307934	-0.0797978	0.359705	
0.944507	5.54962	0	0	-0.131667	-0.050509	-0.398875	1.07257	0.150039	0.283359	-0.245107	0.370151	0.430934	0.559278	0.201262	0.969708	0.278199	-0.0213425	0.264594	0.351583	0.0893395	-0.394124	-0.212626	-0.333586	-0.0541535	-0.296169	-0.101631	0.470554	0.020591	0.297353	-0.147452	0.535095	-0.206377	0.317889	-0.0740715	0.363277	
0.946979	5.54809	0	0	-0.121745	-0.0180455	-0.388212	1.1043	0.155101	0.30751	-0.233944	0.401873	0.424138	0.571563	0.209648	0.990727	0.291191	0.00524575	0.260805	0.362289	0.0989592	-0.38048	-0.198176	-0.333241	-0.0430693	-0.28696	-0.0934767	0.476185	0.031762	0.300891	-0.139721	0.533905	-0.189517	0.327843	-0.0683452	0.36685	
0.949379	5.54352	0	0	-0.111823	0.014418	-0.377548	1.13602	0.160164	0.331661	-0.222782	0.433596	0.417341	0.583848	0.218034	1.01175	0.304183	0.031834	0.257017	0.372995	0.108579	-0.366836	-0.183725	-0.332896	-0.031985	-0.277751	-0.085322	0.481815	0.042933	0.304429	-0.13199	0.532716	-0.172656	0.337797	-0.062619	0.370422	
0.951699	5.54504	0	0	-0.108653	0.045907	-0.371683	1.18152	0.159706	0.363781	-0.215438	0.476326	0.415141	0.610842	0.226976	1.06724	0.303398	0.0703245	0.242918	0.404205	0.118004	-0.345724	-0.175034	-0.305849	-0.021663	-0.245955	-0.071553	0.519589	0.0501687	0.32796	-0.117155	0.559827	-0.157773	0.363167	-0.0518265	0.392703	
0.953914	5.54199	0	0	-0.105484	0.077396	-0.365819	1.22702	0.159247	0.395901	-0.208095	0.519056	0.412941	0.637836	0.235919	1.12274	0.302613	0.108815	0.228818	0.435414	0.12743	-0.324612	-0.166343	-0.278803	-0.011341	-0.214158	-0.057784	0.557364	0.0574045	0.351491	-0.102321	0.586937	-0.142891	0.388537	-0.041034	0.414984	
0.955994	5.54047	0	0	-0.102314	0.108885	-0.359955	1.27252	0.158788	0.428021	-0.200751	0.561786	0.41074	0.66483	0.244861	1.17823	0.301828	0.147305	0.214719	0.466624	0.136855	-0.303501	-0.157651	-0.251756	-0.001019	-0.182362	-0.044015	0.595139	0.0646402	0.375021	-0.0874865	0.614047	-0.128008	0.413908	-0.0302415	0.437265	
0.957914	5.53589	0	0	-0.099144	0.140374	-0.35409	1.31801	0.15833	0.460141	-0.193407	0.604516	0.40854	0.691824	0.253803	1.23372	0.301043	0.185796	0.20062	0.497833	0.146281	-0.282389	-0.14896	-0.22471	0.009303	-0.150565	-0.030246	0.632913	0.071876	0.398552	-0.072652	0.641158	-0.113125	0.439278	-0.019449	0.459546	
0.959643	5.53436	0	0	-0.101726	0.14767	-0.346129	1.33107	0.160535	0.46934	-0.185346	0.624177	0.411258	0.684142	0.267909	1.22987	0.309827	0.188222	0.205863	0.491654	0.143348	-0.287755	-0.150698	-0.230132	0.009698	-0.161857	-0.0258237	0.630023	0.0717837	0.381209	-0.0727647	0.627649	-0.114328	0.433031	-0.019109	0.451979	
0.961156	5.52521	0	0	-0.104307	0.154966	-0.338167	1.34414	0.162741	0.478538	-0.177285	0.643838	0.413976	0.676459	0.282015	1.22601	0.318611	0.190648	0.211105	0.485475	0.140415	-0.293122	-0.152436	-0.235554	0.010093	-0.173149	-0.0214015	0.627134	0.0716915	0.363866	-0.0728775	0.614141	-0.115532	0.426784	-0.018769	0.444412	
0.962423	5.51758	0	0	-0.106889	0.162262	-0.330205	1.3572	0.164946	0.487737	-0.169224	0.6635	0.416695	0.668777	0.296122	1.22215	0.327394	0.193074	0.216347	0.479296	0.137482	-0.298488	-0.154173	-0.240976	0.010488	-0.184441	-0.0169793	0.624244	0.0715993	0.346522	-0.0729903	0.600633	-0.116735	0.420537	-0.018429	0.436844	
0.96342	5.51453	0	0	-0.109471	0.169558	-0.322244	1.37026	0.167152	0.496935	-0.161163	0.683161	0.419413	0.661095	0.310228	1.21829	0.336178	0.1955	0.22159	0.473117	0.134549	-0.303854	-0.155911	-0.246398	0.010883	-0.195733	-0.012557	0.621355	0.071507	0.329179	-0.073103	0.587124	-0.117938	0.41429	-0.018089	0.429277	
0.964191	5.51147	0	0	-0.112055	0.17686	-0.317411	1.40115	0.164443	0.520034	-0.156568	0.719815	0.42264	0.672775	0.323667	1.25254	0.339532	0.204211	0.227357	0.491408	0.13832	-0.300857	-0.152212	-0.225836	0.0126313	-0.180318	-0.00441925	0.646473	0.0735565	0.332186	-0.0675152	0.598997	-0.110133	0.411534	-0.0148828	0.440041	
0.964862	5.50995	0	0	-0.114639	0.184163	-0.312578	1.43204	0.161735	0.543133	-0.151973	0.75647	0.425866	0.684456	0.337105	1.28679	0.342885	0.212922	0.233124	0.509699	0.142091	-0.29786	-0.148512	-0.205274	0.0143795	-0.164903	0.0037185	0.67159	0.075606	0.335194	-0.0619275	0.610871	-0.102329	0.408778	-0.0116765	0.450805	
0.965559	5.50384	0	0	-0.117222	0.191465	-0.307745	1.46293	0.159027	0.566231	-0.147378	0.793124	0.429093	0.696137	0.350544	1.32104	0.346239	0.221633	0.23889	0.527989	0.145863	-0.294863	-0.144813	-0.184713	0.0161277	-0.149488	0.0118563	0.696708	0.0776555	0.338201	-0.0563398	0.622745	-0.0945238	0.406022	-0.00847025	0.461569	
0.966413	5.49774	0	0	-0.119806	0.198767	-0.302912	1.49381	0.156318	0.58933	-0.142783	0.829778	0.43232	0.707817	0.363982	1.35529	0.349593	0.230344	0.244657	0.54628	0.149634	-0.291866	-0.141114	-0.164151	0.017876	-0.134073	0.019994	0.721825	0.079705	0.341209	-0.050752	0.634618	-0.086719	0.403266	-0.005264	0.472333	
0.967551	5.49316	0	0	-0.122663	0.186608	-0.305808	1.49308	0.154122	0.580092	-0.141442	0.833089	0.424961	0.68704	0.363101	1.33969	0.345815	0.213745	0.23889	0.527989	0.13937	-0.310609	-0.148058	-0.185869	0.0143715	-0.164858	0.0168935	0.701703	0.0673627	0.314576	-0.062815	0.61342	-0.0926315	0.381393	-0.018592	0.45718	
0.969102	5.48859	0	0	-0.12552	0.174449	-0.308705	1.49235	0.151926	0.570855	-0.140101	0.8364	0.417601	0.666263	0.362219	1.3241	0.342036	0.197146	0.233124	0.509699	0.129106	-0.329351	-0.155003	-0.207587	0.010867	-0.195642	0.013793	0.681582	0.0550205	0.287943	-0.074878	0.592222	-0.098544	0.359519	-0.03192	0.442027	
0.971195	5.48706	0	0	-0.128378	0.16229	-0.311601	1.49162	0.14973	0.561617	-0.138759	0.839712	0.410242	0.645486	0.361337	1.30851	0.338258	0.180547	0.227357	0.491408	0.118843	-0.348094	-0.161947	-0.229304	0.0073625	-0.226427	0.0106925	0.66146	0.0426783	0.26131	-0.086941	0.571025	-0.104456	0.337646	-0.045248	0.426874	
0.973946	5.48706	0	0	-0.131235	0.150131	-0.314497	1.49089	0.147534	0.552379	-0.137418	0.843023	0.402883	0.624709	0.360456	1.29292	0.33448	0.163948	0.22159	0.473117	0.108579	-0.366836	-0.168892	-0.251022	0.003858	-0.257212	0.007592	0.641338	0.030336	0.234677	-0.099004	0.549827	-0.110369	0.315773	-0.058576	0.411721	
0.977334	5.48401	0	0	-0.135888	0.153171	-0.311856	1.51019	0.145192	0.566719	-0.130336	0.865678	0.405204	0.638926	0.368059	1.32574	0.336581	0.176189	0.227525	0.499588	0.110674	-0.359127	-0.165195	-0.230469	0.0043455	-0.238256	0.0151285	0.658561	0.0263512	0.245939	-0.0979962	0.560786	-0.114671	0.327932	-0.058916	0.419276	
0.981256	5.48096	0	0	-0.140541	0.156211	-0.309215	1.52949	0.14285	0.581058	-0.123254	0.888333	0.407524	0.653143	0.375661	1.35855	0.338682	0.188431	0.233461	0.526059	0.112769	-0.351417	-0.161499	-0.209917	0.004833	-0.219301	0.022665	0.675784	0.0223665	0.2572	-0.0969885	0.571744	-0.118973	0.340091	-0.059256	0.426832	
0.985605	5.4779	0	0	-0.145193	0.159251	-0.306573	1.54879	0.140507	0.595398	-0.116171	0.910988	0.409845	0.667361	0.383264	1.39137	0.340784	0.200672	0.239397	0.55253	0.114864	-0.343708	-0.157802	-0.189364	0.0053205	-0.200346	0.0302015	0.693007	0.0183817	0.268462	-0.0959808	0.582703	-0.123276	0.352249	-0.059596	0.434387	
0.990274	5.4779	0	0	-0.149846	0.162291	-0.303932	1.5681	0.138165	0.609738	-0.109089	0.933643	0.412166	0.681578	0.390867	1.42418	0.342885	0.212913	0.245332	0.579001	0.116959	-0.335999	-0.154106	-0.168811	0.005808	-0.18139	0.037738	0.71023	0.014397	0.279724	-0.094973	0.593662	-0.127578	0.364408	-0.059936	0.441943	
0.995158	5.4718	0	0	-0.157346	0.153194	-0.307781	1.55221	0.134387	0.597265	-0.115045	0.929129	0.40438	0.668968	0.384146	1.40696	0.339531	0.204211	0.238471	0.572433	0.108172	-0.352024	-0.161046	-0.190519	0.00103	-0.208532	0.0251642	0.688011	0.00219575	0.270392	-0.115515	0.589666	-0.137645	0.363974	-0.0769405	0.443888	
1.00015	5.47027	0	0	-0.164847	0.144098	-0.311631	1.53632	0.130608	0.584793	-0.121001	0.924615	0.396595	0.656357	0.377425	1.38973	0.336178	0.195509	0.231609	0.565864	0.099384	-0.36805	-0.167986	-0.212227	-0.003748	-0.235674	0.0125905	0.665793	-0.0100055	0.261059	-0.136057	0.58567	-0.147711	0.36354	-0.093945	0.445834	
1.00514	5.47027	0	0	-0.172347	0.135001	-0.31548	1.52043	0.126829	0.57232	-0.126957	0.9201	0.388809	0.643746	0.370703	1.37251	0.332825	0.186806	0.224748	0.559295	0.0905965	-0.384075	-0.174926	-0.233936	-0.008526	-0.262815	1.675E-05	0.643574	-0.0222068	0.251726	-0.156599	0.581674	-0.157778	0.363106	-0.11095	0.447779	
1.01003	5.46875	0	0	-0.179847	0.125905	-0.31933	1.50454	0.123051	0.559847	-0.132913	0.915586	0.381024	0.631136	0.363982	1.35529	0.329471	0.178104	0.217887	0.552727	0.081809	-0.4001	-0.181866	-0.255644	-0.013304	-0.289957	-0.012557	0.621355	-0.034408	0.242394	-0.177141	0.577678	-0.167845	0.362672	-0.127954	0.449725	
1.01473	5.46722	0	0	-0.183711	0.136825	-0.31548	1.52043	0.124259	0.571862	-0.129492	0.934385	0.381527	0.650474	0.365717	1.3866	0.334922	0.199078	0.226515	0.580298	0.0845315	-0.387375	-0.178172	-0.2351	-0.0128123	-0.271035	-0.0069095	0.634249	-0.0322733	0.262637	-0.179315	0.590706	-0.16652	0.378178	-0.129493	0.467237	
1.01915	5.46722	0	0	-0.187575	0.147745	-0.311631	1.53632	0.125468	0.583878	-0.126071	0.953184	0.38203	0.669813	0.367452	1.41792	0.340372	0.220051	0.235143	0.607868	0.087254	-0.37465	-0.174478	-0.214557	-0.0123205	-0.252113	-0.001262	0.647142	-0.0301385	0.28288	-0.181488	0.603734	-0.165194	0.393684	-0.131032	0.484749	
1.02321	5.46265	0	0	-0.191439	0.158664	-0.307781	1.55221	0.126676	0.595894	-0.122649	0.971984	0.382534	0.689151	0.369187	1.44923	0.345823	0.241025	0.243771	0.635439	0.0899765	-0.361926	-0.170785	-0.194014	-0.0118287	-0.23319	0.0043855	0.660036	-0.0280038	0.303124	-0.183662	0.616762	-0.163869	0.409191	-0.13257	0.502261	
1.02683	5.45959	0	0	-0.195303	0.169584	-0.303932	1.5681	0.127885	0.607909	-0.119228	0.990783	0.383037	0.708489	0.370922	1.48055	0.351274	0.261998	0.252399	0.66301	0.092699	-0.349201	-0.167091	-0.17347	-0.011337	-0.214268	0.010033	0.67293	-0.025869	0.323367	-0.185836	0.62979	-0.162544	0.424697	-0.134109	0.519773	
1.02993	5.45044	0	0	-0.202786	0.160488	-0.309468	1.54806	0.117996	0.597302	-0.126889	0.976854	0.371618	0.692357	0.362106	1.45116	0.349598	0.257633	0.248086	0.649204	0.0853835	-0.362546	-0.177265	-0.196324	-0.019521	-0.241876	-0.00187475	0.639326	-0.0390863	0.308205	-0.202747	0.615715	-0.168173	0.421353	-0.14418	0.515345	
1.03242	5.44586	0	0	-0.210269	0.151391	-0.315005	1.52803	0.108107	0.586695	-0.134549	0.962926	0.360198	0.676225	0.353289	1.42178	0.347922	0.253269	0.243773	0.635398	0.078068	-0.375891	-0.18744	-0.219177	-0.027705	-0.269485	-0.0137825	0.605722	-0.0523035	0.293044	-0.219659	0.601641	-0.173802	0.41801	-0.154251	0.510916	
1.03423	5.43976	0	0	-0.217752	0.142295	-0.320541	1.50799	0.098218	0.576088	-0.14221	0.948998	0.348778	0.660093	0.344473	1.39239	0.346246	0.248904	0.239459	0.621592	0.0707525	-0.389236	-0.197614	-0.242031	-0.035889	-0.297094	-0.0256902	0.572117	-0.0655208	0.277882	-0.23657	0.587566	-0.179431	0.414666	-0.164322	0.506488	
1.03527	5.43671	0	0	-0.225235	0.133198	-0.326077	1.48796	0.088329	0.565481	-0.149871	0.935069	0.337359	0.643961	0.335657	1.36301	0.34457	0.244539	0.235146	0.607786	0.063437	-0.402581	-0.207789	-0.264885	-0.044073	-0.324702	-0.037598	0.538513	-0.078738	0.26272	-0.253481	0.573491	-0.18506	0.411323	-0.174393	0.50206	
1.03555	5.43365	0	0	-0.22987	0.136227	-0.325599	1.49552	0.0857653	0.565026	-0.150469	0.943868	0.336018	0.654658	0.336524	1.37864	0.355471	0.259282	0.245207	0.640065	0.0626037	-0.400226	-0.215544	-0.253273	-0.0521353	-0.322173	-0.0388645	0.542092	-0.0776978	0.268522	-0.254764	0.583982	-0.187214	0.417411	-0.169888	0.515636	
1.0352	5.42755	0	0	-0.234505	0.139255	-0.325121	1.50308	0.0832015	0.564571	-0.151066	0.952668	0.334677	0.665355	0.337391	1.39427	0.366372	0.274025	0.255268	0.672343	0.0617705	-0.397872	-0.223299	-0.241661	-0.0601975	-0.319644	-0.040131	0.54567	-0.0766575	0.274325	-0.256047	0.594473	-0.189368	0.423498	-0.165384	0.529212	
1.03436	5.41992	0	0	-0.23914	0.142284	-0.324643	1.51064	0.0806378	0.564115	-0.151664	0.961467	0.333336	0.676052	0.338258	1.4099	0.377273	0.288767	0.265329	0.704622	0.0609372	-0.395517	-0.231055	-0.230048	-0.0682598	-0.317115	-0.0413975	0.549249	-0.0756172	0.280128	-0.257331	0.604964	-0.191522	0.429586	-0.160879	0.542789	
1.03318	5.41687	0	0	-0.243775	0.145312	-0.324165	1.51821	0.078074	0.56366	-0.152261	0.970266	0.331995	0.686749	0.339125	1.42554	0.388174	0.30351	0.27539	0.7369	0.060104	-0.393162	-0.23881	-0.218436	-0.076322	-0.314586	-0.042664	0.552828	-0.074577	0.28593	-0.258614	0.615455	-0.193676	0.435674	-0.156374	0.556365	
1.0318	5.40771	0	0	-0.25664	0.1314	-0.330907	1.50163	0.0654187	0.53793	-0.162211	0.955765	0.321037	0.662532	0.326163	1.39896	0.387755	0.295576	0.282109	0.735293	0.0475867	-0.412088	-0.255403	-0.243514	-0.094662	-0.343559	-0.0558263	0.523011	-0.085834	0.256634	-0.269272	0.58389	-0.206227	0.413511	-0.16271	0.534825	
1.03036	5.40161	0	0	-0.269506	0.117487	-0.33765	1.48506	0.0527635	0.5122	-0.172162	0.941264	0.310078	0.638315	0.3132	1.37238	0.387335	0.287643	0.288829	0.733686	0.0350695	-0.431014	-0.271996	-0.268593	-0.113002	-0.372533	-0.0689885	0.493194	-0.097091	0.227337	-0.27993	0.552326	-0.218778	0.391348	-0.169046	0.513285	
1.02901	5.39856	0	0	-0.282371	0.103575	-0.344392	1.46848	0.0401083	0.486469	-0.182112	0.926762	0.299119	0.614098	0.300237	1.3458	0.386916	0.279709	0.295548	0.732079	0.0225523	-0.449941	-0.288589	-0.293671	-0.131342	-0.401506	-0.0821507	0.463376	-0.108348	0.198041	-0.290588	0.520761	-0.23133	0.369185	-0.175382	0.491745	
1.02788	5.39245	0	0	-0.295236	0.089663	-0.351135	1.45191	0.027453	0.460739	-0.192062	0.912261	0.288161	0.589881	0.287275	1.31922	0.386497	0.271775	0.302267	0.730472	0.010035	-0.468867	-0.305182	-0.31875	-0.149682	-0.43048	-0.095313	0.433559	-0.119605	0.168744	-0.301246	0.489197	-0.243881	0.347022	-0.181718	0.470205	
1.02707	5.39093	0	0	-0.303965	0.0842345	-0.36294	1.46748	0.013477	0.446593	-0.200522	0.921984	0.277255	0.57942	0.28523	1.33401	0.386916	0.279709	0.319082	0.761375	0.002968	-0.462445	-0.308181	-0.310273	-0.152189	-0.423395	-0.103491	0.447117	-0.120595	0.171541	-0.299865	0.492138	-0.251755	0.340524	-0.183898	0.469799	
