0.954	4.35028	0	0	-0.396366	-0.210567	-0.12989	-0.370184	-0.469022	-0.722942	-0.787399	-0.549043	0.155179	0.025897	-0.434894	-0.426251	0.10527	-0.348208	0.449716	-0.606722	1.27313	0.757606	0.702758	-0.250176	0.052913	-0.472024	-0.991171	-0.957476	-0.407007	-0.798981	-0.701156	0.035385	0.002575	-0.010622	-0.527604	-0.693219	
0.956748	4.35028	0	0	-0.407431	-0.220382	-0.134943	-0.380288	-0.483488	-0.7287	-0.795076	-0.560577	0.155179	0.025897	-0.440644	-0.436049	0.0862735	-0.357766	0.434411	-0.616207	1.26234	0.743008	0.688638	-0.262885	0.059253	-0.478765	-0.987146	-0.962067	-0.403686	-0.816894	-0.689723	0.0159188	0.0031705	-0.0373672	-0.5283	-0.699805	
0.958443	4.34723	0	0	-0.418496	-0.230197	-0.139996	-0.390391	-0.497954	-0.734459	-0.802753	-0.572112	0.155179	0.025897	-0.446395	-0.445847	0.067277	-0.367324	0.419106	-0.625692	1.25156	0.728409	0.674517	-0.275594	0.065593	-0.485506	-0.983121	-0.966659	-0.400364	-0.834807	-0.67829	-0.0035475	0.003766	-0.0641125	-0.528997	-0.706391	
0.959226	4.34723	0	0	-0.429561	-0.240012	-0.14505	-0.400495	-0.512421	-0.740217	-0.81043	-0.583646	0.155179	0.025897	-0.452146	-0.455644	0.0482805	-0.376881	0.403801	-0.635176	1.24078	0.71381	0.660397	-0.288303	0.071933	-0.492246	-0.979095	-0.971251	-0.397042	-0.852719	-0.666857	-0.0230137	0.0043615	-0.0908577	-0.529694	-0.712976	
0.959238	4.34723	0	0	-0.440626	-0.249827	-0.150103	-0.410598	-0.526887	-0.745975	-0.818107	-0.595181	0.155179	0.025897	-0.457896	-0.465442	0.029284	-0.386439	0.388496	-0.644661	1.23	0.699212	0.646277	-0.301012	0.078273	-0.498987	-0.97507	-0.975842	-0.393721	-0.870632	-0.655424	-0.04248	0.004957	-0.117603	-0.53039	-0.719562	
0.958619	4.34265	0	0	-0.446115	-0.234313	-0.153563	-0.392695	-0.546292	-0.706654	-0.815704	-0.582041	0.169244	0.071833	-0.452971	-0.433749	0.0339995	-0.349187	0.400146	-0.616042	1.2482	0.749342	0.667175	-0.245885	0.097089	-0.451273	-0.954382	-0.932252	-0.373453	-0.842474	-0.629329	-0.0131462	0.019053	-0.0821513	-0.511519	-0.687179	
0.95751	4.34418	0	0	-0.451605	-0.218799	-0.157023	-0.374792	-0.565697	-0.667334	-0.8133	-0.568902	0.183308	0.117769	-0.448047	-0.402057	0.038715	-0.311935	0.411796	-0.587424	1.26639	0.799473	0.688072	-0.190757	0.115905	-0.403559	-0.933693	-0.888661	-0.353185	-0.814315	-0.603234	0.0161875	0.033149	-0.0466995	-0.492649	-0.654797	
0.956052	4.34112	0	0	-0.457094	-0.203285	-0.160483	-0.356889	-0.585103	-0.628013	-0.810897	-0.555762	0.197373	0.163705	-0.443122	-0.370364	0.0434305	-0.274683	0.423446	-0.558805	1.28459	0.849603	0.70897	-0.13563	0.134721	-0.355844	-0.913005	-0.84507	-0.332917	-0.786157	-0.577139	0.0455213	0.047245	-0.0112478	-0.473778	-0.622414	
0.954385	4.33807	0	0	-0.462583	-0.187771	-0.163943	-0.338986	-0.604508	-0.588692	-0.808494	-0.542623	0.211437	0.209641	-0.438197	-0.338671	0.048146	-0.237431	0.435096	-0.530186	1.30279	0.899733	0.729868	-0.080503	0.153537	-0.30813	-0.892317	-0.80148	-0.312649	-0.757999	-0.551044	0.074855	0.061341	0.024204	-0.454907	-0.590031	
0.95265	4.33655	0	0	-0.445231	-0.18887	-0.151522	-0.308965	-0.589088	-0.570109	-0.78647	-0.51825	0.232536	0.203766	-0.414907	-0.312935	0.075265	-0.199767	0.466201	-0.494395	1.33671	0.940156	0.786522	-0.0368617	0.170635	-0.311437	-0.865994	-0.786967	-0.302943	-0.768295	-0.529201	0.077842	0.0698832	0.008446	-0.443526	-0.561961	
0.950987	4.33655	0	0	-0.427878	-0.189968	-0.139101	-0.278944	-0.573667	-0.551525	-0.764447	-0.493877	0.253635	0.19789	-0.391617	-0.287198	0.102384	-0.162103	0.497306	-0.458603	1.37063	0.98058	0.843176	0.0067795	0.187734	-0.314743	-0.839672	-0.772455	-0.293237	-0.778591	-0.507359	0.080829	0.0784255	-0.007312	-0.432144	-0.533891	
0.949538	4.33502	0	0	-0.410525	-0.191067	-0.12668	-0.248924	-0.558247	-0.532941	-0.742423	-0.469504	0.274734	0.192015	-0.368326	-0.261462	0.129503	-0.124438	0.528412	-0.422812	1.40455	1.021	0.89983	0.0504208	0.204833	-0.318049	-0.813349	-0.757942	-0.283531	-0.788887	-0.485516	0.083816	0.0869677	-0.02307	-0.420762	-0.505822	
0.948443	4.33349	0	0	-0.393173	-0.192166	-0.114259	-0.218903	-0.542827	-0.514358	-0.720399	-0.445131	0.295833	0.18614	-0.345036	-0.235725	0.156622	-0.086774	0.559517	-0.38702	1.43847	1.06143	0.956484	0.094062	0.221931	-0.321356	-0.787026	-0.743429	-0.273825	-0.799183	-0.463674	0.086803	0.09551	-0.038828	-0.409381	-0.477752	
0.947842	4.33655	0	0	-0.375724	-0.16589	-0.105998	-0.176896	-0.533476	-0.462788	-0.700862	-0.413326	0.315021	0.239888	-0.326471	-0.183	0.181148	-0.028252	0.591155	-0.334049	1.47969	1.11672	1.00613	0.16877	0.247271	-0.279952	-0.760363	-0.694977	-0.255892	-0.755339	-0.433748	0.119289	0.119516	0.002667	-0.386869	-0.437659	
0.947876	4.33197	0	0	-0.358275	-0.139615	-0.0977375	-0.134888	-0.524126	-0.411218	-0.681324	-0.381521	0.334209	0.293635	-0.307905	-0.130276	0.205674	0.03027	0.622793	-0.281079	1.5209	1.17202	1.05578	0.243477	0.272612	-0.238549	-0.7337	-0.646526	-0.237959	-0.711496	-0.403822	0.151774	0.143522	0.044162	-0.364356	-0.397567	
0.948686	4.33197	0	0	-0.340827	-0.113339	-0.0894767	-0.0928812	-0.514775	-0.359649	-0.661787	-0.349716	0.353396	0.347383	-0.28934	-0.0775515	0.2302	0.088792	0.654432	-0.228108	1.56211	1.22732	1.10542	0.318185	0.297953	-0.197145	-0.707038	-0.598074	-0.220027	-0.667652	-0.373896	0.18426	0.167529	0.085657	-0.341843	-0.357475	
0.950387	4.32739	0	0	-0.323378	-0.087063	-0.081216	-0.050874	-0.505424	-0.308079	-0.64225	-0.317911	0.372584	0.401131	-0.270775	-0.024827	0.254726	0.147314	0.68607	-0.175138	1.60332	1.28261	1.15507	0.392893	0.323293	-0.155742	-0.680375	-0.549622	-0.202094	-0.623808	-0.34397	0.216746	0.191535	0.127152	-0.319331	-0.317382	
0.952878	4.33044	0	0	-0.30192	-0.0787228	-0.0633392	-0.019381	-0.47546	-0.290876	-0.621796	-0.288289	0.393859	0.395227	-0.247637	-0.00431025	0.28726	0.171176	0.716006	-0.143249	1.63496	1.29703	1.1985	0.433059	0.332516	-0.159123	-0.658725	-0.541669	-0.187136	-0.631589	-0.328541	0.218864	0.199192	0.113951	-0.313969	-0.306517	
0.955955	4.33197	0	0	-0.280462	-0.0703825	-0.0454625	0.012112	-0.445495	-0.273672	-0.601342	-0.258667	0.415135	0.389323	-0.224498	0.0162065	0.319794	0.195038	0.745943	-0.111359	1.6666	1.31144	1.24193	0.473225	0.34174	-0.162503	-0.637076	-0.533717	-0.172179	-0.63937	-0.313111	0.220982	0.206848	0.10075	-0.308607	-0.295652	
0.959414	4.33502	0	0	-0.259004	-0.0620423	-0.0275857	0.043605	-0.415531	-0.256468	-0.580888	-0.229045	0.43641	0.383418	-0.20136	0.0367232	0.352327	0.2189	0.775879	-0.0794695	1.69824	1.32585	1.28536	0.51339	0.350963	-0.165883	-0.615426	-0.525764	-0.157221	-0.647151	-0.297682	0.2231	0.214504	0.0875497	-0.303244	-0.284788	
0.963049	4.33502	0	0	-0.237546	-0.053702	-0.009709	0.075098	-0.385567	-0.239265	-0.560434	-0.199423	0.457685	0.377514	-0.178222	0.05724	0.384861	0.242762	0.805816	-0.04758	1.72988	1.34027	1.32879	0.553556	0.360187	-0.169264	-0.593777	-0.517811	-0.142263	-0.654932	-0.282253	0.225218	0.222161	0.074349	-0.297882	-0.273923	
0.966654	4.33502	0	0	-0.215183	-0.0268395	-0.0017025	0.101853	-0.36987	-0.189082	-0.544411	-0.170407	0.479378	0.414207	-0.15376	0.0810695	0.401423	0.273562	0.827419	-0.0185237	1.75339	1.3666	1.36525	0.587384	0.370811	-0.131062	-0.574013	-0.490362	-0.123615	-0.621125	-0.263563	0.244476	0.244077	0.096997	-0.293623	-0.259905	
0.970026	4.33044	0	0	-0.192821	2.3E-05	0.006304	0.128609	-0.354173	-0.138898	-0.528388	-0.141392	0.501072	0.4509	-0.129298	0.104899	0.417984	0.304363	0.849022	0.0105325	1.7769	1.39294	1.4017	0.621211	0.381435	-0.09286	-0.554249	-0.462913	-0.104966	-0.587318	-0.244873	0.263734	0.265992	0.119645	-0.289363	-0.245887	
0.972958	4.33044	0	0	-0.170459	0.0268855	0.0143105	0.155365	-0.338475	-0.0887145	-0.512364	-0.112376	0.522765	0.487593	-0.104837	0.128728	0.434546	0.335164	0.870625	0.0395887	1.80041	1.41927	1.43816	0.655038	0.392058	-0.054658	-0.534485	-0.435463	-0.0863175	-0.553512	-0.226184	0.282993	0.287908	0.142293	-0.285104	-0.231868	
0.975276	4.33044	0	0	-0.148096	0.053748	0.022317	0.18212	-0.322778	-0.038531	-0.496341	-0.08336	0.544458	0.524286	-0.080375	0.152558	0.451108	0.365964	0.892228	0.068645	1.82392	1.44561	1.47461	0.688866	0.402682	-0.016456	-0.514721	-0.408014	-0.067669	-0.519705	-0.207494	0.302251	0.309824	0.164941	-0.280845	-0.21785	
0.976935	4.33197	0	0	-0.134494	0.0500622	0.0267427	0.186102	-0.300863	-0.0371662	-0.481459	-0.077982	0.555662	0.503542	-0.0794563	0.149961	0.460567	0.352197	0.896386	0.065928	1.81345	1.41715	1.47705	0.672814	0.407235	-0.0407122	-0.506864	-0.423261	-0.0621333	-0.53535	-0.202659	0.288585	0.303578	0.140252	-0.289782	-0.236	
0.977925	4.33044	0	0	-0.120892	0.0463765	0.0311685	0.190084	-0.278948	-0.0358015	-0.466577	-0.072604	0.566866	0.482798	-0.0785375	0.147365	0.470027	0.338429	0.900545	0.063211	1.80299	1.38869	1.47949	0.656762	0.411788	-0.0649685	-0.499007	-0.438508	-0.0565975	-0.550995	-0.197823	0.274919	0.297332	0.115563	-0.298718	-0.254151	
0.978233	4.32892	0	0	-0.107289	0.0426907	0.0355943	0.194065	-0.257034	-0.0344368	-0.451695	-0.067226	0.578071	0.462054	-0.0776188	0.144768	0.479486	0.324662	0.904703	0.060494	1.79252	1.36023	1.48193	0.64071	0.416341	-0.0892247	-0.491149	-0.453756	-0.0510618	-0.566639	-0.192988	0.261253	0.291087	0.090874	-0.307654	-0.272301	
0.97785	4.33197	0	0	-0.093687	0.039005	0.04002	0.198047	-0.235119	-0.033072	-0.436813	-0.061848	0.589275	0.44131	-0.0767	0.142172	0.488945	0.310895	0.908861	0.057777	1.78205	1.33177	1.48437	0.624658	0.420894	-0.113481	-0.483292	-0.469003	-0.045526	-0.582284	-0.188153	0.247587	0.284841	0.066185	-0.316591	-0.290451	
0.976763	4.33197	0	0	-0.078415	0.0655508	0.0417065	0.201532	-0.216629	0.0100247	-0.426252	-0.0441368	0.602167	0.470537	-0.0690325	0.147148	0.4872	0.315827	0.908861	0.057777	1.77195	1.32558	1.46998	0.619638	0.431202	-0.085601	-0.472021	-0.452071	-0.0301755	-0.556168	-0.173624	0.259122	0.291087	0.090874	-0.318377	-0.294072	
0.974962	4.32587	0	0	-0.063143	0.0920965	0.043393	0.205016	-0.198138	0.0531215	-0.415691	-0.0264255	0.615058	0.499763	-0.061365	0.152125	0.485455	0.32076	0.908861	0.057777	1.76185	1.31939	1.45558	0.614618	0.44151	-0.057721	-0.46075	-0.43514	-0.014825	-0.530052	-0.159094	0.270657	0.297332	0.115563	-0.320164	-0.297692	
0.972437	4.32739	0	0	-0.047871	0.118642	0.0450795	0.208501	-0.179648	0.0962183	-0.405131	-0.00871425	0.627949	0.52899	-0.0536975	0.157102	0.483709	0.325692	0.908861	0.057777	1.75175	1.3132	1.44118	0.609598	0.451818	-0.029841	-0.449478	-0.418208	0.0005255	-0.503936	-0.144565	0.282192	0.303578	0.140252	-0.32195	-0.301312	
0.969248	4.32739	0	0	-0.032599	0.145188	0.046766	0.211985	-0.161158	0.139315	-0.39457	0.008997	0.640841	0.558217	-0.04603	0.162078	0.481964	0.330625	0.908861	0.057777	1.74165	1.307	1.42679	0.604578	0.462126	-0.001961	-0.438207	-0.401276	0.015876	-0.47782	-0.130036	0.293727	0.309824	0.164941	-0.323736	-0.304933	
0.965621	4.32892	0	0	-0.0229593	0.131917	0.0455015	0.199062	-0.149212	0.137448	-0.389179	0.00737125	0.639432	0.540287	-0.052171	0.146132	0.47801	0.30293	0.894378	0.0355543	1.72168	1.25962	1.40711	0.56003	0.462659	-0.0262922	-0.440793	-0.421862	0.0134233	-0.488287	-0.13186	0.279142	0.299686	0.142795	-0.333351	-0.32969	
0.961803	4.32739	0	0	-0.0133195	0.118646	0.044237	0.186138	-0.137267	0.135581	-0.383787	0.0057455	0.638023	0.522357	-0.058312	0.130186	0.474055	0.275234	0.879896	0.0133315	1.70171	1.21223	1.38743	0.515481	0.463191	-0.0506235	-0.443379	-0.442447	0.0109705	-0.498754	-0.133685	0.264556	0.289548	0.120649	-0.342966	-0.354448	
0.958041	4.32587	0	0	-0.00367975	0.105375	0.0429725	0.173214	-0.125321	0.133714	-0.378396	0.00411975	0.636614	0.504426	-0.064453	0.11424	0.470101	0.247539	0.865414	-0.00889125	1.68173	1.16485	1.36775	0.470933	0.463724	-0.0749548	-0.445964	-0.463033	0.00851775	-0.509222	-0.135509	0.249971	0.27941	0.098503	-0.35258	-0.379206	
0.954582	4.33044	0	0	0.00596	0.092104	0.041708	0.160291	-0.113375	0.131847	-0.373005	0.002494	0.635205	0.486496	-0.070594	0.098294	0.466147	0.219844	0.850931	-0.031114	1.66176	1.11746	1.34807	0.426385	0.464257	-0.099286	-0.44855	-0.483619	0.006065	-0.519689	-0.137333	0.235385	0.269272	0.076357	-0.362195	-0.403963	
0.951672	4.32587	0	0	0.0212912	0.104772	0.0389675	0.159793	-0.0957662	0.162054	-0.366944	0.019434	0.64812	0.515811	-0.0721205	0.109263	0.458453	0.228649	0.84247	-0.0342017	1.65172	1.11137	1.33354	0.413053	0.475818	-0.0748445	-0.433107	-0.471435	0.0214468	-0.493466	-0.129646	0.253163	0.27161	0.1036	-0.358216	-0.406563	
0.949558	4.32281	0	0	0.0366225	0.117439	0.036227	0.159294	-0.0781575	0.192261	-0.360884	0.036374	0.661035	0.545126	-0.073647	0.120233	0.450759	0.237454	0.834008	-0.0372895	1.64167	1.10528	1.319	0.399722	0.48738	-0.050403	-0.417664	-0.45925	0.0368285	-0.467243	-0.121959	0.270942	0.273948	0.130843	-0.354237	-0.409162	
0.948469	4.32129	0	0	0.0519537	0.130107	0.0334865	0.158795	-0.0605488	0.222468	-0.354823	0.053314	0.67395	0.57444	-0.0751735	0.131202	0.443065	0.246259	0.825547	-0.0403772	1.63163	1.09918	1.30447	0.38639	0.498942	-0.0259615	-0.402222	-0.447066	0.0522102	-0.44102	-0.114272	0.288721	0.276285	0.158085	-0.350259	-0.411762	
0.948376	4.32434	0	0	0.067285	0.142774	0.030746	0.158297	-0.04294	0.252675	-0.348762	0.070254	0.686865	0.603755	-0.0767	0.142172	0.435371	0.255064	0.817086	-0.043465	1.62158	1.09309	1.28994	0.373058	0.510503	-0.00152	-0.386779	-0.434881	0.067592	-0.414797	-0.106585	0.306499	0.278623	0.185328	-0.34628	-0.414362	
0.949053	4.32739	0	0	0.067264	0.128819	0.0294767	0.145408	-0.0309777	0.234904	-0.34073	0.0612015	0.67784	0.585358	-0.0828325	0.126249	0.425474	0.231368	0.808099	-0.0719505	1.60023	1.05038	1.26489	0.335509	0.501743	-0.0224698	-0.392595	-0.453356	0.0536888	-0.40167	-0.114064	0.307873	0.25536	0.208771	-0.356707	-0.41945	
0.950272	4.32434	0	0	0.067243	0.114864	0.0282075	0.13252	-0.0190155	0.217133	-0.332699	0.052149	0.668816	0.56696	-0.088965	0.110327	0.415578	0.207672	0.799113	-0.100436	1.57887	1.00767	1.23984	0.297961	0.492983	-0.0434195	-0.398412	-0.47183	0.0397855	-0.388544	-0.121542	0.309246	0.232097	0.232213	-0.367134	-0.424539	
0.951802	4.32434	0	0	0.067222	0.100908	0.0269383	0.119632	-0.00705325	0.199362	-0.324667	0.0430965	0.659791	0.548563	-0.0950975	0.0944045	0.405681	0.183976	0.790126	-0.128921	1.55752	0.964959	1.21479	0.260412	0.484223	-0.0643693	-0.404228	-0.490304	0.0258823	-0.375417	-0.129021	0.31062	0.208834	0.255656	-0.37756	-0.429627	
0.953415	4.32434	0	0	0.067201	0.086953	0.025669	0.106743	0.004909	0.181591	-0.316636	0.034044	0.650766	0.530166	-0.10123	0.078482	0.395784	0.16028	0.781139	-0.157407	1.53616	0.922249	1.18974	0.222863	0.475463	-0.085319	-0.410044	-0.508779	0.011979	-0.36229	-0.1365	0.311994	0.185571	0.279099	-0.387987	-0.434715	
0.95488	4.32587	0	0	0.0809547	0.0971808	0.0322005	0.10476	0.016106	0.206181	-0.307926	0.0435845	0.664929	0.55603	-0.0993862	0.0932163	0.398258	0.166192	0.779824	-0.153691	1.52946	0.929761	1.1856	0.22557	0.484223	-0.0643693	-0.403294	-0.492942	0.0192877	-0.330578	-0.128013	0.327552	0.182028	0.314482	-0.38442	-0.427527	
0.955968	4.32587	0	0	0.0947085	0.107409	0.038732	0.102776	0.027303	0.23077	-0.299216	0.053125	0.679093	0.581895	-0.0975425	0.107951	0.400732	0.172104	0.778509	-0.149975	1.52277	0.937273	1.18145	0.228276	0.492983	-0.0434195	-0.396545	-0.477105	0.0265965	-0.298866	-0.119525	0.34311	0.178484	0.349866	-0.380853	-0.420338	
0.95651	4.32434	0	0	0.108462	0.117636	0.0452635	0.100793	0.0385	0.25536	-0.290506	0.0626655	0.693257	0.60776	-0.0956987	0.122685	0.403205	0.178016	0.777195	-0.14626	1.51607	0.944785	1.17731	0.230983	0.501743	-0.0224697	-0.389795	-0.461269	0.0339052	-0.267153	-0.111038	0.358668	0.174941	0.385249	-0.377285	-0.41315	
0.956616	4.32281	0	0	0.122216	0.127864	0.051795	0.09881	0.049697	0.27995	-0.281796	0.072206	0.70742	0.633624	-0.093855	0.137419	0.405679	0.183928	0.77588	-0.142544	1.50937	0.952297	1.17317	0.233689	0.510503	-0.00152	-0.383045	-0.445432	0.041214	-0.235441	-0.10255	0.374226	0.171398	0.420633	-0.373718	-0.405961	
0.95647	4.32281	0	0	0.11814	0.111313	0.051156	0.0923765	0.0542935	0.26696	-0.286334	0.0713597	0.7022	0.615402	-0.093556	0.123275	0.400732	0.172112	0.774197	-0.155716	1.49755	0.928727	1.16701	0.215138	0.501743	-0.0224698	-0.390725	-0.458639	0.0290297	-0.201006	-0.115711	0.391638	0.151252	0.469107	-0.384542	-0.40127	
0.95626	4.32434	0	0	0.114063	0.0947615	0.050517	0.085943	0.05889	0.25397	-0.290871	0.0705135	0.69698	0.59718	-0.093257	0.109131	0.395784	0.160297	0.772515	-0.168887	1.48573	0.905157	1.16085	0.196586	0.492983	-0.0434195	-0.398406	-0.471846	0.0168455	-0.166571	-0.128872	0.40905	0.131107	0.517581	-0.395367	-0.396578	
0.956171	4.32281	0	0	0.109987	0.0782102	0.049878	0.0795095	0.0634865	0.24098	-0.295408	0.0696673	0.691759	0.578958	-0.092958	0.0949862	0.390837	0.148481	0.770833	-0.182059	1.47391	0.881588	1.15469	0.178035	0.484223	-0.0643693	-0.406086	-0.485052	0.00466125	-0.132136	-0.142033	0.426463	0.110961	0.566055	-0.406191	-0.391887	
0.95639	4.32434	0	0	0.10591	0.061659	0.049239	0.073076	0.068083	0.22799	-0.299946	0.068821	0.686539	0.560736	-0.092659	0.080842	0.38589	0.136665	0.76915	-0.195231	1.46209	0.858018	1.14854	0.159484	0.475463	-0.085319	-0.413766	-0.498259	-0.007523	-0.097701	-0.155194	0.443875	0.090815	0.614529	-0.417015	-0.387195	
0.957102	4.32892	0	0	0.110792	0.0759352	0.0481883	0.0760455	0.0755755	0.247086	-0.29665	0.0800157	0.699317	0.568605	-0.0859145	0.0883895	0.394302	0.138688	0.774775	-0.193202	1.46589	0.858657	1.15291	0.16508	0.477386	-0.067915	-0.410136	-0.494561	0.00012	-0.0843075	-0.149338	0.447106	0.109409	0.612799	-0.418794	-0.390792	
0.958492	4.32739	0	0	0.115673	0.0902115	0.0471375	0.079015	0.083068	0.266183	-0.293354	0.0912105	0.712094	0.576475	-0.07917	0.095937	0.402714	0.140711	0.780401	-0.191172	1.46969	0.859297	1.15729	0.170677	0.479309	-0.050511	-0.406506	-0.490864	0.007763	-0.070914	-0.143481	0.450338	0.128003	0.611069	-0.420573	-0.394389	
0.960584	4.33197	0	0	0.120554	0.104488	0.0460867	0.0819845	0.0905605	0.285279	-0.290059	0.102405	0.724872	0.584345	-0.0724255	0.103485	0.411126	0.142735	0.786026	-0.189143	1.47349	0.859936	1.16167	0.176273	0.481233	-0.033107	-0.402876	-0.487166	0.015406	-0.0575205	-0.137624	0.453569	0.146598	0.60934	-0.422352	-0.397986	
0.963132	4.33197	0	0	0.125436	0.118764	0.045036	0.084954	0.098053	0.304376	-0.286763	0.1136	0.737649	0.592214	-0.065681	0.111032	0.419538	0.144758	0.791651	-0.187114	1.47729	0.860576	1.16605	0.18187	0.483156	-0.015703	-0.399246	-0.483468	0.023049	-0.044127	-0.131768	0.4568	0.165192	0.60761	-0.424131	-0.401583	
0.965859	4.33349	0	0	0.121339	0.0952588	0.0389193	0.077544	0.092397	0.280089	-0.290059	0.102405	0.72717	0.555897	-0.071221	0.0867907	0.415556	0.117329	0.789767	-0.208674	1.45647	0.83991	1.1488	0.167801	0.451331	-0.0055775	-0.419741	-0.488269	0.023829	-0.0200427	-0.143312	0.469641	0.171266	0.632902	-0.434521	-0.406678	
0.968492	4.33807	0	0	0.117242	0.0717535	0.0328025	0.070134	0.086741	0.255802	-0.293354	0.0912105	0.716692	0.519579	-0.076761	0.0625495	0.411574	0.0899005	0.787884	-0.230235	1.43564	0.819244	1.13155	0.153732	0.419507	0.004548	-0.440237	-0.493069	0.024609	0.0040415	-0.154855	0.482482	0.177339	0.658194	-0.444912	-0.411774	
0.970755	4.3396	0	0	0.113146	0.0482483	0.0266858	0.062724	0.081085	0.231514	-0.29665	0.0800157	0.706213	0.483262	-0.082301	0.0383083	0.407592	0.0624717	0.786	-0.251795	1.41481	0.798577	1.1143	0.139662	0.387682	0.0146735	-0.460732	-0.49787	0.025389	0.0281258	-0.166399	0.495324	0.183412	0.683486	-0.455302	-0.41687	
0.972374	4.33502	0	0	0.109049	0.024743	0.020569	0.055314	0.075429	0.207227	-0.299946	0.068821	0.695734	0.446945	-0.087841	0.014067	0.40361	0.035043	0.784117	-0.273355	1.39399	0.777911	1.09705	0.125593	0.355857	0.024799	-0.481228	-0.502671	0.026169	0.05221	-0.177943	0.508165	0.189486	0.708778	-0.465692	-0.421965	
0.973075	4.33502	0	0	0.113132	0.0412658	0.01847	0.061246	0.081085	0.231514	-0.299798	0.0820725	0.700975	0.465068	-0.080177	0.0189967	0.406091	0.0409175	0.789744	-0.271342	1.39113	0.786	1.10425	0.132138	0.355277	0.0492075	-0.481744	-0.494254	0.0376	0.0550143	-0.173501	0.508797	0.203222	0.703993	-0.469926	-0.435802	
0.972594	4.33502	0	0	0.117214	0.0577885	0.016371	0.067178	0.086741	0.255802	-0.29965	0.095324	0.706217	0.483191	-0.072513	0.0239265	0.408571	0.046792	0.795372	-0.269328	1.38826	0.79409	1.11145	0.138684	0.354697	0.073616	-0.48226	-0.485837	0.049031	0.0578185	-0.169059	0.509429	0.216958	0.699208	-0.47416	-0.44964	
0.970943	4.33807	0	0	0.121297	0.0743112	0.014272	0.07311	0.092397	0.280089	-0.299502	0.108576	0.711458	0.501315	-0.064849	0.0288562	0.411052	0.0526665	0.800999	-0.267315	1.3854	0.802179	1.11865	0.14523	0.354117	0.0980245	-0.482776	-0.47742	0.060462	0.0606227	-0.164616	0.51006	0.230694	0.694423	-0.478394	-0.463477	
0.968396	4.33807	0	0	0.12538	0.090834	0.012173	0.079042	0.098053	0.304376	-0.299354	0.121827	0.7167	0.519438	-0.057185	0.033786	0.413533	0.058541	0.806627	-0.265301	1.38254	0.810268	1.12585	0.151775	0.353537	0.122433	-0.483292	-0.469003	0.071893	0.063427	-0.160174	0.510692	0.24443	0.689638	-0.482628	-0.477315	
0.965241	4.33655	0	0	0.1229	0.0697805	0.004381	0.068185	0.100724	0.272653	-0.298625	0.106098	0.702509	0.493729	-0.0654815	0.0173635	0.401894	0.0399483	0.803418	-0.2831	1.36976	0.812397	1.11041	0.150615	0.339667	0.150244	-0.496505	-0.46643	0.0769563	0.0930975	-0.163653	0.527122	0.256495	0.723799	-0.488356	-0.478309	
0.961762	4.33807	0	0	0.120421	0.048727	-0.003411	0.057328	0.103396	0.24093	-0.297897	0.090369	0.688318	0.46802	-0.073778	0.000941	0.390254	0.0213555	0.800208	-0.3009	1.35699	0.814526	1.09497	0.149456	0.325796	0.178056	-0.509718	-0.463858	0.0820195	0.122768	-0.167133	0.543551	0.268559	0.75796	-0.494084	-0.479302	
0.958245	4.33197	0	0	0.117941	0.0276735	-0.011203	0.046471	0.106067	0.209208	-0.297168	0.07464	0.674127	0.442312	-0.0820745	-0.0154815	0.378614	0.00276275	0.796998	-0.3187	1.34421	0.816656	1.07952	0.148296	0.311926	0.205867	-0.52293	-0.461285	0.0870828	0.152438	-0.170612	0.559981	0.280624	0.792121	-0.499812	-0.480296	
0.954976	4.33044	0	0	0.115462	0.00662	-0.018995	0.035614	0.108738	0.177485	-0.296439	0.058911	0.659936	0.416603	-0.090371	-0.031904	0.366975	-0.01583	0.793789	-0.336499	1.33143	0.818785	1.06408	0.147137	0.298056	0.233678	-0.536143	-0.458712	0.092146	0.182109	-0.174091	0.576411	0.292688	0.826282	-0.50554	-0.48129	
0.952242	4.32739	0	0	0.126818	0.0166345	-0.0124798	0.033633	0.118129	0.199324	-0.292264	0.0676192	0.667741	0.438396	-0.084536	-0.0218243	0.377857	-0.0079825	0.806361	-0.336194	1.34513	0.825393	1.07693	0.155623	0.309151	0.247918	-0.536143	-0.458712	0.097402	0.184876	-0.169647	0.577051	0.305469	0.815822	-0.506224	-0.487942	
0.950281	4.32434	0	0	0.138174	0.026649	-0.0059645	0.031652	0.12752	0.221163	-0.288088	0.0763275	0.675545	0.46019	-0.078701	-0.0117445	0.38874	-0.000135	0.818933	-0.335889	1.35883	0.832002	1.08978	0.164108	0.320246	0.262157	-0.536143	-0.458712	0.102658	0.187642	-0.165202	0.57769	0.318249	0.805362	-0.506908	-0.494594	
0.949068	4.31976	0	0	0.149529	0.0366635	0.00055075	0.029671	0.13691	0.243001	-0.283913	0.0850357	0.68335	0.481983	-0.072866	-0.00166475	0.399622	0.0077125	0.831505	-0.335583	1.37253	0.83861	1.10263	0.172594	0.331341	0.276396	-0.536143	-0.458712	0.107914	0.190409	-0.160757	0.578329	0.33103	0.794903	-0.507593	-0.501246	
0.948494	4.31976	0	0	0.160885	0.046678	0.007066	0.02769	0.146301	0.26484	-0.279737	0.093744	0.691155	0.503776	-0.067031	0.008415	0.410504	0.01556	0.844077	-0.335278	1.38622	0.845218	1.11549	0.18108	0.342436	0.290636	-0.536143	-0.458712	0.11317	0.193176	-0.156313	0.578969	0.343811	0.784443	-0.508277	-0.507898	
0.948446	4.32281	0	0	0.156761	0.0232375	0.0020045	0.017352	0.141535	0.237986	-0.284428	0.0796615	0.670891	0.506247	-0.0820262	0.00432075	0.40134	0.002855	0.834116	-0.342964	1.3767	0.860793	1.10723	0.186474	0.337769	0.315242	-0.55107	-0.465094	0.117971	0.2149	-0.160394	0.590503	0.350944	0.815712	-0.512226	-0.505317	
0.948811	4.32129	0	0	0.152637	-0.000203	-0.003057	0.007014	0.136769	0.211131	-0.289119	0.065579	0.650627	0.508717	-0.0970215	0.0002265	0.392177	-0.00985	0.824156	-0.35065	1.36718	0.876367	1.09898	0.191867	0.333102	0.339848	-0.565997	-0.471476	0.122773	0.236624	-0.164475	0.602036	0.358077	0.846981	-0.516176	-0.502736	
0.949478	4.31671	0	0	0.148512	-0.0236435	-0.0081185	-0.003324	0.132003	0.184277	-0.293811	0.0514965	0.630364	0.511188	-0.112017	-0.00386775	0.383014	-0.022555	0.814196	-0.358336	1.35765	0.891941	1.09072	0.197261	0.328434	0.364455	-0.580923	-0.477859	0.127574	0.258348	-0.168556	0.61357	0.365211	0.87825	-0.520126	-0.500156	
0.950335	4.31824	0	0	0.144388	-0.047084	-0.01318	-0.013662	0.127237	0.157422	-0.298502	0.037414	0.6101	0.513659	-0.127012	-0.007962	0.37385	-0.03526	0.804235	-0.366022	1.34813	0.907516	1.08247	0.202655	0.323767	0.389061	-0.59585	-0.484241	0.132375	0.280072	-0.172637	0.625104	0.372344	0.909519	-0.524075	-0.497575	
0.951271	4.31824	0	0	0.146841	-0.0399863	-0.0110895	-0.0195703	0.131019	0.170918	-0.294841	0.040733	0.615377	0.542571	-0.122105	0.00471075	0.383771	-0.0118098	0.819632	-0.364729	1.3765	0.929652	1.09946	0.208473	0.334577	0.392801	-0.59975	-0.507833	0.134991	0.26385	-0.173001	0.612931	0.383173	0.896089	-0.519724	-0.509872	
0.952216	4.31976	0	0	0.149294	-0.0328885	-0.008999	-0.0254785	0.1348	0.184414	-0.29118	0.044052	0.620653	0.571484	-0.117197	0.0173835	0.393691	0.0116405	0.835028	-0.363436	1.40487	0.951788	1.11646	0.21429	0.345387	0.396541	-0.60365	-0.531424	0.137607	0.247627	-0.173364	0.600758	0.394002	0.882659	-0.515373	-0.522169	
0.953173	4.32739	0	0	0.151747	-0.0257908	-0.0069085	-0.0313868	0.138582	0.19791	-0.287519	0.047371	0.62593	0.600396	-0.11229	0.0300563	0.403612	0.0350907	0.850424	-0.362144	1.43323	0.973925	1.13346	0.220108	0.356197	0.400282	-0.60755	-0.555016	0.140223	0.231405	-0.173728	0.588584	0.404831	0.869229	-0.511021	-0.534465	
0.954154	4.32739	0	0	0.1542	-0.018693	-0.004818	-0.037295	0.142364	0.211406	-0.283858	0.05069	0.631207	0.629309	-0.107382	0.042729	0.413533	0.058541	0.865821	-0.360851	1.4616	0.996061	1.15046	0.225926	0.367007	0.404022	-0.61145	-0.578608	0.142839	0.215182	-0.174091	0.576411	0.41566	0.855799	-0.50667	-0.546762	
0.955168	4.33044	0	0	0.147639	-0.0422093	-0.00571225	-0.0593775	0.135713	0.181866	-0.289072	0.0312805	0.611196	0.674899	-0.112875	0.0582515	0.420977	0.0762123	0.861896	-0.349759	1.48048	1.03412	1.15945	0.245517	0.370353	0.42892	-0.623559	-0.592737	0.147401	0.22879	-0.173501	0.581341	0.432701	0.876494	-0.504895	-0.543196	
0.956228	4.33197	0	0	0.141077	-0.0657255	-0.0066065	-0.08146	0.129062	0.152327	-0.294285	0.011871	0.591184	0.720488	-0.118367	0.073774	0.428421	0.0938835	0.857971	-0.338668	1.49936	1.07217	1.16844	0.265107	0.373699	0.453817	-0.635668	-0.606866	0.151963	0.242398	-0.17291	0.586272	0.449742	0.897189	-0.50312	-0.539631	
0.957344	4.33044	0	0	0.134516	-0.0892417	-0.00750075	-0.103542	0.122411	0.122787	-0.299499	-0.0075385	0.571172	0.766078	-0.123859	0.0892965	0.435865	0.111555	0.854047	-0.327576	1.51824	1.11022	1.17743	0.284698	0.377045	0.478715	-0.647778	-0.620994	0.156524	0.256006	-0.172319	0.591203	0.466784	0.917884	-0.501346	-0.536065	
0.958526	4.33044	0	0	0.127954	-0.112758	-0.008395	-0.125625	0.11576	0.093247	-0.304713	-0.026948	0.551161	0.811668	-0.129352	0.104819	0.443309	0.129226	0.850122	-0.316484	1.53712	1.14828	1.18642	0.304289	0.380391	0.503613	-0.659887	-0.635123	0.161086	0.269614	-0.171729	0.596133	0.483825	0.938579	-0.499571	-0.5325	
0.959782	4.33502	0	0	0.127983	-0.105837	-0.00253875	-0.133976	0.114845	0.0958337	-0.304713	-0.026948	0.567664	0.819922	-0.118334	0.113563	0.463431	0.150021	0.86707	-0.310472	1.57488	1.168	1.20767	0.307438	0.394693	0.486131	-0.669138	-0.670961	0.164141	0.23448	-0.177721	0.573509	0.492558	0.905278	-0.503809	-0.546255	
0.961071	4.33197	0	0	0.128012	-0.0989155	0.0033175	-0.142327	0.11393	0.0984205	-0.304713	-0.026948	0.584167	0.828176	-0.107315	0.122307	0.483552	0.170816	0.884018	-0.30446	1.61264	1.18773	1.22891	0.310588	0.408995	0.468649	-0.678389	-0.7068	0.167195	0.199346	-0.183714	0.550884	0.50129	0.871978	-0.508047	-0.56001	
0.962313	4.33502	0	0	0.128041	-0.0919942	0.00917375	-0.150678	0.113014	0.101007	-0.304713	-0.026948	0.60067	0.836431	-0.0962973	0.131051	0.503673	0.19161	0.900965	-0.298448	1.65039	1.20746	1.25015	0.313737	0.423297	0.451168	-0.687639	-0.742638	0.17025	0.164212	-0.189706	0.52826	0.510023	0.838677	-0.512285	-0.573765	
0.963429	4.33502	0	0	0.12807	-0.085073	0.01503	-0.159029	0.112099	0.103594	-0.304713	-0.026948	0.617173	0.844685	-0.085279	0.139795	0.523795	0.212405	0.917913	-0.292436	1.68815	1.22719	1.27139	0.316886	0.437599	0.433686	-0.69689	-0.778476	0.173305	0.129078	-0.195698	0.505636	0.518756	0.805376	-0.516523	-0.58752	
0.96434	4.33502	0	0	0.104766	-0.0542042	0.00579425	-0.157516	0.076979	0.122566	-0.318295	-0.0294527	0.628731	0.878106	-0.0782277	0.153169	0.535503	0.231271	0.925092	-0.285713	1.71106	1.26651	1.27734	0.327224	0.447505	0.451652	-0.70763	-0.78933	0.179791	0.137248	-0.191854	0.501358	0.540853	0.820659	-0.507937	-0.586054	
0.964966	4.33502	0	0	0.081463	-0.0233355	-0.0034415	-0.156002	0.041859	0.141537	-0.331877	-0.0319575	0.64029	0.911527	-0.0711765	0.166542	0.547211	0.250136	0.932272	-0.27899	1.73398	1.30584	1.28329	0.337562	0.45741	0.469618	-0.71837	-0.800184	0.186277	0.145418	-0.188009	0.49708	0.56295	0.835943	-0.499351	-0.584587	
0.965229	4.33349	0	0	0.0581595	0.00753325	-0.0126772	-0.154489	0.006739	0.160508	-0.34546	-0.0344622	0.651848	0.944947	-0.0641252	0.179916	0.558919	0.269002	0.939451	-0.272266	1.75689	1.34517	1.28923	0.3479	0.467316	0.487583	-0.72911	-0.811038	0.192764	0.153587	-0.184165	0.492803	0.585047	0.851226	-0.490765	-0.583121	
0.965047	4.33502	0	0	0.034856	0.038402	-0.021913	-0.152976	-0.028381	0.17948	-0.359042	-0.036967	0.663407	0.978368	-0.057074	0.19329	0.570627	0.287868	0.946631	-0.265543	1.7798	1.3845	1.29518	0.358238	0.477222	0.505549	-0.73985	-0.821892	0.19925	0.161757	-0.18032	0.488525	0.607144	0.866509	-0.482179	-0.581654	
0.964374	4.33655	0	0	0.0413362	0.0550787	-0.0164513	-0.152024	-0.0264978	0.190187	-0.355391	-0.0336653	0.677434	0.982915	-0.040791	0.200679	0.598629	0.300001	0.957974	-0.261521	1.81078	1.38996	1.31449	0.33993	0.484725	0.484345	-0.748203	-0.859926	0.195352	0.137449	-0.18633	0.466021	0.604979	0.84668	-0.477837	-0.593925	
0.963329	4.34418	0	0	0.0478165	0.0717555	-0.0109895	-0.151071	-0.0246145	0.200893	-0.35174	-0.0303635	0.691461	0.987462	-0.024508	0.208067	0.62663	0.312134	0.969317	-0.257499	1.84176	1.39542	1.33379	0.321622	0.492228	0.46314	-0.756555	-0.89796	0.191453	0.11314	-0.19234	0.443518	0.602814	0.826852	-0.473495	-0.606197	
0.962089	4.3396	0	0	0.0542967	0.0884322	-0.00552775	-0.150118	-0.0227312	0.211599	-0.348089	-0.0270617	0.705488	0.992009	-0.008225	0.215456	0.654632	0.324268	0.98066	-0.253478	1.87274	1.40088	1.3531	0.303314	0.499731	0.441936	-0.764908	-0.935995	0.187555	0.0888315	-0.19835	0.421015	0.600649	0.807024	-0.469152	-0.618468	
0.960831	4.34418	0	0	0.060777	0.105109	-6.6E-05	-0.149166	-0.020848	0.222306	-0.344438	-0.02376	0.719515	0.996556	0.008058	0.222845	0.682634	0.336401	0.992003	-0.249456	1.90372	1.40634	1.3724	0.285006	0.507234	0.420731	-0.773261	-0.974029	0.183657	0.064523	-0.20436	0.398511	0.598484	0.787195	-0.46481	-0.63074	
0.959733	4.3457	0	0	0.0624167	0.128515	-0.000458	-0.139858	-0.0337155	0.250655	-0.346185	-0.0188245	0.733645	1.0231	0.0142117	0.238911	0.690155	0.354398	0.999207	-0.242711	1.92502	1.42792	1.38388	0.288898	0.519685	0.431618	-0.774594	-0.977098	0.190412	0.080758	-0.198306	0.394555	0.614639	0.802139	-0.445103	-0.617641	
0.958972	4.34875	0	0	0.0640565	0.15192	-0.00085	-0.130549	-0.046583	0.279004	-0.347931	-0.013889	0.747774	1.04965	0.0203655	0.254977	0.697677	0.372395	1.00641	-0.235965	1.94631	1.44951	1.39536	0.29279	0.532135	0.442505	-0.775927	-0.980168	0.197167	0.096993	-0.192252	0.390599	0.630794	0.817083	-0.425397	-0.604542	
0.958724	4.3457	0	0	0.0656962	0.175325	-0.001242	-0.121241	-0.0594505	0.307353	-0.349678	-0.0089535	0.761903	1.0762	0.0265193	0.271044	0.705198	0.390392	1.01361	-0.22922	1.96761	1.47109	1.40683	0.296682	0.544586	0.453392	-0.77726	-0.983237	0.203922	0.113228	-0.186198	0.386644	0.646948	0.832027	-0.405691	-0.591444	
0.959168	4.34875	0	0	0.067336	0.198731	-0.001634	-0.111933	-0.072318	0.335702	-0.351424	-0.004018	0.776033	1.10275	0.032673	0.28711	0.712719	0.408389	1.02082	-0.222475	1.9889	1.49267	1.41831	0.300574	0.557037	0.464279	-0.778593	-0.986306	0.210677	0.129463	-0.180144	0.382688	0.663103	0.846971	-0.385984	-0.578345	
0.960387	4.34723	0	0	0.081083	0.20202	0.0126957	-0.103157	-0.0565977	0.339424	-0.344993	0.005076	0.792643	1.08914	0.042233	0.286901	0.725538	0.411497	1.03199	-0.22691	2.01682	1.48414	1.4382	0.298988	0.565478	0.428895	-0.776697	-1.01899	0.210829	0.102532	-0.185369	0.358021	0.662875	0.82162	-0.378753	-0.590164	
0.962274	4.34875	0	0	0.09483	0.205309	0.0270255	-0.094381	-0.0408775	0.343145	-0.338561	0.01417	0.809252	1.07552	0.051793	0.286691	0.738356	0.414605	1.04317	-0.231346	2.04474	1.47561	1.45808	0.297403	0.573918	0.39351	-0.774801	-1.05167	0.210981	0.075601	-0.190594	0.333354	0.662646	0.796269	-0.371522	-0.601982	
0.964695	4.34875	0	0	0.108577	0.208597	0.0413552	-0.085605	-0.0251572	0.346867	-0.332129	0.023264	0.825862	1.06191	0.061353	0.286482	0.751175	0.417714	1.05434	-0.235781	2.07266	1.46709	1.47797	0.295818	0.582359	0.358125	-0.772904	-1.08434	0.211134	0.04867	-0.195819	0.308687	0.662418	0.770919	-0.364291	-0.613801	
0.967519	4.34723	0	0	0.122324	0.211886	0.055685	-0.076829	-0.009437	0.350589	-0.325698	0.032358	0.842472	1.0483	0.070913	0.286273	0.763994	0.420822	1.06551	-0.240216	2.10058	1.45856	1.49786	0.294232	0.5908	0.322741	-0.771008	-1.11702	0.211286	0.021739	-0.201044	0.28402	0.66219	0.745568	-0.35706	-0.62562	
0.970613	4.35028	0	0	0.130437	0.231193	0.0565797	-0.0546717	-0.007552	0.37743	-0.323794	0.0406272	0.854103	1.07111	0.0770813	0.302407	0.773307	0.43392	1.06857	-0.230737	2.11908	1.48872	1.52412	0.311419	0.601737	0.326441	-0.76519	-1.11298	0.217789	0.0298603	-0.198022	0.282045	0.670327	0.75724	-0.348416	-0.624174	
0.973846	4.34418	0	0	0.138549	0.250501	0.0574745	-0.0325145	-0.005667	0.404271	-0.32189	0.0488965	0.865735	1.09392	0.0832495	0.31854	0.782621	0.447018	1.07163	-0.221258	2.13757	1.51889	1.55037	0.328605	0.612674	0.330141	-0.759373	-1.10893	0.224293	0.0379815	-0.194999	0.280071	0.678464	0.768913	-0.339772	-0.622729	
0.977084	4.34112	0	0	0.146662	0.269809	0.0583692	-0.0103572	-0.003782	0.431112	-0.319986	0.0571657	0.877366	1.11673	0.0894178	0.334673	0.791934	0.460116	1.07469	-0.211779	2.15607	1.54905	1.57663	0.345792	0.623611	0.333841	-0.753556	-1.10489	0.230796	0.0461027	-0.191977	0.278096	0.686601	0.780586	-0.331128	-0.621283	
0.980197	4.33807	0	0	0.154774	0.289116	0.059264	0.0118	-0.001897	0.457953	-0.318082	0.065435	0.888997	1.13954	0.095586	0.350807	0.801248	0.473214	1.07774	-0.2023	2.17457	1.57922	1.60289	0.362979	0.634548	0.337541	-0.747738	-1.10084	0.237299	0.054224	-0.188955	0.276121	0.694738	0.792258	-0.322484	-0.619837	
0.983077	4.34418	0	0	0.163699	0.285045	0.0767863	0.01175	0.0157212	0.44845	-0.310403	0.0642262	0.897911	1.11435	0.106727	0.33949	0.818417	0.477381	1.09312	-0.209478	2.21063	1.57197	1.62135	0.356653	0.63854	0.291649	-0.749026	-1.13133	0.228469	0.00859575	-0.197824	0.248718	0.691563	0.775222	-0.303355	-0.613383	
0.985649	4.33349	0	0	0.172625	0.280975	0.0943085	0.0117	0.0333395	0.438948	-0.302723	0.0630175	0.906825	1.08916	0.117868	0.328172	0.835586	0.481548	1.1085	-0.216656	2.24669	1.56473	1.63982	0.350326	0.642532	0.245757	-0.750314	-1.16182	0.219638	-0.0370325	-0.206692	0.221315	0.688389	0.758186	-0.284226	-0.606929	
0.987839	4.3396	0	0	0.18155	0.276904	0.111831	0.01165	0.0509577	0.429446	-0.295044	0.0618087	0.915739	1.06396	0.129008	0.316855	0.852755	0.485714	1.12388	-0.223833	2.28275	1.55749	1.65829	0.344	0.646524	0.199866	-0.751603	-1.19232	0.210807	-0.0826608	-0.21556	0.193913	0.685214	0.741151	-0.265098	-0.600475	
0.989576	4.33655	0	0	0.190475	0.272833	0.129353	0.0116	0.068576	0.419943	-0.287365	0.0606	0.924653	1.03877	0.140149	0.305538	0.869924	0.489881	1.13926	-0.231011	2.3188	1.55025	1.67675	0.337674	0.650516	0.153974	-0.752891	-1.22281	0.201977	-0.128289	-0.224429	0.16651	0.68204	0.724115	-0.245969	-0.594021	
0.990787	4.33044	0	0	0.200238	0.294693	0.136153	0.0254347	0.0769742	0.44467	-0.284066	0.0717925	0.942766	1.05462	0.157823	0.316225	0.900859	0.508283	1.16372	-0.2182	2.35189	1.58771	1.70774	0.360634	0.664305	0.161163	-0.74931	-1.21928	0.200752	-0.13363	-0.214579	0.158331	0.702264	0.736392	-0.21553	-0.575846	
0.991397	4.32892	0	0	0.210001	0.316554	0.142954	0.0392695	0.0853725	0.469397	-0.280767	0.082985	0.960878	1.07047	0.175498	0.326912	0.931793	0.526686	1.18817	-0.205389	2.38497	1.62516	1.73873	0.383593	0.678095	0.168352	-0.745729	-1.21576	0.199526	-0.138972	-0.20473	0.150152	0.722488	0.748669	-0.185091	-0.557671	
0.991335	4.32587	0	0	0.219763	0.338415	0.149754	0.0531042	0.0937707	0.494124	-0.277467	0.0941775	0.978991	1.08632	0.193172	0.337599	0.962728	0.545088	1.21261	-0.192578	2.41806	1.66262	1.76972	0.406553	0.691885	0.175541	-0.742147	-1.21224	0.198301	-0.144314	-0.194881	0.141974	0.742713	0.760946	-0.154652	-0.539497	
0.990533	4.32281	0	0	0.229526	0.360275	0.156554	0.066939	0.102169	0.518851	-0.274168	0.10537	0.997104	1.10217	0.210846	0.348286	0.993662	0.56349	1.23707	-0.179767	2.45114	1.70008	1.80071	0.429513	0.705674	0.18273	-0.738566	-1.20871	0.197076	-0.149655	-0.185031	0.133795	0.762937	0.773223	-0.124213	-0.521322	
0.989042	4.32129	0	0	0.238481	0.34912	0.162064	0.067916	0.116129	0.503675	-0.265594	0.101676	1.00985	1.06616	0.22857	0.33873	1.0258	0.565766	1.26718	-0.17343	2.49663	1.70339	1.83883	0.442272	0.705867	0.147554	-0.736306	-1.23556	0.186021	-0.197464	-0.188097	0.10971	0.759558	0.739345	-0.117632	-0.539921	
0.987052	4.31976	0	0	0.247437	0.337965	0.167574	0.068893	0.13009	0.4885	-0.257019	0.0979825	1.02259	1.03015	0.246294	0.329174	1.05793	0.568042	1.29729	-0.167094	2.54213	1.70671	1.87695	0.455032	0.70606	0.112377	-0.734045	-1.26241	0.174965	-0.245273	-0.191163	0.085624	0.75618	0.705467	-0.111051	-0.55852	
0.984756	4.32129	0	0	0.256392	0.326809	0.173084	0.06987	0.144051	0.473324	-0.248445	0.0942888	1.03533	0.994139	0.264018	0.319617	1.09007	0.570318	1.3274	-0.160757	2.58762	1.71002	1.91507	0.467792	0.706253	0.0772005	-0.731785	-1.28927	0.16391	-0.293081	-0.19423	0.0615385	0.752801	0.671589	-0.10447	-0.577119	
0.982349	4.31671	0	0	0.265347	0.315654	0.178594	0.070847	0.158011	0.458149	-0.23987	0.090595	1.04807	0.958128	0.281742	0.310061	1.1222	0.572594	1.35751	-0.15442	2.63311	1.71333	1.95319	0.480551	0.706446	0.042024	-0.729525	-1.31612	0.152855	-0.34089	-0.197296	0.037453	0.749422	0.637711	-0.097889	-0.595718	
0.980024	4.31671	0	0	0.273511	0.335106	0.183703	0.0812582	0.166448	0.482958	-0.230249	0.0976865	1.07537	0.970753	0.305163	0.325204	1.15247	0.60743	1.39382	-0.137483	2.67728	1.75773	2.00399	0.514514	0.724709	0.059737	-0.717411	-1.30257	0.157824	-0.346167	-0.184002	0.03919	0.767658	0.646999	-0.0887745	-0.604054	
0.977975	4.31213	0	0	0.281675	0.354557	0.188812	0.0916695	0.174884	0.507767	-0.220628	0.104778	1.10266	0.983377	0.328584	0.340348	1.18274	0.642266	1.43012	-0.120545	2.72145	1.80212	2.05478	0.548477	0.742972	0.07745	-0.705298	-1.28902	0.162793	-0.351444	-0.170708	0.040927	0.785894	0.656288	-0.07966	-0.61239	
0.976399	4.31366	0	0	0.289839	0.374009	0.193921	0.102081	0.18332	0.532575	-0.211006	0.111869	1.12995	0.996001	0.352005	0.355491	1.21301	0.677101	1.46643	-0.103607	2.76561	1.84652	2.10558	0.582441	0.761234	0.095163	-0.693184	-1.27547	0.167763	-0.356721	-0.157413	0.042664	0.80413	0.665576	-0.0705455	-0.620726	
0.975471	4.31213	0	0	0.298003	0.393461	0.19903	0.112492	0.191757	0.557384	-0.201385	0.118961	1.15725	1.00863	0.375426	0.370634	1.24328	0.711937	1.50273	-0.08667	2.80978	1.89091	2.15638	0.616404	0.779497	0.112876	-0.681071	-1.26192	0.172732	-0.361998	-0.144119	0.044401	0.822366	0.674864	-0.061431	-0.629062	
0.975181	4.31213	0	0	0.306163	0.377495	0.208371	0.110978	0.202962	0.541964	-0.191904	0.112766	1.16228	0.983176	0.387941	0.362457	1.27579	0.714236	1.52872	-0.0861462	2.85195	1.89355	2.19513	0.629333	0.782493	0.0812725	-0.674781	-1.2797	0.16501	-0.401456	-0.140566	0.0212478	0.821958	0.641236	-0.0661672	-0.659204	
0.975388	4.31213	0	0	0.314323	0.36153	0.217711	0.109464	0.214166	0.526544	-0.182423	0.10657	1.1673	0.957726	0.400455	0.354279	1.3083	0.716534	1.5547	-0.0856225	2.89412	1.89619	2.23388	0.642262	0.785489	0.049669	-0.66849	-1.29747	0.157287	-0.440914	-0.137013	-0.0019055	0.82155	0.607608	-0.0709035	-0.689346	
0.975951	4.31824	0	0	0.322484	0.345564	0.227051	0.107951	0.225371	0.511123	-0.172942	0.100375	1.17233	0.932276	0.41297	0.346102	1.3408	0.718832	1.58068	-0.0850988	2.93629	1.89883	2.27263	0.655191	0.788484	0.0180655	-0.662199	-1.31525	0.149564	-0.480373	-0.13346	-0.0250587	0.821141	0.57398	-0.0756398	-0.719488	
0.976729	4.32587	0	0	0.330644	0.329598	0.236392	0.106437	0.236575	0.495703	-0.163461	0.09418	1.17735	0.906826	0.425485	0.337925	1.37331	0.721131	1.60666	-0.084575	2.97845	1.90147	2.31138	0.66812	0.79148	-0.013538	-0.655909	-1.33303	0.141842	-0.519831	-0.129907	-0.048212	0.820733	0.540352	-0.080376	-0.74963	
0.977579	4.32892	0	0	0.335561	0.344117	0.240865	0.110404	0.240344	0.509448	-0.158896	0.0950243	1.19434	0.915121	0.441807	0.339477	1.38912	0.730479	1.62127	-0.0795058	3.00806	1.91583	2.33673	0.672244	0.802874	0.00056525	-0.64195	-1.32457	0.149275	-0.514599	-0.119602	-0.0445375	0.839026	0.549563	-0.0858405	-0.760255	
0.978361	4.33349	0	0	0.340477	0.358637	0.245337	0.114372	0.244112	0.523193	-0.15433	0.0958685	1.21132	0.923415	0.458128	0.341028	1.40493	0.739828	1.63588	-0.0744365	3.03767	1.93019	2.36207	0.676368	0.814267	0.0146685	-0.627991	-1.31612	0.156709	-0.509367	-0.109297	-0.040863	0.85732	0.558774	-0.091305	-0.770879	
0.978932	4.3396	0	0	0.345394	0.373156	0.24981	0.118339	0.247881	0.536938	-0.149765	0.0967128	1.2283	0.93171	0.47445	0.34258	1.42074	0.749177	1.65049	-0.0693672	3.06727	1.94455	2.38742	0.680491	0.825661	0.0287718	-0.614031	-1.30766	0.164142	-0.504134	-0.0989928	-0.0371885	0.875613	0.567986	-0.0967695	-0.781504	
0.979173	4.3457	0	0	0.350311	0.387675	0.254283	0.122306	0.251649	0.550683	-0.1452	0.097557	1.24528	0.940005	0.490772	0.344132	1.43655	0.758525	1.66511	-0.064298	3.09688	1.95891	2.41276	0.684615	0.837055	0.042875	-0.600072	-1.29921	0.171575	-0.498902	-0.088688	-0.033514	0.893906	0.577197	-0.102234	-0.792129	
0.979118	4.35181	0	0	0.349477	0.368717	0.261278	0.110845	0.258157	0.524155	-0.144487	0.0817952	1.24364	0.89959	0.487531	0.305611	1.43337	0.713464	1.65539	-0.101705	3.06136	1.8516	2.37258	0.590596	0.832307	-0.013118	-0.608672	-1.33647	0.160713	-0.538093	-0.0896003	-0.0571788	0.891504	0.549154	-0.111726	-0.825988	
0.978863	4.35943	0	0	0.348642	0.34976	0.268274	0.0993845	0.264665	0.497628	-0.143773	0.0660335	1.24201	0.859175	0.48429	0.267091	1.4302	0.668403	1.64566	-0.139111	3.02584	1.74428	2.33239	0.496578	0.827558	-0.069111	-0.617271	-1.37374	0.14985	-0.577284	-0.0905125	-0.0808435	0.889102	0.521111	-0.121218	-0.859847	
0.978506	4.36401	0	0	0.347808	0.330802	0.27527	0.0879237	0.271173	0.471101	-0.14306	0.0502718	1.24037	0.81876	0.481049	0.228571	1.42703	0.623343	1.63594	-0.176518	2.99032	1.63696	2.29221	0.402559	0.82281	-0.125104	-0.625871	-1.41101	0.138987	-0.616474	-0.0914247	-0.104508	0.886701	0.493069	-0.130709	-0.893707	
0.978144	4.36554	0	0	0.346974	0.311845	0.282265	0.076463	0.277681	0.444573	-0.142347	0.03451	1.23873	0.778345	0.477808	0.19005	1.42386	0.578282	1.62622	-0.213925	2.9548	1.52965	2.25203	0.30854	0.818062	-0.181097	-0.634471	-1.44828	0.128125	-0.655665	-0.092337	-0.128173	0.884299	0.465026	-0.140201	-0.927566	
0.977874	4.36706	0	0	0.356796	0.312513	0.282265	0.076463	0.281447	0.450204	-0.14059	0.029543	1.23346	0.770771	0.454534	0.160832	1.38552	0.52549	1.58452	-0.261869	2.87156	1.43969	2.16417	0.222065	0.814817	-0.195005	-0.637642	-1.45979	0.138326	-0.658318	-0.083445	-0.12706	0.894496	0.471039	-0.144582	-0.941132	
0.977794	4.36859	0	0	0.366618	0.31318	0.282265	0.076463	0.285212	0.455835	-0.138832	0.024576	1.22818	0.763197	0.43126	0.131614	1.34718	0.472697	1.54281	-0.309813	2.78833	1.34974	2.07632	0.13559	0.811572	-0.208914	-0.640813	-1.47131	0.148528	-0.660972	-0.074553	-0.125947	0.904692	0.477051	-0.148963	-0.954697	
0.978	4.37622	0	0	0.376439	0.313848	0.282265	0.076463	0.288978	0.461466	-0.137074	0.019609	1.22291	0.755623	0.407986	0.102396	1.30884	0.419905	1.50111	-0.357757	2.70509	1.25979	1.98846	0.0491143	0.808326	-0.222823	-0.643983	-1.48283	0.158729	-0.663625	-0.065661	-0.124835	0.914889	0.483063	-0.153344	-0.968263	
0.978543	4.37775	0	0	0.386261	0.314516	0.282265	0.076463	0.292744	0.467097	-0.135317	0.014642	1.21763	0.748049	0.384712	0.073178	1.2705	0.367113	1.4594	-0.405701	2.62186	1.16983	1.90061	-0.037361	0.805081	-0.236731	-0.647154	-1.49435	0.168931	-0.666278	-0.056769	-0.123722	0.925086	0.489076	-0.157725	-0.981828	
0.979286	4.38537	0	0	0.383747	0.286096	0.292424	0.056066	0.296348	0.424379	-0.135681	-0.0117908	1.1976	0.692657	0.351121	0.0130925	1.21951	0.285297	1.406	-0.473581	2.53678	1.0555	1.81027	-0.147105	0.787581	-0.302247	-0.662983	-1.5381	0.156762	-0.71031	-0.0561212	-0.151795	0.911492	0.4579	-0.167986	-1.02185	
0.980043	4.39148	0	0	0.381233	0.257676	0.302582	0.035669	0.299952	0.381661	-0.136045	-0.0382235	1.17757	0.637264	0.31753	-0.046993	1.16851	0.20348	1.35259	-0.541461	2.4517	0.941159	1.71994	-0.256849	0.770081	-0.367762	-0.678811	-1.58185	0.144593	-0.754341	-0.0554735	-0.179868	0.897897	0.426725	-0.178247	-1.06186	
0.98063	4.39758	0	0	0.378719	0.229255	0.312741	0.015272	0.303555	0.338943	-0.136409	-0.0646562	1.15754	0.581872	0.28394	-0.107078	1.11752	0.121664	1.29919	-0.60934	2.36662	0.826821	1.6296	-0.366593	0.752581	-0.433278	-0.694639	-1.6256	0.132423	-0.798373	-0.0548257	-0.207941	0.884302	0.395549	-0.188507	-1.10188	
0.980863	4.40369	0	0	0.376205	0.200835	0.3229	-0.005125	0.307159	0.296225	-0.136773	-0.091089	1.13751	0.52648	0.250349	-0.167164	1.06653	0.039847	1.24579	-0.67722	2.28154	0.712484	1.53927	-0.476337	0.735081	-0.498794	-0.710468	-1.66935	0.120254	-0.842405	-0.054178	-0.236014	0.870708	0.364374	-0.198768	-1.1419	
0.980556	4.40674	0	0	0.380321	0.210508	0.325673	-0.004646	0.311897	0.307229	-0.135898	-0.0935617	1.13237	0.529837	0.226718	-0.18743	1.03385	0.0005755	1.21356	-0.712601	2.22761	0.678402	1.47974	-0.514801	0.733866	-0.495361	-0.710887	-1.66137	0.133864	-0.837341	-0.0432065	-0.227644	0.882964	0.373204	-0.195555	-1.15098	
0.979525	4.40826	0	0	0.384438	0.220182	0.328446	-0.004167	0.316635	0.318233	-0.135023	-0.0960345	1.12724	0.533195	0.203087	-0.207697	1.00117	-0.038696	1.18133	-0.747982	2.17368	0.644319	1.42021	-0.553265	0.732652	-0.491928	-0.711305	-1.6534	0.147475	-0.832278	-0.032235	-0.219274	0.89522	0.382034	-0.192342	-1.16006	
0.977585	4.41284	0	0	0.388555	0.229855	0.33122	-0.003688	0.321373	0.329237	-0.134148	-0.0985073	1.1221	0.536552	0.179456	-0.227964	0.968489	-0.0779675	1.14911	-0.783364	2.11976	0.610237	1.36068	-0.591728	0.731437	-0.488496	-0.711724	-1.64542	0.161085	-0.827214	-0.0212635	-0.210903	0.907475	0.390864	-0.189129	-1.16914	
0.974693	4.41589	0	0	0.392671	0.239528	0.333993	-0.003209	0.326111	0.340241	-0.133273	-0.10098	1.11696	0.539909	0.155825	-0.24823	0.935809	-0.117239	1.11688	-0.818745	2.06583	0.576155	1.30115	-0.630192	0.730222	-0.485063	-0.712143	-1.63745	0.174695	-0.82215	-0.010292	-0.202533	0.919731	0.399694	-0.185916	-1.17822	
0.97114	4.41589	0	0	0.408203	0.224077	0.356228	0.00061975	0.302387	0.277551	-0.143658	-0.126433	1.08924	0.484825	0.132512	-0.282285	0.925555	-0.140652	1.10158	-0.856362	2.09171	0.58437	1.28154	-0.663925	0.722834	-0.532826	-0.717139	-1.65726	0.149232	-0.86315	-0.0152268	-0.214848	0.906752	0.410282	-0.180127	-1.17735	
0.967267	4.41742	0	0	0.423736	0.208627	0.378463	0.0044485	0.278662	0.214862	-0.154042	-0.151886	1.06151	0.429741	0.109199	-0.316339	0.915301	-0.164065	1.08629	-0.893979	2.11759	0.592585	1.26193	-0.697657	0.715445	-0.58059	-0.722135	-1.67707	0.123769	-0.904149	-0.0201615	-0.227162	0.893773	0.420871	-0.174339	-1.17648	
0.963412	4.41437	0	0	0.439269	0.193177	0.400699	0.00827725	0.254937	0.152172	-0.164427	-0.177338	1.03379	0.374658	0.085886	-0.350394	0.905046	-0.187477	1.07099	-0.931595	2.14347	0.600799	1.24231	-0.731389	0.708056	-0.628354	-0.72713	-1.69689	0.098306	-0.945149	-0.0250963	-0.239477	0.880794	0.431459	-0.16855	-1.17561	
0.959917	4.41131	0	0	0.454801	0.177726	0.422934	0.012106	0.231213	0.089482	-0.174812	-0.202791	1.00606	0.319574	0.062573	-0.384449	0.894792	-0.21089	1.0557	-0.969212	2.16935	0.609014	1.2227	-0.765122	0.700668	-0.676117	-0.732126	-1.7167	0.072843	-0.986148	-0.030031	-0.251792	0.867815	0.442048	-0.162762	-1.17474	
0.957122	4.40674	0	0	0.476264	0.202672	0.446212	0.0383812	0.231909	0.05522	-0.174148	-0.218344	1.00978	0.309057	0.0582663	-0.385563	0.905872	-0.176691	1.06111	-0.975538	2.24302	0.694321	1.24073	-0.735847	0.716891	-0.676232	-0.725777	-1.69392	0.066005	-1.00144	-0.025892	-0.237229	0.879436	0.478866	-0.135445	-1.14822	
0.955366	4.40369	0	0	0.497727	0.227618	0.46949	0.0646565	0.232606	0.020958	-0.173483	-0.233897	1.0135	0.29854	0.0539595	-0.386676	0.916953	-0.142491	1.06652	-0.981864	2.31669	0.779627	1.25876	-0.706571	0.733115	-0.676346	-0.719429	-1.67113	0.059167	-1.01674	-0.021753	-0.222665	0.891058	0.515684	-0.108127	-1.12171	
0.954973	4.40216	0	0	0.519189	0.252564	0.492767	0.0909318	0.233302	-0.013304	-0.172818	-0.249449	1.01723	0.288024	0.0496527	-0.38779	0.928033	-0.108292	1.07193	-0.988189	2.39036	0.864934	1.27679	-0.677296	0.749338	-0.676461	-0.71308	-1.64835	0.052329	-1.03203	-0.017614	-0.208101	0.902679	0.552502	-0.0808103	-1.09519	
0.955914	4.40063	0	0	0.540652	0.27751	0.516045	0.117207	0.233998	-0.047566	-0.172154	-0.265002	1.02095	0.277507	0.045346	-0.388904	0.939113	-0.074092	1.07734	-0.994515	2.46403	0.95024	1.29481	-0.648021	0.765561	-0.676576	-0.706731	-1.62557	0.045491	-1.04733	-0.013475	-0.193538	0.9143	0.58932	-0.053493	-1.06868	
0.957844	4.39453	0	0	0.548916	0.282777	0.535267	0.130123	0.223243	-0.105692	-0.179734	-0.284547	1.00879	0.234463	0.036953	-0.404983	0.965815	-0.0574475	1.08431	-0.996282	2.51952	1.00766	1.32464	-0.642756	0.770688	-0.713947	-0.710323	-1.629	0.0285587	-1.05991	-0.0231753	-0.192385	0.905499	0.614192	-0.0370812	-1.06299	
0.960404	4.39606	0	0	0.557179	0.288044	0.554489	0.143039	0.212489	-0.163819	-0.187313	-0.304091	0.996634	0.191419	0.02856	-0.421061	0.992517	-0.040803	1.09129	-0.998049	2.575	1.06509	1.35446	-0.63749	0.775815	-0.751319	-0.713915	-1.63243	0.0116265	-1.07248	-0.0328755	-0.191231	0.896698	0.639065	-0.0206695	-1.05729	
0.963239	4.393	0	0	0.565443	0.29331	0.573712	0.155954	0.201734	-0.221945	-0.194893	-0.323635	0.984478	0.148375	0.020167	-0.43714	1.01922	-0.0241585	1.09826	-0.999815	2.63048	1.12251	1.38428	-0.632225	0.780943	-0.78869	-0.717508	-1.63586	-0.00530575	-1.08506	-0.0425758	-0.190078	0.887897	0.663938	-0.00425775	-1.0516	
0.965989	4.38843	0	0	0.573707	0.298577	0.592934	0.16887	0.190979	-0.280071	-0.202473	-0.34318	0.972321	0.105331	0.011774	-0.453219	1.04592	-0.007514	1.10524	-1.00158	2.68596	1.17993	1.4141	-0.62696	0.78607	-0.826062	-0.7211	-1.6393	-0.022238	-1.09764	-0.052276	-0.188925	0.879096	0.68881	0.012154	-1.04591	
0.968298	4.3869	0	0	0.589486	0.325731	0.615716	0.188877	0.195579	-0.285042	-0.201065	-0.340337	0.986501	0.109447	0.0189182	-0.44025	1.07441	0.03107	1.12963	-0.989553	2.75672	1.24518	1.45372	-0.594742	0.806871	-0.816118	-0.706251	-1.62005	-0.0130458	-1.09774	-0.0451265	-0.176298	0.902651	0.709683	0.03046	-1.0367	
0.969808	4.3808	0	0	0.605264	0.352885	0.638499	0.208883	0.200179	-0.290013	-0.199657	-0.337494	1.00068	0.113563	0.0260625	-0.42728	1.1029	0.069654	1.15402	-0.977524	2.82748	1.31042	1.49333	-0.562525	0.827671	-0.806175	-0.691402	-1.6008	-0.0038535	-1.09785	-0.037977	-0.163671	0.926207	0.730557	0.048766	-1.0275	
0.970227	4.37622	0	0	0.621043	0.38004	0.661281	0.228889	0.204779	-0.294983	-0.19825	-0.33465	1.01486	0.117679	0.0332068	-0.414311	1.13139	0.108238	1.17841	-0.965495	2.89824	1.37567	1.53295	-0.530307	0.848472	-0.796231	-0.676552	-1.58156	0.00533875	-1.09795	-0.0308275	-0.151044	0.949763	0.75143	0.067072	-1.0183	
0.969793	4.37317	0	0	0.636822	0.407194	0.684064	0.248896	0.209379	-0.299954	-0.196842	-0.331807	1.02904	0.121795	0.040351	-0.401342	1.15988	0.146822	1.2028	-0.953466	2.969	1.44091	1.57256	-0.49809	0.869272	-0.786287	-0.661703	-1.56231	0.014531	-1.09805	-0.023678	-0.138417	0.973318	0.772303	0.085378	-1.00909	
0.968995	4.36859	0	0	0.6426	0.398054	0.698855	0.257913	0.209846	-0.341389	-0.196198	-0.347268	1.03345	0.0761872	0.0405585	-0.415199	1.17294	0.149787	1.21683	-0.957028	3.00217	1.46901	1.59697	-0.494561	0.87242	-0.806656	-0.666192	-1.56324	0.0177262	-1.07253	-0.0262378	-0.124609	0.977634	0.795197	0.0978707	-1.00075	
0.968326	4.36401	0	0	0.648378	0.388914	0.713647	0.266931	0.210313	-0.382825	-0.195553	-0.362729	1.03785	0.0305795	0.040766	-0.429057	1.18599	0.152751	1.23087	-0.960591	3.03533	1.49711	1.62138	-0.491032	0.875568	-0.827025	-0.670681	-1.56418	0.0209215	-1.047	-0.0287975	-0.110801	0.981951	0.818091	0.110364	-0.992405	
0.968276	4.36859	0	0	0.654157	0.379773	0.728438	0.275948	0.21078	-0.42426	-0.194909	-0.37819	1.04226	-0.0150283	0.0409735	-0.442914	1.19905	0.155716	1.2449	-0.964153	3.06849	1.5252	1.64578	-0.487503	0.878716	-0.847395	-0.67517	-1.56511	0.0241167	-1.02148	-0.0313573	-0.0969938	0.986268	0.840986	0.122856	-0.984061	
0.969337	4.35791	0	0	0.659935	0.370633	0.74323	0.284965	0.211247	-0.465695	-0.194265	-0.393651	1.04667	-0.060636	0.041181	-0.456772	1.21211	0.158681	1.25893	-0.967715	3.10165	1.5533	1.67019	-0.483974	0.881864	-0.867764	-0.679659	-1.56605	0.027312	-0.995953	-0.033917	-0.083186	0.990584	0.86388	0.135349	-0.975717	
0.972001	4.35486	0	0	0.669945	0.392752	0.757657	0.303657	0.229008	-0.459703	-0.187761	-0.384743	1.05843	-0.0496605	0.0535518	-0.445244	1.233	0.179639	1.27932	-0.952933	3.1314	1.60414	1.69991	-0.458663	0.899132	-0.847625	-0.671071	-1.5426	0.055008	-0.99624	-0.0229377	-0.0747265	1.00893	0.864783	0.14787	-0.967352	
0.976759	4.35028	0	0	0.679954	0.414872	0.772084	0.32235	0.246768	-0.453711	-0.181256	-0.375834	1.07019	-0.038685	0.0659225	-0.433717	1.25389	0.200597	1.29971	-0.938152	3.16115	1.65498	1.72963	-0.433353	0.9164	-0.827485	-0.662484	-1.51916	0.082704	-0.996527	-0.0119585	-0.066267	1.02728	0.865686	0.160392	-0.958987	
0.983749	4.34723	0	0	0.689963	0.436991	0.786512	0.341042	0.264528	-0.447719	-0.174752	-0.366926	1.08195	-0.0277095	0.0782932	-0.422189	1.27478	0.221555	1.3201	-0.92337	3.19091	1.70582	1.75934	-0.408042	0.933668	-0.807346	-0.653896	-1.49572	0.1104	-0.996814	-0.00097925	-0.0578075	1.04563	0.866589	0.172913	-0.950622	
0.991511	4.34265	0	0	0.699973	0.45911	0.800939	0.359734	0.282289	-0.441727	-0.168248	-0.358018	1.09371	-0.016734	0.090664	-0.410661	1.29567	0.242513	1.34049	-0.908589	3.22066	1.75666	1.78906	-0.382731	0.950936	-0.787207	-0.645308	-1.47227	0.138096	-0.997101	0.01	-0.049348	1.06398	0.867492	0.185435	-0.942257	
0.998135	4.33655	0	0	0.695782	0.442132	0.809452	0.36122	0.287374	-0.480199	-0.17075	-0.371419	1.08788	-0.055501	0.0883577	-0.430723	1.30276	0.222478	1.34437	-0.919571	3.21858	1.77486	1.78648	-0.375432	0.943223	-0.776916	-0.656514	-1.46107	0.159862	-0.971579	0.0110878	-0.0326463	1.07237	0.887871	0.190234	-0.938289	
1.00171	4.34265	0	0	0.691592	0.425154	0.817964	0.362705	0.292459	-0.518671	-0.173252	-0.384821	1.08205	-0.094268	0.0860515	-0.450786	1.30985	0.202443	1.34826	-0.930554	3.21649	1.79306	1.78389	-0.368132	0.935509	-0.766625	-0.66772	-1.44986	0.181628	-0.946057	0.0121755	-0.0159445	1.08076	0.90825	0.195032	-0.93432	
1.00033	4.33502	0	0	0.687401	0.408175	0.826477	0.36419	0.297545	-0.557143	-0.175753	-0.398222	1.07621	-0.133035	0.0837452	-0.470848	1.31694	0.182408	1.35214	-0.941536	3.21441	1.81127	1.78131	-0.360833	0.927796	-0.756334	-0.678925	-1.43865	0.203394	-0.920536	0.0132632	0.00075725	1.08915	0.928629	0.199831	-0.930352	
0.992077	4.33044	0	0	0.683211	0.391197	0.83499	0.365676	0.30263	-0.595615	-0.178255	-0.411623	1.07038	-0.171802	0.081439	-0.49091	1.32403	0.162373	1.35603	-0.952519	3.21233	1.82947	1.77873	-0.353534	0.920083	-0.746043	-0.690131	-1.42745	0.22516	-0.895014	0.014351	0.017459	1.09754	0.949008	0.20463	-0.926384	
0.975047	4.32892	0	0	0.691547	0.403672	0.843784	0.383475	0.319773	-0.571667	-0.164907	-0.401545	1.0899	-0.160637	0.095996	-0.478853	1.32925	0.174366	1.37362	-0.938653	3.22984	1.84167	1.79656	-0.339877	0.93661	-0.712045	-0.681123	-1.39829	0.256574	-0.887582	0.0335065	0.0293945	1.1139	0.946959	0.219377	-0.924164	
0.947364	4.32129	0	0	0.699883	0.416146	0.852577	0.401274	0.336915	-0.547719	-0.151559	-0.391467	1.10942	-0.149472	0.110553	-0.466796	1.33446	0.186358	1.39121	-0.924787	3.24735	1.85387	1.81439	-0.326219	0.953137	-0.678047	-0.672116	-1.36912	0.287987	-0.880149	0.052662	0.04133	1.13026	0.94491	0.234124	-0.921944	
0.909839	4.32434	0	0	0.708219	0.428621	0.861371	0.419074	0.354057	-0.523771	-0.138211	-0.381389	1.12893	-0.138306	0.12511	-0.454738	1.33968	0.198351	1.40881	-0.910921	3.26486	1.86608	1.83222	-0.312561	0.969663	-0.644049	-0.663109	-1.33996	0.3194	-0.872717	0.0718175	0.0532655	1.14662	0.942862	0.248871	-0.919724	
0.86778	4.31976	0	0	0.716555	0.441096	0.870164	0.436873	0.3712	-0.499823	-0.124863	-0.371311	1.14845	-0.127141	0.139667	-0.442681	1.3449	0.210344	1.4264	-0.897055	3.28238	1.87828	1.85006	-0.298904	0.98619	-0.610051	-0.654101	-1.31079	0.350814	-0.865285	0.090973	0.065201	1.16298	0.940813	0.263618	-0.917504	
0.82693	4.31518	0	0	0.707333	0.409541	0.870574	0.427178	0.388753	-0.517163	-0.120849	-0.375816	1.14011	-0.158863	0.135184	-0.463278	1.32312	0.178471	1.42452	-0.909927	3.24021	1.86198	1.82996	-0.297035	0.971555	-0.568689	-0.659951	-1.28742	0.383468	-0.834395	0.0969862	0.0945965	1.16624	0.958167	0.265152	-0.904253	
0.793028	4.31671	0	0	0.69811	0.377985	0.870983	0.417482	0.406305	-0.534503	-0.116835	-0.380321	1.13177	-0.190584	0.130701	-0.483876	1.30134	0.146597	1.42264	-0.922799	3.19805	1.84568	1.80987	-0.295166	0.956919	-0.527328	-0.665801	-1.26405	0.416121	-0.803505	0.102999	0.123992	1.1695	0.975521	0.266687	-0.891001	
0.771814	4.31518	0	0	0.688887	0.34643	0.871393	0.407787	0.423857	-0.551843	-0.112821	-0.384826	1.12344	-0.222306	0.126219	-0.504473	1.27956	0.114724	1.42075	-0.93567	3.15588	1.82938	1.78978	-0.293298	0.942284	-0.485966	-0.671651	-1.24068	0.448775	-0.772614	0.109013	0.153388	1.17275	0.992876	0.268221	-0.877749	
0.769022	4.31213	0	0	0.679665	0.314875	0.871802	0.398092	0.44141	-0.569183	-0.108807	-0.389331	1.1151	-0.254028	0.121736	-0.52507	1.25778	0.082851	1.41887	-0.948542	3.11372	1.81309	1.76968	-0.291429	0.927649	-0.444605	-0.677501	-1.21731	0.481428	-0.741724	0.115026	0.182783	1.17601	1.01023	0.269755	-0.864498	
0.787617	4.3045	0	0	0.679665	0.314875	0.863948	0.403224	0.467374	-0.529187	-0.0980225	-0.371867	1.12976	-0.2291	0.12551	-0.515783	1.24386	0.0690087	1.42335	-0.943012	3.08918	1.80898	1.77324	-0.274033	0.944105	-0.410057	-0.660874	-1.1889	0.515437	-0.731608	0.131833	0.201756	1.18517	1.00208	0.274572	-0.860507	
0.82365	4.3045	0	0	0.679665	0.314875	0.856094	0.408355	0.493337	-0.48919	-0.087238	-0.354403	1.14442	-0.204172	0.129283	-0.506495	1.22994	0.0551665	1.42783	-0.937481	3.06463	1.80487	1.77679	-0.256638	0.960562	-0.375509	-0.644246	-1.1605	0.549446	-0.721491	0.148641	0.220728	1.19433	0.993927	0.27939	-0.856517	
0.872107	4.30603	0	0	0.679665	0.314875	0.848241	0.413487	0.519301	-0.449194	-0.0764535	-0.33694	1.15908	-0.179243	0.133057	-0.497208	1.21602	0.0413242	1.43231	-0.931951	3.04008	1.80077	1.78035	-0.239242	0.977019	-0.34096	-0.627619	-1.1321	0.583454	-0.711375	0.165448	0.2397	1.20349	0.985776	0.284207	-0.852526	
0.927979	4.3045	0	0	0.679665	0.314875	0.840387	0.418619	0.545265	-0.409198	-0.065669	-0.319476	1.17374	-0.154315	0.136831	-0.487921	1.2021	0.027482	1.43679	-0.92642	3.01554	1.79666	1.7839	-0.221847	0.993475	-0.306412	-0.610992	-1.1037	0.617463	-0.701259	0.182256	0.258673	1.21264	0.977624	0.289024	-0.848535	
0.986251	4.30145	0	0	0.66465	0.285534	0.83728	0.401832	0.558416	-0.413845	-0.063062	-0.326843	1.16742	-0.147521	0.12855	-0.484471	1.18129	0.0068195	1.43549	-0.92275	2.99517	1.79323	1.79328	-0.202544	1.00211	-0.26107	-0.608795	-1.07553	0.64547	-0.664641	0.19133	0.286378	1.218	0.998007	0.289455	-0.832132	
1.04191	4.2984	0	0	0.649635	0.256194	0.834173	0.385046	0.571567	-0.418492	-0.060455	-0.334211	1.16109	-0.140728	0.12027	-0.48102	1.16048	-0.013843	1.43419	-0.91908	2.97479	1.7898	1.80266	-0.183241	1.01075	-0.215728	-0.606599	-1.04737	0.673477	-0.628023	0.200404	0.314083	1.22335	1.01839	0.289886	-0.815729	
1.08995	4.29687	0	0	0.63462	0.226853	0.831066	0.368259	0.584718	-0.42314	-0.057848	-0.341579	1.15477	-0.133935	0.111989	-0.477569	1.13967	-0.0345055	1.43289	-0.915411	2.95442	1.78637	1.81205	-0.163937	1.01939	-0.170387	-0.604402	-1.01921	0.701485	-0.591406	0.209478	0.341788	1.2287	1.03877	0.290317	-0.799326	
1.12536	4.2923	0	0	0.619605	0.197512	0.827959	0.351472	0.597869	-0.427787	-0.055241	-0.348946	1.14845	-0.127141	0.103708	-0.474119	1.11885	-0.055168	1.4316	-0.911741	2.93405	1.78294	1.82143	-0.144634	1.02803	-0.125045	-0.602205	-0.991046	0.729492	-0.554788	0.218552	0.369493	1.23406	1.05916	0.290748	-0.782923	
1.14312	4.2923	0	0	0.615463	0.194897	0.819449	0.34999	0.614336	-0.400948	-0.0464017	-0.339607	1.1543	-0.0882395	0.106921	-0.456591	1.11969	-0.0443142	1.43506	-0.894225	2.93602	1.80175	1.83698	-0.115045	1.05198	-0.110998	-0.595471	-0.975643	0.750435	-0.560299	0.220615	0.377024	1.24115	1.048	0.29633	-0.772237	
1.14	4.2923	0	0	0.61132	0.192282	0.81094	0.348507	0.630803	-0.374108	-0.0375625	-0.330268	1.16016	-0.049338	0.110133	-0.439062	1.12053	-0.0334605	1.43853	-0.876709	2.93799	1.82056	1.85254	-0.0854555	1.07592	-0.0969505	-0.588737	-0.960239	0.771377	-0.565809	0.222679	0.384554	1.24824	1.03685	0.301913	-0.761551	
1.11959	4.28924	0	0	0.607177	0.189668	0.802431	0.347025	0.64727	-0.347269	-0.0287232	-0.32093	1.16602	-0.0104365	0.113345	-0.421534	1.12137	-0.0226068	1.442	-0.859193	2.93996	1.83936	1.86809	-0.0558663	1.09987	-0.0829032	-0.582003	-0.944836	0.79232	-0.57132	0.224742	0.392085	1.25533	1.02569	0.307496	-0.750865	
1.08705	4.29077	0	0	0.603035	0.187053	0.793921	0.345542	0.663737	-0.32043	-0.019884	-0.311591	1.17187	0.028465	0.116558	-0.404005	1.12221	-0.011753	1.44547	-0.841677	2.94193	1.85817	1.88364	-0.026277	1.12381	-0.068856	-0.575269	-0.929433	0.813262	-0.576831	0.226805	0.399615	1.26243	1.01453	0.313078	-0.740179	
1.0476	4.28619	0	0	0.59642	0.184286	0.784751	0.337469	0.669644	-0.304418	-0.0216255	-0.306669	1.18475	0.0254072	0.121783	-0.405453	1.12221	-0.011753	1.45574	-0.834225	2.94711	1.83135	1.90487	-0.0401453	1.13376	-0.0969617	-0.571147	-0.947974	0.821536	-0.627072	0.224497	0.372752	1.25664	0.959902	0.321542	-0.755268	
1.00641	4.28467	0	0	0.589805	0.18152	0.775581	0.329396	0.67555	-0.288405	-0.023367	-0.301748	1.19764	0.0223495	0.127008	-0.406901	1.12221	-0.011753	1.46601	-0.826772	2.95228	1.80453	1.92609	-0.0540135	1.1437	-0.125067	-0.567025	-0.966514	0.82981	-0.677313	0.222189	0.345888	1.25085	0.90527	0.330005	-0.770358	
0.968674	4.28314	0	0	0.583189	0.178753	0.766411	0.321324	0.681456	-0.272392	-0.0251085	-0.296826	1.21052	0.0192917	0.132233	-0.408349	1.12221	-0.011753	1.47629	-0.819319	2.95746	1.77771	1.94732	-0.0678818	1.15365	-0.153173	-0.562904	-0.985054	0.838084	-0.727554	0.219881	0.319025	1.24506	0.850637	0.338469	-0.785447	
0.939588	4.28161	0	0	0.576574	0.175986	0.757241	0.313251	0.687363	-0.25638	-0.02685	-0.291904	1.2234	0.016234	0.137458	-0.409797	1.12221	-0.011753	1.48656	-0.811867	2.96264	1.75089	1.96854	-0.08175	1.16359	-0.181279	-0.558782	-1.0036	0.846358	-0.777795	0.217573	0.292162	1.23928	0.796005	0.346932	-0.800536	
0.924038	4.28314	0	0	0.553214	0.11375	0.74081	0.274988	0.678048	-0.311711	-0.0407275	-0.328105	1.20914	-0.0544108	0.127415	-0.467813	1.10067	-0.0695772	1.47671	-0.84784	2.93077	1.65899	1.95125	-0.152541	1.15504	-0.285378	-0.57541	-1.07338	0.831737	-0.879063	0.200363	0.227736	1.20886	0.67937	0.329696	-0.848718	
0.921754	4.28314	0	0	0.529853	0.051513	0.724379	0.236725	0.668733	-0.367041	-0.054605	-0.364306	1.19489	-0.125056	0.117372	-0.525829	1.07914	-0.127402	1.46687	-0.883814	2.89891	1.56709	1.93396	-0.223333	1.1465	-0.389478	-0.592038	-1.14316	0.817117	-0.980332	0.183153	0.16331	1.17844	0.562736	0.31246	-0.8969	
0.928149	4.27856	0	0	0.506493	-0.0107235	0.707947	0.198461	0.659419	-0.422372	-0.0684825	-0.400508	1.18063	-0.1957	0.107329	-0.583845	1.05761	-0.185226	1.45702	-0.919787	2.86704	1.47519	1.91666	-0.294125	1.13795	-0.493578	-0.608666	-1.21294	0.802496	-1.0816	0.165943	0.0988848	1.14802	0.446101	0.295223	-0.945082	
0.938501	4.27704	0	0	0.483133	-0.07296	0.691516	0.160198	0.650104	-0.477702	-0.08236	-0.436709	1.16638	-0.266345	0.097286	-0.641861	1.03608	-0.24305	1.44717	-0.955761	2.83518	1.38329	1.89937	-0.364916	1.12941	-0.597677	-0.625294	-1.28272	0.787875	-1.18287	0.148733	0.034459	1.11761	0.329467	0.277987	-0.993264	
0.948093	4.28161	0	0	0.412898	-0.0933025	0.662814	0.123378	0.605125	-0.520903	-0.122941	-0.471954	1.13813	-0.263766	0.0644987	-0.674758	0.994815	-0.309552	1.41458	-0.990604	2.76836	1.33225	1.84592	-0.405547	1.1265	-0.601085	-0.640585	-1.29421	0.804235	-1.19356	0.148902	0.0273515	1.11828	0.310045	0.273483	-1.00687	
0.952202	4.28161	0	0	0.342664	-0.113645	0.634111	0.0865575	0.560145	-0.564105	-0.163521	-0.5072	1.10988	-0.261187	0.0317115	-0.707655	0.953552	-0.376053	1.38199	-1.02545	2.70155	1.28121	1.79247	-0.446179	1.1236	-0.604494	-0.655876	-1.3057	0.820595	-1.20425	0.149071	0.020244	1.11896	0.290623	0.268979	-1.02048	
0.946108	4.27704	0	0	0.272429	-0.133987	0.605409	0.0497373	0.515165	-0.607306	-0.204102	-0.542445	1.08162	-0.258608	-0.00107575	-0.740553	0.912289	-0.442555	1.3494	-1.06029	2.63474	1.23016	1.73902	-0.48681	1.12069	-0.607902	-0.671168	-1.31718	0.836954	-1.21494	0.14924	0.0131365	1.11963	0.271201	0.264475	-1.03409	
0.925099	4.27704	0	0	0.202194	-0.15433	0.576707	0.012917	0.470186	-0.650508	-0.244683	-0.57769	1.05337	-0.256029	-0.033863	-0.77345	0.871025	-0.509057	1.31681	-1.09513	2.56792	1.17912	1.68557	-0.527441	1.11779	-0.61131	-0.686459	-1.32867	0.853314	-1.22563	0.149409	0.006029	1.12031	0.251779	0.259971	-1.0477	
0.887782	4.27399	0	0	0.190049	-0.155062	0.568303	0.0114932	0.475047	-0.64001	-0.242969	-0.582536	1.05337	-0.256029	-0.0401248	-0.788655	0.850501	-0.528984	1.30759	-1.11423	2.5271	1.12839	1.64989	-0.562323	1.11489	-0.614715	-0.684214	-1.32818	0.855654	-1.24113	0.160011	0.00259925	1.11903	0.237885	0.261058	-1.05077	
0.841668	4.27551	0	0	0.177903	-0.155794	0.559898	0.0100695	0.479908	-0.629511	-0.241254	-0.587381	1.05337	-0.256029	-0.0463865	-0.80386	0.829977	-0.548911	1.29838	-1.13332	2.48628	1.07767	1.61421	-0.597204	1.11198	-0.618121	-0.681968	-1.3277	0.857994	-1.25664	0.170613	-0.0008305	1.11776	0.223992	0.262145	-1.05385	
0.795737	4.27399	0	0	0.165758	-0.156525	0.551494	0.00864575	0.484769	-0.619012	-0.23954	-0.592226	1.05337	-0.256029	-0.0526482	-0.819066	0.809452	-0.568839	1.28917	-1.15241	2.44546	1.02694	1.57853	-0.632085	1.10908	-0.621526	-0.679723	-1.32722	0.860334	-1.27215	0.181214	-0.00426025	1.11648	0.210098	0.263232	-1.05692	
0.758972	4.27704	0	0	0.153612	-0.157257	0.54309	0.007222	0.48963	-0.608514	-0.237825	-0.597072	1.05337	-0.256029	-0.05891	-0.834271	0.788928	-0.588766	1.27995	-1.17151	2.40464	0.976215	1.54285	-0.666967	1.10618	-0.624931	-0.677477	-1.32674	0.862674	-1.28765	0.191816	-0.00769	1.11521	0.196205	0.264319	-1.05999	
0.740352	4.27856	0	0	0.156135	-0.136346	0.542318	0.0261825	0.483652	-0.567353	-0.235312	-0.583801	1.05678	-0.210502	-0.0690385	-0.81222	0.769349	-0.572277	1.26209	-1.15705	2.38293	0.990405	1.51766	-0.658783	1.12407	-0.594095	-0.66579	-1.29134	0.883012	-1.26494	0.206743	0.0299495	1.13629	0.23305	0.275969	-1.0226	
0.748843	4.27856	0	0	0.158657	-0.115435	0.541546	0.045143	0.477675	-0.526191	-0.232798	-0.57053	1.06019	-0.164975	-0.079167	-0.790169	0.74977	-0.555787	1.24423	-1.14259	2.36121	1.00459	1.49247	-0.650598	1.14197	-0.563259	-0.654103	-1.25594	0.90335	-1.24223	0.221669	0.067589	1.15738	0.269896	0.287619	-0.985202	
0.788406	4.27856	0	0	0.161179	-0.0945248	0.540775	0.0641035	0.471697	-0.48503	-0.230285	-0.557259	1.06359	-0.119448	-0.0892955	-0.768117	0.730191	-0.539297	1.22636	-1.12813	2.3395	1.01878	1.46728	-0.642413	1.15986	-0.532423	-0.642415	-1.22055	0.923687	-1.21952	0.236596	0.105229	1.17847	0.306742	0.299269	-0.947808	
0.851057	4.28161	0	0	0.163702	-0.073614	0.540003	0.083064	0.465719	-0.443868	-0.227771	-0.543988	1.067	-0.073921	-0.099424	-0.746066	0.710612	-0.522808	1.2085	-1.11367	2.31778	1.03297	1.44209	-0.634229	1.17776	-0.501587	-0.630728	-1.18515	0.944025	-1.19681	0.251523	0.142868	1.19955	0.343587	0.310919	-0.910414	
0.927069	4.28314	0	0	0.178323	-0.065764	0.545488	0.109578	0.4752	-0.438256	-0.218761	-0.521825	1.07576	-0.0876268	-0.0960398	-0.742481	0.710592	-0.496866	1.21165	-1.10458	2.31335	1.0455	1.44083	-0.630643	1.18389	-0.518911	-0.625776	-1.17857	0.949558	-1.21245	0.26346	0.149173	1.19551	0.34623	0.321021	-0.88605	
1.00671	4.28619	0	0	0.192944	-0.057914	0.550974	0.136092	0.484681	-0.432644	-0.209751	-0.499662	1.08452	-0.101332	-0.0926555	-0.738896	0.710573	-0.470923	1.2148	-1.09549	2.30892	1.05802	1.43956	-0.627057	1.19002	-0.536235	-0.620825	-1.17198	0.95509	-1.22808	0.275396	0.155479	1.19146	0.348872	0.331123	-0.861687	
1.08026	4.28924	0	0	0.207566	-0.050064	0.556459	0.162605	0.494162	-0.427032	-0.20074	-0.477499	1.09328	-0.115038	-0.0892712	-0.735311	0.710553	-0.444981	1.21796	-1.08639	2.30449	1.07054	1.43829	-0.623471	1.19615	-0.553559	-0.615873	-1.1654	0.960622	-1.24372	0.287333	0.161784	1.18742	0.351515	0.341225	-0.837323	
1.13798	4.29077	0	0	0.222187	-0.042214	0.561944	0.189119	0.503643	-0.42142	-0.19173	-0.455336	1.10204	-0.128744	-0.085887	-0.731726	0.710533	-0.419038	1.22111	-1.0773	2.30005	1.08306	1.43702	-0.619885	1.20228	-0.570883	-0.610921	-1.15882	0.966155	-1.25936	0.29927	0.16809	1.18338	0.354158	0.351327	-0.812959	
1.17015	4.29077	0	0	0.244307	0.00108	0.576093	0.23345	0.510808	-0.376686	-0.184231	-0.415116	1.12073	-0.0929255	-0.069661	-0.691887	0.741183	-0.375683	1.24204	-1.04617	2.33217	1.14608	1.44915	-0.564097	1.21948	-0.526007	-0.601968	-1.11537	0.980104	-1.21825	0.318144	0.201801	1.21277	0.394486	0.371545	-0.763819	
1.16704	4.29382	0	0	0.266427	0.044374	0.590241	0.27778	0.517972	-0.331952	-0.176731	-0.374896	1.13942	-0.057107	-0.053435	-0.652049	0.771833	-0.332327	1.26298	-1.01505	2.36429	1.20911	1.46128	-0.508308	1.23668	-0.481132	-0.593015	-1.07191	0.994053	-1.17713	0.337017	0.235512	1.24217	0.434814	0.391764	-0.714679	
1.11894	4.29535	0	0	0.288546	0.087668	0.60439	0.322111	0.525137	-0.287218	-0.169232	-0.334676	1.15811	-0.0212885	-0.037209	-0.61221	0.802483	-0.288972	1.28391	-0.983927	2.3964	1.27213	1.47341	-0.45252	1.25387	-0.436256	-0.584062	-1.02846	1.008	-1.13602	0.355891	0.269223	1.27156	0.475142	0.411983	-0.665539	
1.02417	4.29993	0	0	0.310666	0.130962	0.618539	0.366441	0.532302	-0.242484	-0.161733	-0.294456	1.1768	0.01453	-0.020983	-0.572371	0.833133	-0.245617	1.30484	-0.952804	2.42852	1.33515	1.48553	-0.396731	1.27107	-0.391381	-0.575109	-0.985011	1.02195	-1.09491	0.374765	0.302934	1.30096	0.51547	0.432201	-0.616399	
0.902047	4.30145	0	0	0.325408	0.145975	0.628541	0.397423	0.54465	-0.236652	-0.145342	-0.265441	1.18438	0.0042255	-0.0079425	-0.549666	0.850207	-0.215447	1.32556	-0.929724	2.43983	1.38652	1.50405	-0.35855	1.2608	-0.338905	-0.576598	-0.94633	1.03937	-1.0272	0.384812	0.355257	1.31647	0.586971	0.444968	-0.554521	
0.775296	4.30603	0	0	0.340151	0.160989	0.638543	0.428405	0.556998	-0.23082	-0.128951	-0.236426	1.19196	-0.006079	0.005098	-0.526961	0.867282	-0.185277	1.34628	-0.906643	2.45114	1.4379	1.52256	-0.320369	1.25053	-0.28643	-0.578087	-0.907649	1.0568	-0.959495	0.39486	0.407581	1.33198	0.658471	0.457735	-0.492643	
0.666632	4.31061	0	0	0.354894	0.176003	0.648546	0.459388	0.569346	-0.224988	-0.11256	-0.207412	1.19953	-0.0163835	0.0181385	-0.504256	0.884356	-0.155108	1.367	-0.883563	2.46244	1.48928	1.54108	-0.282187	1.24025	-0.233955	-0.579576	-0.868969	1.07422	-0.891786	0.404907	0.459904	1.34749	0.729972	0.470502	-0.430765	
0.598677	4.31518	0	0	0.369636	0.191016	0.658548	0.49037	0.581694	-0.219156	-0.096169	-0.178397	1.20711	-0.026688	0.031179	-0.481551	0.90143	-0.124938	1.38772	-0.860483	2.47375	1.54065	1.55959	-0.244006	1.22998	-0.181479	-0.581065	-0.830288	1.09164	-0.824076	0.414954	0.512227	1.36299	0.801473	0.483269	-0.368887	
0.583309	4.31976	0	0	0.387674	0.196888	0.667892	0.5149	0.601693	-0.210323	-0.0820363	-0.149583	1.20938	-0.0442045	0.0401377	-0.473699	0.916064	-0.126959	1.39824	-0.844731	2.47828	1.52787	1.57243	-0.243984	1.22912	-0.20249	-0.580149	-0.832876	1.09579	-0.826791	0.42014	0.517805	1.35878	0.795586	0.49262	-0.350616	
0.611869	4.32129	0	0	0.405712	0.202761	0.677235	0.53943	0.621692	-0.201491	-0.0679035	-0.12077	1.21164	-0.061721	0.0490965	-0.465846	0.930697	-0.12898	1.40877	-0.828979	2.4828	1.51508	1.58528	-0.243961	1.22826	-0.223501	-0.579233	-0.835465	1.09995	-0.829506	0.425326	0.523383	1.35457	0.789699	0.50197	-0.332344	
0.673388	4.32129	0	0	0.423749	0.208633	0.686578	0.56396	0.641692	-0.192658	-0.0537707	-0.0919558	1.21391	-0.0792375	0.0580553	-0.457994	0.945331	-0.131002	1.4193	-0.813227	2.48732	1.5023	1.59812	-0.243939	1.2274	-0.244513	-0.578318	-0.838053	1.1041	-0.83222	0.430511	0.528961	1.35036	0.783812	0.511321	-0.314072	
0.756897	4.32587	0	0	0.441787	0.214506	0.695922	0.58849	0.661691	-0.183826	-0.039638	-0.063142	1.21618	-0.096754	0.067014	-0.450142	0.959965	-0.133023	1.42983	-0.797475	2.49185	1.48951	1.61097	-0.243917	1.22654	-0.265524	-0.577402	-0.840641	1.10825	-0.834935	0.435697	0.534539	1.34615	0.777925	0.520672	-0.295801	
0.851428	4.32892	0	0	0.431797	0.171703	0.692446	0.581321	0.663007	-0.228417	-0.039836	-0.0763535	1.19799	-0.167128	0.0543233	-0.500398	0.94287	-0.189423	1.41873	-0.829777	2.45822	1.39462	1.58441	-0.30471	1.21249	-0.365856	-0.58896	-0.90434	1.0651	-0.821	0.415214	0.531792	1.28471	0.79222	0.500485	-0.292373	
0.94601	4.32739	0	0	0.421808	0.128899	0.688969	0.574151	0.664323	-0.273008	-0.040034	-0.089565	1.1798	-0.237503	0.0416325	-0.550655	0.925775	-0.245822	1.40762	-0.862079	2.42459	1.29973	1.55785	-0.365503	1.19843	-0.466187	-0.600518	-0.968039	1.02195	-0.807065	0.39473	0.529045	1.22327	0.806515	0.480298	-0.288945	
1.02967	4.32587	0	0	0.411818	0.0860955	0.685492	0.566982	0.665638	-0.317599	-0.040232	-0.102776	1.16162	-0.307877	0.0289418	-0.600912	0.908681	-0.302222	1.39652	-0.894381	2.39096	1.20484	1.53129	-0.426297	1.18438	-0.566519	-0.612075	-1.03174	0.978791	-0.79313	0.374246	0.526298	1.16183	0.82081	0.46011	-0.285518	
1.09145	4.32739	0	0	0.401828	0.043292	0.682016	0.559813	0.666954	-0.36219	-0.04043	-0.115988	1.14343	-0.378251	0.016251	-0.651168	0.891586	-0.358622	1.38542	-0.926683	2.35732	1.10994	1.50473	-0.48709	1.17033	-0.66685	-0.623633	-1.09544	0.935636	-0.779195	0.353763	0.523551	1.10038	0.835105	0.439923	-0.28209	
1.1205	4.32892	0	0	0.41334	0.0533477	0.673552	0.558272	0.685512	-0.3246	-0.030518	-0.095757	1.1567	-0.360492	0.0144618	-0.646111	0.884733	-0.365341	1.37836	-0.924887	2.33414	1.09298	1.49324	-0.490673	1.17371	-0.653143	-0.61147	-1.08169	0.943174	-0.755564	0.366182	0.542343	1.09543	0.849101	0.446637	-0.274271	
1.11349	4.33197	0	0	0.424852	0.0634035	0.665088	0.55673	0.704071	-0.28701	-0.020606	-0.075526	1.16996	-0.342734	0.0126725	-0.641054	0.877881	-0.372061	1.3713	-0.923091	2.31095	1.07602	1.48175	-0.494255	1.1771	-0.639436	-0.599307	-1.06795	0.950713	-0.731934	0.378601	0.561136	1.09048	0.863096	0.45335	-0.266452	
1.07862	4.33807	0	0	0.436363	0.0734593	0.656624	0.555188	0.722629	-0.24942	-0.010694	-0.055295	1.18323	-0.324976	0.0108833	-0.635997	0.871028	-0.378781	1.36424	-0.921296	2.28776	1.05906	1.47026	-0.497837	1.18048	-0.625728	-0.587145	-1.0542	0.958251	-0.708303	0.391019	0.579928	1.08553	0.877091	0.460064	-0.258633	
1.02511	4.35486	0	0	0.447875	0.083515	0.64816	0.553647	0.741187	-0.21183	-0.000782	-0.035064	1.1965	-0.307217	0.009094	-0.63094	0.864175	-0.3855	1.35719	-0.9195	2.26458	1.04209	1.45876	-0.50142	1.18386	-0.612021	-0.574982	-1.04045	0.965789	-0.684672	0.403438	0.59872	1.08058	0.891087	0.466778	-0.250814	
0.96214	4.37622	0	0	0.445384	0.0763483	0.638408	0.538846	0.760305	-0.208337	0.00806775	-0.0255385	1.19628	-0.317655	-0.0019875	-0.639237	0.841959	-0.400754	1.34668	-0.935131	2.23215	0.993156	1.43489	-0.532762	1.18901	-0.649823	-0.568179	-1.0528	0.971738	-0.73744	0.410049	0.580037	1.07461	0.820022	0.46866	-0.273998	
0.898922	4.39606	0	0	0.442893	0.0691815	0.628657	0.524045	0.779424	-0.204844	0.0169175	-0.016013	1.19606	-0.328094	-0.013069	-0.647534	0.819743	-0.416007	1.33618	-0.950762	2.19973	0.944218	1.41102	-0.564104	1.19415	-0.687625	-0.561376	-1.06514	0.977686	-0.790209	0.41666	0.561354	1.06863	0.748957	0.470542	-0.297183	
0.84465	4.42047	0	0	0.440401	0.0620148	0.618905	0.509245	0.798542	-0.201351	0.0257672	-0.0064875	1.19583	-0.338533	-0.0241505	-0.655831	0.797526	-0.431261	1.32568	-0.966394	2.16731	0.89528	1.38714	-0.595446	1.19929	-0.725427	-0.554574	-1.07748	0.983634	-0.842978	0.42327	0.54267	1.06266	0.677893	0.472423	-0.320368	
0.807814	4.44488	0	0	0.43791	0.054848	0.609154	0.494444	0.81766	-0.197858	0.034617	0.003038	1.19561	-0.348971	-0.035232	-0.664128	0.77531	-0.446515	1.31518	-0.982025	2.13488	0.846341	1.36327	-0.626788	1.20443	-0.763229	-0.547771	-1.08982	0.989583	-0.895746	0.429881	0.523987	1.05669	0.606828	0.474305	-0.343552	
0.789248	4.46625	0	0	0.409791	-0.00716275	0.59894	0.447306	0.806083	-0.271828	0.0256968	-0.040761	1.16285	-0.432506	-0.069463	-0.738084	0.741259	-0.531114	1.27492	-1.03941	2.07379	0.729499	1.31163	-0.721177	1.17709	-0.871056	-0.56807	-1.16282	0.972893	-1.00953	0.418909	0.447372	1.02201	0.469473	0.454848	-0.413152	
0.785122	4.49371	0	0	0.381672	-0.0691735	0.588726	0.400167	0.794505	-0.345798	0.0167765	-0.08456	1.13009	-0.516041	-0.103694	-0.812039	0.707207	-0.615712	1.23467	-1.09681	2.0127	0.612657	1.25999	-0.815567	1.14975	-0.978883	-0.588369	-1.23582	0.956203	-1.12331	0.407937	0.370757	0.987318	0.332119	0.435392	-0.482752	
0.79154	4.51813	0	0	0.353553	-0.131184	0.578511	0.353028	0.782927	-0.419768	0.00785625	-0.128359	1.09732	-0.599576	-0.137925	-0.885995	0.673156	-0.70031	1.19441	-1.15419	1.95161	0.495815	1.20835	-0.909956	1.12241	-1.08671	-0.608669	-1.30882	0.939514	-1.2371	0.396965	0.294142	0.952632	0.194765	0.415936	-0.552351	
0.804607	4.54864	0	0	0.325434	-0.193195	0.568297	0.30589	0.77135	-0.493738	-0.001064	-0.172158	1.06456	-0.683111	-0.172156	-0.95995	0.639105	-0.784909	1.15415	-1.21158	1.89052	0.378973	1.15671	-1.00435	1.09506	-1.19454	-0.628968	-1.38182	0.922824	-1.35088	0.385993	0.217527	0.917945	0.05741	0.396479	-0.621951	
0.820426	4.57916	0	0	0.284832	-0.197865	0.54219	0.278811	0.726845	-0.490309	-0.0292878	-0.19543	1.04465	-0.659678	-0.20893	-0.97978	0.580105	-0.822705	1.10686	-1.23867	1.82891	0.336044	1.09698	-1.03786	1.08909	-1.17764	-0.630762	-1.37675	0.929617	-1.34335	0.392811	0.218389	0.916831	0.0518973	0.389426	-0.619749	
0.835103	4.60358	0	0	0.244229	-0.202535	0.516084	0.251731	0.682339	-0.48688	-0.0575115	-0.218703	1.02474	-0.636245	-0.245704	-0.99961	0.521105	-0.860501	1.05958	-1.26577	1.7673	0.293115	1.03725	-1.07137	1.08311	-1.16075	-0.632556	-1.37168	0.936411	-1.33582	0.39963	0.219251	0.915717	0.0463845	0.382373	-0.617546	
0.84555	4.62341	0	0	0.203627	-0.207204	0.489977	0.224652	0.637834	-0.483452	-0.0857352	-0.241975	1.00482	-0.612812	-0.282478	-1.01944	0.462105	-0.898297	1.0123	-1.29285	1.7057	0.250186	0.977528	-1.10489	1.07713	-1.14386	-0.63435	-1.36661	0.943205	-1.32829	0.406448	0.220114	0.914603	0.0408717	0.37532	-0.615344	
0.851844	4.64477	0	0	0.163025	-0.211874	0.46387	0.197572	0.593329	-0.480023	-0.113959	-0.265247	0.984913	-0.589379	-0.319252	-1.03927	0.403105	-0.936093	0.965013	-1.31994	1.64409	0.207257	0.917801	-1.1384	1.07116	-1.12697	-0.636144	-1.36154	0.949998	-1.32076	0.413267	0.220976	0.913489	0.035359	0.368267	-0.613141	
0.854834	4.66766	0	0	0.159803	-0.209769	0.456157	0.202611	0.599232	-0.464156	-0.110592	-0.254202	0.986574	-0.572187	-0.326976	-1.03042	0.390556	-0.938731	0.955276	-1.31908	1.61305	0.181758	0.895474	-1.14516	1.07817	-1.12375	-0.621261	-1.34196	0.961399	-1.32622	0.425118	0.234544	0.904411	0.0350558	0.37497	-0.605482	
0.855366	4.68445	0	0	0.156581	-0.207664	0.448445	0.207651	0.605134	-0.448289	-0.107225	-0.243157	0.988236	-0.554995	-0.3347	-1.02157	0.378008	-0.94137	0.945539	-1.31821	1.58201	0.156258	0.873147	-1.15192	1.08518	-1.12053	-0.606378	-1.32239	0.9728	-1.33167	0.436968	0.248112	0.895333	0.0347525	0.381672	-0.597822	
0.854288	4.69971	0	0	0.153359	-0.205558	0.440733	0.212691	0.611036	-0.432422	-0.103857	-0.232112	0.989897	-0.537803	-0.342425	-1.01272	0.365459	-0.944009	0.935803	-1.31735	1.55096	0.130759	0.850821	-1.15868	1.09219	-1.1173	-0.591495	-1.30281	0.9842	-1.33712	0.448819	0.261679	0.886255	0.0344493	0.388375	-0.590163	
0.85245	4.71496	0	0	0.150137	-0.203453	0.43302	0.21773	0.616939	-0.416555	-0.10049	-0.221067	0.991558	-0.520611	-0.350149	-1.00387	0.352911	-0.946647	0.926066	-1.31648	1.51992	0.10526	0.828494	-1.16543	1.0992	-1.11408	-0.576612	-1.28323	0.995601	-1.34258	0.46067	0.275247	0.877177	0.034146	0.395077	-0.582503	
0.850696	4.72259	0	0	0.172189	-0.167525	0.444247	0.261528	0.64912	-0.35212	-0.077323	-0.169593	1.0135	-0.450772	-0.330558	-0.942095	0.364672	-0.878105	0.947578	-1.26151	1.51586	0.150635	0.847836	-1.09768	1.12161	-1.0502	-0.546317	-1.21039	1.02471	-1.2994	0.493889	0.323263	0.904261	0.079055	0.418994	-0.525451	
0.849569	4.73175	0	0	0.194242	-0.131598	0.455473	0.305325	0.681302	-0.287685	-0.054156	-0.118118	1.03545	-0.380933	-0.310967	-0.880319	0.376432	-0.809563	0.969089	-1.20653	1.5118	0.196009	0.867179	-1.02992	1.14402	-0.986314	-0.516022	-1.13755	1.05381	-1.25623	0.527107	0.371279	0.931345	0.123964	0.442912	-0.468399	
0.848936	4.7348	0	0	0.216295	-0.0956705	0.4667	0.349123	0.713483	-0.22325	-0.030989	-0.0666435	1.0574	-0.311094	-0.291376	-0.818544	0.388193	-0.741021	0.990601	-1.15156	1.50774	0.241384	0.886521	-0.962161	1.16643	-0.92243	-0.485727	-1.06471	1.08292	-1.21306	0.560326	0.419296	0.95843	0.168873	0.46683	-0.411347	
0.848569	4.73938	0	0	0.238347	-0.059743	0.477927	0.39292	0.745664	-0.158815	-0.007822	-0.015169	1.07934	-0.241255	-0.271785	-0.756768	0.399954	-0.672479	1.01211	-1.09658	1.50368	0.286758	0.905864	-0.894403	1.18884	-0.858546	-0.455432	-0.991867	1.11202	-1.16989	0.593544	0.467312	0.985514	0.213782	0.490747	-0.354295	
0.848241	4.75159	0	0	0.247331	-0.0499157	0.489119	0.437124	0.761286	-0.128907	0.00882525	0.0277127	1.08624	-0.216585	-0.261761	-0.713146	0.409956	-0.624044	1.03025	-1.0583	1.48816	0.364572	0.910153	-0.818583	1.1758	-0.751919	-0.451603	-0.912526	1.13619	-1.05754	0.609765	0.550791	1.01359	0.318121	0.517549	-0.241496	
0.847726	4.75464	0	0	0.256314	-0.0400885	0.500311	0.481328	0.776909	-0.098999	0.0254725	0.0705945	1.09314	-0.191916	-0.251737	-0.669525	0.419957	-0.575608	1.04839	-1.02002	1.47264	0.442386	0.914441	-0.742764	1.16275	-0.645291	-0.447774	-0.833184	1.16036	-0.945184	0.625986	0.63427	1.04166	0.422459	0.544352	-0.128697	
0.846798	4.76379	0	0	0.265298	-0.0302612	0.511503	0.525532	0.792531	-0.069091	0.0421197	0.113476	1.10004	-0.167246	-0.241712	-0.625903	0.429959	-0.527173	1.06653	-0.981734	1.45712	0.5202	0.918729	-0.666945	1.1497	-0.538663	-0.443945	-0.753843	1.18453	-0.832831	0.642207	0.71775	1.06973	0.526798	0.571155	-0.015898	
0.845238	4.7699	0	0	0.274281	-0.020434	0.522695	0.569736	0.808153	-0.039183	0.058767	0.156358	1.10693	-0.142576	-0.231688	-0.582281	0.439961	-0.478738	1.08467	-0.94345	1.4416	0.598014	0.923018	-0.591125	1.13666	-0.432036	-0.440116	-0.674502	1.20869	-0.720477	0.658428	0.801229	1.09781	0.631136	0.597957	0.096901	
0.843119	4.77142	0	0	0.300532	0.0185182	0.546374	0.629894	0.841431	0.0240857	0.0862528	0.217884	1.13129	-0.0782798	-0.202068	-0.508037	0.475126	-0.397911	1.11635	-0.879772	1.46431	0.670281	0.95904	-0.515794	1.15459	-0.36587	-0.429584	-0.606678	1.2349	-0.648742	0.66991	0.857782	1.12135	0.714637	0.647821	0.192093	
0.84086	4.77905	0	0	0.326782	0.0574705	0.570054	0.690052	0.87471	0.0873545	0.113738	0.279411	1.15564	-0.0139835	-0.172447	-0.433792	0.51029	-0.317084	1.14804	-0.816093	1.48703	0.742548	0.995062	-0.440462	1.17253	-0.299705	-0.419051	-0.538855	1.26111	-0.577008	0.681393	0.914334	1.14489	0.798138	0.697685	0.287284	
0.838898	4.7821	0	0	0.353032	0.0964228	0.593734	0.75021	0.907988	0.150623	0.141224	0.340937	1.17999	0.0503127	-0.142826	-0.359548	0.545455	-0.236257	1.17972	-0.752414	1.50974	0.814814	1.03108	-0.36513	1.19046	-0.23354	-0.408519	-0.471031	1.28731	-0.505273	0.692875	0.970887	1.16843	0.881639	0.74755	0.382476	
0.837673	4.78973	0	0	0.379283	0.135375	0.617413	0.810368	0.941267	0.213892	0.16871	0.402463	1.20434	0.114609	-0.113206	-0.285303	0.58062	-0.15543	1.21141	-0.688736	1.53245	0.887081	1.06711	-0.289799	1.20839	-0.167374	-0.397986	-0.403207	1.31352	-0.433538	0.704357	1.02744	1.19197	0.96514	0.797414	0.477668	
0.837624	4.79736	0	0	0.36223	0.20486	0.615663	0.866391	0.946882	0.323166	0.171678	0.471083	1.21766	0.23348	-0.0998025	-0.197177	0.586081	-0.080102	1.22485	-0.61782	1.53035	0.938731	1.09653	-0.203093	1.23414	-0.0752985	-0.379926	-0.320983	1.34869	-0.330575	0.723087	1.09845	1.22687	1.06246	0.826337	0.542732	
0.839188	4.80194	0	0	0.345176	0.274345	0.613912	0.922413	0.952498	0.432441	0.174646	0.539703	1.23099	0.35235	-0.086399	-0.109052	0.591542	-0.004774	1.2383	-0.546904	1.52824	0.990381	1.12595	-0.116388	1.25988	0.016777	-0.361865	-0.238759	1.38386	-0.227612	0.741818	1.16945	1.26178	1.15979	0.855259	0.607797	
0.842751	4.80957	0	0	0.328123	0.34383	0.612162	0.978436	0.958113	0.541715	0.177615	0.608323	1.24431	0.471221	-0.0729955	-0.0209265	0.597003	0.070554	1.25175	-0.475988	1.52614	1.04203	1.15537	-0.0296825	1.28562	0.108853	-0.343804	-0.156535	1.41903	-0.124649	0.760549	1.24046	1.29668	1.25711	0.884181	0.672861	
0.848164	4.81262	0	0	0.31107	0.413315	0.610412	1.03446	0.963729	0.650989	0.180583	0.676943	1.25763	0.590091	-0.059592	0.067199	0.602464	0.145882	1.2652	-0.405072	1.52404	1.09368	1.18479	0.057023	1.31137	0.200928	-0.325744	-0.074311	1.45419	-0.021686	0.779279	1.31146	1.33159	1.35443	0.913104	0.737925	
0.854974	4.81872	0	0	0.315145	0.437336	0.612861	1.06167	0.998983	0.744891	0.194426	0.729244	1.27669	0.671422	-0.0491482	0.124392	0.599741	0.166581	1.27365	-0.355976	1.48854	1.05721	1.20987	0.0942183	1.32673	0.240458	-0.313633	-0.0450788	1.49058	0.0333723	0.780597	1.34232	1.35765	1.37053	0.905807	0.740133	
0.862723	4.82635	0	0	0.319221	0.461357	0.615309	1.08887	1.03424	0.838793	0.208269	0.781546	1.29576	0.752752	-0.0387045	0.181585	0.597017	0.187279	1.28209	-0.306879	1.45304	1.02075	1.23495	0.131413	1.3421	0.279988	-0.301521	-0.0158465	1.52696	0.0884305	0.781914	1.37317	1.38371	1.38663	0.89851	0.742342	
0.870955	4.82941	0	0	0.323296	0.485379	0.617758	1.11608	1.06949	0.932696	0.222112	0.833847	1.31483	0.834083	-0.0282608	0.238778	0.594294	0.207977	1.29054	-0.257783	1.41755	0.984278	1.26003	0.168609	1.35747	0.319519	-0.28941	0.0133858	1.56335	0.143489	0.783232	1.40402	1.40978	1.40273	0.891213	0.744551	
0.879212	4.82941	0	0	0.327371	0.5094	0.620207	1.14329	1.10475	1.0266	0.235955	0.886148	1.33389	0.915414	-0.017817	0.295971	0.591571	0.228676	1.29899	-0.208687	1.38205	0.94781	1.28512	0.205804	1.37284	0.359049	-0.277299	0.042618	1.59973	0.198547	0.784549	1.43487	1.43584	1.41883	0.883916	0.746759	
0.887037	4.82788	0	0	0.339585	0.553304	0.615869	1.17264	1.14192	1.15134	0.248881	0.955666	1.36473	1.01009	-0.00221275	0.352424	0.571886	0.245329	1.30139	-0.169736	1.30696	0.900633	1.29752	0.243148	1.38379	0.435319	-0.2621	0.0846135	1.64198	0.28546	0.791083	1.47186	1.4601	1.45855	0.860896	0.756685	
0.893998	4.81567	0	0	0.3518	0.597208	0.611531	1.20198	1.17909	1.27608	0.261806	1.02518	1.39556	1.10478	0.0133915	0.408876	0.552202	0.261981	1.3038	-0.130785	1.23187	0.853456	1.30993	0.280493	1.39474	0.51159	-0.2469	0.126609	1.68424	0.372373	0.797616	1.50885	1.48437	1.49827	0.837875	0.76661	
0.900049	4.80652	0	0	0.364015	0.641111	0.607193	1.23133	1.21626	1.40083	0.274732	1.0947	1.4264	1.19946	0.0289958	0.465329	0.532517	0.278633	1.30621	-0.0918347	1.15677	0.806279	1.32233	0.317837	1.40569	0.58786	-0.231701	0.168604	1.72649	0.459286	0.80415	1.54584	1.50863	1.538	0.814855	0.776536	
0.905448	4.79584	0	0	0.376229	0.685015	0.602855	1.26068	1.25343	1.52557	0.287658	1.16422	1.45723	1.29414	0.0446	0.521782	0.512832	0.295286	1.30861	-0.052884	1.08168	0.759102	1.33474	0.355182	1.41664	0.66413	-0.216501	0.2106	1.76874	0.546199	0.810683	1.58283	1.53289	1.57772	0.791835	0.786462	
0.910459	4.78821	0	0	0.374594	0.682493	0.588759	1.25783	1.28078	1.60306	0.297104	1.19433	1.46007	1.34331	0.0442442	0.536236	0.480105	0.271327	1.30306	-0.0463525	0.996056	0.723181	1.32577	0.389603	1.39919	0.737363	-0.229964	0.248649	1.79729	0.655102	0.802626	1.63339	1.54578	1.64109	0.762822	0.795199	
0.915347	4.78058	0	0	0.372959	0.67997	0.574664	1.25497	1.30813	1.68055	0.306549	1.22445	1.4629	1.39248	0.0438885	0.55069	0.447378	0.247367	1.29751	-0.039821	0.910428	0.68726	1.3168	0.424025	1.38173	0.810596	-0.243427	0.286697	1.82583	0.764005	0.79457	1.68395	1.55868	1.70447	0.73381	0.803935	
0.920379	4.77447	0	0	0.371324	0.677447	0.560569	1.25212	1.33548	1.75803	0.315995	1.25456	1.46574	1.44166	0.0435328	0.565143	0.414651	0.223408	1.29196	-0.0332895	0.824801	0.651338	1.30783	0.458446	1.36428	0.883828	-0.25689	0.324746	1.85438	0.872908	0.786513	1.7345	1.57158	1.76784	0.704797	0.812672	
0.925819	4.7699	0	0	0.369689	0.674925	0.546473	1.24926	1.36283	1.83552	0.32544	1.28467	1.46857	1.49083	0.043177	0.579597	0.381924	0.199449	1.28641	-0.026758	0.739174	0.615417	1.29886	0.492867	1.34683	0.957061	-0.270353	0.362795	1.88292	0.981811	0.778456	1.78506	1.58448	1.83121	0.675785	0.821409	
0.931932	4.76837	0	0	0.376211	0.692237	0.532412	1.24641	1.38608	1.92589	0.333481	1.32606	1.48325	1.56425	0.053532	0.617719	0.368325	0.212102	1.29431	0.0059405	0.727623	0.626008	1.33725	0.548386	1.35177	1.03905	-0.260613	0.392119	1.90678	1.05784	0.772056	1.8101	1.5835	1.85218	0.649243	0.823449	
0.93884	4.76684	0	0	0.382732	0.70955	0.518352	1.24355	1.40933	2.01626	0.341523	1.36745	1.49793	1.63768	0.063887	0.655841	0.354727	0.224755	1.30221	0.038639	0.716071	0.636598	1.37564	0.603904	1.3567	1.12105	-0.250873	0.421443	1.93064	1.13387	0.765656	1.83515	1.58252	1.87315	0.622702	0.825489	
0.946293	4.76532	0	0	0.389253	0.726862	0.504292	1.2407	1.43258	2.10663	0.349565	1.40884	1.5126	1.7111	0.074242	0.693962	0.341128	0.237409	1.31011	0.0713375	0.70452	0.647188	1.41403	0.659423	1.36164	1.20304	-0.241133	0.450767	1.9545	1.2099	0.759255	1.86019	1.58154	1.89411	0.59616	0.82753	
0.953979	4.76532	0	0	0.395775	0.744174	0.490231	1.23784	1.45583	2.197	0.357606	1.45023	1.52728	1.78453	0.084597	0.732084	0.327529	0.250062	1.31801	0.104036	0.692969	0.657779	1.45243	0.714942	1.36658	1.28504	-0.231393	0.480091	1.97836	1.28593	0.752855	1.88523	1.58057	1.91508	0.569619	0.82957	
0.961585	4.76837	0	0	0.372857	0.730399	0.46434	1.20919	1.45936	2.24809	0.349166	1.45981	1.51119	1.87616	0.0843602	0.773302	0.309762	0.261671	1.31876	0.138677	0.667945	0.695467	1.47696	0.783405	1.37171	1.39117	-0.23008	0.540544	2.00186	1.39314	0.748706	1.93176	1.58382	1.96974	0.575314	0.859047	
0.968801	4.76227	0	0	0.349939	0.716624	0.438449	1.18053	1.46288	2.29918	0.340726	1.4694	1.4951	1.96778	0.0841235	0.81452	0.291996	0.27328	1.31951	0.173318	0.642921	0.733154	1.50149	0.851869	1.37684	1.4973	-0.228766	0.600998	2.02536	1.50035	0.744557	1.9783	1.58708	2.02441	0.581009	0.888525	
0.975314	4.75769	0	0	0.327022	0.70285	0.412559	1.15188	1.46641	2.35028	0.332285	1.47899	1.47902	2.05941	0.0838868	0.855738	0.274229	0.284889	1.32027	0.20796	0.617897	0.770842	1.52603	0.920332	1.38197	1.60344	-0.227453	0.661452	2.04885	1.60757	0.740408	2.02483	1.59034	2.07907	0.586704	0.918003	
0.980813	4.75159	0	0	0.304104	0.689075	0.386668	1.12322	1.46993	2.40137	0.323845	1.48857	1.46293	2.15104	0.08365	0.896956	0.256462	0.296498	1.32102	0.242601	0.592873	0.80853	1.55056	0.988796	1.3871	1.70957	-0.22614	0.721905	2.07235	1.71478	0.736259	2.07136	1.59359	2.13373	0.592399	0.94748	
0.984988	4.75006	0	0	0.298322	0.705417	0.36655	1.1125	1.47613	2.47142	0.323836	1.51714	1.47178	2.23029	0.0985313	0.94306	0.256838	0.334039	1.34622	0.282133	0.614589	0.846436	1.60837	1.05738	1.39818	1.77533	-0.214851	0.74006	2.08636	1.77236	0.724883	2.08262	1.58937	2.11826	0.576793	0.955118	
0.987721	4.73938	0	0	0.292539	0.721758	0.346432	1.10179	1.48233	2.54148	0.323827	1.54571	1.48064	2.30954	0.113412	0.989165	0.257213	0.37158	1.37143	0.321665	0.636305	0.884341	1.66617	1.12597	1.40926	1.84108	-0.203562	0.758215	2.10036	1.82995	0.713507	2.09388	1.58515	2.1028	0.561187	0.962756	
0.989244	4.73633	0	0	0.286757	0.7381	0.326313	1.09107	1.48852	2.61153	0.323818	1.57429	1.4895	2.38878	0.128294	1.03527	0.257588	0.409122	1.39663	0.361196	0.658021	0.922246	1.72398	1.19455	1.42034	1.90683	-0.192273	0.776369	2.11436	1.88754	0.702132	2.10513	1.58093	2.08733	0.545581	0.970394	
0.989826	4.73175	0	0	0.280975	0.754441	0.306195	1.08035	1.49472	2.68159	0.323809	1.60286	1.49836	2.46803	0.143175	1.08137	0.257964	0.446663	1.42183	0.400728	0.679737	0.960152	1.78178	1.26314	1.43143	1.97259	-0.180984	0.794524	2.12836	1.94513	0.690756	2.11639	1.5767	2.07187	0.529975	0.978032	
0.989735	4.72565	0	0	0.257972	0.783858	0.270116	1.07302	1.47971	2.75035	0.306416	1.6306	1.50424	2.55626	0.154183	1.13885	0.250587	0.49329	1.43872	0.45511	0.704845	1.03354	1.84364	1.36106	1.43722	2.07828	-0.173916	0.839107	2.14742	2.02815	0.68338	2.1442	1.57883	2.10241	0.510867	0.995637	
0.989241	4.71649	0	0	0.234969	0.813275	0.234036	1.0657	1.46471	2.81911	0.289023	1.65834	1.51013	2.6445	0.16519	1.19632	0.24321	0.539917	1.45561	0.509493	0.729952	1.10692	1.90549	1.45899	1.44301	2.18397	-0.166847	0.88369	2.16648	2.11116	0.676003	2.17201	1.58095	2.13294	0.49176	1.01324	
0.988613	4.70886	0	0	0.211967	0.842691	0.197957	1.05837	1.4497	2.88787	0.271631	1.68608	1.51601	2.73273	0.176198	1.25379	0.235834	0.586543	1.47249	0.563875	0.755059	1.18031	1.96735	1.55691	1.4488	2.28966	-0.159779	0.928273	2.18554	2.19418	0.668627	2.19982	1.58308	2.16348	0.472652	1.03085	
0.98812	4.69665	0	0	0.188964	0.872108	0.161878	1.05105	1.4347	2.95662	0.254238	1.71382	1.5219	2.82097	0.187205	1.31126	0.228457	0.63317	1.48938	0.618258	0.780167	1.25369	2.0292	1.65484	1.45459	2.39536	-0.15271	0.972856	2.2046	2.2772	0.661251	2.22762	1.5852	2.19401	0.453544	1.04845	
0.988028	4.6875	0	0	0.189751	0.876996	0.140878	1.04346	1.43886	3.00648	0.252306	1.73355	1.52257	2.87758	0.201775	1.35222	0.240597	0.663466	1.5104	0.661526	0.825751	1.29281	2.10601	1.72416	1.46354	2.43139	-0.15271	0.972856	2.19632	2.32023	0.634892	2.22569	1.56629	2.16535	0.427738	1.03975	
0.98847	4.68445	0	0	0.190538	0.881884	0.119878	1.03587	1.44303	3.05633	0.250374	1.75329	1.52325	2.93419	0.216346	1.39319	0.252737	0.693762	1.53142	0.704794	0.871335	1.33194	2.18283	1.79349	1.47249	2.46743	-0.15271	0.972856	2.18804	2.36326	0.608532	2.22375	1.54737	2.13669	0.401931	1.03106	
0.989386	4.67224	0	0	0.191326	0.886772	0.098878	1.02828	1.4472	3.10619	0.248442	1.77302	1.52392	2.9908	0.230917	1.43415	0.264877	0.724057	1.55244	0.748062	0.916919	1.37106	2.25964	1.86281	1.48144	2.50346	-0.15271	0.972856	2.17977	2.40629	0.582172	2.22181	1.52846	2.10804	0.376125	1.02236	
0.990706	4.66919	0	0	0.192113	0.89166	0.077878	1.02069	1.45137	3.15604	0.24651	1.79275	1.52459	3.04742	0.245487	1.47511	0.277017	0.754353	1.57346	0.79133	0.962503	1.41019	2.33645	1.93213	1.49039	2.5395	-0.15271	0.972856	2.17149	2.44932	0.555813	2.21987	1.50955	2.07938	0.350319	1.01366	
0.992357	4.66308	0	0	0.173268	0.909381	0.0525533	1.00892	1.43249	3.20058	0.228205	1.80882	1.51972	3.10813	0.253479	1.51437	0.283186	0.788764	1.59159	0.833927	1.00114	1.47046	2.40216	1.99825	1.49096	2.5994	-0.149402	0.970695	2.17032	2.51166	0.539326	2.22491	1.50431	2.09417	0.321754	1.02212	
0.994267	4.65851	0	0	0.154423	0.927102	0.0272285	0.997159	1.41361	3.24511	0.2099	1.8249	1.51485	3.16885	0.261471	1.55363	0.289355	0.823176	1.60972	0.876524	1.03978	1.53074	2.46787	2.06437	1.49154	2.6593	-0.146094	0.968534	2.16915	2.574	0.52284	2.22994	1.49908	2.10895	0.293188	1.03059	
0.996364	4.64783	0	0	0.135578	0.944822	0.00190375	0.985395	1.39473	3.28965	0.191595	1.84097	1.50998	3.22956	0.269464	1.59289	0.295524	0.857587	1.62785	0.91912	1.07842	1.59102	2.53359	2.13049	1.49211	2.7192	-0.142786	0.966372	2.16798	2.63635	0.506353	2.23497	1.49385	2.12374	0.264623	1.03906	
0.998576	4.64477	0	0	0.116733	0.962543	-0.023421	0.97363	1.37585	3.33419	0.17329	1.85704	1.50511	3.29027	0.277456	1.63214	0.301693	0.891998	1.64597	0.961717	1.11706	1.6513	2.5993	2.19661	1.49269	2.77911	-0.139478	0.964211	2.16681	2.69869	0.489866	2.24001	1.48862	2.13853	0.236058	1.04753	
1.00083	4.63562	0	0	0.115954	0.957645	-0.0453247	0.969132	1.37227	3.36193	0.168118	1.86453	1.50752	3.30696	0.28767	1.64462	0.316738	0.90147	1.66527	0.982594	1.16001	1.65518	2.65143	2.22566	1.48841	2.77888	-0.156444	0.926095	2.15212	2.71067	0.461533	2.21659	1.46561	2.10368	0.209242	1.02441	
1.003	4.63104	0	0	0.115174	0.952747	-0.0672285	0.964634	1.3687	3.38968	0.162946	1.87203	1.50994	3.32365	0.297884	1.6571	0.331782	0.910941	1.68457	1.00347	1.20296	1.65907	2.70355	2.2547	1.48413	2.77865	-0.173409	0.887979	2.13743	2.72264	0.4332	2.19317	1.4426	2.06883	0.182425	1.00129	
1.00487	4.62646	0	0	0.114395	0.947849	-0.0891322	0.960136	1.36512	3.41742	0.157774	1.87952	1.51236	3.34034	0.308099	1.66957	0.346827	0.920413	1.70386	1.02435	1.24592	1.66295	2.75568	2.28375	1.47986	2.77841	-0.190375	0.849862	2.12274	2.73462	0.404866	2.16975	1.4196	2.03398	0.155609	0.978169	
1.00625	4.61731	0	0	0.113616	0.942951	-0.111036	0.955638	1.36155	3.44516	0.152602	1.88701	1.51477	3.35703	0.318313	1.68205	0.361872	0.929885	1.72316	1.04522	1.28887	1.66683	2.80781	2.31279	1.47558	2.77818	-0.207341	0.811746	2.10804	2.7466	0.376533	2.14633	1.39659	1.99913	0.128793	0.95505	
1.00691	4.61426	0	0	0.103821	0.949352	-0.133422	0.944485	1.34298	3.4712	0.132525	1.89396	1.50071	3.39678	0.31681	1.7001	0.354747	0.950021	1.73225	1.0668	1.30886	1.70197	2.83907	2.35285	1.46302	2.81368	-0.215327	0.791433	2.10063	2.78724	0.36105	2.14885	1.38826	2.01361	0.108099	0.950867	
1.00665	4.60968	0	0	0.094026	0.955752	-0.155809	0.933333	1.32441	3.49723	0.112447	1.90091	1.48664	3.43652	0.315306	1.71815	0.347622	0.970158	1.74135	1.08837	1.32885	1.73711	2.87033	2.39292	1.45046	2.84917	-0.223313	0.77112	2.09322	2.82787	0.345566	2.15137	1.37994	2.0281	0.0874055	0.946684	
1.00526	4.599	0	0	0.084231	0.962152	-0.178196	0.92218	1.30584	3.52326	0.0923702	1.90786	1.47258	3.47626	0.313802	1.7362	0.340497	0.990295	1.75045	1.10994	1.34884	1.77225	2.9016	2.43298	1.4379	2.88466	-0.2313	0.750807	2.08581	2.8685	0.330083	2.15389	1.37161	2.04258	0.0667118	0.9425	
1.00252	4.59289	0	0	0.074436	0.968553	-0.200582	0.911027	1.28727	3.54929	0.072293	1.91481	1.45852	3.51601	0.312299	1.75425	0.333372	1.01043	1.75955	1.13152	1.36883	1.8074	2.93286	2.47305	1.42534	2.92016	-0.239286	0.730494	2.0784	2.90913	0.3146	2.15641	1.36328	2.05707	0.046018	0.938317	
0.998232	4.58526	0	0	0.067243	0.953464	-0.222876	0.899911	1.28384	3.56778	0.0676482	1.91373	1.45192	3.51114	0.317443	1.74662	0.339365	1.00652	1.77276	1.13208	1.37012	1.7808	2.95128	2.47061	1.41238	2.89529	-0.258275	0.677382	2.05552	2.90497	0.291375	2.12618	1.34143	2.01053	0.0229018	0.905594	
0.99247	4.58069	0	0	0.06005	0.938376	-0.245171	0.888795	1.28042	3.58627	0.0630035	1.91266	1.44532	3.50627	0.322586	1.73899	0.345357	1.0026	1.78598	1.13264	1.37141	1.75421	2.96971	2.46817	1.39942	2.87042	-0.277265	0.62427	2.03264	2.90081	0.268151	2.09594	1.31957	1.964	-0.0002145	0.87287	
0.985693	4.57916	0	0	0.052857	0.923287	-0.267465	0.877678	1.277	3.60476	0.0583588	1.91158	1.43872	3.5014	0.32773	1.73136	0.351349	0.998684	1.7992	1.1332	1.3727	1.72762	2.98813	2.46573	1.38647	2.84555	-0.296254	0.571159	2.00977	2.89665	0.244926	2.06571	1.29772	1.91747	-0.0233307	0.840147	
0.978396	4.57458	0	0	0.045664	0.908198	-0.289759	0.866562	1.27357	3.62324	0.053714	1.91051	1.43213	3.49653	0.332874	1.72373	0.357342	0.994768	1.81242	1.13376	1.37399	1.70103	3.00655	2.46329	1.37351	2.82068	-0.315243	0.518047	1.98689	2.89249	0.221701	2.03548	1.27587	1.87094	-0.046447	0.807424	
0.97107	4.57001	0	0	0.0238333	0.906314	-0.309262	0.85604	1.25796	3.64973	0.0369702	1.91529	1.42084	3.52841	0.326973	1.7404	0.34116	1.00147	1.81267	1.15203	1.36658	1.72195	3.02238	2.48827	1.36089	2.84406	-0.324792	0.509578	1.97368	2.9298	0.215416	2.03959	1.27174	1.88262	-0.066971	0.803298	
0.964209	4.56848	0	0	0.0020025	0.90443	-0.328765	0.845518	1.24236	3.67622	0.0202265	1.92007	1.40956	3.56029	0.321072	1.75708	0.324977	1.00817	1.81293	1.17029	1.35918	1.74287	3.0382	2.51324	1.34828	2.86743	-0.334342	0.501109	1.96048	2.96711	0.209131	2.0437	1.26761	1.89429	-0.087495	0.799172	
0.958304	4.5578	0	0	-0.0198282	0.902547	-0.348269	0.834995	1.22675	3.7027	0.00348275	1.92485	1.39828	3.59217	0.315171	1.77376	0.308794	1.01487	1.81318	1.18856	1.35178	1.76378	3.05403	2.53822	1.33567	2.89081	-0.343892	0.492641	1.94728	3.00443	0.202847	2.0478	1.26348	1.90597	-0.108019	0.795045	
0.953848	4.55475	0	0	-0.041659	0.900663	-0.367772	0.824473	1.21114	3.72919	-0.013261	1.92963	1.387	3.62405	0.30927	1.79043	0.292612	1.02157	1.81344	1.20682	1.34438	1.7847	3.06986	2.56319	1.32305	2.91418	-0.353441	0.484172	1.93407	3.04174	0.196562	2.05191	1.25935	1.91764	-0.128543	0.790919	
0.951269	4.5517	0	0	-0.0584235	0.87765	-0.37261	0.829958	1.21663	3.74894	-0.011891	1.93284	1.38559	3.62805	0.319039	1.79047	0.304585	1.01375	1.82682	1.21656	1.35114	1.77707	3.09479	2.5727	1.31587	2.89769	-0.366357	0.457021	1.91813	3.0378	0.183057	2.02875	1.2345	1.8802	-0.155537	0.761182	
0.950415	4.54712	0	0	-0.075188	0.854637	-0.377448	0.835442	1.22212	3.76869	-0.010521	1.93605	1.38418	3.63204	0.328808	1.79051	0.316557	1.00592	1.8402	1.2263	1.3579	1.76943	3.11973	2.5822	1.3087	2.88121	-0.379273	0.42987	1.90218	3.03386	0.169552	2.00559	1.20965	1.84276	-0.182532	0.731444	
0.95083	4.54712	0	0	-0.0919525	0.831625	-0.382286	0.840927	1.2276	3.78845	-0.009151	1.93926	1.38276	3.63603	0.338576	1.79054	0.32853	0.9981	1.85357	1.23604	1.36466	1.76179	3.14467	2.59171	1.30152	2.86472	-0.392188	0.402719	1.88624	3.02992	0.156047	1.98244	1.1848	1.80533	-0.209527	0.701707	
0.952058	4.54254	0	0	-0.108717	0.808612	-0.387124	0.846411	1.23309	3.8082	-0.007781	1.94247	1.38135	3.64003	0.348345	1.79058	0.340503	0.990277	1.86695	1.24578	1.37142	1.75415	3.16961	2.60121	1.29434	2.84824	-0.405104	0.375568	1.8703	3.02598	0.142542	1.95928	1.15995	1.76789	-0.236521	0.671969	
0.95364	4.53796	0	0	-0.131926	0.797079	-0.393031	0.854919	1.21959	3.82872	-0.0166125	1.94619	1.37286	3.66402	0.351983	1.80106	0.330312	0.993065	1.8774	1.25439	1.36929	1.77166	3.17629	2.63247	1.29023	2.8721	-0.406065	0.378285	1.86378	3.05419	0.137146	1.96093	1.15276	1.77927	-0.256345	0.657643	
0.955118	4.53796	0	0	-0.155135	0.785547	-0.398938	0.863427	1.20609	3.84924	-0.025444	1.94991	1.36437	3.68802	0.35562	1.81154	0.320121	0.995853	1.88784	1.26301	1.36716	1.78917	3.18298	2.66374	1.28612	2.89596	-0.407027	0.381001	1.85726	3.08239	0.13175	1.96258	1.14556	1.79066	-0.276169	0.643317	
0.956035	4.53033	0	0	-0.178344	0.774015	-0.404844	0.871935	1.19259	3.86976	-0.0342755	1.95363	1.35588	3.71202	0.359258	1.82202	0.30993	0.99864	1.89828	1.27162	1.36503	1.80667	3.18967	2.695	1.28201	2.91982	-0.407988	0.383717	1.85075	3.1106	0.126355	1.96423	1.13837	1.80205	-0.295993	0.628991	
0.955934	4.53338	0	0	-0.201553	0.762482	-0.410751	0.880443	1.17908	3.89028	-0.043107	1.95734	1.34739	3.73601	0.362895	1.8325	0.299739	1.00143	1.90873	1.28024	1.36289	1.82418	3.19636	2.72626	1.27791	2.94368	-0.408949	0.386434	1.84423	3.13881	0.120959	1.96588	1.13118	1.81343	-0.315817	0.614665	
0.954659	4.52728	0	0	-0.218155	0.732594	-0.411267	0.890087	1.18181	3.90022	-0.0449975	1.96269	1.34481	3.73154	0.370258	1.82555	0.305723	0.997518	1.91324	1.28657	1.36651	1.80249	3.21502	2.72382	1.26228	2.92668	-0.419193	0.366028	1.82266	3.13134	0.108354	1.94042	1.11056	1.7736	-0.348357	0.584147	
0.952971	4.51965	0	0	-0.234756	0.702705	-0.411783	0.89973	1.18453	3.91016	-0.046888	1.96803	1.34224	3.72707	0.377621	1.81859	0.311708	0.993607	1.91776	1.2929	1.37012	1.78079	3.23368	2.72138	1.24665	2.90967	-0.429438	0.345621	1.80109	3.12388	0.09575	1.91496	1.08995	1.73376	-0.380896	0.553628	
0.951799	4.52118	0	0	-0.251358	0.672817	-0.412299	0.909373	1.18726	3.9201	-0.0487785	1.97337	1.33967	3.72259	0.384984	1.81164	0.317692	0.989697	1.92227	1.29923	1.37374	1.7591	3.25234	2.71893	1.23102	2.89267	-0.439682	0.325215	1.77952	3.11642	0.0831455	1.88951	1.06933	1.69392	-0.413436	0.52311	
0.952071	4.51965	0	0	-0.267959	0.642929	-0.412815	0.919017	1.18998	3.93004	-0.050669	1.97872	1.33709	3.71812	0.392347	1.80468	0.323676	0.985787	1.92679	1.30555	1.37735	1.73741	3.27101	2.71649	1.2154	2.87567	-0.449926	0.304808	1.75795	3.10896	0.070541	1.86405	1.04872	1.65408	-0.445976	0.492592	
0.954719	4.51202	0	0	-0.282262	0.634638	-0.412815	0.919017	1.18539	3.95182	-0.0535067	1.98674	1.33257	3.74264	0.395993	1.81517	0.319473	0.984664	1.93274	1.30786	1.37947	1.71996	3.27579	2.72313	1.20984	2.89138	-0.449926	0.304808	1.75575	3.11518	0.065485	1.85802	1.04155	1.65655	-0.470227	0.474133	
0.96067	4.50897	0	0	-0.296565	0.626348	-0.412815	0.919017	1.18081	3.97361	-0.0563445	1.99476	1.32805	3.76716	0.399639	1.82567	0.315269	0.983542	1.93868	1.31017	1.38158	1.70251	3.28057	2.72976	1.20428	2.9071	-0.449926	0.304808	1.75355	3.1214	0.060429	1.852	1.03439	1.65902	-0.494478	0.455675	
0.970856	4.50592	0	0	-0.310868	0.618057	-0.412815	0.919017	1.17622	3.9954	-0.0591822	2.00278	1.32353	3.79168	0.403285	1.83617	0.311065	0.98242	1.94463	1.31248	1.38369	1.68506	3.28536	2.7364	1.19871	2.92281	-0.449926	0.304808	1.75134	3.12763	0.055373	1.84597	1.02722	1.66149	-0.518728	0.437217	
0.986194	4.49829	0	0	-0.325171	0.609767	-0.412815	0.919017	1.17163	4.01719	-0.06202	2.0108	1.31902	3.8162	0.406931	1.84666	0.306862	0.981297	1.95057	1.31479	1.38581	1.66761	3.29014	2.74304	1.19315	2.93853	-0.449926	0.304808	1.74914	3.13385	0.050317	1.83994	1.02005	1.66396	-0.542979	0.418758	
1.00616	4.49676	0	0	-0.336126	0.578284	-0.41444	0.915424	1.17082	4.01067	-0.0582367	2.0001	1.31158	3.79027	0.405027	1.82431	0.298949	0.951743	1.94593	1.29926	1.36113	1.62302	3.28028	2.71051	1.1747	2.90539	-0.463555	0.266027	1.73077	3.09816	0.0352538	1.80148	0.994389	1.6125	-0.568984	0.379762	
1.02734	4.49219	0	0	-0.347081	0.546802	-0.416065	0.911831	1.17	4.00415	-0.0544535	1.98941	1.30414	3.76434	0.403123	1.80197	0.291036	0.922189	1.94128	1.28373	1.33645	1.57843	3.27041	2.67799	1.15624	2.87225	-0.477185	0.227247	1.71241	3.06246	0.0201905	1.76301	0.968723	1.56104	-0.594989	0.340766	
1.04599	4.49066	0	0	-0.358037	0.51532	-0.41769	0.908238	1.16919	3.99763	-0.0506703	1.97872	1.29671	3.73841	0.401219	1.77962	0.283122	0.892636	1.93663	1.2682	1.31177	1.53384	3.26055	2.64546	1.13779	2.83911	-0.490814	0.188466	1.69404	3.02677	0.00512725	1.72454	0.943058	1.50958	-0.620994	0.301771	
1.05835	4.48761	0	0	-0.368992	0.483837	-0.419315	0.904645	1.16837	3.99111	-0.046887	1.96803	1.28927	3.71248	0.399315	1.75728	0.275209	0.863082	1.93199	1.25268	1.28709	1.48924	3.25068	2.61293	1.11933	2.80597	-0.504443	0.149685	1.67567	2.99107	-0.009936	1.68607	0.917392	1.45812	-0.646999	0.262775	
1.06068	4.48608	0	0	-0.378551	0.490083	-0.425774	0.906539	1.16268	4.016	-0.0516168	1.9814	1.28644	3.72047	0.4003	1.75449	0.266175	0.849769	1.9245	1.24522	1.27551	1.46507	3.238	2.59859	1.11235	2.81353	-0.512967	0.138746	1.66455	3.0031	-0.0149773	1.68011	0.9184	1.45527	-0.661876	0.253128	
1.04922	4.48151	0	0	-0.388109	0.496329	-0.432233	0.908434	1.157	4.0409	-0.0563465	1.99476	1.28361	3.72847	0.401285	1.75171	0.257142	0.836456	1.91701	1.23777	1.26393	1.4409	3.22531	2.58424	1.10538	2.82109	-0.521491	0.127806	1.65343	3.01512	-0.0200185	1.67415	0.919407	1.45243	-0.676752	0.243481	
1.02022	4.4754	0	0	-0.397667	0.502574	-0.438692	0.910328	1.15131	4.06579	-0.0610762	2.00813	1.28078	3.73646	0.402271	1.74892	0.248108	0.823144	1.90952	1.23031	1.25235	1.41672	3.21263	2.5699	1.0984	2.82866	-0.530016	0.116867	1.6423	3.02714	-0.0250597	1.6682	0.920415	1.44958	-0.691628	0.233834	
0.970017	4.4754	0	0	-0.407226	0.50882	-0.445151	0.912222	1.14563	4.09069	-0.065806	2.0215	1.27795	3.74446	0.403256	1.74614	0.239074	0.809831	1.90203	1.22285	1.24076	1.39255	3.19995	2.55555	1.09143	2.83622	-0.53854	0.105928	1.63118	3.03916	-0.030101	1.66224	0.921423	1.44673	-0.706505	0.224187	
0.900652	4.47235	0	0	-0.419723	0.475079	-0.451085	0.90448	1.14184	4.08374	-0.0689518	2.00917	1.2654	3.70975	0.394491	1.71558	0.223888	0.762427	1.884	1.19773	1.19487	1.31882	3.16664	2.50986	1.07854	2.78779	-0.556131	0.0579067	1.61064	3.00047	-0.039821	1.62252	0.893776	1.39292	-0.722102	0.191	
0.823118	4.47235	0	0	-0.432221	0.441338	-0.45702	0.896738	1.13806	4.07679	-0.0720975	1.99684	1.25284	3.67505	0.385726	1.68502	0.208701	0.715024	1.86596	1.1726	1.14897	1.24509	3.13334	2.46417	1.06565	2.73935	-0.573722	0.0098855	1.59009	2.96177	-0.049541	1.58279	0.866128	1.33912	-0.737699	0.157814	
0.749193	4.46472	0	0	-0.444719	0.407596	-0.462954	0.888997	1.13427	4.06985	-0.0752432	1.98451	1.24028	3.64034	0.376962	1.65446	0.193515	0.66762	1.84793	1.14747	1.10308	1.17136	3.10003	2.41848	1.05276	2.69092	-0.591313	-0.0381357	1.56955	2.92307	-0.059261	1.54307	0.83848	1.28531	-0.753297	0.124628	
0.690657	4.46777	0	0	-0.457216	0.373855	-0.468888	0.881255	1.13048	4.0629	-0.078389	1.97219	1.22772	3.60564	0.368197	1.6239	0.178329	0.620216	1.82989	1.12234	1.05718	1.09763	3.06673	2.37278	1.03988	2.64249	-0.608904	-0.086157	1.54901	2.88437	-0.068981	1.50335	0.810833	1.23151	-0.768894	0.091441	
0.659289	4.46625	0	0	-0.468295	0.377613	-0.473714	0.886731	1.12478	4.08784	-0.084477	1.98233	1.22631	3.60961	0.361605	1.62182	0.155757	0.619758	1.81948	1.11382	1.0265	1.08345	3.04501	2.36464	1.02875	2.64976	-0.614753	-0.090504	1.53795	2.89632	-0.070377	1.50059	0.803766	1.23396	-0.770626	0.0877695	
0.663272	4.46472	0	0	-0.479374	0.381372	-0.478541	0.892207	1.11907	4.11279	-0.090565	1.99246	1.22491	3.61359	0.355013	1.61974	0.133186	0.6193	1.80907	1.1053	0.99582	1.06927	3.0233	2.35649	1.01762	2.65703	-0.620602	-0.094851	1.5269	2.90826	-0.071773	1.49783	0.796698	1.23641	-0.772358	0.084098	
0.698331	4.46167	0	0	-0.490453	0.38513	-0.483367	0.897683	1.11337	4.13773	-0.096653	2.0026	1.2235	3.61756	0.348421	1.61767	0.110614	0.618842	1.79867	1.09678	0.965139	1.05509	3.00158	2.34834	1.0065	2.6643	-0.626451	-0.099198	1.51585	2.9202	-0.073169	1.49507	0.789631	1.23886	-0.774089	0.0804265	
0.757496	4.46167	0	0	-0.501532	0.388889	-0.488193	0.903159	1.10766	4.16267	-0.102741	2.01274	1.22209	3.62154	0.341829	1.61559	0.088043	0.618384	1.78826	1.08826	0.934457	1.04091	2.97987	2.34019	0.995371	2.67157	-0.6323	-0.103545	1.5048	2.93215	-0.074565	1.49231	0.782564	1.24132	-0.775821	0.076755	
0.833798	4.45557	0	0	-0.517148	0.357461	-0.487124	0.900138	1.10686	4.15612	-0.101268	2.00151	1.20535	3.59894	0.338669	1.59006	0.0818895	0.584535	1.78363	1.07294	0.916714	0.990702	2.97172	2.31373	0.983949	2.63152	-0.642719	-0.143519	1.48554	2.9	-0.0854395	1.4628	0.756089	1.19394	-0.789035	0.054252	
0.920267	4.45709	0	0	-0.532763	0.326033	-0.486055	0.897118	1.10606	4.14956	-0.099796	1.99029	1.1886	3.57634	0.33551	1.56453	0.075736	0.550686	1.779	1.05762	0.898972	0.940496	2.96357	2.28727	0.972526	2.59147	-0.653139	-0.183493	1.46629	2.86785	-0.096314	1.43329	0.729615	1.14657	-0.80225	0.031749	
1.00993	4.45404	0	0	-0.548379	0.294604	-0.484986	0.894097	1.10526	4.14301	-0.0983235	1.97906	1.17185	3.55374	0.33235	1.539	0.0695825	0.516837	1.77437	1.04231	0.881229	0.89029	2.95542	2.26081	0.961103	2.55142	-0.663558	-0.223467	1.44703	2.83571	-0.107189	1.40377	0.70314	1.0992	-0.815464	0.009246	
1.09583	4.45709	0	0	-0.563995	0.263176	-0.483917	0.891076	1.10446	4.13645	-0.096851	1.96784	1.1551	3.53114	0.32919	1.51347	0.063429	0.482988	1.76974	1.02699	0.863487	0.840085	2.94726	2.23435	0.949681	2.51137	-0.673978	-0.263441	1.42778	2.80356	-0.118063	1.37426	0.676665	1.05183	-0.828678	-0.013257	
1.17098	4.45557	0	0	-0.565558	0.260739	-0.485507	0.903734	1.10686	4.15614	-0.0927628	1.97748	1.15485	3.54348	0.33358	1.51484	0.0575435	0.486834	1.76834	1.03096	0.854673	0.842769	2.94288	2.24673	0.951132	2.5193	-0.66853	-0.264973	1.42787	2.81289	-0.115827	1.37463	0.666685	1.06264	-0.832606	-0.0106905	
1.22841	4.44946	0	0	-0.567121	0.258302	-0.487098	0.916392	1.10926	4.17584	-0.0886745	1.98713	1.1546	3.55582	0.33797	1.51621	0.051658	0.49068	1.76693	1.03493	0.845859	0.845453	2.9385	2.25911	0.952582	2.52724	-0.663083	-0.266505	1.42797	2.82222	-0.113591	1.37499	0.656705	1.07346	-0.836534	-0.008124	
1.26117	4.45099	0	0	-0.568684	0.255866	-0.488689	0.929051	1.11166	4.19553	-0.0845863	1.99678	1.15435	3.56816	0.34236	1.51758	0.0457725	0.494526	1.76553	1.03891	0.837045	0.848137	2.93412	2.2715	0.954033	2.53517	-0.657635	-0.268037	1.42806	2.83155	-0.111355	1.37536	0.646726	1.08427	-0.840461	-0.0055575	
1.2642	4.44946	0	0	-0.570247	0.253429	-0.490279	0.941709	1.11406	4.21522	-0.080498	2.00643	1.1541	3.58051	0.34675	1.51895	0.039887	0.498372	1.76412	1.04288	0.828231	0.850821	2.92974	2.28388	0.955484	2.54311	-0.652187	-0.269569	1.42816	2.84088	-0.109119	1.37572	0.636746	1.09509	-0.844389	-0.002991	
1.2414	4.44794	0	0	-0.582714	0.227091	-0.484901	0.942848	1.11733	4.20599	-0.0753517	1.99895	1.14505	3.5712	0.341141	1.51414	0.030933	0.485366	1.76117	1.04175	0.825081	0.837523	2.93575	2.27678	0.951126	2.51934	-0.654695	-0.290199	1.41464	2.82158	-0.114139	1.34984	0.623465	1.05456	-0.857567	-0.0253768	
1.19922	4.44336	0	0	-0.595182	0.200754	-0.479523	0.943987	1.12059	4.19676	-0.0702055	1.99148	1.136	3.5619	0.335532	1.50933	0.021979	0.472359	1.75823	1.04062	0.821932	0.824225	2.94176	2.26967	0.946769	2.49557	-0.657202	-0.310829	1.40112	2.80227	-0.11916	1.32396	0.610183	1.01404	-0.870745	-0.0477625	
1.14413	4.44031	0	0	-0.607649	0.174416	-0.474145	0.945127	1.12385	4.18754	-0.0650592	1.98401	1.12694	3.55259	0.329923	1.50452	0.013025	0.459353	1.75528	1.0395	0.818782	0.810927	2.94777	2.26257	0.942412	2.4718	-0.65971	-0.331459	1.3876	2.78297	-0.12418	1.29808	0.596902	0.973514	-0.883923	-0.0701482	
1.08257	4.43573	0	0	-0.620116	0.148078	-0.468767	0.946266	1.12712	4.17831	-0.059913	1.97654	1.11789	3.54329	0.324314	1.49971	0.004071	0.446347	1.75233	1.03837	0.815632	0.797629	2.95379	2.25547	0.938054	2.44803	-0.662218	-0.352089	1.37407	2.76367	-0.1292	1.2722	0.583621	0.93299	-0.897101	-0.092534	
1.02103	4.43878	0	0	-0.668409	0.114587	-0.465083	0.911353	1.11121	4.10881	-0.062808	1.92116	1.09312	3.46286	0.311811	1.43209	-0.008992	0.368802	1.74293	0.99887	0.798052	0.714666	2.94672	2.20634	0.913517	2.3499	-0.676474	-0.429137	1.34312	2.67018	-0.151857	1.19666	0.532966	0.826827	-0.920329	-0.16247	
0.965944	4.43573	0	0	-0.716702	0.081096	-0.461399	0.876439	1.0953	4.03932	-0.065703	1.86579	1.06835	3.38243	0.299308	1.36446	-0.022055	0.291257	1.73353	0.959372	0.780473	0.631703	2.93965	2.15721	0.88898	2.25177	-0.69073	-0.506185	1.31217	2.57668	-0.174514	1.12112	0.482312	0.720664	-0.943558	-0.232407	
0.923663	4.43268	0	0	-0.764995	0.047605	-0.457715	0.841526	1.07939	3.96982	-0.068598	1.81042	1.04357	3.30199	0.286806	1.29684	-0.035118	0.213711	1.72413	0.919875	0.762893	0.54874	2.93258	2.10808	0.864444	2.15364	-0.704986	-0.583233	1.28121	2.48319	-0.197171	1.04559	0.431657	0.614501	-0.966786	-0.302343	
0.896515	4.4281	0	0	-0.813288	0.014114	-0.454031	0.806612	1.06348	3.90033	-0.071493	1.75504	1.0188	3.22156	0.274303	1.22921	-0.048181	0.136166	1.71473	0.880377	0.745313	0.465777	2.92551	2.05895	0.839907	2.0555	-0.719242	-0.660281	1.25026	2.3897	-0.219828	0.970052	0.381003	0.508338	-0.990014	-0.372279	
0.882051	4.4281	0	0	-0.890478	0.01025	-0.466113	0.743071	1.04103	3.77167	-0.0919125	1.66529	0.984465	3.07812	0.24545	1.11329	-0.097834	-0.0003795	1.68276	0.801913	0.700124	0.298444	2.88354	1.95226	0.796337	1.895	-0.749166	-0.780992	1.18476	2.32064	-0.264267	0.904609	0.284575	0.475928	-1.03768	-0.43912	
0.877542	4.42505	0	0	-0.967669	0.006386	-0.478195	0.679531	1.01858	3.64301	-0.112332	1.57554	0.950128	2.93468	0.216597	0.997375	-0.147487	-0.136925	1.65079	0.723449	0.654935	0.131111	2.84157	1.84557	0.752767	1.73449	-0.77909	-0.901703	1.11925	2.25158	-0.308705	0.839165	0.188148	0.443519	-1.08534	-0.505961	
0.880258	4.42505	0	0	-1.04486	0.002522	-0.490278	0.61599	0.996134	3.51434	-0.132751	1.48578	0.915792	2.79124	0.187745	0.881458	-0.19714	-0.27347	1.61882	0.644986	0.609746	-0.036222	2.7996	1.73889	0.709197	1.57398	-0.809014	-1.02241	1.05375	2.18251	-0.353143	0.773721	0.0917205	0.411109	-1.133	-0.572801	
0.887468	4.42505	0	0	-1.12205	-0.001342	-0.50236	0.55245	0.973684	3.38568	-0.153171	1.39603	0.881455	2.6478	0.158892	0.765541	-0.246793	-0.410016	1.58685	0.566522	0.564557	-0.203555	2.75764	1.6322	0.665627	1.41347	-0.838938	-1.14312	0.98825	2.11345	-0.397582	0.708278	-0.004707	0.3787	-1.18066	-0.639642	
0.896443	4.42047	0	0	-1.13651	-0.0205672	-0.50571	0.529469	0.966326	3.36309	-0.154976	1.37318	0.871434	2.61932	0.149726	0.73059	-0.274174	-0.457135	1.57038	0.538538	0.539478	-0.251553	2.72951	1.59521	0.658327	1.38724	-0.83398	-1.16394	0.980279	2.08928	-0.399301	0.693486	-0.0146303	0.356405	-1.18538	-0.659683	
0.904457	4.41742	0	0	-1.15097	-0.0397925	-0.50906	0.506487	0.958968	3.3405	-0.156781	1.35032	0.861412	2.59084	0.14056	0.695638	-0.301556	-0.504254	1.55391	0.510555	0.514398	-0.299551	2.70139	1.55822	0.651027	1.36102	-0.829021	-1.18476	0.972309	2.06512	-0.401021	0.678694	-0.0245535	0.334111	-1.1901	-0.679725	
0.909731	4.41589	0	0	-1.16543	-0.0590178	-0.51241	0.483506	0.95161	3.31791	-0.158586	1.32747	0.851391	2.56236	0.131393	0.660687	-0.328937	-0.551372	1.53743	0.482571	0.489319	-0.347549	2.67327	1.52122	0.643728	1.33479	-0.824063	-1.20558	0.964338	2.04095	-0.40274	0.663901	-0.0344768	0.311816	-1.19482	-0.699766	
0.912546	4.41131	0	0	-1.17989	-0.078243	-0.51576	0.460525	0.944252	3.29531	-0.160391	1.30461	0.84137	2.53388	0.122227	0.625735	-0.356319	-0.598491	1.52096	0.454587	0.46424	-0.395547	2.64515	1.48423	0.636428	1.30856	-0.819105	-1.22639	0.956368	2.01678	-0.404459	0.649109	-0.0444	0.289522	-1.19954	-0.719807	
0.913452	4.40979	0	0	-1.19889	-0.0977355	-0.519594	0.447061	0.944854	3.26763	-0.153038	1.28383	0.840429	2.50254	0.118894	0.601432	-0.370727	-0.632078	1.51614	0.431035	0.441647	-0.406951	2.63417	1.46694	0.617503	1.31531	-0.824929	-1.21673	0.947923	2.03133	-0.395316	0.662592	-0.0518928	0.319078	-1.20528	-0.695248	
0.913004	4.40979	0	0	-1.21789	-0.117228	-0.523428	0.433596	0.945455	3.23995	-0.145685	1.26305	0.839488	2.4712	0.115561	0.577129	-0.385134	-0.665664	1.51133	0.407483	0.419054	-0.418354	2.62319	1.44964	0.598579	1.32205	-0.830754	-1.20707	0.939477	2.04587	-0.386174	0.676076	-0.0593855	0.348634	-1.21102	-0.670689	
0.911753	4.40826	0	0	-1.23689	-0.13672	-0.527262	0.420131	0.946056	3.21226	-0.138332	1.24227	0.838547	2.43986	0.112227	0.552825	-0.399541	-0.699251	1.50652	0.383931	0.396461	-0.429758	2.61222	1.43235	0.579654	1.3288	-0.836579	-1.19741	0.931032	2.06041	-0.377031	0.689559	-0.0668783	0.37819	-1.21676	-0.64613	
0.910252	4.40521	0	0	-1.25589	-0.156213	-0.531096	0.406667	0.946658	3.18458	-0.130979	1.22149	0.837606	2.40852	0.108894	0.528522	-0.413949	-0.732838	1.5017	0.360379	0.373868	-0.441162	2.60124	1.41505	0.560729	1.33554	-0.842403	-1.18775	0.922587	2.07496	-0.367888	0.703042	-0.074371	0.407746	-1.2225	-0.621571	
0.909053	4.40216	0	0	-1.25278	-0.171633	-0.523531	0.417693	0.963927	3.20515	-0.107967	1.24045	0.851674	2.42546	0.131185	0.546563	-0.39864	-0.714204	1.52092	0.380469	0.377992	-0.420603	2.61385	1.43741	0.574863	1.36575	-0.815627	-1.1543	0.93796	2.08753	-0.345467	0.718571	-0.0635985	0.41926	-1.16222	-0.565359	
