0.668	4.07715	0	0	0.462155	-0.302637	0.049832	-0.025235	0.460131	-0.303612	-0.139096	0.088598	0.12062	-0.067012	0.388458	-0.269672	0.109465	0.103677	0.920075	-0.59169	-0.018757	0.033969	-0.07988	0.051868	-0.014365	0.011368	0.242582	-0.15818	0.169552	-0.101958	0.429023	-0.27216	-0.053418	0.038176	0.054175	-0.026202	
0.671769	4.10156	0	0	0.464523	-0.302546	0.045263	-0.0205842	0.462767	-0.303694	-0.141949	0.0920982	0.122623	-0.0666807	0.390926	-0.269634	0.113581	0.104912	0.916714	-0.587854	-0.0238832	0.0325983	-0.087233	0.0566725	-0.014365	0.011368	0.242582	-0.15818	0.172634	-0.102336	0.431148	-0.271914	-0.054171	0.0403042	0.0580217	-0.0287155	
0.674703	4.12292	0	0	0.46689	-0.302455	0.040694	-0.0159335	0.465404	-0.303777	-0.144801	0.0955985	0.124626	-0.0663495	0.393393	-0.269596	0.117697	0.106147	0.913353	-0.584018	-0.0290095	0.0312275	-0.094586	0.061477	-0.014365	0.011368	0.242582	-0.15818	0.175716	-0.102714	0.433272	-0.271667	-0.054924	0.0424325	0.0618685	-0.031229	
0.676844	4.15192	0	0	0.469257	-0.302365	0.036125	-0.0112827	0.468041	-0.30386	-0.147654	0.0990987	0.126628	-0.0660183	0.395861	-0.269558	0.121813	0.107382	0.909991	-0.580182	-0.0341357	0.0298568	-0.101939	0.0662815	-0.014365	0.011368	0.242582	-0.15818	0.178797	-0.103093	0.435396	-0.271421	-0.055677	0.0445608	0.0657153	-0.0337425	
0.678235	4.18091	0	0	0.471625	-0.302274	0.031556	-0.006632	0.470677	-0.303942	-0.150507	0.102599	0.128631	-0.065687	0.398328	-0.26952	0.125929	0.108617	0.90663	-0.576346	-0.039262	0.028486	-0.109292	0.071086	-0.014365	0.011368	0.242582	-0.15818	0.181879	-0.103471	0.437521	-0.271174	-0.05643	0.046689	0.069562	-0.036256	
0.678915	4.2099	0	0	0.465384	-0.298196	0.021692	-0.003517	0.463895	-0.29951	-0.158901	0.108084	0.128631	-0.065687	0.397568	-0.267373	0.124122	0.113725	0.901419	-0.572941	-0.039262	0.028486	-0.110046	0.0732177	-0.0119287	0.0130802	0.249302	-0.159283	0.185716	-0.105978	0.446158	-0.276818	-0.0518337	0.045322	0.0765045	-0.0391497	
0.678928	4.22974	0	0	0.459143	-0.294118	0.011828	-0.000402	0.457113	-0.295079	-0.167295	0.113568	0.128631	-0.065687	0.396809	-0.265226	0.122315	0.118832	0.896208	-0.569535	-0.039262	0.028486	-0.1108	0.0753495	-0.0094925	0.0147925	0.256022	-0.160386	0.189552	-0.108484	0.454796	-0.282462	-0.0472375	0.043955	0.083447	-0.0420435	
0.678313	4.2511	0	0	0.452901	-0.29004	0.001964	0.002713	0.450331	-0.290647	-0.17569	0.119053	0.128631	-0.065687	0.396049	-0.263079	0.120507	0.123939	0.890996	-0.56613	-0.039262	0.028486	-0.111555	0.0774813	-0.00705625	0.0165047	0.262743	-0.161488	0.193389	-0.110991	0.463433	-0.288105	-0.0426413	0.042588	0.0903895	-0.0449372	
0.677115	4.26483	0	0	0.44666	-0.285962	-0.0079	0.005828	0.443549	-0.286215	-0.184084	0.124538	0.128631	-0.065687	0.395289	-0.260932	0.1187	0.129047	0.885785	-0.562725	-0.039262	0.028486	-0.112309	0.079613	-0.00462	0.018217	0.269463	-0.162591	0.197225	-0.113498	0.47207	-0.293749	-0.038045	0.041221	0.097332	-0.047831	
0.675372	4.27856	0	0	0.445906	-0.283831	-0.00863225	-0.00034975	0.439405	-0.281867	-0.190374	0.128648	0.123116	-0.0620835	0.386371	-0.256756	0.121411	0.121387	0.877219	-0.555488	-0.0443835	0.0271153	-0.122104	0.0860127	-0.008577	0.0208025	0.263973	-0.159004	0.194141	-0.113119	0.474951	-0.295631	-0.039967	0.0408405	0.097332	-0.047831	
0.673128	4.28314	0	0	0.445152	-0.281701	-0.0093645	-0.0065275	0.435261	-0.277518	-0.196664	0.132759	0.117602	-0.05848	0.377454	-0.25258	0.124121	0.113726	0.868653	-0.548251	-0.049505	0.0257445	-0.131898	0.0924125	-0.012534	0.023388	0.258483	-0.155417	0.191057	-0.112739	0.477832	-0.297514	-0.041889	0.04046	0.097332	-0.047831	
0.670425	4.28467	0	0	0.444398	-0.27957	-0.0100967	-0.0127053	0.431117	-0.273169	-0.202954	0.136869	0.112088	-0.0548765	0.368537	-0.248403	0.126831	0.106066	0.860088	-0.541014	-0.0546265	0.0243737	-0.141692	0.0988123	-0.016491	0.0259735	0.252993	-0.151829	0.187974	-0.11236	0.480713	-0.299397	-0.043811	0.0400795	0.097332	-0.047831	
0.667334	4.28009	0	0	0.443644	-0.277439	-0.010829	-0.018883	0.426973	-0.268821	-0.209244	0.140979	0.106573	-0.051273	0.359619	-0.244227	0.129542	0.098406	0.851522	-0.533777	-0.059748	0.023003	-0.151487	0.105212	-0.020448	0.028559	0.247503	-0.148242	0.18489	-0.111981	0.483594	-0.301279	-0.045733	0.039699	0.097332	-0.047831	
0.664002	4.27246	0	0	0.44289	-0.275308	-0.014623	-0.0164038	0.42283	-0.264473	-0.209997	0.143107	0.105818	-0.0491392	0.361138	-0.24852	0.13225	0.0907525	0.84892	-0.532077	-0.0554103	0.0107443	-0.15958	0.112139	-0.0251635	0.0332928	0.244003	-0.14431	0.172638	-0.10234	0.474954	-0.295633	-0.0564253	0.0466855	0.094238	-0.047452	
0.660582	4.25567	0	0	0.442136	-0.273176	-0.018417	-0.0139245	0.418687	-0.260124	-0.210751	0.145236	0.105063	-0.0470055	0.362657	-0.252812	0.134958	0.083099	0.846318	-0.530377	-0.0510725	-0.0015145	-0.167673	0.119067	-0.029879	0.0380265	0.240502	-0.140378	0.160386	-0.0926985	0.466314	-0.289988	-0.0671175	0.053672	0.091144	-0.047073	
0.657228	4.24194	0	0	0.441382	-0.271045	-0.022211	-0.0114453	0.414544	-0.255776	-0.211504	0.147364	0.104308	-0.0448718	0.364176	-0.257105	0.137667	0.0754455	0.843716	-0.528677	-0.0467347	-0.0137732	-0.175765	0.125994	-0.0345945	0.0427602	0.237001	-0.136446	0.148135	-0.0830572	0.457674	-0.284342	-0.0778097	0.0606585	0.08805	-0.046694	
0.654095	4.22821	0	0	0.440628	-0.268914	-0.026005	-0.008966	0.410401	-0.251428	-0.212257	0.149493	0.103553	-0.042738	0.365695	-0.261397	0.140375	0.067792	0.841114	-0.526977	-0.042397	-0.026032	-0.183858	0.132921	-0.03931	0.047494	0.233501	-0.132514	0.135883	-0.073416	0.449034	-0.278696	-0.088502	0.067645	0.084956	-0.046315	
0.6513	4.21295	0	0	0.440628	-0.268914	-0.0282665	-0.010814	0.406259	-0.24708	-0.21301	0.151622	0.103553	-0.042738	0.372145	-0.265612	0.141277	0.065242	0.835157	-0.521444	-0.0453517	-0.033513	-0.188747	0.136116	-0.03931	0.047494	0.236244	-0.134307	0.132053	-0.0709137	0.446156	-0.276815	-0.0972655	0.0750077	0.0772608	-0.0412868	
0.648808	4.19922	0	0	0.440628	-0.268914	-0.030528	-0.012662	0.402117	-0.242732	-0.213763	0.153751	0.103553	-0.042738	0.378595	-0.269826	0.142179	0.062692	0.829201	-0.515912	-0.0483065	-0.040994	-0.193636	0.13931	-0.03931	0.047494	0.238988	-0.136099	0.128224	-0.0684115	0.443277	-0.274935	-0.106029	0.0823705	0.0695655	-0.0362585	
0.646538	4.18548	0	0	0.440628	-0.268914	-0.0327895	-0.01451	0.397975	-0.238384	-0.214517	0.15588	0.103553	-0.042738	0.385046	-0.274041	0.143081	0.060142	0.823244	-0.510379	-0.0512613	-0.048475	-0.198524	0.142505	-0.03931	0.047494	0.241731	-0.137892	0.124395	-0.0659093	0.440399	-0.273055	-0.114792	0.0897333	0.0618703	-0.0312303	
0.644411	4.17175	0	0	0.440628	-0.268914	-0.035051	-0.016358	0.393833	-0.234036	-0.21527	0.158009	0.103553	-0.042738	0.391496	-0.278256	0.143983	0.057592	0.817287	-0.504846	-0.054216	-0.055956	-0.203413	0.145699	-0.03931	0.047494	0.244475	-0.139685	0.120565	-0.063407	0.437521	-0.271174	-0.123556	0.097096	0.054175	-0.026202	
0.642346	4.16412	0	0	0.428159	-0.260767	-0.0388073	-0.0222105	0.380301	-0.225194	-0.222896	0.161356	0.0952878	-0.0373375	0.385805	-0.276187	0.142568	0.048724	0.804296	-0.496358	-0.0571705	-0.0634243	-0.211496	0.15262	-0.044024	0.0522273	0.243718	-0.137545	0.108334	-0.0537788	0.436769	-0.269047	-0.131559	0.102325	0.0472425	-0.0233145	
0.640276	4.15802	0	0	0.41569	-0.252619	-0.0425635	-0.028063	0.366769	-0.216352	-0.230523	0.164702	0.0870225	-0.031937	0.380113	-0.274118	0.141153	0.039856	0.791306	-0.48787	-0.060125	-0.0708925	-0.219578	0.159541	-0.048738	0.0569605	0.242961	-0.135406	0.0961025	-0.0441505	0.436016	-0.266919	-0.139562	0.107554	0.04031	-0.020427	
0.638207	4.15649	0	0	0.403221	-0.244472	-0.0463197	-0.0339155	0.353238	-0.20751	-0.238149	0.168048	0.0787573	-0.0265365	0.374422	-0.272048	0.139738	0.030988	0.778316	-0.479381	-0.0630795	-0.0783608	-0.227661	0.166461	-0.053452	0.0616937	0.242204	-0.133266	0.0838712	-0.0345223	0.435263	-0.264792	-0.147565	0.112784	0.0333775	-0.0175395	
0.636178	4.15497	0	0	0.390752	-0.236324	-0.050076	-0.039768	0.339706	-0.198668	-0.245776	0.171395	0.070492	-0.021136	0.368731	-0.269979	0.138323	0.02212	0.765325	-0.470893	-0.066034	-0.085829	-0.235743	0.173382	-0.058166	0.066427	0.241447	-0.131126	0.07164	-0.024894	0.434511	-0.262665	-0.155568	0.118013	0.026445	-0.014652	
0.634227	4.14886	0	0	0.380658	-0.22809	-0.057614	-0.0431397	0.329571	-0.192046	-0.252055	0.175498	0.0629897	-0.017874	0.357363	-0.265848	0.134587	0.00696875	0.753109	-0.464551	-0.0740983	-0.0946338	-0.252817	0.184539	-0.0660668	0.0715898	0.231235	-0.126098	0.0639962	-0.0198993	0.428758	-0.258906	-0.171552	0.128457	0.0187635	-0.009633	
0.632391	4.14886	0	0	0.370563	-0.219855	-0.065152	-0.0465115	0.319436	-0.185424	-0.258335	0.179601	0.0554875	-0.014612	0.345994	-0.261718	0.130852	-0.0081825	0.740893	-0.458209	-0.0821625	-0.103439	-0.269892	0.195696	-0.0739675	0.0767525	0.221023	-0.12107	0.0563525	-0.0149045	0.423004	-0.255146	-0.187535	0.138901	0.011082	-0.004614	
0.630709	4.15344	0	0	0.360469	-0.211621	-0.07269	-0.0498832	0.309301	-0.178801	-0.264615	0.183704	0.0479853	-0.01135	0.334626	-0.257587	0.127116	-0.0233338	0.728677	-0.451868	-0.0902267	-0.112243	-0.286966	0.206852	-0.0818683	0.0819152	0.21081	-0.116043	0.0487087	-0.00990975	0.41725	-0.251387	-0.203518	0.149345	0.0034005	0.000405	
0.629213	4.1687	0	0	0.350375	-0.203386	-0.080228	-0.053255	0.299166	-0.172179	-0.270894	0.187807	0.040483	-0.008088	0.323258	-0.253456	0.123381	-0.038485	0.716461	-0.445526	-0.098291	-0.121048	-0.30404	0.218009	-0.089769	0.087078	0.200598	-0.111015	0.041065	-0.004915	0.411497	-0.247628	-0.219502	0.159789	-0.004281	0.005424	
0.627932	4.17786	0	0	0.341046	-0.19729	-0.0809587	-0.059408	0.288287	-0.163429	-0.272986	0.189174	0.0294855	-0.00090225	0.324016	-0.2556	0.118745	-0.0510552	0.70351	-0.437063	-0.0969365	-0.140654	-0.320325	0.227011	-0.100846	0.0926628	0.192381	-0.105645	0.030365	0.00044025	0.405748	-0.243871	-0.230141	0.166741	-0.0150345	0.0108088	
0.626896	4.19464	0	0	0.331716	-0.191194	-0.0816895	-0.065561	0.277409	-0.154678	-0.275078	0.190542	0.018488	0.0062835	0.324775	-0.257744	0.114109	-0.0636255	0.690559	-0.4286	-0.095582	-0.160259	-0.336611	0.236013	-0.111923	0.0982475	0.184163	-0.100276	0.019665	0.0057955	0.399999	-0.240115	-0.24078	0.173692	-0.025788	0.0161935	
0.626134	4.21753	0	0	0.322386	-0.185097	-0.0824203	-0.071714	0.26653	-0.145927	-0.27717	0.191909	0.0074905	0.0134693	0.325534	-0.259888	0.109472	-0.0761958	0.677607	-0.420138	-0.0942275	-0.179865	-0.352897	0.245014	-0.123	0.103832	0.175945	-0.0949058	0.008965	0.0111508	0.394249	-0.236358	-0.251419	0.180644	-0.0365415	0.0215783	
0.625667	4.24805	0	0	0.313057	-0.179001	-0.083151	-0.077867	0.255651	-0.137177	-0.279262	0.193276	-0.003507	0.020655	0.326292	-0.262032	0.104836	-0.088766	0.664656	-0.411675	-0.092873	-0.19947	-0.369182	0.254016	-0.134077	0.109417	0.167728	-0.089536	-0.001735	0.016506	0.3885	-0.232601	-0.262058	0.187596	-0.047295	0.026963	
0.62543	4.27093	0	0	0.309949	-0.176971	-0.086169	-0.0775515	0.24554	-0.13057	-0.275077	0.190542	-0.006254	0.02245	0.329512	-0.264136	0.104308	-0.100098	0.654309	-0.404914	-0.0936817	-0.212949	-0.37815	0.258237	-0.133317	0.107268	0.173962	-0.0952545	-0.002488	0.0186342	0.394249	-0.236358	-0.260153	0.187988	-0.047295	0.026963	
0.625319	4.28772	0	0	0.306841	-0.17494	-0.089187	-0.077236	0.235429	-0.123964	-0.270892	0.187807	-0.009001	0.024245	0.332732	-0.266239	0.10378	-0.111429	0.643962	-0.398153	-0.0944905	-0.226428	-0.387118	0.262457	-0.132556	0.105118	0.180197	-0.100973	-0.003241	0.0207625	0.399999	-0.240115	-0.258248	0.18838	-0.047295	0.026963	
0.625232	4.29382	0	0	0.303734	-0.172909	-0.092205	-0.0769205	0.225318	-0.117357	-0.266708	0.185073	-0.011748	0.02604	0.335951	-0.268343	0.103253	-0.122761	0.633615	-0.391393	-0.0952993	-0.239906	-0.396085	0.266678	-0.131796	0.102969	0.186431	-0.106691	-0.003994	0.0228908	0.405748	-0.243871	-0.256342	0.188772	-0.047295	0.026963	
0.625062	4.2984	0	0	0.300626	-0.170879	-0.095223	-0.076605	0.215207	-0.11075	-0.262523	0.182338	-0.014495	0.027835	0.339171	-0.270447	0.102725	-0.134093	0.623268	-0.384632	-0.096108	-0.253385	-0.405053	0.270898	-0.131035	0.100819	0.192666	-0.11241	-0.004747	0.025019	0.411497	-0.247628	-0.254437	0.189164	-0.047295	0.026963	
0.624718	4.29993	0	0	0.29131	-0.164792	-0.0967158	-0.080597	0.205864	-0.106287	-0.262523	0.182338	-0.0172412	0.0296295	0.345614	-0.274657	0.099511	-0.137823	0.615516	-0.379566	-0.099067	-0.260774	-0.40991	0.274072	-0.127091	0.0982418	0.200889	-0.117783	-0.00168425	0.0246542	0.422255	-0.253022	-0.249118	0.185688	-0.0403795	0.0240863	
0.624204	4.28924	0	0	0.281994	-0.158704	-0.0982085	-0.084589	0.19652	-0.101823	-0.262523	0.182338	-0.0199875	0.031424	0.352057	-0.278867	0.096297	-0.141554	0.607764	-0.374501	-0.102026	-0.268163	-0.414767	0.277245	-0.123147	0.0956645	0.209112	-0.123157	0.0013785	0.0242895	0.433013	-0.258415	-0.243798	0.182212	-0.033464	0.0212095	
0.623571	4.27856	0	0	0.272677	-0.152616	-0.0997013	-0.088581	0.187177	-0.0973602	-0.262523	0.182338	-0.0227337	0.0332185	0.3585	-0.283077	0.093083	-0.145285	0.600012	-0.369436	-0.104985	-0.275551	-0.419624	0.280419	-0.119202	0.0930872	0.217335	-0.12853	0.00444125	0.0239248	0.44377	-0.263809	-0.238479	0.178736	-0.0265485	0.0183328	
0.622868	4.26941	0	0	0.263361	-0.146529	-0.101194	-0.092573	0.177834	-0.092897	-0.262523	0.182338	-0.02548	0.035013	0.364943	-0.287287	0.089869	-0.149015	0.59226	-0.36437	-0.107944	-0.28294	-0.424481	0.283592	-0.115258	0.09051	0.225558	-0.133903	0.007504	0.02356	0.454528	-0.269202	-0.233159	0.17526	-0.019633	0.015456	
0.622147	4.25415	0	0	0.257156	-0.142475	-0.103448	-0.0944098	0.171108	-0.0885022	-0.262523	0.182338	-0.03097	0.0386003	0.364943	-0.287287	0.0875498	-0.155267	0.586341	-0.358862	-0.105801	-0.288997	-0.425235	0.285724	-0.116019	0.0926597	0.233032	-0.137142	0.0197153	0.0139445	0.471823	-0.280503	-0.219846	0.166561	-0.00042525	0.00290525	
0.621456	4.24347	0	0	0.250951	-0.13842	-0.105702	-0.0962465	0.164382	-0.0841075	-0.262523	0.182338	-0.03646	0.0421875	0.364943	-0.287287	0.0852305	-0.161518	0.580422	-0.353354	-0.103658	-0.295054	-0.42599	0.287857	-0.11678	0.0948095	0.240505	-0.14038	0.0319265	0.004329	0.489117	-0.291804	-0.206533	0.157861	0.0187825	-0.0096455	
0.620806	4.22058	0	0	0.244746	-0.134365	-0.107956	-0.0980832	0.157655	-0.0797127	-0.262523	0.182338	-0.04195	0.0457748	0.364943	-0.287287	0.0829112	-0.16777	0.574503	-0.347846	-0.101515	-0.30111	-0.426744	0.289989	-0.11754	0.0969592	0.247979	-0.143619	0.0441378	-0.0052865	0.506412	-0.303105	-0.193219	0.149162	0.0379903	-0.0221963	
0.620196	4.20532	0	0	0.238541	-0.130311	-0.11021	-0.09992	0.150929	-0.075318	-0.262523	0.182338	-0.04744	0.049362	0.364943	-0.287287	0.080592	-0.174021	0.568584	-0.342338	-0.099372	-0.307167	-0.427498	0.292121	-0.118301	0.099109	0.255453	-0.146858	0.056349	-0.014902	0.523707	-0.314406	-0.179906	0.140463	0.057198	-0.034747	
0.619622	4.19159	0	0	0.241643	-0.132338	-0.104149	-0.108842	0.150929	-0.075318	-0.256242	0.178234	-0.0501835	0.0511547	0.370632	-0.289356	0.079165	-0.182785	0.573748	-0.345712	-0.103403	-0.311511	-0.42507	0.290534	-0.126187	0.104262	0.258956	-0.150791	0.063996	-0.0198987	0.53312	-0.322192	-0.168487	0.131365	0.065649	-0.041911	
0.619083	4.17786	0	0	0.244745	-0.134365	-0.0980885	-0.117763	0.150929	-0.075318	-0.249961	0.174129	-0.052927	0.0529475	0.376321	-0.291426	0.077738	-0.191548	0.578912	-0.349087	-0.107435	-0.315856	-0.422642	0.288948	-0.134074	0.109415	0.262458	-0.154724	0.071643	-0.0248955	0.542534	-0.329979	-0.157068	0.122267	0.0741	-0.049075	
0.618582	4.16412	0	0	0.247847	-0.136392	-0.0920278	-0.126685	0.150929	-0.075318	-0.24368	0.170025	-0.0556705	0.0547403	0.382011	-0.293495	0.076311	-0.200312	0.584076	-0.352461	-0.111466	-0.3202	-0.420214	0.287361	-0.14196	0.114568	0.26596	-0.158658	0.07929	-0.0298923	0.551948	-0.337766	-0.145649	0.113168	0.082551	-0.056239	
0.618162	4.15344	0	0	0.250949	-0.138419	-0.085967	-0.135607	0.150929	-0.075318	-0.237399	0.165921	-0.058414	0.056533	0.3877	-0.295564	0.074884	-0.209075	0.58924	-0.355836	-0.115497	-0.324544	-0.417786	0.285774	-0.149846	0.119721	0.269463	-0.162591	0.086937	-0.034889	0.561361	-0.345552	-0.13423	0.10407	0.091002	-0.063403	
0.61788	4.14276	0	0	0.254052	-0.140446	-0.0791685	-0.138396	0.150929	-0.075318	-0.229017	0.160444	-0.0549157	0.052607	0.4046	-0.308255	0.0784495	-0.219152	0.600333	-0.364725	-0.115497	-0.324544	-0.408067	0.279423	-0.153026	0.120146	0.274956	-0.166181	0.0907633	-0.0373892	0.561361	-0.345552	-0.128892	0.100582	0.0979485	-0.0663	
0.617795	4.13055	0	0	0.257155	-0.142474	-0.07237	-0.141184	0.150929	-0.075318	-0.220635	0.154968	-0.0514175	0.048681	0.4215	-0.320945	0.082015	-0.229229	0.611425	-0.373613	-0.115497	-0.324544	-0.398347	0.273072	-0.156205	0.120571	0.28045	-0.16977	0.0945895	-0.0398895	0.561361	-0.345552	-0.123554	0.0970945	0.104895	-0.069197	
0.617965	4.12445	0	0	0.260258	-0.144502	-0.0655715	-0.143973	0.150929	-0.075318	-0.212254	0.149491	-0.0479193	0.044755	0.438399	-0.333636	0.0855805	-0.239306	0.622518	-0.382501	-0.115497	-0.324544	-0.388628	0.266722	-0.159385	0.120997	0.285943	-0.173359	0.0984157	-0.0423898	0.561361	-0.345552	-0.118217	0.0936068	0.111842	-0.072094	
0.618438	4.11529	0	0	0.263361	-0.146529	-0.058773	-0.146762	0.150929	-0.075318	-0.203872	0.144014	-0.044421	0.040829	0.455299	-0.346327	0.089146	-0.249383	0.633611	-0.39139	-0.115497	-0.324544	-0.378909	0.260371	-0.162565	0.121422	0.291436	-0.176949	0.102242	-0.04489	0.561361	-0.345552	-0.112879	0.090119	0.118788	-0.074991	
0.619199	4.10766	0	0	0.266465	-0.148558	-0.055752	-0.147082	0.150929	-0.075318	-0.195482	0.138532	-0.038931	0.0372417	0.470913	-0.348285	0.0873638	-0.244346	0.653568	-0.40279	-0.116567	-0.321519	-0.36599	0.25029	-0.158625	0.118847	0.299683	-0.182337	0.11373	-0.0523967	0.569277	-0.349089	-0.100273	0.083519	0.129598	-0.0804123	
0.620213	4.10004	0	0	0.26957	-0.150586	-0.052731	-0.147402	0.150929	-0.075318	-0.187092	0.133049	-0.033441	0.0336545	0.486528	-0.350243	0.0855815	-0.239309	0.673526	-0.414191	-0.117638	-0.318495	-0.353071	0.24021	-0.154685	0.116273	0.307929	-0.187726	0.125219	-0.0599035	0.577194	-0.352626	-0.0876675	0.076919	0.140408	-0.0858335	
0.621448	4.08935	0	0	0.272674	-0.152614	-0.04971	-0.147723	0.150929	-0.075318	-0.178702	0.127567	-0.027951	0.0300673	0.502142	-0.3522	0.0837993	-0.234272	0.693484	-0.425591	-0.118708	-0.31547	-0.340151	0.230129	-0.150744	0.113698	0.316176	-0.193115	0.136707	-0.0674103	0.58511	-0.356163	-0.0750617	0.070319	0.151219	-0.0912547	
0.622867	4.0863	0	0	0.275778	-0.154643	-0.046689	-0.148043	0.150929	-0.075318	-0.170312	0.122085	-0.022461	0.02648	0.517756	-0.354158	0.082017	-0.229235	0.713441	-0.436991	-0.119778	-0.312445	-0.327232	0.220048	-0.146804	0.111123	0.324423	-0.198503	0.148196	-0.074917	0.593026	-0.3597	-0.062456	0.063719	0.162029	-0.096676	
0.624433	4.07867	0	0	0.276532	-0.156775	-0.042905	-0.150515	0.154291	-0.077515	-0.161914	0.116597	-0.0149745	0.0232282	0.530367	-0.347532	0.0852315	-0.225522	0.731606	-0.44886	-0.116819	-0.305069	-0.310173	0.208901	-0.142862	0.108547	0.338185	-0.207495	0.1597	-0.082434	0.605352	-0.36939	-0.0437185	0.0514755	0.175206	-0.100357	
0.626081	4.06799	0	0	0.277286	-0.158906	-0.039121	-0.152988	0.157654	-0.079712	-0.153515	0.11111	-0.007488	0.0199765	0.542979	-0.340906	0.088446	-0.22181	0.749771	-0.46073	-0.113861	-0.297693	-0.293113	0.197753	-0.13892	0.105971	0.351947	-0.216488	0.171204	-0.089951	0.617677	-0.379079	-0.024981	0.039232	0.188383	-0.104038	
0.627741	4.06189	0	0	0.278041	-0.161038	-0.035337	-0.155461	0.161017	-0.081909	-0.145117	0.105623	-1.5E-06	0.0167248	0.55559	-0.33428	0.0916605	-0.218097	0.767935	-0.472599	-0.110903	-0.290316	-0.276054	0.186606	-0.134977	0.103395	0.36571	-0.225481	0.182709	-0.097468	0.630003	-0.388768	-0.0062435	0.0269885	0.20156	-0.107719	
0.629343	4.05884	0	0	0.278795	-0.163169	-0.031553	-0.157933	0.164379	-0.084106	-0.136719	0.100135	0.007485	0.013473	0.568201	-0.327654	0.094875	-0.214385	0.7861	-0.484468	-0.107944	-0.28294	-0.258994	0.175459	-0.131035	0.100819	0.379472	-0.234473	0.194213	-0.104985	0.642328	-0.398458	0.012494	0.014745	0.214737	-0.1114	
0.630814	4.05121	0	0	0.281146	-0.163067	-0.0285287	-0.158255	0.164379	-0.084106	-0.131168	0.098145	0.0157345	0.00808275	0.577589	-0.318889	0.090411	-0.201769	0.804304	-0.496363	-0.108207	-0.266446	-0.24021	0.164825	-0.123906	0.097813	0.395259	-0.243144	0.209576	-0.115024	0.656063	-0.405797	0.0285875	0.00422925	0.222555	-0.108285	
0.632101	4.04663	0	0	0.283498	-0.162964	-0.0255045	-0.158577	0.164379	-0.084106	-0.125618	0.096155	0.023984	0.0026925	0.586977	-0.310125	0.085947	-0.189154	0.822507	-0.508257	-0.108469	-0.249952	-0.221426	0.15419	-0.116776	0.094807	0.411045	-0.251814	0.224938	-0.125062	0.669798	-0.413136	0.044681	-0.0062865	0.230373	-0.105169	
0.633249	4.04053	0	0	0.285849	-0.162861	-0.0224803	-0.158899	0.164379	-0.084106	-0.120067	0.094165	0.0322335	-0.00269775	0.596364	-0.301361	0.081483	-0.176539	0.84071	-0.520151	-0.108732	-0.233458	-0.202642	0.143556	-0.109647	0.091801	0.426832	-0.260485	0.240301	-0.1351	0.683533	-0.420475	0.0607745	-0.0168022	0.23819	-0.102054	
0.634341	4.0329	0	0	0.2882	-0.162759	-0.019456	-0.159221	0.164379	-0.084106	-0.114517	0.092175	0.040483	-0.008088	0.605752	-0.292596	0.077019	-0.163923	0.858914	-0.532046	-0.108995	-0.216964	-0.183858	0.132921	-0.102517	0.088795	0.442619	-0.269156	0.255664	-0.145139	0.697268	-0.427814	0.076868	-0.027318	0.246008	-0.098939	
0.63546	4.02527	0	0	0.297523	-0.168851	-0.013403	-0.159866	0.170352	-0.086367	-0.102649	0.086057	0.045987	-0.0116845	0.61592	-0.28597	0.0802315	-0.160196	0.88052	-0.547804	-0.10604	-0.209551	-0.174827	0.128659	-0.09933	0.0883657	0.444622	-0.26882	0.271054	-0.155195	0.703823	-0.433733	0.0910558	-0.0382255	0.253837	-0.0958212	
0.63669	4.02069	0	0	0.306846	-0.174943	-0.00735	-0.160512	0.176325	-0.088628	-0.09078	0.079939	0.051491	-0.015281	0.626089	-0.279344	0.083444	-0.156469	0.902126	-0.563562	-0.103085	-0.202137	-0.165795	0.124398	-0.096143	0.0879365	0.446626	-0.268484	0.286445	-0.165252	0.710378	-0.439651	0.105243	-0.049133	0.261666	-0.0927035	
0.638104	4.01459	0	0	0.316169	-0.181035	-0.001297	-0.161158	0.182298	-0.090889	-0.0789115	0.073821	0.056995	-0.0188775	0.636257	-0.272717	0.0866565	-0.152742	0.923732	-0.579321	-0.100131	-0.194723	-0.156764	0.120136	-0.092956	0.0875073	0.448629	-0.268148	0.301836	-0.175309	0.716933	-0.44557	0.119431	-0.0600405	0.269495	-0.0895858	
0.639702	4.01001	0	0	0.325492	-0.187127	0.004756	-0.161803	0.188271	-0.09315	-0.067043	0.067703	0.062499	-0.022474	0.646425	-0.266091	0.089869	-0.149015	0.945338	-0.595079	-0.097176	-0.18731	-0.147733	0.115874	-0.089769	0.087078	0.450632	-0.267812	0.317226	-0.185365	0.723488	-0.451489	0.133619	-0.070948	0.277324	-0.086468	
0.641445	4.00848	0	0	0.331713	-0.191192	0.00929	-0.158141	0.195761	-0.0996857	-0.0544023	0.0594435	0.0735175	-0.0296737	0.659313	-0.252893	0.0844995	-0.13384	0.96287	-0.604894	-0.100405	-0.178183	-0.13473	0.105738	-0.0890082	0.0849277	0.459676	-0.275367	0.316473	-0.183236	0.725638	-0.451258	0.135555	-0.070576	0.275048	-0.0800363	
0.643297	4.00238	0	0	0.337933	-0.195256	0.013824	-0.15448	0.203251	-0.106221	-0.0417615	0.051184	0.084536	-0.0368735	0.6722	-0.239695	0.07913	-0.118665	0.980401	-0.614709	-0.103635	-0.169056	-0.121728	0.0956025	-0.0882475	0.0827775	0.468719	-0.282921	0.31572	-0.181108	0.727787	-0.451027	0.137491	-0.070204	0.272772	-0.0736045	
0.64522	4.00238	0	0	0.344154	-0.199321	0.018358	-0.150819	0.21074	-0.112757	-0.0291208	0.0429245	0.0955545	-0.0440733	0.685088	-0.226496	0.0737605	-0.10349	0.997932	-0.624524	-0.106865	-0.159929	-0.108725	0.0854667	-0.0874868	0.0806273	0.477763	-0.290475	0.314966	-0.178979	0.729936	-0.450796	0.139427	-0.069832	0.270497	-0.0671728	
0.647174	4.0039	0	0	0.350375	-0.203386	0.022892	-0.147157	0.21823	-0.119293	-0.01648	0.034665	0.106573	-0.051273	0.697976	-0.213298	0.068391	-0.088315	1.01546	-0.634339	-0.110094	-0.150802	-0.095722	0.075331	-0.086726	0.078477	0.486807	-0.29803	0.314213	-0.17685	0.732086	-0.450565	0.141363	-0.06946	0.268221	-0.060741	
0.649109	4.00238	0	0	0.358961	-0.207357	0.0281727	-0.137341	0.224214	-0.121561	-0.0003505	0.0257633	0.119611	-0.058152	0.708782	-0.186965	0.0739145	-0.078288	1.03379	-0.646313	-0.107143	-0.143364	-0.0802468	0.06358	-0.082016	0.0737467	0.501393	-0.309205	0.321918	-0.181885	0.737894	-0.45436	0.154823	-0.078255	0.26982	-0.0568375	
0.650962	3.99628	0	0	0.367546	-0.211328	0.0334535	-0.127524	0.230197	-0.123829	0.015779	0.0168615	0.13265	-0.065031	0.719588	-0.160632	0.079438	-0.068261	1.05212	-0.658288	-0.104192	-0.135925	-0.0647715	0.051829	-0.077306	0.0690165	0.515979	-0.320381	0.329624	-0.18692	0.743702	-0.458155	0.168282	-0.08705	0.271419	-0.052934	
0.652672	3.99475	0	0	0.376131	-0.215298	0.0387342	-0.117708	0.236181	-0.126097	0.0319085	0.00795975	0.145688	-0.07191	0.730393	-0.134299	0.0849615	-0.058234	1.07044	-0.670262	-0.101242	-0.128487	-0.0492962	0.040078	-0.072596	0.0642863	0.530564	-0.331556	0.33733	-0.191955	0.74951	-0.46195	0.181742	-0.095845	0.273018	-0.0490305	
0.654175	3.99322	0	0	0.384717	-0.219269	0.044015	-0.107891	0.242165	-0.128365	0.048038	-0.000942	0.158726	-0.078789	0.741199	-0.107966	0.090485	-0.048207	1.08877	-0.682237	-0.098291	-0.121048	-0.033821	0.028327	-0.067886	0.059556	0.54515	-0.342731	0.345035	-0.19699	0.755318	-0.465745	0.195201	-0.10464	0.274617	-0.045127	
0.655411	3.99017	0	0	0.390949	-0.223341	0.0500645	-0.100214	0.242165	-0.128365	0.0586067	-0.007848	0.169021	-0.0838755	0.747175	-0.0749488	0.0883035	-0.0292095	1.10375	-0.690387	-0.103688	-0.105795	-0.0272055	0.0256435	-0.0599815	0.054391	0.558244	-0.349642	0.352747	-0.20203	0.760377	-0.467415	0.207929	-0.111319	0.277815	-0.0373093	
0.656408	3.98559	0	0	0.397181	-0.227413	0.056114	-0.0925365	0.242165	-0.128365	0.0691755	-0.014754	0.179316	-0.088962	0.753151	-0.0419315	0.086122	-0.010212	1.11873	-0.698537	-0.109085	-0.090542	-0.02059	0.02296	-0.052077	0.049226	0.571338	-0.356553	0.36046	-0.207069	0.765436	-0.469084	0.220656	-0.117998	0.281013	-0.0294915	
0.657316	3.97949	0	0	0.403414	-0.231486	0.0621635	-0.0848592	0.242165	-0.128365	0.0797443	-0.02166	0.189612	-0.0940485	0.759127	-0.00891425	0.0839405	0.0087855	1.13372	-0.706686	-0.114482	-0.075289	-0.0139745	0.0202765	-0.0441725	0.044061	0.584433	-0.363465	0.368173	-0.212109	0.770494	-0.470753	0.233383	-0.124677	0.284211	-0.0216737	
0.658299	3.97186	0	0	0.409646	-0.235558	0.068213	-0.077182	0.242165	-0.128365	0.090313	-0.028566	0.199907	-0.099135	0.765103	0.024103	0.081759	0.027783	1.1487	-0.714836	-0.119879	-0.060036	-0.007359	0.017593	-0.036268	0.038896	0.597527	-0.370376	0.375885	-0.217148	0.775553	-0.472423	0.246111	-0.131356	0.287409	-0.013856	
0.659517	3.96881	0	0	0.415883	-0.239633	0.0613477	-0.0660417	0.245536	-0.130568	0.0966608	-0.0327137	0.203427	-0.103076	0.760038	0.052701	0.0831667	0.0366447	1.15208	-0.718686	-0.123122	-0.0508718	-0.00490075	0.0159868	-0.0330735	0.0384613	0.605848	-0.375813	0.383605	-0.222192	0.781369	-0.476223	0.254963	-0.138777	0.289846	-0.0038715	
0.661133	3.96271	0	0	0.422119	-0.243708	0.0544825	-0.0549015	0.248908	-0.132771	0.103009	-0.0368615	0.206947	-0.107017	0.754973	0.081299	0.0845745	0.0455065	1.15546	-0.722537	-0.126364	-0.0417075	-0.0024425	0.0143805	-0.029879	0.0380265	0.61417	-0.381251	0.391324	-0.227236	0.787184	-0.480023	0.263815	-0.146199	0.292283	0.006113	
0.663214	3.96118	0	0	0.428356	-0.247784	0.0476172	-0.0437613	0.252279	-0.134974	0.109356	-0.0410093	0.210467	-0.110958	0.749908	0.109897	0.0859822	0.0543682	1.15884	-0.726387	-0.129607	-0.0325433	1.575E-05	0.0127743	-0.0266845	0.0375918	0.622491	-0.386688	0.399043	-0.23228	0.793	-0.483823	0.272667	-0.15362	0.294719	0.0160975	
0.665523	3.9566	0	0	0.434593	-0.251859	0.040752	-0.032621	0.255651	-0.137177	0.115704	-0.045157	0.213987	-0.114899	0.744843	0.138495	0.08739	0.06323	1.16223	-0.730237	-0.13285	-0.023379	0.002474	0.011168	-0.02349	0.037157	0.630812	-0.392126	0.406763	-0.237324	0.798816	-0.487623	0.281519	-0.161042	0.297156	0.026082	
0.667759	3.94745	0	0	0.44008	-0.253804	0.044526	-0.0267597	0.254895	-0.135041	0.121302	-0.047177	0.213232	-0.112765	0.742686	0.151738	0.080579	0.0696385	1.1596	-0.728521	-0.13285	-0.023379	1.575E-05	0.0127743	-0.0266845	0.0375918	0.625263	-0.3885	0.39829	-0.230151	0.789341	-0.479795	0.283467	-0.160677	0.286342	0.0397718	
0.669625	3.94287	0	0	0.445566	-0.25575	0.0483	-0.0208985	0.25414	-0.132904	0.1269	-0.049197	0.212477	-0.11063	0.740529	0.164981	0.073768	0.076047	1.15697	-0.726805	-0.13285	-0.023379	-0.0024425	0.0143805	-0.029879	0.0380265	0.619715	-0.384875	0.389817	-0.222978	0.779865	-0.471967	0.285415	-0.160312	0.275528	0.0534615	
0.670819	3.94745	0	0	0.451053	-0.257696	0.052074	-0.0150372	0.253384	-0.130768	0.132499	-0.051217	0.211722	-0.108496	0.738371	0.178223	0.066957	0.0824555	1.15435	-0.725089	-0.13285	-0.023379	-0.00490075	0.0159868	-0.0330735	0.0384613	0.614167	-0.38125	0.381345	-0.215805	0.77039	-0.46414	0.287362	-0.159948	0.264715	0.0671512	
0.671083	3.94287	0	0	0.45654	-0.259641	0.055848	-0.009176	0.252628	-0.128632	0.138097	-0.053237	0.210967	-0.106362	0.736214	0.191466	0.060146	0.088864	1.15172	-0.723373	-0.13285	-0.023379	-0.007359	0.017593	-0.036268	0.038896	0.608618	-0.377624	0.372872	-0.208632	0.760915	-0.456312	0.28931	-0.159583	0.253901	0.080841	
0.670559	3.93677	0	0	0.463541	-0.265855	0.0580878	0.00103575	0.253384	-0.130768	0.145208	-0.0595215	0.213733	-0.108169	0.735779	0.206994	0.0633507	0.0926473	1.14834	-0.719523	-0.125582	-0.028128	-0.0147288	0.0224085	-0.0409817	0.0436288	0.605845	-0.375812	0.365913	-0.205722	0.752955	-0.452747	0.283909	-0.156054	0.242267	0.088443	
0.669623	3.93066	0	0	0.470541	-0.272069	0.0603275	0.0112475	0.25414	-0.132904	0.152319	-0.065806	0.216498	-0.109977	0.735345	0.222523	0.0665555	0.0964305	1.14496	-0.715674	-0.118314	-0.032877	-0.0220985	0.027224	-0.0456955	0.0483615	0.603073	-0.374	0.358953	-0.202811	0.744995	-0.449182	0.278507	-0.152524	0.230632	0.096045	
0.668656	3.93371	0	0	0.477541	-0.278283	0.0625673	0.0214592	0.254895	-0.135041	0.15943	-0.0720905	0.219264	-0.111784	0.73491	0.238051	0.0697602	0.100214	1.14158	-0.711825	-0.111046	-0.037626	-0.0294683	0.0320395	-0.0504093	0.0530943	0.6003	-0.372188	0.351994	-0.199901	0.737034	-0.445617	0.273106	-0.148995	0.218998	0.103647	
0.668038	3.92914	0	0	0.484542	-0.284497	0.064807	0.031671	0.255651	-0.137177	0.166541	-0.078375	0.22203	-0.113591	0.734475	0.253579	0.072965	0.103997	1.1382	-0.707975	-0.103778	-0.042375	-0.036838	0.036855	-0.055123	0.057827	0.597527	-0.370376	0.345035	-0.19699	0.729074	-0.442052	0.267704	-0.145465	0.207364	0.111249	
0.668142	3.93371	0	0	0.484542	-0.284497	0.0632335	0.044394	0.252279	-0.134974	0.165787	-0.0762442	0.22203	-0.113591	0.733248	0.271359	0.072063	0.106547	1.13295	-0.704546	-0.103778	-0.042375	-0.0392933	0.0384593	-0.0543623	0.0556773	0.603831	-0.37614	0.340428	-0.192343	0.725418	-0.438027	0.270404	-0.14723	0.202727	0.115936	
0.669072	3.93219	0	0	0.484542	-0.284497	0.06166	0.057117	0.248908	-0.132771	0.165033	-0.0741135	0.22203	-0.113591	0.73202	0.289138	0.071161	0.109097	1.12771	-0.701117	-0.103778	-0.042375	-0.0417485	0.0400635	-0.0536015	0.0535275	0.610134	-0.381903	0.335821	-0.187696	0.721763	-0.434002	0.273104	-0.148994	0.19809	0.120623	
0.670539	3.93677	0	0	0.484542	-0.284497	0.0600865	0.06984	0.245536	-0.130568	0.16428	-0.0719827	0.22203	-0.113591	0.730793	0.306918	0.070259	0.111646	1.12246	-0.697688	-0.103778	-0.042375	-0.0442037	0.0416677	-0.0528407	0.0513777	0.616437	-0.387667	0.331214	-0.183048	0.718108	-0.429977	0.275805	-0.150758	0.193453	0.12531	
0.672224	3.93677	0	0	0.484542	-0.284497	0.058513	0.082563	0.242165	-0.128365	0.163526	-0.069852	0.22203	-0.113591	0.729566	0.324698	0.069357	0.114196	1.11721	-0.694259	-0.103778	-0.042375	-0.046659	0.043272	-0.05208	0.049228	0.622741	-0.393431	0.326607	-0.178401	0.714452	-0.425952	0.278505	-0.152523	0.188816	0.129997	
0.673806	3.94134	0	0	0.478296	-0.280416	0.0547038	0.085052	0.238794	-0.126163	0.159287	-0.0670825	0.210972	-0.106366	0.71405	0.339938	0.063447	0.118058	1.10149	-0.683984	-0.113209	-0.0315113	-0.0515675	0.0464792	-0.0528407	0.0513777	0.616437	-0.387667	0.326607	-0.178401	0.70865	-0.422161	0.278505	-0.152523	0.185764	0.138624	
0.674967	3.94592	0	0	0.47205	-0.276335	0.0508945	0.087541	0.235424	-0.123961	0.155049	-0.064313	0.199914	-0.09914	0.698534	0.355178	0.057537	0.12192	1.08576	-0.673709	-0.122641	-0.0206475	-0.056476	0.0496865	-0.0536015	0.0535275	0.610134	-0.381903	0.326607	-0.178401	0.702848	-0.41837	0.278505	-0.152523	0.182711	0.14725	
0.675454	3.94287	0	0	0.465805	-0.272253	0.0470853	0.09003	0.232053	-0.121758	0.15081	-0.0615435	0.188857	-0.0919145	0.683017	0.370418	0.051627	0.125781	1.07004	-0.663435	-0.132072	-0.00978375	-0.0613845	0.0528937	-0.0543623	0.0556773	0.603831	-0.37614	0.326607	-0.178401	0.697046	-0.414578	0.278505	-0.152523	0.179658	0.155877	
0.675317	3.93982	0	0	0.459559	-0.268172	0.043276	0.092519	0.228683	-0.119556	0.146571	-0.058774	0.177799	-0.084689	0.667501	0.385658	0.045717	0.129643	1.05431	-0.65316	-0.141504	0.00108	-0.066293	0.056101	-0.055123	0.057827	0.597527	-0.370376	0.326607	-0.178401	0.691244	-0.410787	0.278505	-0.152523	0.176606	0.164503	
0.674693	3.93829	0	0	0.457192	-0.268265	0.0379708	0.090971	0.21858	-0.112954	0.138854	-0.0553698	0.169515	-0.0792762	0.657327	0.378711	0.0384175	0.124617	1.04199	-0.646746	-0.138259	-0.0080905	-0.0785515	0.0641112	-0.0630238	0.0629895	0.583676	-0.361325	0.319658	-0.175498	0.678262	-0.405577	0.27116	-0.149361	0.165756	0.169934	
0.673718	3.93677	0	0	0.454825	-0.268358	0.0326655	0.089423	0.208477	-0.106353	0.131138	-0.0519655	0.161231	-0.0738635	0.647153	0.371763	0.031118	0.119591	1.02966	-0.640332	-0.135014	-0.017261	-0.09081	0.0721215	-0.0709245	0.068152	0.569824	-0.352275	0.312709	-0.172594	0.66528	-0.400367	0.263815	-0.146199	0.154907	0.175365	
0.672527	3.93066	0	0	0.452458	-0.26845	0.0273603	0.087875	0.198374	-0.0997515	0.123421	-0.0485613	0.152947	-0.0684508	0.636978	0.364816	0.0238185	0.114565	1.01733	-0.633919	-0.13177	-0.0264315	-0.103069	0.0801318	-0.0788252	0.0733145	0.555973	-0.343225	0.305761	-0.16969	0.652299	-0.395157	0.25647	-0.143036	0.144057	0.180796	
0.671257	3.92609	0	0	0.450091	-0.268543	0.022055	0.086327	0.188271	-0.09315	0.115704	-0.045157	0.144663	-0.063038	0.626804	0.357868	0.016519	0.109539	1.005	-0.627505	-0.128525	-0.035602	-0.115327	0.088142	-0.086726	0.078477	0.542122	-0.334174	0.298812	-0.166787	0.639317	-0.389947	0.249125	-0.139874	0.133207	0.186227	
0.670059	3.91998	0	0	0.449337	-0.266411	0.015943	0.0953352	0.18415	-0.088815	0.112834	-0.0416432	0.139145	-0.0594322	0.619303	0.357678	0.0183208	0.104447	0.993799	-0.618542	-0.133625	-0.0369655	-0.12192	0.0908102	-0.093859	0.0814853	0.531057	-0.326944	0.29187	-0.163887	0.624853	-0.380497	0.241034	-0.134587	0.123136	0.189492	
0.669095	3.91083	0	0	0.448582	-0.264278	0.009831	0.104344	0.180029	-0.08448	0.109963	-0.0381295	0.133627	-0.0558265	0.611803	0.357488	0.0201225	0.0993555	0.982593	-0.609579	-0.138726	-0.038329	-0.128512	0.0934785	-0.100992	0.0844935	0.519992	-0.319714	0.284928	-0.160988	0.61039	-0.371046	0.232943	-0.1293	0.113064	0.192756	
0.668529	3.9032	0	0	0.447828	-0.262146	0.003719	0.113352	0.175908	-0.080145	0.107093	-0.0346158	0.128109	-0.0522207	0.604302	0.357297	0.0219242	0.0942638	0.971387	-0.600616	-0.143826	-0.0396925	-0.135104	0.0961468	-0.108125	0.0875017	0.508928	-0.312484	0.277986	-0.158088	0.595927	-0.361595	0.224852	-0.124014	0.102993	0.196021	
0.668523	3.90167	0	0	0.447074	-0.260014	-0.002393	0.12236	0.171787	-0.07581	0.104223	-0.031102	0.122591	-0.048615	0.596801	0.357107	0.023726	0.089172	0.960181	-0.591653	-0.148926	-0.041056	-0.141697	0.098815	-0.115258	0.09051	0.497863	-0.305254	0.271044	-0.155189	0.581463	-0.352145	0.216761	-0.118727	0.092922	0.199286	
0.669238	3.89709	0	0	0.437717	-0.2539	-0.009996	0.127328	0.165817	-0.0735512	0.0936488	-0.0241927	0.117076	-0.0450118	0.591025	0.359185	0.0246263	0.0866275	0.955715	-0.590376	-0.140584	-0.0488538	-0.145083	0.0977502	-0.112977	0.0840642	0.494606	-0.308059	0.266446	-0.150548	0.57782	-0.348129	0.213312	-0.114836	0.0913957	0.203599	
0.670713	3.89099	0	0	0.42836	-0.247786	-0.017599	0.132296	0.159847	-0.0712925	0.0830745	-0.0172835	0.111562	-0.0414085	0.58525	0.361262	0.0255265	0.084083	0.951249	-0.589098	-0.132242	-0.0566515	-0.148469	0.0966855	-0.110697	0.0776185	0.491349	-0.310864	0.261848	-0.145907	0.574178	-0.344112	0.209863	-0.110946	0.0898695	0.207913	
0.672733	3.89404	0	0	0.419003	-0.241672	-0.025202	0.137264	0.153877	-0.0690338	0.0725003	-0.0103742	0.106047	-0.0378052	0.579475	0.363339	0.0264267	0.0815385	0.946784	-0.587821	-0.123901	-0.0644493	-0.151855	0.0956208	-0.108416	0.0711728	0.488093	-0.313669	0.257249	-0.141266	0.570535	-0.340095	0.206414	-0.107055	0.0883433	0.212226	
0.67505	3.89404	0	0	0.409646	-0.235558	-0.032805	0.142232	0.147907	-0.066775	0.061926	-0.003465	0.100532	-0.034202	0.573699	0.365417	0.027327	0.078994	0.942318	-0.586544	-0.115559	-0.072247	-0.155241	0.094556	-0.106135	0.064727	0.484836	-0.316474	0.252651	-0.136625	0.566892	-0.336079	0.202965	-0.103164	0.086817	0.216539	
0.67742	3.89557	0	0	0.4003	-0.229451	-0.0441452	0.141286	0.137828	-0.0601887	0.047144	0.00619375	0.086761	-0.0252038	0.55796	0.367225	0.024129	0.075218	0.931886	-0.579727	-0.11772	-0.0661405	-0.155995	0.0966873	-0.110839	0.0694523	0.480561	-0.310392	0.256496	-0.139137	0.566892	-0.336079	0.206414	-0.107055	0.08529	0.220854	
0.679595	3.89557	0	0	0.390953	-0.223344	-0.0554855	0.140341	0.127748	-0.0536025	0.032362	0.0158525	0.07299	-0.0162055	0.542222	0.369034	0.020931	0.071442	0.921455	-0.572911	-0.11988	-0.060034	-0.156749	0.0988185	-0.115543	0.0741775	0.476285	-0.30431	0.260341	-0.141649	0.566892	-0.336079	0.209863	-0.110946	0.083763	0.22517	
0.681343	3.89099	0	0	0.381606	-0.217236	-0.0668258	0.139396	0.117669	-0.0470163	0.01758	0.0255113	0.059219	-0.00720725	0.526483	0.370843	0.017733	0.067666	0.911023	-0.566095	-0.12204	-0.0539275	-0.157503	0.10095	-0.120248	0.0789027	0.472009	-0.298228	0.264186	-0.144162	0.566892	-0.336079	0.213312	-0.114836	0.082236	0.229485	
0.68254	3.88794	0	0	0.37226	-0.211129	-0.078166	0.13845	0.107589	-0.04043	0.002798	0.03517	0.045448	0.001791	0.510745	0.372651	0.014535	0.06389	0.900591	-0.559278	-0.124201	-0.047821	-0.158257	0.103081	-0.124952	0.083628	0.467734	-0.292146	0.268031	-0.146674	0.566892	-0.336079	0.216761	-0.118727	0.080709	0.2338	
0.683109	3.88641	0	0	0.366034	-0.207061	-0.0872327	0.139366	0.100876	-0.0360437	-0.00563725	0.040682	0.0344472	0.00897925	0.499088	0.370112	0.0122372	0.0575782	0.894625	-0.553739	-0.12204	-0.0539275	-0.163903	0.108409	-0.130415	0.0905017	0.455937	-0.282793	0.252661	-0.136631	0.553211	-0.328775	0.203293	-0.109926	0.066797	0.239573	
0.682974	3.88336	0	0	0.359809	-0.202993	-0.0962995	0.140282	0.094163	-0.0316575	-0.0140725	0.046194	0.0234465	0.0161675	0.487431	0.367572	0.0099395	0.0512665	0.888658	-0.548199	-0.11988	-0.060034	-0.169548	0.113737	-0.135878	0.0973755	0.44414	-0.27344	0.237292	-0.126588	0.53953	-0.321472	0.189825	-0.101126	0.052885	0.245346	
0.68206	3.87726	0	0	0.353583	-0.198926	-0.105366	0.141197	0.08745	-0.0272713	-0.0225077	0.051706	0.0124458	0.0233558	0.475774	0.365032	0.00764175	0.0449548	0.882691	-0.54266	-0.11772	-0.0661405	-0.175194	0.119064	-0.141341	0.104249	0.432344	-0.264087	0.221922	-0.116546	0.525849	-0.314169	0.176356	-0.0923255	0.038973	0.251119	
0.680293	3.8681	0	0	0.347358	-0.194858	-0.114433	0.142113	0.080737	-0.022885	-0.030943	0.057218	0.001445	0.030544	0.464117	0.362493	0.005344	0.038643	0.876725	-0.537121	-0.115559	-0.072247	-0.18084	0.124392	-0.146804	0.111123	0.420547	-0.254734	0.206553	-0.106503	0.512168	-0.306865	0.162888	-0.083525	0.025061	0.256892	
0.67778	3.86352	0	0	0.338783	-0.190894	-0.117452	0.142417	0.0740295	-0.018502	-0.0351575	0.0599717	-0.003295	0.0320005	0.45589	0.364487	0.00125075	0.0374142	0.87748	-0.539255	-0.120662	-0.0736043	-0.183285	0.12599	-0.149984	0.111548	0.413033	-0.251469	0.199631	-0.103617	0.503519	-0.301214	0.154817	-0.0782515	0.0204037	0.253305	
0.674896	3.86047	0	0	0.330207	-0.186929	-0.120472	0.142722	0.067322	-0.014119	-0.039372	0.0627255	-0.008035	0.033457	0.447662	0.36648	-0.0028425	0.0361855	0.878235	-0.541389	-0.125764	-0.0749615	-0.185729	0.127587	-0.153164	0.111974	0.40552	-0.248204	0.19271	-0.100731	0.49487	-0.295563	0.146747	-0.072978	0.0157465	0.249718	
0.67204	3.85589	0	0	0.321632	-0.182965	-0.123491	0.143026	0.0606145	-0.009736	-0.0435865	0.0654793	-0.012775	0.0349135	0.439435	0.368474	-0.00693575	0.0349568	0.878991	-0.543524	-0.130866	-0.0763187	-0.188174	0.129185	-0.156344	0.112399	0.398006	-0.244939	0.185788	-0.0978442	0.486221	-0.289911	0.138676	-0.0677045	0.0110893	0.24613	
0.669608	3.85284	0	0	0.313057	-0.179001	-0.12651	0.14333	0.053907	-0.005353	-0.047801	0.068233	-0.017515	0.03637	0.431207	0.370468	-0.011029	0.033728	0.879746	-0.545658	-0.135969	-0.077676	-0.190619	0.130782	-0.159524	0.112825	0.390492	-0.241674	0.178867	-0.094958	0.477572	-0.28426	0.130605	-0.062431	0.006432	0.242543	
0.668	3.84827	0	0	0.306843	-0.17494	-0.133311	0.146106	0.0472045	-0.0009735	-0.056224	0.0737368	-0.0210165	0.0402988	0.428872	0.377068	-0.011029	0.033728	0.882351	-0.54736	-0.129787	-0.0793703	-0.190619	0.130782	-0.163463	0.115399	0.390492	-0.241674	0.174279	-0.0903238	0.476819	-0.282132	0.125229	-0.058918	0.0018175	0.247215	
0.667482	3.84064	0	0	0.300628	-0.17088	-0.140113	0.148882	0.040502	0.003406	-0.064647	0.0792405	-0.024518	0.0442275	0.426536	0.383668	-0.011029	0.033728	0.884957	-0.549063	-0.123605	-0.0810645	-0.190619	0.130782	-0.167401	0.117972	0.390492	-0.241674	0.169691	-0.0856895	0.476066	-0.280004	0.119853	-0.055405	-0.002797	0.251888	
0.667803	3.83453	0	0	0.294414	-0.166819	-0.146915	0.151658	0.0337995	0.0077855	-0.07307	0.0847442	-0.0280195	0.0481562	0.424201	0.390267	-0.011029	0.033728	0.887562	-0.550765	-0.117422	-0.0827587	-0.190619	0.130782	-0.171339	0.120546	0.390492	-0.241674	0.165104	-0.0810552	0.475313	-0.277876	0.114476	-0.051892	-0.0074115	0.25656	
0.668577	3.82538	0	0	0.2882	-0.162759	-0.153716	0.154434	0.027097	0.012165	-0.081493	0.090248	-0.031521	0.052085	0.421866	0.396867	-0.011029	0.033728	0.890167	-0.552467	-0.11124	-0.084453	-0.190619	0.130782	-0.175278	0.12312	0.390492	-0.241674	0.160516	-0.076421	0.47456	-0.275748	0.1091	-0.048379	-0.012026	0.261232	
0.669424	3.82538	0	0	0.278887	-0.156674	-0.164999	0.153471	0.017053	0.018728	-0.09201	0.0971202	-0.041742	0.0571227	0.410253	0.394312	-0.0133247	0.0274283	0.887562	-0.550765	-0.110161	-0.0875038	-0.193063	0.132379	-0.175278	0.12312	0.382229	-0.236275	0.156683	-0.0739165	0.471679	-0.273865	0.106413	-0.0466235	-0.0158763	0.263748	
0.669958	3.82538	0	0	0.269574	-0.150589	-0.176281	0.152508	0.007009	0.025291	-0.102527	0.103992	-0.051963	0.0621605	0.39864	0.391756	-0.0156205	0.0211285	0.884957	-0.549063	-0.109081	-0.0905545	-0.195507	0.133976	-0.175278	0.12312	0.373967	-0.230876	0.15285	-0.071412	0.468798	-0.271983	0.103726	-0.044868	-0.0197265	0.266263	
0.669824	3.81622	0	0	0.260262	-0.144504	-0.187564	0.151545	-0.003035	0.031854	-0.113044	0.110865	-0.062184	0.0671983	0.387026	0.389201	-0.0179163	0.0148288	0.882351	-0.54736	-0.108002	-0.0936053	-0.197951	0.135573	-0.175278	0.12312	0.365704	-0.225477	0.149017	-0.0689075	0.465917	-0.270101	0.10104	-0.0431125	-0.0235768	0.268779	
0.669013	3.81317	0	0	0.250949	-0.138419	-0.198847	0.150582	-0.013079	0.038417	-0.123561	0.117737	-0.072405	0.072236	0.375413	0.386645	-0.020212	0.008529	0.879746	-0.545658	-0.106922	-0.096656	-0.200395	0.13717	-0.175278	0.12312	0.357442	-0.220078	0.145184	-0.066403	0.463036	-0.268218	0.098353	-0.041357	-0.027427	0.271295	
0.667754	3.81164	0	0	0.240892	-0.130208	-0.204863	0.151182	-0.0197683	0.042788	-0.127764	0.120483	-0.077888	0.0758187	0.367072	0.381966	-0.021612	-0.0002935	0.874538	-0.542255	-0.10987	-0.104103	-0.210164	0.143554	-0.187083	0.130833	0.346437	-0.212888	0.137523	-0.0613973	0.454399	-0.262574	0.0849312	-0.0325867	-0.0328347	0.269859	
0.666285	3.80859	0	0	0.230834	-0.121997	-0.210879	0.151782	-0.0264575	0.047159	-0.131968	0.123229	-0.083371	0.0794015	0.358731	0.377288	-0.023012	-0.009116	0.86933	-0.538852	-0.112818	-0.11155	-0.219934	0.149937	-0.198888	0.138547	0.335433	-0.205697	0.129862	-0.0563915	0.445762	-0.256931	0.0715095	-0.0238165	-0.0382425	0.268423	
0.66484	3.80401	0	0	0.220777	-0.113787	-0.216896	0.152382	-0.0331468	0.05153	-0.136171	0.125976	-0.088854	0.0829843	0.350389	0.37261	-0.024412	-0.0179385	0.864122	-0.535449	-0.115765	-0.118997	-0.229703	0.15632	-0.210694	0.14626	0.324429	-0.198507	0.122201	-0.0513858	0.437124	-0.251287	0.0580877	-0.0150462	-0.0436503	0.266986	
0.663653	3.80249	0	0	0.21072	-0.105576	-0.222912	0.152982	-0.039836	0.055901	-0.140374	0.128722	-0.094337	0.086567	0.342048	0.367931	-0.025812	-0.026761	0.858914	-0.532046	-0.118713	-0.126444	-0.239472	0.162704	-0.222499	0.153974	0.313424	-0.191316	0.11454	-0.04638	0.428487	-0.245643	0.044666	-0.006276	-0.049058	0.26555	
0.662858	3.79791	0	0	0.208376	-0.105683	-0.228923	0.15358	-0.0457645	0.0581327	-0.141721	0.127964	-0.0998162	0.0901473	0.337106	0.367787	-0.0240213	-0.0318222	0.858914	-0.532046	-0.121661	-0.133878	-0.246791	0.167487	-0.227191	0.158692	0.302434	-0.184135	0.106886	-0.0413787	0.417737	-0.240255	0.0339437	0.00073	-0.0575407	0.264472	
0.662433	3.79333	0	0	0.206031	-0.105791	-0.234933	0.154177	-0.051693	0.0603645	-0.143068	0.127207	-0.105296	0.0937275	0.332164	0.367643	-0.0222305	-0.0368835	0.858914	-0.532046	-0.124608	-0.141313	-0.254111	0.172269	-0.231882	0.16341	0.291443	-0.176954	0.0992325	-0.0363775	0.406988	-0.234867	0.0232215	0.007736	-0.0660235	0.263394	
0.662341	3.79028	0	0	0.203687	-0.105898	-0.240944	0.154775	-0.0576215	0.0625962	-0.144415	0.126449	-0.110775	0.0973077	0.327222	0.367499	-0.0204397	-0.0419448	0.858914	-0.532046	-0.127556	-0.148747	-0.261431	0.177052	-0.236574	0.168128	0.280453	-0.169772	0.0915788	-0.0313762	0.396238	-0.229478	0.0124993	0.014742	-0.0745062	0.262316	
0.662547	3.7857	0	0	0.201343	-0.106005	-0.246954	0.155372	-0.06355	0.064828	-0.145762	0.125691	-0.116254	0.100888	0.32228	0.367355	-0.018649	-0.047006	0.858914	-0.532046	-0.130503	-0.156181	-0.26875	0.181835	-0.241266	0.172846	0.269463	-0.162591	0.083925	-0.026375	0.385488	-0.22409	0.001777	0.021748	-0.082989	0.261238	
0.663014	3.78418	0	0	0.194394	-0.0998258	-0.25749	0.160592	-0.0709847	0.071328	-0.152815	0.131938	-0.120975	0.102333	0.315014	0.373789	-0.0254217	-0.040635	0.853709	-0.528645	-0.129427	-0.159222	-0.273626	0.185021	-0.240506	0.170697	0.269463	-0.162591	0.0801005	-0.023876	0.385488	-0.22409	-0.0009015	0.0234982	-0.0868287	0.263747	
0.663696	3.77807	0	0	0.187446	-0.0936465	-0.268026	0.165813	-0.0784195	0.077828	-0.159868	0.138184	-0.125696	0.103777	0.307749	0.380223	-0.0321945	-0.034264	0.848504	-0.525244	-0.128351	-0.162264	-0.278502	0.188207	-0.239745	0.168548	0.269463	-0.162591	0.076276	-0.021377	0.385488	-0.22409	-0.00358	0.0252485	-0.0906685	0.266256	
0.66451	3.77807	0	0	0.180498	-0.0874672	-0.278561	0.171033	-0.0858542	0.084328	-0.166922	0.144431	-0.130417	0.105221	0.300484	0.386656	-0.0389673	-0.027893	0.843299	-0.521843	-0.127274	-0.165305	-0.283379	0.191394	-0.238984	0.166399	0.269463	-0.162591	0.0724515	-0.018878	0.385488	-0.22409	-0.0062585	0.0269988	-0.0945083	0.268765	
0.665365	3.77197	0	0	0.173549	-0.081288	-0.289097	0.176253	-0.093289	0.090828	-0.173975	0.150678	-0.135138	0.106666	0.293218	0.39309	-0.04574	-0.021522	0.838094	-0.518442	-0.126198	-0.168346	-0.288255	0.19458	-0.238224	0.16425	0.269463	-0.162591	0.068627	-0.016379	0.385488	-0.22409	-0.008937	0.028749	-0.098348	0.271274	
0.666171	3.7735	0	0	0.16736	-0.0772435	-0.295092	0.176843	-0.104053	0.099504	-0.182367	0.156162	-0.146834	0.115949	0.280895	0.392715	-0.0498232	-0.022744	0.827694	-0.511646	-0.131297	-0.169688	-0.300434	0.202538	-0.242154	0.166818	0.26123	-0.157211	0.0701332	-0.0206358	0.39199	-0.229974	-0.00550525	0.0248697	-0.0952698	0.270917	
0.666836	3.76739	0	0	0.16117	-0.073199	-0.301087	0.177433	-0.114818	0.10818	-0.190759	0.161645	-0.15853	0.125231	0.268571	0.39234	-0.0539065	-0.023966	0.817294	-0.50485	-0.136395	-0.171031	-0.312612	0.210495	-0.246083	0.169386	0.252996	-0.151831	0.0716395	-0.0248925	0.398493	-0.235859	-0.0020735	0.0209905	-0.0921915	0.27056	
0.66728	3.77045	0	0	0.154981	-0.0691545	-0.307082	0.178023	-0.125582	0.116856	-0.199151	0.167128	-0.170226	0.134514	0.256248	0.391964	-0.0579898	-0.025188	0.806893	-0.498055	-0.141493	-0.172374	-0.32479	0.218452	-0.250013	0.171953	0.244762	-0.146451	0.0731457	-0.0291492	0.404995	-0.241744	0.00135825	0.0171113	-0.0891133	0.270204	
0.66755	3.76587	0	0	0.148792	-0.06511	-0.313077	0.178613	-0.136347	0.125532	-0.207543	0.172612	-0.181922	0.143797	0.243925	0.391589	-0.062073	-0.02641	0.796493	-0.491259	-0.146592	-0.173716	-0.336969	0.22641	-0.253943	0.174521	0.236529	-0.141071	0.074652	-0.033406	0.411497	-0.247628	0.00479	0.013232	-0.086035	0.269847	
0.667766	3.76129	0	0	0.145699	-0.063089	-0.312311	0.17645	-0.135591	0.123396	-0.211736	0.175352	-0.1839	0.143449	0.240553	0.387059	-0.0602838	-0.031467	0.793895	-0.489561	-0.144442	-0.179791	-0.347454	0.2349	-0.258631	0.179237	0.227546	-0.133557	0.074652	-0.033406	0.408622	-0.245749	-0.000566	0.0167318	-0.0898748	0.272356	
0.668049	3.76129	0	0	0.142605	-0.061068	-0.311546	0.174287	-0.134835	0.121259	-0.215929	0.178092	-0.185879	0.143101	0.23718	0.382528	-0.0584945	-0.036524	0.791297	-0.487864	-0.142292	-0.185866	-0.357939	0.243391	-0.263319	0.183952	0.218563	-0.126043	0.074652	-0.033406	0.405747	-0.24387	-0.005922	0.0202315	-0.0937145	0.274865	
0.668522	3.76129	0	0	0.139512	-0.059047	-0.310781	0.172123	-0.13408	0.119123	-0.220122	0.180831	-0.187857	0.142754	0.233808	0.377997	-0.0567052	-0.041581	0.788698	-0.486166	-0.140143	-0.191942	-0.368424	0.251881	-0.268008	0.188667	0.209581	-0.118529	0.074652	-0.033406	0.402872	-0.241992	-0.011278	0.0237313	-0.0975542	0.277374	
0.669303	3.75824	0	0	0.136419	-0.057026	-0.310015	0.16996	-0.133324	0.116987	-0.224315	0.183571	-0.189835	0.142406	0.230435	0.373467	-0.054916	-0.046638	0.7861	-0.484468	-0.137993	-0.198017	-0.378909	0.260371	-0.272696	0.193383	0.200598	-0.111015	0.074652	-0.033406	0.399997	-0.240113	-0.016634	0.027231	-0.101394	0.279883	
0.670349	3.75519	0	0	0.139512	-0.059047	-0.310781	0.172123	-0.136657	0.119165	-0.222219	0.182201	-0.189835	0.142406	0.22811	0.380036	-0.0490425	-0.050476	0.786855	-0.486602	-0.142014	-0.202389	-0.383016	0.261415	-0.275861	0.193799	0.201355	-0.113154	0.0708292	-0.0309082	0.399997	-0.240113	-0.016634	0.027231	-0.0975542	0.277374	
0.671364	3.75213	0	0	0.142605	-0.061068	-0.311546	0.174287	-0.139991	0.121343	-0.220122	0.180832	-0.189835	0.142406	0.225786	0.386605	-0.043169	-0.054314	0.78761	-0.488735	-0.146036	-0.206761	-0.387122	0.26246	-0.279027	0.194215	0.202112	-0.115293	0.0670065	-0.0284105	0.399997	-0.240113	-0.016634	0.027231	-0.0937145	0.274865	
0.672031	3.74603	0	0	0.145699	-0.063089	-0.312311	0.17645	-0.143325	0.123522	-0.218026	0.179462	-0.189835	0.142406	0.223462	0.393174	-0.0372955	-0.058152	0.788365	-0.490869	-0.150058	-0.211133	-0.391228	0.263504	-0.282193	0.194632	0.202869	-0.117433	0.0631837	-0.0259127	0.399997	-0.240113	-0.016634	0.027231	-0.0898748	0.272356	
0.672032	3.74603	0	0	0.148792	-0.06511	-0.313077	0.178613	-0.146658	0.1257	-0.21593	0.178092	-0.189835	0.142406	0.221137	0.399743	-0.031422	-0.06199	0.78912	-0.493003	-0.154079	-0.215505	-0.395335	0.264548	-0.285358	0.195048	0.203626	-0.119572	0.059361	-0.023415	0.399997	-0.240113	-0.016634	0.027231	-0.086035	0.269847	
0.671051	3.74145	0	0	0.145699	-0.063089	-0.318369	0.185398	-0.14999	0.127878	-0.21593	0.178092	-0.193322	0.146325	0.221403	0.413055	-0.0332112	-0.056933	0.790963	-0.492567	-0.155153	-0.212471	-0.393659	0.265092	-0.282953	0.196781	0.20561	-0.119224	0.0624307	-0.0237848	0.410751	-0.245504	-0.011278	0.0237313	-0.0852415	0.275951	
0.668884	3.73688	0	0	0.142605	-0.061068	-0.323661	0.192183	-0.153323	0.130055	-0.21593	0.178092	-0.196809	0.150244	0.221668	0.426367	-0.0350005	-0.051876	0.792806	-0.492131	-0.156226	-0.209437	-0.391983	0.265636	-0.280548	0.198515	0.207594	-0.118875	0.0655005	-0.0241545	0.421505	-0.250895	-0.005922	0.0202315	-0.084448	0.282054	
0.66583	3.7323	0	0	0.139512	-0.059047	-0.328953	0.198968	-0.156656	0.132233	-0.21593	0.178092	-0.200297	0.154163	0.221934	0.439679	-0.0367898	-0.046819	0.79465	-0.491695	-0.1573	-0.206403	-0.390308	0.266181	-0.278143	0.200248	0.209578	-0.118527	0.0685702	-0.0245242	0.432258	-0.256286	-0.000566	0.0167318	-0.0836545	0.288158	
0.662326	3.73077	0	0	0.136419	-0.057026	-0.334245	0.205753	-0.159988	0.13441	-0.21593	0.178092	-0.203784	0.158082	0.222199	0.452991	-0.038579	-0.041762	0.796493	-0.491259	-0.158374	-0.203369	-0.388632	0.266725	-0.275738	0.201982	0.211562	-0.118179	0.07164	-0.024894	0.443012	-0.261677	0.00479	0.013232	-0.082861	0.294262	
0.658808	3.73077	0	0	0.136419	-0.057026	-0.335011	0.207918	-0.159988	0.13441	-0.21593	0.178092	-0.206515	0.159867	0.218186	0.457301	-0.038579	-0.041762	0.793895	-0.489561	-0.161597	-0.194261	-0.393492	0.2699	-0.275738	0.201982	0.214304	-0.119971	0.0754642	-0.0273928	0.455287	-0.271334	0.0128305	0.00797825	-0.0789867	0.300018	
0.655712	3.72314	0	0	0.136419	-0.057026	-0.335777	0.210083	-0.159988	0.13441	-0.21593	0.178092	-0.209247	0.161652	0.214172	0.461611	-0.038579	-0.041762	0.791297	-0.487864	-0.16482	-0.185152	-0.398351	0.273076	-0.275738	0.201982	0.217046	-0.121762	0.0792885	-0.0298915	0.467562	-0.28099	0.020871	0.0027245	-0.0751125	0.305773	
0.653433	3.7262	0	0	0.136419	-0.057026	-0.336543	0.212247	-0.159988	0.13441	-0.21593	0.178092	-0.211979	0.163436	0.210159	0.465921	-0.038579	-0.041762	0.788698	-0.486166	-0.168042	-0.176044	-0.403211	0.276251	-0.275738	0.201982	0.219788	-0.123554	0.0831127	-0.0323903	0.479837	-0.290646	0.0289115	-0.00252925	-0.0712383	0.311528	
0.651965	3.72162	0	0	0.136419	-0.057026	-0.337309	0.214412	-0.159988	0.13441	-0.21593	0.178092	-0.21471	0.165221	0.206146	0.470231	-0.038579	-0.041762	0.7861	-0.484468	-0.171265	-0.166936	-0.408071	0.279426	-0.275738	0.201982	0.22253	-0.125345	0.086937	-0.034889	0.492112	-0.300303	0.036952	-0.007783	-0.067364	0.317284	
0.651087	3.71857	0	0	0.136419	-0.057026	-0.341068	0.216868	-0.163319	0.136586	-0.211736	0.175352	-0.219415	0.166655	0.205369	0.472427	-0.0376843	-0.0442908	0.7861	-0.484468	-0.176353	-0.16828	-0.405641	0.277838	-0.282828	0.204962	0.22253	-0.125345	0.086937	-0.034889	0.492112	-0.300303	0.034271	-0.00603125	-0.0681273	0.319441	
0.650572	3.71399	0	0	0.136419	-0.057026	-0.344827	0.219324	-0.16665	0.138763	-0.207542	0.172612	-0.22412	0.168089	0.204592	0.474622	-0.0367895	-0.0468195	0.7861	-0.484468	-0.181442	-0.169625	-0.403212	0.276251	-0.289917	0.207942	0.22253	-0.125345	0.086937	-0.034889	0.492112	-0.300303	0.03159	-0.0042795	-0.0688905	0.321599	
0.650194	3.71246	0	0	0.136419	-0.057026	-0.348586	0.221781	-0.169981	0.140939	-0.203348	0.169871	-0.228825	0.169523	0.203815	0.476818	-0.0358948	-0.0493482	0.7861	-0.484468	-0.18653	-0.170969	-0.400783	0.274664	-0.297007	0.210921	0.22253	-0.125345	0.086937	-0.034889	0.492112	-0.300303	0.028909	-0.00252775	-0.0696537	0.323757	
0.649739	3.71246	0	0	0.136419	-0.057026	-0.352345	0.224237	-0.173312	0.143116	-0.199154	0.167131	-0.23353	0.170957	0.203038	0.479013	-0.035	-0.051877	0.7861	-0.484468	-0.191618	-0.172313	-0.398353	0.273076	-0.304097	0.213901	0.22253	-0.125345	0.086937	-0.034889	0.492112	-0.300303	0.026228	-0.000776	-0.070417	0.325914	
0.649163	3.70788	0	0	0.139512	-0.059047	-0.355411	0.232901	-0.169981	0.140939	-0.192859	0.163018	-0.231555	0.171307	0.207308	0.48805	-0.0367898	-0.0468187	0.791297	-0.487864	-0.191618	-0.172313	-0.398353	0.273076	-0.304097	0.213901	0.22253	-0.125345	0.086937	-0.034889	0.491359	-0.298175	0.0235477	0.00097525	-0.0665702	0.3234	
0.648586	3.70331	0	0	0.142605	-0.061068	-0.358476	0.241565	-0.16665	0.138763	-0.186564	0.158905	-0.229581	0.171658	0.211579	0.497087	-0.0385795	-0.0417605	0.796494	-0.49126	-0.191618	-0.172313	-0.398353	0.273076	-0.304097	0.213901	0.22253	-0.125345	0.086937	-0.034889	0.490606	-0.296048	0.0208675	0.0027265	-0.0627235	0.320887	
0.648134	3.70026	0	0	0.145699	-0.063089	-0.361542	0.25023	-0.163319	0.136586	-0.18027	0.154791	-0.227606	0.172008	0.215849	0.506124	-0.0403693	-0.0367022	0.801691	-0.494655	-0.191618	-0.172313	-0.398353	0.273076	-0.304097	0.213901	0.22253	-0.125345	0.086937	-0.034889	0.489853	-0.293921	0.0181873	0.00447775	-0.0588767	0.318373	
0.647934	3.69415	0	0	0.148792	-0.06511	-0.364608	0.258894	-0.159988	0.13441	-0.173975	0.150678	-0.225632	0.172358	0.220119	0.515161	-0.042159	-0.031644	0.806888	-0.498051	-0.191618	-0.172313	-0.398353	0.273076	-0.304097	0.213901	0.22253	-0.125345	0.086937	-0.034889	0.4891	-0.291793	0.015507	0.006229	-0.05503	0.31586	
0.64811	3.68957	0	0	0.148792	-0.06511	-0.366909	0.265398	-0.163319	0.136586	-0.165575	0.145189	-0.225632	0.172358	0.225295	0.52871	-0.0448458	-0.024051	0.809488	-0.49975	-0.194842	-0.163202	-0.393492	0.2699	-0.300173	0.211337	0.228016	-0.12893	0.0907633	-0.0373892	0.500638	-0.299332	0.020115	0.004855	-0.0496228	0.317305	
0.648699	3.69568	0	0	0.148792	-0.06511	-0.36921	0.271901	-0.16665	0.138763	-0.157174	0.1397	-0.225632	0.172358	0.230471	0.54226	-0.0475325	-0.016458	0.812088	-0.501448	-0.198066	-0.15409	-0.388631	0.266724	-0.296249	0.208772	0.233503	-0.132515	0.0945895	-0.0398895	0.512176	-0.306871	0.024723	0.003481	-0.0442155	0.31875	
0.649603	3.68957	0	0	0.148792	-0.06511	-0.371512	0.278404	-0.169981	0.140939	-0.148774	0.134211	-0.225632	0.172358	0.235648	0.555809	-0.0502193	-0.008865	0.814687	-0.503147	-0.20129	-0.144979	-0.38377	0.263547	-0.292324	0.206208	0.238989	-0.1361	0.0984157	-0.0423898	0.523713	-0.314409	0.029331	0.002107	-0.0388083	0.320194	
0.650717	3.68805	0	0	0.148792	-0.06511	-0.373813	0.284908	-0.173312	0.143116	-0.140374	0.128722	-0.225632	0.172358	0.240824	0.569359	-0.052906	-0.001272	0.817287	-0.504846	-0.204514	-0.135868	-0.378909	0.260371	-0.2884	0.203644	0.244475	-0.139685	0.102242	-0.04489	0.535251	-0.321948	0.033939	0.000733	-0.033401	0.321639	
0.651932	3.69263	0	0	0.149546	-0.0672423	-0.373813	0.284908	-0.173312	0.143116	-0.140374	0.128722	-0.227606	0.172008	0.235357	0.584808	-0.0546983	0.00379375	0.818042	-0.50698	-0.208817	-0.123705	-0.370858	0.253471	-0.283714	0.19893	0.253468	-0.147206	0.109146	-0.0477648	0.546804	-0.329497	0.0419867	-0.00452575	-0.0318135	0.333895	
0.653141	3.68652	0	0	0.150301	-0.0693745	-0.373813	0.284908	-0.173312	0.143116	-0.140374	0.128722	-0.229581	0.171658	0.229891	0.600257	-0.0564905	0.0088595	0.818797	-0.509113	-0.213121	-0.111542	-0.362807	0.246571	-0.279027	0.194215	0.262462	-0.154727	0.116051	-0.0506395	0.558357	-0.337047	0.0500345	-0.0097845	-0.030226	0.346151	
0.654273	3.67889	0	0	0.151055	-0.0715067	-0.373813	0.284908	-0.173312	0.143116	-0.140374	0.128722	-0.231555	0.171307	0.224425	0.615706	-0.0582828	0.0139252	0.819552	-0.511247	-0.217425	-0.0993798	-0.354755	0.239671	-0.27434	0.189501	0.271455	-0.162248	0.122955	-0.0535142	0.56991	-0.344596	0.0580822	-0.0150433	-0.0286385	0.358406	
0.655358	3.67279	0	0	0.151809	-0.073639	-0.373813	0.284908	-0.173312	0.143116	-0.140374	0.128722	-0.23353	0.170957	0.218958	0.631155	-0.060075	0.018991	0.820307	-0.513381	-0.221728	-0.087217	-0.346704	0.232771	-0.269654	0.184787	0.280448	-0.169769	0.129859	-0.056389	0.581463	-0.352145	0.06613	-0.020302	-0.027051	0.370662	
0.656443	3.67279	0	0	0.154149	-0.0735285	-0.373893	0.293302	-0.169981	0.140939	-0.131966	0.123228	-0.23353	0.170957	0.220757	0.640176	-0.0627655	0.0265945	0.825509	-0.51678	-0.223882	-0.0811292	-0.343516	0.229049	-0.27282	0.185204	0.283952	-0.173703	0.135196	-0.0631493	0.587998	-0.358051	0.072253	-0.0259398	-0.027792	0.381133	
0.657575	3.67432	0	0	0.156489	-0.073418	-0.373973	0.301696	-0.16665	0.138763	-0.123557	0.117734	-0.23353	0.170957	0.222556	0.649198	-0.065456	0.034198	0.830711	-0.520179	-0.226037	-0.0750415	-0.340328	0.225328	-0.275985	0.185621	0.287456	-0.177637	0.140534	-0.0699095	0.594534	-0.363957	0.078376	-0.0315775	-0.028533	0.391603	
0.658802	3.66516	0	0	0.158828	-0.0733075	-0.374053	0.310089	-0.163319	0.136586	-0.115149	0.112239	-0.23353	0.170957	0.224354	0.658219	-0.0681465	0.0418015	0.835912	-0.523578	-0.228191	-0.0689538	-0.33714	0.221606	-0.279151	0.186037	0.29096	-0.18157	0.145871	-0.0766698	0.601069	-0.369863	0.084499	-0.0372153	-0.029274	0.402074	
0.66015	3.67279	0	0	0.161168	-0.073197	-0.374133	0.318483	-0.159988	0.13441	-0.10674	0.106745	-0.23353	0.170957	0.226153	0.66724	-0.070837	0.049405	0.841114	-0.526977	-0.230345	-0.062866	-0.333952	0.217884	-0.282317	0.186454	0.294464	-0.185504	0.151208	-0.08343	0.607605	-0.375769	0.090622	-0.042853	-0.030015	0.412545	
0.661509	3.67737	0	0	0.170457	-0.079267	-0.366003	0.328211	-0.153322	0.130054	-0.0941117	0.0984935	-0.226094	0.167738	0.239506	0.678954	-0.0703473	0.0607915	0.850772	-0.531647	-0.238653	-0.0550958	-0.327401	0.215242	-0.283077	0.188603	0.299204	-0.186957	0.154288	-0.0838065	0.615533	-0.379314	0.0952415	-0.0442345	-0.0238093	0.42016	
0.662716	3.67584	0	0	0.179747	-0.085337	-0.357873	0.337938	-0.146656	0.125698	-0.0814835	0.090242	-0.218657	0.164519	0.25286	0.690667	-0.0698575	0.072178	0.86043	-0.536318	-0.246962	-0.0473255	-0.320851	0.2126	-0.283837	0.190751	0.303944	-0.18841	0.157368	-0.084183	0.623461	-0.382858	0.099861	-0.045616	-0.0176035	0.427774	
0.663606	3.67889	0	0	0.189036	-0.091407	-0.349742	0.347666	-0.13999	0.121343	-0.0688553	0.0819905	-0.21122	0.161301	0.266213	0.702381	-0.0693677	0.0835645	0.870088	-0.540988	-0.255271	-0.0395553	-0.3143	0.209959	-0.284598	0.1929	0.308684	-0.189863	0.160448	-0.0845595	0.631389	-0.386402	0.104481	-0.0469975	-0.0113977	0.435388	
0.664018	3.68347	0	0	0.198325	-0.097477	-0.341612	0.357393	-0.133324	0.116987	-0.056227	0.073739	-0.203784	0.158082	0.279566	0.714095	-0.068878	0.094951	0.879746	-0.545658	-0.263579	-0.031785	-0.307749	0.207317	-0.285358	0.195048	0.313424	-0.191316	0.163528	-0.084936	0.639317	-0.389947	0.1091	-0.048379	-0.005192	0.443003	
0.663798	3.69263	0	0	0.207624	-0.103553	-0.340331	0.378339	-0.126653	0.112628	-0.0414708	0.0640967	-0.193605	0.153071	0.287435	0.74144	-0.06521	0.110151	0.894634	-0.553745	-0.266814	-0.0226425	-0.29556	0.199352	-0.281432	0.192483	0.327182	-0.200306	0.171199	-0.0899482	0.653805	-0.399414	0.119856	-0.0554072	0.00721825	0.449927	
0.663021	3.70331	0	0	0.216924	-0.109629	-0.33905	0.399285	-0.119981	0.108269	-0.0267145	0.0544545	-0.183426	0.148061	0.295303	0.768785	-0.061542	0.125352	0.909522	-0.561832	-0.270049	-0.0135	-0.283371	0.191388	-0.277506	0.189918	0.340939	-0.209296	0.17887	-0.0949605	0.668292	-0.40888	0.130612	-0.0624355	0.0196285	0.45685	
0.661968	3.70331	0	0	0.226224	-0.115706	-0.337768	0.42023	-0.11331	0.10391	-0.0119582	0.0448122	-0.173247	0.14305	0.303172	0.79613	-0.057874	0.140552	0.92441	-0.56992	-0.273284	-0.0043575	-0.271183	0.183424	-0.27358	0.187352	0.354697	-0.218285	0.186542	-0.0999727	0.68278	-0.418347	0.141368	-0.0694638	0.0320388	0.463773	
0.660927	3.70788	0	0	0.235523	-0.121782	-0.336487	0.441176	-0.106639	0.099551	0.002798	0.03517	-0.163068	0.13804	0.311041	0.823475	-0.054206	0.155752	0.939298	-0.578007	-0.276519	0.004785	-0.258994	0.175459	-0.269654	0.184787	0.368455	-0.227275	0.194213	-0.104985	0.697268	-0.427814	0.152124	-0.076492	0.044449	0.470697	
0.660186	3.71246	0	0	0.241728	-0.125837	-0.335126	0.453726	-0.0999628	0.0951885	0.008376	0.0331637	-0.157595	0.134464	0.31067	0.852915	-0.0505422	0.171	0.949742	-0.584832	-0.282999	0.0230978	-0.246788	0.167483	-0.257865	0.177084	0.382235	-0.236279	0.201138	-0.107873	0.711781	-0.437297	0.168283	-0.0870508	0.0561365	0.488188	
0.660031	3.72009	0	0	0.247933	-0.129891	-0.333765	0.466276	-0.0932865	0.090826	0.013954	0.0311575	-0.152123	0.130888	0.3103	0.882355	-0.0468785	0.186248	0.960187	-0.591657	-0.289478	0.0414105	-0.234581	0.159507	-0.246077	0.16938	0.396014	-0.245283	0.208062	-0.110762	0.726293	-0.446779	0.184443	-0.0976095	0.067824	0.505679	
0.660602	3.72314	0	0	0.254138	-0.133946	-0.332405	0.478826	-0.0866102	0.0864635	0.019532	0.0291513	-0.14665	0.127313	0.309929	0.911795	-0.0432148	0.201497	0.970631	-0.598481	-0.295958	0.0597232	-0.222375	0.151532	-0.234288	0.161677	0.409794	-0.254287	0.214987	-0.113651	0.740806	-0.456262	0.200602	-0.108168	0.0795115	0.52317	
0.661749	3.72925	0	0	0.260343	-0.138001	-0.331044	0.491376	-0.079934	0.082101	0.02511	0.027145	-0.141178	0.123737	0.309558	0.941235	-0.039551	0.216745	0.981076	-0.605306	-0.302438	0.078036	-0.210169	0.143556	-0.222499	0.153974	0.423574	-0.263291	0.221912	-0.116539	0.755318	-0.465745	0.216761	-0.118727	0.091199	0.540661	
0.663294	3.72772	0	0	0.270414	-0.146221	-0.331915	0.502042	-0.0732523	0.077735	0.034314	0.0194925	-0.13844	0.121948	0.312234	0.954994	-0.0431668	0.226963	0.988918	-0.61043	-0.305683	0.0872065	-0.206036	0.142495	-0.227951	0.160842	0.42006	-0.25935	0.225753	-0.119049	0.76113	-0.469543	0.224852	-0.124014	0.0896813	0.561822	
0.665057	3.72009	0	0	0.280485	-0.15444	-0.332786	0.512709	-0.0665705	0.073369	0.043518	0.01184	-0.135703	0.12016	0.31491	0.968754	-0.0467825	0.237181	0.99676	-0.615555	-0.308928	0.096377	-0.201903	0.141433	-0.233403	0.16771	0.416545	-0.255408	0.229595	-0.121559	0.766941	-0.47334	0.232943	-0.1293	0.0881635	0.582982	
0.66686	3.72467	0	0	0.290555	-0.16266	-0.333658	0.523375	-0.0598887	0.069003	0.052722	0.0041875	-0.132966	0.118371	0.317587	0.982514	-0.0503982	0.2474	1.0046	-0.620679	-0.312173	0.105548	-0.19777	0.140372	-0.238856	0.174577	0.41303	-0.251467	0.233436	-0.124069	0.772753	-0.477137	0.241034	-0.134587	0.0866457	0.604143	
0.668549	3.72925	0	0	0.300626	-0.170879	-0.334529	0.534041	-0.053207	0.064637	0.061926	-0.003465	-0.130228	0.116582	0.320263	0.996273	-0.054014	0.257618	1.01244	-0.625803	-0.315418	0.114718	-0.193637	0.139311	-0.244308	0.181445	0.409516	-0.247526	0.237278	-0.126579	0.778565	-0.480935	0.249125	-0.139874	0.085128	0.625304	
0.670112	3.72009	0	0	0.306843	-0.174941	-0.327171	0.546094	-0.0457645	0.058132	0.0725003	-0.0103743	-0.125506	0.115138	0.326212	1.00793	-0.0576335	0.267848	1.02029	-0.630931	-0.317583	0.120837	-0.191947	0.139846	-0.248238	0.184013	0.409516	-0.247526	0.238031	-0.128708	0.775659	-0.479036	0.252577	-0.143766	0.08047	0.630031	
0.671579	3.71551	0	0	0.313059	-0.179003	-0.319812	0.558146	-0.038322	0.051627	0.0830745	-0.0172835	-0.120784	0.113693	0.332161	1.01958	-0.061253	0.278077	1.02814	-0.63606	-0.319748	0.126956	-0.190256	0.140381	-0.252167	0.18658	0.409516	-0.247526	0.238785	-0.130836	0.772752	-0.477137	0.256029	-0.147659	0.075812	0.634758	
0.67298	3.71704	0	0	0.319275	-0.183065	-0.312453	0.570198	-0.0308795	0.045122	0.0936488	-0.0241928	-0.116061	0.112249	0.33811	1.03124	-0.0648725	0.288307	1.03599	-0.641189	-0.321913	0.133075	-0.188566	0.140917	-0.256097	0.189148	0.409516	-0.247526	0.239538	-0.132965	0.769846	-0.475238	0.259481	-0.151552	0.071154	0.639485	
0.674347	3.71399	0	0	0.325492	-0.187127	-0.305095	0.582251	-0.023437	0.038617	0.104223	-0.031102	-0.111339	0.110804	0.344059	1.0429	-0.068492	0.298537	1.04384	-0.646317	-0.324078	0.139194	-0.186876	0.141452	-0.260027	0.191716	0.409516	-0.247526	0.240291	-0.135094	0.76694	-0.473339	0.262933	-0.155444	0.066496	0.644212	
0.675707	3.70483	0	0	0.330958	-0.18906	-0.309869	0.603966	-0.0175007	0.0363802	0.114056	-0.0358888	-0.103116	0.105431	0.350104	1.06146	-0.0630368	0.308757	1.04721	-0.650162	-0.332386	0.146976	-0.18123	0.136123	-0.256097	0.189148	0.415032	-0.25113	0.232609	-0.130075	0.76694	-0.473339	0.262933	-0.155444	0.0742643	0.639136	
0.677025	3.71399	0	0	0.336425	-0.190993	-0.314643	0.62568	-0.0115645	0.0341435	0.123889	-0.0406755	-0.094893	0.100058	0.356148	1.08003	-0.0575815	0.318977	1.05059	-0.654007	-0.340695	0.154758	-0.175584	0.130794	-0.252167	0.18658	0.420548	-0.254735	0.224928	-0.125055	0.76694	-0.473339	0.262933	-0.155444	0.0820325	0.63406	
0.678209	3.69415	0	0	0.341892	-0.192925	-0.319418	0.647395	-0.00562825	0.0319067	0.133722	-0.0454623	-0.08667	0.094685	0.362193	1.09859	-0.0521262	0.329197	1.05396	-0.657852	-0.349003	0.16254	-0.169938	0.125465	-0.248238	0.184013	0.426065	-0.258339	0.217247	-0.120036	0.76694	-0.473339	0.262933	-0.155444	0.0898007	0.628984	
0.679163	3.68652	0	0	0.347358	-0.194858	-0.324192	0.66911	0.000308	0.02967	0.143555	-0.050249	-0.078447	0.089312	0.368238	1.11715	-0.046671	0.339417	1.05733	-0.661697	-0.357311	0.170322	-0.164292	0.120136	-0.244308	0.181445	0.431581	-0.261944	0.209565	-0.115017	0.76694	-0.473339	0.262933	-0.155444	0.097569	0.623908	
0.679791	3.67737	0	0	0.344247	-0.192825	-0.32731	0.677922	-0.00303875	0.0318567	0.141436	-0.0488647	-0.0764598	0.089655	0.370103	1.1333	-0.0521192	0.354815	1.05658	-0.659563	-0.361647	0.182577	-0.159397	0.116938	-0.235683	0.174156	0.439862	-0.267355	0.208812	-0.112889	0.775662	-0.479038	0.267579	-0.156843	0.100692	0.631977	
0.679999	3.67432	0	0	0.341136	-0.190792	-0.330428	0.686733	-0.0063855	0.0340435	0.139318	-0.0474805	-0.0744725	0.089998	0.371969	1.14945	-0.0575675	0.370212	1.05582	-0.657428	-0.365983	0.194831	-0.154503	0.11374	-0.227057	0.166868	0.448144	-0.272766	0.208059	-0.11076	0.784384	-0.484738	0.272226	-0.158243	0.103815	0.640046	
0.679738	3.66974	0	0	0.338025	-0.188759	-0.333546	0.695545	-0.00973225	0.0362302	0.1372	-0.0460963	-0.0724853	0.090341	0.373834	1.1656	-0.0630157	0.38561	1.05507	-0.655294	-0.370319	0.207086	-0.149609	0.110542	-0.218432	0.15958	0.456425	-0.278177	0.207306	-0.108631	0.793106	-0.490437	0.276873	-0.159642	0.106937	0.648114	
0.679107	3.65906	0	0	0.334914	-0.186726	-0.336664	0.704357	-0.013079	0.038417	0.135081	-0.044712	-0.070498	0.090684	0.375699	1.18175	-0.068464	0.401008	1.05431	-0.65316	-0.374655	0.219341	-0.144714	0.107344	-0.209807	0.152291	0.464706	-0.283588	0.206553	-0.106503	0.801828	-0.496136	0.281519	-0.161042	0.11006	0.656183	
0.678236	3.65906	0	0	0.33727	-0.186626	-0.334439	0.706292	-0.0138347	0.0405532	0.135081	-0.044712	-0.07173	0.0882062	0.374012	1.17938	-0.0734573	0.402296	1.04983	-0.651873	-0.380789	0.220993	-0.149609	0.110542	-0.217672	0.15743	0.456425	-0.278177	0.202715	-0.103995	0.79892	-0.494236	0.281519	-0.161042	0.106955	0.66496	
0.677254	3.65295	0	0	0.339626	-0.186526	-0.332213	0.708228	-0.0145905	0.0426895	0.135081	-0.044712	-0.072962	0.0857285	0.372325	1.177	-0.0784505	0.403585	1.04535	-0.650587	-0.386923	0.222645	-0.154503	0.11374	-0.225537	0.162569	0.448144	-0.272766	0.198877	-0.101487	0.796011	-0.492335	0.281519	-0.161042	0.103849	0.673736	
0.67629	3.6499	0	0	0.341983	-0.186427	-0.329987	0.710164	-0.0153463	0.0448257	0.135081	-0.044712	-0.074194	0.0832507	0.370637	1.17463	-0.0834437	0.404873	1.04087	-0.6493	-0.393058	0.224296	-0.159397	0.116938	-0.233401	0.167707	0.439862	-0.267355	0.195038	-0.098979	0.793103	-0.490434	0.281519	-0.161042	0.100743	0.682513	
0.675459	3.6438	0	0	0.344339	-0.186327	-0.327762	0.712099	-0.016102	0.046962	0.135081	-0.044712	-0.075426	0.080773	0.36895	1.17225	-0.088437	0.406161	1.03639	-0.648014	-0.399192	0.225948	-0.164292	0.120136	-0.241266	0.172846	0.431581	-0.261944	0.1912	-0.096471	0.790195	-0.488534	0.281519	-0.161042	0.097638	0.69129	
0.674707	3.63617	0	0	0.348206	-0.190493	-0.327097	0.718449	-0.0127555	0.0447752	0.139319	-0.047481	-0.0781678	0.0825647	0.367263	1.16988	-0.0816267	0.399737	1.02855	-0.642887	-0.404237	0.224534	-0.171628	0.12493	-0.245196	0.175414	0.426065	-0.258339	0.184282	-0.0935872	0.784381	-0.484735	0.276873	-0.159642	0.0952952	0.681017	
0.673875	3.63617	0	0	0.352073	-0.194659	-0.326433	0.724799	-0.009409	0.0425885	0.143556	-0.05025	-0.0809095	0.0843565	0.365576	1.16751	-0.0748165	0.393313	1.0207	-0.63776	-0.409281	0.223119	-0.178964	0.129723	-0.249125	0.177982	0.420548	-0.254735	0.177364	-0.0907035	0.778567	-0.480936	0.272226	-0.158243	0.0929525	0.670743	
0.672803	3.63312	0	0	0.355939	-0.198826	-0.325768	0.731149	-0.0060625	0.0404018	0.147793	-0.053019	-0.0836512	0.0861483	0.36389	1.16513	-0.0680063	0.38689	1.01285	-0.632632	-0.414326	0.221705	-0.186301	0.134517	-0.253055	0.180549	0.415032	-0.25113	0.170446	-0.0878198	0.772754	-0.477138	0.267579	-0.156843	0.0906098	0.66047	
0.67133	3.63006	0	0	0.359806	-0.202992	-0.325103	0.737499	-0.002716	0.038215	0.152031	-0.055788	-0.086393	0.08794	0.362203	1.16276	-0.061196	0.380466	1.005	-0.627505	-0.419371	0.220291	-0.193637	0.139311	-0.256984	0.183117	0.409516	-0.247526	0.163528	-0.084936	0.76694	-0.473339	0.262933	-0.155444	0.088267	0.650197	
0.669297	3.62701	0	0	0.359052	-0.200859	-0.32901	0.748542	-0.002716	0.038215	0.151277	-0.0536562	-0.0871485	0.0900748	0.359803	1.16954	-0.0680063	0.38689	0.999778	-0.624089	-0.425494	0.221938	-0.200967	0.1441	-0.260912	0.185684	0.409516	-0.247526	0.155864	-0.079928	0.764787	-0.473568	0.257537	-0.151918	0.0913672	0.641435	
0.666668	3.62396	0	0	0.358297	-0.198727	-0.332918	0.759586	-0.002716	0.038215	0.150523	-0.0515245	-0.087904	0.0922095	0.357403	1.17632	-0.0748165	0.393313	0.994551	-0.620674	-0.431618	0.223584	-0.208297	0.14889	-0.26484	0.18825	0.409516	-0.247526	0.148199	-0.07492	0.762634	-0.473797	0.25214	-0.148392	0.0944675	0.632673	
0.663613	3.62244	0	0	0.357542	-0.196594	-0.336825	0.770629	-0.002716	0.038215	0.149768	-0.0493927	-0.0886595	0.0943442	0.355004	1.18311	-0.0816267	0.399737	0.989324	-0.617259	-0.437742	0.225231	-0.215627	0.153679	-0.268768	0.190817	0.409516	-0.247526	0.140535	-0.069912	0.760482	-0.474026	0.246744	-0.144865	0.0975677	0.623911	
0.660317	3.61786	0	0	0.356788	-0.194461	-0.340733	0.781672	-0.002716	0.038215	0.149014	-0.047261	-0.089415	0.096479	0.352604	1.18989	-0.088437	0.406161	0.984097	-0.613843	-0.443865	0.226878	-0.222957	0.158469	-0.272696	0.193383	0.409516	-0.247526	0.132871	-0.064904	0.758329	-0.474255	0.241347	-0.141339	0.100668	0.615149	
0.656968	3.62244	0	0	0.34821	-0.190495	-0.344398	0.775577	-0.008652	0.0404513	0.141296	-0.0438562	-0.100374	0.103639	0.34267	1.18943	-0.0925182	0.404881	0.971043	-0.605314	-0.442782	0.223817	-0.230281	0.163254	-0.277382	0.198098	0.404003	-0.243924	0.136702	-0.0674073	0.754672	-0.47023	0.244045	-0.143102	0.100668	0.615149	
0.653752	3.61938	0	0	0.339631	-0.18653	-0.348063	0.769482	-0.014588	0.0426875	0.133577	-0.0404515	-0.111333	0.1108	0.332736	1.18897	-0.0965995	0.403601	0.95799	-0.596784	-0.441698	0.220756	-0.237604	0.16804	-0.282069	0.202813	0.39849	-0.240321	0.140533	-0.0699105	0.751015	-0.466205	0.246742	-0.144865	0.100668	0.615149	
0.650827	3.61023	0	0	0.331052	-0.182564	-0.351729	0.763387	-0.020524	0.0449237	0.125858	-0.0370467	-0.122291	0.117961	0.322803	1.18851	-0.100681	0.40232	0.944936	-0.588255	-0.440615	0.217695	-0.244928	0.172825	-0.286755	0.207528	0.392977	-0.236719	0.144365	-0.0724137	0.747357	-0.462179	0.24944	-0.146628	0.100668	0.615149	
0.648253	3.61175	0	0	0.322474	-0.178598	-0.355394	0.757292	-0.02646	0.04716	0.11814	-0.033642	-0.13325	0.125121	0.312869	1.18805	-0.104762	0.40104	0.931882	-0.579725	-0.439532	0.214634	-0.252252	0.177611	-0.291442	0.212243	0.387464	-0.233117	0.148196	-0.074917	0.7437	-0.458154	0.252138	-0.148391	0.100668	0.615149	
0.646073	3.60565	0	0	0.315503	-0.172403	-0.359057	0.751206	-0.03056	0.0514815	0.109675	-0.0281112	-0.144195	0.132273	0.305262	1.17394	-0.105212	0.389507	0.921453	-0.572911	-0.442404	0.207105	-0.266881	0.18717	-0.298528	0.21522	0.373698	-0.224122	0.136707	-0.0674103	0.732092	-0.450569	0.243294	-0.140975	0.0944487	0.615847	
0.644329	3.6087	0	0	0.308532	-0.166209	-0.362721	0.745121	-0.03466	0.055803	0.10121	-0.0225805	-0.155139	0.139424	0.297656	1.15983	-0.105662	0.377973	0.911025	-0.566096	-0.445276	0.199577	-0.281509	0.196729	-0.305614	0.218198	0.359931	-0.215126	0.125219	-0.0599035	0.720484	-0.442984	0.234449	-0.133559	0.0882295	0.616545	
0.643064	3.59802	0	0	0.301561	-0.160014	-0.366385	0.739035	-0.03876	0.0601245	0.0927457	-0.0170498	-0.166083	0.146575	0.29005	1.14572	-0.106113	0.36644	0.900596	-0.559281	-0.448148	0.192048	-0.296138	0.206287	-0.3127	0.221175	0.346164	-0.20613	0.11373	-0.0523967	0.708876	-0.435399	0.225605	-0.126143	0.0820102	0.617244	
0.642295	3.6026	0	0	0.29459	-0.153819	-0.370048	0.73295	-0.04286	0.064446	0.084281	-0.011519	-0.177028	0.153727	0.282443	1.13161	-0.106563	0.354907	0.890167	-0.552467	-0.45102	0.18452	-0.310767	0.215846	-0.319786	0.224153	0.332398	-0.197135	0.102242	-0.04489	0.697268	-0.427814	0.216761	-0.118727	0.075791	0.617942	
0.641931	3.60107	0	0	0.291484	-0.151789	-0.371489	0.728809	-0.0462028	0.06663	0.0792978	-0.00662375	-0.184472	0.15695	0.275726	1.12216	-0.107924	0.345955	0.877149	-0.543961	-0.453892	0.177004	-0.320506	0.22221	-0.331543	0.231835	0.321401	-0.189949	0.0945915	-0.039891	0.688573	-0.422132	0.211371	-0.115205	0.073445	0.607708	
0.641844	3.6026	0	0	0.288377	-0.149759	-0.372931	0.724668	-0.0495455	0.068814	0.0743145	-0.0017285	-0.191916	0.160173	0.269009	1.11271	-0.109284	0.337004	0.864131	-0.535454	-0.456763	0.169488	-0.330244	0.228573	-0.343299	0.239517	0.310403	-0.182763	0.086941	-0.034892	0.679877	-0.41645	0.205981	-0.111683	0.071099	0.597475	
0.641907	3.6087	0	0	0.285271	-0.14773	-0.374372	0.720527	-0.0528883	0.070998	0.0693312	0.00316675	-0.199361	0.163396	0.262292	1.10325	-0.110644	0.328053	0.851112	-0.526948	-0.459635	0.161973	-0.339983	0.234936	-0.355056	0.247199	0.299405	-0.175578	0.0792905	-0.029893	0.671181	-0.410768	0.200591	-0.108162	0.068753	0.587241	
0.641992	3.61023	0	0	0.282164	-0.1457	-0.375814	0.716386	-0.056231	0.073182	0.064348	0.008062	-0.206805	0.166619	0.255575	1.0938	-0.112005	0.319101	0.838094	-0.518442	-0.462507	0.154457	-0.349722	0.2413	-0.366812	0.254881	0.288408	-0.168392	0.07164	-0.024894	0.662486	-0.405086	0.195201	-0.10464	0.066407	0.577007	
0.641981	3.61328	0	0	0.276709	-0.143775	-0.375034	0.714183	-0.0595725	0.0753655	0.0629885	0.0073115	-0.212267	0.170188	0.253897	1.09144	-0.115176	0.315276	0.830292	-0.513344	-0.461427	0.151405	-0.351401	0.240757	-0.366812	0.254881	0.289165	-0.170531	0.07164	-0.024894	0.660342	-0.405321	0.193261	-0.105009	0.0702697	0.566091	
0.641824	3.61633	0	0	0.271254	-0.14185	-0.374255	0.711981	-0.062914	0.077549	0.061629	0.006561	-0.217728	0.173757	0.252219	1.08908	-0.118347	0.31145	0.822491	-0.508247	-0.460348	0.148353	-0.353079	0.240215	-0.366812	0.254881	0.289922	-0.172671	0.07164	-0.024894	0.658199	-0.405556	0.191321	-0.105378	0.0741325	0.555175	
0.6415	3.62244	0	0	0.265798	-0.139926	-0.373476	0.709778	-0.0662555	0.0797325	0.0602695	0.0058105	-0.22319	0.177326	0.250541	1.08672	-0.121519	0.307624	0.81469	-0.503149	-0.459268	0.145302	-0.354757	0.239673	-0.366812	0.254881	0.290679	-0.17481	0.07164	-0.024894	0.656055	-0.405791	0.18938	-0.105747	0.0779953	0.544258	
0.640991	3.62701	0	0	0.260343	-0.138001	-0.372696	0.707576	-0.069597	0.081916	0.05891	0.00506	-0.228652	0.180895	0.248863	1.08436	-0.12469	0.303799	0.806888	-0.498051	-0.458188	0.14225	-0.356436	0.23913	-0.366812	0.254881	0.291436	-0.176949	0.07164	-0.024894	0.653911	-0.406026	0.18744	-0.106116	0.081858	0.533342	
0.640276	3.62396	0	0	0.250282	-0.129788	-0.377137	0.703708	-0.072937	0.0840985	0.05046	0.0105813	-0.23411	0.184462	0.243124	1.08638	-0.129667	0.305086	0.804289	-0.496353	-0.458188	0.14225	-0.357945	0.243395	-0.364417	0.256621	0.289922	-0.17267	0.0754642	-0.0273928	0.658952	-0.407685	0.19477	-0.109269	0.082648	0.539539	
0.639339	3.63006	0	0	0.240222	-0.121574	-0.381577	0.69984	-0.076277	0.086281	0.04201	0.0161025	-0.239569	0.188028	0.237385	1.0884	-0.134645	0.306374	0.801691	-0.494655	-0.458188	0.14225	-0.359454	0.24766	-0.362021	0.258362	0.288408	-0.168391	0.0792885	-0.0298915	0.663994	-0.409343	0.202101	-0.112422	0.083438	0.545736	
0.638219	3.63617	0	0	0.230161	-0.113361	-0.386018	0.695973	-0.079617	0.0884635	0.03356	0.0216238	-0.245027	0.191595	0.231647	1.09043	-0.139622	0.307661	0.799092	-0.492957	-0.458188	0.14225	-0.360963	0.251924	-0.359625	0.260102	0.286894	-0.164112	0.0831127	-0.0323903	0.669035	-0.411002	0.209431	-0.115574	0.084228	0.551933	
0.636986	3.6499	0	0	0.220101	-0.105147	-0.390458	0.692105	-0.082957	0.090646	0.02511	0.027145	-0.250486	0.195161	0.225908	1.09245	-0.144599	0.308949	0.796493	-0.491259	-0.458188	0.14225	-0.362472	0.256189	-0.35723	0.261842	0.28538	-0.159833	0.086937	-0.034889	0.674076	-0.41266	0.216761	-0.118727	0.085018	0.55813	
0.635711	3.67126	0	0	0.217001	-0.103122	-0.394895	0.688241	-0.0896335	0.0950085	0.0180237	0.0334142	-0.258667	0.200507	0.218415	1.08527	-0.146862	0.302574	0.793895	-0.489561	-0.458188	0.14225	-0.364904	0.257779	-0.361147	0.264402	0.279887	-0.156243	0.086184	-0.0327605	0.673323	-0.410532	0.216007	-0.116597	0.0842595	0.568708	
0.634465	3.70178	0	0	0.213901	-0.101096	-0.399332	0.684378	-0.09631	0.099371	0.0109375	0.0396835	-0.266848	0.205852	0.210922	1.07808	-0.149126	0.2962	0.791297	-0.487864	-0.458188	0.14225	-0.367337	0.259368	-0.365064	0.266961	0.274393	-0.152653	0.085431	-0.030632	0.67257	-0.408404	0.215253	-0.114467	0.083501	0.579285	
0.633317	3.74145	0	0	0.210802	-0.0990705	-0.403769	0.680515	-0.102986	0.103734	0.00385125	0.0459528	-0.275029	0.211198	0.203429	1.0709	-0.151389	0.289826	0.788698	-0.486166	-0.458188	0.14225	-0.369769	0.260957	-0.368981	0.26952	0.268899	-0.149064	0.084678	-0.0285035	0.671817	-0.406275	0.2145	-0.112338	0.0827425	0.589862	
0.632304	3.7857	0	0	0.207702	-0.097045	-0.408206	0.676651	-0.109663	0.108096	-0.003235	0.052222	-0.28321	0.216544	0.195936	1.06371	-0.153652	0.283451	0.7861	-0.484468	-0.458188	0.14225	-0.372201	0.262547	-0.372898	0.27208	0.263406	-0.145474	0.083925	-0.026375	0.671064	-0.404147	0.213746	-0.110208	0.081984	0.60044	
0.631436	3.83758	0	0	0.207702	-0.097045	-0.407429	0.674453	-0.109663	0.108096	-0.003235	0.052222	-0.285936	0.218325	0.194263	1.06136	-0.151846	0.278348	0.788698	-0.486166	-0.463218	0.140847	-0.372201	0.262547	-0.376813	0.274638	0.259903	-0.14154	0.0831715	-0.0242457	0.664517	-0.398232	0.211051	-0.108447	0.0726655	0.601486	
0.630724	3.88336	0	0	0.207702	-0.097045	-0.406651	0.672256	-0.109663	0.108096	-0.003235	0.052222	-0.288661	0.220106	0.192589	1.05901	-0.150041	0.273245	0.791297	-0.487864	-0.468248	0.139444	-0.372201	0.262547	-0.380729	0.277196	0.2564	-0.137606	0.082418	-0.0221165	0.657969	-0.392318	0.208355	-0.106686	0.063347	0.602532	
0.63018	3.92761	0	0	0.207702	-0.097045	-0.405873	0.670058	-0.109663	0.108096	-0.003235	0.052222	-0.291386	0.221886	0.190915	1.05665	-0.148235	0.268141	0.793895	-0.489561	-0.473279	0.138042	-0.372201	0.262547	-0.384644	0.279755	0.252898	-0.133672	0.0816645	-0.0199872	0.651422	-0.386404	0.20566	-0.104925	0.0540285	0.603578	
0.629811	3.95813	0	0	0.207702	-0.097045	-0.405096	0.66786	-0.109663	0.108096	-0.003235	0.052222	-0.294112	0.223667	0.189242	1.0543	-0.146429	0.263038	0.796493	-0.491259	-0.478309	0.136639	-0.372201	0.262547	-0.388559	0.282313	0.249395	-0.129738	0.080911	-0.017858	0.644875	-0.380489	0.202965	-0.103164	0.04471	0.604624	
0.629559	3.98865	0	0	0.207702	-0.097045	-0.405873	0.670058	-0.109663	0.108096	-0.0003705	0.0487115	-0.292142	0.224021	0.191795	1.06125	-0.147332	0.265589	0.803537	-0.494221	-0.47723	0.133591	-0.367336	0.259368	-0.387798	0.280163	0.252898	-0.133672	0.07784	-0.0174883	0.642732	-0.380726	0.198331	-0.101773	0.0462425	0.591871	
0.62931	4.00848	0	0	0.207702	-0.097045	-0.406651	0.672256	-0.109663	0.108096	0.002494	0.045201	-0.290172	0.224375	0.194348	1.06821	-0.148234	0.268141	0.81058	-0.497183	-0.476152	0.130542	-0.362471	0.256188	-0.387038	0.278013	0.2564	-0.137606	0.074769	-0.0171185	0.64059	-0.380962	0.193696	-0.100382	0.047775	0.579117	
0.628952	4.02069	0	0	0.207702	-0.097045	-0.407429	0.674453	-0.109663	0.108096	0.0053585	0.0416905	-0.288202	0.224729	0.196902	1.07516	-0.149137	0.270692	0.817624	-0.500144	-0.475073	0.127494	-0.357605	0.253009	-0.386277	0.275863	0.259903	-0.14154	0.071698	-0.0167487	0.638448	-0.381198	0.189061	-0.0989903	0.0493075	0.566364	
0.628371	4.02222	0	0	0.207702	-0.097045	-0.408206	0.676651	-0.109663	0.108096	0.008223	0.03818	-0.286232	0.225083	0.199455	1.08211	-0.15004	0.273243	0.824668	-0.503106	-0.473994	0.124445	-0.35274	0.24983	-0.385516	0.273713	0.263406	-0.145474	0.068627	-0.016379	0.636305	-0.381435	0.184427	-0.097599	0.05084	0.55361	
0.62746	4.01153	0	0	0.209211	-0.10131	-0.411201	0.676918	-0.108151	0.103824	0.00686675	0.0374275	-0.283506	0.223302	0.202008	1.08908	-0.150943	0.275795	0.832474	-0.508207	-0.475073	0.127494	-0.349552	0.246107	-0.385516	0.273713	0.269656	-0.151203	0.0655575	-0.0160097	0.637058	-0.383563	0.184427	-0.097599	0.0492807	0.549598	
0.626278	4.0039	0	0	0.21072	-0.105575	-0.414195	0.677185	-0.106639	0.099552	0.0055105	0.036675	-0.280779	0.221521	0.204561	1.09604	-0.151846	0.278347	0.84028	-0.513308	-0.476152	0.130542	-0.346363	0.242385	-0.385516	0.273713	0.275907	-0.156933	0.062488	-0.0156405	0.637811	-0.385691	0.184427	-0.097599	0.0477215	0.545586	
0.625029	3.98712	0	0	0.212229	-0.109839	-0.41719	0.677452	-0.105128	0.09528	0.00415425	0.0359225	-0.278053	0.219739	0.207114	1.10301	-0.152749	0.280899	0.848087	-0.518408	-0.47723	0.133591	-0.343175	0.238662	-0.385516	0.273713	0.282158	-0.162662	0.0594185	-0.0152713	0.638564	-0.387819	0.184427	-0.097599	0.0461623	0.541575	
0.623923	3.96881	0	0	0.213738	-0.114104	-0.420185	0.677719	-0.103616	0.091008	0.002798	0.03517	-0.275327	0.217958	0.209667	1.10997	-0.153652	0.283451	0.855893	-0.523509	-0.478309	0.136639	-0.339987	0.234939	-0.385516	0.273713	0.288408	-0.168392	0.056349	-0.014902	0.639317	-0.389947	0.184427	-0.097599	0.044603	0.537563	
0.623167	3.95203	0	0	0.210639	-0.112079	-0.420847	0.671397	-0.103616	0.091008	0.0014425	0.034418	-0.278053	0.219739	0.203221	1.1211	-0.154555	0.286004	0.855893	-0.523509	-0.480467	0.142739	-0.339987	0.234939	-0.377684	0.268595	0.290399	-0.168048	0.0601718	-0.0174	0.642213	-0.391839	0.187121	-0.0993593	0.047706	0.537212	
0.622963	3.93524	0	0	0.207541	-0.110054	-0.421508	0.665075	-0.103616	0.091008	8.7E-05	0.033666	-0.280779	0.221521	0.196775	1.13222	-0.155458	0.288556	0.855893	-0.523509	-0.482626	0.148839	-0.339987	0.234939	-0.369851	0.263477	0.29239	-0.167704	0.0639945	-0.019898	0.645109	-0.393732	0.189814	-0.10112	0.050809	0.536861	
0.623354	3.91998	0	0	0.204442	-0.10803	-0.42217	0.658754	-0.103616	0.091008	-0.0012685	0.032914	-0.283506	0.223302	0.190329	1.14335	-0.156361	0.291109	0.855893	-0.523509	-0.484785	0.154939	-0.339987	0.234939	-0.362019	0.258359	0.294381	-0.167359	0.0678172	-0.022396	0.648004	-0.395624	0.192507	-0.10288	0.053912	0.53651	
0.624248	3.9032	0	0	0.201343	-0.106005	-0.422832	0.652432	-0.103616	0.091008	-0.002624	0.032162	-0.286232	0.225083	0.183883	1.15448	-0.157264	0.293662	0.855893	-0.523509	-0.486943	0.161039	-0.339987	0.234939	-0.354187	0.253241	0.296372	-0.167015	0.07164	-0.024894	0.6509	-0.397516	0.195201	-0.10464	0.057015	0.536159	
0.625552	3.89709	0	0	0.201343	-0.106005	-0.424272	0.648311	-0.106952	0.093188	-0.005487	0.0356708	-0.288957	0.226864	0.178155	1.15649	-0.162235	0.294947	0.850688	-0.520108	-0.495205	0.168784	-0.347286	0.239708	-0.362019	0.258359	0.288888	-0.16377	0.0678172	-0.022396	0.6509	-0.397516	0.193261	-0.105009	0.048496	0.543402	
0.627169	3.89557	0	0	0.201343	-0.106005	-0.425711	0.64419	-0.110288	0.095368	-0.00835	0.0391795	-0.291682	0.228645	0.172427	1.1585	-0.167205	0.296233	0.845483	-0.516707	-0.503467	0.176529	-0.354584	0.244478	-0.369851	0.263477	0.281404	-0.160525	0.0639945	-0.019898	0.6509	-0.397516	0.191321	-0.105378	0.039977	0.550646	
0.629005	3.90472	0	0	0.201343	-0.106005	-0.42715	0.64007	-0.113625	0.097548	-0.011213	0.0426883	-0.294408	0.230425	0.166699	1.16052	-0.172175	0.297518	0.840278	-0.513306	-0.51173	0.184274	-0.361883	0.249247	-0.377684	0.268595	0.273919	-0.157279	0.0601718	-0.0174	0.6509	-0.397516	0.18938	-0.105747	0.031458	0.557889	
0.630952	3.92151	0	0	0.201343	-0.106005	-0.42859	0.635949	-0.116961	0.099728	-0.014076	0.046197	-0.297133	0.232206	0.160971	1.16253	-0.177146	0.298803	0.835073	-0.509905	-0.519992	0.192019	-0.369182	0.254016	-0.385516	0.273713	0.266435	-0.154034	0.056349	-0.014902	0.6509	-0.397516	0.18744	-0.106116	0.022939	0.565132	
0.632892	3.94134	0	0	0.201343	-0.106005	-0.422603	0.635411	-0.113625	0.097548	-0.011967	0.0448188	-0.293652	0.228291	0.163437	1.16265	-0.176243	0.296251	0.835828	-0.512039	-0.517833	0.185917	-0.374045	0.257193	-0.388669	0.27412	0.266435	-0.154034	0.052528	-0.0124052	0.64511	-0.393732	0.184747	-0.104357	0.0182845	0.561468	
0.634705	3.96271	0	0	0.201343	-0.106005	-0.416617	0.634873	-0.110288	0.095368	-0.009858	0.0434405	-0.290172	0.224375	0.165902	1.16277	-0.17534	0.293699	0.836583	-0.514174	-0.515674	0.179814	-0.378907	0.260371	-0.391822	0.274528	0.266435	-0.154034	0.048707	-0.0099085	0.63932	-0.389949	0.182055	-0.102597	0.01363	0.557805	
0.636273	3.98254	0	0	0.201343	-0.106005	-0.41063	0.634335	-0.106952	0.093188	-0.007749	0.0420622	-0.286691	0.220459	0.168368	1.16289	-0.174437	0.291147	0.837339	-0.516308	-0.513515	0.173712	-0.383769	0.263548	-0.394974	0.274935	0.266435	-0.154034	0.044886	-0.00741175	0.633529	-0.386165	0.179362	-0.100837	0.0089755	0.554142	
0.637481	4.00543	0	0	0.201343	-0.106005	-0.404643	0.633797	-0.103616	0.091008	-0.00564	0.040684	-0.28321	0.216544	0.170833	1.163	-0.173534	0.288595	0.838094	-0.518442	-0.511356	0.16761	-0.388632	0.266725	-0.398127	0.275343	0.266435	-0.154034	0.041065	-0.004915	0.627739	-0.382382	0.176669	-0.099078	0.004321	0.550478	
0.638316	4.01764	0	0	0.203687	-0.105898	-0.40709	0.648908	-0.101034	0.090963	-0.00142025	0.0379267	-0.281239	0.216897	0.176719	1.17474	-0.176244	0.296253	0.835493	-0.516742	-0.518533	0.172299	-0.391062	0.268313	-0.394974	0.274935	0.274676	-0.159419	0.041065	-0.004915	0.627739	-0.382382	0.175916	-0.0969488	0.002766	0.54647	
0.638886	4.02222	0	0	0.206031	-0.105791	-0.409536	0.664018	-0.0984525	0.090918	0.0027995	0.0351695	-0.279269	0.217251	0.182605	1.18648	-0.178953	0.303911	0.832892	-0.515042	-0.525709	0.176988	-0.393493	0.2699	-0.391822	0.274528	0.282918	-0.164804	0.041065	-0.004915	0.627739	-0.382382	0.175162	-0.0948195	0.001211	0.542461	
0.639308	4.02679	0	0	0.208376	-0.105683	-0.411983	0.679129	-0.0958708	0.090873	0.00701925	0.0324123	-0.277298	0.217605	0.188491	1.19821	-0.181663	0.311569	0.83029	-0.513343	-0.532886	0.181678	-0.395923	0.271488	-0.388669	0.27412	0.291159	-0.170189	0.041065	-0.004915	0.627739	-0.382382	0.174409	-0.0926903	-0.000344	0.538453	
0.639696	4.02679	0	0	0.21072	-0.105576	-0.41443	0.694239	-0.093289	0.090828	0.011239	0.029655	-0.275327	0.217958	0.194377	1.20995	-0.184373	0.319227	0.827689	-0.511643	-0.540062	0.186367	-0.398353	0.273076	-0.385516	0.273713	0.299401	-0.175574	0.041065	-0.004915	0.627739	-0.382382	0.173656	-0.090561	-0.001899	0.534445	
0.640166	4.01611	0	0	0.214574	-0.109733	-0.415328	0.704978	-0.0899502	0.0886463	0.0154608	0.0268965	-0.269872	0.214394	0.195395	1.22838	-0.188894	0.332005	0.827689	-0.511643	-0.541142	0.189418	-0.398353	0.273076	-0.38084	0.269005	0.309645	-0.180623	0.0441327	-0.00528325	0.635673	-0.38593	0.181737	-0.0958413	-0.00111525	0.540633	
0.640778	4.0039	0	0	0.218428	-0.113891	-0.416226	0.715716	-0.0866115	0.0864645	0.0196825	0.024138	-0.264417	0.210829	0.196414	1.2468	-0.193416	0.344783	0.827689	-0.511643	-0.542221	0.192468	-0.398353	0.273076	-0.376164	0.264297	0.319889	-0.185671	0.0472005	-0.0056515	0.643606	-0.389478	0.189818	-0.101122	-0.0003315	0.54682	
0.641513	3.98712	0	0	0.222283	-0.118049	-0.417125	0.726455	-0.0832728	0.0842827	0.0239043	0.0213795	-0.258962	0.207264	0.197432	1.26523	-0.197937	0.357561	0.827689	-0.511643	-0.5433	0.195519	-0.398353	0.273076	-0.371488	0.259589	0.330132	-0.190719	0.0502683	-0.00601975	0.65154	-0.393026	0.197898	-0.106402	0.00045225	0.553008	
0.64234	3.97339	0	0	0.226137	-0.122206	-0.418023	0.737193	-0.079934	0.082101	0.028126	0.018621	-0.253507	0.2037	0.198451	1.28366	-0.202458	0.370339	0.827689	-0.511643	-0.54438	0.19857	-0.398353	0.273076	-0.366812	0.254881	0.340376	-0.195768	0.053336	-0.006388	0.659474	-0.396574	0.205979	-0.111682	0.001236	0.559196	
0.643231	3.95813	0	0	0.225383	-0.120074	-0.422576	0.741862	-0.079934	0.082101	0.026015	0.0200002	-0.256235	0.205482	0.189576	1.30164	-0.198395	0.371617	0.822489	-0.508245	-0.540444	0.203039	-0.400783	0.274664	-0.363656	0.254471	0.346639	-0.201505	0.0617362	-0.0135133	0.668922	-0.404384	0.214067	-0.116967	0.008218	0.564696	
0.644157	3.94745	0	0	0.224628	-0.117942	-0.427129	0.74653	-0.079934	0.082101	0.023904	0.0213795	-0.258963	0.207265	0.180701	1.31961	-0.194331	0.372896	0.817289	-0.504847	-0.536507	0.207507	-0.403212	0.276251	-0.360499	0.254061	0.352901	-0.207242	0.0701365	-0.0206385	0.678371	-0.412194	0.222156	-0.122253	0.0152	0.570196	
0.645084	3.93066	0	0	0.223874	-0.115809	-0.431683	0.751199	-0.079934	0.082101	0.021793	0.0227588	-0.261691	0.209047	0.171826	1.33759	-0.190268	0.374174	0.812088	-0.501449	-0.532571	0.211975	-0.405641	0.277838	-0.357343	0.253651	0.359164	-0.21298	0.0785368	-0.0277638	0.68782	-0.420004	0.230244	-0.127538	0.022182	0.575696	
0.645973	3.91846	0	0	0.223119	-0.113677	-0.436236	0.755868	-0.079934	0.082101	0.019682	0.024138	-0.264419	0.21083	0.162951	1.35557	-0.186205	0.375453	0.806888	-0.498051	-0.528635	0.216444	-0.408071	0.279426	-0.354187	0.253241	0.365427	-0.218717	0.086937	-0.034889	0.697268	-0.427814	0.238333	-0.132823	0.029164	0.581196	
0.646782	3.9032	0	0	0.22622	-0.115703	-0.436236	0.755868	-0.079934	0.082101	0.021039	0.0248897	-0.264419	0.21083	0.160484	1.35544	-0.190268	0.374174	0.799094	-0.492958	-0.535812	0.221133	-0.415355	0.284186	-0.357343	0.253651	0.359921	-0.215119	0.0831127	-0.0323903	0.694368	-0.42592	0.241031	-0.134586	0.0214268	0.594648	
0.64747	3.89709	0	0	0.229321	-0.11773	-0.436236	0.755868	-0.079934	0.082101	0.022396	0.0256415	-0.264419	0.21083	0.158016	1.35531	-0.194331	0.372896	0.7913	-0.487865	-0.542988	0.225823	-0.42264	0.288945	-0.360499	0.254061	0.354415	-0.211522	0.0792885	-0.0298915	0.691469	-0.424025	0.243729	-0.136348	0.0136895	0.608101	
0.647993	3.88641	0	0	0.232422	-0.119756	-0.436236	0.755868	-0.079934	0.082101	0.023753	0.0263933	-0.264419	0.21083	0.155549	1.35518	-0.198395	0.371617	0.783505	-0.482772	-0.550165	0.230513	-0.429924	0.293705	-0.363656	0.254471	0.34891	-0.207925	0.0754642	-0.0273928	0.68857	-0.422131	0.246427	-0.138111	0.00595225	0.621553	
0.648329	3.87878	0	0	0.235523	-0.121782	-0.436236	0.755868	-0.079934	0.082101	0.02511	0.027145	-0.264419	0.21083	0.153081	1.35505	-0.202458	0.370339	0.775711	-0.477679	-0.557342	0.235202	-0.437208	0.298465	-0.366812	0.254881	0.343404	-0.204327	0.07164	-0.024894	0.68567	-0.420236	0.249125	-0.139874	-0.001785	0.635005	
0.648525	3.86352	0	0	0.238625	-0.123809	-0.437796	0.760275	-0.0806898	0.0842372	0.0272217	0.0257652	-0.267146	0.212612	0.150615	1.35492	-0.207423	0.371617	0.770519	-0.474286	-0.562352	0.233781	-0.444486	0.303221	-0.375402	0.262146	0.337145	-0.198592	0.07164	-0.024894	0.676978	-0.414556	0.249125	-0.139874	-0.00643325	0.631325	
0.648649	3.862	0	0	0.241727	-0.125836	-0.439355	0.764682	-0.0814455	0.0863735	0.0293335	0.0243855	-0.269873	0.214394	0.148149	1.3548	-0.212388	0.372895	0.765327	-0.470894	-0.567362	0.23236	-0.451765	0.307976	-0.383991	0.269411	0.330885	-0.192857	0.07164	-0.024894	0.668285	-0.408876	0.249125	-0.139874	-0.0110815	0.627644	
0.648767	3.85589	0	0	0.244829	-0.127863	-0.440914	0.769088	-0.0822013	0.0885097	0.0314452	0.0230057	-0.2726	0.216176	0.145682	1.35467	-0.217352	0.374174	0.760134	-0.467501	-0.572371	0.230939	-0.459043	0.312732	-0.39258	0.276676	0.324626	-0.187122	0.07164	-0.024894	0.659593	-0.403196	0.249125	-0.139874	-0.0157298	0.623964	
0.648948	3.85132	0	0	0.247931	-0.12989	-0.442474	0.773495	-0.082957	0.090646	0.033557	0.021626	-0.275327	0.217958	0.143216	1.35454	-0.222317	0.375452	0.754942	-0.464108	-0.577381	0.229518	-0.466321	0.317488	-0.40117	0.283941	0.318367	-0.181387	0.07164	-0.024894	0.6509	-0.397516	0.249125	-0.139874	-0.020378	0.620283	
0.649248	3.84674	0	0	0.247931	-0.12989	-0.444814	0.78011	-0.0822013	0.0885097	0.033557	0.021626	-0.278053	0.219739	0.140812	1.36133	-0.217352	0.374174	0.747159	-0.459023	-0.570211	0.224832	-0.471924	0.322789	-0.40117	0.283941	0.318367	-0.181387	0.0678172	-0.022396	0.648004	-0.395624	0.249125	-0.139874	-0.0196055	0.6181	
0.649648	3.83758	0	0	0.247931	-0.12989	-0.447155	0.786724	-0.0814455	0.0863735	0.033557	0.021626	-0.280779	0.221521	0.138408	1.36813	-0.212388	0.372895	0.739377	-0.453937	-0.56304	0.220147	-0.477527	0.32809	-0.40117	0.283941	0.318367	-0.181387	0.0639945	-0.019898	0.645109	-0.393732	0.249125	-0.139874	-0.018833	0.615916	
0.65009	3.83606	0	0	0.247931	-0.12989	-0.449495	0.793339	-0.0806898	0.0842372	0.033557	0.021626	-0.283506	0.223302	0.136004	1.37492	-0.207423	0.371617	0.731595	-0.448852	-0.55587	0.215462	-0.483131	0.333391	-0.40117	0.283941	0.318367	-0.181387	0.0601718	-0.0174	0.642213	-0.391839	0.249125	-0.139874	-0.0180605	0.613733	
0.650521	3.82995	0	0	0.247931	-0.12989	-0.451835	0.799953	-0.079934	0.082101	0.033557	0.021626	-0.286232	0.225083	0.1336	1.38171	-0.202458	0.370339	0.723812	-0.443767	-0.548699	0.210776	-0.488734	0.338692	-0.40117	0.283941	0.318367	-0.181387	0.056349	-0.014902	0.639317	-0.389947	0.249125	-0.139874	-0.017288	0.61155	
0.650883	3.82385	0	0	0.245584	-0.129995	-0.454047	0.798008	-0.082517	0.082147	0.0237577	0.0263905	-0.291682	0.228644	0.127928	1.39065	-0.209232	0.376732	0.718627	-0.44038	-0.55086	0.216882	-0.487979	0.336559	-0.396496	0.279234	0.319124	-0.183527	0.0555957	-0.0127735	0.64146	-0.389711	0.251824	-0.141637	-0.015737	0.615573	
0.651124	3.81927	0	0	0.243236	-0.130101	-0.456259	0.796063	-0.0851	0.082193	0.0139585	0.031155	-0.297131	0.232205	0.122255	1.39958	-0.216007	0.383126	0.713443	-0.436992	-0.553021	0.222989	-0.487225	0.334426	-0.391822	0.274528	0.319881	-0.185667	0.0548425	-0.010645	0.643602	-0.389475	0.254522	-0.143401	-0.014186	0.619596	
0.651235	3.81012	0	0	0.240889	-0.130206	-0.45847	0.794117	-0.087683	0.082239	0.00415925	0.0359195	-0.302581	0.235766	0.116583	1.40851	-0.222782	0.389519	0.708259	-0.433605	-0.555181	0.229096	-0.48647	0.332294	-0.387147	0.269821	0.320638	-0.187806	0.0540893	-0.0085165	0.645744	-0.389239	0.257221	-0.145165	-0.012635	0.623619	
0.651245	3.80859	0	0	0.238541	-0.130311	-0.460682	0.792172	-0.090266	0.082285	-0.00564	0.040684	-0.308031	0.239327	0.110911	1.41745	-0.229556	0.395912	0.703074	-0.430217	-0.557342	0.235202	-0.485715	0.330161	-0.382473	0.265114	0.321395	-0.189946	0.053336	-0.006388	0.647887	-0.389003	0.25992	-0.146928	-0.011084	0.627642	
0.651182	3.80401	0	0	0.23234	-0.126259	-0.464324	0.786083	-0.0936035	0.0844658	-0.0140732	0.0461945	-0.313477	0.242886	0.099408	1.41451	-0.232707	0.392073	0.694548	-0.423005	-0.558423	0.238257	-0.484961	0.328029	-0.386387	0.267671	0.315896	-0.186353	0.0571588	-0.00888575	0.647134	-0.386875	0.264566	-0.148327	-0.0157252	0.640759	
0.651076	3.80096	0	0	0.226139	-0.122207	-0.467965	0.779993	-0.096941	0.0866465	-0.0225065	0.051705	-0.318924	0.246445	0.087905	1.41158	-0.235858	0.388234	0.686022	-0.415794	-0.559503	0.241312	-0.484206	0.325896	-0.3903	0.270228	0.310398	-0.18276	0.0609815	-0.0113835	0.646381	-0.384746	0.269212	-0.149726	-0.0203665	0.653876	
0.650955	3.79333	0	0	0.219939	-0.118156	-0.471607	0.773903	-0.100278	0.0888272	-0.0309397	0.0572155	-0.32437	0.250003	0.076402	1.40865	-0.23901	0.384396	0.677496	-0.408582	-0.560584	0.244366	-0.483452	0.323764	-0.394213	0.272786	0.304899	-0.179167	0.0648042	-0.0138813	0.645628	-0.382617	0.273859	-0.151124	-0.0250077	0.666993	
0.650846	3.78876	0	0	0.213738	-0.114104	-0.475249	0.767814	-0.103616	0.091008	-0.039373	0.062726	-0.329816	0.253562	0.064899	1.40571	-0.242161	0.380557	0.66897	-0.40137	-0.561665	0.247421	-0.482698	0.321632	-0.398127	0.275343	0.299401	-0.175574	0.068627	-0.016379	0.644875	-0.380489	0.278505	-0.152523	-0.029649	0.68011	
0.650775	3.78418	0	0	0.213738	-0.114104	-0.477459	0.765873	-0.103616	0.091008	-0.04148	0.0641028	-0.336014	0.259254	0.0615848	1.40092	-0.24531	0.376722	0.66897	-0.40137	-0.560584	0.244366	-0.483452	0.323764	-0.402799	0.280049	0.290402	-0.168049	0.0648042	-0.0138813	0.634051	-0.375053	0.267709	-0.145468	-0.0319705	0.678264	
0.650767	3.7796	0	0	0.213738	-0.114104	-0.479668	0.763932	-0.103616	0.091008	-0.043587	0.0654795	-0.342213	0.264945	0.0582705	1.39613	-0.24846	0.372888	0.66897	-0.40137	-0.559503	0.241312	-0.484206	0.325896	-0.407471	0.284754	0.281403	-0.160524	0.0609815	-0.0113835	0.623228	-0.369618	0.256912	-0.138413	-0.034292	0.676418	
0.650848	3.77655	0	0	0.213738	-0.114104	-0.481877	0.761991	-0.103616	0.091008	-0.045694	0.0668563	-0.348411	0.270637	0.0549562	1.39133	-0.251609	0.369054	0.66897	-0.40137	-0.558423	0.238257	-0.484961	0.328029	-0.412144	0.289459	0.272405	-0.152999	0.0571588	-0.00888575	0.612405	-0.364182	0.246115	-0.131359	-0.0366135	0.674571	
0.651042	3.77502	0	0	0.213738	-0.114104	-0.484087	0.76005	-0.103616	0.091008	-0.047801	0.068233	-0.354609	0.276328	0.051642	1.38654	-0.254759	0.365219	0.66897	-0.40137	-0.557342	0.235202	-0.485715	0.330161	-0.416816	0.294165	0.263406	-0.145474	0.053336	-0.006388	0.601581	-0.358746	0.235319	-0.124304	-0.038935	0.672725	
0.651355	3.76892	0	0	0.216838	-0.116129	-0.485645	0.764453	-0.103616	0.091008	-0.045694	0.0668563	-0.356574	0.27597	0.0483857	1.38867	-0.253856	0.362666	0.671559	-0.403062	-0.555181	0.229096	-0.485715	0.330161	-0.416056	0.292015	0.261418	-0.14582	0.0502683	-0.00601975	0.596552	-0.357096	0.233376	-0.124671	-0.0420292	0.664667	
0.651751	3.76434	0	0	0.219938	-0.118155	-0.487202	0.768856	-0.103616	0.091008	-0.043587	0.0654795	-0.358538	0.275613	0.0451295	1.3908	-0.252952	0.360112	0.674149	-0.404754	-0.553021	0.222989	-0.485715	0.330161	-0.415295	0.289866	0.259429	-0.146166	0.0472005	-0.0056515	0.591522	-0.355445	0.231432	-0.125039	-0.0451235	0.65661	
0.652184	3.75519	0	0	0.223037	-0.12018	-0.48876	0.773258	-0.103616	0.091008	-0.04148	0.0641028	-0.360503	0.275255	0.0418733	1.39293	-0.252049	0.357559	0.676739	-0.406446	-0.55086	0.216882	-0.485715	0.330161	-0.414534	0.287717	0.257441	-0.146512	0.0441327	-0.00528325	0.586492	-0.353795	0.229488	-0.125407	-0.0482178	0.648553	
0.652609	3.75519	0	0	0.226137	-0.122206	-0.490318	0.777661	-0.103616	0.091008	-0.039373	0.062726	-0.362468	0.274897	0.038617	1.39505	-0.251145	0.355005	0.679328	-0.408138	-0.548699	0.210776	-0.485715	0.330161	-0.413774	0.285567	0.255453	-0.146858	0.041065	-0.004915	0.581463	-0.352145	0.227545	-0.125774	-0.051312	0.640495	
0.652982	3.74908	0	0	0.223037	-0.12018	-0.493305	0.77792	-0.106952	0.093188	-0.0435865	0.0654793	-0.362468	0.274897	0.0362155	1.40184	-0.246187	0.353729	0.682674	-0.411965	-0.543683	0.212193	-0.480112	0.32486	-0.413013	0.283418	0.258956	-0.150791	0.041065	-0.004915	0.581463	-0.352145	0.228298	-0.127903	-0.0474463	0.637969	
0.653256	3.75213	0	0	0.219938	-0.118155	-0.496291	0.778179	-0.110288	0.095368	-0.0478	0.0682325	-0.362468	0.274897	0.033814	1.40863	-0.241229	0.352452	0.686019	-0.415791	-0.538667	0.21361	-0.474509	0.31956	-0.412253	0.281269	0.262458	-0.154724	0.041065	-0.004915	0.581463	-0.352145	0.229052	-0.130032	-0.0435805	0.635443	
0.653376	3.74145	0	0	0.216838	-0.116129	-0.499278	0.778438	-0.113625	0.097548	-0.0520135	0.0709858	-0.362468	0.274897	0.0314125	1.41541	-0.236271	0.351176	0.689365	-0.419618	-0.533651	0.215027	-0.468906	0.314259	-0.411492	0.279119	0.26596	-0.158658	0.041065	-0.004915	0.581463	-0.352145	0.229805	-0.132161	-0.0397148	0.632917	
0.653286	3.74298	0	0	0.213738	-0.114104	-0.502265	0.778697	-0.116961	0.099728	-0.056227	0.073739	-0.362468	0.274897	0.029011	1.4222	-0.231313	0.349899	0.69271	-0.423445	-0.528635	0.216444	-0.463303	0.308959	-0.410732	0.27697	0.269463	-0.162591	0.041065	-0.004915	0.581463	-0.352145	0.230559	-0.13429	-0.035849	0.630391	
0.65293	3.74298	0	0	0.207542	-0.110055	-0.508882	0.772874	-0.12363	0.104085	-0.0688553	0.0819905	-0.370623	0.280226	0.0191993	1.42166	-0.240322	0.349898	0.69012	-0.421753	-0.522533	0.214805	-0.460877	0.307374	-0.409972	0.274821	0.266717	-0.160797	0.044886	-0.00741175	0.584354	-0.354034	0.232503	-0.133923	-0.0350733	0.636602	
0.652249	3.73993	0	0	0.201346	-0.106007	-0.515499	0.767051	-0.130298	0.108442	-0.0814835	0.090242	-0.378778	0.285554	0.0093875	1.42111	-0.249331	0.349897	0.68753	-0.42006	-0.516431	0.213167	-0.458452	0.305789	-0.409212	0.272673	0.263972	-0.159004	0.048707	-0.0099085	0.587244	-0.355923	0.234446	-0.133556	-0.0342975	0.642814	
0.6512	3.73993	0	0	0.195149	-0.101958	-0.522116	0.761228	-0.136967	0.1128	-0.0941117	0.0984935	-0.386933	0.290883	-0.00042425	1.42057	-0.258341	0.349897	0.684939	-0.418368	-0.51033	0.211529	-0.456027	0.304205	-0.408451	0.270525	0.261227	-0.15721	0.052528	-0.0124052	0.590135	-0.357811	0.236389	-0.13319	-0.0335217	0.649025	
0.649859	3.7384	0	0	0.188953	-0.097909	-0.528733	0.755405	-0.143635	0.117157	-0.10674	0.106745	-0.395088	0.296212	-0.010236	1.42002	-0.26735	0.349896	0.682349	-0.416675	-0.504228	0.20989	-0.453601	0.30262	-0.407691	0.268376	0.258481	-0.155416	0.056349	-0.014902	0.593026	-0.3597	0.238333	-0.132823	-0.032746	0.655236	
0.648369	3.73535	0	0	0.188953	-0.097909	-0.528606	0.746878	-0.146968	0.119334	-0.110945	0.109493	-0.400521	0.299762	-0.018433	1.41496	-0.270496	0.346069	0.679759	-0.414983	-0.503147	0.206835	-0.460875	0.307373	-0.408451	0.270525	0.247508	-0.148246	0.0487085	-0.00990975	0.578582	-0.350262	0.230244	-0.127538	-0.0420242	0.656259	
0.646872	3.73535	0	0	0.188953	-0.097909	-0.528479	0.738351	-0.1503	0.121512	-0.115151	0.112241	-0.405953	0.303311	-0.02663	1.40989	-0.273642	0.342243	0.67717	-0.413291	-0.502066	0.203781	-0.468149	0.312126	-0.409212	0.272673	0.236536	-0.141076	0.041068	-0.0049175	0.564139	-0.340824	0.222156	-0.122253	-0.0513025	0.657283	
0.64551	3.72925	0	0	0.188953	-0.097909	-0.528351	0.729824	-0.153633	0.12369	-0.119356	0.114989	-0.411386	0.306861	-0.034827	1.40483	-0.276788	0.338416	0.674581	-0.411599	-0.500986	0.200726	-0.475424	0.316879	-0.409972	0.274821	0.225563	-0.133906	0.0334275	7.475E-05	0.549695	-0.331386	0.214067	-0.116967	-0.0605808	0.658307	
0.644421	3.72162	0	0	0.188953	-0.097909	-0.528224	0.721297	-0.156965	0.125867	-0.123561	0.117737	-0.416818	0.310411	-0.043024	1.39976	-0.279934	0.334589	0.671991	-0.409907	-0.499905	0.197671	-0.482698	0.321632	-0.410732	0.27697	0.21459	-0.126736	0.025787	0.005067	0.535251	-0.321948	0.205979	-0.111682	-0.069859	0.65933	
0.643624	3.72009	0	0	0.185102	-0.0937537	-0.528224	0.721297	-0.157721	0.128003	-0.127764	0.120483	-0.418778	0.31005	-0.043874	1.39511	-0.272277	0.325667	0.671991	-0.409907	-0.503847	0.193206	-0.488298	0.326931	-0.41931	0.284227	0.208352	-0.121015	0.0181535	0.010055	0.526596	-0.316293	0.197898	-0.106402	-0.0775793	0.655984	
0.643044	3.71551	0	0	0.181251	-0.0895985	-0.528224	0.721297	-0.158476	0.130138	-0.131968	0.123229	-0.420737	0.30969	-0.044724	1.39046	-0.26462	0.316745	0.671991	-0.409907	-0.507789	0.188742	-0.493899	0.332229	-0.427889	0.291485	0.202114	-0.115294	0.01052	0.015043	0.517942	-0.310638	0.189818	-0.101122	-0.0852995	0.652639	
0.642603	3.70636	0	0	0.1774	-0.0854432	-0.528224	0.721297	-0.159232	0.132274	-0.136171	0.125976	-0.422697	0.309329	-0.045574	1.38581	-0.256963	0.307823	0.671991	-0.409907	-0.511731	0.184277	-0.499499	0.337528	-0.436468	0.298743	0.195876	-0.109574	0.0028865	0.020031	0.509287	-0.304983	0.181737	-0.0958413	-0.0930197	0.649293	
0.642221	3.70026	0	0	0.173549	-0.081288	-0.528224	0.721297	-0.159988	0.13441	-0.140374	0.128722	-0.424657	0.308968	-0.046424	1.38116	-0.249306	0.298901	0.671991	-0.409907	-0.515673	0.179812	-0.505099	0.342827	-0.445046	0.306	0.189638	-0.103853	-0.004747	0.025019	0.500632	-0.299328	0.173656	-0.090561	-0.10074	0.645947	
0.641821	3.69568	0	0	0.173549	-0.081288	-0.536514	0.728402	-0.163319	0.136586	-0.140374	0.128722	-0.425412	0.311103	-0.0488195	1.38793	-0.251109	0.303998	0.668647	-0.406081	-0.508491	0.175119	-0.505854	0.344959	-0.441898	0.305596	0.191621	-0.103504	-0.003994	0.0228908	0.501385	-0.301455	0.169026	-0.0891727	-0.0945662	0.636884	
0.641378	3.69263	0	0	0.173549	-0.081288	-0.544804	0.735507	-0.16665	0.138763	-0.140374	0.128722	-0.426168	0.313238	-0.051215	1.3947	-0.252913	0.309095	0.665304	-0.402255	-0.501308	0.170426	-0.506609	0.347092	-0.438751	0.305192	0.193604	-0.103155	-0.003241	0.0207625	0.502137	-0.303583	0.164397	-0.0877845	-0.0883925	0.627821	
0.640928	3.68652	0	0	0.173549	-0.081288	-0.553094	0.742611	-0.169981	0.140939	-0.140374	0.128722	-0.426923	0.315372	-0.0536105	1.40147	-0.254717	0.314193	0.66196	-0.39843	-0.494125	0.165732	-0.507363	0.349224	-0.435604	0.304788	0.195587	-0.102805	-0.002488	0.0186342	0.50289	-0.30571	0.159767	-0.0863963	-0.0822188	0.618757	
0.640513	3.685	0	0	0.173549	-0.081288	-0.561384	0.749716	-0.173312	0.143116	-0.140374	0.128722	-0.427678	0.317507	-0.056006	1.40824	-0.25652	0.31929	0.658616	-0.394604	-0.486943	0.161039	-0.508118	0.351357	-0.432456	0.304384	0.19757	-0.102456	-0.001735	0.016506	0.503643	-0.307838	0.155137	-0.085008	-0.076045	0.609694	
0.640171	3.68194	0	0	0.16736	-0.0772435	-0.563584	0.747779	-0.176642	0.145292	-0.145329	0.133598	-0.429637	0.317146	-0.060848	1.41488	-0.25652	0.31929	0.656783	-0.395047	-0.486943	0.161039	-0.512207	0.352389	-0.427785	0.29968	0.198327	-0.104596	0.002081	0.0140128	0.506527	-0.309723	0.161273	-0.090654	-0.0744993	0.613713	
0.639943	3.67584	0	0	0.16117	-0.073199	-0.565785	0.745841	-0.179972	0.147468	-0.150284	0.138475	-0.431596	0.316785	-0.06569	1.42151	-0.25652	0.31929	0.65495	-0.39549	-0.486943	0.161039	-0.516295	0.353421	-0.423115	0.294976	0.199084	-0.106736	0.005897	0.0115195	0.509411	-0.311607	0.167409	-0.0963	-0.0729535	0.617732	
0.639825	3.67584	0	0	0.154981	-0.0691545	-0.567986	0.743904	-0.183301	0.149643	-0.15524	0.143351	-0.433554	0.316423	-0.070532	1.42815	-0.25652	0.31929	0.653118	-0.395934	-0.486943	0.161039	-0.520383	0.354453	-0.418444	0.290271	0.199841	-0.108875	0.009713	0.00902625	0.512295	-0.313491	0.173546	-0.101946	-0.0714077	0.621751	
0.639742	3.66974	0	0	0.148792	-0.06511	-0.570186	0.741966	-0.186631	0.151819	-0.160195	0.148227	-0.435513	0.316062	-0.075374	1.43479	-0.25652	0.31929	0.651285	-0.396377	-0.486943	0.161039	-0.524472	0.355485	-0.413774	0.285567	0.200598	-0.111015	0.013529	0.006533	0.515179	-0.315376	0.179682	-0.107592	-0.069862	0.62577	
0.639612	3.66974	0	0	0.148792	-0.06511	-0.571609	0.737836	-0.186631	0.151819	-0.166493	0.152342	-0.44365	0.321379	-0.0803072	1.4276	-0.258767	0.312923	0.643526	-0.391307	-0.491967	0.159632	-0.533396	0.359677	-0.416924	0.285973	0.192381	-0.105645	0.009713	0.00902625	0.515179	-0.315376	0.173546	-0.101946	-0.0775842	0.639206	
0.639354	3.66974	0	0	0.148792	-0.06511	-0.573033	0.733706	-0.186631	0.151819	-0.172791	0.156457	-0.451788	0.326696	-0.0852405	1.42041	-0.261015	0.306556	0.635767	-0.386237	-0.496991	0.158225	-0.54232	0.363869	-0.420073	0.286378	0.184163	-0.100276	0.005897	0.0115195	0.515179	-0.315376	0.167409	-0.0963	-0.0853065	0.652643	
0.638886	3.67279	0	0	0.148792	-0.06511	-0.574456	0.729576	-0.186631	0.151819	-0.179089	0.160573	-0.459925	0.332013	-0.0901737	1.41323	-0.263262	0.300189	0.628007	-0.381167	-0.502015	0.156819	-0.551243	0.36806	-0.423222	0.286784	0.175945	-0.0949058	0.002081	0.0140127	0.515179	-0.315376	0.161273	-0.090654	-0.0930287	0.666079	
0.638206	3.66821	0	0	0.148792	-0.06511	-0.57588	0.725446	-0.186631	0.151819	-0.185387	0.164688	-0.468062	0.33733	-0.095107	1.40604	-0.265509	0.293822	0.620248	-0.376097	-0.507039	0.155412	-0.560167	0.372252	-0.426372	0.287189	0.167728	-0.089536	-0.001735	0.016506	0.515179	-0.315376	0.155137	-0.085008	-0.100751	0.679515	
0.637487	3.66974	0	0	0.148792	-0.06511	-0.576656	0.727639	-0.186631	0.151819	-0.183288	0.163317	-0.467307	0.335196	-0.092714	1.39928	-0.269557	0.292553	0.618418	-0.376542	-0.504882	0.149316	-0.565756	0.377544	-0.434947	0.294444	0.16499	-0.0877472	-0.00554925	0.0189985	0.512295	-0.313491	0.1532	-0.0853788	-0.102292	0.675487	
0.636926	3.66974	0	0	0.148792	-0.06511	-0.577432	0.729832	-0.186631	0.151819	-0.18119	0.161946	-0.466552	0.333062	-0.090321	1.39251	-0.273605	0.291284	0.616588	-0.376987	-0.502726	0.14322	-0.571346	0.382835	-0.443522	0.3017	0.162253	-0.0859585	-0.0093635	0.021491	0.509411	-0.311607	0.151263	-0.0857495	-0.103833	0.671458	
0.636721	3.66516	0	0	0.148792	-0.06511	-0.578208	0.732026	-0.186631	0.151819	-0.179091	0.160574	-0.465796	0.330927	-0.087928	1.38575	-0.277653	0.290014	0.614759	-0.377431	-0.500569	0.137124	-0.576935	0.388126	-0.452096	0.308955	0.159516	-0.0841698	-0.0131778	0.0239835	0.506527	-0.309723	0.149326	-0.0861202	-0.105375	0.66743	
0.637068	3.66058	0	0	0.148792	-0.06511	-0.578984	0.734219	-0.186631	0.151819	-0.176992	0.159203	-0.465041	0.328793	-0.085535	1.37899	-0.281701	0.288745	0.612929	-0.377876	-0.498412	0.131028	-0.582525	0.393418	-0.460671	0.31621	0.156778	-0.082381	-0.016992	0.026476	0.503643	-0.307838	0.147389	-0.086491	-0.106916	0.663402	
0.638063	3.65906	0	0	0.151886	-0.0671318	-0.580537	0.738607	-0.186631	0.151819	-0.169938	0.152956	-0.465041	0.328793	-0.0846878	1.38363	-0.276752	0.287468	0.612929	-0.377876	-0.503433	0.129626	-0.584941	0.394997	-0.456765	0.313657	0.159516	-0.0841698	-0.016992	0.026476	0.503643	-0.307838	0.147389	-0.086491	-0.105372	0.659038	
0.639504	3.65906	0	0	0.15498	-0.0691535	-0.58209	0.742996	-0.186631	0.151819	-0.162885	0.146708	-0.465041	0.328793	-0.0838405	1.38828	-0.271803	0.286191	0.612929	-0.377876	-0.508454	0.128223	-0.587357	0.396576	-0.452858	0.311105	0.162253	-0.0859585	-0.016992	0.026476	0.503643	-0.307838	0.147389	-0.086491	-0.103828	0.654675	
0.641137	3.65295	0	0	0.158074	-0.0711752	-0.583642	0.747385	-0.186631	0.151819	-0.155832	0.14046	-0.465041	0.328793	-0.0829932	1.39292	-0.266855	0.284915	0.612929	-0.377876	-0.513475	0.126821	-0.589774	0.398155	-0.448952	0.308553	0.16499	-0.0877472	-0.016992	0.026476	0.503643	-0.307838	0.147389	-0.086491	-0.102284	0.650311	
0.642705	3.64838	0	0	0.161168	-0.073197	-0.585195	0.751773	-0.186631	0.151819	-0.148778	0.134213	-0.465041	0.328793	-0.082146	1.39757	-0.261906	0.283638	0.612929	-0.377876	-0.518496	0.125418	-0.59219	0.399734	-0.445046	0.306	0.167728	-0.089536	-0.016992	0.026476	0.503643	-0.307838	0.147389	-0.086491	-0.10074	0.645947	
0.643953	3.64685	0	0	0.158074	-0.0711752	-0.589723	0.756419	-0.18996	0.153994	-0.148778	0.134213	-0.465796	0.330927	-0.0796072	1.41153	-0.262807	0.286184	0.612174	-0.375742	-0.516342	0.11933	-0.584184	0.392863	-0.444285	0.303851	0.179443	-0.098836	-0.0131778	0.0239835	0.509412	-0.311607	0.154709	-0.0896378	-0.103056	0.652494	
0.644678	3.64227	0	0	0.15498	-0.0691535	-0.59425	0.761065	-0.193288	0.156169	-0.148778	0.134213	-0.466552	0.333062	-0.0770685	1.4255	-0.263707	0.28873	0.611419	-0.373609	-0.514188	0.113242	-0.576178	0.385993	-0.443525	0.301702	0.191159	-0.108136	-0.0093635	0.021491	0.515181	-0.315377	0.162029	-0.0927845	-0.105373	0.65904	
0.644932	3.64532	0	0	0.151886	-0.0671318	-0.598777	0.765711	-0.196616	0.158344	-0.148778	0.134213	-0.467307	0.335196	-0.0745298	1.43946	-0.264608	0.291276	0.610664	-0.371475	-0.512034	0.107155	-0.568173	0.379123	-0.442765	0.299553	0.202875	-0.117436	-0.00554925	0.0189985	0.52095	-0.319146	0.169349	-0.0959312	-0.107689	0.665586	
0.644837	3.64227	0	0	0.148792	-0.06511	-0.603305	0.770357	-0.199945	0.160519	-0.148778	0.134213	-0.468062	0.33733	-0.071991	1.45342	-0.265509	0.293822	0.609909	-0.369341	-0.50988	0.101067	-0.560167	0.372252	-0.442004	0.297404	0.21459	-0.126736	-0.001735	0.016506	0.526719	-0.322916	0.176669	-0.099078	-0.110005	0.672133	
0.644514	3.64532	0	0	0.146453	-0.0652213	-0.604725	0.766223	-0.202517	0.160557	-0.148778	0.134213	-0.475436	0.340508	-0.078478	1.45766	-0.268657	0.290008	0.600333	-0.364724	-0.518127	0.108796	-0.560167	0.372252	-0.442004	0.297404	0.21459	-0.126736	-0.000982	0.0143785	0.530358	-0.326929	0.180115	-0.102966	-0.11155	0.6765	
0.644087	3.65143	0	0	0.144115	-0.0653325	-0.606144	0.762089	-0.205088	0.160596	-0.148778	0.134213	-0.48281	0.343685	-0.084965	1.4619	-0.271805	0.286194	0.590757	-0.360107	-0.526374	0.116525	-0.560167	0.372252	-0.442004	0.297404	0.21459	-0.126736	-0.000229	0.012251	0.533996	-0.330941	0.183561	-0.106854	-0.113096	0.680867	
0.643674	3.64838	0	0	0.141776	-0.0654437	-0.607564	0.757956	-0.207659	0.160634	-0.148778	0.134213	-0.490185	0.346863	-0.091452	1.46614	-0.274952	0.28238	0.58118	-0.35549	-0.534622	0.124253	-0.560167	0.372252	-0.442004	0.297404	0.21459	-0.126736	0.000524	0.0101235	0.537635	-0.334954	0.187007	-0.110742	-0.114641	0.685234	
0.643361	3.64532	0	0	0.139437	-0.065555	-0.608984	0.753822	-0.210231	0.160672	-0.148778	0.134213	-0.497559	0.350041	-0.097939	1.47038	-0.2781	0.278566	0.571604	-0.350873	-0.542869	0.131982	-0.560167	0.372252	-0.442004	0.297404	0.21459	-0.126736	0.001277	0.007996	0.541273	-0.338967	0.190453	-0.11463	-0.116186	0.689601	
0.643222	3.6438	0	0	0.136345	-0.0635345	-0.609628	0.7475	-0.213557	0.162845	-0.148778	0.134213	-0.503729	0.355714	-0.097983	1.46346	-0.281246	0.274756	0.563109	-0.343681	-0.538564	0.119815	-0.562585	0.373832	-0.449815	0.302508	0.20637	-0.121365	-0.00329025	0.012616	0.534749	-0.333069	0.179687	-0.107595	-0.124672	0.696825	
0.64333	3.64227	0	0	0.133253	-0.061514	-0.610272	0.741178	-0.216883	0.165019	-0.148778	0.134213	-0.509899	0.361386	-0.098027	1.45654	-0.284392	0.270945	0.554613	-0.33649	-0.534259	0.107648	-0.565002	0.375412	-0.457626	0.307612	0.19815	-0.115993	-0.0078575	0.017236	0.528226	-0.327172	0.168921	-0.10056	-0.133157	0.704049	
0.643759	3.64075	0	0	0.130161	-0.0594935	-0.610917	0.734857	-0.220208	0.167192	-0.148778	0.134213	-0.51607	0.367058	-0.098071	1.44962	-0.287537	0.267135	0.546118	-0.329298	-0.529954	0.095481	-0.56742	0.376992	-0.465437	0.312715	0.189929	-0.110622	-0.0124248	0.021856	0.521703	-0.321274	0.158155	-0.0935257	-0.141643	0.711272	
0.644572	3.63769	0	0	0.127069	-0.057473	-0.611561	0.728535	-0.223534	0.169365	-0.148778	0.134213	-0.52224	0.372731	-0.098115	1.4427	-0.290683	0.263325	0.537622	-0.322107	-0.525649	0.083314	-0.569838	0.378572	-0.473248	0.317819	0.181709	-0.105251	-0.016992	0.026476	0.515179	-0.315376	0.147389	-0.086491	-0.150128	0.718496	
0.645702	3.63312	0	0	0.126314	-0.0553408	-0.609365	0.73047	-0.22429	0.171501	-0.146677	0.13284	-0.52224	0.372731	-0.0989142	1.44496	-0.295625	0.2646	0.532466	-0.318738	-0.530663	0.0819182	-0.56742	0.376992	-0.477911	0.322518	0.178971	-0.103462	-0.016992	0.026476	0.509412	-0.311608	0.143946	-0.0826052	-0.156288	0.719163	
0.646999	3.62854	0	0	0.12556	-0.0532085	-0.607168	0.732406	-0.225046	0.173636	-0.144576	0.131468	-0.52224	0.372731	-0.0997135	1.44722	-0.300567	0.265875	0.52731	-0.315368	-0.535678	0.0805225	-0.565002	0.375412	-0.482575	0.327218	0.176232	-0.101672	-0.016992	0.026476	0.503645	-0.307839	0.140504	-0.0787195	-0.162448	0.71983	
0.648307	3.62091	0	0	0.124805	-0.0510763	-0.604972	0.734341	-0.225801	0.175772	-0.142475	0.130095	-0.52224	0.372731	-0.100513	1.44948	-0.305509	0.267151	0.522153	-0.311999	-0.540692	0.0791267	-0.562585	0.373832	-0.487238	0.331917	0.173493	-0.0998833	-0.016992	0.026476	0.497879	-0.304071	0.137062	-0.0748338	-0.168608	0.720497	
0.649473	3.61786	0	0	0.124051	-0.048944	-0.602776	0.736276	-0.226557	0.177908	-0.140374	0.128722	-0.52224	0.372731	-0.101312	1.45173	-0.310451	0.268426	0.516997	-0.30863	-0.545706	0.077731	-0.560167	0.372252	-0.491901	0.336616	0.170755	-0.098094	-0.016992	0.026476	0.492112	-0.300303	0.133619	-0.070948	-0.174768	0.721164	
0.650345	3.61175	0	0	0.124051	-0.048944	-0.605881	0.745051	-0.226557	0.177908	-0.136171	0.125976	-0.52224	0.372731	-0.098826	1.4588	-0.306408	0.269693	0.516997	-0.30863	-0.546781	0.0807693	-0.556084	0.371223	-0.487998	0.334066	0.178216	-0.101324	-0.017745	0.028604	0.494242	-0.300059	0.138998	-0.074463	-0.171689	0.720831	
0.650834	3.60565	0	0	0.124051	-0.048944	-0.608985	0.753826	-0.226557	0.177908	-0.131968	0.123229	-0.52224	0.372731	-0.09634	1.46586	-0.302366	0.27096	0.516997	-0.30863	-0.547856	0.0838075	-0.552001	0.370194	-0.484096	0.331516	0.185676	-0.104554	-0.018498	0.030732	0.496372	-0.299816	0.144378	-0.077978	-0.16861	0.720498	
