3.40423	0	0	0	0	-0.5775	-0.116907	0.736335	1.37806	0.470852	1.14036	0.254144	0.714504	-0.051966	0.644654	0.595396	0.747594	0.37369	0.785666	0.34934	0.49439	0.389597	1.11909	0.407474	0.905275	0.009995	0.506781	-0.057052	0.212109	-0.831858	-0.359514	-0.182146	-0.102984	-0.32094	0.040035	
3.40423	0	0	0	0	-0.587346	-0.11996	0.728327	1.38329	0.473512	1.13284	0.256616	0.707516	-0.0480695	0.633642	0.588149	0.743583	0.386017	0.772474	0.34934	0.49439	0.379852	1.12886	0.407474	0.905275	0.00795975	0.512533	-0.0590212	0.217675	-0.841117	-0.344489	-0.190915	-0.0903088	-0.324615	0.0504192	
3.40576	0	0	0	0	-0.597193	-0.123012	0.72032	1.38852	0.476172	1.12532	0.259089	0.700528	-0.044173	0.62263	0.580903	0.739572	0.398344	0.759283	0.34934	0.49439	0.370108	1.13864	0.407474	0.905275	0.0059245	0.518285	-0.0609905	0.223241	-0.850376	-0.329464	-0.199684	-0.0776335	-0.328289	0.0608035	
3.40271	0	0	0	0	-0.607039	-0.126065	0.712312	1.39375	0.478833	1.11781	0.261562	0.69354	-0.0402765	0.611619	0.573656	0.735561	0.41067	0.746092	0.34934	0.49439	0.360363	1.14841	0.407474	0.905275	0.00388925	0.524038	-0.0629597	0.228807	-0.859636	-0.314438	-0.208452	-0.0649582	-0.331963	0.0711878	
3.39813	0	0	0	0	-0.616885	-0.129118	0.704304	1.39899	0.481493	1.11029	0.264034	0.686552	-0.03638	0.600607	0.566409	0.73155	0.422997	0.7329	0.34934	0.49439	0.350618	1.15819	0.407474	0.905275	0.001854	0.52979	-0.064929	0.234373	-0.868895	-0.299413	-0.217221	-0.052283	-0.335638	0.081572	
3.39508	0	0	0	0	-0.609595	-0.12914	0.707895	1.40624	0.489999	1.11244	0.264034	0.686552	-0.0344337	0.595106	0.575669	0.729871	0.42536	0.726223	0.34934	0.49439	0.357225	1.15728	0.405694	0.910305	0.001854	0.52979	-0.05321	0.226716	-0.875012	-0.304391	-0.214823	-0.0590598	-0.337221	0.076618	
3.3905	0	0	0	0	-0.602305	-0.129161	0.711487	1.41349	0.498506	1.11459	0.264034	0.686552	-0.0324875	0.589606	0.584929	0.728192	0.427722	0.719545	0.34934	0.49439	0.363831	1.15638	0.403914	0.915335	0.001854	0.52979	-0.041491	0.219058	-0.88113	-0.309368	-0.212425	-0.0658365	-0.338805	0.071664	
3.38745	0	0	0	0	-0.595015	-0.129183	0.715078	1.42073	0.507012	1.11674	0.264034	0.686552	-0.0305412	0.584105	0.594189	0.726513	0.430085	0.712868	0.34934	0.49439	0.370437	1.15547	0.402134	0.920364	0.001854	0.52979	-0.029772	0.2114	-0.887247	-0.314346	-0.210027	-0.0726133	-0.340388	0.06671	
3.38592	0	0	0	0	-0.587725	-0.129205	0.718669	1.42798	0.515519	1.11888	0.264034	0.686552	-0.028595	0.578604	0.603449	0.724834	0.432447	0.706191	0.34934	0.49439	0.377044	1.15456	0.400354	0.925394	0.001854	0.52979	-0.018053	0.203743	-0.893365	-0.319324	-0.207629	-0.07939	-0.341971	0.061756	
3.38745	0	0	0	0	-0.582611	-0.123053	0.714247	1.44048	0.521372	1.12857	0.27049	0.68502	-0.0190113	0.572342	0.612723	0.723149	0.430085	0.712868	0.34699	0.50103	0.382087	1.15809	0.419978	0.916441	0.001854	0.52979	-0.029772	0.2114	-0.892333	-0.32224	-0.212398	-0.0780093	-0.337632	0.0589208	
3.38135	0	0	0	0	-0.577497	-0.116902	0.709824	1.45298	0.527225	1.13826	0.276945	0.683487	-0.0094275	0.56608	0.621997	0.721464	0.427722	0.719545	0.344641	0.50767	0.38713	1.16162	0.439601	0.907488	0.001854	0.52979	-0.041491	0.219058	-0.891301	-0.325156	-0.217168	-0.0766285	-0.333292	0.0560855	
3.37372	0	0	0	0	-0.572384	-0.110751	0.705402	1.46548	0.533079	1.14794	0.283401	0.681955	0.00015625	0.559817	0.63127	0.719779	0.42536	0.726223	0.342292	0.51431	0.392172	1.16515	0.459225	0.898534	0.001854	0.52979	-0.05321	0.226716	-0.890269	-0.328073	-0.221938	-0.0752478	-0.328952	0.0532502	
3.37219	0	0	0	0	-0.56727	-0.104599	0.700979	1.47798	0.538932	1.15762	0.289857	0.680422	0.00974	0.553555	0.640544	0.718094	0.422997	0.7329	0.339942	0.52095	0.397215	1.16868	0.478849	0.889581	0.001854	0.52979	-0.064929	0.234373	-0.889237	-0.330989	-0.226707	-0.073867	-0.324613	0.050415	
3.37219	0	0	0	0	-0.570551	-0.0953268	0.691496	1.48738	0.533128	1.16528	0.289857	0.680422	0.0077935	0.559056	0.649831	0.716403	0.420633	0.739582	0.338767	0.524272	0.395643	1.17312	0.477067	0.894616	0.0128937	0.522576	-0.05321	0.226716	-0.886178	-0.328503	-0.221938	-0.0752478	-0.32645	0.0556072	
3.37067	0	0	0	0	-0.573832	-0.0860545	0.682012	1.49679	0.527324	1.17294	0.289857	0.680422	0.005847	0.564557	0.659118	0.714711	0.418268	0.746264	0.337592	0.527594	0.394072	1.17757	0.475286	0.899652	0.0239335	0.515362	-0.041491	0.219058	-0.88312	-0.326017	-0.217168	-0.0766285	-0.328287	0.0607995	
3.36761	0	0	0	0	-0.577113	-0.0767822	0.672528	1.50619	0.521519	1.1806	0.289857	0.680422	0.0039005	0.570058	0.668406	0.71302	0.415903	0.752946	0.336416	0.530915	0.3925	1.18201	0.473504	0.904687	0.0349732	0.508149	-0.029772	0.2114	-0.880062	-0.323531	-0.212398	-0.0780093	-0.330125	0.0659918	
3.36914	0	0	0	0	-0.580394	-0.06751	0.663045	1.51559	0.515715	1.18826	0.289857	0.680422	0.001954	0.575559	0.677693	0.711329	0.413539	0.759628	0.335241	0.534237	0.390928	1.18645	0.471722	0.909723	0.046013	0.500935	-0.018053	0.203743	-0.877003	-0.321045	-0.207629	-0.07939	-0.331962	0.071184	
3.36304	0	0	0	0	-0.578578	-0.0829457	0.650002	1.5177	0.519271	1.1782	0.287106	0.671483	0.0077895	0.559067	0.672431	0.701644	0.410665	0.746106	0.335241	0.534237	0.394071	1.17757	0.471722	0.909723	0.046013	0.500935	-0.018053	0.203743	-0.873943	-0.318557	-0.207629	-0.07939	-0.327874	0.0785025	
3.35846	0	0	0	0	-0.576762	-0.0983815	0.636959	1.51981	0.522828	1.16815	0.284356	0.662544	0.013625	0.542574	0.667169	0.691958	0.407791	0.732584	0.335241	0.534237	0.397213	1.16869	0.471722	0.909723	0.046013	0.500935	-0.018053	0.203743	-0.870883	-0.316069	-0.207629	-0.07939	-0.323786	0.085821	
3.3493	0	0	0	0	-0.574947	-0.113817	0.623916	1.52193	0.526385	1.1581	0.281606	0.653605	0.0194605	0.526081	0.661908	0.682273	0.404916	0.719063	0.335241	0.534237	0.400356	1.1598	0.471722	0.909723	0.046013	0.500935	-0.018053	0.203743	-0.867823	-0.313581	-0.207629	-0.07939	-0.319699	0.0931395	
3.3493	0	0	0	0	-0.573131	-0.129253	0.610873	1.52404	0.529941	1.14805	0.278855	0.644666	0.025296	0.509589	0.656646	0.672588	0.402042	0.705541	0.335241	0.534237	0.403499	1.15092	0.471722	0.909723	0.046013	0.500935	-0.018053	0.203743	-0.864763	-0.311093	-0.207629	-0.07939	-0.315611	0.100458	
3.35235	0	0	0	0	-0.577154	-0.138476	0.602888	1.52926	0.535743	1.1404	0.283789	0.630723	0.0234767	0.493909	0.662674	0.65555	0.401517	0.685404	0.332859	0.523034	0.396549	1.13502	0.468134	0.896595	0.0541468	0.477948	-0.0160838	0.198177	-0.878065	-0.306889	-0.2116	-0.0802665	-0.317195	0.0954978	
3.34778	0	0	0	0	-0.581176	-0.147699	0.594902	1.53447	0.541546	1.13275	0.288722	0.61678	0.0216575	0.478228	0.668703	0.638513	0.400992	0.665268	0.330477	0.511831	0.389598	1.11912	0.464546	0.883467	0.0622805	0.45496	-0.0141145	0.192611	-0.891367	-0.302685	-0.215571	-0.081143	-0.31878	0.0905375	
3.3432	0	0	0	0	-0.585199	-0.156923	0.586916	1.53969	0.547348	1.12509	0.293656	0.602836	0.0198383	0.462548	0.674732	0.621475	0.400467	0.645131	0.328094	0.500629	0.382648	1.10322	0.460959	0.87034	0.0704143	0.431973	-0.0121452	0.187045	-0.904669	-0.29848	-0.219542	-0.0820195	-0.320364	0.0855772	
3.3432	5	0	0	0	-0.589222	-0.166146	0.578931	1.54491	0.55315	1.11744	0.29859	0.588893	0.018019	0.446868	0.68076	0.604437	0.399942	0.624995	0.325712	0.489426	0.375698	1.08731	0.457371	0.857212	0.078548	0.408986	-0.010176	0.181479	-0.917971	-0.294276	-0.223513	-0.082896	-0.321949	0.080617	
3.34015	5	0	0	0	-0.583016	-0.163093	0.574504	1.55742	0.559905	1.12462	0.299822	0.585411	0.019957	0.441391	0.682767	0.598765	0.404645	0.611705	0.330402	0.476171	0.373787	1.07497	0.460925	0.847166	0.0776462	0.387549	-0.004275	0.164802	-0.919953	-0.310901	-0.230648	-0.0869035	-0.325118	0.0707127	
3.3371	5	0	0	0	-0.576811	-0.160039	0.570078	1.56993	0.56666	1.13179	0.301054	0.581928	0.021895	0.435913	0.684774	0.593093	0.409347	0.598415	0.335093	0.462916	0.371876	1.06262	0.46448	0.83712	0.0767445	0.366111	0.001626	0.148124	-0.921934	-0.327527	-0.237783	-0.090911	-0.328287	0.0608085	
3.33404	5	0	0	0	-0.570605	-0.156986	0.565651	1.58244	0.573414	1.13897	0.302286	0.578445	0.023833	0.430436	0.686781	0.587421	0.41405	0.585126	0.339783	0.449661	0.369966	1.05027	0.468035	0.827075	0.0758428	0.344674	0.007527	0.131447	-0.923916	-0.344152	-0.244919	-0.0949185	-0.331457	0.0509042	
3.32641	5	0	0	0	-0.564399	-0.153932	0.561224	1.59495	0.580169	1.14614	0.303518	0.574963	0.025771	0.424959	0.688788	0.581749	0.418752	0.571836	0.344473	0.436406	0.368055	1.03792	0.471589	0.817029	0.074941	0.323236	0.013428	0.11477	-0.925898	-0.360778	-0.252054	-0.098926	-0.334626	0.041	
3.32947	5	0	0	0	-0.56184	-0.150861	0.563298	1.60644	0.586041	1.15585	0.312442	0.566456	0.0314772	0.429655	0.675494	0.594796	0.418752	0.571836	0.346815	0.429786	0.36458	1.03002	0.473365	0.81201	0.0769645	0.317517	0.005637	0.111327	-0.923839	-0.366596	-0.242508	-0.113823	-0.336211	0.0360557	
3.32184	5	0	0	0	-0.55928	-0.14779	0.565371	1.61793	0.591913	1.16555	0.321365	0.557949	0.0371835	0.43435	0.6622	0.607843	0.418752	0.571836	0.349158	0.423165	0.361104	1.02211	0.47514	0.806992	0.078988	0.311798	-0.002154	0.107883	-0.921781	-0.372414	-0.232961	-0.12872	-0.337796	0.0311115	
3.32184	5	0	0	0	-0.55672	-0.14472	0.567444	1.62942	0.597784	1.17526	0.330288	0.549443	0.0428898	0.439046	0.648906	0.620891	0.418752	0.571836	0.3515	0.416545	0.357629	1.0142	0.476916	0.801974	0.0810115	0.306078	-0.009945	0.10444	-0.919722	-0.378232	-0.223415	-0.143617	-0.339381	0.0261672	
3.31573	5	0	0	0	-0.554161	-0.141649	0.569518	1.64091	0.603656	1.18497	0.339212	0.540936	0.048596	0.443742	0.635612	0.633938	0.418752	0.571836	0.353842	0.409925	0.354153	1.00629	0.478692	0.796955	0.083035	0.300359	-0.017736	0.100997	-0.917663	-0.38405	-0.213869	-0.158514	-0.340966	0.021223	
3.31268	5	0	0	0	-0.562552	-0.138538	0.563011	1.64195	0.606329	1.17741	0.33798	0.544417	0.0562498	0.442957	0.646899	0.626563	0.418752	0.571836	0.347936	0.408698	0.34912	1.0028	0.480467	0.791939	0.0810115	0.306078	-0.006017	0.0933395	-0.910522	-0.382006	-0.213869	-0.158514	-0.340049	0.0186317	
3.31116	5	0	0	0	-0.570943	-0.135427	0.556505	1.64299	0.609002	1.16986	0.336749	0.547898	0.0639035	0.442172	0.658186	0.619188	0.418752	0.571836	0.342031	0.407471	0.344086	0.999314	0.482241	0.786923	0.078988	0.311798	0.005702	0.085682	-0.903381	-0.379962	-0.213869	-0.158514	-0.339132	0.0160405	
3.30353	5	0	0	0	-0.579334	-0.132316	0.549998	1.64403	0.611675	1.16231	0.335517	0.551379	0.0715573	0.441386	0.669473	0.611812	0.418752	0.571836	0.336125	0.406245	0.339053	0.995825	0.484016	0.781908	0.0769645	0.317517	0.017421	0.0780245	-0.896239	-0.377917	-0.213869	-0.158514	-0.338215	0.0134492	
3.30353	5	0	0	0	-0.587725	-0.129205	0.543492	1.64507	0.614348	1.15475	0.334285	0.55486	0.079211	0.440601	0.68076	0.604437	0.418752	0.571836	0.330219	0.405018	0.33402	0.992336	0.485791	0.776892	0.074941	0.323236	0.02914	0.070367	-0.889098	-0.375873	-0.213869	-0.158514	-0.337298	0.010858	
3.30047	5	0	0	0	-0.591033	-0.150719	0.531976	1.64296	0.608471	1.14506	0.343216	0.546349	0.0619738	0.447648	0.678752	0.610113	0.401234	0.57818	0.324319	0.403791	0.328991	0.988851	0.478642	0.773858	0.059864	0.34189	0.02914	0.070367	-0.88401	-0.367999	-0.209898	-0.157646	-0.34005	0.018634	
3.30047	5	0	0	0	-0.594341	-0.172233	0.52046	1.64085	0.602594	1.13537	0.352146	0.537837	0.0447365	0.454696	0.676743	0.615788	0.383715	0.584524	0.318419	0.402564	0.323963	0.985366	0.471493	0.770823	0.044787	0.360544	0.02914	0.070367	-0.878923	-0.360125	-0.205927	-0.156779	-0.342801	0.02641	
3.302	5	0	0	0	-0.597649	-0.193746	0.508945	1.63875	0.596717	1.12567	0.361076	0.529326	0.0274992	0.461743	0.674735	0.621463	0.366197	0.590868	0.312519	0.401337	0.318935	0.98188	0.464344	0.767788	0.02971	0.379197	0.02914	0.070367	-0.873835	-0.352251	-0.201955	-0.155911	-0.345552	0.034186	
3.30963	5	0	0	0	-0.600957	-0.21526	0.497429	1.63664	0.59084	1.11598	0.370007	0.520814	0.010262	0.46879	0.672727	0.627139	0.348679	0.597212	0.306619	0.40011	0.313906	0.978395	0.457195	0.764754	0.014633	0.397851	0.02914	0.070367	-0.868747	-0.344377	-0.197984	-0.155044	-0.348304	0.041962	
3.31421	5	0	0	0	-0.602425	-0.221387	0.506876	1.62726	0.591729	1.11347	0.368775	0.524295	0.0217847	0.457047	0.672727	0.627139	0.351026	0.59058	0.300725	0.398883	0.308882	0.974913	0.448285	0.766727	0.00767275	0.393597	0.0271767	0.0759158	-0.87391	-0.329787	-0.20594	-0.144648	-0.351058	0.0497448	
3.32336	5	0	0	0	-0.603893	-0.227515	0.516323	1.61788	0.592618	1.11096	0.367544	0.527776	0.0333075	0.445304	0.672727	0.627139	0.353372	0.583947	0.294832	0.397656	0.303859	0.971432	0.439375	0.768699	0.0007125	0.389343	0.0252135	0.0814645	-0.879072	-0.315197	-0.213897	-0.134252	-0.353812	0.0575275	
3.34473	5	0	0	0	-0.605361	-0.233642	0.52577	1.6085	0.593506	1.10845	0.366312	0.531257	0.0448303	0.433562	0.672727	0.627139	0.355719	0.577314	0.288938	0.396428	0.298835	0.96795	0.430464	0.770671	-0.00624775	0.385088	0.0232503	0.0870133	-0.884235	-0.300607	-0.221853	-0.123857	-0.356565	0.0653103	
3.36151	5	0	0	0	-0.606829	-0.239769	0.535217	1.59912	0.594395	1.10593	0.36508	0.534738	0.056353	0.421819	0.672727	0.627139	0.358066	0.570682	0.283045	0.395201	0.293811	0.964468	0.421554	0.772644	-0.013208	0.380834	0.021287	0.092562	-0.889397	-0.286017	-0.22981	-0.113461	-0.359319	0.073093	
3.38287	5	0	0	0	-0.600248	-0.227522	0.535807	1.61478	0.607463	1.11286	0.375567	0.538601	0.0716725	0.420239	0.677997	0.636803	0.375586	0.564333	0.281876	0.398503	0.298835	0.96795	0.419782	0.777651	-0.0042215	0.379362	0.021287	0.092562	-0.890431	-0.283096	-0.218677	-0.120735	-0.360237	0.0756885	
3.40271	5	0	0	0	-0.593667	-0.215276	0.536397	1.63045	0.62053	1.11978	0.386053	0.542465	0.086992	0.418658	0.683266	0.646467	0.393106	0.557984	0.280708	0.401806	0.303859	0.971432	0.41801	0.782659	0.004765	0.377889	0.021287	0.092562	-0.891464	-0.280175	-0.207544	-0.12801	-0.361156	0.078284	
3.42255	5	0	0	0	-0.587086	-0.203029	0.536986	1.64612	0.633598	1.12671	0.396539	0.546328	0.102311	0.417077	0.688535	0.65613	0.410626	0.551636	0.279539	0.405108	0.308882	0.974913	0.416238	0.787667	0.0137515	0.376417	0.021287	0.092562	-0.892498	-0.277254	-0.196411	-0.135285	-0.362075	0.0808795	
3.43475	5	0	0	0	-0.580505	-0.190782	0.537576	1.66179	0.646666	1.13363	0.407026	0.550191	0.117631	0.415497	0.693805	0.665794	0.428146	0.545287	0.278371	0.40841	0.313906	0.978395	0.414466	0.792674	0.022738	0.374945	0.021287	0.092562	-0.893532	-0.274333	-0.185278	-0.142559	-0.362993	0.083475	
3.44543	5	0	0	0	-0.56989	-0.169259	0.543182	1.68066	0.660722	1.15548	0.41506	0.561046	0.125206	0.435898	0.708392	0.673777	0.436299	0.565512	0.287821	0.417487	0.31772	1.00303	0.416274	0.810773	0.0236193	0.39641	0.0290917	0.0960017	-0.888451	-0.266415	-0.189268	-0.131282	-0.353652	0.0853592	
3.45611	5	0	0	0	-0.559275	-0.147736	0.548787	1.69953	0.674778	1.17733	0.423094	0.5719	0.13278	0.456299	0.722979	0.68176	0.444451	0.585736	0.297272	0.426563	0.321533	1.02766	0.418083	0.828871	0.0245005	0.417875	0.0368965	0.0994415	-0.883369	-0.258497	-0.193258	-0.120004	-0.34431	0.0872435	
3.45917	5	0	0	0	-0.548659	-0.126213	0.554393	1.71841	0.688835	1.19917	0.431127	0.582755	0.140355	0.4767	0.737567	0.689743	0.452603	0.605961	0.306722	0.43564	0.325346	1.05229	0.419892	0.84697	0.0253818	0.439341	0.0447012	0.102881	-0.878287	-0.250578	-0.197249	-0.108727	-0.334969	0.0891277	
3.45764	5	0	0	0	-0.538044	-0.10469	0.559999	1.73728	0.702891	1.22102	0.439161	0.59361	0.14793	0.497101	0.752154	0.697726	0.460756	0.626186	0.316172	0.444717	0.32916	1.07692	0.4217	0.865069	0.026263	0.460806	0.052506	0.106321	-0.873206	-0.24266	-0.201239	-0.09745	-0.325627	0.091012	
3.45917	5	0	0	0	-0.530714	-0.0737385	0.562621	1.76466	0.715179	1.24807	0.444725	0.611506	0.153549	0.523124	0.75137	0.724595	0.476542	0.64666	0.320939	0.467097	0.346174	1.09986	0.430639	0.886312	0.0340997	0.486662	0.0563817	0.120899	-0.85378	-0.230563	-0.192508	-0.0857817	-0.314941	0.10805	
3.45611	5	0	0	0	-0.523385	-0.042787	0.565243	1.79203	0.727466	1.27512	0.450289	0.629401	0.159168	0.549148	0.750587	0.751463	0.492328	0.667133	0.325707	0.489477	0.363187	1.1228	0.439578	0.907555	0.0419365	0.512518	0.0602575	0.135478	-0.834353	-0.218467	-0.183777	-0.0741135	-0.304256	0.125088	
3.45306	5	0	0	0	-0.516056	-0.0118355	0.567864	1.8194	0.739753	1.30217	0.455853	0.647296	0.164786	0.575171	0.749803	0.778331	0.508113	0.687607	0.330474	0.511857	0.380201	1.14574	0.448516	0.928799	0.0497733	0.538374	0.0641333	0.150057	-0.814926	-0.20637	-0.175047	-0.0624453	-0.29357	0.142126	
3.44543	5	0	0	0	-0.508726	0.019116	0.570486	1.84677	0.752041	1.32922	0.461417	0.665192	0.170405	0.601194	0.749019	0.8052	0.523899	0.70808	0.335241	0.534237	0.397215	1.16868	0.457455	0.950042	0.05761	0.56423	0.068009	0.164635	-0.7955	-0.194273	-0.166316	-0.050777	-0.282884	0.159164	
3.43933	5	0	0	0	-0.502132	0.0315505	0.566011	1.85942	0.765206	1.33627	0.460468	0.684708	0.177972	0.621804	0.738874	0.83387	0.529694	0.735221	0.341176	0.553385	0.396274	1.20696	0.466398	0.97139	0.0703788	0.600383	0.0679262	0.190436	-0.784299	-0.16991	-0.14879	-0.039578	-0.270596	0.181279	
3.44086	5	0	0	0	-0.495539	0.043985	0.561536	1.87207	0.77837	1.34332	0.459519	0.704224	0.185539	0.642414	0.72873	0.862539	0.535489	0.762361	0.347111	0.572534	0.395332	1.24523	0.475341	0.992737	0.0831475	0.636537	0.0678435	0.216236	-0.773099	-0.145547	-0.131265	-0.028379	-0.258308	0.203393	
3.4317	5	0	0	0	-0.488946	0.0564195	0.557061	1.88471	0.791535	1.35036	0.458569	0.723739	0.193107	0.663025	0.718585	0.891208	0.541284	0.789501	0.353046	0.591683	0.39439	1.2835	0.484285	1.01408	0.0959163	0.67269	0.0677608	0.242037	-0.761899	-0.121185	-0.113739	-0.01718	-0.246019	0.225507	
3.42102	5	0	0	0	-0.482352	0.068854	0.552586	1.89736	0.8047	1.35741	0.45762	0.743255	0.200674	0.683635	0.708441	0.919878	0.547079	0.816642	0.358981	0.610831	0.393449	1.32178	0.493228	1.03543	0.108685	0.708843	0.067678	0.267838	-0.750698	-0.096822	-0.096213	-0.005981	-0.233731	0.247622	
3.41644	5	0	0	0	-0.473545	0.0750832	0.553129	1.91324	0.814713	1.36459	0.462885	0.745223	0.206425	0.688417	0.7137	0.9297	0.554732	0.816809	0.35544	0.620837	0.410185	1.32803	0.498599	1.04361	0.124752	0.71175	0.0755015	0.27133	-0.747679	-0.0828988	-0.0970445	0.0085385	-0.228044	0.260037	
3.41186	5	0	0	0	-0.464737	0.0813125	0.553673	1.92912	0.824726	1.37177	0.468151	0.747191	0.212175	0.693199	0.71896	0.939522	0.562386	0.816976	0.3519	0.630844	0.42692	1.33428	0.503969	1.05179	0.140819	0.714657	0.083325	0.274822	-0.744661	-0.0689755	-0.097876	0.023058	-0.222357	0.272452	
3.40423	5	0	0	0	-0.455929	0.0875418	0.554216	1.945	0.834739	1.37895	0.473416	0.749159	0.217925	0.697981	0.72422	0.949344	0.57004	0.817144	0.348359	0.64085	0.443655	1.34053	0.50934	1.05996	0.156887	0.717563	0.0911485	0.278313	-0.741642	-0.0550522	-0.0987075	0.0375775	-0.216671	0.284868	
3.39813	5	0	0	0	-0.447122	0.093771	0.554759	1.96088	0.844752	1.38613	0.478681	0.751127	0.223676	0.702763	0.729479	0.959166	0.577693	0.817311	0.344819	0.650856	0.460391	1.34678	0.51471	1.06814	0.172954	0.72047	0.098972	0.281805	-0.738624	-0.041129	-0.099539	0.052097	-0.210984	0.297283	
3.39355	5	0	0	0	-0.440513	0.106266	0.555292	1.9768	0.857541	1.40332	0.485197	0.749575	0.241104	0.695649	0.729479	0.959166	0.595412	0.810905	0.359021	0.646709	0.465452	1.35036	0.520085	1.07634	0.168834	0.732114	0.0969903	0.287406	-0.734498	-0.0415507	-0.0955445	0.0529852	-0.204091	0.296818	
3.38898	5	0	0	0	-0.433905	0.11876	0.555825	1.99273	0.87033	1.42052	0.491713	0.748023	0.258532	0.688535	0.729479	0.959166	0.613131	0.804499	0.373224	0.642562	0.470514	1.35394	0.525459	1.08453	0.164714	0.743757	0.0950085	0.293007	-0.730373	-0.0419725	-0.09155	0.0538735	-0.197198	0.296353	
3.38287	5	0	0	0	-0.427296	0.131255	0.556358	2.00865	0.883119	1.43772	0.498229	0.746471	0.275959	0.681422	0.729479	0.959166	0.630851	0.798092	0.387427	0.638415	0.475575	1.35752	0.530834	1.09272	0.160595	0.7554	0.0930268	0.298607	-0.726248	-0.0423943	-0.0875555	0.0547617	-0.190305	0.295887	
3.37982	5	0	0	0	-0.420687	0.14375	0.556891	2.02458	0.895908	1.45492	0.504745	0.744919	0.293387	0.674308	0.729479	0.959166	0.64857	0.791686	0.401629	0.634268	0.480637	1.36109	0.536209	1.10092	0.156475	0.767044	0.091045	0.304208	-0.722122	-0.042816	-0.083561	0.05565	-0.183412	0.295422	
3.37372	5	0	0	0	-0.414073	0.156283	0.550886	2.04155	0.903237	1.46986	0.512514	0.739843	0.301133	0.673523	0.727442	0.964922	0.65095	0.784959	0.400447	0.637609	0.488876	1.35571	0.532612	1.11108	0.17258	0.76997	0.089062	0.309812	-0.704545	-0.0474755	-0.0627163	0.04553	-0.178372	0.300213	
3.37372	5	0	0	0	-0.407459	0.168816	0.544882	2.05852	0.910566	1.48479	0.520282	0.734766	0.308879	0.672739	0.725405	0.970678	0.653331	0.778231	0.399265	0.640949	0.497115	1.35033	0.529015	1.12125	0.188685	0.772895	0.087079	0.315417	-0.686967	-0.052135	-0.0418715	0.03541	-0.173332	0.305005	
3.36914	5	0	0	0	-0.400845	0.181348	0.538877	2.07549	0.917894	1.49973	0.52805	0.72969	0.316624	0.671954	0.723369	0.976435	0.655711	0.771504	0.398083	0.64429	0.505353	1.34495	0.525418	1.13142	0.20479	0.775821	0.085096	0.321022	-0.66939	-0.0567945	-0.0210267	0.02529	-0.168292	0.309796	
3.36151	5	0	0	0	-0.394231	0.193881	0.532872	2.09246	0.925223	1.51466	0.535819	0.724614	0.32437	0.671169	0.721332	0.982191	0.658091	0.764777	0.396901	0.64763	0.513592	1.33956	0.521821	1.14158	0.220895	0.778747	0.083113	0.326626	-0.651813	-0.061454	-0.000182	0.01517	-0.163252	0.314587	
3.35998	5	0	0	0	-0.391267	0.17509	0.535876	2.08397	0.927041	1.50953	0.536757	0.705083	0.322522	0.655287	0.720141	0.960871	0.649867	0.744349	0.39334	0.639691	0.503458	1.33242	0.527215	1.12634	0.211805	0.7802	0.0949125	0.318916	-0.644579	-0.0593478	-0.000988	0.0174472	-0.154751	0.319152	
3.35083	5	0	0	0	-0.388302	0.156299	0.53888	2.07548	0.928858	1.50439	0.537696	0.685553	0.320673	0.639405	0.718949	0.939552	0.641643	0.723921	0.389779	0.631751	0.493325	1.32527	0.532609	1.11109	0.202715	0.781654	0.106712	0.311206	-0.637346	-0.0572415	-0.001794	0.0197245	-0.146251	0.323716	
3.3493	5	0	0	0	-0.385338	0.137507	0.541884	2.06699	0.930675	1.49925	0.538635	0.666022	0.318824	0.623523	0.717758	0.918233	0.633418	0.703494	0.386217	0.623811	0.483191	1.31813	0.538003	1.09585	0.193624	0.783107	0.118512	0.303495	-0.630112	-0.0551352	-0.0026	0.0220018	-0.13775	0.32828	
3.34778	5	0	0	0	-0.382374	0.118716	0.544888	2.0585	0.932493	1.49412	0.539573	0.646491	0.316976	0.607641	0.716567	0.896913	0.625194	0.683066	0.382656	0.615872	0.473057	1.31098	0.543397	1.08061	0.184534	0.784561	0.130311	0.295785	-0.622879	-0.053029	-0.003406	0.024279	-0.129249	0.332845	
3.3432	5	0	0	0	-0.37574	0.0999675	0.549388	2.04579	0.93431	1.48898	0.547017	0.625453	0.315119	0.591807	0.715358	0.875676	0.629353	0.649514	0.38263	0.597959	0.472403	1.27712	0.538019	1.07242	0.183697	0.762722	0.112674	0.294392	-0.616593	-0.0707953	-0.00499825	0.01657	-0.123661	0.317053	
3.34015	5	0	0	0	-0.369106	0.081219	0.553889	2.03307	0.936127	1.48385	0.554461	0.604415	0.313262	0.575973	0.714149	0.854439	0.633513	0.615962	0.382603	0.580047	0.471749	1.24325	0.532641	1.06423	0.18286	0.740883	0.095036	0.292999	-0.610306	-0.0885615	-0.0065905	0.008861	-0.118073	0.301261	
3.33404	5	0	0	0	-0.362472	0.0624705	0.558389	2.02035	0.937943	1.47871	0.561905	0.583377	0.311406	0.560139	0.712941	0.833202	0.637672	0.582409	0.382576	0.562134	0.471095	1.20938	0.527264	1.05605	0.182023	0.719044	0.0773985	0.291606	-0.60402	-0.106328	-0.00818275	0.001152	-0.112485	0.285468	
3.33252	5	0	0	0	-0.355838	0.043722	0.562889	2.00763	0.93976	1.47358	0.569349	0.562339	0.309549	0.544305	0.711732	0.811965	0.641831	0.548857	0.38255	0.544222	0.470441	1.17552	0.521886	1.04786	0.181186	0.697205	0.059761	0.290213	-0.597734	-0.124094	-0.009775	-0.006557	-0.106897	0.269676	
3.32489	5	0	0	0	-0.354734	0.040601	0.556365	2.00864	0.943867	1.4709	0.574302	0.548341	0.313465	0.533239	0.719819	0.78911	0.638883	0.535418	0.383684	0.523047	0.459981	1.15163	0.518302	1.03463	0.176226	0.687049	0.0755018	0.271329	-0.594596	-0.132964	-0.012977	-0.009709	-0.104107	0.26179	
3.32336	5	0	0	0	-0.353629	0.03748	0.54984	2.00964	0.947973	1.46821	0.579255	0.534344	0.317381	0.522172	0.727906	0.766255	0.635935	0.52198	0.384819	0.501872	0.449522	1.12774	0.514718	1.02141	0.171266	0.676894	0.0912425	0.252445	-0.591457	-0.141834	-0.016179	-0.012861	-0.101317	0.253905	
3.32031	5	0	0	0	-0.352525	0.034359	0.543316	2.01065	0.952079	1.46553	0.584207	0.520346	0.321296	0.511105	0.735993	0.7434	0.632986	0.508541	0.385953	0.480697	0.439063	1.10386	0.511135	1.00818	0.166306	0.666739	0.106983	0.233562	-0.588318	-0.150704	-0.019381	-0.016013	-0.0985263	0.246019	
3.31726	5	0	0	0	-0.351421	0.031238	0.536792	2.01166	0.956186	1.46285	0.58916	0.506348	0.325212	0.500039	0.74408	0.720545	0.630038	0.495102	0.387087	0.459522	0.428603	1.07997	0.507551	0.994954	0.161346	0.656583	0.122724	0.214678	-0.58518	-0.159574	-0.022583	-0.019165	-0.095736	0.238133	
3.31268	5	0	0	0	-0.358792	0.031258	0.533269	2.0042	0.947502	1.46063	0.590397	0.502852	0.323255	0.505571	0.734767	0.722245	0.617088	0.488232	0.375262	0.457055	0.42981	1.05878	0.500392	0.991861	0.16545	0.644985	0.120746	0.220269	-0.572728	-0.160891	-0.0089435	-0.021084	-0.089743	0.24028	
3.30963	5	0	0	0	-0.366163	0.031278	0.529745	1.99674	0.938819	1.45842	0.591634	0.499356	0.321298	0.511102	0.725453	0.723944	0.604138	0.481363	0.363436	0.454588	0.431017	1.03759	0.493233	0.988768	0.169553	0.633387	0.118768	0.225859	-0.560275	-0.162209	0.004696	-0.023003	-0.08375	0.242426	
3.30658	5	0	0	0	-0.373533	0.031298	0.526222	1.98929	0.930135	1.45621	0.592871	0.49586	0.31934	0.516633	0.71614	0.725644	0.591189	0.474494	0.35161	0.45212	0.432224	1.0164	0.486074	0.985674	0.173657	0.621788	0.11679	0.23145	-0.547822	-0.163526	0.0183355	-0.024922	-0.077757	0.244572	
3.30505	5	0	0	0	-0.380904	0.031318	0.522698	1.98183	0.921451	1.45399	0.594108	0.492364	0.317383	0.522165	0.706827	0.727344	0.578239	0.467624	0.339785	0.449653	0.433431	0.995206	0.478915	0.982581	0.177761	0.61019	0.114812	0.23704	-0.53537	-0.164844	0.031975	-0.026841	-0.071764	0.246719	
3.30505	5	0	0	0	-0.377975	0.0126437	0.527183	1.96915	0.922788	1.44131	0.588819	0.490448	0.321296	0.511105	0.703572	0.711956	0.577638	0.447629	0.34447	0.436413	0.424891	0.983829	0.480702	0.977531	0.16665	0.617451	0.110852	0.248231	-0.545808	-0.146643	0.0335737	-0.019134	-0.0745567	0.254612	
3.31116	5	0	0	0	-0.375046	-0.0060305	0.531668	1.95648	0.924125	1.42862	0.58353	0.488531	0.32521	0.500046	0.700316	0.696569	0.577036	0.427633	0.349155	0.423173	0.416351	0.972452	0.482488	0.972481	0.155538	0.624711	0.106892	0.259423	-0.556246	-0.128442	0.0351725	-0.011427	-0.0773495	0.262504	
3.31573	5	0	0	0	-0.372117	-0.0247047	0.536154	1.9438	0.925461	1.41593	0.578242	0.486615	0.329123	0.488986	0.69706	0.681181	0.576434	0.407638	0.35384	0.409932	0.407812	0.961076	0.484275	0.967431	0.144427	0.631972	0.102932	0.270614	-0.566684	-0.110242	0.0367713	-0.00372	-0.0801422	0.270397	
3.32336	5	0	0	0	-0.369188	-0.043379	0.540639	1.93112	0.926798	1.40325	0.572953	0.484698	0.333036	0.477927	0.693805	0.665794	0.575833	0.387643	0.358525	0.396692	0.399272	0.949699	0.486062	0.962381	0.133316	0.639232	0.098972	0.281805	-0.577122	-0.092041	0.03837	0.003987	-0.082935	0.27829	
3.33404	5	0	0	0	-0.361103	-0.0558328	0.555183	1.92487	0.929993	1.40313	0.584773	0.485035	0.340783	0.477115	0.691792	0.671484	0.591127	0.387836	0.357354	0.4	0.397713	0.954106	0.484275	0.967431	0.133316	0.639232	0.110772	0.274095	-0.572931	-0.103885	0.0327433	0.00766375	-0.079212	0.267768	
3.34625	5	0	0	0	-0.353017	-0.0682865	0.569727	1.91861	0.933188	1.40301	0.596593	0.485371	0.348529	0.476303	0.689778	0.677174	0.606421	0.388029	0.356183	0.403308	0.396154	0.958513	0.482488	0.972481	0.133316	0.639232	0.122571	0.266385	-0.56874	-0.115729	0.0271165	0.0113405	-0.075489	0.257246	
3.35083	5	0	0	0	-0.344932	-0.0807402	0.584271	1.91235	0.936383	1.40289	0.608414	0.485707	0.356276	0.475491	0.687765	0.682864	0.621715	0.388222	0.355013	0.406617	0.394594	0.96292	0.480702	0.977531	0.133316	0.639232	0.134371	0.258674	-0.564549	-0.127574	0.0214897	0.0150172	-0.071766	0.246724	
3.35998	5	0	0	0	-0.336847	-0.093194	0.598815	1.9061	0.939578	1.40277	0.620234	0.486044	0.364023	0.474679	0.685751	0.688554	0.637009	0.388415	0.353842	0.409925	0.393035	0.967327	0.478915	0.982581	0.133316	0.639232	0.146171	0.250964	-0.560358	-0.139418	0.015863	0.018694	-0.068043	0.236202	
3.36456	5	0	0	0	-0.33536	-0.0869955	0.602358	1.91353	0.942346	1.41277	0.619337	0.505474	0.361975	0.501572	0.698314	0.70226	0.645287	0.408539	0.363327	0.419007	0.401571	0.978715	0.491451	0.993834	0.136214	0.655183	0.140222	0.267777	-0.560358	-0.139418	0.0190705	0.0218545	-0.065509	0.23859	
3.37067	5	0	0	0	-0.333872	-0.080797	0.6059	1.92097	0.945115	1.42278	0.61844	0.524903	0.359927	0.528466	0.710876	0.715966	0.653564	0.428663	0.372811	0.42809	0.410107	0.990102	0.503986	1.00509	0.139113	0.671134	0.134272	0.284591	-0.560358	-0.139418	0.022278	0.025015	-0.062975	0.240977	
3.37524	5	0	0	0	-0.332384	-0.0745985	0.609443	1.9284	0.947884	1.43279	0.617542	0.544333	0.35788	0.555359	0.723438	0.729672	0.661841	0.448788	0.382296	0.437173	0.418642	1.00149	0.516521	1.01634	0.142011	0.687085	0.128323	0.301404	-0.560358	-0.139418	0.0254855	0.0281755	-0.060441	0.243364	
3.38592	5	0	0	0	-0.330897	-0.0684	0.612986	1.93584	0.950652	1.4428	0.616645	0.563763	0.355832	0.582252	0.736001	0.743378	0.670119	0.468912	0.391781	0.446255	0.427178	1.01288	0.529057	1.02759	0.144909	0.703036	0.122374	0.318217	-0.560358	-0.139418	0.028693	0.031336	-0.057907	0.245752	
3.41186	5	0	0	0	-0.33717	-0.0714718	0.622521	1.92636	0.95108	1.43267	0.616975	0.57974	0.347966	0.604481	0.741281	0.753111	0.668356	0.495692	0.394179	0.457447	0.437649	1.03668	0.532642	1.04085	0.145738	0.724865	0.12823	0.327341	-0.559349	-0.130972	0.031095	0.0367815	-0.0528355	0.250532	
3.43628	5	0	0	0	-0.343442	-0.0745435	0.632055	1.91688	0.951509	1.42254	0.617304	0.595718	0.340101	0.62671	0.74656	0.762843	0.666593	0.522473	0.396577	0.468639	0.44812	1.06048	0.536227	1.0541	0.146568	0.746695	0.134085	0.336465	-0.558339	-0.122525	0.033497	0.042227	-0.047764	0.255312	
3.47442	5	0	0	0	-0.349714	-0.0776152	0.64159	1.90739	0.951937	1.41241	0.617634	0.611696	0.332236	0.64894	0.751839	0.772575	0.664829	0.549253	0.398975	0.479832	0.458591	1.08428	0.539812	1.06735	0.147398	0.768525	0.139941	0.345589	-0.55733	-0.114079	0.035899	0.0476725	-0.0426925	0.260093	
3.52173	5	0	0	0	-0.355987	-0.080687	0.651124	1.89791	0.952365	1.40228	0.617964	0.627673	0.32437	0.671169	0.757119	0.782308	0.663066	0.576033	0.401373	0.491024	0.469062	1.10808	0.543397	1.08061	0.148227	0.790354	0.145797	0.354713	-0.556321	-0.105633	0.038301	0.053118	-0.037621	0.264873	
3.56903	5	0	0	0	-0.3483	-0.102412	0.65561	1.88524	0.950497	1.38974	0.615476	0.634705	0.328305	0.660048	0.757119	0.782308	0.67311	0.56947	0.402548	0.487702	0.480769	1.11068	0.543397	1.08061	0.161429	0.777247	0.145797	0.354713	-0.56567	-0.101802	0.033478	0.054515	-0.0480185	0.265595	
3.61938	5	0	0	0	-0.340612	-0.124137	0.660095	1.87256	0.94863	1.37719	0.612988	0.641737	0.33224	0.648926	0.757119	0.782308	0.683154	0.562908	0.403724	0.48438	0.492476	1.11327	0.543397	1.08061	0.174631	0.76414	0.145797	0.354713	-0.575019	-0.0979705	0.028655	0.055912	-0.058416	0.266318	
3.65753	5	0	0	0	-0.332925	-0.145863	0.664581	1.85988	0.946762	1.36465	0.610499	0.648769	0.336175	0.637804	0.757119	0.782308	0.693198	0.556345	0.4049	0.481059	0.504184	1.11587	0.543397	1.08061	0.187834	0.751033	0.145797	0.354713	-0.584368	-0.0941393	0.023832	0.057309	-0.0688135	0.267041	
3.68805	5	0	0	0	-0.325238	-0.167588	0.669066	1.84721	0.944894	1.3521	0.608011	0.655801	0.34011	0.626683	0.757119	0.782308	0.703242	0.549782	0.406075	0.477737	0.515891	1.11846	0.543397	1.08061	0.201036	0.737926	0.145797	0.354713	-0.593717	-0.090308	0.019009	0.058706	-0.079211	0.267763	
3.70941	5	0	0	0	-0.325636	-0.176854	0.664015	1.84402	0.945313	1.34201	0.606766	0.659319	0.342076	0.621127	0.766456	0.780607	0.703242	0.549782	0.406075	0.477737	0.522541	1.11754	0.545193	1.07553	0.207214	0.720467	0.147785	0.349094	-0.590537	-0.110579	0.0109868	0.0569347	-0.084014	0.252719	
3.72925	5	0	0	0	-0.326035	-0.186119	0.658964	1.84083	0.945731	1.33193	0.605522	0.662837	0.344042	0.615571	0.775792	0.778906	0.703242	0.549782	0.406075	0.477737	0.529191	1.11661	0.546989	1.07045	0.213392	0.703007	0.149773	0.343476	-0.587357	-0.13085	0.0029645	0.0551635	-0.088817	0.237675	
3.74145	5	0	0	0	-0.326433	-0.195385	0.653912	1.83764	0.94615	1.32184	0.604277	0.666355	0.346008	0.610016	0.785129	0.777205	0.703242	0.549782	0.406075	0.477737	0.53584	1.11568	0.548785	1.06538	0.219569	0.685547	0.151761	0.337858	-0.584178	-0.151122	-0.00505775	0.0533923	-0.09362	0.222632	
3.74908	5	0	0	0	-0.326831	-0.204651	0.648861	1.83445	0.946569	1.31175	0.603032	0.669873	0.347974	0.60446	0.794466	0.775504	0.703242	0.549782	0.406075	0.477737	0.54249	1.11476	0.550581	1.0603	0.225747	0.668088	0.153749	0.332239	-0.580998	-0.171393	-0.01308	0.051621	-0.098423	0.207588	
3.75366	5	0	0	0	-0.323547	-0.213933	0.646796	1.82284	0.938796	1.30703	0.604277	0.666355	0.349938	0.598908	0.785129	0.777205	0.713298	0.543211	0.400154	0.476501	0.550721	1.10938	0.543407	1.05719	0.218719	0.663747	0.157721	0.321013	-0.58511	-0.182319	-0.0130587	0.0393515	-0.101626	0.197586	
3.75976	5	0	0	0	-0.320263	-0.223214	0.64473	1.81123	0.931022	1.3023	0.605522	0.662837	0.351903	0.593356	0.775792	0.778906	0.723353	0.536641	0.394232	0.475266	0.558952	1.104	0.536234	1.05408	0.211691	0.659405	0.161693	0.309786	-0.589223	-0.193246	-0.0130375	0.027082	-0.104829	0.187584	
3.75519	5	0	0	0	-0.316978	-0.232496	0.642665	1.79962	0.923249	1.29758	0.606766	0.659319	0.353868	0.587804	0.766456	0.780607	0.733409	0.53007	0.388311	0.47403	0.567182	1.09862	0.52906	1.05097	0.204662	0.655064	0.165666	0.298559	-0.593336	-0.204172	-0.0130163	0.0148125	-0.108033	0.177583	
3.75671	5	0	0	0	-0.313694	-0.241778	0.6406	1.78801	0.915475	1.29286	0.608011	0.655801	0.355832	0.582252	0.757119	0.782308	0.743464	0.523499	0.38239	0.472794	0.575413	1.09324	0.521886	1.04786	0.197634	0.650722	0.169638	0.287333	-0.597448	-0.215098	-0.012995	0.002543	-0.111236	0.167581	
3.75213	5	0	0	0	-0.31902	-0.278594	0.642989	1.76382	0.906249	1.26567	0.607687	0.639807	0.340441	0.562504	0.765206	0.759453	0.715108	0.5164	0.378821	0.464928	0.563677	1.09066	0.520091	1.02958	0.192666	0.640589	0.163771	0.278241	-0.602602	-0.223055	-0.013784	-0.007429	-0.123192	0.16332	
3.74298	5	0	0	0	-0.324345	-0.315411	0.645377	1.73964	0.897022	1.23848	0.607363	0.623813	0.325051	0.542755	0.773293	0.736598	0.686751	0.509301	0.375252	0.457062	0.55194	1.08808	0.518296	1.0113	0.187698	0.630456	0.157905	0.269149	-0.607756	-0.231011	-0.014573	-0.017401	-0.135148	0.159058	
3.73535	5	0	0	0	-0.32967	-0.352228	0.647766	1.71546	0.887796	1.21129	0.60704	0.607819	0.30966	0.523007	0.78138	0.713743	0.658394	0.502201	0.371683	0.449197	0.540204	1.0855	0.516501	0.993014	0.182729	0.620323	0.152038	0.260056	-0.612909	-0.238967	-0.015362	-0.027373	-0.147103	0.154797	
3.72162	5	0	0	0	-0.334996	-0.389044	0.650155	1.69128	0.878569	1.1841	0.606716	0.591825	0.294269	0.503259	0.789467	0.690888	0.630038	0.495102	0.368114	0.441331	0.528468	1.08292	0.514706	0.974731	0.177761	0.61019	0.146171	0.250964	-0.618063	-0.246924	-0.016151	-0.037345	-0.159059	0.150536	
3.71399	5	0	0	0	-0.339937	-0.416472	0.652517	1.66718	0.87798	1.15919	0.599851	0.577452	0.286629	0.482807	0.780891	0.66585	0.634126	0.461803	0.371563	0.413648	0.526156	1.05377	0.509302	0.943381	0.175992	0.566936	0.146236	0.225143	-0.628338	-0.27407	-0.0321397	-0.0530463	-0.163367	0.115258	
3.70331	5	0	0	0	-0.344877	-0.4439	0.65488	1.64309	0.87739	1.13428	0.592987	0.563079	0.278989	0.462354	0.772315	0.640813	0.638213	0.428503	0.375012	0.385966	0.523845	1.02462	0.503899	0.91203	0.174224	0.523681	0.146301	0.199321	-0.638613	-0.301217	-0.0481285	-0.0687475	-0.167676	0.07998	
3.69415	5	0	0	0	-0.349818	-0.471328	0.657242	1.619	0.8768	1.10936	0.586123	0.548705	0.271349	0.441902	0.763739	0.615776	0.642301	0.395204	0.378461	0.358283	0.521533	0.995475	0.498495	0.88068	0.172456	0.480426	0.146366	0.1735	-0.648889	-0.328364	-0.0641173	-0.0844488	-0.171984	0.044702	
3.68652	5	0	0	0	-0.354758	-0.498756	0.659604	1.59491	0.876211	1.08445	0.579258	0.534332	0.263709	0.421449	0.755163	0.590738	0.646389	0.361905	0.38191	0.330601	0.519221	0.966327	0.493091	0.84933	0.170687	0.437172	0.146431	0.147678	-0.659164	-0.35551	-0.080106	-0.10015	-0.176292	0.009424	
3.67279	5	0	0	0	-0.356695	-0.513941	0.65394	1.57614	0.869747	1.06735	0.580153	0.514941	0.267658	0.389302	0.753881	0.569773	0.630467	0.341817	0.377085	0.308419	0.508694	0.942683	0.485889	0.823179	0.164793	0.405701	0.136666	0.124105	-0.661198	-0.383393	-0.0793005	-0.126726	-0.189571	-0.0098335	
3.67279	5	0	0	0	-0.358633	-0.529125	0.648275	1.55736	0.863282	1.05024	0.581047	0.49555	0.271606	0.357155	0.7526	0.548808	0.614545	0.321729	0.37226	0.286237	0.498167	0.91904	0.478687	0.797027	0.158899	0.374229	0.126902	0.100531	-0.663232	-0.411275	-0.078495	-0.153302	-0.20285	-0.029091	
3.66058	5	0	0	0	-0.360571	-0.54431	0.64261	1.53859	0.856818	1.03313	0.581942	0.476159	0.275555	0.325008	0.751318	0.527842	0.598622	0.301641	0.367435	0.264054	0.487641	0.895396	0.471484	0.770876	0.153005	0.342758	0.117138	0.0769583	-0.665266	-0.439157	-0.0776895	-0.179877	-0.216129	-0.0483485	
3.65295	5	0	0	0	-0.362508	-0.559494	0.636946	1.51982	0.850354	1.01602	0.582836	0.456768	0.279504	0.292861	0.750036	0.506877	0.5827	0.281553	0.36261	0.241872	0.477114	0.871752	0.464282	0.744724	0.147111	0.311287	0.107373	0.053385	-0.6673	-0.46704	-0.076884	-0.206453	-0.229408	-0.067606	
3.64685	5	0	0	0	-0.369199	-0.571534	0.627707	1.49388	0.834386	0.999404	0.577198	0.439022	0.277606	0.277263	0.750734	0.480348	0.584386	0.255144	0.350718	0.221882	0.466595	0.848238	0.45707	0.718718	0.128148	0.292919	0.105432	0.0333372	-0.665238	-0.484066	-0.085665	-0.218027	-0.228951	-0.0877882	
3.64075	5	0	0	0	-0.375889	-0.583573	0.618469	1.46794	0.818419	0.982784	0.571559	0.421276	0.275707	0.261665	0.751432	0.453819	0.586071	0.228736	0.338827	0.201891	0.456076	0.824724	0.449858	0.692711	0.109185	0.274551	0.103492	0.0132895	-0.663175	-0.501091	-0.094446	-0.229601	-0.228494	-0.10797	
3.62854	5	0	0	0	-0.38258	-0.595612	0.609231	1.44199	0.802451	0.966165	0.565921	0.403529	0.273809	0.246068	0.75213	0.42729	0.587757	0.202327	0.326935	0.1819	0.445558	0.80121	0.442645	0.666705	0.0902228	0.256183	0.101552	-0.00675825	-0.661112	-0.518116	-0.103227	-0.241175	-0.228036	-0.128153	
3.62244	5	0	0	0	-0.389271	-0.607652	0.599992	1.41605	0.786483	0.949545	0.560283	0.385783	0.271911	0.23047	0.752828	0.400761	0.589442	0.175919	0.315043	0.16191	0.435039	0.777696	0.435433	0.640698	0.07126	0.237815	0.099611	-0.026806	-0.65905	-0.535142	-0.112008	-0.252749	-0.227579	-0.148335	
3.61328	5	0	0	0	-0.393173	-0.637807	0.600169	1.38093	0.779019	0.917877	0.557095	0.361171	0.248869	0.211973	0.746198	0.370483	0.565944	0.156	0.310207	0.139929	0.427614	0.745589	0.429966	0.609874	0.0613353	0.218045	0.0957025	-0.041257	-0.660084	-0.543409	-0.11759	-0.261194	-0.231699	-0.155563	
3.60718	5	0	0	0	-0.397076	-0.667963	0.600347	1.34581	0.771554	0.886208	0.553907	0.33656	0.225827	0.193476	0.739569	0.340205	0.542445	0.13608	0.305371	0.117949	0.420189	0.713483	0.424498	0.579051	0.0514105	0.198274	0.091794	-0.055708	-0.661118	-0.551676	-0.123172	-0.269639	-0.235818	-0.162792	
3.60718	5	0	0	0	-0.400979	-0.698118	0.600524	1.31069	0.764089	0.85454	0.55072	0.311949	0.202785	0.174979	0.732939	0.309927	0.518946	0.116161	0.300535	0.0959685	0.412765	0.681376	0.419031	0.548227	0.0414858	0.178504	0.0878855	-0.070159	-0.662153	-0.559943	-0.128754	-0.278083	-0.239937	-0.17002	
3.59802	5	0	0	0	-0.404881	-0.728274	0.600701	1.27557	0.756625	0.822872	0.547532	0.287337	0.179743	0.156482	0.726309	0.279649	0.495448	0.096242	0.295699	0.073988	0.40534	0.649269	0.413563	0.517404	0.031561	0.158734	0.083977	-0.08461	-0.663187	-0.56821	-0.134336	-0.286528	-0.244057	-0.177249	
3.59497	5	0	0	0	-0.397836	-0.758466	0.604411	1.2478	0.751051	0.803532	0.544325	0.262842	0.181681	0.130158	0.721634	0.243974	0.48192	0.0699877	0.293153	0.0456045	0.391321	0.618337	0.395721	0.498633	0.0276482	0.122095	0.082014	-0.104525	-0.671429	-0.578446	-0.143097	-0.298042	-0.252289	-0.191667	
3.58887	5	0	0	0	-0.390791	-0.788657	0.608121	1.22003	0.745476	0.784193	0.541118	0.238347	0.18362	0.103834	0.716959	0.2083	0.468392	0.0437335	0.290607	0.017221	0.377302	0.587405	0.377878	0.479861	0.0237355	0.0854555	0.080051	-0.12444	-0.679671	-0.588682	-0.151857	-0.309555	-0.260522	-0.206085	
3.58734	5	0	0	0	-0.383747	-0.818848	0.611831	1.19226	0.739902	0.764854	0.53791	0.213851	0.185559	0.0775093	0.712285	0.172625	0.454865	0.0174793	0.288061	-0.0111625	0.363284	0.556473	0.360036	0.46109	0.0198228	0.0488162	0.078088	-0.144354	-0.687913	-0.598919	-0.160617	-0.321068	-0.268755	-0.220504	
3.57971	5	0	0	0	-0.376702	-0.84904	0.615541	1.16448	0.734328	0.745514	0.534703	0.189356	0.187497	0.051185	0.70761	0.136951	0.441337	-0.008775	0.285515	-0.039546	0.349265	0.525541	0.342193	0.442319	0.01591	0.012177	0.076125	-0.164269	-0.696155	-0.609155	-0.169378	-0.332582	-0.276987	-0.234922	
3.57208	5	0	0	0	-0.370901	-0.855152	0.611956	1.15735	0.740123	0.737905	0.534311	0.173707	0.185579	0.035784	0.704272	0.121989	0.452823	-0.041238	0.278357	-0.0548275	0.340287	0.498175	0.343807	0.414748	0.00797375	-0.012969	0.074148	-0.184109	-0.694119	-0.626072	-0.157484	-0.354113	-0.279979	-0.254678	
3.5675	5	0	0	0	-0.3651	-0.861263	0.608371	1.15021	0.745917	0.730296	0.533918	0.158058	0.183661	0.020383	0.700935	0.107027	0.46431	-0.073701	0.271199	-0.070109	0.331309	0.470809	0.345422	0.387177	3.75E-05	-0.038115	0.072171	-0.20395	-0.692083	-0.642988	-0.145591	-0.375644	-0.282972	-0.274434	
3.56598	5	0	0	0	-0.3593	-0.867375	0.604786	1.14307	0.751711	0.722687	0.533526	0.142409	0.181742	0.004982	0.697597	0.092065	0.475797	-0.106164	0.264041	-0.0853905	0.322331	0.443443	0.347036	0.359606	-0.00789875	-0.063261	0.070194	-0.22379	-0.690048	-0.659905	-0.133697	-0.397174	-0.285965	-0.29419	
3.55987	5	0	0	0	-0.353499	-0.873487	0.601201	1.13593	0.757506	0.715078	0.533134	0.12676	0.179824	-0.010419	0.694259	0.077103	0.487283	-0.138627	0.256883	-0.100672	0.313353	0.416077	0.34865	0.332035	-0.015835	-0.088407	0.068217	-0.24363	-0.688012	-0.676821	-0.121803	-0.418705	-0.288957	-0.313946	
3.55682	5	0	0	0	-0.349372	-0.864568	0.602654	1.13182	0.763823	0.714773	0.5303	0.118029	0.181737	-0.0158265	0.688951	0.0677423	0.481996	-0.14513	0.253306	-0.108292	0.304829	0.405091	0.353866	0.317294	-0.0207982	-0.0981225	0.0740382	-0.260082	-0.684943	-0.685496	-0.12976	-0.420375	-0.281911	-0.32446	
3.55377	5	0	0	0	-0.345246	-0.855649	0.604108	1.12772	0.770139	0.714469	0.527465	0.109298	0.183651	-0.021234	0.683642	0.0583815	0.476708	-0.151633	0.249728	-0.115913	0.296305	0.394105	0.359081	0.302553	-0.0257615	-0.107838	0.0798595	-0.276533	-0.681873	-0.694171	-0.137717	-0.422045	-0.274865	-0.334973	
3.54462	5	0	0	0	-0.34112	-0.84673	0.605561	1.12361	0.776455	0.714165	0.52463	0.100567	0.185565	-0.0266415	0.678333	0.0490208	0.471421	-0.158135	0.246151	-0.123533	0.287781	0.383119	0.364297	0.287812	-0.0307247	-0.117553	0.0856807	-0.292985	-0.678803	-0.702845	-0.145674	-0.423715	-0.267819	-0.345486	
3.54614	5	0	0	0	-0.336993	-0.837811	0.607014	1.1195	0.782772	0.71386	0.521796	0.091836	0.187478	-0.032049	0.673025	0.03966	0.466134	-0.164638	0.242574	-0.131153	0.279257	0.372133	0.369513	0.273071	-0.035688	-0.127269	0.091502	-0.309437	-0.675734	-0.71152	-0.153631	-0.425385	-0.260773	-0.356	
3.54919	5	0	0	0	-0.344942	-0.825638	0.601977	1.11648	0.780493	0.711527	0.517745	0.086556	0.195148	-0.0329035	0.66772	0.030321	0.478293	-0.177557	0.238998	-0.138759	0.275759	0.364504	0.36761	0.255468	-0.0426315	-0.131357	0.09344	-0.314914	-0.671619	-0.711987	-0.142512	-0.43265	-0.261679	-0.353438	
3.54767	5	0	0	0	-0.352892	-0.813465	0.596941	1.11346	0.778213	0.709193	0.513695	0.081276	0.202818	-0.033758	0.662416	0.020982	0.490452	-0.190476	0.235422	-0.146365	0.272262	0.356874	0.365708	0.237865	-0.049575	-0.135445	0.095378	-0.320391	-0.667504	-0.712453	-0.131394	-0.439915	-0.262586	-0.350877	
3.5553	5	0	0	0	-0.360841	-0.801292	0.591904	1.11044	0.775933	0.706859	0.509645	0.075996	0.210488	-0.0346125	0.657111	0.011643	0.502612	-0.203394	0.231845	-0.153972	0.268764	0.349245	0.363806	0.220261	-0.0565185	-0.139534	0.097316	-0.325869	-0.663389	-0.712919	-0.120276	-0.44718	-0.263492	-0.348316	
3.5614	5	0	0	0	-0.368791	-0.789119	0.586867	1.10743	0.773654	0.704526	0.505594	0.070716	0.218158	-0.035467	0.651806	0.002304	0.514771	-0.216313	0.228269	-0.161578	0.265267	0.341616	0.361903	0.202658	-0.063462	-0.143622	0.099254	-0.331346	-0.659274	-0.713386	-0.109157	-0.454445	-0.264398	-0.345754	
3.56293	5	0	0	0	-0.360841	-0.801292	0.59771	1.09404	0.772254	0.699711	0.512878	0.0501308	0.214311	-0.045418	0.648463	-0.0125485	0.501899	-0.222801	0.231697	-0.171266	0.26177	0.334	0.349439	0.192007	-0.061479	-0.149226	0.101191	-0.33682	-0.657204	-0.708068	-0.109157	-0.454445	-0.256646	-0.34885	
3.57056	5	0	0	0	-0.352892	-0.813465	0.608553	1.08065	0.770855	0.694895	0.520161	0.0295455	0.210464	-0.055369	0.64512	-0.027401	0.489027	-0.229288	0.235125	-0.180954	0.258274	0.326385	0.336975	0.181357	-0.059496	-0.15483	0.103128	-0.342294	-0.655133	-0.702749	-0.109157	-0.454445	-0.248894	-0.351946	
3.57513	5	0	0	0	-0.344942	-0.825638	0.619396	1.06726	0.769455	0.690079	0.527445	0.00896025	0.206618	-0.06532	0.641778	-0.0422535	0.476154	-0.235775	0.238552	-0.190642	0.254777	0.318769	0.324511	0.170706	-0.057513	-0.160435	0.105065	-0.347767	-0.653062	-0.697431	-0.109157	-0.454445	-0.241141	-0.355042	
3.58124	5	0	0	0	-0.336993	-0.837811	0.630239	1.05387	0.768056	0.685264	0.534729	-0.011625	0.202771	-0.075271	0.638435	-0.057106	0.463282	-0.242263	0.24198	-0.20033	0.251281	0.311154	0.312047	0.160055	-0.05553	-0.166039	0.107002	-0.353241	-0.650992	-0.692113	-0.109157	-0.454445	-0.233389	-0.358138	
3.58734	5	0	0	0	-0.32644	-0.847031	0.638188	1.04867	0.779294	0.679831	0.530673	-0.016874	0.208497	-0.0914543	0.623933	-0.0646242	0.472402	-0.268037	0.23954	-0.211131	0.250815	0.29499	0.310136	0.14256	-0.0585097	-0.1813	0.099185	-0.356542	-0.653062	-0.697431	-0.112349	-0.457507	-0.241141	-0.355042	
3.58887	5	0	0	0	-0.315887	-0.856251	0.646136	1.04348	0.790531	0.674397	0.526617	-0.022123	0.214224	-0.107637	0.60943	-0.0721425	0.481522	-0.29381	0.2371	-0.221932	0.25035	0.278825	0.308225	0.125065	-0.0614895	-0.19656	0.091368	-0.359843	-0.655133	-0.702749	-0.115541	-0.460568	-0.248894	-0.351946	
3.59497	5	0	0	0	-0.305335	-0.865471	0.654084	1.03829	0.801769	0.668963	0.522561	-0.027372	0.21995	-0.123821	0.594927	-0.0796608	0.490641	-0.319584	0.234661	-0.232733	0.249884	0.26266	0.306314	0.10757	-0.0644692	-0.21182	0.083551	-0.363144	-0.657204	-0.708068	-0.118733	-0.46363	-0.256646	-0.34885	
3.60565	5	0	0	0	-0.294782	-0.874691	0.662033	1.03309	0.813007	0.66353	0.518505	-0.032621	0.225676	-0.140004	0.580425	-0.087179	0.499761	-0.345358	0.232221	-0.243534	0.249418	0.246496	0.304403	0.090075	-0.067449	-0.227081	0.075734	-0.366445	-0.659274	-0.713386	-0.121925	-0.466692	-0.264398	-0.345754	
3.61633	5	0	0	0	-0.28482	-0.871897	0.668538	1.03199	0.820743	0.668031	0.522137	-0.042884	0.229488	-0.150777	0.582377	-0.0926968	0.504311	-0.358217	0.228641	-0.251095	0.255469	0.229396	0.304199	0.0677833	-0.0704345	-0.242294	0.0795995	-0.377369	-0.659301	-0.724473	-0.123538	-0.474208	-0.258964	-0.361112	
3.63617	5	0	0	0	-0.274858	-0.869104	0.675044	1.03089	0.828478	0.672532	0.525768	-0.053147	0.2333	-0.16155	0.58433	-0.0982145	0.508861	-0.371076	0.22506	-0.258655	0.26152	0.212296	0.303995	0.0454915	-0.07342	-0.257508	0.083465	-0.388294	-0.659328	-0.735559	-0.125151	-0.481725	-0.25353	-0.37647	
3.656	5	0	0	0	-0.264896	-0.86631	0.681549	1.02979	0.836213	0.677033	0.5294	-0.06341	0.237112	-0.172322	0.586282	-0.103732	0.513411	-0.383935	0.221479	-0.266216	0.26757	0.195196	0.303792	0.0231998	-0.0764055	-0.272722	0.0873305	-0.399218	-0.659355	-0.746646	-0.126764	-0.489241	-0.248096	-0.391828	
3.67126	5	0	0	0	-0.254934	-0.863516	0.688054	1.02869	0.843949	0.681534	0.533031	-0.073673	0.240924	-0.183095	0.588235	-0.10925	0.517961	-0.396794	0.217899	-0.273777	0.273621	0.178096	0.303588	0.000908	-0.079391	-0.287935	0.091196	-0.410142	-0.659382	-0.757733	-0.128377	-0.496758	-0.242662	-0.407186	
3.68957	5	0	0	0	-0.246027	-0.857689	0.694566	1.02759	0.854868	0.685883	0.541932	-0.0821173	0.258196	-0.190242	0.590186	-0.114765	0.517961	-0.396794	0.220175	-0.280209	0.270114	0.170544	0.298224	-0.00677225	-0.0774192	-0.293508	0.093127	-0.415599	-0.653223	-0.763976	-0.122819	-0.500389	-0.237429	-0.412571	
3.70331	5	0	0	0	-0.237119	-0.851862	0.701078	1.02649	0.865787	0.690233	0.550833	-0.0905615	0.275469	-0.197388	0.592137	-0.120279	0.517961	-0.396794	0.22245	-0.28664	0.266606	0.162992	0.29286	-0.0144525	-0.0754475	-0.299081	0.095058	-0.421057	-0.647064	-0.770219	-0.117262	-0.504021	-0.232195	-0.417957	
3.71246	5	0	0	0	-0.228212	-0.846036	0.70759	1.02539	0.876707	0.694582	0.559735	-0.0990058	0.292741	-0.204535	0.594089	-0.125794	0.517961	-0.396794	0.224726	-0.293072	0.263099	0.155441	0.287496	-0.0221327	-0.0734758	-0.304654	0.096989	-0.426514	-0.640905	-0.776462	-0.111704	-0.507652	-0.226962	-0.423342	
3.72314	5	0	0	0	-0.219305	-0.840209	0.714102	1.02429	0.887626	0.698932	0.568636	-0.10745	0.310013	-0.211681	0.59604	-0.131308	0.517961	-0.396794	0.227002	-0.299504	0.259591	0.147889	0.282132	-0.029813	-0.071504	-0.310227	0.09892	-0.431971	-0.634746	-0.782705	-0.106147	-0.511284	-0.221729	-0.428727	
3.7323	5	0	0	0	-0.2236	-0.828071	0.714102	1.02429	0.883572	0.701581	0.568636	-0.10745	0.311985	-0.196386	0.5849	-0.124029	0.52782	-0.403236	0.225864	-0.296289	0.259591	0.147889	0.285559	-0.039499	-0.0734758	-0.304654	0.108676	-0.43415	-0.634714	-0.771625	-0.103741	-0.506	-0.211446	-0.429547	
3.73535	5	0	0	0	-0.227895	-0.815933	0.714102	1.02429	0.879518	0.70423	0.568636	-0.10745	0.313958	-0.18109	0.573759	-0.11675	0.537679	-0.409678	0.224726	-0.293073	0.259591	0.147889	0.288987	-0.049185	-0.0754475	-0.299081	0.118432	-0.43633	-0.634683	-0.760545	-0.101335	-0.500717	-0.201163	-0.430367	
3.73688	5	0	0	0	-0.23219	-0.803795	0.714102	1.02429	0.875464	0.70688	0.568636	-0.10745	0.31593	-0.165795	0.562619	-0.10947	0.547538	-0.41612	0.223589	-0.289857	0.259591	0.147889	0.292414	-0.058871	-0.0774192	-0.293508	0.128188	-0.438509	-0.634651	-0.749465	-0.098929	-0.495433	-0.190879	-0.431187	
3.7323	5	0	0	0	-0.236485	-0.791657	0.714102	1.02429	0.87141	0.709529	0.568636	-0.10745	0.317902	-0.1505	0.551479	-0.102191	0.557397	-0.422562	0.222451	-0.286642	0.259591	0.147889	0.295841	-0.068557	-0.079391	-0.287935	0.137944	-0.440689	-0.634619	-0.738385	-0.096523	-0.49015	-0.180596	-0.432007	
3.73077	5	0	0	0	-0.229576	-0.800839	0.722073	1.01908	0.876346	0.704388	0.576335	-0.11248	0.315991	-0.145099	0.555378	-0.11321	0.547538	-0.41612	0.220174	-0.280208	0.255061	0.160693	0.294128	-0.0637155	-0.0764055	-0.272722	0.130209	-0.418827	-0.628395	-0.722425	-0.0972782	-0.475925	-0.180079	-0.414616	
3.72467	5	0	0	0	-0.222666	-0.810021	0.730044	1.01387	0.881282	0.699248	0.584034	-0.117511	0.31408	-0.139698	0.559276	-0.124228	0.537679	-0.409678	0.217898	-0.273774	0.25053	0.173496	0.292415	-0.058874	-0.07342	-0.257508	0.122473	-0.396965	-0.622171	-0.706465	-0.0980335	-0.461699	-0.179561	-0.397226	
3.71704	5	0	0	0	-0.215757	-0.819203	0.738014	1.00866	0.886217	0.694107	0.591732	-0.122541	0.312169	-0.134297	0.563175	-0.135246	0.52782	-0.403236	0.215622	-0.26734	0.245999	0.1863	0.290702	-0.0540325	-0.0704345	-0.242294	0.114738	-0.375103	-0.615947	-0.690506	-0.0987887	-0.447474	-0.179044	-0.379835	
3.71246	5	0	0	0	-0.208848	-0.828385	0.745985	1.00345	0.891153	0.688967	0.599431	-0.127572	0.310258	-0.128896	0.567074	-0.146265	0.517961	-0.396794	0.213345	-0.260906	0.241469	0.199104	0.288989	-0.049191	-0.067449	-0.227081	0.107002	-0.353241	-0.609723	-0.674546	-0.099544	-0.433249	-0.178527	-0.362445	
3.71094	5	0	0	0	-0.199318	-0.834612	0.749606	1.01056	0.899799	0.690982	0.601084	-0.115502	0.321844	-0.119833	0.563175	-0.135246	0.540745	-0.396847	0.216924	-0.253341	0.251502	0.205695	0.282127	-0.0297977	-0.0644692	-0.21182	0.126549	-0.357595	-0.608675	-0.666311	-0.09236	-0.429347	-0.17691	-0.357582	
3.71246	5	0	0	0	-0.189787	-0.840839	0.753226	1.01766	0.908445	0.692997	0.602737	-0.103432	0.33343	-0.110769	0.559276	-0.124228	0.563528	-0.3969	0.220502	-0.245776	0.261535	0.212286	0.275265	-0.0104045	-0.0614895	-0.19656	0.146096	-0.361948	-0.607627	-0.658077	-0.085176	-0.425445	-0.175293	-0.352719	
3.72162	5	0	0	0	-0.180257	-0.847067	0.756846	1.02476	0.917091	0.695013	0.60439	-0.091362	0.345017	-0.101706	0.555378	-0.11321	0.586312	-0.396953	0.224081	-0.23821	0.271567	0.218877	0.268402	0.00898875	-0.0585097	-0.1813	0.165643	-0.366302	-0.606579	-0.649842	-0.077992	-0.421543	-0.173676	-0.347856	
3.73993	5	0	0	0	-0.170727	-0.853294	0.760467	1.03186	0.925737	0.697028	0.606043	-0.079292	0.356603	-0.092642	0.551479	-0.102191	0.609096	-0.397006	0.22766	-0.230645	0.2816	0.225468	0.26154	0.028382	-0.05553	-0.166039	0.18519	-0.370655	-0.605531	-0.641608	-0.070808	-0.417641	-0.172059	-0.342993	
3.75976	5	0	0	0	-0.16609	-0.835295	0.767712	1.0461	0.933159	0.711378	0.615845	-0.056677	0.360521	-0.061812	0.537795	-0.0635185	0.620531	-0.364762	0.232533	-0.209007	0.303719	0.250606	0.268808	0.0535495	-0.0386473	-0.142525	0.187217	-0.350886	-0.602412	-0.628009	-0.060411	-0.410658	-0.173171	-0.330412	
3.78113	5	0	0	0	-0.161453	-0.817297	0.774957	1.06034	0.940581	0.725727	0.625647	-0.034062	0.364439	-0.030982	0.524111	-0.024846	0.631965	-0.332519	0.237406	-0.187369	0.325838	0.275745	0.276076	0.078717	-0.0217645	-0.119012	0.189244	-0.331118	-0.599293	-0.61441	-0.050014	-0.403675	-0.174283	-0.317831	
3.80707	5	0	0	0	-0.156816	-0.799299	0.782203	1.07459	0.948004	0.740077	0.635449	-0.011447	0.368357	-0.000152	0.510427	0.0138265	0.6434	-0.300276	0.242279	-0.165731	0.347957	0.300883	0.283343	0.103885	-0.00488175	-0.0954985	0.191271	-0.311349	-0.596174	-0.60081	-0.039617	-0.396693	-0.175396	-0.305249	
3.82843	5	0	0	0	-0.152179	-0.7813	0.789448	1.08883	0.955426	0.754427	0.645251	0.011168	0.372275	0.030678	0.496743	0.052499	0.654835	-0.268032	0.247152	-0.144093	0.370076	0.326021	0.290611	0.129052	0.012001	-0.071985	0.193298	-0.29158	-0.593055	-0.587211	-0.02922	-0.38971	-0.176508	-0.292668	
3.83911	5	0	0	0	-0.144924	-0.760251	0.788691	1.10835	0.954705	0.774151	0.651391	0.0442682	0.391661	0.0599775	0.499387	0.0934697	0.669307	-0.222501	0.257893	-0.121205	0.378026	0.373973	0.292669	0.169056	0.0209088	-0.0256602	0.19336	-0.266223	-0.583729	-0.56866	-0.0267825	-0.372315	-0.170965	-0.270535	
3.85284	5	0	0	0	-0.13767	-0.739202	0.787934	1.12787	0.953985	0.793875	0.657531	0.0773685	0.411048	0.089277	0.50203	0.13444	0.683779	-0.176971	0.268633	-0.098318	0.385975	0.421924	0.294727	0.209061	0.0298165	0.0206645	0.193422	-0.240866	-0.574403	-0.55011	-0.024345	-0.35492	-0.165421	-0.248401	
3.86047	5	0	0	0	-0.130415	-0.718154	0.787177	1.14739	0.953264	0.8136	0.663672	0.110469	0.430435	0.118577	0.504673	0.175411	0.698251	-0.13144	0.279373	-0.0754305	0.393925	0.469876	0.296784	0.249065	0.0387243	0.0669893	0.193484	-0.215509	-0.565077	-0.531559	-0.0219075	-0.337525	-0.159878	-0.226268	
3.86505	5	0	0	0	-0.12316	-0.697105	0.78642	1.16691	0.952544	0.833324	0.669812	0.143569	0.449821	0.147876	0.507317	0.216382	0.712723	-0.08591	0.290114	-0.052543	0.401874	0.517828	0.298842	0.28907	0.047632	0.113314	0.193546	-0.190152	-0.555751	-0.513008	-0.01947	-0.32013	-0.154335	-0.204135	
3.86658	5	0	0	0	-0.120999	-0.703213	0.784958	1.17105	0.94936	0.833477	0.67307	0.168072	0.445933	0.179947	0.506636	0.242573	0.701839	-0.0334793	0.286782	-0.0253447	0.416361	0.565284	0.306069	0.314576	0.063474	0.164304	0.199482	-0.155757	-0.550565	-0.482647	-0.0194365	-0.29591	-0.152246	-0.18164	
3.86352	5	0	0	0	-0.118837	-0.709322	0.783496	1.17518	0.946175	0.83363	0.676328	0.192576	0.442044	0.212018	0.505956	0.268765	0.690954	0.0189515	0.28345	0.0018535	0.430848	0.61274	0.313296	0.340083	0.079316	0.215294	0.205417	-0.121362	-0.54538	-0.452286	-0.019403	-0.27169	-0.150156	-0.159145	
3.85589	5	0	0	0	-0.116676	-0.715431	0.782034	1.17931	0.942991	0.833782	0.679587	0.217079	0.438156	0.244089	0.505275	0.294956	0.68007	0.0713822	0.280117	0.0290517	0.445336	0.660196	0.320524	0.36559	0.095158	0.266283	0.211352	-0.086967	-0.540194	-0.421924	-0.0193695	-0.247469	-0.148067	-0.13665	
3.84827	5	0	0	0	-0.114514	-0.721539	0.780572	1.18344	0.939807	0.833935	0.682845	0.241582	0.434267	0.27616	0.504594	0.321147	0.669186	0.123813	0.276785	0.05625	0.459823	0.707652	0.327751	0.391096	0.111	0.317273	0.217288	-0.052572	-0.535008	-0.391563	-0.019336	-0.223249	-0.145978	-0.114155	
3.84216	5	0	0	0	-0.114981	-0.730617	0.780572	1.18344	0.939284	0.826571	0.679541	0.267799	0.424523	0.303698	0.513095	0.345753	0.667524	0.150206	0.279203	0.067215	0.468814	0.735482	0.329614	0.40884	0.123884	0.353008	0.217289	-0.0269383	-0.532946	-0.374843	-0.0145235	-0.212502	-0.153088	-0.10353	
3.83301	5	0	0	0	-0.115448	-0.739695	0.780572	1.18344	0.938762	0.819207	0.676237	0.294015	0.414779	0.331236	0.521597	0.370359	0.665861	0.1766	0.28162	0.07818	0.477806	0.763312	0.331477	0.426584	0.136768	0.388742	0.21729	-0.0013045	-0.530883	-0.358123	-0.009711	-0.201755	-0.160199	-0.092906	
3.82385	5	0	0	0	-0.115914	-0.748772	0.780572	1.18344	0.938239	0.811843	0.672932	0.320232	0.405035	0.358774	0.530098	0.394964	0.664199	0.202993	0.284038	0.089145	0.486797	0.791143	0.33334	0.444327	0.149651	0.424476	0.217292	0.0243293	-0.52882	-0.341403	-0.0048985	-0.191008	-0.167309	-0.0822815	
3.81317	5	0	0	0	-0.116381	-0.75785	0.780572	1.18344	0.937716	0.804479	0.669628	0.346449	0.395291	0.386312	0.538599	0.41957	0.662537	0.229386	0.286456	0.10011	0.495789	0.818973	0.335203	0.462071	0.162535	0.460211	0.217293	0.049963	-0.526758	-0.324683	-8.6E-05	-0.180261	-0.17442	-0.071657	
3.80707	5	0	0	0	-0.11746	-0.7548	0.771109	1.1928	0.935056	0.811995	0.677783	0.357206	0.404956	0.401234	0.539859	0.440371	0.670852	0.249353	0.297078	0.105737	0.503211	0.851391	0.338807	0.474923	0.173364	0.502034	0.221219	0.0645407	-0.522618	-0.313806	-0.00408875	-0.168949	-0.178777	-0.06881	
3.80249	5	0	0	0	-0.118539	-0.75175	0.761646	1.20216	0.932397	0.819511	0.685937	0.367962	0.41462	0.416156	0.541119	0.461172	0.679167	0.269321	0.3077	0.111364	0.510633	0.88381	0.342411	0.487774	0.184192	0.543857	0.225144	0.0791185	-0.518478	-0.302928	-0.0080915	-0.157637	-0.183134	-0.065963	
3.79944	5	0	0	0	-0.119618	-0.748701	0.752183	1.21153	0.929737	0.827028	0.694092	0.378719	0.424284	0.431077	0.54238	0.481972	0.687482	0.289288	0.318323	0.116991	0.518055	0.916229	0.346016	0.500626	0.195021	0.58568	0.22907	0.0936962	-0.514339	-0.292051	-0.0120943	-0.146326	-0.187491	-0.063116	
3.81317	5	0	0	0	-0.120697	-0.745651	0.74272	1.22089	0.927077	0.834544	0.702247	0.389476	0.433949	0.445999	0.54364	0.502773	0.695797	0.309255	0.328945	0.122618	0.525477	0.948647	0.34962	0.513478	0.205849	0.627503	0.232996	0.108274	-0.510199	-0.281174	-0.016097	-0.135014	-0.191848	-0.060269	
3.84064	5	0	0	0	-0.123937	-0.736496	0.734727	1.22611	0.920348	0.844724	0.694826	0.410448	0.435844	0.461797	0.533656	0.53099	0.698782	0.32259	0.32315	0.138995	0.532876	0.981284	0.340849	0.538264	0.214578	0.675544	0.234938	0.128494	-0.506082	-0.258893	-0.0161005	-0.122818	-0.192082	-0.0501412	
3.88641	5	0	0	0	-0.127176	-0.727341	0.726734	1.23133	0.913619	0.854905	0.687406	0.43142	0.437738	0.477596	0.523672	0.559206	0.701767	0.335925	0.317356	0.155373	0.540275	1.01392	0.332079	0.563051	0.223307	0.723585	0.23688	0.148714	-0.501965	-0.236613	-0.016104	-0.110622	-0.192316	-0.0400135	
3.93982	5	0	0	0	-0.130415	-0.718187	0.718741	1.23656	0.906889	0.865085	0.679985	0.452393	0.439633	0.493395	0.513688	0.587423	0.704753	0.34926	0.311561	0.171751	0.547674	1.04656	0.323308	0.587838	0.232035	0.771625	0.238822	0.168935	-0.497848	-0.214332	-0.0161075	-0.0984268	-0.19255	-0.0298857	
4.00238	5	0	0	0	-0.133655	-0.709032	0.710748	1.24178	0.90016	0.875266	0.672564	0.473365	0.441528	0.509193	0.503704	0.61564	0.707738	0.362595	0.305766	0.188128	0.555073	1.07919	0.314538	0.612624	0.240764	0.819666	0.240764	0.189155	-0.493731	-0.192052	-0.016111	-0.086231	-0.192784	-0.019758	
4.06189	5	0	0	0	-0.136742	-0.721084	0.708609	1.23047	0.88923	0.870846	0.670087	0.480366	0.425898	0.532211	0.499702	0.626952	0.68301	0.388962	0.305766	0.188128	0.550702	1.10943	0.314538	0.612624	0.260656	0.860836	0.244678	0.203838	-0.477113	-0.170997	-0.006494	-0.076806	-0.195784	-0.0018075	
4.11987	5	0	0	0	-0.139828	-0.733137	0.70647	1.21917	0.8783	0.866426	0.667609	0.487368	0.410269	0.555229	0.495699	0.638263	0.658282	0.41533	0.305766	0.188128	0.546331	1.13967	0.314538	0.612624	0.280548	0.902006	0.248592	0.21852	-0.460495	-0.149943	0.003123	-0.067381	-0.198785	0.016143	
4.17633	5	0	0	0	-0.142915	-0.745189	0.70433	1.20786	0.867371	0.862006	0.665131	0.49437	0.39464	0.578247	0.491697	0.649575	0.633554	0.441697	0.305766	0.188128	0.541959	1.16991	0.314538	0.612624	0.300441	0.943176	0.252505	0.233202	-0.443878	-0.128889	0.01274	-0.057956	-0.201785	0.0340935	
4.22363	5	0	0	0	-0.146002	-0.757241	0.702191	1.19656	0.856441	0.857586	0.662654	0.501371	0.37901	0.601265	0.487694	0.660887	0.608826	0.468064	0.305766	0.188128	0.537588	1.20014	0.314538	0.612624	0.320333	0.984346	0.256419	0.247885	-0.42726	-0.107834	0.022357	-0.048531	-0.204785	0.052044	
4.29382	5	0	0	0	-0.147546	-0.763256	0.69062	1.19461	0.85504	0.852728	0.649574	0.504535	0.380976	0.59571	0.478483	0.662556	0.601179	0.467954	0.298718	0.190213	0.53443	1.20907	0.305691	0.614589	0.326102	1.01693	0.252444	0.259118	-0.427333	-0.0849005	0.0175277	-0.0348825	-0.20411	0.059612	
4.37469	5	0	0	0	-0.149091	-0.76927	0.679049	1.19266	0.853639	0.84787	0.636493	0.507699	0.382942	0.590154	0.469272	0.664226	0.593533	0.467844	0.291671	0.192298	0.531271	1.218	0.296844	0.616554	0.331872	1.04951	0.24847	0.270352	-0.427405	-0.061967	0.0126985	-0.021234	-0.203435	0.06718	
4.39911	5	0	0	0	-0.150635	-0.775285	0.667478	1.19071	0.852239	0.843011	0.623412	0.510864	0.384907	0.584599	0.46006	0.665895	0.585886	0.467734	0.284623	0.194382	0.528112	1.22692	0.287997	0.61852	0.337642	1.08209	0.244495	0.281585	-0.427478	-0.0390335	0.00786925	-0.0075855	-0.202759	0.074748	
4.43268	5	0	0	0	-0.152179	-0.7813	0.655907	1.18876	0.850838	0.838153	0.610332	0.514028	0.386873	0.579043	0.450849	0.667564	0.578239	0.467624	0.277576	0.196467	0.524954	1.23585	0.27915	0.620485	0.343411	1.11467	0.24052	0.292819	-0.427551	-0.0161	0.00304	0.006063	-0.202084	0.082316	
4.44641	5	0	0	0	-0.14323	-0.775438	0.655907	1.18876	0.850466	0.848021	0.61157	0.510529	0.384907	0.584599	0.450849	0.667564	0.582934	0.454354	0.272853	0.191998	0.523374	1.24031	0.282659	0.610568	0.346284	1.13104	0.23066	0.294942	-0.418133	-0.0199612	0.0046505	0.00151125	-0.20804	0.0801998	
4.47693	5	0	0	0	-0.13428	-0.769575	0.655907	1.18876	0.850094	0.85789	0.612808	0.50703	0.382942	0.590154	0.450849	0.667564	0.58763	0.441084	0.268131	0.18753	0.521794	1.24478	0.286168	0.60065	0.349158	1.14741	0.220799	0.297066	-0.408715	-0.0238225	0.006261	-0.0030405	-0.213996	0.0780835	
4.50592	5	0	0	0	-0.125331	-0.763713	0.655907	1.18876	0.849722	0.867759	0.614046	0.503532	0.380976	0.59571	0.450849	0.667564	0.592326	0.427814	0.263409	0.183061	0.520213	1.24925	0.289678	0.590733	0.352032	1.16378	0.210939	0.299189	-0.399297	-0.0276837	0.0078715	-0.00759225	-0.219951	0.0759673	
4.52118	5	0	0	0	-0.116381	-0.75785	0.655907	1.18876	0.84935	0.877627	0.615284	0.500033	0.37901	0.601265	0.450849	0.667564	0.597021	0.414544	0.258686	0.178592	0.518633	1.25371	0.293187	0.580816	0.354905	1.18015	0.201078	0.301313	-0.389879	-0.031545	0.009482	-0.012144	-0.225907	0.073851	
4.53186	5	0	0	0	-0.113288	-0.745792	0.646485	1.19808	0.851259	0.889878	0.60999	0.498116	0.388746	0.594904	0.443651	0.663577	0.597021	0.414544	0.263316	0.165507	0.520213	1.24925	0.286102	0.577829	0.37118	1.18324	0.203065	0.295698	-0.385693	-0.0319867	0.00386275	-0.00847225	-0.223144	0.0660435	
4.54559	5	0	0	0	-0.110195	-0.733734	0.637064	1.20741	0.853168	0.902128	0.604696	0.496198	0.398482	0.588542	0.436452	0.65959	0.597021	0.414544	0.267946	0.152422	0.521794	1.24478	0.279018	0.574842	0.387455	1.18632	0.205051	0.290083	-0.381507	-0.0324285	-0.0017565	-0.0048005	-0.220382	0.058236	
4.55017	5	0	0	0	-0.107102	-0.721676	0.627642	1.21673	0.855077	0.914379	0.599402	0.494281	0.408217	0.58218	0.429254	0.655602	0.597021	0.414544	0.272576	0.139337	0.523374	1.24031	0.271933	0.571856	0.40373	1.1894	0.207038	0.284468	-0.377321	-0.0328703	-0.00737575	-0.00112875	-0.217619	0.0504285	
4.56543	5	0	0	0	-0.104009	-0.709618	0.61822	1.22606	0.856986	0.92663	0.594108	0.492364	0.417953	0.575819	0.422055	0.651615	0.597021	0.414544	0.277206	0.126252	0.524954	1.23585	0.264849	0.568869	0.420005	1.19249	0.209025	0.278853	-0.373135	-0.033312	-0.012995	0.002543	-0.214856	0.042621	
4.58374	5	0	0	0	-0.105712	-0.694398	0.611723	1.22713	0.849369	0.939332	0.586347	0.497436	0.421795	0.586137	0.420056	0.657266	0.594674	0.421177	0.271327	0.125069	0.515143	1.24569	0.26835	0.558974	0.418656	1.22089	0.207038	0.284468	-0.368984	-0.022247	-0.00416875	0.0020255	-0.221054	0.0506723	
4.61578	5	0	0	0	-0.107414	-0.679177	0.605225	1.22821	0.841751	0.952035	0.578585	0.502507	0.425638	0.596456	0.418056	0.662916	0.592328	0.427809	0.265448	0.123887	0.505332	1.25554	0.271852	0.549078	0.417308	1.24928	0.205051	0.290083	-0.364832	-0.011182	0.0046575	0.001508	-0.227253	0.0587235	
4.64477	5	0	0	0	-0.109117	-0.663957	0.598728	1.22929	0.834134	0.964738	0.570824	0.507579	0.429481	0.606774	0.416056	0.668566	0.589981	0.434442	0.259569	0.122704	0.49552	1.26538	0.275353	0.539182	0.41596	1.27768	0.203065	0.295698	-0.36068	-0.000117	0.0134838	0.0009905	-0.233452	0.0667747	
4.66003	5	0	0	0	-0.11082	-0.648737	0.592231	1.23036	0.826517	0.97744	0.563063	0.51265	0.433323	0.617093	0.414057	0.674217	0.587634	0.441074	0.25369	0.121521	0.485709	1.27523	0.278854	0.529287	0.414611	1.30608	0.201078	0.301313	-0.356529	0.010948	0.02231	0.000473	-0.23965	0.074826	
4.67071	5	0	0	0	-0.110199	-0.660902	0.580713	1.22839	0.822843	0.970185	0.556545	0.514222	0.419633	0.634604	0.406871	0.670227	0.5753	0.454236	0.248972	0.117074	0.47274	1.29401	0.271775	0.526314	0.41535	1.32862	0.197101	0.312553	-0.350301	0.027597	0.016665	0.0164265	-0.23462	0.0795483	
4.69971	5	0	0	0	-0.109577	-0.673066	0.569195	1.22642	0.819168	0.962931	0.550028	0.515794	0.405944	0.652116	0.399684	0.666238	0.562966	0.467398	0.244254	0.112628	0.459771	1.3128	0.264695	0.52334	0.416088	1.35115	0.193123	0.323794	-0.344074	0.044246	0.01102	0.03238	-0.22959	0.0842705	
4.70581	5	0	0	0	-0.108955	-0.68523	0.557677	1.22445	0.815494	0.955677	0.54351	0.517366	0.392254	0.669627	0.392497	0.662249	0.550632	0.48056	0.239535	0.108181	0.446803	1.33158	0.257616	0.520367	0.416826	1.37369	0.189145	0.335035	-0.337846	0.060895	0.005375	0.0483335	-0.22456	0.0889928	
4.71191	5	0	0	0	-0.108334	-0.697395	0.546159	1.22247	0.81182	0.948422	0.536992	0.518938	0.378564	0.687138	0.385311	0.658259	0.538298	0.493722	0.234817	0.103734	0.433834	1.35037	0.250537	0.517394	0.417565	1.39622	0.185168	0.346275	-0.331619	0.077544	-0.00027	0.064287	-0.21953	0.093715	
4.73022	5	0	0	0	-0.105707	-0.694411	0.547615	1.21836	0.815878	0.94577	0.534518	0.525929	0.384364	0.691925	0.383313	0.663906	0.543581	0.500487	0.238279	0.0939505	0.442057	1.345	0.262861	0.505545	0.415442	1.40222	0.189145	0.335035	-0.333742	0.0835437	-0.00027	0.064287	-0.222967	0.093958	
4.72565	5	0	0	0	-0.10308	-0.691426	0.549071	1.21424	0.819936	0.943119	0.532045	0.532919	0.390163	0.696713	0.381315	0.669553	0.548864	0.507252	0.24174	0.084167	0.450279	1.33962	0.275185	0.493696	0.413319	1.40822	0.193123	0.323794	-0.335865	0.0895435	-0.00027	0.064287	-0.226405	0.094201	
4.7287	5	0	0	0	-0.100454	-0.688441	0.550526	1.21013	0.823994	0.940468	0.529571	0.53991	0.395962	0.7015	0.379317	0.6752	0.554147	0.514017	0.245202	0.0743835	0.458502	1.33425	0.287509	0.481846	0.411196	1.41422	0.197101	0.312553	-0.337988	0.0955432	-0.00027	0.064287	-0.229842	0.094444	
4.71954	5	0	0	0	-0.097827	-0.685457	0.551982	1.20602	0.828052	0.937816	0.527097	0.546901	0.401762	0.706287	0.377319	0.680847	0.55943	0.520782	0.248664	0.0646	0.466725	1.32888	0.299833	0.469997	0.409073	1.42022	0.201078	0.301313	-0.340111	0.101543	-0.00027	0.064287	-0.233279	0.094687	
4.71496	5	0	0	0	-0.089479	-0.667358	0.54907	1.21425	0.833125	0.949956	0.527419	0.562839	0.411399	0.721479	0.369314	0.70347	0.575307	0.54115	0.24751	0.06786	0.475269	1.34051	0.298086	0.474935	0.423276	1.42942	0.19909	0.306932	-0.336975	0.104109	0.00374225	0.0651738	-0.233279	0.094687	
4.71039	5	0	0	0	-0.081131	-0.64926	0.546157	1.22248	0.838197	0.962096	0.527741	0.578777	0.421036	0.736671	0.361309	0.726093	0.591184	0.561518	0.246357	0.07112	0.483813	1.35215	0.296339	0.479874	0.437478	1.43862	0.197102	0.31255	-0.333838	0.106676	0.0077545	0.0660605	-0.233279	0.094687	
4.69818	5	0	0	0	-0.072783	-0.631162	0.543245	1.23071	0.84327	0.974237	0.528063	0.594715	0.430673	0.751864	0.353304	0.748717	0.607061	0.581886	0.245203	0.07438	0.492357	1.36379	0.294591	0.484812	0.45168	1.44782	0.195114	0.318168	-0.330701	0.109242	0.0117668	0.0669472	-0.233279	0.094687	
4.69971	5	0	0	0	-0.064435	-0.613063	0.540333	1.23894	0.848342	0.986377	0.528385	0.610653	0.44031	0.767056	0.345299	0.77134	0.622938	0.602254	0.24405	0.07764	0.500901	1.37543	0.292844	0.48975	0.465883	1.45702	0.193126	0.323787	-0.327565	0.111808	0.015779	0.067834	-0.233279	0.094687	
4.69665	5	0	0	0	-0.057171	-0.591807	0.537418	1.24718	0.846171	1.00135	0.527453	0.63015	0.445983	0.793547	0.348458	0.786713	0.626426	0.636016	0.24646	0.0886103	0.511348	1.39971	0.296435	0.50261	0.473711	1.48437	0.199003	0.332921	-0.31708	0.11651	0.0230033	0.0718923	-0.228248	0.0994155	
4.69513	5	0	0	0	-0.049907	-0.570551	0.534502	1.25542	0.843999	1.01632	0.526521	0.649647	0.451656	0.820039	0.351616	0.802086	0.629914	0.669777	0.24887	0.0995805	0.521796	1.42399	0.300026	0.51547	0.481539	1.51172	0.204879	0.342056	-0.306596	0.121211	0.0302275	0.0759505	-0.223216	0.104144	
4.69513	5	0	0	0	-0.042643	-0.549295	0.531587	1.26365	0.841827	1.03129	0.52559	0.669144	0.457329	0.84653	0.354774	0.817459	0.633402	0.703539	0.25128	0.110551	0.532244	1.44827	0.303617	0.52833	0.489367	1.53906	0.210756	0.351191	-0.296112	0.125913	0.0374517	0.0800088	-0.218185	0.108872	
4.69971	5	0	0	0	-0.035379	-0.528039	0.528672	1.27189	0.839656	1.04626	0.524658	0.688641	0.463002	0.873022	0.357933	0.832832	0.63689	0.737301	0.25369	0.121521	0.542691	1.47254	0.307208	0.54119	0.497195	1.56641	0.216633	0.360325	-0.285627	0.130615	0.044676	0.084067	-0.213154	0.113601	
4.69665	5	0	0	0	-0.0331998	-0.534198	0.523653	1.26884	0.835092	1.04149	0.518434	0.706231	0.464835	0.88914	0.351901	0.849881	0.635044	0.764367	0.258412	0.125973	0.546459	1.49785	0.310796	0.554086	0.507162	1.58785	0.21464	0.365958	-0.283602	0.147817	0.0438385	0.0986833	-0.204674	0.118093	
4.6936	5	0	0	0	-0.0310205	-0.540357	0.518634	1.26578	0.830529	1.03673	0.51221	0.723821	0.466668	0.905258	0.345868	0.86693	0.633197	0.791434	0.263135	0.130425	0.550228	1.52316	0.314385	0.566982	0.517128	1.60928	0.212647	0.37159	-0.281578	0.165019	0.043001	0.113299	-0.196194	0.122585	
4.69208	5	0	0	0	-0.0288413	-0.546516	0.513616	1.26273	0.825965	1.03196	0.505986	0.741412	0.468501	0.921377	0.339836	0.883978	0.631351	0.8185	0.267857	0.134878	0.553997	1.54846	0.317974	0.579877	0.527095	1.63072	0.210654	0.377223	-0.279553	0.182221	0.0421635	0.127916	-0.187714	0.127078	
4.68597	5	0	0	0	-0.026662	-0.552675	0.508597	1.25968	0.821401	1.0272	0.499762	0.759002	0.470334	0.937495	0.333803	0.901027	0.629505	0.845566	0.272579	0.13933	0.557765	1.57377	0.321562	0.592773	0.537061	1.65215	0.208661	0.382856	-0.277528	0.199423	0.041326	0.142532	-0.179234	0.13157	
4.67682	5	0	0	0	-0.0271198	-0.561836	0.511509	1.25144	0.820901	1.01979	0.505037	0.760972	0.476155	0.942365	0.340974	0.905093	0.634799	0.852478	0.280778	0.133972	0.551355	1.59188	0.323317	0.587813	0.544199	1.65683	0.204671	0.394132	-0.274383	0.202007	0.0397052	0.147113	-0.186376	0.142264	
4.67224	5	0	0	0	-0.0275775	-0.570998	0.514422	1.24321	0.820401	1.01238	0.510312	0.762941	0.481977	0.947236	0.348144	0.90916	0.640093	0.85939	0.288977	0.128615	0.544945	1.61	0.325072	0.582852	0.551338	1.66151	0.200682	0.405408	-0.271238	0.204591	0.0380845	0.151694	-0.193518	0.152958	
4.66614	5	0	0	0	-0.0280353	-0.580159	0.517335	1.23498	0.8199	1.00497	0.515588	0.764911	0.487799	0.952106	0.355314	0.913226	0.645387	0.866302	0.297177	0.123257	0.538536	1.62811	0.326827	0.577892	0.558476	1.66618	0.196692	0.416684	-0.268093	0.207175	0.0364638	0.156275	-0.200661	0.163652	
4.65698	5	0	0	0	-0.028493	-0.58932	0.520247	1.22675	0.8194	0.997554	0.520863	0.766881	0.49362	0.956977	0.362485	0.917292	0.650681	0.873214	0.305376	0.117899	0.532126	1.64623	0.328582	0.572932	0.565614	1.67086	0.192702	0.42796	-0.264948	0.209759	0.034843	0.160856	-0.207803	0.174346	
4.64935	5	0	0	0	-0.0221315	-0.586383	0.51232	1.23193	0.821681	0.999931	0.518368	0.773933	0.495617	0.951334	0.360469	0.92299	0.658371	0.873381	0.298333	0.119987	0.548707	1.63539	0.335687	0.575918	0.572061	1.65264	0.198685	0.411051	-0.27017	0.201579	0.0332558	0.153092	-0.207547	0.164136	
4.64325	5	0	0	0	-0.01577	-0.583445	0.504394	1.23711	0.823963	1.00231	0.515873	0.780984	0.497614	0.94569	0.358453	0.928687	0.666061	0.873548	0.291291	0.122076	0.565288	1.62456	0.342792	0.578904	0.578507	1.63442	0.204668	0.394143	-0.275392	0.1934	0.0316685	0.145328	-0.207291	0.153927	
4.63409	5	0	0	0	-0.0094085	-0.580508	0.496468	1.24229	0.826245	1.00469	0.513378	0.788035	0.49961	0.940047	0.356438	0.934384	0.673751	0.873714	0.284249	0.124164	0.58187	1.61373	0.349897	0.581891	0.584954	1.6162	0.21065	0.377234	-0.280614	0.185221	0.0300812	0.137564	-0.207035	0.143717	
4.62799	5	0	0	0	-0.003047	-0.577571	0.488541	1.24747	0.828526	1.00706	0.510883	0.795087	0.501607	0.934404	0.354422	0.940082	0.681441	0.873881	0.277206	0.126252	0.598451	1.60289	0.357002	0.584877	0.591401	1.59798	0.216633	0.360325	-0.285836	0.177041	0.028494	0.1298	-0.206779	0.133508	
4.63104	5	0	0	0	-0.00258825	-0.568401	0.497923	1.23818	0.824464	1.00972	0.512131	0.791561	0.501607	0.934404	0.356438	0.934384	0.686748	0.880808	0.287718	0.114359	0.585076	1.60466	0.357002	0.584877	0.586397	1.58727	0.222605	0.343448	-0.28051	0.161989	0.0277137	0.119763	-0.204009	0.12568	
4.63409	5	0	0	0	-0.0021295	-0.55923	0.507305	1.22889	0.820402	1.01237	0.513378	0.788034	0.501607	0.934404	0.358453	0.928687	0.692055	0.887736	0.29823	0.102466	0.571701	1.60644	0.357002	0.584877	0.581393	1.57656	0.228577	0.326572	-0.275184	0.146936	0.0269335	0.109727	-0.201239	0.117852	
4.63867	5	0	0	0	-0.00167075	-0.55006	0.516686	1.21959	0.816341	1.01503	0.514626	0.784508	0.501607	0.934404	0.360469	0.92299	0.697362	0.894663	0.308742	0.090573	0.558327	1.60821	0.357002	0.584877	0.57639	1.56586	0.234548	0.309696	-0.269858	0.131883	0.0261532	0.0996897	-0.198469	0.110024	
4.64935	5	0	0	0	-0.001212	-0.54089	0.526068	1.2103	0.812279	1.01768	0.515874	0.780981	0.501607	0.934404	0.362485	0.917292	0.702669	0.90159	0.319254	0.07868	0.544952	1.60998	0.357002	0.584877	0.571386	1.55515	0.24052	0.292819	-0.264532	0.116831	0.025373	0.089653	-0.195699	0.102196	
4.65546	5	0	0	0	-0.004939	-0.540823	0.523956	1.19905	0.805443	1.01055	0.5106	0.779008	0.495783	0.92954	0.366513	0.905908	0.697362	0.894663	0.306329	0.079596	0.552954	1.58737	0.360513	0.574954	0.570657	1.53239	0.218827	0.302674	-0.264532	0.116831	0.0205507	0.0910477	-0.194776	0.099588	
4.66156	5	0	0	0	-0.008666	-0.540756	0.521844	1.1878	0.798606	1.00342	0.505326	0.777036	0.489959	0.924677	0.370541	0.894524	0.692055	0.887736	0.293403	0.080512	0.560956	1.56475	0.364024	0.565031	0.569928	1.50963	0.197134	0.312529	-0.264532	0.116831	0.0157285	0.0924425	-0.193854	0.09698	
4.66156	5	0	0	0	-0.012393	-0.54069	0.519731	1.17654	0.79177	0.996287	0.500051	0.775064	0.484135	0.919814	0.374569	0.883141	0.686748	0.880808	0.280477	0.081428	0.568958	1.54214	0.367535	0.555108	0.5692	1.48687	0.175442	0.322384	-0.264532	0.116831	0.0109062	0.0938372	-0.192931	0.094372	
4.66308	5	0	0	0	-0.01612	-0.540623	0.517619	1.16529	0.784934	0.989156	0.494777	0.773091	0.478311	0.91495	0.378597	0.871757	0.681441	0.873881	0.267552	0.082344	0.57696	1.51952	0.371046	0.545185	0.568471	1.46411	0.153749	0.332239	-0.264532	0.116831	0.006084	0.095232	-0.192008	0.091764	
4.66003	5	0	0	0	-0.0196745	-0.561943	0.511937	1.14695	0.777605	0.974659	0.489218	0.75509	0.466681	0.905244	0.368268	0.852318	0.668457	0.866802	0.266288	0.0681355	0.568393	1.50778	0.367441	0.532309	0.549939	1.46695	0.169553	0.313281	-0.26245	0.122412	0.0077	0.090665	-0.184197	0.088665	
4.66003	5	0	0	0	-0.023229	-0.583263	0.506255	1.12861	0.770277	0.960162	0.483658	0.737089	0.455052	0.895538	0.357939	0.832878	0.655473	0.859724	0.265024	0.053927	0.559826	1.49603	0.363835	0.519433	0.531408	1.46979	0.185358	0.294324	-0.260367	0.127992	0.009316	0.086098	-0.176386	0.085566	
4.65698	5	0	0	0	-0.0267835	-0.604583	0.500573	1.11028	0.762949	0.945664	0.478099	0.719089	0.443422	0.885832	0.34761	0.813438	0.642489	0.852645	0.26376	0.0397185	0.551258	1.48429	0.360229	0.506558	0.512876	1.47262	0.201162	0.275366	-0.258284	0.133573	0.010932	0.081531	-0.168574	0.082467	
4.64783	5	0	0	0	-0.030338	-0.625903	0.494891	1.09194	0.75562	0.931167	0.47254	0.701088	0.431793	0.876126	0.337281	0.793999	0.629505	0.845566	0.262496	0.02551	0.542691	1.47254	0.356624	0.493682	0.494344	1.47546	0.216967	0.256408	-0.256202	0.139153	0.012548	0.076964	-0.160763	0.079368	
4.64172	5	0	0	0	-0.0308022	-0.635034	0.494216	1.07667	0.751958	0.923937	0.465739	0.686659	0.429957	0.860064	0.336121	0.773009	0.618931	0.83178	0.263523	0.004844	0.527479	1.46173	0.356508	0.470973	0.500734	1.4574	0.195303	0.266252	-0.255186	0.147755	0.00291325	0.0797505	-0.166978	0.08744	
4.63257	5	0	0	0	-0.0312665	-0.644165	0.493541	1.06141	0.748296	0.916708	0.458937	0.67223	0.428121	0.844001	0.334962	0.75202	0.608356	0.817994	0.264549	-0.015822	0.512266	1.45092	0.356391	0.448265	0.507124	1.43934	0.173639	0.276097	-0.25417	0.156357	-0.0067215	0.082537	-0.173192	0.095512	
4.62646	5	0	0	0	-0.0317308	-0.653296	0.492866	1.04614	0.744633	0.909478	0.452136	0.657801	0.426286	0.827939	0.333802	0.73103	0.597781	0.804207	0.265576	-0.036488	0.497054	1.44011	0.356275	0.425556	0.513515	1.42128	0.151975	0.285941	-0.253155	0.164958	-0.0163563	0.0853235	-0.179406	0.103584	
4.61731	5	0	0	0	-0.032195	-0.662427	0.492191	1.03087	0.740971	0.902248	0.445335	0.643372	0.42445	0.811877	0.332642	0.71004	0.587207	0.790421	0.266603	-0.057154	0.481841	1.42929	0.356159	0.402847	0.519905	1.40322	0.130311	0.295785	-0.252139	0.17356	-0.025991	0.08811	-0.185621	0.111656	
4.60663	5	0	0	0	-0.0258353	-0.659508	0.495078	1.02271	0.742359	0.907113	0.443792	0.630931	0.428415	0.800672	0.327477	0.700399	0.591959	0.776992	0.265319	-0.0712735	0.473309	1.41762	0.352541	0.390063	0.510655	1.40465	0.134276	0.28458	-0.246856	0.170108	-0.02357	0.0812675	-0.188815	0.101716	
4.60205	5	0	0	0	-0.0194755	-0.656589	0.497965	1.01455	0.743747	0.911978	0.442248	0.618491	0.43238	0.789466	0.322313	0.690758	0.596711	0.763563	0.264036	-0.085393	0.464777	1.40595	0.348923	0.377279	0.501406	1.40607	0.138241	0.273375	-0.241572	0.166656	-0.021149	0.074425	-0.192008	0.091775	
4.58832	5	0	0	0	-0.0131157	-0.65367	0.500852	1.00639	0.745135	0.916843	0.440704	0.606051	0.436345	0.778261	0.317148	0.681116	0.601463	0.750133	0.262752	-0.0995125	0.456245	1.39428	0.345305	0.364495	0.492156	1.40749	0.142206	0.262169	-0.236289	0.163203	-0.018728	0.0675825	-0.195202	0.0818345	
4.58069	5	0	0	0	-0.006756	-0.650751	0.503739	0.998234	0.746523	0.921708	0.439161	0.59361	0.44031	0.767056	0.311984	0.671475	0.606215	0.736704	0.261469	-0.113632	0.447713	1.38261	0.341687	0.351711	0.482907	1.40891	0.146171	0.250964	-0.231006	0.159751	-0.016307	0.06074	-0.198396	0.071894	
4.57916	5	0	0	0	-0.00691775	-0.629378	0.495842	1.00339	0.749298	0.931453	0.426188	0.596715	0.44031	0.767056	0.302838	0.673118	0.608588	0.729997	0.261469	-0.113632	0.450883	1.37365	0.341687	0.351711	0.482907	1.40891	0.146171	0.250964	-0.225719	0.156297	-0.0155002	0.0584603	-0.190588	0.0687953	
4.56695	5	0	0	0	-0.0070795	-0.608005	0.487945	1.00855	0.752073	0.941199	0.413215	0.599819	0.44031	0.767056	0.293693	0.674761	0.610961	0.72329	0.261469	-0.113632	0.454052	1.36469	0.341687	0.351711	0.482907	1.40891	0.146171	0.250964	-0.220432	0.152842	-0.0146935	0.0561805	-0.182781	0.0656965	
4.56238	5	0	0	0	-0.00724125	-0.586632	0.480047	1.01371	0.754848	0.950945	0.400241	0.602924	0.44031	0.767056	0.284547	0.676404	0.613335	0.716582	0.261469	-0.113632	0.457222	1.35574	0.341687	0.351711	0.482907	1.40891	0.146171	0.250964	-0.215146	0.149388	-0.0138867	0.0539007	-0.174974	0.0625978	
4.55475	5	0	0	0	-0.007403	-0.565259	0.47215	1.01887	0.757623	0.96069	0.387268	0.606029	0.44031	0.767056	0.275401	0.678047	0.615708	0.709875	0.261469	-0.113632	0.460391	1.34678	0.341687	0.351711	0.482907	1.40891	0.146171	0.250964	-0.209859	0.145933	-0.01308	0.051621	-0.167166	0.059499	
4.54864	5	0	0	0	-0.00758425	-0.543807	0.456377	1.02918	0.749135	0.975884	0.382026	0.604086	0.45009	0.760665	0.266268	0.679684	0.615708	0.709875	0.254455	-0.111538	0.455334	1.3432	0.341687	0.351711	0.485033	1.4029	0.148151	0.245367	-0.204614	0.154106	-0.0090705	0.0525067	-0.160516	0.0691922	
4.54407	5	0	0	0	-0.0077655	-0.522355	0.440605	1.03949	0.740646	0.991077	0.376784	0.602143	0.45987	0.754275	0.257135	0.681321	0.615708	0.709875	0.24744	-0.109445	0.450278	1.33963	0.341687	0.351711	0.487158	1.3969	0.150132	0.23977	-0.199369	0.162278	-0.005061	0.0533925	-0.153866	0.0788855	
4.53796	5	0	0	0	-0.00794675	-0.500904	0.424833	1.04979	0.732158	1.00627	0.371543	0.6002	0.469651	0.747884	0.248002	0.682959	0.615708	0.709875	0.240426	-0.107352	0.445221	1.33605	0.341687	0.351711	0.489284	1.39089	0.152113	0.234172	-0.194125	0.170451	-0.0010515	0.0542783	-0.147216	0.0885787	
4.53491	5	0	0	0	-0.008128	-0.479452	0.40906	1.0601	0.723669	1.02146	0.366301	0.598257	0.479431	0.741494	0.238869	0.684596	0.615708	0.709875	0.233411	-0.105258	0.440165	1.33248	0.341687	0.351711	0.49141	1.38488	0.154093	0.228575	-0.18888	0.178623	0.002958	0.055164	-0.140566	0.098272	
4.53338	5	0	0	0	-0.00439825	-0.479515	0.410502	1.05602	0.719623	1.02411	0.367227	0.578896	0.475588	0.731103	0.246829	0.662101	0.612785	0.696339	0.236846	-0.114967	0.430066	1.32534	0.343428	0.346792	0.482173	1.3863	0.150131	0.239773	-0.188931	0.190276	0.0165987	0.065564	-0.138289	0.110851	
4.52576	5	0	0	0	-0.0006685	-0.479577	0.411945	1.05195	0.715576	1.02675	0.368154	0.559535	0.471746	0.720712	0.254788	0.639606	0.609862	0.682803	0.240282	-0.124675	0.419967	1.3182	0.345168	0.341873	0.472935	1.38772	0.146169	0.250971	-0.188982	0.201929	0.0302395	0.075964	-0.136012	0.12343	
4.51965	5	0	0	0	0.00306125	-0.47964	0.413387	1.04787	0.711529	1.0294	0.36908	0.540175	0.467904	0.710321	0.262748	0.61711	0.606939	0.669267	0.243717	-0.134384	0.409867	1.31106	0.346909	0.336954	0.463697	1.38914	0.142206	0.262169	-0.189034	0.213581	0.0438803	0.086364	-0.133734	0.13601	
4.51813	5	0	0	0	0.006791	-0.479703	0.41483	1.04379	0.707483	1.03204	0.370007	0.520814	0.464061	0.69993	0.270708	0.594615	0.604016	0.655731	0.247152	-0.144093	0.399768	1.30392	0.34865	0.332035	0.45446	1.39056	0.138244	0.273367	-0.189085	0.225234	0.057521	0.096764	-0.131457	0.148589	
4.5105	5	0	0	0	-0.0074735	-0.491723	0.428388	1.0569	0.726058	1.04117	0.367231	0.511934	0.475818	0.687953	0.263569	0.590649	0.608746	0.642362	0.241288	-0.145233	0.399455	1.28699	0.339813	0.33403	0.462943	1.36659	0.126444	0.281077	-0.193259	0.214021	0.0615438	0.0976528	-0.127755	0.138128	
4.50745	5	0	0	0	-0.021738	-0.503743	0.441946	1.07001	0.744634	1.05031	0.364454	0.503054	0.487576	0.675975	0.25643	0.586683	0.613477	0.628992	0.235424	-0.146373	0.399142	1.27006	0.330975	0.336025	0.471426	1.34261	0.114645	0.288787	-0.197433	0.202807	0.0655665	0.0985415	-0.124054	0.127668	
4.49982	5	0	0	0	-0.0360025	-0.515763	0.455504	1.08313	0.763209	1.05944	0.361677	0.494173	0.499333	0.663998	0.249291	0.582717	0.618208	0.615623	0.229559	-0.147512	0.398828	1.25313	0.322138	0.338019	0.47991	1.31864	0.102845	0.296498	-0.201606	0.191593	0.0695892	0.0994302	-0.120353	0.117207	
4.49982	5	0	0	0	-0.050267	-0.527783	0.469062	1.09624	0.781785	1.06858	0.358901	0.485293	0.51109	0.65202	0.242152	0.578751	0.622938	0.602254	0.223695	-0.148652	0.398515	1.2362	0.313301	0.340014	0.488393	1.29466	0.091045	0.304208	-0.20578	0.18038	0.073612	0.100319	-0.116651	0.106747	
4.49524	5	0	0	0	-0.0480885	-0.53394	0.483313	1.12475	0.794159	1.09544	0.36013	0.481819	0.51109	0.65202	0.244136	0.573143	0.625301	0.595577	0.229559	-0.147512	0.403237	1.22285	0.323878	0.333103	0.494741	1.27672	0.0969867	0.287416	-0.213106	0.166623	0.0712072	0.0948575	-0.114802	0.101521	
4.49066	5	0	0	0	-0.04591	-0.540096	0.497565	1.15327	0.806532	1.1223	0.36136	0.478344	0.51109	0.65202	0.246121	0.567535	0.627663	0.5889	0.235424	-0.146373	0.40796	1.20951	0.334454	0.326191	0.501088	1.25878	0.102929	0.270624	-0.220431	0.152866	0.0688025	0.089396	-0.112953	0.0962955	
4.48456	5	0	0	0	-0.0437315	-0.546253	0.511817	1.18179	0.818906	1.14917	0.362589	0.47487	0.51109	0.65202	0.248105	0.561928	0.630025	0.582223	0.241288	-0.145233	0.412682	1.19616	0.345031	0.31928	0.507436	1.24084	0.10887	0.253832	-0.227757	0.139109	0.0663977	0.0839345	-0.111104	0.0910698	
4.48151	5	0	0	0	-0.041553	-0.55241	0.526068	1.2103	0.83128	1.17603	0.363818	0.471396	0.51109	0.65202	0.250089	0.55632	0.632388	0.575546	0.247152	-0.144093	0.417404	1.18282	0.355608	0.312369	0.513783	1.22291	0.114812	0.23704	-0.235082	0.125352	0.063993	0.078473	-0.109255	0.085844	
4.47693	5	0	0	0	-0.0470023	-0.53701	0.539691	1.22356	0.824104	1.19631	0.369057	0.473316	0.509113	0.657607	0.250089	0.55632	0.632388	0.575546	0.256457	-0.152659	0.413928	1.17484	0.355608	0.312369	0.515896	1.21693	0.114812	0.23704	-0.235082	0.125352	0.0535295	0.083553	-0.108575	0.093437	
4.47235	5	0	0	0	-0.0524515	-0.521609	0.553314	1.23682	0.816928	1.21659	0.374297	0.475235	0.507137	0.663193	0.250089	0.55632	0.632388	0.575546	0.265761	-0.161225	0.410451	1.16687	0.355608	0.312369	0.518009	1.21096	0.114812	0.23704	-0.235082	0.125352	0.043066	0.088633	-0.107895	0.10103	
4.46472	5	0	0	0	-0.0579008	-0.506209	0.566936	1.25009	0.809753	1.23687	0.379536	0.477154	0.50516	0.66878	0.250089	0.55632	0.632388	0.575546	0.275066	-0.169792	0.406975	1.1589	0.355608	0.312369	0.520122	1.20499	0.114812	0.23704	-0.235082	0.125352	0.0326025	0.093713	-0.107215	0.108623	
4.46167	5	0	0	0	-0.06335	-0.490809	0.580559	1.26335	0.802577	1.25715	0.384776	0.479074	0.503183	0.674367	0.250089	0.55632	0.632388	0.575546	0.284371	-0.178358	0.403499	1.15092	0.355608	0.312369	0.522235	1.19902	0.114812	0.23704	-0.235082	0.125352	0.022139	0.098793	-0.106535	0.116216	
4.45862	5	0	0	0	-0.0607203	-0.487786	0.585595	1.2664	0.803475	1.25462	0.391251	0.477516	0.49538	0.675171	0.242957	0.552366	0.634749	0.568874	0.277355	-0.176258	0.398455	1.1474	0.345031	0.31928	0.513	1.20047	0.114812	0.23704	-0.23828	0.134389	0.0277732	0.0951115	-0.0998675	0.125947	
4.45404	5	0	0	0	-0.0580905	-0.484762	0.59063	1.26946	0.804373	1.25208	0.397726	0.475958	0.487576	0.675975	0.235824	0.548412	0.637109	0.562202	0.270338	-0.174159	0.39341	1.14387	0.334454	0.326191	0.503764	1.20191	0.114812	0.23704	-0.241478	0.143427	0.0334075	0.09143	-0.0932	0.135678	
4.44641	5	0	0	0	-0.0554608	-0.481739	0.595666	1.27251	0.805271	1.24954	0.404202	0.4744	0.479773	0.676779	0.228692	0.544457	0.63947	0.555529	0.263321	-0.17206	0.388366	1.14035	0.323878	0.333103	0.494529	1.20336	0.114812	0.23704	-0.244675	0.152465	0.0390418	0.0877485	-0.0865325	0.145409	
4.44488	5	0	0	0	-0.052831	-0.478716	0.600701	1.27557	0.806169	1.247	0.410677	0.472842	0.471969	0.677583	0.22156	0.540503	0.641831	0.548857	0.256305	-0.16996	0.383322	1.13682	0.313301	0.340014	0.485294	1.20481	0.114812	0.23704	-0.247873	0.161502	0.044676	0.084067	-0.079865	0.15514	
4.43725	5	0	0	0	-0.0539228	-0.475631	0.59924	1.2797	0.805686	1.23952	0.410998	0.488693	0.468123	0.667227	0.22552	0.529312	0.638883	0.535418	0.26316	-0.189332	0.374813	1.12536	0.318514	0.325281	0.487404	1.19884	0.105007	0.239149	-0.252142	0.173566	0.0317938	0.095999	-0.0851785	0.160627	
4.4342	5	0	0	0	-0.0550145	-0.472545	0.597778	1.28383	0.805203	1.23204	0.411319	0.504544	0.464277	0.656871	0.22948	0.51812	0.635935	0.52198	0.270014	-0.208705	0.366305	1.11389	0.323727	0.310548	0.489514	1.19288	0.095201	0.241258	-0.25641	0.185631	0.0189115	0.107931	-0.090492	0.166113	
4.43725	5	0	0	0	-0.0561062	-0.46946	0.596317	1.28796	0.804721	1.22456	0.411639	0.520394	0.460431	0.646514	0.23344	0.506929	0.632986	0.508541	0.276869	-0.228077	0.357796	1.10243	0.32894	0.295815	0.491625	1.18691	0.0853955	0.243368	-0.260679	0.197695	0.00602925	0.119863	-0.0958055	0.1716	
4.44183	5	0	0	0	-0.057198	-0.466375	0.594856	1.29209	0.804238	1.21707	0.41196	0.536245	0.456585	0.636158	0.2374	0.495738	0.630038	0.495102	0.283724	-0.247449	0.349287	1.09096	0.334153	0.281082	0.493735	1.18095	0.07559	0.245477	-0.264948	0.209759	-0.006853	0.131795	-0.101119	0.177087	
4.45404	5	0	0	0	-0.0530303	-0.457226	0.609986	1.30128	0.799272	1.22227	0.434234	0.540475	0.456585	0.636158	0.228295	0.497389	0.632392	0.48845	0.278993	-0.251792	0.34079	1.07953	0.325325	0.283079	0.486619	1.17644	0.0677753	0.241996	-0.263827	0.195119	-0.0028105	0.12037	-0.108703	0.169962	
4.46472	5	0	0	0	-0.0488625	-0.448076	0.625117	1.31047	0.794305	1.22746	0.456508	0.544706	0.456585	0.636158	0.219191	0.49904	0.634745	0.481797	0.274262	-0.256136	0.332293	1.0681	0.316497	0.285076	0.479503	1.17193	0.0599605	0.238515	-0.262707	0.180479	0.001232	0.108946	-0.116288	0.162838	
4.48913	5	0	0	0	-0.0446947	-0.438927	0.640247	1.31967	0.789339	1.23266	0.478782	0.548936	0.456585	0.636158	0.210086	0.500692	0.637099	0.475145	0.269531	-0.260479	0.323796	1.05667	0.30767	0.287073	0.472388	1.16742	0.0521458	0.235033	-0.261586	0.165839	0.0052745	0.0975215	-0.123872	0.155714	
4.51507	5	0	0	0	-0.040527	-0.429778	0.655377	1.32886	0.784373	1.23785	0.501056	0.553166	0.456585	0.636158	0.200981	0.502343	0.639453	0.468493	0.2648	-0.264822	0.315299	1.04524	0.298842	0.28907	0.465272	1.16291	0.044331	0.231552	-0.260465	0.151199	0.009317	0.086097	-0.131457	0.148589	
4.54559	5	0	0	0	-0.0411808	-0.417458	0.678557	1.33285	0.778511	1.24558	0.507888	0.567538	0.454612	0.641734	0.199003	0.507934	0.629444	0.475033	0.26594	-0.268043	0.315299	1.04524	0.298842	0.28907	0.461056	1.17482	0.0482785	0.220396	-0.263611	0.148625	0.00692025	0.0806445	-0.129606	0.143357	
4.57916	5	0	0	0	-0.0418345	-0.405138	0.701738	1.33684	0.772649	1.25331	0.51472	0.58191	0.452638	0.647311	0.197025	0.513524	0.619436	0.481573	0.26708	-0.271265	0.315299	1.04524	0.298842	0.28907	0.45684	1.18674	0.052226	0.20924	-0.266757	0.146051	0.0045235	0.075192	-0.127754	0.138126	
4.60815	5	0	0	0	-0.0424882	-0.392818	0.724919	1.34082	0.766787	1.26104	0.521553	0.596281	0.450665	0.652887	0.195047	0.519114	0.609427	0.488113	0.268219	-0.274486	0.315299	1.04524	0.298842	0.28907	0.452624	1.19865	0.0561735	0.198083	-0.269903	0.143477	0.00212675	0.0697395	-0.125903	0.132894	
4.63867	5	0	0	0	-0.043142	-0.380498	0.748099	1.34481	0.760925	1.26877	0.528385	0.610653	0.448692	0.658463	0.193069	0.524705	0.599418	0.494653	0.269359	-0.277707	0.315299	1.04524	0.298842	0.28907	0.448408	1.21057	0.060121	0.186927	-0.273049	0.140903	-0.00027	0.064287	-0.124052	0.127662	
4.65851	5	0	0	0	-0.0438025	-0.368153	0.753173	1.34788	0.751425	1.26913	0.536465	0.62156	0.452534	0.66883	0.19109	0.530299	0.60236	0.508085	0.267079	-0.271263	0.320327	1.04875	0.293632	0.303795	0.439959	1.23445	0.0718883	0.179238	-0.269903	0.143477	-0.00670025	0.0702427	-0.125903	0.132894	
4.67987	5	0	0	0	-0.044463	-0.355808	0.758248	1.35096	0.741925	1.26949	0.544545	0.632467	0.456376	0.679196	0.189111	0.535892	0.605302	0.521516	0.2648	-0.26482	0.325356	1.05225	0.288421	0.318519	0.431509	1.25833	0.0836555	0.171549	-0.266757	0.146051	-0.0131305	0.0761985	-0.127754	0.138126	
4.69665	5	0	0	0	-0.0451235	-0.343463	0.763323	1.35403	0.732425	1.26985	0.552625	0.643374	0.460219	0.689563	0.187131	0.541486	0.608244	0.534947	0.26252	-0.258377	0.330385	1.05575	0.283211	0.333244	0.42306	1.2822	0.0954228	0.16386	-0.263611	0.148625	-0.0195608	0.0821542	-0.129606	0.143357	
4.70428	5	0	0	0	-0.045784	-0.331118	0.768397	1.35711	0.722925	1.27021	0.560705	0.654281	0.464061	0.69993	0.185152	0.54708	0.611186	0.548379	0.26024	-0.251933	0.335413	1.05925	0.278001	0.347969	0.414611	1.30608	0.10719	0.156171	-0.260465	0.151199	-0.025991	0.08811	-0.131457	0.148589	
4.70886	5	0	0	0	-0.05848	-0.337116	0.77642	1.35186	0.708916	1.26574	0.571287	0.658179	0.454292	0.706314	0.185152	0.54708	0.588821	0.568118	0.257958	-0.245485	0.326022	1.08579	0.274523	0.357799	0.413226	1.33462	0.0934495	0.169436	-0.258383	0.156789	-0.0276062	0.0926745	-0.138613	0.159302	
4.71802	5	0	0	0	-0.071176	-0.343114	0.784442	1.34662	0.694906	1.26127	0.581869	0.662077	0.444523	0.712697	0.185152	0.54708	0.566457	0.587857	0.255676	-0.239037	0.316632	1.11233	0.271045	0.367629	0.411842	1.36315	0.079709	0.182702	-0.256302	0.16238	-0.0292215	0.097239	-0.145768	0.170015	
4.72107	5	0	0	0	-0.083872	-0.349111	0.792465	1.34138	0.680897	1.2568	0.59245	0.665975	0.434754	0.719081	0.185152	0.54708	0.544092	0.607597	0.253395	-0.232589	0.307241	1.13887	0.267566	0.377459	0.410458	1.39168	0.0659685	0.195967	-0.254221	0.16797	-0.0308368	0.101804	-0.152924	0.180729	
4.72107	5	0	0	0	-0.096568	-0.355109	0.800488	1.33614	0.666887	1.25232	0.603032	0.669873	0.424985	0.725464	0.185152	0.54708	0.521727	0.627336	0.251113	-0.226141	0.29785	1.16541	0.264088	0.387289	0.409073	1.42022	0.052228	0.209232	-0.252139	0.17356	-0.032452	0.106368	-0.16008	0.191442	
4.71649	5	0	0	0	-0.090003	-0.373663	0.807047	1.33505	0.666414	1.24486	0.607084	0.675346	0.415227	0.73184	0.192272	0.551037	0.531724	0.620804	0.247688	-0.21646	0.301304	1.17338	0.269427	0.395152	0.411196	1.41422	0.044422	0.205761	-0.269985	0.166702	-0.027609	0.0926813	-0.174527	0.184793	
4.71039	5	0	0	0	-0.083438	-0.392217	0.813606	1.33396	0.665941	1.2374	0.611136	0.680818	0.405469	0.738216	0.199393	0.554993	0.541721	0.614272	0.244262	-0.206779	0.304759	1.18135	0.274766	0.403015	0.413319	1.40822	0.036616	0.20229	-0.28783	0.159844	-0.022766	0.0789945	-0.188974	0.178145	
4.70734	5	0	0	0	-0.076873	-0.410771	0.820165	1.33287	0.665469	1.22993	0.615189	0.686291	0.39571	0.744592	0.206513	0.558949	0.551718	0.607739	0.240837	-0.197098	0.308214	1.18931	0.280105	0.410878	0.415442	1.40222	0.02881	0.19882	-0.305675	0.152986	-0.017923	0.0653077	-0.203421	0.171496	
4.70428	5	0	0	0	-0.070308	-0.429325	0.826724	1.33178	0.664996	1.22247	0.619241	0.691763	0.385952	0.750968	0.213633	0.562906	0.561715	0.601207	0.237412	-0.187417	0.311668	1.19728	0.285444	0.418741	0.417565	1.39622	0.021004	0.195349	-0.323521	0.146128	-0.01308	0.051621	-0.217868	0.164848	
4.6936	5	0	0	0	-0.0718425	-0.435443	0.836234	1.32237	0.661367	1.21513	0.624544	0.693717	0.378182	0.75175	0.21165	0.568511	0.559354	0.607879	0.237412	-0.187417	0.310098	1.20172	0.294277	0.416757	0.412594	1.38565	0.0288795	0.173092	-0.331816	0.123863	-0.0282852	0.0458033	-0.226078	0.150155	
4.68902	5	0	0	0	-0.073377	-0.441561	0.845743	1.31296	0.657739	1.2078	0.629846	0.695671	0.370412	0.752532	0.209667	0.574115	0.556993	0.614551	0.237412	-0.187417	0.308528	1.20616	0.303111	0.414773	0.407622	1.37508	0.036755	0.150835	-0.340111	0.101599	-0.0434905	0.0399855	-0.234288	0.135462	
4.68445	5	0	0	0	-0.0749115	-0.44768	0.855252	1.30355	0.654111	1.20047	0.635149	0.697626	0.362642	0.753314	0.207684	0.579719	0.554633	0.621223	0.237412	-0.187417	0.306958	1.21059	0.311945	0.412789	0.402651	1.36451	0.0446305	0.128578	-0.348406	0.0793338	-0.0586957	0.0341677	-0.242497	0.120768	
4.66919	5	0	0	0	-0.076446	-0.453798	0.864762	1.29414	0.650482	1.19313	0.640451	0.69958	0.354872	0.754096	0.205701	0.585324	0.552272	0.627895	0.237412	-0.187417	0.305388	1.21503	0.320778	0.410805	0.397679	1.35394	0.052506	0.106321	-0.356701	0.057069	-0.073901	0.02835	-0.250707	0.106075	
4.66156	5	0	0	0	-0.0790722	-0.456825	0.861134	1.28693	0.63563	1.19121	0.633902	0.701149	0.360795	0.737356	0.203717	0.590932	0.544636	0.627755	0.237412	-0.187417	0.303817	1.21947	0.310201	0.417716	0.401912	1.34197	0.0466645	0.0973325	-0.359791	0.0429903	-0.079479	0.0197673	-0.261667	0.0992308	
4.65088	5	0	0	0	-0.0816985	-0.459852	0.857506	1.27972	0.620777	1.18929	0.627352	0.702719	0.366718	0.720617	0.201732	0.59654	0.537	0.627615	0.237412	-0.187417	0.302246	1.22391	0.299625	0.424627	0.406145	1.33001	0.040823	0.088344	-0.36288	0.0289115	-0.085057	0.0111845	-0.272627	0.0923865	
4.64172	5	0	0	0	-0.0843248	-0.46288	0.853879	1.2725	0.605925	1.18737	0.620803	0.704288	0.372641	0.703878	0.199748	0.602147	0.529363	0.627476	0.237412	-0.187417	0.300675	1.22835	0.289048	0.431539	0.410378	1.31805	0.0349815	0.0793555	-0.36597	0.0148327	-0.090635	0.00260175	-0.283587	0.0855423	
4.62799	5	0	0	0	-0.086951	-0.465907	0.850251	1.26529	0.591073	1.18544	0.614253	0.705858	0.378564	0.687138	0.197764	0.607755	0.521727	0.627336	0.237412	-0.187417	0.299104	1.23279	0.278471	0.43845	0.414611	1.30608	0.02914	0.070367	-0.36906	0.000754	-0.096213	-0.005981	-0.294547	0.078698	
4.61883	5	0	0	0	-0.102889	-0.462601	0.844464	1.24677	0.583843	1.17083	0.610202	0.700381	0.3708	0.687927	0.199748	0.602147	0.511742	0.633861	0.238554	-0.190645	0.297532	1.23723	0.280214	0.433523	0.403294	1.31348	0.033063	0.05928	-0.373248	0.0011935	-0.104193	-0.00774425	-0.291788	0.0709017	
4.60968	5	0	0	0	-0.118827	-0.459295	0.838678	1.22824	0.576613	1.15622	0.606152	0.694905	0.363036	0.688716	0.201732	0.59654	0.501756	0.640386	0.239696	-0.193874	0.29596	1.24167	0.281957	0.428596	0.391977	1.32087	0.036986	0.048193	-0.377436	0.001633	-0.112173	-0.0095075	-0.289029	0.0631055	
4.60052	5	0	0	0	-0.134765	-0.45599	0.832892	1.20971	0.569383	1.14161	0.602102	0.689428	0.355273	0.689504	0.203717	0.590932	0.49177	0.64691	0.240838	-0.197102	0.294389	1.24612	0.283701	0.423668	0.380661	1.32827	0.040909	0.037106	-0.381623	0.0020725	-0.120153	-0.0112707	-0.286271	0.0553093	
4.59595	5	0	0	0	-0.150703	-0.452684	0.827105	1.19119	0.562153	1.127	0.598051	0.683951	0.347509	0.690293	0.205701	0.585324	0.481785	0.653435	0.24198	-0.20033	0.292817	1.25056	0.285444	0.418741	0.369344	1.33566	0.044832	0.026019	-0.385811	0.002512	-0.128133	-0.013034	-0.283512	0.047513	
4.58526	5	0	0	0	-0.151142	-0.461864	0.832957	1.17465	0.555404	1.11984	0.59649	0.671453	0.337911	0.675182	0.211646	0.568521	0.468921	0.646475	0.234977	-0.198235	0.283084	1.26033	0.287187	0.413816	0.358042	1.34305	0.033113	0.0336765	-0.386868	0.0054995	-0.133723	-0.00938125	-0.289697	0.0555495	
4.57764	5	0	0	0	-0.151581	-0.471044	0.838809	1.15811	0.548654	1.11267	0.594929	0.658954	0.328314	0.660071	0.217591	0.551719	0.456057	0.639516	0.227974	-0.19614	0.273351	1.27011	0.288929	0.408892	0.346741	1.35043	0.021394	0.041334	-0.387925	0.008487	-0.139313	-0.0057285	-0.295882	0.063586	
4.57153	5	0	0	0	-0.152019	-0.480224	0.844661	1.14157	0.541905	1.10551	0.593368	0.646456	0.318716	0.64496	0.223537	0.534916	0.443193	0.632556	0.220971	-0.194045	0.263618	1.27989	0.290671	0.403967	0.335439	1.35782	0.009675	0.0489915	-0.388982	0.0114745	-0.144903	-0.00207575	-0.302067	0.0716225	
4.56695	5	0	0	0	-0.152458	-0.489404	0.850513	1.12504	0.535155	1.09834	0.591807	0.633958	0.309118	0.629849	0.229482	0.518113	0.430329	0.625596	0.213968	-0.19195	0.253885	1.28966	0.292414	0.399043	0.324137	1.3652	-0.002044	0.056649	-0.390039	0.014462	-0.150493	0.001577	-0.308252	0.079659	
4.5639	5	0	0	0	-0.144399	-0.501762	0.853435	1.11678	0.539179	1.09571	0.590241	0.62149	0.295613	0.625876	0.233439	0.506929	0.429783	0.605519	0.21625	-0.1984	0.248877	1.2861	0.285332	0.396104	0.339666	1.34587	-0.0117872	0.0587577	-0.40364	0.0187567	-0.159256	0.0020745	-0.316682	0.0751832	
4.55475	5	0	0	0	-0.136339	-0.51412	0.856356	1.10852	0.543203	1.09309	0.588675	0.609022	0.282108	0.621903	0.237397	0.495745	0.429238	0.585441	0.218533	-0.20485	0.243869	1.28255	0.278251	0.393166	0.355195	1.32654	-0.0215305	0.0608665	-0.417242	0.0230515	-0.168019	0.002572	-0.325111	0.0707075	
4.55627	5	0	0	0	-0.128279	-0.526478	0.859278	1.10026	0.547226	1.09046	0.587109	0.596554	0.268604	0.61793	0.241354	0.484561	0.428692	0.565364	0.220815	-0.211301	0.23886	1.27899	0.27117	0.390228	0.370725	1.30721	-0.0312737	0.0629752	-0.430843	0.0273463	-0.176782	0.0030695	-0.333541	0.0662317	
4.55322	0	5	0	0	-0.12022	-0.538836	0.8622	1.092	0.55125	1.08783	0.585543	0.584086	0.255099	0.613957	0.245312	0.473377	0.428146	0.545287	0.223098	-0.217751	0.233852	1.27543	0.264088	0.387289	0.386254	1.28787	-0.041017	0.065084	-0.444444	0.031641	-0.185545	0.003567	-0.341971	0.061756	
4.54864	0	5	0	0	-0.110169	-0.535946	0.870223	1.08676	0.550837	1.09774	0.581495	0.578649	0.268711	0.596544	0.245312	0.473377	0.430493	0.538655	0.224239	-0.220974	0.228848	1.27187	0.276391	0.37547	0.367887	1.2907	-0.0253982	0.0463705	-0.444398	0.020143	-0.18872	0.000417	-0.342637	0.0542147	
4.54712	0	5	0	0	-0.100118	-0.533057	0.878246	1.08152	0.550423	1.10766	0.577446	0.573213	0.282324	0.579131	0.245312	0.473377	0.43284	0.532022	0.225379	-0.224198	0.223845	1.26832	0.288694	0.363652	0.34952	1.29353	-0.0097795	0.027657	-0.444352	0.008645	-0.191894	-0.002733	-0.343303	0.0466735	
4.53949	0	5	0	0	-0.090067	-0.530168	0.886269	1.07628	0.55001	1.11757	0.573398	0.567776	0.295937	0.561718	0.245312	0.473377	0.435186	0.525389	0.226519	-0.227421	0.218841	1.26476	0.300998	0.351833	0.331153	1.29636	0.00583925	0.0089435	-0.444305	-0.002853	-0.195069	-0.005883	-0.343968	0.0391323	
4.53796	0	5	0	0	-0.080016	-0.527278	0.894292	1.07104	0.549597	1.12748	0.569349	0.562339	0.309549	0.544305	0.245312	0.473377	0.437533	0.518757	0.22766	-0.230645	0.213837	1.26121	0.313301	0.340014	0.312786	1.29919	0.021458	-0.00977	-0.444259	-0.014351	-0.198244	-0.009033	-0.344634	0.031591	
4.53186	0	5	0	0	-0.0791235	-0.508908	0.884808	1.08041	0.5474	1.14244	0.565303	0.55691	0.311508	0.53877	0.245312	0.473377	0.437533	0.518757	0.226519	-0.227421	0.22512	1.24702	0.313301	0.340014	0.317002	1.28727	0.00975475	-0.002123	-0.437972	-0.02075	-0.192665	-0.0126787	-0.344634	0.031591	
4.53033	0	5	0	0	-0.078231	-0.490538	0.875325	1.08978	0.545203	1.15741	0.561257	0.551481	0.313466	0.533235	0.245312	0.473377	0.437533	0.518757	0.225379	-0.224198	0.236403	1.23282	0.313301	0.340014	0.321218	1.27536	-0.0019485	0.005524	-0.431686	-0.027149	-0.187086	-0.0163245	-0.344634	0.031591	
4.52728	0	5	0	0	-0.0773385	-0.472168	0.865841	1.09915	0.543005	1.17237	0.557211	0.546052	0.315424	0.5277	0.245312	0.473377	0.437533	0.518757	0.224239	-0.220974	0.247686	1.21863	0.313301	0.340014	0.325434	1.26344	-0.0136518	0.013171	-0.4254	-0.033548	-0.181506	-0.0199703	-0.344634	0.031591	
4.52576	0	5	0	0	-0.076446	-0.453798	0.856358	1.10852	0.540808	1.18733	0.553165	0.540623	0.317383	0.522165	0.245312	0.473377	0.437533	0.518757	0.223098	-0.217751	0.258969	1.20444	0.313301	0.340014	0.32965	1.25153	-0.025355	0.020818	-0.419113	-0.039947	-0.175927	-0.023616	-0.344634	0.031591	
4.5227	0	5	0	0	-0.0758005	-0.466072	0.860738	1.09614	0.537203	1.18002	0.545081	0.529788	0.303878	0.518239	0.240156	0.463869	0.424696	0.511871	0.224239	-0.220974	0.253959	1.20091	0.316777	0.330189	0.345147	1.23225	-0.0233987	0.01529	-0.419113	-0.039947	-0.187082	-0.0163273	-0.338711	0.033702	
4.52118	0	5	0	0	-0.075155	-0.478345	0.865117	1.08376	0.533597	1.17271	0.536997	0.518954	0.290374	0.514314	0.235	0.45436	0.411859	0.504984	0.225379	-0.224198	0.248949	1.19737	0.320253	0.320364	0.360645	1.21298	-0.0214425	0.009762	-0.419113	-0.039947	-0.198236	-0.0090385	-0.332787	0.035813	
4.52118	0	5	0	0	-0.0745095	-0.490619	0.869497	1.07138	0.529991	1.1654	0.528913	0.508119	0.276869	0.510389	0.229844	0.444851	0.399023	0.498098	0.226519	-0.227421	0.243939	1.19383	0.32373	0.31054	0.376142	1.1937	-0.0194863	0.004234	-0.419113	-0.039947	-0.209391	-0.00174975	-0.326863	0.037924	
4.51813	0	5	0	0	-0.073864	-0.502893	0.873877	1.059	0.526386	1.1581	0.520829	0.497285	0.263364	0.506463	0.224688	0.435343	0.386186	0.491211	0.22766	-0.230645	0.238929	1.19029	0.327206	0.300715	0.39164	1.17443	-0.01753	-0.001294	-0.419113	-0.039947	-0.220546	0.005539	-0.32094	0.040035	
4.51355	0	5	0	0	-0.0716845	-0.509052	0.8819	1.05376	0.53355	1.15535	0.522952	0.474467	0.26345	0.48521	0.232573	0.413058	0.390283	0.458087	0.233357	-0.246745	0.228609	1.16647	0.332414	0.285998	0.387959	1.13582	-0.0330763	-0.0081095	-0.430546	-0.0530635	-0.226083	-0.003018	-0.332781	0.0358142	
4.51507	0	5	0	0	-0.069505	-0.515211	0.889922	1.04852	0.540714	1.1526	0.525075	0.451649	0.263537	0.463956	0.240458	0.390773	0.394381	0.424963	0.239053	-0.262844	0.21829	1.14264	0.337621	0.271282	0.384278	1.0972	-0.0486225	-0.014925	-0.441979	-0.06618	-0.231619	-0.011575	-0.344622	0.0315935	
4.5166	0	5	0	0	-0.0673255	-0.52137	0.897945	1.04328	0.547878	1.14985	0.527198	0.428832	0.263623	0.442702	0.248344	0.368489	0.398478	0.391838	0.24475	-0.278944	0.207971	1.11882	0.342828	0.256565	0.380597	1.05859	-0.0641687	-0.0217405	-0.453413	-0.0792965	-0.237156	-0.020132	-0.356462	0.0273728	
4.52423	0	5	0	0	-0.065146	-0.527529	0.905968	1.03804	0.555042	1.1471	0.529321	0.406014	0.263709	0.421449	0.256229	0.346204	0.402575	0.358714	0.250447	-0.295044	0.197651	1.09499	0.348036	0.241848	0.376916	1.01998	-0.079715	-0.028556	-0.464846	-0.092413	-0.242693	-0.028689	-0.368303	0.023152	
4.54407	0	5	0	0	-0.060976	-0.51841	0.911079	1.04104	0.553732	1.15956	0.526508	0.397162	0.259889	0.411258	0.26928	0.3334	0.399654	0.34545	0.25386	-0.30469	0.198881	1.07389	0.351503	0.23205	0.364855	1.00518	-0.0738685	-0.0450788	-0.473144	-0.10296	-0.250621	-0.0304558	-0.368055	0.0130405	
4.58374	0	5	0	0	-0.056806	-0.509291	0.916191	1.04404	0.552422	1.17201	0.523694	0.38831	0.256069	0.401067	0.282331	0.320596	0.396733	0.332186	0.257273	-0.314336	0.200111	1.05278	0.354969	0.222253	0.352795	0.990378	-0.068022	-0.0616015	-0.481442	-0.113508	-0.258549	-0.0322225	-0.367807	0.002929	
4.63409	0	5	0	0	-0.052636	-0.500172	0.921302	1.04704	0.551112	1.18447	0.520881	0.379458	0.252249	0.390876	0.295382	0.307792	0.393811	0.318921	0.260687	-0.323982	0.201342	1.03167	0.358436	0.212456	0.340734	0.975576	-0.0621755	-0.0781242	-0.48974	-0.124055	-0.266478	-0.0339892	-0.367558	-0.0071825	
4.69665	0	5	0	0	-0.048466	-0.491053	0.926413	1.05005	0.549802	1.19693	0.518068	0.370606	0.248429	0.380685	0.308433	0.294988	0.39089	0.305657	0.2641	-0.333628	0.202572	1.01057	0.361903	0.202658	0.328674	0.960775	-0.056329	-0.094647	-0.498038	-0.134603	-0.274406	-0.035756	-0.36731	-0.017294	
4.76379	0	5	0	0	-0.0539265	-0.475621	0.913279	1.05229	0.544882	1.20208	0.508762	0.363347	0.248429	0.380685	0.31433	0.278321	0.39089	0.305657	0.259372	-0.337947	0.203783	0.989533	0.365366	0.192871	0.334921	0.94312	-0.066038	-0.092532	-0.493874	-0.135045	-0.274406	-0.035756	-0.361393	-0.0151925	
4.83551	0	5	0	0	-0.059387	-0.460189	0.900145	1.05453	0.539962	1.20723	0.499455	0.356089	0.248429	0.380685	0.320227	0.261655	0.39089	0.305657	0.254644	-0.342266	0.204993	0.968498	0.368829	0.183084	0.341168	0.925465	-0.075747	-0.090417	-0.48971	-0.135486	-0.274406	-0.035756	-0.355476	-0.013091	
4.89502	0	5	0	0	-0.0648475	-0.444757	0.887011	1.05677	0.535042	1.21238	0.490149	0.34883	0.248429	0.380685	0.326125	0.244988	0.39089	0.305657	0.249917	-0.346584	0.206204	0.947464	0.372292	0.173297	0.347415	0.907809	-0.085456	-0.088302	-0.485546	-0.135927	-0.274406	-0.035756	-0.349559	-0.0109895	
4.95148	0	5	0	0	-0.070308	-0.429325	0.873877	1.059	0.530122	1.21753	0.480843	0.341572	0.248429	0.380685	0.332022	0.228321	0.39089	0.305657	0.245189	-0.350903	0.207415	0.92643	0.375755	0.16351	0.353662	0.890154	-0.095165	-0.086187	-0.481382	-0.136369	-0.274406	-0.035756	-0.343642	-0.008888	
4.99725	0	5	0	0	-0.0659387	-0.441673	0.879707	1.04253	0.529656	1.21009	0.480482	0.325835	0.252316	0.3697	0.328785	0.213388	0.392601	0.279325	0.245001	-0.368034	0.20206	0.906387	0.375557	0.141116	0.337456	0.887197	-0.106804	-0.0785815	-0.485581	-0.124501	-0.276804	-0.0289795	-0.349807	-0.000878	
5.0293	0	5	0	0	-0.0615695	-0.45402	0.885538	1.02605	0.52919	1.20266	0.480121	0.310098	0.256202	0.358715	0.325549	0.198456	0.394313	0.252993	0.244812	-0.385165	0.196705	0.886344	0.37536	0.118722	0.321249	0.88424	-0.118444	-0.070976	-0.489781	-0.112633	-0.279202	-0.022203	-0.355973	0.007132	
5.05981	0	5	0	0	-0.0572003	-0.466368	0.891368	1.00957	0.528724	1.19523	0.47976	0.29436	0.260089	0.347731	0.322312	0.183524	0.396025	0.22666	0.244624	-0.402295	0.191351	0.866302	0.375163	0.096328	0.305043	0.881283	-0.130083	-0.0633705	-0.49398	-0.100766	-0.2816	-0.0154265	-0.362138	0.015142	
5.0827	0	5	0	0	-0.052831	-0.478716	0.897198	0.993097	0.528258	1.18779	0.479399	0.278623	0.263976	0.336746	0.319075	0.168591	0.397736	0.200328	0.244436	-0.419426	0.185996	0.846259	0.374965	0.073934	0.288837	0.878326	-0.141723	-0.055765	-0.49818	-0.088898	-0.283998	-0.00865	-0.368303	0.023152	
5.09186	0	5	0	0	-0.052831	-0.478716	0.8819	0.984136	0.525122	1.18791	0.467664	0.278318	0.269748	0.341419	0.319075	0.168591	0.395419	0.206878	0.246701	-0.425828	0.179457	0.847175	0.37669	0.0690605	0.284682	0.890069	-0.135926	-0.0468578	-0.49195	-0.0838328	-0.275272	-0.009138	-0.367387	0.0205623	
5.09643	0	5	0	0	-0.052831	-0.478716	0.866601	0.975175	0.521987	1.18802	0.455929	0.278013	0.275521	0.346093	0.319075	0.168591	0.393101	0.213427	0.248966	-0.43223	0.172919	0.84809	0.378414	0.064187	0.280527	0.901813	-0.13013	-0.0379505	-0.485719	-0.0787675	-0.266545	-0.009626	-0.366471	0.0179725	
5.10101	0	5	0	0	-0.052831	-0.478716	0.851302	0.966213	0.518851	1.18814	0.444195	0.277708	0.281293	0.350766	0.319075	0.168591	0.390783	0.219977	0.251232	-0.438631	0.166381	0.849006	0.380138	0.0593135	0.276372	0.913556	-0.124333	-0.0290432	-0.479489	-0.0737022	-0.257819	-0.010114	-0.365554	0.0153828	
5.10712	0	5	0	0	-0.052831	-0.478716	0.836004	0.957252	0.515715	1.18826	0.43246	0.277403	0.287065	0.355439	0.319075	0.168591	0.388466	0.226527	0.253497	-0.445033	0.159842	0.849922	0.381863	0.05444	0.272217	0.925299	-0.118536	-0.020136	-0.473259	-0.068637	-0.249093	-0.010602	-0.364638	0.012793	
5.10254	0	5	0	0	-0.0482183	-0.460352	0.833822	0.9808	0.522948	1.22035	0.428791	0.287774	0.298558	0.386061	0.313192	0.185217	0.414166	0.240024	0.25596	-0.434332	0.171735	0.869049	0.373231	0.0788338	0.280854	0.974074	-0.110782	-0.0167265	-0.467064	-0.0520842	-0.24833	-0.00066125	-0.363308	0.027868	
5.10101	0	5	0	0	-0.0436055	-0.441989	0.831641	1.00435	0.530182	1.25245	0.425121	0.298144	0.310051	0.416683	0.30731	0.201842	0.439867	0.253521	0.258423	-0.423631	0.183629	0.888176	0.3646	0.103227	0.289492	1.02285	-0.103028	-0.013317	-0.460869	-0.0355315	-0.247566	0.0092795	-0.361978	0.042943	
5.10406	0	5	0	0	-0.0389927	-0.423625	0.82946	1.02789	0.537415	1.28455	0.421451	0.308514	0.321543	0.447305	0.301428	0.218467	0.465567	0.267018	0.260887	-0.412929	0.195522	0.907303	0.355969	0.127621	0.298129	1.07162	-0.095274	-0.0099075	-0.454674	-0.0189788	-0.246803	0.0192203	-0.360649	0.058018	
5.09033	0	5	0	0	-0.03438	-0.405262	0.827278	1.05144	0.544648	1.31665	0.417782	0.318885	0.333036	0.477927	0.295545	0.235093	0.491268	0.280515	0.26335	-0.402228	0.207415	0.92643	0.347337	0.152015	0.306766	1.1204	-0.08752	-0.006498	-0.448479	-0.002426	-0.246039	0.029161	-0.359319	0.073093	
5.07812	0	5	0	0	-0.0291145	-0.39918	0.829453	1.06269	0.559941	1.32611	0.411657	0.336195	0.330985	0.504807	0.298767	0.250067	0.487204	0.313595	0.261262	-0.378648	0.209975	0.972085	0.345777	0.179376	0.315336	1.16965	-0.085623	0.013499	-0.450699	0.0265885	-0.254867	0.05411	-0.352996	0.0929468	
5.07049	0	5	0	0	-0.023849	-0.393098	0.831628	1.07395	0.575235	1.33558	0.405532	0.353506	0.328933	0.531686	0.301989	0.265041	0.48314	0.346675	0.259175	-0.355069	0.212534	1.01774	0.344217	0.206738	0.323906	1.2189	-0.083726	0.033496	-0.452918	0.055603	-0.263695	0.079059	-0.346674	0.1128	
5.06286	0	5	0	0	-0.0185835	-0.387016	0.833803	1.0852	0.590529	1.34505	0.399407	0.370816	0.326881	0.558566	0.305211	0.280014	0.479076	0.379755	0.257088	-0.331489	0.215094	1.06339	0.342656	0.234099	0.332476	1.26816	-0.081829	0.053493	-0.455138	0.0846175	-0.272523	0.104008	-0.340352	0.132654	
5.05676	0	5	0	0	-0.013318	-0.380934	0.835978	1.09645	0.605822	1.35452	0.393282	0.388127	0.32483	0.585446	0.308433	0.294988	0.475012	0.412835	0.255	-0.30791	0.217654	1.10905	0.341096	0.26146	0.341046	1.31741	-0.079932	0.07349	-0.457357	0.113632	-0.281351	0.128957	-0.334029	0.152508	
5.05066	0	5	0	0	-0.007609	-0.36558	0.828672	1.1171	0.605838	1.37207	0.387463	0.421299	0.326555	0.622807	0.30375	0.332334	0.493763	0.446474	0.259898	-0.286342	0.233299	1.15332	0.33776	0.293869	0.360893	1.35974	-0.091701	0.106751	-0.456359	0.122192	-0.281409	0.141229	-0.337717	0.162932	
5.04761	0	5	0	0	-0.0019	-0.350225	0.821365	1.13775	0.605854	1.38962	0.381644	0.45447	0.328279	0.660168	0.299067	0.36968	0.512514	0.480113	0.264795	-0.264774	0.248943	1.19758	0.334423	0.326278	0.380741	1.40206	-0.10347	0.140012	-0.455361	0.130753	-0.281468	0.153502	-0.341406	0.173355	
5.04608	0	5	0	0	0.003809	-0.334871	0.814059	1.1584	0.605869	1.40717	0.375826	0.487642	0.330004	0.697529	0.294383	0.407026	0.531264	0.513752	0.269693	-0.243206	0.264588	1.24185	0.331087	0.358687	0.400589	1.44439	-0.115239	0.173274	-0.454362	0.139314	-0.281527	0.165774	-0.345094	0.183779	
5.05218	0	5	0	0	0.009518	-0.319516	0.806753	1.17905	0.605885	1.42473	0.370007	0.520814	0.331728	0.73489	0.2897	0.444372	0.550015	0.547391	0.274591	-0.221638	0.280233	1.28612	0.327751	0.391096	0.420436	1.48672	-0.127008	0.206535	-0.453364	0.147874	-0.281585	0.178046	-0.348782	0.194203	
5.07507	0	5	0	0	0.0178655	-0.30104	0.79943	1.19974	0.610393	1.44723	0.370613	0.552601	0.333397	0.772504	0.30523	0.473002	0.556406	0.594567	0.283066	-0.19235	0.302492	1.32995	0.340329	0.424661	0.426763	1.54299	-0.111488	0.213495	-0.454493	0.162454	-0.276877	0.188978	-0.347477	0.209406	
5.09338	0	5	0	0	0.026213	-0.282563	0.792107	1.22044	0.614901	1.46973	0.371219	0.584389	0.335066	0.810118	0.32076	0.501632	0.562797	0.641744	0.291542	-0.163061	0.324751	1.37378	0.352907	0.458226	0.43309	1.59927	-0.0959685	0.220454	-0.455623	0.177034	-0.27217	0.19991	-0.346173	0.22461	
5.12695	0	5	0	0	0.0345605	-0.264087	0.784783	1.24114	0.61941	1.49223	0.371824	0.616177	0.336735	0.847733	0.33629	0.530262	0.569188	0.68892	0.300017	-0.133772	0.347011	1.41761	0.365485	0.491791	0.439417	1.65555	-0.0804487	0.227413	-0.456753	0.191615	-0.267462	0.210843	-0.344868	0.239813	
5.16357	0	5	0	0	0.042908	-0.24561	0.77746	1.26183	0.623918	1.51473	0.37243	0.647964	0.338404	0.885347	0.35182	0.558892	0.575579	0.736096	0.308493	-0.104484	0.36927	1.46144	0.378063	0.525356	0.445744	1.71182	-0.064929	0.234373	-0.457882	0.206195	-0.262755	0.221775	-0.343564	0.255016	
5.20172	0	5	0	0	0.0347517	-0.233085	0.781073	1.26904	0.627075	1.51463	0.367752	0.677956	0.344006	0.911942	0.347025	0.596679	0.571842	0.790277	0.311064	-0.0761715	0.375081	1.51652	0.38175	0.561154	0.447018	1.75782	-0.0650527	0.260184	-0.455904	0.223403	-0.266059	0.243242	-0.348475	0.278348	
5.23834	0	5	0	0	0.0265955	-0.22056	0.784687	1.27624	0.630232	1.51453	0.363074	0.707947	0.349608	0.938536	0.342231	0.634466	0.568105	0.844459	0.313635	-0.047859	0.380891	1.57159	0.385436	0.596952	0.448292	1.80382	-0.0651765	0.285995	-0.453926	0.24061	-0.269363	0.264709	-0.353386	0.301679	
5.26123	0	5	0	0	0.0184393	-0.208035	0.7883	1.28344	0.63339	1.51442	0.358397	0.737939	0.355211	0.965131	0.337437	0.672253	0.564368	0.89864	0.316206	-0.0195465	0.386702	1.62667	0.389123	0.63275	0.449567	1.84983	-0.0653003	0.311807	-0.451948	0.257818	-0.272666	0.286175	-0.358297	0.32501	
5.28107	0	5	0	0	0.010283	-0.19551	0.791913	1.29065	0.636547	1.51432	0.353719	0.767931	0.360813	0.991726	0.332642	0.71004	0.560631	0.952821	0.318777	0.008766	0.392513	1.68175	0.39281	0.668548	0.450841	1.89583	-0.065424	0.337618	-0.44997	0.275025	-0.27597	0.307642	-0.363208	0.348342	
5.30243	0	5	0	0	0.0113872	-0.198631	0.788975	1.29895	0.635644	1.51688	0.361717	0.778917	0.356823	1.003	0.333802	0.73103	0.571179	0.966735	0.325948	0.0241488	0.40789	1.71007	0.396404	0.681542	0.465068	1.90535	-0.0635918	0.357937	-0.46677	0.288319	-0.279208	0.316792	-0.36692	0.358833	
5.31311	0	5	0	0	0.0124915	-0.201752	0.786037	1.30725	0.634741	1.51943	0.369715	0.789902	0.352833	1.01428	0.334962	0.75202	0.581726	0.980648	0.333118	0.0395315	0.423266	1.73839	0.399999	0.694536	0.479294	1.91488	-0.0617595	0.378255	-0.48357	0.301612	-0.282446	0.325943	-0.370632	0.369324	
5.32379	0	5	0	0	0.0135958	-0.204872	0.783098	1.31556	0.633838	1.52198	0.377714	0.800888	0.348843	1.02555	0.336121	0.773009	0.592274	0.994561	0.340288	0.0549142	0.438642	1.76671	0.403593	0.70753	0.493521	1.92441	-0.0599273	0.398574	-0.50037	0.314906	-0.285683	0.335093	-0.374344	0.379815	
5.32684	0	5	0	0	0.0147	-0.207993	0.78016	1.32386	0.632935	1.52453	0.385712	0.811874	0.344853	1.03683	0.337281	0.793999	0.602821	1.00848	0.347459	0.070297	0.454019	1.79503	0.407187	0.720524	0.507748	1.93393	-0.058095	0.418893	-0.51717	0.328199	-0.288921	0.344243	-0.378056	0.390306	
5.33142	0	5	0	0	0.0173355	-0.204916	0.769204	1.33741	0.630224	1.53219	0.378233	0.833012	0.346639	1.05303	0.32724	0.822377	0.608573	1.03604	0.346411	0.091109	0.465974	1.81525	0.407234	0.743572	0.512703	1.94485	-0.0620648	0.430113	-0.527643	0.335043	-0.291351	0.351112	-0.388612	0.40124	
5.32684	0	5	0	0	0.019971	-0.201839	0.758247	1.35096	0.627514	1.53985	0.370753	0.854149	0.348424	1.06924	0.317198	0.850755	0.614326	1.06361	0.345362	0.111921	0.47793	1.83548	0.407281	0.766619	0.517658	1.95576	-0.0660345	0.441332	-0.538116	0.341886	-0.293782	0.357981	-0.399169	0.412174	
5.32532	0	5	0	0	0.0226065	-0.198761	0.747291	1.36451	0.624804	1.54751	0.363274	0.875286	0.35021	1.08544	0.307157	0.879134	0.620078	1.09118	0.344313	0.132733	0.489885	1.8557	0.407328	0.789667	0.522613	1.96668	-0.0700043	0.452551	-0.54859	0.348729	-0.296212	0.364849	-0.409725	0.423109	
5.32379	0	5	0	0	0.025242	-0.195684	0.736335	1.37806	0.622093	1.55517	0.355795	0.896424	0.351995	1.10165	0.297116	0.907512	0.62583	1.11875	0.343265	0.153545	0.50184	1.87593	0.407375	0.812714	0.527568	1.97759	-0.073974	0.463771	-0.559063	0.355573	-0.298643	0.371718	-0.420281	0.434043	
5.31769	0	5	0	0	0.0197128	-0.180057	0.730445	1.3947	0.621632	1.5653	0.353536	0.919628	0.351765	1.12357	0.307407	0.92706	0.626721	1.16016	0.346937	0.178917	0.507316	1.91462	0.416315	0.833895	0.528166	2.00085	-0.0839205	0.491881	-0.566428	0.36502	-0.308281	0.386826	-0.422444	0.449602	
5.30853	0	5	0	0	0.0141835	-0.16443	0.724555	1.41135	0.621171	1.57543	0.351276	0.942832	0.351534	1.1455	0.317697	0.946608	0.627612	1.20157	0.35061	0.204288	0.512791	1.95332	0.425256	0.855077	0.528765	2.02411	-0.093867	0.519991	-0.573793	0.374466	-0.317918	0.401933	-0.424606	0.46516	
5.31006	0	5	0	0	0.00865425	-0.148804	0.718665	1.428	0.620711	1.58556	0.349016	0.966035	0.351303	1.16742	0.327988	0.966156	0.628503	1.24298	0.354282	0.22966	0.518267	1.99201	0.434196	0.876258	0.529364	2.04737	-0.103814	0.548101	-0.581158	0.383913	-0.327556	0.417041	-0.426768	0.480719	
5.31311	0	5	0	0	0.003125	-0.133177	0.712775	1.44464	0.62025	1.59568	0.346757	0.989239	0.351073	1.18935	0.338279	0.985704	0.629394	1.28439	0.357954	0.255032	0.523743	2.03071	0.443136	0.897439	0.529962	2.07063	-0.11376	0.576211	-0.588523	0.39336	-0.337194	0.432149	-0.428931	0.496278	
5.32074	0	5	0	0	0.00380975	-0.145638	0.711301	1.44881	0.615747	1.59076	0.339236	1.01049	0.345044	1.20639	0.328167	1.01428	0.624947	1.31896	0.354528	0.282615	0.529171	2.0697	0.439571	0.930783	0.532726	2.0878	-0.111987	0.596731	-0.597069	0.417513	-0.343693	0.450515	-0.428619	0.514304	
5.33142	0	5	0	0	0.0044945	-0.1581	0.709827	1.45297	0.611244	1.58584	0.331715	1.03175	0.339016	1.22343	0.318055	1.04286	0.620501	1.35353	0.351102	0.310198	0.5346	2.10868	0.436005	0.964128	0.535489	2.10498	-0.110213	0.617252	-0.605616	0.441666	-0.350191	0.468882	-0.428307	0.532331	
5.3421	0	5	0	0	0.00517925	-0.170561	0.708352	1.45714	0.60674	1.58092	0.324195	1.053	0.332987	1.24046	0.307943	1.07144	0.616055	1.3881	0.347676	0.33778	0.540028	2.14767	0.43244	0.997472	0.538253	2.12215	-0.108439	0.637773	-0.614162	0.465819	-0.356689	0.487248	-0.427994	0.550357	
