0.707	4.84924	0	0	18.5776	-4.68328	-0.237464	-0.018912	0	0	-0.144799	-0.225616	0	0	-0.005193	0.011609	0.000372	-0.025058	0.117193	0.344728	0.195711	0.378831	0.285785	0.727449	0.002519	0.421467	-0.076098	0.107416	-0.268422	0.050622	-0.300983	0.129085	-0.305044	0.17681	-0.264017	0.198909	
0.705718	4.85077	0	0	18.5776	-4.68328	-0.234283	-0.0159735	0	0	-0.147321	-0.21849	0	0	0.00068925	0.0103332	-0.00121375	-0.020576	0.110998	0.346525	0.197943	0.372522	0.287334	0.723073	0.002519	0.421467	-0.076098	0.107416	-0.277479	0.0527458	-0.304861	0.131619	-0.303987	0.173823	-0.268698	0.201967	
0.7041	4.85077	0	0	18.5776	-4.68328	-0.231102	-0.013035	0	0	-0.149842	-0.211363	0	0	0.0065715	0.0090575	-0.0027995	-0.016094	0.104803	0.348323	0.200176	0.366212	0.288883	0.718696	0.002519	0.421467	-0.076098	0.107416	-0.286536	0.0548695	-0.308739	0.134153	-0.30293	0.170837	-0.273378	0.205025	
0.70224	4.84466	0	0	18.5776	-4.68328	-0.227921	-0.0100965	0	0	-0.152363	-0.204237	0	0	0.0124538	0.00778175	-0.00438525	-0.011612	0.098608	0.350121	0.202408	0.359903	0.290431	0.714319	0.002519	0.421467	-0.076098	0.107416	-0.295593	0.0569933	-0.312617	0.136687	-0.301874	0.167851	-0.278059	0.208084	
0.700233	4.84466	0	0	18.5776	-4.68328	-0.22474	-0.007158	0	0	-0.154885	-0.19711	0	0	0.018336	0.006506	-0.005971	-0.00713	0.092413	0.351918	0.204641	0.353594	0.29198	0.709943	0.002519	0.421467	-0.076098	0.107416	-0.30465	0.059117	-0.316495	0.139221	-0.300817	0.164864	-0.28274	0.211142	
0.698173	4.84619	0	0	16.1114	-3.07185	-0.225027	0.005588	0	0	-0.149641	-0.191396	0	0	0.0124195	0.023227	-0.005971	-0.00713	0.091377	0.354846	0.200174	0.366217	0.288882	0.718699	0.015595	0.418656	-0.0700535	0.110264	-0.308144	0.0689905	-0.309488	0.136273	-0.292443	0.170879	-0.279562	0.222506	
0.696156	4.84466	0	0	13.6453	-1.46042	-0.225313	0.018334	0	0	-0.144396	-0.185681	0	0	0.006503	0.039948	-0.005971	-0.00713	0.090341	0.357773	0.195708	0.378839	0.285783	0.727454	0.028671	0.415845	-0.064009	0.113113	-0.311638	0.078864	-0.302481	0.133325	-0.284069	0.176895	-0.276385	0.23387	
0.694274	4.84314	0	0	11.1791	0.151009	-0.2256	0.03108	0	0	-0.139152	-0.179967	0	0	0.0005865	0.056669	-0.005971	-0.00713	0.089305	0.3607	0.191242	0.391462	0.282685	0.736209	0.041747	0.413035	-0.0579645	0.115961	-0.315131	0.0887375	-0.295473	0.130377	-0.275694	0.18291	-0.273207	0.245234	
0.692624	4.83856	0	0	8.713	1.76244	-0.225887	0.043826	0	0	-0.133908	-0.174253	0	0	-0.00533	0.07339	-0.005971	-0.00713	0.088269	0.363628	0.186775	0.404085	0.279587	0.744965	0.054823	0.410224	-0.05192	0.118809	-0.318625	0.098611	-0.288466	0.127429	-0.26732	0.188925	-0.270029	0.256598	
0.6913	4.83856	0	0	11.1791	0.151009	-0.225887	0.043826	0	0	-0.13475	-0.171873	0	0	-0.00177875	0.0633538	-0.0122555	-0.0133557	0.0841507	0.359569	0.189009	0.397772	0.269567	0.751513	0.054823	0.410224	-0.0626587	0.129227	-0.311319	0.101436	-0.282203	0.126599	-0.274736	0.209885	-0.259538	0.267704	
0.690396	4.83551	0	0	13.6453	-1.46042	-0.225887	0.043826	0	0	-0.135592	-0.169493	0	0	0.0017725	0.0533175	-0.01854	-0.0195815	0.0800325	0.35551	0.191243	0.391458	0.259547	0.75806	0.054823	0.410224	-0.0733975	0.139646	-0.304013	0.104262	-0.275939	0.125769	-0.282153	0.230846	-0.249046	0.27881	
0.690007	4.83551	0	0	16.1114	-3.07185	-0.225887	0.043826	0	0	-0.136434	-0.167114	0	0	0.00532375	0.0432812	-0.0248245	-0.0258073	0.0759143	0.351451	0.193477	0.385145	0.249526	0.764607	0.054823	0.410224	-0.0841362	0.150064	-0.296707	0.107088	-0.269675	0.124938	-0.28957	0.251806	-0.238555	0.289917	
0.690201	4.83551	0	0	18.5776	-4.68328	-0.225887	0.043826	0	0	-0.137276	-0.164734	0	0	0.008875	0.033245	-0.031109	-0.032033	0.071796	0.347392	0.195711	0.378831	0.239506	0.771155	0.054823	0.410224	-0.094875	0.160482	-0.289401	0.109913	-0.263412	0.124108	-0.296986	0.272766	-0.228063	0.301023	
0.690908	4.83398	0	0	16.1114	-3.07185	-0.223863	0.0500497	0	0	-0.130342	-0.163773	0	0	0.0171277	0.0252822	-0.0279428	-0.0409815	0.0748995	0.338621	0.195711	0.378831	0.242604	0.7624	0.0391082	0.420492	-0.094875	0.160482	-0.287652	0.104969	-0.26191	0.119864	-0.292746	0.260783	-0.234345	0.298386	
0.692012	4.83551	0	0	13.6453	-1.46042	-0.22184	0.0562735	0	0	-0.123408	-0.162812	0	0	0.0253805	0.0173195	-0.0247765	-0.04993	0.078003	0.32985	0.195711	0.378831	0.245702	0.753644	0.0233935	0.430761	-0.094875	0.160482	-0.285903	0.100025	-0.260409	0.115621	-0.288506	0.248799	-0.240627	0.29575	
0.693395	4.83246	0	0	11.1791	0.151009	-0.219816	0.0624973	0	0	-0.116474	-0.161851	0	0	0.0336332	0.00935675	-0.0216102	-0.0588785	0.0811065	0.321078	0.195711	0.378831	0.2488	0.744889	0.00767875	0.441029	-0.094875	0.160482	-0.284154	0.0950817	-0.258908	0.111377	-0.284265	0.236816	-0.246908	0.293113	
0.694941	4.83246	0	0	8.713	1.76244	-0.217792	0.068721	0	0	-0.10954	-0.16089	0	0	0.041886	0.001394	-0.018444	-0.067827	0.08421	0.312307	0.195711	0.378831	0.251898	0.736133	-0.008036	0.451298	-0.094875	0.160482	-0.282405	0.090138	-0.257406	0.107134	-0.280025	0.224832	-0.25319	0.290477	
0.696533	4.83093	0	0	11.1791	0.151009	-0.223589	0.0851045	0	0	-0.105129	-0.152775	0	0	0.0454123	0.006803	-0.0294697	-0.0606228	0.08421	0.312307	0.18297	0.382306	0.251898	0.736133	-0.00539725	0.44384	-0.0964413	0.164909	-0.280657	0.0851973	-0.257406	0.107134	-0.267402	0.218886	-0.247466	0.284491	
0.69804	4.83551	0	0	13.6453	-1.46042	-0.229386	0.101488	0	0	-0.100718	-0.14466	0	0	0.0489385	0.012212	-0.0404955	-0.0534185	0.08421	0.312307	0.170229	0.385781	0.251898	0.736133	-0.0027585	0.436383	-0.0980075	0.169335	-0.278908	0.0802565	-0.257406	0.107134	-0.254778	0.212939	-0.241741	0.278505	
0.699314	4.83093	0	0	16.1114	-3.07185	-0.235183	0.117872	0	0	-0.096307	-0.136546	0	0	0.0524647	0.017621	-0.0515213	-0.0462142	0.08421	0.312307	0.157487	0.389256	0.251898	0.736133	-0.00011975	0.428925	-0.0995737	0.173762	-0.27716	0.0753157	-0.257406	0.107134	-0.242155	0.206992	-0.236017	0.272519	
0.700203	4.82635	0	0	18.5776	-4.68328	-0.24098	0.134255	0	0	-0.091896	-0.128431	0	0	0.055991	0.02303	-0.062547	-0.03901	0.08421	0.312307	0.144746	0.392731	0.251898	0.736133	0.002519	0.421467	-0.10114	0.178188	-0.275411	0.070375	-0.257406	0.107134	-0.229531	0.201046	-0.230293	0.266533	
0.700556	4.8233	0	0	18.5776	-4.68328	-0.23866	0.127698	0	0	-0.0932583	-0.134874	0	0	0.0465462	0.034348	-0.062547	-0.03901	0.08421	0.312307	0.142514	0.39904	0.251898	0.736133	0.012954	0.42612	-0.0798635	0.177915	-0.260762	0.0760097	-0.242606	0.0990942	-0.222191	0.210078	-0.215078	0.274576	
0.700222	4.80499	0	0	18.5776	-4.68328	-0.23634	0.121141	0	0	-0.0946205	-0.141317	0	0	0.0371015	0.045666	-0.062547	-0.03901	0.08421	0.312307	0.140281	0.405349	0.251898	0.736133	0.023389	0.430774	-0.058587	0.177642	-0.246114	0.0816445	-0.227805	0.0910545	-0.21485	0.21911	-0.199863	0.28262	
0.699082	4.80347	0	0	18.5776	-4.68328	-0.23402	0.114584	0	0	-0.0959828	-0.14776	0	0	0.0276568	0.056984	-0.062547	-0.03901	0.08421	0.312307	0.138048	0.411658	0.251898	0.736133	0.033824	0.435427	-0.0373105	0.177369	-0.231465	0.0872793	-0.213005	0.0830147	-0.20751	0.228142	-0.184648	0.290663	
0.697318	4.79278	0	0	18.5776	-4.68328	-0.2317	0.108027	0	0	-0.097345	-0.154203	0	0	0.018212	0.068302	-0.062547	-0.03901	0.08421	0.312307	0.135816	0.417967	0.251898	0.736133	0.044259	0.44008	-0.016034	0.177096	-0.216816	0.092914	-0.198205	0.074975	-0.200169	0.237174	-0.169433	0.298706	
0.695274	4.81567	0	0	16.1114	-3.07185	-0.23054	0.10475	0	0	-0.100394	-0.155875	0	0	0.0229477	0.054918	-0.0672352	-0.0496847	0.0831892	0.299507	0.138048	0.411658	0.26656	0.716468	0.0600028	0.429793	-0.0113282	0.163797	-0.205972	0.085828	-0.206735	0.08218	-0.204419	0.249186	-0.173026	0.319086	
0.693295	4.81567	0	0	13.6453	-1.46042	-0.229381	0.101473	0	0	-0.103442	-0.157547	0	0	0.0276835	0.041534	-0.0719235	-0.0603595	0.0821685	0.286708	0.140281	0.405349	0.281222	0.696804	0.0757465	0.419505	-0.0066225	0.150497	-0.195128	0.078742	-0.215265	0.089385	-0.20867	0.261197	-0.176619	0.339466	
0.691725	4.8172	0	0	11.1791	0.151009	-0.228222	0.0981967	0	0	-0.106491	-0.159218	0	0	0.0324192	0.02815	-0.0766118	-0.0710343	0.0811478	0.273908	0.142514	0.39904	0.295883	0.677139	0.0914902	0.409218	-0.00191675	0.137198	-0.184283	0.071656	-0.223795	0.09659	-0.21292	0.273208	-0.180212	0.359846	
0.690908	4.8172	0	0	8.713	1.76244	-0.227062	0.09492	0	0	-0.10954	-0.16089	0	0	0.037155	0.014766	-0.0813	-0.081709	0.080127	0.261109	0.144746	0.392731	0.310545	0.657474	0.107234	0.398931	0.002789	0.123898	-0.173439	0.06457	-0.232325	0.103795	-0.21717	0.28522	-0.183805	0.380226	
0.690959	4.82178	0	0	8.86	1.34699	-0.220698	0.100844	0	0	-0.0961705	-0.167794	0	0	0.037155	0.014766	-0.0671317	-0.097826	0.070863	0.25596	0.146977	0.386426	0.298978	0.668392	0.125648	0.381161	0.00435625	0.119469	-0.171688	0.059621	-0.235461	0.104213	-0.197635	0.274766	-0.182766	0.377291	
0.691492	4.82941	0	0	9.007	0.931536	-0.214334	0.106767	0	0	-0.082801	-0.174699	0	0	0.037155	0.014766	-0.0529635	-0.113943	0.061599	0.250811	0.149207	0.380122	0.287412	0.67931	0.144062	0.36339	0.0059235	0.11504	-0.169936	0.054672	-0.238597	0.104631	-0.1781	0.264312	-0.181727	0.374356	
0.692059	4.82635	0	0	9.154	0.516086	-0.207969	0.11269	0	0	-0.0694315	-0.181603	0	0	0.037155	0.014766	-0.0387952	-0.13006	0.052335	0.245662	0.151438	0.373817	0.275845	0.690227	0.162475	0.34562	0.00749075	0.110612	-0.168185	0.049723	-0.241733	0.105048	-0.158564	0.253858	-0.180689	0.37142	
0.692207	4.8233	0	0	9.301	0.100635	-0.201605	0.118614	0	0	-0.056062	-0.188507	0	0	0.037155	0.014766	-0.024627	-0.146177	0.043071	0.240513	0.153669	0.367512	0.264278	0.701145	0.180889	0.32785	0.009058	0.106183	-0.166434	0.044774	-0.244869	0.105466	-0.139029	0.243404	-0.17965	0.368485	
0.691487	4.81415	0	0	9.154	0.516086	-0.203928	0.125178	0	0	-0.0585922	-0.181356	0	0	0.0324192	0.02815	-0.0309437	-0.128325	0.0461367	0.263178	0.18302	0.382335	0.279585	0.745125	0.180811	0.362402	0.005923	0.115043	-0.173779	0.04197	-0.251136	0.1063	-0.136409	0.250942	-0.187537	0.360114	
0.689491	4.81567	0	0	9.007	0.931536	-0.206251	0.131742	0	0	-0.0611225	-0.174204	0	0	0.0276835	0.041534	-0.0372605	-0.110473	0.0492025	0.285844	0.212371	0.397157	0.294891	0.789105	0.180734	0.396954	0.002788	0.123902	-0.181124	0.039166	-0.257404	0.107133	-0.133789	0.25848	-0.195423	0.351743	
0.686286	4.83093	0	0	8.86	1.34699	-0.208573	0.138307	0	0	-0.0636528	-0.167053	0	0	0.0229477	0.054918	-0.0435772	-0.0926203	0.0522683	0.308509	0.241722	0.41198	0.310198	0.833085	0.180656	0.431507	-0.000347	0.132762	-0.188469	0.036362	-0.263671	0.107966	-0.131169	0.266018	-0.20331	0.343372	
0.682232	4.8172	0	0	8.713	1.76244	-0.210896	0.144871	0	0	-0.066183	-0.159902	0	0	0.018212	0.068302	-0.049894	-0.074768	0.055334	0.331175	0.271073	0.426803	0.325505	0.877065	0.180579	0.466059	-0.003482	0.141622	-0.195814	0.033558	-0.269938	0.1088	-0.128549	0.273556	-0.211197	0.335001	
0.677696	4.80347	0	0	8.713	1.76244	-0.210596	0.132066	0	0	-0.0689175	-0.172766	0	0	0.0205807	0.0616075	-0.0451978	-0.0640842	0.070741	0.366189	0.274196	0.483444	0.350027	0.939392	0.1883	0.513093	-0.0113327	0.16381	-0.217462	0.047703	-0.277699	0.113871	-0.126996	0.284121	-0.218519	0.335284	
0.673044	4.81109	0	0	8.713	1.76244	-0.210297	0.119261	0	0	-0.071652	-0.18563	0	0	0.0229495	0.054913	-0.0405015	-0.0534005	0.086148	0.401203	0.277319	0.540086	0.374549	1.00172	0.196022	0.560127	-0.0191835	0.185997	-0.23911	0.061848	-0.285461	0.118943	-0.125443	0.294687	-0.225842	0.335566	
0.668638	4.79736	0	0	8.713	1.76244	-0.209998	0.106456	0	0	-0.0743865	-0.198495	0	0	0.0253183	0.0482185	-0.0358052	-0.0427167	0.101555	0.436216	0.280442	0.596728	0.399072	1.06405	0.203743	0.607161	-0.0270342	0.208185	-0.260757	0.075993	-0.293222	0.124014	-0.12389	0.305252	-0.233164	0.335848	
0.664693	4.79736	0	0	8.713	1.76244	-0.209698	0.093651	0	0	-0.077121	-0.211359	0	0	0.027687	0.041524	-0.031109	-0.032033	0.116962	0.47123	0.283565	0.653369	0.423594	1.12637	0.211465	0.654195	-0.034885	0.230373	-0.282405	0.090138	-0.300983	0.129085	-0.122337	0.315817	-0.240486	0.336131	
0.661183	4.79431	0	0	11.1791	0.151009	-0.211722	0.0874185	0	0	-0.0815402	-0.219439	0	0	0.0288708	0.0381785	-0.0153572	-0.0285457	0.134527	0.484674	0.300212	0.672022	0.435068	1.16011	0.224504	0.686456	-0.034885	0.230373	-0.284477	0.0725202	-0.315735	0.137094	-0.138704	0.317246	-0.246284	0.32194	
0.658058	4.79736	0	0	13.6453	-1.46042	-0.213745	0.081186	0	0	-0.0859595	-0.227519	0	0	0.0300545	0.034833	0.0003945	-0.0250585	0.152091	0.498118	0.316859	0.690675	0.446542	1.19385	0.237544	0.718718	-0.034885	0.230373	-0.286548	0.0549025	-0.330486	0.145103	-0.155072	0.318675	-0.252081	0.307749	
0.65527	4.79889	0	0	16.1114	-3.07185	-0.215769	0.0749535	0	0	-0.0903787	-0.2356	0	0	0.0312382	0.0314875	0.0161463	-0.0215713	0.169656	0.511562	0.333505	0.709328	0.458016	1.22759	0.250583	0.750979	-0.034885	0.230373	-0.288619	0.0372848	-0.345237	0.153111	-0.171439	0.320104	-0.257879	0.293558	
0.652771	4.79278	0	0	18.5776	-4.68328	-0.217792	0.068721	0	0	-0.094798	-0.24368	0	0	0.032422	0.028142	0.031898	-0.018084	0.187221	0.525006	0.350152	0.727981	0.46949	1.26133	0.263622	0.78324	-0.034885	0.230373	-0.290691	0.019667	-0.359989	0.16112	-0.187806	0.321533	-0.263676	0.279367	
0.650534	4.80347	0	0	18.4234	-4.24755	-0.218951	0.0719955	0	0	-0.0939575	-0.246055	0	0	0.030054	0.0348342	0.0334293	0.001637	0.195501	0.533227	0.358493	0.737343	0.48509	1.26148	0.268795	0.803273	-0.0272548	0.228804	-0.297995	0.0168655	-0.36386	0.16365	-0.179869	0.314032	-0.260579	0.270613	
0.648593	4.79431	0	0	18.2692	-3.81183	-0.220109	0.07527	0	0	-0.093117	-0.24843	0	0	0.027686	0.0415265	0.0349605	0.021358	0.203782	0.541448	0.366835	0.746706	0.500689	1.26164	0.273968	0.823305	-0.0196245	0.227235	-0.305299	0.014064	-0.367731	0.166179	-0.171932	0.306532	-0.257481	0.261859	
0.646998	4.79126	0	0	18.115	-3.3761	-0.221268	0.0785445	0	0	-0.0922765	-0.250806	0	0	0.025318	0.0482188	0.0364918	0.041079	0.212062	0.54967	0.375176	0.756069	0.516289	1.26179	0.279141	0.843337	-0.0119942	0.225665	-0.312603	0.0112625	-0.371602	0.168709	-0.163995	0.299032	-0.254383	0.253105	
0.645795	4.78821	0	0	17.9609	-2.94038	-0.222426	0.081819	0	0	-0.091436	-0.253181	0	0	0.02295	0.054911	0.038023	0.0608	0.220342	0.557891	0.383517	0.765431	0.531888	1.26195	0.284314	0.86337	-0.004364	0.224096	-0.319907	0.008461	-0.375473	0.171238	-0.156058	0.291531	-0.251286	0.244351	
0.645033	4.78973	0	0	17.9609	-2.94038	-0.2311	0.0824528	0	0	-0.100052	-0.249377	0	0	0.0288413	0.0536353	0.041136	0.076082	0.233835	0.567292	0.378964	0.778299	0.530299	1.26644	0.273501	0.893928	0.0032755	0.222523	-0.307376	-0.003511	-0.367729	0.166178	-0.151312	0.293059	-0.246038	0.249897	
0.644746	4.78515	0	0	17.9609	-2.94038	-0.239774	0.0830865	0	0	-0.108669	-0.245572	0	0	0.0347325	0.0523595	0.044249	0.091364	0.247328	0.576693	0.37441	0.791168	0.52871	1.27093	0.262688	0.924486	0.010915	0.220949	-0.294845	-0.015483	-0.359986	0.161118	-0.146566	0.294588	-0.240789	0.255442	
0.644909	4.78668	0	0	17.9609	-2.94038	-0.248447	0.0837202	0	0	-0.117285	-0.241768	0	0	0.0406238	0.0510837	0.047362	0.106646	0.260821	0.586093	0.369857	0.804036	0.527121	1.27542	0.251876	0.955044	0.0185545	0.219376	-0.282313	-0.027455	-0.352242	0.156058	-0.141819	0.296116	-0.235541	0.260988	
0.645477	4.78515	0	0	17.9609	-2.94038	-0.257121	0.084354	0	0	-0.125901	-0.237964	0	0	0.046515	0.049808	0.050475	0.121928	0.274314	0.595494	0.365304	0.816904	0.525532	1.27991	0.241063	0.985602	0.026194	0.217803	-0.269782	-0.039427	-0.344498	0.150998	-0.137073	0.297644	-0.230293	0.266533	
0.646405	4.78515	0	0	17.9609	-2.94038	-0.262313	0.0751788	0	0	-0.134191	-0.245314	0	0	0.0394702	0.0389825	0.0520705	0.117419	0.282668	0.587755	0.354698	0.813941	0.53347	1.25748	0.241063	0.985602	0.015407	0.228271	-0.282313	-0.027455	-0.333619	0.14552	-0.147149	0.311178	-0.230217	0.28672	
0.647648	4.7821	0	0	17.9609	-2.94038	-0.267505	0.0660035	0	0	-0.14248	-0.252665	0	0	0.0324255	0.028157	0.053666	0.112909	0.291023	0.580016	0.344093	0.810978	0.541407	1.23504	0.241063	0.985602	0.00462	0.238739	-0.294845	-0.015483	-0.32274	0.140041	-0.157225	0.324713	-0.230142	0.306907	
0.649158	4.7821	0	0	17.9609	-2.94038	-0.272697	0.0568282	0	0	-0.15077	-0.260015	0	0	0.0253808	0.0173315	0.0552615	0.1084	0.299378	0.572278	0.333487	0.808015	0.549345	1.21261	0.241063	0.985602	-0.006167	0.249208	-0.307376	-0.003511	-0.311862	0.134563	-0.167301	0.338247	-0.230067	0.327095	
0.650859	4.7821	0	0	17.9609	-2.94038	-0.277889	0.047653	0	0	-0.159059	-0.267365	0	0	0.018336	0.006506	0.056857	0.103891	0.307732	0.564539	0.322881	0.805052	0.557282	1.19018	0.241063	0.985602	-0.016954	0.259676	-0.319907	0.008461	-0.300983	0.129085	-0.177377	0.351781	-0.229991	0.347282	
0.652659	4.7821	0	0	17.9609	-2.94038	-0.276444	0.0316582	0	0	-0.154031	-0.281574	0	0	0.0112985	-0.0042895	0.0711428	0.0876282	0.29837	0.559269	0.319103	0.78285	0.542573	1.16543	0.230525	0.980731	-0.0182943	0.243469	-0.311209	-0.0161207	-0.312612	0.136684	-0.177854	0.338199	-0.230544	0.338642	
0.654467	4.78515	0	0	17.9609	-2.94038	-0.275	0.0156635	0	0	-0.149004	-0.295783	0	0	0.004261	-0.015085	0.0854285	0.0713655	0.289007	0.553999	0.315325	0.760648	0.527864	1.14067	0.219988	0.975861	-0.0196345	0.227261	-0.302511	-0.0407025	-0.324241	0.144283	-0.178332	0.324618	-0.231097	0.330002	
0.656192	4.7821	0	0	17.9609	-2.94038	-0.273556	-0.00033125	0	0	-0.143976	-0.309993	0	0	-0.0027765	-0.0258805	0.0997143	0.0551027	0.279645	0.548728	0.311548	0.738446	0.513154	1.11592	0.20945	0.97099	-0.0209748	0.211054	-0.293813	-0.0652843	-0.33587	0.151881	-0.178809	0.311036	-0.23165	0.321362	
0.657744	4.77753	0	0	17.9609	-2.94038	-0.272111	-0.016326	0	0	-0.138948	-0.324202	0	0	-0.009814	-0.036676	0.114	0.03884	0.270282	0.543458	0.30777	0.716244	0.498445	1.09117	0.198912	0.966119	-0.022315	0.194846	-0.285115	-0.089866	-0.347499	0.15948	-0.179286	0.297454	-0.232203	0.312722	
0.659116	4.78363	0	0	17.9609	-2.94038	-0.269805	-0.0228423	0	0	-0.142827	-0.323486	0	0	-0.0062775	-0.0466712	0.106089	0.0370885	0.264071	0.529335	0.291157	0.697611	0.486903	1.0577	0.177898	0.956398	-0.0236648	0.178687	-0.292419	-0.0926385	-0.346749	0.15736	-0.184024	0.295924	-0.235862	0.312864	
0.66038	4.77905	0	0	17.9609	-2.94038	-0.2675	-0.0293585	0	0	-0.146707	-0.32277	0	0	-0.002741	-0.0566665	0.098177	0.035337	0.25786	0.515212	0.274544	0.678978	0.475361	1.02423	0.156883	0.946676	-0.0250145	0.162528	-0.299722	-0.095411	-0.345998	0.155239	-0.188761	0.294395	-0.23952	0.313006	
0.661609	4.77753	0	0	17.9609	-2.94038	-0.265194	-0.0358747	0	0	-0.150586	-0.322055	0	0	0.0007955	-0.0666618	0.0902655	0.0335855	0.251649	0.501089	0.257932	0.660345	0.46382	0.990765	0.135869	0.936954	-0.0263642	0.14637	-0.307026	-0.0981835	-0.345248	0.153118	-0.193498	0.292866	-0.243178	0.313148	
0.66288	4.77905	0	0	17.9609	-2.94038	-0.262888	-0.042391	0	0	-0.154466	-0.321339	0	0	0.004332	-0.076657	0.082354	0.031834	0.245438	0.486966	0.241319	0.641712	0.452278	0.957297	0.114854	0.927233	-0.027714	0.130211	-0.314329	-0.100956	-0.344498	0.150998	-0.198236	0.291336	-0.246837	0.31329	
0.664267	4.77905	0	0	17.9609	-2.94038	-0.265194	-0.0358747	0	0	-0.150586	-0.322055	0	0	0.00315375	-0.0733265	0.0744535	0.030082	0.241313	0.467002	0.23978	0.613356	0.430652	0.930661	0.112435	0.89961	-0.0261477	0.125784	-0.316065	-0.0960505	-0.333619	0.14552	-0.204626	0.309396	-0.237927	0.318718	
0.665811	4.776	0	0	17.9609	-2.94038	-0.2675	-0.0293585	0	0	-0.146707	-0.32277	0	0	0.0019755	-0.069996	0.066553	0.02833	0.237187	0.447039	0.238241	0.584999	0.409027	0.904025	0.110016	0.871987	-0.0245815	0.121358	-0.317801	-0.091145	-0.32274	0.140041	-0.211016	0.327456	-0.229017	0.324145	
0.667473	4.77753	0	0	17.9609	-2.94038	-0.269805	-0.0228423	0	0	-0.142827	-0.323486	0	0	0.00079725	-0.0666655	0.0586525	0.026578	0.233062	0.427075	0.236703	0.556643	0.387401	0.877388	0.107596	0.844365	-0.0230153	0.116931	-0.319536	-0.0862395	-0.311862	0.134563	-0.217407	0.345515	-0.220107	0.329573	
0.669203	4.77447	0	0	17.9609	-2.94038	-0.272111	-0.016326	0	0	-0.138948	-0.324202	0	0	-0.000381	-0.063335	0.050752	0.024826	0.228937	0.407111	0.235164	0.528287	0.365775	0.850752	0.105177	0.816742	-0.021449	0.112504	-0.321272	-0.081334	-0.300983	0.129085	-0.223797	0.363575	-0.211197	0.335001	
0.670951	4.77447	0	0	17.9609	-2.94038	-0.275004	-0.031954	0	0	-0.142523	-0.334589	0	0	-0.0109465	-0.0641098	0.0460385	0.0140985	0.212372	0.390842	0.233594	0.500076	0.342678	0.828686	0.0869283	0.799586	-0.0245822	0.12136	-0.324746	-0.0715148	-0.287705	0.125302	-0.224403	0.380205	-0.201167	0.357784	
0.672665	4.77142	0	0	17.9609	-2.94038	-0.277896	-0.047582	0	0	-0.146098	-0.344976	0	0	-0.021512	-0.0648845	0.041325	0.003371	0.195807	0.374573	0.232024	0.471864	0.319581	0.80662	0.0686795	0.78243	-0.0277155	0.130215	-0.328221	-0.0616955	-0.274427	0.12152	-0.225008	0.396834	-0.191138	0.380567	
0.674293	4.77295	0	0	17.9609	-2.94038	-0.280788	-0.06321	0	0	-0.149673	-0.355363	0	0	-0.0320775	-0.0656593	0.0366115	-0.0073565	0.179242	0.358304	0.230454	0.443653	0.296484	0.784554	0.0504308	0.765274	-0.0308487	0.139071	-0.331696	-0.0518762	-0.26115	0.117737	-0.225613	0.413464	-0.181109	0.40335	
0.675747	4.77142	0	0	17.9609	-2.94038	-0.283681	-0.078838	0	0	-0.153248	-0.36575	0	0	-0.042643	-0.066434	0.031898	-0.018084	0.162677	0.342035	0.228884	0.415442	0.273387	0.762488	0.032182	0.748118	-0.033982	0.147926	-0.33517	-0.042057	-0.247872	0.113954	-0.226219	0.430094	-0.171079	0.426133	
0.676929	4.77142	0	0	17.9609	-2.94038	-0.281381	-0.0853375	0	0	-0.155453	-0.369754	0	0	-0.0496632	-0.077178	0.0303525	-0.0377335	0.147194	0.322921	0.214537	0.390863	0.256548	0.723143	0.0166523	0.723531	-0.0337745	0.127387	-0.33517	-0.042057	-0.248623	0.116076	-0.235223	0.440623	-0.179417	0.449696	
0.677738	4.76837	0	0	17.9609	-2.94038	-0.279081	-0.091837	0	0	-0.157658	-0.373759	0	0	-0.0566835	-0.087922	0.028807	-0.057383	0.131711	0.303808	0.20019	0.366285	0.239709	0.683798	0.0011225	0.698944	-0.033567	0.106847	-0.33517	-0.042057	-0.249374	0.118199	-0.244228	0.451151	-0.187754	0.47326	
0.678074	4.76837	0	0	17.9609	-2.94038	-0.276782	-0.0983365	0	0	-0.159864	-0.377764	0	0	-0.0637038	-0.098666	0.0272615	-0.0770325	0.116227	0.284695	0.185844	0.341707	0.222871	0.644452	-0.0144072	0.674358	-0.0333595	0.0863083	-0.33517	-0.042057	-0.250125	0.120321	-0.253232	0.46168	-0.196092	0.496824	
0.67784	4.76837	0	0	17.9609	-2.94038	-0.274482	-0.104836	0	0	-0.162069	-0.381768	0	0	-0.070724	-0.10941	0.025716	-0.096682	0.100744	0.265581	0.171497	0.317128	0.206032	0.605107	-0.029937	0.649771	-0.033152	0.065769	-0.33517	-0.042057	-0.250876	0.122444	-0.262236	0.472209	-0.20443	0.520387	
0.677036	4.76532	0	0	17.9609	-2.94038	-0.271306	-0.101914	0	0	-0.154314	-0.383205	0	0	-0.0672017	-0.119364	0.0194195	-0.102874	0.0894153	0.250583	0.157178	0.292699	0.184623	0.579082	-0.0323915	0.622563	-0.0329625	0.045302	-0.331696	-0.0518762	-0.254761	0.124982	-0.261167	0.469187	-0.208098	0.520517	
0.675801	4.76532	0	0	17.9609	-2.94038	-0.26813	-0.098993	0	0	-0.146559	-0.384643	0	0	-0.0636795	-0.129319	0.013123	-0.109067	0.0780865	0.235585	0.142859	0.268269	0.163214	0.553056	-0.034846	0.595355	-0.032773	0.024835	-0.328221	-0.0616955	-0.258647	0.127521	-0.260097	0.466166	-0.211766	0.520647	
0.674283	4.76074	0	0	17.9609	-2.94038	-0.264954	-0.0960715	0	0	-0.138804	-0.38608	0	0	-0.0601572	-0.139273	0.0068265	-0.115259	0.0667578	0.220586	0.12854	0.243839	0.141805	0.527031	-0.0373005	0.568148	-0.0325835	0.004368	-0.324746	-0.0715148	-0.262532	0.130059	-0.259028	0.463144	-0.215434	0.520776	
0.672629	4.76379	0	0	17.9609	-2.94038	-0.261778	-0.09315	0	0	-0.131049	-0.387518	0	0	-0.056635	-0.149227	0.00053	-0.121451	0.055429	0.205588	0.114221	0.21941	0.120396	0.501006	-0.039755	0.54094	-0.032394	-0.016099	-0.321272	-0.081334	-0.266417	0.132598	-0.257959	0.460122	-0.219102	0.520906	
0.670987	4.76074	0	0	17.9609	-2.94038	-0.2586	-0.0902257	0	0	-0.12884	-0.383513	0	0	-0.054289	-0.155857	-0.00575925	-0.127633	0.0441215	0.190649	0.095516	0.207601	0.115818	0.470829	-0.06053	0.531552	-0.0384425	-0.0189143	-0.330299	-0.079207	-0.261781	0.127937	-0.26482	0.464605	-0.21072	0.517696	
0.669468	4.75922	0	0	17.9609	-2.94038	-0.255422	-0.0873015	0	0	-0.126631	-0.379508	0	0	-0.051943	-0.162487	-0.0120485	-0.133814	0.032814	0.17571	0.076811	0.195792	0.11124	0.440653	-0.081305	0.522164	-0.044491	-0.0217295	-0.339326	-0.07708	-0.257144	0.123276	-0.27168	0.469088	-0.202338	0.514486	
0.668035	4.75464	0	0	17.9609	-2.94038	-0.252244	-0.0843773	0	0	-0.124422	-0.375503	0	0	-0.049597	-0.169117	-0.0183377	-0.139995	0.0215065	0.160771	0.058106	0.183982	0.106662	0.410476	-0.10208	0.512777	-0.0505395	-0.0245447	-0.348353	-0.074953	-0.252508	0.118615	-0.278541	0.473571	-0.193956	0.511276	
0.666614	4.75464	0	0	17.9609	-2.94038	-0.249066	-0.081453	0	0	-0.122213	-0.371498	0	0	-0.047251	-0.175747	-0.024627	-0.146177	0.010199	0.145832	0.039401	0.172173	0.102084	0.380299	-0.122855	0.503389	-0.056588	-0.02736	-0.35738	-0.072826	-0.247872	0.113954	-0.285402	0.478054	-0.185574	0.508066	
0.665131	4.75159	0	0	17.9609	-2.94038	-0.246498	-0.100617	0	0	-0.122459	-0.391294	0	0	-0.060125	-0.185145	-0.0356117	-0.162952	-0.005186	0.126967	0.0482215	0.147245	0.0860807	0.361041	-0.12795	0.483833	-0.0733295	-0.0198023	-0.355645	-0.0777287	-0.243985	0.111414	-0.285402	0.478054	-0.178226	0.507801	
0.663515	4.75311	0	0	17.9609	-2.94038	-0.243929	-0.119782	0	0	-0.122704	-0.411089	0	0	-0.072999	-0.194543	-0.0465965	-0.179727	-0.020571	0.108101	0.057042	0.122316	0.0700775	0.341783	-0.133046	0.464276	-0.090071	-0.0122445	-0.353911	-0.0826315	-0.240098	0.108874	-0.285402	0.478054	-0.170878	0.507536	
0.661727	4.74701	0	0	17.9609	-2.94038	-0.241361	-0.138947	0	0	-0.12295	-0.430885	0	0	-0.085873	-0.20394	-0.0575813	-0.196501	-0.035956	0.0892363	0.0658625	0.0973875	0.0540743	0.322525	-0.138142	0.44472	-0.106813	-0.00468675	-0.352176	-0.0875343	-0.236212	0.106335	-0.285402	0.478054	-0.16353	0.507271	
0.660097	4.75006	0	0	17.9609	-2.94038	-0.238792	-0.158111	0	0	-0.123196	-0.45068	0	0	-0.098747	-0.213338	-0.068566	-0.213276	-0.051341	0.070371	0.074683	0.072459	0.038071	0.303267	-0.143237	0.425164	-0.123554	0.002871	-0.350441	-0.092437	-0.232325	0.103795	-0.285402	0.478054	-0.156182	0.507006	
0.659169	4.74701	0	0	18.115	-3.3761	-0.246036	-0.173307	0	0	-0.12429	-0.468057	0	0	-0.108093	-0.232594	-0.0779665	-0.234406	-0.0717867	0.0505145	0.0603975	0.0483832	0.0168007	0.277745	-0.15606	0.393675	-0.127841	-0.0246853	-0.363266	-0.102873	-0.247111	0.111825	-0.301053	0.462779	-0.171409	0.498828	
0.65949	4.74396	0	0	18.2692	-3.81183	-0.253281	-0.188503	0	0	-0.125383	-0.485434	0	0	-0.11744	-0.25185	-0.087367	-0.255535	-0.0922325	0.030658	0.046112	0.0243075	-0.0044695	0.252222	-0.168884	0.362186	-0.132128	-0.0522415	-0.376091	-0.113308	-0.261897	0.119855	-0.316704	0.447503	-0.186636	0.49065	
0.661605	4.7409	0	0	18.4234	-4.24755	-0.260526	-0.2037	0	0	-0.126477	-0.502811	0	0	-0.126786	-0.271107	-0.0967675	-0.276665	-0.112678	0.0108015	0.0318265	0.00023175	-0.0257397	0.226699	-0.181708	0.330698	-0.136414	-0.0797978	-0.388916	-0.123743	-0.276683	0.127885	-0.332354	0.432228	-0.201863	0.482472	
0.666046	4.73938	0	0	18.5776	-4.68328	-0.26777	-0.218896	0	0	-0.127571	-0.520188	0	0	-0.136132	-0.290363	-0.106168	-0.297795	-0.133124	-0.009055	0.017541	-0.023844	-0.04701	0.201177	-0.194531	0.299209	-0.140701	-0.107354	-0.401741	-0.134179	-0.291469	0.135915	-0.348005	0.416953	-0.21709	0.474294	
0.672735	4.73785	0	0	18.5776	-4.68328	-0.269803	-0.225027	0	0	-0.133656	-0.523435	0	0	-0.146631	-0.30625	-0.104621	-0.32597	-0.14844	-0.0430873	-0.0196395	-0.046998	-0.066014	0.148392	-0.217642	0.263389	-0.149483	-0.141884	-0.403827	-0.15158	-0.313971	0.148987	-0.354673	0.391293	-0.228668	0.445747	
0.680788	4.73785	0	0	18.5776	-4.68328	-0.271835	-0.231157	0	0	-0.139741	-0.526682	0	0	-0.15713	-0.322136	-0.103073	-0.354146	-0.163755	-0.0771195	-0.05682	-0.070152	-0.085018	0.095607	-0.240753	0.22757	-0.158265	-0.176415	-0.405913	-0.168981	-0.336472	0.16206	-0.361342	0.365634	-0.240247	0.417201	
0.689264	4.73633	0	0	18.5776	-4.68328	-0.273867	-0.237287	0	0	-0.145827	-0.529929	0	0	-0.167628	-0.338023	-0.101526	-0.382321	-0.179071	-0.111152	-0.0940005	-0.093306	-0.104022	0.042822	-0.263864	0.19175	-0.167046	-0.210946	-0.407999	-0.186382	-0.358974	0.175132	-0.368011	0.339974	-0.251825	0.388655	
0.697223	4.73175	0	0	18.5776	-4.68328	-0.2759	-0.243418	0	0	-0.151912	-0.533176	0	0	-0.178127	-0.35391	-0.099979	-0.410496	-0.194387	-0.145184	-0.131181	-0.11646	-0.123026	-0.009963	-0.286975	0.155931	-0.175828	-0.245476	-0.410085	-0.203783	-0.381476	0.188204	-0.374679	0.314314	-0.263403	0.360108	
0.703723	4.73328	0	0	18.5776	-4.68328	-0.284534	-0.242745	0	0	-0.157444	-0.527756	0	0	-0.185117	-0.364465	-0.120308	-0.42427	-0.226865	-0.17644	-0.143176	-0.146346	-0.154708	-0.0474193	-0.310007	0.120435	-0.189227	-0.266768	-0.417346	-0.20653	-0.391578	0.191544	-0.37514	0.300806	-0.26919	0.345905	
0.70793	4.7348	0	0	18.5776	-4.68328	-0.293168	-0.242071	0	0	-0.162976	-0.522336	0	0	-0.192107	-0.375021	-0.140636	-0.438045	-0.259343	-0.207695	-0.155171	-0.176232	-0.186389	-0.0848755	-0.333039	0.0849385	-0.202626	-0.28806	-0.424607	-0.209276	-0.40168	0.194883	-0.375601	0.287297	-0.274977	0.331701	
0.709927	4.73022	0	0	18.5776	-4.68328	-0.301801	-0.241397	0	0	-0.168508	-0.516917	0	0	-0.199097	-0.385576	-0.160965	-0.451819	-0.291821	-0.238951	-0.167167	-0.206119	-0.218071	-0.122332	-0.356072	0.0494423	-0.216026	-0.309351	-0.431868	-0.212023	-0.411782	0.198223	-0.376062	0.273788	-0.280764	0.317497	
0.710265	4.73175	0	0	18.5776	-4.68328	-0.310435	-0.240724	0	0	-0.17404	-0.511497	0	0	-0.206087	-0.396132	-0.181294	-0.465593	-0.324299	-0.270207	-0.179162	-0.236005	-0.249753	-0.159788	-0.379104	0.013946	-0.229425	-0.330643	-0.439129	-0.21477	-0.421884	0.201563	-0.376523	0.26028	-0.286551	0.303294	
0.709501	4.73175	0	0	18.5776	-4.68328	-0.305621	-0.266181	0	0	-0.175136	-0.52881	0	0	-0.218869	-0.405381	-0.187581	-0.495157	-0.343504	-0.292422	-0.197616	-0.247419	-0.273726	-0.176222	-0.38163	-0.0123245	-0.233885	-0.337715	-0.435685	-0.224504	-0.425748	0.204088	-0.381219	0.258751	-0.281865	0.300232	
0.708191	4.7287	0	0	18.5776	-4.68328	-0.300807	-0.291639	0	0	-0.176233	-0.546124	0	0	-0.231651	-0.414631	-0.193868	-0.524721	-0.36271	-0.314636	-0.21607	-0.258834	-0.297698	-0.192656	-0.384156	-0.038595	-0.238346	-0.344787	-0.432241	-0.234237	-0.429612	0.206613	-0.385914	0.257223	-0.27718	0.297171	
0.706891	4.7287	0	0	18.5776	-4.68328	-0.295993	-0.317096	0	0	-0.177329	-0.563438	0	0	-0.244433	-0.42388	-0.200156	-0.554285	-0.381915	-0.33685	-0.234524	-0.270249	-0.32167	-0.20909	-0.386682	-0.0648655	-0.242806	-0.351859	-0.428796	-0.243971	-0.433476	0.209138	-0.39061	0.255694	-0.272495	0.294109	
0.705993	4.72565	0	0	18.5776	-4.68328	-0.291179	-0.342553	0	0	-0.178425	-0.580751	0	0	-0.257215	-0.433129	-0.206443	-0.583849	-0.40112	-0.359065	-0.252978	-0.281663	-0.345643	-0.225524	-0.389208	-0.091136	-0.247267	-0.358931	-0.425352	-0.253705	-0.43734	0.211663	-0.395306	0.254165	-0.267809	0.291047	
0.705401	4.72259	0	0	16.1114	-3.07185	-0.297525	-0.348299	0	0	-0.182841	-0.588661	0	0	-0.263028	-0.446887	-0.21737	-0.600182	-0.414254	-0.382915	-0.25036	-0.320764	-0.358416	-0.252313	-0.41472	-0.118905	-0.254653	-0.37735	-0.424023	-0.280701	-0.459738	0.224668	-0.40199	0.228726	-0.275749	0.26264	
0.704929	4.72107	0	0	13.6453	-1.46042	-0.303872	-0.354046	0	0	-0.187256	-0.596571	0	0	-0.268842	-0.460645	-0.228296	-0.616515	-0.427387	-0.406764	-0.247743	-0.359865	-0.37119	-0.279102	-0.440232	-0.146674	-0.26204	-0.395769	-0.422693	-0.307696	-0.482136	0.237673	-0.408674	0.203287	-0.28369	0.234233	
0.704387	4.72259	0	0	11.1791	0.151009	-0.310218	-0.359792	0	0	-0.191671	-0.604481	0	0	-0.274656	-0.474402	-0.239223	-0.632848	-0.440521	-0.430614	-0.245125	-0.398965	-0.383964	-0.305891	-0.465744	-0.174442	-0.269426	-0.414189	-0.421364	-0.334691	-0.504533	0.250679	-0.415359	0.177849	-0.291631	0.205826	
0.703589	4.71802	0	0	8.713	1.76244	-0.316564	-0.365538	0	0	-0.196087	-0.612391	0	0	-0.280469	-0.48816	-0.25015	-0.649181	-0.453655	-0.454464	-0.242508	-0.438066	-0.396737	-0.33268	-0.491256	-0.202211	-0.276813	-0.432608	-0.420035	-0.361687	-0.526931	0.263684	-0.422043	0.15241	-0.299571	0.177419	
0.702351	4.71802	0	0	11.1791	0.151009	-0.31429	-0.371965	0	0	-0.19526	-0.614729	0	0	-0.280498	-0.503154	-0.262594	-0.661106	-0.457739	-0.473332	-0.256635	-0.461385	-0.412415	-0.35105	-0.50651	-0.225385	-0.285719	-0.446651	-0.431115	-0.376763	-0.546174	0.276257	-0.436561	0.134497	-0.304907	0.151922	
0.700613	4.71496	0	0	13.6453	-1.46042	-0.312016	-0.378393	0	0	-0.194433	-0.617067	0	0	-0.280527	-0.518147	-0.275038	-0.67303	-0.461823	-0.4922	-0.270763	-0.484704	-0.428092	-0.36942	-0.521763	-0.24856	-0.294624	-0.460695	-0.442195	-0.391838	-0.565416	0.288831	-0.451078	0.116583	-0.310244	0.126425	
0.698445	4.71802	0	0	16.1114	-3.07185	-0.309741	-0.38482	0	0	-0.193605	-0.619406	0	0	-0.280555	-0.533141	-0.287483	-0.684955	-0.465906	-0.511068	-0.28489	-0.508024	-0.443769	-0.38779	-0.537017	-0.271734	-0.30353	-0.474738	-0.453276	-0.406914	-0.584658	0.301404	-0.465595	0.0986702	-0.31558	0.100929	
0.695927	4.71954	0	0	18.5776	-4.68328	-0.307467	-0.391247	0	0	-0.192778	-0.621744	0	0	-0.280584	-0.548135	-0.299927	-0.696879	-0.46999	-0.529936	-0.299017	-0.531343	-0.459447	-0.40616	-0.55227	-0.294909	-0.312436	-0.488781	-0.464356	-0.42199	-0.603901	0.313978	-0.480113	0.080757	-0.320917	0.075432	
0.693135	4.71802	0	0	18.5776	-4.68328	-0.323546	-0.393078	0	0	-0.211234	-0.62046	0	0	-0.284068	-0.553353	-0.292255	-0.718561	-0.483034	-0.538594	-0.305005	-0.545961	-0.468419	-0.42247	-0.552303	-0.32787	-0.307875	-0.501671	-0.459233	-0.436468	-0.606994	0.31437	-0.477457	0.0585432	-0.320464	0.064021	
0.690147	4.71344	0	0	18.5776	-4.68328	-0.339626	-0.394909	0	0	-0.22969	-0.619175	0	0	-0.287551	-0.558571	-0.284583	-0.740242	-0.496077	-0.547252	-0.310993	-0.56058	-0.477392	-0.438781	-0.552336	-0.36083	-0.303314	-0.514561	-0.45411	-0.450946	-0.610088	0.314762	-0.4748	0.0363295	-0.320011	0.05261	
0.687047	4.71802	0	0	18.5776	-4.68328	-0.355705	-0.39674	0	0	-0.248147	-0.617891	0	0	-0.291035	-0.563788	-0.276912	-0.761923	-0.50912	-0.555909	-0.316982	-0.575198	-0.486365	-0.455091	-0.552368	-0.393791	-0.298753	-0.527451	-0.448987	-0.465424	-0.613181	0.315153	-0.472143	0.0141158	-0.319558	0.041199	
0.68395	4.72107	0	0	18.5776	-4.68328	-0.371784	-0.398571	0	0	-0.266603	-0.616607	0	0	-0.294519	-0.569006	-0.26924	-0.783605	-0.522164	-0.564567	-0.32297	-0.589816	-0.495337	-0.471401	-0.552401	-0.426752	-0.294192	-0.540341	-0.443864	-0.479902	-0.616274	0.315545	-0.469487	-0.008098	-0.319105	0.029788	
0.680979	4.72412	0	0	16.1114	-3.07185	-0.373578	-0.417093	0	0	-0.276218	-0.630036	0	0	-0.302669	-0.591089	-0.278624	-0.804059	-0.533207	-0.578766	-0.320474	-0.62836	-0.512401	-0.485505	-0.567639	-0.44962	-0.309061	-0.556981	-0.468973	-0.478308	-0.63163	0.325579	-0.481407	-0.0184607	-0.334101	0.041808	
0.678255	4.72107	0	0	13.6453	-1.46042	-0.375371	-0.435615	0	0	-0.285832	-0.643465	0	0	-0.31082	-0.613172	-0.288009	-0.824513	-0.544251	-0.592966	-0.317978	-0.666904	-0.529464	-0.499609	-0.582876	-0.472488	-0.323931	-0.573622	-0.494083	-0.476714	-0.646986	0.335612	-0.493327	-0.0288235	-0.349096	0.053828	
0.675901	4.72565	0	0	11.1791	0.151009	-0.377165	-0.454136	0	0	-0.295447	-0.656894	0	0	-0.31897	-0.635255	-0.297393	-0.844967	-0.555295	-0.607165	-0.315481	-0.705448	-0.546527	-0.513713	-0.598113	-0.495356	-0.3388	-0.590262	-0.519192	-0.475119	-0.662342	0.345646	-0.505246	-0.0391862	-0.364092	0.065848	
0.674033	4.72565	0	0	8.713	1.76244	-0.378959	-0.472658	0	0	-0.305061	-0.670323	0	0	-0.32712	-0.657338	-0.306777	-0.865421	-0.566338	-0.621364	-0.312985	-0.743992	-0.563591	-0.527817	-0.613351	-0.518224	-0.353669	-0.606902	-0.544302	-0.473525	-0.677698	0.35568	-0.517166	-0.049549	-0.379087	0.077868	
0.672606	4.72717	0	0	8.713	1.76244	-0.376473	-0.491468	0	0	-0.303145	-0.685875	0	0	-0.323747	-0.681886	-0.30842	-0.884219	-0.564449	-0.641815	-0.329215	-0.760942	-0.571082	-0.548083	-0.608452	-0.564949	-0.361046	-0.625061	-0.541327	-0.505	-0.696105	0.366078	-0.521787	-0.0804347	-0.387022	0.0498048	
0.67144	4.7287	0	0	8.713	1.76244	-0.373988	-0.510279	0	0	-0.301228	-0.701427	0	0	-0.320373	-0.706434	-0.310064	-0.903017	-0.562559	-0.662267	-0.345445	-0.777892	-0.578572	-0.56835	-0.603552	-0.611673	-0.368422	-0.64322	-0.538351	-0.536474	-0.714511	0.376476	-0.526408	-0.11132	-0.394958	0.0217415	
0.67035	4.73022	0	0	8.713	1.76244	-0.371502	-0.529089	0	0	-0.299312	-0.71698	0	0	-0.316999	-0.730982	-0.311708	-0.921815	-0.56067	-0.682719	-0.361674	-0.794843	-0.586063	-0.588616	-0.598653	-0.658398	-0.375799	-0.661378	-0.535376	-0.567948	-0.732917	0.386875	-0.531029	-0.142206	-0.402893	-0.00632175	
0.66915	4.73175	0	0	8.713	1.76244	-0.369016	-0.547899	0	0	-0.297395	-0.732532	0	0	-0.313626	-0.75553	-0.313351	-0.940613	-0.558781	-0.70317	-0.377904	-0.811793	-0.593554	-0.608882	-0.593754	-0.705123	-0.383176	-0.679537	-0.532401	-0.599423	-0.751324	0.397273	-0.53565	-0.173092	-0.410828	-0.034385	
0.667656	4.73022	0	0	11.1791	0.151009	-0.368799	-0.560291	0	0	-0.297951	-0.741091	0	0	-0.313694	-0.770342	-0.316526	-0.955055	-0.572751	-0.708951	-0.381794	-0.832129	-0.592976	-0.631201	-0.626536	-0.710765	-0.384606	-0.69497	-0.532849	-0.621195	-0.762797	0.40477	-0.551149	-0.187722	-0.409945	-0.0570387	
0.665791	4.73175	0	0	13.6453	-1.46042	-0.368581	-0.572682	0	0	-0.298508	-0.74965	0	0	-0.313762	-0.785153	-0.3197	-0.969497	-0.586721	-0.714732	-0.385684	-0.852466	-0.592398	-0.653519	-0.659318	-0.716408	-0.386035	-0.710402	-0.533297	-0.642968	-0.77427	0.412266	-0.566648	-0.202352	-0.409062	-0.0796925	
0.663711	4.7287	0	0	16.1114	-3.07185	-0.368363	-0.585074	0	0	-0.299064	-0.758209	0	0	-0.313829	-0.799964	-0.322874	-0.983939	-0.600691	-0.720513	-0.389574	-0.872803	-0.591819	-0.675837	-0.692099	-0.72205	-0.387465	-0.725834	-0.533744	-0.66474	-0.785744	0.419763	-0.582148	-0.216983	-0.408179	-0.102346	
0.661606	4.73022	0	0	18.5776	-4.68328	-0.368146	-0.597465	0	0	-0.29962	-0.766768	0	0	-0.313897	-0.814776	-0.326049	-0.998381	-0.614661	-0.726294	-0.393464	-0.893139	-0.591241	-0.698156	-0.724881	-0.727692	-0.388895	-0.741267	-0.534192	-0.686512	-0.797217	0.42726	-0.597647	-0.231613	-0.407296	-0.125	
0.659665	4.72717	0	0	18.5776	-4.68328	-0.372019	-0.621806	0	0	-0.30514	-0.791635	0	0	-0.327756	-0.820544	-0.329228	-1.01278	-0.621674	-0.736589	-0.413832	-0.898078	-0.600183	-0.714184	-0.7275	-0.752937	-0.385887	-0.749768	-0.52744	-0.705595	-0.797217	0.42726	-0.597128	-0.247661	-0.405268	-0.130732	
0.658075	4.73022	0	0	18.5776	-4.68328	-0.375892	-0.646147	0	0	-0.310661	-0.816501	0	0	-0.341614	-0.826312	-0.332408	-1.02718	-0.628687	-0.746884	-0.4342	-0.903017	-0.609125	-0.730212	-0.73012	-0.778182	-0.382879	-0.758269	-0.520687	-0.724677	-0.797217	0.42726	-0.596608	-0.263709	-0.403239	-0.136464	
0.656978	4.7287	0	0	18.5776	-4.68328	-0.379765	-0.670489	0	0	-0.316182	-0.841368	0	0	-0.355473	-0.83208	-0.335587	-1.04158	-0.6357	-0.757178	-0.454568	-0.907956	-0.618066	-0.746239	-0.732739	-0.803426	-0.37987	-0.766771	-0.513935	-0.74376	-0.797217	0.42726	-0.596089	-0.279757	-0.401211	-0.142196	
0.656288	4.72717	0	0	18.5776	-4.68328	-0.383638	-0.69483	0	0	-0.321702	-0.866235	0	0	-0.369332	-0.837848	-0.338767	-1.05598	-0.642713	-0.767473	-0.474936	-0.912895	-0.627008	-0.762267	-0.735359	-0.828671	-0.376862	-0.775272	-0.507183	-0.762842	-0.797217	0.42726	-0.595569	-0.295805	-0.399183	-0.147928	
0.655853	4.73022	0	0	18.7246	-5.09873	-0.384365	-0.716263	0	0	-0.317374	-0.888571	0	0	-0.379757	-0.853211	-0.349665	-1.07186	-0.653705	-0.781488	-0.474639	-0.944907	-0.643976	-0.77609	-0.748045	-0.857944	-0.382755	-0.797503	-0.521612	-0.768053	-0.816305	0.439733	-0.613086	-0.304503	-0.426955	-0.129781	
0.655523	4.7287	0	0	18.8716	-5.51418	-0.385092	-0.737696	0	0	-0.313045	-0.910907	0	0	-0.390183	-0.868575	-0.360564	-1.08774	-0.664697	-0.795503	-0.474342	-0.976919	-0.660944	-0.789913	-0.76073	-0.887217	-0.388648	-0.819733	-0.536041	-0.773264	-0.835393	0.452205	-0.630604	-0.3132	-0.454728	-0.111633	
0.655144	4.7348	0	0	19.0186	-5.92963	-0.385819	-0.75913	0	0	-0.308717	-0.933242	0	0	-0.400609	-0.883938	-0.371463	-1.10362	-0.67569	-0.809517	-0.474045	-1.00893	-0.677911	-0.803735	-0.773416	-0.91649	-0.394541	-0.841963	-0.55047	-0.778475	-0.854481	0.464678	-0.648122	-0.321898	-0.4825	-0.0934863	
0.654581	4.73328	0	0	19.1656	-6.34508	-0.386546	-0.780563	0	0	-0.304389	-0.955578	0	0	-0.411034	-0.899301	-0.382361	-1.1195	-0.686682	-0.823532	-0.473748	-1.04094	-0.694879	-0.817558	-0.786102	-0.945763	-0.400434	-0.864194	-0.564899	-0.783686	-0.873569	0.477151	-0.665639	-0.330596	-0.510273	-0.075339	
0.653865	4.73785	0	0	19.1656	-6.34508	-0.387475	-0.789671	0	0	-0.314252	-0.957983	0	0	-0.409985	-0.917185	-0.384038	-1.13805	-0.69076	-0.841999	-0.489872	-1.05756	-0.702358	-0.837491	-0.783856	-0.984588	-0.410814	-0.873662	-0.575934	-0.798376	-0.881193	0.482132	-0.675406	-0.346527	-0.517606	-0.0947345	
0.653123	4.7348	0	0	19.1656	-6.34508	-0.388404	-0.798779	0	0	-0.324114	-0.960387	0	0	-0.408936	-0.935069	-0.385714	-1.15661	-0.694839	-0.860467	-0.505996	-1.07418	-0.709838	-0.857423	-0.781609	-1.02341	-0.421194	-0.88313	-0.586969	-0.813066	-0.888816	0.487113	-0.685173	-0.362459	-0.524939	-0.11413	
0.652484	4.73633	0	0	19.1656	-6.34508	-0.389332	-0.807886	0	0	-0.333977	-0.962792	0	0	-0.407886	-0.952953	-0.38739	-1.17517	-0.698917	-0.878934	-0.522121	-1.0908	-0.717318	-0.877355	-0.779363	-1.06224	-0.431574	-0.892597	-0.598003	-0.827756	-0.896439	0.492095	-0.694941	-0.37839	-0.532272	-0.133526	
0.652077	4.7348	0	0	19.1656	-6.34508	-0.390261	-0.816994	0	0	-0.343839	-0.965196	0	0	-0.406837	-0.970837	-0.389067	-1.19373	-0.702995	-0.897401	-0.538245	-1.10742	-0.724797	-0.897288	-0.777117	-1.10106	-0.441954	-0.902065	-0.609038	-0.842446	-0.904063	0.497076	-0.704708	-0.394321	-0.539605	-0.152921	
0.652025	4.73785	0	0	16.6994	-4.73365	-0.390261	-0.816994	0	0	-0.339197	-0.96823	0	0	-0.40345	-0.980407	-0.395263	-1.19949	-0.709018	-0.910324	-0.540072	-1.13328	-0.733697	-0.913117	-0.797151	-1.10923	-0.437475	-0.914724	-0.60401	-0.856656	-0.911679	0.502053	-0.705231	-0.407333	-0.53355	-0.170035	
0.65232	4.73785	0	0	14.2333	-3.12222	-0.390261	-0.816994	0	0	-0.334554	-0.971263	0	0	-0.400064	-0.989977	-0.401458	-1.20525	-0.71504	-0.923248	-0.541898	-1.15913	-0.742596	-0.928945	-0.817185	-1.1174	-0.432995	-0.927382	-0.598982	-0.870865	-0.919296	0.50703	-0.705753	-0.420345	-0.527494	-0.187148	
0.652818	4.73785	0	0	11.7671	-1.51079	-0.390261	-0.816994	0	0	-0.329911	-0.974297	0	0	-0.396678	-0.999547	-0.407654	-1.211	-0.721063	-0.936172	-0.543724	-1.18498	-0.751496	-0.944774	-0.837219	-1.12556	-0.428516	-0.94004	-0.593954	-0.885074	-0.926913	0.512006	-0.706276	-0.433356	-0.521439	-0.204262	
0.653367	4.74701	0	0	9.301	0.100635	-0.390261	-0.816994	0	0	-0.325269	-0.97733	0	0	-0.393291	-1.00912	-0.41385	-1.21676	-0.727086	-0.949095	-0.545551	-1.21084	-0.760396	-0.960603	-0.857253	-1.13373	-0.424037	-0.952699	-0.588926	-0.899284	-0.934529	0.516983	-0.706799	-0.446368	-0.515383	-0.221376	
0.653818	4.74243	0	0	9.301	0.100635	-0.391193	-0.826086	0	0	-0.330484	-0.98276	0	0	-0.399024	-1.00782	-0.418538	-1.22675	-0.735039	-0.956516	-0.555664	-1.21322	-0.772119	-0.968361	-0.864805	-1.14469	-0.435938	-0.938436	-0.59779	-0.89713	-0.926913	0.512006	-0.713462	-0.442014	-0.508173	-0.221704	
0.654021	4.7409	0	0	9.301	0.100635	-0.392124	-0.835178	0	0	-0.335699	-0.98819	0	0	-0.404756	-1.00653	-0.423226	-1.23674	-0.742992	-0.963936	-0.565777	-1.21561	-0.783843	-0.976119	-0.872358	-1.15566	-0.44784	-0.924173	-0.606653	-0.894975	-0.919296	0.50703	-0.720126	-0.43766	-0.500962	-0.222033	
0.653944	4.74243	0	0	9.301	0.100635	-0.393056	-0.84427	0	0	-0.340914	-0.993619	0	0	-0.410489	-1.00523	-0.427914	-1.24673	-0.750944	-0.971356	-0.57589	-1.21799	-0.795566	-0.983877	-0.87991	-1.16662	-0.459741	-0.909911	-0.615517	-0.892821	-0.911679	0.502053	-0.726789	-0.433306	-0.493752	-0.222361	
0.653784	4.74396	0	0	9.301	0.100635	-0.393988	-0.853362	0	0	-0.346129	-0.999049	0	0	-0.416222	-1.00394	-0.432602	-1.25672	-0.758897	-0.978777	-0.586003	-1.22038	-0.80729	-0.991635	-0.887462	-1.17759	-0.471642	-0.895648	-0.624381	-0.890667	-0.904063	0.497076	-0.733453	-0.428952	-0.486542	-0.22269	
0.653763	4.7409	0	0	11.7671	-1.51079	-0.397151	-0.85614	0	0	-0.346129	-0.999049	0	0	-0.419696	-1.00901	-0.437288	-1.26668	-0.759973	-0.990668	-0.59197	-1.23443	-0.817574	-1.00337	-0.892575	-1.19539	-0.477563	-0.898265	-0.63658	-0.879058	-0.900252	0.494586	-0.7355	-0.423166	-0.493612	-0.202708	
0.654101	4.74548	0	0	14.2333	-3.12222	-0.400315	-0.858919	0	0	-0.346129	-0.999049	0	0	-0.423169	-1.01409	-0.441974	-1.27665	-0.761048	-1.00256	-0.597937	-1.24848	-0.827858	-1.01511	-0.897689	-1.21319	-0.483484	-0.900883	-0.648779	-0.86745	-0.896441	0.492096	-0.737548	-0.41738	-0.500683	-0.182726	
0.65502	4.74243	0	0	16.6994	-4.73365	-0.403478	-0.861698	0	0	-0.346129	-0.999049	0	0	-0.426643	-1.01917	-0.44666	-1.28662	-0.762123	-1.01445	-0.603903	-1.26253	-0.838142	-1.02684	-0.902802	-1.23099	-0.489405	-0.903501	-0.660978	-0.855842	-0.89263	0.489605	-0.739595	-0.411594	-0.507753	-0.162744	
0.656661	4.73938	0	0	19.1656	-6.34508	-0.406641	-0.864476	0	0	-0.346129	-0.999049	0	0	-0.430117	-1.02425	-0.451346	-1.29658	-0.763199	-1.02634	-0.60987	-1.27658	-0.848426	-1.03858	-0.907916	-1.24879	-0.495326	-0.906118	-0.673177	-0.844233	-0.888819	0.487115	-0.741642	-0.405808	-0.514824	-0.142762	
0.658854	4.7409	0	0	19.1656	-6.34508	-0.40571	-0.855391	0	0	-0.347185	-0.985984	0	0	-0.424389	-1.02554	-0.459021	-1.29807	-0.761269	-1.0318	-0.615835	-1.29059	-0.853561	-1.04444	-0.915456	-1.25967	-0.493835	-0.910334	-0.673177	-0.844233	-0.89263	0.489605	-0.744207	-0.413025	-0.511792	-0.151331	
0.661356	4.7409	0	0	19.1656	-6.34508	-0.404778	-0.846305	0	0	-0.348241	-0.972918	0	0	-0.41866	-1.02684	-0.466696	-1.29956	-0.75934	-1.03725	-0.6218	-1.30459	-0.858696	-1.05029	-0.922996	-1.27056	-0.492343	-0.914549	-0.673177	-0.844233	-0.896441	0.492096	-0.746772	-0.420243	-0.50876	-0.159901	
0.663923	4.73633	0	0	19.1656	-6.34508	-0.403846	-0.83722	0	0	-0.349297	-0.959852	0	0	-0.412932	-1.02813	-0.474371	-1.30105	-0.75741	-1.0427	-0.627764	-1.3186	-0.863832	-1.05614	-0.930536	-1.28145	-0.490851	-0.918764	-0.673177	-0.844233	-0.900252	0.494586	-0.749337	-0.427461	-0.505727	-0.16847	
0.666313	4.73938	0	0	19.1656	-6.34508	-0.402915	-0.828134	0	0	-0.350353	-0.946787	0	0	-0.407203	-1.02943	-0.482046	-1.30254	-0.75548	-1.04816	-0.633729	-1.3326	-0.868967	-1.062	-0.938076	-1.29233	-0.48936	-0.92298	-0.673177	-0.844233	-0.904063	0.497076	-0.751902	-0.434678	-0.502695	-0.177039	
0.668296	4.73785	0	0	16.5524	-4.3182	-0.395657	-0.813447	0	0	-0.34319	-0.926649	0	0	-0.400245	-1.01926	-0.472874	-1.30528	-0.751503	-1.04446	-0.64791	-1.32334	-0.867556	-1.06599	-0.9405	-1.28548	-0.483438	-0.920366	-0.664327	-0.846376	-0.896439	0.492095	-0.746266	-0.436138	-0.503706	-0.174183	
0.669811	4.7348	0	0	13.9393	-2.29132	-0.3884	-0.79876	0	0	-0.336028	-0.906511	0	0	-0.393288	-1.0091	-0.463701	-1.30803	-0.747526	-1.04077	-0.662091	-1.31407	-0.866144	-1.06998	-0.942924	-1.27863	-0.477515	-0.917753	-0.655477	-0.848519	-0.888816	0.487113	-0.740631	-0.437598	-0.504716	-0.171328	
0.670896	4.73785	0	0	11.3261	-0.264441	-0.381142	-0.784074	0	0	-0.328865	-0.886373	0	0	-0.38633	-0.998943	-0.454529	-1.31077	-0.74355	-1.03708	-0.676272	-1.3048	-0.864733	-1.07397	-0.945349	-1.27178	-0.471592	-0.915139	-0.646628	-0.850663	-0.881193	0.482132	-0.734996	-0.439058	-0.505726	-0.168472	
0.671592	4.7348	0	0	8.713	1.76244	-0.373884	-0.769387	0	0	-0.321702	-0.866235	0	0	-0.379372	-0.988783	-0.445357	-1.31351	-0.739573	-1.03339	-0.690453	-1.29554	-0.863321	-1.07796	-0.947773	-1.26493	-0.46567	-0.912526	-0.637778	-0.852806	-0.873569	0.477151	-0.72936	-0.440518	-0.506737	-0.165617	
0.671941	4.7287	0	0	8.86	1.34699	-0.378568	-0.744403	0	0	-0.322218	-0.844553	0	0	-0.375804	-0.968994	-0.442168	-1.29931	-0.732579	-1.02326	-0.67833	-1.29899	-0.867558	-1.06598	-0.935381	-1.26776	-0.464226	-0.897234	-0.644487	-0.833845	-0.858302	0.467175	-0.730891	-0.421713	-0.502999	-0.146068	
0.671983	4.72717	0	0	9.007	0.931536	-0.383251	-0.719418	0	0	-0.322734	-0.822871	0	0	-0.372235	-0.949206	-0.438979	-1.28511	-0.725584	-1.01313	-0.666207	-1.30244	-0.871795	-1.05401	-0.922988	-1.27058	-0.462782	-0.881942	-0.651196	-0.814884	-0.843035	0.457199	-0.732422	-0.402909	-0.49926	-0.126519	
0.671816	4.72717	0	0	9.154	0.516086	-0.387935	-0.694434	0	0	-0.32325	-0.80119	0	0	-0.368667	-0.929418	-0.435791	-1.27092	-0.718589	-1.003	-0.654084	-1.30589	-0.876031	-1.04203	-0.910596	-1.27341	-0.461339	-0.866651	-0.657905	-0.795923	-0.827768	0.447223	-0.733953	-0.384104	-0.495522	-0.10697	
0.671627	4.72717	0	0	9.301	0.100635	-0.392619	-0.66945	0	0	-0.323766	-0.779508	0	0	-0.365099	-0.909629	-0.432602	-1.25672	-0.711595	-0.992872	-0.641961	-1.30934	-0.880268	-1.03006	-0.898204	-1.27623	-0.459895	-0.851359	-0.664614	-0.776962	-0.812501	0.437247	-0.735484	-0.365299	-0.491783	-0.087421	
0.671613	4.71954	0	0	9.301	0.100635	-0.387415	-0.66064	0	0	-0.321836	-0.764717	0	0	-0.355863	-0.90581	-0.424909	-1.25522	-0.703623	-0.985456	-0.646081	-1.2977	-0.876552	-1.02019	-0.900632	-1.26937	-0.468885	-0.825952	-0.651932	-0.766984	-0.793379	0.424752	-0.724707	-0.352256	-0.482858	-0.0623457	
0.67197	4.72107	0	0	9.301	0.100635	-0.382211	-0.65183	0	0	-0.319906	-0.749926	0	0	-0.346627	-0.901991	-0.417215	-1.25373	-0.695652	-0.97804	-0.650201	-1.28605	-0.872836	-1.01033	-0.90306	-1.26251	-0.477875	-0.800545	-0.63925	-0.757005	-0.774257	0.412257	-0.71393	-0.339213	-0.473933	-0.0372705	
0.672895	4.71649	0	0	9.301	0.100635	-0.377006	-0.643021	0	0	-0.317976	-0.735136	0	0	-0.337392	-0.898171	-0.409522	-1.25223	-0.687681	-0.970624	-0.654321	-1.27441	-0.86912	-1.00046	-0.905488	-1.25565	-0.486865	-0.775138	-0.626568	-0.747027	-0.755134	0.399763	-0.703153	-0.326169	-0.465008	-0.0121952	
0.674531	4.71802	0	0	9.301	0.100635	-0.371802	-0.634211	0	0	-0.316046	-0.720345	0	0	-0.328156	-0.894352	-0.401829	-1.25073	-0.679709	-0.963208	-0.658441	-1.26276	-0.865404	-0.9906	-0.907916	-1.24879	-0.495855	-0.749731	-0.613886	-0.737049	-0.736012	0.387268	-0.692376	-0.313126	-0.456083	0.01288	
0.676744	4.71649	0	0	11.7671	-1.51079	-0.364553	-0.619366	0	0	-0.309731	-0.697634	0	0	-0.321178	-0.884104	-0.410853	-1.22523	-0.660814	-0.956573	-0.648362	-1.26039	-0.86027	-0.98472	-0.900367	-1.23787	-0.489932	-0.747078	-0.618941	-0.722764	-0.728351	0.382262	-0.701113	-0.302946	-0.445219	0.0124227	
0.679313	4.71191	0	0	14.2333	-3.12222	-0.357305	-0.604521	0	0	-0.303417	-0.674923	0	0	-0.3142	-0.873856	-0.419878	-1.19972	-0.641919	-0.949939	-0.638283	-1.25801	-0.855136	-0.978841	-0.892818	-1.22695	-0.48401	-0.744425	-0.623995	-0.708479	-0.720691	0.377256	-0.70985	-0.292766	-0.434356	0.0119655	
0.682017	4.71191	0	0	16.6994	-4.73365	-0.350056	-0.589676	0	0	-0.297102	-0.652212	0	0	-0.307222	-0.863608	-0.428902	-1.17422	-0.623025	-0.943304	-0.628203	-1.25563	-0.850002	-0.972961	-0.885269	-1.21603	-0.478087	-0.741771	-0.62905	-0.694194	-0.71303	0.372251	-0.718587	-0.282585	-0.423493	0.0115083	
0.684635	4.70886	0	0	19.1656	-6.34508	-0.342807	-0.574831	0	0	-0.290788	-0.629501	0	0	-0.300244	-0.85336	-0.437926	-1.14872	-0.60413	-0.93667	-0.618124	-1.25326	-0.844868	-0.967081	-0.87772	-1.20512	-0.472165	-0.739118	-0.634104	-0.679909	-0.705369	0.367245	-0.727324	-0.272405	-0.412629	0.011051	
0.686952	4.70886	0	0	19.1656	-6.34508	-0.337816	-0.553536	0	0	-0.275112	-0.612801	0	0	-0.288623	-0.84116	-0.428567	-1.1286	-0.594058	-0.919981	-0.610094	-1.24504	-0.833165	-0.95931	-0.872603	-1.18727	-0.4603	-0.733805	-0.628603	-0.672503	-0.693865	0.359728	-0.719112	-0.26658	-0.416709	0.0225818	
0.688922	4.70581	0	0	19.1656	-6.34508	-0.332826	-0.532242	0	0	-0.259437	-0.596102	0	0	-0.277001	-0.828961	-0.419209	-1.10849	-0.583987	-0.903292	-0.602064	-1.23682	-0.821462	-0.951538	-0.867487	-1.16942	-0.448435	-0.728492	-0.623103	-0.665098	-0.682361	0.352211	-0.710899	-0.260755	-0.420789	0.0341125	
0.690705	4.70734	0	0	19.1656	-6.34508	-0.327836	-0.510947	0	0	-0.243762	-0.579402	0	0	-0.265379	-0.816762	-0.409851	-1.08837	-0.573916	-0.886602	-0.594033	-1.2286	-0.809759	-0.943766	-0.86237	-1.15157	-0.436571	-0.72318	-0.617602	-0.657693	-0.670857	0.344694	-0.702686	-0.25493	-0.424869	0.0456433	
0.692472	4.70428	0	0	19.1656	-6.34508	-0.322845	-0.489652	0	0	-0.228086	-0.562703	0	0	-0.253758	-0.804562	-0.400492	-1.06826	-0.563844	-0.869913	-0.586003	-1.22038	-0.798056	-0.935995	-0.857253	-1.13373	-0.424706	-0.717867	-0.612101	-0.650287	-0.659353	0.337177	-0.694474	-0.249105	-0.428949	0.057174	
0.694393	4.69818	0	0	16.5524	-4.3182	-0.319902	-0.474334	0	0	-0.227832	-0.543044	0	0	-0.252478	-0.778089	-0.391126	-1.04805	-0.553758	-0.853154	-0.584184	-1.19455	-0.787752	-0.92418	-0.83967	-1.11864	-0.420363	-0.691217	-0.60998	-0.6333	-0.64474	0.329258	-0.691417	-0.228665	-0.415922	0.0708737	
0.69664	4.69818	0	0	13.9393	-2.29132	-0.316958	-0.459016	0	0	-0.227577	-0.523385	0	0	-0.251198	-0.751616	-0.38176	-1.02783	-0.543673	-0.836395	-0.582365	-1.16873	-0.777448	-0.912365	-0.822086	-1.10354	-0.416019	-0.664567	-0.607859	-0.616313	-0.630127	0.321338	-0.68836	-0.208226	-0.402895	0.0845735	
0.699335	4.69665	0	0	11.3261	-0.264441	-0.314014	-0.443697	0	0	-0.227322	-0.503727	0	0	-0.249919	-0.725143	-0.372394	-1.00762	-0.533587	-0.819635	-0.580546	-1.1429	-0.767145	-0.90055	-0.804503	-1.08845	-0.411676	-0.637917	-0.605738	-0.599327	-0.615514	0.313419	-0.685302	-0.187786	-0.389867	0.0982733	
0.702303	4.69513	0	0	8.713	1.76244	-0.311071	-0.428379	0	0	-0.227068	-0.484068	0	0	-0.248639	-0.69867	-0.363028	-0.987412	-0.523501	-0.802876	-0.578727	-1.11708	-0.756841	-0.888735	-0.786919	-1.07336	-0.407333	-0.611267	-0.603617	-0.58234	-0.600901	0.3055	-0.682245	-0.167347	-0.37684	0.111973	
0.705255	4.6936	0	0	11.1791	0.151009	-0.31017	-0.419096	0	0	-0.223499	-0.473754	0	0	-0.245143	-0.693488	-0.361385	-0.968671	-0.517424	-0.789816	-0.570686	-1.10879	-0.74509	-0.880918	-0.779335	-1.06232	-0.401385	-0.608583	-0.603204	-0.560498	-0.587011	0.299683	-0.684868	-0.145376	-0.376199	0.140538	
0.707902	4.69513	0	0	13.6453	-1.46042	-0.309269	-0.409813	0	0	-0.21993	-0.463441	0	0	-0.241646	-0.688306	-0.359742	-0.94993	-0.511346	-0.776756	-0.562646	-1.1005	-0.73334	-0.873101	-0.77175	-1.05128	-0.395437	-0.6059	-0.602791	-0.538655	-0.573121	0.293866	-0.687491	-0.123406	-0.375558	0.169103	
0.709954	4.69208	0	0	16.1114	-3.07185	-0.308368	-0.40053	0	0	-0.216361	-0.453127	0	0	-0.23815	-0.683123	-0.358099	-0.931189	-0.505269	-0.763695	-0.554605	-1.0922	-0.721589	-0.865285	-0.764165	-1.04024	-0.38949	-0.603216	-0.602379	-0.516813	-0.55923	0.288049	-0.690115	-0.101435	-0.374917	0.197668	
0.711123	4.69055	0	0	18.5776	-4.68328	-0.307467	-0.391247	0	0	-0.212792	-0.442813	0	0	-0.234654	-0.677941	-0.356456	-0.912448	-0.499191	-0.750635	-0.546564	-1.08391	-0.709838	-0.857468	-0.756581	-1.02919	-0.383542	-0.600532	-0.601966	-0.494971	-0.54534	0.282232	-0.692738	-0.079465	-0.374276	0.226233	
0.711301	4.69055	0	0	18.5776	-4.68328	-0.309986	-0.372291	0	0	-0.215593	-0.42469	0	0	-0.232303	-0.669508	-0.356353	-0.889326	-0.4881	-0.736533	-0.540597	-1.06971	-0.707529	-0.843447	-0.753917	-1.00419	-0.388083	-0.587698	-0.607067	-0.480555	-0.537634	0.277197	-0.694813	-0.0735992	-0.374276	0.226233	
0.710832	4.68597	0	0	18.5776	-4.68328	-0.312504	-0.353336	0	0	-0.218393	-0.406566	0	0	-0.229953	-0.661075	-0.356249	-0.866204	-0.477009	-0.722432	-0.53463	-1.0555	-0.705221	-0.829425	-0.751254	-0.979182	-0.392624	-0.574863	-0.612168	-0.466139	-0.529929	0.272162	-0.696889	-0.0677335	-0.374276	0.226233	
0.710124	4.68597	0	0	18.5776	-4.68328	-0.315023	-0.334381	0	0	-0.221193	-0.388443	0	0	-0.227603	-0.652643	-0.356146	-0.843081	-0.465917	-0.70833	-0.528662	-1.0413	-0.702912	-0.815404	-0.74859	-0.954176	-0.397166	-0.562029	-0.617269	-0.451723	-0.522223	0.267127	-0.698964	-0.0618677	-0.374276	0.226233	
0.709585	4.68597	0	0	18.5776	-4.68328	-0.317542	-0.315425	0	0	-0.223994	-0.37032	0	0	-0.225252	-0.64421	-0.356043	-0.819959	-0.454826	-0.694228	-0.522695	-1.02709	-0.700603	-0.801383	-0.745926	-0.92917	-0.401707	-0.549195	-0.62237	-0.437307	-0.514517	0.262092	-0.70104	-0.056002	-0.374276	0.226233	
0.709624	4.68597	0	0	18.5776	-4.68328	-0.310307	-0.300316	0	0	-0.218236	-0.355933	0	0	-0.225202	-0.629262	-0.345159	-0.803802	-0.448736	-0.68108	-0.516726	-1.01284	-0.6779	-0.803768	-0.728258	-0.913864	-0.400309	-0.533632	-0.615172	-0.434612	-0.502946	0.254531	-0.69178	-0.053025	-0.371668	0.228999	
0.710633	4.68597	0	0	18.5776	-4.68328	-0.303071	-0.285208	0	0	-0.212478	-0.341546	0	0	-0.225153	-0.614315	-0.334276	-0.787646	-0.442646	-0.667933	-0.510757	-0.99859	-0.655197	-0.806153	-0.71059	-0.898558	-0.398911	-0.518069	-0.607974	-0.431917	-0.491374	0.24697	-0.682519	-0.050048	-0.36906	0.231764	
0.712593	4.68292	0	0	18.5776	-4.68328	-0.295836	-0.2701	0	0	-0.20672	-0.32716	0	0	-0.225104	-0.599368	-0.323392	-0.77149	-0.436555	-0.654786	-0.504788	-0.984339	-0.632494	-0.808539	-0.692922	-0.883251	-0.397514	-0.502505	-0.600777	-0.429221	-0.479803	0.239409	-0.673259	-0.047071	-0.366452	0.23453	
0.71506	4.68292	0	0	18.5776	-4.68328	-0.288601	-0.254991	0	0	-0.200962	-0.312773	0	0	-0.225054	-0.58442	-0.312508	-0.755333	-0.430465	-0.641638	-0.498819	-0.970088	-0.609791	-0.810924	-0.675254	-0.867945	-0.396116	-0.486942	-0.593579	-0.426526	-0.468232	0.231848	-0.663999	-0.044094	-0.363844	0.237296	
0.717572	4.68445	0	0	18.5776	-4.68328	-0.283139	-0.25856	0	0	-0.201798	-0.310409	0	0	-0.228507	-0.574662	-0.306292	-0.749399	-0.421406	-0.636831	-0.497045	-0.94393	-0.608907	-0.792785	-0.672608	-0.842718	-0.38725	-0.472911	-0.591492	-0.409359	-0.455031	0.228114	-0.66561	-0.0249495	-0.354432	0.251297	
0.719667	4.67987	0	0	18.5776	-4.68328	-0.277677	-0.262129	0	0	-0.202635	-0.308045	0	0	-0.23196	-0.564903	-0.300075	-0.743464	-0.412347	-0.632025	-0.495271	-0.917771	-0.608022	-0.774647	-0.669962	-0.81749	-0.378383	-0.458881	-0.589404	-0.392192	-0.441829	0.22438	-0.667221	-0.005805	-0.34502	0.265297	
0.720881	4.67834	0	0	18.5776	-4.68328	-0.272215	-0.265698	0	0	-0.203471	-0.305681	0	0	-0.235413	-0.555145	-0.293859	-0.737529	-0.403288	-0.627219	-0.493496	-0.891613	-0.607138	-0.756509	-0.667316	-0.792262	-0.369517	-0.44485	-0.587317	-0.375024	-0.428627	0.220646	-0.668832	0.0133395	-0.335607	0.279298	
0.720793	4.67529	0	0	18.5776	-4.68328	-0.266753	-0.269267	0	0	-0.204308	-0.303317	0	0	-0.238866	-0.545386	-0.287643	-0.731595	-0.394229	-0.622412	-0.491722	-0.865455	-0.606254	-0.73837	-0.66467	-0.767035	-0.36065	-0.430819	-0.58523	-0.357857	-0.415426	0.216912	-0.670443	0.032484	-0.326195	0.293299	
0.719384	4.67224	0	0	18.5776	-4.68328	-0.26904	-0.262805	0	0	-0.201273	-0.301664	0	0	-0.24117	-0.538875	-0.29225	-0.718573	-0.391177	-0.615813	-0.483656	-0.857026	-0.599622	-0.736454	-0.657058	-0.755784	-0.36065	-0.430819	-0.58523	-0.357857	-0.415426	0.216912	-0.674033	0.02804	-0.325715	0.281783	
0.716855	4.67224	0	0	18.5776	-4.68328	-0.271327	-0.256342	0	0	-0.198238	-0.300011	0	0	-0.243474	-0.532363	-0.296858	-0.705552	-0.388126	-0.609214	-0.47559	-0.848597	-0.592989	-0.734538	-0.649447	-0.744533	-0.36065	-0.430819	-0.58523	-0.357857	-0.415426	0.216912	-0.677624	0.023596	-0.325234	0.270267	
0.713414	4.67224	0	0	18.5776	-4.68328	-0.273613	-0.24988	0	0	-0.195203	-0.298357	0	0	-0.245778	-0.525852	-0.301465	-0.692531	-0.385074	-0.602615	-0.467524	-0.840168	-0.586356	-0.732621	-0.641836	-0.733281	-0.36065	-0.430819	-0.58523	-0.357857	-0.415426	0.216912	-0.681215	0.019152	-0.324754	0.258751	
0.709265	4.67224	0	0	18.5776	-4.68328	-0.2759	-0.243418	0	0	-0.192168	-0.296704	0	0	-0.248082	-0.51934	-0.306073	-0.679509	-0.382022	-0.596016	-0.459458	-0.831739	-0.579724	-0.730705	-0.634224	-0.72203	-0.36065	-0.430819	-0.58523	-0.357857	-0.415426	0.216912	-0.684805	0.014708	-0.324274	0.247235	
0.704615	4.66766	0	0	18.5776	-4.68328	-0.266363	-0.234724	0	0	-0.183891	-0.289369	0	0	-0.243438	-0.517365	-0.301396	-0.669194	-0.377979	-0.592206	-0.45138	-0.82329	-0.573084	-0.728788	-0.624107	-0.717803	-0.354688	-0.428094	-0.586939	-0.353028	-0.410808	0.212263	-0.670327	0.0029865	-0.328947	0.250288	
0.699678	4.66614	0	0	18.5776	-4.68328	-0.256825	-0.22603	0	0	-0.175614	-0.282035	0	0	-0.238794	-0.515389	-0.29672	-0.65888	-0.373937	-0.588396	-0.443303	-0.814841	-0.566443	-0.726871	-0.613989	-0.713577	-0.348726	-0.425369	-0.588647	-0.348199	-0.406189	0.207614	-0.65585	-0.008735	-0.33362	0.253341	
0.694704	4.66614	0	0	18.5776	-4.68328	-0.247288	-0.217337	0	0	-0.167336	-0.2747	0	0	-0.23415	-0.513414	-0.292043	-0.648565	-0.369894	-0.584585	-0.435226	-0.806392	-0.559802	-0.724954	-0.603872	-0.70935	-0.342764	-0.422644	-0.590356	-0.343371	-0.401571	0.202966	-0.641373	-0.0204565	-0.338293	0.256395	
0.689944	4.66766	0	0	18.5776	-4.68328	-0.237751	-0.208643	0	0	-0.159059	-0.267365	0	0	-0.229506	-0.511439	-0.287366	-0.63825	-0.365851	-0.580775	-0.427148	-0.797943	-0.553162	-0.723037	-0.593754	-0.705123	-0.336802	-0.419919	-0.592065	-0.338542	-0.396953	0.198317	-0.626895	-0.032178	-0.342966	0.259448	
0.685652	4.66308	0	0	16.1114	-3.07185	-0.245516	-0.198586	0	0	-0.170167	-0.256461	0	0	-0.234122	-0.498392	-0.288906	-0.633897	-0.359823	-0.582562	-0.419059	-0.789474	-0.547956	-0.717045	-0.601251	-0.683935	-0.333886	-0.408563	-0.589992	-0.321305	-0.383718	0.194563	-0.632103	-0.0174582	-0.330447	0.264713	
0.682082	4.66461	0	0	13.6453	-1.46042	-0.253282	-0.18853	0	0	-0.181276	-0.245558	0	0	-0.238739	-0.485345	-0.290446	-0.629544	-0.353796	-0.584348	-0.41097	-0.781005	-0.542749	-0.711052	-0.608748	-0.662748	-0.330971	-0.397207	-0.58792	-0.304068	-0.370483	0.190809	-0.637312	-0.0027385	-0.317928	0.269977	
0.679471	4.66308	0	0	11.1791	0.151009	-0.261047	-0.178473	0	0	-0.192385	-0.234654	0	0	-0.243356	-0.472299	-0.291987	-0.625191	-0.347769	-0.586135	-0.402881	-0.772536	-0.537543	-0.705059	-0.616245	-0.64156	-0.328055	-0.385852	-0.585848	-0.286831	-0.357248	0.187055	-0.642521	0.0119812	-0.305409	0.275242	
0.677859	4.65851	0	0	8.713	1.76244	-0.268813	-0.168416	0	0	-0.203493	-0.22375	0	0	-0.247972	-0.459252	-0.293527	-0.620838	-0.341741	-0.587921	-0.394792	-0.764067	-0.532336	-0.699067	-0.623742	-0.620372	-0.325139	-0.374496	-0.583775	-0.269594	-0.344013	0.183301	-0.647729	0.026701	-0.29289	0.280507	
0.677142	4.65698	0	0	8.713	1.76244	-0.264488	-0.16875	0	0	-0.201297	-0.219713	0	0	-0.246817	-0.462515	-0.290447	-0.629542	-0.347769	-0.586135	-0.39268	-0.770035	-0.532336	-0.699067	-0.60861	-0.63026	-0.331105	-0.377231	-0.587204	-0.259902	-0.345515	0.187548	-0.650858	0.0355447	-0.308449	0.304144	
0.677215	4.65546	0	0	8.713	1.76244	-0.260163	-0.169083	0	0	-0.199101	-0.215676	0	0	-0.245663	-0.465779	-0.287367	-0.638246	-0.353796	-0.584348	-0.390568	-0.776003	-0.532336	-0.699067	-0.593477	-0.640148	-0.33707	-0.379967	-0.590633	-0.250211	-0.347018	0.191794	-0.653987	0.0443885	-0.324007	0.327782	
0.677972	4.65393	0	0	8.713	1.76244	-0.255838	-0.169417	0	0	-0.196906	-0.21164	0	0	-0.244508	-0.469043	-0.284287	-0.646951	-0.359823	-0.582562	-0.388457	-0.78197	-0.532336	-0.699067	-0.578345	-0.650035	-0.343036	-0.382703	-0.594062	-0.240519	-0.348521	0.196041	-0.657117	0.0532323	-0.339565	0.351419	
0.679308	4.65393	0	0	8.713	1.76244	-0.251513	-0.169751	0	0	-0.19471	-0.207603	0	0	-0.243353	-0.472306	-0.281207	-0.655655	-0.365851	-0.580775	-0.386345	-0.787938	-0.532336	-0.699067	-0.563213	-0.659923	-0.349002	-0.385438	-0.597491	-0.230828	-0.350023	0.200288	-0.660246	0.062076	-0.355124	0.375056	
0.681109	4.65546	0	0	11.1791	0.151009	-0.24745	-0.157432	0	0	-0.190316	-0.199518	0	0	-0.244508	-0.469043	-0.290499	-0.652927	-0.357843	-0.588159	-0.386345	-0.787938	-0.532336	-0.699067	-0.565716	-0.65285	-0.338458	-0.395642	-0.597491	-0.230828	-0.348521	0.196041	-0.665924	0.0635187	-0.347345	0.363234	
0.683242	4.65546	0	0	13.6453	-1.46042	-0.243387	-0.145112	0	0	-0.185923	-0.191433	0	0	-0.245663	-0.465779	-0.299791	-0.650199	-0.349835	-0.595543	-0.386345	-0.787938	-0.532336	-0.699067	-0.568219	-0.645776	-0.327913	-0.405846	-0.597491	-0.230828	-0.347018	0.191794	-0.671601	0.0649615	-0.339565	0.351412	
0.685571	4.64783	0	0	16.1114	-3.07185	-0.239323	-0.132793	0	0	-0.181529	-0.183347	0	0	-0.246817	-0.462515	-0.309083	-0.647471	-0.341827	-0.602927	-0.386345	-0.787938	-0.532336	-0.699067	-0.570722	-0.638702	-0.317369	-0.416051	-0.597491	-0.230828	-0.345515	0.187548	-0.677279	0.0664042	-0.331786	0.33959	
0.687962	4.6463	0	0	18.5776	-4.68328	-0.23526	-0.120473	0	0	-0.177136	-0.175262	0	0	-0.247972	-0.459252	-0.318375	-0.644743	-0.333819	-0.610311	-0.386345	-0.787938	-0.532336	-0.699067	-0.573225	-0.631629	-0.306825	-0.426255	-0.597491	-0.230828	-0.344013	0.183301	-0.682956	0.067847	-0.324006	0.327768	
0.690279	4.64783	0	0	16.1114	-3.07185	-0.230046	-0.111376	0	0	-0.174426	-0.162398	0	0	-0.244483	-0.453999	-0.309083	-0.647471	-0.335799	-0.604714	-0.39057	-0.775999	-0.527125	-0.693065	-0.57573	-0.624549	-0.311403	-0.413315	-0.590282	-0.22808	-0.33313	0.177822	-0.671596	0.064959	-0.321393	0.330552	
0.692395	4.64325	0	0	13.6453	-1.46042	-0.224831	-0.10228	0	0	-0.171715	-0.149533	0	0	-0.240995	-0.448746	-0.299791	-0.650199	-0.33778	-0.599116	-0.394794	-0.76406	-0.521914	-0.687063	-0.578234	-0.61747	-0.315982	-0.400375	-0.583072	-0.225332	-0.322247	0.172343	-0.660237	0.062071	-0.318779	0.333337	
0.694279	4.64172	0	0	11.1791	0.151009	-0.219616	-0.0931835	0	0	-0.169005	-0.136669	0	0	-0.237507	-0.443493	-0.290499	-0.652927	-0.339761	-0.593519	-0.399018	-0.75212	-0.516703	-0.68106	-0.580739	-0.610391	-0.320561	-0.387436	-0.575862	-0.222584	-0.311364	0.166865	-0.648877	0.059183	-0.316166	0.336121	
0.69596	4.64325	0	0	8.713	1.76244	-0.214402	-0.084087	0	0	-0.166295	-0.123805	0	0	-0.234018	-0.43824	-0.281207	-0.655655	-0.341741	-0.587921	-0.403243	-0.740181	-0.511492	-0.675058	-0.583244	-0.603311	-0.325139	-0.374496	-0.568653	-0.219836	-0.300481	0.161386	-0.637517	0.056295	-0.313553	0.338905	
0.697468	4.64477	0	0	11.1791	0.151009	-0.219889	-0.080502	0	0	-0.165452	-0.126187	0	0	-0.236331	-0.431702	-0.292038	-0.648578	-0.344714	-0.579519	-0.39303	-0.737664	-0.507723	-0.664958	-0.585751	-0.596226	-0.323757	-0.358787	-0.564874	-0.207363	-0.290334	0.158021	-0.637055	0.069616	-0.301015	0.344206	
0.698834	4.64172	0	0	13.6453	-1.46042	-0.225375	-0.076917	0	0	-0.16461	-0.128569	0	0	-0.238644	-0.425165	-0.302868	-0.641501	-0.347688	-0.571116	-0.382816	-0.735146	-0.503953	-0.654858	-0.588258	-0.589141	-0.322374	-0.343079	-0.561096	-0.194891	-0.280187	0.154657	-0.636594	0.082937	-0.288478	0.349506	
0.700087	4.6402	0	0	16.1114	-3.07185	-0.230861	-0.073332	0	0	-0.163767	-0.13095	0	0	-0.240958	-0.418627	-0.313699	-0.634424	-0.350661	-0.562713	-0.372603	-0.732628	-0.500184	-0.644757	-0.590765	-0.582056	-0.320991	-0.32737	-0.557318	-0.182418	-0.27004	0.151292	-0.636132	0.096258	-0.275941	0.354807	
0.701262	4.63714	0	0	18.5776	-4.68328	-0.236348	-0.069747	0	0	-0.162924	-0.133332	0	0	-0.243271	-0.412089	-0.32453	-0.627347	-0.353634	-0.554311	-0.362389	-0.730111	-0.496415	-0.634657	-0.593272	-0.574971	-0.319609	-0.311661	-0.553539	-0.169945	-0.259893	0.147927	-0.63567	0.109579	-0.263403	0.360108	
0.702405	4.63714	0	0	16.1114	-3.07185	-0.226524	-0.0736627	0	0	-0.159883	-0.131657	0	0	-0.243271	-0.412089	-0.313699	-0.634424	-0.344542	-0.549472	-0.362389	-0.730111	-0.489748	-0.632723	-0.608404	-0.565083	-0.318078	-0.315987	-0.553539	-0.169945	-0.263026	0.148342	-0.645991	0.109508	-0.27071	0.360382	
0.703566	4.63257	0	0	13.6453	-1.46042	-0.2167	-0.0775785	0	0	-0.156842	-0.129981	0	0	-0.243271	-0.412089	-0.302868	-0.641501	-0.33545	-0.544633	-0.362389	-0.730111	-0.483081	-0.63079	-0.623536	-0.555195	-0.316547	-0.320312	-0.553539	-0.169945	-0.26616	0.148756	-0.656312	0.109437	-0.278018	0.360656	
0.704795	4.63562	0	0	11.1791	0.151009	-0.206876	-0.0814943	0	0	-0.1538	-0.128305	0	0	-0.243271	-0.412089	-0.292038	-0.648578	-0.326359	-0.539793	-0.362389	-0.730111	-0.476414	-0.628856	-0.638669	-0.545308	-0.315017	-0.324638	-0.553539	-0.169945	-0.269293	0.14917	-0.666633	0.109367	-0.285326	0.360931	
0.70614	4.63562	0	0	8.713	1.76244	-0.197052	-0.08541	0	0	-0.150759	-0.12663	0	0	-0.243271	-0.412089	-0.281207	-0.655655	-0.317267	-0.534954	-0.362389	-0.730111	-0.469747	-0.626922	-0.653801	-0.53542	-0.313486	-0.328964	-0.553539	-0.169945	-0.272427	0.149585	-0.676954	0.109296	-0.292633	0.361205	
0.707651	4.62646	0	0	8.713	1.76244	-0.192984	-0.0730283	0	0	-0.147205	-0.116118	0	0	-0.240942	-0.403548	-0.278068	-0.640964	-0.31015	-0.524484	-0.366625	-0.71814	-0.476996	-0.606434	-0.626019	-0.548123	-0.305979	-0.330544	-0.55526	-0.16508	-0.268542	0.147046	-0.663496	0.100503	-0.291598	0.358279	
0.709327	4.62952	0	0	8.713	1.76244	-0.188916	-0.0606465	0	0	-0.14365	-0.105605	0	0	-0.238613	-0.395006	-0.274929	-0.626273	-0.303033	-0.514014	-0.370861	-0.706168	-0.484245	-0.585946	-0.598236	-0.560825	-0.298472	-0.332124	-0.556982	-0.160214	-0.264657	0.144508	-0.650039	0.0917095	-0.290563	0.355354	
0.71111	4.62799	0	0	8.713	1.76244	-0.184847	-0.0482647	0	0	-0.140095	-0.0950933	0	0	-0.236283	-0.386464	-0.271791	-0.611583	-0.295916	-0.503543	-0.375096	-0.694197	-0.491495	-0.565459	-0.570453	-0.573527	-0.290964	-0.333704	-0.558704	-0.155349	-0.260772	0.141969	-0.636582	0.0829162	-0.289528	0.352429	
0.712938	4.62646	0	0	8.713	1.76244	-0.180779	-0.035883	0	0	-0.136541	-0.084581	0	0	-0.233954	-0.377923	-0.268652	-0.596892	-0.288799	-0.493073	-0.379332	-0.682226	-0.498744	-0.544971	-0.542671	-0.58623	-0.283457	-0.335284	-0.560425	-0.150483	-0.256887	0.13943	-0.623124	0.074123	-0.288493	0.349503	
0.714746	4.62494	0	0	11.1791	0.151009	-0.187717	-0.0162767	0	0	-0.137724	-0.0709485	0	0	-0.228137	-0.364077	-0.268613	-0.57341	-0.278608	-0.475904	-0.373353	-0.667689	-0.480171	-0.534995	-0.552727	-0.557811	-0.285145	-0.310856	-0.554926	-0.142842	-0.242832	0.133513	-0.618016	0.0889727	-0.280637	0.357876	
0.716474	4.62494	0	0	13.6453	-1.46042	-0.194654	0.0033295	0	0	-0.138908	-0.057316	0	0	-0.22232	-0.350232	-0.268574	-0.549929	-0.268417	-0.458734	-0.367374	-0.653153	-0.461597	-0.525019	-0.562782	-0.529393	-0.286833	-0.286429	-0.549428	-0.135201	-0.228777	0.127596	-0.612909	0.103822	-0.27278	0.366249	
0.718058	4.62341	0	0	16.1114	-3.07185	-0.201591	0.0229357	0	0	-0.140092	-0.0436835	0	0	-0.216502	-0.336387	-0.268535	-0.526447	-0.258226	-0.441565	-0.361394	-0.638616	-0.443024	-0.515044	-0.572838	-0.500974	-0.28852	-0.262001	-0.543929	-0.12756	-0.214723	0.121678	-0.607801	0.118672	-0.264924	0.374622	
0.719422	4.62189	0	0	18.5776	-4.68328	-0.208529	0.042542	0	0	-0.141275	-0.030051	0	0	-0.210685	-0.322541	-0.268496	-0.502965	-0.248035	-0.424396	-0.355415	-0.624079	-0.42445	-0.505068	-0.582894	-0.472555	-0.290208	-0.237573	-0.538431	-0.119919	-0.200668	0.115761	-0.602693	0.133522	-0.257068	0.382995	
0.720486	4.62036	0	0	18.5776	-4.68328	-0.209687	0.0458138	0	0	-0.137384	-0.0307548	0	0	-0.211847	-0.319257	-0.262272	-0.496932	-0.233824	-0.418476	-0.361796	-0.606043	-0.423594	-0.486617	-0.575271	-0.461104	-0.29482	-0.224539	-0.545338	-0.100399	-0.195887	0.119175	-0.610036	0.154274	-0.246577	0.39419	
0.721167	4.61883	0	0	18.5776	-4.68328	-0.210844	0.0490855	0	0	-0.133493	-0.0314585	0	0	-0.213009	-0.315973	-0.256049	-0.490899	-0.219612	-0.412555	-0.368178	-0.588008	-0.422739	-0.468166	-0.567648	-0.449654	-0.299432	-0.211505	-0.552245	-0.080878	-0.191107	0.122588	-0.617379	0.175025	-0.236085	0.405384	
0.721385	4.61883	0	0	18.5776	-4.68328	-0.212002	0.0523573	0	0	-0.129601	-0.0321623	0	0	-0.214171	-0.312689	-0.249825	-0.484867	-0.205401	-0.406635	-0.374559	-0.569972	-0.421884	-0.449715	-0.560024	-0.438203	-0.304044	-0.198471	-0.559152	-0.0613575	-0.186326	0.126001	-0.624721	0.195776	-0.225594	0.416579	
0.721058	4.61731	0	0	18.5776	-4.68328	-0.21316	0.055629	0	0	-0.12571	-0.032866	0	0	-0.215333	-0.309405	-0.243601	-0.478834	-0.19119	-0.400714	-0.380941	-0.551936	-0.421028	-0.431264	-0.552401	-0.426752	-0.308656	-0.185437	-0.566059	-0.041837	-0.181545	0.129415	-0.632064	0.216528	-0.215102	0.427774	
0.720135	4.61426	0	0	16.1114	-3.07185	-0.20679	0.061538	0	0	-0.119615	-0.0294878	0	0	-0.209517	-0.310679	-0.242032	-0.459616	-0.178949	-0.389112	-0.372843	-0.543334	-0.420186	-0.412751	-0.559982	-0.405327	-0.302677	-0.182655	-0.566059	-0.041837	-0.176895	0.124742	-0.624266	0.209152	-0.208317	0.418823	
0.718732	4.61426	0	0	13.6453	-1.46042	-0.200421	0.067447	0	0	-0.11352	-0.0261095	0	0	-0.203702	-0.311954	-0.240463	-0.440398	-0.166707	-0.377509	-0.364745	-0.534732	-0.419343	-0.394239	-0.567563	-0.383903	-0.296699	-0.179873	-0.566059	-0.041837	-0.172245	0.120068	-0.616469	0.201775	-0.201531	0.409872	
0.717015	4.6112	0	0	11.1791	0.151009	-0.194051	0.073356	0	0	-0.107425	-0.0227312	0	0	-0.197886	-0.313228	-0.238895	-0.42118	-0.154465	-0.365907	-0.356647	-0.52613	-0.418501	-0.375726	-0.575144	-0.362478	-0.29072	-0.177091	-0.566059	-0.041837	-0.167595	0.115395	-0.608672	0.194399	-0.194746	0.400922	
0.715154	4.61426	0	0	8.713	1.76244	-0.187682	0.079265	0	0	-0.10133	-0.019353	0	0	-0.192071	-0.314503	-0.237326	-0.401962	-0.142224	-0.354305	-0.348549	-0.517528	-0.417659	-0.357214	-0.582725	-0.341053	-0.284742	-0.174309	-0.566059	-0.041837	-0.162945	0.110722	-0.600874	0.187023	-0.187961	0.391971	
0.713316	4.6112	0	0	8.713	1.76244	-0.186816	0.088785	0	0	-0.100825	-0.010471	0	0	-0.190906	-0.302623	-0.224858	-0.389806	-0.138073	-0.335172	-0.342578	-0.502861	-0.408662	-0.340786	-0.580188	-0.315171	-0.281841	-0.162808	-0.557106	-0.0439302	-0.15665	0.109879	-0.597272	0.191516	-0.178541	0.385816	
0.711668	4.60663	0	0	8.713	1.76244	-0.185951	0.098305	0	0	-0.10032	-0.001589	0	0	-0.18974	-0.290742	-0.21239	-0.377651	-0.133923	-0.31604	-0.336607	-0.488194	-0.399665	-0.324357	-0.57765	-0.289289	-0.278941	-0.151307	-0.548153	-0.0460235	-0.150355	0.109036	-0.593671	0.196009	-0.169121	0.379661	
0.710297	4.60968	0	0	8.713	1.76244	-0.185085	0.107825	0	0	-0.0998142	0.007293	0	0	-0.188575	-0.278861	-0.199921	-0.365495	-0.129773	-0.296907	-0.330636	-0.473526	-0.390668	-0.307929	-0.575112	-0.263406	-0.27604	-0.139805	-0.5392	-0.0481167	-0.14406	0.108192	-0.59007	0.200502	-0.1597	0.373505	
0.709116	4.60358	0	0	8.713	1.76244	-0.18422	0.117345	0	0	-0.099309	0.016175	0	0	-0.18741	-0.266981	-0.187453	-0.353339	-0.125622	-0.277774	-0.324665	-0.458859	-0.381671	-0.291501	-0.572575	-0.237524	-0.273139	-0.128304	-0.530247	-0.05021	-0.137765	0.107349	-0.586468	0.204995	-0.15028	0.36735	
0.708013	4.60052	0	0	8.713	1.76244	-0.174067	0.100625	0	0	-0.0933747	-0.00059625	0	0	-0.186246	-0.270272	-0.190574	-0.344519	-0.116433	-0.27283	-0.316548	-0.450203	-0.372664	-0.275007	-0.564965	-0.225919	-0.271787	-0.112405	-0.533708	-0.0404285	-0.126804	0.101823	-0.586021	0.218417	-0.142371	0.375742	
0.706881	4.599	0	0	8.713	1.76244	-0.163914	0.0839055	0	0	-0.0874405	-0.0173675	0	0	-0.185081	-0.273564	-0.193695	-0.335698	-0.107244	-0.267886	-0.308431	-0.441547	-0.363657	-0.258513	-0.557355	-0.214315	-0.270435	-0.0965055	-0.53717	-0.030647	-0.115843	0.0962965	-0.585575	0.231839	-0.134462	0.384134	
0.705609	4.59747	0	0	8.713	1.76244	-0.153761	0.0671858	0	0	-0.0815063	-0.0341387	0	0	-0.183916	-0.276855	-0.196816	-0.326877	-0.0980543	-0.262942	-0.300314	-0.432892	-0.35465	-0.242018	-0.549745	-0.20271	-0.269083	-0.0806063	-0.540631	-0.0208655	-0.104882	0.0907702	-0.585129	0.24526	-0.126553	0.392526	
0.704094	4.599	0	0	8.713	1.76244	-0.143608	0.050466	0	0	-0.075572	-0.05091	0	0	-0.182752	-0.280146	-0.199937	-0.318057	-0.088865	-0.257998	-0.292197	-0.424236	-0.345643	-0.225524	-0.542135	-0.191105	-0.267731	-0.064707	-0.544092	-0.011084	-0.093921	0.085244	-0.584682	0.258682	-0.118644	0.400918	
0.702366	4.59747	0	0	8.713	1.76244	-0.14796	0.0507902	0	0	-0.072186	-0.0604792	0	0	-0.180424	-0.286725	-0.192134	-0.316368	-0.0867892	-0.248389	-0.296488	-0.41211	-0.33367	-0.217317	-0.547232	-0.176701	-0.266185	-0.0690773	-0.538902	-0.0257523	-0.100226	0.086093	-0.584078	0.242291	-0.118723	0.38064	
0.700555	4.59595	0	0	8.713	1.76244	-0.152311	0.0511145	0	0	-0.0688	-0.0700485	0	0	-0.178096	-0.293303	-0.184331	-0.31468	-0.0847135	-0.238779	-0.300778	-0.399984	-0.321697	-0.20911	-0.552329	-0.162297	-0.264638	-0.0734475	-0.533712	-0.0404205	-0.106532	0.086942	-0.583473	0.2259	-0.118802	0.360362	
0.698798	4.59595	0	0	8.713	1.76244	-0.156663	0.0514388	0	0	-0.065414	-0.0796178	0	0	-0.175768	-0.299882	-0.176527	-0.312991	-0.0826377	-0.229169	-0.305068	-0.387859	-0.309724	-0.200903	-0.557425	-0.147892	-0.263092	-0.0778177	-0.528521	-0.0550888	-0.112838	0.087791	-0.582869	0.209509	-0.118881	0.340083	
0.697232	4.59289	0	0	8.713	1.76244	-0.161015	0.051763	0	0	-0.062028	-0.089187	0	0	-0.17344	-0.306461	-0.168724	-0.311302	-0.080562	-0.21956	-0.309359	-0.375733	-0.297751	-0.192696	-0.562522	-0.133488	-0.261546	-0.082188	-0.523331	-0.069757	-0.119143	0.08864	-0.582265	0.193118	-0.11896	0.319805	
0.695992	4.58984	0	0	11.1791	0.151009	-0.161015	0.051763	0	0	-0.062028	-0.089187	0	0	-0.174604	-0.303172	-0.162475	-0.305191	-0.0713535	-0.214593	-0.290953	-0.364399	-0.290197	-0.171905	-0.542179	-0.124579	-0.25246	-0.0881248	-0.519875	-0.0795225	-0.125442	0.0894865	-0.570259	0.17387	-0.120091	0.302524	
0.6952	4.59137	0	0	13.6453	-1.46042	-0.161015	0.051763	0	0	-0.062028	-0.089187	0	0	-0.175768	-0.299883	-0.156225	-0.29908	-0.062145	-0.209627	-0.272547	-0.353065	-0.282643	-0.151115	-0.521836	-0.11567	-0.243374	-0.0940615	-0.51642	-0.089288	-0.131741	0.090333	-0.558253	0.154622	-0.121223	0.285243	
0.694923	4.58832	0	0	16.1114	-3.07185	-0.161015	0.051763	0	0	-0.062028	-0.089187	0	0	-0.176931	-0.296595	-0.149975	-0.29297	-0.0529365	-0.204661	-0.25414	-0.341731	-0.275089	-0.130324	-0.501492	-0.106762	-0.234288	-0.0999982	-0.512965	-0.0990535	-0.13804	0.0911795	-0.546246	0.135373	-0.122355	0.267962	
0.695217	4.58679	0	0	18.5776	-4.68328	-0.161015	0.051763	0	0	-0.062028	-0.089187	0	0	-0.178095	-0.293306	-0.143726	-0.286859	-0.043728	-0.199694	-0.235734	-0.330397	-0.267535	-0.109533	-0.481149	-0.097853	-0.225202	-0.105935	-0.509509	-0.108819	-0.144339	0.092026	-0.53424	0.116125	-0.123486	0.250681	
0.696135	4.58526	0	0	16.2584	-3.4873	-0.167393	0.0458635	0	0	-0.0639108	-0.104481	0	0	-0.180424	-0.286725	-0.145291	-0.282434	-0.0416505	-0.19005	-0.229746	-0.315564	-0.251735	-0.0907992	-0.478647	-0.071635	-0.222297	-0.0943845	-0.521918	-0.0969577	-0.136535	0.0869267	-0.529575	0.117636	-0.124522	0.253608	
0.697732	4.58679	0	0	13.9393	-2.29132	-0.173771	0.039964	0	0	-0.0657935	-0.119775	0	0	-0.182752	-0.280143	-0.146857	-0.27801	-0.039573	-0.180407	-0.223757	-0.300731	-0.235934	-0.0720655	-0.476144	-0.045417	-0.219391	-0.082834	-0.534328	-0.0850965	-0.128731	0.0818275	-0.52491	0.119147	-0.125557	0.256534	
0.700057	4.58374	0	0	11.6201	-1.09534	-0.180149	0.0340645	0	0	-0.0676762	-0.135069	0	0	-0.185081	-0.273562	-0.148423	-0.273585	-0.0374955	-0.170763	-0.217769	-0.285897	-0.220133	-0.0533318	-0.473642	-0.019199	-0.216485	-0.0712835	-0.546737	-0.0732353	-0.120928	0.0767282	-0.520245	0.120657	-0.126593	0.259461	
0.702983	4.58679	0	0	9.301	0.100635	-0.186527	0.028165	0	0	-0.069559	-0.150363	0	0	-0.18741	-0.266981	-0.149988	-0.269161	-0.035418	-0.161119	-0.211781	-0.271064	-0.204333	-0.034598	-0.47114	0.007019	-0.21358	-0.059733	-0.559147	-0.061374	-0.113124	0.071629	-0.51558	0.122168	-0.127629	0.262388	
0.706167	4.58069	0	0	11.7671	-1.51079	-0.184213	0.021625	0	0	-0.0709247	-0.156802	0	0	-0.176928	-0.281418	-0.148423	-0.273585	-0.029285	-0.162924	-0.1993	-0.274525	-0.19079	-0.030493	-0.458361	0.00425325	-0.210483	-0.068484	-0.550193	-0.0634697	-0.120928	0.0767282	-0.530151	0.133969	-0.140153	0.277326	
0.70925	4.57916	0	0	14.2333	-3.12222	-0.181899	0.015085	0	0	-0.0722905	-0.163241	0	0	-0.166446	-0.295855	-0.146857	-0.27801	-0.023152	-0.16473	-0.18682	-0.277985	-0.177247	-0.026388	-0.445582	0.0014875	-0.207387	-0.077235	-0.541239	-0.0655655	-0.128731	0.0818275	-0.544722	0.145771	-0.152676	0.292263	
0.711872	4.57916	0	0	16.6994	-4.73365	-0.179584	0.008545	0	0	-0.0736563	-0.169679	0	0	-0.155965	-0.310292	-0.145291	-0.282434	-0.017019	-0.166535	-0.17434	-0.281446	-0.163704	-0.022283	-0.432803	-0.00127825	-0.204291	-0.085986	-0.532285	-0.0676613	-0.136535	0.0869267	-0.559293	0.157573	-0.1652	0.3072	
0.713676	4.57764	5	0	19.1656	-6.34508	-0.17727	0.002005	0	0	-0.075022	-0.176118	0	0	-0.145483	-0.324729	-0.143726	-0.286859	-0.010886	-0.16834	-0.161859	-0.284906	-0.150161	-0.018178	-0.420024	-0.004044	-0.201194	-0.094737	-0.523331	-0.069757	-0.144339	0.092026	-0.573864	0.169374	-0.177724	0.322138	
0.714339	4.57764	5	0	16.5524	-4.3182	-0.178427	0.0052745	0	0	-0.0719687	-0.174449	0	0	-0.145483	-0.324729	-0.134336	-0.289593	-0.00677625	-0.164414	-0.153684	-0.276145	-0.147861	-0.00345375	-0.409794	0.0004535	-0.199647	-0.0991095	-0.523331	-0.069757	-0.150632	0.09287	-0.571765	0.163442	-0.178283	0.313499	
0.713918	4.57916	5	0	13.9393	-2.29132	-0.179584	0.008544	0	0	-0.0689155	-0.172779	0	0	-0.145483	-0.324729	-0.124947	-0.292327	-0.0026665	-0.160488	-0.145508	-0.267385	-0.14556	0.0112705	-0.399564	0.004951	-0.1981	-0.103482	-0.523331	-0.069757	-0.156924	0.093714	-0.569666	0.15751	-0.178843	0.30486	
0.712687	4.57458	5	0	11.3261	-0.264441	-0.180741	0.0118135	0	0	-0.0658623	-0.171109	0	0	-0.145483	-0.324729	-0.115557	-0.295061	0.00144325	-0.156563	-0.137332	-0.258624	-0.143259	0.0259947	-0.389334	0.0094485	-0.196553	-0.107854	-0.523331	-0.069757	-0.163217	0.094558	-0.567567	0.151578	-0.179402	0.296222	
0.710923	4.57306	5	0	8.713	1.76244	-0.181898	0.015083	0	0	-0.062809	-0.16944	0	0	-0.145483	-0.324729	-0.106168	-0.297795	0.005553	-0.152637	-0.129157	-0.249863	-0.140959	0.040719	-0.379104	0.013946	-0.195006	-0.112227	-0.523331	-0.069757	-0.16951	0.095402	-0.565468	0.145646	-0.179961	0.287583	
0.708905	4.57153	5	0	11.1791	0.151009	-0.182185	0.0278517	0	0	-0.0631315	-0.158223	0	0	-0.136145	-0.320712	-0.107734	-0.293368	0.00763375	-0.142963	-0.12097	-0.241081	-0.131873	0.0575647	-0.371436	0.0257425	-0.192094	-0.100674	-0.514365	-0.071859	-0.166364	0.0949803	-0.562909	0.153098	-0.170551	0.281434	
0.706909	4.56848	5	0	13.6453	-1.46042	-0.182472	0.0406205	0	0	-0.063454	-0.147007	0	0	-0.126806	-0.316694	-0.1093	-0.288942	0.0097145	-0.13329	-0.112782	-0.232298	-0.122787	0.0744105	-0.363767	0.037539	-0.189182	-0.089121	-0.505398	-0.073961	-0.163218	0.0945585	-0.56035	0.16055	-0.161141	0.275286	
0.705168	4.56695	5	0	16.1114	-3.07185	-0.182758	0.0533892	0	0	-0.0637765	-0.13579	0	0	-0.117468	-0.312677	-0.110867	-0.284515	0.0117953	-0.123617	-0.104595	-0.223516	-0.113701	0.0912562	-0.356098	0.0493355	-0.18627	-0.077568	-0.496431	-0.076063	-0.160073	0.0941368	-0.557792	0.168003	-0.151732	0.269137	
0.703757	4.56695	5	0	18.5776	-4.68328	-0.183045	0.066158	0	0	-0.064099	-0.124573	0	0	-0.108129	-0.30866	-0.112433	-0.280089	0.013876	-0.113943	-0.096408	-0.214733	-0.104615	0.108102	-0.34843	0.061132	-0.183358	-0.066015	-0.487465	-0.078165	-0.156927	0.093715	-0.555233	0.175455	-0.142322	0.262989	
0.702714	4.56543	5	0	18.5776	-4.68328	-0.176378	0.059284	0	0	-0.058509	-0.130061	0	0	-0.1058	-0.315244	-0.109301	-0.28894	0.01799	-0.110003	-0.088209	-0.205929	-0.0940142	0.120764	-0.356185	0.0830475	-0.180448	-0.054434	-0.492658	-0.0634885	-0.149879	0.0907438	-0.552675	0.182919	-0.140158	0.27734	
0.702079	4.56085	5	0	18.5776	-4.68328	-0.169712	0.05241	0	0	-0.052919	-0.135549	0	0	-0.10347	-0.321827	-0.106169	-0.29779	0.022104	-0.106063	-0.08001	-0.197126	-0.0834135	0.133426	-0.363939	0.104963	-0.177538	-0.042853	-0.497851	-0.048812	-0.142831	0.0877725	-0.550117	0.190383	-0.137993	0.291691	
0.701892	4.56085	5	0	18.5776	-4.68328	-0.163046	0.045536	0	0	-0.047329	-0.141038	0	0	-0.10114	-0.328411	-0.103038	-0.306641	0.026218	-0.102123	-0.071811	-0.188322	-0.0728128	0.146087	-0.371694	0.126879	-0.174629	-0.031272	-0.503044	-0.0341355	-0.135783	0.0848012	-0.547558	0.197848	-0.135829	0.306042	
0.702189	4.55932	5	0	18.5776	-4.68328	-0.156379	0.038662	0	0	-0.041739	-0.146526	0	0	-0.098811	-0.334995	-0.099906	-0.315492	0.030332	-0.098183	-0.063612	-0.179518	-0.062212	0.158749	-0.379448	0.148794	-0.171719	-0.019691	-0.508237	-0.019459	-0.128735	0.08183	-0.545	0.205312	-0.133665	0.320393	
0.702918	4.56085	5	0	18.5776	-4.68328	-0.154346	0.0448908	0	0	-0.0386807	-0.144853	0	0	-0.0964832	-0.341573	-0.0983412	-0.319914	0.0282965	-0.0924305	-0.0657875	-0.17337	-0.0569043	0.165096	-0.353737	0.143249	-0.170166	-0.0240785	-0.494065	-0.0362435	-0.135783	0.0848012	-0.547558	0.197848	-0.135829	0.306042	
0.703918	4.55932	5	0	18.5776	-4.68328	-0.152313	0.0511195	0	0	-0.0356225	-0.14318	0	0	-0.0941555	-0.348152	-0.0967765	-0.324337	0.026261	-0.086678	-0.067963	-0.167222	-0.0515965	0.171443	-0.328025	0.137704	-0.168614	-0.028466	-0.479894	-0.053028	-0.142831	0.0877725	-0.550117	0.190383	-0.137993	0.291691	
0.705021	4.55932	5	0	18.5776	-4.68328	-0.15028	0.0573482	0	0	-0.0325643	-0.141506	0	0	-0.0918277	-0.354731	-0.0952117	-0.328759	0.0242255	-0.0809255	-0.0701385	-0.161073	-0.0462887	0.177791	-0.302314	0.132159	-0.167062	-0.0328535	-0.465722	-0.0698125	-0.149879	0.0907438	-0.552675	0.182919	-0.140158	0.27734	
0.70606	4.55475	5	0	18.5776	-4.68328	-0.148247	0.063577	0	0	-0.029506	-0.139833	0	0	-0.0895	-0.361309	-0.093647	-0.333181	0.02219	-0.075173	-0.072314	-0.154925	-0.040981	0.184138	-0.276602	0.126614	-0.165509	-0.037241	-0.45155	-0.086597	-0.156927	0.093715	-0.555233	0.175455	-0.142322	0.262989	
0.706868	4.55475	5	0	18.5776	-4.68328	-0.147376	0.0730973	0	0	-0.0298305	-0.128595	0	0	-0.0859857	-0.356017	-0.093647	-0.333181	0.0242665	-0.0654612	-0.0619278	-0.152248	-0.037178	0.194762	-0.266303	0.131158	-0.167062	-0.0328535	-0.440828	-0.093603	-0.156175	0.09159	-0.546369	0.1651	-0.139217	0.254215	
0.707303	4.55627	5	0	18.5776	-4.68328	-0.146505	0.0826175	0	0	-0.030155	-0.117357	0	0	-0.0824715	-0.350726	-0.093647	-0.333181	0.026343	-0.0557495	-0.0515415	-0.149571	-0.033375	0.205385	-0.256004	0.135703	-0.168614	-0.028466	-0.430106	-0.100609	-0.155423	0.089465	-0.537506	0.154745	-0.136112	0.245441	
0.707429	4.5517	5	0	18.5776	-4.68328	-0.145634	0.0921377	0	0	-0.0304795	-0.106118	0	0	-0.0789572	-0.345434	-0.093647	-0.333181	0.0284195	-0.0460378	-0.0411553	-0.146894	-0.029572	0.216009	-0.245705	0.140247	-0.170166	-0.0240785	-0.419383	-0.107615	-0.154672	0.08734	-0.528643	0.144389	-0.133008	0.236666	
0.707408	4.55475	5	0	18.5776	-4.68328	-0.144763	0.101658	0	0	-0.030804	-0.09488	0	0	-0.075443	-0.340143	-0.093647	-0.333181	0.030496	-0.036326	-0.030769	-0.144217	-0.025769	0.226633	-0.235406	0.144791	-0.171719	-0.019691	-0.408661	-0.114621	-0.15392	0.085215	-0.519779	0.134034	-0.129903	0.227892	
0.707401	4.54864	5	0	16.1114	-3.07185	-0.146794	0.095417	0	0	-0.0274197	-0.104444	0	0	-0.0789392	-0.330262	-0.0952117	-0.328759	0.034612	-0.0323657	-0.0351305	-0.131891	-0.012107	0.23084	-0.225088	0.149341	-0.168812	-0.008082	-0.412124	-0.104834	-0.150021	0.082667	-0.523981	0.14591	-0.122552	0.227585	
0.70757	4.55017	5	0	13.6453	-1.46042	-0.148825	0.089176	0	0	-0.0240355	-0.114008	0	0	-0.0824355	-0.320381	-0.0967765	-0.324337	0.038728	-0.0284055	-0.039492	-0.119564	0.001555	0.235047	-0.21477	0.153892	-0.165905	0.003527	-0.415587	-0.095047	-0.146122	0.080119	-0.528183	0.157785	-0.115201	0.227278	
0.708079	4.54712	5	0	11.1791	0.151009	-0.150857	0.082935	0	0	-0.0206513	-0.123572	0	0	-0.0859318	-0.310501	-0.0983412	-0.319914	0.042844	-0.0244452	-0.0438535	-0.107237	0.015217	0.239254	-0.204451	0.158442	-0.162998	0.015136	-0.41905	-0.08526	-0.142222	0.077571	-0.532385	0.169661	-0.107851	0.226971	
0.709023	4.54407	5	0	8.713	1.76244	-0.152888	0.076694	0	0	-0.017267	-0.133136	0	0	-0.089428	-0.30062	-0.099906	-0.315492	0.04696	-0.020485	-0.048215	-0.094911	0.028879	0.243461	-0.194133	0.162992	-0.160091	0.026745	-0.422513	-0.075473	-0.138323	0.075023	-0.536587	0.181537	-0.1005	0.226664	
0.710316	4.54254	5	0	11.1791	0.151009	-0.152888	0.076694	0	0	-0.021172	-0.132421	0	0	-0.0870968	-0.307208	-0.109296	-0.312756	0.0459393	-0.0176	-0.0460335	-0.101076	0.028879	0.243461	-0.207049	0.165783	-0.164551	0.0195255	-0.431503	-0.0733618	-0.153909	0.0852075	-0.540198	0.177048	-0.113027	0.241599	
0.711835	4.54407	5	0	13.6453	-1.46042	-0.152888	0.076694	0	0	-0.025077	-0.131707	0	0	-0.0847655	-0.313797	-0.118687	-0.31002	0.0449185	-0.014715	-0.043852	-0.107242	0.028879	0.243461	-0.219965	0.168574	-0.169012	0.012306	-0.440493	-0.0712505	-0.169496	0.095392	-0.54381	0.172559	-0.125553	0.256534	
0.71346	4.54254	5	0	16.1114	-3.07185	-0.152888	0.076694	0	0	-0.028982	-0.130993	0	0	-0.0824342	-0.320385	-0.128077	-0.307284	0.0438977	-0.01183	-0.0416705	-0.113407	0.028879	0.243461	-0.232881	0.171365	-0.173472	0.0050865	-0.449484	-0.0691392	-0.185082	0.105577	-0.547421	0.16807	-0.13808	0.27147	
0.715069	4.54407	5	0	18.5776	-4.68328	-0.152888	0.076694	0	0	-0.032887	-0.130278	0	0	-0.080103	-0.326973	-0.137467	-0.304548	0.042877	-0.008945	-0.039489	-0.119573	0.028879	0.243461	-0.245797	0.174156	-0.177932	-0.002133	-0.458474	-0.067028	-0.200668	0.115761	-0.551032	0.163581	-0.150607	0.286405	
0.716541	4.54254	5	0	18.5776	-4.68328	-0.156371	0.0865385	0	0	-0.0267665	-0.126926	0	0	-0.075422	-0.324966	-0.128077	-0.307284	0.046995	-0.00497775	-0.0247218	-0.129222	0.027366	0.247737	-0.248397	0.181503	-0.165702	-0.0168722	-0.456743	-0.0719203	-0.203809	0.11618	-0.548932	0.157647	-0.160577	0.283921	
0.717755	4.53796	5	0	18.5776	-4.68328	-0.159855	0.096383	0	0	-0.020646	-0.123575	0	0	-0.070741	-0.32296	-0.118687	-0.31002	0.051113	-0.0010105	-0.0099545	-0.138872	0.025853	0.252014	-0.250996	0.188851	-0.153471	-0.0316115	-0.455012	-0.0768125	-0.206949	0.116598	-0.546833	0.151713	-0.170546	0.281437	
0.718588	4.53796	5	0	18.5776	-4.68328	-0.163338	0.106228	0	0	-0.0145255	-0.120223	0	0	-0.06606	-0.320954	-0.109296	-0.312756	0.055231	0.00295675	0.00481275	-0.148521	0.02434	0.25629	-0.253596	0.196198	-0.141241	-0.0463508	-0.453281	-0.0817047	-0.21009	0.117017	-0.544733	0.145779	-0.180516	0.278953	
0.718917	4.53949	5	0	18.5776	-4.68328	-0.166822	0.116072	0	0	-0.008405	-0.116871	0	0	-0.061379	-0.318947	-0.099906	-0.315492	0.059349	0.006924	0.01958	-0.15817	0.022827	0.260566	-0.256196	0.203545	-0.129011	-0.06109	-0.45155	-0.086597	-0.21323	0.117436	-0.542633	0.139845	-0.190486	0.276469	
0.718618	4.53796	5	0	18.5776	-4.68328	-0.165958	0.125611	0	0	-0.0126392	-0.104904	0	0	-0.053173	-0.31163	-0.104605	-0.302212	0.0634703	0.010896	0.00263125	-0.142355	0.028154	0.266957	-0.258798	0.210898	-0.122982	-0.0582815	-0.446024	-0.0789185	-0.206196	0.114473	-0.546834	0.151717	-0.180516	0.278953	
0.71757	4.53796	5	0	18.5776	-4.68328	-0.165094	0.135151	0	0	-0.0168735	-0.092938	0	0	-0.044967	-0.304313	-0.109303	-0.288933	0.0675915	0.014868	-0.0143175	-0.126541	0.033481	0.273348	-0.2614	0.218251	-0.116954	-0.055473	-0.440497	-0.07124	-0.199161	0.11151	-0.551035	0.163588	-0.170546	0.281437	
0.715679	4.53796	5	0	18.5776	-4.68328	-0.164229	0.14469	0	0	-0.0211078	-0.0809715	0	0	-0.036761	-0.296996	-0.114002	-0.275653	0.0717127	0.01884	-0.0312662	-0.110726	0.038808	0.279739	-0.264001	0.225605	-0.110925	-0.0526645	-0.434971	-0.0635615	-0.192127	0.108547	-0.555235	0.17546	-0.160577	0.283921	
0.713214	4.53186	5	0	18.5776	-4.68328	-0.163365	0.15423	0	0	-0.025342	-0.069005	0	0	-0.028555	-0.289679	-0.118701	-0.262374	0.075834	0.022812	-0.048215	-0.094911	0.044135	0.28613	-0.266603	0.232958	-0.104897	-0.049856	-0.429445	-0.055883	-0.185092	0.105584	-0.559436	0.187332	-0.150607	0.286405	
0.710691	4.53186	5	0	16.1114	-3.07185	-0.15901	0.153913	0	0	-0.020586	-0.0721128	0	0	-0.033243	-0.29169	-0.117134	-0.266803	0.074811	0.0257035	-0.048215	-0.094911	0.042619	0.290414	-0.266603	0.232958	-0.115585	-0.0394957	-0.432914	-0.04608	-0.1827	0.107289	-0.563642	0.19922	-0.148448	0.30077	
0.70863	4.53033	5	0	13.6453	-1.46042	-0.154656	0.153596	0	0	-0.01583	-0.0752205	0	0	-0.037931	-0.293701	-0.115567	-0.271231	0.073788	0.028595	-0.048215	-0.094911	0.041103	0.294698	-0.266603	0.232958	-0.126274	-0.0291355	-0.436382	-0.036277	-0.180309	0.108994	-0.567848	0.211108	-0.146288	0.315134	
0.707552	4.52728	5	0	11.1791	0.151009	-0.150302	0.153279	0	0	-0.011074	-0.0783282	0	0	-0.042619	-0.295712	-0.114	-0.27566	0.072765	0.0314865	-0.048215	-0.094911	0.039587	0.298983	-0.266603	0.232958	-0.136962	-0.0187753	-0.439851	-0.026474	-0.177918	0.110699	-0.572055	0.222995	-0.144128	0.329499	
0.707978	4.52881	5	0	8.713	1.76244	-0.145947	0.152962	0	0	-0.006318	-0.081436	0	0	-0.047307	-0.297723	-0.112433	-0.280089	0.071742	0.034378	-0.048215	-0.094911	0.038071	0.303267	-0.266603	0.232958	-0.14765	-0.008415	-0.443319	-0.016671	-0.175526	0.112404	-0.576261	0.234883	-0.141969	0.343864	
0.710217	4.52728	5	0	11.1791	0.151009	-0.148276	0.159543	0	0	-0.004951	-0.0749605	0	0	-0.0402832	-0.302312	-0.103031	-0.282828	0.0768892	0.0354628	-0.0503982	-0.0887415	0.038071	0.303267	-0.266603	0.232958	-0.155221	-0.0068445	-0.452307	-0.0145677	-0.178669	0.112824	-0.567394	0.224518	-0.13942	0.326423	
0.713695	4.52728	5	0	13.6453	-1.46042	-0.150605	0.166125	0	0	-0.003584	-0.068485	0	0	-0.0332595	-0.306902	-0.0936285	-0.285567	0.0820365	0.0365475	-0.0525815	-0.082572	0.038071	0.303267	-0.266603	0.232958	-0.162791	-0.005274	-0.461294	-0.0124645	-0.181813	0.113244	-0.558527	0.214153	-0.136871	0.308981	
0.717606	4.52576	5	0	16.1114	-3.07185	-0.152933	0.172706	0	0	-0.002217	-0.0620095	0	0	-0.0262358	-0.311492	-0.0842263	-0.288305	0.0871838	0.0376322	-0.0547648	-0.0764025	0.038071	0.303267	-0.266603	0.232958	-0.170361	-0.0037035	-0.470282	-0.0103612	-0.184956	0.113664	-0.54966	0.203788	-0.134321	0.29154	
0.721145	4.52423	5	0	18.5776	-4.68328	-0.155262	0.179287	0	0	-0.00085	-0.055534	0	0	-0.019212	-0.316081	-0.074824	-0.291044	0.092331	0.038717	-0.056948	-0.070233	0.038071	0.303267	-0.266603	0.232958	-0.177932	-0.002133	-0.479269	-0.008258	-0.1881	0.114084	-0.540793	0.193423	-0.131772	0.274098	
0.723505	4.52118	5	0	18.5776	-4.68328	-0.154403	0.188856	0	0	0.00527975	-0.0521628	0	0	-0.00982025	-0.312065	-0.0795297	-0.277745	0.0954332	0.045595	-0.056948	-0.070233	0.0449188	0.305385	-0.266603	0.232958	-0.181041	0.0066525	-0.468547	-0.0152643	-0.186596	0.109834	-0.541845	0.196395	-0.126025	0.268092	
0.723882	4.52118	5	0	18.5776	-4.68328	-0.153543	0.198425	0	0	0.0114095	-0.0487915	0	0	-0.0004285	-0.308049	-0.0842355	-0.264445	0.0985355	0.052473	-0.056948	-0.070233	0.0517665	0.307503	-0.266603	0.232958	-0.18415	0.015438	-0.457824	-0.0222705	-0.185092	0.105584	-0.542897	0.199368	-0.120278	0.262085	
0.72191	4.5166	5	0	18.5776	-4.68328	-0.152684	0.207993	0	0	0.0175392	-0.0454203	0	0	0.00896325	-0.304034	-0.0889412	-0.251146	0.101638	0.059351	-0.056948	-0.070233	0.0586143	0.30962	-0.266603	0.232958	-0.187258	0.0242235	-0.447102	-0.0292768	-0.183589	0.101335	-0.543948	0.20234	-0.11453	0.256079	
0.718216	4.5166	0	0	18.5776	-4.68328	-0.151825	0.217562	0	0	0.023669	-0.042049	0	0	0.018355	-0.300018	-0.093647	-0.237846	0.10474	0.066229	-0.056948	-0.070233	0.065462	0.311738	-0.266603	0.232958	-0.190367	0.033009	-0.43638	-0.036283	-0.182085	0.097085	-0.545	0.205312	-0.108783	0.250073	
0.713566	4.51507	0	0	16.1114	-3.07185	-0.145998	0.201094	0	0	0.0192352	-0.0502138	0	0	0.0066275	-0.297433	-0.0826637	-0.245023	0.10474	0.066229	-0.056948	-0.070233	0.0639438	0.316028	-0.266603	0.232958	-0.191922	0.0374053	-0.438115	-0.03138	-0.175795	0.0962425	-0.540336	0.206837	-0.103498	0.255627	
0.708729	4.5166	0	0	13.6453	-1.46042	-0.140171	0.184626	0	0	0.0148015	-0.0583785	0	0	-0.0051	-0.294849	-0.0716805	-0.2522	0.10474	0.066229	-0.056948	-0.070233	0.0624255	0.320319	-0.266603	0.232958	-0.193478	0.0418015	-0.43985	-0.026477	-0.169506	0.0954	-0.535672	0.208362	-0.098213	0.261181	
0.704469	4.51355	0	0	11.1791	0.151009	-0.134344	0.168158	0	0	0.0103677	-0.0665432	0	0	-0.0168275	-0.292264	-0.0606973	-0.259376	0.10474	0.066229	-0.056948	-0.070233	0.0609072	0.324609	-0.266603	0.232958	-0.195034	0.0461977	-0.441584	-0.021574	-0.163217	0.0945575	-0.531008	0.209887	-0.092928	0.266735	
0.701515	4.51355	0	0	8.713	1.76244	-0.128517	0.15169	0	0	0.005934	-0.074708	0	0	-0.028555	-0.289679	-0.049714	-0.266553	0.10474	0.066229	-0.056948	-0.070233	0.059389	0.328899	-0.266603	0.232958	-0.196589	0.050594	-0.443319	-0.016671	-0.156927	0.093715	-0.526344	0.211412	-0.087643	0.272289	
0.699926	4.50897	0	0	11.1791	0.151009	-0.130548	0.145432	0	0	0.00932375	-0.0842877	0	0	-0.0262192	-0.29628	-0.059128	-0.263811	0.105765	0.0633317	-0.037816	-0.0922173	0.0525427	0.326777	-0.264001	0.225605	-0.190372	0.0330228	-0.44884	-0.0243655	-0.16711	0.097102	-0.523653	0.189101	-0.09614	0.255345	
0.6992	4.51202	0	0	13.6453	-1.46042	-0.132578	0.139174	0	0	0.0127135	-0.0938675	0	0	-0.0238835	-0.30288	-0.068542	-0.26107	0.10679	0.0604345	-0.018684	-0.114202	0.0456965	0.324655	-0.2614	0.218251	-0.184154	0.0154515	-0.454361	-0.03206	-0.177294	0.100489	-0.520962	0.16679	-0.104637	0.238401	
0.698818	4.5105	0	0	16.1114	-3.07185	-0.134609	0.132915	0	0	0.0161032	-0.103447	0	0	-0.0215478	-0.30948	-0.077956	-0.258329	0.107815	0.0575372	0.000448	-0.136186	0.0388502	0.322534	-0.258798	0.210898	-0.177936	-0.00211975	-0.459881	-0.0397545	-0.187478	0.103876	-0.518271	0.144479	-0.113134	0.221458	
0.698262	4.50745	0	0	18.5776	-4.68328	-0.13664	0.126657	0	0	0.019493	-0.113027	0	0	-0.019212	-0.316081	-0.08737	-0.255587	0.10884	0.05464	0.01958	-0.15817	0.032004	0.320412	-0.256196	0.203545	-0.171719	-0.019691	-0.465402	-0.047449	-0.197661	0.107263	-0.51558	0.122168	-0.121631	0.204514	
0.697014	4.50897	0	0	18.5776	-4.68328	-0.132281	0.126336	0	0	0.023407	-0.113744	0	0	-0.018045	-0.319379	-0.08737	-0.255587	0.101639	0.0593453	0.00699275	-0.154682	0.0350367	0.311841	-0.256196	0.203545	-0.17773	-0.022508	-0.449487	-0.0691315	-0.20005	0.105558	-0.524906	0.119147	-0.116467	0.189919	
0.694728	4.50897	0	0	18.5776	-4.68328	-0.127923	0.126016	0	0	0.027321	-0.114461	0	0	-0.016878	-0.322678	-0.08737	-0.255587	0.0944385	0.0640505	-0.0055945	-0.151194	0.0380695	0.303271	-0.256196	0.203545	-0.183741	-0.025325	-0.433571	-0.090814	-0.202439	0.103854	-0.534232	0.116126	-0.111302	0.175324	
0.691769	4.50439	0	0	18.5776	-4.68328	-0.123565	0.125695	0	0	0.031235	-0.115178	0	0	-0.015711	-0.325977	-0.08737	-0.255587	0.0872378	0.0687558	-0.0181818	-0.147705	0.0411022	0.2947	-0.256196	0.203545	-0.189751	-0.028142	-0.417656	-0.112496	-0.204829	0.10215	-0.543559	0.113105	-0.106138	0.160729	
0.688682	4.49982	0	0	18.5776	-4.68328	-0.119206	0.125375	0	0	0.035149	-0.115895	0	0	-0.014544	-0.329275	-0.08737	-0.255587	0.080037	0.073461	-0.030769	-0.144217	0.044135	0.28613	-0.256196	0.203545	-0.195762	-0.030959	-0.401741	-0.134179	-0.207218	0.100445	-0.552885	0.110084	-0.100974	0.146134	
0.686015	4.50287	0	0	18.5776	-4.68328	-0.129948	0.119766	0	0	0.0228905	-0.122595	0	0	-0.014544	-0.329275	-0.08737	-0.255587	0.081062	0.0705647	-0.0285905	-0.150374	0.044135	0.28613	-0.253596	0.196198	-0.195762	-0.030959	-0.403471	-0.12929	-0.207218	0.100445	-0.538316	0.0982872	-0.09833	0.148892	
0.684313	4.50439	0	0	18.5776	-4.68328	-0.140691	0.114158	0	0	0.010632	-0.129294	0	0	-0.014544	-0.329275	-0.08737	-0.255587	0.082087	0.0676685	-0.026412	-0.156531	0.044135	0.28613	-0.250996	0.188851	-0.195762	-0.030959	-0.405201	-0.1244	-0.207218	0.100445	-0.523747	0.0864905	-0.095686	0.15165	
0.684099	4.50134	0	0	18.5776	-4.68328	-0.151433	0.108549	0	0	-0.0016265	-0.135994	0	0	-0.014544	-0.329275	-0.08737	-0.255587	0.083112	0.0647723	-0.0242335	-0.162688	0.044135	0.28613	-0.248397	0.181503	-0.195762	-0.030959	-0.406931	-0.11951	-0.207218	0.100445	-0.509177	0.0746938	-0.093042	0.154409	
0.685385	4.49829	5	0	18.5776	-4.68328	-0.162176	0.102941	0	0	-0.013885	-0.142694	0	0	-0.014544	-0.329275	-0.08737	-0.255587	0.084137	0.061876	-0.022055	-0.168845	0.044135	0.28613	-0.245797	0.174156	-0.195762	-0.030959	-0.408661	-0.114621	-0.207218	0.100445	-0.494608	0.062897	-0.090398	0.157167	
0.687699	4.49676	5	0	16.1114	-3.07185	-0.156374	0.0865455	0	0	-0.0174715	-0.153196	0	0	-0.014574	-0.344451	-0.0826665	-0.26888	0.0820613	0.05211	-0.0302703	-0.177657	0.040321	0.275463	-0.240604	0.15948	-0.19712	-0.0469035	-0.406931	-0.11951	-0.214997	0.105528	-0.519535	0.0746332	-0.103946	0.175001	
0.690551	4.49219	5	0	13.6453	-1.46042	-0.150573	0.07015	0	0	-0.021058	-0.163697	0	0	-0.014604	-0.359626	-0.077963	-0.282173	0.0799855	0.042344	-0.0384855	-0.18647	0.036507	0.264796	-0.23541	0.144804	-0.198478	-0.062848	-0.405201	-0.1244	-0.222776	0.110611	-0.544461	0.0863695	-0.117495	0.192835	
0.693448	4.49371	5	0	11.1791	0.151009	-0.144771	0.0537545	0	0	-0.0246445	-0.174199	0	0	-0.014634	-0.374802	-0.0732595	-0.295466	0.0779097	0.032578	-0.0467007	-0.195282	0.032693	0.254128	-0.230217	0.130127	-0.199836	-0.0787925	-0.403471	-0.12929	-0.230555	0.115694	-0.569388	0.0981057	-0.131044	0.210668	
0.695902	4.49219	5	0	8.713	1.76244	-0.13897	0.037359	0	0	-0.028231	-0.184701	0	0	-0.014664	-0.389978	-0.068556	-0.308759	0.075834	0.022812	-0.054916	-0.204095	0.028879	0.243461	-0.225024	0.115451	-0.201194	-0.094737	-0.401741	-0.134179	-0.238334	0.120777	-0.594314	0.109842	-0.144592	0.228502	
0.697548	4.49219	5	0	11.1791	0.151009	-0.14883	0.0412833	0	0	-0.030446	-0.188752	0	0	-0.0123362	-0.396557	-0.0763935	-0.310442	0.0706907	0.0217287	-0.0484028	-0.222502	0.0303912	0.239187	-0.217251	0.0934815	-0.205651	-0.101905	-0.409006	-0.136944	-0.244603	0.12161	-0.589083	0.0950585	-0.148831	0.220048	
0.698612	4.49066	5	0	13.6453	-1.46042	-0.15869	0.0452075	0	0	-0.032661	-0.192802	0	0	-0.0100085	-0.403135	-0.084231	-0.312126	0.0655475	0.0206455	-0.0418895	-0.240909	0.0319035	0.234913	-0.209477	0.071512	-0.210107	-0.109073	-0.41627	-0.139709	-0.250873	0.122443	-0.583852	0.080275	-0.153069	0.211593	
0.699493	4.48913	5	0	16.1114	-3.07185	-0.168549	0.0491318	0	0	-0.034876	-0.196852	0	0	-0.00768075	-0.409714	-0.0920685	-0.313809	0.0604042	0.0195622	-0.0353762	-0.259317	0.0334158	0.230639	-0.201703	0.0495425	-0.214563	-0.11624	-0.423535	-0.142473	-0.257142	0.123275	-0.578621	0.0654915	-0.157308	0.203138	
0.700587	4.48761	5	0	18.5776	-4.68328	-0.178409	0.053056	0	0	-0.037091	-0.200903	0	0	-0.005353	-0.416293	-0.099906	-0.315492	0.055261	0.018479	-0.028863	-0.277724	0.034928	0.226365	-0.19393	0.027573	-0.21902	-0.123408	-0.4308	-0.145238	-0.263412	0.124108	-0.57339	0.050708	-0.161547	0.194684	
0.702291	4.49066	5	0	16.1114	-3.07185	-0.16739	0.0458563	0	0	-0.028441	-0.204723	0	0	-0.005353	-0.416293	-0.0983412	-0.319914	0.056283	0.0155902	-0.0435798	-0.268108	0.0364397	0.222093	-0.209418	0.037693	-0.209924	-0.129351	-0.420078	-0.152244	-0.263412	0.124108	-0.574435	0.0536628	-0.153175	0.191457	
0.704997	4.48456	5	0	13.6453	-1.46042	-0.156371	0.0386565	0	0	-0.019791	-0.208543	0	0	-0.005353	-0.416293	-0.0967765	-0.324337	0.057305	0.0127015	-0.0582965	-0.258492	0.0379515	0.217821	-0.224906	0.047813	-0.200829	-0.135294	-0.409355	-0.159251	-0.263412	0.124108	-0.575481	0.0566175	-0.144803	0.188229	
0.70887	4.48456	5	0	11.1791	0.151009	-0.145353	0.0314567	0	0	-0.011141	-0.212363	0	0	-0.005353	-0.416293	-0.0952117	-0.328759	0.058327	0.00981275	-0.0730133	-0.248876	0.0394632	0.213549	-0.240393	0.057933	-0.191734	-0.141237	-0.398633	-0.166257	-0.263412	0.124108	-0.576526	0.0595723	-0.13643	0.185002	
0.713698	4.48303	5	0	8.713	1.76244	-0.134334	0.024257	0	0	-0.002491	-0.216183	0	0	-0.005353	-0.416293	-0.093647	-0.333181	0.059349	0.006924	-0.08773	-0.23926	0.040975	0.209277	-0.255881	0.068053	-0.182638	-0.14718	-0.387911	-0.173263	-0.263412	0.124108	-0.577572	0.062527	-0.128058	0.181775	
0.719241	4.48303	5	0	8.713	1.76244	-0.140721	0.018367	0	0	-0.0099875	-0.225928	0	0	-0.005353	-0.416293	-0.101475	-0.334861	0.058327	0.00981275	-0.08773	-0.23926	0.037951	0.217823	-0.253294	0.0607418	-0.17972	-0.135644	-0.393099	-0.158603	-0.253254	0.120734	-0.576057	0.0729065	-0.124275	0.201777	
0.725254	4.47998	5	0	8.713	1.76244	-0.147108	0.012477	0	0	-0.017484	-0.235673	0	0	-0.005353	-0.416293	-0.109303	-0.33654	0.057305	0.0127015	-0.08773	-0.23926	0.034927	0.226369	-0.250707	0.0534305	-0.176802	-0.124109	-0.398286	-0.143942	-0.243095	0.117361	-0.574542	0.083286	-0.120492	0.22178	
0.731495	4.48303	5	0	8.713	1.76244	-0.153495	0.006587	0	0	-0.0249805	-0.245417	0	0	-0.005353	-0.416293	-0.117131	-0.33822	0.056283	0.0155902	-0.08773	-0.23926	0.031903	0.234915	-0.24812	0.0461193	-0.173884	-0.112573	-0.403473	-0.129281	-0.232937	0.113987	-0.573028	0.0936655	-0.116709	0.241782	
0.73772	4.47998	5	0	8.713	1.76244	-0.159882	0.000697	0	0	-0.032477	-0.255162	0	0	-0.005353	-0.416293	-0.124959	-0.339899	0.055261	0.018479	-0.08773	-0.23926	0.028879	0.243461	-0.245533	0.038808	-0.170966	-0.101037	-0.408661	-0.114621	-0.222779	0.110613	-0.571513	0.104045	-0.112926	0.261784	
0.743611	4.48151	5	0	8.713	1.76244	-0.158725	-0.0025725	0	0	-0.0299533	-0.262294	0	0	-0.005353	-0.416293	-0.124959	-0.339899	0.0542385	0.0213687	-0.085562	-0.245387	0.027366	0.247737	-0.245533	0.038808	-0.170966	-0.101037	-0.406931	-0.11951	-0.229803	0.113571	-0.563713	0.096673	-0.11924	0.259159	
0.748769	4.47693	5	0	8.713	1.76244	-0.157568	-0.005842	0	0	-0.0274295	-0.269426	0	0	-0.005353	-0.416293	-0.124959	-0.339899	0.053216	0.0242585	-0.083394	-0.251514	0.025853	0.252014	-0.245533	0.038808	-0.170966	-0.101037	-0.405201	-0.1244	-0.236827	0.116529	-0.555913	0.089301	-0.125553	0.256535	
0.752788	4.47693	5	0	8.713	1.76244	-0.156411	-0.0091115	0	0	-0.0249057	-0.276558	0	0	-0.005353	-0.416293	-0.124959	-0.339899	0.0521935	0.0271482	-0.081226	-0.257642	0.02434	0.25629	-0.245533	0.038808	-0.170966	-0.101037	-0.403471	-0.12929	-0.243852	0.119486	-0.548114	0.081929	-0.131867	0.253911	
0.755263	4.47693	5	0	8.713	1.76244	-0.155254	-0.012381	0	0	-0.022382	-0.28369	0	0	-0.005353	-0.416293	-0.124959	-0.339899	0.051171	0.030038	-0.079058	-0.263769	0.022827	0.260566	-0.245533	0.038808	-0.170966	-0.101037	-0.401741	-0.134179	-0.250876	0.122444	-0.540314	0.074557	-0.138181	0.251286	
0.755789	4.47388	5	0	11.1791	0.151009	-0.150024	-0.0032215	0	0	-0.0171012	-0.278	0	0	-0.0029865	-0.40772	-0.118696	-0.333797	0.0552902	0.0340155	-0.081226	-0.257642	0.0311835	0.258395	-0.232632	0.0359993	-0.174064	-0.0922815	-0.394466	-0.131412	-0.250876	0.122444	-0.542409	0.0804773	-0.129796	0.248056	
0.753974	4.47082	5	0	13.6453	-1.46042	-0.144794	0.005938	0	0	-0.0118205	-0.272309	0	0	-0.00062	-0.399147	-0.112432	-0.327696	0.0594095	0.037993	-0.083394	-0.251514	0.03954	0.256223	-0.219731	0.0331905	-0.177162	-0.083526	-0.387192	-0.128645	-0.250876	0.122444	-0.544504	0.0863975	-0.121411	0.244827	
0.749976	4.47082	5	0	16.1114	-3.07185	-0.139564	0.0150975	0	0	-0.00653975	-0.266619	0	0	0.0017465	-0.390575	-0.106169	-0.321594	0.0635287	0.0419705	-0.085562	-0.245387	0.0478965	0.254051	-0.206831	0.0303817	-0.18026	-0.0747705	-0.379917	-0.125879	-0.250876	0.122444	-0.546598	0.0923178	-0.113026	0.241597	
0.744661	4.47082	5	0	18.5776	-4.68328	-0.134334	0.024257	0	0	-0.001259	-0.260929	0	0	0.004113	-0.382002	-0.099906	-0.315492	0.067648	0.045948	-0.08773	-0.23926	0.056253	0.25188	-0.19393	0.027573	-0.183358	-0.066015	-0.372642	-0.123112	-0.250876	0.122444	-0.548693	0.098238	-0.104641	0.238367	
0.738944	4.47082	5	0	18.5776	-4.68328	-0.144194	0.0281825	0	0	-0.0090635	-0.259487	0	0	0.0135135	-0.378011	-0.104605	-0.302212	0.0717703	0.04993	-0.077354	-0.236609	0.0684483	0.26038	-0.214598	0.0523332	-0.172877	-0.0560068	-0.379576	-0.103517	-0.240713	0.119068	-0.531073	0.107243	-0.097747	0.249628	
0.733739	4.46777	5	0	18.5776	-4.68328	-0.154054	0.032108	0	0	-0.016868	-0.258046	0	0	0.022914	-0.374019	-0.109303	-0.288933	0.0758925	0.053912	-0.066978	-0.233957	0.0806435	0.26888	-0.235266	0.0770935	-0.162396	-0.0459985	-0.386509	-0.0839215	-0.230549	0.115692	-0.513453	0.116249	-0.090853	0.260888	
0.729961	4.46777	5	0	18.5776	-4.68328	-0.163914	0.0360335	0	0	-0.0246725	-0.256604	0	0	0.0323145	-0.370027	-0.114002	-0.275653	0.0800147	0.057894	-0.056602	-0.231306	0.0928387	0.27738	-0.255934	0.101854	-0.151915	-0.0359903	-0.393443	-0.0643263	-0.220386	0.112315	-0.495833	0.125254	-0.083959	0.272149	
0.728476	4.46777	5	0	18.5776	-4.68328	-0.173774	0.039959	0	0	-0.032477	-0.255162	0	0	0.041715	-0.366036	-0.118701	-0.262374	0.084137	0.061876	-0.046226	-0.228655	0.105034	0.28588	-0.276602	0.126614	-0.141434	-0.025982	-0.400377	-0.044731	-0.210223	0.108939	-0.478213	0.134259	-0.077065	0.28341	
0.729309	4.46777	5	0	16.1114	-3.07185	-0.173774	0.039959	0	0	-0.0299533	-0.262294	0	0	0.041715	-0.366036	-0.118701	-0.262374	0.0892877	0.0629642	-0.046226	-0.228655	0.105034	0.28588	-0.263707	0.123823	-0.139881	-0.0303715	-0.396908	-0.054534	-0.2165	0.109775	-0.489654	0.13717	-0.0813162	0.274923	
0.731783	4.46625	5	0	13.6453	-1.46042	-0.173774	0.039959	0	0	-0.0274295	-0.269426	0	0	0.041715	-0.366036	-0.118701	-0.262374	0.0944385	0.0640525	-0.046226	-0.228655	0.105034	0.28588	-0.250813	0.121033	-0.138327	-0.034761	-0.393439	-0.064337	-0.222776	0.110612	-0.501096	0.140081	-0.0855675	0.266436	
0.735198	4.46472	5	0	11.1791	0.151009	-0.173774	0.039959	0	0	-0.0249057	-0.276558	0	0	0.041715	-0.366036	-0.118701	-0.262374	0.0995893	0.0651407	-0.046226	-0.228655	0.105034	0.28588	-0.237919	0.118242	-0.136774	-0.0391505	-0.389971	-0.07414	-0.229052	0.111448	-0.512537	0.142993	-0.0898188	0.25795	
0.738856	4.46167	5	0	8.713	1.76244	-0.173774	0.039959	0	0	-0.022382	-0.28369	0	0	0.041715	-0.366036	-0.118701	-0.262374	0.10474	0.066229	-0.046226	-0.228655	0.105034	0.28588	-0.225024	0.115451	-0.135221	-0.04354	-0.386502	-0.083943	-0.235329	0.112285	-0.523979	0.145904	-0.09407	0.249463	
0.742057	4.46167	5	0	8.713	1.76244	-0.169425	0.0396348	0	0	-0.012894	-0.28989	0	0	0.047589	-0.367338	-0.118701	-0.262374	0.102689	0.0720262	-0.046226	-0.228655	0.103516	0.29017	-0.209508	0.105313	-0.133668	-0.0479275	-0.386502	-0.083943	-0.238465	0.112702	-0.521879	0.13997	-0.0946425	0.240839	
0.744149	4.46167	5	0	8.713	1.76244	-0.165077	0.0393105	0	0	-0.003406	-0.29609	0	0	0.053463	-0.36864	-0.118701	-0.262374	0.100637	0.0778235	-0.046226	-0.228655	0.101998	0.294461	-0.193993	0.095174	-0.132116	-0.052315	-0.386502	-0.083943	-0.2416	0.113119	-0.51978	0.134036	-0.095215	0.232214	
0.745092	4.45709	5	0	8.713	1.76244	-0.160728	0.0389863	0	0	0.006082	-0.302289	0	0	0.059337	-0.369943	-0.118701	-0.262374	0.0985863	0.0836207	-0.046226	-0.228655	0.10048	0.298752	-0.178477	0.0850355	-0.130563	-0.0567025	-0.386502	-0.083943	-0.244736	0.113537	-0.51768	0.128102	-0.0957875	0.22359	
0.745295	4.45557	5	0	8.713	1.76244	-0.156379	0.038662	0	0	0.01557	-0.308489	0	0	0.065211	-0.371245	-0.118701	-0.262374	0.096535	0.089418	-0.046226	-0.228655	0.098962	0.303042	-0.162961	0.074897	-0.129011	-0.06109	-0.386502	-0.083943	-0.247872	0.113954	-0.51558	0.122168	-0.09636	0.214966	
0.745175	4.45404	5	0	8.713	1.76244	-0.163916	0.0360378	0	0	0.002485	-0.312716	0	0	0.0640432	-0.367945	-0.120269	-0.257943	0.103742	0.084709	-0.046226	-0.228655	0.115744	0.298678	-0.162961	0.074897	-0.122982	-0.0582815	-0.379221	-0.0811638	-0.243234	0.109292	-0.51663	0.125134	-0.0889995	0.214654	
0.745151	4.45404	5	0	8.713	1.76244	-0.171453	0.0334135	0	0	-0.0106	-0.316943	0	0	0.0628755	-0.364645	-0.121837	-0.253512	0.110949	0.08	-0.046226	-0.228655	0.132526	0.294314	-0.162961	0.074897	-0.116954	-0.055473	-0.371941	-0.0783845	-0.238596	0.104631	-0.51768	0.128101	-0.081639	0.214342	
0.745638	4.45404	5	0	8.713	1.76244	-0.17899	0.0307893	0	0	-0.023685	-0.32117	0	0	0.0617077	-0.361346	-0.123404	-0.249081	0.118155	0.075291	-0.046226	-0.228655	0.149309	0.289949	-0.162961	0.074897	-0.110925	-0.0526645	-0.36466	-0.0756052	-0.233959	0.0999687	-0.518729	0.131068	-0.0742785	0.21403	
0.747022	4.45404	5	0	8.713	1.76244	-0.186527	0.028165	0	0	-0.03677	-0.325397	0	0	0.06054	-0.358046	-0.124972	-0.24465	0.125362	0.070582	-0.046226	-0.228655	0.166091	0.285585	-0.162961	0.074897	-0.104897	-0.049856	-0.35738	-0.072826	-0.229321	0.095307	-0.519779	0.134034	-0.066918	0.213718	
0.749276	4.44946	5	0	8.713	1.76244	-0.191742	0.0190095	0	0	-0.0347975	-0.341259	0	0	0.0722545	-0.375842	-0.129661	-0.255202	0.127413	0.0647848	-0.029313	-0.244424	0.159213	0.283477	-0.160368	0.067568	-0.109374	-0.0570497	-0.353911	-0.082629	-0.244107	0.103337	-0.514534	0.119211	-0.088405	0.223261	
0.752102	4.45099	5	0	8.713	1.76244	-0.196958	0.009854	0	0	-0.032825	-0.357121	0	0	0.083969	-0.393638	-0.134349	-0.265755	0.129464	0.0589875	-0.0124	-0.260192	0.152336	0.281369	-0.157774	0.060239	-0.113851	-0.0642435	-0.350442	-0.092432	-0.258893	0.111368	-0.509289	0.104389	-0.109892	0.232803	
0.755198	4.44641	5	0	8.713	1.76244	-0.202173	0.0006985	0	0	-0.0308525	-0.372983	0	0	0.0956835	-0.411434	-0.139037	-0.276307	0.131516	0.0531903	0.004513	-0.27596	0.145458	0.279262	-0.155181	0.05291	-0.118328	-0.0714373	-0.346974	-0.102235	-0.27368	0.119398	-0.504045	0.0895665	-0.131379	0.242345	
0.75826	4.44641	5	0	8.713	1.76244	-0.207388	-0.008457	0	0	-0.02888	-0.388845	0	0	0.107398	-0.42923	-0.143726	-0.286859	0.133567	0.047393	0.021426	-0.291729	0.13858	0.277154	-0.152588	0.045581	-0.122805	-0.078631	-0.343505	-0.112038	-0.288466	0.127429	-0.4988	0.074744	-0.152866	0.251888	
0.760985	4.44641	5	0	8.713	1.76244	-0.199581	-0.018577	0	0	-0.0311007	-0.392851	0	0	0.101517	-0.42792	-0.140597	-0.295701	0.12841	0.0463085	0.0235957	-0.297861	0.141616	0.268575	-0.149997	0.0382578	-0.118154	-0.0917738	-0.341772	-0.116935	-0.29935	0.13291	-0.508131	0.0717385	-0.156069	0.240505	
0.763079	4.44794	5	0	8.713	1.76244	-0.191774	-0.028697	0	0	-0.0333215	-0.396857	0	0	0.095636	-0.426611	-0.137469	-0.304543	0.123253	0.045224	0.0257655	-0.303992	0.144651	0.259997	-0.147405	0.0309345	-0.113504	-0.104917	-0.340039	-0.121833	-0.310233	0.138391	-0.517463	0.068733	-0.159272	0.229122	
0.764377	4.44336	5	0	8.713	1.76244	-0.183967	-0.038817	0	0	-0.0355422	-0.400863	0	0	0.089755	-0.425301	-0.134341	-0.313385	0.118096	0.0441395	0.0279353	-0.310123	0.147686	0.251418	-0.144814	0.0236113	-0.108854	-0.118059	-0.338306	-0.12673	-0.321117	0.143872	-0.526795	0.0657275	-0.162474	0.217739	
0.764827	4.44336	0	0	8.713	1.76244	-0.17616	-0.048937	0	0	-0.037763	-0.404869	0	0	0.083874	-0.423991	-0.131212	-0.322227	0.112939	0.043055	0.030105	-0.316255	0.150722	0.242839	-0.142223	0.016288	-0.104203	-0.131202	-0.336573	-0.131628	-0.332001	0.149353	-0.536126	0.062722	-0.165677	0.206356	
0.764383	4.44488	0	0	8.713	1.76244	-0.189178	-0.0479518	0	0	-0.0477625	-0.40742	0	0	0.0827083	-0.420696	-0.131212	-0.322227	0.108811	0.039077	0.0131933	-0.300491	0.149205	0.247127	-0.142223	0.016288	-0.107302	-0.122442	-0.329277	-0.128863	-0.328124	0.14682	-0.529368	0.0583063	-0.160976	0.203284	
0.762995	4.44031	0	0	8.713	1.76244	-0.202197	-0.0469665	0	0	-0.057762	-0.409972	0	0	0.0815425	-0.417401	-0.131212	-0.322227	0.104682	0.035099	-0.0037185	-0.284726	0.147687	0.251416	-0.142223	0.016288	-0.110402	-0.113683	-0.321982	-0.126098	-0.324248	0.144287	-0.52261	0.0538905	-0.156275	0.200213	
0.760617	4.44031	0	0	8.713	1.76244	-0.215216	-0.0459813	0	0	-0.0677615	-0.412524	0	0	0.0803767	-0.414107	-0.131212	-0.322227	0.100554	0.031121	-0.0206302	-0.268962	0.14617	0.255704	-0.142223	0.016288	-0.113502	-0.104923	-0.314686	-0.123333	-0.320372	0.141754	-0.515853	0.0494747	-0.151574	0.197141	
0.757207	4.43878	0	0	8.713	1.76244	-0.228234	-0.044996	0	0	-0.077761	-0.415075	0	0	0.079211	-0.410812	-0.131212	-0.322227	0.096426	0.027143	-0.037542	-0.253198	0.144653	0.259992	-0.142223	0.016288	-0.116601	-0.096163	-0.30739	-0.120568	-0.316495	0.139221	-0.509095	0.045059	-0.146873	0.194069	
0.752891	4.43725	0	0	11.3261	-0.264441	-0.224776	-0.0547687	0	0	-0.0791415	-0.421432	0	0	0.0768308	-0.419383	-0.124964	-0.339885	0.0953673	0.0145033	-0.0332042	-0.265457	0.140814	0.249323	-0.139634	0.008971	-0.119529	-0.107712	-0.327168	-0.111412	-0.33199	0.149346	-0.524123	0.0435175	-0.168288	0.203576	
0.747969	4.43725	0	0	13.9393	-2.29132	-0.221318	-0.0645415	0	0	-0.080522	-0.42779	0	0	0.0744505	-0.427955	-0.118716	-0.357544	0.0943085	0.0018635	-0.0288665	-0.277716	0.136974	0.238654	-0.137045	0.001654	-0.122458	-0.119261	-0.346946	-0.102255	-0.347484	0.159471	-0.539152	0.041976	-0.189703	0.213083	
0.742746	4.43725	0	0	16.5524	-4.3182	-0.21786	-0.0743142	0	0	-0.0819025	-0.434148	0	0	0.0720703	-0.436526	-0.112467	-0.375202	0.0932497	-0.0107763	-0.0245288	-0.289975	0.133134	0.227984	-0.134456	-0.005663	-0.125387	-0.130809	-0.366724	-0.0930992	-0.362979	0.169595	-0.55418	0.0404345	-0.211118	0.222591	
0.737531	4.43573	0	0	19.1656	-6.34508	-0.214402	-0.084087	0	0	-0.083283	-0.440505	0	0	0.06969	-0.445097	-0.106219	-0.39286	0.092191	-0.023416	-0.020191	-0.302234	0.129295	0.217315	-0.131867	-0.01298	-0.128315	-0.142358	-0.386502	-0.083943	-0.378474	0.17972	-0.569209	0.038893	-0.232533	0.232098	
0.732629	4.43268	0	0	16.5524	-4.3182	-0.208912	-0.0876742	0	0	-0.0785612	-0.44359	0	0	0.0744015	-0.443114	-0.114041	-0.394527	0.0942338	-0.0291887	-0.0349078	-0.292618	0.132323	0.208757	-0.144796	-0.010153	-0.126768	-0.146731	-0.386502	-0.083943	-0.38546	0.182655	-0.573862	0.037394	-0.234127	0.226416	
0.728334	4.4342	0	0	13.9393	-2.29132	-0.203423	-0.0912615	0	0	-0.0738395	-0.446676	0	0	0.079113	-0.441131	-0.121862	-0.396193	0.0962765	-0.0349615	-0.0496245	-0.283002	0.135352	0.200199	-0.157724	-0.007326	-0.125221	-0.151103	-0.386502	-0.083943	-0.392447	0.185589	-0.578515	0.035895	-0.23572	0.220733	
0.724772	4.43115	0	0	11.3261	-0.264441	-0.197933	-0.0948487	0	0	-0.0691177	-0.449761	0	0	0.0838245	-0.439148	-0.129684	-0.39786	0.0983192	-0.0407342	-0.0643413	-0.273385	0.13838	0.19164	-0.170653	-0.004499	-0.123673	-0.155475	-0.386502	-0.083943	-0.399433	0.188524	-0.583168	0.034396	-0.237314	0.215051	
0.721952	4.42657	0	0	8.713	1.76244	-0.192443	-0.098436	0	0	-0.064396	-0.452846	0	0	0.088536	-0.437165	-0.137506	-0.399527	0.100362	-0.046507	-0.079058	-0.263769	0.141408	0.183082	-0.183582	-0.001672	-0.122126	-0.159848	-0.386502	-0.083943	-0.40642	0.191459	-0.587821	0.032897	-0.238908	0.209369	
0.719881	4.43115	0	0	8.86	1.34699	-0.201116	-0.097773	0	0	-0.0713335	-0.453753	0	0	0.0850385	-0.427281	-0.137506	-0.399527	0.0931733	-0.04181	-0.0643413	-0.273385	0.139894	0.18736	-0.170653	-0.004499	-0.125221	-0.151101	-0.379221	-0.0811638	-0.399433	0.188524	-0.583168	0.034396	-0.23056	0.206155	
0.718566	4.42505	0	0	9.007	0.931536	-0.209789	-0.09711	0	0	-0.078271	-0.454659	0	0	0.081541	-0.417397	-0.137506	-0.399527	0.0859845	-0.037113	-0.0496245	-0.283002	0.138381	0.191638	-0.157724	-0.007326	-0.128316	-0.142354	-0.371941	-0.0783845	-0.392447	0.185589	-0.578515	0.035895	-0.222212	0.20294	
0.718013	4.42657	0	0	9.154	0.516086	-0.218462	-0.096447	0	0	-0.0852085	-0.455566	0	0	0.0780435	-0.407512	-0.137506	-0.399527	0.0787957	-0.032416	-0.0349078	-0.292618	0.136867	0.195916	-0.144796	-0.010153	-0.131411	-0.133607	-0.36466	-0.0756052	-0.38546	0.182655	-0.573862	0.037394	-0.213864	0.199726	
0.718202	4.4281	5	0	9.301	0.100635	-0.227135	-0.095784	0	0	-0.092146	-0.456472	0	0	0.074546	-0.397628	-0.137506	-0.399527	0.071607	-0.027719	-0.020191	-0.302234	0.135353	0.200194	-0.131867	-0.01298	-0.134506	-0.12486	-0.35738	-0.072826	-0.378474	0.17972	-0.569209	0.038893	-0.205516	0.196512	
0.718957	4.42352	5	0	9.301	0.100635	-0.230316	-0.0987057	0	0	-0.0999085	-0.455024	0	0	0.076878	-0.404219	-0.132833	-0.412735	0.067486	-0.0316778	-0.032741	-0.298741	0.128487	0.198104	-0.142211	-0.017458	-0.138979	-0.132022	-0.368129	-0.0658023	-0.39319	0.187706	-0.58733	0.0461942	-0.224264	0.208762	
0.720049	4.42505	5	0	9.301	0.100635	-0.233497	-0.101627	0	0	-0.107671	-0.453576	0	0	0.07921	-0.410809	-0.128159	-0.425943	0.063365	-0.0356365	-0.045291	-0.295247	0.12162	0.196015	-0.152555	-0.021936	-0.143453	-0.139183	-0.378879	-0.0587785	-0.407907	0.195691	-0.605451	0.0534955	-0.243012	0.221013	
0.721248	4.42505	5	0	9.301	0.100635	-0.236679	-0.104549	0	0	-0.115433	-0.452128	0	0	0.081542	-0.4174	-0.123486	-0.43915	0.059244	-0.0395952	-0.057841	-0.291754	0.114754	0.193925	-0.162899	-0.026414	-0.147927	-0.146344	-0.389628	-0.0517548	-0.422623	0.203677	-0.623572	0.0607968	-0.26176	0.233263	
0.722327	4.422	5	0	9.301	0.100635	-0.23986	-0.107471	0	0	-0.123196	-0.45068	0	0	0.083874	-0.423991	-0.118813	-0.452358	0.055123	-0.043554	-0.070391	-0.288261	0.107888	0.191835	-0.173243	-0.030892	-0.1524	-0.153506	-0.400377	-0.044731	-0.43734	0.211663	-0.641693	0.068098	-0.280508	0.245513	
