0.734	1.35803	0	0	-6.0716	0.534519	0.415881	-0.360288	4.33035	0.72173	0.534255	-0.063457	0.304777	-4.41289	0.300205	0.533816	0.586172	1.20375	0.430549	0.78707	0.559083	0.57201	0.705469	0.954222	0.490638	0.968503	0.449544	0.781694	0.316526	0.506543	0.066302	0.223663	0.256881	0.269622	0.063679	0.035782	
0.730561	1.35956	0	0	-8.53774	2.14595	0.43453	-0.357725	4.2609	0.918014	0.538272	-0.0517582	0.662151	-4.09191	0.307421	0.537164	0.584404	1.20875	0.426751	0.797804	0.555005	0.565617	0.707254	0.949178	0.481479	0.96665	0.452908	0.772188	0.314957	0.510979	0.0654433	0.22609	0.250599	0.273727	0.0648222	0.0325518	
0.727921	1.35651	0	0	-11.0039	3.75738	0.453179	-0.355161	4.19144	1.1143	0.54229	-0.0400595	1.01953	-3.77094	0.314638	0.540512	0.582636	1.21374	0.422953	0.808538	0.550928	0.559223	0.709039	0.944134	0.472321	0.964797	0.456271	0.762683	0.313387	0.515414	0.0645845	0.228517	0.244316	0.277832	0.0659655	0.0293215	
0.725955	1.35956	0	0	-13.47	5.3688	0.471828	-0.352598	4.12199	1.31058	0.546307	-0.0283607	1.3769	-3.44996	0.321854	0.54386	0.580868	1.21874	0.419155	0.819271	0.54685	0.55283	0.710823	0.93909	0.463162	0.962944	0.459635	0.753178	0.311818	0.519849	0.0637257	0.230944	0.238034	0.281937	0.0671087	0.0260912	
0.724541	1.35651	0	0	-15.9362	6.98023	0.490477	-0.350034	4.05254	1.50687	0.550324	-0.016662	1.73427	-3.12899	0.32907	0.547208	0.5791	1.22374	0.415357	0.830005	0.542772	0.546437	0.712608	0.934046	0.454003	0.961091	0.462998	0.743672	0.310249	0.524285	0.062867	0.233371	0.231751	0.286042	0.068252	0.022861	
0.723554	1.35956	0	0	-13.3158	4.93308	0.485469	-0.349715	4.57296	1.32111	0.547216	-0.0194092	1.81224	-2.6464	0.316285	0.559597	0.5791	1.22374	0.402983	0.84222	0.540776	0.534177	0.695806	0.933404	0.457606	0.950908	0.448609	0.760382	0.30239	0.546495	0.0670543	0.243711	0.248398	0.293656	0.0611205	0.0300042	
0.722872	1.35651	0	0	-10.6955	2.88593	0.480462	-0.349395	5.09339	1.13534	0.544109	-0.0221565	1.89021	-2.16382	0.303501	0.571986	0.5791	1.22374	0.390609	0.854436	0.53878	0.521917	0.679003	0.932763	0.461209	0.940725	0.43422	0.777092	0.294532	0.568704	0.0712415	0.254051	0.265045	0.301269	0.053989	0.0371475	
0.722372	1.35803	0	0	-8.07522	0.838774	0.475455	-0.349075	5.61381	0.949581	0.541002	-0.0249037	1.96818	-1.68123	0.290716	0.584374	0.5791	1.22374	0.378234	0.866651	0.536784	0.509656	0.6622	0.932122	0.464812	0.930542	0.419831	0.793802	0.286673	0.590914	0.0754288	0.264391	0.281692	0.308883	0.0468575	0.0442908	
0.721929	1.35651	0	0	-5.4549	-1.20838	0.470447	-0.348756	6.13424	0.763818	0.537894	-0.027651	2.04615	-1.19864	0.277932	0.596763	0.5791	1.22374	0.36586	0.878866	0.534788	0.497396	0.645398	0.93148	0.468415	0.920359	0.405442	0.810512	0.278814	0.613124	0.079616	0.274731	0.298339	0.316497	0.039726	0.051434	
0.72142	1.35651	0	0	-5.4549	-1.20838	0.464932	-0.374607	5.47015	1.35559	0.551806	-0.0439018	2.56854	-1.18417	0.274441	0.582918	0.572697	1.2164	0.362996	0.864233	0.524638	0.472482	0.630041	0.902921	0.442809	0.90976	0.407863	0.779745	0.27365	0.602835	0.0788115	0.265914	0.287125	0.30718	0.0309185	0.0373457	
0.720723	1.35803	0	0	-5.4549	-1.20838	0.459418	-0.400458	4.80607	1.94735	0.565717	-0.0601525	3.09094	-1.16969	0.27095	0.569073	0.566295	1.20907	0.360131	0.849601	0.514489	0.447568	0.614684	0.874362	0.417204	0.899161	0.410284	0.748978	0.268486	0.592546	0.078007	0.257097	0.27591	0.297864	0.022111	0.0232575	
0.719713	1.35803	0	0	-5.4549	-1.20838	0.453903	-0.426308	4.14198	2.53912	0.579629	-0.0764033	3.61333	-1.15522	0.267458	0.555227	0.559893	1.20174	0.357266	0.834969	0.504339	0.422654	0.599327	0.845803	0.391598	0.888562	0.412705	0.718211	0.263321	0.582258	0.0772025	0.24828	0.264696	0.288548	0.0133035	0.00916925	
0.718271	1.35956	0	0	-5.4549	-1.20838	0.448388	-0.452159	3.4779	3.13089	0.593541	-0.092654	4.13573	-1.14074	0.263967	0.541382	0.55349	1.1944	0.354402	0.820336	0.494189	0.39774	0.58397	0.817244	0.365992	0.877963	0.415126	0.687444	0.258157	0.571969	0.076398	0.239463	0.253481	0.279231	0.004496	-0.004919	
0.716366	1.35651	0	0	-5.60907	-0.772655	0.443804	-0.466776	3.13776	2.89011	0.587314	-0.098121	3.88506	-1.19265	0.251435	0.529466	0.544223	1.16984	0.332566	0.814029	0.483013	0.375879	0.561193	0.786099	0.358513	0.843994	0.398887	0.661747	0.247837	0.551467	0.072209	0.229142	0.235687	0.261367	-0.000611	-0.016427	
0.714067	1.35803	0	0	-5.76325	-0.33693	0.439219	-0.481392	2.79762	2.64933	0.581087	-0.103588	3.63439	-1.24455	0.238903	0.51755	0.534957	1.14528	0.310731	0.807722	0.471838	0.354017	0.538416	0.754954	0.351034	0.810026	0.382648	0.636051	0.237517	0.530965	0.06802	0.218822	0.217894	0.243503	-0.005718	-0.027935	
0.711449	1.35956	0	0	-5.91743	0.0987945	0.434634	-0.496008	2.45748	2.40854	0.574859	-0.109055	3.38372	-1.29645	0.226371	0.505634	0.52569	1.12072	0.288895	0.801416	0.460663	0.332156	0.515639	0.72381	0.343555	0.776057	0.366408	0.610354	0.227196	0.510464	0.063831	0.208501	0.200101	0.225639	-0.010825	-0.039443	
0.708584	1.36413	0	0	-6.0716	0.534519	0.43005	-0.510625	2.11734	2.16776	0.568632	-0.114522	3.13305	-1.34836	0.213839	0.493718	0.516423	1.09616	0.267059	0.795109	0.449487	0.310295	0.492862	0.692665	0.336076	0.742088	0.350169	0.584657	0.216876	0.489962	0.059642	0.19818	0.182307	0.207775	-0.015932	-0.050951	
0.705547	1.35803	0	0	-6.0716	0.534519	0.425061	-0.510296	2.11734	2.16776	0.550909	-0.121973	8.4221	-15.5357	0.199492	0.487051	0.507157	1.07173	0.253807	0.787352	0.435246	0.297251	0.474083	0.674421	0.310631	0.731645	0.34421	0.577696	0.224688	0.467884	0.057119	0.19424	0.191109	0.196508	-0.016213	-0.0631137	
0.702423	1.35498	0	0	-6.0716	0.534519	0.420071	-0.509966	2.11734	2.16776	0.533185	-0.129424	13.7111	-29.723	0.185146	0.480383	0.497891	1.0473	0.240555	0.779596	0.421004	0.284207	0.455303	0.656177	0.285186	0.721203	0.338251	0.570735	0.2325	0.445806	0.054596	0.1903	0.199912	0.18524	-0.016494	-0.0752765	
0.699375	1.35651	0	0	-6.0716	0.534519	0.415082	-0.509637	2.11734	2.16776	0.515462	-0.136876	19.0002	-43.9103	0.170799	0.473716	0.488625	1.02288	0.227304	0.77184	0.406763	0.271163	0.436524	0.637934	0.259741	0.710761	0.332291	0.563774	0.240312	0.423728	0.052073	0.186359	0.208714	0.173973	-0.016775	-0.0874392	
0.6966	1.35345	0	0	-6.0716	0.534519	0.410093	-0.509308	2.11734	2.16776	0.497739	-0.144327	24.2892	-58.0976	0.156452	0.467049	0.479359	0.998452	0.214052	0.764083	0.392521	0.258119	0.417744	0.61969	0.234296	0.700318	0.326332	0.556813	0.248124	0.40165	0.04955	0.182419	0.217517	0.162706	-0.017056	-0.099602	
0.694294	1.35651	0	0	-6.23369	0.992598	0.413186	-0.531811	2.45748	2.40854	0.489533	-0.155575	24.9285	-59.1114	0.147656	0.444813	0.461984	0.971893	0.197992	0.741863	0.381386	0.236449	0.402514	0.591688	0.226833	0.666709	0.308491	0.536008	0.237784	0.381335	0.0436515	0.176969	0.194689	0.15927	-0.0244318	-0.104644	
0.692654	1.35345	0	0	-6.39578	1.45068	0.416279	-0.554314	2.79762	2.64933	0.481328	-0.166823	25.5677	-60.1253	0.13886	0.422578	0.444609	0.945335	0.181933	0.719642	0.370251	0.214779	0.387284	0.563686	0.21937	0.6331	0.29065	0.515204	0.227444	0.361021	0.037753	0.171519	0.171861	0.155833	-0.0318075	-0.109685	
0.691874	1.35803	0	0	-6.55786	1.90876	0.419372	-0.576817	3.13776	2.89011	0.473122	-0.178071	26.2069	-61.1391	0.130065	0.400343	0.427234	0.918776	0.165874	0.697422	0.359115	0.193109	0.372053	0.535685	0.211907	0.599491	0.272809	0.494399	0.217105	0.340707	0.0318545	0.166068	0.149033	0.152396	-0.0391833	-0.114726	
0.691984	1.36108	0	0	-6.71995	2.36684	0.422465	-0.59932	3.4779	3.13089	0.464916	-0.189319	26.8461	-62.153	0.121269	0.378107	0.409859	0.892218	0.149814	0.675202	0.34798	0.171439	0.356823	0.507683	0.204444	0.565882	0.254968	0.473594	0.206765	0.320392	0.025956	0.160618	0.126205	0.14896	-0.046559	-0.119768	
0.692723	1.35803	0	0	-6.8908	2.84969	0.413843	-0.602446	4.06934	2.74443	0.460903	-0.200902	26.1721	-60.2482	0.112476	0.355984	0.392529	0.865838	0.135664	0.64783	0.336858	0.149882	0.345084	0.470085	0.195199	0.53747	0.248053	0.445802	0.188185	0.298844	0.0251878	0.140694	0.128035	0.116677	-0.0590205	-0.136216	
0.693804	1.3504	0	0	-7.06165	3.33254	0.405222	-0.605571	4.66077	2.35797	0.45689	-0.212485	25.4981	-58.3433	0.103682	0.333861	0.3752	0.839458	0.121513	0.620459	0.325736	0.128324	0.333344	0.432486	0.185953	0.509057	0.241138	0.418011	0.169605	0.277296	0.0244195	0.120771	0.129865	0.084393	-0.071482	-0.152665	
0.694936	1.35345	0	0	-7.2325	3.81539	0.396601	-0.608697	5.25221	1.97152	0.452878	-0.224068	24.8241	-56.4385	0.0948885	0.311737	0.35787	0.813079	0.107363	0.593087	0.314615	0.106767	0.321605	0.394888	0.176708	0.480645	0.234224	0.390219	0.151025	0.255747	0.0236512	0.100847	0.131695	0.0521095	-0.0839435	-0.169113	
0.695831	1.35651	0	0	-7.40335	4.29824	0.387979	-0.611823	5.84365	1.58506	0.448865	-0.235651	24.1502	-54.5337	0.086095	0.289614	0.34054	0.786699	0.093213	0.565716	0.303493	0.085209	0.309866	0.357289	0.167463	0.452232	0.227309	0.362428	0.132445	0.234199	0.022883	0.080923	0.133525	0.019826	-0.096405	-0.185562	
0.69623	1.35345	0	0	-3.92752	2.02706	0.384344	-0.615281	5.9163	1.37975	0.437584	-0.249532	23.546	-52.8263	0.0754823	0.27275	0.323255	0.760496	0.083792	0.547568	0.289341	0.0723652	0.296394	0.324856	0.143976	0.437099	0.206253	0.351162	0.133463	0.206701	0.0195455	0.068287	0.119521	0.00529825	-0.095568	-0.200821	
0.696161	1.35345	0	0	-0.451692	-0.24412	0.38071	-0.618739	5.98894	1.17444	0.426303	-0.263413	22.9419	-51.1189	0.0648695	0.255887	0.30597	0.734293	0.074371	0.52942	0.275189	0.0595215	0.282922	0.292423	0.120488	0.421965	0.185196	0.339896	0.134481	0.179203	0.016208	0.055651	0.105518	-0.0092295	-0.094731	-0.216081	
0.695814	1.35345	0	0	3.02414	-2.5153	0.377075	-0.622198	6.06159	0.969128	0.415022	-0.277295	22.3377	-49.4116	0.0542568	0.239023	0.288685	0.708089	0.06495	0.511273	0.261038	0.0466778	0.26945	0.25999	0.0970005	0.406832	0.164139	0.328629	0.135499	0.151706	0.0128705	0.043015	0.0915138	-0.0237572	-0.093894	-0.23134	
0.695381	1.35498	0	0	6.49997	-4.78648	0.37344	-0.625656	6.13424	0.763818	0.403741	-0.291176	21.7336	-47.7042	0.043644	0.222159	0.2714	0.681886	0.055529	0.493125	0.246886	0.033834	0.255978	0.227557	0.073513	0.391698	0.143083	0.317363	0.136517	0.124208	0.009533	0.030379	0.07751	-0.038285	-0.093057	-0.246599	
0.695054	1.35193	0	0	6.49997	-4.78648	0.375166	-0.644254	5.61381	0.949581	0.396806	-0.317227	21.1481	-46.0494	0.0366775	0.195108	0.255871	0.651021	0.031168	0.472748	0.239834	0.018621	0.228344	0.212058	0.059074	0.378361	0.129637	0.30833	0.123129	0.1129	0.0078635	0.0240735	0.0701032	-0.0443463	-0.0989875	-0.242724	
0.695023	1.35193	0	0	6.49997	-4.78648	0.376891	-0.662851	5.09339	1.13534	0.389871	-0.343278	20.5626	-44.3946	0.029711	0.168056	0.240343	0.620155	0.006807	0.452371	0.232783	0.003408	0.20071	0.196559	0.044635	0.365024	0.116191	0.299296	0.109741	0.101592	0.006194	0.017768	0.0626965	-0.0504075	-0.104918	-0.238849	
0.695397	1.35345	0	0	6.49997	-4.78648	0.378617	-0.681449	4.57296	1.32111	0.382935	-0.369329	19.977	-42.7398	0.0227445	0.141005	0.224815	0.58929	-0.017554	0.431994	0.225731	-0.011805	0.173077	0.18106	0.030196	0.351686	0.102744	0.290263	0.096353	0.090284	0.0045245	0.0114625	0.0552897	-0.0564687	-0.110848	-0.234973	
0.69608	1.35345	0	0	6.49997	-4.78648	0.380343	-0.700047	4.05254	1.50687	0.376	-0.39538	19.3915	-41.0851	0.015778	0.113954	0.209286	0.558425	-0.041915	0.411617	0.218679	-0.027018	0.145443	0.165561	0.015757	0.338349	0.089298	0.28123	0.082965	0.078976	0.002855	0.005157	0.047883	-0.06253	-0.116779	-0.231098	
0.696943	1.34888	0	0	6.49997	-4.78648	0.384356	-0.711387	4.64398	1.12041	0.363671	-0.406077	18.8646	-39.5961	0.00518525	0.0972683	0.190379	0.537405	-0.0494425	0.388438	0.21768	-0.0417425	0.128645	0.143145	0.0137705	0.31695	0.0915728	0.251328	0.0824132	0.0560117	-0.00806825	-0.008005	0.0322668	-0.0722663	-0.118498	-0.251985	
0.697857	1.35651	0	0	6.49997	-4.78648	0.388369	-0.722728	5.23541	0.733952	0.351343	-0.416774	18.3378	-38.1071	-0.0054075	0.0805825	0.171472	0.516385	-0.05697	0.36526	0.216682	-0.056467	0.111846	0.12073	0.011784	0.295551	0.0938475	0.221427	0.0818615	0.0330475	-0.0189915	-0.021167	0.0166505	-0.0820025	-0.120217	-0.272871	
0.698694	1.35193	0	0	6.49997	-4.78648	0.392381	-0.734069	5.82685	0.347493	0.339014	-0.42747	17.8109	-36.6181	-0.0160003	0.0638968	0.152566	0.495364	-0.0644975	0.342081	0.215684	-0.0711915	0.0950483	0.0983138	0.0097975	0.274153	0.0961222	0.191525	0.0813098	0.0100833	-0.0299148	-0.034329	0.00103425	-0.0917387	-0.121935	-0.293758	
0.699333	1.34888	0	0	6.49997	-4.78648	0.396394	-0.745409	6.41829	-0.038965	0.326685	-0.438167	17.2841	-35.1291	-0.026593	0.047211	0.133659	0.474344	-0.072025	0.318902	0.214685	-0.085916	0.07825	0.075898	0.007811	0.252754	0.098397	0.161624	0.080758	-0.012881	-0.040838	-0.047491	-0.014582	-0.101475	-0.123654	-0.314645	
0.69978	1.3504	0	0	3.02414	-2.5153	0.400034	-0.741977	5.82685	0.347493	0.329916	-0.447297	16.8102	-33.79	-0.0407745	0.0407843	0.119392	0.465195	-0.0832308	0.306225	0.210654	-0.0920533	0.077759	0.0540472	0.004075	0.236338	0.0849775	0.152693	0.0899308	-0.0388042	-0.0424835	-0.0648178	-0.006262	-0.124989	-0.128751	-0.325948	
0.700149	1.35345	0	0	-0.451692	-0.24412	0.403675	-0.738544	5.23541	0.733951	0.333146	-0.456427	16.3364	-32.451	-0.054956	0.0343575	0.105125	0.456047	-0.0944365	0.293548	0.206622	-0.0981905	0.077268	0.0321965	0.000339	0.219922	0.071558	0.143761	0.0991035	-0.0647275	-0.044129	-0.0821445	0.002058	-0.148503	-0.133848	-0.337252	
0.700556	1.35193	0	0	-3.92752	2.02706	0.407315	-0.735112	4.64398	1.12041	0.336376	-0.465557	15.8626	-31.1119	-0.0691375	0.0279308	0.0908573	0.446898	-0.105642	0.28087	0.202591	-0.104328	0.076777	0.0103458	-0.003397	0.203507	0.0581385	0.13483	0.108276	-0.0906508	-0.0457745	-0.0994713	0.010378	-0.172017	-0.138944	-0.348556	
0.701118	1.35345	0	0	-7.40335	4.29824	0.410955	-0.73168	4.05254	1.50687	0.339607	-0.474687	15.3888	-29.7729	-0.083319	0.021504	0.07659	0.437749	-0.116848	0.268193	0.19856	-0.110465	0.076286	-0.011505	-0.007133	0.187091	0.044719	0.125899	0.117449	-0.116574	-0.04742	-0.116798	0.018698	-0.195531	-0.144041	-0.359859	
0.701951	1.3504	0	0	-7.40335	4.29824	0.409617	-0.727898	4.71343	0.924126	0.326224	-0.482292	14.9757	-28.6053	-0.0885947	0.013205	0.072013	0.425999	-0.11969	0.254093	0.191508	-0.108048	0.0651065	-0.0263002	-0.00366825	0.177299	0.0479718	0.116707	0.10102	-0.119093	-0.0448835	-0.123966	0.02202	-0.204919	-0.146589	-0.3655	
0.703141	1.3504	0	0	-7.40335	4.29824	0.408279	-0.724117	5.37432	0.341383	0.31284	-0.489897	14.5626	-27.4378	-0.0938705	0.004906	0.067436	0.414248	-0.122533	0.239992	0.184455	-0.105631	0.053927	-0.0410955	-0.0002035	0.167507	0.0512245	0.107514	0.0845905	-0.121613	-0.042347	-0.131135	0.025342	-0.214308	-0.149137	-0.37114	
0.704625	1.34888	0	0	-7.40335	4.29824	0.406941	-0.720335	6.03521	-0.241359	0.299457	-0.497502	14.1495	-26.2703	-0.0991463	-0.003393	0.062859	0.402498	-0.125376	0.225892	0.177403	-0.103215	0.0427475	-0.0558908	0.00326125	0.157714	0.0544772	0.0983215	0.0681613	-0.124132	-0.0398105	-0.138303	0.028664	-0.223696	-0.151684	-0.376781	
0.706298	1.35651	0	0	-7.40335	4.29824	0.405603	-0.716553	6.6961	-0.824102	0.286074	-0.505107	13.7364	-25.1028	-0.104422	-0.011692	0.058282	0.390747	-0.128218	0.211792	0.170351	-0.100798	0.031568	-0.070686	0.006726	0.147922	0.05773	0.089129	0.051732	-0.126651	-0.037274	-0.145472	0.031986	-0.233084	-0.154232	-0.382422	
0.708056	1.35193	0	0	-7.2325	3.81539	0.406941	-0.720335	6.10466	-0.437644	0.277933	-0.516099	13.3818	-24.1006	-0.0954322	-0.037099	0.057085	0.369476	-0.137571	0.194036	0.167335	-0.109772	0.0310515	-0.0923778	0.00297475	0.131588	0.0443352	0.0802453	0.059341	-0.148155	-0.0431543	-0.150805	0.0229345	-0.23438	-0.157898	-0.384892	
0.709794	1.35345	0	0	-7.06165	3.33254	0.408279	-0.724117	5.51323	-0.051186	0.269792	-0.52709	13.0272	-23.0985	-0.0864425	-0.062506	0.055888	0.348206	-0.146925	0.176281	0.16432	-0.118747	0.030535	-0.11407	-0.0007765	0.115255	0.0309405	0.0713615	0.06695	-0.169659	-0.0490345	-0.156138	0.013883	-0.235675	-0.161565	-0.387362	
0.711408	1.35651	0	0	-6.8908	2.84969	0.409617	-0.727898	4.92179	0.335272	0.261652	-0.538081	12.6726	-22.0964	-0.0774528	-0.087913	0.054691	0.326935	-0.156278	0.158525	0.161305	-0.127722	0.0300185	-0.135761	-0.00452775	0.0989215	0.0175457	0.0624777	0.074559	-0.191163	-0.0549147	-0.161471	0.0048315	-0.236971	-0.165232	-0.389832	
0.71281	1.35956	0	0	-6.71995	2.36684	0.410955	-0.73168	4.33035	0.72173	0.253511	-0.549073	12.318	-21.0943	-0.068463	-0.11332	0.053494	0.305664	-0.165631	0.140769	0.158289	-0.136696	0.029502	-0.157453	-0.008279	0.082588	0.004151	0.053594	0.082168	-0.212667	-0.060795	-0.166804	-0.00422	-0.238266	-0.168898	-0.392302	
0.71394	1.36261	0	0	-6.71995	2.36684	0.414598	-0.728244	4.33035	0.72173	0.258724	-0.552479	11.6202	-19.915	-0.0719583	-0.126622	0.039279	0.296629	-0.164835	0.116464	0.155273	-0.145653	0.0166547	-0.167362	-0.012036	0.0663095	-0.000106	0.042299	0.080032	-0.231057	-0.0666568	-0.183116	-0.0128072	-0.25424	-0.172872	-0.406709	
0.714746	1.36108	0	0	-6.71995	2.36684	0.418241	-0.724808	4.33035	0.72173	0.263937	-0.555886	10.9224	-18.7356	-0.0754535	-0.139925	0.025064	0.287594	-0.164039	0.09216	0.152257	-0.15461	0.0038075	-0.177271	-0.015793	0.050031	-0.004363	0.031004	0.077896	-0.249448	-0.0725185	-0.199428	-0.0213945	-0.270213	-0.176845	-0.421116	
0.715172	1.36719	0	0	-6.71995	2.36684	0.421883	-0.721372	4.33035	0.72173	0.269149	-0.559292	10.2247	-17.5563	-0.0789487	-0.153228	0.010849	0.278559	-0.163243	0.0678555	0.149241	-0.163566	-0.00903975	-0.187181	-0.01955	0.0337525	-0.00862	0.019709	0.07576	-0.267838	-0.0783802	-0.21574	-0.0299818	-0.286187	-0.180819	-0.435523	
0.715163	1.36108	0	0	-6.71995	2.36684	0.425526	-0.717936	4.33035	0.72173	0.274362	-0.562698	9.52689	-16.377	-0.082444	-0.16653	-0.003366	0.269524	-0.162447	0.043551	0.146225	-0.172523	-0.021887	-0.19709	-0.023307	0.017474	-0.012877	0.008414	0.073624	-0.286229	-0.084242	-0.232052	-0.038569	-0.302161	-0.184793	-0.44993	
0.71467	1.37024	0	0	-6.71995	2.36684	0.42649	-0.706919	7.80194	-9.08952	0.269149	-0.559292	0.306388	-10.2561	-0.0770742	-0.181705	-0.0079375	0.257887	-0.167127	0.0347475	0.15628	-0.183459	-0.024101	-0.213898	-0.0198648	0.00774575	-0.00802675	-0.00529375	0.0781675	-0.299069	-0.0817153	-0.250139	-0.034439	-0.313833	-0.183994	-0.464993	
0.713737	1.33362	0	0	-6.71995	2.36684	0.427454	-0.695902	11.2735	-18.9008	0.263937	-0.555886	-8.91412	-4.13518	-0.0717045	-0.196881	-0.012509	0.24625	-0.171807	0.025944	0.166335	-0.194395	-0.026315	-0.230707	-0.0164225	-0.0019825	-0.0031765	-0.0190015	0.082711	-0.31191	-0.0791885	-0.268226	-0.030309	-0.325506	-0.183196	-0.480056	
0.71249	1.34888	0	0	-6.71995	2.36684	0.428417	-0.684885	14.7451	-28.712	0.258724	-0.552479	-18.1346	1.98572	-0.0663347	-0.212056	-0.0170805	0.234614	-0.176486	0.0171405	0.17639	-0.205332	-0.028529	-0.247515	-0.0129803	-0.0117108	0.00167375	-0.0327093	0.0872545	-0.32475	-0.0766618	-0.286314	-0.026179	-0.337179	-0.182397	-0.495119	
0.711058	1.36261	0	0	-6.71995	2.36684	0.429381	-0.673868	18.2167	-38.5233	0.253511	-0.549073	-27.3551	8.10662	-0.060965	-0.227231	-0.021652	0.222977	-0.181166	0.008337	0.186445	-0.216268	-0.030743	-0.264324	-0.009538	-0.021439	0.006524	-0.046417	0.091798	-0.337591	-0.074135	-0.304401	-0.022049	-0.348851	-0.181598	-0.510182	
0.709571	1.36566	0	0	-6.55786	1.90876	0.433402	-0.685233	4.85281	-35.5225	0.253653	-0.560793	-31.4166	3.05832	-0.0662602	-0.235418	-0.02287	0.201896	-0.182215	-0.0107012	0.182415	-0.222358	-0.0257125	-0.278541	-0.0167428	-0.0279348	0.00813925	-0.0509815	0.086618	-0.347347	-0.0791695	-0.312047	-0.00888025	-0.359249	-0.173477	-0.520329	
0.708158	1.36261	5	0	-6.39578	1.45068	0.437423	-0.696597	-8.5111	-32.5218	0.253795	-0.572512	-35.478	-1.98999	-0.0715555	-0.243605	-0.024088	0.180814	-0.183264	-0.0297395	0.178385	-0.228449	-0.020682	-0.292758	-0.0239475	-0.0344305	0.0097545	-0.055546	0.081438	-0.357102	-0.084204	-0.319693	0.0042885	-0.369647	-0.165355	-0.530476	
0.706931	1.39007	0	0	-6.23369	0.992598	0.441445	-0.707962	-21.875	-29.5211	0.253936	-0.584232	-39.5395	-7.03829	-0.0768507	-0.251791	-0.025306	0.159733	-0.184313	-0.0487777	0.174354	-0.23454	-0.0156515	-0.306975	-0.0311522	-0.0409262	0.0113697	-0.0601105	0.076258	-0.366857	-0.0892385	-0.327339	0.0174573	-0.380045	-0.157233	-0.540623	
0.705889	1.37634	0	0	-6.0716	0.534519	0.445466	-0.719326	-35.2389	-26.5204	0.254078	-0.595952	-43.6009	-12.0866	-0.082146	-0.259978	-0.026524	0.138652	-0.185362	-0.067816	0.170324	-0.24063	-0.010621	-0.321192	-0.038357	-0.047422	0.012985	-0.064675	0.071078	-0.376613	-0.094273	-0.334985	0.030626	-0.390443	-0.149112	-0.55077	
0.704996	1.37176	0	0	-8.38357	1.71022	0.453134	-0.727247	-40.6456	-26.9943	0.259288	-0.599356	-46.9123	-14.3924	-0.075013	-0.280137	-0.0311012	0.127097	-0.179928	-0.0831738	0.165294	-0.243879	-0.008946	-0.325926	-0.0314948	-0.0668152	0.0178253	-0.0783548	0.080128	-0.40219	-0.0942862	-0.356796	0.0380448	-0.411409	-0.158996	-0.561225	
0.704213	1.37176	0	0	-10.6955	2.88593	0.460802	-0.735167	-46.0523	-27.4682	0.264497	-0.602761	-50.2238	-16.6982	-0.06788	-0.300296	-0.0356785	0.115541	-0.174494	-0.0985315	0.160264	-0.247129	-0.007271	-0.330659	-0.0246325	-0.0862085	0.0226655	-0.0920345	0.089178	-0.427766	-0.0942995	-0.378606	0.0454635	-0.432376	-0.168881	-0.57168	
0.703503	1.36719	0	0	-13.0075	4.06163	0.46847	-0.743088	-51.4589	-27.9422	0.269707	-0.606165	-53.5352	-19.0039	-0.060747	-0.320456	-0.0402557	0.103986	-0.16906	-0.113889	0.155234	-0.250378	-0.005596	-0.335393	-0.0177703	-0.105602	0.0275057	-0.105714	0.098228	-0.453343	-0.0943128	-0.400417	0.0528822	-0.453342	-0.178766	-0.582135	
0.702829	1.36413	0	0	-15.3195	5.23733	0.476138	-0.751008	-56.8656	-28.4161	0.274916	-0.609569	-56.8466	-21.3097	-0.053614	-0.340615	-0.044833	0.092431	-0.163626	-0.129247	0.150204	-0.253627	-0.003921	-0.340127	-0.010908	-0.124995	0.032346	-0.119394	0.107278	-0.47892	-0.094326	-0.422228	0.060301	-0.474309	-0.18865	-0.59259	
0.702159	1.35193	0	0	-15.1725	4.82188	0.48479	-0.747928	-59.3553	-28.9866	0.275848	-0.600878	-58.555	-22.3168	-0.053614	-0.340615	-0.0431615	0.087707	-0.171931	-0.127751	0.152208	-0.25929	0.00836925	-0.351795	0.0048785	-0.142753	0.0430818	-0.126409	0.102084	-0.488604	-0.0993607	-0.429822	0.0537157	-0.482517	-0.185659	-0.613824	
0.701481	1.36566	0	0	-15.0255	4.40643	0.493443	-0.744849	-61.8451	-29.5572	0.276781	-0.592187	-60.2634	-23.324	-0.053614	-0.340615	-0.04149	0.082983	-0.180237	-0.126255	0.154212	-0.264953	0.0206595	-0.363463	0.020665	-0.160511	0.0538175	-0.133424	0.0968895	-0.498287	-0.104396	-0.437415	0.0471305	-0.490725	-0.182667	-0.635058	
0.700782	1.36871	0	0	-14.8785	3.99098	0.502095	-0.741769	-64.3348	-30.1277	0.277714	-0.583496	-61.9718	-24.3311	-0.053614	-0.340615	-0.0398185	0.078259	-0.188543	-0.124759	0.156216	-0.270616	0.0329497	-0.375132	0.0364515	-0.178268	0.0645532	-0.140439	0.0916952	-0.507971	-0.10943	-0.445009	0.0405452	-0.498933	-0.179676	-0.656292	
0.70005	1.34888	0	0	-14.7315	3.57553	0.510747	-0.738689	-66.8246	-30.6982	0.278646	-0.574805	-63.6802	-25.3382	-0.053614	-0.340615	-0.038147	0.073535	-0.196848	-0.123263	0.15822	-0.276279	0.04524	-0.3868	0.052238	-0.196026	0.075289	-0.147454	0.086501	-0.517655	-0.114465	-0.452603	0.03396	-0.507141	-0.176684	-0.677526	
0.699273	1.36413	0	0	-14.8785	3.99098	0.500755	-0.737984	-66.2228	-30.3144	0.270504	-0.585752	-63.0577	-24.9197	-0.0500533	-0.350678	-0.0477335	0.0761692	-0.19504	-0.128374	0.16826	-0.287191	0.0346238	-0.379863	0.052238	-0.196026	0.0704485	-0.133774	0.0768055	-0.514585	-0.110279	-0.453526	0.0331382	-0.504818	-0.190984	-0.675398	
0.69844	1.32294	0	0	-15.0255	4.40643	0.490764	-0.737278	-65.621	-29.9306	0.262362	-0.596699	-62.4352	-24.5012	-0.0464925	-0.360741	-0.05732	0.0788035	-0.193232	-0.133484	0.178301	-0.298102	0.0240075	-0.372926	0.052238	-0.196026	0.065608	-0.120094	0.06711	-0.511516	-0.106093	-0.454448	0.0323165	-0.502495	-0.205283	-0.67327	
0.697558	1.33514	0	0	-15.1725	4.82188	0.480772	-0.736573	-65.0192	-29.5467	0.25422	-0.607645	-61.8128	-24.0826	-0.0429318	-0.370803	-0.0669065	0.0814378	-0.191423	-0.138595	0.188341	-0.309013	0.0133913	-0.36599	0.052238	-0.196026	0.0607675	-0.106415	0.0574145	-0.508446	-0.101906	-0.455371	0.0314948	-0.500172	-0.219583	-0.671142	
0.696645	1.33514	0	0	-15.3195	5.23733	0.470781	-0.735868	-64.4174	-29.1629	0.246078	-0.618592	-61.1903	-23.6641	-0.039371	-0.380866	-0.076493	0.084072	-0.189615	-0.143705	0.198381	-0.319925	0.002775	-0.359053	0.052238	-0.196026	0.055927	-0.092735	0.047719	-0.505376	-0.09772	-0.456294	0.030673	-0.497849	-0.233882	-0.669014	
0.695719	1.33514	0	0	-15.3195	5.23733	0.462144	-0.73895	-63.067	-28.3422	0.242078	-0.629891	-59.8247	-22.9043	-0.0446803	-0.388985	-0.0748235	0.0793533	-0.1943	-0.152417	0.193345	-0.323155	0.00444825	-0.363782	0.0432985	-0.19762	0.0484192	-0.0948423	0.047719	-0.505376	-0.108593	-0.447376	0.0228632	-0.489173	-0.25036	-0.66065	
0.694798	1.33209	0	0	-15.3195	5.23733	0.453507	-0.742032	-61.7166	-27.5214	0.238077	-0.641189	-58.4591	-22.1446	-0.0499895	-0.397103	-0.073154	0.0746345	-0.198984	-0.16113	0.188308	-0.326385	0.0061215	-0.368511	0.034359	-0.199213	0.0409115	-0.0969495	0.047719	-0.505376	-0.119465	-0.438458	0.0150535	-0.480497	-0.266838	-0.652286	
0.693901	1.3443	0	0	-15.3195	5.23733	0.44487	-0.745115	-60.3662	-26.7007	0.234077	-0.652487	-57.0935	-21.3848	-0.0552988	-0.405222	-0.0714845	0.0699157	-0.203669	-0.169843	0.183272	-0.329616	0.00779475	-0.37324	0.0254195	-0.200806	0.0334037	-0.0990567	0.047719	-0.505376	-0.130337	-0.429541	0.00724375	-0.471821	-0.283317	-0.643923	
0.693061	1.34125	0	0	-15.3195	5.23733	0.436233	-0.748197	-59.0158	-25.88	0.230077	-0.663786	-55.7279	-20.6251	-0.060608	-0.413341	-0.069815	0.065197	-0.208353	-0.178555	0.178235	-0.332846	0.009468	-0.377969	0.01648	-0.2024	0.025896	-0.101164	0.047719	-0.505376	-0.14121	-0.420623	-0.000566	-0.463145	-0.299795	-0.635559	
0.69235	1.34125	0	0	-12.8533	3.62591	0.432588	-0.751626	-57.6991	-25.088	0.231143	-0.666798	-54.4074	-19.9212	-0.0694613	-0.411414	-0.0426828	0.0619913	-0.209434	-0.197426	0.179235	-0.335672	-0.0372693	-0.38368	0.01648	-0.2024	0.0275085	-0.105721	0.0507227	-0.513865	-0.137873	-0.430054	-0.005082	-0.463767	-0.302332	-0.641107	
0.691849	1.33972	0	0	-10.3872	2.01448	0.428943	-0.755055	-56.3824	-24.296	0.232208	-0.669811	-53.0869	-19.2173	-0.0783145	-0.409488	-0.0155505	0.0587855	-0.210514	-0.216297	0.180235	-0.338498	-0.0840065	-0.389391	0.01648	-0.2024	0.029121	-0.110279	0.0537265	-0.522355	-0.134537	-0.439484	-0.009598	-0.46439	-0.30487	-0.646655	
0.691639	1.33972	0	0	-7.92104	0.403049	0.425298	-0.758485	-55.0657	-23.5041	0.233274	-0.672824	-51.7664	-18.5134	-0.0871677	-0.407561	0.0115818	0.0555797	-0.211595	-0.235169	0.181235	-0.341323	-0.130744	-0.395102	0.01648	-0.2024	0.0307335	-0.114837	0.0567303	-0.530844	-0.1312	-0.448914	-0.014114	-0.465012	-0.307407	-0.652203	
0.6918	1.33819	0	0	-5.4549	-1.20838	0.421653	-0.761914	-53.7489	-22.7121	0.23434	-0.675836	-50.446	-17.8095	-0.096021	-0.405634	0.038714	0.052374	-0.212676	-0.25404	0.182235	-0.344149	-0.177481	-0.400813	0.01648	-0.2024	0.032346	-0.119394	0.059734	-0.539333	-0.127863	-0.458345	-0.01863	-0.465634	-0.309944	-0.657751	
0.692404	1.33972	0	0	-7.92104	0.403049	0.416675	-0.761565	-52.3875	-22.0496	0.22608	-0.675068	-49.2177	-17.0855	-0.106637	-0.398697	0.0483425	0.049718	-0.220956	-0.252538	0.189273	-0.346575	-0.174155	-0.410214	0.01648	-0.2024	0.0430818	-0.126409	0.059734	-0.539333	-0.131211	-0.45978	-0.019452	-0.463311	-0.311049	-0.654628	
0.693376	1.34277	0	0	-10.3872	2.01448	0.411697	-0.761216	-51.0261	-21.3871	0.21782	-0.674301	-47.9894	-16.3614	-0.117253	-0.39176	0.057971	0.047062	-0.229237	-0.251036	0.196311	-0.349002	-0.170828	-0.419614	0.01648	-0.2024	0.0538175	-0.133424	0.059734	-0.539333	-0.134558	-0.461214	-0.020274	-0.460987	-0.312154	-0.651504	
0.69452	1.34582	0	0	-12.8533	3.62591	0.406718	-0.760866	-49.6647	-20.7247	0.20956	-0.673534	-46.7611	-15.6374	-0.12787	-0.384824	0.0675995	0.044406	-0.237517	-0.249535	0.203349	-0.351428	-0.167502	-0.429014	0.01648	-0.2024	0.0645532	-0.140439	0.059734	-0.539333	-0.137905	-0.462649	-0.021096	-0.458664	-0.313259	-0.648381	
0.695638	1.34735	0	0	-15.3195	5.23733	0.40174	-0.760517	-48.3033	-20.0622	0.2013	-0.672766	-45.5328	-14.9134	-0.138486	-0.377887	0.077228	0.04175	-0.245797	-0.248033	0.210387	-0.353855	-0.164176	-0.438415	0.01648	-0.2024	0.075289	-0.147454	0.059734	-0.539333	-0.141253	-0.464084	-0.021918	-0.45634	-0.314364	-0.645258	
0.696531	1.34888	0	0	-13.0075	4.06163	0.397131	-0.774902	-47.0297	-19.3773	0.196243	-0.681022	-44.2281	-14.3214	-0.134937	-0.387916	0.069272	0.0396795	-0.243999	-0.253115	0.202349	-0.348603	-0.167502	-0.429014	0.0254195	-0.200806	0.0629407	-0.135881	0.0582325	-0.535089	-0.138739	-0.460292	-0.0198715	-0.448739	-0.311828	-0.639707	
0.697	1.34735	0	0	-10.6955	2.88593	0.392521	-0.789287	-45.7562	-18.6925	0.191185	-0.689277	-42.9235	-13.7295	-0.131388	-0.397944	0.061316	0.037609	-0.242201	-0.258196	0.194311	-0.343351	-0.170828	-0.419614	0.034359	-0.199213	0.0505925	-0.124309	0.056731	-0.530846	-0.136225	-0.456501	-0.017825	-0.441137	-0.309292	-0.634155	
0.696929	1.3504	0	0	-8.38357	1.71022	0.387912	-0.803671	-44.4826	-18.0076	0.186128	-0.697533	-41.6188	-13.1376	-0.12784	-0.407973	0.05336	0.0355385	-0.240403	-0.263277	0.186273	-0.338098	-0.174155	-0.410214	0.0432985	-0.19762	0.0382443	-0.112737	0.0552295	-0.526602	-0.133712	-0.452709	-0.0157785	-0.433535	-0.306756	-0.628604	
0.696533	1.34888	0	0	-6.0716	0.534519	0.383303	-0.818056	-43.209	-17.3227	0.18107	-0.705789	-40.3141	-12.5457	-0.124291	-0.418002	0.045404	0.033468	-0.238605	-0.268359	0.178235	-0.332846	-0.177481	-0.400813	0.052238	-0.196026	0.025896	-0.101164	0.053728	-0.522359	-0.131198	-0.448918	-0.013732	-0.425934	-0.30422	-0.623053	
0.696111	1.35345	0	0	-8.53774	2.14595	0.380998	-0.825232	-41.8842	-16.7493	0.176949	-0.705406	-39.1244	-11.936	-0.118976	-0.433024	0.045404	0.033468	-0.24508	-0.271935	0.179235	-0.335672	-0.166943	-0.407698	0.0415883	-0.192785	0.0216192	-0.112374	0.0455465	-0.523536	-0.135392	-0.45885	-0.0211125	-0.431836	-0.311501	-0.627905	
0.695961	1.35193	0	0	-11.0039	3.75738	0.378692	-0.832407	-40.5594	-16.1758	0.172828	-0.705022	-37.9346	-11.3264	-0.11366	-0.448046	0.045404	0.033468	-0.251554	-0.27551	0.180235	-0.338498	-0.156406	-0.414584	0.0309385	-0.189545	0.0173425	-0.123584	0.037365	-0.524714	-0.139586	-0.468782	-0.028493	-0.437739	-0.318781	-0.632757	
0.696382	1.35193	0	0	-13.47	5.3688	0.376387	-0.839583	-39.2347	-15.6024	0.168706	-0.704639	-36.7449	-10.7167	-0.108345	-0.463068	0.045404	0.033468	-0.258028	-0.279086	0.181235	-0.341323	-0.145868	-0.421469	0.0202888	-0.186305	0.0130658	-0.134794	0.0291835	-0.525891	-0.143779	-0.478715	-0.0358735	-0.443642	-0.326062	-0.63761	
0.697666	1.3504	0	0	-15.9362	6.98023	0.374082	-0.846758	-37.9099	-15.029	0.164585	-0.704256	-35.5551	-10.107	-0.10303	-0.47809	0.045404	0.033468	-0.264503	-0.282662	0.182235	-0.344149	-0.13533	-0.428355	0.009639	-0.183064	0.008789	-0.146004	0.021002	-0.527068	-0.147973	-0.488647	-0.043254	-0.449544	-0.333342	-0.642462	
0.699867	1.35345	0	0	-13.3158	4.93308	0.367786	-0.842644	-36.8005	-14.359	0.167643	-0.701634	-34.3765	-9.54707	-0.10303	-0.47809	0.0420582	0.0429235	-0.256232	-0.284165	0.174205	-0.338902	-0.13533	-0.428355	0.0113492	-0.187898	0.012007	-0.155099	0.0240015	-0.535545	-0.149654	-0.49478	-0.0469408	-0.452491	-0.331133	-0.648705	
0.702756	1.34888	0	0	-10.6955	2.88593	0.36149	-0.838529	-35.6912	-13.689	0.170701	-0.699012	-33.1979	-8.98709	-0.10303	-0.47809	0.0387125	0.052379	-0.24796	-0.285668	0.166174	-0.333654	-0.13533	-0.428355	0.0130595	-0.192732	0.015225	-0.164193	0.027001	-0.544022	-0.151334	-0.500912	-0.0506275	-0.455438	-0.328924	-0.654948	
0.706082	1.35498	0	0	-8.07522	0.838774	0.355193	-0.834415	-34.5818	-13.019	0.173758	-0.696389	-32.0193	-8.42712	-0.10303	-0.47809	0.0353668	0.0618345	-0.239688	-0.28717	0.158143	-0.328407	-0.13533	-0.428355	0.0147698	-0.197566	0.018443	-0.173287	0.0300005	-0.552499	-0.153015	-0.507045	-0.0543142	-0.458386	-0.326715	-0.661191	
0.709597	1.3504	0	0	-5.4549	-1.20838	0.348897	-0.830301	-33.4725	-12.349	0.176816	-0.693767	-30.8407	-7.86714	-0.10303	-0.47809	0.032021	0.07129	-0.231417	-0.288673	0.150113	-0.32316	-0.13533	-0.428355	0.01648	-0.2024	0.021661	-0.182382	0.033	-0.560976	-0.154696	-0.513178	-0.058001	-0.461333	-0.324506	-0.667434	
0.713051	1.3504	0	0	-5.60907	-0.772655	0.330036	-0.817977	-32.1706	-11.872	0.164462	-0.692624	-29.6556	-7.47868	-0.10303	-0.47809	0.0399738	0.0733705	-0.231417	-0.288673	0.150113	-0.32316	-0.13866	-0.418944	0.0288412	-0.210477	0.018443	-0.173287	0.033	-0.560976	-0.151351	-0.511749	-0.0649697	-0.454994	-0.32561	-0.664313	
0.716213	1.35498	0	0	-5.76325	-0.33693	0.311175	-0.805652	-30.8688	-11.395	0.152107	-0.69148	-28.4705	-7.09021	-0.10303	-0.47809	0.0479265	0.075451	-0.231417	-0.288673	0.150113	-0.32316	-0.14199	-0.409534	0.0412025	-0.218554	0.015225	-0.164193	0.033	-0.560976	-0.148006	-0.51032	-0.0719385	-0.448656	-0.326715	-0.661192	
0.719007	1.3504	0	0	-5.91743	0.0987945	0.292313	-0.793328	-29.5669	-10.918	0.139753	-0.690336	-27.2855	-6.70175	-0.10303	-0.47809	0.0558792	0.0775315	-0.231417	-0.288673	0.150113	-0.32316	-0.14532	-0.400123	0.0535638	-0.226631	0.012007	-0.155099	0.033	-0.560976	-0.14466	-0.508892	-0.0789072	-0.442318	-0.327819	-0.658071	
0.721451	1.34888	0	0	-6.0716	0.534519	0.273452	-0.781004	-28.2651	-10.441	0.127398	-0.689193	-26.1004	-6.31329	-0.10303	-0.47809	0.063832	0.079612	-0.231417	-0.288673	0.150113	-0.32316	-0.14865	-0.390713	0.065925	-0.234708	0.008789	-0.146004	0.033	-0.560976	-0.141315	-0.507463	-0.085876	-0.435979	-0.328923	-0.65495	
0.723562	1.34888	0	0	-6.0716	0.534519	0.277443	-0.792282	-27.2783	-9.83399	0.133638	-0.695579	-25.1151	-5.83956	-0.111863	-0.476164	0.063832	0.079612	-0.229621	-0.293749	0.152112	-0.328809	-0.14532	-0.400123	0.069343	-0.244368	0.00290575	-0.152645	0.0344988	-0.565211	-0.147156	-0.501838	-0.0875197	-0.431334	-0.332238	-0.645581	
0.725359	1.3504	0	0	-6.0716	0.534519	0.281434	-0.803561	-26.2915	-9.22701	0.139879	-0.701965	-24.1298	-5.36584	-0.120696	-0.474237	0.063832	0.079612	-0.227825	-0.298824	0.15411	-0.334457	-0.14199	-0.409534	0.072761	-0.254028	-0.0029775	-0.159285	0.0359975	-0.569447	-0.152997	-0.496214	-0.0891635	-0.426689	-0.335554	-0.636211	
0.72686	1.3504	0	0	-6.0716	0.534519	0.285424	-0.814839	-25.3047	-8.62003	0.14612	-0.708351	-23.1445	-4.89212	-0.129529	-0.472311	0.063832	0.079612	-0.226029	-0.303899	0.156109	-0.340106	-0.13866	-0.418944	0.076179	-0.263687	-0.00886075	-0.165926	0.0374963	-0.573683	-0.158838	-0.49059	-0.0908073	-0.422043	-0.338869	-0.626842	
0.728121	1.35345	0	0	-6.0716	0.534519	0.289415	-0.826117	-24.3179	-8.01306	0.15236	-0.714737	-22.1591	-4.4184	-0.138362	-0.470384	0.063832	0.079612	-0.224233	-0.308975	0.158108	-0.345755	-0.13533	-0.428355	0.079597	-0.273347	-0.014744	-0.172567	0.038995	-0.577918	-0.164679	-0.484965	-0.092451	-0.417398	-0.342184	-0.617472	
0.729414	1.34888	0	0	-5.91743	0.0987945	0.285424	-0.814839	-23.108	-7.73609	0.148108	-0.702721	-21.0913	-4.14962	-0.125991	-0.482311	0.063832	0.079612	-0.212359	-0.320634	0.159107	-0.348578	-0.132004	-0.437756	0.0689435	-0.270096	-0.00992575	-0.186184	0.0434868	-0.590612	-0.161352	-0.494368	-0.0875225	-0.431327	-0.344714	-0.623022	
0.731082	1.3504	0	0	-5.76325	-0.33693	0.281434	-0.803561	-21.8981	-7.45913	0.143856	-0.690706	-20.0235	-3.88085	-0.113619	-0.494238	0.063832	0.079612	-0.200485	-0.332292	0.160106	-0.351401	-0.128678	-0.447156	0.05829	-0.266845	-0.0051075	-0.199801	0.0479785	-0.603307	-0.158025	-0.503771	-0.082594	-0.445256	-0.347244	-0.628572	
0.733468	1.3504	0	0	-5.60907	-0.772655	0.277443	-0.792282	-20.6882	-7.18217	0.139605	-0.67869	-18.9557	-3.61207	-0.101248	-0.506165	0.063832	0.079612	-0.18861	-0.343951	0.161104	-0.354224	-0.125351	-0.456557	0.0476365	-0.263594	-0.00028925	-0.213418	0.0524702	-0.616002	-0.154697	-0.513174	-0.0776655	-0.459184	-0.349775	-0.634122	
0.736917	1.34735	0	0	-5.4549	-1.20838	0.273452	-0.781004	-19.4783	-6.9052	0.135353	-0.666675	-17.8878	-3.3433	-0.088876	-0.518092	0.063832	0.079612	-0.176736	-0.35561	0.162103	-0.357047	-0.122025	-0.465958	0.036983	-0.260343	0.004529	-0.227035	0.056962	-0.628696	-0.15137	-0.522577	-0.072737	-0.473113	-0.352305	-0.639672	
0.741772	1.34888	0	0	-5.4549	-1.20838	0.275739	-0.773816	-18.5993	-6.4426	0.132161	-0.657652	-17.0029	-3.02752	-0.0906447	-0.513093	0.062156	0.0843485	-0.178531	-0.350537	0.156077	-0.357448	-0.100911	-0.479754	0.0403955	-0.269987	0.004529	-0.227035	0.0472885	-0.625625	-0.15137	-0.522577	-0.082557	-0.472044	-0.346459	-0.643491	
0.748208	1.34888	0	0	-5.4549	-1.20838	0.278025	-0.766628	-17.7202	-5.98001	0.128968	-0.64863	-16.1179	-2.71173	-0.0924135	-0.508094	0.06048	0.089085	-0.180326	-0.345464	0.150051	-0.357849	-0.079796	-0.493551	0.043808	-0.279632	0.004529	-0.227035	0.037615	-0.622555	-0.15137	-0.522577	-0.092377	-0.470975	-0.340614	-0.647311	
0.755646	1.35193	0	0	-5.4549	-1.20838	0.280312	-0.759441	-16.8411	-5.51741	0.125776	-0.639607	-15.233	-2.39595	-0.0941822	-0.503095	0.058804	0.0938215	-0.182121	-0.340392	0.144025	-0.35825	-0.0586815	-0.507348	0.0472205	-0.289276	0.004529	-0.227035	0.0279415	-0.619484	-0.15137	-0.522577	-0.102197	-0.469906	-0.334769	-0.651131	
0.76329	1.34888	0	0	-5.4549	-1.20838	0.282599	-0.752253	-15.962	-5.05481	0.122584	-0.630585	-14.348	-2.08016	-0.095951	-0.498096	0.057128	0.098558	-0.183916	-0.335319	0.137999	-0.358651	-0.037567	-0.521144	0.050633	-0.29892	0.004529	-0.227035	0.018268	-0.616413	-0.15137	-0.522577	-0.112017	-0.468837	-0.328923	-0.65495	
0.770347	1.3504	0	0	-5.4549	-1.20838	0.285263	-0.759783	-15.0429	-4.78106	0.125776	-0.639607	-13.3805	-1.94336	-0.0924143	-0.508091	0.0638265	0.0796273	-0.178534	-0.350529	0.132976	-0.361872	-0.0359052	-0.525841	0.0416985	-0.300489	-0.00777175	-0.21551	0.0197632	-0.620638	-0.148856	-0.518798	-0.106699	-0.47053	-0.331133	-0.648705	
0.776021	1.34582	0	0	-5.4549	-1.20838	0.287928	-0.767313	-14.1239	-4.50731	0.128968	-0.64863	-12.413	-1.80655	-0.0888775	-0.518087	0.070525	0.0606965	-0.173152	-0.365738	0.127954	-0.365093	-0.0342435	-0.530537	0.032764	-0.302057	-0.0200725	-0.203985	0.0212585	-0.624864	-0.146342	-0.51502	-0.101381	-0.472223	-0.333342	-0.642459	
0.779519	1.34735	0	0	-5.4549	-1.20838	0.290592	-0.774843	-13.2048	-4.23355	0.132161	-0.657652	-11.4455	-1.66974	-0.0853407	-0.528082	0.0772235	0.0417657	-0.167771	-0.380948	0.122931	-0.368314	-0.0325817	-0.535234	0.0238295	-0.303625	-0.0323732	-0.192459	0.0227537	-0.629089	-0.143829	-0.511242	-0.0960623	-0.473916	-0.335552	-0.636214	
0.780145	1.35193	0	0	-5.4549	-1.20838	0.293256	-0.782373	-12.2858	-3.9598	0.135353	-0.666675	-10.478	-1.53293	-0.081804	-0.538077	0.083922	0.022835	-0.162389	-0.396158	0.117909	-0.371535	-0.03092	-0.53993	0.014895	-0.305194	-0.044674	-0.180934	0.024249	-0.633315	-0.141315	-0.507463	-0.090744	-0.475609	-0.337762	-0.629969	
0.778165	1.34888	0	0	-5.4549	-1.20838	0.288305	-0.782031	-11.4312	-3.7095	0.135353	-0.666675	-9.91419	-1.26219	-0.0871095	-0.546121	0.0776345	0.016048	-0.160597	-0.401222	0.122891	-0.385614	-0.0259397	-0.554005	0.0183003	-0.314818	-0.0382578	-0.199067	0.0190678	-0.642908	-0.145511	-0.517364	-0.102591	-0.482113	-0.33919	-0.638636	
0.774378	1.34582	0	0	-5.4549	-1.20838	0.283354	-0.781689	-10.5767	-3.4592	0.135353	-0.666675	-9.35039	-0.99145	-0.092415	-0.554164	0.071347	0.009261	-0.158805	-0.406286	0.127873	-0.399694	-0.0209595	-0.56808	0.0217055	-0.324441	-0.0318415	-0.2172	0.0138865	-0.652501	-0.149707	-0.527265	-0.114437	-0.488617	-0.340617	-0.647302	
0.769591	1.34582	0	0	-5.4549	-1.20838	0.278403	-0.781346	-9.72217	-3.20889	0.135353	-0.666675	-8.7866	-0.720708	-0.0977205	-0.562207	0.0650595	0.002474	-0.157013	-0.41135	0.132855	-0.413773	-0.0159793	-0.582155	0.0251108	-0.334064	-0.0254252	-0.235333	0.00870525	-0.662095	-0.153903	-0.537166	-0.126283	-0.49512	-0.342044	-0.655968	
0.76461	1.34888	0	0	-5.4549	-1.20838	0.273452	-0.781004	-8.86763	-2.95859	0.135353	-0.666675	-8.2228	-0.449966	-0.103026	-0.570251	0.058772	-0.004313	-0.155221	-0.416414	0.137837	-0.427852	-0.010999	-0.59623	0.028516	-0.343688	-0.019009	-0.253466	0.003524	-0.671688	-0.158099	-0.547067	-0.13813	-0.501624	-0.343472	-0.664635	
0.760242	1.3443	0	0	-5.4549	-1.20838	0.279734	-0.785109	-8.09159	-2.86828	0.134289	-0.663668	-7.53728	-0.315705	-0.0906593	-0.582164	0.0637785	-0.0184622	-0.15164	-0.426534	0.140822	-0.436289	-0.018247	-0.598699	0.0353152	-0.362904	-0.0280892	-0.251014	0.00799675	-0.684328	-0.155608	-0.554105	-0.127092	-0.5195	-0.346004	-0.670171	
0.757235	1.34582	0	0	-5.4549	-1.20838	0.286017	-0.789214	-7.31554	-2.77796	0.133225	-0.660662	-6.85176	-0.181445	-0.0782925	-0.594077	0.068785	-0.0326115	-0.14806	-0.436654	0.143807	-0.444726	-0.025495	-0.601167	0.0421145	-0.38212	-0.0371695	-0.248562	0.0124695	-0.696969	-0.153118	-0.561144	-0.116054	-0.537376	-0.348536	-0.675707	
0.755632	1.34888	0	0	-5.4549	-1.20838	0.292299	-0.793319	-6.53949	-2.68764	0.132162	-0.657656	-6.16624	-0.0471838	-0.0659258	-0.60599	0.0737915	-0.0467607	-0.144479	-0.446773	0.146793	-0.453163	-0.032743	-0.603635	0.0489137	-0.401336	-0.0462497	-0.246109	0.0169422	-0.70961	-0.150627	-0.568182	-0.105016	-0.555253	-0.351068	-0.681243	
0.754992	1.34888	0	0	-5.4549	-1.20838	0.298582	-0.797424	-5.76344	-2.59733	0.131098	-0.654649	-5.48072	0.087077	-0.053559	-0.617903	0.078798	-0.06091	-0.140898	-0.456893	0.149778	-0.4616	-0.039991	-0.606104	0.055713	-0.420552	-0.05533	-0.243657	0.021415	-0.72225	-0.148137	-0.57522	-0.093978	-0.573129	-0.3536	-0.686779	
0.754867	1.34735	0	0	-5.4549	-1.20838	0.289052	-0.811412	-5.28477	-2.25573	0.129245	-0.671907	-4.89093	0.140755	-0.0553573	-0.635858	0.0791625	-0.086463	-0.152111	-0.468978	0.140725	-0.470795	-0.052805	-0.615709	0.050172	-0.431673	-0.0611977	-0.250254	0.0229045	-0.72646	-0.146478	-0.579909	-0.105416	-0.567431	-0.3536	-0.686779	
0.754808	1.34582	0	0	-5.4549	-1.20838	0.279522	-0.8254	-4.8061	-1.91412	0.127392	-0.689165	-4.30114	0.194432	-0.0571555	-0.653813	0.079527	-0.112016	-0.163324	-0.481063	0.131671	-0.47999	-0.065619	-0.625314	0.044631	-0.442793	-0.0670655	-0.256852	0.024394	-0.730669	-0.144818	-0.584599	-0.116854	-0.561733	-0.3536	-0.686779	
0.754366	1.34735	0	0	-5.4549	-1.20838	0.269992	-0.839387	-4.32742	-1.57252	0.12554	-0.706423	-3.71135	0.24811	-0.0589537	-0.671768	0.0798915	-0.137569	-0.174536	-0.493147	0.122617	-0.489186	-0.078433	-0.634919	0.03909	-0.453914	-0.0729333	-0.26345	0.0258835	-0.734879	-0.143159	-0.589288	-0.128292	-0.556035	-0.3536	-0.686779	
0.753122	1.34888	0	0	-5.4549	-1.20838	0.260462	-0.853375	-3.84875	-1.23091	0.123687	-0.723681	-3.12156	0.301787	-0.060752	-0.689723	0.080256	-0.163122	-0.185749	-0.505232	0.113564	-0.498381	-0.091247	-0.644524	0.033549	-0.465035	-0.078801	-0.270047	0.027373	-0.739089	-0.1415	-0.593977	-0.13973	-0.550337	-0.3536	-0.686779	
0.751066	1.34735	0	0	-5.4549	-1.20838	0.264441	-0.86462	-3.20881	-1.17538	0.117588	-0.728912	-2.73398	0.448596	-0.0660707	-0.6977	0.0772797	-0.179203	-0.186896	-0.523839	0.113501	-0.515569	-0.084643	-0.663188	0.0297018	-0.480903	-0.070815	-0.292616	0.020697	-0.744426	-0.144875	-0.606173	-0.145437	-0.560797	-0.352829	-0.701641	
0.748487	1.34735	0	0	-5.4549	-1.20838	0.26842	-0.875865	-2.56886	-1.11984	0.111489	-0.734142	-2.3464	0.595405	-0.0713895	-0.705677	0.0743035	-0.195283	-0.188043	-0.542447	0.113437	-0.532756	-0.078039	-0.681852	0.0258545	-0.496771	-0.062829	-0.315185	0.014021	-0.749764	-0.148249	-0.61837	-0.151144	-0.571257	-0.352058	-0.716503	
0.745684	1.34735	0	0	-5.4549	-1.20838	0.272399	-0.887111	-1.92892	-1.0643	0.105389	-0.739372	-1.95882	0.742213	-0.0767083	-0.713655	0.0713272	-0.211364	-0.189189	-0.561054	0.113374	-0.549944	-0.071435	-0.700515	0.0220072	-0.51264	-0.054843	-0.337754	0.007345	-0.755101	-0.151624	-0.630566	-0.156851	-0.581717	-0.351287	-0.731366	
0.742955	1.34582	0	0	-5.4549	-1.20838	0.276378	-0.898356	-1.28897	-1.00877	0.09929	-0.744603	-1.57124	0.889022	-0.082027	-0.721632	0.068351	-0.227445	-0.190336	-0.579661	0.113311	-0.567132	-0.064831	-0.719179	0.01816	-0.528508	-0.046857	-0.360323	0.000669	-0.760439	-0.154999	-0.642762	-0.162558	-0.592177	-0.350516	-0.746228	
0.740598	1.34582	0	0	-5.4549	-1.20838	0.274084	-0.905491	-0.509484	-1.14007	0.0994182	-0.756189	-1.08766	0.853314	-0.0785177	-0.731549	0.0653682	-0.243474	-0.195047	-0.588171	0.103281	-0.573472	-0.0776322	-0.728708	0.0232252	-0.542824	-0.0511385	-0.371375	0.005127	-0.773038	-0.15169	-0.652113	-0.159298	-0.601391	-0.357781	-0.751036	
0.738876	1.34582	0	0	-5.4549	-1.20838	0.271789	-0.912626	0.270005	-1.27138	0.0995465	-0.767775	-0.604077	0.817607	-0.0750085	-0.741467	0.0623855	-0.259502	-0.199758	-0.59668	0.093252	-0.579813	-0.0904335	-0.738237	0.0282905	-0.55714	-0.05542	-0.382427	0.009585	-0.785637	-0.148381	-0.661464	-0.156037	-0.610605	-0.365046	-0.755845	
0.7377	1.3504	0	0	-5.4549	-1.20838	0.269494	-0.919761	1.04949	-1.40268	0.0996748	-0.779362	-0.120495	0.781899	-0.0714993	-0.751384	0.0594027	-0.275531	-0.204468	-0.60519	0.0832225	-0.586153	-0.103235	-0.747766	0.0333557	-0.571455	-0.0597015	-0.393478	0.014043	-0.798235	-0.145072	-0.670816	-0.152777	-0.619819	-0.372312	-0.760653	
0.736769	1.34735	0	0	-5.4549	-1.20838	0.2672	-0.926896	1.82898	-1.53399	0.099803	-0.790948	0.363087	0.746191	-0.06799	-0.761301	0.05642	-0.29156	-0.209179	-0.6137	0.073193	-0.592493	-0.116036	-0.757295	0.038421	-0.585771	-0.063983	-0.40453	0.018501	-0.810834	-0.141763	-0.680167	-0.149517	-0.629033	-0.379577	-0.765462	
0.735779	1.34582	0	0	-5.4549	-1.20838	0.265249	-0.948594	2.22713	-1.53005	0.0938315	-0.807702	0.586289	0.818326	-0.069811	-0.779135	0.055078	-0.312195	-0.216822	-0.635668	0.0721317	-0.606811	-0.115041	-0.782918	0.0345552	-0.601549	-0.077305	-0.413098	0.0103435	-0.811954	-0.144281	-0.683909	-0.154815	-0.627341	-0.372649	-0.772376	
0.734426	1.3443	0	0	-5.4549	-1.20838	0.263298	-0.970291	2.62528	-1.52611	0.08786	-0.824456	0.809491	0.890461	-0.071632	-0.796969	0.053736	-0.33283	-0.224465	-0.657636	0.0710705	-0.62113	-0.114046	-0.808542	0.0306895	-0.617327	-0.090627	-0.421665	0.002186	-0.813074	-0.146798	-0.687651	-0.160112	-0.625649	-0.365721	-0.77929	
0.732405	1.3504	0	0	-5.4549	-1.20838	0.261348	-0.991989	3.02343	-1.52216	0.0818885	-0.84121	1.03269	0.962596	-0.073453	-0.814804	0.052394	-0.353464	-0.232108	-0.679605	0.0700092	-0.635448	-0.113051	-0.834165	0.0268238	-0.633104	-0.103949	-0.430233	-0.0059715	-0.814193	-0.149316	-0.691393	-0.16541	-0.623957	-0.358793	-0.786204	
0.729481	1.34735	0	0	-5.4549	-1.20838	0.259397	-1.01369	3.42158	-1.51822	0.075917	-0.857964	1.25589	1.03473	-0.075274	-0.832638	0.051052	-0.374099	-0.239751	-0.701573	0.068948	-0.649766	-0.112056	-0.859788	0.022958	-0.648882	-0.117271	-0.4388	-0.014129	-0.815313	-0.151834	-0.695135	-0.170708	-0.622265	-0.351865	-0.793118	
0.725849	1.34582	0	0	-5.4549	-1.20838	0.265987	-1.03231	3.29516	-1.16095	0.076033	-0.869488	1.4885	1.10787	-0.0788505	-0.845483	0.036838	-0.382686	-0.239161	-0.724985	0.0668948	-0.661266	-0.130391	-0.876237	0.0190873	-0.664608	-0.118374	-0.458749	-0.00968125	-0.827882	-0.154393	-0.709599	-0.170307	-0.636668	-0.354745	-0.810301	
0.721881	1.34582	0	0	-5.4549	-1.20838	0.272577	-1.05094	3.16875	-0.803679	0.076149	-0.881013	1.7211	1.18101	-0.082427	-0.858327	0.022624	-0.391273	-0.238572	-0.748397	0.0648415	-0.672765	-0.148727	-0.892686	0.0152165	-0.680334	-0.119476	-0.478699	-0.0052335	-0.840452	-0.156951	-0.724063	-0.169907	-0.651072	-0.357626	-0.827484	
0.717947	1.34277	0	0	-5.4549	-1.20838	0.279167	-1.06956	3.04233	-0.446408	0.076265	-0.892537	1.9537	1.25415	-0.0860035	-0.871171	0.00841	-0.399861	-0.237982	-0.771809	0.0627882	-0.684265	-0.167063	-0.909135	0.0113457	-0.69606	-0.120579	-0.498648	-0.00078575	-0.853021	-0.15951	-0.738526	-0.169506	-0.665475	-0.360507	-0.844666	
0.714418	1.34735	0	0	-5.4549	-1.20838	0.285757	-1.08818	2.91591	-0.089137	0.076381	-0.904062	2.1863	1.32729	-0.08958	-0.884016	-0.005804	-0.408448	-0.237393	-0.795221	0.060735	-0.695765	-0.185398	-0.925584	0.007475	-0.711786	-0.121682	-0.518597	0.003662	-0.865591	-0.162069	-0.75299	-0.169105	-0.679879	-0.363387	-0.861849	
0.711665	1.34735	0	0	-5.4549	-1.20838	0.275884	-1.08745	3.40401	-0.266502	0.0662003	-0.90884	2.46523	1.29933	-0.0878355	-0.888946	-0.0104363	-0.419688	-0.232107	-0.810159	0.0567132	-0.701685	-0.186067	-0.946392	0.0125055	-0.726003	-0.127539	-0.525081	0.00958225	-0.882323	-0.162116	-0.763696	-0.170336	-0.689662	-0.375368	-0.865909	
0.709895	1.34582	0	0	-5.4549	-1.20838	0.266011	-1.08672	3.89211	-0.443867	0.0560195	-0.913617	2.74417	1.27136	-0.086091	-0.893876	-0.0150685	-0.430928	-0.226822	-0.825098	0.0526915	-0.707604	-0.186737	-0.967199	0.017536	-0.74022	-0.133396	-0.531566	0.0155025	-0.899054	-0.162163	-0.774401	-0.171567	-0.699445	-0.38735	-0.869968	
0.70888	1.3443	0	0	-5.4549	-1.20838	0.256138	-1.08599	4.3802	-0.621233	0.0458388	-0.918395	3.0231	1.2434	-0.0843465	-0.898806	-0.0197007	-0.442167	-0.221536	-0.840036	0.0486697	-0.713523	-0.187407	-0.988007	0.0225665	-0.754437	-0.139253	-0.53805	0.0214227	-0.915786	-0.16221	-0.785106	-0.172797	-0.709228	-0.399332	-0.874028	
0.708325	1.34582	0	0	-5.4549	-1.20838	0.246265	-1.08526	4.8683	-0.798598	0.035658	-0.923172	3.30203	1.21543	-0.082602	-0.903736	-0.024333	-0.453407	-0.216251	-0.854974	0.044648	-0.719443	-0.188076	-1.00882	0.027597	-0.768654	-0.14511	-0.544535	0.027343	-0.932518	-0.162257	-0.795812	-0.174028	-0.719011	-0.411313	-0.878088	
0.707935	1.3443	0	0	-7.92104	0.403049	0.25546	-1.11124	5.39321	-0.997037	0.0327293	-0.937228	3.26591	1.3175	-0.0861848	-0.916535	-0.0177805	-0.471926	-0.235662	-0.865202	0.0406285	-0.725353	-0.199185	-1.02274	0.0203643	-0.77484	-0.150961	-0.551008	0.01771	-0.929435	-0.164775	-0.799529	-0.178505	-0.719611	-0.409127	-0.884266	
0.707414	1.34582	0	0	-10.3872	2.01448	0.264656	-1.13723	5.91812	-1.19548	0.0298005	-0.951283	3.2298	1.41956	-0.0897675	-0.929333	-0.011228	-0.490445	-0.255073	-0.87543	0.036609	-0.731264	-0.210295	-1.03666	0.0131315	-0.781027	-0.156812	-0.557481	0.008077	-0.926353	-0.167293	-0.803246	-0.182981	-0.720212	-0.40694	-0.890444	
0.706475	1.34888	0	0	-12.8533	3.62591	0.273852	-1.16322	6.44303	-1.39392	0.0268717	-0.965339	3.19368	1.52163	-0.0933502	-0.942131	-0.0046755	-0.508963	-0.274484	-0.885657	0.0325895	-0.737175	-0.221405	-1.05058	0.00589875	-0.787214	-0.162663	-0.563953	-0.001556	-0.92327	-0.16981	-0.806962	-0.187458	-0.720812	-0.404754	-0.896623	
0.705075	1.34125	0	0	-15.3195	5.23733	0.283047	-1.18921	6.96794	-1.59235	0.023943	-0.979395	3.15757	1.62369	-0.096933	-0.95493	0.001877	-0.527482	-0.293895	-0.895885	0.02857	-0.743085	-0.232514	-1.0645	-0.001334	-0.7934	-0.168514	-0.570426	-0.011189	-0.920188	-0.172328	-0.810679	-0.191935	-0.721412	-0.402568	-0.902801	
0.70342	1.34277	0	0	-15.3195	5.23733	0.282044	-1.19994	6.89998	-1.40029	0.0281355	-0.991243	3.48588	1.48854	-0.102255	-0.962785	-0.00440125	-0.534038	-0.290388	-0.905797	0.0245533	-0.748986	-0.234823	-1.08059	-0.00688725	-0.804295	-0.160632	-0.592703	-0.0052825	-0.936881	-0.179875	-0.821808	-0.202106	-0.732366	-0.405454	-0.919881	
0.701725	1.3443	0	0	-15.3195	5.23733	0.281041	-1.21068	6.83202	-1.20823	0.032328	-1.00309	3.81419	1.35339	-0.107577	-0.970641	-0.0106795	-0.540594	-0.286881	-0.915709	0.0205365	-0.754888	-0.237133	-1.09668	-0.0124405	-0.815189	-0.15275	-0.614979	0.000624	-0.953574	-0.187422	-0.832936	-0.212277	-0.74332	-0.408341	-0.936962	
0.700208	1.3443	0	0	-15.3195	5.23733	0.280037	-1.22141	6.76406	-1.01616	0.0365205	-1.01494	4.14249	1.21824	-0.112898	-0.978496	-0.0169578	-0.54715	-0.283374	-0.92562	0.0165197	-0.76079	-0.239443	-1.11277	-0.0179937	-0.826083	-0.144868	-0.637255	0.0065305	-0.970266	-0.19497	-0.844065	-0.222448	-0.754274	-0.411227	-0.954042	
0.699085	1.34125	0	0	-15.3195	5.23733	0.279034	-1.23215	6.6961	-0.824102	0.040713	-1.02679	4.4708	1.08309	-0.11822	-0.986352	-0.023236	-0.553706	-0.279867	-0.935532	0.012503	-0.766691	-0.241752	-1.12886	-0.023547	-0.836978	-0.136986	-0.659532	0.012437	-0.986959	-0.202517	-0.855194	-0.232619	-0.765228	-0.414114	-0.971122	
0.698505	1.3443	0	0	-12.8533	3.62591	0.277724	-1.22845	6.62665	-0.627818	0.0355782	-1.02343	4.4708	1.08309	-0.119958	-0.981441	-0.023236	-0.553706	-0.268141	-0.947001	0.0134833	-0.769462	-0.238517	-1.138	-0.0202102	-0.846408	-0.144415	-0.661516	0.015386	-0.995294	-0.197599	-0.869094	-0.220875	-0.785195	-0.420271	-0.978927	
0.698231	1.34125	0	0	-10.3872	2.01448	0.276414	-1.22474	6.5572	-0.431534	0.0304435	-1.02008	4.4708	1.08309	-0.121696	-0.97653	-0.023236	-0.553706	-0.256415	-0.95847	0.0144635	-0.772232	-0.235283	-1.14714	-0.0168735	-0.855838	-0.151844	-0.6635	0.018335	-1.00363	-0.192681	-0.882993	-0.209131	-0.805163	-0.426427	-0.986731	
0.697901	1.34277	0	0	-7.92104	0.403049	0.275104	-1.22104	6.48774	-0.235249	0.0253088	-1.01672	4.4708	1.08309	-0.123433	-0.971619	-0.023236	-0.553706	-0.244689	-0.969939	0.0154438	-0.775003	-0.232048	-1.15628	-0.0135368	-0.865269	-0.159274	-0.665483	0.021284	-1.01196	-0.187762	-0.896893	-0.197387	-0.82513	-0.432584	-0.994536	
0.697149	1.3443	0	0	-5.4549	-1.20838	0.273794	-1.21734	6.41829	-0.038965	0.020174	-1.01337	4.4708	1.08309	-0.125171	-0.966708	-0.023236	-0.553706	-0.232963	-0.981408	0.016424	-0.777773	-0.228814	-1.16542	-0.0102	-0.874699	-0.166703	-0.667467	0.024233	-1.0203	-0.182844	-0.910793	-0.185643	-0.845097	-0.438741	-1.00234	
0.695611	1.34582	0	0	-5.4549	-1.20838	0.262934	-1.2273	6.41829	-0.038965	0.0161918	-1.02441	4.4708	1.08309	-0.123433	-0.971619	-0.0327718	-0.551024	-0.242937	-0.974891	0.00849025	-0.772589	-0.218404	-1.17223	-0.00853275	-0.87941	-0.168276	-0.663021	0.024233	-1.0203	-0.183663	-0.908478	-0.197003	-0.839428	-0.426053	-1.01299	
0.692928	1.34888	0	0	-5.4549	-1.20838	0.252075	-1.23727	6.41829	-0.038965	0.0122095	-1.03545	4.4708	1.08309	-0.121696	-0.97653	-0.0423075	-0.548342	-0.25291	-0.968373	0.0005565	-0.767405	-0.207994	-1.17903	-0.0068655	-0.884122	-0.169849	-0.658575	0.024233	-1.0203	-0.184482	-0.906163	-0.208364	-0.833759	-0.413365	-1.02365	
0.689063	1.3443	0	0	-5.4549	-1.20838	0.241215	-1.24723	6.41829	-0.038965	0.00822725	-1.04648	4.4708	1.08309	-0.119958	-0.981441	-0.0518433	-0.54566	-0.262884	-0.961856	-0.00737725	-0.762221	-0.197585	-1.18583	-0.00519825	-0.888834	-0.171423	-0.654128	0.024233	-1.0203	-0.185301	-0.903848	-0.219725	-0.82809	-0.400678	-1.0343	
0.684461	1.34582	0	0	-5.4549	-1.20838	0.230356	-1.25719	6.41829	-0.038965	0.004245	-1.05752	4.4708	1.08309	-0.11822	-0.986352	-0.061379	-0.542978	-0.272858	-0.955339	-0.015311	-0.757037	-0.187175	-1.19263	-0.003531	-0.893545	-0.172996	-0.649682	0.024233	-1.0203	-0.18612	-0.901533	-0.231085	-0.822421	-0.38799	-1.04495	
0.679606	1.34277	0	0	-5.4549	-1.20838	0.232969	-1.26457	7.05358	-0.454075	0.002254	-1.06303	4.43384	1.18754	-0.116483	-0.99126	-0.0597465	-0.547592	-0.262884	-0.961856	-0.014331	-0.759806	-0.185559	-1.1972	-0.00909175	-0.904381	-0.166708	-0.667454	0.0146095	-1.01721	-0.188637	-0.905227	-0.241622	-0.819044	-0.40321	-1.03973	
0.674984	1.3443	0	0	-5.4549	-1.20838	0.235581	-1.27196	7.68886	-0.869185	0.000263	-1.06854	4.39688	1.292	-0.114747	-0.996169	-0.058114	-0.552207	-0.25291	-0.968373	-0.013351	-0.762576	-0.183943	-1.20177	-0.0146525	-0.915217	-0.160419	-0.685226	0.004986	-1.01412	-0.191154	-0.90892	-0.252159	-0.815666	-0.418431	-1.03451	
0.671081	1.3443	0	0	-5.4549	-1.20838	0.238194	-1.27934	8.32415	-1.28429	-0.001728	-1.07405	4.35992	1.39645	-0.11301	-1.00108	-0.0564815	-0.556821	-0.242937	-0.974891	-0.012371	-0.765346	-0.182327	-1.20633	-0.0202132	-0.926053	-0.154131	-0.702999	-0.0046375	-1.01104	-0.193671	-0.912613	-0.262695	-0.812289	-0.433651	-1.02929	
0.668267	1.3443	0	0	-5.4549	-1.20838	0.240807	-1.28672	8.95944	-1.69941	-0.003719	-1.07956	4.32296	1.5009	-0.111273	-1.00598	-0.054849	-0.561435	-0.232963	-0.981408	-0.011391	-0.768115	-0.180711	-1.2109	-0.025774	-0.936889	-0.147842	-0.720771	-0.014261	-1.00795	-0.196188	-0.916307	-0.273232	-0.808912	-0.448871	-1.02407	
0.666421	1.34582	0	0	-5.60907	-0.772655	0.234579	-1.28265	8.3936	-1.48058	0.0054905	-1.08331	4.35992	1.39645	-0.109537	-1.01089	-0.054849	-0.561435	-0.236468	-0.971502	-0.0024775	-0.776068	-0.182327	-1.20633	-0.0224492	-0.946285	-0.144703	-0.729644	-0.011316	-1.01627	-0.197069	-0.924619	-0.279722	-0.816933	-0.453934	-1.03491	
0.665289	1.34125	0	0	-5.76325	-0.33693	0.228351	-1.27859	7.82777	-1.26175	0.0147	-1.08705	4.39688	1.292	-0.107801	-1.0158	-0.054849	-0.561435	-0.239974	-0.961595	0.006436	-0.784021	-0.183943	-1.20177	-0.0191245	-0.95568	-0.141563	-0.738517	-0.008371	-1.0246	-0.197949	-0.932932	-0.286212	-0.824954	-0.458998	-1.04575	
0.664618	1.34277	0	0	-5.91743	0.0987945	0.222124	-1.27452	7.26194	-1.04293	0.0239095	-1.0908	4.43384	1.18754	-0.106066	-1.0207	-0.054849	-0.561435	-0.243479	-0.951688	0.0153495	-0.791973	-0.185559	-1.1972	-0.0157998	-0.965076	-0.138423	-0.74739	-0.005426	-1.03292	-0.198829	-0.941245	-0.292702	-0.832975	-0.464061	-1.0566	
0.664154	1.34125	0	0	-6.0716	0.534519	0.215896	-1.27045	6.6961	-0.824102	0.033119	-1.09455	4.4708	1.08309	-0.10433	-1.02561	-0.054849	-0.561435	-0.246984	-0.941782	0.024263	-0.799926	-0.187175	-1.19263	-0.012475	-0.974472	-0.135284	-0.756263	-0.002481	-1.04124	-0.19971	-0.949557	-0.299192	-0.840996	-0.469124	-1.06744	
0.663674	1.3443	0	0	-6.0716	0.534519	0.218506	-1.27782	6.76406	-1.01616	0.0208748	-1.09336	4.57916	0.776871	-0.106066	-1.0207	-0.0436795	-0.568733	-0.240508	-0.938389	0.0252423	-0.802694	-0.176753	-1.19944	-0.000255	-0.982457	-0.135284	-0.756263	0.007144	-1.04433	-0.195557	-0.950494	-0.296776	-0.847823	-0.466956	-1.07357	
0.663311	1.34277	0	0	-6.0716	0.534519	0.221117	-1.2852	6.83202	-1.20823	0.0086305	-1.09216	4.68751	0.470649	-0.107801	-1.0158	-0.03251	-0.576032	-0.234032	-0.934997	0.0262215	-0.805462	-0.16633	-1.20625	0.011965	-0.990442	-0.135284	-0.756263	0.016769	-1.04742	-0.191404	-0.951431	-0.294361	-0.85465	-0.464788	-1.07969	
0.66343	1.3443	0	0	-6.0716	0.534519	0.223728	-1.29258	6.89998	-1.40029	-0.00361375	-1.09097	4.79586	0.164428	-0.109537	-1.01089	-0.0213405	-0.58333	-0.227555	-0.931604	0.0272007	-0.80823	-0.155908	-1.21306	0.024185	-0.998427	-0.135284	-0.756263	0.026394	-1.05051	-0.18725	-0.952369	-0.291946	-0.861476	-0.46262	-1.08582	
0.664401	1.34582	0	0	-6.0716	0.534519	0.226338	-1.29996	6.96794	-1.59235	-0.015858	-1.08977	4.90421	-0.141793	-0.111273	-1.00598	-0.010171	-0.590628	-0.221079	-0.928211	0.02818	-0.810998	-0.145485	-1.21987	0.036405	-1.00641	-0.135284	-0.756263	0.036019	-1.0536	-0.183097	-0.953306	-0.28953	-0.868303	-0.460452	-1.09195	
0.666592	1.3443	0	0	-6.23369	0.992598	0.213193	-1.31683	7.03447	-1.78037	-0.0228693	-1.10331	4.64413	-0.199467	-0.116594	-1.01382	-0.00853925	-0.59524	-0.221079	-0.928211	0.022204	-0.811347	-0.154291	-1.21763	0.0258458	-1.00312	-0.135284	-0.756263	0.034546	-1.04944	-0.182215	-0.944992	-0.2972	-0.859793	-0.453582	-1.09879	
0.670366	1.34277	0	0	-6.39578	1.45068	0.200047	-1.33371	7.101	-1.96839	-0.0298805	-1.11684	4.38405	-0.257142	-0.121914	-1.02165	-0.0069075	-0.599851	-0.221079	-0.928211	0.016228	-0.811696	-0.163098	-1.21539	0.0152865	-0.999831	-0.135284	-0.756263	0.033073	-1.04528	-0.181333	-0.936678	-0.304871	-0.851282	-0.446712	-1.10563	
0.675652	1.34125	0	0	-6.55786	1.90876	0.186902	-1.35059	7.16752	-2.15641	-0.0368918	-1.13037	4.12397	-0.314816	-0.127235	-1.02948	-0.00527575	-0.604463	-0.221079	-0.928211	0.010252	-0.812045	-0.171905	-1.21314	0.00472725	-0.99654	-0.135284	-0.756263	0.0316	-1.04112	-0.18045	-0.928365	-0.312542	-0.842772	-0.439843	-1.11248	
0.681667	1.33972	0	0	-6.71995	2.36684	0.173757	-1.36746	7.23405	-2.34443	-0.043903	-1.14391	3.86389	-0.37249	-0.132555	-1.03731	-0.003644	-0.609075	-0.221079	-0.928211	0.004276	-0.812394	-0.180711	-1.2109	-0.005832	-0.993249	-0.135284	-0.756263	0.030127	-1.03696	-0.179568	-0.920051	-0.320212	-0.834261	-0.432973	-1.11932	
0.687563	1.33667	0	0	-6.71995	2.36684	0.18025	-1.38581	6.77161	-2.32254	-0.0387032	-1.1586	3.93185	-0.564553	-0.137871	-1.04513	-0.000383	-0.618291	-0.219324	-0.933171	0.0072105	-0.820688	-0.167059	-1.22684	-0.0025125	-1.00263	-0.13058	-0.769556	0.0286535	-1.03279	-0.172135	-0.930243	-0.322244	-0.841676	-0.43913	-1.12706	
0.692489	1.34125	0	0	-6.71995	2.36684	0.186742	-1.40416	6.30917	-2.30064	-0.0335035	-1.1733	3.99981	-0.756616	-0.143187	-1.05294	0.002878	-0.627507	-0.217569	-0.938132	0.010145	-0.828981	-0.153408	-1.24277	0.000807	-1.01201	-0.125877	-0.782849	0.02718	-1.02863	-0.164703	-0.940435	-0.324276	-0.849091	-0.445287	-1.13479	
0.695599	1.34125	0	0	-6.71995	2.36684	0.193235	-1.42251	5.84673	-2.27875	-0.0283037	-1.188	4.06777	-0.948679	-0.148503	-1.06076	0.006139	-0.636724	-0.215814	-0.943092	0.0130795	-0.837274	-0.139756	-1.25871	0.0041265	-1.02139	-0.121174	-0.796141	0.0257065	-1.02446	-0.157271	-0.950627	-0.326309	-0.856506	-0.451443	-1.14253	
0.696167	1.34582	0	0	-6.71995	2.36684	0.199728	-1.44086	5.38429	-2.25685	-0.023104	-1.20269	4.13573	-1.14074	-0.153819	-1.06857	0.0094	-0.64594	-0.214059	-0.948052	0.016014	-0.845568	-0.126104	-1.27465	0.007446	-1.03077	-0.11647	-0.809434	0.024233	-1.0203	-0.149838	-0.960819	-0.328341	-0.863921	-0.4576	-1.15026	
0.69458	1.33972	0	0	-6.71995	2.36684	0.196116	-1.44413	4.89361	-2.0722	-0.0271752	-1.20229	3.85231	-1.1001	-0.141577	-1.08033	0.00777	-0.641333	-0.214059	-0.948052	0.017969	-0.851093	-0.122878	-1.28377	0.007446	-1.03077	-0.114904	-0.81386	0.0338703	-1.02339	-0.149838	-0.960819	-0.328341	-0.863921	-0.453277	-1.16248	
0.691806	1.33972	0	0	-6.71995	2.36684	0.192504	-1.44741	4.40293	-1.88754	-0.0312465	-1.20189	3.5689	-1.05946	-0.129335	-1.09209	0.00614	-0.636726	-0.214059	-0.948052	0.019924	-0.856617	-0.119652	-1.29288	0.007446	-1.03077	-0.113338	-0.818287	0.0435075	-1.02649	-0.149838	-0.960819	-0.328341	-0.863921	-0.448955	-1.1747	
0.688818	1.33819	0	0	-6.71995	2.36684	0.188893	-1.45068	3.91225	-1.70288	-0.0353178	-1.20148	3.28548	-1.01882	-0.117093	-1.10385	0.00451	-0.632119	-0.214059	-0.948052	0.021879	-0.862142	-0.116426	-1.302	0.007446	-1.03077	-0.111771	-0.822713	0.0531448	-1.02958	-0.149838	-0.960819	-0.328341	-0.863921	-0.444632	-1.18691	
0.686589	1.33819	0	0	-6.71995	2.36684	0.185281	-1.45396	3.42158	-1.51822	-0.039389	-1.20108	3.00207	-0.978174	-0.104851	-1.11561	0.00288	-0.627512	-0.214059	-0.948052	0.023834	-0.867666	-0.1132	-1.31112	0.007446	-1.03077	-0.110205	-0.82714	0.062782	-1.03267	-0.149838	-0.960819	-0.328341	-0.863921	-0.440309	-1.19913	
0.686087	1.34125	0	0	-6.8908	2.84969	0.180376	-1.45357	3.42158	-1.51822	-0.0413813	-1.20655	3.06722	-1.16232	-0.108312	-1.10582	0.00288	-0.627512	-0.215814	-0.943092	0.023834	-0.867666	-0.12201	-1.30886	0.018007	-1.03407	-0.113338	-0.818285	0.0583553	-1.02016	-0.138165	-0.961332	-0.318638	-0.865017	-0.44247	-1.19302	
0.687732	1.3443	0	0	-7.06165	3.33254	0.175471	-1.45318	3.42158	-1.51822	-0.0433735	-1.21201	3.13238	-1.34646	-0.111773	-1.09604	0.00288	-0.627512	-0.217569	-0.938132	0.023834	-0.867666	-0.130821	-1.30661	0.028568	-1.03736	-0.116472	-0.80943	0.0539285	-1.00765	-0.126492	-0.961844	-0.308936	-0.866112	-0.444631	-1.18692	
0.690901	1.34735	0	0	-7.2325	3.81539	0.170566	-1.45279	3.42158	-1.51822	-0.0453657	-1.21748	3.19754	-1.5306	-0.115234	-1.08626	0.00288	-0.627512	-0.219324	-0.933171	0.023834	-0.867666	-0.139631	-1.30435	0.039129	-1.04066	-0.119605	-0.800574	0.0495017	-0.995142	-0.114819	-0.962356	-0.299233	-0.867208	-0.446791	-1.18081	
0.694849	1.3443	0	0	-7.40335	4.29824	0.165661	-1.4524	3.42158	-1.51822	-0.047358	-1.22294	3.26269	-1.71474	-0.118695	-1.07648	0.00288	-0.627512	-0.221079	-0.928211	0.023834	-0.867666	-0.148442	-1.3021	0.04969	-1.04395	-0.122738	-0.791719	0.045075	-0.982631	-0.103146	-0.962869	-0.28953	-0.868303	-0.448952	-1.1747	
0.698836	1.34888	0	0	-3.92752	2.02706	0.161037	-1.46625	3.48294	-1.69164	-0.048314	-1.23133	3.29477	-1.80541	-0.115234	-1.08626	0.00451	-0.632119	-0.21757	-0.938129	0.023834	-0.867666	-0.146831	-1.30665	0.0463688	-1.03457	-0.113729	-0.794199	0.048809	-0.96901	-0.0989053	-0.953171	-0.283842	-0.858015	-0.441709	-1.17004	
0.702117	1.34888	0	0	-0.451692	-0.24412	0.156413	-1.4801	3.5443	-1.86505	-0.04927	-1.23972	3.32685	-1.89608	-0.111773	-1.09604	0.00614	-0.636726	-0.21406	-0.948046	0.023834	-0.867666	-0.14522	-1.3112	0.0430475	-1.02518	-0.10472	-0.796679	0.052543	-0.95539	-0.0946645	-0.943474	-0.278154	-0.847727	-0.434466	-1.16537	
0.703994	1.35651	0	0	3.02414	-2.5153	0.15179	-1.49394	3.60566	-2.03847	-0.050226	-1.24811	3.35894	-1.98674	-0.108312	-1.10582	0.00777	-0.641333	-0.210551	-0.957963	0.023834	-0.867666	-0.143609	-1.31576	0.0397262	-1.0158	-0.095711	-0.79916	0.056277	-0.94177	-0.0904237	-0.933777	-0.272466	-0.837439	-0.427223	-1.16071	
0.704334	1.3504	0	0	6.49997	-4.78648	0.147166	-1.50779	3.66702	-2.21188	-0.051182	-1.2565	3.39102	-2.07741	-0.104851	-1.11561	0.0094	-0.64594	-0.207042	-0.967881	0.023834	-0.867666	-0.141998	-1.32031	0.036405	-1.00641	-0.086702	-0.80164	0.060011	-0.928149	-0.086183	-0.924079	-0.266778	-0.827151	-0.41998	-1.15604	
0.703407	1.35803	0	0	6.49997	-4.78648	0.155942	-1.51914	3.20751	-2.04241	-0.0522185	-1.25357	3.08656	-1.94747	-0.0960562	-1.11759	0.00777	-0.641333	-0.205289	-0.972835	0.021879	-0.862142	-0.141998	-1.32031	0.0347433	-1.00172	-0.08984	-0.792771	0.0585305	-0.923965	-0.0820095	-0.925023	-0.272041	-0.825465	-0.417816	-1.16215	
0.701489	1.36261	0	0	6.49997	-4.78648	0.164717	-1.53049	2.748	-1.87294	-0.053255	-1.25064	2.7821	-1.81754	-0.0872615	-1.11958	0.00614	-0.636726	-0.203536	-0.97779	0.019924	-0.856617	-0.141998	-1.32031	0.0330815	-0.997019	-0.092978	-0.783903	0.05705	-0.919782	-0.077836	-0.925967	-0.277303	-0.823778	-0.415652	-1.16827	
0.69886	1.36719	0	0	6.49997	-4.78648	0.173492	-1.54184	2.28849	-1.70346	-0.0542915	-1.24771	2.47764	-1.6876	-0.0784668	-1.12157	0.00451	-0.632119	-0.201783	-0.982745	0.017969	-0.851093	-0.141998	-1.32031	0.0314197	-0.992322	-0.096116	-0.775035	0.0555695	-0.915598	-0.0736625	-0.926911	-0.282565	-0.822091	-0.413489	-1.17438	
0.695796	1.36719	0	0	6.49997	-4.78648	0.182268	-1.55318	1.82898	-1.53399	-0.055328	-1.24478	2.17318	-1.55766	-0.069672	-1.12356	0.00288	-0.627512	-0.20003	-0.987699	0.016014	-0.845568	-0.141998	-1.32031	0.029758	-0.987625	-0.099254	-0.766166	0.054089	-0.911414	-0.069489	-0.927855	-0.287828	-0.820405	-0.411325	-1.1805	
0.692526	1.37024	0	0	6.49997	-4.78648	0.185881	-1.54993	1.94603	-1.86479	-0.044156	-1.24306	1.94306	-1.61024	-0.0643303	-1.11576	-0.0020155	-0.613677	-0.19354	-0.98432	0.0269967	-0.842114	-0.141998	-1.32031	0.0336733	-0.972101	-0.0949497	-0.755322	0.067487	-0.900837	-0.0635985	-0.922781	-0.272835	-0.823191	-0.406616	-1.18123	
0.689113	1.37482	0	0	6.49997	-4.78648	0.189493	-1.54668	2.06308	-2.19559	-0.032984	-1.24135	1.71294	-1.66282	-0.0589885	-1.10796	-0.006911	-0.599842	-0.187051	-0.98094	0.0379795	-0.838661	-0.141998	-1.32031	0.0375885	-0.956577	-0.0906455	-0.744478	0.080885	-0.89026	-0.057708	-0.917708	-0.257842	-0.825976	-0.401908	-1.18195	
0.685585	1.37634	0	0	6.49997	-4.78648	0.193106	-1.54342	2.18013	-2.52639	-0.021812	-1.23963	1.48282	-1.7154	-0.0536467	-1.10016	-0.0118065	-0.586007	-0.180561	-0.97756	0.0489622	-0.835207	-0.141998	-1.32031	0.0415037	-0.941054	-0.0863412	-0.733634	0.094283	-0.879684	-0.0518175	-0.912635	-0.242849	-0.828762	-0.397199	-1.18268	
0.681971	1.37939	0	0	6.49997	-4.78648	0.196718	-1.54017	2.29718	-2.85719	-0.01064	-1.23792	1.25269	-1.76798	-0.048305	-1.09236	-0.016702	-0.572172	-0.174071	-0.974181	0.059945	-0.831754	-0.141998	-1.32031	0.045419	-0.92553	-0.082037	-0.72279	0.107681	-0.869107	-0.045927	-0.907561	-0.227856	-0.831547	-0.392491	-1.18341	
0.6783	1.38245	0	0	3.02414	-2.5153	0.194132	-1.53286	2.11994	-2.35628	-0.0136747	-1.24044	3.44675	-11.1332	-0.0481717	-1.06981	-0.00577175	-0.554431	-0.172847	-0.955893	0.059068	-0.812006	-0.125976	-1.32027	0.0582587	-0.908524	-0.0659572	-0.699037	0.121869	-0.836306	-0.0331717	-0.878294	-0.214399	-0.803413	-0.377957	-1.17407	
0.674609	1.3855	0	0	-0.451692	-0.24412	0.191546	-1.52555	1.9427	-1.85537	-0.0167095	-1.24297	5.64081	-20.4984	-0.0480385	-1.04727	0.0051585	-0.536691	-0.171623	-0.937605	0.058191	-0.792258	-0.109954	-1.32024	0.0710985	-0.891519	-0.0498775	-0.675283	0.136057	-0.803505	-0.0204165	-0.849028	-0.200942	-0.775279	-0.363424	-1.16474	
0.671027	1.38397	0	0	-3.92752	2.02706	0.18896	-1.51825	1.76546	-1.35446	-0.0197443	-1.2455	7.83487	-29.8636	-0.0479053	-1.02472	0.0160887	-0.518951	-0.1704	-0.919317	0.057314	-0.772509	-0.093932	-1.3202	0.0839383	-0.874514	-0.0337978	-0.651529	0.150245	-0.770704	-0.00766125	-0.819761	-0.187485	-0.747145	-0.34889	-1.15541	
0.667749	1.3855	0	0	-7.40335	4.29824	0.186374	-1.51094	1.58821	-0.853544	-0.022779	-1.24802	10.0289	-39.2288	-0.047772	-1.00217	0.027019	-0.50121	-0.169176	-0.901029	0.056437	-0.752761	-0.07791	-1.32016	0.096778	-0.857508	-0.017718	-0.627776	0.164433	-0.737903	0.005094	-0.790494	-0.174028	-0.719011	-0.334356	-1.14607	
0.664971	1.38855	0	0	-7.40335	4.29824	0.17684	-1.52435	2.22717	-1.53017	-0.0126305	-1.24337	10.8349	-41.5065	-0.0388288	-0.981514	0.0363207	-0.47874	-0.157933	-0.889234	0.0584955	-0.741293	-0.072305	-1.3133	0.100693	-0.841869	-0.0181605	-0.603402	0.165887	-0.693255	0.0203515	-0.768069	-0.136026	-0.706715	-0.335441	-1.14301	
0.662887	1.38855	0	0	-7.40335	4.29824	0.167307	-1.53777	2.86613	-2.2068	-0.002482	-1.23873	11.6408	-43.7842	-0.0298855	-0.960856	0.0456225	-0.45627	-0.14669	-0.87744	0.060554	-0.729824	-0.0667	-1.30644	0.104608	-0.82623	-0.018603	-0.579028	0.167342	-0.648606	0.035609	-0.745645	-0.098025	-0.694419	-0.336526	-1.13994	
0.66169	1.39007	0	0	-7.40335	4.29824	0.157773	-1.55118	3.50509	-2.88343	0.0076665	-1.23408	12.4467	-46.0619	-0.0209423	-0.940198	0.0549243	-0.4338	-0.135447	-0.865646	0.0626125	-0.718356	-0.061095	-1.29958	0.108523	-0.810591	-0.0190455	-0.554655	0.168797	-0.603958	0.0508665	-0.72322	-0.0600235	-0.682124	-0.337611	-1.13687	
0.66141	1.3916	0	0	-7.40335	4.29824	0.148239	-1.5646	4.14405	-3.56005	0.017815	-1.22943	13.2527	-48.3396	-0.011999	-0.91954	0.064226	-0.41133	-0.124204	-0.853851	0.064671	-0.706888	-0.05549	-1.29272	0.112438	-0.794952	-0.019488	-0.530281	0.170251	-0.55931	0.066124	-0.700795	-0.022022	-0.669828	-0.338696	-1.13381	
0.661834	1.38855	0	0	-7.40335	4.29824	0.163197	-1.57997	4.57805	-3.58452	0.0269415	-1.22183	13.1693	-46.902	-0.0119017	-0.896806	0.0735318	-0.388743	-0.106412	-0.83859	0.0637678	-0.687033	-0.0619587	-1.27444	0.116348	-0.779262	-0.004515	-0.526264	0.183714	-0.548472	0.0754303	-0.694237	-0.0183278	-0.666922	-0.341248	-1.13921	
0.662734	1.3916	0	0	-7.40335	4.29824	0.178154	-1.59535	5.01204	-3.60898	0.036068	-1.21424	13.086	-45.4643	-0.0118045	-0.874073	0.0828375	-0.366156	-0.0886195	-0.823329	0.0628645	-0.667177	-0.0684275	-1.25616	0.120258	-0.763571	0.010458	-0.522247	0.197177	-0.537633	0.0847365	-0.687678	-0.0146335	-0.664015	-0.3438	-1.14461	
0.663877	1.3916	0	0	-7.40335	4.29824	0.193111	-1.61073	5.44604	-3.63345	0.0451945	-1.20664	13.0026	-44.0267	-0.0117073	-0.851339	0.0921432	-0.34357	-0.0708272	-0.808068	0.0619613	-0.647322	-0.0748962	-1.23788	0.124169	-0.74788	0.025431	-0.51823	0.210639	-0.526795	0.0940427	-0.68112	-0.0109392	-0.661109	-0.346352	-1.15001	
0.665035	1.38855	0	0	-7.40335	4.29824	0.208069	-1.6261	5.88003	-3.65791	0.054321	-1.19904	12.9192	-42.589	-0.01161	-0.828605	0.101449	-0.320983	-0.053035	-0.792807	0.061058	-0.627467	-0.081365	-1.2196	0.128079	-0.73219	0.040404	-0.514213	0.224102	-0.515957	0.103349	-0.674562	-0.007245	-0.658203	-0.348904	-1.15542	
0.666068	1.39007	0	0	-7.40335	4.29824	0.210139	-1.60502	5.7561	-3.30765	0.0531963	-1.18472	12.8958	-41.2378	-0.0061955	-0.797805	0.109099	-0.293587	-0.0405242	-0.762388	0.0651455	-0.604367	-0.061297	-1.20804	0.12861	-0.706912	0.0506352	-0.496681	0.224798	-0.493433	0.112723	-0.657153	-0.0113303	-0.646657	-0.337985	-1.1484	
0.667173	1.39007	0	0	-7.40335	4.29824	0.212209	-1.58393	5.63216	-2.95738	0.0520715	-1.1704	12.8724	-39.8867	-0.000781	-0.767004	0.116748	-0.266192	-0.0280135	-0.731969	0.069233	-0.581268	-0.041229	-1.19649	0.129142	-0.681634	0.0608665	-0.479148	0.225494	-0.470909	0.122097	-0.639744	-0.0154155	-0.635112	-0.327066	-1.14139	
0.668621	1.38855	0	0	-7.40335	4.29824	0.21428	-1.56285	5.50822	-2.60712	0.0509467	-1.15608	12.849	-38.5355	0.0046335	-0.736204	0.124397	-0.238796	-0.0155028	-0.70155	0.0733205	-0.558168	-0.021161	-1.18494	0.129673	-0.656356	0.0710978	-0.461616	0.22619	-0.448384	0.131472	-0.622334	-0.0195008	-0.623566	-0.316148	-1.13438	
0.670685	1.38702	0	0	-7.40335	4.29824	0.21635	-1.54176	5.38429	-2.25685	0.049822	-1.14176	12.8256	-37.1843	0.010048	-0.705403	0.132047	-0.2114	-0.002992	-0.671131	0.077408	-0.535068	-0.001093	-1.17339	0.130205	-0.631078	0.081329	-0.444083	0.226886	-0.42586	0.140846	-0.604925	-0.023586	-0.61202	-0.305229	-1.12737	
0.673636	1.38855	0	0	-3.92752	2.02706	0.213492	-1.5202	5.84673	-2.27875	0.047735	-1.13586	12.5923	-35.8474	0.0189725	-0.684408	0.130037	-0.181163	0.00117775	-0.638935	0.0794923	-0.506241	0.00199575	-1.13646	0.12732	-0.596104	0.0835603	-0.403825	0.232783	-0.393448	0.150273	-0.576542	-0.0157772	-0.59399	-0.296088	-1.10259	
0.677721	1.3916	0	0	-0.451692	-0.24412	0.210633	-1.49864	6.30917	-2.30064	0.045648	-1.12996	12.3589	-34.5105	0.027897	-0.663412	0.128026	-0.150925	0.0053475	-0.606739	0.0815765	-0.477414	0.0050845	-1.09954	0.124434	-0.56113	0.0857915	-0.363567	0.238681	-0.361035	0.159699	-0.548159	-0.0079685	-0.57596	-0.286946	-1.07781	
0.682844	1.38855	0	0	3.02414	-2.5153	0.207774	-1.47708	6.77161	-2.32254	0.043561	-1.12406	12.1255	-33.1736	0.0368215	-0.642416	0.126016	-0.120688	0.00951725	-0.574543	0.0836608	-0.448587	0.00817325	-1.06262	0.121549	-0.526157	0.0880227	-0.323308	0.244578	-0.328622	0.169126	-0.519776	-0.00015975	-0.557931	-0.277805	-1.05303	
0.688663	1.38702	0	0	6.49997	-4.78648	0.204916	-1.45552	7.23405	-2.34443	0.041474	-1.11816	11.8922	-31.8367	0.045746	-0.621421	0.124006	-0.09045	0.013687	-0.542347	0.085745	-0.41976	0.011262	-1.0257	0.118663	-0.491183	0.090254	-0.28305	0.250475	-0.29621	0.178553	-0.491393	0.007649	-0.539901	-0.268664	-1.02826	
0.694837	1.3916	0	0	3.19499	-2.99815	0.214469	-1.44201	7.16752	-2.15641	0.0413815	-1.10675	12.036	-30.8098	0.04578	-0.598365	0.133286	-0.0674675	0.0196215	-0.515034	0.0907933	-0.399245	0.015943	-0.993166	0.134911	-0.483348	0.092955	-0.267358	0.26769	-0.271	0.177805	-0.456187	0.0068215	-0.510783	-0.258427	-1.00644	
0.701019	1.39007	0	0	-0.10999	-1.20982	0.224021	-1.42851	7.101	-1.96839	0.041289	-1.09534	12.1799	-29.7829	0.045814	-0.575309	0.142566	-0.044485	0.025556	-0.487722	0.0958415	-0.37873	0.020624	-0.960633	0.151159	-0.475513	0.095656	-0.251666	0.284906	-0.24579	0.177057	-0.420981	0.005994	-0.481664	-0.24819	-0.984618	
0.706867	1.38702	0	0	-3.41497	0.578506	0.233574	-1.415	7.03447	-1.78037	0.0411965	-1.08393	12.3237	-28.756	0.045848	-0.552252	0.151846	-0.0215025	0.0314905	-0.460409	0.10089	-0.358216	0.025305	-0.928099	0.167406	-0.467679	0.098357	-0.235974	0.302121	-0.220581	0.17631	-0.385775	0.0051665	-0.452546	-0.237952	-0.962798	
0.712112	1.38855	0	0	-6.71995	2.36684	0.243127	-1.40149	6.96794	-1.59235	0.041104	-1.07252	12.4676	-27.7291	0.045882	-0.529196	0.161126	0.00148	0.037425	-0.433096	0.105938	-0.337701	0.029986	-0.895565	0.183654	-0.459844	0.101058	-0.220282	0.319336	-0.195371	0.175562	-0.350569	0.004339	-0.423428	-0.227715	-0.940979	
0.716824	1.3916	0	0	-6.55786	1.90876	0.251096	-1.36987	6.89998	-1.40029	0.0522365	-1.05932	12.3485	-26.6323	0.0530147	-0.502965	0.160729	0.0272562	0.0499135	-0.402068	0.11198	-0.319928	0.043559	-0.865068	0.184123	-0.434235	0.100524	-0.195419	0.310751	-0.146423	0.18324	-0.328053	0.0137862	-0.409885	-0.22223	-0.918326	
0.721159	1.39313	0	0	-6.39578	1.45068	0.259066	-1.33825	6.83202	-1.20823	0.063369	-1.04611	12.2295	-25.5355	0.0601475	-0.476734	0.160332	0.0530325	0.062402	-0.37104	0.118021	-0.302156	0.057132	-0.834571	0.184592	-0.408626	0.099991	-0.170556	0.302167	-0.0974755	0.190918	-0.305537	0.0232335	-0.396341	-0.216745	-0.895672	
0.725274	1.3916	0	0	-6.23369	0.992598	0.267035	-1.30662	6.76406	-1.01616	0.0745015	-1.03291	12.1104	-24.4387	0.0672803	-0.450502	0.159934	0.0788087	0.0748905	-0.340012	0.124062	-0.284384	0.070705	-0.804073	0.185062	-0.383017	0.0994575	-0.145693	0.293582	-0.0485278	0.198596	-0.283021	0.0326808	-0.382798	-0.211261	-0.873019	
0.729326	1.39007	0	0	-6.0716	0.534519	0.275004	-1.275	6.6961	-0.824102	0.085634	-1.01971	11.9913	-23.3419	0.074413	-0.424271	0.159537	0.104585	0.087379	-0.308984	0.130104	-0.266611	0.084278	-0.773576	0.185531	-0.357408	0.098924	-0.12083	0.284997	0.00042	0.206274	-0.260505	0.042128	-0.369254	-0.205776	-0.850366	
0.733474	1.3916	0	0	-6.0716	0.534519	0.289214	-1.24726	7.26194	-1.04293	0.076181	-0.992989	11.9109	-22.3219	0.0833238	-0.402948	0.1688	0.127811	0.0998732	-0.277734	0.135139	-0.245929	0.099525	-0.747554	0.194977	-0.330116	0.10914	-0.102903	0.29755	0.0391975	0.216506	-0.234005	0.05364	-0.347997	-0.196637	-0.8252	
0.737814	1.39618	0	0	-6.0716	0.534519	0.303424	-1.21952	7.82777	-1.26175	0.066728	-0.966273	11.8305	-21.3019	0.0922345	-0.381626	0.178063	0.151036	0.112368	-0.246485	0.140174	-0.225247	0.114772	-0.721533	0.204423	-0.302823	0.119355	-0.0849755	0.310103	0.077975	0.226738	-0.207504	0.065152	-0.326739	-0.187497	-0.800034	
0.74227	1.3916	0	0	-6.0716	0.534519	0.317634	-1.19178	8.3936	-1.48058	0.057275	-0.939557	11.7501	-20.2819	0.101145	-0.360303	0.187326	0.174262	0.124862	-0.215235	0.145209	-0.204565	0.130019	-0.695511	0.213868	-0.275531	0.129571	-0.0670483	0.322657	0.116753	0.236969	-0.181004	0.076664	-0.305481	-0.178358	-0.774869	
0.746737	1.39313	0	0	-6.0716	0.534519	0.331844	-1.16403	8.95944	-1.69941	0.047822	-0.912841	11.6697	-19.262	0.110056	-0.33898	0.196589	0.197488	0.137356	-0.183986	0.150244	-0.183883	0.145266	-0.669489	0.223314	-0.248238	0.139786	-0.049121	0.33521	0.15553	0.247201	-0.154504	0.088176	-0.284224	-0.169219	-0.749703	
0.75111	1.39465	0	0	-5.91743	0.0987945	0.345388	-1.16145	8.88843	-1.49871	0.0467697	-0.909868	11.6759	-18.4517	0.102895	-0.318741	0.19953	0.213929	0.124596	-0.147924	0.151249	-0.169241	0.142583	-0.638812	0.20956	-0.209367	0.137585	-0.0194575	0.336298	0.202123	0.248036	-0.11241	0.0893218	-0.247015	-0.157519	-0.718831	
0.755282	1.39465	0	0	-5.76325	-0.33693	0.358932	-1.15887	8.81741	-1.29801	0.0457175	-0.906894	11.6822	-17.6415	0.0957335	-0.298501	0.20247	0.230371	0.111836	-0.111861	0.152253	-0.154598	0.1399	-0.608135	0.195806	-0.170496	0.135384	0.010206	0.337387	0.248716	0.24887	-0.070317	0.0904675	-0.209806	-0.145819	-0.687958	
0.759147	1.3977	0	0	-5.60907	-0.772655	0.372476	-1.15628	8.7464	-1.09732	0.0446653	-0.903921	11.6885	-16.8313	0.0885722	-0.278262	0.205411	0.246812	0.0990753	-0.0757985	0.153257	-0.139956	0.137217	-0.577459	0.182052	-0.131625	0.133184	0.0398695	0.338475	0.295308	0.249705	-0.0282235	0.0916132	-0.172597	-0.134118	-0.657085	
0.762611	1.3977	0	0	-5.4549	-1.20838	0.38602	-1.1537	8.67538	-0.896622	0.043613	-0.900948	11.6947	-16.0211	0.081411	-0.258023	0.208352	0.263253	0.086315	-0.039736	0.154262	-0.125314	0.134534	-0.546782	0.168298	-0.092754	0.130983	0.069533	0.339563	0.341901	0.25054	0.01387	0.092759	-0.135388	-0.122418	-0.626213	
0.765612	1.3977	0	0	-5.4549	-1.20838	0.395637	-1.13993	8.60274	-0.691312	0.050752	-0.89875	11.3748	-15.1168	0.0760292	-0.242813	0.20327	0.277614	0.0874045	-0.020576	0.158284	-0.119185	0.147483	-0.537104	0.172122	-0.0765093	0.136901	0.0762805	0.34684	0.371135	0.253076	0.0289705	0.09062	-0.115841	-0.118405	-0.611915	
0.7681	1.3977	0	0	-5.4549	-1.20838	0.405254	-1.12616	8.53009	-0.486003	0.057891	-0.896552	11.0548	-14.2126	0.0706475	-0.227604	0.198188	0.291976	0.088494	-0.001416	0.162307	-0.113056	0.160432	-0.527425	0.175946	-0.0602645	0.142819	0.083028	0.354118	0.400369	0.255611	0.044071	0.088481	-0.0962945	-0.114393	-0.597617	
0.770023	1.3977	0	0	-5.4549	-1.20838	0.414872	-1.11239	8.45744	-0.280693	0.06503	-0.894355	10.7349	-13.3083	0.0652657	-0.212394	0.193107	0.306338	0.0895835	0.017744	0.166329	-0.106927	0.173382	-0.517747	0.17977	-0.0440197	0.148737	0.0897755	0.361395	0.429602	0.258147	0.0591715	0.086342	-0.0767478	-0.110381	-0.583319	
0.771329	1.39923	0	0	-5.4549	-1.20838	0.424489	-1.09862	8.3848	-0.075383	0.072169	-0.892157	10.4149	-12.404	0.059884	-0.197184	0.188025	0.320699	0.090673	0.036904	0.170351	-0.100798	0.186331	-0.508069	0.183594	-0.027775	0.154655	0.096523	0.368673	0.458836	0.260682	0.074272	0.084203	-0.057201	-0.106368	-0.569021	
0.771968	1.39618	0	0	-7.92104	0.403049	0.437777	-1.08143	8.31044	0.134758	0.0699402	-0.874662	10.5151	-11.8208	0.052694	-0.176864	0.194342	0.32763	0.0917485	0.056131	0.164296	-0.083684	0.186952	-0.486644	0.18568	-0.00657775	0.157313	0.112513	0.385872	0.485181	0.258908	0.10158	0.0857528	-0.0345478	-0.104593	-0.548366	
0.77191	1.3977	0	0	-10.3872	2.01448	0.451064	-1.06424	8.23609	0.344899	0.0677115	-0.857166	10.6153	-11.2375	0.045504	-0.156545	0.200659	0.334562	0.092824	0.075358	0.15824	-0.06657	0.187574	-0.46522	0.187766	0.0146195	0.159971	0.128504	0.403072	0.511526	0.257133	0.128887	0.0873025	-0.0118945	-0.102818	-0.52771	
0.771272	1.39618	0	0	-12.8533	3.62591	0.464352	-1.04705	8.16173	0.55504	0.0654828	-0.839671	10.7155	-10.6542	0.038314	-0.136225	0.206977	0.341493	0.0938995	0.094585	0.152185	-0.049456	0.188195	-0.443795	0.189851	0.0358168	0.162629	0.144494	0.420271	0.537872	0.255358	0.156195	0.0888522	0.0107587	-0.101042	-0.507055	
0.770222	1.39618	0	0	-15.3195	5.23733	0.47764	-1.02986	8.08737	0.765181	0.063254	-0.822176	10.8157	-10.0709	0.031124	-0.115905	0.213294	0.348424	0.094975	0.113812	0.146129	-0.032342	0.188816	-0.42237	0.191937	0.057014	0.165287	0.160485	0.43747	0.564217	0.253584	0.183503	0.090402	0.033412	-0.099267	-0.4864	
0.76893	1.39618	0	0	-15.1725	4.82188	0.482625	-1.03024	8.08737	0.765181	0.0643095	-0.82516	10.5793	-9.4029	0.0275227	-0.105728	0.209896	0.358027	0.0792105	0.136099	0.152169	-0.031897	0.1821	-0.403389	0.183258	0.081542	0.167937	0.176526	0.420077	0.613372	0.256052	0.210017	0.0956412	0.059228	-0.0938277	-0.463196	
0.767566	1.39465	0	0	-15.0255	4.40643	0.487609	-1.03062	8.08737	0.765181	0.065365	-0.828143	10.343	-8.73488	0.0239215	-0.09555	0.206498	0.367629	0.063446	0.158385	0.158208	-0.031452	0.175384	-0.384408	0.174579	0.10607	0.170588	0.192568	0.402684	0.662527	0.25852	0.236532	0.10088	0.085044	-0.0883885	-0.439993	
0.766297	1.40076	0	0	-14.8785	3.99098	0.492594	-1.03099	8.08737	0.765181	0.0664205	-0.831126	10.1066	-8.06687	0.0203203	-0.0853725	0.2031	0.377232	0.0476815	0.180671	0.164247	-0.031007	0.168667	-0.365426	0.165901	0.130598	0.173238	0.208609	0.385291	0.711683	0.260988	0.263046	0.10612	0.11086	-0.0829493	-0.416789	
0.765276	1.39618	0	0	-14.7315	3.57553	0.497578	-1.03137	8.08737	0.765181	0.067476	-0.83411	9.87022	-7.39885	0.016719	-0.075195	0.199702	0.386835	0.031917	0.202958	0.170287	-0.030562	0.161951	-0.346445	0.157222	0.155126	0.175889	0.22465	0.367898	0.760838	0.263456	0.28956	0.111359	0.136676	-0.07751	-0.393585	
0.764484	1.39618	0	0	-14.7315	3.57553	0.50124	-1.028	8.77354	0.316828	0.0612672	-0.827759	9.64782	-6.77031	0.00781125	-0.0732877	0.199702	0.386835	0.0216812	0.209646	0.162226	-0.0252952	0.151282	-0.339474	0.153744	0.164956	0.155879	0.234166	0.361549	0.77878	0.255719	0.300254	0.103436	0.145517	-0.07751	-0.393585	
0.763811	1.39923	0	0	-14.7315	3.57553	0.504901	-1.02463	9.4597	-0.131525	0.0550585	-0.821408	9.42541	-6.14176	-0.0010965	-0.0713805	0.199702	0.386835	0.0114455	0.216334	0.154166	-0.0200285	0.140614	-0.332503	0.150265	0.174786	0.135869	0.243683	0.355201	0.796722	0.247983	0.310948	0.095513	0.154357	-0.07751	-0.393585	
0.763148	1.39618	0	0	-14.7315	3.57553	0.508563	-1.02125	10.1459	-0.579878	0.0488497	-0.815058	9.20301	-5.51322	-0.0100043	-0.0694733	0.199702	0.386835	0.00120975	0.223023	0.146105	-0.0147618	0.129945	-0.325531	0.146787	0.184616	0.115859	0.2532	0.348853	0.814664	0.240247	0.321643	0.08759	0.163198	-0.07751	-0.393585	
0.762385	1.39923	0	0	-14.7315	3.57553	0.512224	-1.01788	10.832	-1.02823	0.042641	-0.808707	8.98061	-4.88468	-0.018912	-0.067566	0.199702	0.386835	-0.009026	0.229711	0.138045	-0.009495	0.119276	-0.31856	0.143309	0.194446	0.095849	0.262716	0.342504	0.832606	0.23251	0.332337	0.079667	0.172039	-0.07751	-0.393585	
0.761413	1.40076	0	0	-14.7315	3.57553	0.506911	-1.00287	10.7559	-0.813026	0.039472	-0.799751	8.81159	-4.407	-0.020713	-0.062476	0.189994	0.389486	-0.009026	0.229711	0.131003	-0.00708925	0.122636	-0.328056	0.129099	0.207512	0.108303	0.251022	0.349264	0.838552	0.226507	0.338141	0.0779798	0.176807	-0.078632	-0.390414	
0.760131	1.40076	0	0	-14.7315	3.57553	0.501598	-0.98785	10.6797	-0.59782	0.036303	-0.790795	8.64256	-3.92931	-0.022514	-0.057386	0.180286	0.392137	-0.009026	0.229711	0.123961	-0.0046835	0.125995	-0.337552	0.11489	0.220579	0.120757	0.239328	0.356024	0.844499	0.220503	0.343944	0.0762925	0.181575	-0.079754	-0.387244	
0.758561	1.39923	0	0	-14.7315	3.57553	0.496285	-0.972835	10.6036	-0.382615	0.033134	-0.78184	8.47354	-3.45163	-0.024315	-0.052296	0.170579	0.394788	-0.009026	0.229711	0.116918	-0.00227775	0.129355	-0.347047	0.10068	0.233646	0.133211	0.227634	0.362784	0.850445	0.2145	0.349748	0.0746052	0.186343	-0.080876	-0.384073	
0.75681	1.40381	0	0	-14.7315	3.57553	0.490972	-0.957819	10.5274	-0.16741	0.029965	-0.772884	8.30452	-2.97394	-0.026116	-0.047206	0.160871	0.397439	-0.009026	0.229711	0.109876	0.000128	0.132715	-0.356543	0.08647	0.246712	0.145665	0.21594	0.369544	0.856391	0.208497	0.355552	0.072918	0.191111	-0.081998	-0.380902	
0.754985	1.40076	0	0	-14.591	3.17855	0.482332	-0.960834	10.5274	-0.16741	0.0260025	-0.784058	8.19859	-2.67456	-0.0402955	-0.0535802	0.156268	0.385698	-0.0323073	0.228947	0.106879	-0.00888325	0.107497	-0.354642	0.0757598	0.249929	0.127316	0.220822	0.35483	0.872923	0.20163	0.363802	0.0649977	0.199954	-0.0890425	-0.37386	
0.753193	1.40381	0	0	-14.4505	2.78157	0.473693	-0.963848	10.5274	-0.16741	0.02204	-0.795233	8.09266	-2.37519	-0.054475	-0.0599545	0.151664	0.373957	-0.0555885	0.228183	0.103883	-0.0178945	0.082279	-0.352741	0.0650495	0.253146	0.108966	0.225705	0.340116	0.889455	0.194763	0.372052	0.0570775	0.208797	-0.096087	-0.366819	
0.75154	1.40381	0	0	-14.3101	2.38459	0.465054	-0.966862	10.5274	-0.16741	0.0180775	-0.806408	7.98672	-2.07581	-0.0686545	-0.0663288	0.14706	0.362215	-0.0788698	0.227419	0.100886	-0.0269058	0.057061	-0.350839	0.0543393	0.256362	0.0906172	0.230587	0.325403	0.905986	0.187897	0.380302	0.0491572	0.21764	-0.103132	-0.359777	
0.750124	1.40381	0	0	-14.1696	1.98761	0.456414	-0.969877	10.5274	-0.16741	0.014115	-0.817582	7.88079	-1.77643	-0.082834	-0.072703	0.142457	0.350474	-0.102151	0.226655	0.097889	-0.035917	0.031843	-0.348938	0.043629	0.259579	0.072268	0.235469	0.310689	0.922518	0.18103	0.388552	0.041237	0.226483	-0.110176	-0.352735	
0.748912	1.39923	0	0	-14.1696	1.98761	0.454089	-0.977007	10.5274	-0.16741	0.0110798	-0.82018	7.77119	-1.46667	-0.0969768	-0.079066	0.137854	0.338764	-0.113346	0.214052	0.0888753	-0.0453552	0.031264	-0.370368	0.0398845	0.243148	0.0604955	0.221883	0.307128	0.907563	0.17343	0.3766	0.0309985	0.214855	-0.11895	-0.366486	
0.747778	1.40228	0	0	-14.1696	1.98761	0.451764	-0.984136	10.5274	-0.16741	0.0080445	-0.822779	7.66158	-1.15691	-0.11112	-0.085429	0.133251	0.327055	-0.12454	0.201449	0.0798615	-0.0547935	0.030685	-0.391797	0.03614	0.226717	0.048723	0.208298	0.303567	0.892609	0.165831	0.364648	0.02076	0.203226	-0.127725	-0.380237	
0.746596	1.3977	0	0	-14.1696	1.98761	0.449439	-0.991266	10.5274	-0.16741	0.00500925	-0.825378	7.55198	-0.847145	-0.125262	-0.091792	0.128648	0.315345	-0.135735	0.188845	0.0708478	-0.0642318	0.030106	-0.413226	0.0323955	0.210286	0.0369505	0.194712	0.300007	0.877655	0.158231	0.352695	0.0105215	0.191597	-0.136499	-0.393988	
0.745239	1.39923	0	0	-14.1696	1.98761	0.447114	-0.998396	10.5274	-0.16741	0.001974	-0.827976	7.44237	-0.537383	-0.139405	-0.098155	0.124045	0.303635	-0.14693	0.176242	0.061834	-0.07367	0.029527	-0.434656	0.028651	0.193855	0.025178	0.181126	0.296446	0.8627	0.150632	0.340743	0.000283	0.179969	-0.145274	-0.407739	
0.743582	1.40533	0	0	-14.1696	1.98761	0.440813	-0.994279	10.5274	-0.16741	-0.00725075	-0.824238	7.78538	-0.598035	-0.155301	-0.099448	0.108096	0.29937	-0.151605	0.167374	0.0528347	-0.0830832	0.009427	-0.446877	0.012504	0.18558	0.0209273	0.169755	0.291296	0.852272	0.141317	0.3337	-0.004572	0.166696	-0.155154	-0.418287	
0.741513	1.39923	0	0	-14.1696	1.98761	0.434512	-0.990161	10.5274	-0.16741	-0.0164755	-0.8205	8.12839	-0.658686	-0.171197	-0.100741	0.0921465	0.295106	-0.15628	0.158506	0.0438355	-0.0924965	-0.010673	-0.459099	-0.003643	0.177305	0.0166765	0.158383	0.286145	0.841843	0.132001	0.326658	-0.009427	0.153423	-0.165033	-0.428835	
0.739074	1.39923	0	0	-14.1696	1.98761	0.428212	-0.986044	10.5274	-0.16741	-0.0257003	-0.816762	8.4714	-0.719338	-0.187093	-0.102034	0.0761973	0.290841	-0.160956	0.149637	0.0348362	-0.10191	-0.030773	-0.471321	-0.01979	0.16903	0.0124258	0.147012	0.280995	0.831415	0.122686	0.319615	-0.014282	0.140151	-0.174913	-0.439382	
0.736399	1.39923	0	0	-14.1696	1.98761	0.421911	-0.981927	10.5274	-0.16741	-0.034925	-0.813024	8.81441	-0.779989	-0.202989	-0.103327	0.060248	0.286576	-0.165631	0.140769	0.025837	-0.111323	-0.050873	-0.483542	-0.035937	0.160755	0.008175	0.13564	0.275845	0.820987	0.113371	0.312572	-0.019137	0.126878	-0.184793	-0.44993	
0.733623	1.40228	0	0	-14.1696	1.98761	0.412304	-0.995788	10.5274	-0.16741	-0.0480785	-0.820436	8.31908	-0.288865	-0.202881	-0.126698	0.0493935	0.268043	-0.179642	0.114278	0.011864	-0.123982	-0.0675842	-0.505085	-0.050311	0.147624	-0.014289	0.12915	0.262392	0.809139	0.104071	0.305544	-0.0318647	0.122431	-0.190998	-0.457995	
0.730882	1.39923	0	0	-14.1696	1.98761	0.402698	-1.00965	10.5274	-0.16741	-0.061232	-0.827848	7.82376	0.202259	-0.202773	-0.150068	0.038539	0.24951	-0.193653	0.087787	-0.002109	-0.136641	-0.0842955	-0.526628	-0.064685	0.134493	-0.036753	0.122659	0.24894	0.797291	0.094772	0.298517	-0.0445925	0.117984	-0.197204	-0.46606	
0.72831	1.3977	0	0	-14.1696	1.98761	0.393092	-1.02351	10.5274	-0.16741	-0.0743855	-0.83526	7.32843	0.693384	-0.202665	-0.173439	0.0276845	0.230977	-0.207663	0.061296	-0.016082	-0.149301	-0.101007	-0.54817	-0.079059	0.121362	-0.059217	0.116169	0.235487	0.785442	0.0854725	0.291489	-0.0573203	0.113538	-0.203409	-0.474125	
0.726016	1.40076	0	0	-14.1696	1.98761	0.383485	-1.03737	10.5274	-0.16741	-0.087539	-0.842672	6.8331	1.18451	-0.202557	-0.19681	0.01683	0.212444	-0.221674	0.034805	-0.030055	-0.16196	-0.117718	-0.569713	-0.093433	0.108231	-0.081681	0.109678	0.222034	0.773594	0.076173	0.284461	-0.070048	0.109091	-0.209614	-0.48219	
0.723945	1.40228	0	0	-14.1696	1.98761	0.372575	-1.04746	10.5274	-0.16741	-0.0884593	-0.851201	7.2121	1.02215	-0.213062	-0.213167	0.0059915	0.193996	-0.239282	0.018713	-0.0350237	-0.182602	-0.143222	-0.588939	-0.104333	0.085437	-0.0901413	0.087082	0.211765	0.752882	0.06866	0.261373	-0.080567	0.085066	-0.220895	-0.501407	
0.721986	1.40533	0	0	-14.1696	1.98761	0.361664	-1.05754	10.5274	-0.16741	-0.0893795	-0.85973	7.59109	0.8598	-0.223567	-0.229525	-0.004847	0.175548	-0.256889	0.002621	-0.0399925	-0.203243	-0.168725	-0.608164	-0.115233	0.062643	-0.0986015	0.064486	0.201495	0.732171	0.061147	0.238285	-0.091086	0.061041	-0.232177	-0.520624	
0.720026	1.39923	0	0	-14.1696	1.98761	0.350753	-1.06763	10.5274	-0.16741	-0.0902997	-0.868258	7.97009	0.697446	-0.234073	-0.245882	-0.0156855	0.1571	-0.274496	-0.013471	-0.0449613	-0.223885	-0.194229	-0.62739	-0.126133	0.039849	-0.107062	0.04189	0.191225	0.711459	0.053634	0.215197	-0.101605	0.037016	-0.243458	-0.53984	
0.717951	1.40076	0	0	-14.1696	1.98761	0.339843	-1.07771	10.5274	-0.16741	-0.09122	-0.876787	8.34909	0.535092	-0.244578	-0.262239	-0.026524	0.138652	-0.292104	-0.029563	-0.04993	-0.244527	-0.219732	-0.646616	-0.137033	0.017055	-0.115522	0.019294	0.180956	0.690747	0.046121	0.192109	-0.112124	0.012991	-0.254739	-0.559057	
0.715651	1.40228	0	0	-14.1696	1.98761	0.334893	-1.07735	10.5274	-0.16741	-0.0972592	-0.881959	7.93083	0.808386	-0.249825	-0.270392	-0.0294297	0.122373	-0.293142	-0.0485295	-0.0648525	-0.25426	-0.225873	-0.674745	-0.161905	0.00723675	-0.1272	0.00590675	0.182105	0.662683	0.036042	0.176379	-0.119801	-0.0055275	-0.261252	-0.578883	
0.713069	1.40381	0	0	-14.1696	1.98761	0.329943	-1.07698	10.5274	-0.16741	-0.103298	-0.887131	7.51258	1.08168	-0.255071	-0.278545	-0.0323355	0.106094	-0.29418	-0.067496	-0.079775	-0.263993	-0.232014	-0.702874	-0.186777	-0.0025815	-0.138877	-0.0074805	0.183253	0.63462	0.025963	0.16065	-0.127477	-0.024046	-0.267764	-0.59871	
0.710303	1.40533	0	0	-14.1696	1.98761	0.324992	-1.07661	10.5274	-0.16741	-0.109338	-0.892302	7.09433	1.35497	-0.260318	-0.286698	-0.0352413	0.0898142	-0.295218	-0.0864625	-0.0946975	-0.273726	-0.238154	-0.731003	-0.211648	-0.0123998	-0.150555	-0.0208677	0.184401	0.606557	0.015884	0.14492	-0.135154	-0.0425645	-0.274277	-0.618537	
0.707473	1.40076	0	0	-14.1696	1.98761	0.320042	-1.07624	10.5274	-0.16741	-0.115377	-0.897474	6.67608	1.62827	-0.265564	-0.294851	-0.038147	0.073535	-0.296256	-0.105429	-0.10962	-0.283459	-0.244295	-0.759132	-0.23652	-0.022218	-0.162233	-0.034255	0.18555	0.578493	0.005805	0.12919	-0.14283	-0.061083	-0.28079	-0.638363	
0.704702	1.3977	0	0	-14.0351	1.60753	0.311792	-1.09372	10.5274	-0.16741	-0.122331	-0.911129	6.63633	1.7406	-0.276045	-0.311107	-0.0585342	0.0578717	-0.313808	-0.121368	-0.116568	-0.298347	-0.262509	-0.775675	-0.249059	-0.0399962	-0.177098	-0.0385178	0.172146	0.566838	0.00162375	0.118938	-0.141514	-0.0781895	-0.285869	-0.649453	
0.702109	1.40533	0	0	-13.9006	1.22745	0.303542	-1.11121	10.5274	-0.16741	-0.129286	-0.924785	6.59658	1.85294	-0.286525	-0.327363	-0.0789215	0.0422085	-0.331361	-0.137307	-0.123516	-0.313236	-0.280722	-0.792218	-0.261599	-0.0577745	-0.191964	-0.0427805	0.158743	0.555183	-0.0025575	0.108686	-0.140197	-0.095296	-0.290949	-0.660543	
0.699812	1.39923	0	0	-13.7661	0.847365	0.295293	-1.12869	10.5274	-0.16741	-0.13624	-0.93844	6.55683	1.96528	-0.297005	-0.343619	-0.0993088	0.0265453	-0.348913	-0.153247	-0.130463	-0.328125	-0.298936	-0.808762	-0.274138	-0.0755528	-0.206829	-0.0470432	0.145339	0.543527	-0.00673875	0.098434	-0.13888	-0.112403	-0.296028	-0.671632	
0.697856	1.40076	0	0	-13.6316	0.467283	0.287043	-1.14618	10.5274	-0.16741	-0.143195	-0.952095	6.51708	2.07761	-0.307486	-0.359875	-0.119696	0.010882	-0.366465	-0.169186	-0.137411	-0.343013	-0.31715	-0.825305	-0.286677	-0.093331	-0.221695	-0.051306	0.131935	0.531872	-0.01092	0.088182	-0.137564	-0.129509	-0.301108	-0.682722	
0.696221	1.40076	0	0	-13.6316	0.467283	0.287355	-1.16064	10.5274	-0.16741	-0.137971	-0.966859	6.51708	2.07761	-0.310954	-0.372968	-0.119282	-0.01465	-0.377538	-0.181461	-0.144354	-0.35785	-0.326546	-0.843958	-0.299192	-0.111028	-0.219498	-0.0806088	0.12168	0.511448	-0.0243417	0.0710572	-0.149739	-0.148545	-0.307623	-0.702413	
0.694883	1.40076	0	0	-13.6316	0.467283	0.287668	-1.17511	10.5274	-0.16741	-0.132747	-0.981623	6.51708	2.07761	-0.314423	-0.386062	-0.118869	-0.040182	-0.38861	-0.193737	-0.151298	-0.372686	-0.335942	-0.862611	-0.311706	-0.128724	-0.217301	-0.109911	0.111425	0.491025	-0.0377635	0.0539325	-0.161914	-0.167581	-0.314137	-0.722104	
0.693819	1.39923	0	0	-13.6316	0.467283	0.287981	-1.18957	10.5274	-0.16741	-0.127523	-0.996386	6.51708	2.07761	-0.317891	-0.399155	-0.118455	-0.065714	-0.399683	-0.206013	-0.158242	-0.387522	-0.345338	-0.881264	-0.324221	-0.146421	-0.215105	-0.139214	0.101171	0.470602	-0.0511853	0.0368077	-0.174089	-0.186618	-0.320651	-0.741795	
0.693006	1.39923	0	0	-13.6316	0.467283	0.288293	-1.20403	10.5274	-0.16741	-0.122299	-1.01115	6.51708	2.07761	-0.32136	-0.412248	-0.118042	-0.091246	-0.410756	-0.218288	-0.165185	-0.402359	-0.354734	-0.899917	-0.336736	-0.164117	-0.212908	-0.168517	0.090916	0.450178	-0.064607	0.019683	-0.186264	-0.205654	-0.327166	-0.761486	
0.692426	1.40076	0	0	-13.6316	0.467283	0.283358	-1.20366	10.6036	-0.382615	-0.125316	-1.01371	6.51708	2.07761	-0.326593	-0.420326	-0.132146	-0.100018	-0.423596	-0.225467	-0.168161	-0.411154	-0.367365	-0.909318	-0.340443	-0.180117	-0.217131	-0.179649	0.0889	0.431222	-0.0712895	0.005613	-0.197236	-0.214629	-0.331145	-0.7756	
0.692085	1.39465	0	0	-13.6316	0.467283	0.278423	-1.20328	10.6797	-0.59782	-0.128333	-1.01628	6.51708	2.07761	-0.331827	-0.428403	-0.14625	-0.108789	-0.436437	-0.232645	-0.171137	-0.419949	-0.379996	-0.918719	-0.344149	-0.196117	-0.221353	-0.190781	0.086884	0.412266	-0.077972	-0.008457	-0.208208	-0.223604	-0.335124	-0.789714	
0.691997	1.39923	0	0	-13.6316	0.467283	0.273488	-1.2029	10.7559	-0.813026	-0.13135	-1.01884	6.51708	2.07761	-0.33706	-0.436481	-0.160353	-0.117561	-0.449277	-0.239823	-0.174114	-0.428744	-0.392628	-0.92812	-0.347856	-0.212116	-0.225575	-0.201913	0.084868	0.393311	-0.0846545	-0.022527	-0.21918	-0.232579	-0.339102	-0.803828	
0.692173	1.39923	0	0	-13.6316	0.467283	0.268553	-1.20253	10.832	-1.02823	-0.134367	-1.0214	6.51708	2.07761	-0.342293	-0.444559	-0.174457	-0.126333	-0.462117	-0.247002	-0.17709	-0.437539	-0.405259	-0.937521	-0.351563	-0.228116	-0.229798	-0.213045	0.082852	0.374355	-0.091337	-0.036597	-0.230152	-0.241554	-0.343081	-0.817942	
0.692627	1.39923	0	0	-15.5445	1.7172	0.261313	-1.20918	10.832	-1.02823	-0.141326	-1.03497	6.51708	2.07761	-0.359781	-0.440786	-0.18067	-0.133044	-0.45854	-0.25711	-0.18204	-0.44074	-0.410753	-0.944502	-0.348178	-0.237683	-0.238805	-0.210628	0.0648585	0.375998	-0.0929993	-0.0428718	-0.233804	-0.24454	-0.34562	-0.823434	
0.693369	1.3977	0	0	-17.4574	2.96713	0.254073	-1.21583	10.832	-1.02823	-0.148285	-1.04853	6.51708	2.07761	-0.377269	-0.437013	-0.186882	-0.139754	-0.454963	-0.267219	-0.18699	-0.443941	-0.416247	-0.951483	-0.344793	-0.24725	-0.247811	-0.208212	0.046865	0.377641	-0.0946615	-0.0491465	-0.237457	-0.247526	-0.348158	-0.828926	
0.694392	1.39465	5	0	-19.3703	4.21705	0.246833	-1.22248	10.832	-1.02823	-0.155245	-1.06209	6.51708	2.07761	-0.394757	-0.433241	-0.193095	-0.146464	-0.451387	-0.277327	-0.191939	-0.447143	-0.421742	-0.958463	-0.341407	-0.256816	-0.256818	-0.205796	0.0288715	0.379285	-0.0963237	-0.0554212	-0.24111	-0.250513	-0.350697	-0.834418	
0.695666	1.39618	5	0	-21.2832	5.46697	0.239593	-1.22913	10.832	-1.02823	-0.162204	-1.07565	6.51708	2.07761	-0.412245	-0.429468	-0.199307	-0.153175	-0.44781	-0.287435	-0.196889	-0.450344	-0.427236	-0.965444	-0.338022	-0.266383	-0.265824	-0.203379	0.010878	0.380928	-0.097986	-0.061696	-0.244762	-0.253499	-0.353235	-0.83991	
0.697162	1.3977	5	0	-19.3703	4.21705	0.233669	-1.23946	10.7559	-0.813026	-0.162098	-1.08702	6.93534	1.80432	-0.405211	-0.449347	-0.202217	-0.169185	-0.452438	-0.296051	-0.200849	-0.456328	-0.422378	-0.979173	-0.343431	-0.277535	-0.26104	-0.2169	0.0155263	0.367791	-0.105539	-0.0622763	-0.248412	-0.256483	-0.357964	-0.839202	
0.698847	1.40076	5	0	-17.4574	2.96713	0.227745	-1.24979	10.6797	-0.59782	-0.161992	-1.09838	7.35359	1.53102	-0.398177	-0.469225	-0.205128	-0.185196	-0.457066	-0.304667	-0.204808	-0.462313	-0.41752	-0.992902	-0.34884	-0.288687	-0.256255	-0.230421	0.0201745	0.354655	-0.113092	-0.0628565	-0.252062	-0.259466	-0.362694	-0.838493	
0.700692	1.3977	5	0	-15.5445	1.7172	0.22182	-1.26012	10.6036	-0.382615	-0.161886	-1.10974	7.77184	1.25773	-0.391144	-0.489104	-0.208039	-0.201207	-0.461694	-0.313284	-0.208767	-0.468297	-0.412662	-1.00663	-0.354249	-0.299839	-0.251471	-0.243942	0.0248227	0.341519	-0.120644	-0.0634368	-0.255712	-0.26245	-0.367423	-0.837785	
0.702659	1.40076	5	0	-13.6316	0.467283	0.215896	-1.27045	10.5274	-0.16741	-0.16178	-1.12111	8.19009	0.984436	-0.38411	-0.508983	-0.210949	-0.217217	-0.466322	-0.3219	-0.212727	-0.474281	-0.407804	-1.02036	-0.359658	-0.310991	-0.246687	-0.257463	0.029471	0.328382	-0.128197	-0.064017	-0.259362	-0.265434	-0.372152	-0.837076	
0.704667	1.40076	5	0	-15.5445	1.7172	0.217201	-1.27414	10.6036	-0.382615	-0.160741	-1.12404	8.19009	0.984436	-0.391085	-0.512054	-0.217153	-0.223888	-0.460974	-0.337015	-0.210756	-0.479851	-0.40457	-1.0295	-0.35797	-0.31576	-0.2525	-0.264044	0.0259008	0.313916	-0.126479	-0.079826	-0.25972	-0.277711	-0.378316	-0.844946	
0.706619	1.40076	5	0	-17.4574	2.96713	0.218507	-1.27783	10.6797	-0.59782	-0.159702	-1.12698	8.19009	0.984436	-0.39806	-0.515125	-0.223357	-0.230559	-0.455626	-0.352131	-0.208786	-0.48542	-0.401336	-1.03864	-0.356283	-0.32053	-0.258313	-0.270624	0.0223305	0.29945	-0.12476	-0.095635	-0.260079	-0.289988	-0.38448	-0.852815	
0.708416	1.39618	5	0	-19.3703	4.21705	0.219813	-1.28152	10.7559	-0.813026	-0.158664	-1.12991	8.19009	0.984436	-0.405035	-0.518196	-0.229562	-0.23723	-0.450277	-0.367246	-0.206815	-0.490989	-0.398101	-1.04778	-0.354595	-0.325299	-0.264126	-0.277205	0.0187602	0.284983	-0.123042	-0.111444	-0.260437	-0.302264	-0.390644	-0.860685	
0.709961	1.39923	5	0	-21.2832	5.46697	0.221118	-1.2852	10.832	-1.02823	-0.157625	-1.13285	8.19009	0.984436	-0.41201	-0.521267	-0.235766	-0.243901	-0.444929	-0.382361	-0.204844	-0.496559	-0.394867	-1.05692	-0.352907	-0.330068	-0.269939	-0.283786	0.01519	0.270517	-0.121324	-0.127253	-0.260796	-0.314541	-0.396808	-0.868554	
0.711155	1.39923	5	0	-19.2413	3.85248	0.214895	-1.28114	10.7559	-0.813026	-0.157625	-1.13285	7.77184	1.25773	-0.39977	-0.533076	-0.230838	-0.25783	-0.443148	-0.387394	-0.197925	-0.49894	-0.393251	-1.06149	-0.340739	-0.338019	-0.262533	-0.281707	0.00853325	0.264807	-0.122988	-0.133497	-0.262802	-0.322153	-0.398248	-0.877116	
0.711968	1.39923	5	0	-17.1994	2.238	0.208672	-1.27707	10.6797	-0.59782	-0.157625	-1.13285	7.35359	1.53102	-0.387529	-0.544886	-0.225909	-0.271759	-0.441368	-0.392427	-0.191005	-0.501321	-0.391635	-1.06606	-0.328571	-0.34597	-0.255127	-0.279629	0.0018765	0.259097	-0.124652	-0.139741	-0.264807	-0.329765	-0.399688	-0.885678	
0.712534	1.3977	5	0	-15.1575	0.623511	0.202448	-1.27301	10.6036	-0.382615	-0.157625	-1.13285	6.93534	1.80432	-0.375289	-0.556695	-0.22098	-0.285687	-0.439587	-0.397459	-0.184086	-0.503701	-0.390019	-1.07062	-0.316403	-0.353921	-0.247721	-0.27755	-0.00478025	0.253387	-0.126316	-0.145985	-0.266813	-0.337376	-0.401128	-0.894239	
0.713015	1.3977	5	0	-13.1156	-0.990974	0.196225	-1.26894	10.5274	-0.16741	-0.157625	-1.13285	6.51708	2.07761	-0.363049	-0.568504	-0.216052	-0.299616	-0.437806	-0.402492	-0.177167	-0.506082	-0.388403	-1.07519	-0.304235	-0.361872	-0.240315	-0.275472	-0.011437	0.247677	-0.12798	-0.152229	-0.268819	-0.344988	-0.402568	-0.902801	
0.713576	1.39618	5	0	-15.0285	0.258947	0.202744	-1.28736	10.6036	-0.382615	-0.153474	-1.14458	6.51708	2.07761	-0.368279	-0.576507	-0.212771	-0.30889	-0.442443	-0.411056	-0.177167	-0.506082	-0.388403	-1.07519	-0.304235	-0.361872	-0.243502	-0.266465	-0.00835425	0.238964	-0.126294	-0.156993	-0.274106	-0.343316	-0.396754	-0.9066	
0.714376	1.39618	5	0	-16.9414	1.50887	0.209264	-1.30579	10.6797	-0.59782	-0.149323	-1.15631	6.51708	2.07761	-0.373509	-0.584511	-0.209489	-0.318163	-0.44708	-0.41962	-0.177167	-0.506082	-0.388403	-1.07519	-0.304235	-0.361872	-0.246689	-0.257458	-0.0052715	0.230251	-0.124608	-0.161757	-0.279393	-0.341645	-0.390941	-0.910399	
0.715576	1.39618	5	0	-18.8543	2.75879	0.215784	-1.32422	10.7559	-0.813026	-0.145172	-1.16804	6.51708	2.07761	-0.378738	-0.592515	-0.206207	-0.327437	-0.451718	-0.428184	-0.177167	-0.506082	-0.388403	-1.07519	-0.304235	-0.361872	-0.249876	-0.248451	-0.00218875	0.221539	-0.122922	-0.166522	-0.284681	-0.339973	-0.385127	-0.914198	
0.717216	1.39923	5	0	-20.7672	4.00871	0.222303	-1.34264	10.832	-1.02823	-0.141021	-1.17977	6.51708	2.07761	-0.383968	-0.600518	-0.202926	-0.336711	-0.456355	-0.436748	-0.177167	-0.506082	-0.388403	-1.07519	-0.304235	-0.361872	-0.253063	-0.239444	0.000894	0.212826	-0.121236	-0.171286	-0.289968	-0.338301	-0.379313	-0.917997	
0.719197	1.39923	5	0	-20.7672	4.00871	0.21999	-1.34961	10.832	-1.02823	-0.139984	-1.1827	6.51708	2.07761	-0.37872	-0.615349	-0.209136	-0.343334	-0.451028	-0.451804	-0.175197	-0.51165	-0.38356	-1.08888	-0.300862	-0.371403	-0.237681	-0.259879	0.0101248	0.186739	-0.123729	-0.186115	-0.287876	-0.357473	-0.384387	-0.928911	
0.721412	1.39923	5	0	-20.7672	4.00871	0.217676	-1.35659	10.832	-1.02823	-0.138947	-1.18563	6.51708	2.07761	-0.373472	-0.63018	-0.215346	-0.349957	-0.4457	-0.466859	-0.173227	-0.517217	-0.378718	-1.10256	-0.29749	-0.380934	-0.222299	-0.280315	0.0193555	0.160652	-0.126221	-0.200944	-0.285785	-0.376646	-0.389462	-0.939824	
0.723753	1.3977	5	0	-20.7672	4.00871	0.215362	-1.36356	10.832	-1.02823	-0.13791	-1.18857	6.51708	2.07761	-0.368225	-0.64501	-0.221557	-0.356579	-0.440373	-0.481915	-0.171257	-0.522785	-0.373875	-1.11625	-0.294117	-0.390465	-0.206916	-0.300751	0.0285863	0.134564	-0.128714	-0.215774	-0.283694	-0.395818	-0.394537	-0.950738	
0.726112	1.39923	5	0	-20.7672	4.00871	0.213049	-1.37053	10.832	-1.02823	-0.136873	-1.1915	6.51708	2.07761	-0.362977	-0.659841	-0.227767	-0.363202	-0.435046	-0.496971	-0.169287	-0.528353	-0.369032	-1.12994	-0.290745	-0.399996	-0.191534	-0.321186	0.037817	0.108477	-0.131207	-0.230603	-0.281602	-0.41499	-0.399611	-0.961652	
0.728383	1.39465	5	0	-20.7672	4.00871	0.216665	-1.36724	10.832	-1.02823	-0.129798	-1.18936	6.51708	2.07761	-0.36123	-0.664779	-0.227767	-0.363202	-0.431499	-0.506994	-0.16039	-0.536305	-0.364197	-1.1436	-0.276875	-0.41272	-0.189943	-0.325684	0.0326838	0.098493	-0.126167	-0.244847	-0.276695	-0.428857	-0.399969	-0.973253	
0.730485	1.39313	5	0	-20.7672	4.00871	0.22028	-1.36395	10.832	-1.02823	-0.122722	-1.18722	6.51708	2.07761	-0.359483	-0.669717	-0.227767	-0.363202	-0.427953	-0.517018	-0.151494	-0.544258	-0.359361	-1.15727	-0.263004	-0.425444	-0.188351	-0.330182	0.0275505	0.088509	-0.121127	-0.25909	-0.271788	-0.442725	-0.400328	-0.984854	
0.73235	1.39465	5	0	-20.7672	4.00871	0.223896	-1.36065	10.832	-1.02823	-0.115647	-1.18508	6.51708	2.07761	-0.357735	-0.674655	-0.227767	-0.363202	-0.424407	-0.527041	-0.142597	-0.55221	-0.354525	-1.17094	-0.249134	-0.438168	-0.186759	-0.334679	0.0224172	0.078525	-0.116087	-0.273334	-0.266882	-0.456592	-0.400687	-0.996456	
0.733914	1.39923	5	0	-20.7672	4.00871	0.227512	-1.35736	10.832	-1.02823	-0.108572	-1.18294	6.51708	2.07761	-0.355988	-0.679593	-0.227767	-0.363202	-0.42086	-0.537064	-0.133701	-0.560162	-0.34969	-1.1846	-0.235264	-0.450892	-0.185168	-0.339177	0.017284	0.068541	-0.111047	-0.287577	-0.261975	-0.470459	-0.401045	-1.00806	
0.73511	1.3977	5	0	-20.7672	4.00871	0.222595	-1.35698	10.9064	-1.23837	-0.111592	-1.18548	6.55683	1.96528	-0.354242	-0.684528	-0.227767	-0.363202	-0.42086	-0.537064	-0.134685	-0.55738	-0.346471	-1.1937	-0.235264	-0.450892	-0.179329	-0.332613	0.018817	0.064209	-0.112726	-0.282832	-0.261975	-0.470459	-0.391607	-1.00949	
0.735875	1.39618	5	0	-20.7672	4.00871	0.217678	-1.35659	10.9807	-1.44851	-0.114613	-1.18801	6.59658	1.85294	-0.352496	-0.689464	-0.227767	-0.363202	-0.42086	-0.537064	-0.13567	-0.554597	-0.343251	-1.2028	-0.235264	-0.450892	-0.17349	-0.326049	0.02035	0.059877	-0.114405	-0.278087	-0.261975	-0.470459	-0.382169	-1.01093	
0.736161	1.39923	5	0	-20.7672	4.00871	0.212762	-1.35621	11.0551	-1.65865	-0.117633	-1.19055	6.63633	1.7406	-0.350749	-0.6944	-0.227767	-0.363202	-0.42086	-0.537064	-0.136655	-0.551814	-0.340031	-1.2119	-0.235264	-0.450892	-0.167651	-0.319486	0.021883	0.055545	-0.116085	-0.273341	-0.261975	-0.470459	-0.372731	-1.01236	
0.736096	1.39618	5	0	-20.7672	4.00871	0.207845	-1.35582	11.1294	-1.86879	-0.120653	-1.19308	6.67608	1.62827	-0.349003	-0.699335	-0.227767	-0.363202	-0.42086	-0.537064	-0.137639	-0.549032	-0.336812	-1.221	-0.235264	-0.450892	-0.161812	-0.312922	0.023416	0.051213	-0.117764	-0.268596	-0.261975	-0.470459	-0.363293	-1.0138	
0.735903	1.39618	5	0	-20.7672	4.00871	0.214064	-1.35989	11.1294	-1.86879	-0.115558	-1.19641	6.67608	1.62827	-0.338517	-0.706187	-0.227767	-0.363202	-0.407344	-0.553593	-0.136655	-0.551814	-0.331989	-1.23463	-0.231897	-0.460408	-0.158627	-0.321925	0.023416	0.051213	-0.118604	-0.266223	-0.268074	-0.466474	-0.370192	-1.00692	
0.735807	1.39465	5	0	-20.7672	4.00871	0.220282	-1.36395	11.1294	-1.86879	-0.110463	-1.19974	6.67608	1.62827	-0.328031	-0.713039	-0.227767	-0.363202	-0.393827	-0.570121	-0.13567	-0.554597	-0.327165	-1.24826	-0.22853	-0.469923	-0.155441	-0.330927	0.023416	0.051213	-0.119443	-0.263849	-0.274174	-0.462488	-0.377092	-1.00005	
0.736032	1.39618	5	0	-20.7672	4.00871	0.2265	-1.36801	11.1294	-1.86879	-0.105368	-1.20307	6.67608	1.62827	-0.317544	-0.71989	-0.227767	-0.363202	-0.380311	-0.58665	-0.134685	-0.55738	-0.322342	-1.26189	-0.225163	-0.479439	-0.152256	-0.33993	0.023416	0.051213	-0.120283	-0.261475	-0.280273	-0.458503	-0.383991	-0.993172	
0.736801	1.39618	5	0	-20.7672	4.00871	0.232719	-1.37208	11.1294	-1.86879	-0.100273	-1.2064	6.67608	1.62827	-0.307058	-0.726742	-0.227767	-0.363202	-0.366795	-0.603179	-0.133701	-0.560162	-0.317519	-1.27552	-0.221796	-0.488955	-0.14907	-0.348933	0.023416	0.051213	-0.121123	-0.259102	-0.286372	-0.454518	-0.390891	-0.986297	
0.7383	1.39618	5	0	-20.7672	4.00871	0.228812	-1.36104	11.1294	-1.86879	-0.0952632	-1.1984	6.71533	1.51733	-0.300052	-0.723729	-0.219917	-0.361213	-0.370337	-0.593167	-0.128736	-0.556986	-0.317519	-1.27552	-0.209593	-0.496928	-0.141626	-0.346876	0.0300872	0.05685	-0.118612	-0.255265	-0.288825	-0.447587	-0.387261	-0.983932	
0.740442	1.39465	5	0	-20.7672	4.00871	0.224906	-1.34999	11.1294	-1.86879	-0.0902535	-1.1904	6.75459	1.40639	-0.293047	-0.720716	-0.212067	-0.359223	-0.37388	-0.583155	-0.123772	-0.55381	-0.317519	-1.27552	-0.19739	-0.504902	-0.134183	-0.344819	0.0367585	0.062487	-0.1161	-0.251429	-0.291277	-0.440656	-0.383631	-0.981567	
0.743032	1.39923	5	0	-20.7672	4.00871	0.220999	-1.33895	11.1294	-1.86879	-0.0852438	-1.18239	6.79384	1.29545	-0.286042	-0.717703	-0.204218	-0.357233	-0.377422	-0.573144	-0.118807	-0.550635	-0.317519	-1.27552	-0.185188	-0.512876	-0.126739	-0.342761	0.0434298	0.068124	-0.113589	-0.247592	-0.293729	-0.433725	-0.380001	-0.979202	
0.745873	1.39618	5	0	-20.7672	4.00871	0.217092	-1.32791	11.1294	-1.86879	-0.080234	-1.17439	6.8331	1.18451	-0.279036	-0.71469	-0.196368	-0.355244	-0.380965	-0.563132	-0.113843	-0.547459	-0.317519	-1.27552	-0.172985	-0.520849	-0.119295	-0.340704	0.050101	0.073761	-0.111078	-0.243756	-0.296182	-0.426794	-0.376371	-0.976837	
0.748769	1.3977	5	0	-20.7672	4.00871	0.219404	-1.32092	10.4433	-1.42044	-0.0772083	-1.17185	6.8331	1.18451	-0.275523	-0.701779	-0.201289	-0.341337	-0.366304	-0.56115	-0.10986	-0.541493	-0.310374	-1.2732	-0.165817	-0.514556	-0.118228	-0.320596	0.053705	0.088099	-0.099337	-0.233138	-0.284421	-0.420249	-0.371289	-0.965928	
0.751524	1.3977	5	0	-20.7672	4.00871	0.221715	-1.31393	9.75712	-0.972089	-0.0741825	-1.16931	6.8331	1.18451	-0.27201	-0.688867	-0.20621	-0.32743	-0.351642	-0.559168	-0.105878	-0.535526	-0.303229	-1.27089	-0.158648	-0.508264	-0.117162	-0.300487	0.057309	0.102437	-0.087596	-0.222521	-0.272659	-0.413705	-0.366206	-0.955019	
0.753958	1.3977	5	0	-20.7672	4.00871	0.224027	-1.30695	9.07096	-0.523736	-0.0711567	-1.16678	6.8331	1.18451	-0.268497	-0.675956	-0.211131	-0.313523	-0.336981	-0.557186	-0.101895	-0.529559	-0.296085	-1.26857	-0.15148	-0.501972	-0.116095	-0.280378	0.060913	0.116775	-0.075855	-0.211903	-0.260898	-0.407161	-0.361124	-0.944111	
0.756005	1.39618	5	0	-20.7672	4.00871	0.226338	-1.29996	8.3848	-0.075383	-0.068131	-1.16424	6.8331	1.18451	-0.264984	-0.663045	-0.216052	-0.299616	-0.32232	-0.555204	-0.097913	-0.523593	-0.28894	-1.26626	-0.144312	-0.495679	-0.115028	-0.26027	0.064517	0.131113	-0.064114	-0.201286	-0.249136	-0.400616	-0.356042	-0.933202	
0.757648	1.39618	5	0	-20.7672	4.00871	0.232566	-1.30403	8.3848	-0.075383	-0.0651033	-1.1617	6.47308	1.33551	-0.256211	-0.66497	-0.20984	-0.292967	-0.315864	-0.551704	-0.0919527	-0.523199	-0.290548	-1.26171	-0.13376	-0.498911	-0.105971	-0.262714	0.0681173	0.145494	-0.061612	-0.186419	-0.250408	-0.383741	-0.352052	-0.91917	
0.758871	1.39618	5	0	-20.7672	4.00871	0.238793	-1.3081	8.3848	-0.075383	-0.0620755	-1.15916	6.11306	1.48651	-0.247439	-0.666895	-0.203628	-0.286318	-0.309408	-0.548204	-0.0859925	-0.522805	-0.292157	-1.25716	-0.123208	-0.502143	-0.0969145	-0.265158	0.0717175	0.159875	-0.05911	-0.171552	-0.25168	-0.366866	-0.348063	-0.905139	
0.759657	1.39923	5	0	-20.7672	4.00871	0.245021	-1.31217	8.3848	-0.075383	-0.0590477	-1.15662	5.75305	1.63751	-0.238667	-0.668821	-0.197416	-0.279668	-0.302952	-0.544704	-0.0800322	-0.522411	-0.293766	-1.25262	-0.112656	-0.505375	-0.0878577	-0.267603	0.0753178	0.174256	-0.056608	-0.156685	-0.252951	-0.349992	-0.344074	-0.891107	
0.75999	1.39465	5	0	-20.7672	4.00871	0.251249	-1.31624	8.3848	-0.075383	-0.05602	-1.15408	5.39303	1.78851	-0.229894	-0.670746	-0.191204	-0.273019	-0.296496	-0.541204	-0.074072	-0.522017	-0.295374	-1.24807	-0.102104	-0.508607	-0.078801	-0.270047	0.078918	0.188637	-0.054106	-0.141818	-0.254223	-0.333117	-0.340084	-0.877075	
0.759843	1.3916	5	0	-20.7672	4.00871	0.261107	-1.317	8.45744	-0.280693	-0.0510015	-1.14605	5.39303	1.78851	-0.215824	-0.664691	-0.184986	-0.266357	-0.28356	-0.534193	-0.077035	-0.513643	-0.277837	-1.25254	-0.107167	-0.494299	-0.0729332	-0.26345	0.0825142	0.203062	-0.0490705	-0.134085	-0.253861	-0.320849	-0.331709	-0.875405	
0.75911	1.3977	5	0	-20.7672	4.00871	0.270966	-1.31778	8.53009	-0.486003	-0.045983	-1.13802	5.39303	1.78851	-0.201753	-0.658636	-0.178767	-0.259696	-0.270625	-0.527181	-0.079998	-0.50527	-0.2603	-1.257	-0.11223	-0.479991	-0.0670655	-0.256852	0.0861105	0.217486	-0.044035	-0.126352	-0.2535	-0.308581	-0.323333	-0.873735	
0.757637	1.39618	0	0	-20.7672	4.00871	0.280825	-1.31855	8.60274	-0.691312	-0.0409645	-1.12999	5.39303	1.78851	-0.187683	-0.652581	-0.172548	-0.253034	-0.25769	-0.52017	-0.082961	-0.496896	-0.242763	-1.26146	-0.117292	-0.465683	-0.0611977	-0.250254	0.0897068	0.23191	-0.0389995	-0.118618	-0.253138	-0.296313	-0.314958	-0.872064	
0.755272	1.3977	0	0	-20.7672	4.00871	0.290683	-1.31932	8.67538	-0.896622	-0.035946	-1.12196	5.39303	1.78851	-0.173613	-0.646526	-0.16633	-0.246372	-0.244754	-0.513159	-0.085924	-0.488522	-0.225226	-1.26593	-0.122355	-0.451375	-0.05533	-0.243657	0.093303	0.246335	-0.033964	-0.110885	-0.252777	-0.284045	-0.306582	-0.870394	
0.751862	1.3977	0	0	-18.8543	2.75879	0.286763	-1.30824	8.67538	-0.896622	-0.0380305	-1.11607	5.43133	1.68025	-0.170083	-0.63355	-0.161754	-0.235036	-0.241843	-0.499563	-0.0809487	-0.485329	-0.230062	-1.25226	-0.116863	-0.44027	-0.052666	-0.227976	0.106692	0.25777	-0.0238597	-0.106446	-0.234032	-0.283766	-0.301489	-0.859414	
0.747256	1.39465	0	0	-16.9414	1.50887	0.282844	-1.29716	8.67538	-0.896622	-0.040115	-1.11018	5.46964	1.572	-0.166553	-0.620574	-0.157178	-0.223699	-0.238932	-0.485966	-0.0759735	-0.482136	-0.234897	-1.2386	-0.111371	-0.429165	-0.050002	-0.212296	0.120081	0.269205	-0.0137555	-0.102007	-0.215288	-0.283486	-0.296395	-0.848433	
0.741358	1.39618	0	0	-15.0285	0.258947	0.278924	-1.28608	8.67538	-0.896622	-0.0421995	-1.10428	5.50794	1.46375	-0.163024	-0.607597	-0.152603	-0.212363	-0.236022	-0.472369	-0.0709982	-0.478944	-0.239733	-1.22493	-0.105878	-0.418059	-0.047338	-0.196615	0.13347	0.28064	-0.00365125	-0.097568	-0.196544	-0.283207	-0.291301	-0.837452	
0.734556	1.3977	0	0	-13.1156	-0.990974	0.275004	-1.275	8.67538	-0.896622	-0.044284	-1.09839	5.54624	1.3555	-0.159494	-0.594621	-0.148027	-0.201027	-0.233111	-0.458773	-0.066023	-0.475751	-0.244568	-1.21127	-0.100386	-0.406954	-0.044674	-0.180934	0.146859	0.292075	0.006453	-0.093129	-0.177799	-0.282928	-0.286208	-0.826472	
0.72747	1.39465	0	0	-15.0285	0.258947	0.282553	-1.28278	8.7464	-1.09732	-0.0453267	-1.09545	5.54624	1.3555	-0.161255	-0.589644	-0.138494	-0.20367	-0.234897	-0.453726	-0.066023	-0.475751	-0.235784	-1.2135	-0.100386	-0.406954	-0.0414643	-0.190005	0.145308	0.296458	0.003909	-0.0859395	-0.175785	-0.275282	-0.288406	-0.820259	
0.720722	1.39618	0	0	-16.9414	1.50887	0.290101	-1.29055	8.81741	-1.29801	-0.0463695	-1.0925	5.54624	1.3555	-0.163015	-0.584667	-0.128961	-0.206313	-0.236683	-0.448679	-0.066023	-0.475751	-0.227	-1.21573	-0.100386	-0.406954	-0.0382545	-0.199076	0.143757	0.300841	0.001365	-0.07875	-0.173772	-0.267636	-0.290605	-0.814047	
0.714937	1.39618	0	0	-18.8543	2.75879	0.29765	-1.29832	8.88843	-1.49871	-0.0474122	-1.08955	5.54624	1.3555	-0.164776	-0.579691	-0.119427	-0.208956	-0.238468	-0.443632	-0.066023	-0.475751	-0.218217	-1.21797	-0.100386	-0.406954	-0.0350447	-0.208147	0.142206	0.305225	-0.001179	-0.0715605	-0.171758	-0.25999	-0.292803	-0.807834	
0.710737	1.39618	0	0	-20.7672	4.00871	0.305198	-1.30609	8.95944	-1.69941	-0.048455	-1.08661	5.54624	1.3555	-0.166537	-0.574714	-0.109894	-0.211599	-0.240254	-0.438585	-0.066023	-0.475751	-0.209433	-1.2202	-0.100386	-0.406954	-0.031835	-0.217218	0.140655	0.309608	-0.003723	-0.064371	-0.169744	-0.252344	-0.295001	-0.801621	
0.708552	1.3916	0	0	-20.7672	4.00871	0.311444	-1.31017	8.95944	-1.69941	-0.0311015	-1.09114	5.58409	1.24855	-0.164776	-0.579691	-0.108244	-0.216264	-0.230199	-0.445156	-0.0640455	-0.48134	-0.199023	-1.227	-0.102079	-0.402169	-0.0286285	-0.22628	0.142206	0.305225	-0.0003315	-0.0739558	-0.167269	-0.25934	-0.293902	-0.804728	
0.708211	1.39618	0	0	-20.7672	4.00871	0.31769	-1.31425	8.95944	-1.69941	-0.013748	-1.09568	5.62193	1.14159	-0.163015	-0.584667	-0.106593	-0.220928	-0.220143	-0.451727	-0.062068	-0.486928	-0.188613	-1.2338	-0.103772	-0.397385	-0.025422	-0.235342	0.143757	0.300841	0.00306	-0.0835405	-0.164793	-0.266336	-0.292802	-0.807835	
0.70942	1.39465	0	0	-20.7672	4.00871	0.323935	-1.31834	8.95944	-1.69941	0.0036055	-1.10022	5.65978	1.03464	-0.161255	-0.589644	-0.104942	-0.225593	-0.210087	-0.458297	-0.0600905	-0.492517	-0.178204	-1.24061	-0.105465	-0.3926	-0.0222155	-0.244404	0.145308	0.296458	0.0064515	-0.0931252	-0.162318	-0.273332	-0.291703	-0.810942	
0.711889	1.39313	0	0	-20.7672	4.00871	0.330181	-1.32242	8.95944	-1.69941	0.020959	-1.10476	5.69762	0.927684	-0.159494	-0.594621	-0.103292	-0.230258	-0.200032	-0.464868	-0.058113	-0.498106	-0.167794	-1.24741	-0.107158	-0.387815	-0.019009	-0.253466	0.146859	0.292075	0.009843	-0.10271	-0.159842	-0.280328	-0.290604	-0.814049	
0.715326	1.39618	0	0	-20.7672	4.00871	0.330181	-1.32242	8.32415	-1.28429	0.0230462	-1.11066	5.65978	1.03464	-0.147157	-0.606506	-0.101642	-0.23492	-0.188179	-0.476493	-0.0491762	-0.506092	-0.178204	-1.24061	-0.0915003	-0.405401	-0.019009	-0.253466	0.149958	0.283315	0.0106903	-0.105104	-0.165156	-0.278648	-0.27781	-0.824797	
0.719439	1.39465	0	0	-20.7672	4.00871	0.330181	-1.32242	7.68886	-0.869185	0.0251335	-1.11656	5.62193	1.14159	-0.134821	-0.618391	-0.0999925	-0.239582	-0.176325	-0.488119	-0.0402395	-0.514079	-0.188613	-1.2338	-0.0758425	-0.422987	-0.019009	-0.253466	0.153058	0.274555	0.0115375	-0.107499	-0.170469	-0.276968	-0.265016	-0.835544	
0.723923	1.39313	5	0	-20.7672	4.00871	0.330181	-1.32242	7.05358	-0.454075	0.0272208	-1.12245	5.58409	1.24855	-0.122484	-0.630276	-0.0983428	-0.244245	-0.164472	-0.499744	-0.0313027	-0.522065	-0.199023	-1.227	-0.0601847	-0.440573	-0.019009	-0.253466	0.156158	0.265796	0.0123847	-0.109894	-0.175783	-0.275288	-0.252222	-0.846291	
0.728449	1.39618	5	0	-20.7672	4.00871	0.330181	-1.32242	6.41829	-0.038965	0.029308	-1.12835	5.54624	1.3555	-0.110147	-0.642161	-0.096693	-0.248907	-0.152619	-0.511369	-0.022366	-0.530052	-0.209433	-1.2202	-0.044527	-0.458159	-0.019009	-0.253466	0.159257	0.257036	0.013232	-0.112288	-0.181097	-0.273608	-0.239428	-0.857039	
0.73269	1.39313	5	0	-20.7672	4.00871	0.334099	-1.33349	6.41829	-0.038965	0.0262682	-1.1309	5.58409	1.24855	-0.11545	-0.650155	-0.091749	-0.262879	-0.167391	-0.513344	-0.0253778	-0.53881	-0.202984	-1.23843	-0.0500405	-0.469243	-0.0216893	-0.269101	0.152554	0.251327	0.016619	-0.12186	-0.183934	-0.278917	-0.248926	-0.855606	
0.736317	1.39465	5	0	-20.7672	4.00871	0.338017	-1.34456	6.41829	-0.038965	0.0232285	-1.13344	5.62193	1.14159	-0.120752	-0.658149	-0.086805	-0.276852	-0.182163	-0.515319	-0.0283895	-0.547568	-0.196535	-1.25665	-0.055554	-0.480326	-0.0243695	-0.284736	0.145851	0.245617	0.020006	-0.131432	-0.186772	-0.284226	-0.258425	-0.854172	
