0.754	7.45239	0	0	-0.324149	-0.561911	-0.017357	0.011669	0	0	-0.171604	-0.107036	0	0	-0.020456	-0.219195	0.097172	-0.090133	0.007008	-0.067067	0.047316	-0.061072	0.208452	-0.260017	0.032798	-0.326878	0.067472	-0.321104	0.091387	0.013366	0.090541	0.001007	0.219637	-0.052561	0.115792	-0.033112	
0.757354	7.44934	0	0	-0.323015	-0.550328	-0.0101865	0.00698375	0	0	-0.158899	-0.10037	0	0	-0.011228	-0.220122	0.0920347	-0.0910015	0.0122515	-0.0637053	0.0397565	-0.0624082	0.217386	-0.265855	0.032798	-0.326878	0.067472	-0.321104	0.0967028	0.0206625	0.0938642	0.0004905	0.237841	-0.0550568	0.110682	-0.0278193	
0.758171	7.44018	0	0	-0.321881	-0.538744	-0.003016	0.0022985	0	0	-0.146194	-0.093704	0	0	-0.002	-0.221049	0.0868975	-0.09187	0.017495	-0.0603435	0.032197	-0.0637445	0.226321	-0.271693	0.032798	-0.326878	0.067472	-0.321104	0.102018	0.027959	0.0971875	-2.6E-05	0.256045	-0.0575525	0.105571	-0.0225265	
0.756834	7.43561	0	0	-0.320747	-0.527161	0.0041545	-0.00238675	0	0	-0.133488	-0.087038	0	0	0.007228	-0.221976	0.0817602	-0.0927385	0.0227385	-0.0569817	0.0246375	-0.0650808	0.235256	-0.277531	0.032798	-0.326878	0.067472	-0.321104	0.107334	0.0352555	0.100511	-0.0005425	0.274248	-0.0600482	0.100461	-0.0172337	
0.753724	7.42493	0	0	-0.319613	-0.515578	0.011325	-0.007072	0	0	-0.120783	-0.080372	0	0	0.016456	-0.222903	0.076623	-0.093607	0.027982	-0.05362	0.017078	-0.066417	0.24419	-0.283369	0.032798	-0.326878	0.067472	-0.321104	0.11265	0.042552	0.103834	-0.001059	0.292452	-0.062544	0.09535	-0.011941	
0.749225	7.42035	0	0	-0.304849	-0.498034	0.0256842	-0.0164547	0	0	-0.121519	-0.0498572	0	0	0.0233457	-0.217188	0.070519	-0.09173	0.0400495	-0.051311	0.0109707	-0.0718295	0.247929	-0.274504	0.029193	-0.316689	0.0818663	-0.32342	0.114656	0.0592285	0.108199	0.00437025	0.282697	-0.0349757	0.107709	-0.0102402	
0.743718	7.40967	0	0	-0.290084	-0.48049	0.0400435	-0.0258375	0	0	-0.122254	-0.0193425	0	0	0.0302355	-0.211473	0.064415	-0.089853	0.052117	-0.049002	0.0048635	-0.077242	0.251668	-0.265639	0.025588	-0.3065	0.0962605	-0.325736	0.116662	0.075905	0.112563	0.0097995	0.272942	-0.0074075	0.120067	-0.0085395	
0.737587	7.41119	0	0	-0.27532	-0.462946	0.0544027	-0.0352202	0	0	-0.12299	0.0111722	0	0	0.0371252	-0.205758	0.058311	-0.087976	0.0641845	-0.046693	-0.00124375	-0.0826545	0.255407	-0.256775	0.021983	-0.296311	0.110655	-0.328053	0.118668	0.0925815	0.116928	0.0152287	0.263188	0.0201608	0.132426	-0.00683875	
0.731212	7.39746	0	0	-0.260556	-0.445402	0.068762	-0.044603	0	0	-0.123725	0.041687	0	0	0.044015	-0.200043	0.052207	-0.086099	0.076252	-0.044384	-0.007351	-0.088067	0.259146	-0.24791	0.018378	-0.286122	0.125049	-0.330369	0.120674	0.109258	0.121293	0.020658	0.253433	0.047729	0.144785	-0.005138	
0.724977	7.39593	0	0	-0.254863	-0.446645	0.068762	-0.044603	0	0	-0.117174	0.0374063	0	0	0.0347748	-0.199116	0.0490213	-0.0924572	0.0778168	-0.0488063	-0.0177735	-0.0812568	0.248466	-0.237158	0.011155	-0.265709	0.116877	-0.307275	0.115697	0.123326	0.130032	0.03154	0.274789	0.0692443	0.141792	0.0124882	
0.719263	7.3822	0	0	-0.249169	-0.447888	0.068762	-0.044603	0	0	-0.110622	0.0331255	0	0	0.0255345	-0.198188	0.0458355	-0.0988155	0.0793815	-0.0532285	-0.028196	-0.0744465	0.237785	-0.226405	0.003932	-0.245297	0.108705	-0.284181	0.110719	0.137394	0.13877	0.042422	0.296145	0.0907595	0.138799	0.0301145	
0.714454	7.37915	0	0	-0.243476	-0.449131	0.068762	-0.044603	0	0	-0.104071	0.0288447	0	0	0.0162942	-0.197261	0.0426498	-0.105174	0.0809462	-0.0576508	-0.0386185	-0.0676363	0.227105	-0.215653	-0.003291	-0.224884	0.100534	-0.261086	0.105742	0.151461	0.147509	0.053304	0.317501	0.112275	0.135807	0.0477407	
0.710925	7.36847	0	0	-0.237783	-0.450374	0.068762	-0.044603	0	0	-0.09752	0.024564	0	0	0.007054	-0.196334	0.039464	-0.111532	0.082511	-0.062073	-0.049041	-0.060826	0.216425	-0.204901	-0.010514	-0.204471	0.092362	-0.237992	0.100764	0.165529	0.156248	0.064186	0.338857	0.13379	0.132814	0.065367	
0.708744	7.36542	0	0	-0.411923	0.877142	0.068762	-0.044603	0	0	-0.0947505	0.016737	0	0	0.0001765	-0.202049	0.0362795	-0.11788	0.0788168	-0.0698483	-0.0400605	-0.063561	0.205507	-0.212848	0.0067395	-0.200016	0.0868002	-0.241465	0.0971143	0.153497	0.141895	0.060288	0.332399	0.13564	0.118626	0.0413797	
0.707523	7.36236	0	0	-0.586063	2.20466	0.068762	-0.044603	0	0	-0.091981	0.00891	0	0	-0.006701	-0.207765	0.033095	-0.124229	0.0751225	-0.0776235	-0.03108	-0.066296	0.194588	-0.220796	0.023993	-0.19556	0.0812385	-0.244939	0.0934645	0.141466	0.127541	0.05639	0.32594	0.137489	0.104438	0.0173925	
0.706837	7.36084	0	0	-0.760204	3.53217	0.068762	-0.044603	0	0	-0.0892115	0.001083	0	0	-0.0135785	-0.21348	0.0299105	-0.130577	0.0714282	-0.0853988	-0.0220995	-0.069031	0.18367	-0.228743	0.0412465	-0.191105	0.0756768	-0.248412	0.0898147	0.129434	0.113187	0.052492	0.319481	0.139339	0.0902508	-0.00659475	
0.706263	7.36236	0	0	-0.934344	4.85969	0.068762	-0.044603	0	0	-0.086442	-0.006744	0	0	-0.020456	-0.219195	0.026726	-0.136926	0.067734	-0.093174	-0.013119	-0.071766	0.172752	-0.23669	0.0585	-0.186649	0.070115	-0.251885	0.086165	0.117402	0.098834	0.048594	0.313023	0.141189	0.076063	-0.030582	
0.705374	7.36389	0	0	0.471857	5.67773	0.0615793	-0.0399097	0	0	-0.086814	0.00855225	0	0	-0.011228	-0.220122	0.026726	-0.136926	0.0593583	-0.0877013	-0.0070135	-0.066348	0.169032	-0.245549	0.0617	-0.169028	0.070115	-0.251885	0.0792048	0.114753	0.091154	0.0436713	0.31839	0.142424	0.0649223	-0.0447368	
0.703783	7.37762	0	0	1.87806	6.49578	0.0543965	-0.0352165	0	0	-0.087186	0.0238485	0	0	-0.002	-0.221049	0.026726	-0.136926	0.0509825	-0.0822285	-0.000908	-0.06093	0.165313	-0.254408	0.0649	-0.151406	0.070115	-0.251885	0.0722445	0.112104	0.083474	0.0387485	0.323758	0.143659	0.0537815	-0.0588915	
0.701459	7.39441	0	0	3.28426	7.31382	0.0472137	-0.0305232	0	0	-0.087558	0.0391448	0	0	0.007228	-0.221976	0.026726	-0.136926	0.0426067	-0.0767557	0.0051975	-0.055512	0.161593	-0.263266	0.0681	-0.133785	0.070115	-0.251885	0.0652843	0.109456	0.075794	0.0338258	0.329125	0.144893	0.0426408	-0.0730463	
0.698574	7.41882	0	0	4.69046	8.13186	0.040031	-0.02583	0	0	-0.08793	0.054441	0	0	0.016456	-0.222903	0.026726	-0.136926	0.034231	-0.071283	0.011303	-0.050094	0.157873	-0.272125	0.0713	-0.116164	0.070115	-0.251885	0.058324	0.106807	0.068114	0.028903	0.334492	0.146128	0.0315	-0.087201	
0.695302	7.44781	0	0	6.15155	8.86519	0.022855	-0.016245	0	0	-0.0978887	0.039883	0	0	0.00487925	-0.215339	0.0209047	-0.120474	0.0258637	-0.0658155	0.0191865	-0.0269457	0.147236	-0.261413	0.0781343	-0.108775	0.065207	-0.238014	0.0394705	0.11553	0.066318	0.0251115	0.333304	0.165903	0.018312	-0.0863615	
0.69182	7.47528	0	0	7.61265	9.59852	0.005679	-0.00666	0	0	-0.107847	0.025325	0	0	-0.0066975	-0.207775	0.0150835	-0.104022	0.0174965	-0.060348	0.02707	-0.0037975	0.136598	-0.250702	0.0849685	-0.101386	0.060299	-0.224143	0.020617	0.124254	0.064522	0.02132	0.332116	0.185679	0.005124	-0.085522	
0.688302	7.5119	0	0	9.07374	10.3318	-0.011497	0.002925	0	0	-0.117806	0.010767	0	0	-0.0182743	-0.20021	0.00926225	-0.0875708	0.00912925	-0.0548805	0.0349535	0.0193507	0.125961	-0.23999	0.0918028	-0.093997	0.055391	-0.210272	0.0017635	0.132977	0.062726	0.0175285	0.330927	0.205454	-0.008064	-0.0846825	
0.684841	7.54394	0	0	10.5348	11.0652	-0.028673	0.01251	0	0	-0.127765	-0.003791	0	0	-0.029851	-0.192646	0.003441	-0.071119	0.000762	-0.049413	0.042837	0.042499	0.115323	-0.229278	0.098637	-0.086608	0.050483	-0.196401	-0.01709	0.141701	0.06093	0.013737	0.329739	0.225229	-0.021252	-0.083843	
0.681356	7.57141	0	0	11.9804	11.8065	-0.046566	0.0242015	0	0	-0.141479	-0.0218195	0	0	-0.048262	-0.190818	0.0364613	-0.056732	-0.0075975	-0.0439507	0.076732	0.08366	0.120513	-0.243946	0.100457	-0.0917508	0.04102	-0.207982	-0.047043	0.093312	0.038502	0.0151695	0.36736	0.250771	-0.0389105	-0.0975213	
0.677739	7.59888	0	0	13.426	12.5479	-0.064459	0.035893	0	0	-0.155192	-0.039848	0	0	-0.066673	-0.188989	0.0694815	-0.042345	-0.015957	-0.0384885	0.110627	0.124821	0.125703	-0.258615	0.102276	-0.0968935	0.031557	-0.219562	-0.076996	0.044923	0.016074	0.016602	0.40498	0.276313	-0.056569	-0.1112	
0.673881	7.62634	0	0	14.8716	13.2892	-0.082352	0.0475845	0	0	-0.168905	-0.0578765	0	0	-0.085084	-0.187161	0.102502	-0.027958	-0.0243165	-0.0330263	0.144522	0.165982	0.130894	-0.273283	0.104096	-0.102036	0.022094	-0.231143	-0.106949	-0.003466	-0.006354	0.0180345	0.442601	0.301856	-0.0742275	-0.124878	
0.669676	7.64618	0	0	16.3172	14.0306	-0.100245	0.059276	0	0	-0.182619	-0.075905	0	0	-0.103495	-0.185332	0.135522	-0.013571	-0.032676	-0.027564	0.178417	0.207143	0.136084	-0.287951	0.105916	-0.107179	0.012631	-0.242724	-0.136902	-0.051855	-0.028782	0.019467	0.480221	0.327398	-0.091886	-0.138556	
0.665069	7.65381	0	0	17.7988	14.7234	-0.114532	0.0686117	0	0	-0.200421	-0.082207	0	0	-0.105842	-0.1787	0.151262	0.003773	-0.0274422	-0.0241928	0.207498	0.216822	0.128915	-0.287022	0.114583	-0.104933	0.0158955	-0.25195	-0.155909	-0.0643052	-0.0364167	0.0145555	0.495461	0.31744	-0.0981657	-0.147993	
0.660341	7.65686	0	0	19.2803	15.4161	-0.12882	0.0779475	0	0	-0.218223	-0.088509	0	0	-0.108188	-0.172067	0.167002	0.021117	-0.0222085	-0.0208215	0.236578	0.2265	0.121746	-0.286092	0.12325	-0.102686	0.01916	-0.261176	-0.174915	-0.0767555	-0.0440515	0.009644	0.510701	0.307482	-0.104445	-0.15743	
0.655906	7.66144	0	0	20.7619	16.1089	-0.143107	0.0872833	0	0	-0.236025	-0.094811	0	0	-0.110535	-0.165434	0.182742	0.038461	-0.0169748	-0.0174503	0.265659	0.236178	0.114577	-0.285162	0.131918	-0.10044	0.0224245	-0.270401	-0.193921	-0.0892058	-0.0516863	0.0047325	0.525941	0.297523	-0.110725	-0.166867	
0.652176	7.65686	5	0	22.2435	16.8017	-0.157394	0.096619	0	0	-0.253827	-0.101113	0	0	-0.112882	-0.158802	0.198482	0.055805	-0.011741	-0.014079	0.29474	0.245857	0.107408	-0.284233	0.140585	-0.098194	0.025689	-0.279627	-0.212928	-0.101656	-0.059321	-0.000179	0.541181	0.287565	-0.117005	-0.176304	
0.649565	7.65076	5	0	23.6587	17.5269	-0.178781	0.110593	0	0	-0.282553	-0.07637	0	0	-0.106036	-0.153066	0.201688	0.062234	-0.013305	-0.009659	0.287088	0.244473	0.114577	-0.285162	0.13694	-0.0878933	0.0279715	-0.266926	-0.2211	-0.0785615	-0.056512	0.00953725	0.520423	0.313117	-0.119357	-0.151539	
0.648457	7.6477	5	0	25.0739	18.2522	-0.200167	0.124568	0	0	-0.31128	-0.051627	0	0	-0.099189	-0.147331	0.204894	0.068663	-0.014869	-0.005239	0.279437	0.243088	0.121746	-0.286092	0.133296	-0.0775925	0.030254	-0.254225	-0.229272	-0.055467	-0.053703	0.0192535	0.499665	0.338669	-0.121708	-0.126774	
0.648881	7.62939	5	0	26.4891	18.9775	-0.221554	0.138543	0	0	-0.340006	-0.026884	0	0	-0.0923425	-0.141596	0.2081	0.075092	-0.016433	-0.000819	0.271786	0.241704	0.128915	-0.287022	0.129651	-0.0672917	0.0325365	-0.241523	-0.237443	-0.0323725	-0.050894	0.0289697	0.478908	0.364221	-0.124059	-0.10201	
0.650633	7.61871	5	0	27.9043	19.7028	-0.242941	0.152517	0	0	-0.368732	-0.002141	0	0	-0.085496	-0.13586	0.211306	0.081521	-0.017997	0.003601	0.264134	0.24032	0.136084	-0.287951	0.126006	-0.056991	0.034819	-0.228822	-0.245615	-0.009278	-0.048085	0.038686	0.45815	0.389773	-0.126411	-0.077245	
0.653501	7.60803	5	0	29.1813	20.3352	-0.242941	0.152517	0	0	-0.362636	0.00883075	0	0	-0.087848	-0.129213	0.202937	0.074208	-0.0247923	0.004643	0.262355	0.222366	0.11484	-0.266554	0.124182	-0.0518363	0.0338193	-0.206824	-0.243669	0.00725125	-0.0399235	0.05983	0.458999	0.420487	-0.115957	-0.0432372	
0.657277	7.60956	5	0	30.4582	20.9677	-0.242941	0.152517	0	0	-0.356541	0.0198025	0	0	-0.0902	-0.122565	0.194568	0.066895	-0.0315875	0.005685	0.260576	0.204413	0.0935955	-0.245156	0.122359	-0.0466815	0.0328195	-0.184827	-0.241723	0.0237805	-0.031762	0.080974	0.459847	0.451201	-0.105502	-0.0092295	
0.661752	7.60193	5	0	31.7352	21.6001	-0.242941	0.152517	0	0	-0.350445	0.0307742	0	0	-0.092552	-0.115918	0.186198	0.059582	-0.0383828	0.006727	0.258798	0.18646	0.0723513	-0.223759	0.120535	-0.0415268	0.0318198	-0.162829	-0.239776	0.0403097	-0.0236005	0.102118	0.460696	0.481914	-0.0950483	0.0247782	
0.666803	7.59125	5	0	33.0121	22.2326	-0.242941	0.152517	0	0	-0.344349	0.041746	0	0	-0.094904	-0.109271	0.177829	0.052269	-0.045178	0.007769	0.257019	0.168506	0.051107	-0.202362	0.118711	-0.036372	0.03082	-0.140831	-0.23783	0.056839	-0.015439	0.123262	0.461545	0.512628	-0.084594	0.058786	
0.672419	7.5943	5	0	34.2548	22.7527	-0.228689	0.143205	0	0	-0.325627	0.0595205	0	0	-0.0856968	-0.110173	0.169473	0.0449715	-0.0368188	0.002307	0.231219	0.17265	0.058264	-0.203277	0.118711	-0.036372	0.0275385	-0.131557	-0.232605	0.0641275	-0.0169655	0.127576	0.448369	0.533302	-0.0857983	0.071286	
0.6786	7.60651	5	0	35.4975	23.2728	-0.214437	0.133892	0	0	-0.306905	0.077295	0	0	-0.0764895	-0.111075	0.161116	0.037674	-0.0284595	-0.003155	0.205419	0.176794	0.065421	-0.204192	0.118711	-0.036372	0.024257	-0.122284	-0.22738	0.071416	-0.018492	0.13189	0.435193	0.553975	-0.0870025	0.083786	
0.685346	7.62787	5	0	36.7402	23.793	-0.200185	0.124579	0	0	-0.288183	0.0950695	0	0	-0.0672823	-0.111977	0.15276	0.0303765	-0.0201003	-0.008617	0.179618	0.180938	0.072578	-0.205108	0.118711	-0.036372	0.0209755	-0.11301	-0.222155	0.0787045	-0.0200185	0.136205	0.422017	0.574649	-0.0882068	0.096286	
0.692655	7.67517	5	0	37.9829	24.3131	-0.185933	0.115267	0	0	-0.269461	0.112844	0	0	-0.058075	-0.112879	0.144404	0.023079	-0.011741	-0.014079	0.153818	0.185082	0.079735	-0.206023	0.118711	-0.036372	0.017694	-0.103736	-0.21693	0.085993	-0.021545	0.140519	0.408841	0.595323	-0.089411	0.108786	
0.70052	7.75299	5	0	39.0726	24.7178	-0.168085	0.103605	0	0	-0.254849	0.142504	0	0	-0.0675078	-0.0862205	0.138276	0.024959	-0.009634	-0.0018535	0.146215	0.183701	0.0869002	-0.206942	0.127385	-0.0341075	0.0248853	-0.104867	-0.210055	0.0886452	-0.0182332	0.140014	0.422827	0.605531	-0.0888213	0.11622	
0.708878	7.85828	5	0	40.1623	25.1225	-0.150237	0.0919425	0	0	-0.240237	0.172163	0	0	-0.0769405	-0.059562	0.132149	0.026839	-0.007527	0.010372	0.138612	0.182321	0.0940655	-0.207861	0.13606	-0.031843	0.0320765	-0.105998	-0.20318	0.0912975	-0.0149215	0.139509	0.436813	0.61574	-0.0882315	0.123655	
0.717645	7.97882	5	0	41.252	25.5271	-0.132389	0.0802802	0	0	-0.225626	0.201823	0	0	-0.0863732	-0.0329035	0.126021	0.028719	-0.00542	0.0225975	0.131009	0.180941	0.101231	-0.20878	0.144734	-0.0295785	0.0392678	-0.10713	-0.196306	0.0939497	-0.0116098	0.139004	0.450799	0.625948	-0.0876418	0.131089	
0.726736	8.11157	5	0	42.3417	25.9318	-0.114541	0.068618	0	0	-0.211014	0.231483	0	0	-0.095806	-0.006245	0.119893	0.030599	-0.003313	0.034823	0.123406	0.17956	0.108396	-0.209699	0.153409	-0.027314	0.046459	-0.108261	-0.189431	0.096602	-0.008298	0.138499	0.464785	0.636156	-0.087052	0.138523	
0.736066	8.25653	5	0	43.3197	26.289	-0.0966555	0.0569313	0	0	-0.201547	0.261688	0	0	-0.0820982	0.00535425	0.111816	0.0380005	0.00246075	0.0549195	0.126325	0.17131	0.108628	-0.191004	0.160268	-0.0198795	0.0526345	-0.0872712	-0.189141	0.117891	0.000377	0.149443	0.478637	0.663528	-0.081098	0.158146	
0.74555	8.40454	5	0	44.2977	26.6462	-0.07877	0.0452445	0	0	-0.192081	0.291894	0	0	-0.0683905	0.0169535	0.103739	0.045402	0.0082345	0.075016	0.129245	0.16306	0.10886	-0.17231	0.167127	-0.012445	0.05881	-0.0662815	-0.188852	0.13918	0.009052	0.160386	0.492489	0.690901	-0.075144	0.177768	
0.755113	8.53424	5	0	45.2757	27.0034	-0.0608845	0.0335577	0	0	-0.182615	0.322099	0	0	-0.0546828	0.0285528	0.095662	0.0528035	0.0140082	0.0951125	0.132164	0.15481	0.109093	-0.153615	0.173985	-0.0050105	0.0649855	-0.0452918	-0.188562	0.160468	0.017727	0.17133	0.506341	0.718273	-0.06919	0.197391	
0.764732	8.638	5	0	46.2537	27.3606	-0.042999	0.021871	0	0	-0.173148	0.352305	0	0	-0.040975	0.040152	0.087585	0.060205	0.019782	0.115209	0.135083	0.14656	0.109325	-0.13492	0.180844	0.002424	0.071161	-0.024302	-0.188272	0.181757	0.026402	0.182274	0.520193	0.745645	-0.063236	0.217014	
0.774406	8.71582	5	0	47.0487	27.673	-0.0358345	0.0171895	0	0	-0.178751	0.368139	0	0	-0.040975	0.040152	0.0814692	0.0620775	0.016636	0.1241	0.124571	0.153429	0.102369	-0.11526	0.187711	0.009874	0.0668067	0.0072555	-0.198188	0.209782	0.0330375	0.207942	0.522992	0.78778	-0.0561297	0.251739	
0.784136	8.78296	5	0	47.8437	27.9855	-0.02867	0.012508	0	0	-0.184354	0.383974	0	0	-0.040975	0.040152	0.0753535	0.06395	0.01349	0.132991	0.114059	0.160297	0.095412	-0.0956	0.194578	0.017324	0.0624525	0.038813	-0.208104	0.237807	0.039673	0.233609	0.525791	0.829916	-0.0490235	0.286463	
0.793919	8.82263	5	0	48.6386	28.2979	-0.0215055	0.0078265	0	0	-0.189956	0.399809	0	0	-0.040975	0.040152	0.0692378	0.0658225	0.010344	0.141881	0.103547	0.167166	0.0884555	-0.07594	0.201446	0.024774	0.0580983	0.0703705	-0.218021	0.265831	0.0463085	0.259276	0.528591	0.872051	-0.0419173	0.321188	
0.803756	8.84857	5	0	49.4336	28.6104	-0.014341	0.003145	0	0	-0.195559	0.415643	0	0	-0.040975	0.040152	0.063122	0.067695	0.007198	0.150772	0.093035	0.174035	0.081499	-0.05628	0.208313	0.032224	0.053744	0.101928	-0.227937	0.293856	0.052944	0.284944	0.53139	0.914187	-0.034811	0.355913	
0.813641	8.86536	5	0	50.2368	28.6429	-0.000748	-0.00409875	0	0	-0.179092	0.426238	0	0	-0.0433448	0.0468493	0.0611665	0.0732213	0.009289	0.163096	0.103547	0.167166	0.0851873	-0.047332	0.202809	0.047778	0.0593012	0.105494	-0.221062	0.296561	0.05627	0.284442	0.538876	0.926469	-0.0258068	0.35793	
0.823363	8.86383	5	0	51.0399	28.6754	0.012845	-0.0113425	0	0	-0.162625	0.436834	0	0	-0.0457145	0.0535465	0.059211	0.0787475	0.01138	0.17542	0.114059	0.160297	0.0888755	-0.038384	0.197305	0.063332	0.0648585	0.109059	-0.214188	0.299265	0.059596	0.28394	0.546363	0.938751	-0.0168025	0.359947	
0.83242	8.86383	5	0	51.8431	28.7079	0.026438	-0.0185862	0	0	-0.146158	0.44743	0	0	-0.0480842	0.0602437	0.0572555	0.0842738	0.013471	0.187745	0.124571	0.153429	0.0925638	-0.029436	0.191802	0.078886	0.0704157	0.112625	-0.207313	0.30197	0.062922	0.283437	0.553849	0.951033	-0.00779825	0.361964	
0.840288	8.8501	5	0	52.6463	28.7404	0.040031	-0.02583	0	0	-0.129691	0.458025	0	0	-0.050454	0.066941	0.0553	0.0898	0.015562	0.200069	0.135083	0.14656	0.096252	-0.020488	0.186298	0.09444	0.075973	0.11619	-0.200438	0.304675	0.066248	0.282935	0.561335	0.963315	0.001206	0.363981	
0.84644	8.83026	5	0	53.2622	28.8896	0.0544022	-0.0352205	0	0	-0.121649	0.492608	0	0	-0.0507212	0.0929173	0.058479	0.096228	0.0213135	0.220335	0.132164	0.15481	0.10538	-0.00748075	0.193164	0.101932	0.0765555	0.133834	-0.208734	0.328121	0.0764885	0.289624	0.56974	0.989831	0.00475625	0.381453	
0.850354	8.80737	5	0	53.8782	29.0388	0.0687735	-0.044611	0	0	-0.113608	0.527191	0	0	-0.0509885	0.118893	0.061658	0.102656	0.027065	0.240601	0.129245	0.16306	0.114507	0.0055265	0.200029	0.109425	0.077138	0.151479	-0.217031	0.351567	0.086729	0.296313	0.578146	1.01635	0.0083065	0.398925	
0.851505	8.78448	5	0	54.4941	29.188	0.0831448	-0.0540015	0	0	-0.105567	0.561773	0	0	-0.0512558	0.14487	0.064837	0.109084	0.0328165	0.260867	0.126325	0.17131	0.123635	0.0185338	0.206895	0.116918	0.0777205	0.169123	-0.225327	0.375013	0.0969695	0.303002	0.586552	1.04286	0.0118568	0.416398	
0.849409	8.75854	5	0	55.11	29.3372	0.097516	-0.063392	0	0	-0.097525	0.596356	0	0	-0.051523	0.170846	0.068016	0.115512	0.038568	0.281133	0.123406	0.17956	0.132763	0.031541	0.213761	0.12441	0.078303	0.186768	-0.233623	0.398459	0.10721	0.309691	0.594957	1.06938	0.015407	0.43387	
0.844336	8.73108	5	0	55.7258	29.3	0.104711	-0.068093	0	0	-0.102712	0.596673	0	0	-0.0607523	0.171708	0.0670365	0.11828	0.0469847	0.275633	0.121945	0.183688	0.129264	0.041431	0.21008	0.134813	0.0677625	0.197266	-0.230076	0.410596	0.105388	0.33268	0.596757	1.09788	0.019518	0.458989	
0.837191	8.70514	5	0	56.3416	29.2628	0.111905	-0.072794	0	0	-0.1079	0.59699	0	0	-0.0699815	0.172571	0.066057	0.121048	0.0554015	0.270134	0.120485	0.187816	0.125764	0.051321	0.2064	0.145215	0.057222	0.207764	-0.226529	0.422733	0.103567	0.355669	0.598557	1.12638	0.023629	0.484107	
0.828903	8.68225	5	0	56.9573	29.2256	0.1191	-0.077495	0	0	-0.113088	0.597307	0	0	-0.0792107	0.173434	0.0650775	0.123815	0.0638182	0.264634	0.119025	0.191944	0.122264	0.061211	0.202719	0.155617	0.0466815	0.218263	-0.222983	0.434869	0.101745	0.378658	0.600357	1.15489	0.02774	0.509225	
0.820401	8.65784	5	0	57.5731	29.1883	0.126295	-0.082196	0	0	-0.118275	0.597624	0	0	-0.08844	0.174296	0.064098	0.126583	0.072235	0.259134	0.117564	0.196072	0.118765	0.071101	0.199038	0.16602	0.036141	0.228761	-0.219436	0.447006	0.099923	0.401647	0.602157	1.18339	0.031851	0.534344	
0.812612	8.64563	5	0	58.059	29.2565	0.129895	-0.084548	0	0	-0.117334	0.609308	0	0	-0.0908188	0.181018	0.0631185	0.129352	0.0674845	0.27256	0.116103	0.200202	0.125958	0.070206	0.193509	0.181646	0.043357	0.227658	-0.2313	0.458377	0.097362	0.399962	0.605331	1.19124	0.0342507	0.536757	
0.806464	8.61969	5	0	58.5449	29.3247	0.133495	-0.0869	0	0	-0.116393	0.620992	0	0	-0.0931975	0.187741	0.062139	0.132121	0.062734	0.285986	0.114642	0.204331	0.13315	0.069311	0.187979	0.197273	0.050573	0.226556	-0.243165	0.469748	0.094801	0.398277	0.608505	1.19909	0.0366505	0.53917	
0.802524	8.59527	5	0	59.0308	29.3928	0.137094	-0.089252	0	0	-0.115451	0.632675	0	0	-0.0955763	0.194463	0.0611595	0.134889	0.0579835	0.299413	0.11318	0.208461	0.140343	0.068416	0.18245	0.2129	0.057789	0.225454	-0.25503	0.481119	0.09224	0.396593	0.611679	1.20693	0.0390503	0.541584	
0.800298	8.57544	5	0	59.5167	29.461	0.140694	-0.091604	0	0	-0.11451	0.644359	0	0	-0.097955	0.201185	0.06018	0.137658	0.053233	0.312839	0.111719	0.212591	0.147535	0.067521	0.176921	0.228526	0.065005	0.224351	-0.266894	0.49249	0.089679	0.394908	0.614853	1.21478	0.04145	0.543997	
0.7991	8.56171	5	0	59.8211	29.7032	0.133496	-0.086901	0	0	-0.124401	0.629313	0	0	-0.100335	0.207912	0.0592	0.140428	0.0400583	0.331785	0.110257	0.216722	0.14403	0.0774273	0.175076	0.233741	0.0600117	0.238463	-0.258361	0.490534	0.089679	0.394908	0.60254	1.23276	0.0429337	0.549004	
0.798241	8.54645	5	0	60.1254	29.9453	0.126299	-0.082198	0	0	-0.134292	0.614268	0	0	-0.102716	0.214639	0.05822	0.143198	0.0268835	0.350731	0.108795	0.220854	0.140524	0.0873335	0.173231	0.238956	0.0550185	0.252575	-0.249828	0.488579	0.089679	0.394908	0.590226	1.25075	0.0444175	0.55401	
0.797036	8.52661	5	0	60.4298	30.1875	0.119101	-0.077495	0	0	-0.144183	0.599222	0	0	-0.105096	0.221367	0.05724	0.145967	0.0137087	0.369676	0.107333	0.224986	0.137019	0.0972397	0.171385	0.244171	0.0500253	0.266687	-0.241295	0.486623	0.089679	0.394908	0.577912	1.26873	0.0459012	0.559017	
0.794795	8.50983	5	0	60.7342	30.4297	0.111903	-0.072792	0	0	-0.154074	0.584177	0	0	-0.107476	0.228094	0.05626	0.148737	0.000534	0.388622	0.105871	0.229117	0.133514	0.107146	0.16954	0.249386	0.045032	0.280799	-0.232762	0.484668	0.089679	0.394908	0.565599	1.28671	0.047385	0.564024	
0.790969	8.48846	5	0	61.1358	30.4666	0.108306	-0.070442	0	0	-0.164419	0.584804	0	0	-0.116688	0.228941	0.0521055	0.145066	0.00370675	0.379656	0.0982823	0.227724	0.137019	0.0972397	0.171385	0.244171	0.044471	0.263093	-0.248152	0.48387	0.0840705	0.375111	0.568146	1.26271	0.0414482	0.544029	
0.786182	8.47473	5	0	61.5374	30.5035	0.10471	-0.068092	0	0	-0.174765	0.585431	0	0	-0.1259	0.229789	0.047951	0.141395	0.0068795	0.37069	0.0906935	0.226331	0.140524	0.0873335	0.173231	0.238956	0.04391	0.245387	-0.263543	0.483071	0.078462	0.355315	0.570693	1.23871	0.0355115	0.524034	
0.781659	8.45947	5	0	61.939	30.5403	0.101113	-0.065742	0	0	-0.18511	0.586058	0	0	-0.135112	0.230636	0.0437965	0.137723	0.0100523	0.361723	0.0831048	0.224939	0.14403	0.0774273	0.175076	0.233741	0.043349	0.22768	-0.278934	0.482272	0.0728535	0.335518	0.573239	1.21471	0.0295747	0.50404	
0.778631	8.44574	5	0	62.3406	30.5772	0.097516	-0.063392	0	0	-0.195456	0.586685	0	0	-0.144324	0.231483	0.039642	0.134052	0.013225	0.352757	0.075516	0.223546	0.147535	0.067521	0.176921	0.228526	0.042788	0.209974	-0.294324	0.481474	0.067245	0.315722	0.575786	1.19071	0.023638	0.484045	
0.778329	8.43353	5	0	62.809	30.7642	0.093921	-0.0610428	0	0	-0.191697	0.590362	0	0	-0.130353	0.217186	0.0354907	0.130385	0.0163945	0.343799	0.0798958	0.211168	0.149286	0.062572	0.178765	0.223314	0.046109	0.200588	-0.28081	0.465417	0.0611143	0.306357	0.573756	1.17966	0.0206677	0.47408	
0.781984	8.41675	5	0	63.2775	30.9513	0.090326	-0.0586935	0	0	-0.187938	0.594039	0	0	-0.116382	0.20289	0.0313395	0.126718	0.019564	0.334842	0.0842755	0.19879	0.151037	0.057623	0.180609	0.218103	0.04943	0.191202	-0.267297	0.44936	0.0549835	0.296992	0.571727	1.16861	0.0176975	0.464114	
0.790779	8.40759	5	0	63.746	31.1383	0.086731	-0.0563442	0	0	-0.184179	0.597716	0	0	-0.102411	0.188593	0.0271882	0.12305	0.0227335	0.325885	0.0886553	0.186413	0.152788	0.052674	0.182454	0.212891	0.052751	0.181817	-0.253783	0.433302	0.0488528	0.287628	0.569697	1.15756	0.0147273	0.454149	
0.804599	8.39691	5	0	64.2145	31.3253	0.083136	-0.053995	0	0	-0.18042	0.601393	0	0	-0.08844	0.174296	0.023037	0.119383	0.025903	0.316927	0.093035	0.174035	0.154539	0.047725	0.184298	0.207679	0.056072	0.172431	-0.24027	0.417245	0.042722	0.278263	0.567667	1.14651	0.011757	0.444184	
0.8219	8.3847	5	0	64.6091	31.2902	0.0759505	-0.0492998	0	0	-0.190281	0.586395	0	0	-0.0905357	0.155032	0.0157202	0.1093	0.0185837	0.301092	0.0869098	0.168535	0.140161	0.0495167	0.163243	0.21343	0.038342	0.184016	-0.25897	0.425853	0.042722	0.278263	0.565389	1.15294	0.0114153	0.454327	
0.841067	8.37555	5	0	65.0037	31.255	0.068765	-0.0446045	0	0	-0.200143	0.571398	0	0	-0.0926315	0.135768	0.0084035	0.099218	0.0112645	0.285256	0.0807845	0.163034	0.125782	0.0513085	0.142188	0.219181	0.020612	0.195601	-0.27767	0.434462	0.042722	0.278263	0.563112	1.15938	0.0110735	0.464471	
0.860485	8.36639	5	0	65.3983	31.2199	0.0615795	-0.0399093	0	0	-0.210004	0.5564	0	0	-0.0947273	0.116503	0.00108675	0.0891355	0.00394525	0.269421	0.0746592	0.157534	0.111404	0.0531003	0.121133	0.224932	0.002882	0.207187	-0.296371	0.44307	0.042722	0.278263	0.560835	1.16581	0.0107317	0.474615	
0.878537	8.35724	5	0	65.7929	31.1847	0.054394	-0.035214	0	0	-0.219865	0.541402	0	0	-0.096823	0.097239	-0.00623	0.079053	-0.003374	0.253585	0.068534	0.152034	0.097025	0.054892	0.100078	0.230683	-0.014848	0.218772	-0.315071	0.451679	0.042722	0.278263	0.558557	1.17225	0.01039	0.484758	
0.893607	8.34656	5	0	57.5357	28.4242	0.0508032	-0.032868	0	0	-0.223617	0.53774	0	0	-0.103662	0.0914143	-0.0135383	0.0689972	-0.007032	0.24569	0.0638698	0.142431	0.0915958	0.050845	0.105597	0.215084	-0.0154118	0.201134	-0.310091	0.437604	0.0340457	0.267256	0.551089	1.15983	0.0083345	0.472217	
0.904088	8.33588	5	0	49.2785	25.6637	0.0472125	-0.030522	0	0	-0.22737	0.534078	0	0	-0.110501	0.0855895	-0.0208465	0.0589415	-0.01069	0.237794	0.0592055	0.132829	0.0861665	0.046798	0.111117	0.199485	-0.0159755	0.183497	-0.305111	0.423529	0.0253695	0.256248	0.543621	1.1474	0.006279	0.459676	
0.909198	8.32977	5	0	41.0213	22.9032	0.0436218	-0.028176	0	0	-0.231123	0.530416	0	0	-0.11734	0.0797648	-0.0281547	0.0488858	-0.014348	0.229899	0.0545412	0.123227	0.0807372	0.042751	0.116637	0.183885	-0.0165392	0.165859	-0.30013	0.409454	0.0166933	0.245241	0.536153	1.13498	0.0042235	0.447134	
0.909782	8.32214	5	0	32.7642	20.1426	0.040031	-0.02583	0	0	-0.234875	0.526754	0	0	-0.124179	0.07394	-0.035463	0.03883	-0.018006	0.222003	0.049877	0.113624	0.075308	0.038704	0.122156	0.168286	-0.017103	0.148221	-0.29515	0.395379	0.008017	0.234234	0.528685	1.12256	0.002168	0.434593	
0.906868	8.30688	5	0	29.4121	18.314	0.040031	-0.02583	0	0	-0.239097	0.538685	0	0	-0.124179	0.07394	-0.0364373	0.0415833	-0.0248133	0.223026	0.0394038	0.120468	0.0787995	0.0288358	0.115323	0.160779	-0.0209833	0.139975	-0.308836	0.38992	0.0036835	0.228742	0.524386	1.11796	0.000683	0.429622	
0.901486	8.29925	5	0	26.0601	16.4853	0.040031	-0.02583	0	0	-0.243318	0.550617	0	0	-0.124179	0.07394	-0.0374115	0.0443365	-0.0316205	0.224048	0.0289305	0.127311	0.082291	0.0189675	0.10849	0.153272	-0.0248635	0.131729	-0.322522	0.384462	-0.00065	0.223251	0.520088	1.11337	-0.000802	0.424651	
0.894666	8.29468	5	0	22.708	14.6566	0.040031	-0.02583	0	0	-0.24754	0.562549	0	0	-0.124179	0.07394	-0.0383857	0.0470897	-0.0384277	0.225071	0.0184573	0.134155	0.0857825	0.00909925	0.101656	0.145766	-0.0287437	0.123483	-0.336207	0.379003	-0.0049835	0.217759	0.51579	1.10877	-0.002287	0.419679	
0.887436	8.2901	5	0	19.3559	12.8279	0.040031	-0.02583	0	0	-0.251762	0.57448	0	0	-0.124179	0.07394	-0.03936	0.049843	-0.045235	0.226094	0.007984	0.140998	0.089274	-0.000769	0.094823	0.138259	-0.032624	0.115237	-0.349893	0.373544	-0.009317	0.212267	0.511491	1.10418	-0.003772	0.414708	
0.880826	8.284	5	0	17.6464	11.895	0.0328545	-0.0211405	0	0	-0.258783	0.551586	0	0	-0.137831	0.06232	-0.0383857	0.0470897	-0.0541077	0.214791	0.0140918	0.146493	0.092549	-0.0293957	0.0830088	0.118125	-0.0321533	0.075543	-0.364002	0.325459	-0.0433805	0.211274	0.489149	1.06718	-0.0258073	0.358203	
0.87555	8.27484	5	0	15.9369	10.962	0.025678	-0.016451	0	0	-0.265803	0.528692	0	0	-0.151483	0.0507	-0.0374115	0.0443365	-0.0629805	0.203488	0.0201995	0.151987	0.095824	-0.0580225	0.0711945	0.097992	-0.0316825	0.035849	-0.378112	0.277373	-0.077444	0.21028	0.466807	1.03019	-0.0478425	0.301697	
0.871607	8.27179	5	0	14.2273	10.0291	0.0185015	-0.0117615	0	0	-0.272824	0.505798	0	0	-0.165136	0.03908	-0.0364373	0.0415833	-0.0718533	0.192186	0.0263072	0.157481	0.099099	-0.0866492	0.0593802	0.0778585	-0.0312117	-0.003845	-0.392221	0.229288	-0.111508	0.209287	0.444465	0.993192	-0.0698777	0.245192	
0.868897	8.26416	5	0	12.5178	9.0961	0.011325	-0.007072	0	0	-0.279845	0.482904	0	0	-0.178788	0.02746	-0.035463	0.03883	-0.080726	0.180883	0.032415	0.162976	0.102374	-0.115276	0.047566	0.057725	-0.030741	-0.043539	-0.40633	0.181203	-0.145571	0.208293	0.422123	0.956196	-0.091913	0.188686	
0.867318	8.25348	5	0	11.5611	8.44966	0.008493	-0.00686	0	0	-0.277041	0.47498	0	0	-0.174072	0.0141307	-0.0335155	0.0333258	-0.0843725	0.173026	0.0399875	0.164359	0.0932493	-0.12817	0.03395	0.0428375	-0.040156	-0.0552158	-0.411761	0.152727	-0.161507	0.200492	0.419183	0.931245	-0.106501	0.157193	
0.866772	8.2489	5	0	10.6044	7.80322	0.005661	-0.006648	0	0	-0.274237	0.467056	0	0	-0.169355	0.0008015	-0.031568	0.0278215	-0.088019	0.165169	0.04756	0.165741	0.0841245	-0.141065	0.020334	0.02795	-0.049571	-0.0668925	-0.417192	0.12425	-0.177443	0.192692	0.416243	0.906295	-0.12109	0.1257	
0.867157	8.24127	5	0	9.64775	7.15678	0.002829	-0.006436	0	0	-0.271433	0.459131	0	0	-0.164639	-0.0125278	-0.0296205	0.0223173	-0.0916655	0.157312	0.0551325	0.167124	0.0749998	-0.153959	0.006718	0.0130625	-0.058986	-0.0785693	-0.422623	0.0957743	-0.193379	0.184891	0.413303	0.881344	-0.135678	0.0942077	
0.868373	8.23364	5	0	8.69107	6.51034	-3E-06	-0.006224	0	0	-0.268629	0.451207	0	0	-0.159923	-0.025857	-0.027673	0.016813	-0.095312	0.149455	0.062705	0.168507	0.065875	-0.166854	-0.006898	-0.001825	-0.068401	-0.090246	-0.428054	0.067298	-0.209315	0.17709	0.410363	0.856393	-0.150266	0.062715	
0.87022	8.23212	5	0	8.02201	6.08075	-0.0179107	0.00547725	0	0	-0.275227	0.413024	0	0	-0.171207	-0.0440357	-0.0279242	0.002187	-0.0994727	0.124942	0.0685298	0.152045	0.0530755	-0.188554	-0.0064295	-0.029776	-0.083927	-0.122702	-0.438389	0.0527837	-0.230758	0.176235	0.394178	0.852355	-0.167535	0.0662123	
0.872311	8.23669	5	0	7.35294	5.65117	-0.0358185	0.0171785	0	0	-0.281825	0.374841	0	0	-0.182491	-0.0622145	-0.0281755	-0.012439	-0.103633	0.100429	0.0743545	0.135583	0.040276	-0.210255	-0.005961	-0.057727	-0.099453	-0.155157	-0.448724	0.0382695	-0.252201	0.175379	0.377993	0.848318	-0.184804	0.0697095	
0.874235	8.25653	5	0	6.68387	5.22158	-0.0537263	0.0288798	0	0	-0.288422	0.336658	0	0	-0.193775	-0.0803932	-0.0284268	-0.027065	-0.107794	0.075916	0.0801792	0.119121	0.0274765	-0.231955	-0.0054925	-0.085678	-0.114979	-0.187613	-0.459059	0.0237552	-0.273644	0.174524	0.361808	0.84428	-0.202072	0.0732068	
0.875581	8.28552	5	0	6.01481	4.79199	-0.071634	0.040581	0	0	-0.29502	0.298475	0	0	-0.205059	-0.098572	-0.028678	-0.041691	-0.111955	0.051403	0.086004	0.102659	0.014677	-0.253655	-0.005024	-0.113629	-0.130505	-0.220068	-0.469394	0.009241	-0.295087	0.173669	0.345623	0.840243	-0.219341	0.076704	
0.875939	8.32672	5	0	5.57299	4.49082	-0.075211	0.0429185	0	0	-0.29459	0.283082	0	0	-0.209523	-0.110941	-0.0369542	-0.048935	-0.112481	0.034782	0.0708585	0.099923	0.0232943	-0.278009	-0.020425	-0.123244	-0.13826	-0.236203	-0.481336	-0.00062825	-0.305139	0.167049	0.329694	0.819096	-0.227045	0.06231	
0.874899	8.36792	5	0	5.13118	4.18966	-0.078788	0.045256	0	0	-0.294161	0.267688	0	0	-0.213986	-0.12331	-0.0452305	-0.056179	-0.113008	0.018161	0.055713	0.097187	0.0319115	-0.302363	-0.035826	-0.132859	-0.146014	-0.252337	-0.493279	-0.0104975	-0.31519	0.16043	0.313765	0.797948	-0.234748	0.047916	
0.872052	8.41064	5	0	4.68936	3.88849	-0.082365	0.0475935	0	0	-0.293732	0.252295	0	0	-0.21845	-0.135679	-0.0535067	-0.063423	-0.113534	0.00154	0.0405675	0.094451	0.0405288	-0.326717	-0.051227	-0.142474	-0.153769	-0.268472	-0.505221	-0.0203667	-0.325242	0.15381	0.297835	0.776801	-0.242452	0.033522	
0.867357	8.45032	5	0	4.24755	3.58732	-0.085942	0.049931	0	0	-0.293302	0.236902	0	0	-0.222914	-0.148048	-0.061783	-0.070667	-0.114061	-0.015081	0.025422	0.091715	0.049146	-0.351071	-0.066628	-0.152089	-0.161524	-0.284606	-0.517163	-0.030236	-0.335294	0.147191	0.281906	0.755654	-0.250156	0.019128	
0.861449	8.48846	5	0	3.94049	3.33687	-0.103805	0.061603	0	0	-0.315313	0.200148	0	0	-0.241184	-0.146281	-0.0761088	-0.0760375	-0.134342	-0.0119883	0.020765	0.0821485	0.033155	-0.344361	-0.073409	-0.159438	-0.161524	-0.284606	-0.523935	-0.032867	-0.333778	0.142908	0.277652	0.751172	-0.248677	0.0239845	
0.85504	8.51288	5	0	3.63344	3.08642	-0.121668	0.073275	0	0	-0.337324	0.163393	0	0	-0.259455	-0.144514	-0.0904345	-0.081408	-0.154622	-0.0088955	0.016108	0.072582	0.017164	-0.33765	-0.08019	-0.166788	-0.161524	-0.284606	-0.530708	-0.035498	-0.332263	0.138624	0.273397	0.746691	-0.247199	0.028841	
0.84884	8.53424	5	0	3.32638	2.83597	-0.139531	0.084947	0	0	-0.359335	0.126639	0	0	-0.277725	-0.142748	-0.10476	-0.0867785	-0.174903	-0.00580275	0.011451	0.0630155	0.001173	-0.330939	-0.086971	-0.174137	-0.161524	-0.284606	-0.537481	-0.038129	-0.330748	0.134341	0.269143	0.742209	-0.24572	0.0336975	
0.843562	8.54797	5	0	3.01933	2.58552	-0.157394	0.096619	0	0	-0.381346	0.089885	0	0	-0.295995	-0.140981	-0.119086	-0.092149	-0.195184	-0.00271	0.006794	0.053449	-0.014818	-0.324229	-0.093752	-0.181486	-0.161524	-0.284606	-0.544253	-0.04076	-0.329232	0.130058	0.264889	0.737727	-0.244242	0.038554	
0.839916	8.5556	5	0	2.8006	2.39859	-0.168094	0.10361	0	0	-0.38605	0.075001	0	0	-0.300438	-0.153307	-0.114252	-0.105811	-0.205558	-0.00945375	0.0125867	0.0370778	-0.0150707	-0.342726	-0.0865373	-0.201876	-0.160539	-0.306386	-0.552918	-0.059738	-0.337517	0.127246	0.25769	0.708645	-0.244524	0.0212855	
0.838572	8.56018	5	0	2.58187	2.21166	-0.178794	0.110602	0	0	-0.390753	0.060117	0	0	-0.304882	-0.165632	-0.109418	-0.119472	-0.215931	-0.0161975	0.0183795	0.0207065	-0.0153235	-0.361223	-0.0793225	-0.222265	-0.159554	-0.328166	-0.561584	-0.078716	-0.345803	0.124435	0.250491	0.679563	-0.244806	0.004017	
0.839463	8.56171	5	0	2.36314	2.02473	-0.189494	0.117594	0	0	-0.395457	0.045233	0	0	-0.309326	-0.177957	-0.104584	-0.133134	-0.226304	-0.0229412	0.0241722	0.00433525	-0.0155762	-0.37972	-0.0721077	-0.242654	-0.158568	-0.349946	-0.570249	-0.097694	-0.354088	0.121623	0.243293	0.65048	-0.245088	-0.0132515	
0.841875	8.57544	5	0	2.14441	1.8378	-0.200194	0.124585	0	0	-0.400161	0.030349	0	0	-0.313769	-0.190283	-0.09975	-0.146795	-0.236678	-0.029685	0.029965	-0.012036	-0.015829	-0.398217	-0.064893	-0.263044	-0.157583	-0.371726	-0.578914	-0.116672	-0.362373	0.118811	0.236094	0.621398	-0.24537	-0.03052	
0.845073	8.59833	5	0	1.97061	1.71879	-0.203758	0.126914	0	0	-0.405669	0.0459143	0	0	-0.313769	-0.190283	-0.110895	-0.145807	-0.235124	-0.0340765	0.0238548	-0.017468	-0.014114	-0.403064	-0.0734775	-0.265259	-0.159202	-0.36715	-0.575681	-0.125808	-0.36086	0.114535	0.231847	0.616955	-0.247153	-0.0254802	
0.848321	8.65478	5	0	1.79681	1.59978	-0.207321	0.129242	0	0	-0.411177	0.0614795	0	0	-0.313769	-0.190283	-0.12204	-0.144819	-0.233571	-0.038468	0.0177445	-0.0229	-0.012399	-0.407911	-0.082062	-0.267474	-0.160822	-0.362573	-0.572449	-0.134944	-0.359347	0.110259	0.2276	0.612512	-0.248937	-0.0204405	
0.850884	8.72345	5	0	1.62301	1.48078	-0.210885	0.131571	0	0	-0.416684	0.0770447	0	0	-0.313769	-0.190283	-0.133185	-0.14383	-0.232017	-0.0428595	0.0116342	-0.028332	-0.010684	-0.412758	-0.0906465	-0.269689	-0.162441	-0.357997	-0.569216	-0.144081	-0.357834	0.105983	0.223352	0.608069	-0.25072	-0.0154008	
0.852028	8.8089	5	0	1.44921	1.36177	-0.214449	0.1339	0	0	-0.422192	0.09261	0	0	-0.313769	-0.190283	-0.14433	-0.142842	-0.230463	-0.047251	0.005524	-0.033764	-0.008969	-0.417605	-0.099231	-0.271904	-0.16406	-0.353421	-0.565983	-0.153217	-0.356321	0.101707	0.219105	0.603626	-0.252503	-0.010361	
0.851099	8.90503	5	0	1.32894	1.25284	-0.213695	0.131769	0	0	-0.419437	0.084824	0	0	-0.320543	-0.195991	-0.138544	-0.159193	-0.232541	-0.0593817	0.00086325	-0.0432645	-0.010951	-0.431195	-0.104209	-0.284273	-0.163091	-0.375136	-0.56629	-0.174045	-0.373378	0.106282	0.201045	0.589024	-0.258723	-0.0198485	
0.848206	8.99658	5	0	1.20867	1.1439	-0.212941	0.129638	0	0	-0.416682	0.077038	0	0	-0.327316	-0.2017	-0.132759	-0.175545	-0.234619	-0.0715125	-0.0037975	-0.052765	-0.012933	-0.444785	-0.109187	-0.296642	-0.162122	-0.396852	-0.566597	-0.194873	-0.390435	0.110857	0.182985	0.574423	-0.264943	-0.029336	
0.843862	9.09271	5	0	1.0884	1.03497	-0.212187	0.127508	0	0	-0.413927	0.069252	0	0	-0.33409	-0.207408	-0.126973	-0.191896	-0.236698	-0.0836433	-0.00845825	-0.0622655	-0.014915	-0.458375	-0.114165	-0.309011	-0.161153	-0.418567	-0.566904	-0.2157	-0.407491	0.115432	0.164926	0.559821	-0.271163	-0.0388235	
0.838582	9.17663	5	0	0.968136	0.926035	-0.211433	0.125377	0	0	-0.411172	0.061466	0	0	-0.340863	-0.213116	-0.121187	-0.208248	-0.238776	-0.095774	-0.013119	-0.071766	-0.016897	-0.471965	-0.119143	-0.32138	-0.160184	-0.440283	-0.567211	-0.236528	-0.424548	0.120007	0.146866	0.545219	-0.277383	-0.048311	
0.832884	9.2453	5	0	0.875085	0.859344	-0.205058	0.122849	0	0	-0.402336	0.0646735	0	0	-0.340863	-0.213116	-0.12531	-0.21183	-0.240327	-0.091391	-0.0206583	-0.0731042	-0.016897	-0.471965	-0.10518	-0.334404	-0.161799	-0.435719	-0.573965	-0.23911	-0.419025	0.113115	0.157715	0.530947	-0.276795	-0.0409545	
0.827286	9.30633	5	0	0.782035	0.792654	-0.198683	0.120322	0	0	-0.393501	0.067881	0	0	-0.340863	-0.213116	-0.129434	-0.215413	-0.241878	-0.087008	-0.0281975	-0.0744425	-0.016897	-0.471965	-0.091217	-0.347428	-0.163414	-0.431154	-0.58072	-0.241692	-0.413501	0.106223	0.168564	0.516675	-0.276207	-0.033598	
0.822302	9.36127	5	0	0.688984	0.725963	-0.192308	0.117794	0	0	-0.384665	0.0710885	0	0	-0.340863	-0.213116	-0.133557	-0.218996	-0.243429	-0.082625	-0.0357368	-0.0757807	-0.016897	-0.471965	-0.077254	-0.360451	-0.165029	-0.426589	-0.587474	-0.244274	-0.407978	0.0993317	0.179413	0.502403	-0.27562	-0.0262415	
0.818271	9.39026	5	0	0.595934	0.659272	-0.185933	0.115267	0	0	-0.37583	0.074296	0	0	-0.340863	-0.213116	-0.13768	-0.222578	-0.24498	-0.078242	-0.043276	-0.077119	-0.016897	-0.471965	-0.063291	-0.373475	-0.166644	-0.422025	-0.594228	-0.246856	-0.402455	0.09244	0.190262	0.488131	-0.275032	-0.018885	
0.815066	9.40552	5	0	0.529082	0.585543	-0.193062	0.119925	0	0	-0.380537	0.0594223	0	0	-0.333879	-0.232852	-0.146878	-0.227016	-0.247059	-0.0903522	-0.0418353	-0.0811902	-0.0274325	-0.461363	-0.077254	-0.360451	-0.173113	-0.403743	-0.597448	-0.237757	-0.391918	0.0888372	0.177207	0.508637	-0.268228	-0.00199925	
0.812491	9.41315	5	0	0.462229	0.511815	-0.200191	0.124583	0	0	-0.385245	0.0445485	0	0	-0.326896	-0.252588	-0.156077	-0.231455	-0.249138	-0.102462	-0.0403945	-0.0852615	-0.037968	-0.450761	-0.091217	-0.347428	-0.179582	-0.385462	-0.600667	-0.228658	-0.38138	0.0852345	0.164152	0.529143	-0.261425	0.0148865	
0.810349	9.40552	5	0	0.395377	0.438086	-0.20732	0.129242	0	0	-0.389953	0.0296747	0	0	-0.319913	-0.272324	-0.165275	-0.235893	-0.251218	-0.114573	-0.0389537	-0.0893328	-0.0485035	-0.440158	-0.10518	-0.334404	-0.18605	-0.36718	-0.603886	-0.219559	-0.370842	0.0816318	0.151098	0.54965	-0.254621	0.0317722	
0.808443	9.40094	5	0	0.328525	0.364358	-0.214449	0.1339	0	0	-0.39466	0.014801	0	0	-0.312929	-0.29206	-0.174473	-0.240331	-0.253297	-0.126683	-0.037513	-0.093404	-0.059039	-0.429556	-0.119143	-0.32138	-0.192519	-0.348898	-0.607106	-0.21046	-0.360305	0.078029	0.138043	0.570156	-0.247817	0.048658	
0.806575	9.38568	5	0	0.272735	0.323639	-0.210885	0.131571	0	0	-0.403888	0.0268092	0	0	-0.312929	-0.29206	-0.175434	-0.237615	-0.253297	-0.126683	-0.037513	-0.093404	-0.0607512	-0.424717	-0.110568	-0.319177	-0.195759	-0.339743	-0.607106	-0.21046	-0.360305	0.078029	0.140249	0.563922	-0.244551	0.0484663	
0.804564	9.36584	5	0	0.216945	0.28292	-0.207321	0.129242	0	0	-0.413117	0.0388175	0	0	-0.312929	-0.29206	-0.176395	-0.234898	-0.253297	-0.126683	-0.037513	-0.093404	-0.0624635	-0.419878	-0.101993	-0.316974	-0.198998	-0.330588	-0.607106	-0.21046	-0.360305	0.078029	0.142454	0.557688	-0.241285	0.0482745	
0.802402	9.34143	5	0	0.161154	0.242201	-0.203758	0.126914	0	0	-0.422346	0.0508258	0	0	-0.312929	-0.29206	-0.177357	-0.232181	-0.253297	-0.126683	-0.037513	-0.093404	-0.0641758	-0.415038	-0.093418	-0.31477	-0.202237	-0.321434	-0.607106	-0.21046	-0.360305	0.078029	0.14466	0.551453	-0.238018	0.0480828	
0.800178	9.31244	5	0	0.105364	0.201482	-0.200194	0.124585	0	0	-0.431574	0.062834	0	0	-0.312929	-0.29206	-0.178318	-0.229465	-0.253297	-0.126683	-0.037513	-0.093404	-0.065888	-0.410199	-0.084843	-0.312567	-0.205477	-0.312279	-0.607106	-0.21046	-0.360305	0.078029	0.146866	0.545219	-0.234752	0.047891	
0.797982	9.28345	5	0	0.0626665	0.186032	-0.200194	0.124585	0	0	-0.437508	0.093677	0	0	-0.319913	-0.272324	-0.174203	-0.225885	-0.242931	-0.119987	-0.040395	-0.0852595	-0.0550893	-0.402354	-0.092041	-0.292224	-0.196113	-0.30077	-0.610329	-0.201352	-0.349751	0.0744173	0.143557	0.554572	-0.22942	0.059967	
0.795906	9.24835	5	0	0.019969	0.170581	-0.200194	0.124585	0	0	-0.443442	0.12452	0	0	-0.326896	-0.252588	-0.170087	-0.222305	-0.232565	-0.113291	-0.043277	-0.077115	-0.0442905	-0.394508	-0.099239	-0.271881	-0.186749	-0.289262	-0.613552	-0.192244	-0.339197	0.0708055	0.140247	0.563925	-0.224088	0.072043	
0.794041	9.21936	5	0	-0.0227285	0.155131	-0.200194	0.124585	0	0	-0.449375	0.155363	0	0	-0.333879	-0.232852	-0.165971	-0.218725	-0.222199	-0.106596	-0.046159	-0.0689705	-0.0334918	-0.386663	-0.106437	-0.251538	-0.177385	-0.277753	-0.616775	-0.183135	-0.328643	0.0671937	0.136938	0.573278	-0.218757	0.084119	
0.792474	9.18884	5	0	-0.065426	0.139681	-0.200194	0.124585	0	0	-0.455309	0.186206	0	0	-0.340863	-0.213116	-0.161856	-0.215145	-0.211833	-0.0999	-0.049041	-0.060826	-0.022693	-0.378818	-0.113635	-0.231195	-0.168021	-0.266245	-0.619998	-0.174027	-0.318089	0.063582	0.133629	0.582631	-0.213425	0.096195	
0.791127	9.15375	5	0	-0.094012	0.115282	-0.196629	0.122256	0	0	-0.443722	0.181638	0	0	-0.340863	-0.213116	-0.156775	-0.214282	-0.211833	-0.0999	-0.050483	-0.0567508	-0.022693	-0.378818	-0.115437	-0.226102	-0.157645	-0.276554	-0.619998	-0.174027	-0.326891	0.070976	0.121872	0.583122	-0.225343	0.111775	
0.789681	9.12933	5	0	-0.122598	0.0908835	-0.193063	0.119926	0	0	-0.432136	0.177069	0	0	-0.340863	-0.213116	-0.151693	-0.21342	-0.211833	-0.0999	-0.051925	-0.0526755	-0.022693	-0.378818	-0.117239	-0.221009	-0.147268	-0.286863	-0.619998	-0.174027	-0.335693	0.07837	0.110116	0.583614	-0.23726	0.127356	
0.787797	9.10034	5	0	-0.151184	0.0664847	-0.189498	0.117596	0	0	-0.420549	0.172501	0	0	-0.340863	-0.213116	-0.146612	-0.212558	-0.211833	-0.0999	-0.053367	-0.0486002	-0.022693	-0.378818	-0.119041	-0.215916	-0.136892	-0.297172	-0.619998	-0.174027	-0.344494	0.085764	0.0983595	0.584105	-0.249178	0.142936	
0.785139	9.0744	5	0	-0.17977	0.042086	-0.185933	0.115267	0	0	-0.408962	0.167933	0	0	-0.340863	-0.213116	-0.141531	-0.211695	-0.211833	-0.0999	-0.054809	-0.044525	-0.022693	-0.378818	-0.120843	-0.210823	-0.126516	-0.307481	-0.619998	-0.174027	-0.353296	0.093158	0.086603	0.584596	-0.261096	0.158516	
0.781368	9.04999	5	0	-0.198025	0.0338355	-0.179553	0.112736	0	0	-0.417267	0.191404	0	0	-0.33409	-0.207408	-0.138372	-0.205386	-0.20975	-0.087766	-0.0591387	-0.0322885	-0.0207242	-0.365171	-0.11407	-0.203489	-0.133018	-0.289105	-0.626453	-0.155783	-0.353296	0.093158	0.0715637	0.594423	-0.260522	0.165943	
0.776146	9.0271	5	0	-0.21628	0.025585	-0.173172	0.110205	0	0	-0.425571	0.214874	0	0	-0.327316	-0.2017	-0.135213	-0.199077	-0.207666	-0.075632	-0.0634685	-0.020052	-0.0187555	-0.351523	-0.107298	-0.196155	-0.13952	-0.27073	-0.632909	-0.137539	-0.353296	0.093158	0.0565245	0.60425	-0.259949	0.17337	
0.76945	9.00879	5	0	-0.234534	0.0173345	-0.166791	0.107674	0	0	-0.433876	0.238345	0	0	-0.320543	-0.195991	-0.132055	-0.192768	-0.205583	-0.063498	-0.0677983	-0.0078155	-0.0167867	-0.337876	-0.100525	-0.18882	-0.146022	-0.252354	-0.639365	-0.119294	-0.353296	0.093158	0.0414853	0.614077	-0.259375	0.180798	
0.762067	8.98743	5	0	-0.252789	0.009084	-0.160411	0.105143	0	0	-0.442181	0.261815	0	0	-0.313769	-0.190283	-0.128896	-0.186459	-0.2035	-0.051364	-0.072128	0.004421	-0.014818	-0.324229	-0.093752	-0.181486	-0.152524	-0.233978	-0.64582	-0.10105	-0.353296	0.093158	0.026446	0.623904	-0.258801	0.188225	
0.75492	8.97522	5	0	-0.272059	-0.0109892	-0.163225	0.105344	0	0	-0.436642	0.246161	0	0	-0.31844	-0.177082	-0.134685	-0.170098	-0.209724	-0.0337755	-0.0570525	0.0071335	-0.005719	-0.311462	-0.0905905	-0.163907	-0.149672	-0.203949	-0.643934	-0.0847092	-0.337708	0.0928373	0.0359675	0.629671	-0.251118	0.202749	
0.748929	8.95996	5	0	-0.291328	-0.0310625	-0.166039	0.105544	0	0	-0.431103	0.230507	0	0	-0.323111	-0.163881	-0.140475	-0.153736	-0.215947	-0.016187	-0.041977	0.009846	0.00338	-0.298694	-0.087429	-0.146328	-0.14682	-0.17392	-0.642049	-0.0683685	-0.322121	0.0925165	0.045489	0.635437	-0.243435	0.217273	
0.745015	8.94165	5	0	-0.310598	-0.0511357	-0.168853	0.105744	0	0	-0.425564	0.214853	0	0	-0.327782	-0.15068	-0.146264	-0.137375	-0.22217	0.0014015	-0.0269015	0.0125585	0.012479	-0.285927	-0.0842675	-0.128749	-0.143968	-0.14389	-0.640163	-0.0520277	-0.306533	0.0921957	0.0550105	0.641204	-0.235753	0.231797	
0.744098	8.93097	5	0	-0.329868	-0.071209	-0.171667	0.105945	0	0	-0.420025	0.199199	0	0	-0.332453	-0.137479	-0.152053	-0.121014	-0.228394	0.01899	-0.011826	0.015271	0.021578	-0.27316	-0.081106	-0.11117	-0.141116	-0.113861	-0.638277	-0.035687	-0.290945	0.091875	0.064532	0.646971	-0.22807	0.246321	
0.746594	8.91571	5	0	-0.34347	-0.0773447	-0.168099	0.103613	0	0	-0.422793	0.207023	0	0	-0.334791	-0.130871	-0.147934	-0.117408	-0.221649	0.0179675	-0.0161698	0.0275468	0.026996	-0.269201	-0.0865435	-0.0958035	-0.133972	-0.114976	-0.638277	-0.035687	-0.29346	0.0902287	0.0625268	0.636293	-0.224469	0.236144	
0.751775	8.90045	5	0	-0.357072	-0.0834805	-0.16453	0.101282	0	0	-0.425561	0.214846	0	0	-0.337129	-0.124263	-0.143815	-0.113801	-0.214904	0.016945	-0.0205135	0.0398225	0.032414	-0.265241	-0.091981	-0.080437	-0.126829	-0.116091	-0.638277	-0.035687	-0.295976	0.0885825	0.0605215	0.625615	-0.220868	0.225967	
0.758753	8.88519	5	0	-0.370674	-0.0896163	-0.160962	0.0989505	0	0	-0.42833	0.22267	0	0	-0.339468	-0.117655	-0.139695	-0.110195	-0.20816	0.0159225	-0.0248573	0.0520982	0.037832	-0.261281	-0.0974185	-0.0650705	-0.119686	-0.117206	-0.638277	-0.035687	-0.298491	0.0869363	0.0585162	0.614937	-0.217267	0.215789	
0.766641	8.86841	5	0	-0.384276	-0.095752	-0.157394	0.096619	0	0	-0.431098	0.230494	0	0	-0.341806	-0.111047	-0.135576	-0.106589	-0.201415	0.0149	-0.029201	0.064374	0.04325	-0.257322	-0.102856	-0.049704	-0.112542	-0.118321	-0.638277	-0.035687	-0.301006	0.08529	0.056511	0.604259	-0.213666	0.205612	
0.774553	8.85925	5	0	-0.391104	-0.0912905	-0.143861	0.0894145	0	0	-0.424095	0.253049	0	0	-0.346488	-0.0978165	-0.132421	-0.100244	-0.199343	0.0271015	-0.0231028	0.0698398	0.0434833	-0.23869	-0.0979	-0.0371587	-0.110303	-0.105554	-0.633154	-0.0284688	-0.292945	0.080023	0.0651365	0.596228	-0.207115	0.205242	
0.781599	8.84552	5	0	-0.397931	-0.086829	-0.130328	0.08221	0	0	-0.417092	0.275605	0	0	-0.351169	-0.084586	-0.129267	-0.093899	-0.197271	0.039303	-0.0170045	0.0753055	0.0437165	-0.220058	-0.092944	-0.0246135	-0.108065	-0.0927875	-0.628031	-0.0212505	-0.284884	0.074756	0.073762	0.588197	-0.200564	0.204873	
0.787098	8.83331	5	0	-0.404759	-0.0823675	-0.116794	0.0750055	0	0	-0.41009	0.29816	0	0	-0.355851	-0.0713555	-0.126112	-0.087554	-0.195199	0.0515045	-0.0109062	0.0807712	0.0439497	-0.201425	-0.087988	-0.0120683	-0.105827	-0.0800208	-0.622909	-0.0140323	-0.276824	0.069489	0.0823875	0.580165	-0.194012	0.204503	
0.79136	8.81958	5	0	-0.411587	-0.077906	-0.103261	0.067801	0	0	-0.403087	0.320716	0	0	-0.360532	-0.058125	-0.122957	-0.081209	-0.193127	0.063706	-0.004808	0.086237	0.044183	-0.182793	-0.083032	0.000477	-0.103588	-0.067254	-0.617786	-0.006814	-0.268763	0.064222	0.091013	0.572134	-0.187461	0.204133	
0.794993	8.80737	5	0	-0.419476	-0.0852458	-0.103261	0.067801	0	0	-0.405421	0.313185	0	0	-0.353768	-0.0523585	-0.112766	-0.0794515	-0.206125	0.0823833	-0.0106167	0.102653	0.0355135	-0.158292	-0.0780755	0.013058	-0.0974793	-0.0462725	-0.614284	0.00501075	-0.259438	0.0729455	0.0908178	0.589045	-0.181556	0.223788	
0.798607	8.79822	5	0	-0.427365	-0.0925855	-0.103261	0.067801	0	0	-0.407755	0.305654	0	0	-0.347003	-0.046592	-0.102575	-0.077694	-0.219123	0.10106	-0.0164255	0.11907	0.026844	-0.133791	-0.073119	0.025639	-0.0913705	-0.025291	-0.610783	0.0168355	-0.250114	0.081669	0.0906225	0.605957	-0.175651	0.243443	
0.802813	8.79059	5	0	-0.435254	-0.0999252	-0.103261	0.067801	0	0	-0.410088	0.298124	0	0	-0.340238	-0.0408255	-0.092384	-0.0759365	-0.232121	0.119738	-0.0222342	0.135487	0.0181745	-0.10929	-0.0681625	0.03822	-0.0852617	-0.0043095	-0.607281	0.0286602	-0.240789	0.0903925	0.0904273	0.622869	-0.169747	0.263097	
0.80822	8.77838	5	0	-0.443143	-0.107265	-0.103261	0.067801	0	0	-0.412422	0.290593	0	0	-0.333474	-0.035059	-0.082193	-0.074179	-0.245119	0.138415	-0.028043	0.151903	0.009505	-0.084789	-0.063206	0.050801	-0.079153	0.016672	-0.603779	0.040485	-0.231465	0.099116	0.090232	0.63978	-0.163842	0.282752	
0.815421	8.77075	5	0	-0.438625	-0.105222	-0.103261	0.067801	0	0	-0.40592	0.286345	0	0	-0.344927	-0.0275755	-0.0800008	-0.0650763	-0.238372	0.137405	-0.0114725	0.150557	0.0149187	-0.0807775	-0.063206	0.050801	-0.0775085	0.0120243	-0.613776	0.0470173	-0.233987	0.0974687	0.0840063	0.62467	-0.165318	0.27783	
0.824482	8.75549	5	0	-0.434107	-0.10318	-0.103261	0.067801	0	0	-0.399419	0.282096	0	0	-0.356379	-0.020092	-0.0778085	-0.0559735	-0.231625	0.136395	0.005098	0.14921	0.0203325	-0.076766	-0.063206	0.050801	-0.075864	0.0073765	-0.623773	0.0535495	-0.236509	0.0958215	0.0777805	0.60956	-0.166793	0.272909	
0.834852	8.75091	5	0	-0.429589	-0.101137	-0.103261	0.067801	0	0	-0.392917	0.277848	0	0	-0.367832	-0.0126085	-0.0756162	-0.0468708	-0.224879	0.135384	0.0216685	0.147864	0.0257462	-0.0727545	-0.063206	0.050801	-0.0742195	0.00272875	-0.63377	0.0600818	-0.239031	0.0941743	0.0715548	0.594449	-0.168269	0.267988	
0.845944	8.73871	5	0	-0.425071	-0.099094	-0.103261	0.067801	0	0	-0.386415	0.2736	0	0	-0.379285	-0.005125	-0.073424	-0.037768	-0.218132	0.134374	0.038239	0.146517	0.03116	-0.068743	-0.063206	0.050801	-0.072575	-0.001919	-0.643767	0.066614	-0.241553	0.092527	0.065329	0.579339	-0.169745	0.263066	
0.857174	8.72803	5	0	0.663245	0.408657	-0.0961083	0.0631272	0	0	-0.387311	0.304418	0	0	-0.372528	0.00066125	-0.073178	-0.0231523	-0.216077	0.14664	0.0428975	0.156135	0.0348383	-0.0598075	-0.0772665	0.0639492	-0.077511	0.0120315	-0.645393	0.071209	-0.23499	0.091534	0.0781773	0.575733	-0.168269	0.267988	
0.867955	8.72192	5	0	1.75156	0.916408	-0.0889555	0.0584535	0	0	-0.388208	0.335236	0	0	-0.36577	0.0064475	-0.072932	-0.0085365	-0.214022	0.158907	0.047556	0.165753	0.0385165	-0.050872	-0.091327	0.0770975	-0.082447	0.025982	-0.647019	0.075804	-0.228428	0.090541	0.0910255	0.572128	-0.166793	0.272909	
0.877702	8.71429	5	0	2.83988	1.42416	-0.0818027	0.0537798	0	0	-0.389104	0.366054	0	0	-0.359012	0.0122338	-0.072686	0.00607925	-0.211967	0.171173	0.0522145	0.17537	0.0421947	-0.0419365	-0.105387	0.0902457	-0.087383	0.0399325	-0.648645	0.080399	-0.221865	0.089548	0.103874	0.568522	-0.165318	0.27783	
0.885835	8.70666	5	0	3.92819	1.93191	-0.07465	0.049106	0	0	-0.39	0.396872	0	0	-0.352255	0.01802	-0.07244	0.020695	-0.209912	0.183439	0.056873	0.184988	0.045873	-0.033001	-0.119448	0.103394	-0.092319	0.053883	-0.650271	0.084994	-0.215302	0.088555	0.116722	0.564916	-0.163842	0.282752	
0.892062	8.69751	5	0	5.42681	2.64626	-0.073896	0.0469747	0	0	-0.392331	0.389311	0	0	-0.349907	0.0113828	-0.0673332	0.0215858	-0.200018	0.173569	0.0524953	0.19736	0.049552	-0.0240473	-0.119448	0.103394	-0.100563	0.0771822	-0.646786	0.0968658	-0.208235	0.103742	0.108995	0.586755	-0.153746	0.299749	
0.89649	8.6853	5	0	6.92543	3.3606	-0.073142	0.0448435	0	0	-0.394661	0.38175	0	0	-0.347558	0.0047455	-0.0622265	0.0224765	-0.190124	0.163699	0.0481175	0.209732	0.053231	-0.0150935	-0.119448	0.103394	-0.108808	0.100482	-0.643301	0.108737	-0.201169	0.11893	0.101267	0.608594	-0.143651	0.316747	
0.899255	8.68225	5	0	8.42405	4.07495	-0.072388	0.0427123	0	0	-0.396992	0.37419	0	0	-0.34521	-0.00189175	-0.0571197	0.0233672	-0.18023	0.15383	0.0437398	0.222104	0.05691	-0.00613975	-0.119448	0.103394	-0.117052	0.123781	-0.639816	0.120609	-0.194102	0.134118	0.0935395	0.630433	-0.133555	0.333744	
0.900494	8.67309	5	0	9.92266	4.7893	-0.071634	0.040581	0	0	-0.399323	0.366629	0	0	-0.342861	-0.008529	-0.052013	0.024258	-0.170336	0.14396	0.039362	0.234476	0.060589	0.002814	-0.119448	0.103394	-0.125296	0.14708	-0.636331	0.132481	-0.187035	0.149305	0.085812	0.652272	-0.12346	0.350741	
0.900343	8.66852	5	0	11.4157	5.47298	-0.0688095	0.040374	0	0	-0.391871	0.373874	0	0	-0.34521	-0.00189175	-0.0417855	0.0260385	-0.175039	0.157253	0.0349783	0.246865	0.0642687	0.0117865	-0.121272	0.108549	-0.125296	0.14708	-0.637961	0.137088	-0.183746	0.148809	0.086917	0.649149	-0.125274	0.355866	
0.898937	8.65326	5	0	12.9086	6.15667	-0.065985	0.040167	0	0	-0.384418	0.381119	0	0	-0.347558	0.0047455	-0.031558	0.027819	-0.179743	0.170546	0.0305945	0.259254	0.0679485	0.020759	-0.123096	0.113703	-0.125296	0.14708	-0.639591	0.141695	-0.180456	0.148313	0.088022	0.646026	-0.127087	0.360991	
0.896412	8.64715	5	0	14.4016	6.84036	-0.0631605	0.03996	0	0	-0.376966	0.388363	0	0	-0.349907	0.0113828	-0.0213305	0.0295995	-0.184447	0.183838	0.0262107	0.271644	0.0716283	0.0297315	-0.12492	0.118858	-0.125296	0.14708	-0.641222	0.146302	-0.177167	0.147816	0.089127	0.642903	-0.128901	0.366116	
0.892949	8.63953	5	0	15.8946	7.52404	-0.060336	0.039753	0	0	-0.369514	0.395608	0	0	-0.352255	0.01802	-0.011103	0.03138	-0.18915	0.197131	0.021827	0.284033	0.075308	0.038704	-0.126744	0.124013	-0.125296	0.14708	-0.642852	0.150909	-0.173877	0.14732	0.090232	0.63978	-0.130714	0.371241	
0.888822	8.62732	5	0	17.3269	8.28383	-0.0703132	0.0446337	0	0	-0.38208	0.38868	0	0	-0.343137	0.017169	-0.00890875	0.0405397	-0.193861	0.210444	0.0279362	0.289579	0.068313	0.0584728	-0.128569	0.12917	-0.124747	0.16468	-0.636106	0.15359	-0.163749	0.153941	0.091132	0.653611	-0.125381	0.38354	
0.884319	8.61969	5	0	18.7592	9.04362	-0.0802905	0.0495145	0	0	-0.394647	0.381752	0	0	-0.33402	0.016318	-0.0067145	0.0496995	-0.198571	0.223756	0.0340455	0.295125	0.061318	0.0782415	-0.130394	0.134328	-0.124197	0.182281	-0.62936	0.156272	-0.153622	0.160562	0.092032	0.667442	-0.120048	0.395838	
0.879729	8.60901	5	0	20.1914	9.80341	-0.0902678	0.0543952	0	0	-0.407214	0.374823	0	0	-0.324902	0.015467	-0.00452025	0.0588592	-0.203282	0.237069	0.0401548	0.300672	0.054323	0.0980102	-0.132219	0.139485	-0.123648	0.199881	-0.622614	0.158953	-0.143495	0.167183	0.092932	0.681272	-0.114715	0.408137	
0.875339	8.5968	5	0	21.6237	10.5632	-0.100245	0.059276	0	0	-0.41978	0.367895	0	0	-0.315784	0.014616	-0.002326	0.068019	-0.207992	0.250382	0.046264	0.306218	0.047328	0.117779	-0.134044	0.144643	-0.123099	0.217481	-0.615868	0.161634	-0.133367	0.173804	0.093832	0.695103	-0.109382	0.420436	
0.871438	8.59222	5	0	23.0579	11.2474	-0.100999	0.0614073	0	0	-0.429067	0.380015	0	0	-0.318136	0.0212633	-0.0042785	0.0735367	-0.201229	0.249378	0.0447992	0.310357	0.0545018	0.116896	-0.132219	0.139485	-0.118137	0.203458	-0.614236	0.157022	-0.134377	0.167841	0.109116	0.668297	-0.112333	0.410523	
0.868312	8.58002	5	0	24.492	11.9317	-0.101753	0.0635385	0	0	-0.438354	0.392136	0	0	-0.320488	0.0279105	-0.006231	0.0790545	-0.194466	0.248373	0.0433345	0.314496	0.0616755	0.116013	-0.130394	0.134328	-0.113175	0.189434	-0.612604	0.152411	-0.135387	0.161879	0.124399	0.641491	-0.115283	0.40061	
0.866048	8.57086	5	0	25.9262	12.6159	-0.102507	0.0656697	0	0	-0.447641	0.404256	0	0	-0.32284	0.0345577	-0.0081835	0.0845723	-0.187703	0.247369	0.0418698	0.318636	0.0688493	0.115131	-0.128569	0.12917	-0.108213	0.17541	-0.610973	0.147799	-0.136397	0.155917	0.139683	0.614685	-0.118233	0.390697	
0.864345	8.56476	5	0	27.3603	13.3001	-0.103261	0.067801	0	0	-0.456928	0.416376	0	0	-0.325192	0.041205	-0.010136	0.09009	-0.18094	0.246365	0.040405	0.322775	0.076023	0.114248	-0.126744	0.124013	-0.103251	0.161387	-0.609341	0.143187	-0.137407	0.149954	0.154967	0.587879	-0.121184	0.380784	
0.862858	8.5556	5	0	28.7409	14.0573	-0.103261	0.067801	0	0	-0.458797	0.435785	0	0	-0.316062	0.0403535	-0.00306	0.0854665	-0.18566	0.259704	0.040405	0.322775	0.079698	0.123274	-0.12492	0.118858	-0.0977342	0.164968	-0.610973	0.147799	-0.136397	0.155917	0.152757	0.594124	-0.114599	0.380426	
0.861239	8.55102	5	0	30.1216	14.8146	-0.103261	0.067801	0	0	-0.460666	0.455194	0	0	-0.306932	0.039502	0.004016	0.080843	-0.190379	0.273043	0.040405	0.322775	0.083373	0.1323	-0.123096	0.113703	-0.0922175	0.168548	-0.612604	0.152411	-0.135387	0.161879	0.150548	0.60037	-0.108014	0.380068	
0.859143	8.5495	5	0	31.5022	15.5718	-0.103261	0.067801	0	0	-0.462536	0.474602	0	0	-0.297803	0.0386505	0.011092	0.0762195	-0.195099	0.286383	0.040405	0.322775	0.087048	0.141325	-0.121272	0.108549	-0.0867008	0.172129	-0.614236	0.157022	-0.134377	0.167841	0.148338	0.606615	-0.10143	0.37971	
0.856224	8.53882	5	0	32.8828	16.329	-0.103261	0.067801	0	0	-0.464405	0.494011	0	0	-0.288673	0.037799	0.018168	0.071596	-0.199819	0.299722	0.040405	0.322775	0.090723	0.150351	-0.119448	0.103394	-0.081184	0.17571	-0.615868	0.161634	-0.133367	0.173804	0.146128	0.61286	-0.094845	0.379352	
0.85214	8.52966	5	0	34.1972	17.0173	-0.0989312	0.0633335	0	0	-0.457898	0.48976	0	0	-0.297803	0.0386505	0.0120685	0.0734603	-0.196672	0.290827	0.040405	0.322775	0.0959822	0.135488	-0.117625	0.0982423	-0.0889118	0.159225	-0.617726	0.145139	-0.144256	0.169333	0.144285	0.585307	-0.10643	0.357392	
0.846761	8.52203	5	0	35.5116	17.7056	-0.0946015	0.058866	0	0	-0.451392	0.485508	0	0	-0.306932	0.039502	0.005969	0.0753245	-0.193524	0.281932	0.040405	0.322775	0.101241	0.120624	-0.115802	0.0930905	-0.0966395	0.142741	-0.619584	0.128644	-0.155144	0.164863	0.142441	0.557754	-0.118014	0.335431	
0.840214	8.5144	5	0	36.8259	18.3939	-0.0902718	0.0543985	0	0	-0.444886	0.481256	0	0	-0.316062	0.0403535	-0.0001305	0.0771888	-0.190377	0.273037	0.040405	0.322775	0.106501	0.105761	-0.113979	0.0879387	-0.104367	0.126256	-0.621442	0.112149	-0.166032	0.160392	0.140597	0.530202	-0.129599	0.31347	
0.832644	8.5022	5	0	38.1403	19.0822	-0.085942	0.049931	0	0	-0.438379	0.477005	0	0	-0.325192	0.041205	-0.00623	0.079053	-0.18723	0.264142	0.040405	0.322775	0.11176	0.090897	-0.112156	0.082787	-0.112095	0.109772	-0.6233	0.095654	-0.176921	0.155922	0.138754	0.502649	-0.141184	0.29151	
0.824196	8.49609	5	0	39.5546	19.7659	-0.0930918	0.0546028	0	0	-0.437908	0.461538	0	0	-0.318141	0.021278	-0.0113483	0.0781567	-0.19085	0.256262	0.0450515	0.332483	0.0974022	0.0926713	-0.0967883	0.0925715	-0.115957	0.101553	-0.628417	0.088394	-0.186268	0.147164	0.140017	0.482719	-0.151853	0.267122	
0.815013	8.48999	5	0	40.969	20.4497	-0.100242	0.0592745	0	0	-0.437438	0.446071	0	0	-0.31109	0.001351	-0.0164665	0.0772605	-0.19447	0.248383	0.049698	0.34219	0.0830445	0.0944455	-0.0814205	0.102356	-0.119819	0.093335	-0.633533	0.081134	-0.195615	0.138405	0.14128	0.462789	-0.162523	0.242733	
0.80524	8.48389	5	0	42.3833	21.1335	-0.107391	0.0639462	0	0	-0.436967	0.430604	0	0	-0.30404	-0.018576	-0.0215847	0.0763642	-0.198089	0.240503	0.0543445	0.351898	0.0686868	0.0962197	-0.0660527	0.112141	-0.123681	0.0851165	-0.63865	0.073874	-0.204963	0.129646	0.142544	0.442858	-0.173192	0.218345	
0.79507	8.48236	5	0	43.7976	21.8172	-0.114541	0.068618	0	0	-0.436496	0.415137	0	0	-0.296989	-0.038503	-0.026703	0.075468	-0.201709	0.232623	0.058991	0.361606	0.054329	0.097994	-0.050685	0.121925	-0.127543	0.076898	-0.643767	0.066614	-0.21431	0.120888	0.143807	0.422928	-0.183861	0.193957	
0.784898	8.47473	5	0	45.2841	22.4499	-0.135954	0.0826097	0	0	-0.449059	0.366042	0	0	-0.317293	-0.0557735	-0.027919	0.063556	-0.219301	0.210078	0.0651095	0.367181	0.036346	0.0907623	-0.0457315	0.13459	-0.14897	0.080174	-0.643767	0.066614	-0.223396	0.120228	0.128768	0.432755	-0.203494	0.195063	
0.775176	8.47168	5	0	46.7705	23.0826	-0.157367	0.0966015	0	0	-0.461621	0.316947	0	0	-0.337596	-0.073044	-0.029135	0.051644	-0.236893	0.187533	0.071228	0.372757	0.018363	0.0835305	-0.040778	0.147255	-0.170397	0.08345	-0.643767	0.066614	-0.232482	0.119568	0.113728	0.442582	-0.223128	0.196169	
0.766354	8.46252	5	0	48.2569	23.7153	-0.178781	0.110593	0	0	-0.474183	0.267853	0	0	-0.3579	-0.0903145	-0.030351	0.039732	-0.254485	0.164989	0.0773465	0.378333	0.00038	0.0762987	-0.0358245	0.159921	-0.191824	0.086726	-0.643767	0.066614	-0.241568	0.118908	0.0986893	0.452409	-0.242761	0.197275	
0.758885	8.4671	5	0	49.7433	24.348	-0.200194	0.124585	0	0	-0.486746	0.218758	0	0	-0.378204	-0.107585	-0.031567	0.02782	-0.272077	0.142444	0.083465	0.383908	-0.017603	0.069067	-0.030871	0.172586	-0.213251	0.090002	-0.643767	0.066614	-0.250654	0.118248	0.08365	0.462236	-0.262395	0.198381	
0.753219	8.48694	5	0	51.0239	25.0584	-0.21444	0.133893	0	0	-0.493731	0.196345	0	0	-0.391698	-0.119051	-0.02962	0.0223175	-0.280854	0.131222	0.0971962	0.390922	-0.028398	0.0609728	-0.0277533	0.190479	-0.224212	0.0828902	-0.653752	0.0731385	-0.262999	0.118077	0.0774055	0.447264	-0.278949	0.181922	
0.749679	8.52508	5	0	52.3045	25.7687	-0.228686	0.143202	0	0	-0.500717	0.173932	0	0	-0.405192	-0.130516	-0.027673	0.016815	-0.289631	0.12	0.110928	0.397935	-0.039193	0.0528785	-0.0246355	0.208371	-0.235173	0.0757785	-0.663738	0.079663	-0.275344	0.117906	0.071161	0.432293	-0.295504	0.165463	
0.747993	8.59222	5	0	53.585	26.4791	-0.242932	0.15251	0	0	-0.507703	0.151519	0	0	-0.418686	-0.141981	-0.025726	0.0113125	-0.298407	0.108779	0.124659	0.404948	-0.049988	0.0447842	-0.0215177	0.226264	-0.246134	0.0686667	-0.673724	0.0861875	-0.28769	0.117736	0.0649165	0.417322	-0.312059	0.149004	
0.747719	8.67462	5	0	54.8656	27.1895	-0.257178	0.161819	0	0	-0.514688	0.129106	0	0	-0.43218	-0.153447	-0.023779	0.00581	-0.307184	0.097557	0.13839	0.411962	-0.060783	0.03669	-0.0184	0.244157	-0.257095	0.061555	-0.683709	0.092712	-0.300035	0.117565	0.058672	0.40235	-0.328613	0.132545	
0.748413	8.77991	5	0	56.2868	27.6807	-0.2714	0.171112	0	0	-0.533111	0.153121	0	0	-0.434511	-0.146859	-0.0298645	0.007672	-0.307184	0.097557	0.136916	0.416126	-0.0536457	0.0358103	-0.0116085	0.251705	-0.242848	0.0593785	-0.676976	0.09538	-0.300035	0.117565	0.0564822	0.408539	-0.332763	0.135257	
0.749632	8.9035	5	0	57.7079	28.1719	-0.285623	0.180405	0	0	-0.551534	0.177136	0	0	-0.436843	-0.14027	-0.03595	0.009534	-0.307184	0.097557	0.135443	0.420291	-0.0465085	0.0349305	-0.004817	0.259253	-0.2286	0.057202	-0.670243	0.098048	-0.300035	0.117565	0.0542925	0.414728	-0.336914	0.137969	
0.750934	9.03473	5	0	59.1291	28.663	-0.299845	0.189699	0	0	-0.569956	0.20115	0	0	-0.439174	-0.133682	-0.0420355	0.011396	-0.307184	0.097557	0.13397	0.424455	-0.0393712	0.0340507	0.0019745	0.266801	-0.214353	0.0550255	-0.663511	0.100716	-0.300035	0.117565	0.0521028	0.420917	-0.341064	0.140681	
0.75192	9.17358	5	0	60.5503	29.1542	-0.314067	0.198992	0	0	-0.588379	0.225165	0	0	-0.441505	-0.127093	-0.048121	0.013258	-0.307184	0.097557	0.132496	0.428619	-0.032234	0.033171	0.008766	0.274349	-0.200105	0.052849	-0.656778	0.103384	-0.300035	0.117565	0.049913	0.427106	-0.345215	0.143393	
0.752411	9.30176	5	0	61.8084	29.8103	-0.321169	0.203633	0	0	-0.593005	0.21023	0	0	-0.448236	-0.132821	-0.049094	0.016008	-0.309233	0.0853605	0.146259	0.435657	-0.0412842	0.0201862	0.0137213	0.287125	-0.209434	0.0411258	-0.668391	0.114509	-0.316141	0.128089	0.025251	0.447982	-0.36918	0.157108	
0.752291	9.42078	5	0	63.0665	30.4664	-0.328271	0.208274	0	0	-0.597631	0.195295	0	0	-0.454967	-0.138549	-0.050067	0.018758	-0.311282	0.073164	0.160021	0.442694	-0.0503345	0.0072015	0.0186765	0.2999	-0.218763	0.0294025	-0.680004	0.125633	-0.332247	0.138613	0.000589	0.468857	-0.393145	0.170823	
0.751444	9.53674	5	0	64.3246	31.1224	-0.335374	0.212914	0	0	-0.602257	0.18036	0	0	-0.461699	-0.144278	-0.05104	0.021508	-0.313331	0.0609675	0.173783	0.449732	-0.0593848	-0.00578325	0.0236317	0.312675	-0.228093	0.0176793	-0.691617	0.136758	-0.348353	0.149137	-0.024073	0.489733	-0.417109	0.184538	
0.749752	9.61609	5	0	65.5828	31.7785	-0.342476	0.217555	0	0	-0.606883	0.165425	0	0	-0.46843	-0.150006	-0.052013	0.024258	-0.31538	0.048771	0.187546	0.45677	-0.068435	-0.018768	0.028587	0.325451	-0.237422	0.005956	-0.70323	0.147882	-0.364459	0.159661	-0.048735	0.510609	-0.441074	0.198253	
0.747102	9.67712	5	0	66.9482	32.2854	-0.349572	0.222192	0	0	-0.604133	0.157653	0	0	-0.475153	-0.155725	-0.0488497	0.0306542	-0.328803	0.0507843	0.189259	0.474936	-0.073823	-0.0227923	0.033543	0.338263	-0.251642	0.008133	-0.701603	0.143282	-0.369471	0.156353	-0.0540205	0.509301	-0.453694	0.189026	
0.743494	9.71374	5	0	68.3137	32.7923	-0.356668	0.226829	0	0	-0.601382	0.14988	0	0	-0.481876	-0.161444	-0.0456865	0.0370505	-0.342226	0.0527975	0.190973	0.493102	-0.079211	-0.0268165	0.038499	0.351076	-0.265863	0.01031	-0.699975	0.138682	-0.374483	0.153046	-0.059306	0.507994	-0.466314	0.1798	
0.73945	9.74121	5	0	69.6791	33.2991	-0.363765	0.231466	0	0	-0.598632	0.142108	0	0	-0.488599	-0.167162	-0.0425232	0.0434467	-0.355649	0.0548107	0.192686	0.511269	-0.084599	-0.0308408	0.043455	0.363889	-0.280083	0.012487	-0.698348	0.134083	-0.379495	0.149738	-0.0645915	0.506687	-0.478933	0.170573	
0.735637	9.76105	5	0	71.0446	33.806	-0.370861	0.236103	0	0	-0.595882	0.134336	0	0	-0.495322	-0.172881	-0.03936	0.049843	-0.369072	0.056824	0.1944	0.529435	-0.089987	-0.034865	0.048411	0.376701	-0.294303	0.014664	-0.69672	0.129483	-0.384507	0.14643	-0.069877	0.505379	-0.491553	0.161346	
0.732719	9.76715	5	0	72.3925	34.3292	-0.381495	0.243051	0	0	-0.606446	0.150204	0	0	-0.499976	-0.159728	-0.0371715	0.0590067	-0.370627	0.061218	0.215861	0.537981	-0.0988383	-0.0290812	0.0496585	0.400033	-0.287197	0.013577	-0.703235	0.147896	-0.387768	0.146916	-0.058204	0.504895	-0.498912	0.164215	
0.731361	9.7641	5	0	73.7405	34.8523	-0.392128	0.25	0	0	-0.617011	0.166072	0	0	-0.50463	-0.146576	-0.034983	0.0681705	-0.372181	0.065612	0.237322	0.546527	-0.107689	-0.0232975	0.050906	0.423365	-0.280091	0.01249	-0.70975	0.16631	-0.39103	0.147402	-0.046531	0.50441	-0.50627	0.167085	
0.732228	9.75799	5	0	75.0885	35.3754	-0.402762	0.256948	0	0	-0.627575	0.18194	0	0	-0.509284	-0.133424	-0.0327945	0.0773343	-0.373736	0.070006	0.258782	0.555073	-0.116541	-0.0175138	0.0521535	0.446697	-0.272984	0.011403	-0.716266	0.184724	-0.394291	0.147889	-0.034858	0.503926	-0.513629	0.169955	
0.735648	9.74426	5	0	76.4365	35.8986	-0.413396	0.263896	0	0	-0.638139	0.197808	0	0	-0.513938	-0.120271	-0.030606	0.086498	-0.375291	0.0744	0.280243	0.563619	-0.125392	-0.01173	0.053401	0.470029	-0.265878	0.010316	-0.722781	0.203137	-0.397552	0.148375	-0.023185	0.503442	-0.520987	0.172824	
0.740973	9.73053	5	0	77.5123	36.254	-0.413396	0.263896	0	0	-0.638139	0.197808	0	0	-0.51161	-0.12685	-0.0254885	0.087396	-0.380437	0.071008	0.269614	0.570564	-0.123657	-0.016633	0.053401	0.470029	-0.271348	0.00677925	-0.72931	0.221589	-0.399595	0.162879	-0.0308695	0.52516	-0.525797	0.195378	
0.747386	9.71069	5	0	78.5881	36.6094	-0.413396	0.263896	0	0	-0.638139	0.197808	0	0	-0.509282	-0.133428	-0.020371	0.088294	-0.385582	0.067616	0.258985	0.57751	-0.121922	-0.021536	0.053401	0.470029	-0.276818	0.0032425	-0.735839	0.24004	-0.401637	0.177382	-0.038554	0.546877	-0.530606	0.217933	
0.754069	9.68628	5	0	79.664	36.9648	-0.413396	0.263896	0	0	-0.638139	0.197808	0	0	-0.506954	-0.140007	-0.0152535	0.089192	-0.390728	0.064224	0.248355	0.584455	-0.120187	-0.026439	0.053401	0.470029	-0.282289	-0.00029425	-0.742368	0.258491	-0.40368	0.191885	-0.0462385	0.568595	-0.535416	0.240487	
0.760203	9.66034	5	0	80.7398	37.3202	-0.413396	0.263896	0	0	-0.638139	0.197808	0	0	-0.504626	-0.146585	-0.010136	0.09009	-0.395874	0.060832	0.237726	0.5914	-0.118452	-0.031342	0.053401	0.470029	-0.287759	-0.003831	-0.748897	0.276943	-0.405723	0.206389	-0.053923	0.590313	-0.540226	0.263041	
0.76497	9.62829	5	0	81.8853	37.5853	-0.409853	0.261581	0	0	-0.622942	0.196855	0	0	-0.506954	-0.140007	-0.0120895	0.0956113	-0.38762	0.0554382	0.245381	0.59286	-0.127294	-0.0255643	0.0620667	0.472434	-0.296493	0.001876	-0.742181	0.279658	-0.402462	0.205906	-0.048632	0.591633	-0.538437	0.257985	
0.767776	9.59778	5	0	83.0309	37.8504	-0.406309	0.259266	0	0	-0.607744	0.195901	0	0	-0.509282	-0.133428	-0.014043	0.101133	-0.379365	0.0500445	0.253036	0.59432	-0.136136	-0.0197865	0.0707325	0.47484	-0.305227	0.007583	-0.735465	0.282374	-0.3992	0.205423	-0.043341	0.592954	-0.536648	0.25293	
0.768957	9.56421	5	0	84.1764	38.1155	-0.402766	0.25695	0	0	-0.592546	0.194947	0	0	-0.51161	-0.12685	-0.0159965	0.106654	-0.371111	0.0446508	0.260691	0.59578	-0.144979	-0.0140088	0.0793983	0.477245	-0.313961	0.01329	-0.728749	0.285089	-0.395938	0.204939	-0.03805	0.594275	-0.534859	0.247874	
0.769083	9.53522	5	0	85.322	38.3806	-0.399223	0.254635	0	0	-0.577349	0.193994	0	0	-0.513938	-0.120271	-0.01795	0.112175	-0.362856	0.039257	0.268346	0.59724	-0.153821	-0.008231	0.088064	0.479651	-0.322695	0.018997	-0.722033	0.287805	-0.392677	0.204456	-0.032759	0.595595	-0.53307	0.242818	
0.768724	9.50928	5	0	86.4391	38.7481	-0.396433	0.25445	0	0	-0.58194	0.22099	0	0	-0.507222	-0.114533	-0.021861	0.123228	-0.36752	0.0524387	0.273032	0.60712	-0.150186	0.000708	0.0948828	0.487315	-0.32051	0.031799	-0.716947	0.295151	-0.386149	0.203487	-0.0190605	0.605789	-0.535754	0.250403	
0.768453	9.47571	5	0	87.5563	39.1157	-0.393643	0.254265	0	0	-0.586532	0.247985	0	0	-0.500506	-0.108795	-0.025772	0.13428	-0.372184	0.0656205	0.277717	0.617001	-0.146552	0.009647	0.101702	0.494979	-0.318325	0.044601	-0.711861	0.302497	-0.379621	0.202518	-0.005362	0.615983	-0.538438	0.257987	
0.768839	9.44977	5	0	88.6734	39.4832	-0.390852	0.25408	0	0	-0.591124	0.274981	0	0	-0.493789	-0.103056	-0.029683	0.145333	-0.376848	0.0788022	0.282403	0.626881	-0.142917	0.018586	0.10852	0.502643	-0.31614	0.057403	-0.706774	0.309843	-0.373093	0.20155	0.0083365	0.626177	-0.541121	0.265572	
0.770364	9.4223	5	0	89.7906	39.8507	-0.388062	0.253895	0	0	-0.595715	0.301977	0	0	-0.487073	-0.097318	-0.033594	0.156386	-0.381512	0.091984	0.287089	0.636761	-0.139282	0.027525	0.115339	0.510307	-0.313955	0.070205	-0.701688	0.317189	-0.366565	0.200581	0.022035	0.636371	-0.543805	0.273156	
0.772923	9.39026	5	0	90.3185	39.9795	-0.388062	0.253895	0	0	-0.598021	0.294476	0	0	-0.496119	-0.0964725	-0.033594	0.156386	-0.378402	0.083194	0.287089	0.636761	-0.139282	0.027525	0.111615	0.520832	-0.313955	0.070205	-0.701523	0.33847	-0.365349	0.214642	0.010986	0.667597	-0.540382	0.290391	
0.776174	9.37195	5	0	90.8463	40.1082	-0.388062	0.253895	0	0	-0.600328	0.286975	0	0	-0.505165	-0.095627	-0.033594	0.156386	-0.375292	0.074404	0.287089	0.636761	-0.139282	0.027525	0.107891	0.531357	-0.313955	0.070205	-0.701359	0.359752	-0.364133	0.228704	-6.3E-05	0.698823	-0.536959	0.307627	
0.779779	9.34906	5	0	91.3742	40.237	-0.388062	0.253895	0	0	-0.602634	0.279474	0	0	-0.51421	-0.0947815	-0.033594	0.156386	-0.372182	0.065614	0.287089	0.636761	-0.139282	0.027525	0.104166	0.541883	-0.313955	0.070205	-0.701195	0.381033	-0.362918	0.242765	-0.011112	0.730048	-0.533536	0.324862	
0.783395	9.3277	5	0	91.9021	40.3657	-0.388062	0.253895	0	0	-0.604941	0.271973	0	0	-0.523256	-0.093936	-0.033594	0.156386	-0.369072	0.056824	0.287089	0.636761	-0.139282	0.027525	0.100442	0.552408	-0.313955	0.070205	-0.70103	0.402314	-0.361702	0.256826	-0.022161	0.761274	-0.530113	0.342097	
0.786682	9.30786	5	0	77.6913	36.0978	-0.37742	0.246941	0	0	-0.587398	0.278539	0	0	-0.51421	-0.0947815	-0.038708	0.155478	-0.372182	0.065614	0.280915	0.631086	-0.137387	0.0414015	0.102305	0.547144	-0.320518	0.0887525	-0.69759	0.414362	-0.347855	0.252738	-0.005131	0.762181	-0.521302	0.344144	
0.789308	9.2865	5	0	63.4804	31.8299	-0.366777	0.239987	0	0	-0.569856	0.285104	0	0	-0.505165	-0.095627	-0.043822	0.154569	-0.375292	0.074404	0.274741	0.625412	-0.135492	0.055278	0.104167	0.54188	-0.327081	0.1073	-0.694149	0.42641	-0.334009	0.248649	0.011899	0.763088	-0.512491	0.346191	
0.791107	9.26666	5	0	49.2696	27.5619	-0.356135	0.233034	0	0	-0.552314	0.29167	0	0	-0.496119	-0.0964725	-0.048936	0.153661	-0.378402	0.083194	0.268568	0.619737	-0.133598	0.0691545	0.10603	0.536615	-0.333644	0.125848	-0.690708	0.438458	-0.320163	0.24456	0.028929	0.763995	-0.50368	0.348238	
0.792066	9.24225	5	0	35.0587	23.294	-0.345492	0.22608	0	0	-0.534771	0.298236	0	0	-0.487073	-0.097318	-0.05405	0.152753	-0.381512	0.091984	0.262394	0.614062	-0.131703	0.083031	0.107893	0.531351	-0.340207	0.144395	-0.687268	0.450506	-0.306316	0.240472	0.045959	0.764902	-0.494869	0.350285	
0.792178	9.22241	5	0	34.8753	22.752	-0.341942	0.22376	0	0	-0.538007	0.321443	0	0	-0.482685	-0.0849675	-0.0518723	0.16196	-0.379479	0.104191	0.268568	0.619737	-0.138675	0.102734	0.112851	0.544314	-0.322174	0.150477	-0.680531	0.453263	-0.302048	0.245956	0.0543785	0.77387	-0.493427	0.355202	
0.791434	9.2041	5	0	34.6919	22.21	-0.338391	0.22144	0	0	-0.541243	0.344651	0	0	-0.478297	-0.072617	-0.0496945	0.171166	-0.377447	0.116397	0.274741	0.625412	-0.145647	0.122438	0.117808	0.557277	-0.304141	0.15656	-0.673793	0.45602	-0.29778	0.251441	0.062798	0.782838	-0.491985	0.360119	
0.789826	9.18426	5	0	34.5085	21.6681	-0.33484	0.21912	0	0	-0.544479	0.367859	0	0	-0.473909	-0.0602665	-0.0475167	0.180373	-0.375414	0.128604	0.280915	0.631086	-0.152618	0.142141	0.122765	0.57024	-0.286108	0.162643	-0.667056	0.458778	-0.293512	0.256925	0.0712175	0.791806	-0.490544	0.365036	
0.787347	9.17053	5	0	34.3251	21.1261	-0.33129	0.2168	0	0	-0.547715	0.391066	0	0	-0.469521	-0.047916	-0.045339	0.18958	-0.373381	0.140811	0.287089	0.636761	-0.15959	0.161845	0.127723	0.583203	-0.268075	0.168725	-0.660319	0.461535	-0.289244	0.262409	0.079637	0.800774	-0.489102	0.369953	
0.784072	9.15527	5	0	35.7875	21.8432	-0.334086	0.216989	0	0	-0.55649	0.387752	0	0	-0.476242	-0.0536732	-0.0402223	0.190493	-0.378527	0.137403	0.284106	0.64519	-0.148985	0.151125	0.127723	0.583203	-0.2719	0.160499	-0.660319	0.461535	-0.296558	0.265533	0.0871865	0.795841	-0.507976	0.378379	
0.780244	9.13849	5	0	37.2498	22.5604	-0.336883	0.217177	0	0	-0.565265	0.384438	0	0	-0.482963	-0.0594305	-0.0351055	0.191406	-0.383674	0.133995	0.281124	0.653619	-0.138381	0.140406	0.127723	0.583203	-0.275724	0.152273	-0.660319	0.461535	-0.303871	0.268656	0.094736	0.790908	-0.526849	0.386804	
0.776125	9.12323	5	0	38.7121	23.2775	-0.33968	0.217366	0	0	-0.574041	0.381124	0	0	-0.489684	-0.0651877	-0.0299887	0.19232	-0.38882	0.130586	0.278141	0.662048	-0.127776	0.129686	0.127723	0.583203	-0.279548	0.144047	-0.660319	0.461535	-0.311185	0.27178	0.102286	0.785975	-0.545722	0.39523	
0.771977	9.10797	5	0	40.1745	23.9946	-0.342476	0.217555	0	0	-0.582816	0.37781	0	0	-0.496405	-0.070945	-0.024872	0.193233	-0.393966	0.127178	0.275159	0.670477	-0.117171	0.118967	0.127723	0.583203	-0.283373	0.135821	-0.660319	0.461535	-0.318499	0.274903	0.109835	0.781042	-0.564596	0.403656	
0.768065	9.08966	5	0	41.6911	24.5951	-0.33968	0.217366	0	0	-0.569877	0.369355	0	0	-0.496405	-0.070945	-0.0278127	0.201544	-0.385703	0.121779	0.281336	0.676173	-0.118915	0.123897	0.132681	0.596204	-0.277902	0.139395	-0.653574	0.464294	-0.317737	0.27275	0.1065	0.790467	-0.564596	0.403656	
0.76465	9.0805	5	0	43.2077	25.1956	-0.336883	0.217177	0	0	-0.556937	0.3609	0	0	-0.496405	-0.070945	-0.0307535	0.209856	-0.37744	0.11638	0.287513	0.681869	-0.12066	0.128827	0.137639	0.609206	-0.272431	0.142968	-0.646829	0.467054	-0.316975	0.270597	0.103165	0.799893	-0.564596	0.403656	
0.761953	9.06219	5	0	44.7243	25.7962	-0.334086	0.216989	0	0	-0.543998	0.352445	0	0	-0.496405	-0.070945	-0.0336943	0.218167	-0.369178	0.110981	0.293689	0.687565	-0.122404	0.133756	0.142597	0.622207	-0.266961	0.146541	-0.640083	0.469813	-0.316214	0.268445	0.09983	0.809319	-0.564596	0.403656	
0.760065	9.05151	5	0	46.2409	26.3967	-0.33129	0.2168	0	0	-0.531058	0.34399	0	0	-0.496405	-0.070945	-0.036635	0.226478	-0.360915	0.105582	0.299866	0.693261	-0.124148	0.138686	0.147555	0.635208	-0.26149	0.150115	-0.633338	0.472572	-0.315452	0.266292	0.096495	0.818744	-0.564596	0.403656	
0.759059	9.04083	5	0	47.906	20.2575	-0.337635	0.219308	0	0	-0.534757	0.340382	0	0	-0.503414	-0.051136	-0.0356545	0.223707	-0.364032	0.114389	0.293689	0.687565	-0.115136	0.15178	0.158134	0.632361	-0.258789	0.180609	-0.62989	0.484675	-0.303866	0.268657	0.117849	0.824152	-0.546082	0.405241	
0.759006	9.03015	5	0	49.5711	14.1183	-0.343981	0.221815	0	0	-0.538456	0.336774	0	0	-0.510423	-0.031327	-0.034674	0.220936	-0.367148	0.123196	0.287513	0.681869	-0.106124	0.164873	0.168714	0.629514	-0.256088	0.211103	-0.626441	0.496777	-0.29228	0.271023	0.139203	0.829559	-0.527567	0.406826	
0.759977	9.01489	5	0	51.2362	7.97907	-0.350326	0.224323	0	0	-0.542155	0.333165	0	0	-0.517433	-0.011518	-0.0336935	0.218164	-0.370264	0.132004	0.281336	0.676173	-0.0971127	0.177966	0.179293	0.626668	-0.253386	0.241597	-0.622993	0.50888	-0.280694	0.273388	0.160556	0.834966	-0.509053	0.408411	
0.762042	9.01031	5	0	52.9012	1.83987	-0.356671	0.226831	0	0	-0.545854	0.329557	0	0	-0.524442	0.008291	-0.032713	0.215393	-0.373381	0.140811	0.275159	0.670477	-0.088101	0.19106	0.189873	0.623821	-0.250685	0.272091	-0.619545	0.520983	-0.269108	0.275754	0.18191	0.840374	-0.490539	0.409996	
0.765153	8.99963	5	0	46.4552	2.67166	-0.353122	0.224512	0	0	-0.538453	0.336777	0	0	-0.51305	0.00084725	-0.0448988	0.219096	-0.363552	0.131002	0.266008	0.673215	-0.088101	0.19106	0.186127	0.634408	-0.243551	0.271023	-0.612938	0.50231	-0.27338	0.270265	0.172337	0.834523	-0.48803	0.384917	
0.768799	8.9859	5	0	40.0092	3.50346	-0.349573	0.222193	0	0	-0.531052	0.343997	0	0	-0.501658	-0.0065965	-0.0570845	0.222799	-0.353723	0.121193	0.256857	0.675954	-0.088101	0.19106	0.182381	0.644996	-0.236418	0.269956	-0.60633	0.483637	-0.277652	0.264775	0.162763	0.828672	-0.48552	0.359838	
0.772362	8.97674	5	0	33.5631	4.33525	-0.346025	0.219874	0	0	-0.523652	0.351218	0	0	-0.490266	-0.0140403	-0.0692703	0.226503	-0.343893	0.111385	0.247707	0.678693	-0.088101	0.19106	0.178634	0.655583	-0.229284	0.268888	-0.599722	0.464963	-0.281924	0.259286	0.153189	0.82282	-0.483011	0.334759	
0.775221	8.96759	5	0	27.1171	5.16705	-0.342476	0.217555	0	0	-0.516251	0.358438	0	0	-0.478874	-0.021484	-0.081456	0.230206	-0.334064	0.101576	0.238556	0.681431	-0.088101	0.19106	0.174888	0.666171	-0.22215	0.26782	-0.593115	0.44629	-0.286196	0.253796	0.143616	0.816969	-0.480501	0.30968	
0.776758	8.96301	5	0	24.6023	5.08738	-0.336128	0.215045	0	0	-0.510232	0.369605	0	0	-0.478874	-0.021484	-0.0794968	0.224669	-0.332506	0.0971735	0.247707	0.678693	-0.079213	0.185253	0.181729	0.673928	-0.223805	0.272497	-0.599872	0.443539	-0.284907	0.241377	0.1621	0.797637	-0.488072	0.295155	
0.776352	8.95996	5	0	22.0876	5.00771	-0.32978	0.212535	0	0	-0.504212	0.380771	0	0	-0.478874	-0.021484	-0.0775375	0.219133	-0.330948	0.092771	0.256857	0.675954	-0.070325	0.179445	0.18857	0.681686	-0.225459	0.277174	-0.606629	0.440787	-0.283617	0.228958	0.180584	0.778305	-0.495644	0.280631	
0.773519	8.94775	5	0	19.5728	4.92804	-0.323431	0.210026	0	0	-0.498193	0.391937	0	0	-0.478874	-0.021484	-0.0755782	0.213596	-0.329391	0.0883685	0.266008	0.673215	-0.061437	0.173638	0.195412	0.689443	-0.227114	0.281851	-0.613387	0.438036	-0.282328	0.216538	0.199069	0.758973	-0.503215	0.266106	
0.768742	8.9386	5	0	17.058	4.84838	-0.317083	0.207516	0	0	-0.492174	0.403104	0	0	-0.478874	-0.021484	-0.073619	0.208059	-0.327833	0.083966	0.275159	0.670477	-0.052549	0.16783	0.202253	0.697201	-0.228769	0.286528	-0.620144	0.435284	-0.281039	0.204119	0.217553	0.739641	-0.510786	0.251581	
0.762928	8.92792	5	0	17.7334	5.26068	-0.327734	0.214476	0	0	-0.492645	0.376256	0	0	-0.487928	-0.0206482	-0.0755782	0.213596	-0.342809	0.0903687	0.281336	0.676173	-0.0649383	0.183533	0.196615	0.713134	-0.226601	0.299512	-0.613387	0.438036	-0.280805	0.212233	0.227159	0.745458	-0.511133	0.261537	
0.756988	8.91876	5	0	18.4087	5.67298	-0.338386	0.221436	0	0	-0.493116	0.349408	0	0	-0.496982	-0.0198125	-0.0775375	0.219133	-0.357785	0.0967715	0.287513	0.681869	-0.0773275	0.199236	0.190977	0.729067	-0.224432	0.312497	-0.606629	0.440787	-0.280571	0.220348	0.236765	0.751275	-0.511481	0.271493	
0.751831	8.90808	5	0	19.0841	6.08528	-0.349037	0.228395	0	0	-0.493586	0.32256	0	0	-0.506035	-0.0189768	-0.0794968	0.224669	-0.372762	0.103174	0.293689	0.687565	-0.0897167	0.214939	0.18534	0.745001	-0.222264	0.325481	-0.599872	0.443539	-0.280337	0.228462	0.246372	0.757093	-0.511829	0.281449	
0.748366	8.9035	5	0	19.7595	6.49758	-0.359688	0.235355	0	0	-0.494057	0.295712	0	0	-0.515089	-0.018141	-0.081456	0.230206	-0.387738	0.109577	0.299866	0.693261	-0.102106	0.230642	0.179702	0.760934	-0.220095	0.338465	-0.593115	0.44629	-0.280103	0.236576	0.255978	0.76291	-0.512176	0.291405	
0.747352	8.8913	5	0	21.2173	7.24339	-0.369572	0.240175	0	0	-0.500084	0.28461	0	0	-0.512753	-0.024744	-0.0753657	0.228356	-0.391326	0.101782	0.299866	0.693261	-0.0986048	0.220747	0.179702	0.760934	-0.227234	0.339526	-0.599872	0.443539	-0.283613	0.228951	0.255067	0.748995	-0.513273	0.276562	
0.748507	8.88824	5	0	22.6751	7.9892	-0.379456	0.244995	0	0	-0.506111	0.273508	0	0	-0.510417	-0.031347	-0.0692755	0.226505	-0.394914	0.093988	0.299866	0.693261	-0.0951035	0.210851	0.179702	0.760934	-0.234372	0.340588	-0.606629	0.440787	-0.287124	0.221325	0.254155	0.73508	-0.514371	0.261719	
0.751117	8.88214	5	0	24.1329	8.73501	-0.389339	0.249815	0	0	-0.512138	0.262407	0	0	-0.50808	-0.03795	-0.0631852	0.224655	-0.398502	0.0861935	0.299866	0.693261	-0.0916022	0.200956	0.179702	0.760934	-0.241511	0.341649	-0.613387	0.438036	-0.290635	0.2137	0.253244	0.721165	-0.515468	0.246876	
0.754463	8.87909	5	0	25.5907	9.48083	-0.399223	0.254635	0	0	-0.518165	0.251305	0	0	-0.505744	-0.044553	-0.057095	0.222805	-0.40209	0.078399	0.299866	0.693261	-0.088101	0.19106	0.179702	0.760934	-0.248649	0.34271	-0.620144	0.435284	-0.294145	0.206074	0.252333	0.70725	-0.516565	0.232033	
0.757831	8.87604	5	0	27.0091	10.2374	-0.392887	0.252133	0	0	-0.504718	0.269614	0	0	-0.50808	-0.03795	-0.052961	0.226496	-0.403645	0.082793	0.30904	0.690513	-0.0844665	0.2001	0.175938	0.771572	-0.24483	0.351029	-0.618496	0.430627	-0.292625	0.201777	0.255667	0.697828	-0.507412	0.22411	
0.760501	8.86993	5	0	28.4275	10.9939	-0.386551	0.249631	0	0	-0.49127	0.287923	0	0	-0.510417	-0.031347	-0.048827	0.230186	-0.405199	0.087187	0.318215	0.687766	-0.080832	0.209139	0.172174	0.78221	-0.241011	0.359349	-0.616848	0.425969	-0.291104	0.197481	0.259001	0.688406	-0.49826	0.216187	
0.761819	8.86993	5	0	29.8458	11.7504	-0.380214	0.247129	0	0	-0.477823	0.306232	0	0	-0.512753	-0.024744	-0.044693	0.233876	-0.406754	0.091581	0.327389	0.685018	-0.0771975	0.218178	0.168409	0.792848	-0.237191	0.367669	-0.6152	0.421312	-0.289584	0.193184	0.262335	0.678984	-0.489107	0.208264	
0.761673	8.86688	5	0	31.2642	12.507	-0.373878	0.244627	0	0	-0.464376	0.324541	0	0	-0.515089	-0.018141	-0.040559	0.237567	-0.408309	0.095975	0.336563	0.68227	-0.073563	0.227218	0.164645	0.803486	-0.233372	0.375988	-0.613552	0.416654	-0.288064	0.188887	0.265669	0.669562	-0.479954	0.200341	
0.760247	8.86536	5	0	32.7552	13.2092	-0.387299	0.251758	0	0	-0.472734	0.305912	0	0	-0.510418	-0.031342	-0.0435035	0.245889	-0.410341	0.0838008	0.355168	0.699406	-0.0895775	0.233876	0.180208	0.813806	-0.238357	0.390078	-0.627045	0.411167	-0.297125	0.188206	0.262335	0.678984	-0.49289	0.201029	
0.757729	8.86078	5	0	34.2461	13.9114	-0.40072	0.258889	0	0	-0.481093	0.287283	0	0	-0.505747	-0.044543	-0.046448	0.254211	-0.412374	0.0716265	0.373773	0.716541	-0.105592	0.240533	0.195771	0.824126	-0.243343	0.404168	-0.640537	0.405679	-0.306186	0.187525	0.259001	0.688406	-0.505826	0.201717	
0.754302	8.85467	5	0	35.7371	14.6135	-0.414141	0.266021	0	0	-0.489451	0.268654	0	0	-0.501076	-0.057744	-0.0493925	0.262532	-0.414407	0.0594522	0.392378	0.733677	-0.121606	0.247191	0.211333	0.834445	-0.248328	0.418257	-0.65403	0.400192	-0.315247	0.186844	0.255667	0.697828	-0.518761	0.202405	
0.750155	8.84704	5	0	37.2281	15.3157	-0.427562	0.273152	0	0	-0.497809	0.250025	0	0	-0.496405	-0.070945	-0.052337	0.270854	-0.416439	0.047278	0.410983	0.750812	-0.137621	0.253848	0.226896	0.844765	-0.253314	0.432347	-0.667523	0.394705	-0.324308	0.186163	0.252333	0.70725	-0.531697	0.203093	
0.745479	8.84247	5	0	38.737	15.9836	-0.441714	0.282399	0	0	-0.494611	0.226926	0	0	-0.514479	-0.0692687	-0.0350045	0.268068	-0.429806	0.0492713	0.417393	0.779317	-0.132371	0.239009	0.223116	0.855448	-0.264253	0.425056	-0.676064	0.375326	-0.347163	0.189559	0.258065	0.674576	-0.550032	0.174453	
0.740514	8.83179	5	0	40.246	16.6514	-0.455866	0.291647	0	0	-0.491414	0.203826	0	0	-0.532554	-0.0675925	-0.017672	0.265282	-0.443173	0.0512645	0.423803	0.807823	-0.12712	0.22417	0.219336	0.86613	-0.275192	0.417764	-0.684605	0.355947	-0.370019	0.192956	0.263796	0.641902	-0.568366	0.145813	
0.735528	8.82568	5	0	41.7549	17.3192	-0.470017	0.300894	0	0	-0.488216	0.180726	0	0	-0.550628	-0.0659163	-0.0003395	0.262496	-0.45654	0.0532577	0.430214	0.836329	-0.121869	0.209331	0.215556	0.876812	-0.286131	0.410473	-0.693147	0.336568	-0.392875	0.196353	0.269528	0.609228	-0.5867	0.117172	
0.730788	8.815	5	0	43.2639	17.9871	-0.484169	0.310141	0	0	-0.485019	0.157627	0	0	-0.568703	-0.06424	0.016993	0.25971	-0.469907	0.055251	0.436624	0.864834	-0.116619	0.194492	0.211776	0.887495	-0.29707	0.403182	-0.701688	0.317189	-0.41573	0.199749	0.27526	0.576554	-0.605035	0.088532	
0.726563	8.80432	5	0	44.7858	18.6521	-0.491236	0.314759	0	0	-0.488729	0.15406	0	0	-0.566373	-0.0708238	0.027475	0.2764	-0.458576	0.0411133	0.470639	0.8623	-0.125489	0.200288	0.211776	0.887495	-0.295411	0.398493	-0.705139	0.305222	-0.424742	0.199053	0.254945	0.568211	-0.612022	0.0815355	
0.723118	8.79669	5	0	46.3077	19.3172	-0.498304	0.319377	0	0	-0.492439	0.150494	0	0	-0.564044	-0.0774075	0.037957	0.293089	-0.447246	0.0269755	0.504654	0.859765	-0.134358	0.206083	0.211776	0.887495	-0.293751	0.393803	-0.708591	0.293254	-0.433754	0.198358	0.234629	0.559869	-0.619009	0.074539	
0.720683	8.78754	5	0	47.8295	19.9822	-0.505371	0.323994	0	0	-0.496148	0.146927	0	0	-0.561715	-0.0839913	0.048439	0.309778	-0.435916	0.0128378	0.538668	0.857231	-0.143228	0.211878	0.211776	0.887495	-0.292092	0.389114	-0.712042	0.281287	-0.442767	0.197663	0.214313	0.551527	-0.625995	0.0675425	
0.719312	8.77685	5	0	49.3514	20.6473	-0.512438	0.328612	0	0	-0.499858	0.14336	0	0	-0.559385	-0.090575	0.058921	0.326468	-0.424585	-0.0013	0.572683	0.854697	-0.152097	0.217674	0.211776	0.887495	-0.290433	0.384425	-0.715493	0.26932	-0.451779	0.196967	0.193998	0.543184	-0.632982	0.060546	
0.71901	8.7677	5	0	50.7604	21.3462	-0.519499	0.333226	0	0	-0.50452	0.128464	0	0	-0.548023	-0.097999	0.058921	0.326468	-0.431267	-0.0002985	0.577218	0.841881	-0.148478	0.226718	0.215556	0.876812	-0.28995	0.402153	-0.712042	0.281287	-0.43928	0.205272	0.212268	0.540845	-0.622559	0.08461	
0.719782	8.7616	5	0	52.1694	22.045	-0.52656	0.33784	0	0	-0.509183	0.113568	0	0	-0.536662	-0.105423	0.058921	0.326468	-0.437949	0.000703	0.581753	0.829065	-0.144859	0.235761	0.219336	0.86613	-0.289467	0.419882	-0.708591	0.293254	-0.426781	0.213578	0.230539	0.538506	-0.612135	0.108674	
0.721633	8.75397	5	0	53.5784	22.7439	-0.533622	0.342454	0	0	-0.513845	0.0986728	0	0	-0.5253	-0.112847	0.058921	0.326468	-0.444632	0.0017045	0.586287	0.816249	-0.14124	0.244805	0.223116	0.855448	-0.288984	0.437611	-0.705139	0.305222	-0.414281	0.221884	0.248809	0.536167	-0.601712	0.132738	
0.724569	8.74481	5	0	54.9874	23.4427	-0.540683	0.347068	0	0	-0.518507	0.083777	0	0	-0.513938	-0.120271	0.058921	0.326468	-0.451314	0.002706	0.590822	0.803433	-0.137621	0.253848	0.226896	0.844765	-0.288501	0.455339	-0.701688	0.317189	-0.401782	0.230189	0.26708	0.533828	-0.591288	0.156802	
0.72848	8.73566	5	0	56.3547	24.0704	-0.530089	0.340145	0	0	-0.499528	0.0863238	0	0	-0.507222	-0.114533	0.0557538	0.319969	-0.446181	0.00608325	0.56453	0.807498	-0.126991	0.243097	0.205679	0.850426	-0.278041	0.444892	-0.681659	0.304102	-0.404284	0.228526	0.263929	0.526288	-0.58773	0.146745	
0.732982	8.7265	5	0	57.722	24.698	-0.519495	0.333223	0	0	-0.480548	0.0888705	0	0	-0.500506	-0.108795	0.0525865	0.313469	-0.441049	0.0094605	0.538237	0.811562	-0.116362	0.232347	0.184462	0.856087	-0.267582	0.434445	-0.661629	0.291014	-0.406786	0.226863	0.260777	0.518748	-0.584171	0.136688	
0.737648	8.71734	5	0	59.0892	25.3257	-0.508901	0.3263	0	0	-0.461569	0.0914173	0	0	-0.493789	-0.103056	0.0494192	0.30697	-0.435916	0.0128378	0.511945	0.815627	-0.105732	0.221596	0.163244	0.861748	-0.257122	0.423998	-0.6416	0.277926	-0.409289	0.225201	0.257625	0.511208	-0.580612	0.126631	
0.742054	8.70819	5	0	60.4565	25.9533	-0.498307	0.319378	0	0	-0.442589	0.093964	0	0	-0.487073	-0.097318	0.046252	0.300471	-0.430783	0.016215	0.485653	0.819692	-0.095102	0.210845	0.142027	0.867409	-0.246663	0.413551	-0.621571	0.264839	-0.411791	0.223538	0.254474	0.503668	-0.577054	0.116574	
0.745772	8.69903	5	0	61.7602	26.5313	-0.481375	0.309953	0	0	-0.429073	0.112122	0	0	-0.478014	-0.0981685	0.0472373	0.297687	-0.417399	0.014207	0.48716	0.815432	-0.087965	0.209987	0.1564	0.853919	-0.246663	0.413551	-0.62321	0.26947	-0.410274	0.219251	0.262043	0.498722	-0.571164	0.108863	
0.748377	8.68835	5	0	63.0638	27.1093	-0.464442	0.300528	0	0	-0.415557	0.130279	0	0	-0.468955	-0.099019	0.0482225	0.294902	-0.404014	0.012199	0.488668	0.811172	-0.080828	0.209128	0.170773	0.84043	-0.246663	0.413551	-0.624848	0.2741	-0.408757	0.214963	0.269613	0.493776	-0.565273	0.101151	
0.749597	8.68072	5	0	64.3675	27.6873	-0.44751	0.291102	0	0	-0.402041	0.148437	0	0	-0.459896	-0.0998695	0.0492078	0.292118	-0.39063	0.010191	0.490175	0.806913	-0.073691	0.208269	0.185147	0.826941	-0.246663	0.413551	-0.626487	0.278731	-0.40724	0.210676	0.277182	0.48883	-0.559383	0.0934395	
0.749516	8.67462	5	0	65.6711	28.2653	-0.430578	0.281677	0	0	-0.388525	0.166595	0	0	-0.450837	-0.10072	0.050193	0.289334	-0.377245	0.008183	0.491682	0.802653	-0.066554	0.207411	0.19952	0.813451	-0.246663	0.413551	-0.628126	0.283362	-0.405723	0.206389	0.284752	0.483884	-0.553493	0.085728	
0.74827	8.66394	5	0	67.045	28.8743	-0.436903	0.284171	0	0	-0.390871	0.159119	0	0	-0.453172	-0.094122	0.0472365	0.297689	-0.388596	0.0223442	0.499429	0.804142	-0.0683062	0.212363	0.210139	0.81061	-0.242848	0.421902	-0.624656	0.295354	-0.393426	0.206597	0.289962	0.502097	-0.548261	0.0977727	
0.745994	8.65784	5	0	68.4189	29.4834	-0.443227	0.286666	0	0	-0.393216	0.151644	0	0	-0.455506	-0.087524	0.04428	0.306045	-0.399946	0.0365055	0.507177	0.805631	-0.0700585	0.217315	0.220758	0.807769	-0.239033	0.430253	-0.621187	0.307346	-0.381129	0.206805	0.295172	0.520309	-0.543029	0.109817	
0.742825	8.64715	5	0	69.7928	30.0924	-0.449552	0.28916	0	0	-0.395562	0.144169	0	0	-0.457841	-0.080926	0.0413235	0.3144	-0.411297	0.0506667	0.514924	0.80712	-0.0718108	0.222266	0.231378	0.804927	-0.235218	0.438603	-0.617718	0.319339	-0.368832	0.207013	0.300381	0.538522	-0.537796	0.121862	
0.738898	8.64105	5	0	71.1666	30.7014	-0.455877	0.291654	0	0	-0.397908	0.136693	0	0	-0.460176	-0.074328	0.038367	0.322756	-0.422648	0.064828	0.522671	0.808609	-0.073563	0.227218	0.241997	0.802086	-0.231403	0.446954	-0.614248	0.331331	-0.356535	0.207221	0.305591	0.556735	-0.532564	0.133907	
0.734444	8.6319	5	0	72.4129	31.3354	-0.459414	0.293965	0	0	-0.403014	0.137029	0	0	-0.457841	-0.080926	0.0464637	0.315323	-0.429335	0.065824	0.51643	0.802862	-0.0718108	0.222266	0.237029	0.788956	-0.233556	0.433907	-0.605847	0.329411	-0.355776	0.205075	0.302434	0.549182	-0.534346	0.138942	
0.729866	8.62121	5	0	73.6592	31.9693	-0.462951	0.296277	0	0	-0.40812	0.137366	0	0	-0.455506	-0.087524	0.0545605	0.30789	-0.436021	0.06682	0.510189	0.797116	-0.0700585	0.217315	0.232061	0.775826	-0.23571	0.420859	-0.597446	0.327491	-0.355016	0.20293	0.299277	0.541629	-0.536128	0.143978	
0.725589	8.61969	5	0	74.9055	32.6033	-0.466489	0.298588	0	0	-0.413226	0.137702	0	0	-0.453172	-0.094122	0.0626572	0.300458	-0.442708	0.067816	0.503949	0.791369	-0.0683062	0.212363	0.227093	0.762696	-0.237863	0.407812	-0.589045	0.325571	-0.354257	0.200785	0.29612	0.534076	-0.537909	0.149013	
0.722036	8.61206	5	0	76.1518	33.2373	-0.470026	0.300899	0	0	-0.418332	0.138038	0	0	-0.450837	-0.10072	0.070754	0.293025	-0.449394	0.068812	0.497708	0.785622	-0.066554	0.207411	0.222125	0.749566	-0.240016	0.394765	-0.580644	0.323651	-0.353498	0.198639	0.292963	0.526523	-0.539691	0.154049	
0.71963	8.60443	5	0	77.2959	33.7415	-0.455869	0.291648	0	0	-0.40619	0.160165	0	0	-0.441765	-0.101575	0.0646285	0.294886	-0.437568	0.0712088	0.482242	0.78265	-0.0522558	0.205684	0.213399	0.747094	-0.232872	0.393707	-0.567101	0.329098	-0.345208	0.201473	0.29612	0.534076	-0.523863	0.163096	
0.718773	8.59222	5	0	78.44	34.2457	-0.441711	0.282398	0	0	-0.394049	0.182291	0	0	-0.432692	-0.102431	0.058503	0.296748	-0.425742	0.0736055	0.466776	0.779678	-0.0379575	0.203958	0.204674	0.744622	-0.225728	0.39265	-0.553558	0.334545	-0.336917	0.204307	0.299277	0.541629	-0.508035	0.172143	
0.719377	8.58765	5	0	79.5841	34.7499	-0.427553	0.273147	0	0	-0.381907	0.204418	0	0	-0.423619	-0.103287	0.0523775	0.298609	-0.413916	0.0760022	0.451311	0.776706	-0.0236592	0.202231	0.195948	0.742149	-0.218584	0.391593	-0.540014	0.339991	-0.328626	0.207141	0.302434	0.549182	-0.492207	0.18119	
0.720884	8.57849	5	0	80.7282	35.2541	-0.413396	0.263896	0	0	-0.369765	0.226545	0	0	-0.414547	-0.104142	0.046252	0.300471	-0.40209	0.078399	0.435845	0.773734	-0.009361	0.200504	0.187223	0.739677	-0.21144	0.390535	-0.526471	0.345438	-0.320336	0.209975	0.305591	0.556735	-0.476379	0.190237	
0.722713	8.57239	5	0	81.5799	35.6322	-0.406308	0.259265	0	0	-0.377653	0.234713	0	0	-0.410139	-0.091782	0.040132	0.302329	-0.398502	0.0861935	0.429629	0.768004	-0.014626	0.215384	0.192858	0.723753	-0.207616	0.39888	-0.522985	0.357487	-0.303718	0.215648	0.32062	0.563775	-0.46644	0.207082	
0.724287	8.56781	5	0	82.4316	36.0103	-0.39922	0.254634	0	0	-0.385542	0.24288	0	0	-0.405732	-0.079422	0.034012	0.304188	-0.394914	0.093988	0.423414	0.762273	-0.019891	0.230264	0.198492	0.70783	-0.203792	0.407225	-0.5195	0.369535	-0.2871	0.221322	0.335649	0.570815	-0.4565	0.223928	
0.725024	8.56476	5	0	83.2833	36.3885	-0.392133	0.250002	0	0	-0.393431	0.251048	0	0	-0.401324	-0.067062	0.027892	0.306046	-0.391326	0.101782	0.417198	0.756543	-0.025156	0.245144	0.204126	0.691906	-0.199968	0.41557	-0.516014	0.381583	-0.270481	0.226995	0.350678	0.577855	-0.446561	0.240773	
0.724409	8.55255	5	0	84.135	36.7666	-0.385045	0.245371	0	0	-0.401319	0.259216	0	0	-0.396916	-0.054702	0.021772	0.307905	-0.387738	0.109577	0.410983	0.750812	-0.030421	0.260024	0.209761	0.675982	-0.196144	0.423915	-0.512528	0.393632	-0.253863	0.232668	0.365707	0.584895	-0.436622	0.257618	
0.722524	8.54645	5	0	85.1059	37.2987	-0.38859	0.247687	0	0	-0.406429	0.259542	0	0	-0.392238	-0.0679228	0.0247255	0.299557	-0.384626	0.100783	0.412484	0.746571	-0.025156	0.245144	0.202916	0.668234	-0.203791	0.407241	-0.512528	0.393632	-0.267509	0.244896	0.358104	0.589863	-0.452626	0.275873	
0.719802	8.53882	5	0	86.0768	37.8308	-0.392134	0.250003	0	0	-0.411539	0.259868	0	0	-0.38756	-0.0811435	0.027679	0.29121	-0.381514	0.0919885	0.413984	0.742329	-0.019891	0.230264	0.196072	0.660486	-0.211438	0.390568	-0.512528	0.393632	-0.281155	0.257124	0.350501	0.594831	-0.46863	0.294127	
0.716675	8.53271	5	0	87.0478	38.3628	-0.395678	0.252319	0	0	-0.416649	0.260193	0	0	-0.382882	-0.0943642	0.0306325	0.282862	-0.378403	0.0831942	0.415485	0.738088	-0.014626	0.215384	0.189227	0.652738	-0.219085	0.373895	-0.512528	0.393632	-0.294801	0.269352	0.342898	0.599799	-0.484633	0.312382	
0.713578	8.52356	5	0	88.0187	38.8949	-0.399223	0.254635	0	0	-0.421759	0.260519	0	0	-0.378204	-0.107585	0.033586	0.274514	-0.375291	0.0744	0.416986	0.733846	-0.009361	0.200504	0.182383	0.64499	-0.226732	0.357221	-0.512528	0.393632	-0.308447	0.28158	0.335295	0.604767	-0.500637	0.330637	
0.710946	8.51898	5	0	89.2967	39.2609	-0.396433	0.25445	0	0	-0.418036	0.264115	0	0	-0.38729	-0.106724	0.033586	0.274514	-0.383545	0.0797937	0.413984	0.742331	-0.013011	0.191468	0.180509	0.650285	-0.228897	0.344227	-0.520958	0.395556	-0.317505	0.280878	0.329918	0.603459	-0.507652	0.323528	
0.709131	8.51135	5	0	90.5748	39.6269	-0.393643	0.254265	0	0	-0.414314	0.26771	0	0	-0.396375	-0.105863	0.033586	0.274514	-0.3918	0.0851875	0.410981	0.750816	-0.016661	0.182432	0.178636	0.65558	-0.231062	0.331233	-0.529388	0.397479	-0.326563	0.280176	0.324541	0.602151	-0.514667	0.316419	
0.70819	8.50677	5	0	91.8528	39.9929	-0.390852	0.25408	0	0	-0.410591	0.271305	0	0	-0.405461	-0.105003	0.033586	0.274514	-0.400054	0.0905813	0.407979	0.759301	-0.020311	0.173397	0.176762	0.660876	-0.233227	0.318239	-0.537817	0.399403	-0.335621	0.279473	0.319163	0.600844	-0.521682	0.30931	
0.708108	8.51135	5	0	93.1309	40.3589	-0.388062	0.253895	0	0	-0.406869	0.274901	0	0	-0.414547	-0.104142	0.033586	0.274514	-0.408309	0.095975	0.404976	0.767786	-0.023961	0.164361	0.174888	0.666171	-0.235392	0.305245	-0.546247	0.401327	-0.344679	0.278771	0.313786	0.599536	-0.528697	0.302201	
0.708872	8.52814	5	0	94.0037	40.7633	-0.387308	0.251764	0	0	-0.417532	0.29092	0	0	-0.412212	-0.11074	0.0326017	0.277296	-0.403166	0.0993755	0.411189	0.773523	-0.0168058	0.16349	0.183606	0.668624	-0.229909	0.308863	-0.541119	0.408735	-0.337372	0.275651	0.316943	0.60712	-0.52636	0.304569	
0.710468	8.56781	5	0	94.8765	41.1678	-0.386553	0.249633	0	0	-0.428195	0.30694	0	0	-0.409878	-0.117339	0.0316175	0.280077	-0.398023	0.102776	0.417403	0.779259	-0.0096505	0.16262	0.192325	0.671076	-0.224427	0.312481	-0.535991	0.416143	-0.330066	0.272531	0.320099	0.614703	-0.524023	0.306937	
0.712879	8.63647	5	0	95.7493	41.5722	-0.385799	0.247502	0	0	-0.438858	0.322959	0	0	-0.407544	-0.123937	0.0306332	0.282859	-0.392881	0.106176	0.423617	0.784996	-0.00249525	0.161749	0.201043	0.673529	-0.218944	0.3161	-0.530864	0.423552	-0.322759	0.269412	0.323255	0.622287	-0.521685	0.309305	
0.715977	8.73108	5	0	96.6222	41.9766	-0.385045	0.245371	0	0	-0.449521	0.338978	0	0	-0.405209	-0.130535	0.029649	0.285641	-0.387738	0.109577	0.42983	0.790733	0.00466	0.160878	0.209761	0.675982	-0.213461	0.319718	-0.525736	0.43096	-0.315452	0.266292	0.326412	0.629871	-0.519348	0.311673	
0.719455	8.84857	5	0	96.0733	41.5655	-0.385045	0.245371	0	0	-0.449521	0.338978	0	0	-0.402876	-0.137128	0.0316172	0.280079	-0.392881	0.106176	0.431334	0.786483	-0.0042465	0.166698	0.197292	0.684129	-0.223916	0.330153	-0.520604	0.438382	-0.310961	0.279925	0.332727	0.645078	-0.512686	0.328785	
0.722993	8.97064	5	0	95.5244	41.1544	-0.385045	0.245371	0	0	-0.449521	0.338978	0	0	-0.400543	-0.143722	0.0335855	0.274516	-0.398023	0.102776	0.432837	0.782234	-0.013153	0.172517	0.184823	0.692277	-0.234372	0.340587	-0.515473	0.445804	-0.30647	0.293559	0.339041	0.660285	-0.506024	0.345896	
0.726266	9.11102	5	0	94.9754	40.7433	-0.385045	0.245371	0	0	-0.449521	0.338978	0	0	-0.39821	-0.150315	0.0355538	0.268953	-0.403166	0.0993755	0.434341	0.777984	-0.0220595	0.178337	0.172354	0.700425	-0.244827	0.351022	-0.510341	0.453227	-0.301979	0.307192	0.345356	0.675493	-0.499362	0.363008	
0.728954	9.24377	5	0	94.4265	40.3322	-0.385045	0.245371	0	0	-0.449521	0.338978	0	0	-0.395877	-0.156908	0.037522	0.263391	-0.408309	0.095975	0.435845	0.773734	-0.030966	0.184157	0.159885	0.708572	-0.255282	0.361457	-0.505209	0.460649	-0.297488	0.320826	0.351671	0.6907	-0.4927	0.38012	
0.730749	9.37195	5	0	95.0808	40.4456	-0.382253	0.245185	0	0	-0.439303	0.338342	0	0	-0.391216	-0.17008	0.036538	0.266172	-0.396946	0.0817955	0.439055	0.787988	-0.038112	0.185022	0.168599	0.711037	-0.26407	0.367199	-0.511993	0.457896	-0.306552	0.320117	0.347401	0.686234	-0.497921	0.367914	
0.731659	9.48028	5	0	95.735	40.5589	-0.379462	0.244999	0	0	-0.429085	0.337707	0	0	-0.386555	-0.183252	0.035554	0.268952	-0.385582	0.067616	0.442265	0.802241	-0.045258	0.185886	0.177313	0.713502	-0.272857	0.372941	-0.518777	0.455143	-0.315616	0.319408	0.343131	0.681767	-0.503142	0.355708	
0.732028	9.56116	5	0	96.3893	40.6723	-0.37667	0.244813	0	0	-0.418867	0.337072	0	0	-0.381895	-0.196424	0.03457	0.271733	-0.374219	0.0534365	0.445475	0.816495	-0.052404	0.18675	0.186027	0.715967	-0.281645	0.378683	-0.525561	0.452391	-0.324681	0.318698	0.338861	0.677301	-0.508363	0.343502	
0.732212	9.62372	5	0	97.0435	40.7857	-0.373878	0.244627	0	0	-0.408649	0.336436	0	0	-0.377234	-0.209596	0.033586	0.274514	-0.362856	0.039257	0.448685	0.830748	-0.05955	0.187615	0.194741	0.718432	-0.290433	0.384425	-0.532345	0.449638	-0.333745	0.317989	0.334591	0.672835	-0.513584	0.331296	
0.732565	9.66949	5	0	98.1021	41.1901	-0.369576	0.240178	0	0	-0.403987	0.351545	0	0	-0.379563	-0.203013	0.035767	0.283788	-0.365965	0.0480427	0.451891	0.845044	-0.052404	0.18675	0.199704	0.731536	-0.277829	0.38701	-0.532345	0.449638	-0.328183	0.311041	0.350757	0.676792	-0.515922	0.328925	
0.733446	9.69696	5	0	99.1606	41.5944	-0.365275	0.235729	0	0	-0.399324	0.366654	0	0	-0.381893	-0.196429	0.037948	0.293063	-0.369073	0.0568285	0.455097	0.859339	-0.045258	0.185886	0.204668	0.74464	-0.265224	0.389595	-0.532345	0.449638	-0.322621	0.304093	0.366924	0.680748	-0.51826	0.326553	
0.735177	9.7168	5	0	100.219	41.9987	-0.360973	0.23128	0	0	-0.394662	0.381763	0	0	-0.384223	-0.189846	0.040129	0.302337	-0.372182	0.0656142	0.458302	0.873634	-0.038112	0.185022	0.209631	0.757744	-0.25262	0.39218	-0.532345	0.449638	-0.317059	0.297145	0.383091	0.684705	-0.520597	0.324182	
0.737609	9.72748	5	0	101.278	42.4031	-0.356671	0.226831	0	0	-0.39	0.396872	0	0	-0.386552	-0.183262	0.04231	0.311612	-0.375291	0.0744	0.461508	0.88793	-0.030966	0.184157	0.214594	0.770848	-0.240016	0.394765	-0.532345	0.449638	-0.311497	0.290197	0.399257	0.688662	-0.522935	0.321811	
0.740243	9.71832	5	0	102.734	42.4443	-0.363765	0.231466	0	0	-0.391882	0.373905	0	0	-0.390976	-0.195544	0.0464627	0.315326	-0.381991	0.0753997	0.476999	0.890948	-0.0344713	0.194063	0.221445	0.778658	-0.257131	0.424021	-0.537307	0.463661	-0.309522	0.302171	0.395717	0.715245	-0.521852	0.336712	
0.742576	9.69543	5	0	104.19	42.4856	-0.370858	0.236101	0	0	-0.393764	0.350938	0	0	-0.3954	-0.207826	0.0506155	0.31904	-0.38869	0.0763995	0.49249	0.893966	-0.0379765	0.203969	0.228295	0.786467	-0.274246	0.453276	-0.542269	0.477685	-0.307547	0.314144	0.392177	0.741827	-0.520769	0.351613	
0.744101	9.66797	5	0	105.646	42.5269	-0.377951	0.240736	0	0	-0.395645	0.327971	0	0	-0.399823	-0.220109	0.0547683	0.322754	-0.39539	0.0773993	0.507981	0.896984	-0.0414817	0.213876	0.235146	0.794276	-0.29136	0.482532	-0.547231	0.491708	-0.305572	0.326117	0.388638	0.768409	-0.519687	0.366514	
0.744312	9.63745	0	5	107.102	42.5681	-0.385045	0.245371	0	0	-0.397527	0.305004	0	0	-0.404247	-0.232391	0.058921	0.326468	-0.40209	0.078399	0.523472	0.900002	-0.044987	0.223782	0.241997	0.802086	-0.308475	0.511788	-0.552193	0.505732	-0.303597	0.338091	0.385098	0.794992	-0.518604	0.381415	
0.742757	9.60235	0	5	107.475	43.1326	-0.374403	0.238417	0	0	-0.39102	0.300752	0	0	-0.406573	-0.225817	0.067236	0.333908	-0.396946	0.0817952	0.521958	0.90428	-0.0378345	0.22292	0.235146	0.794276	-0.299678	0.50604	-0.550538	0.501055	-0.299555	0.335449	0.387335	0.78867	-0.516266	0.383795	
0.739602	9.56879	0	5	107.849	43.6971	-0.363761	0.231463	0	0	-0.384514	0.296501	0	0	-0.408899	-0.219243	0.075551	0.341348	-0.391801	0.0851915	0.520444	0.908559	-0.030682	0.222058	0.228295	0.786467	-0.290882	0.500292	-0.548884	0.496378	-0.295512	0.332808	0.389572	0.782347	-0.513929	0.386176	
0.735411	9.53064	0	5	108.223	44.2616	-0.353118	0.224509	0	0	-0.378007	0.292249	0	0	-0.411225	-0.21267	0.083866	0.348789	-0.386657	0.0885877	0.518931	0.912837	-0.0235295	0.221195	0.221445	0.778658	-0.282085	0.494544	-0.547229	0.491701	-0.291469	0.330167	0.39181	0.776025	-0.511591	0.388556	
0.730759	9.49859	0	5	108.596	44.8261	-0.342476	0.217555	0	0	-0.3715	0.287998	0	0	-0.413551	-0.206096	0.092181	0.356229	-0.381512	0.091984	0.517417	0.917115	-0.016377	0.220333	0.214594	0.770848	-0.273288	0.488796	-0.545574	0.487024	-0.287427	0.327525	0.394047	0.769702	-0.509253	0.390936	
0.726219	9.4635	0	5	109.167	44.9884	-0.33182	0.210592	0	0	-0.360747	0.314264	0	0	-0.39771	-0.201263	0.101499	0.360887	-0.374328	0.107603	0.509668	0.915602	-0.0109725	0.22443	0.218358	0.76021	-0.266148	0.487751	-0.54392	0.482349	-0.278344	0.328232	0.414741	0.761041	-0.499532	0.39045	
0.722364	9.43298	0	5	109.738	45.1508	-0.321164	0.20363	0	0	-0.349994	0.34053	0	0	-0.381869	-0.196429	0.110817	0.365545	-0.367144	0.123222	0.501918	0.914089	-0.005568	0.228527	0.222123	0.749572	-0.259008	0.486706	-0.542266	0.477675	-0.269261	0.328939	0.435435	0.752379	-0.48981	0.389964	
0.719665	9.39636	0	5	110.309	45.3132	-0.310509	0.196667	0	0	-0.339241	0.366796	0	0	-0.366029	-0.191596	0.120134	0.370202	-0.35996	0.13884	0.494169	0.912576	-0.0001635	0.232624	0.225887	0.738934	-0.251869	0.485661	-0.540612	0.473001	-0.260179	0.329646	0.456129	0.743718	-0.480089	0.389477	
0.718019	9.36432	0	5	110.879	45.4756	-0.299853	0.189704	0	0	-0.328488	0.393062	0	0	-0.350188	-0.186762	0.129452	0.37486	-0.352776	0.154459	0.486419	0.911063	0.005241	0.236721	0.229651	0.728296	-0.244729	0.484616	-0.538958	0.468326	-0.251096	0.330353	0.476823	0.735057	-0.470368	0.388991	
0.717124	9.33838	0	5	111.421	45.9071	-0.303406	0.192026	0	0	-0.333169	0.377941	0	0	-0.350188	-0.186762	0.128462	0.377658	-0.352776	0.154459	0.486419	0.911063	0.010651	0.240823	0.220923	0.72583	-0.237581	0.483567	-0.530521	0.466407	-0.24353	0.335384	0.472344	0.747715	-0.460087	0.395979	
0.716674	9.31244	0	5	111.963	46.3387	-0.30696	0.194348	0	0	-0.33785	0.36282	0	0	-0.350188	-0.186762	0.127472	0.380456	-0.352776	0.154459	0.486419	0.911063	0.016061	0.244926	0.212196	0.723364	-0.230434	0.482519	-0.522084	0.464487	-0.235964	0.340415	0.467865	0.760374	-0.449806	0.402967	
0.716368	9.28955	0	5	112.504	46.7703	-0.310513	0.19667	0	0	-0.34253	0.347699	0	0	-0.350188	-0.186762	0.126481	0.383255	-0.352776	0.154459	0.486419	0.911063	0.021471	0.249028	0.203468	0.720898	-0.223286	0.481471	-0.513646	0.462568	-0.228399	0.345445	0.463386	0.773033	-0.439526	0.409956	
0.715903	9.26361	0	5	113.046	47.2019	-0.314067	0.198992	0	0	-0.347211	0.332578	0	0	-0.350188	-0.186762	0.125491	0.386053	-0.352776	0.154459	0.486419	0.911063	0.026881	0.25313	0.194741	0.718432	-0.216138	0.480422	-0.505209	0.460649	-0.220833	0.350476	0.458907	0.785691	-0.429245	0.416944	
0.715152	9.24377	0	5	113.858	47.1005	-0.321169	0.203633	0	0	-0.349117	0.309659	0	0	-0.366029	-0.191596	0.128668	0.392589	-0.359486	0.155454	0.494169	0.912576	0.0267362	0.234148	0.194741	0.718432	-0.229243	0.460062	-0.510341	0.453227	-0.234965	0.346414	0.454798	0.764072	-0.435576	0.389793	
0.714432	9.22546	0	5	114.67	46.9991	-0.328271	0.208274	0	0	-0.351023	0.28674	0	0	-0.381869	-0.196429	0.131846	0.399124	-0.366197	0.156449	0.501918	0.914089	0.0265915	0.215166	0.194741	0.718432	-0.242348	0.439701	-0.515473	0.445804	-0.249097	0.342352	0.45069	0.742452	-0.441907	0.362641	
0.714129	9.22394	0	5	115.482	46.8977	-0.335374	0.212914	0	0	-0.35293	0.263821	0	0	-0.39771	-0.201263	0.135023	0.40566	-0.372908	0.157444	0.509668	0.915602	0.0264467	0.196183	0.194741	0.718432	-0.255454	0.419341	-0.520604	0.438382	-0.263229	0.33829	0.446582	0.720833	-0.448238	0.33549	
0.714628	9.25293	0	5	116.294	46.7962	-0.342476	0.217555	0	0	-0.354836	0.240902	0	0	-0.413551	-0.206096	0.1382	0.412196	-0.379618	0.158439	0.517417	0.917115	0.026302	0.177201	0.194741	0.718432	-0.268559	0.39898	-0.525736	0.43096	-0.277361	0.334228	0.442473	0.699214	-0.454569	0.308339	
0.716313	9.31702	0	5	117.117	46.9573	-0.346025	0.219874	0	0	-0.359955	0.241232	0	0	-0.411225	-0.21267	0.147538	0.416875	-0.378059	0.154032	0.523661	0.922911	0.0315585	0.162346	0.207228	0.710273	-0.274523	0.377668	-0.525736	0.43096	-0.280103	0.324407	0.438184	0.694742	-0.464838	0.301405	
0.719557	9.41467	0	5	117.941	47.1183	-0.349573	0.222193	0	0	-0.365074	0.241563	0	0	-0.408899	-0.219243	0.156876	0.421553	-0.376499	0.149625	0.529905	0.928708	0.036815	0.14749	0.219715	0.702114	-0.280488	0.356356	-0.525736	0.43096	-0.282845	0.314586	0.433895	0.690271	-0.475108	0.294472	
0.724252	9.52148	0	5	118.764	47.2793	-0.353122	0.224512	0	0	-0.370194	0.241893	0	0	-0.406573	-0.225817	0.166213	0.426231	-0.37494	0.145218	0.536149	0.934504	0.0420715	0.132634	0.232202	0.693954	-0.286452	0.335045	-0.525736	0.43096	-0.285588	0.304764	0.429606	0.685799	-0.485378	0.287538	
0.729695	9.6405	0	5	119.587	47.4403	-0.356671	0.226831	0	0	-0.375313	0.242223	0	0	-0.404247	-0.232391	0.175551	0.43091	-0.373381	0.140811	0.542393	0.9403	0.047328	0.117779	0.244689	0.685795	-0.292416	0.313733	-0.525736	0.43096	-0.28833	0.294943	0.425317	0.681327	-0.495647	0.280605	
0.735148	9.77173	0	5	119.472	47.7651	-0.370852	0.236097	0	0	-0.395746	0.243529	0	0	-0.404247	-0.232391	0.17774	0.440277	-0.37494	0.145218	0.550162	0.941816	0.0384123	0.123605	0.246567	0.680487	-0.290762	0.309059	-0.520604	0.438382	-0.280013	0.297802	0.433898	0.690276	-0.4951	0.28804	
0.73987	9.90143	0	5	119.357	48.0899	-0.385034	0.245364	0	0	-0.41618	0.244835	0	0	-0.404247	-0.232391	0.17993	0.449643	-0.376499	0.149625	0.557932	0.943331	0.0294965	0.129431	0.248445	0.675179	-0.289108	0.304384	-0.515473	0.445804	-0.271696	0.30066	0.442479	0.699226	-0.494552	0.295476	
0.74312	10.0021	0	5	119.242	48.4147	-0.399215	0.25463	0	0	-0.436613	0.246142	0	0	-0.404247	-0.232391	0.182119	0.45901	-0.378059	0.154032	0.565701	0.944847	0.0205808	0.135256	0.250324	0.669871	-0.287454	0.299709	-0.510341	0.453227	-0.263379	0.303519	0.45106	0.708175	-0.494004	0.302911	
0.744185	10.0876	0	5	119.127	48.7394	-0.413396	0.263896	0	0	-0.457046	0.247448	0	0	-0.404247	-0.232391	0.184308	0.468376	-0.379618	0.158439	0.57347	0.946363	0.011665	0.141082	0.252202	0.664563	-0.2858	0.295035	-0.505209	0.460649	-0.255062	0.306378	0.459641	0.717124	-0.493457	0.310346	
0.743027	10.1501	0	5	118.884	49.4267	-0.424016	0.270836	0	0	-0.45523	0.228234	0	0	-0.3996	-0.245524	0.194662	0.47026	-0.384763	0.155026	0.57821	0.956469	0.01866	0.121313	0.241592	0.667418	-0.298882	0.274901	-0.52042	0.459813	-0.273748	0.315269	0.440082	0.722622	-0.512315	0.318771	
0.740353	10.231	0	5	118.641	50.1141	-0.434636	0.277775	0	0	-0.453415	0.209019	0	0	-0.394953	-0.258657	0.205016	0.472144	-0.389908	0.151614	0.582951	0.966575	0.025655	0.101544	0.230982	0.670273	-0.311963	0.254767	-0.535631	0.458977	-0.292434	0.32416	0.420523	0.728121	-0.531172	0.327195	
0.736909	10.3012	0	5	118.397	50.8014	-0.445257	0.284715	0	0	-0.4516	0.189804	0	0	-0.390306	-0.271791	0.215371	0.474029	-0.395052	0.148201	0.587691	0.976681	0.03265	0.081775	0.220371	0.673127	-0.325044	0.234632	-0.550842	0.45814	-0.31112	0.333052	0.400963	0.73362	-0.55003	0.33562	
0.733441	10.3577	0	5	118.154	51.4887	-0.455877	0.291654	0	0	-0.449784	0.17059	0	0	-0.385659	-0.284924	0.225725	0.475913	-0.400197	0.144788	0.592431	0.986787	0.039645	0.062006	0.209761	0.675982	-0.338126	0.214498	-0.566053	0.457304	-0.329806	0.341943	0.381404	0.739118	-0.568888	0.344044	
0.730694	10.3989	0	5	119.347	50.9898	-0.455877	0.291654	0	0	-0.444683	0.170258	0	0	-0.385659	-0.284924	0.229913	0.479671	-0.401756	0.149193	0.600219	0.98831	0.044881	0.047208	0.211637	0.67068	-0.331546	0.195902	-0.572819	0.45455	-0.339841	0.335242	0.380473	0.725185	-0.578208	0.334565	
0.729346	10.4568	0	5	120.539	50.4909	-0.455877	0.291654	0	0	-0.439582	0.169927	0	0	-0.385659	-0.284924	0.2341	0.483429	-0.403314	0.153597	0.608007	0.989833	0.050117	0.03241	0.213513	0.665378	-0.324966	0.177306	-0.579584	0.451797	-0.349876	0.328541	0.379543	0.711252	-0.587528	0.325086	
0.729162	10.5255	0	5	121.732	49.992	-0.455877	0.291654	0	0	-0.434482	0.169596	0	0	-0.385659	-0.284924	0.238287	0.487188	-0.404872	0.158002	0.615794	0.991355	0.055353	0.017612	0.215389	0.660077	-0.318386	0.158711	-0.586349	0.449044	-0.35991	0.321841	0.378612	0.697319	-0.596848	0.315607	
0.729241	10.582	0	5	122.924	49.4931	-0.455877	0.291654	0	0	-0.429381	0.169264	0	0	-0.385659	-0.284924	0.242475	0.490946	-0.406431	0.162407	0.623582	0.992878	0.060589	0.002814	0.217265	0.654775	-0.311806	0.140115	-0.593115	0.44629	-0.369945	0.31514	0.377681	0.683386	-0.606168	0.306128	
0.72867	10.6079	0	5	124.352	48.8519	-0.466484	0.298585	0	0	-0.454344	0.197594	0	0	-0.381225	-0.272671	0.245668	0.497529	-0.401288	0.165824	0.626806	1.00733	0.0570992	0.0126768	0.225999	0.657222	-0.315094	0.149408	-0.588168	0.432311	-0.368421	0.310834	0.375452	0.689686	-0.602591	0.29602	
0.726535	10.6277	0	5	125.781	48.2107	-0.477092	0.305516	0	0	-0.479307	0.225924	0	0	-0.376791	-0.260418	0.24886	0.504112	-0.396145	0.169241	0.63003	1.02178	0.0536095	0.0225395	0.234733	0.659669	-0.318383	0.158701	-0.583222	0.418331	-0.366897	0.306528	0.373223	0.695987	-0.599015	0.285912	
0.721922	10.6461	0	5	127.209	47.5695	-0.4877	0.312447	0	0	-0.50427	0.254255	0	0	-0.372357	-0.248164	0.252053	0.510694	-0.391001	0.172658	0.633255	1.03623	0.0501197	0.0324023	0.243468	0.662116	-0.321671	0.167994	-0.578275	0.404351	-0.365374	0.302222	0.370993	0.702287	-0.595438	0.275804	
0.714153	10.672	0	5	128.638	46.9284	-0.498307	0.319378	0	0	-0.529233	0.282585	0	0	-0.367923	-0.235911	0.255246	0.517277	-0.385858	0.176075	0.636479	1.05067	0.04663	0.042265	0.252202	0.664563	-0.324959	0.177287	-0.573329	0.390372	-0.36385	0.297916	0.368764	0.708587	-0.591861	0.265696	
0.704004	10.6766	0	5	127.075	47.9496	-0.508147	0.32417	0	0	-0.537567	0.264014	0	0	-0.363272	-0.249054	0.275041	0.523887	-0.382739	0.167259	0.656864	1.06393	0.0518632	0.0274752	0.245342	0.656818	-0.323848	0.15515	-0.60197	0.384074	-0.377672	0.301985	0.378437	0.71439	-0.61385	0.274241	
0.692807	10.6812	0	5	125.512	48.9709	-0.517988	0.328962	0	0	-0.5459	0.245443	0	0	-0.358622	-0.262196	0.294836	0.530498	-0.379619	0.158443	0.67725	1.07718	0.0570965	0.0126855	0.238483	0.649072	-0.322736	0.133013	-0.63061	0.377776	-0.391494	0.306054	0.388111	0.720193	-0.635839	0.282787	
0.681894	10.6705	0	5	123.949	49.9921	-0.527828	0.333753	0	0	-0.554234	0.226871	0	0	-0.353971	-0.275339	0.314631	0.537108	-0.3765	0.149627	0.697636	1.09043	0.0623297	-0.00210425	0.231623	0.641326	-0.321624	0.110875	-0.65925	0.371478	-0.405316	0.310123	0.397784	0.725997	-0.657828	0.291332	
0.672599	10.6583	0	5	122.386	51.0134	-0.537668	0.338545	0	0	-0.562568	0.2083	0	0	-0.349321	-0.288482	0.334426	0.543719	-0.373381	0.140811	0.718021	1.10369	0.067563	-0.016894	0.224764	0.633581	-0.320513	0.088738	-0.687891	0.36518	-0.419138	0.314192	0.407458	0.7318	-0.679817	0.299878	
0.666219	10.6644	0	5	123.661	50.8046	-0.548249	0.345459	0	0	-0.56858	0.19726	0	0	-0.360728	-0.281028	0.348065	0.552227	-0.37494	0.145218	0.724322	1.10956	0.063881	-0.0258398	0.226638	0.628286	-0.331419	0.0816275	-0.689702	0.348554	-0.425875	0.307029	0.394625	0.718378	-0.679108	0.280041	
0.66326	10.6964	0	5	124.937	50.5957	-0.55883	0.352373	0	0	-0.574591	0.186221	0	0	-0.372135	-0.273574	0.361704	0.560736	-0.376499	0.149625	0.730623	1.11543	0.060199	-0.0347855	0.228511	0.622991	-0.342326	0.074517	-0.691514	0.331928	-0.432612	0.299865	0.381792	0.704956	-0.678399	0.260205	
0.663436	10.7407	0	5	126.212	50.3869	-0.569411	0.359287	0	0	-0.580603	0.175181	0	0	-0.383542	-0.266121	0.375343	0.569244	-0.378059	0.154032	0.736924	1.12131	0.056517	-0.0437312	0.230385	0.617695	-0.353233	0.0674065	-0.693326	0.315301	-0.439348	0.292702	0.368959	0.691533	-0.67769	0.240368	
0.666432	10.791	0	5	127.488	50.1781	-0.579992	0.366201	0	0	-0.586615	0.164141	0	0	-0.394949	-0.258667	0.388982	0.577753	-0.379618	0.158439	0.743225	1.12718	0.052835	-0.052677	0.232259	0.6124	-0.364139	0.060296	-0.695137	0.298675	-0.446085	0.285538	0.356126	0.678111	-0.676981	0.220532	
0.671933	10.82	0	5	127.488	50.1781	-0.587793	0.372936	0	0	-0.590747	0.175818	0	0	-0.39285	-0.239816	0.391192	0.587219	-0.385863	0.176088	0.743225	1.12718	0.0582595	-0.0486557	0.21979	0.620548	-0.358688	0.0638495	-0.696775	0.303304	-0.443587	0.287208	0.361688	0.662391	-0.672878	0.217851	
0.67962	10.8444	0	5	127.488	50.1781	-0.595593	0.379671	0	0	-0.594878	0.187494	0	0	-0.390751	-0.220965	0.393401	0.596685	-0.392108	0.193738	0.743225	1.12718	0.063684	-0.0446345	0.207321	0.628695	-0.353238	0.067403	-0.698412	0.307932	-0.441089	0.288878	0.367251	0.646671	-0.668775	0.21517	
0.689056	10.8551	0	5	127.488	50.1781	-0.603394	0.386407	0	0	-0.599009	0.199171	0	0	-0.388651	-0.202113	0.395611	0.606152	-0.398353	0.211388	0.743225	1.12718	0.0691085	-0.0406133	0.194852	0.636842	-0.347788	0.0709565	-0.70005	0.312561	-0.438591	0.290548	0.372813	0.63095	-0.664673	0.21249	
0.69941	10.8749	0	5	127.488	50.1781	-0.611195	0.393142	0	0	-0.603141	0.210847	0	0	-0.386552	-0.183262	0.397821	0.615618	-0.404598	0.229037	0.743225	1.12718	0.074533	-0.036592	0.182383	0.64499	-0.342337	0.07451	-0.701688	0.317189	-0.436093	0.292218	0.378375	0.61523	-0.66057	0.209809	
0.709774	10.907	0	5	127.334	50.6138	-0.618236	0.397743	0	0	-0.602701	0.195605	0	0	-0.379794	-0.177544	0.394804	0.624144	-0.404598	0.229037	0.743225	1.12718	0.071047	-0.0267405	0.191103	0.647436	-0.348896	0.0930477	-0.706606	0.331089	-0.426089	0.298907	0.373926	0.627804	-0.65949	0.224598	
0.719237	10.936	0	5	127.18	51.0495	-0.625277	0.402343	0	0	-0.602261	0.180362	0	0	-0.373035	-0.171826	0.391787	0.632669	-0.404598	0.229037	0.743225	1.12718	0.067561	-0.016889	0.199824	0.649882	-0.355456	0.111586	-0.711525	0.344989	-0.416085	0.305596	0.369477	0.640378	-0.65841	0.239386	
0.726889	10.9497	0	5	127.025	51.4853	-0.632318	0.406944	0	0	-0.601821	0.16512	0	0	-0.366277	-0.166107	0.388771	0.641195	-0.404598	0.229037	0.743225	1.12718	0.064075	-0.0070375	0.208545	0.652329	-0.362015	0.130123	-0.716443	0.358888	-0.406081	0.312285	0.365028	0.652952	-0.65733	0.254175	
0.731826	10.9619	0	5	126.871	51.921	-0.639359	0.411545	0	0	-0.601381	0.149877	0	0	-0.359519	-0.160389	0.385754	0.649721	-0.404598	0.229037	0.743225	1.12718	0.060589	0.002814	0.217265	0.654775	-0.368575	0.148661	-0.721361	0.372788	-0.396077	0.318974	0.360579	0.665526	-0.65625	0.268963	
0.733775	10.9619	0	5	126.871	51.921	-0.638605	0.409414	0	0	-0.593563	0.141782	0	0	-0.361854	-0.153791	0.390979	0.65068	-0.406161	0.233455	0.743225	1.12718	0.064075	-0.0070375	0.204796	0.662922	-0.362015	0.130123	-0.719721	0.368152	-0.401842	0.317778	0.347772	0.652163	-0.659111	0.259209	
0.733789	10.9604	0	5	126.871	51.921	-0.637851	0.407284	0	0	-0.585746	0.133686	0	0	-0.364189	-0.147193	0.396203	0.651639	-0.407725	0.237872	0.743225	1.12718	0.067561	-0.016889	0.192327	0.67107	-0.355456	0.111586	-0.718081	0.363517	-0.407608	0.316583	0.334964	0.638801	-0.661973	0.249455	
0.733087	10.9604	0	5	126.871	51.921	-0.637097	0.405153	0	0	-0.577928	0.12559	0	0	-0.366523	-0.140595	0.401427	0.652599	-0.409288	0.24229	0.743225	1.12718	0.071047	-0.0267405	0.179858	0.679218	-0.348896	0.0930477	-0.71644	0.358881	-0.413373	0.315388	0.322156	0.625439	-0.664834	0.2397	
0.732886	10.9482	0	5	126.871	51.921	-0.636343	0.403022	0	0	-0.57011	0.117495	0	0	-0.368858	-0.133997	0.406652	0.653558	-0.410851	0.246708	0.743225	1.12718	0.074533	-0.036592	0.167389	0.687365	-0.342337	0.07451	-0.7148	0.354245	-0.419138	0.314192	0.309349	0.612076	-0.667695	0.229946	
