7.47833	0	0	-0.368356	0.100692	-0.011403	0.032226	0	0	0.133026	0.002406	0	0	0.022718	-0.482101	-0.079166	-0.569697	-0.056096	-0.477358	-0.103711	-0.584562	-0.008289	-0.633279	-0.046939	-0.658386	-0.126358	-0.74111	-0.181487	-0.449556	0.02142	-0.287761	-0.419176	0.272918	-0.018812	-0.204259	
7.4707	0	0	-0.365436	0.0924395	-0.011403	0.032226	0	0	0.128372	0.0034045	0	0	0.0265717	-0.492992	-0.0756547	-0.57962	-0.0529642	-0.486209	-0.111753	-0.581745	-0.00620525	-0.639168	-0.0453812	-0.662789	-0.124612	-0.746045	-0.170126	-0.459917	0.023821	-0.294546	-0.418424	0.270794	-0.0234765	-0.21341	
7.46612	0	0	-0.362515	0.084187	-0.011403	0.032226	0	0	0.123719	0.004403	0	0	0.0304255	-0.503883	-0.0721435	-0.589543	-0.0498325	-0.49506	-0.119794	-0.578928	-0.0041215	-0.645057	-0.0438235	-0.667191	-0.122865	-0.750981	-0.158766	-0.470277	0.026222	-0.301331	-0.417673	0.26867	-0.028141	-0.222561	
7.45697	0	0	-0.359595	0.0759345	-0.011403	0.032226	0	0	0.119065	0.0054015	0	0	0.0342792	-0.514774	-0.0686323	-0.599465	-0.0467007	-0.503911	-0.127835	-0.576112	-0.00203775	-0.650946	-0.0422658	-0.671594	-0.121119	-0.755916	-0.147405	-0.480637	0.028623	-0.308117	-0.416921	0.266546	-0.0328055	-0.231712	
7.45087	0	0	-0.356675	0.067682	-0.011403	0.032226	0	0	0.114411	0.0064	0	0	0.038133	-0.525665	-0.065121	-0.609388	-0.043569	-0.512762	-0.135877	-0.573295	4.6E-05	-0.656835	-0.040708	-0.675996	-0.119372	-0.760851	-0.136044	-0.490998	0.031024	-0.314902	-0.416169	0.264422	-0.03747	-0.240863	
7.44934	0	0	-0.364885	0.075161	-0.0124402	0.0351575	0	0	0.113471	0.00905675	0	0	0.0342792	-0.514774	-0.065121	-0.609388	-0.043569	-0.512762	-0.127835	-0.576112	0.00212825	-0.66272	-0.040708	-0.675996	-0.109861	-0.763272	-0.118696	-0.496458	0.0343975	-0.313629	-0.41039	0.260646	-0.0332673	-0.241578	
7.4646	0	0	-0.373096	0.08264	-0.0134775	0.038089	0	0	0.112531	0.0117135	0	0	0.0304255	-0.503883	-0.065121	-0.609388	-0.043569	-0.512762	-0.119794	-0.578928	0.0042105	-0.668605	-0.040708	-0.675996	-0.10035	-0.765692	-0.101348	-0.501918	0.037771	-0.312357	-0.404612	0.256871	-0.0290645	-0.242292	
7.50122	0	0	-0.381306	0.090119	-0.0145147	0.0410205	0	0	0.111591	0.0143703	0	0	0.0265717	-0.492992	-0.065121	-0.609388	-0.043569	-0.512762	-0.111753	-0.581745	0.00629275	-0.67449	-0.040708	-0.675996	-0.090839	-0.768112	-0.084	-0.507378	0.0411445	-0.311084	-0.398834	0.253095	-0.0248618	-0.243006	
7.5592	0	0	-0.389516	0.097598	-0.015552	0.043952	0	0	0.110651	0.017027	0	0	0.022718	-0.482101	-0.065121	-0.609388	-0.043569	-0.512762	-0.103711	-0.584562	0.008375	-0.680375	-0.040708	-0.675996	-0.081328	-0.770533	-0.066652	-0.512838	0.044518	-0.309811	-0.393055	0.249319	-0.020659	-0.243721	
7.62939	0	0	-0.386598	0.0893505	-0.00762825	0.0342677	0	0	0.11347	0.009059	0	0	0.0265717	-0.492992	-0.061614	-0.6193	-0.0388772	-0.526022	-0.103711	-0.584562	0.010456	-0.686256	-0.039151	-0.680397	-0.0943327	-0.758239	-0.0793908	-0.498634	0.0454903	-0.301745	-0.393055	0.249319	-0.021134	-0.231208	
7.71026	0	0	-0.383679	0.081103	0.0002955	0.0245835	0	0	0.116289	0.001091	0	0	0.0304255	-0.503883	-0.058107	-0.629212	-0.0341855	-0.539281	-0.103711	-0.584562	0.012537	-0.692137	-0.037594	-0.684797	-0.107338	-0.745945	-0.0921295	-0.484429	0.0464625	-0.29368	-0.393055	0.249319	-0.021609	-0.218695	
7.79724	0	0	-0.380761	0.0728555	0.00821925	0.0148992	0	0	0.119109	-0.006877	0	0	0.0342792	-0.514774	-0.0546	-0.639124	-0.0294937	-0.552541	-0.103711	-0.584562	0.014618	-0.698019	-0.036037	-0.689198	-0.120342	-0.733651	-0.104868	-0.470224	0.0474347	-0.285614	-0.393055	0.249319	-0.022084	-0.206183	
7.87964	0	0	-0.377843	0.064608	0.016143	0.005215	0	0	0.121928	-0.014845	0	0	0.038133	-0.525665	-0.051093	-0.649036	-0.024802	-0.565801	-0.103711	-0.584562	0.016699	-0.7039	-0.03448	-0.693598	-0.133347	-0.721357	-0.117607	-0.45602	0.048407	-0.277549	-0.393055	0.249319	-0.022559	-0.19367	
7.95441	0	0	-0.370606	0.059879	0.0140688	0.011077	0	0	0.1303	-0.0141898	0	0	0.049836	-0.533312	-0.0631923	-0.64113	-0.0137725	-0.576403	-0.0945378	-0.590556	0.014618	-0.698019	-0.03448	-0.693598	-0.1316	-0.726295	-0.107575	-0.462575	0.0476053	-0.275284	-0.393055	0.249319	-0.0164785	-0.199679	
8.01239	0	0	-0.363369	0.05515	0.0119945	0.016939	0	0	0.138672	-0.0135345	0	0	0.061539	-0.540959	-0.0752915	-0.633224	-0.002743	-0.587004	-0.0853645	-0.59655	0.012537	-0.692137	-0.03448	-0.693598	-0.129852	-0.731234	-0.0975425	-0.46913	0.0468035	-0.273018	-0.393055	0.249319	-0.010398	-0.205687	
8.07342	0	0	-0.356132	0.050421	0.00992025	0.022801	0	0	0.147044	-0.0128793	0	0	0.073242	-0.548606	-0.0873907	-0.625318	0.0082865	-0.597606	-0.0761912	-0.602544	0.010456	-0.686256	-0.03448	-0.693598	-0.128105	-0.736172	-0.0875103	-0.475685	0.0460017	-0.270753	-0.393055	0.249319	-0.0043175	-0.211696	
8.11615	0	0	-0.348895	0.045692	0.007846	0.028663	0	0	0.155416	-0.012224	0	0	0.084945	-0.556253	-0.09949	-0.617412	0.019316	-0.608208	-0.067018	-0.608538	0.008375	-0.680375	-0.03448	-0.693598	-0.126358	-0.74111	-0.077478	-0.48224	0.0452	-0.268488	-0.393055	0.249319	0.001763	-0.217704	
8.15582	0	0	-0.35084	0.0511895	0.0105857	0.0336383	0	0	0.153535	-0.006908	0	0	0.0791628	-0.539912	-0.0891437	-0.620363	0.0161905	-0.599374	-0.0703862	-0.599019	0.008375	-0.680375	-0.0261265	-0.692289	-0.118596	-0.738587	-0.070143	-0.481147	0.0469717	-0.262675	-0.387273	0.24554	0.00316175	-0.210474	
8.17261	0	0	-0.352785	0.056687	0.0133255	0.0386135	0	0	0.151654	-0.001592	0	0	0.0733805	-0.52357	-0.0787975	-0.623315	0.013065	-0.590541	-0.0737545	-0.5895	0.008375	-0.680375	-0.017773	-0.690979	-0.110835	-0.736063	-0.062808	-0.480054	0.0487435	-0.256862	-0.38149	0.241762	0.0045605	-0.203243	
8.17261	0	0	-0.35473	0.0621845	0.0160652	0.0435888	0	0	0.149773	0.003724	0	0	0.0675982	-0.507229	-0.0684512	-0.626267	0.0099395	-0.581708	-0.0771227	-0.57998	0.008375	-0.680375	-0.0094195	-0.689669	-0.103073	-0.73354	-0.055473	-0.478961	0.0505152	-0.25105	-0.375707	0.237984	0.00595925	-0.196013	
8.16192	0	0	-0.356675	0.067682	0.018805	0.048564	0	0	0.147892	0.00904	0	0	0.061816	-0.490888	-0.058105	-0.629218	0.006814	-0.572874	-0.080491	-0.570461	0.008375	-0.680375	-0.001066	-0.68836	-0.095311	-0.731017	-0.048138	-0.477868	0.052287	-0.245237	-0.369925	0.234205	0.007358	-0.188782	
8.14361	0	0	-0.353758	0.0594373	0.0208812	0.0426963	0	0	0.148833	0.0063815	0	0	0.073535	-0.498545	-0.059859	-0.624261	0.00837725	-0.577292	-0.080491	-0.570461	0.0189458	-0.682758	-0.001066	-0.68836	-0.0988103	-0.721127	-0.0522057	-0.466372	0.0574365	-0.238133	-0.3591	0.228765	0.00781625	-0.178887	
8.1192	0	0	-0.35084	0.0511925	0.0229575	0.0368285	0	0	0.149774	0.003723	0	0	0.085254	-0.506202	-0.061613	-0.619303	0.0099405	-0.581709	-0.080491	-0.570461	0.0295165	-0.68514	-0.001066	-0.68836	-0.102309	-0.711237	-0.0562735	-0.454876	0.062586	-0.231029	-0.348275	0.223324	0.0082745	-0.168992	
8.08868	0	0	-0.347923	0.0429477	0.0250338	0.0309608	0	0	0.150714	0.0010645	0	0	0.096973	-0.51386	-0.063367	-0.614345	0.0115038	-0.586127	-0.080491	-0.570461	0.0400872	-0.687523	-0.001066	-0.68836	-0.105809	-0.701347	-0.0603412	-0.44338	0.0677355	-0.223925	-0.33745	0.217884	0.00873275	-0.159098	
8.05511	0	0	-0.345006	0.034703	0.02711	0.025093	0	0	0.151655	-0.001594	0	0	0.108692	-0.521517	-0.065121	-0.609388	0.013067	-0.590545	-0.080491	-0.570461	0.050658	-0.689906	-0.001066	-0.68836	-0.109308	-0.691457	-0.064409	-0.431884	0.072885	-0.216821	-0.326625	0.212444	0.009191	-0.149203	
8.02765	0	0	-0.345006	0.034703	0.0250338	0.0309608	0	0	0.160038	-0.00093875	0	0	0.106762	-0.516063	-0.0668762	-0.604428	0.013067	-0.590545	-0.0724315	-0.573286	0.0485742	-0.684017	-0.0026245	-0.683955	-0.098036	-0.698823	-0.064409	-0.431884	0.0736887	-0.219092	-0.338202	0.220008	0.012007	-0.157161	
7.99866	0	0	-0.345006	0.034703	0.0229575	0.0368285	0	0	0.168421	-0.0002835	0	0	0.104832	-0.510609	-0.0686315	-0.599468	0.013067	-0.590545	-0.064372	-0.576111	0.0464905	-0.678129	-0.004183	-0.67955	-0.086764	-0.706188	-0.064409	-0.431884	0.0744925	-0.221363	-0.349778	0.227573	0.014823	-0.16512	
7.96356	0	0	-0.345006	0.034703	0.0208812	0.0426963	0	0	0.176804	0.00037175	0	0	0.102903	-0.505156	-0.0703867	-0.594508	0.013067	-0.590545	-0.0563125	-0.578937	0.0444068	-0.67224	-0.0057415	-0.675146	-0.075492	-0.713553	-0.064409	-0.431884	0.0752963	-0.223634	-0.361355	0.235137	0.017639	-0.173078	
7.93457	0	0	-0.345006	0.034703	0.018805	0.048564	0	0	0.185187	0.001027	0	0	0.100973	-0.499702	-0.072142	-0.589548	0.013067	-0.590545	-0.048253	-0.581762	0.042323	-0.666351	-0.0073	-0.670741	-0.06422	-0.720919	-0.064409	-0.431884	0.0761	-0.225905	-0.372932	0.242702	0.020455	-0.181036	
7.901	0	0	-0.34695	0.0401987	0.0177665	0.0514993	0	0	0.183304	0.00634925	0	0	0.106912	-0.490988	-0.0652963	-0.582568	0.0194173	-0.5879	-0.03323	-0.584249	0.0529097	-0.668738	0.001064	-0.669429	-0.0581895	-0.713439	-0.0557105	-0.434619	0.0778728	-0.220077	-0.361355	0.235137	0.0227923	-0.176445	
7.87811	0	0	-0.348895	0.0456945	0.016728	0.0544345	0	0	0.18142	0.0116715	0	0	0.11285	-0.482275	-0.0584505	-0.575589	0.0257675	-0.585255	-0.018207	-0.586737	0.0634965	-0.671125	0.009428	-0.668117	-0.052159	-0.705958	-0.047012	-0.437354	0.0796455	-0.214249	-0.349778	0.227573	0.0251295	-0.171854	
7.84759	0	0	-0.350839	0.0511902	0.0156895	0.0573697	0	0	0.179537	0.0169937	0	0	0.118789	-0.473561	-0.0516047	-0.568609	0.0321178	-0.582611	-0.003184	-0.589225	0.0740832	-0.673512	0.017792	-0.666804	-0.0461285	-0.698478	-0.0383135	-0.44009	0.0814182	-0.208422	-0.338202	0.220008	0.0274668	-0.167263	
7.82165	0	0	-0.352784	0.056686	0.014651	0.060305	0	0	0.177654	0.022316	0	0	0.124728	-0.464848	-0.044759	-0.56163	0.038468	-0.579966	0.011839	-0.591712	0.08467	-0.675899	0.026156	-0.665492	-0.040098	-0.690998	-0.029615	-0.442825	0.083191	-0.202594	-0.326625	0.212444	0.029804	-0.162672	
7.80029	0	0	-0.358077	0.055919	0.021547	0.0535422	0	0	0.183262	0.0186513	0	0	0.124728	-0.464848	-0.046518	-0.556659	0.038468	-0.579966	0.0129637	-0.594891	0.086755	-0.681792	0.0292755	-0.674308	-0.0461285	-0.698478	-0.0410283	-0.432418	0.0807772	-0.195772	-0.325873	0.21032	0.0208923	-0.148682	
7.77435	0	0	-0.36337	0.055152	0.028443	0.0467795	0	0	0.188871	0.0149865	0	0	0.124728	-0.464848	-0.048277	-0.551688	0.038468	-0.579966	0.0140885	-0.59807	0.08884	-0.687685	0.032395	-0.683124	-0.052159	-0.705958	-0.0524415	-0.42201	0.0783635	-0.18895	-0.325122	0.208196	0.0119805	-0.134693	
7.75604	0	0	-0.368662	0.054385	0.035339	0.0400167	0	0	0.194479	0.0113218	0	0	0.124728	-0.464848	-0.050036	-0.546717	0.038468	-0.579966	0.0152132	-0.601248	0.090925	-0.693578	0.0355145	-0.69194	-0.0581895	-0.713439	-0.0638548	-0.411603	0.0759498	-0.182129	-0.324371	0.206072	0.00306875	-0.120704	
7.73468	0	0	-0.373955	0.053618	0.042235	0.033254	0	0	0.200088	0.007657	0	0	0.124728	-0.464848	-0.051795	-0.541746	0.038468	-0.579966	0.016338	-0.604427	0.09301	-0.699471	0.038634	-0.700756	-0.06422	-0.720919	-0.075268	-0.401195	0.073536	-0.175307	-0.323619	0.203948	-0.005843	-0.106714	
7.71789	0	0	-0.366718	0.0488892	0.0480965	0.029424	0	0	0.208489	0.00830975	0	0	0.122793	-0.459381	-0.0414212	-0.5447	0.038468	-0.579966	0.016338	-0.604427	0.09301	-0.699471	0.038634	-0.700756	-0.052933	-0.728294	-0.0638548	-0.411603	0.0743408	-0.177582	-0.329409	0.207731	0.00119	-0.115394	
7.69653	0	0	-0.35948	0.0441605	0.053958	0.025594	0	0	0.21689	0.0089625	0	0	0.120859	-0.453914	-0.0310475	-0.547655	0.038468	-0.579966	0.016338	-0.604427	0.09301	-0.699471	0.038634	-0.700756	-0.041646	-0.735669	-0.0524415	-0.42201	0.0751455	-0.179856	-0.335199	0.211515	0.008223	-0.124074	
7.68127	0	0	-0.352243	0.0394318	0.0598195	0.021764	0	0	0.225291	0.00961525	0	0	0.118925	-0.448447	-0.0206737	-0.550609	0.038468	-0.579966	0.016338	-0.604427	0.09301	-0.699471	0.038634	-0.700756	-0.030359	-0.743045	-0.0410283	-0.432418	0.0759502	-0.182131	-0.34099	0.215299	0.015256	-0.132754	
7.66449	0	0	-0.345006	0.034703	0.065681	0.017934	0	0	0.233692	0.010268	0	0	0.11699	-0.44298	-0.0103	-0.553564	0.038468	-0.579966	0.016338	-0.604427	0.09301	-0.699471	0.038634	-0.700756	-0.019072	-0.75042	-0.029615	-0.442825	0.076755	-0.184405	-0.34678	0.219082	0.022289	-0.141434	
7.65076	0	0	-0.351271	0.0366853	0.0608578	0.0188297	0	0	0.229961	0.0086105	0	0	0.128741	-0.450658	-0.012061	-0.548587	0.038468	-0.579966	0.0152132	-0.601248	0.103615	-0.70187	0.0370745	-0.696349	-0.0208232	-0.745471	-0.028258	-0.44666	0.0817463	-0.187667	-0.34678	0.219082	0.022289	-0.141434	
7.64465	0	0	-0.357536	0.0386675	0.0560345	0.0197255	0	0	0.22623	0.006953	0	0	0.140492	-0.458337	-0.013822	-0.54361	0.038468	-0.579966	0.0140885	-0.59807	0.114221	-0.704269	0.035515	-0.691942	-0.0225745	-0.740522	-0.026901	-0.450496	0.0867375	-0.190928	-0.34678	0.219082	0.022289	-0.141434	
7.64313	0	0	-0.363802	0.0406497	0.0512112	0.0206213	0	0	0.222499	0.0052955	0	0	0.152243	-0.466016	-0.015583	-0.538634	0.038468	-0.579966	0.0129637	-0.594891	0.124826	-0.706669	0.0339555	-0.687535	-0.0243258	-0.735573	-0.025544	-0.454331	0.0917287	-0.194189	-0.34678	0.219082	0.022289	-0.141434	
7.64007	0	0	-0.370067	0.042632	0.046388	0.021517	0	0	0.218768	0.003638	0	0	0.163994	-0.473694	-0.017344	-0.533657	0.038468	-0.579966	0.011839	-0.591712	0.135432	-0.709068	0.032396	-0.683128	-0.026077	-0.730624	-0.024187	-0.458166	0.09672	-0.197451	-0.34678	0.219082	0.022289	-0.141434	
7.64618	0	0	-0.367153	0.0343973	0.0436433	0.0165472	0	0	0.225326	-0.00269375	0	0	0.165929	-0.479161	-0.0277167	-0.530705	0.038468	-0.579966	0.014088	-0.598068	0.137517	-0.714961	0.032396	-0.683128	-0.030365	-0.743029	-0.024187	-0.458166	0.0883495	-0.195477	-0.34678	0.219082	0.012925	-0.137356	
7.65076	0	0	-0.364239	0.0261625	0.0408985	0.0115775	0	0	0.231883	-0.0090255	0	0	0.167863	-0.484628	-0.0380895	-0.527753	0.038468	-0.579966	0.016337	-0.604425	0.139602	-0.720854	0.032396	-0.683128	-0.034653	-0.755433	-0.024187	-0.458166	0.079979	-0.193503	-0.34678	0.219082	0.003561	-0.133279	
7.65838	0	0	-0.361326	0.0179277	0.0381538	0.00660775	0	0	0.238441	-0.0153572	0	0	0.169797	-0.490095	-0.0484622	-0.524802	0.038468	-0.579966	0.018586	-0.610781	0.141687	-0.726747	0.032396	-0.683128	-0.038941	-0.767837	-0.024187	-0.458166	0.0716085	-0.19153	-0.34678	0.219082	-0.005803	-0.129202	
7.66296	0	0	-0.358412	0.009693	0.035409	0.001638	0	0	0.244999	-0.021689	0	0	0.171732	-0.495562	-0.058835	-0.52185	0.038468	-0.579966	0.020835	-0.617137	0.143772	-0.73264	0.032396	-0.683128	-0.043229	-0.780242	-0.024187	-0.458166	0.063238	-0.189556	-0.34678	0.219082	-0.015167	-0.125124	
7.67059	0	0	-0.358412	0.009693	0.0412665	-0.0021895	0	0	0.243115	-0.0163637	0	0	0.161914	-0.493347	-0.058835	-0.52185	0.040032	-0.584386	0.0230825	-0.623489	0.145856	-0.738529	0.035514	-0.69194	-0.0397352	-0.790115	-0.0214745	-0.465832	0.0664535	-0.198643	-0.347531	0.221206	-0.0114118	-0.135737	
7.66907	0	0	-0.358412	0.009693	0.047124	-0.006017	0	0	0.241231	-0.0110385	0	0	0.152096	-0.491133	-0.058835	-0.52185	0.041596	-0.588806	0.02533	-0.629841	0.14794	-0.744417	0.038632	-0.700751	-0.0362415	-0.799989	-0.018762	-0.473498	0.069669	-0.20773	-0.348283	0.22333	-0.0076565	-0.14635	
7.66907	0	0	-0.358412	0.009693	0.0529815	-0.0098445	0	0	0.239346	-0.00571325	0	0	0.142279	-0.488919	-0.058835	-0.52185	0.04316	-0.593226	0.0275775	-0.636192	0.150023	-0.750306	0.04175	-0.709563	-0.0327477	-0.809863	-0.0160495	-0.481163	0.0728845	-0.216818	-0.349034	0.225454	-0.00390125	-0.156962	
7.66601	0	0	-0.358412	0.009693	0.058839	-0.013672	0	0	0.237462	-0.000388	0	0	0.132461	-0.486704	-0.058835	-0.52185	0.044724	-0.597646	0.029825	-0.642544	0.152107	-0.756195	0.044868	-0.718375	-0.029254	-0.819736	-0.013337	-0.488829	0.0761	-0.225905	-0.349786	0.227578	-0.000146	-0.167575	
7.65533	0	0	-0.355501	0.00146575	0.0619487	-0.0224605	0	0	0.239346	-0.00571325	0	0	0.132461	-0.486704	-0.057075	-0.526824	0.04316	-0.593226	0.029825	-0.642544	0.152107	-0.756195	0.0433095	-0.71397	-0.034496	-0.804922	-0.013337	-0.488829	0.079481	-0.224622	-0.33745	0.217885	-0.00108425	-0.164923	
7.6416	0	0	-0.35259	-0.0067615	0.0650585	-0.031249	0	0	0.241231	-0.0110385	0	0	0.132461	-0.486704	-0.055315	-0.531798	0.041596	-0.588806	0.029825	-0.642544	0.152107	-0.756195	0.041751	-0.709566	-0.039738	-0.790107	-0.013337	-0.488829	0.082862	-0.223339	-0.325114	0.208191	-0.0020225	-0.162271	
7.62939	0	0	-0.349679	-0.0149888	0.0681682	-0.0400375	0	0	0.243115	-0.0163637	0	0	0.132461	-0.486704	-0.053555	-0.536772	0.040032	-0.584386	0.029825	-0.642544	0.152107	-0.756195	0.0401925	-0.705161	-0.04498	-0.775293	-0.013337	-0.488829	0.086243	-0.222056	-0.312779	0.198497	-0.00296075	-0.159619	
7.61413	0	0	-0.346768	-0.023216	0.071278	-0.048826	0	0	0.244999	-0.021689	0	0	0.132461	-0.486704	-0.051795	-0.541746	0.038468	-0.579966	0.029825	-0.642544	0.152107	-0.756195	0.038634	-0.700756	-0.050222	-0.760479	-0.013337	-0.488829	0.089624	-0.220773	-0.300443	0.188804	-0.003899	-0.156967	
7.59888	0	0	-0.344829	-0.0286965	0.067492	-0.0508528	0	0	0.245941	-0.0243505	0	0	0.124589	-0.489954	-0.0482783	-0.551685	0.0415953	-0.588804	0.032071	-0.648891	0.154189	-0.76208	0.0401925	-0.705161	-0.04498	-0.775293	-0.0119817	-0.49266	0.0854392	-0.219785	-0.306237	0.19259	-0.003899	-0.156967	
7.58057	0	0	-0.34289	-0.034177	0.063706	-0.0528795	0	0	0.246883	-0.027012	0	0	0.116717	-0.493203	-0.0447615	-0.561625	0.0447225	-0.597641	0.034317	-0.655239	0.156272	-0.767965	0.041751	-0.709566	-0.039738	-0.790107	-0.0106265	-0.49649	0.0812545	-0.218797	-0.312031	0.196376	-0.003899	-0.156967	
7.56531	0	0	-0.34095	-0.0396575	0.05992	-0.0549062	0	0	0.247824	-0.0296735	0	0	0.108845	-0.496452	-0.0412447	-0.571565	0.0478498	-0.606479	0.036563	-0.661586	0.158355	-0.773851	0.0433095	-0.71397	-0.034496	-0.804922	-0.00927125	-0.500321	0.0770698	-0.217809	-0.317825	0.200162	-0.003899	-0.156967	
7.547	0	0	-0.339011	-0.045138	0.056134	-0.056933	0	0	0.248766	-0.032335	0	0	0.100973	-0.499702	-0.037728	-0.581504	0.050977	-0.615317	0.038809	-0.667933	0.160437	-0.779736	0.044868	-0.718375	-0.029254	-0.819736	-0.007916	-0.504151	0.072885	-0.216821	-0.323619	0.203948	-0.003899	-0.156967	
7.53937	0	0	-0.34095	-0.0396575	0.0668175	-0.0616638	0	0	0.255297	-0.0263658	0	0	0.112708	-0.50737	-0.0498445	-0.573587	0.050977	-0.615317	0.038809	-0.667933	0.162518	-0.785617	0.0433095	-0.71397	-0.0275087	-0.824669	-0.007916	-0.504151	0.0736887	-0.219092	-0.317825	0.200162	-0.00904625	-0.153604	
7.52258	0	0	-0.34289	-0.034177	0.077501	-0.0663945	0	0	0.261829	-0.0203965	0	0	0.124443	-0.515038	-0.061961	-0.56567	0.050977	-0.615317	0.038809	-0.667933	0.164599	-0.791498	0.041751	-0.709566	-0.0257635	-0.829601	-0.007916	-0.504151	0.0744925	-0.221363	-0.312031	0.196376	-0.0141935	-0.15024	
7.51037	0	0	-0.344829	-0.0286965	0.0881845	-0.0711253	0	0	0.26836	-0.0144273	0	0	0.136178	-0.522706	-0.0740775	-0.557752	0.050977	-0.615317	0.038809	-0.667933	0.16668	-0.797379	0.0401925	-0.705161	-0.0240183	-0.834534	-0.007916	-0.504151	0.0752963	-0.223634	-0.306237	0.19259	-0.0193408	-0.146877	
7.49664	0	0	-0.346768	-0.023216	0.098868	-0.075856	0	0	0.274891	-0.008458	0	0	0.147913	-0.530374	-0.086194	-0.549835	0.050977	-0.615317	0.038809	-0.667933	0.168761	-0.80326	0.038634	-0.700756	-0.022273	-0.839467	-0.007916	-0.504151	0.0761	-0.225905	-0.300443	0.188804	-0.024488	-0.143514	
7.48901	0	0	-0.344829	-0.0286965	0.0950773	-0.0778783	0	0	0.276776	-0.0137865	0	0	0.136178	-0.522706	-0.084437	-0.554801	0.0525395	-0.619733	0.0376863	-0.66476	0.16668	-0.797379	0.0501328	-0.708269	-0.0257648	-0.829599	0.00079625	-0.506899	0.078677	-0.22235	-0.294645	0.185015	-0.009976	-0.150957	
7.47681	0	0	-0.34289	-0.034177	0.0912865	-0.0799005	0	0	0.278662	-0.019115	0	0	0.124443	-0.515038	-0.08268	-0.559766	0.054102	-0.624148	0.0365635	-0.661587	0.164599	-0.791498	0.0616315	-0.715783	-0.0292565	-0.819731	0.0095085	-0.509647	0.081254	-0.218795	-0.288847	0.181227	0.004536	-0.1584	
7.46612	0	0	-0.34095	-0.0396575	0.0874957	-0.0819228	0	0	0.280547	-0.0244435	0	0	0.112708	-0.50737	-0.080923	-0.564731	0.0556645	-0.628563	0.0354408	-0.658414	0.162518	-0.785617	0.0731302	-0.723297	-0.0327482	-0.809863	0.0182208	-0.512394	0.083831	-0.215239	-0.283048	0.177438	0.019048	-0.165843	
7.45697	0	0	-0.339011	-0.045138	0.083705	-0.083945	0	0	0.282432	-0.029772	0	0	0.100973	-0.499702	-0.079166	-0.569697	0.057227	-0.632979	0.034318	-0.655241	0.160437	-0.779736	0.084629	-0.73081	-0.03624	-0.799995	0.026933	-0.515142	0.086408	-0.211684	-0.27725	0.173649	0.03356	-0.173286	
7.44171	0	0	-0.329836	-0.0553442	0.0906012	-0.0906997	0	0	0.28149	-0.0271083	0	0	0.106759	-0.516053	-0.084247	-0.581626	0.0587885	-0.637393	0.0273603	-0.655573	0.177307	-0.799799	0.0762465	-0.732104	-0.0310038	-0.814793	0.029643	-0.522801	0.0846342	-0.21751	-0.27725	0.173649	0.0312217	-0.177875	
7.43103	0	0	-0.320661	-0.0655505	0.0974975	-0.0974545	0	0	0.280547	-0.0244445	0	0	0.112544	-0.532405	-0.089328	-0.593554	0.06035	-0.641806	0.0204025	-0.655904	0.194177	-0.819862	0.067864	-0.733397	-0.0257675	-0.829591	0.032353	-0.530461	0.0828605	-0.223336	-0.27725	0.173649	0.0288835	-0.182464	
7.41882	0	0	-0.311485	-0.0757567	0.104394	-0.104209	0	0	0.279605	-0.0217807	0	0	0.11833	-0.548757	-0.094409	-0.605483	0.0619115	-0.646219	0.0134447	-0.656235	0.211047	-0.839925	0.0594815	-0.734691	-0.0205313	-0.844389	0.035063	-0.53812	0.0810867	-0.229161	-0.27725	0.173649	0.0265452	-0.187052	
7.40661	0	0	-0.30231	-0.085963	0.11129	-0.110964	0	0	0.278662	-0.019117	0	0	0.124116	-0.565108	-0.09949	-0.617412	0.063473	-0.650633	0.006487	-0.656567	0.227917	-0.859988	0.051099	-0.735985	-0.015295	-0.859187	0.037773	-0.545779	0.079313	-0.234987	-0.27725	0.173649	0.024207	-0.191641	
7.38983	0	0	-0.30231	-0.085963	0.110255	-0.108039	0	0	0.28146	-0.0147972	0	0	0.114323	-0.562894	-0.0959867	-0.627313	0.065034	-0.655044	0.0179332	-0.668921	0.215207	-0.851684	0.052656	-0.740385	-0.0135517	-0.864114	0.0478525	-0.552365	0.0851045	-0.240516	-0.27725	0.173649	0.0209322	-0.193576	
7.38067	0	0	-0.30231	-0.085963	0.10922	-0.105114	0	0	0.284257	-0.0104775	0	0	0.10453	-0.560681	-0.0924835	-0.637213	0.066595	-0.659455	0.0293795	-0.681275	0.202498	-0.843379	0.054213	-0.744785	-0.0118085	-0.869042	0.057932	-0.558951	0.090896	-0.246046	-0.27725	0.173649	0.0176575	-0.195511	
7.36999	0	0	-0.30231	-0.085963	0.108186	-0.10219	0	0	0.287054	-0.00615775	0	0	0.0947378	-0.558467	-0.0889802	-0.647114	0.068156	-0.663867	0.0408258	-0.693629	0.189788	-0.835074	0.05577	-0.749186	-0.0100652	-0.873969	0.0680115	-0.565537	0.0966875	-0.251575	-0.27725	0.173649	0.0143827	-0.197445	
7.36236	0	0	-0.30231	-0.085963	0.107151	-0.099265	0	0	0.289852	-0.001838	0	0	0.084945	-0.556253	-0.085477	-0.657015	0.069717	-0.668278	0.052272	-0.705983	0.177079	-0.82677	0.057327	-0.753586	-0.008322	-0.878896	0.078091	-0.572123	0.102479	-0.257104	-0.27725	0.173649	0.011108	-0.19938	
7.36084	0	0	-0.299405	-0.0941725	0.104393	-0.104206	0	0	0.287054	-0.00615775	0	0	0.075167	-0.554046	-0.0837268	-0.661961	0.071277	-0.672687	0.045311	-0.706306	0.179157	-0.832643	0.0604387	-0.76238	-0.0118098	-0.869039	0.088182	-0.578717	0.109251	-0.254546	-0.271448	0.169858	0.0214115	-0.206113	
7.35474	0	0	-0.296501	-0.102382	0.101635	-0.109148	0	0	0.284257	-0.0104775	0	0	0.065389	-0.55184	-0.0819765	-0.666908	0.072837	-0.677096	0.03835	-0.706628	0.181235	-0.838516	0.0635505	-0.771174	-0.0152975	-0.859182	0.098273	-0.585311	0.116022	-0.251988	-0.265646	0.166067	0.031715	-0.212845	
7.35016	0	0	-0.293596	-0.110592	0.098877	-0.114089	0	0	0.28146	-0.0147972	0	0	0.055611	-0.549633	-0.0802262	-0.671855	0.074397	-0.681505	0.031389	-0.706951	0.183314	-0.84439	0.0666623	-0.779969	-0.0187852	-0.849324	0.108364	-0.591904	0.122794	-0.24943	-0.259844	0.162276	0.0420185	-0.219578	
7.34253	0	0	-0.290691	-0.118801	0.096119	-0.11903	0	0	0.278662	-0.019117	0	0	0.045833	-0.547427	-0.078476	-0.676801	0.075957	-0.685914	0.024428	-0.707273	0.185392	-0.850263	0.069774	-0.788763	-0.022273	-0.839467	0.118455	-0.598498	0.129565	-0.246872	-0.254042	0.158485	0.052322	-0.22631	
7.33032	0	0	-0.286822	-0.129735	0.104048	-0.128703	0	0	0.285232	-0.0254575	0	0	0.0496797	-0.558298	-0.0749785	-0.686685	0.071155	-0.692936	0.027788	-0.716769	0.176854	-0.853706	0.0728827	-0.797549	-0.0187852	-0.849324	0.109718	-0.595731	0.123597	-0.251699	-0.254042	0.158485	0.0495088	-0.240746	
7.3349	0	0	-0.282953	-0.14067	0.111977	-0.138375	0	0	0.291801	-0.031798	0	0	0.0535265	-0.569169	-0.071481	-0.69657	0.066353	-0.699957	0.031148	-0.726265	0.168316	-0.85715	0.0759915	-0.806334	-0.0152975	-0.859182	0.100981	-0.592965	0.117628	-0.256526	-0.254042	0.158485	0.0466955	-0.255182	
7.33795	0	0	-0.279084	-0.151604	0.119906	-0.148048	0	0	0.29837	-0.0381385	0	0	0.0573733	-0.580041	-0.0679835	-0.706454	0.061551	-0.706978	0.034508	-0.73576	0.159778	-0.860593	0.0791003	-0.81512	-0.0118098	-0.869039	0.092244	-0.590198	0.111659	-0.261354	-0.254042	0.158485	0.0438822	-0.269619	
7.35168	0	0	-0.275215	-0.162538	0.127835	-0.157721	0	0	0.30494	-0.044479	0	0	0.06122	-0.590912	-0.064486	-0.716338	0.056749	-0.714	0.037868	-0.745256	0.15124	-0.864036	0.082209	-0.823906	-0.008322	-0.878896	0.083507	-0.587432	0.105691	-0.266181	-0.254042	0.158485	0.041069	-0.284055	
7.36236	0	0	-0.267972	-0.167271	0.126802	-0.1548	0	0	0.29837	-0.0381385	0	0	0.0592972	-0.585478	-0.0627387	-0.721276	0.0583063	-0.7184	0.0320312	-0.748735	0.157458	-0.88161	0.0753827	-0.829565	0.002965	-0.886271	0.0935982	-0.594026	0.109879	-0.267173	-0.259844	0.162276	0.036857	-0.283334	
7.37457	0	0	-0.260728	-0.172003	0.125768	-0.15188	0	0	0.291801	-0.031798	0	0	0.0573745	-0.580044	-0.0609915	-0.726214	0.0598635	-0.7228	0.0261945	-0.752213	0.163677	-0.899184	0.0685565	-0.835224	0.014252	-0.893646	0.103689	-0.600619	0.114067	-0.268165	-0.265646	0.166067	0.032645	-0.282614	
7.38678	0	0	-0.253485	-0.176736	0.124734	-0.148959	0	0	0.285232	-0.0254575	0	0	0.0554518	-0.57461	-0.0592442	-0.731153	0.0614208	-0.727201	0.0203578	-0.755691	0.169895	-0.916758	0.0617303	-0.840882	0.025539	-0.901021	0.113781	-0.607213	0.118256	-0.269157	-0.271448	0.169858	0.028433	-0.281894	
7.39746	0	0	-0.246242	-0.181469	0.123701	-0.146038	0	0	0.278662	-0.019117	0	0	0.053529	-0.569176	-0.057497	-0.736091	0.062978	-0.731601	0.014521	-0.75917	0.176113	-0.934332	0.054904	-0.846541	0.036826	-0.908396	0.123872	-0.613807	0.122444	-0.270149	-0.27725	0.173649	0.024221	-0.281173	
7.39899	0	0	-0.248656	-0.190385	0.121972	-0.153886	0	0	0.275866	-0.0234317	0	0	0.0592935	-0.585468	-0.0764087	-0.73511	0.0566225	-0.734209	0.0167568	-0.765488	0.176113	-0.934332	0.056455	-0.850924	0.0237957	-0.896094	0.121163	-0.606151	0.122616	-0.259785	-0.271448	0.169858	0.0298402	-0.274681	
7.40051	0	0	-0.25107	-0.199301	0.120242	-0.161734	0	0	0.27307	-0.0277465	0	0	0.065058	-0.60176	-0.0953205	-0.73413	0.050267	-0.736817	0.0189925	-0.771806	0.176113	-0.934332	0.058006	-0.855307	0.0107655	-0.883792	0.118454	-0.598495	0.122788	-0.24942	-0.265646	0.166067	0.0354595	-0.268188	
7.40204	0	0	-0.253483	-0.208218	0.118512	-0.169581	0	0	0.270273	-0.0320612	0	0	0.0708225	-0.618051	-0.114232	-0.733149	0.0439115	-0.739426	0.0212282	-0.778124	0.176113	-0.934332	0.059557	-0.85969	-0.00226475	-0.871489	0.115745	-0.590839	0.122961	-0.239056	-0.259844	0.162276	0.0410788	-0.261696	
7.39899	0	0	-0.255897	-0.217134	0.116783	-0.177429	0	0	0.267477	-0.036376	0	0	0.076587	-0.634343	-0.133144	-0.732168	0.037556	-0.742034	0.023464	-0.784442	0.176113	-0.934332	0.061108	-0.864073	-0.015295	-0.859187	0.113036	-0.583183	0.123133	-0.228692	-0.254042	0.158485	0.046698	-0.255204	
7.39136	0	0	-0.253967	-0.222588	0.12851	-0.185091	0	0	0.274042	-0.0427117	0	0	0.0668192	-0.63213	-0.127917	-0.746942	0.0296543	-0.740249	0.0268142	-0.793911	0.180252	-0.946029	0.062658	-0.868454	-0.0118093	-0.869039	0.114391	-0.587012	0.123937	-0.230965	-0.259844	0.162276	0.054659	-0.266506	
7.38525	0	0	-0.252038	-0.228042	0.140237	-0.192754	0	0	0.280607	-0.0490475	0	0	0.0570515	-0.629918	-0.122689	-0.761715	0.0217525	-0.738463	0.0301645	-0.803379	0.184391	-0.957726	0.064208	-0.872835	-0.0083235	-0.878891	0.115746	-0.59084	0.124741	-0.233237	-0.265646	0.166067	0.06262	-0.277808	
7.3761	0	0	-0.250108	-0.233495	0.151964	-0.200416	0	0	0.287172	-0.0553833	0	0	0.0472837	-0.627706	-0.117461	-0.776489	0.0138508	-0.736678	0.0335148	-0.812848	0.18853	-0.969423	0.065758	-0.877216	-0.00483775	-0.888742	0.1171	-0.594669	0.125545	-0.23551	-0.271448	0.169858	0.070581	-0.28911	
7.36084	0	0	-0.248178	-0.238949	0.163691	-0.208079	0	0	0.293737	-0.061719	0	0	0.037516	-0.625493	-0.112234	-0.791262	0.005949	-0.734893	0.036865	-0.822317	0.192669	-0.98112	0.067308	-0.881597	-0.001352	-0.898594	0.118455	-0.598498	0.126349	-0.237783	-0.27725	0.173649	0.078542	-0.300412	
7.35168	0	0	-0.241899	-0.240955	0.157826	-0.204246	0	0	0.28623	-0.052721	0	0	0.0570665	-0.629925	-0.113976	-0.78634	0.0138507	-0.736678	0.0357485	-0.819162	0.20122	-0.977715	0.065758	-0.877216	0.006449	-0.896117	0.134607	-0.600218	0.127323	-0.229679	-0.266394	0.168188	0.072453	-0.294401	
7.33795	0	0	-0.235621	-0.242962	0.15196	-0.200414	0	0	0.278723	-0.043723	0	0	0.076617	-0.634357	-0.115717	-0.781419	0.0217525	-0.738463	0.034632	-0.816007	0.209772	-0.974311	0.064208	-0.872835	0.01425	-0.893641	0.150759	-0.601938	0.128298	-0.221575	-0.255537	0.162727	0.066364	-0.288389	
7.32574	0	0	-0.229342	-0.244969	0.146094	-0.196581	0	0	0.271216	-0.034725	0	0	0.0961675	-0.63879	-0.117458	-0.776497	0.0296542	-0.740249	0.0335155	-0.812852	0.218324	-0.970906	0.062658	-0.868454	0.022051	-0.891164	0.166911	-0.603657	0.129272	-0.213471	-0.244681	0.157267	0.060275	-0.282378	
7.31964	0	0	-0.223063	-0.246975	0.140229	-0.192749	0	0	0.263709	-0.025727	0	0	0.115718	-0.643222	-0.1192	-0.771575	0.037556	-0.742034	0.032399	-0.809697	0.226875	-0.967501	0.061108	-0.864073	0.029852	-0.888687	0.183063	-0.605377	0.130246	-0.205367	-0.233825	0.151806	0.054186	-0.276366	
7.31201	0	0	-0.221134	-0.252427	0.141261	-0.195666	0	0	0.265593	-0.0310508	0	0	0.104015	-0.635575	-0.105393	-0.784381	0.0454678	-0.743824	0.032399	-0.809697	0.212113	-0.953355	0.0725915	-0.871576	0.0185652	-0.881312	0.178992	-0.593871	0.124605	-0.189425	-0.233825	0.151806	0.057001	-0.261921	
7.30438	0	0	-0.219205	-0.25788	0.142293	-0.198583	0	0	0.267477	-0.0363745	0	0	0.092312	-0.627928	-0.0915865	-0.797186	0.0533795	-0.745614	0.032399	-0.809697	0.197352	-0.939208	0.084075	-0.87908	0.0072785	-0.873937	0.174921	-0.582365	0.118965	-0.173484	-0.233825	0.151806	0.059816	-0.247476	
7.29675	0	0	-0.217276	-0.263332	0.143325	-0.2015	0	0	0.26936	-0.0416982	0	0	0.080609	-0.620281	-0.0777798	-0.809991	0.0612912	-0.747404	0.032399	-0.809697	0.18259	-0.925061	0.0955585	-0.886583	-0.00400825	-0.866562	0.170849	-0.570859	0.113324	-0.157543	-0.233825	0.151806	0.062631	-0.233032	
7.29217	0	0	-0.215347	-0.268784	0.144357	-0.204417	0	0	0.271244	-0.047022	0	0	0.068906	-0.612634	-0.063973	-0.822797	0.069203	-0.749194	0.032399	-0.809697	0.167828	-0.910915	0.107042	-0.894087	-0.015295	-0.859187	0.166778	-0.559353	0.107683	-0.141601	-0.233825	0.151806	0.065446	-0.218587	
7.2876	0	0	-0.216311	-0.266058	0.143325	-0.2015	0	0	0.270302	-0.0443605	0	0	0.0650618	-0.60177	-0.0692003	-0.808024	0.0740095	-0.742186	0.039358	-0.80939	0.174296	-0.901622	0.112333	-0.884055	-0.0057525	-0.861632	0.171469	-0.550606	0.114458	-0.139015	-0.222201	0.144211	0.0645078	-0.215936	
7.28302	0	0	-0.217276	-0.263333	0.142293	-0.198583	0	0	0.269361	-0.041699	0	0	0.0612175	-0.590905	-0.0744275	-0.79325	0.078816	-0.735178	0.046317	-0.809084	0.180764	-0.892329	0.117624	-0.874024	0.00379	-0.864077	0.176159	-0.541859	0.121233	-0.136429	-0.210578	0.136616	0.0635695	-0.213284	
7.28912	0	0	-0.21824	-0.260607	0.141261	-0.195666	0	0	0.268419	-0.0390375	0	0	0.0573733	-0.58004	-0.0796547	-0.778477	0.0836225	-0.728169	0.053276	-0.808777	0.187232	-0.883035	0.122914	-0.863992	0.0133325	-0.866522	0.180849	-0.533111	0.128009	-0.133843	-0.198954	0.129021	0.0626312	-0.210633	
7.27844	0	0	-0.219204	-0.257881	0.140229	-0.192749	0	0	0.267477	-0.036376	0	0	0.053529	-0.569176	-0.084882	-0.763703	0.088429	-0.721161	0.060235	-0.80847	0.1937	-0.873742	0.128205	-0.85396	0.022875	-0.868967	0.18554	-0.524364	0.134784	-0.131257	-0.18733	0.121426	0.061693	-0.207982	
7.27539	0	0	-0.223555	-0.261323	0.142293	-0.198582	0	0	0.265623	-0.0433455	0	0	0.061383	-0.565945	-0.0918655	-0.743967	0.0901165	-0.705315	0.0627265	-0.795516	0.198094	-0.858545	0.130384	-0.835101	0.0123882	-0.83933	0.199021	-0.518379	0.133324	-0.116256	-0.17569	0.113821	0.0663808	-0.198803	
7.26623	0	0	-0.227906	-0.264764	0.144357	-0.204415	0	0	0.263769	-0.050315	0	0	0.069237	-0.562715	-0.098849	-0.724231	0.091804	-0.689469	0.065218	-0.782562	0.202487	-0.843348	0.132563	-0.816242	0.0019015	-0.809694	0.212502	-0.512394	0.131864	-0.101254	-0.164051	0.106215	0.0710685	-0.189624	
7.26929	0	0	-0.232257	-0.268206	0.146421	-0.210248	0	0	0.261914	-0.0572845	0	0	0.077091	-0.559484	-0.105832	-0.704495	0.0934915	-0.673624	0.0677095	-0.769607	0.20688	-0.828151	0.134742	-0.797383	-0.00858525	-0.780057	0.225983	-0.506409	0.130405	-0.0862525	-0.152412	0.0986095	0.0757562	-0.180445	
7.28912	0	0	-0.236608	-0.271647	0.148485	-0.216081	0	0	0.26006	-0.064254	0	0	0.084945	-0.556253	-0.112816	-0.684759	0.095179	-0.657778	0.070201	-0.756653	0.211274	-0.812954	0.136921	-0.778524	-0.019072	-0.75042	0.239464	-0.500424	0.128945	-0.071251	-0.140772	0.091004	0.080444	-0.171266	
7.32117	0	0	-0.236608	-0.271647	0.149516	-0.218996	0	0	0.254444	-0.0605845	0	0	0.0928103	-0.553019	-0.105981	-0.677823	0.0968577	-0.641885	0.0852752	-0.7592	0.217751	-0.803604	0.143773	-0.772837	-0.00952125	-0.752856	0.246899	-0.499356	0.129754	-0.0735372	-0.140772	0.091004	0.0790388	-0.178511	
7.37305	0	0	-0.236608	-0.271647	0.150548	-0.221911	0	0	0.248829	-0.056915	0	0	0.100676	-0.549786	-0.0991465	-0.670887	0.0985365	-0.625992	0.10035	-0.761747	0.224228	-0.794254	0.150625	-0.767151	2.95E-05	-0.755292	0.254335	-0.498288	0.130563	-0.0758235	-0.140772	0.091004	0.0776335	-0.185757	
7.44018	0	0	-0.236608	-0.271647	0.15158	-0.224827	0	0	0.243213	-0.0532455	0	0	0.108541	-0.546552	-0.0923117	-0.663951	0.100215	-0.610098	0.115424	-0.764294	0.230705	-0.784904	0.157477	-0.761464	0.00958025	-0.757727	0.26177	-0.49722	0.131372	-0.0781097	-0.140772	0.091004	0.0762282	-0.193003	
7.52258	0	0	-0.236608	-0.271647	0.152611	-0.227742	0	0	0.237597	-0.049576	0	0	0.116406	-0.543319	-0.085477	-0.657015	0.101894	-0.594205	0.130498	-0.766841	0.237182	-0.775554	0.164329	-0.755777	0.019131	-0.760163	0.269205	-0.496152	0.132181	-0.080396	-0.140772	0.091004	0.074823	-0.200248	
7.61413	0	0	-0.231293	-0.270931	0.149515	-0.218994	0	0	0.237597	-0.049576	0	0	0.112548	-0.532415	-0.080388	-0.645108	0.105133	-0.582699	0.124888	-0.750987	0.241575	-0.760273	0.168062	-0.741243	0.0156258	-0.750257	0.275284	-0.491225	0.133953	-0.074521	-0.134946	0.0871973	0.0729448	-0.19494	
7.71026	0	0	-0.225977	-0.270216	0.14642	-0.210246	0	0	0.237597	-0.049576	0	0	0.108689	-0.52151	-0.075299	-0.633201	0.108372	-0.571193	0.119279	-0.735133	0.245968	-0.744992	0.171795	-0.726708	0.0121205	-0.740351	0.281363	-0.486298	0.135724	-0.068646	-0.129121	0.0833905	0.0710665	-0.189633	
7.78961	0	0	-0.220662	-0.2695	0.143324	-0.201497	0	0	0.237597	-0.049576	0	0	0.104831	-0.510606	-0.07021	-0.621295	0.111612	-0.559687	0.113669	-0.719279	0.250361	-0.729711	0.175529	-0.712174	0.00861525	-0.730444	0.287443	-0.481371	0.137496	-0.062771	-0.123296	0.0795837	0.0691882	-0.184325	
7.86285	0	0	-0.215347	-0.268784	0.140229	-0.192749	0	0	0.237597	-0.049576	0	0	0.100973	-0.499702	-0.065121	-0.609388	0.114851	-0.548181	0.108059	-0.703425	0.254754	-0.71443	0.179262	-0.69764	0.00511	-0.720538	0.293522	-0.476444	0.139268	-0.056896	-0.11747	0.075777	0.06731	-0.179017	
7.92389	0	0	-0.221626	-0.266776	0.142293	-0.198582	0	0	0.232926	-0.0485672	0	0	0.0911837	-0.497498	-0.0530045	-0.617305	0.111711	-0.539308	0.103564	-0.690721	0.26124	-0.705023	0.176132	-0.688794	-0.00015525	-0.705658	0.288052	-0.460986	0.137796	-0.0418468	-0.11164	0.071968	0.0701145	-0.164502	
7.96814	0	0	-0.227905	-0.264768	0.144357	-0.204415	0	0	0.228254	-0.0475585	0	0	0.0813945	-0.495295	-0.040888	-0.625223	0.108572	-0.530435	0.099069	-0.678018	0.267726	-0.695616	0.173002	-0.679947	-0.0054205	-0.690778	0.282583	-0.445528	0.136324	-0.0267975	-0.105811	0.068159	0.072919	-0.149987	
8.00171	0	0	-0.234184	-0.262759	0.146421	-0.210248	0	0	0.223583	-0.0465498	0	0	0.0716053	-0.493092	-0.0287715	-0.63314	0.105432	-0.521562	0.094574	-0.665315	0.274212	-0.686209	0.169871	-0.6711	-0.0106858	-0.675897	0.277114	-0.430071	0.134852	-0.0117483	-0.0999808	0.06435	0.0757235	-0.135473	
8.02002	0	0	-0.240463	-0.260751	0.148485	-0.216081	0	0	0.218912	-0.045541	0	0	0.061816	-0.490888	-0.016655	-0.641057	0.102293	-0.512689	0.090079	-0.652611	0.280698	-0.676802	0.166741	-0.662254	-0.015951	-0.661017	0.271644	-0.414613	0.13338	0.003301	-0.094151	0.060541	0.078528	-0.120958	
8.02765	0	0	-0.240463	-0.260751	0.148485	-0.216081	0	0	0.219852	-0.0481985	0	0	0.061816	-0.490888	-0.023681	-0.6212	0.116627	-0.511811	0.090079	-0.652611	0.276504	-0.66495	0.175169	-0.660953	-0.015951	-0.661017	0.279093	-0.413531	0.128368	0.00657575	-0.0999808	0.06435	0.0804108	-0.126279	
8.03375	0	0	-0.240463	-0.260751	0.148485	-0.216081	0	0	0.220793	-0.050856	0	0	0.061816	-0.490888	-0.030707	-0.601344	0.130962	-0.510933	0.090079	-0.652611	0.272311	-0.653097	0.183596	-0.659652	-0.015951	-0.661017	0.286542	-0.412448	0.123357	0.0098505	-0.105811	0.068159	0.0822935	-0.1316	
8.02154	0	0	-0.240463	-0.260751	0.148485	-0.216081	0	0	0.221733	-0.0535135	0	0	0.061816	-0.490888	-0.037733	-0.581487	0.145296	-0.510054	0.090079	-0.652611	0.268117	-0.641245	0.192023	-0.658351	-0.015951	-0.661017	0.29399	-0.411366	0.118346	0.0131253	-0.11164	0.071968	0.0841762	-0.13692	
8.01086	0	0	-0.240463	-0.260751	0.148485	-0.216081	0	0	0.222673	-0.056171	0	0	0.061816	-0.490888	-0.044759	-0.56163	0.159631	-0.509176	0.090079	-0.652611	0.263923	-0.629393	0.200451	-0.65705	-0.015951	-0.661017	0.301439	-0.410284	0.113334	0.0164	-0.11747	0.075777	0.086059	-0.142241	
7.98645	0	0	-0.234184	-0.262759	0.14056	-0.206418	0	0	0.210519	-0.0461865	0	0	0.065809	-0.47671	-0.0396673	-0.549657	0.153333	-0.491377	0.0948103	-0.645922	0.259724	-0.617525	0.208891	-0.65575	-0.019466	-0.651083	0.307527	-0.405328	0.113474	0.0268927	-0.11164	0.071968	0.078069	-0.130884	
7.96509	0	0	-0.227905	-0.264768	0.132634	-0.196755	0	0	0.198366	-0.036202	0	0	0.069802	-0.462533	-0.0345755	-0.537685	0.147035	-0.473578	0.0995415	-0.639233	0.255525	-0.605657	0.217332	-0.654451	-0.022981	-0.641149	0.313614	-0.400371	0.113614	0.0373855	-0.105811	0.068159	0.070079	-0.119526	
7.93915	0	0	-0.221626	-0.266776	0.124708	-0.187092	0	0	0.186213	-0.0262175	0	0	0.073795	-0.448355	-0.0294837	-0.525713	0.140738	-0.455779	0.104273	-0.632544	0.251325	-0.59379	0.225772	-0.653151	-0.026496	-0.631215	0.319701	-0.395415	0.113754	0.0478782	-0.0999808	0.06435	0.062089	-0.108169	
7.91015	0	0	-0.215347	-0.268784	0.116783	-0.177429	0	0	0.174059	-0.016233	0	0	0.077788	-0.434177	-0.024392	-0.51374	0.13444	-0.43798	0.109004	-0.625855	0.247126	-0.581922	0.234212	-0.651851	-0.030011	-0.621281	0.325789	-0.390459	0.113894	0.058371	-0.094151	0.060541	0.054099	-0.096811	
7.87964	0	0	-0.221626	-0.266776	0.118847	-0.183262	0	0	0.169398	-0.0152308	0	0	0.066069	-0.426519	-0.0157678	-0.511713	0.131286	-0.429067	0.107878	-0.622672	0.242921	-0.570038	0.221066	-0.639851	-0.0370528	-0.60138	0.340733	-0.388294	0.11579	0.0748092	-0.094151	0.060541	0.0568895	-0.0822432	
7.85217	0	0	-0.227905	-0.264768	0.120911	-0.189095	0	0	0.164737	-0.0142285	0	0	0.05435	-0.418862	-0.0071435	-0.509685	0.128133	-0.420154	0.106751	-0.619488	0.238716	-0.558154	0.20792	-0.627852	-0.0440945	-0.581479	0.355677	-0.386128	0.117686	0.0912475	-0.094151	0.060541	0.05968	-0.0676755	
7.82165	0	0	-0.234184	-0.262759	0.122975	-0.194928	0	0	0.160077	-0.0132263	0	0	0.042631	-0.411204	0.00148075	-0.507657	0.124979	-0.411242	0.105624	-0.616305	0.234511	-0.546271	0.194774	-0.615852	-0.0511363	-0.561578	0.370621	-0.383962	0.119583	0.107686	-0.094151	0.060541	0.0624705	-0.0531077	
7.80334	0	0	-0.240463	-0.260751	0.125039	-0.200761	0	0	0.155416	-0.012224	0	0	0.030912	-0.403547	0.010105	-0.50563	0.121825	-0.402329	0.104498	-0.613122	0.230306	-0.534387	0.181628	-0.603852	-0.058178	-0.541677	0.385565	-0.381797	0.121479	0.124124	-0.094151	0.060541	0.065261	-0.03854	
7.77283	0	0	-0.242392	-0.2553	0.127804	-0.19584	0	0	0.1638	-0.0115712	0	0	0.0387607	-0.400267	0.0152077	-0.493613	0.12663	-0.395178	0.102244	-0.606752	0.238881	-0.530841	0.178487	-0.594975	-0.050388	-0.539104	0.380065	-0.366252	0.117403	0.135643	-0.0883175	0.056729	0.0614823	-0.0278607	
7.74536	0	0	-0.24432	-0.24985	0.130569	-0.190919	0	0	0.172184	-0.0109185	0	0	0.0466095	-0.396987	0.0203105	-0.481596	0.131434	-0.388026	0.0999905	-0.600383	0.247455	-0.527296	0.175345	-0.586098	-0.042598	-0.536532	0.374564	-0.350707	0.113327	0.147162	-0.082484	0.052917	0.0577035	-0.0171815	
7.724	0	0	-0.246249	-0.244399	0.133334	-0.185998	0	0	0.180568	-0.0102658	0	0	0.0544582	-0.393706	0.0254133	-0.469579	0.136239	-0.380875	0.0977367	-0.594013	0.25603	-0.523751	0.172204	-0.57722	-0.034808	-0.53396	0.369063	-0.335162	0.109252	0.15868	-0.0766505	0.049105	0.0539248	-0.00650225	
7.70416	0	0	-0.248178	-0.238949	0.136099	-0.181077	0	0	0.188952	-0.009613	0	0	0.062307	-0.390426	0.030516	-0.457562	0.141043	-0.373723	0.095483	-0.587643	0.264605	-0.520205	0.169063	-0.568343	-0.027018	-0.531387	0.363563	-0.319617	0.105176	0.170199	-0.070817	0.045293	0.050146	0.004177	
7.68432	0	0	-0.244795	-0.232771	0.132999	-0.172317	0	0	0.178639	0.00735675	0	0	0.064346	-0.370691	0.0338475	-0.440501	0.142684	-0.35761	0.109465	-0.586974	0.258278	-0.502326	0.177496	-0.567021	-0.0262903	-0.508823	0.36553	-0.302937	0.111261	0.185746	-0.059138	0.0376618	0.0486943	0.0195172	
7.67364	0	0	-0.241413	-0.226593	0.1299	-0.163557	0	0	0.168325	0.0243265	0	0	0.066385	-0.350956	0.037179	-0.423441	0.144326	-0.341496	0.123447	-0.586306	0.251952	-0.484447	0.185928	-0.565699	-0.0255625	-0.486259	0.367498	-0.286257	0.117346	0.201292	-0.047459	0.0300305	0.0472425	0.0348575	
7.65991	0	0	-0.23803	-0.220415	0.126801	-0.154798	0	0	0.158011	0.0412962	0	0	0.068424	-0.331221	0.0405105	-0.406381	0.145968	-0.325383	0.13743	-0.585638	0.245625	-0.466568	0.19436	-0.564377	-0.0248347	-0.463695	0.369465	-0.269577	0.123431	0.216839	-0.03578	0.0223992	0.0457908	0.0501977	
7.65381	0	0	-0.234647	-0.214237	0.123701	-0.146038	0	0	0.147698	0.058266	0	0	0.070463	-0.311486	0.043842	-0.38932	0.147609	-0.30927	0.151412	-0.584969	0.239299	-0.448689	0.202793	-0.563055	-0.024107	-0.441131	0.371432	-0.252897	0.129516	0.232386	-0.024101	0.014768	0.044339	0.065538	
7.64465	0	0	-0.230296	-0.210782	0.114737	-0.133439	0	0	0.150474	0.0625977	0	0	0.066576	-0.300501	0.0507205	-0.382246	0.144439	-0.300312	0.149153	-0.578585	0.247879	-0.445116	0.201219	-0.558609	-0.014531	-0.443541	0.388383	-0.233926	0.136644	0.266941	-0.0182555	0.0109485	0.0358023	0.0896638	
7.6416	0	0	-0.225945	-0.207327	0.105773	-0.120841	0	0	0.153251	0.0669295	0	0	0.062689	-0.289516	0.057599	-0.375173	0.14127	-0.291355	0.146894	-0.572202	0.256458	-0.441543	0.199646	-0.554163	-0.004955	-0.44595	0.405335	-0.214955	0.143772	0.301496	-0.01241	0.007129	0.0272655	0.113789	
7.63245	0	0	-0.221595	-0.203872	0.0968083	-0.108243	0	0	0.156027	0.0712612	0	0	0.058802	-0.278532	0.0644775	-0.368099	0.1381	-0.282398	0.144636	-0.565819	0.265038	-0.437971	0.198073	-0.549716	0.004621	-0.448359	0.422287	-0.195985	0.150901	0.336051	-0.0065645	0.0033095	0.0187288	0.137915	
7.62634	0	0	-0.217244	-0.200417	0.087844	-0.095644	0	0	0.158803	0.075593	0	0	0.054915	-0.267547	0.071356	-0.361025	0.134931	-0.27344	0.142377	-0.559435	0.273618	-0.434398	0.196499	-0.54527	0.014197	-0.450769	0.439238	-0.177014	0.158029	0.370606	-0.000719	-0.00051	0.010192	0.162041	
7.61871	0	0	-0.222081	-0.186747	0.089564	-0.0877695	0	0	0.158747	0.0879377	0	0	0.060827	-0.258723	0.0782427	-0.353937	0.14132	-0.270722	0.140117	-0.553047	0.269388	-0.422443	0.208091	-0.552844	0.0202405	-0.443163	0.439806	-0.156274	0.170915	0.389051	0.00513075	-0.00433225	0.0157928	0.168708	
7.60345	0	0	-0.226918	-0.173077	0.091284	-0.079895	0	0	0.158691	0.100282	0	0	0.066739	-0.249899	0.0851295	-0.34685	0.14771	-0.268003	0.137856	-0.546659	0.265157	-0.410488	0.219684	-0.560419	0.026284	-0.435557	0.440375	-0.135534	0.183801	0.407496	0.0109805	-0.0081545	0.0213935	0.175374	
7.5943	0	0	-0.231755	-0.159407	0.093004	-0.0720205	0	0	0.158634	0.112627	0	0	0.072651	-0.241075	0.0920163	-0.339762	0.1541	-0.265285	0.135596	-0.540271	0.260927	-0.398532	0.231276	-0.567994	0.0323275	-0.42795	0.440943	-0.114793	0.196686	0.425942	0.0168302	-0.0119768	0.0269942	0.18204	
7.58667	0	0	-0.236592	-0.145737	0.094724	-0.064146	0	0	0.158578	0.124972	0	0	0.078563	-0.232251	0.098903	-0.332674	0.160489	-0.262566	0.133336	-0.533883	0.256697	-0.386577	0.242868	-0.575568	0.038371	-0.420344	0.441511	-0.094053	0.209572	0.444387	0.02268	-0.015799	0.032595	0.188707	
7.56836	0	0	-0.233211	-0.139527	0.0985168	-0.0621205	0	0	0.156688	0.130315	0	0	0.072713	-0.215718	0.0935607	-0.317576	0.157313	-0.253591	0.138073	-0.527145	0.265285	-0.382985	0.239719	-0.566669	0.0426428	-0.407698	0.446242	-0.0850517	0.209672	0.455097	0.02268	-0.015799	0.0311105	0.204159	
7.55157	0	0	-0.22983	-0.133317	0.102309	-0.060095	0	0	0.154797	0.135657	0	0	0.066863	-0.199185	0.0882185	-0.302478	0.154137	-0.244616	0.14281	-0.520408	0.273872	-0.379393	0.236571	-0.55777	0.0469145	-0.395051	0.450974	-0.0760505	0.209771	0.465808	0.02268	-0.015799	0.029626	0.219612	
7.54089	0	0	-0.22645	-0.127107	0.106102	-0.0580695	0	0	0.152907	0.141	0	0	0.061013	-0.182652	0.0828763	-0.287379	0.150962	-0.23564	0.147547	-0.51367	0.282459	-0.3758	0.233422	-0.54887	0.0511863	-0.382405	0.455705	-0.0670493	0.20987	0.476519	0.02268	-0.015799	0.0281415	0.235065	
7.52411	0	0	-0.223069	-0.120897	0.109895	-0.056044	0	0	0.151016	0.146343	0	0	0.055163	-0.166119	0.077534	-0.272281	0.147786	-0.226665	0.152284	-0.506932	0.291047	-0.372208	0.230273	-0.539971	0.055458	-0.369759	0.460437	-0.058048	0.20997	0.487229	0.02268	-0.015799	0.026657	0.250517	
7.51343	0	0	-0.225008	-0.115417	0.108858	-0.0531138	0	0	0.160352	0.144352	0	0	0.0571142	-0.171633	0.0879888	-0.275239	0.146197	-0.222174	0.152284	-0.506932	0.288927	-0.366217	0.228697	-0.535518	0.0572358	-0.374783	0.460437	-0.058048	0.199855	0.493838	0.0168302	-0.0119768	0.0186147	0.261988	
7.49664	0	0	-0.226947	-0.109936	0.107821	-0.0501835	0	0	0.169688	0.142362	0	0	0.0590655	-0.177148	0.0984435	-0.278197	0.144607	-0.217683	0.152284	-0.506932	0.286807	-0.360225	0.227122	-0.531065	0.0590135	-0.379807	0.460437	-0.058048	0.18974	0.500447	0.0109805	-0.0081545	0.0105725	0.273459	
7.47986	0	0	-0.228887	-0.104455	0.106784	-0.0472532	0	0	0.179024	0.140372	0	0	0.0610167	-0.182663	0.108898	-0.281155	0.143018	-0.213191	0.152284	-0.506932	0.284687	-0.354233	0.225546	-0.526611	0.0607912	-0.384832	0.460437	-0.058048	0.179625	0.507057	0.00513075	-0.00433225	0.00253025	0.284931	
7.4707	0	0	-0.230826	-0.098975	0.105747	-0.044323	0	0	0.18836	0.138381	0	0	0.062968	-0.188177	0.119353	-0.284113	0.141429	-0.2087	0.152284	-0.506932	0.282567	-0.348242	0.22397	-0.522158	0.062569	-0.389856	0.460437	-0.058048	0.16951	0.513666	-0.000719	-0.00051	-0.005512	0.296402	
7.45849	0	0	-0.228417	-0.0900037	0.102634	-0.0355258	0	0	0.183626	0.15176	0	0	0.068878	-0.179313	0.113999	-0.268981	0.141429	-0.2087	0.158158	-0.503387	0.280446	-0.342246	0.232424	-0.52083	0.0590125	-0.379805	0.45765	-0.0501728	0.167855	0.518343	0.00513075	-0.00433225	-0.00319425	0.301109	
7.44934	0	0	-0.226009	-0.0810325	0.0995215	-0.0267285	0	0	0.178892	0.165139	0	0	0.074788	-0.170448	0.108645	-0.253849	0.141429	-0.2087	0.164032	-0.499841	0.278324	-0.336251	0.240878	-0.519502	0.055456	-0.369753	0.454864	-0.0422975	0.1662	0.52302	0.0109805	-0.0081545	-0.0008765	0.305816	
7.43561	0	0	-0.223601	-0.0720612	0.0964088	-0.0179313	0	0	0.174158	0.178519	0	0	0.080698	-0.161583	0.10329	-0.238716	0.141429	-0.2087	0.169906	-0.496296	0.276203	-0.330255	0.249333	-0.518175	0.0518995	-0.359702	0.452078	-0.0344223	0.164545	0.527697	0.0168302	-0.0119768	0.00144125	0.310524	
7.42645	0	0	-0.221192	-0.06309	0.093296	-0.009134	0	0	0.169424	0.191898	0	0	0.086608	-0.152719	0.097936	-0.223584	0.141429	-0.2087	0.17578	-0.49275	0.274081	-0.324259	0.257787	-0.516847	0.048343	-0.349651	0.449291	-0.026547	0.16289	0.532374	0.02268	-0.015799	0.003759	0.315231	
7.41882	0	0	-0.221192	-0.06309	0.094334	-0.0120672	0	0	0.170372	0.189221	0	0	0.0728857	-0.139506	0.096149	-0.218534	0.138248	-0.199711	0.180526	-0.485993	0.267708	-0.306248	0.25147	-0.498995	0.050826	-0.331917	0.45402	-0.017512	0.164718	0.549186	0.0277818	-0.0174993	0.0055245	0.332777	
7.41424	0	0	-0.221192	-0.06309	0.095372	-0.0150005	0	0	0.171319	0.186543	0	0	0.0591635	-0.126292	0.094362	-0.213485	0.135068	-0.190722	0.185271	-0.479237	0.261335	-0.288237	0.245153	-0.481142	0.053309	-0.314183	0.458749	-0.008477	0.166546	0.565998	0.0328835	-0.0191995	0.00729	0.350322	
7.41882	0	0	-0.221192	-0.06309	0.09641	-0.0179337	0	0	0.172266	0.183865	0	0	0.0454413	-0.113078	0.092575	-0.208435	0.131887	-0.181733	0.190017	-0.47248	0.254962	-0.270225	0.238837	-0.46329	0.055792	-0.296449	0.463478	0.000558	0.168373	0.58281	0.0379852	-0.0208997	0.0090555	0.367868	
7.43866	0	0	-0.221192	-0.06309	0.097448	-0.020867	0	0	0.173214	0.181188	0	0	0.031719	-0.099865	0.090788	-0.203385	0.128707	-0.172744	0.194763	-0.465723	0.248589	-0.252214	0.23252	-0.445438	0.058275	-0.278715	0.468207	0.009593	0.170201	0.599622	0.043087	-0.0226	0.010821	0.385414	
7.47681	0	0	-0.21684	-0.0595992	0.101241	-0.0188348	0	0	0.170371	0.189223	0	0	0.0434865	-0.107554	0.0872115	-0.193277	0.130298	-0.17724	0.193628	-0.462514	0.259304	-0.254594	0.230939	-0.440969	0.0678973	-0.281124	0.457897	0.0163295	0.171031	0.597277	0.0379852	-0.0208997	0.0127355	0.380003	
7.52411	0	0	-0.212487	-0.0561085	0.105035	-0.0168025	0	0	0.167528	0.197257	0	0	0.055254	-0.115243	0.083635	-0.183169	0.131888	-0.181735	0.192493	-0.459306	0.270019	-0.256973	0.229357	-0.436501	0.0775195	-0.283534	0.447588	0.023066	0.17186	0.594932	0.0328835	-0.0191995	0.01465	0.374592	
7.57446	0	0	-0.208135	-0.0526177	0.108828	-0.0147702	0	0	0.164685	0.205292	0	0	0.0670215	-0.122932	0.0800585	-0.17306	0.133479	-0.186231	0.191357	-0.456097	0.280735	-0.259353	0.227776	-0.432032	0.0871418	-0.285944	0.437279	0.0298025	0.17269	0.592587	0.0277818	-0.0174993	0.0165645	0.369182	
7.62176	0	0	-0.203783	-0.049127	0.112621	-0.012738	0	0	0.161842	0.213327	0	0	0.078789	-0.130621	0.076482	-0.162952	0.13507	-0.190727	0.190222	-0.452889	0.29145	-0.261733	0.226195	-0.427563	0.096764	-0.288353	0.426969	0.036539	0.17352	0.590242	0.02268	-0.015799	0.018479	0.363771	
7.66601	0	0	-0.201374	-0.04013	0.109504	-0.00392925	0	0	0.173018	0.218395	0	0	0.0748755	-0.119561	0.088737	-0.17096	0.133479	-0.186231	0.196106	-0.449329	0.287191	-0.249697	0.233071	-0.421739	0.0931915	-0.278256	0.424175	0.0444353	0.176092	0.593971	0.0285335	-0.0196238	0.0207975	0.368497	
7.69958	0	0	-0.198965	-0.031133	0.106387	0.0048795	0	0	0.184194	0.223464	0	0	0.070962	-0.108502	0.100992	-0.178968	0.131888	-0.181735	0.201991	-0.445769	0.282933	-0.237661	0.239946	-0.415915	0.089619	-0.268159	0.421381	0.0523315	0.178664	0.5977	0.034387	-0.0234485	0.023116	0.373223	
7.72705	0	0	-0.196557	-0.022136	0.103271	0.0136883	0	0	0.195369	0.228532	0	0	0.0670485	-0.0974417	0.113247	-0.186975	0.130298	-0.17724	0.207875	-0.442209	0.278674	-0.225626	0.246821	-0.41009	0.0860465	-0.258063	0.418587	0.0602278	0.181236	0.601429	0.0402405	-0.0272732	0.0254345	0.377948	
7.74536	0	0	-0.194148	-0.013139	0.100154	0.022497	0	0	0.206545	0.233601	0	0	0.063135	-0.086382	0.125502	-0.194983	0.128707	-0.172744	0.213759	-0.438649	0.274415	-0.21359	0.253697	-0.404266	0.082474	-0.247966	0.415793	0.068124	0.183808	0.605158	0.046094	-0.031098	0.027753	0.382674	
7.75452	0	0	-0.195122	-0.0103865	0.107067	0.015722	0	0	0.206545	0.233601	0	0	0.0690033	-0.102966	0.116823	-0.197083	0.133477	-0.186224	0.203329	-0.429364	0.274415	-0.21359	0.240489	-0.392193	0.0788973	-0.237858	0.411597	0.0799813	0.183056	0.618289	0.0402405	-0.0272732	0.0304717	0.397567	
7.75757	0	0	-0.196096	-0.007634	0.11398	0.008947	0	0	0.206545	0.233601	0	0	0.0748715	-0.119551	0.108145	-0.199184	0.138246	-0.199705	0.1929	-0.420079	0.274415	-0.21359	0.22728	-0.38012	0.0753205	-0.227749	0.407401	0.0918385	0.182304	0.63142	0.034387	-0.0234485	0.0331905	0.41246	
7.75146	0	0	-0.19707	-0.0048815	0.120892	0.002172	0	0	0.206545	0.233601	0	0	0.0807397	-0.136135	0.0994665	-0.201285	0.143016	-0.213185	0.182471	-0.410794	0.274415	-0.21359	0.214072	-0.368048	0.0717438	-0.217641	0.403206	0.103696	0.181551	0.64455	0.0285335	-0.0196238	0.0359093	0.427353	
7.74231	0	0	-0.198044	-0.002129	0.127805	-0.004603	0	0	0.206545	0.233601	0	0	0.086608	-0.152719	0.090788	-0.203385	0.147786	-0.226665	0.172041	-0.401509	0.274415	-0.21359	0.200864	-0.355975	0.068167	-0.207533	0.39901	0.115553	0.180799	0.657681	0.02268	-0.015799	0.038628	0.442246	
7.724	0	0	-0.192713	-0.0013785	0.126766	-0.00166575	0	0	0.204645	0.238971	0	0	0.0669955	-0.148391	0.0961455	-0.218526	0.150962	-0.23564	0.173178	-0.404722	0.276545	-0.21961	0.199279	-0.351495	0.0621235	-0.215237	0.400409	0.111599	0.177397	0.65629	0.0285335	-0.0196238	0.039588	0.439533	
7.70721	0	0	-0.187381	-0.000628	0.125726	0.0012715	0	0	0.202744	0.244341	0	0	0.047383	-0.144062	0.101503	-0.233666	0.154137	-0.244616	0.174315	-0.407935	0.278676	-0.225629	0.197694	-0.347016	0.05608	-0.222942	0.401809	0.107645	0.173995	0.654899	0.034387	-0.0234485	0.040548	0.43682	
7.68432	0	0	-0.182049	0.0001225	0.124687	0.00420875	0	0	0.200844	0.249711	0	0	0.0277705	-0.139734	0.10686	-0.248807	0.157313	-0.253591	0.175452	-0.411148	0.280806	-0.231649	0.196109	-0.342536	0.0500365	-0.230646	0.403208	0.103691	0.170594	0.653509	0.0402405	-0.0272732	0.041508	0.434106	
7.66449	0	0	-0.176718	0.000873	0.123648	0.007146	0	0	0.198944	0.255081	0	0	0.008158	-0.135406	0.112218	-0.263948	0.160489	-0.262566	0.176589	-0.414361	0.282936	-0.237669	0.194524	-0.338056	0.043993	-0.23835	0.404607	0.099737	0.167192	0.652118	0.046094	-0.031098	0.042468	0.431393	
7.6416	0	0	-0.172357	0.00437975	0.122608	0.010084	0	0	0.203624	0.254088	0	0	0.0218605	-0.148599	0.105329	-0.271067	0.163662	-0.271533	0.169579	-0.414718	0.297926	-0.252089	0.196109	-0.342536	0.0457787	-0.243397	0.403208	0.103691	0.159635	0.662477	0.0402405	-0.0272732	0.0457477	0.433423	
7.61871	0	0	-0.167996	0.0078865	0.121569	0.013022	0	0	0.208304	0.253096	0	0	0.035563	-0.161792	0.0984395	-0.278186	0.166834	-0.280499	0.162569	-0.415075	0.312917	-0.26651	0.197694	-0.347016	0.0475645	-0.248444	0.401809	0.107645	0.152078	0.672836	0.034387	-0.0234485	0.0490275	0.435452	
7.59888	0	0	-0.163635	0.0113933	0.120529	0.01596	0	0	0.212984	0.252103	0	0	0.0492655	-0.174984	0.0915502	-0.285305	0.170007	-0.289465	0.155559	-0.415433	0.327908	-0.28093	0.199279	-0.351495	0.0493502	-0.253491	0.400409	0.111599	0.144521	0.683195	0.0285335	-0.0196238	0.0523072	0.437481	
7.58209	0	0	-0.159274	0.0149	0.11949	0.018898	0	0	0.217664	0.25111	0	0	0.062968	-0.188177	0.084661	-0.292424	0.17318	-0.298432	0.148549	-0.41579	0.342898	-0.29535	0.200864	-0.355975	0.051136	-0.258538	0.39901	0.115553	0.136964	0.693554	0.02268	-0.015799	0.055587	0.439511	
7.56378	0	0	-0.165585	0.0169042	0.120529	0.01596	0	0	0.212984	0.252103	0	0	0.0453283	-0.189354	0.079558	-0.304553	0.169954	-0.31009	0.143816	-0.422562	0.323571	-0.296577	0.192424	-0.357343	0.0337185	-0.258784	0.394809	0.127426	0.138696	0.699657	0.0285335	-0.0196238	0.050781	0.453093	
7.547	0	0	-0.171896	0.0189085	0.121569	0.013022	0	0	0.208304	0.253096	0	0	0.0276885	-0.19053	0.074455	-0.316682	0.166728	-0.321748	0.139084	-0.429335	0.304244	-0.297805	0.183984	-0.358711	0.016301	-0.25903	0.390608	0.139299	0.140429	0.70576	0.034387	-0.0234485	0.045975	0.466676	
7.52563	0	0	-0.178207	0.0209128	0.122608	0.010084	0	0	0.203624	0.254088	0	0	0.0100487	-0.191707	0.069352	-0.328811	0.163501	-0.333406	0.134352	-0.436107	0.284916	-0.299033	0.175544	-0.36008	-0.0011165	-0.259277	0.386407	0.151173	0.142161	0.711863	0.0402405	-0.0272732	0.041169	0.480258	
7.51343	0	0	-0.184518	0.022917	0.123648	0.007146	0	0	0.198944	0.255081	0	0	-0.007591	-0.192883	0.064249	-0.34094	0.160275	-0.345064	0.129619	-0.442879	0.265589	-0.30026	0.167104	-0.361448	-0.018534	-0.259523	0.382206	0.163046	0.143893	0.717966	0.046094	-0.031098	0.036363	0.493841	
7.49664	0	0	-0.178207	0.0209128	0.117775	0.0109838	0	0	0.204574	0.251402	0	0	0.00609025	-0.206052	0.0573735	-0.348022	0.153887	-0.347762	0.134153	-0.455692	0.25913	-0.309868	0.17185	-0.37486	-0.0263332	-0.262167	0.382206	0.163046	0.143893	0.717966	0.0402405	-0.0272732	0.0392475	0.485689	
7.47986	0	0	-0.171896	0.0189085	0.111901	0.0148215	0	0	0.210205	0.247723	0	0	0.0197715	-0.21922	0.050498	-0.355105	0.147498	-0.35046	0.138686	-0.468505	0.252671	-0.319476	0.176596	-0.388273	-0.0341325	-0.264811	0.382206	0.163046	0.143893	0.717966	0.034387	-0.0234485	0.042132	0.477537	
7.4646	0	0	-0.165585	0.0169042	0.106027	0.0186592	0	0	0.215836	0.244044	0	0	0.0334528	-0.232389	0.0436225	-0.362187	0.141109	-0.353159	0.14322	-0.481318	0.246213	-0.329084	0.181342	-0.401686	-0.0419317	-0.267456	0.382206	0.163046	0.143893	0.717966	0.0285335	-0.0196238	0.0450165	0.469385	
7.45544	0	0	-0.159274	0.0149	0.100154	0.022497	0	0	0.221466	0.240365	0	0	0.047134	-0.245558	0.036747	-0.369269	0.134721	-0.355857	0.147754	-0.494131	0.239754	-0.338692	0.186088	-0.415098	-0.049731	-0.2701	0.382206	0.163046	0.143893	0.717966	0.02268	-0.015799	0.047901	0.461233	
7.44629	0	0	-0.16025	0.0176577	0.108106	0.0127857	0	0	0.211159	0.245035	0	0	0.0334528	-0.232389	0.0402935	-0.379292	0.12518	-0.349623	0.139624	-0.491279	0.241872	-0.34468	0.171333	-0.398584	-0.0419317	-0.267456	0.379402	0.17097	0.145624	0.724077	0.0219282	-0.0136745	0.0459782	0.466667	
7.44171	0	0	-0.161225	0.0204155	0.116058	0.0030745	0	0	0.200852	0.249705	0	0	0.0197715	-0.21922	0.04384	-0.389315	0.11564	-0.343388	0.131494	-0.488427	0.243991	-0.350668	0.156578	-0.38207	-0.0341325	-0.264811	0.376598	0.178895	0.147356	0.730187	0.0211765	-0.01155	0.0440555	0.472101	
7.44324	0	0	-0.162201	0.0231732	0.124009	-0.00663675	0	0	0.190545	0.254376	0	0	0.00609025	-0.206052	0.0473865	-0.399338	0.106099	-0.337154	0.123364	-0.485575	0.24611	-0.356655	0.141822	-0.365556	-0.0263332	-0.262167	0.373794	0.186819	0.149088	0.736298	0.0204247	-0.0094255	0.0421328	0.477535	
7.45697	0	0	-0.163177	0.025931	0.131961	-0.016348	0	0	0.180238	0.259046	0	0	-0.007591	-0.192883	0.050933	-0.409361	0.096558	-0.33092	0.115234	-0.482723	0.248228	-0.362643	0.127067	-0.349042	-0.018534	-0.259523	0.37099	0.194743	0.150819	0.742409	0.019673	-0.007301	0.04021	0.482969	
7.48138	0	0	-0.163177	0.025931	0.131961	-0.016348	0	0	0.185865	0.255369	0	0	-0.00564475	-0.198384	0.04406	-0.416412	0.101297	-0.344313	0.109376	-0.486272	0.241771	-0.372215	0.117072	-0.345948	-0.0131917	-0.274621	0.37099	0.194743	0.145754	0.745718	0.0255265	-0.0111258	0.028851	0.492481	
7.51648	0	0	-0.163177	0.025931	0.131961	-0.016348	0	0	0.191492	0.251692	0	0	-0.0036985	-0.203884	0.037187	-0.423464	0.106036	-0.357705	0.103518	-0.48982	0.235314	-0.381788	0.107078	-0.342855	-0.0078495	-0.289719	0.37099	0.194743	0.140689	0.749028	0.03138	-0.0149505	0.017492	0.501993	
7.56378	0	0	-0.163177	0.025931	0.131961	-0.016348	0	0	0.197118	0.248016	0	0	-0.00175225	-0.209385	0.030314	-0.430515	0.110774	-0.371097	0.0976607	-0.493368	0.228858	-0.39136	0.0970827	-0.339762	-0.00250725	-0.304817	0.37099	0.194743	0.135624	0.752337	0.0372335	-0.0187753	0.006133	0.511504	
7.6004	0	0	-0.163177	0.025931	0.131961	-0.016348	0	0	0.202745	0.244339	0	0	0.000194	-0.214886	0.023441	-0.437567	0.115513	-0.38449	0.091803	-0.496917	0.222401	-0.400932	0.087088	-0.336668	0.002835	-0.319915	0.37099	0.194743	0.130559	0.755647	0.043087	-0.0226	-0.005226	0.521016	
7.63855	0	0	-0.150538	0.0219145	0.129883	-0.0104745	0	0	0.206475	0.246032	0	0	-0.011525	-0.207228	0.0252097	-0.442566	0.107561	-0.382722	0.0906717	-0.49372	0.226625	-0.412871	0.085506	-0.332197	0.002835	-0.319915	0.35929	0.205436	0.128057	0.762719	0.0372335	-0.0187753	-0.005226	0.521016	
7.67059	0	0	-0.137899	0.017898	0.127804	-0.004601	0	0	0.210205	0.247725	0	0	-0.023244	-0.199571	0.0269785	-0.447565	0.0996085	-0.380955	0.0895405	-0.490523	0.23085	-0.42481	0.083924	-0.327726	0.002835	-0.319915	0.34759	0.21613	0.125555	0.769791	0.03138	-0.0149505	-0.005226	0.521016	
7.69348	0	0	-0.12526	0.0138815	0.125726	0.0012725	0	0	0.213934	0.249417	0	0	-0.034963	-0.191914	0.0287473	-0.452563	0.0916562	-0.379188	0.0884092	-0.487326	0.235075	-0.43675	0.082342	-0.323255	0.002835	-0.319915	0.33589	0.226823	0.123052	0.776863	0.0255265	-0.0111258	-0.005226	0.521016	
7.71026	0	0	-0.112621	0.009865	0.123648	0.007146	0	0	0.217664	0.25111	0	0	-0.046682	-0.184256	0.030516	-0.457562	0.083704	-0.37742	0.087278	-0.484129	0.239299	-0.448689	0.08076	-0.318784	0.002835	-0.319915	0.32419	0.237516	0.12055	0.783935	0.019673	-0.007301	-0.005226	0.521016	
7.72095	0	0	-0.116016	0.003602	0.127803	-0.00459725	0	0	0.211156	0.245042	0	0	-0.0486282	-0.178755	0.0183478	-0.449611	0.082126	-0.37296	0.0850145	-0.477732	0.237187	-0.442721	0.0891703	-0.3174	-0.00429	-0.299779	0.319977	0.249421	0.126508	0.789113	0.031384	-0.0149532	-0.00484225	0.531224	
7.71789	0	0	-0.119412	-0.002661	0.131959	-0.0163405	0	0	0.204649	0.238975	0	0	-0.0505745	-0.173255	0.0061795	-0.441661	0.080548	-0.368501	0.082751	-0.471334	0.235076	-0.436754	0.0975805	-0.316016	-0.011415	-0.279642	0.315765	0.261325	0.132466	0.794291	0.043095	-0.0226055	-0.0044585	0.541431	
7.71179	0	0	-0.122807	-0.008924	0.136114	-0.0280838	0	0	0.198141	0.232908	0	0	-0.0525208	-0.167754	-0.00598875	-0.43371	0.07897	-0.364041	0.0804875	-0.464937	0.232965	-0.430786	0.105991	-0.314632	-0.01854	-0.259506	0.311553	0.27323	0.138424	0.799468	0.054806	-0.0302577	-0.00407475	0.551638	
7.69958	0	0	-0.126202	-0.015187	0.140269	-0.039827	0	0	0.191633	0.22684	0	0	-0.054467	-0.162253	-0.018157	-0.425759	0.077392	-0.359581	0.078224	-0.45854	0.230853	-0.424818	0.114401	-0.313248	-0.025665	-0.239369	0.30734	0.285135	0.144382	0.804646	0.066517	-0.03791	-0.003691	0.561846	
7.68432	0	0	-0.125227	-0.017943	0.133357	-0.0330548	0	0	0.18601	0.230514	0	0	-0.054467	-0.162253	-0.02854	-0.422815	0.077392	-0.359581	0.078224	-0.45854	0.215955	-0.410492	0.112817	-0.308771	-0.0142883	-0.246803	0.29846	0.287885	0.147723	0.795206	0.054806	-0.0302577	-0.00734525	0.549597	
7.66449	0	0	-0.124252	-0.020699	0.126445	-0.0262825	0	0	0.180387	0.234189	0	0	-0.054467	-0.162253	-0.038923	-0.419872	0.077392	-0.359581	0.078224	-0.45854	0.201056	-0.396166	0.111232	-0.304293	-0.0029115	-0.254237	0.28958	0.290636	0.151063	0.785766	0.043095	-0.0226055	-0.0109995	0.537347	
7.64007	0	0	-0.123277	-0.023455	0.119533	-0.0195102	0	0	0.174764	0.237863	0	0	-0.054467	-0.162253	-0.049306	-0.416928	0.077392	-0.359581	0.078224	-0.45854	0.186158	-0.381841	0.109648	-0.299816	0.00846525	-0.261671	0.2807	0.293386	0.154403	0.776325	0.031384	-0.0149533	-0.0146538	0.525098	
7.61871	0	0	-0.122302	-0.026211	0.112621	-0.012738	0	0	0.169141	0.241537	0	0	-0.054467	-0.162253	-0.059689	-0.413984	0.077392	-0.359581	0.078224	-0.45854	0.17126	-0.367515	0.108064	-0.295338	0.019842	-0.269105	0.27182	0.296136	0.157744	0.766885	0.019673	-0.007301	-0.018308	0.512849	
7.60193	0	0	-0.123277	-0.023455	0.113659	-0.0156722	0	0	0.163522	0.245209	0	0	-0.0564147	-0.156749	-0.0579223	-0.418978	0.077392	-0.359581	0.0770915	-0.45534	0.184045	-0.375869	0.0949022	-0.283294	0.019842	-0.269105	0.283509	0.285448	0.155179	0.763123	0.0204247	-0.0094255	-0.009271	0.498594	
7.57904	0	0	-0.124252	-0.020699	0.114698	-0.0186065	0	0	0.157902	0.248881	0	0	-0.0583625	-0.151245	-0.0561555	-0.423971	0.077392	-0.359581	0.075959	-0.452139	0.19683	-0.384223	0.0817405	-0.271249	0.019842	-0.269105	0.295198	0.274759	0.152614	0.75936	0.0211765	-0.01155	-0.000234	0.48434	
7.55768	0	0	-0.125227	-0.017943	0.115736	-0.0215408	0	0	0.152282	0.252552	0	0	-0.0603103	-0.14574	-0.0543887	-0.428965	0.077392	-0.359581	0.0748265	-0.448939	0.209616	-0.392578	0.0685787	-0.259205	0.019842	-0.269105	0.306887	0.26407	0.150049	0.755598	0.0219282	-0.0136745	0.008803	0.470085	
7.54242	0	0	-0.126202	-0.015187	0.116774	-0.024475	0	0	0.146663	0.256224	0	0	-0.062258	-0.140236	-0.052622	-0.433958	0.077392	-0.359581	0.073694	-0.445738	0.222401	-0.400932	0.055417	-0.247161	0.019842	-0.269105	0.318576	0.253382	0.147484	0.751836	0.02268	-0.015799	0.01784	0.45583	
7.52106	0	0	-0.122303	-0.0262057	0.124723	-0.0341788	0	0	0.151406	0.242821	0	0	-0.064235	-0.160076	-0.057698	-0.445975	0.0836993	-0.377406	0.073694	-0.445738	0.211729	-0.39855	0.055417	-0.247161	0.010248	-0.266709	0.308291	0.260102	0.147484	0.751836	0.0285335	-0.0196238	0.021116	0.457863	
7.50427	0	0	-0.118404	-0.0372245	0.132672	-0.0438825	0	0	0.156148	0.229417	0	0	-0.066212	-0.179916	-0.062774	-0.457992	0.0900065	-0.395232	0.073694	-0.445738	0.201056	-0.396167	0.055417	-0.247161	0.000654	-0.264314	0.298006	0.266822	0.147484	0.751836	0.034387	-0.0234485	0.024392	0.459896	
7.48901	0	0	-0.114506	-0.0482433	0.140622	-0.0535863	0	0	0.160891	0.216014	0	0	-0.068189	-0.199757	-0.06785	-0.470009	0.0963138	-0.413058	0.073694	-0.445738	0.190384	-0.393785	0.055417	-0.247161	-0.00894	-0.261918	0.287721	0.273543	0.147484	0.751836	0.0402405	-0.0272732	0.027668	0.461929	
7.47681	0	0	-0.110607	-0.059262	0.148571	-0.06329	0	0	0.165634	0.202611	0	0	-0.070166	-0.219597	-0.072926	-0.482026	0.102621	-0.430883	0.073694	-0.445738	0.179712	-0.391402	0.055417	-0.247161	-0.018534	-0.259523	0.277436	0.280263	0.147484	0.751836	0.046094	-0.031098	0.030944	0.463962	
7.46612	0	0	-0.107686	-0.067517	0.143735	-0.0623835	0	0	0.167529	0.197255	0	0	-0.0643448	-0.236049	-0.0676433	-0.496956	0.0962505	-0.433562	0.0759585	-0.452138	0.183934	-0.403333	0.0585865	-0.256118	-0.0245535	-0.267197	0.272774	0.27112	0.144022	0.739617	0.0402405	-0.0272732	0.0272715	0.451765	
7.45239	0	0	-0.104765	-0.075772	0.138899	-0.061477	0	0	0.169424	0.1919	0	0	-0.0585235	-0.252501	-0.0623605	-0.511886	0.08988	-0.436242	0.078223	-0.458538	0.188156	-0.415265	0.061756	-0.265076	-0.030573	-0.274871	0.268112	0.261977	0.14056	0.727398	0.034387	-0.0234485	0.023599	0.439567	
7.44781	0	0	-0.101844	-0.084027	0.134062	-0.0605705	0	0	0.171319	0.186544	0	0	-0.0527022	-0.268952	-0.0570778	-0.526816	0.0835095	-0.438921	0.0804875	-0.464937	0.192377	-0.427196	0.0649255	-0.274033	-0.0365925	-0.282545	0.263449	0.252833	0.137098	0.71518	0.0285335	-0.0196238	0.0199265	0.42737	
7.43866	0	0	-0.098923	-0.092282	0.129226	-0.059664	0	0	0.173214	0.181188	0	0	-0.046881	-0.285404	-0.051795	-0.541746	0.077139	-0.4416	0.082752	-0.471337	0.196599	-0.439127	0.068095	-0.28299	-0.042612	-0.290219	0.258787	0.24369	0.133636	0.702961	0.02268	-0.015799	0.016254	0.415173	
7.42187	0	0	-0.106216	-0.0875168	0.124393	-0.058759	0	0	0.16388	0.183172	0	0	-0.058568	-0.277768	-0.0639118	-0.533829	0.0787122	-0.446046	0.074641	-0.468496	0.198708	-0.445087	0.056534	-0.275436	-0.05218	-0.287832	0.249928	0.246435	0.131073	0.699213	0.0168302	-0.0119768	0.0158532	0.405027	
7.41577	0	0	-0.113509	-0.0827515	0.119561	-0.057854	0	0	0.154546	0.185157	0	0	-0.070255	-0.270131	-0.0760285	-0.525911	0.0802855	-0.450492	0.06653	-0.465654	0.200817	-0.451047	0.044973	-0.267882	-0.061748	-0.285445	0.241068	0.24918	0.128509	0.695465	0.0109805	-0.0081545	0.0154525	0.394882	
7.40509	0	0	-0.120801	-0.0779862	0.114728	-0.056949	0	0	0.145212	0.187141	0	0	-0.081942	-0.262494	-0.0881453	-0.517994	0.0818588	-0.454939	0.058419	-0.462813	0.202926	-0.457006	0.033412	-0.260328	-0.071316	-0.283058	0.232209	0.251925	0.125946	0.691718	0.00513075	-0.00433225	0.0150518	0.384737	
7.40051	0	0	-0.128094	-0.073221	0.109895	-0.056044	0	0	0.135878	0.189125	0	0	-0.093629	-0.254858	-0.100262	-0.510077	0.083432	-0.459385	0.050308	-0.459972	0.205035	-0.462966	0.021851	-0.252774	-0.080884	-0.280671	0.22335	0.25467	0.123382	0.68797	-0.000719	-0.00051	0.014651	0.374591	
7.38525	0	0	-0.12226	-0.0897082	0.109209	-0.0668492	0	0	0.131284	0.177743	0	0	-0.097555	-0.26912	-0.094988	-0.524982	0.078638	-0.466498	0.0422065	-0.457136	0.207142	-0.468922	0.0118892	-0.249705	-0.071316	-0.283058	0.22335	0.25467	0.116663	0.695975	-0.00731625	0.005434	0.0188843	0.373905	
7.37915	0	0	-0.116426	-0.106195	0.108523	-0.0776545	0	0	0.126691	0.166362	0	0	-0.101481	-0.283383	-0.089714	-0.539887	0.073844	-0.47361	0.034105	-0.4543	0.209249	-0.474878	0.0019275	-0.246636	-0.061748	-0.285445	0.22335	0.25467	0.109943	0.703981	-0.0139135	0.011378	0.0231175	0.373219	
7.36999	0	0	-0.110592	-0.122683	0.107837	-0.0884598	0	0	0.122097	0.15498	0	0	-0.105407	-0.297646	-0.08444	-0.554792	0.06905	-0.480722	0.0260035	-0.451464	0.211357	-0.480833	-0.00803425	-0.243568	-0.05218	-0.287832	0.22335	0.25467	0.103224	0.711986	-0.0205108	0.017322	0.0273508	0.372533	
7.36694	0	0	-0.104758	-0.13917	0.107151	-0.099265	0	0	0.117504	0.143599	0	0	-0.109333	-0.311908	-0.079166	-0.569697	0.064256	-0.487835	0.017902	-0.448628	0.213464	-0.486789	-0.017996	-0.240499	-0.042612	-0.290219	0.22335	0.25467	0.096504	0.719991	-0.027108	0.023266	0.031584	0.371847	
7.39593	0	0	-0.103787	-0.141915	0.107151	-0.099265	0	0	0.124998	0.134599	0	0	-0.097662	-0.319534	-0.07741	-0.57466	0.0658263	-0.492273	0.0190328	-0.451824	0.200698	-0.478447	-0.00645075	-0.248043	-0.050402	-0.292856	0.22615	0.246756	0.0964393	0.709196	-0.0263563	0.0211415	0.026946	0.362406	
7.44324	0	0	-0.102816	-0.14466	0.107151	-0.099265	0	0	0.132491	0.125598	0	0	-0.085991	-0.327161	-0.075654	-0.579622	0.0673965	-0.49671	0.0201635	-0.45502	0.187931	-0.470106	0.0050945	-0.255587	-0.058192	-0.295493	0.228951	0.238843	0.0963745	0.6984	-0.0256045	0.019017	0.022308	0.352965	
7.51495	0	0	-0.101844	-0.147405	0.107151	-0.099265	0	0	0.139985	0.116597	0	0	-0.07432	-0.334787	-0.073898	-0.584585	0.0689667	-0.501147	0.0212943	-0.458215	0.175165	-0.461764	0.0166397	-0.263131	-0.065982	-0.298131	0.231751	0.230929	0.0963097	0.687604	-0.0248527	0.0168925	0.01767	0.343523	
7.61261	0	0	-0.100873	-0.15015	0.107151	-0.099265	0	0	0.147479	0.107597	0	0	-0.062649	-0.342413	-0.072142	-0.589548	0.070537	-0.505585	0.022425	-0.461411	0.162399	-0.453422	0.028185	-0.270675	-0.073772	-0.300768	0.234551	0.223015	0.096245	0.676809	-0.024101	0.014768	0.013032	0.334082	
7.71179	0	0	-0.0955233	-0.149425	0.106116	-0.0963395	0	0	0.14093	0.113928	0	0	-0.0781902	-0.323849	-0.073898	-0.584585	0.0594683	-0.494941	0.030527	-0.464248	0.164505	-0.459374	0.0266015	-0.2662	-0.0642033	-0.303158	0.231751	0.230929	0.100467	0.675855	-0.024101	0.014768	0.012076	0.336784	
7.81402	0	0	-0.0901735	-0.148699	0.10508	-0.093414	0	0	0.134381	0.120259	0	0	-0.0937315	-0.305285	-0.075654	-0.579622	0.0483995	-0.484297	0.038629	-0.467085	0.166611	-0.465326	0.025018	-0.261725	-0.0546345	-0.305548	0.228951	0.238843	0.104689	0.674902	-0.024101	0.014768	0.01112	0.339485	
7.90253	0	0	-0.0848238	-0.147973	0.104045	-0.0904885	0	0	0.127832	0.12659	0	0	-0.109273	-0.286721	-0.07741	-0.57466	0.0373308	-0.473653	0.046731	-0.469922	0.168717	-0.471277	0.0234345	-0.257249	-0.0450658	-0.307938	0.22615	0.246756	0.108911	0.673948	-0.024101	0.014768	0.010164	0.342187	
7.97424	0	0	-0.079474	-0.147248	0.10301	-0.087563	0	0	0.121283	0.132921	0	0	-0.124814	-0.268157	-0.079166	-0.569697	0.026262	-0.463009	0.054833	-0.472759	0.170823	-0.477229	0.021851	-0.252774	-0.035497	-0.310328	0.22335	0.25467	0.113133	0.672994	-0.024101	0.014768	0.009208	0.344889	
8.03375	0	0	-0.0848238	-0.147973	0.109911	-0.0943212	0	0	0.11757	0.131244	0	0	-0.120944	-0.279095	-0.07741	-0.57466	0.0294015	-0.471882	0.0514382	-0.463165	0.179376	-0.473663	0.0170955	-0.239335	-0.042618	-0.290203	0.232209	0.251925	0.109808	0.682392	-0.0182555	0.0109485	0.0138442	0.354335	
8.09784	0	0	-0.0901735	-0.148699	0.116812	-0.10108	0	0	0.113857	0.129568	0	0	-0.117073	-0.290033	-0.075654	-0.579622	0.032541	-0.480755	0.0480435	-0.453571	0.187929	-0.470098	0.01234	-0.225895	-0.049739	-0.270077	0.241068	0.24918	0.106483	0.69179	-0.01241	0.007129	0.0184805	0.363781	
8.13751	0	0	-0.0955233	-0.149425	0.123712	-0.107838	0	0	0.110144	0.127891	0	0	-0.113203	-0.30097	-0.073898	-0.584585	0.0356805	-0.489628	0.0446488	-0.443977	0.196482	-0.466532	0.0075845	-0.212455	-0.05686	-0.249952	0.249928	0.246435	0.103157	0.701189	-0.0065645	0.0033095	0.0231167	0.373228	
8.17871	0	0	-0.100873	-0.15015	0.130613	-0.114596	0	0	0.106431	0.126214	0	0	-0.109333	-0.311908	-0.072142	-0.589548	0.03882	-0.498501	0.041254	-0.434383	0.205035	-0.462966	0.002829	-0.199016	-0.063981	-0.229827	0.258787	0.24369	0.099832	0.710587	-0.000719	-0.00051	0.027753	0.382674	
8.21991	0	0	-0.096495	-0.146678	0.123712	-0.107838	0	0	0.106431	0.126214	0	0	-0.109333	-0.311908	-0.072142	-0.589548	0.03882	-0.498501	0.0435175	-0.44078	0.185839	-0.46415	0.00600025	-0.207978	-0.0682067	-0.242538	0.266256	0.244902	0.099	0.712938	-0.012406	0.0071265	0.027348	0.37254	
8.27484	0	0	-0.092117	-0.143206	0.116812	-0.10108	0	0	0.106431	0.126214	0	0	-0.109333	-0.311908	-0.072142	-0.589548	0.03882	-0.498501	0.045781	-0.447178	0.166644	-0.465334	0.0091715	-0.21694	-0.0724325	-0.255249	0.273724	0.246114	0.098168	0.715289	-0.024093	0.014763	0.026943	0.362407	
8.34808	0	0	-0.087739	-0.139734	0.109911	-0.0943212	0	0	0.106431	0.126214	0	0	-0.109333	-0.311908	-0.072142	-0.589548	0.03882	-0.498501	0.0480445	-0.453575	0.147449	-0.466519	0.0123427	-0.225901	-0.0766582	-0.26796	0.281193	0.247326	0.097336	0.71764	-0.03578	0.0223995	0.026538	0.352274	
8.41064	0	0	-0.083361	-0.136262	0.10301	-0.087563	0	0	0.106431	0.126214	0	0	-0.109333	-0.311908	-0.072142	-0.589548	0.03882	-0.498501	0.050308	-0.459972	0.128253	-0.467703	0.015514	-0.234863	-0.080884	-0.280671	0.288662	0.248538	0.096504	0.719991	-0.047467	0.030036	0.026133	0.34214	
8.46863	0	0	-0.06094	-0.136113	0.106804	-0.0855415	0	0	0.09248	0.129181	0	0	-0.113203	-0.30097	-0.0670552	-0.577597	0.0403888	-0.502934	0.0422065	-0.457136	0.136657	-0.491455	0.0170982	-0.239341	-0.079106	-0.285695	0.285855	0.256469	0.103289	0.722792	-0.0533045	0.0338502	0.0195843	0.338112	
8.52051	0	0	-0.038519	-0.135964	0.110598	-0.08352	0	0	0.078529	0.132148	0	0	-0.117073	-0.290033	-0.0619685	-0.565647	0.0419575	-0.507367	0.034105	-0.4543	0.145062	-0.515206	0.0186825	-0.243818	-0.077328	-0.29072	0.283049	0.2644	0.110075	0.725594	-0.059142	0.0376645	0.0130355	0.334084	
8.5556	0	0	-0.016098	-0.135816	0.114392	-0.0814985	0	0	0.064578	0.135114	0	0	-0.120944	-0.279095	-0.0568818	-0.553696	0.0435263	-0.5118	0.0260035	-0.451464	0.153466	-0.538957	0.0202668	-0.248296	-0.07555	-0.295744	0.280243	0.272332	0.11686	0.728395	-0.0649795	0.0414788	0.00648675	0.330056	
8.58917	0	0	0.006323	-0.135667	0.118186	-0.079477	0	0	0.050627	0.138081	0	0	-0.124814	-0.268157	-0.051795	-0.541746	0.045095	-0.516233	0.017902	-0.448628	0.16187	-0.562709	0.021851	-0.252774	-0.073772	-0.300768	0.277436	0.280263	0.123645	0.731196	-0.070817	0.045293	-6.2E-05	0.326028	
8.61053	0	0	0.0244142	-0.139017	0.119222	-0.0824045	0	0	0.0488735	0.118768	0	0	-0.11508	-0.270309	-0.055316	-0.531795	0.0292643	-0.5127	0.0132003	-0.455378	0.13003	-0.555568	0.013472	-0.254178	-0.07555	-0.295744	0.271816	0.296147	0.131335	0.742477	-0.0824803	0.052914	0.0032115	0.328041	
8.62427	0	0	0.0425055	-0.142367	0.120258	-0.085332	0	0	0.04712	0.0994555	0	0	-0.105345	-0.272462	-0.058837	-0.521845	0.0134335	-0.509167	0.0084985	-0.462128	0.0981905	-0.548426	0.005093	-0.255583	-0.077328	-0.29072	0.266196	0.31203	0.139025	0.753758	-0.0941435	0.060535	0.006485	0.330055	
8.62579	0	0	0.0605967	-0.145717	0.121294	-0.0882595	0	0	0.0453665	0.0801427	0	0	-0.0956112	-0.274614	-0.062358	-0.511894	-0.00239725	-0.505635	0.00379675	-0.468878	0.0663508	-0.541285	-0.003286	-0.256988	-0.079106	-0.285695	0.260575	0.327914	0.146715	0.76504	-0.105807	0.068156	0.0097585	0.332068	
8.60748	0	0	0.078688	-0.149067	0.12233	-0.091187	0	0	0.043613	0.06083	0	0	-0.085877	-0.276767	-0.065879	-0.501944	-0.018228	-0.502102	-0.000905	-0.475628	0.034511	-0.534144	-0.011665	-0.258392	-0.080884	-0.280671	0.254955	0.343798	0.154405	0.776321	-0.11747	0.075777	0.013032	0.334082	
8.58459	0	0	0.0929227	-0.141395	0.12233	-0.091187	0	0	0.0269542	0.0594698	0	0	-0.097548	-0.269141	-0.0537452	-0.509872	-0.0245633	-0.504767	-0.004476	-0.485553	0.034379	-0.561303	-0.005342	-0.276262	-0.0868852	-0.288331	0.254955	0.343798	0.159476	0.773008	-0.123296	0.0795837	0.0022635	0.330742	
8.5556	0	0	0.107157	-0.133722	0.12233	-0.091187	0	0	0.0102955	0.0581095	0	0	-0.109219	-0.261514	-0.0416115	-0.5178	-0.0308985	-0.507432	-0.008047	-0.495478	0.034247	-0.588461	0.000981	-0.294132	-0.0928865	-0.29599	0.254955	0.343798	0.164547	0.769694	-0.129121	0.0833905	-0.008505	0.327402	
8.51288	0	0	0.121392	-0.12605	0.12233	-0.091187	0	0	-0.00636325	0.0567493	0	0	-0.12089	-0.253888	-0.0294777	-0.525729	-0.0372337	-0.510097	-0.011618	-0.505402	0.034115	-0.61562	0.007304	-0.312002	-0.0988877	-0.30365	0.254955	0.343798	0.169618	0.766381	-0.134946	0.0871973	-0.0192735	0.324063	
8.48541	0	0	0.135627	-0.118378	0.12233	-0.091187	0	0	-0.023022	0.055389	0	0	-0.132561	-0.246262	-0.017344	-0.533657	-0.043569	-0.512762	-0.015189	-0.515327	0.033983	-0.642779	0.013627	-0.329872	-0.104889	-0.31131	0.254955	0.343798	0.174689	0.763067	-0.140772	0.091004	-0.030042	0.320723	
8.45795	0	0	0.148919	-0.107917	0.120258	-0.0853308	0	0	-0.0220837	0.052737	0	0	-0.124767	-0.24293	-0.006955	-0.536617	-0.049897	-0.515425	-0.01876	-0.52523	0.00441175	-0.64156	0.00683125	-0.335717	-0.112657	-0.313944	0.252141	0.35175	0.182334	0.763516	-0.152412	0.0986095	-0.0342628	0.321408	
8.45184	0	0	0.16221	-0.097457	0.118185	-0.0794745	0	0	-0.0211455	0.050085	0	0	-0.116974	-0.239599	0.003434	-0.539578	-0.056225	-0.518088	-0.022331	-0.535133	-0.0251595	-0.640342	3.55E-05	-0.341562	-0.120425	-0.316578	0.249327	0.359703	0.18998	0.763964	-0.164051	0.106215	-0.0384835	0.322093	
8.48389	0	0	0.175502	-0.0869965	0.116113	-0.0736182	0	0	-0.0202073	0.047433	0	0	-0.10918	-0.236268	0.013823	-0.542538	-0.062553	-0.520751	-0.025902	-0.545036	-0.0547308	-0.639123	-0.00676025	-0.347408	-0.128194	-0.319213	0.246514	0.367655	0.197625	0.764413	-0.17569	0.113821	-0.0427042	0.322777	
8.53271	0	0	0.188794	-0.076536	0.114041	-0.067762	0	0	-0.019269	0.044781	0	0	-0.101386	-0.232936	0.024212	-0.545498	-0.068881	-0.523414	-0.029473	-0.554939	-0.084302	-0.637904	-0.013556	-0.353253	-0.135962	-0.321847	0.2437	0.375607	0.20527	0.764861	-0.18733	0.121426	-0.046925	0.323462	
8.59833	0	0	0.200618	-0.0778688	0.108176	-0.0639295	0	0	-0.0247705	0.0361552	0	0	-0.105268	-0.221965	0.022449	-0.540516	-0.0673177	-0.527832	-0.029473	-0.554939	-0.0780673	-0.655524	-0.013556	-0.353253	-0.129969	-0.314194	0.251169	0.376846	0.213828	0.773808	-0.17569	0.113821	-0.0423015	0.33289	
8.66394	0	0	0.212443	-0.0792015	0.10231	-0.060097	0	0	-0.030272	0.0275295	0	0	-0.10915	-0.210994	0.020686	-0.535534	-0.0657545	-0.53225	-0.029473	-0.554939	-0.0718325	-0.673145	-0.013556	-0.353253	-0.123977	-0.306542	0.258637	0.378086	0.222385	0.782755	-0.164051	0.106215	-0.037678	0.342319	
8.72345	0	0	0.224268	-0.0805343	0.0964445	-0.0562645	0	0	-0.0357735	0.0189038	0	0	-0.113032	-0.200022	0.018923	-0.530552	-0.0641913	-0.536667	-0.029473	-0.554939	-0.0655977	-0.690765	-0.013556	-0.353253	-0.117984	-0.298889	0.266105	0.379325	0.230942	0.791701	-0.152412	0.0986095	-0.0330545	0.351747	
8.77075	0	0	0.236092	-0.081867	0.090579	-0.052432	0	0	-0.041275	0.010278	0	0	-0.116914	-0.189051	0.01716	-0.52557	-0.062628	-0.541085	-0.029473	-0.554939	-0.059363	-0.708385	-0.013556	-0.353253	-0.111992	-0.291236	0.273574	0.380564	0.2395	0.800648	-0.140772	0.091004	-0.028431	0.361175	
8.81653	0	0	0.238575	-0.0728198	0.094371	-0.0504047	0	0	-0.045896	0.011263	0	0	-0.105227	-0.196687	0.020685	-0.535532	-0.070512	-0.539328	-0.044475	-0.552468	-0.0657377	-0.717739	-0.0219183	-0.354638	-0.110216	-0.296254	0.272165	0.384547	0.238663	0.803014	-0.158225	0.102408	-0.0274752	0.358474	
8.83789	0	0	0.241057	-0.0637725	0.098163	-0.0483775	0	0	-0.050517	0.012248	0	0	-0.09354	-0.204324	0.02421	-0.545493	-0.078396	-0.537572	-0.059477	-0.549996	-0.0721125	-0.727094	-0.0302805	-0.356023	-0.10844	-0.301273	0.270755	0.388529	0.237825	0.805381	-0.175679	0.113812	-0.0265195	0.355773	
8.85773	0	0	0.24354	-0.0547253	0.101955	-0.0463503	0	0	-0.055138	0.013233	0	0	-0.081853	-0.21196	0.027735	-0.555454	-0.08628	-0.535815	-0.074479	-0.547525	-0.0784873	-0.736449	-0.0386427	-0.357407	-0.106665	-0.306291	0.269346	0.392512	0.236988	0.807748	-0.193132	0.125217	-0.0255638	0.353072	
8.8623	0	0	0.246023	-0.045678	0.105747	-0.044323	0	0	-0.059759	0.014218	0	0	-0.070166	-0.219597	0.03126	-0.565416	-0.094164	-0.534058	-0.089481	-0.545054	-0.084862	-0.745803	-0.047005	-0.358792	-0.104889	-0.31131	0.267937	0.396494	0.236151	0.810114	-0.210585	0.136621	-0.024608	0.350371	
8.85773	0	0	0.248504	-0.0366135	0.101596	-0.0325915	0	0	-0.061632	0.0195118	0	0	-0.0604058	-0.221753	0.03126	-0.565416	-0.0910415	-0.542883	-0.088357	-0.548231	-0.0932993	-0.749288	-0.0454302	-0.363243	-0.103114	-0.316326	0.266527	0.400478	0.239565	0.811524	-0.205523	0.134947	-0.0265198	0.355774	
8.84552	0	0	0.250985	-0.027549	0.097445	-0.02086	0	0	-0.063505	0.0248055	0	0	-0.0506455	-0.223909	0.03126	-0.565416	-0.087919	-0.551708	-0.087233	-0.551407	-0.101737	-0.752773	-0.0438555	-0.367694	-0.101339	-0.321341	0.265118	0.404463	0.242978	0.812934	-0.200461	0.133273	-0.0284315	0.361177	
8.84247	0	0	0.253467	-0.0184845	0.093294	-0.0091285	0	0	-0.065378	0.0300993	0	0	-0.0408852	-0.226066	0.03126	-0.565416	-0.0847965	-0.560532	-0.086109	-0.554584	-0.110174	-0.756259	-0.0422807	-0.372144	-0.0995648	-0.326357	0.263708	0.408447	0.246391	0.814344	-0.195399	0.131598	-0.0303432	0.366579	
8.86078	0	0	0.255948	-0.00942	0.089143	0.002603	0	0	-0.067251	0.035393	0	0	-0.031125	-0.228222	0.03126	-0.565416	-0.081674	-0.569357	-0.084985	-0.55776	-0.118611	-0.759744	-0.040706	-0.376595	-0.09779	-0.331373	0.262298	0.412431	0.249805	0.815754	-0.190337	0.129924	-0.032255	0.371982	
8.91724	0	0	0.255948	-0.00942	0.0950125	-0.00123225	0	0	-0.0736745	0.0294203	0	0	-0.0369605	-0.21173	0.02087	-0.562453	-0.0911097	-0.563191	-0.0827382	-0.56411	-0.129103	-0.757383	-0.0422807	-0.372144	-0.101341	-0.321339	0.258065	0.424394	0.253281	0.828063	-0.184519	0.126122	-0.021486	0.37534	
8.98743	0	0	0.255948	-0.00942	0.100882	-0.0050675	0	0	-0.080098	0.0234475	0	0	-0.042796	-0.195238	0.01048	-0.55949	-0.100545	-0.557025	-0.0804915	-0.570459	-0.139595	-0.755022	-0.0438555	-0.367694	-0.104891	-0.311304	0.253832	0.436358	0.256757	0.840373	-0.178702	0.122321	-0.010717	0.378698	
9.05456	0	0	0.255948	-0.00942	0.106751	-0.00890275	0	0	-0.0865215	0.0174747	0	0	-0.0486315	-0.178745	9E-05	-0.556527	-0.109981	-0.55086	-0.0782448	-0.576808	-0.150086	-0.752662	-0.0454302	-0.363243	-0.108441	-0.30127	0.249599	0.448321	0.260234	0.852683	-0.172884	0.118519	5.2E-05	0.382056	
9.12475	0	0	0.255948	-0.00942	0.112621	-0.012738	0	0	-0.092945	0.011502	0	0	-0.054467	-0.162253	-0.0103	-0.553564	-0.119417	-0.544694	-0.075998	-0.583158	-0.160578	-0.750301	-0.047005	-0.358792	-0.111992	-0.291236	0.245366	0.460284	0.26371	0.864992	-0.167066	0.114718	0.010821	0.385414	
9.18121	0	0	0.263354	-0.0142592	0.112621	-0.012738	0	0	-0.0910747	0.006216	0	0	-0.054467	-0.162253	0.00185075	-0.561504	-0.114739	-0.557915	-0.072631	-0.592674	-0.166922	-0.759622	-0.0422828	-0.372138	-0.110216	-0.296254	0.245366	0.460284	0.265389	0.860247	-0.172884	0.118519	0.004277	0.381373	
9.23309	0	0	0.27076	-0.0190985	0.112621	-0.012738	0	0	-0.0892045	0.00093	0	0	-0.054467	-0.162253	0.0140015	-0.569443	-0.110061	-0.571136	-0.069264	-0.602189	-0.173266	-0.768944	-0.0375605	-0.385483	-0.10844	-0.301273	0.245366	0.460284	0.267068	0.855501	-0.178702	0.122321	-0.002267	0.377331	
9.28192	0	0	0.278166	-0.0239378	0.112621	-0.012738	0	0	-0.0873343	-0.004356	0	0	-0.054467	-0.162253	0.0261522	-0.577383	-0.105383	-0.584356	-0.065897	-0.611705	-0.179609	-0.778266	-0.0328382	-0.398829	-0.106665	-0.306291	0.245366	0.460284	0.268747	0.850756	-0.184519	0.126122	-0.008811	0.37329	
9.31244	0	0	0.285572	-0.028777	0.112621	-0.012738	0	0	-0.085464	-0.009642	0	0	-0.054467	-0.162253	0.038303	-0.585323	-0.100705	-0.597577	-0.06253	-0.621221	-0.185953	-0.787587	-0.028116	-0.412175	-0.104889	-0.31131	0.245366	0.460284	0.270426	0.846011	-0.190337	0.129924	-0.015355	0.369249	
9.3338	0	0	0.29003	-0.02527	0.116417	-0.0107042	0	0	-0.0799138	-0.0132687	0	0	-0.0446957	-0.164406	0.038303	-0.585323	-0.0991473	-0.60198	-0.0683398	-0.624733	-0.204796	-0.788715	-0.0265435	-0.416619	-0.114431	-0.308931	0.245366	0.460284	0.274685	0.845052	-0.190337	0.129924	-0.0143988	0.366546	
9.35364	0	0	0.294488	-0.021763	0.120213	-0.0086705	0	0	-0.0743635	-0.0168955	0	0	-0.0349245	-0.166559	0.038303	-0.585323	-0.0975895	-0.606382	-0.0741495	-0.628245	-0.223639	-0.789843	-0.024971	-0.421064	-0.123973	-0.306553	0.245366	0.460284	0.278944	0.844093	-0.190337	0.129924	-0.0134425	0.363844	
9.36737	0	0	0.298945	-0.018256	0.124009	-0.00663675	0	0	-0.0688132	-0.0205222	0	0	-0.0251533	-0.168713	0.038303	-0.585323	-0.0960317	-0.610785	-0.0799592	-0.631756	-0.242483	-0.790971	-0.0233985	-0.425508	-0.133515	-0.304174	0.245366	0.460284	0.283202	0.843134	-0.190337	0.129924	-0.0124863	0.361142	
9.39178	0	0	0.303403	-0.014749	0.127805	-0.004603	0	0	-0.063263	-0.024149	0	0	-0.015382	-0.170866	0.038303	-0.585323	-0.094474	-0.615187	-0.085769	-0.635268	-0.261326	-0.792099	-0.021826	-0.429952	-0.143057	-0.301795	0.245366	0.460284	0.287461	0.842175	-0.190337	0.129924	-0.01153	0.358439	
9.41467	0	0	0.298945	-0.018256	0.12297	-0.0037015	0	0	-0.0696887	-0.030099	0	0	-0.027101	-0.163208	0.040063	-0.590297	-0.111758	-0.607276	-0.0846487	-0.638434	-0.255152	-0.809547	-0.021826	-0.429952	-0.133515	-0.304174	0.242541	0.468268	0.292625	0.849754	-0.189585	0.1278	-0.0069	0.367889	
9.43756	0	0	0.294488	-0.021763	0.118136	-0.0028	0	0	-0.0761145	-0.036049	0	0	-0.03882	-0.155551	0.041823	-0.595271	-0.129041	-0.599366	-0.0835285	-0.641601	-0.248978	-0.826995	-0.021826	-0.429952	-0.123973	-0.306553	0.239715	0.476253	0.297789	0.857333	-0.188833	0.125675	-0.00227	0.37734	
9.45892	0	0	0.29003	-0.02527	0.113301	-0.0018985	0	0	-0.0825403	-0.041999	0	0	-0.050539	-0.147894	0.043583	-0.600244	-0.146324	-0.591456	-0.0824083	-0.644767	-0.242804	-0.844444	-0.021826	-0.429952	-0.114431	-0.308931	0.23689	0.484237	0.302953	0.864912	-0.188082	0.123551	0.00236	0.386791	
9.48181	0	0	0.285572	-0.028777	0.108467	-0.000997	0	0	-0.088966	-0.047949	0	0	-0.062258	-0.140236	0.045343	-0.605218	-0.163608	-0.583545	-0.081288	-0.647933	-0.23663	-0.861892	-0.021826	-0.429952	-0.104889	-0.31131	0.234065	0.492221	0.308117	0.872491	-0.18733	0.121426	0.00699	0.396241	
9.51538	0	0	0.292984	-0.0336202	0.11434	-0.00483475	0	0	-0.0880328	-0.050587	0	0	-0.0485913	-0.153398	0.036709	-0.607218	-0.160496	-0.59234	-0.085974	-0.6546	-0.242955	-0.871147	-0.028612	-0.435758	-0.110884	-0.318954	0.23689	0.484237	0.306374	0.866326	-0.199705	0.131145	0.0075445	0.383403	
9.52759	0	0	0.300397	-0.0384635	0.120214	-0.0086725	0	0	-0.0870995	-0.053225	0	0	-0.0349245	-0.166559	0.028075	-0.609217	-0.157384	-0.601134	-0.09066	-0.661266	-0.249281	-0.880402	-0.035398	-0.441563	-0.11688	-0.326599	0.239715	0.476253	0.304632	0.86016	-0.212081	0.140865	0.008099	0.370565	
9.552	0	0	0.30781	-0.0433067	0.126087	-0.0125103	0	0	-0.0861662	-0.055863	0	0	-0.0212577	-0.179721	0.019441	-0.611217	-0.154273	-0.609928	-0.095346	-0.667932	-0.255607	-0.889656	-0.042184	-0.447369	-0.122876	-0.334243	0.242541	0.468268	0.302889	0.853994	-0.224457	0.150585	0.0086535	0.357727	
9.57489	0	0	0.315222	-0.04815	0.131961	-0.016348	0	0	-0.085233	-0.058501	0	0	-0.007591	-0.192883	0.010807	-0.613217	-0.151161	-0.618723	-0.100032	-0.674599	-0.261932	-0.898911	-0.04897	-0.453174	-0.128871	-0.341887	0.245366	0.460284	0.301147	0.847829	-0.236832	0.160304	0.009208	0.344889	
9.5993	0	0	0.314237	-0.0453675	0.131961	-0.016348	0	0	-0.0796863	-0.0621252	0	0	-0.007591	-0.192883	0.0004305	-0.610254	-0.149606	-0.623117	-0.104715	-0.681254	-0.255782	-0.916291	-0.0588842	-0.450106	-0.13486	-0.349516	0.236493	0.463015	0.303666	0.84071	-0.23608	0.15818	0.0153515	0.338797	
9.62982	0	0	0.313252	-0.042585	0.131961	-0.016348	0	0	-0.0741395	-0.0657495	0	0	-0.007591	-0.192883	-0.009946	-0.607291	-0.148052	-0.627511	-0.109397	-0.687909	-0.249632	-0.933671	-0.0687985	-0.447037	-0.14085	-0.357144	0.22762	0.465746	0.306185	0.833591	-0.235328	0.156055	0.021495	0.332706	
9.62829	0	0	0.312268	-0.0398025	0.131961	-0.016348	0	0	-0.0685928	-0.0693737	0	0	-0.007591	-0.192883	-0.0203225	-0.604329	-0.146497	-0.631904	-0.11408	-0.694563	-0.243483	-0.951052	-0.0787127	-0.443969	-0.14684	-0.364773	0.218746	0.468476	0.308704	0.826472	-0.234577	0.15393	0.0276385	0.326615	
9.62067	0	0	0.311283	-0.03702	0.131961	-0.016348	0	0	-0.063046	-0.072998	0	0	-0.007591	-0.192883	-0.030699	-0.601366	-0.144942	-0.636298	-0.118762	-0.701218	-0.237333	-0.968432	-0.088627	-0.440901	-0.152829	-0.372402	0.209873	0.471207	0.311223	0.819353	-0.233825	0.151806	0.033782	0.320523	
9.60998	0	0	0.305839	-0.0377407	0.135076	-0.025151	0	0	-0.064862	-0.0799175	0	0	-0.00959	-0.212696	-0.0357975	-0.613283	-0.146585	-0.65209	-0.124557	-0.704708	-0.258159	-0.963717	-0.0953915	-0.446701	-0.170084	-0.37265	0.212694	0.463233	0.306122	0.822686	-0.234577	0.15393	0.0299563	0.331335	
9.60541	0	0	0.300396	-0.0384615	0.13819	-0.033954	0	0	-0.066678	-0.086837	0	0	-0.011589	-0.232509	-0.040896	-0.625201	-0.148227	-0.667882	-0.130352	-0.708199	-0.278986	-0.959002	-0.102156	-0.4525	-0.18734	-0.372897	0.215515	0.455259	0.301021	0.82602	-0.235328	0.156055	0.0261305	0.342147	
9.60541	0	0	0.294953	-0.0391823	0.141305	-0.042757	0	0	-0.068494	-0.0937565	0	0	-0.013588	-0.252321	-0.0459945	-0.637118	-0.149869	-0.683673	-0.136146	-0.71169	-0.299812	-0.954287	-0.108921	-0.458299	-0.204595	-0.373145	0.218337	0.447286	0.295919	0.829353	-0.23608	0.15818	0.0223047	0.352959	
9.57794	0	0	0.289509	-0.039903	0.14442	-0.05156	0	0	-0.07031	-0.100676	0	0	-0.015587	-0.272134	-0.051093	-0.649036	-0.151512	-0.699465	-0.141941	-0.71518	-0.320639	-0.949572	-0.115685	-0.464099	-0.221851	-0.373393	0.221158	0.439312	0.290818	0.832686	-0.236832	0.160304	0.018479	0.363771	
9.55658	0	0	0.291477	-0.0454637	0.139584	-0.0506545	0	0	-0.0647632	-0.1043	0	0	-0.0078325	-0.294049	-0.0440902	-0.668827	-0.154711	-0.710838	-0.154625	-0.719003	-0.314509	-0.966896	-0.122441	-0.469888	-0.224289	-0.390962	0.216521	0.430098	0.28817	0.818024	-0.242638	0.164098	0.0180727	0.353648	
9.52453	0	0	0.293444	-0.0510245	0.134748	-0.049749	0	0	-0.0592165	-0.107925	0	0	-7.8E-05	-0.315965	-0.0370875	-0.688617	-0.157909	-0.72221	-0.16731	-0.722826	-0.30838	-0.98422	-0.129197	-0.475678	-0.226727	-0.408531	0.211884	0.420884	0.285521	0.803362	-0.248444	0.167891	0.0176665	0.343525	
9.48944	0	0	0.295412	-0.0565853	0.129913	-0.0488435	0	0	-0.0536698	-0.111549	0	0	0.0076765	-0.337881	-0.0300848	-0.708408	-0.161108	-0.733583	-0.179995	-0.726648	-0.30225	-1.00154	-0.135954	-0.481467	-0.229165	-0.426101	0.207246	0.411671	0.282873	0.7887	-0.25425	0.171685	0.0172603	0.333401	
9.46045	0	0	0.29738	-0.062146	0.125077	-0.047938	0	0	-0.048123	-0.115173	0	0	0.015431	-0.359796	-0.023082	-0.728199	-0.164306	-0.744955	-0.192679	-0.730471	-0.29612	-1.01887	-0.14271	-0.487257	-0.231603	-0.44367	0.202609	0.402457	0.280225	0.774038	-0.260056	0.175479	0.016854	0.323278	
9.44977	0	0	0.29738	-0.062146	0.13095	-0.051776	0	0	-0.048123	-0.115173	0	0	0.00566375	-0.357619	-0.0402765	-0.732145	-0.161213	-0.753698	-0.189339	-0.73991	-0.29204	-1.0304	-0.149458	-0.493037	-0.235808	-0.456214	0.196569	0.397235	0.280153	0.763178	-0.259304	0.173354	0.0135803	0.321266	
9.43909	0	0	0.29738	-0.062146	0.136824	-0.055614	0	0	-0.048123	-0.115173	0	0	-0.0041035	-0.355443	-0.057471	-0.736091	-0.158119	-0.76244	-0.185999	-0.749348	-0.28796	-1.04193	-0.156206	-0.498816	-0.240013	-0.468757	0.190528	0.392014	0.280081	0.752319	-0.258553	0.17123	0.0103065	0.319254	
9.43451	0	0	0.29738	-0.062146	0.142698	-0.059452	0	0	-0.048123	-0.115173	0	0	-0.0138708	-0.353267	-0.0746655	-0.740037	-0.155026	-0.771182	-0.18266	-0.758787	-0.28388	-1.05346	-0.162954	-0.504596	-0.244217	-0.481301	0.184488	0.386792	0.280008	0.74146	-0.257801	0.169105	0.00703275	0.317243	
9.43298	0	0	0.29738	-0.062146	0.148571	-0.06329	0	0	-0.048123	-0.115173	0	0	-0.023638	-0.35109	-0.09186	-0.743983	-0.151932	-0.779925	-0.17932	-0.768226	-0.2798	-1.06499	-0.169702	-0.510376	-0.248422	-0.493845	0.178448	0.38157	0.279936	0.7306	-0.257049	0.166981	0.003759	0.315231	
9.43756	0	0	0.294887	-0.0711935	0.140975	-0.0673368	0	0	-0.0508745	-0.119448	0	0	-0.0295252	-0.359845	-0.0848882	-0.763686	-0.156682	-0.786891	-0.185098	-0.771699	-0.290195	-1.06263	-0.166579	-0.519201	-0.257893	-0.491474	0.179853	0.377598	0.279936	0.7306	-0.257801	0.169105	0.00512125	0.322645	
9.45587	0	0	0.292395	-0.080241	0.133379	-0.0713835	0	0	-0.053626	-0.123724	0	0	-0.0354125	-0.3686	-0.0779165	-0.78339	-0.161432	-0.793857	-0.190877	-0.775172	-0.30059	-1.06026	-0.163457	-0.528026	-0.267363	-0.489103	0.181258	0.373626	0.279936	0.7306	-0.258553	0.17123	0.0064835	0.33006	
9.49097	0	0	0.289903	-0.0892885	0.125782	-0.0754303	0	0	-0.0563775	-0.127999	0	0	-0.0412997	-0.377355	-0.0709448	-0.803094	-0.166181	-0.800824	-0.196656	-0.778645	-0.310984	-1.0579	-0.160334	-0.53685	-0.276834	-0.486732	0.182664	0.369655	0.279936	0.7306	-0.259304	0.173354	0.00784575	0.337475	
9.52148	0	0	0.28741	-0.098336	0.118186	-0.079477	0	0	-0.059129	-0.132275	0	0	-0.047187	-0.38611	-0.063973	-0.822797	-0.170931	-0.80779	-0.202434	-0.782118	-0.321379	-1.05553	-0.157212	-0.545675	-0.286305	-0.484361	0.184069	0.365683	0.279936	0.7306	-0.260056	0.175479	0.009208	0.344889	
9.53827	0	0	0.288392	-0.101111	0.118186	-0.079477	0	0	-0.0489635	-0.136894	0	0	-0.0433262	-0.397021	-0.0622323	-0.827716	-0.169387	-0.812152	-0.200212	-0.788398	-0.317307	-1.06704	-0.167074	-0.54262	-0.294007	-0.486957	0.186878	0.357744	0.273938	0.725443	-0.265106	0.177146	0.0182177	0.330697	
9.56573	0	0	0.289374	-0.103886	0.118186	-0.079477	0	0	-0.038798	-0.141512	0	0	-0.0394655	-0.407932	-0.0604915	-0.832635	-0.167844	-0.816514	-0.19799	-0.794679	-0.313234	-1.07855	-0.176936	-0.539566	-0.301709	-0.489553	0.189687	0.349806	0.26794	0.720287	-0.270157	0.178812	0.0272275	0.316505	
9.58099	0	0	0.290356	-0.106661	0.118186	-0.079477	0	0	-0.0286325	-0.14613	0	0	-0.0356048	-0.418842	-0.0587507	-0.837554	-0.1663	-0.820875	-0.195768	-0.800959	-0.309162	-1.09006	-0.186799	-0.536512	-0.309412	-0.492149	0.192496	0.341867	0.261942	0.71513	-0.275207	0.180479	0.0362372	0.302314	
9.59015	0	0	0.291338	-0.109436	0.118186	-0.079477	0	0	-0.018467	-0.150749	0	0	-0.031744	-0.429753	-0.05701	-0.842473	-0.164757	-0.825237	-0.193546	-0.807239	-0.30509	-1.10157	-0.196661	-0.533457	-0.317114	-0.494745	0.195305	0.333929	0.255944	0.709973	-0.280257	0.182146	0.045247	0.288122	
9.60541	0	0	0.290356	-0.106661	0.121983	-0.077454	0	0	-0.025881	-0.141855	0	0	-0.0336738	-0.424299	-0.067336	-0.839506	-0.1663	-0.820875	-0.201541	-0.804428	-0.30509	-1.10157	-0.195102	-0.537864	-0.31536	-0.499702	0.186461	0.336659	0.257613	0.705256	-0.274455	0.178355	0.0400593	0.291512	
9.62067	0	0	0.289374	-0.103886	0.125779	-0.075431	0	0	-0.033295	-0.132961	0	0	-0.0356035	-0.418845	-0.077662	-0.836539	-0.167844	-0.816514	-0.209535	-0.801617	-0.30509	-1.10157	-0.193543	-0.542271	-0.313605	-0.50466	0.177616	0.339388	0.259282	0.700538	-0.268653	0.174563	0.0348715	0.294901	
9.63287	0	0	0.288392	-0.101111	0.129576	-0.073408	0	0	-0.040709	-0.124067	0	0	-0.0375332	-0.413392	-0.087988	-0.833571	-0.169387	-0.812152	-0.217529	-0.798806	-0.30509	-1.10157	-0.191983	-0.546678	-0.311851	-0.509617	0.168772	0.342118	0.260952	0.69582	-0.262851	0.170772	0.0296838	0.298291	
9.64203	0	0	0.28741	-0.098336	0.133373	-0.071385	0	0	-0.048123	-0.115173	0	0	-0.039463	-0.407938	-0.098314	-0.830604	-0.170931	-0.80779	-0.225524	-0.795995	-0.30509	-1.10157	-0.190424	-0.551085	-0.310097	-0.514574	0.159927	0.344848	0.262621	0.691103	-0.257049	0.166981	0.024496	0.301681	
9.64813	0	0	0.283936	-0.104595	0.134409	-0.0743145	0	0	-0.040709	-0.124067	0	0	-0.0472757	-0.411216	-0.0931007	-0.845337	-0.175677	-0.814744	-0.222195	-0.805404	-0.315471	-1.09921	-0.184194	-0.568691	-0.314289	-0.527058	0.16133	0.340883	0.258373	0.692066	-0.262851	0.170772	0.0310522	0.305701	
9.65423	0	0	0.280462	-0.110854	0.135446	-0.077244	0	0	-0.033295	-0.132961	0	0	-0.0550885	-0.414494	-0.0878875	-0.86007	-0.180423	-0.821697	-0.218865	-0.814813	-0.325851	-1.09684	-0.177965	-0.586296	-0.318481	-0.539543	0.162733	0.336919	0.254124	0.693029	-0.268653	0.174563	0.0376085	0.309722	
9.67255	0	0	0.276988	-0.117113	0.136483	-0.0801735	0	0	-0.025881	-0.141855	0	0	-0.0629012	-0.417772	-0.0826743	-0.874802	-0.185169	-0.82865	-0.215536	-0.824222	-0.336232	-1.09448	-0.171735	-0.603902	-0.322673	-0.552028	0.164135	0.332954	0.249876	0.693993	-0.274455	0.178355	0.0441648	0.313743	
9.66797	0	0	0.273514	-0.123372	0.137519	-0.083103	0	0	-0.018467	-0.150749	0	0	-0.070714	-0.42105	-0.077461	-0.889535	-0.189915	-0.835604	-0.212207	-0.833631	-0.346613	-1.09211	-0.165505	-0.621508	-0.326865	-0.564512	0.165538	0.328989	0.245627	0.694956	-0.280257	0.182146	0.050721	0.317763	
9.65729	0	0	0.274494	-0.126143	0.143393	-0.086941	0	0	-0.00921925	-0.152742	0	0	-0.0649355	-0.437381	-0.084305	-0.896371	-0.186834	-0.844313	-0.219085	-0.833955	-0.332166	-1.10597	-0.175357	-0.618451	-0.319874	-0.58427	0.158106	0.327753	0.245548	0.684141	-0.280257	0.182146	0.0493525	0.310353	
9.63135	0	0	0.275475	-0.128914	0.149266	-0.090779	0	0	2.85E-05	-0.154735	0	0	-0.059157	-0.453713	-0.091149	-0.903207	-0.183752	-0.853021	-0.225963	-0.834278	-0.317718	-1.11983	-0.185208	-0.615393	-0.312883	-0.604028	0.150674	0.326518	0.24547	0.673326	-0.280257	0.182146	0.047984	0.302943	
9.61151	0	0	0.276456	-0.131686	0.15514	-0.094617	0	0	0.00927625	-0.156729	0	0	-0.0533785	-0.470044	-0.097993	-0.910043	-0.180671	-0.86173	-0.232841	-0.834602	-0.30327	-1.13369	-0.19506	-0.612335	-0.305892	-0.623786	0.143243	0.325282	0.245391	0.662511	-0.280257	0.182146	0.0466155	0.295532	
9.58862	0	0	0.277436	-0.134457	0.161014	-0.098455	0	0	0.018524	-0.158722	0	0	-0.0476	-0.486376	-0.104837	-0.916879	-0.17759	-0.870438	-0.239719	-0.834926	-0.288823	-1.14754	-0.204912	-0.609278	-0.298901	-0.643544	0.135811	0.324046	0.245312	0.651696	-0.280257	0.182146	0.045247	0.288122	
9.56116	0	0	0.278416	-0.137228	0.159977	-0.0955255	0	0	0.0120342	-0.152456	0	0	-0.049525	-0.480935	-0.115136	-0.913915	-0.17759	-0.870438	-0.239719	-0.834926	-0.286791	-1.15329	-0.203357	-0.613672	-0.298901	-0.643544	0.147448	0.313398	0.246977	0.64699	-0.280257	0.182146	0.0419687	0.286115	
9.53369	0	0	0.279397	-0.139998	0.15894	-0.092596	0	0	0.0055445	-0.14619	0	0	-0.05145	-0.475495	-0.125434	-0.91095	-0.17759	-0.870438	-0.239719	-0.834926	-0.28476	-1.15903	-0.201802	-0.618065	-0.298901	-0.643544	0.159084	0.302751	0.248642	0.642283	-0.280257	0.182146	0.0386905	0.284109	
9.50012	0	0	0.280377	-0.142768	0.157904	-0.0896665	0	0	-0.00094525	-0.139923	0	0	-0.053375	-0.470055	-0.135733	-0.907986	-0.17759	-0.870438	-0.239719	-0.834926	-0.282728	-1.16477	-0.200248	-0.622459	-0.298901	-0.643544	0.170721	0.292103	0.250308	0.637576	-0.280257	0.182146	0.0354123	0.282103	
9.46197	0	0	0.281357	-0.145539	0.156867	-0.086737	0	0	-0.007435	-0.133657	0	0	-0.0553	-0.464614	-0.146031	-0.905022	-0.17759	-0.870438	-0.239719	-0.834926	-0.280697	-1.17051	-0.198693	-0.626853	-0.298901	-0.643544	0.182358	0.281455	0.251973	0.63287	-0.280257	0.182146	0.032134	0.280096	
9.42688	0	0	0.277882	-0.151781	0.15894	-0.092595	0	0	-0.004639	-0.141559	0	0	-0.0611835	-0.47331	-0.154583	-0.906959	-0.174511	-0.879138	-0.235288	-0.847447	-0.287025	-1.1796	-0.192482	-0.644407	-0.312537	-0.653574	0.173522	0.284185	0.243486	0.634799	-0.280257	0.182146	0.0292695	0.288191	
9.39026	0	0	0.274407	-0.158023	0.161013	-0.098453	0	0	-0.001843	-0.149461	0	0	-0.067067	-0.482005	-0.163135	-0.908895	-0.171433	-0.887838	-0.230858	-0.859968	-0.293353	-1.18869	-0.186271	-0.661961	-0.326173	-0.663604	0.164687	0.286916	0.235	0.636728	-0.280257	0.182146	0.026405	0.296287	
9.34753	0	0	0.270932	-0.164266	0.163086	-0.104311	0	0	0.000953	-0.157363	0	0	-0.0729505	-0.490701	-0.171686	-0.910832	-0.168355	-0.896538	-0.226428	-0.872489	-0.299682	-1.19778	-0.180059	-0.679515	-0.339809	-0.673634	0.155852	0.289647	0.226514	0.638656	-0.280257	0.182146	0.0235405	0.304383	
9.31854	0	0	0.267457	-0.170508	0.165159	-0.110169	0	0	0.003749	-0.165265	0	0	-0.078834	-0.499397	-0.180238	-0.912768	-0.165276	-0.905238	-0.221997	-0.88501	-0.30601	-1.20687	-0.173848	-0.697069	-0.353445	-0.683664	0.147016	0.292377	0.218027	0.640585	-0.280257	0.182146	0.020676	0.312478	
9.31702	0	0	0.269414	-0.176039	0.17	-0.111081	0	0	0.0093065	-0.168897	0	0	-0.0769125	-0.504828	-0.166493	-0.925508	-0.171564	-0.907811	-0.22887	-0.885327	-0.303984	-1.21259	-0.182139	-0.698389	-0.338796	-0.700798	0.151214	0.280514	0.216282	0.634498	-0.286055	0.185935	0.0264023	0.296294	
9.32617	0	0	0.271371	-0.181571	0.174841	-0.111993	0	0	0.014864	-0.172528	0	0	-0.074991	-0.510258	-0.152749	-0.938248	-0.177852	-0.910384	-0.235743	-0.885644	-0.301957	-1.21832	-0.19043	-0.699709	-0.324146	-0.717931	0.155411	0.268651	0.214538	0.628411	-0.291853	0.189723	0.0321285	0.280111	
9.35974	0	0	0.273329	-0.187103	0.179683	-0.112905	0	0	0.0204215	-0.176159	0	0	-0.0730695	-0.515689	-0.139004	-0.950988	-0.184141	-0.912958	-0.242616	-0.885961	-0.29993	-1.22405	-0.198721	-0.70103	-0.309497	-0.735065	0.159609	0.256789	0.212793	0.622324	-0.297651	0.193512	0.0378547	0.263927	
9.40399	0	0	0.275286	-0.192634	0.184524	-0.113817	0	0	0.025979	-0.179791	0	0	-0.071148	-0.52112	-0.125259	-0.963728	-0.190429	-0.915531	-0.249489	-0.886278	-0.297904	-1.22977	-0.207012	-0.70235	-0.294847	-0.752199	0.163806	0.244926	0.211049	0.616237	-0.303449	0.1973	0.043581	0.247744	
9.45282	0	0	0.269855	-0.193335	0.179683	-0.112905	0	0	0.0176612	-0.180426	0	0	-0.0730695	-0.515689	-0.137274	-0.955878	-0.188892	-0.919874	-0.240403	-0.892215	-0.295879	-1.2355	-0.19562	-0.709794	-0.296587	-0.747282	0.154981	0.247656	0.216951	0.610575	-0.303449	0.1973	0.043581	0.247744	
9.48944	0	0	0.264424	-0.194037	0.174841	-0.111993	0	0	0.0093435	-0.18106	0	0	-0.074991	-0.510258	-0.149288	-0.948027	-0.187356	-0.924216	-0.231318	-0.898152	-0.293855	-1.24122	-0.184228	-0.717237	-0.298326	-0.742366	0.146155	0.250385	0.222853	0.604912	-0.303449	0.1973	0.043581	0.247744	
9.51843	0	0	0.258993	-0.194739	0.17	-0.111081	0	0	0.00102575	-0.181694	0	0	-0.0769125	-0.504828	-0.161303	-0.940176	-0.185819	-0.928558	-0.222232	-0.904089	-0.29183	-1.24694	-0.172836	-0.724681	-0.300065	-0.737449	0.137329	0.253115	0.228755	0.59925	-0.303449	0.1973	0.043581	0.247744	
9.53369	0	0	0.253562	-0.19544	0.165159	-0.110169	0	0	-0.007292	-0.182329	0	0	-0.078834	-0.499397	-0.173318	-0.932326	-0.184283	-0.932901	-0.213146	-0.910026	-0.289805	-1.25266	-0.161444	-0.732125	-0.301805	-0.732533	0.128504	0.255845	0.234657	0.593588	-0.303449	0.1973	0.043581	0.247744	
9.53979	0	0	0.249114	-0.198903	0.165159	-0.110169	0	0	-0.005431	-0.187588	0	0	-0.071155	-0.5211	-0.169861	-0.942097	-0.189031	-0.939804	-0.210934	-0.916276	-0.298156	-1.256	-0.16819	-0.737811	-0.306022	-0.744884	0.134089	0.240059	0.230329	0.58379	-0.315033	0.20487	0.0379795	0.241053	
9.53979	0	0	0.244665	-0.202366	0.165159	-0.110169	0	0	-0.00357	-0.192848	0	0	-0.063476	-0.542802	-0.166403	-0.951867	-0.193779	-0.946708	-0.208723	-0.922525	-0.306507	-1.25933	-0.174936	-0.743498	-0.310238	-0.757235	0.139675	0.224274	0.226001	0.573992	-0.326618	0.212439	0.032378	0.234363	
9.52606	0	0	0.240216	-0.205829	0.165159	-0.110169	0	0	-0.001709	-0.198107	0	0	-0.055797	-0.564504	-0.162946	-0.961638	-0.198528	-0.953612	-0.206512	-0.928774	-0.314857	-1.26267	-0.181682	-0.749184	-0.314455	-0.769586	0.14526	0.208489	0.221673	0.564194	-0.338202	0.220008	0.0267765	0.227672	
9.49707	0	0	0.235768	-0.209292	0.165159	-0.110169	0	0	0.000152	-0.203367	0	0	-0.048118	-0.586207	-0.159489	-0.971409	-0.203276	-0.960515	-0.2043	-0.935024	-0.323208	-1.266	-0.188428	-0.75487	-0.318672	-0.781937	0.150845	0.192703	0.217345	0.554396	-0.349786	0.227578	0.021175	0.220981	
9.46808	0	0	0.235768	-0.209292	0.158249	-0.103403	0	0	-0.00632875	-0.197111	0	0	-0.0597572	-0.578602	-0.166308	-0.978206	-0.209553	-0.963076	-0.212281	-0.93221	-0.321187	-1.27171	-0.188428	-0.75487	-0.311735	-0.801543	0.153634	0.184821	0.221489	0.542684	-0.343996	0.223795	0.0188518	0.216296	
9.42688	0	0	0.235768	-0.209292	0.151339	-0.096636	0	0	-0.0128095	-0.190855	0	0	-0.0713965	-0.570997	-0.173127	-0.985003	-0.21583	-0.965637	-0.220261	-0.929396	-0.319165	-1.27743	-0.188428	-0.75487	-0.304797	-0.821149	0.156423	0.176938	0.225633	0.530972	-0.338205	0.220011	0.0165285	0.211611	
9.38721	0	0	0.235768	-0.209292	0.144429	-0.0898695	0	0	-0.0192902	-0.184599	0	0	-0.0830357	-0.563391	-0.179945	-0.991799	-0.222106	-0.968199	-0.228242	-0.926583	-0.317144	-1.28314	-0.188428	-0.75487	-0.297859	-0.840756	0.159213	0.169056	0.229778	0.51926	-0.332415	0.216227	0.0142052	0.206926	
9.34906	0	0	0.235768	-0.209292	0.137519	-0.083103	0	0	-0.025771	-0.178343	0	0	-0.094675	-0.555786	-0.186764	-0.998596	-0.228383	-0.97076	-0.236223	-0.923769	-0.315123	-1.28885	-0.188428	-0.75487	-0.290922	-0.860362	0.162002	0.161174	0.233922	0.507548	-0.326625	0.212444	0.011882	0.202241	
9.31549	0	0	0.231323	-0.212752	0.138555	-0.0860317	0	0	-0.0239105	-0.183601	0	0	-0.0927583	-0.561203	-0.18504	-1.00347	-0.226851	-0.97509	-0.236223	-0.923769	-0.315123	-1.28885	-0.178584	-0.757939	-0.294389	-0.850564	0.160608	0.165114	0.233094	0.509889	-0.326625	0.212444	0.0203385	0.20085	
9.30023	0	0	0.226878	-0.216211	0.139592	-0.0889605	0	0	-0.02205	-0.188858	0	0	-0.0908415	-0.56662	-0.183316	-1.00834	-0.225319	-0.97942	-0.236223	-0.923769	-0.315123	-1.28885	-0.16874	-0.761008	-0.297855	-0.840766	0.159214	0.169054	0.232266	0.51223	-0.326625	0.212444	0.028795	0.19946	
9.30328	0	0	0.222432	-0.21967	0.140628	-0.0918893	0	0	-0.0201895	-0.194116	0	0	-0.0889247	-0.572038	-0.181591	-1.01322	-0.223787	-0.98375	-0.236223	-0.923769	-0.315123	-1.28885	-0.158896	-0.764078	-0.301322	-0.830969	0.157819	0.172995	0.231437	0.514571	-0.326625	0.212444	0.0372515	0.198069	
9.33227	0	0	0.217987	-0.22313	0.141664	-0.094818	0	0	-0.018329	-0.199374	0	0	-0.087008	-0.577455	-0.179867	-1.01809	-0.222255	-0.98808	-0.236223	-0.923769	-0.315123	-1.28885	-0.149052	-0.767147	-0.304789	-0.821171	0.156425	0.176935	0.230609	0.516912	-0.326625	0.212444	0.045708	0.196678	
9.37042	0	0	0.218963	-0.225888	0.141664	-0.094818	0	0	-0.0173993	-0.202002	0	0	-0.0948013	-0.580685	-0.176421	-1.02783	-0.217663	-1.00106	-0.235118	-0.926891	-0.300706	-1.30266	-0.158896	-0.764078	-0.303055	-0.826071	0.150394	0.171792	0.234749	0.505212	-0.332415	0.216227	0.0391533	0.192694	
9.41009	0	0	0.219938	-0.228646	0.141664	-0.094818	0	0	-0.0164695	-0.20463	0	0	-0.102595	-0.583915	-0.172975	-1.03757	-0.213071	-1.01403	-0.234013	-0.930013	-0.28629	-1.31647	-0.16874	-0.761008	-0.301322	-0.830971	0.144364	0.166649	0.238889	0.493513	-0.338205	0.220011	0.0325985	0.18871	
9.45129	0	0	0.220914	-0.231403	0.141664	-0.094818	0	0	-0.0155397	-0.207258	0	0	-0.110388	-0.587144	-0.169529	-1.04731	-0.208479	-1.02701	-0.232909	-0.933135	-0.271873	-1.33028	-0.178584	-0.757939	-0.299588	-0.835872	0.138333	0.161505	0.243028	0.481813	-0.343996	0.223795	0.0260437	0.184725	
9.48334	0	0	0.22189	-0.234161	0.141664	-0.094818	0	0	-0.01461	-0.209886	0	0	-0.118181	-0.590374	-0.166083	-1.05705	-0.203887	-1.03999	-0.231804	-0.936257	-0.257457	-1.34408	-0.188428	-0.75487	-0.297854	-0.840772	0.132302	0.156362	0.247168	0.470113	-0.349786	0.227578	0.019489	0.180741	
9.5047	0	0	0.219938	-0.228645	0.139591	-0.0889598	0	0	-0.0174002	-0.202	0	0	-0.120096	-0.584963	-0.166083	-1.05705	-0.21475	-1.02957	-0.234014	-0.930012	-0.257457	-1.34408	-0.189976	-0.750495	-0.288419	-0.84317	0.141121	0.153626	0.24634	0.472452	-0.343996	0.223795	0.0246673	0.177358	
9.51538	0	0	0.217986	-0.223129	0.137518	-0.0831015	0	0	-0.0201905	-0.194114	0	0	-0.12201	-0.579552	-0.166083	-1.05705	-0.225613	-1.01914	-0.236224	-0.923767	-0.257457	-1.34408	-0.191524	-0.746121	-0.278983	-0.845568	0.149939	0.150891	0.245513	0.474791	-0.338205	0.220011	0.0298455	0.173974	
9.51691	0	0	0.216035	-0.217612	0.135446	-0.0772432	0	0	-0.0229808	-0.186229	0	0	-0.123925	-0.574142	-0.166083	-1.05705	-0.236476	-1.00872	-0.238434	-0.917522	-0.257457	-1.34408	-0.193072	-0.741747	-0.269547	-0.847966	0.158757	0.148155	0.244686	0.477129	-0.332415	0.216227	0.0350237	0.170591	
9.5108	0	0	0.214083	-0.212096	0.133373	-0.071385	0	0	-0.025771	-0.178343	0	0	-0.12584	-0.568731	-0.166083	-1.05705	-0.247339	-0.9983	-0.240644	-0.911277	-0.257457	-1.34408	-0.19462	-0.737372	-0.260112	-0.850364	0.167576	0.14542	0.243858	0.479468	-0.326625	0.212444	0.040202	0.167207	
9.49707	0	0	0.209643	-0.215555	0.135446	-0.0772432	0	0	-0.0229807	-0.186229	0	0	-0.12584	-0.568731	-0.166083	-1.05705	-0.247339	-0.9983	-0.234876	-0.907838	-0.261498	-1.33266	-0.187876	-0.73168	-0.267057	-0.830736	0.161998	0.161185	0.248198	0.489232	-0.326625	0.212444	0.0439063	0.17926	
9.47571	0	0	0.205202	-0.219013	0.137518	-0.0831015	0	0	-0.0201905	-0.194114	0	0	-0.12584	-0.568731	-0.166083	-1.05705	-0.247339	-0.9983	-0.229107	-0.904398	-0.265539	-1.32124	-0.181132	-0.725987	-0.274002	-0.811109	0.15642	0.176949	0.252538	0.498995	-0.326625	0.212444	0.0476105	0.191314	
9.44061	0	0	0.200761	-0.222472	0.139591	-0.0889598	0	0	-0.0174002	-0.202	0	0	-0.12584	-0.568731	-0.166083	-1.05705	-0.247339	-0.9983	-0.223339	-0.900959	-0.269579	-1.30982	-0.174388	-0.720294	-0.280947	-0.791481	0.150842	0.192713	0.256878	0.508759	-0.326625	0.212444	0.0513147	0.203368	
9.40704	0	0	0.196321	-0.225931	0.141664	-0.094818	0	0	-0.01461	-0.209886	0	0	-0.12584	-0.568731	-0.166083	-1.05705	-0.247339	-0.9983	-0.217571	-0.89752	-0.27362	-1.2984	-0.167644	-0.714602	-0.287892	-0.771853	0.145264	0.208478	0.261218	0.518522	-0.326625	0.212444	0.055019	0.215421	
9.37195	0	0	0.202713	-0.227988	0.145465	-0.0927977	0	0	-0.0210865	-0.203634	0	0	-0.12584	-0.568731	-0.166083	-1.05705	-0.247339	-0.9983	-0.210689	-0.897207	-0.275643	-1.29269	-0.170747	-0.705834	-0.276708	-0.779161	0.155488	0.201798	0.262047	0.516179	-0.326625	0.212444	0.0569237	0.210038	
9.3338	0	0	0.209105	-0.230046	0.149265	-0.0907775	0	0	-0.027563	-0.197381	0	0	-0.12584	-0.568731	-0.166083	-1.05705	-0.247339	-0.9983	-0.203807	-0.896894	-0.277665	-1.28697	-0.173849	-0.697065	-0.265524	-0.786469	0.165711	0.195117	0.262876	0.513836	-0.326625	0.212444	0.0588285	0.204655	
9.29718	0	0	0.215498	-0.232104	0.153066	-0.0887572	0	0	-0.0340395	-0.191129	0	0	-0.12584	-0.568731	-0.166083	-1.05705	-0.247339	-0.9983	-0.196925	-0.896581	-0.279687	-1.28126	-0.176952	-0.688296	-0.254341	-0.793777	0.175934	0.188437	0.263705	0.511493	-0.326625	0.212444	0.0607333	0.199271	
9.26514	0	0	0.22189	-0.234161	0.156867	-0.086737	0	0	-0.040516	-0.184877	0	0	-0.12584	-0.568731	-0.166083	-1.05705	-0.247339	-0.9983	-0.190043	-0.896268	-0.28171	-1.27554	-0.180055	-0.679528	-0.243157	-0.801085	0.186158	0.181757	0.264534	0.50915	-0.326625	0.212444	0.062638	0.193888	
9.23462	0	0	0.219938	-0.228645	0.14892	-0.0770373	0	0	-0.0377605	-0.180613	0	0	-0.127756	-0.563317	-0.167805	-1.05218	-0.239536	-1.00007	-0.183153	-0.895957	-0.273344	-1.27221	-0.183161	-0.670751	-0.235436	-0.798572	0.186158	0.181757	0.269608	0.505834	-0.320831	0.208658	0.0616857	0.196579	
9.198	0	0	0.217986	-0.223129	0.140972	-0.0673375	0	0	-0.035005	-0.176349	0	0	-0.129671	-0.557903	-0.169528	-1.04731	-0.231734	-1.00185	-0.176263	-0.895646	-0.264977	-1.26888	-0.186266	-0.661974	-0.227716	-0.79606	0.186158	0.181757	0.274682	0.502519	-0.315037	0.204872	0.0607335	0.199271	
9.17206	0	0	0.216035	-0.217612	0.133024	-0.0576378	0	0	-0.0322495	-0.172086	0	0	-0.131587	-0.552489	-0.17125	-1.04244	-0.223932	-1.00362	-0.169374	-0.895335	-0.256611	-1.26555	-0.189371	-0.653197	-0.219996	-0.793547	0.186158	0.181757	0.279756	0.499204	-0.309243	0.201086	0.0597813	0.201962	
9.13696	0	0	0.214083	-0.212096	0.125077	-0.047938	0	0	-0.029494	-0.167822	0	0	-0.133503	-0.547075	-0.172973	-1.03757	-0.216129	-1.00539	-0.162484	-0.895024	-0.248245	-1.26222	-0.192477	-0.64442	-0.212275	-0.791034	0.186158	0.181757	0.28483	0.495888	-0.303449	0.1973	0.058829	0.204653	
9.11102	0	0	0.207691	-0.21004	0.126114	-0.0508695	0	0	-0.027633	-0.173081	0	0	-0.129672	-0.5579	-0.17125	-1.04244	-0.213068	-1.01404	-0.163592	-0.891892	-0.250271	-1.2565	-0.18107	-0.651874	-0.221734	-0.788633	0.173142	0.19633	0.282342	0.502919	-0.303449	0.1973	0.0634877	0.214035	
9.07898	0	0	0.201299	-0.207985	0.127152	-0.053801	0	0	-0.025772	-0.178341	0	0	-0.125842	-0.568724	-0.169528	-1.04731	-0.210008	-1.02269	-0.1647	-0.888761	-0.252298	-1.25077	-0.169663	-0.659328	-0.231193	-0.786232	0.160125	0.210903	0.279855	0.50995	-0.303449	0.1973	0.0681465	0.223418	
9.05456	0	0	0.194908	-0.205929	0.128189	-0.0567325	0	0	-0.023911	-0.1836	0	0	-0.122011	-0.579549	-0.167805	-1.05218	-0.206948	-1.03134	-0.165809	-0.885629	-0.254324	-1.24504	-0.158256	-0.666781	-0.240652	-0.783831	0.147109	0.225476	0.277367	0.516981	-0.303449	0.1973	0.0728053	0.232801	
9.0332	0	0	0.188516	-0.203873	0.129226	-0.059664	0	0	-0.02205	-0.18886	0	0	-0.118181	-0.590374	-0.166083	-1.05705	-0.203887	-1.03999	-0.166917	-0.882497	-0.25635	-1.23932	-0.146849	-0.674235	-0.250111	-0.78143	0.134093	0.240049	0.274879	0.524012	-0.303449	0.1973	0.077464	0.242183	
9.00268	0	0	0.190467	-0.209388	0.134062	-0.0605705	0	0	-0.01743	-0.189857	0	0	-0.114355	-0.601186	-0.172902	-1.0638	-0.211691	-1.03821	-0.168025	-0.879364	-0.245945	-1.24171	-0.148403	-0.669843	-0.248373	-0.786344	0.144316	0.233369	0.278196	0.514638	-0.297651	0.193512	0.0793715	0.236792	
8.9798	0	0	0.192418	-0.214902	0.138899	-0.061477	0	0	-0.01281	-0.190854	0	0	-0.11053	-0.611998	-0.179721	-1.07056	-0.219495	-1.03644	-0.169134	-0.876231	-0.23554	-1.2441	-0.149957	-0.665452	-0.246634	-0.791257	0.15454	0.226689	0.281512	0.505265	-0.291853	0.189723	0.081279	0.231401	
8.95843	0	0	0.19437	-0.220416	0.143735	-0.0623835	0	0	-0.00819	-0.191852	0	0	-0.106704	-0.62281	-0.18654	-1.07732	-0.227299	-1.03466	-0.170243	-0.873098	-0.225134	-1.2465	-0.151511	-0.66106	-0.244896	-0.796171	0.164764	0.220008	0.284829	0.495892	-0.286055	0.185935	0.0831865	0.226009	
8.93555	0	0	0.196321	-0.225931	0.148571	-0.06329	0	0	-0.00357	-0.192849	0	0	-0.102879	-0.633622	-0.193359	-1.08408	-0.235103	-1.03288	-0.171351	-0.869965	-0.214729	-1.24889	-0.153065	-0.656668	-0.243157	-0.801085	0.174987	0.213328	0.288146	0.486518	-0.280257	0.182146	0.085094	0.220618	
8.91418	0	0	0.183554	-0.221826	0.148571	-0.06329	0	0	-0.0137365	-0.188227	0	0	-0.100968	-0.639023	-0.189922	-1.0938	-0.22577	-1.03898	-0.173569	-0.863696	-0.206337	-1.24555	-0.144753	-0.655342	-0.235436	-0.798572	0.174987	0.213328	0.287317	0.488861	-0.280257	0.182146	0.0935773	0.21922	
8.89587	0	0	0.170787	-0.21772	0.148571	-0.06329	0	0	-0.023903	-0.183606	0	0	-0.0990565	-0.644424	-0.186486	-1.10351	-0.216437	-1.04508	-0.175787	-0.857426	-0.197945	-1.24222	-0.136441	-0.654015	-0.227716	-0.79606	0.174987	0.213328	0.286488	0.491203	-0.280257	0.182146	0.10206	0.217822	
8.87909	0	0	0.158021	-0.213615	0.148571	-0.06329	0	0	-0.0340695	-0.178984	0	0	-0.0971453	-0.649825	-0.18305	-1.11322	-0.207104	-1.05118	-0.178006	-0.851157	-0.189554	-1.23888	-0.128128	-0.652689	-0.219996	-0.793547	0.174987	0.213328	0.285659	0.493545	-0.280257	0.182146	0.110544	0.216423	
8.8562	0	0	0.145254	-0.20951	0.148571	-0.06329	0	0	-0.044236	-0.174363	0	0	-0.095234	-0.655226	-0.179613	-1.12293	-0.197771	-1.05727	-0.180224	-0.844888	-0.181162	-1.23555	-0.119816	-0.651362	-0.212275	-0.791034	0.174987	0.213328	0.28483	0.495888	-0.280257	0.182146	0.119027	0.215025	
8.83484	0	0	0.148177	-0.21777	0.143735	-0.0623835	0	0	-0.043306	-0.176991	0	0	-0.0895077	-0.671409	-0.184715	-1.13451	-0.204048	-1.05981	-0.180224	-0.844888	-0.181162	-1.23555	-0.109935	-0.654438	-0.218258	-0.798458	0.164764	0.220008	0.277171	0.495491	-0.286055	0.185935	0.110966	0.226514	
8.81653	0	0	0.151099	-0.22603	0.138899	-0.061477	0	0	-0.042376	-0.17962	0	0	-0.0837815	-0.687593	-0.189818	-1.14609	-0.210325	-1.06235	-0.180224	-0.844888	-0.181162	-1.23555	-0.100054	-0.657513	-0.224241	-0.805882	0.15454	0.226689	0.269512	0.495094	-0.291853	0.189723	0.102906	0.238003	
8.80127	0	0	0.154022	-0.234291	0.134062	-0.0605705	0	0	-0.041446	-0.182249	0	0	-0.0780553	-0.703777	-0.19492	-1.15766	-0.216602	-1.06489	-0.180224	-0.844888	-0.181162	-1.23555	-0.0901723	-0.660589	-0.230223	-0.813305	0.144316	0.233369	0.261853	0.494698	-0.297651	0.193512	0.0948455	0.249491	
8.78143	0	0	0.156945	-0.242551	0.129226	-0.059664	0	0	-0.040516	-0.184877	0	0	-0.072329	-0.71996	-0.200022	-1.16924	-0.222879	-1.06743	-0.180224	-0.844888	-0.181162	-1.23555	-0.080291	-0.663664	-0.236206	-0.820729	0.134093	0.240049	0.254194	0.494301	-0.303449	0.1973	0.086785	0.26098	
8.7616	0	0	0.156945	-0.242551	0.128189	-0.0567325	0	0	-0.0312795	-0.18687	0	0	-0.0820305	-0.717763	-0.206833	-1.17595	-0.221352	-1.07174	-0.173329	-0.84457	-0.16027	-1.24037	-0.0932855	-0.65179	-0.225007	-0.828046	0.134093	0.240049	0.254194	0.494301	-0.303449	0.1973	0.091982	0.257584	
8.74328	0	0	0.156945	-0.242551	0.127152	-0.053801	0	0	-0.022043	-0.188863	0	0	-0.091732	-0.715566	-0.213643	-1.18266	-0.219825	-1.07606	-0.166434	-0.844252	-0.139378	-1.24519	-0.10628	-0.639916	-0.213809	-0.835364	0.134093	0.240049	0.254194	0.494301	-0.303449	0.1973	0.097179	0.254188	
8.72803	0	0	0.156945	-0.242551	0.126114	-0.0508695	0	0	-0.0128065	-0.190856	0	0	-0.101433	-0.713369	-0.220454	-1.18937	-0.218298	-1.08038	-0.159539	-0.843934	-0.118486	-1.25001	-0.119275	-0.628042	-0.20261	-0.842681	0.134093	0.240049	0.254194	0.494301	-0.303449	0.1973	0.102376	0.250793	
8.71277	0	0	0.156945	-0.242551	0.125077	-0.047938	0	0	-0.00357	-0.192849	0	0	-0.111135	-0.711172	-0.227265	-1.19608	-0.216771	-1.08469	-0.152644	-0.843616	-0.097594	-1.25483	-0.132269	-0.616168	-0.191412	-0.849998	0.134093	0.240049	0.254194	0.494301	-0.303449	0.1973	0.107573	0.247397	
8.70209	0	0	0.153489	-0.248751	0.135097	-0.0634958	0	0	-0.0054005	-0.199735	0	0	-0.122727	-0.703597	-0.223845	-1.20574	-0.216771	-1.08469	-0.157088	-0.831056	-0.099628	-1.24908	-0.125507	-0.610427	-0.196628	-0.835257	0.142919	0.237318	0.257608	0.495671	-0.297651	0.193512	0.109907	0.252099	
8.67767	0	0	0.150033	-0.25495	0.145118	-0.0790535	0	0	-0.007231	-0.206622	0	0	-0.13432	-0.696023	-0.220425	-1.21541	-0.216771	-1.08469	-0.161533	-0.818495	-0.101662	-1.24333	-0.118746	-0.604687	-0.201844	-0.820516	0.151745	0.234587	0.261022	0.49704	-0.291853	0.189723	0.112241	0.256802	
8.66547	0	0	0.146577	-0.26115	0.155139	-0.0946113	0	0	-0.0090615	-0.213508	0	0	-0.145912	-0.688449	-0.217006	-1.22507	-0.216771	-1.08469	-0.165978	-0.805934	-0.103696	-1.23758	-0.111984	-0.598946	-0.207059	-0.805775	0.160572	0.231855	0.264436	0.49841	-0.286055	0.185935	0.114575	0.261504	
8.65021	0	0	0.143121	-0.26735	0.165159	-0.110169	0	0	-0.010892	-0.220394	0	0	-0.157504	-0.680874	-0.213586	-1.23474	-0.216771	-1.08469	-0.170422	-0.793374	-0.10573	-1.23184	-0.105222	-0.593205	-0.212275	-0.791034	0.169398	0.229124	0.26785	0.49978	-0.280257	0.182146	0.116909	0.266206	
8.63647	0	0	0.144093	-0.270098	0.159285	-0.106331	0	0	-0.00441225	-0.226647	0	0	-0.151791	-0.697018	-0.232309	-1.23364	-0.223042	-1.08722	-0.171534	-0.790231	-0.09526	-1.23425	-0.118219	-0.581322	-0.199322	-0.803277	0.161968	0.227908	0.267747	0.489051	-0.280257	0.182146	0.116484	0.256107	
8.61816	0	0	0.145066	-0.272846	0.153412	-0.102494	0	0	0.0020675	-0.2329	0	0	-0.146079	-0.713163	-0.251031	-1.23253	-0.229314	-1.08976	-0.172646	-0.787088	-0.08479	-1.23667	-0.131217	-0.56944	-0.186369	-0.81552	0.154538	0.226692	0.267645	0.478323	-0.280257	0.182146	0.11606	0.246009	
8.60901	0	0	0.146039	-0.275595	0.147538	-0.0986558	0	0	0.00854725	-0.239152	0	0	-0.140367	-0.729307	-0.269753	-1.23143	-0.235585	-1.09229	-0.173758	-0.783945	-0.07432	-1.23909	-0.144214	-0.557558	-0.173417	-0.827764	0.147109	0.225476	0.267543	0.467595	-0.280257	0.182146	0.115635	0.235911	
