0.585	3.16925	0	0	-0.335348	-0.455185	-0.128369	-0.48046	-1.32024	0.37119	-0.133172	-0.235951	0.147363	-1.80947	-0.336052	-0.276764	-0.222195	-0.28773	-0.374859	-0.383054	-0.40102	-0.289795	-0.341871	-0.490709	-0.25962	-0.58444	-0.457657	-0.433351	-0.072705	-0.704265	-0.279306	-0.561837	-0.283195	0.063684	-0.162384	-0.767317	
0.583697	3.17078	0	0	-0.334089	-0.515615	-0.135096	-0.507213	-1.32706	0.335124	-0.1373	-0.268421	0.130404	-1.84781	-0.33946	-0.311639	-0.241725	-0.317133	-0.391748	-0.418196	-0.415226	-0.295807	-0.365787	-0.52281	-0.272747	-0.593618	-0.468497	-0.456315	-0.072705	-0.704265	-0.275973	-0.559188	-0.277889	0.0602167	-0.155834	-0.775756	
0.582838	3.17078	0	0	-0.33283	-0.576045	-0.141822	-0.533966	-1.33388	0.299059	-0.141429	-0.300891	0.113445	-1.88615	-0.342868	-0.346513	-0.261255	-0.346537	-0.408636	-0.453338	-0.429431	-0.30182	-0.389703	-0.55491	-0.285873	-0.602796	-0.479336	-0.479279	-0.072705	-0.704265	-0.272641	-0.556539	-0.272582	0.0567495	-0.149285	-0.784196	
0.58246	3.16925	0	0	-0.331571	-0.636475	-0.148548	-0.560719	-1.34071	0.262993	-0.145557	-0.33336	0.096486	-1.9245	-0.346276	-0.381387	-0.280785	-0.37594	-0.425525	-0.488481	-0.443637	-0.307832	-0.41362	-0.587011	-0.299	-0.611973	-0.490176	-0.502244	-0.072705	-0.704265	-0.269309	-0.55389	-0.267276	0.0532823	-0.142736	-0.792636	
0.582601	3.17078	0	0	-0.330312	-0.696905	-0.155275	-0.587472	-1.34753	0.226927	-0.149685	-0.36583	0.079527	-1.96284	-0.349684	-0.416262	-0.300315	-0.405343	-0.442414	-0.523623	-0.457843	-0.313844	-0.437536	-0.619112	-0.312126	-0.621151	-0.501016	-0.525208	-0.072705	-0.704265	-0.265976	-0.551241	-0.26197	0.049815	-0.136186	-0.801075	
0.583299	3.16772	0	0	-0.314416	-0.722892	-0.151976	-0.596796	-1.35029	0.216308	-0.149379	-0.377712	0.0756025	-1.98614	-0.362559	-0.424274	-0.302525	-0.427212	-0.442309	-0.544579	-0.461422	-0.326766	-0.443775	-0.634592	-0.314605	-0.63724	-0.516428	-0.535096	-0.074747	-0.698494	-0.279317	-0.525604	-0.261219	0.0476925	-0.148326	-0.786902	
0.584591	3.16925	0	0	-0.298519	-0.74888	-0.148677	-0.606119	-1.35305	0.205689	-0.149073	-0.389594	0.071678	-2.00945	-0.375434	-0.432287	-0.304735	-0.449082	-0.442205	-0.565535	-0.465002	-0.339688	-0.450013	-0.650072	-0.317083	-0.65333	-0.53184	-0.544984	-0.076789	-0.692723	-0.292658	-0.499966	-0.260468	0.04557	-0.160465	-0.772728	
0.586515	3.16925	0	0	-0.282622	-0.774868	-0.145378	-0.615443	-1.3558	0.19507	-0.148767	-0.401477	0.0677535	-2.03275	-0.388309	-0.4403	-0.306944	-0.470952	-0.442101	-0.586491	-0.468581	-0.35261	-0.456252	-0.665552	-0.319561	-0.66942	-0.547252	-0.554873	-0.078831	-0.686952	-0.306	-0.474329	-0.259717	0.0434475	-0.172605	-0.758555	
0.589108	3.16925	0	0	-0.266726	-0.800855	-0.142079	-0.624767	-1.35856	0.184451	-0.148461	-0.413359	0.063829	-2.05606	-0.401184	-0.448312	-0.309154	-0.492821	-0.441996	-0.607447	-0.47216	-0.365532	-0.462491	-0.681032	-0.32204	-0.685509	-0.562664	-0.564761	-0.080873	-0.681181	-0.319341	-0.448692	-0.258966	0.041325	-0.184745	-0.744382	
0.592409	3.16772	0	0	-0.257784	-0.769197	-0.136194	-0.607085	-1.35295	0.186988	-0.140769	-0.402024	0.0626405	-2.0527	-0.396641	-0.438965	-0.311297	-0.486764	-0.440175	-0.591931	-0.467175	-0.356584	-0.458828	-0.65827	-0.317929	-0.674031	-0.557261	-0.553328	-0.084961	-0.669628	-0.319341	-0.448692	-0.258966	0.041325	-0.181873	-0.752499	
0.596449	3.16315	0	0	-0.248841	-0.73754	-0.13031	-0.589404	-1.34733	0.189525	-0.133078	-0.390689	0.061452	-2.04934	-0.392097	-0.429619	-0.31344	-0.480708	-0.438355	-0.576416	-0.46219	-0.347635	-0.455166	-0.635509	-0.313819	-0.662554	-0.551858	-0.541895	-0.089049	-0.658075	-0.319341	-0.448692	-0.258966	0.041325	-0.179001	-0.760617	
0.601159	3.1662	0	0	-0.239899	-0.705882	-0.124425	-0.571723	-1.34171	0.192062	-0.125387	-0.379354	0.0602635	-2.04598	-0.387554	-0.420272	-0.315583	-0.474652	-0.436534	-0.560901	-0.457204	-0.338687	-0.451504	-0.612748	-0.309708	-0.651076	-0.546454	-0.530462	-0.093137	-0.646521	-0.319341	-0.448692	-0.258966	0.041325	-0.176128	-0.768734	
0.606387	3.1662	0	0	-0.230957	-0.674224	-0.118541	-0.554041	-1.33609	0.194599	-0.117695	-0.368019	0.059075	-2.04262	-0.383011	-0.410925	-0.317726	-0.468595	-0.434714	-0.545385	-0.452219	-0.329739	-0.447841	-0.589986	-0.305598	-0.639598	-0.541051	-0.519029	-0.097225	-0.634968	-0.319341	-0.448692	-0.258966	0.041325	-0.173256	-0.776852	
0.611983	3.16467	0	0	-0.208745	-0.622614	-0.110956	-0.518151	-1.34193	0.229539	-0.109544	-0.335801	0.0514938	-2.004	-0.387952	-0.374747	-0.319829	-0.434538	-0.417812	-0.510279	-0.458516	-0.288876	-0.422767	-0.54449	-0.302296	-0.602654	-0.517095	-0.479536	-0.0784108	-0.633917	-0.311573	-0.446504	-0.242276	0.0287883	-0.159351	-0.785938	
0.617792	3.16467	0	0	-0.186532	-0.571005	-0.103371	-0.48226	-1.34777	0.264479	-0.101394	-0.303583	0.0439125	-1.96539	-0.392894	-0.338569	-0.321932	-0.400481	-0.400911	-0.475174	-0.464814	-0.248012	-0.397694	-0.498995	-0.298995	-0.565711	-0.493138	-0.440042	-0.0595965	-0.632866	-0.303805	-0.444315	-0.225586	0.0162515	-0.145446	-0.795024	
0.623657	3.16009	0	0	-0.16432	-0.519395	-0.0957853	-0.44637	-1.35361	0.299419	-0.0932435	-0.271365	0.0363313	-1.92677	-0.397836	-0.302391	-0.324034	-0.366423	-0.384009	-0.440069	-0.471111	-0.207149	-0.37262	-0.453499	-0.295693	-0.528767	-0.469181	-0.400548	-0.0407823	-0.631816	-0.296036	-0.442127	-0.208897	0.00371475	-0.131541	-0.80411	
0.629352	3.15704	0	0	-0.142108	-0.467785	-0.0882	-0.41048	-1.35946	0.334359	-0.085093	-0.239147	0.02875	-1.88816	-0.402777	-0.266213	-0.326137	-0.332366	-0.367107	-0.404963	-0.477409	-0.166286	-0.347546	-0.408003	-0.292392	-0.491823	-0.445225	-0.361055	-0.021968	-0.630765	-0.288268	-0.439939	-0.192207	-0.008822	-0.117636	-0.813196	
0.634599	3.15246	0	0	-0.119841	-0.396372	-0.0753427	-0.377791	-1.36407	0.384327	-0.07403	-0.203892	0.029748	-1.83931	-0.391092	-0.232438	-0.323983	-0.282098	-0.348386	-0.353761	-0.466751	-0.127036	-0.326501	-0.333603	-0.268585	-0.442911	-0.418094	-0.302862	-0.0092585	-0.612302	-0.268241	-0.436046	-0.161742	-0.0254655	-0.102076	-0.806709	
0.639121	3.15399	0	0	-0.097574	-0.324959	-0.0624855	-0.345101	-1.36869	0.434295	-0.062967	-0.168637	0.030746	-1.79047	-0.379407	-0.198663	-0.321829	-0.231829	-0.329664	-0.302558	-0.456094	-0.0877865	-0.305455	-0.259203	-0.244779	-0.393999	-0.390962	-0.244668	0.003451	-0.59384	-0.248215	-0.432152	-0.131277	-0.042109	-0.0865155	-0.800222	
0.642641	3.16009	0	0	-0.075307	-0.253546	-0.0496282	-0.312412	-1.37331	0.484263	-0.051904	-0.133383	0.031744	-1.74162	-0.367722	-0.164888	-0.319675	-0.181561	-0.310943	-0.251356	-0.445437	-0.0485367	-0.284409	-0.184802	-0.220973	-0.345086	-0.363831	-0.186475	0.0161605	-0.575377	-0.228188	-0.428258	-0.100812	-0.0587525	-0.0709552	-0.793734	
0.644888	3.16467	0	0	-0.05304	-0.182133	-0.036771	-0.279722	-1.37793	0.534231	-0.040841	-0.098128	0.032742	-1.69278	-0.356037	-0.131113	-0.317521	-0.131293	-0.292221	-0.200153	-0.434779	-0.009287	-0.263364	-0.110402	-0.197166	-0.296174	-0.336699	-0.128281	0.02887	-0.556914	-0.208161	-0.424365	-0.070347	-0.075396	-0.055395	-0.787247	
0.645836	3.16315	0	0	-0.0782685	-0.091562	-0.041815	-0.242401	-1.38826	0.58194	-0.0532103	-0.0520605	0.0379657	-1.63843	-0.364939	-0.0836348	-0.315468	-0.0805667	-0.281188	-0.147622	-0.422714	0.026245	-0.234611	-0.0398918	-0.179083	-0.2538	-0.309505	-0.0692793	0.0374712	-0.526682	-0.193671	-0.404628	-0.0344035	-0.0956173	-0.0370492	-0.77836	
0.645713	3.16315	0	0	-0.103497	-0.000991	-0.046859	-0.20508	-1.3986	0.629648	-0.0655795	-0.005993	0.0431895	-1.58408	-0.373841	-0.0361565	-0.313416	-0.0298405	-0.270155	-0.095091	-0.41065	0.061777	-0.205857	0.0306185	-0.161	-0.211427	-0.282312	-0.0102775	0.0460725	-0.496449	-0.17918	-0.38489	0.00154	-0.115839	-0.0187035	-0.769473	
0.644762	3.1662	0	0	-0.128725	0.08958	-0.051903	-0.167759	-1.40894	0.677356	-0.0779487	0.0400745	0.0484132	-1.52973	-0.382743	0.0113217	-0.311364	0.0208858	-0.259123	-0.04256	-0.398585	0.097309	-0.177104	0.101129	-0.142918	-0.169053	-0.255119	0.0487242	0.0546738	-0.466216	-0.164689	-0.365152	0.0374835	-0.13606	-0.00035775	-0.760585	
0.643225	3.16772	0	0	-0.153954	0.180151	-0.056947	-0.130438	-1.41928	0.725065	-0.090318	0.086142	0.053637	-1.47538	-0.391645	0.0588	-0.309311	0.071612	-0.24809	0.009971	-0.38652	0.132841	-0.148351	0.171639	-0.124835	-0.126679	-0.227925	0.107726	0.063275	-0.435984	-0.150199	-0.345415	0.073427	-0.156281	0.017988	-0.751698	
0.641344	3.1723	0	0	-0.145075	0.174349	-0.0558258	-0.133606	-1.42511	0.741519	-0.0862977	0.085896	0.0537705	-1.44111	-0.389063	0.0738483	-0.29856	0.097928	-0.246564	0.0476543	-0.403748	0.181531	-0.125815	0.226854	-0.125018	-0.0792468	-0.218743	0.163767	0.063421	-0.409066	-0.141287	-0.321908	0.0811488	-0.154792	0.0270375	-0.736672	
0.639268	3.16772	0	0	-0.136196	0.168548	-0.0547045	-0.136775	-1.43093	0.757973	-0.0822775	0.08565	0.053904	-1.40683	-0.386481	0.0888965	-0.287809	0.124244	-0.245038	0.0853375	-0.420977	0.230221	-0.103279	0.282069	-0.1252	-0.0318145	-0.20956	0.219807	0.063567	-0.382149	-0.132375	-0.298401	0.0888705	-0.153303	0.036087	-0.721647	
0.637012	3.16772	0	0	-0.127318	0.162746	-0.0535832	-0.139943	-1.43675	0.774428	-0.0782573	0.085404	0.0540375	-1.37256	-0.383898	0.103945	-0.277059	0.15056	-0.243511	0.123021	-0.438206	0.278912	-0.080743	0.337284	-0.125383	0.0156177	-0.200378	0.275848	0.063713	-0.355231	-0.123462	-0.274894	0.0965923	-0.151815	0.0451365	-0.706622	
0.634573	3.17078	0	0	-0.118439	0.156944	-0.052462	-0.143112	-1.44257	0.790882	-0.074237	0.085158	0.054171	-1.33828	-0.381316	0.118993	-0.266308	0.176876	-0.241985	0.160704	-0.455434	0.327602	-0.058207	0.392499	-0.125565	0.06305	-0.191196	0.331889	0.063859	-0.328314	-0.11455	-0.251387	0.104314	-0.150326	0.054186	-0.691596	
0.631953	3.16925	0	0	-0.112534	0.159565	-0.047149	-0.146583	-1.43843	0.797678	-0.066188	0.0846632	0.0523847	-1.31588	-0.405732	0.14333	-0.26865	0.21191	-0.244229	0.188079	-0.441209	0.333965	-0.0573707	0.424248	-0.114019	0.0774525	-0.190555	0.357486	0.053461	-0.298927	-0.120192	-0.235442	0.0989478	-0.14682	0.044681	-0.674892	
0.629152	3.16467	0	0	-0.106628	0.162187	-0.041836	-0.150055	-1.43429	0.804473	-0.058139	0.0841685	0.0505985	-1.29348	-0.430148	0.167667	-0.270992	0.246943	-0.246472	0.215453	-0.426984	0.340328	-0.0565345	0.455998	-0.102472	0.091855	-0.189913	0.383084	0.043063	-0.269541	-0.125833	-0.219498	0.0935815	-0.143313	0.035176	-0.658187	
0.626191	3.15399	0	0	-0.100722	0.164808	-0.036523	-0.153527	-1.43014	0.811268	-0.05009	0.0836738	0.0488123	-1.27108	-0.454563	0.192004	-0.273335	0.281977	-0.248715	0.242828	-0.41276	0.34669	-0.0556983	0.487748	-0.0909255	0.106258	-0.189271	0.408682	0.032665	-0.240154	-0.131475	-0.203553	0.0882153	-0.139807	0.025671	-0.641483	
0.623124	3.1662	0	0	-0.094817	0.16743	-0.03121	-0.156998	-1.426	0.818064	-0.042041	0.083179	0.047026	-1.24869	-0.478979	0.216341	-0.275677	0.317011	-0.250959	0.270202	-0.398535	0.353053	-0.054862	0.519497	-0.079379	0.12066	-0.18863	0.434279	0.022267	-0.210767	-0.137117	-0.187608	0.082849	-0.136301	0.016166	-0.624779	
0.620009	3.16467	0	0	-0.0919685	0.198062	-0.0281365	-0.154134	-1.43038	0.830442	-0.0339813	0.0826805	0.0488963	-1.2366	-0.478979	0.216341	-0.27364	0.339711	-0.249242	0.286407	-0.399978	0.357132	-0.0421115	0.534749	-0.0810658	0.125427	-0.172955	0.444921	0.0412248	-0.209564	-0.137117	-0.187608	0.082849	-0.136301	0.0171325	-0.62751	
0.616906	3.16162	0	0	-0.08912	0.228693	-0.025063	-0.151269	-1.43476	0.84282	-0.0259215	0.082182	0.0507665	-1.22452	-0.478979	0.216341	-0.271602	0.362412	-0.247525	0.302612	-0.401421	0.36121	-0.029361	0.550002	-0.0827525	0.130193	-0.157279	0.455562	0.0601825	-0.20836	-0.137117	-0.187608	0.082849	-0.136301	0.018099	-0.630242	
0.613871	3.16315	0	0	-0.0862715	0.259325	-0.0219895	-0.148404	-1.43914	0.855197	-0.0178617	0.0816835	0.0526367	-1.21244	-0.478979	0.216341	-0.269565	0.385112	-0.245808	0.318817	-0.402865	0.365289	-0.0166105	0.565254	-0.0844392	0.13496	-0.141603	0.466204	0.0791403	-0.207156	-0.137117	-0.187608	0.082849	-0.136301	0.0190655	-0.632973	
0.610969	3.15857	0	0	-0.083423	0.289957	-0.018916	-0.14554	-1.44352	0.867575	-0.009802	0.081185	0.054507	-1.20036	-0.478979	0.216341	-0.267528	0.407813	-0.244091	0.335022	-0.404308	0.369368	-0.00386	0.580506	-0.086126	0.139727	-0.125928	0.476846	0.098098	-0.205953	-0.137117	-0.187608	0.082849	-0.136301	0.020032	-0.635705	
0.608273	3.15704	0	0	-0.071584	0.295262	-0.0339825	-0.172157	-1.44911	0.864887	-0.009802	0.081185	0.0557325	-1.20382	-0.489239	0.223045	-0.271963	0.420347	-0.267458	0.358971	-0.407821	0.355998	-0.00794	0.592037	-0.0918992	0.132511	-0.130745	0.49046	0.106555	-0.202403	-0.125889	-0.194944	0.104334	-0.15034	0.0192222	-0.643569	
0.605857	3.15399	0	0	-0.059745	0.300567	-0.049049	-0.198774	-1.45471	0.862198	-0.009802	0.081185	0.056958	-1.20729	-0.499499	0.229749	-0.276398	0.432881	-0.290826	0.382919	-0.411334	0.342629	-0.01202	0.603568	-0.0976725	0.125296	-0.135562	0.504074	0.115012	-0.198854	-0.114661	-0.202281	0.125818	-0.164378	0.0184125	-0.651433	
0.603792	3.15094	0	0	-0.047906	0.305871	-0.0641155	-0.225392	-1.46031	0.85951	-0.009802	0.081185	0.0581835	-1.21075	-0.50976	0.236454	-0.280834	0.445415	-0.314194	0.406868	-0.414846	0.329259	-0.0161	0.615098	-0.103446	0.11808	-0.140379	0.517687	0.12347	-0.195304	-0.103434	-0.209618	0.147303	-0.178417	0.0176028	-0.659298	
0.602149	3.15094	0	0	-0.036067	0.311176	-0.079182	-0.252009	-1.4659	0.856821	-0.009802	0.081185	0.059409	-1.21422	-0.52002	0.243158	-0.285269	0.457949	-0.337561	0.430817	-0.418359	0.31589	-0.02018	0.626629	-0.109219	0.110864	-0.145196	0.531301	0.131927	-0.191754	-0.092206	-0.216954	0.168788	-0.192456	0.016793	-0.667162	
0.600955	3.14789	0	0	-0.0745975	0.323312	-0.101442	-0.280964	-1.48242	0.829664	-0.0200852	0.0545982	0.0403497	-1.2124	-0.544942	0.246871	-0.28305	0.45168	-0.352895	0.432157	-0.431133	0.305487	-0.0291267	0.617706	-0.120749	0.096474	-0.157849	0.539569	0.129836	-0.185846	-0.0843535	-0.21472	0.178798	-0.197362	0.022431	-0.672943	
0.600196	3.14941	0	0	-0.113128	0.335449	-0.123702	-0.30992	-1.49894	0.802507	-0.0303685	0.0280115	0.0212905	-1.21059	-0.569864	0.250584	-0.280832	0.44541	-0.368229	0.433497	-0.443908	0.295083	-0.0380735	0.608784	-0.132279	0.082084	-0.170503	0.547837	0.127745	-0.179938	-0.076501	-0.212485	0.188809	-0.202268	0.028069	-0.678724	
0.599857	3.14636	0	0	-0.151658	0.347585	-0.145962	-0.338875	-1.51546	0.775349	-0.0406518	0.00142475	0.00223125	-1.20878	-0.594785	0.254298	-0.278614	0.439141	-0.383564	0.434837	-0.456682	0.28468	-0.0470202	0.599862	-0.143809	0.067694	-0.183156	0.556104	0.125655	-0.174029	-0.0686485	-0.210251	0.198819	-0.207175	0.033707	-0.684504	
0.599923	3.14331	0	0	-0.190189	0.359721	-0.168222	-0.36783	-1.53197	0.748192	-0.050935	-0.025162	-0.016828	-1.20696	-0.619707	0.258011	-0.276395	0.432872	-0.398898	0.436177	-0.469456	0.274277	-0.055967	0.590939	-0.155339	0.053304	-0.195809	0.564372	0.123564	-0.168121	-0.060796	-0.208017	0.20883	-0.212081	0.039345	-0.690285	
0.600375	3.14484	0	0	-0.203335	0.33906	-0.178216	-0.385348	-1.54845	0.721218	-0.0703223	-0.0480005	-0.0260715	-1.23274	-0.628578	0.238734	-0.289293	0.412452	-0.425472	0.427566	-0.468668	0.248841	-0.0632748	0.560399	-0.166847	0.0389695	-0.198817	0.545421	0.121472	-0.162208	-0.0450573	-0.203546	0.214216	-0.215601	0.0401585	-0.682426	
0.601164	3.13721	0	0	-0.216481	0.3184	-0.188211	-0.402866	-1.56493	0.694245	-0.0897095	-0.070839	-0.035315	-1.25853	-0.637449	0.219458	-0.302192	0.392033	-0.452045	0.418956	-0.467881	0.223405	-0.0705825	0.529859	-0.178354	0.024635	-0.201824	0.52647	0.11938	-0.156296	-0.0293185	-0.199076	0.219602	-0.21912	0.040972	-0.674567	
0.602221	3.14331	0	0	-0.229628	0.297739	-0.198205	-0.420384	-1.58141	0.667272	-0.109097	-0.0936775	-0.0445585	-1.28431	-0.646319	0.200182	-0.31509	0.371613	-0.478618	0.410346	-0.467093	0.197969	-0.0778902	0.49932	-0.189861	0.0103005	-0.204831	0.507519	0.117288	-0.150384	-0.0135798	-0.194605	0.224989	-0.22264	0.0417855	-0.666707	
0.60348	3.14331	0	0	-0.242774	0.277078	-0.208199	-0.437902	-1.59789	0.640298	-0.128484	-0.116516	-0.053802	-1.31009	-0.65519	0.180905	-0.327988	0.351193	-0.505192	0.401735	-0.466305	0.172533	-0.085198	0.46878	-0.201369	-0.004034	-0.207839	0.488568	0.115196	-0.144471	0.002159	-0.190134	0.230375	-0.22616	0.042599	-0.658848	
0.604873	3.13721	0	0	-0.226459	0.250221	-0.204886	-0.447265	-1.59481	0.613235	-0.123811	-0.140786	-0.0539008	-1.34434	-0.674217	0.168356	-0.327824	0.322359	-0.5257	0.376358	-0.471926	0.142086	-0.104123	0.437257	-0.206188	-0.0371548	-0.228855	0.465849	0.119379	-0.156292	-0.009149	-0.170426	0.213473	-0.213481	0.035024	-0.647598	
0.606343	3.13721	0	0	-0.210144	0.223363	-0.201573	-0.456628	-1.59172	0.586172	-0.119138	-0.165055	-0.0539995	-1.37858	-0.693245	0.155807	-0.327661	0.293524	-0.546208	0.350981	-0.477547	0.11164	-0.123049	0.405733	-0.211007	-0.0702755	-0.24987	0.44313	0.123561	-0.168112	-0.020457	-0.150717	0.196572	-0.200802	0.027449	-0.636349	
0.607883	3.13568	0	0	-0.193829	0.196506	-0.19826	-0.46599	-1.58863	0.55911	-0.114466	-0.189325	-0.0540983	-1.41283	-0.712272	0.143259	-0.327497	0.26469	-0.566716	0.325603	-0.483168	0.0811927	-0.141975	0.37421	-0.215826	-0.103396	-0.270886	0.420411	0.127744	-0.179933	-0.031765	-0.131008	0.179671	-0.188124	0.019874	-0.6251	
0.609502	3.13568	0	0	-0.177514	0.169649	-0.194947	-0.475353	-1.58555	0.532047	-0.109793	-0.213594	-0.054197	-1.44707	-0.731299	0.13071	-0.327333	0.235856	-0.587224	0.300226	-0.488789	0.050746	-0.1609	0.342687	-0.220645	-0.136517	-0.291901	0.397692	0.131927	-0.191754	-0.043073	-0.1113	0.162769	-0.175445	0.012299	-0.61385	
0.61121	3.13263	0	0	-0.165728	0.174902	-0.18884	-0.469744	-1.5798	0.515802	-0.111634	-0.219449	-0.0603788	-1.46406	-0.7319	0.110354	-0.340222	0.215671	-0.594495	0.279247	-0.49727	0.0284973	-0.172001	0.30633	-0.23952	-0.153061	-0.287773	0.358736	0.127641	-0.207093	-0.043037	-0.123643	0.154277	-0.174799	0.010682	-0.62958	
0.613015	3.13263	0	0	-0.153942	0.180155	-0.182733	-0.464136	-1.57405	0.499557	-0.113475	-0.225303	-0.0665605	-1.48105	-0.732502	0.089998	-0.353112	0.195486	-0.601766	0.258267	-0.505751	0.0062485	-0.183102	0.269972	-0.258396	-0.169606	-0.283645	0.319781	0.123355	-0.222432	-0.043001	-0.135987	0.145784	-0.174154	0.009065	-0.64531	
0.614937	3.1311	0	0	-0.142155	0.185408	-0.176627	-0.458527	-1.5683	0.483313	-0.115315	-0.231158	-0.0727422	-1.49804	-0.733103	0.069642	-0.366001	0.1753	-0.609037	0.237287	-0.514232	-0.0160002	-0.194202	0.233615	-0.277272	-0.18615	-0.279518	0.280825	0.11907	-0.237772	-0.042965	-0.14833	0.137292	-0.173508	0.007448	-0.66104	
0.617033	3.13263	0	0	-0.130369	0.190661	-0.17052	-0.452918	-1.56255	0.467068	-0.117156	-0.237013	-0.078924	-1.51503	-0.733704	0.049286	-0.378891	0.155115	-0.616308	0.216308	-0.522713	-0.038249	-0.205303	0.197257	-0.296147	-0.202695	-0.27539	0.241869	0.114784	-0.253111	-0.042929	-0.160673	0.1288	-0.172863	0.005831	-0.67677	
0.619369	3.13415	0	0	-0.114139	0.202785	-0.168837	-0.434779	-1.55968	0.458957	-0.110985	-0.243396	-0.0875158	-1.52514	-0.740031	0.0451383	-0.385327	0.145061	-0.627509	0.206526	-0.527661	-0.0473312	-0.21397	0.171114	-0.291177	-0.216741	-0.293331	0.238111	0.121031	-0.270766	-0.0361383	-0.179865	0.129552	-0.174988	0.0135382	-0.698552	
0.622011	3.13415	0	0	-0.097908	0.214908	-0.167154	-0.41664	-1.55681	0.450846	-0.104814	-0.249779	-0.0961075	-1.53526	-0.746358	0.0409905	-0.391762	0.135007	-0.63871	0.196744	-0.532609	-0.0564135	-0.222636	0.144971	-0.286208	-0.230786	-0.311271	0.234353	0.127278	-0.288421	-0.0293475	-0.199057	0.130304	-0.177113	0.0212455	-0.720334	
0.625026	3.1311	0	0	-0.0816775	0.227031	-0.165471	-0.398501	-1.55394	0.442734	-0.098643	-0.256162	-0.104699	-1.54537	-0.752685	0.0368428	-0.398197	0.124953	-0.64991	0.186963	-0.537557	-0.0654958	-0.231302	0.118827	-0.281238	-0.244832	-0.329211	0.230595	0.133525	-0.306077	-0.0225568	-0.218248	0.131056	-0.179238	0.0289527	-0.742116	
0.628477	3.13263	0	0	-0.065447	0.239155	-0.163788	-0.380362	-1.55107	0.434623	-0.092472	-0.262545	-0.113291	-1.55549	-0.759012	0.032695	-0.404633	0.114899	-0.661111	0.177181	-0.542505	-0.074578	-0.239969	0.092684	-0.276268	-0.258877	-0.347152	0.226837	0.139772	-0.323732	-0.015766	-0.23744	0.131808	-0.181363	0.03666	-0.763898	
0.632426	3.12805	0	0	-0.0536768	0.264065	-0.155725	-0.368752	-1.55107	0.434623	-0.0946365	-0.256428	-0.11999	-1.55373	-0.759012	0.032695	-0.400265	0.102555	-0.659146	0.171629	-0.551693	-0.07165	-0.243743	0.0865008	-0.286964	-0.251888	-0.347152	0.226837	0.141852	-0.329609	-0.004494	-0.244806	0.13256	-0.183487	0.033916	-0.766285	
0.636932	3.1311	0	0	-0.0419065	0.288975	-0.147662	-0.357143	-1.55107	0.434623	-0.096801	-0.250312	-0.12669	-1.55197	-0.759012	0.032695	-0.395898	0.0902115	-0.657182	0.166077	-0.56088	-0.068722	-0.247517	0.0803175	-0.297659	-0.244899	-0.347152	0.226837	0.143931	-0.335487	0.006778	-0.252171	0.133311	-0.185612	0.031172	-0.768672	
0.642055	3.13263	0	0	-0.0301363	0.313886	-0.1396	-0.345533	-1.55107	0.434623	-0.0989655	-0.244195	-0.133389	-1.55021	-0.759012	0.032695	-0.391531	0.0778677	-0.655218	0.160525	-0.570067	-0.065794	-0.25129	0.0741342	-0.308354	-0.237911	-0.347152	0.226837	0.146011	-0.341364	0.01805	-0.259537	0.134063	-0.187737	0.028428	-0.771059	
0.647855	3.13263	0	0	-0.018366	0.338796	-0.131537	-0.333923	-1.55107	0.434623	-0.10113	-0.238078	-0.140089	-1.54845	-0.759012	0.032695	-0.387163	0.065524	-0.653253	0.154973	-0.579255	-0.062866	-0.255064	0.067951	-0.31905	-0.230922	-0.347152	0.226837	0.148091	-0.347241	0.029322	-0.266902	0.134815	-0.189861	0.025684	-0.773446	
0.654349	3.12958	0	0	-0.0257145	0.320761	-0.130426	-0.337063	-1.55234	0.419887	-0.105897	-0.246714	-0.155876	-1.53814	-0.771045	0.044697	-0.413101	0.0824725	-0.664737	0.166745	-0.575735	-0.049775	-0.265464	0.0805117	-0.32402	-0.216876	-0.3519	0.240256	0.160725	-0.355496	0.03157	-0.260997	0.144812	-0.19476	0.028428	-0.771059	
0.661272	3.13415	0	0	-0.033063	0.302725	-0.129315	-0.340203	-1.55361	0.405151	-0.110663	-0.25535	-0.171663	-1.52782	-0.783077	0.056699	-0.439038	0.099421	-0.676222	0.178518	-0.572216	-0.036684	-0.275865	0.0930725	-0.328989	-0.202831	-0.356649	0.253675	0.17336	-0.363752	0.033818	-0.255093	0.154809	-0.199659	0.031172	-0.768672	
0.668236	3.1311	0	0	-0.0404115	0.284689	-0.128204	-0.343342	-1.55488	0.390416	-0.11543	-0.263985	-0.187451	-1.5175	-0.79511	0.068701	-0.464976	0.116369	-0.687706	0.190291	-0.568697	-0.023593	-0.286266	0.105633	-0.333959	-0.188785	-0.361397	0.267095	0.185995	-0.372008	0.036066	-0.249188	0.164807	-0.204559	0.033916	-0.766285	
0.674852	3.12958	0	0	-0.04776	0.266654	-0.127093	-0.346482	-1.55615	0.37568	-0.120197	-0.272621	-0.203238	-1.50719	-0.807142	0.080703	-0.490914	0.133318	-0.69919	0.202063	-0.565177	-0.010502	-0.296666	0.118194	-0.338929	-0.17474	-0.366145	0.280514	0.198629	-0.380263	0.038314	-0.243284	0.174804	-0.209458	0.03666	-0.763898	
0.680731	3.12805	0	0	-0.0521195	0.240252	-0.122921	-0.346795	-1.54486	0.362084	-0.116956	-0.281779	-0.202699	-1.52584	-0.805237	0.0753183	-0.486552	0.120992	-0.697225	0.196511	-0.569435	0.001531	-0.295561	0.131905	-0.342247	-0.165364	-0.3709	0.293953	0.196549	-0.374386	0.0337838	-0.23048	0.185567	-0.216491	0.0468273	-0.762174	
0.685489	3.12805	0	0	-0.056479	0.21385	-0.118748	-0.347108	-1.53356	0.348488	-0.113716	-0.290937	-0.202159	-1.54449	-0.803331	0.0699335	-0.482191	0.108665	-0.695261	0.190959	-0.573692	0.013564	-0.294457	0.145616	-0.345564	-0.155989	-0.375656	0.307393	0.19447	-0.368509	0.0292535	-0.217676	0.196329	-0.223523	0.0569945	-0.76045	
0.689007	3.12805	0	0	-0.0608385	0.187448	-0.114575	-0.34742	-1.52227	0.334892	-0.110476	-0.300095	-0.20162	-1.56314	-0.801426	0.0645488	-0.47783	0.0963385	-0.693296	0.185406	-0.57795	0.025597	-0.293353	0.159328	-0.348881	-0.146613	-0.380412	0.320833	0.19239	-0.362631	0.0247232	-0.204873	0.207092	-0.230555	0.0671617	-0.758725	
0.691565	3.12652	0	0	-0.065198	0.161046	-0.110403	-0.347733	-1.51097	0.321296	-0.107235	-0.309253	-0.201081	-1.58179	-0.79952	0.059164	-0.473468	0.084012	-0.691331	0.179854	-0.582208	0.03763	-0.292248	0.173039	-0.352199	-0.137237	-0.385167	0.334272	0.19031	-0.356754	0.020193	-0.192069	0.217855	-0.237588	0.077329	-0.757001	
0.693476	3.12652	0	0	-0.0488688	0.15362	-0.101207	-0.339242	-1.50683	0.327911	-0.0973708	-0.30396	-0.206555	-1.58343	-0.797616	0.0537825	-0.47129	0.077855	-0.693296	0.185406	-0.583628	0.0416447	-0.283389	0.181714	-0.353859	-0.132545	-0.385167	0.334272	0.185986	-0.371984	0.0123335	-0.206606	0.207092	-0.230555	0.0719692	-0.772312	
0.695053	3.12652	0	0	-0.0325395	0.146194	-0.09201	-0.330751	-1.50268	0.334527	-0.0875065	-0.298667	-0.212028	-1.58508	-0.795712	0.048401	-0.469111	0.071698	-0.695261	0.190959	-0.585049	0.0456595	-0.27453	0.190389	-0.355519	-0.127854	-0.385167	0.334272	0.181662	-0.387215	0.004474	-0.221143	0.196329	-0.223523	0.0666095	-0.787623	
0.696609	3.125	0	0	-0.0162103	0.138768	-0.0828135	-0.32226	-1.49853	0.341142	-0.0776422	-0.293375	-0.217502	-1.58672	-0.793807	0.0430195	-0.466932	0.065541	-0.697225	0.196511	-0.586469	0.0496743	-0.265671	0.199063	-0.35718	-0.123162	-0.385167	0.334272	0.177338	-0.402446	-0.0033855	-0.235681	0.185567	-0.216491	0.0612497	-0.802934	
0.698428	3.12195	0	0	0.000119	0.131342	-0.073617	-0.313769	-1.49438	0.347757	-0.067778	-0.288082	-0.222975	-1.58836	-0.791903	0.037638	-0.464754	0.059384	-0.69919	0.202063	-0.58789	0.053689	-0.256812	0.207738	-0.35884	-0.11847	-0.385167	0.334272	0.173014	-0.417676	-0.011245	-0.250218	0.174804	-0.209458	0.05589	-0.818245	
0.700568	3.12652	0	0	0.00750725	0.149265	-0.059099	-0.308725	-1.48607	0.361021	-0.0622315	-0.270526	-0.2163	-1.59011	-0.785586	0.041787	-0.471294	0.0778675	-0.686041	0.206292	-0.584386	0.0668525	-0.249275	0.22021	-0.363826	-0.10438	-0.375024	0.332816	0.166617	-0.427007	-0.0134737	-0.268378	0.170931	-0.210194	0.0569815	-0.831472	
0.702975	3.125	0	0	0.0148955	0.167188	-0.044581	-0.30368	-1.47777	0.374285	-0.056685	-0.25297	-0.209626	-1.59187	-0.779269	0.045936	-0.477834	0.096351	-0.672892	0.210522	-0.580882	0.080016	-0.241737	0.232681	-0.368811	-0.0902905	-0.36488	0.331361	0.160219	-0.436337	-0.0157025	-0.286539	0.167058	-0.210929	0.058073	-0.844699	
0.705591	3.125	0	0	0.0222838	0.185111	-0.030063	-0.298635	-1.46946	0.387548	-0.0511385	-0.235415	-0.202951	-1.59362	-0.772951	0.050085	-0.484374	0.114835	-0.659743	0.214752	-0.577379	0.0931795	-0.2342	0.245153	-0.373796	-0.0762007	-0.354737	0.329905	0.153821	-0.445668	-0.0179313	-0.304699	0.163186	-0.211665	0.0591645	-0.857925	
0.708362	3.12958	0	0	0.029672	0.203034	-0.015545	-0.293591	-1.46116	0.400812	-0.045592	-0.217859	-0.196276	-1.59537	-0.766634	0.054234	-0.490914	0.133318	-0.646594	0.218981	-0.573875	0.106343	-0.226663	0.257624	-0.378782	-0.062111	-0.344594	0.328449	0.147424	-0.454999	-0.02016	-0.322859	0.159313	-0.212401	0.060256	-0.871152	
0.711232	3.12805	0	0	-0.0046035	0.241727	-0.0253177	-0.277501	-1.46818	0.402282	-0.0506933	-0.214526	-0.198679	-1.58858	-0.766634	0.054234	-0.493097	0.139487	-0.648564	0.224547	-0.576725	0.114396	-0.220217	0.256316	-0.371414	-0.059694	-0.346976	0.335182	0.147424	-0.454999	-0.02353	-0.325553	0.160064	-0.214525	0.0630052	-0.86878	
0.714108	3.1311	0	0	-0.038879	0.28042	-0.0350905	-0.261411	-1.4752	0.403753	-0.0557945	-0.211193	-0.201082	-1.58179	-0.766634	0.054234	-0.49528	0.145657	-0.650533	0.230113	-0.579574	0.122449	-0.213771	0.255007	-0.364047	-0.057277	-0.349359	0.341914	0.147424	-0.454999	-0.0269	-0.328246	0.160816	-0.216648	0.0657545	-0.866407	
0.716778	3.12805	0	0	-0.0731545	0.319113	-0.0448633	-0.245321	-1.48222	0.405223	-0.0608957	-0.207859	-0.203485	-1.575	-0.766634	0.054234	-0.497463	0.151827	-0.652502	0.235679	-0.582423	0.130502	-0.207325	0.253699	-0.35668	-0.05486	-0.351741	0.348646	0.147424	-0.454999	-0.03027	-0.330939	0.161567	-0.218772	0.0685038	-0.864035	
0.719008	3.12805	0	0	-0.10743	0.357806	-0.054636	-0.229231	-1.48925	0.406693	-0.065997	-0.204526	-0.205888	-1.56821	-0.766634	0.054234	-0.499646	0.157996	-0.654472	0.241245	-0.585273	0.138555	-0.200879	0.252391	-0.349312	-0.052443	-0.354123	0.355379	0.147424	-0.454999	-0.03364	-0.333633	0.162318	-0.220895	0.071253	-0.861663	
0.720563	3.12652	0	0	-0.11025	0.327094	-0.057427	-0.244381	-1.48494	0.394534	-0.070771	-0.213181	-0.209635	-1.59182	-0.767246	0.03396	-0.503862	0.141798	-0.661724	0.220349	-0.587349	0.121355	-0.208427	0.239919	-0.350034	-0.0736415	-0.364886	0.331415	0.136897	-0.452618	-0.0460015	-0.323108	0.156194	-0.215261	0.0730433	-0.856575	
0.721207	3.12347	0	0	-0.11307	0.296382	-0.060218	-0.259531	-1.48064	0.382375	-0.075545	-0.221836	-0.213382	-1.61544	-0.767858	0.013686	-0.508079	0.1256	-0.668975	0.199452	-0.589424	0.104155	-0.215975	0.227447	-0.350755	-0.09484	-0.375649	0.30745	0.126369	-0.450237	-0.058363	-0.312584	0.150069	-0.209626	0.0748335	-0.851487	
0.72071	3.125	0	0	-0.115891	0.26567	-0.063009	-0.274681	-1.47634	0.370217	-0.080319	-0.230492	-0.217129	-1.63906	-0.768469	-0.006588	-0.512296	0.109402	-0.676227	0.178556	-0.591499	0.086955	-0.223522	0.214976	-0.351477	-0.116038	-0.386411	0.283486	0.115842	-0.447856	-0.0707245	-0.302059	0.143945	-0.203992	0.0766237	-0.846399	
0.719028	3.12347	0	0	-0.118711	0.234958	-0.0658	-0.289831	-1.47204	0.358058	-0.085093	-0.239147	-0.220876	-1.66268	-0.769081	-0.026862	-0.516512	0.093204	-0.683478	0.15766	-0.593575	0.069755	-0.23107	0.202504	-0.352199	-0.137237	-0.397174	0.259522	0.105315	-0.445475	-0.083086	-0.291534	0.137821	-0.198358	0.078414	-0.841311	
0.71643	3.12042	0	0	-0.109755	0.209647	-0.057158	-0.302739	-1.46774	0.345916	-0.0778328	-0.248595	-0.215593	-1.69469	-0.767815	-0.0524157	-0.518562	0.0709252	-0.677324	0.119608	-0.585058	0.0456832	-0.239722	0.176364	-0.363608	-0.151384	-0.393098	0.220872	0.101003	-0.460619	-0.0875435	-0.315493	0.127837	-0.193467	0.073043	-0.856558	
0.713215	3.12195	0	0	-0.100799	0.184336	-0.048516	-0.315647	-1.46345	0.333774	-0.0705725	-0.258043	-0.210309	-1.7267	-0.76655	-0.0779695	-0.520612	0.0486465	-0.671171	0.0815555	-0.57654	0.0216115	-0.248373	0.150224	-0.375017	-0.165531	-0.389023	0.182221	0.096691	-0.475763	-0.092001	-0.339453	0.117852	-0.188575	0.067672	-0.871805	
0.709679	3.1189	0	0	-0.091843	0.159025	-0.039874	-0.328556	-1.45915	0.321631	-0.0633123	-0.267492	-0.205026	-1.75871	-0.765285	-0.103523	-0.522661	0.0263677	-0.665017	0.0435033	-0.568022	-0.00246025	-0.257024	0.124085	-0.386426	-0.179678	-0.384947	0.143571	0.092379	-0.490907	-0.0964585	-0.363413	0.107868	-0.183683	0.062301	-0.887051	
0.706121	3.12195	0	0	-0.082887	0.133714	-0.031232	-0.341464	-1.45485	0.309489	-0.056052	-0.27694	-0.199743	-1.79072	-0.764019	-0.129077	-0.524711	0.004089	-0.658863	0.005451	-0.559505	-0.026532	-0.265676	0.097945	-0.397835	-0.193825	-0.380871	0.104921	0.088067	-0.506051	-0.100916	-0.387372	0.097884	-0.178792	0.05693	-0.902298	
0.702815	3.1189	0	0	-0.084378	0.137928	-0.0278933	-0.350899	-1.45342	0.305445	-0.056052	-0.27694	-0.205918	-1.80738	-0.768447	-0.138514	-0.513878	-0.0265267	-0.664208	-0.020696	-0.561613	-0.0436108	-0.270371	0.0607613	-0.400229	-0.21021	-0.391663	0.081276	0.0837517	-0.521146	-0.102031	-0.408552	0.0993862	-0.183038	0.0589653	-0.918181	
0.699753	3.1189	0	0	-0.085869	0.142141	-0.0245545	-0.360335	-1.45199	0.301401	-0.056052	-0.27694	-0.212093	-1.82404	-0.772875	-0.14795	-0.503045	-0.0571425	-0.669553	-0.046843	-0.563722	-0.0606895	-0.275066	0.0235775	-0.402624	-0.226596	-0.402455	0.057631	0.0794365	-0.536241	-0.103147	-0.429731	0.100888	-0.187283	0.0610005	-0.934063	
0.696754	3.12042	0	0	-0.08736	0.146354	-0.0212157	-0.369771	-1.45056	0.297358	-0.056052	-0.27694	-0.218269	-1.8407	-0.777303	-0.157386	-0.492212	-0.0877582	-0.674898	-0.07299	-0.565831	-0.0777682	-0.279762	-0.0136063	-0.405018	-0.242981	-0.413246	0.033986	0.0751213	-0.551336	-0.104262	-0.45091	0.102391	-0.191528	0.0630358	-0.949945	
0.69363	3.11584	0	0	-0.088851	0.150568	-0.017877	-0.379206	-1.44913	0.293314	-0.056052	-0.27694	-0.224444	-1.85736	-0.781731	-0.166823	-0.481379	-0.118374	-0.680243	-0.099137	-0.567939	-0.094847	-0.284457	-0.05079	-0.407412	-0.259366	-0.424038	0.010341	0.070806	-0.566431	-0.105377	-0.47209	0.103893	-0.195774	0.065071	-0.965828	
0.690195	3.11737	0	0	-0.085802	0.0840775	-0.01934	-0.409595	-1.44473	0.262524	-0.0583685	-0.303584	-0.227795	-1.89895	-0.796885	-0.189693	-0.487754	-0.156373	-0.706208	-0.128491	-0.58697	-0.110004	-0.299359	-0.0924608	-0.426126	-0.27576	-0.444879	-0.0116808	0.0895362	-0.592075	-0.11209	-0.477418	0.0931707	-0.188768	0.0660265	-0.968529	
0.686264	3.11737	0	0	-0.082753	0.017587	-0.020803	-0.439985	-1.44033	0.231734	-0.060685	-0.330228	-0.231146	-1.94053	-0.81204	-0.212563	-0.49413	-0.194372	-0.732173	-0.157844	-0.606001	-0.125161	-0.314261	-0.134132	-0.44484	-0.292154	-0.465721	-0.0337025	0.108266	-0.617719	-0.118803	-0.482746	0.0824485	-0.181762	0.066982	-0.97123	
0.681743	3.1189	0	0	-0.079704	-0.0489035	-0.022266	-0.470374	-1.43593	0.200944	-0.0630015	-0.356872	-0.234496	-1.98211	-0.827195	-0.235433	-0.500506	-0.23237	-0.758137	-0.187198	-0.625032	-0.140317	-0.329163	-0.175802	-0.463554	-0.308549	-0.486562	-0.0557242	0.126997	-0.643363	-0.125515	-0.488075	0.0717263	-0.174756	0.0679375	-0.973931	
0.676755	3.11432	0	0	-0.076655	-0.115394	-0.023729	-0.500763	-1.43154	0.170154	-0.065318	-0.383516	-0.237847	-2.0237	-0.842349	-0.258303	-0.506881	-0.270369	-0.784102	-0.216552	-0.644063	-0.155474	-0.344065	-0.217473	-0.482268	-0.324943	-0.507403	-0.077746	0.145727	-0.669007	-0.132228	-0.493403	0.061004	-0.16775	0.068893	-0.976632	
0.671458	3.11279	0	0	-0.0737515	-0.162082	-0.0285365	-0.521636	-1.4286	0.143516	-0.0668767	-0.401205	-0.249058	-2.05986	-0.839265	-0.288866	-0.526121	-0.299704	-0.791172	-0.257941	-0.639162	-0.19225	-0.364029	-0.2611	-0.487071	-0.357416	-0.5212	-0.119327	0.139062	-0.704712	-0.136731	-0.529183	0.0456965	-0.159379	0.0645682	-1.00488	
0.666007	3.11279	0	0	-0.070848	-0.20877	-0.033344	-0.542509	-1.42566	0.116879	-0.0684355	-0.418895	-0.260269	-2.09603	-0.836182	-0.319429	-0.545361	-0.32904	-0.798242	-0.299331	-0.63426	-0.229026	-0.383993	-0.304727	-0.491873	-0.389888	-0.534997	-0.160907	0.132398	-0.740417	-0.141233	-0.564962	0.030389	-0.151008	0.0602435	-1.03312	
0.66056	3.11127	0	0	-0.0679445	-0.255458	-0.0381515	-0.563383	-1.42273	0.0902415	-0.0699943	-0.436585	-0.271479	-2.1322	-0.833098	-0.349992	-0.564601	-0.358375	-0.805311	-0.34072	-0.629359	-0.265803	-0.403957	-0.348355	-0.496676	-0.422361	-0.548793	-0.202488	0.125733	-0.776122	-0.145736	-0.600742	0.0150815	-0.142638	0.0559188	-1.06137	
0.655259	3.11127	0	0	-0.065041	-0.302146	-0.042959	-0.584256	-1.41979	0.063604	-0.071553	-0.454274	-0.28269	-2.16837	-0.830015	-0.380555	-0.583841	-0.38771	-0.812381	-0.38211	-0.624457	-0.302579	-0.423921	-0.391982	-0.501479	-0.454834	-0.56259	-0.244068	0.119068	-0.811827	-0.150238	-0.636521	-0.000226	-0.134267	0.051594	-1.08962	
0.650179	3.10974	0	0	-0.062107	-0.310438	-0.0385487	-0.59672	-1.41554	0.0515762	-0.0704783	-0.457311	-0.287715	-2.188	-0.832575	-0.395142	-0.583852	-0.4155	-0.815848	-0.413113	-0.632933	-0.324388	-0.438813	-0.432859	-0.497377	-0.489407	-0.571025	-0.273753	0.108305	-0.835791	-0.152537	-0.66632	-0.0155035	-0.125915	0.0480975	-1.11003	
0.645367	3.10669	0	0	-0.059173	-0.31873	-0.0341385	-0.609185	-1.41128	0.0395485	-0.0694035	-0.460348	-0.29274	-2.20764	-0.835136	-0.409729	-0.583863	-0.44329	-0.819314	-0.444117	-0.641409	-0.346198	-0.453706	-0.473736	-0.493275	-0.52398	-0.579459	-0.303438	0.0975425	-0.859755	-0.154835	-0.69612	-0.030781	-0.117564	0.044601	-1.13044	
0.640873	3.10974	0	0	-0.056239	-0.327022	-0.0297282	-0.621649	-1.40703	0.0275207	-0.0683287	-0.463385	-0.297766	-2.22727	-0.837696	-0.424316	-0.583874	-0.471079	-0.822781	-0.47512	-0.649884	-0.368008	-0.468599	-0.514613	-0.489174	-0.558553	-0.587893	-0.333123	0.0867798	-0.883719	-0.157133	-0.725919	-0.0460585	-0.109212	0.0411045	-1.15085	
0.636746	3.10821	0	0	-0.053305	-0.335314	-0.025318	-0.634113	-1.40277	0.015493	-0.067254	-0.466422	-0.302791	-2.2469	-0.840256	-0.438903	-0.583885	-0.498869	-0.826248	-0.506123	-0.65836	-0.389817	-0.483491	-0.55549	-0.485072	-0.593126	-0.596328	-0.362808	0.076017	-0.907683	-0.159432	-0.755718	-0.061336	-0.10086	0.037608	-1.17126	
0.63303	3.10821	0	0	-0.0754492	-0.349459	-0.0334457	-0.645539	-1.40831	-0.00548625	-0.0677555	-0.487073	-0.317917	-2.25479	-0.838388	-0.444183	-0.600936	-0.506196	-0.844807	-0.514708	-0.671007	-0.399724	-0.495919	-0.586475	-0.499684	-0.597705	-0.599399	-0.380833	0.071653	-0.922481	-0.155012	-0.768208	-0.0666723	-0.0973733	0.040451	-1.1793	
0.629735	3.11584	0	0	-0.0975935	-0.363603	-0.0415735	-0.656966	-1.41385	-0.0264655	-0.068257	-0.507723	-0.333043	-2.26267	-0.83652	-0.449462	-0.617987	-0.513524	-0.863365	-0.523292	-0.683655	-0.409632	-0.508346	-0.61746	-0.514297	-0.602284	-0.602469	-0.398858	0.067289	-0.93728	-0.150593	-0.780698	-0.0720085	-0.0938865	0.043294	-1.18733	
0.626854	3.11279	0	0	-0.119738	-0.377748	-0.0497013	-0.668392	-1.41938	-0.0474447	-0.0687585	-0.528374	-0.34817	-2.27056	-0.834651	-0.454742	-0.635038	-0.520851	-0.881923	-0.531877	-0.696302	-0.419539	-0.520774	-0.648445	-0.528909	-0.606863	-0.60554	-0.416883	0.062925	-0.952079	-0.146173	-0.793189	-0.0773448	-0.0903998	0.046137	-1.19537	
0.624381	3.10516	0	0	-0.141882	-0.391893	-0.057829	-0.679818	-1.42492	-0.068424	-0.06926	-0.549025	-0.363296	-2.27845	-0.832783	-0.460022	-0.652089	-0.528178	-0.900482	-0.540462	-0.70895	-0.429446	-0.533201	-0.67943	-0.543521	-0.611442	-0.608611	-0.434908	0.058561	-0.966877	-0.141754	-0.805679	-0.082681	-0.086913	0.04898	-1.2034	
0.622309	3.10821	0	0	-0.155158	-0.411714	-0.05849	-0.700845	-1.43187	-0.085332	-0.074847	-0.566289	-0.369476	-2.29466	-0.845374	-0.468007	-0.654243	-0.549787	-0.909655	-0.555117	-0.701997	-0.449095	-0.543156	-0.700722	-0.553237	-0.629746	-0.631597	-0.449826	0.0565322	-0.961143	-0.145068	-0.796313	-0.0872633	-0.0855495	0.0443375	-1.20037	
0.62062	3.10516	0	0	-0.168433	-0.431534	-0.059151	-0.721873	-1.43883	-0.10224	-0.080434	-0.583553	-0.375657	-2.31088	-0.857965	-0.475992	-0.656397	-0.571396	-0.918828	-0.569773	-0.695045	-0.468745	-0.553111	-0.722013	-0.562953	-0.648051	-0.654583	-0.464745	0.0545035	-0.955409	-0.148382	-0.786947	-0.0918455	-0.084186	0.039695	-1.19734	
0.619204	3.10211	0	0	-0.181708	-0.451355	-0.059812	-0.7429	-1.44578	-0.119148	-0.086021	-0.600817	-0.381837	-2.32709	-0.870556	-0.483976	-0.65855	-0.593005	-0.928	-0.584428	-0.688092	-0.488394	-0.563066	-0.743305	-0.57267	-0.666355	-0.67757	-0.479663	0.0524748	-0.949675	-0.151696	-0.777581	-0.0964278	-0.0828225	0.0350525	-1.1943	
0.617916	3.10364	0	0	-0.194984	-0.471176	-0.060473	-0.763927	-1.45273	-0.136056	-0.091608	-0.618081	-0.388017	-2.34331	-0.883147	-0.491961	-0.660704	-0.614614	-0.937173	-0.599083	-0.681139	-0.508043	-0.573021	-0.764597	-0.582386	-0.684659	-0.700556	-0.494581	0.050446	-0.943941	-0.15501	-0.768215	-0.10101	-0.081459	0.03041	-1.19127	
0.61661	3.10211	0	0	-0.1936	-0.494162	-0.065524	-0.77252	-1.46526	-0.155352	-0.0961327	-0.638288	-0.386463	-2.36452	-0.88014	-0.522205	-0.667093	-0.624212	-0.92959	-0.620512	-0.695161	-0.513954	-0.579229	-0.779932	-0.593704	-0.698324	-0.696776	-0.531814	0.0481082	-0.964427	-0.148436	-0.798876	-0.116988	-0.0710183	0.0268998	-1.21158	
0.615142	3.10058	0	0	-0.192215	-0.517149	-0.070575	-0.781112	-1.47778	-0.174647	-0.100657	-0.658496	-0.38491	-2.38572	-0.877134	-0.552449	-0.673482	-0.63381	-0.922008	-0.641941	-0.709183	-0.519864	-0.585437	-0.795266	-0.605021	-0.71199	-0.692997	-0.569048	0.0457705	-0.984912	-0.141863	-0.829537	-0.132967	-0.0605775	0.0233895	-1.23188	
0.613401	3.09906	0	0	-0.190831	-0.540135	-0.075626	-0.789705	-1.49031	-0.193943	-0.105182	-0.678703	-0.383356	-2.40693	-0.874127	-0.582693	-0.679872	-0.643408	-0.914426	-0.663371	-0.723206	-0.525775	-0.591644	-0.810601	-0.616339	-0.725655	-0.689217	-0.606281	0.0434327	-1.0054	-0.13529	-0.860197	-0.148946	-0.0501368	0.0198793	-1.25219	
0.611467	3.09906	0	0	-0.189447	-0.563121	-0.080677	-0.798297	-1.50284	-0.213238	-0.109707	-0.69891	-0.381802	-2.42814	-0.87112	-0.612937	-0.686261	-0.653006	-0.906843	-0.6848	-0.737228	-0.531686	-0.597852	-0.825936	-0.627657	-0.73932	-0.685437	-0.643515	0.041095	-1.02588	-0.128716	-0.890858	-0.164924	-0.039696	0.016369	-1.2725	
0.60948	3.09753	0	0	-0.17777	-0.577047	-0.0857248	-0.806871	-1.50978	-0.230002	-0.120349	-0.712738	-0.386057	-2.43292	-0.873703	-0.627356	-0.684151	-0.65897	-0.912382	-0.689403	-0.735842	-0.535602	-0.592763	-0.840317	-0.624433	-0.748433	-0.688533	-0.661278	0.061646	-1.05687	-0.129934	-0.911559	-0.180873	-0.0292748	0.0202223	-1.29346	
0.607578	3.09448	0	0	-0.166094	-0.590972	-0.0907725	-0.815445	-1.51672	-0.246766	-0.130991	-0.726565	-0.390312	-2.4377	-0.876287	-0.641776	-0.682041	-0.664934	-0.91792	-0.694007	-0.734457	-0.539518	-0.587675	-0.854698	-0.621208	-0.757546	-0.69163	-0.679041	0.082197	-1.08786	-0.131151	-0.93226	-0.196821	-0.0188535	0.0240755	-1.31441	
0.605902	3.10058	0	0	-0.154418	-0.604897	-0.0958202	-0.824019	-1.52366	-0.263529	-0.141632	-0.740393	-0.394568	-2.44247	-0.87887	-0.656195	-0.67993	-0.670897	-0.923459	-0.698611	-0.733071	-0.543434	-0.582587	-0.869079	-0.617984	-0.766659	-0.694726	-0.696804	0.102748	-1.11885	-0.132369	-0.952961	-0.21277	-0.00843225	0.0279287	-1.33536	
0.604567	3.09601	0	0	-0.142741	-0.618823	-0.100868	-0.832593	-1.5306	-0.280293	-0.152274	-0.75422	-0.398823	-2.44725	-0.881454	-0.670614	-0.67782	-0.676861	-0.928998	-0.703214	-0.731685	-0.54735	-0.577498	-0.88346	-0.614759	-0.775772	-0.697822	-0.714567	0.123299	-1.14983	-0.133586	-0.973662	-0.228719	0.001989	0.031782	-1.35632	
0.603604	3.09753	0	0	-0.141203	-0.604078	-0.102845	-0.838415	-1.54867	-0.283659	-0.166072	-0.759023	-0.398823	-2.44725	-0.889589	-0.66932	-0.67993	-0.670897	-0.921566	-0.70396	-0.731685	-0.54735	-0.569935	-0.888402	-0.614759	-0.775772	-0.69555	-0.720989	0.125316	-1.15553	-0.124741	-0.986592	-0.233278	0.00333775	0.037356	-1.36201	
0.603028	3.09753	0	0	-0.139664	-0.589332	-0.104822	-0.844237	-1.56674	-0.287025	-0.17987	-0.763826	-0.398823	-2.44725	-0.897724	-0.668025	-0.682041	-0.664934	-0.914135	-0.704705	-0.731685	-0.54735	-0.562372	-0.893344	-0.614759	-0.775772	-0.693277	-0.727412	0.127334	-1.16124	-0.115896	-0.999522	-0.237838	0.0046865	0.04293	-1.3677	
0.602854	3.09753	0	0	-0.138125	-0.574587	-0.106799	-0.850058	-1.58481	-0.29039	-0.193669	-0.768629	-0.398823	-2.44725	-0.905858	-0.666731	-0.684151	-0.65897	-0.906703	-0.705451	-0.731685	-0.54735	-0.554809	-0.898285	-0.614759	-0.775772	-0.691005	-0.733835	0.129351	-1.16694	-0.107051	-1.01245	-0.242397	0.00603525	0.048504	-1.37338	
0.603096	3.09753	0	0	-0.136587	-0.559841	-0.108776	-0.85588	-1.60288	-0.293756	-0.207467	-0.773432	-0.398823	-2.44725	-0.913993	-0.665436	-0.686261	-0.653006	-0.899272	-0.706197	-0.731685	-0.54735	-0.547246	-0.903227	-0.614759	-0.775772	-0.688732	-0.740257	0.131368	-1.17264	-0.098206	-1.02538	-0.246956	0.007384	0.054078	-1.37907	
0.603687	3.09753	0	0	-0.145553	-0.591724	-0.121034	-0.866804	-1.6084	-0.314356	-0.217006	-0.790169	-0.407708	-2.43893	-0.922117	-0.664146	-0.69686	-0.650665	-0.89738	-0.711543	-0.726758	-0.538519	-0.549789	-0.896039	-0.619597	-0.762099	-0.678802	-0.741808	0.116882	-1.15879	-0.0970375	-1.01661	-0.231017	-0.00303075	0.0549455	-1.37145	
0.604396	3.09753	0	0	-0.154519	-0.623607	-0.133293	-0.877728	-1.61392	-0.334956	-0.226546	-0.806906	-0.416593	-2.4306	-0.930242	-0.662856	-0.70746	-0.648324	-0.895489	-0.716889	-0.721831	-0.529688	-0.552333	-0.888852	-0.624435	-0.748426	-0.668872	-0.743359	0.102396	-1.14494	-0.095869	-1.00784	-0.215079	-0.0134455	0.055813	-1.36383	
0.604973	3.09906	0	0	-0.163484	-0.65549	-0.145551	-0.888652	-1.61944	-0.355557	-0.236085	-0.823643	-0.425479	-2.42228	-0.938366	-0.661567	-0.718059	-0.645984	-0.893598	-0.722235	-0.716904	-0.520857	-0.554876	-0.881664	-0.629273	-0.734754	-0.658941	-0.74491	0.0879093	-1.13109	-0.0947005	-0.999066	-0.19914	-0.0238602	0.0566805	-1.35621	
0.605169	3.10058	0	0	-0.17245	-0.687373	-0.157809	-0.899576	-1.62496	-0.376157	-0.245624	-0.84038	-0.434364	-2.41395	-0.94649	-0.660277	-0.728658	-0.643643	-0.891706	-0.727581	-0.711977	-0.512026	-0.557419	-0.874477	-0.634111	-0.721081	-0.649011	-0.746461	0.073423	-1.11724	-0.093532	-0.990294	-0.183201	-0.034275	0.057548	-1.34859	
0.604748	3.09906	0	0	-0.176997	-0.712573	-0.158696	-0.908444	-1.61525	-0.385526	-0.239546	-0.846645	-0.43745	-2.422	-0.944642	-0.665501	-0.728658	-0.643643	-0.899138	-0.726832	-0.717533	-0.496324	-0.553668	-0.868631	-0.628457	-0.714247	-0.663488	-0.73206	0.0673635	-1.10012	-0.0923035	-0.969592	-0.167983	-0.0425885	0.0657293	-1.33138	
0.603994	3.09906	0	0	-0.181544	-0.737772	-0.159583	-0.917311	-1.60553	-0.394895	-0.233467	-0.852909	-0.440536	-2.43005	-0.942793	-0.670725	-0.728658	-0.643643	-0.90657	-0.726083	-0.723089	-0.480622	-0.549918	-0.862784	-0.622804	-0.707414	-0.677965	-0.71766	0.061304	-1.08299	-0.091075	-0.948891	-0.152764	-0.050902	0.0739105	-1.31416	
0.603874	3.09906	0	0	-0.186092	-0.762971	-0.16047	-0.926179	-1.59581	-0.404264	-0.227388	-0.859174	-0.443623	-2.43811	-0.940945	-0.675949	-0.728658	-0.643643	-0.914003	-0.725334	-0.728645	-0.46492	-0.546167	-0.856938	-0.61715	-0.700581	-0.692442	-0.703259	0.0552445	-1.06587	-0.0898465	-0.92819	-0.137546	-0.0592155	0.0820918	-1.29695	
0.605396	3.09753	0	0	-0.190639	-0.788171	-0.161357	-0.935046	-1.5861	-0.413633	-0.22131	-0.865439	-0.446709	-2.44616	-0.939096	-0.681173	-0.728658	-0.643643	-0.921435	-0.724585	-0.734201	-0.449218	-0.542416	-0.851092	-0.611496	-0.693747	-0.706919	-0.688858	0.049185	-1.04875	-0.088618	-0.907488	-0.122328	-0.067529	0.090273	-1.27973	
0.609571	3.10364	0	0	-0.181764	-0.775203	-0.157408	-0.923451	-1.57916	-0.396998	-0.210697	-0.851711	-0.442464	-2.44138	-0.934671	-0.672009	-0.726549	-0.649603	-0.906561	-0.726087	-0.725105	-0.45214	-0.533632	-0.842981	-0.602601	-0.696047	-0.711472	-0.67599	0.0535568	-1.03401	-0.0985463	-0.879429	-0.123079	-0.065408	0.085451	-1.25601	
0.617344	3.09601	0	0	-0.172889	-0.762234	-0.153459	-0.911856	-1.57222	-0.380362	-0.200083	-0.837983	-0.438219	-2.43661	-0.930246	-0.662845	-0.724441	-0.655563	-0.891687	-0.727588	-0.716009	-0.455062	-0.524848	-0.83487	-0.593705	-0.698346	-0.716025	-0.663121	0.0579285	-1.01927	-0.108475	-0.85137	-0.123829	-0.063287	0.080629	-1.23228	
0.628141	3.09906	0	0	-0.164014	-0.749265	-0.14951	-0.90026	-1.56529	-0.363726	-0.18947	-0.824255	-0.433973	-2.43183	-0.925821	-0.65368	-0.722332	-0.661522	-0.876814	-0.729089	-0.706914	-0.457984	-0.516063	-0.82676	-0.58481	-0.700646	-0.720579	-0.650253	0.0623002	-1.00453	-0.118403	-0.823311	-0.124579	-0.061166	0.075807	-1.20856	
0.639853	3.09753	0	0	-0.155139	-0.736297	-0.145561	-0.888665	-1.55835	-0.347091	-0.178857	-0.810527	-0.429728	-2.42706	-0.921396	-0.644516	-0.720223	-0.667482	-0.86194	-0.730591	-0.697818	-0.460906	-0.507279	-0.818649	-0.575915	-0.702945	-0.725132	-0.637385	0.066672	-0.989798	-0.128331	-0.795252	-0.12533	-0.059045	0.070985	-1.18483	
0.650304	3.09906	0	0	-0.137256	-0.69137	-0.138759	-0.862295	-1.55561	-0.318529	-0.162371	-0.791343	-0.4193	-2.40612	-0.908827	-0.636621	-0.703229	-0.660241	-0.854617	-0.710664	-0.700601	-0.453041	-0.494717	-0.804638	-0.562949	-0.693826	-0.712121	-0.621092	0.071041	-0.975014	-0.124935	-0.780647	-0.114668	-0.066012	0.076492	-1.18018	
0.657316	3.09906	0	0	-0.119373	-0.646443	-0.131956	-0.835925	-1.55287	-0.289967	-0.145885	-0.772158	-0.408872	-2.38518	-0.896258	-0.628726	-0.686234	-0.652999	-0.847294	-0.690737	-0.703384	-0.445176	-0.482154	-0.790628	-0.549983	-0.684708	-0.69911	-0.604798	0.07541	-0.96023	-0.121538	-0.766041	-0.104006	-0.072979	0.081999	-1.17553	
0.658725	3.09753	0	0	-0.10149	-0.601515	-0.125154	-0.809555	-1.55013	-0.261405	-0.129399	-0.752974	-0.398445	-2.36424	-0.883689	-0.620832	-0.66924	-0.645758	-0.839971	-0.67081	-0.706167	-0.437311	-0.469592	-0.776617	-0.537016	-0.675589	-0.686099	-0.588504	0.079779	-0.945447	-0.118141	-0.751435	-0.0933433	-0.079946	0.087506	-1.17089	
0.654251	3.09906	0	0	-0.083607	-0.556588	-0.118351	-0.783185	-1.54739	-0.232843	-0.112913	-0.73379	-0.388017	-2.34331	-0.87112	-0.612937	-0.652246	-0.638517	-0.832648	-0.650883	-0.70895	-0.429446	-0.457029	-0.762606	-0.52405	-0.66647	-0.673088	-0.572211	0.084148	-0.930663	-0.114745	-0.73683	-0.082681	-0.086913	0.093013	-1.16624	
0.647549	3.09601	0	0	-0.0745205	-0.486308	-0.118158	-0.738024	-1.54193	-0.193693	-0.108655	-0.701844	-0.374486	-2.31412	-0.854074	-0.595796	-0.664954	-0.602603	-0.808453	-0.637749	-0.704024	-0.420556	-0.447009	-0.741277	-0.524869	-0.641231	-0.640079	-0.558916	0.0719315	-0.896138	-0.103516	-0.720059	-0.0681643	-0.0931363	0.104043	-1.15692	
0.642769	3.09753	0	0	-0.065434	-0.416029	-0.117964	-0.692862	-1.53646	-0.154544	-0.104397	-0.669898	-0.360955	-2.28494	-0.837028	-0.578654	-0.677661	-0.566689	-0.784258	-0.624615	-0.699098	-0.411666	-0.436989	-0.719948	-0.525689	-0.615993	-0.607069	-0.54562	0.059715	-0.861612	-0.0922875	-0.703289	-0.0536475	-0.0993595	0.115074	-1.1476	
0.644058	3.09906	0	0	-0.0563475	-0.345749	-0.117771	-0.647701	-1.531	-0.115394	-0.100138	-0.637952	-0.347423	-2.25576	-0.819983	-0.561513	-0.690369	-0.530775	-0.760062	-0.611482	-0.694172	-0.402775	-0.426969	-0.69862	-0.526508	-0.590755	-0.57406	-0.532324	0.0474985	-0.827086	-0.0810587	-0.686519	-0.0391307	-0.105583	0.126105	-1.13829	
0.655564	3.10058	0	0	-0.047261	-0.27547	-0.117578	-0.60254	-1.52553	-0.076244	-0.09588	-0.606006	-0.333892	-2.22658	-0.802937	-0.544372	-0.703077	-0.494861	-0.735867	-0.598348	-0.689246	-0.393885	-0.416949	-0.677291	-0.527327	-0.565516	-0.541051	-0.519029	0.035282	-0.792561	-0.06983	-0.669748	-0.024614	-0.111806	0.137135	-1.12897	
0.680095	3.09906	0	0	-0.0531535	-0.201003	-0.123593	-0.562644	-1.54248	-0.0283373	-0.104731	-0.569983	-0.325055	-2.18389	-0.801524	-0.504693	-0.703089	-0.467131	-0.72675	-0.562744	-0.684317	-0.384975	-0.401853	-0.653555	-0.519231	-0.542465	-0.524826	-0.484543	0.0564907	-0.770868	-0.059677	-0.637633	-0.0069665	-0.115174	0.148089	-1.10919	
0.714699	3.09753	0	0	-0.059046	-0.126536	-0.129608	-0.522748	-1.55944	0.0195695	-0.113581	-0.533959	-0.316218	-2.14119	-0.800112	-0.465014	-0.703101	-0.439402	-0.717633	-0.527141	-0.679388	-0.376065	-0.386756	-0.629818	-0.511135	-0.519413	-0.508601	-0.450058	0.0776995	-0.749175	-0.049524	-0.605519	0.010681	-0.118542	0.159044	-1.08941	
0.754874	3.10211	0	0	-0.0649385	-0.0520697	-0.135624	-0.482852	-1.57639	0.0674762	-0.122432	-0.497935	-0.307381	-2.0985	-0.7987	-0.425335	-0.703113	-0.411672	-0.708516	-0.491538	-0.67446	-0.367156	-0.37166	-0.606081	-0.503038	-0.496362	-0.492375	-0.415573	0.0989083	-0.727483	-0.039371	-0.573405	0.0283285	-0.121911	0.169998	-1.06963	
0.79612	3.10058	0	0	-0.070831	0.022397	-0.141639	-0.442956	-1.59334	0.115383	-0.131282	-0.461912	-0.298544	-2.05581	-0.797287	-0.385656	-0.703125	-0.383942	-0.699399	-0.455934	-0.669531	-0.358246	-0.356563	-0.582345	-0.494942	-0.47331	-0.47615	-0.381087	0.120117	-0.70579	-0.029218	-0.54129	0.045976	-0.125279	0.180952	-1.04985	
0.833936	3.10211	0	0	-0.0678885	0.033392	-0.141902	-0.430754	-1.60597	0.132878	-0.129432	-0.456123	-0.302544	-2.02754	-0.798485	-0.360396	-0.696758	-0.3742	-0.69205	-0.435679	-0.6632	-0.353271	-0.347813	-0.557116	-0.492532	-0.457111	-0.472299	-0.338218	0.112104	-0.655855	-0.012317	-0.503588	0.0714093	-0.12718	0.191811	-1.01948	
0.863822	3.10211	0	0	-0.064946	0.044387	-0.142166	-0.418551	-1.61861	0.150373	-0.127581	-0.450334	-0.306545	-1.99928	-0.799683	-0.335137	-0.690391	-0.364457	-0.6847	-0.415424	-0.656868	-0.348296	-0.339064	-0.531888	-0.490123	-0.440913	-0.468447	-0.295349	0.104092	-0.605921	0.004584	-0.465886	0.0968425	-0.129081	0.202671	-0.9891	
0.881276	3.09906	0	0	-0.0620035	0.055382	-0.142429	-0.406349	-1.63125	0.167868	-0.12573	-0.444546	-0.310545	-1.97102	-0.800882	-0.309877	-0.684023	-0.354714	-0.677351	-0.395168	-0.650537	-0.343321	-0.330314	-0.506659	-0.487713	-0.424714	-0.464595	-0.252481	0.0960795	-0.555986	0.021485	-0.428183	0.122276	-0.130982	0.213531	-0.958724	
0.882922	3.10211	0	0	-0.059061	0.066377	-0.142693	-0.394146	-1.64388	0.185363	-0.12388	-0.438757	-0.314546	-1.94276	-0.80208	-0.284617	-0.677656	-0.344972	-0.670002	-0.374913	-0.644206	-0.338346	-0.321564	-0.48143	-0.485303	-0.408515	-0.460744	-0.209612	0.088067	-0.506051	0.038386	-0.390481	0.147709	-0.132883	0.22439	-0.928347	
0.871108	3.10516	0	0	-0.042773	0.0783988	-0.13462	-0.382543	-1.64118	0.195933	-0.124954	-0.435721	-0.309579	-1.92284	-0.797648	-0.275241	-0.684068	-0.326851	-0.664586	-0.349102	-0.644206	-0.338346	-0.307607	-0.470784	-0.479619	-0.401543	-0.449935	-0.18625	0.0944477	-0.496754	0.041768	-0.375548	0.147709	-0.132883	0.237409	-0.924318	
0.849996	3.10821	0	0	-0.026485	0.0904205	-0.126548	-0.370939	-1.63847	0.206503	-0.126029	-0.432685	-0.304612	-1.90292	-0.793217	-0.265865	-0.69048	-0.308731	-0.659171	-0.32329	-0.644206	-0.338346	-0.29365	-0.460139	-0.473934	-0.394572	-0.439126	-0.162888	0.100829	-0.487456	0.04515	-0.360615	0.147709	-0.132883	0.250428	-0.920288	
0.823752	3.11584	0	0	-0.010197	0.102442	-0.118475	-0.359336	-1.63576	0.217072	-0.127103	-0.429649	-0.299644	-1.883	-0.788786	-0.25649	-0.696891	-0.29061	-0.653756	-0.297478	-0.644206	-0.338346	-0.279692	-0.449493	-0.468249	-0.387601	-0.428317	-0.139527	0.107209	-0.478159	0.048532	-0.345682	0.147709	-0.132883	0.263448	-0.916258	
0.796538	3.12652	0	0	0.006091	0.114464	-0.110403	-0.347733	-1.63306	0.227642	-0.128178	-0.426613	-0.294677	-1.86308	-0.784354	-0.247114	-0.703303	-0.272489	-0.64834	-0.271667	-0.644206	-0.338346	-0.265735	-0.438847	-0.462565	-0.380629	-0.417508	-0.116165	0.11359	-0.468861	0.051914	-0.330749	0.147709	-0.132883	0.276467	-0.912229	
0.772519	3.13721	0	0	0.0149307	0.147717	-0.112072	-0.320036	-1.63178	0.242259	-0.122328	-0.421091	-0.283069	-1.84484	-0.783698	-0.227041	-0.699087	-0.256624	-0.650487	-0.245007	-0.65613	-0.327515	-0.242717	-0.4369	-0.460163	-0.364351	-0.401994	-0.105944	0.122049	-0.465396	0.063202	-0.325854	0.148462	-0.135012	0.282988	-0.910213	
0.755401	3.15552	0	0	0.0237705	0.180969	-0.113741	-0.292338	-1.6305	0.256876	-0.116477	-0.41557	-0.27146	-1.82659	-0.783042	-0.206968	-0.694872	-0.24076	-0.652635	-0.218346	-0.668054	-0.316684	-0.219699	-0.434952	-0.457761	-0.348074	-0.386481	-0.095723	0.130507	-0.46193	0.07449	-0.320958	0.149216	-0.137141	0.289509	-0.908197	
0.745237	3.17078	0	0	0.0326103	0.214222	-0.11541	-0.264641	-1.62922	0.271492	-0.110627	-0.410048	-0.259852	-1.80835	-0.782387	-0.186896	-0.690656	-0.224895	-0.654782	-0.191686	-0.679978	-0.305852	-0.196682	-0.433005	-0.455359	-0.331796	-0.370967	-0.085502	0.138965	-0.458464	0.085778	-0.316063	0.14997	-0.13927	0.29603	-0.906182	
0.740326	3.19672	0	0	0.04145	0.247474	-0.117079	-0.236943	-1.62794	0.286109	-0.104777	-0.404526	-0.248243	-1.7901	-0.781731	-0.166823	-0.68644	-0.209031	-0.656929	-0.165026	-0.691902	-0.295021	-0.173664	-0.431058	-0.452957	-0.315518	-0.355453	-0.075281	0.147424	-0.454999	0.097066	-0.311167	0.150723	-0.141399	0.302551	-0.904166	
0.738958	3.21808	0	0	0.0296595	0.203189	-0.117633	-0.258358	-1.64314	0.274416	-0.107114	-0.430994	-0.246568	-1.81187	-0.784272	-0.181569	-0.680011	-0.227201	-0.662527	-0.169797	-0.689104	-0.302928	-0.181384	-0.426014	-0.461929	-0.313229	-0.360148	-0.062011	0.132755	-0.440913	0.102718	-0.302567	0.14997	-0.13927	0.310899	-0.89705	
0.739421	3.25012	0	0	0.017869	0.158905	-0.118187	-0.279773	-1.65834	0.262722	-0.109451	-0.457462	-0.244893	-1.83364	-0.786812	-0.196315	-0.673582	-0.245371	-0.668125	-0.174569	-0.686306	-0.310834	-0.189103	-0.42097	-0.4709	-0.31094	-0.364843	-0.048741	0.118086	-0.426828	0.108369	-0.293966	0.149216	-0.137141	0.319248	-0.889935	
0.740006	3.28979	0	0	0.0060785	0.11462	-0.118741	-0.301188	-1.67354	0.251029	-0.111788	-0.48393	-0.243219	-1.8554	-0.789352	-0.21106	-0.667152	-0.263541	-0.673723	-0.179341	-0.683509	-0.31874	-0.196823	-0.415926	-0.479872	-0.308651	-0.369539	-0.035471	0.103418	-0.412743	0.11402	-0.285365	0.148462	-0.135012	0.327597	-0.882819	
0.739232	3.33099	0	0	-0.005712	0.070335	-0.119295	-0.322603	-1.68874	0.239336	-0.114125	-0.510398	-0.241544	-1.87717	-0.791893	-0.225806	-0.660723	-0.281711	-0.679321	-0.184112	-0.680711	-0.326647	-0.204542	-0.410882	-0.488843	-0.306362	-0.374234	-0.022201	0.088749	-0.398657	0.119672	-0.276765	0.147709	-0.132883	0.335945	-0.875703	
0.73704	3.36151	0	0	-0.0042065	0.0467292	-0.125414	-0.328261	-1.67894	0.229852	-0.113054	-0.513426	-0.242259	-1.89217	-0.791893	-0.225806	-0.669229	-0.28545	-0.677383	-0.189589	-0.679313	-0.330598	-0.201934	-0.418254	-0.488843	-0.306362	-0.381989	-0.0273352	0.0718875	-0.405624	0.112891	-0.294446	0.139219	-0.132245	0.336053	-0.886251	
0.733917	3.37982	0	0	-0.002701	0.0231235	-0.131533	-0.333919	-1.66915	0.220368	-0.111982	-0.516454	-0.242974	-1.90716	-0.791893	-0.225806	-0.677736	-0.289188	-0.675445	-0.195067	-0.677916	-0.334549	-0.199325	-0.425625	-0.488843	-0.306362	-0.389745	-0.0324695	0.055026	-0.412591	0.106109	-0.312127	0.13073	-0.131607	0.336162	-0.896799	
0.73035	3.40423	0	0	-0.0011955	-0.00048225	-0.137653	-0.339577	-1.65935	0.210884	-0.110911	-0.519481	-0.243689	-1.92216	-0.791893	-0.225806	-0.686242	-0.292927	-0.673507	-0.200544	-0.676518	-0.338499	-0.196717	-0.432997	-0.488843	-0.306362	-0.397501	-0.0376037	0.0381645	-0.419559	0.0993283	-0.329808	0.122241	-0.130969	0.33627	-0.907347	
0.726826	3.42102	0	0	0.00031	-0.024088	-0.143772	-0.345235	-1.64956	0.2014	-0.10984	-0.522509	-0.244404	-1.93715	-0.791893	-0.225806	-0.694748	-0.296666	-0.671569	-0.206021	-0.67512	-0.34245	-0.194109	-0.440368	-0.488843	-0.306362	-0.405256	-0.042738	0.021303	-0.426526	0.092547	-0.347489	0.113751	-0.130331	0.336378	-0.917895	
0.723834	3.44696	0	0	-0.004148	-0.011489	-0.146829	-0.34806	-1.65381	0.213439	-0.116274	-0.504327	-0.245589	-1.9338	-0.795666	-0.215143	-0.696887	-0.290622	-0.675446	-0.195063	-0.676518	-0.338499	-0.199215	-0.442694	-0.479872	-0.308651	-0.405256	-0.042738	0.014955	-0.435836	0.0868997	-0.356053	0.104521	-0.127571	0.334556	-0.922983	
0.721741	3.46222	0	0	-0.008606	0.00111	-0.149886	-0.350886	-1.65807	0.225477	-0.122707	-0.486144	-0.246775	-1.93046	-0.799439	-0.20448	-0.699026	-0.284577	-0.679323	-0.184106	-0.677916	-0.334549	-0.204321	-0.44502	-0.4709	-0.31094	-0.405256	-0.042738	0.008607	-0.445146	0.0812525	-0.364617	0.0952905	-0.12481	0.332735	-0.928071	
0.720527	3.4729	0	0	-0.013064	0.013709	-0.152943	-0.353712	-1.66233	0.237516	-0.12914	-0.467962	-0.24796	-1.92711	-0.803213	-0.193816	-0.701164	-0.278533	-0.683201	-0.173148	-0.679313	-0.330598	-0.209428	-0.447346	-0.461929	-0.313229	-0.405256	-0.042738	0.002259	-0.454456	0.0756053	-0.37318	0.0860603	-0.12205	0.330913	-0.93316	
0.720089	3.48053	0	0	-0.017522	0.026308	-0.156	-0.356537	-1.66659	0.249555	-0.135574	-0.44978	-0.249145	-1.92376	-0.806986	-0.183153	-0.703303	-0.272489	-0.687078	-0.16219	-0.680711	-0.326647	-0.214534	-0.449672	-0.452957	-0.315518	-0.405256	-0.042738	-0.004089	-0.463766	0.069958	-0.381744	0.07683	-0.11929	0.329091	-0.938248	
0.720325	3.48358	0	0	-0.0308283	-0.0132915	-0.163789	-0.380316	-1.66504	0.226963	-0.133137	-0.467678	-0.259587	-1.9452	-0.819591	-0.191303	-0.707523	-0.2883	-0.698252	-0.171727	-0.676519	-0.338494	-0.231124	-0.452968	-0.453719	-0.336431	-0.423074	-0.0463698	-0.002027	-0.469593	0.0665753	-0.372184	0.0775825	-0.121417	0.321492	-0.927004	
0.721133	3.48663	0	0	-0.0441345	-0.052891	-0.171578	-0.404095	-1.66348	0.204371	-0.130701	-0.485575	-0.27003	-1.96665	-0.832196	-0.199453	-0.711743	-0.304111	-0.709426	-0.181264	-0.672327	-0.350341	-0.247714	-0.456263	-0.454481	-0.357345	-0.440891	-0.0500015	3.5E-05	-0.475421	0.0631925	-0.362624	0.078335	-0.123544	0.313894	-0.91576	
0.722409	3.48968	0	0	-0.0574407	-0.0924905	-0.179367	-0.427873	-1.66193	0.181779	-0.128265	-0.503472	-0.280473	-1.9881	-0.844801	-0.207602	-0.715963	-0.319923	-0.720599	-0.190801	-0.668136	-0.362188	-0.264304	-0.459558	-0.455242	-0.378258	-0.458709	-0.0536333	0.002097	-0.481249	0.0598098	-0.353064	0.0790875	-0.12567	0.306295	-0.904517	
0.724008	3.48968	0	0	-0.070747	-0.13209	-0.187156	-0.451652	-1.66037	0.159187	-0.125828	-0.52137	-0.290915	-2.00954	-0.857406	-0.215752	-0.720183	-0.335734	-0.731773	-0.200338	-0.663944	-0.374035	-0.280894	-0.462854	-0.456004	-0.399171	-0.476527	-0.057265	0.004159	-0.487076	0.056427	-0.343504	0.07984	-0.127797	0.298696	-0.893273	
0.725702	3.49121	0	0	-0.0781393	-0.149682	-0.186645	-0.47595	-1.66167	0.144662	-0.130605	-0.529872	-0.297086	-2.026	-0.861817	-0.225133	-0.71166	-0.359822	-0.733488	-0.216014	-0.670269	-0.378997	-0.276997	-0.473868	-0.470644	-0.403842	-0.477242	-0.0821797	-0.00218675	-0.496352	0.0485367	-0.35793	0.065266	-0.121542	0.295063	-0.903451	
0.727258	3.49426	0	0	-0.0855315	-0.167273	-0.186134	-0.500248	-1.66296	0.130137	-0.135383	-0.538373	-0.303257	-2.04245	-0.866229	-0.234515	-0.703137	-0.38391	-0.735204	-0.23169	-0.676595	-0.38396	-0.273099	-0.484882	-0.485284	-0.408513	-0.477957	-0.107095	-0.0085325	-0.505629	0.0406465	-0.372356	0.050692	-0.115288	0.29143	-0.913628	
0.728443	3.49579	0	0	-0.0929237	-0.184864	-0.185622	-0.524547	-1.66426	0.115612	-0.14016	-0.546874	-0.309429	-2.05891	-0.87064	-0.243897	-0.694613	-0.407998	-0.73692	-0.247366	-0.682921	-0.388923	-0.269202	-0.495896	-0.499924	-0.413183	-0.478672	-0.132009	-0.0148782	-0.514905	0.0327563	-0.386782	0.036118	-0.109033	0.287797	-0.923806	
0.729022	3.49274	0	0	-0.100316	-0.202456	-0.185111	-0.548845	-1.66555	0.101087	-0.144937	-0.555376	-0.3156	-2.07536	-0.875051	-0.253278	-0.68609	-0.432086	-0.738635	-0.263042	-0.689246	-0.393885	-0.265305	-0.50691	-0.514564	-0.417854	-0.479387	-0.156924	-0.021224	-0.524181	0.024866	-0.401208	0.021544	-0.102779	0.284164	-0.933984	
0.728771	3.49426	0	0	-0.0944098	-0.199916	-0.191215	-0.554419	-1.66826	0.0905875	-0.143868	-0.558397	-0.319861	-2.08025	-0.873171	-0.258589	-0.69671	-0.429768	-0.746141	-0.26233	-0.687852	-0.397825	-0.269097	-0.512889	-0.511293	-0.427099	-0.477056	-0.163513	-0.0191675	-0.529993	0.0271153	-0.407564	0.022296	-0.104904	0.282348	-0.939064	
0.727708	3.49121	0	0	-0.0885035	-0.197377	-0.197319	-0.559993	-1.67097	0.080088	-0.1428	-0.561418	-0.324122	-2.08513	-0.871292	-0.2639	-0.70733	-0.427451	-0.753647	-0.261618	-0.686457	-0.401765	-0.27289	-0.518868	-0.508022	-0.436344	-0.474724	-0.170101	-0.017111	-0.535805	0.0293645	-0.413921	0.023048	-0.107029	0.280531	-0.944144	
0.726123	3.48511	0	0	-0.0825972	-0.194837	-0.203424	-0.565566	-1.67368	0.0695885	-0.141731	-0.564438	-0.328383	-2.09001	-0.869413	-0.269211	-0.71795	-0.425134	-0.761153	-0.260907	-0.685063	-0.405706	-0.276682	-0.524848	-0.50475	-0.445589	-0.472393	-0.176689	-0.0150545	-0.541618	0.0316137	-0.420277	0.0238	-0.109155	0.278714	-0.949225	
0.72432	3.48358	0	0	-0.076691	-0.192298	-0.209528	-0.57114	-1.6764	0.059089	-0.140662	-0.567459	-0.332644	-2.0949	-0.867533	-0.274522	-0.72857	-0.422816	-0.768659	-0.260195	-0.683669	-0.409646	-0.280475	-0.530827	-0.501479	-0.454834	-0.470062	-0.183278	-0.012998	-0.54743	0.033863	-0.426633	0.024552	-0.11128	0.276898	-0.954305	
0.722606	3.48511	0	0	-0.0944495	-0.238069	-0.213191	-0.594975	-1.69427	0.0371363	-0.143032	-0.593716	-0.341895	-2.11943	-0.878229	-0.287912	-0.741274	-0.442181	-0.779792	-0.269666	-0.691381	-0.410661	-0.291936	-0.531785	-0.507155	-0.461773	-0.490145	-0.180275	-0.0150545	-0.541618	0.0327412	-0.41123	0.0345155	-0.116157	0.273052	-0.943434	
0.721284	3.47748	0	0	-0.112208	-0.28384	-0.216853	-0.61881	-1.71215	0.0151835	-0.145402	-0.619973	-0.351145	-2.14397	-0.888926	-0.301303	-0.753979	-0.461546	-0.790925	-0.279138	-0.699094	-0.411676	-0.303398	-0.532742	-0.512831	-0.468711	-0.510228	-0.177271	-0.017111	-0.535805	0.0316195	-0.395826	0.044479	-0.121033	0.269205	-0.932563	
0.720632	3.47748	0	0	-0.129966	-0.32961	-0.220516	-0.642644	-1.73002	-0.00676925	-0.147773	-0.646231	-0.360396	-2.16851	-0.899622	-0.314693	-0.766683	-0.48091	-0.802059	-0.288609	-0.706807	-0.412691	-0.31486	-0.533699	-0.518508	-0.47565	-0.53031	-0.174267	-0.0191675	-0.529993	0.0304977	-0.380423	0.0544425	-0.12591	0.265358	-0.921692	
0.720628	3.4729	0	0	-0.147725	-0.375381	-0.224179	-0.666479	-1.7479	-0.028722	-0.150143	-0.672488	-0.369647	-2.19305	-0.910319	-0.328083	-0.779387	-0.500275	-0.813192	-0.29808	-0.714519	-0.413706	-0.326321	-0.534657	-0.524184	-0.482588	-0.550393	-0.171264	-0.021224	-0.524181	0.029376	-0.36502	0.064406	-0.130787	0.261512	-0.910821	
0.721066	3.46527	0	0	-0.147845	-0.413288	-0.226133	-0.672338	-1.74781	-0.047059	-0.144826	-0.687515	-0.380062	-2.21416	-0.914725	-0.337402	-0.783617	-0.515894	-0.816829	-0.308236	-0.71666	-0.430439	-0.327516	-0.547931	-0.526597	-0.49872	-0.553442	-0.189465	-0.025511	-0.539236	0.016999	-0.378926	0.0490898	-0.122412	0.255113	-0.923345	
0.72174	3.46832	0	0	-0.147964	-0.451195	-0.228087	-0.678197	-1.74771	-0.065396	-0.139508	-0.702543	-0.390478	-2.23527	-0.919131	-0.346722	-0.787847	-0.531512	-0.820466	-0.318392	-0.718801	-0.447171	-0.328712	-0.561205	-0.529011	-0.514852	-0.556492	-0.207666	-0.029798	-0.554291	0.004622	-0.392833	0.0337735	-0.114038	0.248713	-0.935868	
0.722443	3.47595	0	0	-0.148084	-0.489101	-0.230041	-0.684056	-1.74762	-0.083733	-0.134191	-0.71757	-0.400893	-2.25637	-0.923537	-0.356042	-0.792077	-0.547131	-0.824102	-0.328549	-0.720943	-0.463904	-0.329908	-0.574478	-0.531424	-0.530984	-0.559541	-0.225867	-0.034085	-0.569347	-0.007755	-0.40674	0.0184573	-0.105663	0.242314	-0.948392	
0.722967	3.47442	0	0	-0.148204	-0.527008	-0.231995	-0.689915	-1.74753	-0.10207	-0.128874	-0.732597	-0.411308	-2.27748	-0.927943	-0.365361	-0.796307	-0.562749	-0.827739	-0.338705	-0.723084	-0.480636	-0.331103	-0.587752	-0.533837	-0.547116	-0.56259	-0.244068	-0.038372	-0.584402	-0.020132	-0.420646	0.003141	-0.097289	0.235914	-0.960916	
0.723133	3.47748	0	0	-0.145224	-0.516317	-0.233328	-0.674765	-1.73921	-0.107506	-0.125147	-0.721167	-0.422123	-2.28054	-0.927943	-0.365361	-0.804757	-0.5664	-0.827739	-0.338705	-0.728006	-0.489481	-0.334885	-0.5937	-0.528957	-0.560909	-0.557953	-0.257172	-0.034271	-0.595993	-0.022389	-0.438663	-0.00605125	-0.094549	0.226645	-0.965279	
0.722917	3.47442	0	0	-0.142244	-0.505626	-0.234662	-0.659614	-1.73089	-0.112942	-0.121419	-0.709736	-0.432937	-2.2836	-0.927943	-0.365361	-0.813207	-0.570052	-0.827739	-0.338705	-0.732928	-0.498325	-0.338668	-0.599647	-0.524077	-0.574701	-0.553316	-0.270277	-0.03017	-0.607584	-0.024646	-0.456679	-0.0152435	-0.091809	0.217377	-0.969643	
0.722346	3.47137	0	0	-0.139265	-0.494934	-0.235996	-0.644464	-1.72257	-0.118377	-0.117692	-0.698306	-0.443752	-2.28665	-0.927943	-0.365361	-0.821657	-0.573703	-0.827739	-0.338705	-0.737851	-0.50717	-0.34245	-0.605595	-0.519196	-0.588494	-0.54868	-0.283381	-0.026069	-0.619174	-0.026903	-0.474695	-0.0244357	-0.089069	0.208108	-0.974006	
0.721444	3.4668	0	0	-0.136285	-0.484243	-0.237329	-0.629314	-1.71425	-0.123813	-0.113965	-0.686876	-0.454567	-2.28971	-0.927943	-0.365361	-0.830107	-0.577354	-0.827739	-0.338705	-0.742773	-0.516015	-0.346232	-0.611542	-0.514316	-0.602286	-0.544043	-0.296485	-0.021968	-0.630765	-0.02916	-0.492712	-0.033628	-0.086329	0.198839	-0.97837	
0.72024	3.46527	0	0	-0.14966	-0.522778	-0.238185	-0.638278	-1.72249	-0.136657	-0.124868	-0.688999	-0.463037	-2.29933	-0.936082	-0.364104	-0.836438	-0.586953	-0.842678	-0.337286	-0.738616	-0.527763	-0.355079	-0.61977	-0.524867	-0.595392	-0.554053	-0.294976	-0.0199192	-0.636555	-0.03028	-0.489547	-0.0229325	-0.0933178	0.189475	-0.972251	
0.718758	3.46374	0	0	-0.163035	-0.561313	-0.23904	-0.647241	-1.73073	-0.1495	-0.135771	-0.691121	-0.471507	-2.30895	-0.944222	-0.362847	-0.842769	-0.596553	-0.857617	-0.335867	-0.734459	-0.539511	-0.363926	-0.627999	-0.535417	-0.588498	-0.564063	-0.293467	-0.0178705	-0.642344	-0.0314	-0.486382	-0.012237	-0.100306	0.180111	-0.966133	
0.717027	3.45917	0	0	-0.17641	-0.599848	-0.239895	-0.656204	-1.73897	-0.162344	-0.146675	-0.693244	-0.479977	-2.31857	-0.952362	-0.36159	-0.8491	-0.606152	-0.872556	-0.334448	-0.730302	-0.55126	-0.372772	-0.636227	-0.545968	-0.581604	-0.574072	-0.291959	-0.0158218	-0.648134	-0.03252	-0.483216	-0.0015415	-0.107295	0.170748	-0.960014	
0.715079	3.45764	0	0	-0.189785	-0.638383	-0.240751	-0.665168	-1.74721	-0.175187	-0.157578	-0.695366	-0.488447	-2.3282	-0.960501	-0.360333	-0.855431	-0.615751	-0.887495	-0.333029	-0.726145	-0.563008	-0.381619	-0.644455	-0.556519	-0.57471	-0.584082	-0.29045	-0.013773	-0.653923	-0.03364	-0.480051	0.009154	-0.114284	0.161384	-0.953896	
0.712945	3.45917	0	0	-0.194314	-0.663633	-0.241846	-0.662073	-1.74582	-0.179133	-0.157578	-0.695366	-0.494588	-2.34434	-0.964897	-0.369631	-0.859656	-0.631263	-0.891118	-0.343156	-0.726927	-0.583525	-0.378967	-0.668543	-0.546781	-0.602231	-0.584836	-0.315061	-0.040957	-0.658373	-0.053822	-0.496007	-0.0160572	-0.101075	0.147589	-0.965675	
0.710658	3.45154	0	0	-0.198844	-0.688882	-0.242941	-0.658978	-1.74442	-0.183078	-0.157578	-0.695366	-0.50073	-2.36048	-0.969293	-0.378928	-0.86388	-0.646775	-0.894742	-0.353283	-0.72771	-0.604043	-0.376315	-0.692631	-0.537043	-0.629752	-0.58559	-0.339672	-0.068141	-0.662823	-0.074004	-0.511964	-0.0412685	-0.0878665	0.133795	-0.977454	
0.708249	3.45154	0	0	-0.203373	-0.714131	-0.244037	-0.655883	-1.74302	-0.187024	-0.157578	-0.695366	-0.506871	-2.37663	-0.973688	-0.388226	-0.868105	-0.662286	-0.898365	-0.36341	-0.728492	-0.62456	-0.373663	-0.716719	-0.527305	-0.657273	-0.586344	-0.364282	-0.095325	-0.667272	-0.094186	-0.52792	-0.0664798	-0.0746577	0.12	-0.989234	
0.705751	3.44391	0	0	-0.207902	-0.739381	-0.245132	-0.652788	-1.74163	-0.190969	-0.157578	-0.695366	-0.513012	-2.39277	-0.978084	-0.397523	-0.872329	-0.677798	-0.901988	-0.373537	-0.729274	-0.645077	-0.371011	-0.740807	-0.517567	-0.684794	-0.587098	-0.388893	-0.122509	-0.671722	-0.114368	-0.543876	-0.091691	-0.061449	0.106206	-1.00101	
0.70316	3.44543	0	0	-0.2078	-0.720654	-0.243427	-0.634837	-1.73059	-0.186042	-0.152003	-0.678186	-0.516082	-2.40082	-0.976219	-0.402793	-0.880749	-0.681415	-0.907524	-0.378237	-0.722379	-0.664563	-0.377289	-0.756206	-0.523247	-0.691637	-0.577885	-0.41493	-0.114354	-0.694769	-0.121094	-0.561258	-0.106928	-0.0531242	0.09054	-1.00737	
0.700438	3.44086	0	0	-0.207698	-0.701928	-0.241722	-0.616887	-1.71955	-0.181116	-0.146427	-0.661007	-0.519153	-2.40887	-0.974355	-0.408064	-0.889168	-0.685031	-0.91306	-0.382937	-0.715484	-0.684049	-0.383567	-0.771605	-0.528927	-0.698481	-0.568673	-0.440966	-0.1062	-0.717815	-0.12782	-0.578641	-0.122165	-0.0447995	0.074874	-1.01372	
0.697549	3.43475	0	0	-0.207595	-0.683202	-0.240017	-0.598936	-1.7085	-0.176189	-0.140852	-0.643827	-0.522223	-2.41692	-0.97249	-0.413334	-0.897587	-0.688647	-0.918595	-0.387637	-0.708589	-0.703536	-0.389846	-0.787003	-0.534607	-0.705324	-0.55946	-0.467002	-0.0980447	-0.740862	-0.134545	-0.596023	-0.137403	-0.0364748	0.059208	-1.02007	
0.694452	3.43475	0	0	-0.207493	-0.664475	-0.238312	-0.580985	-1.69746	-0.171263	-0.135277	-0.626647	-0.525293	-2.42497	-0.970625	-0.418604	-0.906007	-0.692264	-0.924131	-0.392337	-0.701694	-0.723022	-0.396124	-0.802402	-0.540287	-0.712167	-0.550247	-0.493039	-0.08989	-0.763909	-0.141271	-0.613405	-0.15264	-0.02815	0.043542	-1.02642	
0.691111	3.43323	0	0	-0.238056	-0.635089	-0.253188	-0.561712	-1.70578	-0.165827	-0.151503	-0.613727	-0.531829	-2.42321	-0.98061	-0.412079	-0.906007	-0.692264	-0.918398	-0.40854	-0.709388	-0.723978	-0.403677	-0.814138	-0.540287	-0.712167	-0.550247	-0.493039	-0.0962205	-0.773031	-0.155764	-0.608765	-0.157963	-0.024672	0.037936	-1.02069	
0.687503	3.4256	0	0	-0.268618	-0.605703	-0.268064	-0.542439	-1.7141	-0.160392	-0.167728	-0.600807	-0.538365	-2.42145	-0.990596	-0.405554	-0.906007	-0.692264	-0.912664	-0.424743	-0.717082	-0.724934	-0.41123	-0.825873	-0.540287	-0.712167	-0.550247	-0.493039	-0.102551	-0.782153	-0.170257	-0.604125	-0.163286	-0.021194	0.03233	-1.01495	
0.683678	3.42407	0	0	-0.299181	-0.576317	-0.282941	-0.523166	-1.72242	-0.154956	-0.183953	-0.587887	-0.5449	-2.41969	-1.00058	-0.39903	-0.906007	-0.692264	-0.906931	-0.440946	-0.724776	-0.725889	-0.418784	-0.837609	-0.540287	-0.712167	-0.550247	-0.493039	-0.108881	-0.791275	-0.18475	-0.599485	-0.168609	-0.017716	0.026724	-1.00922	
0.679703	3.42255	0	0	-0.329743	-0.546931	-0.297817	-0.503893	-1.73074	-0.149521	-0.200179	-0.574967	-0.551436	-2.41793	-1.01057	-0.392505	-0.906007	-0.692264	-0.901198	-0.457149	-0.73247	-0.726845	-0.426337	-0.849345	-0.540287	-0.712167	-0.550247	-0.493039	-0.115212	-0.800397	-0.199243	-0.594845	-0.173932	-0.014238	0.021118	-1.00348	
0.675648	3.42102	0	0	-0.342851	-0.547782	-0.300017	-0.497674	-1.72662	-0.143094	-0.204449	-0.562899	-0.556414	-2.43725	-1.01681	-0.396519	-0.89763	-0.715937	-0.919695	-0.465774	-0.726969	-0.74239	-0.438924	-0.863286	-0.542732	-0.728125	-0.561041	-0.515903	-0.121536	-0.809498	-0.227027	-0.588751	-0.18913	-0.00593875	-0.0076985	-0.982583	
0.671582	3.42102	0	0	-0.355959	-0.548633	-0.302218	-0.491455	-1.72249	-0.136667	-0.20872	-0.550831	-0.561391	-2.45656	-1.02306	-0.400533	-0.889254	-0.73961	-0.938193	-0.474399	-0.721469	-0.757935	-0.451512	-0.877227	-0.545177	-0.744082	-0.571835	-0.538766	-0.12786	-0.818599	-0.25481	-0.582656	-0.204327	0.0023605	-0.036515	-0.961682	
0.667575	3.41797	0	0	-0.369066	-0.549484	-0.304418	-0.485236	-1.71837	-0.13024	-0.21299	-0.538762	-0.566369	-2.47587	-1.02931	-0.404548	-0.880877	-0.763283	-0.956691	-0.483023	-0.715969	-0.77348	-0.464099	-0.891168	-0.547622	-0.760039	-0.582629	-0.56163	-0.134185	-0.827699	-0.282593	-0.576562	-0.219525	0.0106598	-0.0653315	-0.940781	
0.663727	3.41644	0	0	-0.382174	-0.550335	-0.306619	-0.479017	-1.71425	-0.123813	-0.21726	-0.526694	-0.571346	-2.49518	-1.03556	-0.408562	-0.872501	-0.786956	-0.975188	-0.491648	-0.710468	-0.789025	-0.476686	-0.905109	-0.550067	-0.775997	-0.593423	-0.584493	-0.140509	-0.8368	-0.310377	-0.570468	-0.234723	0.018959	-0.094148	-0.919879	
0.660156	3.41339	0	0	-0.3894	-0.529913	-0.301647	-0.470298	-1.70056	-0.09004	-0.211268	-0.488702	-0.574412	-2.50318	-1.02744	-0.409815	-0.876744	-0.802335	-0.975007	-0.512415	-0.711842	-0.785141	-0.47537	-0.925306	-0.548453	-0.780557	-0.608769	-0.594337	-0.153139	-0.854937	-0.340235	-0.5942	-0.255942	0.032824	-0.108726	-0.92898	
0.656982	3.41644	0	0	-0.396626	-0.509491	-0.296675	-0.461579	-1.68686	-0.056267	-0.205276	-0.450711	-0.577479	-2.51118	-1.01933	-0.411068	-0.880987	-0.817714	-0.974827	-0.533182	-0.713216	-0.781257	-0.474053	-0.945502	-0.54684	-0.785116	-0.624116	-0.604182	-0.165769	-0.873074	-0.370093	-0.617932	-0.277161	0.046689	-0.123303	-0.938081	
0.654326	3.40729	0	0	-0.403853	-0.489069	-0.291704	-0.45286	-1.67317	-0.022494	-0.199284	-0.412719	-0.580546	-2.51918	-1.01122	-0.412321	-0.88523	-0.833093	-0.974646	-0.553949	-0.714591	-0.777374	-0.472737	-0.965699	-0.545227	-0.789676	-0.639463	-0.614026	-0.178399	-0.891212	-0.39995	-0.641664	-0.29838	0.060554	-0.137881	-0.947182	
0.652305	3.40576	0	0	-0.411079	-0.468647	-0.286732	-0.444141	-1.65948	0.011279	-0.193292	-0.374727	-0.583612	-2.52719	-1.00311	-0.413574	-0.889473	-0.848472	-0.974465	-0.574716	-0.715965	-0.77349	-0.47142	-0.985895	-0.543613	-0.794236	-0.654809	-0.62387	-0.191029	-0.909349	-0.429808	-0.665396	-0.319599	0.074419	-0.152458	-0.956283	
0.650909	3.40881	0	0	-0.409593	-0.43495	-0.29032	-0.422605	-1.64448	0.0598863	-0.180758	-0.321929	-0.584763	-2.52393	-1.00059	-0.399011	-0.899967	-0.846145	-0.968777	-0.590793	-0.70056	-0.771601	-0.486565	-0.975998	-0.546841	-0.785114	-0.662466	-0.628781	-0.199352	-0.912685	-0.445227	-0.681613	-0.324145	0.0757582	-0.164416	-0.952601	
0.649956	3.40423	0	0	-0.408108	-0.401253	-0.293909	-0.401068	-1.62948	0.108493	-0.168223	-0.269131	-0.585913	-2.52068	-0.998064	-0.384448	-0.910461	-0.843819	-0.963088	-0.606869	-0.685154	-0.769711	-0.501711	-0.966102	-0.550069	-0.775992	-0.670123	-0.633692	-0.207674	-0.916021	-0.460646	-0.697829	-0.328691	0.0770975	-0.176374	-0.94892	
0.649253	3.40118	0	0	-0.406622	-0.367555	-0.297497	-0.379532	-1.61449	0.157101	-0.155689	-0.216333	-0.587063	-2.51743	-0.99554	-0.369885	-0.920954	-0.841492	-0.957399	-0.622946	-0.669748	-0.767821	-0.516856	-0.956205	-0.553296	-0.76687	-0.67778	-0.638604	-0.215997	-0.919357	-0.476065	-0.714046	-0.333237	0.0784367	-0.188332	-0.945238	
0.648607	3.40118	0	0	-0.405136	-0.333858	-0.301085	-0.357996	-1.59949	0.205708	-0.143155	-0.163535	-0.588214	-2.51418	-0.993016	-0.355322	-0.931448	-0.839166	-0.951711	-0.639023	-0.654343	-0.765932	-0.532002	-0.946309	-0.556524	-0.757748	-0.685437	-0.643515	-0.22432	-0.922693	-0.491484	-0.730263	-0.337783	0.079776	-0.20029	-0.941557	
0.647823	3.40118	0	0	-0.421122	-0.345494	-0.305224	-0.357693	-1.59264	0.222878	-0.139487	-0.15178	-0.590516	-2.50767	-0.991149	-0.360599	-0.93562	-0.827376	-0.95913	-0.63829	-0.664591	-0.714214	-0.482944	-1.10139	-0.552465	-0.746353	-0.667743	-0.772947	-0.234895	-0.946404	-0.512405	-0.790151	-0.385305	0.110828	-0.190677	-0.978751	
0.64678	3.39966	0	0	-0.437108	-0.357131	-0.309364	-0.35739	-1.5858	0.240048	-0.135819	-0.140025	-0.592819	-2.50117	-0.989282	-0.365876	-0.939792	-0.815587	-0.966549	-0.637557	-0.674839	-0.662496	-0.433886	-1.25646	-0.548405	-0.734957	-0.65005	-0.902378	-0.24547	-0.970116	-0.533326	-0.85004	-0.432827	0.14188	-0.181065	-1.01595	
0.64551	3.39813	0	0	-0.453094	-0.368767	-0.313503	-0.357088	-1.57895	0.257218	-0.132152	-0.128271	-0.595121	-2.49466	-0.987415	-0.371152	-0.943963	-0.803798	-0.973967	-0.636825	-0.685086	-0.610778	-0.384829	-1.41154	-0.544346	-0.723562	-0.632356	-1.03181	-0.256046	-0.993827	-0.554246	-0.909928	-0.480349	0.172932	-0.171453	-1.05314	
0.644067	3.39355	0	0	-0.46908	-0.380403	-0.317642	-0.356785	-1.5721	0.274388	-0.128484	-0.116516	-0.597424	-2.48815	-0.985548	-0.376429	-0.948135	-0.792008	-0.981386	-0.636092	-0.695334	-0.55906	-0.335771	-1.56662	-0.540287	-0.712167	-0.614663	-1.16124	-0.266621	-1.01754	-0.575167	-0.969816	-0.527871	0.203984	-0.16184	-1.09033	
0.642507	3.40118	0	0	-0.506678	-0.406043	-0.358572	-0.411208	-1.5364	0.357168	-0.168473	-0.146818	-0.849314	-2.68661	-1.21259	-0.686877	-1.00152	-1.0196	-1.63471	-1.70413	-0.804693	-0.677671	-0.717826	-2.06092	-0.74973	-0.948192	-0.730302	-1.38113	-0.315747	-0.985438	-0.728455	-1.01676	-0.7352	0.337826	-0.292159	-1.09912	
0.640882	3.40423	0	0	-0.544275	-0.431682	-0.399502	-0.465632	-1.50069	0.439947	-0.208462	-0.177119	-1.1012	-2.88506	-1.43964	-0.997325	-1.05491	-1.24719	-2.28804	-2.77216	-0.914052	-0.796282	-1.09988	-2.55522	-0.959172	-1.18422	-0.845942	-1.60102	-0.364873	-0.953339	-0.881744	-1.0637	-0.942529	0.471669	-0.422478	-1.10791	
0.639222	3.40118	0	0	-0.581873	-0.457322	-0.440432	-0.520056	-1.46499	0.522726	-0.248452	-0.207421	-1.35309	-3.08351	-1.66668	-1.30777	-1.1083	-1.47478	-2.94137	-3.84019	-1.02341	-0.914892	-1.48194	-3.04952	-1.16862	-1.42024	-0.961581	-1.82091	-0.413999	-0.921239	-1.03503	-1.11064	-1.14986	0.605511	-0.552798	-1.1167	
0.63747	3.40271	0	0	-0.61947	-0.482962	-0.481362	-0.574479	-1.42928	0.605506	-0.288441	-0.237723	-1.60499	-3.28197	-1.89373	-1.61822	-1.16169	-1.70237	-3.5947	-4.90822	-1.13277	-1.0335	-1.86399	-3.54382	-1.37806	-1.65627	-1.07722	-2.0408	-0.463125	-0.889139	-1.18832	-1.15759	-1.35719	0.739354	-0.683117	-1.12549	
0.635554	3.40729	0	0	-0.646795	-0.46198	-0.515188	-0.568969	-1.406	0.669375	-0.308984	-0.212581	-1.74688	-3.39729	-1.96157	-1.79413	-1.19962	-1.78154	-3.89865	-5.60778	-1.1696	-1.01822	-1.97458	-3.70813	-1.45159	-1.68767	-1.11466	-2.06282	-0.467145	-0.877777	-1.24446	-1.183	-1.41864	0.779508	-0.73484	-1.12608	
0.633401	3.41034	0	0	-0.67412	-0.440998	-0.549014	-0.563458	-1.38272	0.733243	-0.329528	-0.187439	-1.88877	-3.51261	-2.0294	-1.97003	-1.23756	-1.86072	-4.2026	-6.30733	-1.20643	-1.00294	-2.08516	-3.87244	-1.52512	-1.71907	-1.1521	-2.08484	-0.471166	-0.866415	-1.3006	-1.2084	-1.48009	0.819662	-0.786563	-1.12668	
0.630937	3.40881	0	0	-0.701445	-0.420017	-0.582841	-0.557948	-1.35944	0.797112	-0.350072	-0.162297	-2.03066	-3.62793	-2.09724	-2.14594	-1.2755	-1.93989	-4.50656	-7.00688	-1.24326	-0.987655	-2.19575	-4.03675	-1.59865	-1.75048	-1.18955	-2.10686	-0.475186	-0.855053	-1.35674	-1.23381	-1.54154	0.859815	-0.838285	-1.12728	
0.628135	3.41034	0	0	-0.72877	-0.399035	-0.616667	-0.552438	-1.33616	0.860981	-0.370615	-0.137155	-2.17255	-3.74325	-2.16508	-2.32184	-1.31343	-2.01907	-4.81051	-7.70643	-1.28008	-0.972372	-2.30633	-4.20106	-1.67218	-1.78188	-1.22699	-2.12888	-0.479206	-0.843691	-1.41288	-1.25922	-1.60299	0.899969	-0.890008	-1.12788	
0.625139	3.41034	0	0	-0.736171	-0.321877	-0.63117	-0.500213	-1.33249	0.906477	-0.376426	-0.0768298	-2.21122	-3.75701	-2.14644	-2.33402	-1.31085	-1.9733	-4.86512	-7.92997	-1.25045	-0.900446	-2.24441	-4.15405	-1.67121	-1.7197	-1.20994	-2.07485	-0.46677	-0.825545	-1.42236	-1.25532	-1.56207	0.873232	-0.891866	-1.12263	
0.622129	3.41492	0	0	-0.743571	-0.24472	-0.645673	-0.447989	-1.32883	0.951974	-0.382237	-0.0165045	-2.24988	-3.77078	-2.12781	-2.3462	-1.30827	-1.92753	-4.91973	-8.15351	-1.22081	-0.82852	-2.18249	-4.10705	-1.67023	-1.65751	-1.1929	-2.02082	-0.454334	-0.807398	-1.43184	-1.25141	-1.52116	0.846494	-0.893725	-1.11737	
0.619289	3.41339	0	0	-0.750972	-0.167563	-0.660176	-0.395765	-1.32517	0.99747	-0.388048	0.0438207	-2.28855	-3.78454	-2.10917	-2.35837	-1.30569	-1.88176	-4.97434	-8.37705	-1.19118	-0.756594	-2.12057	-4.06005	-1.66926	-1.59532	-1.17586	-1.96679	-0.441898	-0.789252	-1.44132	-1.24751	-1.48024	0.819757	-0.895583	-1.11212	
0.6168	3.40729	0	0	-0.758372	-0.090405	-0.674679	-0.34354	-1.3215	1.04297	-0.393859	0.104146	-2.32722	-3.7983	-2.09054	-2.37055	-1.30311	-1.836	-5.02895	-8.60059	-1.16155	-0.684668	-2.05865	-4.01305	-1.66829	-1.53313	-1.15881	-1.91276	-0.429462	-0.771106	-1.4508	-1.24361	-1.43932	0.79302	-0.897441	-1.10687	
0.614795	3.41186	0	0	-0.791682	-0.0337797	-0.719601	-0.295102	-1.32889	1.06383	-0.404076	0.144013	-2.34342	-3.78313	-2.08541	-2.34445	-1.29415	-1.75472	-5.03606	-8.67378	-1.15258	-0.598006	-1.98937	-3.92378	-1.65206	-1.47027	-1.14615	-1.84579	-0.42931	-0.744832	-1.44976	-1.22366	-1.4085	0.772883	-0.903194	-1.08086	
0.613254	3.40729	0	0	-0.824992	0.0228455	-0.764522	-0.246665	-1.33627	1.08469	-0.414293	0.18388	-2.35963	-3.76796	-2.08029	-2.31834	-1.2852	-1.67344	-5.04318	-8.74696	-1.14361	-0.511345	-1.9201	-3.83451	-1.63583	-1.40741	-1.13348	-1.77882	-0.429158	-0.718558	-1.44872	-1.20371	-1.37768	0.752746	-0.908948	-1.05485	
0.61213	3.40423	0	0	-0.858302	0.0794707	-0.809444	-0.198227	-1.34365	1.10555	-0.424511	0.223747	-2.37584	-3.75279	-2.07517	-2.29224	-1.27625	-1.59216	-5.05029	-8.82015	-1.13465	-0.424683	-1.85082	-3.74525	-1.6196	-1.34455	-1.12081	-1.71186	-0.429006	-0.692285	-1.44768	-1.18375	-1.34687	0.73261	-0.914701	-1.02885	
0.611373	3.40423	0	0	-0.891612	0.136096	-0.854366	-0.149789	-1.35103	1.12641	-0.434728	0.263614	-2.39205	-3.73762	-2.07005	-2.26613	-1.26729	-1.51088	-5.0574	-8.89333	-1.12568	-0.338022	-1.78154	-3.65598	-1.60337	-1.28169	-1.10815	-1.64489	-0.428854	-0.666011	-1.44665	-1.1638	-1.31605	0.712473	-0.920454	-1.00284	
0.610936	3.40271	0	0	-0.903158	0.149998	-0.87053	-0.115296	-1.37409	1.15434	-0.459755	0.30139	-2.40331	-3.72109	-2.05387	-2.25083	-1.24415	-1.44219	-5.03469	-8.91093	-1.11418	-0.257841	-1.71124	-3.54983	-1.60426	-1.21363	-1.10752	-1.56923	-0.428731	-0.639617	-1.44671	-1.12924	-1.3006	0.702377	-0.9165	-0.974967	
0.610788	3.40423	0	0	-0.914704	0.163899	-0.886695	-0.080803	-1.39715	1.18226	-0.484783	0.339166	-2.41457	-3.70456	-2.03768	-2.23553	-1.22101	-1.3735	-5.01198	-8.92854	-1.10269	-0.177659	-1.64093	-3.44368	-1.60515	-1.14557	-1.10689	-1.49356	-0.428609	-0.613222	-1.44678	-1.09468	-1.28515	0.692281	-0.912546	-0.947094	
0.610942	3.40118	0	0	-0.926249	0.177801	-0.902859	-0.04631	-1.42022	1.21019	-0.509811	0.376941	-2.42583	-3.68804	-2.0215	-2.22023	-1.19786	-1.30481	-4.98926	-8.94614	-1.09119	-0.0974782	-1.57063	-3.33753	-1.60604	-1.07751	-1.10626	-1.4179	-0.428486	-0.586827	-1.44685	-1.06012	-1.2697	0.682186	-0.908591	-0.919222	
0.611414	3.39813	0	0	-0.937795	0.191702	-0.919024	-0.011817	-1.44328	1.23812	-0.534838	0.414717	-2.43709	-3.67151	-2.00532	-2.20493	-1.17472	-1.23612	-4.96655	-8.96375	-1.07969	-0.017297	-1.50032	-3.23138	-1.60692	-1.00945	-1.10563	-1.34224	-0.428363	-0.560433	-1.44691	-1.02556	-1.25425	0.67209	-0.904637	-0.89135	
0.612221	3.39813	0	0	-0.92364	0.207941	-0.924597	0.0375247	-1.44921	1.25487	-0.538575	0.436257	-2.4357	-3.64484	-1.98139	-2.19088	-1.16407	-1.15823	-4.9236	-8.94468	-1.06894	0.0429617	-1.4378	-3.12937	-1.60329	-0.953944	-1.08661	-1.29223	-0.444743	-0.540882	-1.45861	-0.992485	-1.24909	0.668721	-0.914956	-0.862187	
0.613381	3.40423	0	0	-0.909485	0.22418	-0.930171	0.0868665	-1.45514	1.27163	-0.542312	0.457797	-2.43431	-3.61816	-1.95745	-2.17683	-1.15343	-1.08034	-4.88065	-8.92562	-1.05819	0.10322	-1.37528	-3.02737	-1.59966	-0.898436	-1.06759	-1.24222	-0.461123	-0.521331	-1.47032	-0.959414	-1.24393	0.665351	-0.925275	-0.833023	
0.614944	3.40271	0	0	-0.895331	0.240418	-0.935744	0.136208	-1.46107	1.28838	-0.546048	0.479337	-2.43291	-3.59149	-1.93352	-2.16278	-1.14278	-1.00245	-4.8377	-8.90655	-1.04744	0.163479	-1.31277	-2.92536	-1.59603	-0.842928	-1.04857	-1.19221	-0.477503	-0.501781	-1.48202	-0.926344	-1.23878	0.661982	-0.935594	-0.80386	
0.61701	3.39966	0	0	-0.881176	0.256657	-0.941318	0.18555	-1.46699	1.30514	-0.549785	0.500877	-2.43152	-3.56482	-1.90958	-2.14873	-1.13214	-0.92456	-4.79474	-8.88749	-1.03669	0.223738	-1.25025	-2.82335	-1.59239	-0.78742	-1.02955	-1.1422	-0.493883	-0.48223	-1.49372	-0.893273	-1.23362	0.658613	-0.945913	-0.774697	
0.619687	3.39813	0	0	-0.870133	0.300702	-0.94226	0.24433	-1.48298	1.33172	-0.569806	0.535508	-2.43442	-3.52598	-1.90189	-2.10898	-1.1196	-0.851394	-4.74384	-8.84241	-1.03512	0.287554	-1.19328	-2.71727	-1.57873	-0.737975	-1.01052	-1.09161	-0.495921	-0.47647	-1.48849	-0.885103	-1.23362	0.658613	-0.946116	-0.764349	
0.623084	3.39813	0	0	-0.85909	0.344748	-0.943202	0.30311	-1.49897	1.3583	-0.589827	0.57014	-2.43731	-3.48713	-1.89419	-2.06924	-1.10706	-0.778227	-4.69294	-8.79733	-1.03354	0.351369	-1.1363	-2.61118	-1.56506	-0.68853	-0.991498	-1.04103	-0.497959	-0.470711	-1.48326	-0.876933	-1.23362	0.658613	-0.946319	-0.754001	
0.627305	3.39966	0	0	-0.848046	0.388794	-0.944143	0.36189	-1.51495	1.38488	-0.609849	0.604771	-2.44021	-3.44829	-1.88649	-2.02949	-1.09452	-0.70506	-4.64204	-8.75225	-1.03197	0.415184	-1.07933	-2.5051	-1.5514	-0.639085	-0.972474	-0.990452	-0.499997	-0.464951	-1.47803	-0.868762	-1.23362	0.658613	-0.946521	-0.743653	
0.632242	3.39813	0	0	-0.837003	0.432839	-0.945085	0.42067	-1.53094	1.41146	-0.62987	0.639402	-2.4431	-3.40945	-1.87879	-1.98974	-1.08198	-0.631894	-4.59114	-8.70717	-1.03039	0.479	-1.02236	-2.39902	-1.53773	-0.58964	-0.95345	-0.939871	-0.502035	-0.459191	-1.4728	-0.860592	-1.23362	0.658613	-0.946724	-0.733305	
0.637417	3.39508	0	0	-0.840675	0.499858	-0.947307	0.483239	-1.55548	1.44367	-0.643759	0.667689	-2.44006	-3.37196	-1.88234	-1.93858	-1.06748	-0.563634	-4.55971	-8.63707	-1.01557	0.528514	-0.968746	-2.29561	-1.5311	-0.542049	-0.946524	-0.880802	-0.504074	-0.453427	-1.46334	-0.852841	-1.22771	0.653121	-0.940751	-0.720832	
0.642312	3.39661	5	0	-0.844347	0.566877	-0.94953	0.545807	-1.58001	1.47588	-0.657649	0.695976	-2.43702	-3.33447	-1.8859	-1.88742	-1.05298	-0.495374	-4.52828	-8.56697	-1.00074	0.578028	-0.915132	-2.1922	-1.52448	-0.494458	-0.939597	-0.821732	-0.506114	-0.447663	-1.45388	-0.84509	-1.2218	0.647629	-0.934778	-0.708359	
0.646411	3.39508	5	0	-0.848019	0.633896	-0.951753	0.608375	-1.60455	1.50809	-0.671538	0.724264	-2.43398	-3.29697	-1.88945	-1.83625	-1.03848	-0.427114	-4.49685	-8.49686	-0.985915	0.627542	-0.861518	-2.08879	-1.51785	-0.446867	-0.93267	-0.762663	-0.508154	-0.4419	-1.44442	-0.837339	-1.21589	0.642137	-0.928804	-0.695885	
0.649196	3.39508	5	0	-0.851691	0.700915	-0.953975	0.670944	-1.62909	1.54029	-0.685427	0.752551	-2.43094	-3.25948	-1.89301	-1.78509	-1.02398	-0.358854	-4.46543	-8.42676	-0.971089	0.677056	-0.807905	-1.98537	-1.51122	-0.399276	-0.925744	-0.703594	-0.510193	-0.436136	-1.43497	-0.829588	-1.20998	0.636645	-0.922831	-0.683412	
0.65045	3.39203	5	0	-0.871499	0.775815	-0.972608	0.734881	-1.66063	1.57387	-0.718375	0.790934	-2.43613	-3.21404	-1.88544	-1.74464	-1.01585	-0.299483	-4.45006	-8.34206	-0.974555	0.732727	-0.781425	-1.8829	-1.50467	-0.351241	-0.918938	-0.643852	-0.512234	-0.430369	-1.42447	-0.813161	-1.19006	0.62526	-0.918746	-0.665556	
0.650849	3.39355	5	0	-0.891307	0.850715	-0.99124	0.798817	-1.69218	1.60745	-0.751323	0.829318	-2.44131	-3.16861	-1.87786	-1.7042	-1.00772	-0.240112	-4.4347	-8.25735	-0.97802	0.788397	-0.754946	-1.78042	-1.49811	-0.303207	-0.912131	-0.58411	-0.514274	-0.424602	-1.41398	-0.796733	-1.17014	0.613875	-0.914661	-0.647699	
0.651237	3.39508	5	0	-0.911116	0.925616	-1.00987	0.862754	-1.72372	1.64103	-0.784271	0.867702	-2.44649	-3.12317	-1.87029	-1.66375	-0.999584	-0.18074	-4.41934	-8.17265	-0.981486	0.844068	-0.728467	-1.67795	-1.49155	-0.255173	-0.905325	-0.524367	-0.516315	-0.418834	-1.40349	-0.780306	-1.15022	0.60249	-0.910576	-0.629843	
0.652459	3.39203	5	0	-0.930924	1.00052	-1.02851	0.926691	-1.75527	1.67461	-0.817219	0.906085	-2.45168	-3.07773	-1.86272	-1.6233	-0.991452	-0.121369	-4.40397	-8.08795	-0.984952	0.899739	-0.701987	-1.57547	-1.485	-0.207138	-0.898519	-0.464625	-0.518355	-0.413067	-1.393	-0.763879	-1.13031	0.591105	-0.906491	-0.611987	
0.655359	3.39355	5	0	-0.930924	1.00052	-1.0261	0.942458	-1.77629	1.67862	-0.827863	0.903404	-2.45924	-3.05637	-1.85945	-1.5912	-1.00022	-0.0690613	-4.38414	-8.03118	-0.982712	0.939397	-0.674431	-1.49068	-1.49092	-0.168169	-0.897115	-0.415754	-0.524485	-0.395743	-1.39213	-0.731724	-1.1207	0.586461	-0.902639	-0.5836	
0.660609	3.3905	5	0	-0.930924	1.00052	-1.02369	0.958224	-1.79731	1.68263	-0.838507	0.900723	-2.46679	-3.03501	-1.85619	-1.55909	-1.00898	-0.0167535	-4.3643	-7.9744	-0.980472	0.979056	-0.646875	-1.40588	-1.49684	-0.129199	-0.895711	-0.366883	-0.530615	-0.378419	-1.39125	-0.699569	-1.1111	0.581817	-0.898787	-0.555214	
0.667779	3.3905	5	0	-0.930924	1.00052	-1.02128	0.97399	-1.81834	1.68664	-0.849152	0.898041	-2.47435	-3.01365	-1.85292	-1.52698	-1.01775	0.0355543	-4.34446	-7.91763	-0.978232	1.01871	-0.61932	-1.32109	-1.50276	-0.0902302	-0.894307	-0.318012	-0.536745	-0.361095	-1.39038	-0.667413	-1.1015	0.577173	-0.894934	-0.526827	
0.676014	3.38898	5	0	-0.930924	1.00052	-1.01887	0.989757	-1.83936	1.69065	-0.859796	0.89536	-2.48191	-2.99229	-1.84965	-1.49487	-1.02652	0.087862	-4.32463	-7.86086	-0.975992	1.05837	-0.591764	-1.23629	-1.50868	-0.051261	-0.892903	-0.269141	-0.542875	-0.343771	-1.3895	-0.635258	-1.0919	0.572529	-0.891082	-0.49844	
0.684452	3.38745	5	0	-0.932432	1.00478	-1.01761	1.00881	-1.84337	1.68356	-0.873741	0.902065	-2.48732	-2.977	-1.85668	-1.47501	-1.02676	0.11612	-4.31976	-7.79359	-0.974163	1.07624	-0.581848	-1.16603	-1.5103	-0.0466823	-0.887625	-0.257583	-0.557211	-0.329958	-1.39498	-0.608202	-1.103	0.581416	-0.895122	-0.477191	
0.692236	3.3844	5	0	-0.93394	1.00904	-1.01635	1.02786	-1.84739	1.67646	-0.887686	0.90877	-2.49273	-2.96171	-1.86371	-1.45514	-1.027	0.144379	-4.3149	-7.72632	-0.972333	1.09411	-0.571932	-1.09576	-1.51192	-0.0421035	-0.882346	-0.246025	-0.571547	-0.316145	-1.40047	-0.581146	-1.1141	0.590302	-0.899162	-0.455942	
0.698511	3.38592	5	0	-0.935448	1.0133	-1.0151	1.04691	-1.8514	1.66937	-0.90163	0.915475	-2.49814	-2.94642	-1.87074	-1.43527	-1.02725	0.172637	-4.31003	-7.65905	-0.970504	1.11197	-0.562017	-1.0255	-1.51354	-0.0375248	-0.877068	-0.234466	-0.585884	-0.302332	-1.40595	-0.55409	-1.12521	0.599189	-0.903202	-0.434693	
0.702815	3.38135	5	0	-0.936956	1.01756	-1.01384	1.06596	-1.85541	1.66228	-0.915575	0.92218	-2.50355	-2.93113	-1.87777	-1.4154	-1.02749	0.200896	-4.30517	-7.59178	-0.968675	1.12984	-0.552101	-0.955235	-1.51516	-0.032946	-0.87179	-0.222908	-0.60022	-0.288519	-1.41143	-0.527034	-1.13631	0.608076	-0.907242	-0.413444	
0.70541	3.37982	5	0	-0.928933	1.05176	-1.01719	1.09807	-1.86389	1.66782	-0.912776	0.925166	-2.51606	-2.91118	-1.86751	-1.40297	-1.04047	0.237597	-4.29774	-7.53141	-0.973071	1.14227	-0.549842	-0.895805	-1.5184	-0.0237818	-0.878712	-0.203345	-0.596129	-0.30008	-1.41468	-0.517854	-1.13631	0.608076	-0.908195	-0.41075	
0.706631	3.37829	5	0	-0.92091	1.08596	-1.02054	1.13017	-1.87236	1.67336	-0.909977	0.928152	-2.52857	-2.89123	-1.85725	-1.39053	-1.05346	0.274298	-4.2903	-7.47105	-0.977467	1.15469	-0.547583	-0.836375	-1.52164	-0.0146175	-0.885634	-0.183781	-0.592038	-0.31164	-1.41793	-0.508674	-1.13631	0.608076	-0.909148	-0.408057	
0.706817	3.37524	5	0	-0.912886	1.12015	-1.0239	1.16228	-1.88084	1.67889	-0.907179	0.931138	-2.54107	-2.87129	-1.84698	-1.37809	-1.06645	0.310999	-4.28287	-7.41069	-0.981863	1.16711	-0.545324	-0.776944	-1.52489	-0.00545325	-0.892557	-0.164218	-0.587948	-0.323201	-1.42118	-0.499494	-1.13631	0.608076	-0.910101	-0.405363	
0.706304	3.37524	5	0	-0.904863	1.15435	-1.02725	1.19439	-1.88931	1.68443	-0.90438	0.934124	-2.55358	-2.85134	-1.83672	-1.36566	-1.07943	0.3477	-4.27544	-7.35033	-0.986259	1.17954	-0.543065	-0.717514	-1.52813	0.003711	-0.899479	-0.144655	-0.583857	-0.334762	-1.42443	-0.490314	-1.13631	0.608076	-0.911054	-0.40267	
0.70543	3.37372	5	0	-0.898794	1.2133	-1.03065	1.22666	-1.90225	1.7026	-0.909927	0.9498	-2.56009	-2.83293	-1.836	-1.34693	-1.07324	0.357803	-4.27151	-7.29606	-0.993599	1.20028	-0.544687	-0.663414	-1.54324	0.0241632	-0.896529	-0.126477	-0.59613	-0.326743	-1.41279	-0.4885	-1.13114	0.604694	-0.902235	-0.398069	
0.70452	3.36914	5	0	-0.892724	1.27225	-1.03405	1.25893	-1.91519	1.72077	-0.915474	0.965476	-2.56661	-2.81451	-1.83529	-1.32821	-1.06704	0.367905	-4.26759	-7.2418	-1.00094	1.22103	-0.54631	-0.609314	-1.55834	0.0446155	-0.893579	-0.1083	-0.608402	-0.318723	-1.40114	-0.486686	-1.12596	0.601313	-0.893416	-0.393468	
0.703893	3.37067	5	0	-0.886654	1.33119	-1.03745	1.29119	-1.92812	1.73893	-0.92102	0.981152	-2.57313	-2.7961	-1.83457	-1.30948	-1.06084	0.378008	-4.26367	-7.18753	-1.00828	1.24177	-0.547932	-0.555215	-1.57345	0.0650677	-0.89063	-0.0901225	-0.620675	-0.310704	-1.3895	-0.484872	-1.12079	0.597932	-0.884596	-0.388868	
0.703869	3.37067	5	0	-0.880585	1.39014	-1.04085	1.32346	-1.94106	1.7571	-0.926567	0.996828	-2.57964	-2.77769	-1.83385	-1.29076	-1.05465	0.388111	-4.25974	-7.13327	-1.01562	1.26252	-0.549554	-0.501115	-1.58855	0.08552	-0.88768	-0.071945	-0.632948	-0.302685	-1.37786	-0.483058	-1.11561	0.59455	-0.875777	-0.384267	
0.704768	3.36456	5	0	-0.894643	1.37277	-1.04666	1.31723	-1.96442	1.74972	-0.932732	0.981584	-2.59327	-2.7853	-1.84941	-1.28828	-1.0757	0.392432	-4.27696	-7.10096	-1.02769	1.2736	-0.562478	-0.464589	-1.59878	0.0922002	-0.892317	-0.0588407	-0.632948	-0.302685	-1.36737	-0.466299	-1.10082	0.586515	-0.874352	-0.368584	
0.706907	3.36609	5	0	-0.908702	1.35539	-1.05248	1.311	-1.98779	1.74234	-0.938897	0.96634	-2.6069	-2.7929	-1.86496	-1.2858	-1.09676	0.396753	-4.29419	-7.06865	-1.03977	1.28468	-0.575403	-0.428063	-1.609	0.0988805	-0.896954	-0.0457365	-0.632948	-0.302685	-1.35689	-0.449539	-1.08602	0.57848	-0.872928	-0.352901	
0.710446	3.36456	5	0	-0.92276	1.33802	-1.05829	1.30477	-2.01115	1.73496	-0.945062	0.951095	-2.62052	-2.80051	-1.88052	-1.28332	-1.11782	0.401074	-4.31141	-7.03634	-1.05184	1.29577	-0.588327	-0.391537	-1.61922	0.105561	-0.901591	-0.0326323	-0.632948	-0.302685	-1.3464	-0.43278	-1.07123	0.570446	-0.871503	-0.337217	
0.714831	3.36914	5	0	-0.936818	1.32065	-1.0641	1.29853	-2.03451	1.72759	-0.951227	0.935851	-2.63415	-2.80812	-1.89608	-1.28084	-1.13887	0.405395	-4.32863	-7.00403	-1.06391	1.30685	-0.601251	-0.355011	-1.62945	0.112241	-0.906228	-0.019528	-0.632948	-0.302685	-1.33592	-0.416021	-1.05644	0.562411	-0.870078	-0.321534	
0.719314	3.36456	5	0	-0.937945	1.30483	-1.06991	1.29231	-2.04641	1.70636	-0.95739	0.92066	-2.64939	-2.82638	-1.90031	-1.28958	-1.14288	0.389174	-4.34783	-6.98244	-1.06716	1.29301	-0.631623	-0.335166	-1.62831	0.0868302	-0.931205	-0.028366	-0.637038	-0.317754	-1.33899	-0.430549	-1.07641	0.573827	-0.868878	-0.334782	
0.723147	3.36151	5	0	-0.939072	1.28902	-1.07571	1.28609	-2.05831	1.68513	-0.963553	0.905469	-2.66462	-2.84464	-1.90454	-1.29833	-1.14688	0.372953	-4.36703	-6.96085	-1.0704	1.27918	-0.661995	-0.31532	-1.62717	0.0614195	-0.956182	-0.037204	-0.641127	-0.332823	-1.34206	-0.445078	-1.09638	0.585244	-0.867679	-0.348031	
0.725582	3.36456	5	0	-0.940198	1.27321	-1.08152	1.27987	-2.07021	1.66391	-0.969717	0.890278	-2.67986	-2.8629	-1.90877	-1.30707	-1.15088	0.356733	-4.38623	-6.93926	-1.07365	1.26534	-0.692367	-0.295475	-1.62603	0.0360087	-0.981159	-0.046042	-0.645217	-0.347891	-1.34514	-0.459606	-1.11634	0.59666	-0.866479	-0.361279	
0.725872	3.36456	5	0	-0.941325	1.2574	-1.08733	1.27365	-2.08211	1.64268	-0.97588	0.875087	-2.69509	-2.88116	-1.91301	-1.31581	-1.15488	0.340512	-4.40543	-6.91767	-1.0769	1.25151	-0.722739	-0.275629	-1.62488	0.010598	-1.00614	-0.05488	-0.649307	-0.36296	-1.34821	-0.474135	-1.13631	0.608076	-0.865279	-0.374527	
0.723626	3.36151	5	0	-0.938673	1.2689	-1.09253	1.27705	-2.09299	1.63693	-0.983664	0.875377	-2.70542	-2.89784	-1.91548	-1.32952	-1.17152	0.332601	-4.42184	-6.90394	-1.09217	1.24875	-0.738979	-0.279073	-1.63396	-0.0080495	-1.00675	-0.0795457	-0.663588	-0.375741	-1.34703	-0.489043	-1.14665	0.614833	-0.867666	-0.387481	
0.719345	3.35541	0	5	-0.936022	1.2804	-1.09773	1.28045	-2.10387	1.63119	-0.991448	0.875666	-2.71574	-2.91452	-1.91795	-1.34322	-1.18817	0.324691	-4.43824	-6.8902	-1.10745	1.246	-0.755219	-0.282516	-1.64303	-0.026697	-1.00736	-0.104212	-0.677868	-0.388521	-1.34586	-0.503951	-1.15699	0.62159	-0.870053	-0.400435	
0.713666	3.35541	0	5	-0.93337	1.29191	-1.10294	1.28385	-2.11475	1.62545	-0.999231	0.875956	-2.72607	-2.9312	-1.92042	-1.35692	-1.20481	0.31678	-4.45464	-6.87647	-1.12273	1.24324	-0.771458	-0.28596	-1.65211	-0.0453445	-1.00798	-0.128877	-0.692149	-0.401302	-1.34469	-0.518859	-1.16733	0.628346	-0.872439	-0.413388	
0.707227	3.36151	0	5	-0.930719	1.30341	-1.10814	1.28725	-2.12562	1.6197	-1.00701	0.876246	-2.73639	-2.94787	-1.92289	-1.37062	-1.22145	0.30887	-4.47104	-6.86273	-1.13801	1.24049	-0.787698	-0.289403	-1.66118	-0.063992	-1.00859	-0.153543	-0.70643	-0.414083	-1.34352	-0.533767	-1.17767	0.635103	-0.874826	-0.426342	
0.700664	3.35846	0	5	-0.974345	1.33191	-1.12432	1.28782	-2.14584	1.60409	-1.0259	0.864658	-2.75478	-2.95687	-1.93486	-1.37808	-1.23589	0.294896	-4.49405	-6.86277	-1.14271	1.23084	-0.81509	-0.293933	-1.6633	-0.0801082	-1.02364	-0.163696	-0.698312	-0.437026	-1.33818	-0.537254	-1.18284	0.638478	-0.874826	-0.426342	
0.694602	3.35235	0	5	-1.01797	1.36042	-1.1405	1.28839	-2.16606	1.58847	-1.04479	0.85307	-2.77317	-2.96587	-1.94683	-1.38554	-1.25033	0.280922	-4.51706	-6.86281	-1.14741	1.2212	-0.842481	-0.298462	-1.66542	-0.0962245	-1.03869	-0.173849	-0.690194	-0.459969	-1.33284	-0.540741	-1.18801	0.641853	-0.874826	-0.426342	
0.68942	3.35541	0	5	-1.0616	1.38893	-1.15668	1.28896	-2.18628	1.57285	-1.06368	0.841482	-2.79156	-2.97487	-1.95881	-1.393	-1.26477	0.266948	-4.54007	-6.86285	-1.1521	1.21156	-0.869873	-0.302991	-1.66754	-0.112341	-1.05374	-0.184003	-0.682076	-0.482912	-1.32751	-0.544227	-1.19317	0.645229	-0.874826	-0.426342	
0.685302	3.35541	0	5	-1.10522	1.41743	-1.17285	1.28953	-2.2065	1.55724	-1.08257	0.829894	-2.80995	-2.98387	-1.97078	-1.40046	-1.27921	0.252974	-4.56308	-6.86288	-1.1568	1.20191	-0.897265	-0.307521	-1.66966	-0.128457	-1.06879	-0.194156	-0.673958	-0.505855	-1.32217	-0.547714	-1.19834	0.648604	-0.874826	-0.426342	
0.682427	3.35083	0	5	-1.11912	1.40007	-1.18957	1.28049	-2.21685	1.53211	-1.08651	0.808619	-2.82564	-3.01545	-1.96625	-1.43389	-1.29545	0.217008	-4.58654	-6.8776	-1.15421	1.1717	-0.92432	-0.328916	-1.68087	-0.162958	-1.08216	-0.235139	-0.690249	-0.512804	-1.34025	-0.542963	-1.21822	0.659964	-0.890072	-0.42259	
0.680972	3.34778	0	5	-1.13302	1.3827	-1.20629	1.27146	-2.2272	1.50699	-1.09045	0.787343	-2.84133	-3.04704	-1.96172	-1.46731	-1.31169	0.181042	-4.61	-6.89232	-1.15162	1.14148	-0.951376	-0.350311	-1.69207	-0.197459	-1.09553	-0.276122	-0.706539	-0.519752	-1.35832	-0.538212	-1.2381	0.671323	-0.905318	-0.418839	
0.681113	3.34625	0	5	-1.14692	1.36534	-1.22302	1.26243	-2.23755	1.48186	-1.09438	0.766068	-2.85702	-3.07862	-1.95718	-1.50074	-1.32794	0.145076	-4.63346	-6.90704	-1.14903	1.11127	-0.978432	-0.371706	-1.70328	-0.23196	-1.10889	-0.317105	-0.72283	-0.526701	-1.3764	-0.533461	-1.25798	0.682683	-0.920564	-0.415087	
0.682783	3.34778	0	5	-1.16081	1.34798	-1.23974	1.2534	-2.2479	1.45674	-1.09832	0.744793	-2.87271	-3.1102	-1.95265	-1.53416	-1.34418	0.10911	-4.65692	-6.92176	-1.14644	1.08106	-1.00549	-0.393101	-1.71448	-0.266461	-1.12226	-0.358088	-0.739121	-0.533649	-1.39447	-0.52871	-1.27786	0.694043	-0.93581	-0.411336	
0.685239	3.34625	0	5	-1.15626	1.33511	-1.24147	1.24706	-2.24746	1.43738	-1.09394	0.732415	-2.88355	-3.14009	-1.96286	-1.54646	-1.35216	0.0772887	-4.67699	-6.9296	-1.15731	1.06605	-1.03241	-0.414362	-1.72036	-0.293818	-1.14016	-0.385902	-0.739182	-0.559915	-1.39647	-0.546199	-1.2933	0.704132	-0.944367	-0.426406	
0.687625	3.3432	0	5	-1.15171	1.32225	-1.2432	1.24072	-2.24701	1.41803	-1.08956	0.720037	-2.89439	-3.16999	-1.97308	-1.55876	-1.36014	0.0454675	-4.69705	-6.93744	-1.16817	1.05105	-1.05933	-0.435623	-1.72624	-0.321175	-1.15807	-0.413717	-0.739243	-0.586181	-1.39846	-0.563687	-1.30874	0.714222	-0.952924	-0.441476	
0.689084	3.34167	0	5	-1.14716	1.30938	-1.24494	1.23439	-2.24656	1.39867	-1.08518	0.70766	-2.90523	-3.19988	-1.98329	-1.57106	-1.36813	0.0136462	-4.71712	-6.94528	-1.17904	1.03605	-1.08625	-0.456885	-1.73213	-0.348532	-1.17598	-0.441531	-0.739304	-0.612447	-1.40045	-0.581175	-1.32418	0.724311	-0.961481	-0.456546	
0.688759	3.34015	0	5	-1.14261	1.29652	-1.24667	1.22805	-2.24612	1.37932	-1.0808	0.695282	-2.91607	-3.22978	-1.9935	-1.58336	-1.37611	-0.018175	-4.73719	-6.95312	-1.1899	1.02105	-1.11318	-0.478146	-1.73801	-0.375889	-1.19389	-0.469345	-0.739365	-0.638713	-1.40245	-0.598664	-1.33963	0.734401	-0.970038	-0.471616	
0.685863	3.34167	0	5	-1.14868	1.31367	-1.24553	1.22481	-2.26667	1.38324	-1.08964	0.698677	-2.92736	-3.2431	-1.99947	-1.58703	-1.39046	-0.0318465	-4.75117	-6.9619	-1.1946	1.01152	-1.13762	-0.489789	-1.73857	-0.396241	-1.21107	-0.472875	-0.74548	-0.647833	-1.39813	-0.61086	-1.33963	0.734401	-0.969804	-0.482076	
0.68054	3.33557	5	0	-1.15475	1.33083	-1.24438	1.22158	-2.28723	1.38715	-1.09847	0.702072	-2.93866	-3.25643	-2.00544	-1.5907	-1.40481	-0.045518	-4.76514	-6.97068	-1.1993	1.00199	-1.16207	-0.501433	-1.73914	-0.416593	-1.22826	-0.476406	-0.751594	-0.656953	-1.39382	-0.623056	-1.33963	0.734401	-0.969571	-0.492536	
0.673609	3.33252	5	0	-1.16082	1.34799	-1.24324	1.21834	-2.30778	1.39107	-1.1073	0.705467	-2.94996	-3.26976	-2.01141	-1.59437	-1.41916	-0.0591895	-4.77912	-6.97946	-1.20401	0.992467	-1.18652	-0.513076	-1.7397	-0.436945	-1.24544	-0.479936	-0.757709	-0.666072	-1.3895	-0.635252	-1.33963	0.734401	-0.969337	-0.502996	
0.665905	3.33862	5	0	-1.16689	1.36515	-1.24209	1.2151	-2.32833	1.39499	-1.11614	0.708862	-2.96126	-3.28309	-2.01738	-1.59805	-1.4335	-0.072861	-4.79309	-6.98824	-1.20871	0.982941	-1.21097	-0.52472	-1.74027	-0.457297	-1.26263	-0.483466	-0.763823	-0.675192	-1.38519	-0.647448	-1.33963	0.734401	-0.969104	-0.513456	
0.658263	3.33099	5	0	-1.17621	1.33503	-1.25246	1.19953	-2.3401	1.37422	-1.11622	0.687563	-2.97209	-3.31268	-2.0164	-1.62136	-1.4539	-0.0962465	-4.80894	-7.00764	-1.22388	0.98028	-1.2353	-0.536324	-1.76417	-0.455463	-1.27976	-0.486999	-0.761814	-0.680871	-1.3831	-0.641779	-1.33448	0.73104	-0.96649	-0.511043	
0.651507	3.32947	5	0	-1.18554	1.3049	-1.26283	1.18395	-2.35186	1.35345	-1.11631	0.666265	-2.98291	-3.34228	-2.01541	-1.64468	-1.4743	-0.119632	-4.82478	-7.02703	-1.23905	0.977619	-1.25964	-0.547929	-1.78806	-0.453628	-1.2969	-0.490532	-0.759804	-0.68655	-1.38102	-0.636109	-1.32934	0.727679	-0.963877	-0.50863	
0.646114	3.32947	5	0	-1.19486	1.27478	-1.2732	1.16837	-2.36362	1.33268	-1.1164	0.644966	-2.99373	-3.37187	-2.01442	-1.668	-1.4947	-0.143017	-4.84062	-7.04643	-1.25422	0.974958	-1.28398	-0.559533	-1.81196	-0.451794	-1.31403	-0.494065	-0.757795	-0.692229	-1.37894	-0.63044	-1.32419	0.724318	-0.961263	-0.506217	
0.642099	3.33099	5	0	-1.20418	1.24466	-1.28357	1.1528	-2.37539	1.31191	-1.11649	0.623668	-3.00455	-3.40147	-2.01343	-1.69132	-1.5151	-0.166403	-4.85647	-7.06582	-1.26939	0.972297	-1.30832	-0.571137	-1.83585	-0.44996	-1.33116	-0.497598	-0.755785	-0.697908	-1.37685	-0.62477	-1.31905	0.720957	-0.958649	-0.503804	
0.639444	3.33252	5	0	-1.19925	1.21195	-1.28991	1.13714	-2.3764	1.29682	-1.1149	0.608434	-3.01162	-3.4265	-2.01766	-1.69986	-1.51699	-0.188022	-4.87635	-7.07358	-1.26073	0.947819	-1.3338	-0.579145	-1.83326	-0.479129	-1.34374	-0.513855	-0.768005	-0.716062	-1.38519	-0.647405	-1.32858	0.725556	-0.96887	-0.523869	
0.638129	3.32947	5	0	-1.19433	1.17925	-1.29625	1.12147	-2.37742	1.28173	-1.11332	0.593201	-3.01869	-3.45152	-2.02189	-1.7084	-1.51887	-0.209641	-4.89623	-7.08133	-1.25207	0.92334	-1.35929	-0.587153	-1.83067	-0.508299	-1.35632	-0.530112	-0.780225	-0.734217	-1.39352	-0.670041	-1.33812	0.730155	-0.97909	-0.543933	
0.638136	3.32641	5	0	-1.1894	1.14654	-1.3026	1.10581	-2.37844	1.26663	-1.11174	0.577967	-3.02576	-3.47655	-2.02613	-1.71695	-1.52075	-0.231259	-4.91612	-7.08909	-1.24341	0.898861	-1.38478	-0.595161	-1.82808	-0.537469	-1.3689	-0.546369	-0.792445	-0.752371	-1.40185	-0.692676	-1.34765	0.734755	-0.989311	-0.563997	
0.639332	3.33099	5	0	-1.18448	1.11383	-1.30894	1.09015	-2.37946	1.25154	-1.11016	0.562733	-3.03283	-3.50158	-2.03036	-1.72549	-1.52263	-0.252878	-4.936	-7.09684	-1.23475	0.874383	-1.41027	-0.603169	-1.82549	-0.566638	-1.38148	-0.562626	-0.804665	-0.770525	-1.41019	-0.715311	-1.35719	0.739354	-0.999532	-0.584062	
0.641388	3.32794	5	0	-1.18598	1.11809	-1.31982	1.08738	-2.38627	1.25285	-1.10738	0.565649	-3.03449	-3.51187	-2.03459	-1.73402	-1.52872	-0.262574	-4.93926	-7.10358	-1.24089	0.869004	-1.41365	-0.625534	-1.82923	-0.577892	-1.3725	-0.588015	-0.798667	-0.787477	-1.41114	-0.735675	-1.36746	0.746066	-1.00453	-0.599251	
0.643956	3.32336	5	0	-1.18749	1.12234	-1.33071	1.08461	-2.39309	1.25415	-1.1046	0.568565	-3.03615	-3.52215	-2.03882	-1.74254	-1.5348	-0.272269	-4.94252	-7.11033	-1.24703	0.863625	-1.41703	-0.647899	-1.83297	-0.589145	-1.36352	-0.613404	-0.792668	-0.804428	-1.41209	-0.756039	-1.37773	0.752779	-1.00952	-0.61444	
0.646685	3.32489	5	0	-1.18899	1.12659	-1.34159	1.08183	-2.3999	1.25546	-1.10183	0.57148	-3.03781	-3.53243	-2.04305	-1.75107	-1.54089	-0.281964	-4.94578	-7.11707	-1.25317	0.858246	-1.42041	-0.670264	-1.83671	-0.600399	-1.35453	-0.638793	-0.78667	-0.82138	-1.41304	-0.776404	-1.388	0.759491	-1.01452	-0.62963	
0.649226	3.32336	5	0	-1.1905	1.13085	-1.35248	1.07906	-2.40671	1.25676	-1.09905	0.574396	-3.03947	-3.54272	-2.04727	-1.75959	-1.54697	-0.29166	-4.94904	-7.12381	-1.2593	0.852867	-1.42379	-0.692629	-1.84045	-0.611653	-1.34555	-0.664182	-0.780672	-0.838331	-1.41399	-0.796768	-1.39828	0.766203	-1.01952	-0.644819	
0.651311	3.32184	5	0	-1.20256	1.16495	-1.35648	1.07921	-2.42321	1.26754	-1.11005	0.583946	-3.04636	-3.53822	-2.04727	-1.75959	-1.55724	-0.289503	-4.95963	-7.12575	-1.25499	0.84067	-1.43701	-0.703043	-1.8373	-0.620548	-1.35296	-0.669075	-0.778675	-0.843974	-1.41506	-0.793739	-1.40341	0.769556	-1.01763	-0.650144	
0.652913	3.32031	0	5	-1.21463	1.19905	-1.36048	1.07936	-2.43972	1.27833	-1.12104	0.593495	-3.05325	-3.53371	-2.04727	-1.75959	-1.56751	-0.287346	-4.97021	-7.1277	-1.25067	0.828472	-1.45024	-0.713457	-1.83416	-0.629443	-1.36038	-0.673968	-0.776679	-0.849618	-1.41614	-0.79071	-1.40854	0.772909	-1.01575	-0.65547	
0.654049	3.31573	0	5	-1.2267	1.23315	-1.36448	1.0795	-2.45622	1.28911	-1.13203	0.603045	-3.06014	-3.52921	-2.04727	-1.75959	-1.57777	-0.285189	-4.9808	-7.12964	-1.24636	0.816275	-1.46346	-0.723871	-1.83101	-0.638338	-1.3678	-0.678861	-0.774682	-0.855261	-1.41721	-0.787681	-1.41367	0.776263	-1.01386	-0.660795	
0.654738	3.31573	0	5	-1.23876	1.26726	-1.36848	1.07965	-2.47272	1.29989	-1.14303	0.612595	-3.06703	-3.52471	-2.04727	-1.75959	-1.58804	-0.283032	-4.99139	-7.13158	-1.24204	0.804077	-1.47668	-0.734285	-1.82786	-0.647233	-1.37521	-0.683754	-0.772685	-0.860904	-1.41828	-0.784652	-1.4188	0.779616	-1.01198	-0.66612	
0.654997	3.31879	0	5	-1.24396	1.24444	-1.37367	1.06086	-2.47228	1.28075	-1.14639	0.600608	-3.06869	-3.53498	-2.04209	-1.77425	-1.5962	-0.286795	-4.99654	-7.14885	-1.24531	0.790612	-1.48737	-0.751715	-1.82315	-0.660559	-1.37074	-0.696404	-0.77069	-0.866544	-1.40981	-0.785524	-1.40854	0.772908	-1.01292	-0.663458	
0.654876	3.31421	0	5	-1.24916	1.22162	-1.37886	1.04208	-2.47184	1.26161	-1.14976	0.58862	-3.07034	-3.54525	-2.0369	-1.78891	-1.60436	-0.290558	-5.00168	-7.16612	-1.24858	0.777146	-1.49807	-0.769146	-1.81843	-0.673885	-1.36626	-0.709054	-0.768694	-0.872184	-1.40135	-0.786396	-1.39827	0.766199	-1.01386	-0.660796	
0.654619	3.31421	0	5	-1.25436	1.19879	-1.38405	1.02329	-2.4714	1.24247	-1.15312	0.576633	-3.072	-3.55551	-2.03171	-1.80357	-1.61251	-0.294322	-5.00683	-7.18339	-1.25184	0.763681	-1.50876	-0.786577	-1.81372	-0.687211	-1.36178	-0.721703	-0.766698	-0.877823	-1.39288	-0.787267	-1.388	0.759491	-1.0148	-0.658133	
0.654542	3.31268	0	5	-1.25956	1.17597	-1.38924	1.00451	-2.47097	1.22333	-1.15648	0.564646	-3.07366	-3.56578	-2.02652	-1.81823	-1.62067	-0.298085	-5.01197	-7.20066	-1.25511	0.750216	-1.51946	-0.804007	-1.809	-0.700537	-1.35731	-0.734353	-0.764703	-0.883463	-1.38442	-0.788139	-1.37774	0.752783	-1.01575	-0.655471	
0.654965	3.31268	0	5	-1.26777	1.16174	-1.4052	1.0051	-2.47631	1.22055	-1.15214	0.552366	-3.07428	-3.57897	-2.02904	-1.83159	-1.62256	-0.319534	-5.02172	-7.22072	-1.26594	0.735513	-1.52641	-0.831887	-1.81808	-0.718451	-1.36989	-0.750382	-0.772815	-0.886826	-1.39926	-0.780775	-1.39826	0.766192	-1.02733	-0.651995	
0.656204	3.31116	0	5	-1.27598	1.14751	-1.42115	1.0057	-2.48165	1.21777	-1.14779	0.540086	-3.0749	-3.59216	-2.03155	-1.84495	-1.62444	-0.340983	-5.03147	-7.24079	-1.27678	0.72081	-1.53337	-0.859766	-1.82716	-0.736365	-1.38248	-0.766412	-0.780927	-0.890189	-1.41409	-0.77341	-1.41878	0.7796	-1.03892	-0.648518	
0.658548	3.30963	0	5	-1.28419	1.13328	-1.43711	1.00629	-2.487	1.21499	-1.14345	0.527806	-3.07552	-3.60535	-2.03406	-1.85831	-1.62633	-0.362433	-5.04122	-7.26085	-1.28761	0.706107	-1.54032	-0.887646	-1.83623	-0.754279	-1.39506	-0.782441	-0.789039	-0.893551	-1.42893	-0.766046	-1.4393	0.793009	-1.0505	-0.645042	
0.661838	3.30505	0	5	-1.29241	1.11904	-1.45307	1.00689	-2.49234	1.21221	-1.1391	0.515526	-3.07614	-3.61854	-2.03657	-1.87166	-1.62822	-0.383882	-5.05097	-7.28092	-1.29844	0.691404	-1.54728	-0.915526	-1.84531	-0.772193	-1.40765	-0.79847	-0.797151	-0.896914	-1.44377	-0.758681	-1.45982	0.806417	-1.06208	-0.641565	
0.66557	3.30505	0	5	-1.2898	1.1304	-1.45307	1.00689	-2.48844	1.21907	-1.13355	0.521342	-3.07614	-3.61854	-2.03313	-1.8814	-1.63636	-0.387614	-5.05017	-7.299	-1.30028	0.673993	-1.55425	-0.943244	-1.83749	-0.794282	-1.40615	-0.828436	-0.801274	-0.911515	-1.43943	-0.782452	-1.46931	0.810989	-1.06801	-0.654042	
0.669233	3.302	0	5	-1.2872	1.14176	-1.45307	1.00689	-2.48454	1.22593	-1.12801	0.527157	-3.07614	-3.61854	-2.02968	-1.89114	-1.6445	-0.391346	-5.04938	-7.31709	-1.30213	0.656582	-1.56121	-0.970962	-1.82968	-0.816371	-1.40466	-0.858402	-0.805397	-0.926115	-1.43509	-0.806223	-1.4788	0.815561	-1.07393	-0.666519	
0.672312	3.30047	0	5	-1.2846	1.15312	-1.45307	1.00689	-2.48064	1.2328	-1.12246	0.532973	-3.07614	-3.61854	-2.02623	-1.90088	-1.65264	-0.395077	-5.04859	-7.33517	-1.30397	0.639171	-1.56818	-0.99868	-1.82186	-0.83846	-1.40316	-0.888369	-0.809519	-0.940716	-1.43075	-0.829994	-1.4883	0.820132	-1.07985	-0.678995	
0.674299	3.2959	0	5	-1.282	1.16448	-1.45307	1.00689	-2.47674	1.23966	-1.11691	0.538789	-3.07614	-3.61854	-2.02279	-1.91062	-1.66078	-0.398809	-5.0478	-7.35326	-1.30581	0.62176	-1.57515	-1.0264	-1.81405	-0.860549	-1.40167	-0.918335	-0.813642	-0.955316	-1.42641	-0.853765	-1.49779	0.824704	-1.08578	-0.691472	
0.674918	3.29742	0	5	-1.2727	1.19445	-1.44963	1.01939	-2.47574	1.25472	-1.10689	0.553529	-3.06655	-3.61575	-2.02451	-1.90575	-1.6464	-0.412733	-5.0543	-7.36653	-1.30439	0.617731	-1.58459	-1.04701	-1.81405	-0.860549	-1.41128	-0.916873	-0.821735	-0.958659	-1.41684	-0.869302	-1.49779	0.824704	-1.08108	-0.704736	
0.674414	3.2959	5	0	-1.26341	1.22441	-1.44618	1.03189	-2.47473	1.26978	-1.09687	0.568269	-3.05696	-3.61295	-2.02623	-1.90088	-1.63201	-0.426656	-5.0608	-7.37981	-1.30296	0.613702	-1.59404	-1.06761	-1.81405	-0.860549	-1.4209	-0.915411	-0.829828	-0.962001	-1.40727	-0.88484	-1.49779	0.824704	-1.07639	-0.718	
0.6731	3.29437	5	0	-1.25411	1.25438	-1.44273	1.0444	-2.47372	1.28483	-1.08684	0.58301	-3.04737	-3.61016	-2.02796	-1.89602	-1.61762	-0.44058	-5.0673	-7.39308	-1.30153	0.609672	-1.60348	-1.08822	-1.81405	-0.860549	-1.43051	-0.913948	-0.837921	-0.965344	-1.3977	-0.900378	-1.49779	0.824704	-1.0717	-0.731263	
0.671286	3.29437	5	0	-1.24481	1.28435	-1.43929	1.0569	-2.47272	1.29989	-1.07682	0.59775	-3.03778	-3.60736	-2.02968	-1.89115	-1.60323	-0.454503	-5.07381	-7.40635	-1.30011	0.605643	-1.61292	-1.10883	-1.81405	-0.860549	-1.44012	-0.912486	-0.846014	-0.968686	-1.38813	-0.915915	-1.49779	0.824704	-1.067	-0.744527	
0.669285	3.29742	5	0	-1.25453	1.27429	-1.445	1.05079	-2.47662	1.293	-1.08238	0.591912	-3.04196	-3.59556	-2.02968	-1.89115	-1.61138	-0.458211	-5.07437	-7.42055	-1.28827	0.594814	-1.62236	-1.12934	-1.80559	-0.862683	-1.43791	-0.918751	-0.831964	-0.982178	-1.37436	-0.920274	-1.49267	0.821359	-1.0545	-0.750663	
0.667422	3.29285	5	0	-1.26424	1.26423	-1.4507	1.04468	-2.48051	1.28612	-1.08794	0.586073	-3.04613	-3.58376	-2.02968	-1.89115	-1.61953	-0.46192	-5.07494	-7.43475	-1.27644	0.583985	-1.63179	-1.14985	-1.79713	-0.864817	-1.43569	-0.925016	-0.817915	-0.995669	-1.36058	-0.924633	-1.48755	0.818013	-1.04199	-0.756798	
0.666097	3.29437	5	0	-1.27396	1.25417	-1.45641	1.03857	-2.48441	1.27923	-1.09349	0.580234	-3.05031	-3.57196	-2.02968	-1.89115	-1.62768	-0.465629	-5.07551	-7.44894	-1.2646	0.573155	-1.64123	-1.17036	-1.78867	-0.866951	-1.43347	-0.931281	-0.803866	-1.00916	-1.34681	-0.928993	-1.48243	0.814668	-1.02948	-0.762934	
0.66574	3.28827	5	0	-1.28367	1.24411	-1.46212	1.03246	-2.48831	1.27235	-1.09905	0.574396	-3.05449	-3.56016	-2.02968	-1.89115	-1.63583	-0.469337	-5.07608	-7.46314	-1.25277	0.562326	-1.65066	-1.19086	-1.78021	-0.869085	-1.43126	-0.937546	-0.789816	-1.02265	-1.33304	-0.933352	-1.47731	0.811323	-1.01697	-0.769069	
0.666779	3.28827	5	0	-1.29036	1.22558	-1.46443	1.01678	-2.48397	1.26009	-1.09083	0.56193	-3.05615	-3.57041	-2.0322	-1.90446	-1.65417	-0.470884	-5.0845	-7.48668	-1.26033	0.561079	-1.65288	-1.21599	-1.78555	-0.875771	-1.43643	-0.948593	-0.789816	-1.02265	-1.34262	-0.9178	-1.48754	0.818011	-1.01978	-0.761111	
0.669645	3.28979	5	0	-1.29705	1.20705	-1.46674	1.00111	-2.47964	1.24784	-1.08261	0.549463	-3.05781	-3.58066	-2.03472	-1.91777	-1.6725	-0.472432	-5.09292	-7.51022	-1.26789	0.559832	-1.65509	-1.24111	-1.79089	-0.882458	-1.44161	-0.959641	-0.789816	-1.02265	-1.3522	-0.902248	-1.49778	0.8247	-1.0226	-0.753152	
0.67474	3.28216	5	0	-1.30374	1.18852	-1.46906	0.985436	-2.4753	1.23559	-1.07439	0.536997	-3.05948	-3.59091	-2.03724	-1.93108	-1.69084	-0.473979	-5.10134	-7.53376	-1.27545	0.558584	-1.65731	-1.26623	-1.79623	-0.889144	-1.44678	-0.970689	-0.789816	-1.02265	-1.36178	-0.886696	-1.50802	0.831388	-1.02542	-0.745193	
0.681789	3.28216	5	0	-1.31043	1.16999	-1.47137	0.969762	-2.47097	1.22333	-1.06617	0.524531	-3.06114	-3.60116	-2.03976	-1.94439	-1.70917	-0.475526	-5.10975	-7.55731	-1.28302	0.557337	-1.65952	-1.29136	-1.80156	-0.89583	-1.45196	-0.981736	-0.789816	-1.02265	-1.37137	-0.871144	-1.51825	0.838076	-1.02823	-0.737235	
0.689803	3.28522	5	0	-1.30332	1.16861	-1.47535	0.96991	-2.4753	1.23559	-1.05951	0.527275	-3.05801	-3.61	-2.03632	-1.95411	-1.70296	-0.493089	-5.11492	-7.57419	-1.28302	0.557337	-1.6582	-1.31076	-1.79154	-0.902378	-1.44754	-0.994226	-0.785851	-1.03386	-1.36816	-0.880209	-1.51314	0.834733	-1.03345	-0.741985	
0.697756	3.27911	5	0	-1.29622	1.16724	-1.47933	0.970058	-2.47964	1.24784	-1.05285	0.530019	-3.05489	-3.61884	-2.03289	-1.96382	-1.69675	-0.510652	-5.12009	-7.59107	-1.28302	0.557337	-1.65688	-1.33016	-1.78152	-0.908925	-1.44312	-1.00672	-0.781886	-1.04506	-1.36495	-0.889274	-1.50802	0.83139	-1.03866	-0.746735	
0.704627	3.27759	5	0	-1.28911	1.16586	-1.48331	0.970207	-2.48397	1.26009	-1.04619	0.532764	-3.05176	-3.62768	-2.02945	-1.97353	-1.69053	-0.528214	-5.12526	-7.60795	-1.28302	0.557337	-1.65556	-1.34956	-1.7715	-0.915472	-1.4387	-1.01921	-0.777921	-1.05627	-1.36174	-0.898339	-1.5029	0.828047	-1.04387	-0.751486	
0.70939	3.27606	5	0	-1.282	1.16448	-1.48729	0.970355	-2.48831	1.27235	-1.03954	0.535508	-3.04863	-3.63652	-2.02601	-1.98324	-1.68432	-0.545777	-5.13043	-7.62483	-1.28302	0.557337	-1.65424	-1.36896	-1.76148	-0.92202	-1.43428	-1.0317	-0.773956	-1.06747	-1.35854	-0.907404	-1.49779	0.824704	-1.04908	-0.756236	
0.711174	3.27606	5	0	-1.27832	1.19155	-1.49352	0.976879	-2.48586	1.28333	-1.03614	0.547501	-3.0359	-3.64257	-2.02004	-1.97968	-1.68432	-0.545777	-5.12379	-7.6436	-1.28586	0.565386	-1.64938	-1.38271	-1.75769	-0.910926	-1.42909	-1.02068	-0.773956	-1.06747	-1.34261	-0.917812	-1.48754	0.818012	-1.03657	-0.762376	
0.710223	3.27759	5	0	-1.27464	1.21862	-1.49975	0.983403	-2.48341	1.29431	-1.03275	0.559493	-3.02317	-3.64862	-2.01408	-1.97611	-1.68432	-0.545777	-5.11714	-7.66237	-1.28871	0.573435	-1.64451	-1.39646	-1.75391	-0.899832	-1.42391	-1.00965	-0.773956	-1.06747	-1.32668	-0.928221	-1.4773	0.811319	-1.02405	-0.768516	
0.707282	3.27759	5	0	-1.27095	1.24568	-1.50599	0.989927	-2.48096	1.30529	-1.02936	0.571486	-3.01044	-3.65468	-2.00811	-1.97254	-1.68432	-0.545777	-5.1105	-7.68115	-1.29156	0.581485	-1.63965	-1.41021	-1.75012	-0.888738	-1.41873	-0.998633	-0.773956	-1.06747	-1.31075	-0.938629	-1.46706	0.804627	-1.01154	-0.774656	
0.7031	3.27301	5	0	-1.26727	1.27275	-1.51222	0.996451	-2.47851	1.31627	-1.02597	0.583479	-2.99772	-3.66073	-2.00214	-1.96897	-1.68432	-0.545777	-5.10386	-7.69992	-1.29441	0.589534	-1.63478	-1.42396	-1.74633	-0.877644	-1.41354	-0.987612	-0.773956	-1.06747	-1.29482	-0.949037	-1.45682	0.797935	-0.999021	-0.780796	
0.698424	3.26843	5	0	-1.28516	1.24844	-1.51115	0.971277	-2.47952	1.3012	-1.02439	0.568242	-3.00565	-3.65328	-2.00042	-1.97383	-1.69657	-0.537769	-5.11302	-7.70546	-1.28685	0.590788	-1.63834	-1.42955	-1.75259	-0.859959	-1.40836	-0.976562	-0.765838	-1.06416	-1.28421	-0.944351	-1.44143	0.787881	-0.982185	-0.779555	
0.694	3.26996	5	0	-1.30305	1.22412	-1.51009	0.946103	-2.48052	1.28613	-1.02282	0.553005	-3.01358	-3.64584	-1.9987	-1.97869	-1.70883	-0.529761	-5.12219	-7.71099	-1.27929	0.592043	-1.64191	-1.43514	-1.75885	-0.842275	-1.40317	-0.965512	-0.757721	-1.06085	-1.2736	-0.939666	-1.42605	0.777828	-0.965349	-0.778314	
0.690332	3.26691	5	0	-1.32094	1.1998	-1.50902	0.92093	-2.48152	1.27107	-1.02125	0.537768	-3.02151	-3.63839	-1.99698	-1.98355	-1.72108	-0.521754	-5.13135	-7.71653	-1.27173	0.593298	-1.64547	-1.44073	-1.7651	-0.824591	-1.39798	-0.954462	-0.749603	-1.05754	-1.26299	-0.93498	-1.41066	0.767775	-0.948513	-0.777073	
0.687443	3.26385	5	0	-1.33883	1.17548	-1.50795	0.895756	-2.48252	1.256	-1.01968	0.522531	-3.02944	-3.63094	-1.99527	-1.9884	-1.73334	-0.513746	-5.14052	-7.72207	-1.26417	0.594552	-1.64903	-1.44632	-1.77136	-0.806906	-1.3928	-0.943412	-0.741486	-1.05423	-1.25238	-0.930294	-1.39528	0.757721	-0.931677	-0.775832	
0.685295	3.26385	5	0	-1.33243	1.13874	-1.50916	0.877023	-2.48642	1.24913	-1.0192	0.510401	-3.03007	-3.64411	-1.99952	-1.99682	-1.73731	-0.529113	-5.13584	-7.75098	-1.25563	0.570404	-1.65252	-1.46773	-1.76354	-0.829006	-1.4098	-0.946741	-0.749603	-1.05754	-1.2566	-0.941473	-1.41066	0.767775	-0.938793	-0.775265	
0.683854	3.26538	5	0	-1.32604	1.10199	-1.51036	0.858291	-2.49032	1.24226	-1.01873	0.498272	-3.03071	-3.65727	-2.00377	-2.00523	-1.74128	-0.54448	-5.13116	-7.7799	-1.24708	0.546256	-1.65601	-1.48915	-1.75572	-0.851106	-1.4268	-0.950071	-0.757721	-1.06085	-1.26083	-0.952652	-1.42605	0.777828	-0.945909	-0.774698	
