0.795	4.37012	0	0	0.143792	0.343523	-0.057586	0.1117	0.01394	0.335189	0.020764	0.308098	0.102645	0.444851	0.071572	0.620415	-0.007649	0.371951	0.072753	0.300767	0.073231	0.600317	0.05517	0.31359	0.039823	0.34835	0.004015	0.397099	-0.085109	0.253755	-0.119753	0.230804	0.012422	0.067638	-0.175115	-0.027383	
0.78137	4.36859	0	0	0.140783	0.330383	-0.0553408	0.105355	0.003017	0.33256	0.0259125	0.293547	0.0931137	0.444949	0.0621082	0.62211	-0.00392275	0.36142	0.0656762	0.291755	0.0711603	0.584821	0.0488695	0.300838	0.023658	0.356177	0.0115878	0.395211	-0.0837943	0.250039	-0.117351	0.224015	0.00086325	0.0608023	-0.170033	-0.0417447	
0.772963	4.37012	0	0	0.137773	0.317244	-0.0530955	0.09901	-0.007906	0.329931	0.031061	0.278996	0.0835825	0.445048	0.0526445	0.623805	-0.0001965	0.350888	0.0585995	0.282743	0.0690895	0.569325	0.042569	0.288085	0.007493	0.364005	0.0191605	0.393323	-0.0824795	0.246324	-0.114949	0.217226	-0.0106955	0.0539665	-0.164952	-0.0561065	
0.769116	4.36859	0	0	0.134764	0.304104	-0.0508502	0.092665	-0.018829	0.327302	0.0362095	0.264446	0.0740512	0.445147	0.0431807	0.6255	0.00352975	0.340357	0.0515227	0.273731	0.0670188	0.55383	0.0362685	0.275333	-0.008672	0.371833	0.0267333	0.391436	-0.0811648	0.242608	-0.112547	0.210438	-0.0222543	0.0471307	-0.15987	-0.0704682	
0.769163	4.36859	0	0	0.131754	0.290964	-0.048605	0.08632	-0.029752	0.324673	0.041358	0.249895	0.06452	0.445245	0.033717	0.627195	0.007256	0.329826	0.044446	0.264719	0.064948	0.538334	0.029968	0.262581	-0.024837	0.37966	0.034306	0.389548	-0.07985	0.238892	-0.110145	0.203649	-0.033813	0.040295	-0.154788	-0.08483	
0.772442	4.36706	0	0	0.127355	0.281778	-0.0463615	0.0799795	-0.0252635	0.311987	0.0281375	0.250156	0.0587582	0.43473	0.0325125	0.605581	0.0091175	0.324565	0.0373778	0.255728	0.0576993	0.516199	0.0192365	0.247165	-0.0247385	0.360482	0.0247948	0.377421	-0.082112	0.223255	-0.11704	0.187317	-0.0634518	0.045303	-0.160797	-0.091927	
0.778289	4.36859	0	0	0.122955	0.272591	-0.044118	0.073639	-0.020775	0.299302	0.014917	0.250416	0.0529965	0.424214	0.031308	0.583968	0.010979	0.319304	0.0303095	0.246738	0.0504505	0.494063	0.008505	0.231749	-0.02464	0.341305	0.0152835	0.365294	-0.084374	0.207619	-0.123936	0.170986	-0.0930905	0.050311	-0.166806	-0.099024	
0.786038	4.36859	0	0	0.118555	0.263405	-0.0418745	0.0672985	-0.0162865	0.286616	0.0016965	0.250677	0.0472347	0.413699	0.0301035	0.562354	0.0128405	0.314043	0.0232412	0.237748	0.0432017	0.471927	-0.0022265	0.216333	-0.0245415	0.322128	0.00577225	0.353168	-0.086636	0.191983	-0.130831	0.154655	-0.122729	0.055319	-0.172815	-0.106121	
0.795027	4.36554	0	0	0.114156	0.254219	-0.039631	0.060958	-0.011798	0.273931	-0.011524	0.250937	0.041473	0.403184	0.028899	0.540741	0.014702	0.308782	0.016173	0.228757	0.035953	0.449792	-0.012958	0.200917	-0.024443	0.30295	-0.003739	0.341041	-0.088898	0.176346	-0.137726	0.138323	-0.152368	0.060327	-0.178824	-0.113218	
0.804592	4.36401	0	0	0.114156	0.254219	-0.0407527	0.0641277	-0.0140415	0.280272	0.00426775	0.24341	0.0442855	0.395235	0.0330135	0.529113	0.0075085	0.3054	0.013267	0.222503	0.033867	0.434414	-0.0161022	0.19458	-0.0206805	0.292316	0.0004735	0.329136	-0.0862765	0.168938	-0.134137	0.12818	-0.132064	0.0422802	-0.173759	-0.127533	
0.814068	4.36706	0	0	0.114156	0.254219	-0.0418745	0.0672975	-0.016285	0.286612	0.0200595	0.235882	0.047098	0.387286	0.037128	0.517485	0.000315	0.302018	0.010361	0.216249	0.031781	0.419035	-0.0192465	0.188243	-0.016918	0.281683	0.004686	0.317231	-0.083655	0.161529	-0.130548	0.118038	-0.11176	0.0242335	-0.168693	-0.141849	
0.822792	4.36401	0	0	0.114156	0.254219	-0.0429962	0.0704672	-0.0185285	0.292952	0.0358513	0.228355	0.0499105	0.379337	0.0412425	0.505856	-0.0068785	0.298637	0.007455	0.209996	0.029695	0.403657	-0.0223908	0.181906	-0.0131555	0.271049	0.0088985	0.305327	-0.0810335	0.154121	-0.126959	0.107895	-0.0914553	0.00618675	-0.163628	-0.156164	
0.830099	4.35943	0	0	0.114156	0.254219	-0.044118	0.073637	-0.020772	0.299293	0.051643	0.220828	0.052723	0.371388	0.045357	0.494228	-0.014072	0.295255	0.004549	0.203742	0.027609	0.388278	-0.025535	0.175569	-0.009393	0.260415	0.013111	0.293422	-0.078412	0.146713	-0.12337	0.097752	-0.071151	-0.01186	-0.158563	-0.17048	
0.835326	4.35333	0	0	0.118313	0.242471	-0.0429962	0.0704672	-0.0151662	0.28345	0.0482365	0.211894	0.046024	0.363559	0.0285365	0.491831	-0.0122137	0.290003	0.000395	0.201027	0.0239795	0.377285	-0.0338225	0.18378	-0.0106467	0.263958	0.0041485	0.299278	-0.0708945	0.147496	-0.124566	0.101132	-0.071151	-0.01186	-0.169631	-0.163248	
0.838062	4.35638	0	0	0.12247	0.230722	-0.0418745	0.0672975	-0.0095605	0.267607	0.04483	0.202961	0.039325	0.355731	0.011716	0.489434	-0.0103555	0.284751	-0.003759	0.198312	0.02035	0.366293	-0.04211	0.191991	-0.0119005	0.267502	-0.004814	0.305134	-0.063377	0.14828	-0.125762	0.104512	-0.071151	-0.01186	-0.1807	-0.156016	
0.838695	4.35028	0	0	0.126627	0.218974	-0.0407527	0.0641277	-0.00395475	0.251765	0.0414235	0.194028	0.032626	0.347903	-0.0051045	0.487037	-0.00849725	0.2795	-0.007913	0.195596	0.0167205	0.355301	-0.0503975	0.200203	-0.0131543	0.271045	-0.0137765	0.310991	-0.0558595	0.149063	-0.126958	0.107891	-0.071151	-0.01186	-0.191768	-0.148783	
0.837768	4.36401	0	0	0.130784	0.207226	-0.039631	0.060958	0.001651	0.235922	0.038017	0.185094	0.025927	0.340074	-0.021925	0.48464	-0.006639	0.274248	-0.012067	0.192881	0.013091	0.344308	-0.058685	0.208414	-0.014408	0.274588	-0.022739	0.316847	-0.048342	0.149846	-0.128154	0.111271	-0.071151	-0.01186	-0.202836	-0.141551	
0.835827	4.36706	0	0	0.132169	0.203313	-0.0407527	0.0641277	0.002771	0.232757	0.040582	0.177845	0.023515	0.333525	-0.0157753	0.467259	-0.0156813	0.276121	-0.0133162	0.196411	-0.00336525	0.348388	-0.0542598	0.211118	-0.0131543	0.271045	-0.022739	0.316847	-0.0558595	0.149063	-0.117524	0.0991297	-0.055208	-0.017498	-0.191768	-0.148783	
0.833414	4.36096	0	0	0.133553	0.1994	-0.0418745	0.0672975	0.003891	0.229592	0.043147	0.170596	0.021103	0.326976	-0.0096255	0.449879	-0.0247235	0.277995	-0.0145655	0.199942	-0.0198215	0.352469	-0.0498345	0.213822	-0.0119005	0.267502	-0.022739	0.316847	-0.063377	0.14828	-0.106894	0.0869885	-0.039265	-0.023136	-0.1807	-0.156016	
0.831075	4.36249	0	0	0.134937	0.195488	-0.0429962	0.0704672	0.005011	0.226426	0.045712	0.163348	0.018691	0.320427	-0.00347575	0.432499	-0.0337657	0.279868	-0.0158147	0.203473	-0.0362778	0.35655	-0.0454092	0.216526	-0.0106467	0.263958	-0.022739	0.316847	-0.0708945	0.147496	-0.096264	0.0748473	-0.023322	-0.028774	-0.169631	-0.163248	
0.829346	4.36249	0	0	0.136322	0.191575	-0.044118	0.073637	0.006131	0.223261	0.048277	0.156099	0.016279	0.313878	0.002674	0.415118	-0.042808	0.281741	-0.017064	0.207003	-0.052734	0.36063	-0.040984	0.21923	-0.009393	0.260415	-0.022739	0.316847	-0.078412	0.146713	-0.085634	0.062706	-0.007379	-0.034412	-0.158563	-0.17048	
0.828518	4.36401	0	0	0.133552	0.199402	-0.03853	0.0748617	0.00277	0.23276	0.043145	0.170602	0.018691	0.320427	0.0121087	0.413404	-0.0446652	0.28699	-0.0075035	0.208905	-0.0414417	0.349918	-0.034704	0.231941	0.00299525	0.263223	-0.0104227	0.321005	-0.062055	0.14457	-0.0715237	0.0586815	0.006398	-0.0338453	-0.141449	-0.170657	
0.828601	4.36401	0	0	0.130783	0.207229	-0.032942	0.0760865	-0.000591	0.242259	0.038013	0.185106	0.021103	0.326976	0.0215435	0.41169	-0.0465225	0.292239	0.002057	0.210807	-0.0301495	0.339205	-0.028424	0.244652	0.0153835	0.266031	0.0018935	0.325163	-0.045698	0.142427	-0.0574135	0.054657	0.020175	-0.0332785	-0.124335	-0.170834	
0.829585	4.36401	0	0	0.128014	0.215056	-0.027354	0.0773112	-0.003952	0.251758	0.032881	0.199609	0.023515	0.333525	0.0309782	0.409977	-0.0483797	0.297487	0.0116175	0.21271	-0.0188573	0.328493	-0.022144	0.257362	0.0277717	0.268838	0.0142098	0.329321	-0.029341	0.140283	-0.0433033	0.0506325	0.033952	-0.0327117	-0.10722	-0.171011	
0.831462	4.36554	0	0	0.125244	0.222883	-0.021766	0.078536	-0.007313	0.261257	0.027749	0.214113	0.025927	0.340074	0.040413	0.408263	-0.050237	0.302736	0.021178	0.214612	-0.007565	0.317781	-0.015864	0.270073	0.04016	0.271646	0.026526	0.333479	-0.012984	0.13814	-0.029193	0.046608	0.047729	-0.032145	-0.090106	-0.171188	
0.834224	4.35943	0	0	0.118074	0.22155	-0.0228887	0.0817092	-0.00619225	0.25809	0.0388587	0.201276	0.0296667	0.329505	0.0330255	0.404191	-0.0483797	0.297487	0.0265902	0.213794	-0.0142565	0.315491	-0.0127225	0.276443	0.0414153	0.268099	0.0293363	0.325537	-0.00675875	0.142628	-0.0233235	0.047972	0.0615388	-0.031586	-0.0729423	-0.17138	
0.83786	4.36096	0	0	0.110904	0.220218	-0.0240115	0.0848825	-0.0050715	0.254922	0.0499685	0.18844	0.0334065	0.318936	0.025638	0.400119	-0.0465225	0.292239	0.0320025	0.212977	-0.020948	0.3132	-0.009581	0.282813	0.0426705	0.264551	0.0321465	0.317596	-0.0005335	0.147116	-0.017454	0.049336	0.0753485	-0.031027	-0.0557785	-0.171571	
0.842328	4.36096	0	0	0.103735	0.218886	-0.0251343	0.0880558	-0.00395075	0.251754	0.0610783	0.175603	0.0371462	0.308368	0.0182505	0.396047	-0.0446652	0.28699	0.0374147	0.212159	-0.0276395	0.31091	-0.0064395	0.289182	0.0439257	0.261003	0.0349568	0.309654	0.00569175	0.151603	-0.0115845	0.0507	0.0891582	-0.030468	-0.0386148	-0.171763	
0.84724	4.36249	0	0	0.096565	0.217553	-0.026257	0.091229	-0.00283	0.248587	0.072188	0.162767	0.040886	0.297799	0.010863	0.391975	-0.042808	0.281741	0.042827	0.211341	-0.034331	0.30862	-0.003298	0.295552	0.045181	0.257456	0.037767	0.301712	0.011917	0.156091	-0.005715	0.052064	0.102968	-0.029909	-0.021451	-0.171955	
0.852026	4.35943	0	0	0.106504	0.211058	-0.0206642	0.092456	-0.005072	0.254923	0.078172	0.164434	0.0390168	0.303082	0.0243925	0.378689	-0.0337657	0.279868	0.0469915	0.21406	-0.035864	0.312952	0.00113875	0.298274	0.052642	0.255308	0.046748	0.295843	0.0194642	0.156869	0.00255575	0.0466597	0.0985515	-0.0174275	-0.0042375	-0.172161	
0.85611	4.36096	0	0	0.116444	0.204564	-0.0150715	0.093683	-0.007314	0.261259	0.084156	0.166102	0.0371475	0.308364	0.037922	0.365403	-0.0247235	0.277995	0.051156	0.216779	-0.037397	0.317284	0.0055755	0.300995	0.060103	0.25316	0.055729	0.289975	0.0270115	0.157647	0.0108265	0.0412555	0.094135	-0.004946	0.012976	-0.172368	
0.85892	4.35943	0	0	0.126383	0.19807	-0.00947875	0.09491	-0.009556	0.267595	0.09014	0.167769	0.0352782	0.313647	0.0514515	0.352118	-0.0156813	0.276121	0.0553205	0.219498	-0.03893	0.321616	0.0100122	0.303717	0.067564	0.251012	0.06471	0.284106	0.0345587	0.158426	0.0190973	0.0358513	0.0897185	0.0075355	0.0301895	-0.172574	
0.85988	4.35638	0	0	0.136322	0.191575	-0.003886	0.096137	-0.011798	0.273931	0.096124	0.169436	0.033409	0.31893	0.064981	0.338832	-0.006639	0.274248	0.059485	0.222217	-0.040463	0.325948	0.014449	0.306439	0.075025	0.248864	0.073691	0.278238	0.042106	0.159204	0.027368	0.030447	0.085302	0.020017	0.047403	-0.17278	
0.858418	4.36249	0	0	0.12915	0.190249	-0.0117252	0.10126	-0.0150142	0.266294	0.0927048	0.16052	0.0272573	0.32295	0.0534975	0.346336	-0.0156813	0.276121	0.0607372	0.218678	-0.040463	0.325948	0.0214785	0.301846	0.0812382	0.250262	0.0798715	0.280305	0.0368437	0.174076	0.0320535	0.035192	0.103561	0.0080865	0.0646663	-0.173001	
0.854112	4.36096	0	0	0.121978	0.188923	-0.0195645	0.106382	-0.0182305	0.258657	0.0892855	0.151604	0.0211055	0.32697	0.042014	0.353839	-0.0247235	0.277995	0.0619895	0.215139	-0.040463	0.325948	0.028508	0.297253	0.0874515	0.25166	0.086052	0.282373	0.0315815	0.188947	0.036739	0.039937	0.121819	-0.003844	0.0819295	-0.173223	
0.847472	4.36096	0	0	0.114806	0.187598	-0.0274037	0.111504	-0.0214468	0.25102	0.0858663	0.142688	0.0149538	0.330989	0.0305305	0.361343	-0.0337657	0.279868	0.0632417	0.211601	-0.040463	0.325948	0.0355375	0.292659	0.0936647	0.253058	0.0922325	0.28444	0.0263192	0.203819	0.0414245	0.044682	0.140078	-0.0157745	0.0991927	-0.173444	
0.839354	4.35943	5	0	0.107634	0.186272	-0.035243	0.116627	-0.024663	0.243383	0.082447	0.133772	0.008802	0.335009	0.019047	0.368846	-0.042808	0.281741	0.064494	0.208062	-0.040463	0.325948	0.042567	0.288066	0.099878	0.254456	0.098413	0.286507	0.021057	0.218691	0.04611	0.049427	0.158337	-0.027705	0.116456	-0.173665	
0.830614	4.35943	5	0	0.101852	0.181041	-0.0419517	0.118569	-0.0213055	0.233894	0.0764673	0.132111	0.0125393	0.324446	0.0210915	0.363067	-0.040952	0.276496	0.061579	0.201811	-0.037398	0.317286	0.042001	0.274392	0.0887125	0.248116	0.096443	0.27254	0.0263192	0.203819	0.0508997	0.0358905	0.137868	-0.00952725	0.11985	-0.183258	
0.822109	4.36096	5	0	0.0960705	0.175811	-0.0486605	0.120512	-0.017948	0.224405	0.0704875	0.130449	0.0162765	0.313884	0.023136	0.357289	-0.039096	0.27125	0.058664	0.195559	-0.034333	0.308624	0.041435	0.260719	0.077547	0.241775	0.094473	0.258574	0.0315815	0.188947	0.0556895	0.022354	0.117399	0.0086505	0.123245	-0.19285	
0.814694	4.35943	5	0	0.0902888	0.17058	-0.0553693	0.122454	-0.0145905	0.214917	0.0645078	0.128788	0.0200138	0.303322	0.0251805	0.351511	-0.03724	0.266005	0.055749	0.189308	-0.031268	0.299962	0.040869	0.247046	0.0663815	0.235434	0.092503	0.244607	0.0368437	0.174076	0.0604792	0.0088175	0.0969292	0.0268282	0.126639	-0.202442	
0.809215	4.35638	5	0	0.084507	0.16535	-0.062078	0.124397	-0.011233	0.205428	0.058528	0.127127	0.023751	0.292759	0.027225	0.345732	-0.035384	0.260759	0.052834	0.183057	-0.028203	0.2913	0.040303	0.233372	0.055216	0.229094	0.090533	0.23064	0.042106	0.159204	0.065269	-0.004719	0.07646	0.045006	0.130033	-0.212035	
0.805958	4.36096	5	0	0.084507	0.16535	-0.0531227	0.116105	-0.0189248	0.210454	0.0559652	0.13437	0.0228173	0.295399	0.0292685	0.339957	-0.033529	0.255517	0.052417	0.169758	-0.025141	0.282647	0.041018	0.216091	0.0664393	0.216314	0.102328	0.216841	0.049663	0.15998	0.065269	-0.004719	0.0786705	0.0387587	0.150748	-0.221884	
0.804443	4.35943	5	0	0.084507	0.16535	-0.0441675	0.107813	-0.0266165	0.21548	0.0534025	0.141613	0.0218835	0.298038	0.031312	0.334182	-0.031674	0.250274	0.052	0.15646	-0.022079	0.273993	0.041733	0.19881	0.0776625	0.203533	0.114122	0.203043	0.05722	0.160757	0.065269	-0.004719	0.080881	0.0325115	0.171463	-0.231733	
0.80413	4.36249	5	0	0.084507	0.16535	-0.0352123	0.099521	-0.0343082	0.220506	0.0508398	0.148856	0.0209497	0.300677	0.0333555	0.328408	-0.029819	0.245032	0.051583	0.143161	-0.019017	0.26534	0.042448	0.181528	0.0888857	0.190753	0.125916	0.189244	0.064777	0.161533	0.065269	-0.004719	0.0830915	0.0262642	0.192178	-0.241583	
0.804481	4.35486	5	0	0.084507	0.16535	-0.026257	0.091229	-0.042	0.225532	0.048277	0.156099	0.020016	0.303317	0.035399	0.322633	-0.027964	0.239789	0.051166	0.129862	-0.015955	0.256686	0.043163	0.164247	0.100109	0.177973	0.137711	0.175445	0.072334	0.162309	0.065269	-0.004719	0.085302	0.020017	0.212893	-0.251432	
0.804958	4.35486	5	0	0.0801107	0.15623	-0.0385472	0.091944	-0.037529	0.212896	0.0534005	0.141619	0.0213323	0.28624	0.0300527	0.312825	-0.0351428	0.236426	0.049496	0.120115	-0.01806	0.241457	0.0381375	0.147966	0.096438	0.150491	0.137117	0.157589	0.0572297	0.160755	0.0747517	-0.0135145	0.0919245	0.00130125	0.214589	-0.256227	
0.805023	4.35028	5	0	0.0757145	0.147111	-0.0508375	0.092659	-0.033058	0.20026	0.058524	0.127139	0.0226485	0.269163	0.0247065	0.303017	-0.0423215	0.233064	0.047826	0.110369	-0.020165	0.226228	0.033112	0.131686	0.092767	0.123008	0.136524	0.139733	0.0421255	0.1592	0.0842345	-0.02231	0.098547	-0.0174145	0.216286	-0.261022	
0.804229	4.35638	5	0	0.0713182	0.137991	-0.0631277	0.093374	-0.028587	0.187623	0.0636475	0.112659	0.0239647	0.252086	0.0193602	0.293208	-0.0495002	0.229701	0.046156	0.100622	-0.02227	0.211	0.0280865	0.115405	0.089096	0.0955262	0.13593	0.121877	0.0270212	0.157645	0.0937173	-0.0311055	0.105169	-0.0361302	0.217983	-0.265817	
0.802586	4.35486	5	0	0.066922	0.128871	-0.075418	0.094089	-0.024116	0.174987	0.068771	0.098179	0.025281	0.235009	0.014014	0.2834	-0.056679	0.226338	0.044486	0.090875	-0.024375	0.195771	0.023061	0.099124	0.085425	0.068044	0.135336	0.104021	0.011917	0.156091	0.1032	-0.039901	0.111792	-0.054846	0.219679	-0.270612	
0.800236	4.35486	5	0	0.069678	0.121082	-0.0664712	0.0858063	-0.0218827	0.168676	0.074753	0.0998342	0.0271443	0.229743	0.0349262	0.274166	-0.0529768	0.215875	0.0528192	0.0962677	-0.0280105	0.184892	0.0293745	0.111765	0.086691	0.0455667	0.140922	0.0882358	0.0158548	0.144962	0.100807	-0.033138	0.10238	-0.0678345	0.216285	-0.26102	
0.797325	4.35486	5	0	0.072434	0.113292	-0.0575245	0.0775235	-0.0196495	0.162364	0.080735	0.10149	0.0290075	0.224477	0.0558385	0.264933	-0.0492745	0.205411	0.0611525	0.101661	-0.031646	0.174013	0.035688	0.124406	0.087957	0.0230895	0.146507	0.0724505	0.0197925	0.133834	0.098414	-0.026375	0.0929685	-0.080823	0.212891	-0.251427	
0.793996	4.35791	5	0	0.07519	0.105502	-0.0485778	0.0692408	-0.0174163	0.156053	0.086717	0.103145	0.0308707	0.219212	0.0767508	0.255699	-0.0455722	0.194947	0.0694857	0.107053	-0.0352815	0.163134	0.0420015	0.137046	0.089223	0.00061225	0.152093	0.0566653	0.0237303	0.122705	0.096021	-0.019612	0.0835567	-0.0938115	0.209496	-0.241835	
0.790395	4.35181	5	0	0.077946	0.097713	-0.039631	0.060958	-0.015183	0.149742	0.092699	0.1048	0.032734	0.213946	0.097663	0.246466	-0.04187	0.184484	0.077819	0.112446	-0.038917	0.152255	0.048315	0.149687	0.090489	-0.021865	0.157678	0.04088	0.027668	0.111577	0.093628	-0.012849	0.074145	-0.1068	0.206102	-0.232242	
0.786663	4.36249	5	0	0.0834513	0.0821545	-0.0306778	0.0526715	-0.0107212	0.137132	0.103811	0.0919753	0.0342213	0.223099	0.0968982	0.273612	-0.032835	0.182601	0.100388	0.135767	-0.0410327	0.137105	0.0756355	0.179563	0.080571	-0.0315773	0.16248	0.0468418	0.027668	0.111577	0.108946	-0.00202075	0.058162	-0.101133	0.199303	-0.213026	
0.782909	4.35028	5	0	0.0889565	0.066596	-0.0217245	0.044385	-0.0062595	0.124523	0.114922	0.0791505	0.0357085	0.232252	0.0961335	0.300758	-0.0238	0.180719	0.122956	0.159087	-0.0431485	0.121956	0.102956	0.20944	0.070653	-0.0412895	0.167283	0.0528035	0.027668	0.111577	0.124263	0.0088075	0.042179	-0.095465	0.192503	-0.19381	
0.77922	4.35791	5	0	0.0944617	0.0510375	-0.0127713	0.0360985	-0.00179775	0.111913	0.126034	0.0663258	0.0371957	0.241406	0.0953688	0.327903	-0.014765	0.178836	0.145525	0.182408	-0.0452642	0.106806	0.130276	0.239316	0.060735	-0.0510017	0.172085	0.0587653	0.027668	0.111577	0.139581	0.0196358	0.026196	-0.0897975	0.185704	-0.174595	
0.775681	4.35791	5	0	0.099967	0.035479	-0.003818	0.027812	0.002664	0.099304	0.137146	0.053501	0.038683	0.250559	0.094604	0.355049	-0.00573	0.176953	0.168094	0.205729	-0.04738	0.091657	0.157597	0.269192	0.050817	-0.060714	0.176887	0.064727	0.027668	0.111577	0.154899	0.030464	0.010213	-0.08413	0.178905	-0.155379	
0.772378	4.35943	5	0	0.102716	0.02771	-0.004939	0.0309808	0.00154925	0.102455	0.143145	0.0551452	0.0577155	0.250292	0.124328	0.371316	-0.00758175	0.182186	0.196641	0.241828	-0.0495032	0.076552	0.181129	0.310394	0.0470993	-0.087873	0.176887	0.064727	0.0227475	0.103401	0.164332	0.0399692	-0.001344	-0.090887	0.170385	-0.131301	
0.769396	4.35638	5	0	0.105465	0.019941	-0.00606	0.0341495	0.0004345	0.105606	0.149143	0.0567895	0.076748	0.250026	0.154052	0.387583	-0.0094335	0.18742	0.225187	0.277926	-0.0516265	0.061447	0.204661	0.351596	0.0433815	-0.115032	0.176887	0.064727	0.017827	0.095226	0.173766	0.0494745	-0.012901	-0.097644	0.161865	-0.107222	
0.766819	4.35791	5	0	0.108214	0.012172	-0.007181	0.0373182	-0.00068025	0.108756	0.155142	0.0584337	0.0957805	0.249759	0.183777	0.403851	-0.0112853	0.192653	0.253734	0.314025	-0.0537497	0.046342	0.228193	0.392799	0.0396637	-0.142191	0.176887	0.064727	0.0129065	0.0870505	0.1832	0.0589797	-0.024458	-0.104401	0.153346	-0.0831443	
0.764722	4.35943	5	0	0.110963	0.004403	-0.008302	0.040487	-0.001795	0.111907	0.161141	0.060078	0.114813	0.249493	0.213501	0.420118	-0.013137	0.197886	0.282281	0.350123	-0.055873	0.031237	0.251725	0.434001	0.035946	-0.16935	0.176887	0.064727	0.007986	0.078875	0.192633	0.068485	-0.036015	-0.111158	0.144826	-0.059066	
0.763165	4.35181	5	0	0.0996843	0.0147585	-0.0038285	0.0448767	0.0014335	0.119495	0.169307	0.0742513	0.129223	0.262445	0.227624	0.455764	-0.00594425	0.20124	0.313514	0.379367	-0.0595165	0.0204523	0.286428	0.459787	0.033462	-0.181134	0.189303	0.0687658	0.007986	0.078875	0.199669	0.0848353	-0.036015	-0.111158	0.164874	-0.0424438	
0.762209	4.35333	5	0	0.0884055	0.025114	0.000645	0.0492665	0.004662	0.127082	0.177473	0.0884245	0.143632	0.275396	0.241748	0.49141	0.0012485	0.204593	0.344746	0.408612	-0.06316	0.0096675	0.321131	0.485572	0.030978	-0.192918	0.20172	0.0728045	0.007986	0.078875	0.206706	0.101186	-0.036015	-0.111158	0.184922	-0.0258215	
0.761915	4.35333	5	0	0.0771268	0.0354695	0.0051185	0.0536563	0.0078905	0.13467	0.185639	0.102598	0.158042	0.288348	0.255871	0.527057	0.00844125	0.207947	0.375978	0.437856	-0.0668035	-0.00111725	0.355834	0.511358	0.028494	-0.204702	0.214137	0.0768433	0.007986	0.078875	0.213743	0.117536	-0.036015	-0.111158	0.204971	-0.00919925	
0.762341	4.35181	5	0	0.065848	0.045825	0.009592	0.058046	0.011119	0.142258	0.193805	0.116771	0.172452	0.3013	0.269994	0.562703	0.015634	0.211301	0.407211	0.4671	-0.070447	-0.011902	0.390537	0.537143	0.02601	-0.216486	0.226553	0.080882	0.007986	0.078875	0.220779	0.133886	-0.036015	-0.111158	0.225019	0.007423	
0.763547	4.34875	5	0	0.0672223	0.0419412	0.020799	0.060486	0.010002	0.145414	0.201105	0.114792	0.182956	0.298512	0.284958	0.570958	0.0265475	0.20417	0.428829	0.494627	-0.06591	-0.024724	0.403897	0.577219	0.022292	-0.224763	0.229969	0.0908232	0.0129065	0.0870505	0.225396	0.157145	-0.040404	-0.0987545	0.225992	0.0291632	
0.765445	4.35181	5	0	0.0685965	0.0380575	0.032006	0.062926	0.008885	0.14857	0.208406	0.112813	0.19346	0.295723	0.299922	0.579212	0.037461	0.197039	0.450447	0.522154	-0.061373	-0.037546	0.417258	0.617295	0.018574	-0.233041	0.233385	0.100765	0.017827	0.095226	0.230013	0.180403	-0.044793	-0.086351	0.226965	0.0509035	
0.767753	4.35638	5	0	0.0699707	0.0341738	0.043213	0.065366	0.007768	0.151727	0.215707	0.110835	0.203963	0.292934	0.314885	0.587466	0.0483745	0.189908	0.472065	0.549682	-0.056836	-0.050368	0.430618	0.657371	0.014856	-0.241318	0.236801	0.110706	0.0227475	0.103401	0.234631	0.203662	-0.049182	-0.0739475	0.227939	0.0726437	
0.77017	4.35333	5	0	0.071345	0.03029	0.05442	0.067806	0.006651	0.154883	0.223007	0.108856	0.214467	0.290146	0.329849	0.595721	0.059288	0.182777	0.493683	0.577209	-0.052299	-0.06319	0.443978	0.697447	0.011138	-0.249595	0.240217	0.120647	0.027668	0.111577	0.239248	0.226921	-0.053571	-0.061544	0.228912	0.094384	
0.772399	4.35028	5	0	0.068596	0.0380593	0.060032	0.0690257	0.010997	0.159328	0.227743	0.114142	0.21597	0.299361	0.344854	0.603996	0.0555768	0.193265	0.509825	0.605768	-0.0589698	-0.065395	0.469878	0.718081	0.009878	-0.264801	0.237412	0.128575	0.0289795	0.107871	0.249927	0.233119	-0.0716755	-0.049714	0.239443	0.113701	
0.774142	4.35333	5	0	0.065847	0.0458285	0.065644	0.0702455	0.015343	0.163773	0.23248	0.119429	0.217473	0.308576	0.359859	0.612271	0.0518655	0.203753	0.525966	0.634326	-0.0656405	-0.0676	0.495779	0.738714	0.008618	-0.280007	0.234607	0.136502	0.030291	0.104164	0.260606	0.239316	-0.08978	-0.037884	0.249974	0.133018	
0.775099	4.35181	5	0	0.063098	0.0535977	0.071256	0.0714653	0.019689	0.168218	0.237216	0.124716	0.218975	0.317791	0.374865	0.620546	0.0481543	0.214241	0.542107	0.662884	-0.0723112	-0.069805	0.521679	0.759348	0.007358	-0.295213	0.231802	0.14443	0.0316025	0.100458	0.271285	0.245514	-0.107884	-0.026054	0.260506	0.152334	
0.775139	4.35486	5	0	0.060349	0.061367	0.076868	0.072685	0.024035	0.172663	0.241952	0.130002	0.220478	0.327006	0.38987	0.628821	0.044443	0.224729	0.558249	0.691443	-0.078982	-0.07201	0.54758	0.779981	0.006098	-0.310419	0.228997	0.152358	0.032914	0.096752	0.281964	0.251711	-0.125989	-0.014224	0.271037	0.171651	
0.774527	4.35181	5	0	0.0675022	0.062671	0.0802333	0.08027	0.019559	0.185312	0.244115	0.14258	0.23157	0.336106	0.400737	0.648929	0.0535133	0.222838	0.57015	0.717364	-0.078982	-0.07201	0.567695	0.801689	0.0085535	-0.317358	0.249087	0.154492	0.0404655	0.0975178	0.289013	0.268239	-0.128186	-0.00801575	0.273713	0.188677	
0.773585	4.34723	5	0	0.0746555	0.063975	0.0835985	0.087855	0.015083	0.197962	0.246278	0.155159	0.242662	0.345205	0.411604	0.669038	0.0625835	0.220946	0.582051	0.743285	-0.078982	-0.07201	0.587809	0.823398	0.011009	-0.324297	0.269177	0.156625	0.048017	0.0982835	0.296062	0.284767	-0.130383	-0.0018075	0.276388	0.205703	
0.772635	4.35181	5	0	0.0818087	0.065279	0.0869638	0.09544	0.010607	0.210612	0.248441	0.167738	0.253754	0.354305	0.422471	0.689146	0.0716538	0.219054	0.593951	0.769206	-0.078982	-0.07201	0.607924	0.845106	0.0134645	-0.331236	0.289267	0.158758	0.0555685	0.0990493	0.303111	0.301294	-0.132579	0.00440075	0.279064	0.222729	
0.771999	4.35028	5	0	0.088962	0.066583	0.090329	0.103025	0.006131	0.223261	0.250604	0.180316	0.264846	0.363405	0.433338	0.709255	0.080724	0.217163	0.605852	0.795127	-0.078982	-0.07201	0.628039	0.866814	0.01592	-0.338175	0.309357	0.160892	0.06312	0.099815	0.31016	0.317822	-0.134776	0.010609	0.28174	0.239755	
0.772	4.34723	5	0	0.088962	0.066583	0.0892023	0.106209	0.0138368	0.218226	0.24329	0.182294	0.27106	0.359344	0.438777	0.719346	0.0788657	0.222415	0.621668	0.810174	-0.075964	-0.0805398	0.636376	0.890545	0.0109708	-0.342936	0.30795	0.164867	0.0667387	0.111721	0.310025	0.336456	-0.143578	0.0354853	0.297489	0.244521	
0.772884	4.35333	5	0	0.088962	0.066583	0.0880755	0.109394	0.0215425	0.213191	0.235976	0.184273	0.277274	0.355284	0.444215	0.729437	0.0770075	0.227666	0.637483	0.825222	-0.072946	-0.0890695	0.644713	0.914276	0.0060215	-0.347696	0.306543	0.168843	0.0703575	0.123628	0.309889	0.35509	-0.15238	0.0603615	0.313238	0.249287	
0.774589	4.35333	5	0	0.088962	0.066583	0.0869487	0.112578	0.0292482	0.208156	0.228663	0.186251	0.283488	0.351224	0.449654	0.739529	0.0751493	0.232918	0.653299	0.840269	-0.069928	-0.0975992	0.653051	0.938008	0.00107225	-0.352457	0.305137	0.172818	0.0739762	0.135534	0.309754	0.373723	-0.161182	0.0852378	0.328986	0.254053	
0.776977	4.34875	5	0	0.088962	0.066583	0.085822	0.115762	0.036954	0.203121	0.221349	0.188229	0.289702	0.347163	0.455093	0.74962	0.073291	0.23817	0.669115	0.855316	-0.06691	-0.106129	0.661388	0.961739	-0.003877	-0.357217	0.30373	0.176793	0.077595	0.14744	0.309619	0.392357	-0.169984	0.110114	0.344735	0.258819	
0.779912	4.34875	5	0	0.0961242	0.0678863	0.0914427	0.116988	0.0324718	0.215788	0.233404	0.191562	0.290266	0.35908	0.458435	0.765672	0.0714315	0.243425	0.676766	0.878629	-0.06691	-0.106129	0.672425	0.97796	-0.0014265	-0.364143	0.31138	0.174852	0.0660928	0.157814	0.311916	0.404133	-0.138147	0.0988935	0.328181	0.28095	
0.783255	4.34875	5	0	0.103287	0.0691895	0.0970635	0.118215	0.0279895	0.228456	0.245458	0.194894	0.29083	0.370997	0.461777	0.781724	0.069572	0.24868	0.684416	0.901943	-0.06691	-0.106129	0.683462	0.99418	0.001024	-0.371068	0.319029	0.172911	0.0545905	0.168187	0.314214	0.41591	-0.106311	0.087673	0.311627	0.303081	
0.786869	4.35028	5	0	0.110449	0.0704927	0.102684	0.119441	0.0235073	0.241123	0.257513	0.198227	0.291395	0.382915	0.465119	0.797777	0.0677125	0.253935	0.692067	0.925257	-0.06691	-0.106129	0.694499	1.0104	0.0034745	-0.377993	0.326679	0.17097	0.0430883	0.178561	0.316512	0.427686	-0.0744738	0.0764525	0.295073	0.325212	
0.790603	4.34875	5	0	0.117611	0.071796	0.108305	0.120667	0.019025	0.253791	0.269568	0.20156	0.291959	0.394832	0.468461	0.813829	0.065853	0.25919	0.699718	0.94857	-0.06691	-0.106129	0.705536	1.02662	0.005925	-0.384919	0.334329	0.169029	0.031586	0.188935	0.318809	0.439462	-0.042637	0.065232	0.278519	0.347343	
0.794174	4.34723	5	0	0.114855	0.0795852	0.113932	0.121893	0.0222487	0.261437	0.274313	0.206879	0.299303	0.414672	0.479348	0.83416	0.0730722	0.26256	0.709986	0.964595	-0.0714382	-0.0933315	0.710648	1.04385	0.012103	-0.383632	0.33917	0.175047	0.0365063	0.197163	0.327076	0.452692	-0.0629872	0.0833255	0.282909	0.359589	
0.797223	4.35181	5	0	0.112098	0.0873745	0.119558	0.123119	0.0254725	0.269083	0.279058	0.212197	0.306646	0.434511	0.490235	0.854491	0.0802915	0.265929	0.720253	0.980621	-0.0759665	-0.080534	0.71576	1.06108	0.018281	-0.382344	0.344011	0.181065	0.0414265	0.20539	0.335342	0.465923	-0.0833375	0.101419	0.2873	0.371835	
0.799385	4.35181	5	0	0.109342	0.0951638	0.125185	0.124345	0.0286962	0.276729	0.283803	0.217516	0.313989	0.45435	0.501122	0.874822	0.0875107	0.269299	0.730521	0.996646	-0.0804948	-0.0677365	0.720872	1.07831	0.024459	-0.381057	0.348852	0.187082	0.0463467	0.213618	0.343608	0.479153	-0.103688	0.119513	0.29169	0.38408	
0.800299	4.34875	5	0	0.106586	0.102953	0.130811	0.125571	0.03192	0.284375	0.288548	0.222835	0.321333	0.47419	0.512009	0.895153	0.09473	0.272669	0.740789	1.01267	-0.085023	-0.054939	0.725984	1.09554	0.030637	-0.379769	0.353693	0.1931	0.051267	0.221846	0.351875	0.492383	-0.124038	0.137606	0.29608	0.396326	
0.799603	4.34875	5	0	0.106586	0.102953	0.130811	0.125571	0.03192	0.284375	0.287255	0.226488	0.325676	0.475467	0.519571	0.899385	0.103823	0.270775	0.742466	1.02297	-0.0835127	-0.0592068	0.736522	1.09749	0.0355362	-0.393615	0.356511	0.185137	0.056191	0.230091	0.354169	0.504224	-0.108104	0.131994	0.30047	0.408606	
0.79694	4.3457	5	0	0.106586	0.102953	0.130811	0.125571	0.03192	0.284375	0.285963	0.230141	0.330018	0.476745	0.527132	0.903617	0.112916	0.26888	0.744143	1.03327	-0.0820025	-0.0634745	0.747059	1.09944	0.0404355	-0.407461	0.359328	0.177173	0.061115	0.238336	0.356463	0.516064	-0.0921705	0.126382	0.30486	0.420885	
0.792394	4.3457	5	0	0.106586	0.102953	0.130811	0.125571	0.03192	0.284375	0.28467	0.233795	0.334361	0.478022	0.534694	0.907849	0.122008	0.266986	0.74582	1.04357	-0.0804923	-0.0677423	0.757597	1.10139	0.0453348	-0.421307	0.362146	0.16921	0.066039	0.24658	0.358756	0.527904	-0.0762368	0.12077	0.309249	0.433165	
0.786773	4.34875	5	0	0.106586	0.102953	0.130811	0.125571	0.03192	0.284375	0.283377	0.237448	0.338704	0.479299	0.542255	0.912081	0.131101	0.265092	0.747497	1.05387	-0.078982	-0.07201	0.768135	1.10333	0.050234	-0.435153	0.364964	0.161247	0.070963	0.254825	0.36105	0.539745	-0.060303	0.115158	0.313639	0.445444	
0.78095	4.34875	5	0	0.105207	0.10685	0.135314	0.129989	0.0351445	0.292034	0.285534	0.250099	0.343604	0.492582	0.543476	0.934269	0.125506	0.280903	0.761727	1.05884	-0.0708005	-0.074075	0.770017	1.1139	0.0514575	-0.438611	0.366372	0.157268	0.0696428	0.258556	0.364571	0.548134	-0.0647255	0.127657	0.3084	0.46025	
0.7758	4.35028	5	0	0.103828	0.110747	0.139816	0.134408	0.038369	0.299694	0.287691	0.26275	0.348504	0.505864	0.544697	0.956457	0.119912	0.296714	0.775957	1.06382	-0.062619	-0.07614	0.771899	1.12447	0.052681	-0.442069	0.36778	0.153289	0.0683225	0.262288	0.368093	0.556523	-0.069148	0.140156	0.303161	0.475056	
0.772196	4.34875	5	0	0.102449	0.114645	0.144319	0.138826	0.0415935	0.307354	0.289849	0.275401	0.353405	0.519147	0.545917	0.978645	0.114317	0.312525	0.790188	1.06879	-0.0544375	-0.078205	0.77378	1.13504	0.0539045	-0.445527	0.369188	0.149311	0.0670022	0.266019	0.371615	0.564913	-0.0735705	0.152655	0.297922	0.489862	
0.771011	4.34418	5	0	0.10107	0.118542	0.148821	0.143244	0.044818	0.315013	0.292006	0.288052	0.358305	0.53243	0.547138	1.00083	0.108722	0.328336	0.804418	1.07376	-0.046256	-0.08027	0.775662	1.1456	0.055128	-0.448985	0.370596	0.145332	0.065682	0.26975	0.375136	0.573302	-0.077993	0.165154	0.292683	0.504668	
0.772683	4.34723	5	0	0.10107	0.118542	0.139801	0.151593	0.0425682	0.321371	0.29071	0.291714	0.362253	0.548442	0.548339	1.02311	0.104987	0.338892	0.807414	1.08038	-0.0410877	-0.0737942	0.784864	1.15141	0.0502308	-0.435145	0.372626	0.159313	0.0679602	0.285497	0.382181	0.590129	-0.0802068	0.17141	0.297061	0.517014	
0.776504	4.34875	5	0	0.10107	0.118542	0.130781	0.159942	0.0403185	0.32773	0.289414	0.295376	0.366201	0.564455	0.54954	1.04539	0.101252	0.349448	0.810411	1.087	-0.0359195	-0.0673185	0.794067	1.15721	0.0453335	-0.421304	0.374657	0.173295	0.0702385	0.301245	0.389226	0.606957	-0.0824205	0.177667	0.301439	0.52936	
0.781586	4.34418	5	0	0.10107	0.118542	0.121761	0.16829	0.0380687	0.334089	0.288118	0.299039	0.37015	0.580468	0.550742	1.06767	0.097517	0.360005	0.813408	1.09362	-0.0307513	-0.0608428	0.803269	1.16302	0.0404362	-0.407463	0.376688	0.187276	0.0725168	0.316993	0.39627	0.623784	-0.0846342	0.183923	0.305817	0.541706	
0.787039	4.34723	5	0	0.10107	0.118542	0.112741	0.176639	0.035819	0.340447	0.286822	0.302701	0.374098	0.59648	0.551943	1.08994	0.093782	0.370561	0.816404	1.10024	-0.025583	-0.054367	0.812472	1.16882	0.035539	-0.393623	0.378718	0.201258	0.074795	0.33274	0.403315	0.640611	-0.086848	0.190179	0.310195	0.554052	
0.791971	4.34418	5	0	0.091154	0.125022	0.111611	0.179834	0.0346932	0.343628	0.285525	0.306365	0.37124	0.604556	0.563775	1.08221	0.102882	0.368676	0.81377	1.10768	-0.0270963	-0.0500908	0.811111	1.17267	0.0379888	-0.400546	0.381538	0.193288	0.078764	0.321523	0.400844	0.647594	-0.086848	0.190179	0.308443	0.559004	
0.795494	4.3457	5	0	0.081238	0.131501	0.11048	0.183028	0.0335675	0.346809	0.284229	0.310029	0.368383	0.612632	0.575608	1.07448	0.111981	0.366791	0.811135	1.11513	-0.0286095	-0.0458145	0.80975	1.17651	0.0404385	-0.407469	0.384358	0.185317	0.082733	0.310306	0.398374	0.654576	-0.086848	0.190179	0.306691	0.563956	
0.796828	4.34265	5	0	0.071322	0.137981	0.109349	0.186223	0.0324417	0.34999	0.282933	0.313693	0.365525	0.620708	0.58744	1.06675	0.121081	0.364907	0.8085	1.12257	-0.0301227	-0.0415382	0.808388	1.18036	0.0428883	-0.414392	0.387178	0.177347	0.086702	0.299089	0.395903	0.661559	-0.086848	0.190179	0.304939	0.568907	
0.796074	4.34723	5	0	0.061406	0.14446	0.108219	0.189418	0.031316	0.353171	0.281636	0.317357	0.362667	0.628784	0.599272	1.05902	0.130181	0.363022	0.805866	1.13002	-0.031636	-0.037262	0.807027	1.18421	0.045338	-0.421315	0.389998	0.169377	0.090671	0.287872	0.393433	0.668541	-0.086848	0.190179	0.303187	0.573859	
0.793755	4.34723	5	0	0.0600263	0.148359	0.113847	0.190655	0.0256822	0.369093	0.283783	0.330055	0.370422	0.634077	0.604734	1.06932	0.128311	0.368308	0.815816	1.13211	-0.0234357	-0.0393313	0.808906	1.19482	0.045338	-0.421315	0.397674	0.167425	0.0893485	0.29161	0.39819	0.673493	-0.12531	0.220124	0.312826	0.57137	
0.790397	4.3457	5	0	0.0586465	0.152258	0.119475	0.191893	0.0200485	0.385015	0.28593	0.342753	0.378178	0.639369	0.610197	1.07963	0.126441	0.373594	0.825765	1.1342	-0.0152355	-0.0414005	0.810786	1.20544	0.045338	-0.421315	0.40535	0.165472	0.088026	0.295347	0.402947	0.678445	-0.163772	0.250069	0.322464	0.568881	
0.786525	4.34265	5	0	0.0572667	0.156157	0.125103	0.19313	0.0144148	0.400937	0.288078	0.355451	0.385934	0.644662	0.61566	1.08994	0.12457	0.378879	0.835714	1.1363	-0.00703525	-0.0434698	0.812666	1.21605	0.045338	-0.421315	0.413026	0.163519	0.0867035	0.299084	0.407704	0.683396	-0.202235	0.280014	0.332103	0.566392	
0.782666	4.34418	5	0	0.055887	0.160056	0.130731	0.194367	0.008781	0.416859	0.290225	0.368149	0.393689	0.649955	0.621122	1.10024	0.1227	0.384165	0.845664	1.13839	0.001165	-0.045539	0.814545	1.22667	0.045338	-0.421315	0.420702	0.161567	0.085381	0.302822	0.412461	0.688348	-0.240697	0.309959	0.341742	0.563903	
0.779332	4.34418	5	0	0.0586457	0.15226	0.12171	0.202721	0.0099085	0.413672	0.291524	0.364478	0.385516	0.659444	0.61899	1.10627	0.133683	0.376989	0.836069	1.1504	-0.00186475	-0.0369765	0.816421	1.2373	0.049074	-0.413108	0.421326	0.179566	0.088984	0.314852	0.411022	0.710828	-0.208885	0.298808	0.336477	0.578783	
0.776744	4.34265	5	0	0.0614045	0.144464	0.112688	0.211074	0.011036	0.410486	0.292824	0.360806	0.377342	0.668933	0.616859	1.11229	0.144667	0.369812	0.826473	1.1624	-0.0048945	-0.028414	0.818297	1.24794	0.05281	-0.4049	0.421949	0.197566	0.092587	0.326883	0.409583	0.733308	-0.177073	0.287658	0.331212	0.593663	
0.774856	4.34265	5	0	0.0641632	0.136667	0.103667	0.219427	0.0121635	0.407299	0.294123	0.357135	0.369169	0.678423	0.614727	1.11831	0.15565	0.362635	0.816878	1.17441	-0.00792425	-0.0198515	0.820174	1.25858	0.056546	-0.396693	0.422573	0.215565	0.09619	0.338913	0.408145	0.755787	-0.145261	0.276508	0.325947	0.608543	
0.773611	4.34112	5	0	0.066922	0.128871	0.094645	0.227781	0.013291	0.404112	0.295422	0.353463	0.360995	0.687912	0.612596	1.12434	0.166633	0.355459	0.807283	1.18641	-0.010954	-0.011289	0.82205	1.26921	0.060282	-0.388485	0.423197	0.233565	0.099793	0.350944	0.406706	0.778267	-0.113449	0.265357	0.320682	0.623423	
0.772953	4.3396	5	0	0.065543	0.132768	0.100271	0.229025	0.0110355	0.410487	0.301469	0.355158	0.366304	0.686518	0.612596	1.12434	0.164762	0.360748	0.808952	1.19681	-0.01247	-0.00700475	0.828534	1.28281	0.0590555	-0.385019	0.418953	0.24556	0.102443	0.343455	0.413948	0.776232	-0.113449	0.265357	0.320682	0.623423	
0.772824	4.3457	5	0	0.064164	0.136665	0.105896	0.230269	0.00878	0.416861	0.307516	0.356853	0.371613	0.685124	0.612596	1.12434	0.16289	0.366037	0.81062	1.20721	-0.013986	-0.0027205	0.835017	1.29641	0.057829	-0.381553	0.414708	0.257555	0.105093	0.335966	0.42119	0.774198	-0.113449	0.265357	0.320682	0.623423	
0.773167	4.34418	5	0	0.062785	0.140563	0.111521	0.231513	0.0065245	0.423235	0.313564	0.358547	0.376922	0.683731	0.612596	1.12434	0.161019	0.371326	0.812289	1.2176	-0.015502	0.00156375	0.841501	1.31	0.0566025	-0.378086	0.410463	0.269551	0.107743	0.328477	0.428432	0.772163	-0.113449	0.265357	0.320682	0.623423	
0.77386	4.34112	5	0	0.061406	0.14446	0.117147	0.232757	0.004269	0.42961	0.319611	0.360242	0.382231	0.682337	0.612596	1.12434	0.159147	0.376615	0.813958	1.228	-0.017018	0.005848	0.847985	1.3236	0.055376	-0.37462	0.406219	0.281546	0.110393	0.320988	0.435674	0.770128	-0.113449	0.265357	0.320682	0.623423	
0.774685	4.3396	5	0	0.058646	0.152259	0.12051	0.24041	0.00521925	0.443712	0.314407	0.374949	0.382763	0.694454	0.618058	1.13468	0.157275	0.381907	0.821265	1.23761	-0.0118452	0.0123588	0.844363	1.34982	0.0578825	-0.362919	0.406818	0.299636	0.109068	0.324732	0.431947	0.780661	-0.115669	0.271631	0.318925	0.628389	
0.775419	4.3396	5	0	0.055886	0.160059	0.123874	0.248062	0.0061695	0.457814	0.309203	0.389656	0.383295	0.70657	0.62352	1.14502	0.155402	0.3872	0.828572	1.24722	-0.0066725	0.0188695	0.840742	1.37603	0.060389	-0.351217	0.407417	0.317725	0.107744	0.328475	0.428219	0.791195	-0.117889	0.277904	0.317168	0.633355	
0.775835	4.3396	5	0	0.053126	0.167859	0.127238	0.255715	0.00711975	0.471916	0.304	0.404362	0.383827	0.718687	0.628981	1.15537	0.153529	0.392492	0.835879	1.25683	-0.00149975	0.0253803	0.83712	1.40225	0.0628955	-0.339515	0.408017	0.335815	0.106419	0.332218	0.424492	0.801728	-0.120108	0.284178	0.31541	0.63832	
0.775709	4.34112	5	0	0.050366	0.175658	0.130601	0.263368	0.00807	0.486018	0.298796	0.419069	0.384359	0.730804	0.634443	1.16571	0.151657	0.397784	0.843186	1.26644	0.003673	0.031891	0.833498	1.42847	0.065402	-0.327814	0.408616	0.353905	0.105094	0.335962	0.420765	0.812261	-0.122328	0.290452	0.313653	0.643286	
0.774816	4.34265	5	0	0.0517463	0.171758	0.130601	0.263368	0.001474	0.487872	0.298796	0.419069	0.380004	0.729492	0.636579	1.15967	0.140674	0.404961	0.846179	1.27313	-0.00909025	0.0468325	0.842724	1.43439	0.0617128	-0.317387	0.412047	0.364012	0.09979	0.350953	0.415789	0.826325	-0.140471	0.302307	0.319783	0.650745	
0.773073	4.33655	5	0	0.0531265	0.167857	0.130601	0.263368	-0.005122	0.489726	0.298796	0.419069	0.375648	0.728181	0.638714	1.15364	0.12969	0.412137	0.849173	1.27981	-0.0218535	0.061774	0.851951	1.44032	0.0580235	-0.30696	0.415478	0.374118	0.094486	0.365943	0.410813	0.840389	-0.158613	0.314161	0.325913	0.658205	
0.770771	4.33807	5	0	0.0545067	0.163957	0.130601	0.263368	-0.011718	0.49158	0.298796	0.419069	0.371293	0.72687	0.64085	1.1476	0.118707	0.419314	0.852167	1.2865	-0.0346167	0.0767155	0.861177	1.44625	0.0543343	-0.296533	0.41891	0.384224	0.089182	0.380933	0.405836	0.854453	-0.176756	0.326016	0.332044	0.665664	
0.76826	4.34265	5	0	0.055887	0.160056	0.130601	0.263368	-0.018314	0.493434	0.298796	0.419069	0.366938	0.725558	0.642986	1.14157	0.107724	0.42649	0.85516	1.29319	-0.04738	0.091657	0.870404	1.45218	0.050645	-0.286106	0.422341	0.394331	0.083878	0.395924	0.40086	0.868517	-0.194899	0.337871	0.338174	0.673124	
0.765891	4.3396	5	0	0.064423	0.157477	0.121569	0.271734	-0.011718	0.49158	0.288848	0.428399	0.366938	0.725558	0.628985	1.15536	0.118707	0.419314	0.856825	1.30365	-0.0391755	0.0895993	0.86627	1.46386	0.0518752	-0.289583	0.419496	0.402373	0.0852047	0.392174	0.410596	0.85945	-0.178978	0.332294	0.328527	0.675604	
0.764014	4.34112	5	0	0.072959	0.154898	0.112538	0.2801	-0.005122	0.489726	0.278899	0.437729	0.366938	0.725558	0.614985	1.16914	0.12969	0.412137	0.85849	1.31411	-0.030971	0.0875415	0.862137	1.47554	0.0531055	-0.29306	0.41665	0.410415	0.0865315	0.388424	0.420333	0.850383	-0.163056	0.326717	0.31888	0.678083	
0.762979	4.33807	5	0	0.081495	0.15232	0.103507	0.288467	0.001474	0.487872	0.268951	0.447058	0.366938	0.725558	0.600984	1.18293	0.140674	0.404961	0.860154	1.32456	-0.0227665	0.0854837	0.858004	1.48722	0.0543358	-0.296537	0.413805	0.418457	0.0878582	0.384674	0.430069	0.841317	-0.147135	0.321141	0.309233	0.680563	
0.763023	4.34112	5	0	0.090031	0.149741	0.094475	0.296833	0.00807	0.486018	0.259003	0.456388	0.366938	0.725558	0.586983	1.19672	0.151657	0.397784	0.861819	1.33502	-0.014562	0.083426	0.85387	1.4989	0.055566	-0.300014	0.410959	0.426499	0.089185	0.380924	0.439806	0.83225	-0.131214	0.315564	0.299586	0.683043	
0.763978	4.33655	5	0	0.0872688	0.157548	0.100102	0.298088	0.0124098	0.490556	0.265043	0.458104	0.371819	0.739013	0.592432	1.2071	0.149783	0.403079	0.86348	1.3455	-0.0191275	0.0963285	0.855724	1.50968	0.0580645	-0.288271	0.412958	0.440673	0.09411	0.389245	0.43607	0.842808	-0.135661	0.328134	0.30571	0.690519	
0.765586	4.33502	5	0	0.0845065	0.165354	0.105729	0.299344	0.0167495	0.495093	0.271083	0.45982	0.3767	0.752468	0.597881	1.21748	0.147909	0.408374	0.865142	1.35597	-0.023693	0.109231	0.857579	1.52046	0.060563	-0.276528	0.414957	0.454848	0.099035	0.397566	0.432334	0.853367	-0.140109	0.340703	0.311835	0.697995	
0.767589	4.33807	5	0	0.0817442	0.17316	0.111356	0.3006	0.0210893	0.499631	0.277122	0.461536	0.381582	0.765922	0.603329	1.22786	0.146036	0.41367	0.866804	1.36645	-0.0282585	0.122133	0.859434	1.53125	0.0630615	-0.264784	0.416957	0.469023	0.10396	0.405888	0.428599	0.863925	-0.144557	0.353272	0.317959	0.705472	
0.769729	4.33655	5	0	0.078982	0.180967	0.116983	0.301855	0.025429	0.504169	0.283162	0.463252	0.386463	0.779377	0.608778	1.23824	0.144162	0.418965	0.868465	1.37693	-0.032824	0.135036	0.861288	1.54203	0.06556	-0.253041	0.418956	0.483197	0.108885	0.414209	0.424863	0.874483	-0.149004	0.365842	0.324083	0.712948	
0.771749	4.3396	5	0	0.078982	0.180967	0.118118	0.298646	0.0176957	0.509222	0.284465	0.459568	0.38019	0.783476	0.606637	1.2443	0.142287	0.424264	0.871457	1.38366	-0.0343472	0.139341	0.859907	1.54593	0.0581375	-0.250868	0.409832	0.489159	0.104896	0.425482	0.428375	0.883026	-0.133049	0.360254	0.310913	0.725384	
0.773412	4.33807	5	0	0.078982	0.180967	0.119253	0.295438	0.0099625	0.514275	0.285768	0.455885	0.373916	0.787575	0.604495	1.25035	0.140412	0.429562	0.874449	1.39039	-0.0358705	0.143645	0.858526	1.54983	0.050715	-0.248696	0.400707	0.495121	0.100906	0.436756	0.431887	0.891569	-0.117094	0.354665	0.297743	0.73782	
0.77461	4.33655	5	0	0.078982	0.180967	0.120389	0.292229	0.00222925	0.519328	0.287072	0.452201	0.367643	0.791674	0.602353	1.2564	0.138538	0.43486	0.877441	1.39712	-0.0373938	0.14795	0.857144	1.55374	0.0432925	-0.246523	0.391583	0.501083	0.0969172	0.44803	0.435399	0.900112	-0.101139	0.349077	0.284573	0.750256	
0.775284	4.33807	5	0	0.078982	0.180967	0.121524	0.289021	-0.005504	0.524381	0.288375	0.448518	0.36137	0.795773	0.600212	1.26245	0.136663	0.440159	0.880433	1.40385	-0.038917	0.152255	0.855763	1.55764	0.03587	-0.24435	0.382458	0.507045	0.092928	0.459303	0.438911	0.908655	-0.085184	0.343488	0.271403	0.762692	
0.775374	4.33655	5	0	0.0776	0.184873	0.104601	0.302545	-0.006636	0.52758	0.287072	0.452201	0.363806	0.802518	0.607806	1.26681	0.134787	0.445461	0.88476	1.40682	-0.040441	0.156562	0.863144	1.55282	0.03587	-0.24435	0.38531	0.498985	0.092928	0.459303	0.430411	0.914209	-0.0874115	0.349784	0.281046	0.760223	
0.774819	4.3396	5	0	0.076218	0.188778	0.087679	0.31607	-0.007768	0.530779	0.285768	0.455885	0.366242	0.809264	0.615399	1.27116	0.132911	0.450762	0.889088	1.40979	-0.041965	0.160869	0.870524	1.548	0.03587	-0.24435	0.388162	0.490925	0.092928	0.459303	0.42191	0.919763	-0.089639	0.356079	0.290689	0.757754	
0.773561	4.33807	5	0	0.074836	0.192684	0.0707565	0.329594	-0.0089	0.533979	0.284465	0.459568	0.368678	0.81601	0.622993	1.27552	0.131035	0.456064	0.893415	1.41276	-0.043489	0.165176	0.877904	1.54317	0.03587	-0.24435	0.391014	0.482865	0.092928	0.459303	0.41341	0.925318	-0.0918665	0.362375	0.300333	0.755286	
0.771565	4.33349	5	0	0.073454	0.19659	0.053834	0.343118	-0.010032	0.537178	0.283162	0.463252	0.371114	0.822755	0.630587	1.27987	0.129159	0.461365	0.897742	1.41573	-0.045013	0.169483	0.885285	1.53835	0.03587	-0.24435	0.393866	0.474805	0.092928	0.459303	0.40491	0.930872	-0.094094	0.368671	0.309976	0.752817	
0.769076	4.33349	5	0	0.070688	0.204407	0.053834	0.343118	-0.0134305	0.546783	0.271908	0.476273	0.375986	0.836277	0.624144	1.29808	0.136401	0.464792	0.895072	1.42327	-0.0383273	0.171742	0.883903	1.54226	0.0420597	-0.243039	0.400139	0.476903	0.088934	0.470591	0.410913	0.932375	-0.0963232	0.374971	0.308211	0.757805	
0.766516	4.33807	5	0	0.067922	0.212224	0.053834	0.343118	-0.016829	0.556387	0.260653	0.489294	0.380858	0.849799	0.617702	1.31628	0.143643	0.468218	0.892402	1.43082	-0.0316415	0.174001	0.882521	1.54616	0.0482495	-0.241728	0.406411	0.479001	0.08494	0.481879	0.416917	0.933878	-0.0985525	0.381271	0.306446	0.762792	
0.764307	4.33655	5	0	0.065156	0.22004	0.053834	0.343118	-0.0202275	0.565991	0.249399	0.502315	0.38573	0.86332	0.61126	1.33449	0.150886	0.471645	0.889732	1.43836	-0.0249557	0.176259	0.881138	1.55007	0.0544393	-0.240417	0.412683	0.481099	0.080946	0.493167	0.42292	0.93538	-0.100782	0.387572	0.304682	0.76778	
0.762873	4.33349	5	0	0.06239	0.227857	0.053834	0.343118	-0.023626	0.575596	0.238145	0.515336	0.390602	0.876842	0.604817	1.3527	0.158128	0.475072	0.887062	1.44591	-0.01827	0.178518	0.879756	1.55398	0.060629	-0.239106	0.418956	0.483197	0.076952	0.504455	0.428923	0.936883	-0.103011	0.393872	0.302917	0.772768	
0.762636	4.33502	5	0	0.0637733	0.223948	0.0628593	0.334754	-0.02136	0.569192	0.240753	0.507965	0.386243	0.87551	0.602667	1.35878	0.158128	0.475072	0.880067	1.45048	-0.0167445	0.174207	0.875139	1.55099	0.056902	-0.247378	0.416957	0.469023	0.0756195	0.508221	0.427674	0.940414	-0.103011	0.393872	0.302917	0.772768	
0.763995	4.33197	5	0	0.0651565	0.220038	0.0718845	0.32639	-0.019094	0.562787	0.243362	0.500593	0.381885	0.874178	0.600517	1.36485	0.158128	0.475072	0.873072	1.45505	-0.015219	0.169896	0.870522	1.548	0.053175	-0.25565	0.414957	0.454848	0.074287	0.511987	0.426424	0.943944	-0.103011	0.393872	0.302917	0.772768	
0.766956	4.33502	5	0	0.0665397	0.216129	0.0809098	0.318026	-0.016828	0.556383	0.24597	0.493221	0.377526	0.872846	0.598366	1.37093	0.158128	0.475072	0.866077	1.45962	-0.0136935	0.165584	0.865905	1.54501	0.049448	-0.263921	0.412958	0.440673	0.0729545	0.515752	0.425175	0.947474	-0.103011	0.393872	0.302917	0.772768	
0.771197	4.33807	5	0	0.067923	0.21222	0.089935	0.309662	-0.014562	0.549979	0.248578	0.48585	0.373167	0.871514	0.596216	1.37701	0.158128	0.475072	0.859082	1.46419	-0.012168	0.161273	0.861288	1.54203	0.045721	-0.272193	0.410959	0.426499	0.071622	0.519518	0.423926	0.951005	-0.103011	0.393872	0.302917	0.772768	
0.776391	4.33655	5	0	0.0665397	0.216129	0.0809098	0.318026	-0.016828	0.556383	0.244665	0.49691	0.377526	0.872846	0.605962	1.37531	0.158128	0.475072	0.866077	1.45962	-0.0136935	0.165584	0.868669	1.5372	0.046952	-0.275671	0.412382	0.422477	0.071622	0.519518	0.425175	0.947474	-0.118963	0.399452	0.312573	0.770295	
0.782207	4.33807	5	0	0.0651565	0.220038	0.0718845	0.32639	-0.019094	0.562787	0.240752	0.507969	0.381885	0.874178	0.615708	1.37362	0.158128	0.475072	0.873072	1.45505	-0.015219	0.169896	0.876049	1.53238	0.048183	-0.27915	0.413805	0.418455	0.071622	0.519518	0.426424	0.943944	-0.134915	0.405031	0.32223	0.767822	
0.788316	4.33502	5	0	0.0637733	0.223948	0.0628593	0.334754	-0.02136	0.569192	0.236838	0.519029	0.386243	0.87551	0.625454	1.37193	0.158128	0.475072	0.880067	1.45048	-0.0167445	0.174207	0.883429	1.52756	0.049414	-0.282628	0.415228	0.414433	0.071622	0.519518	0.427674	0.940414	-0.150867	0.410611	0.331886	0.765349	
0.794388	4.33502	5	0	0.06239	0.227857	0.053834	0.343118	-0.023626	0.575596	0.232925	0.530088	0.390602	0.876842	0.6352	1.37024	0.158128	0.475072	0.887062	1.44591	-0.01827	0.178518	0.89081	1.52274	0.050645	-0.286106	0.416651	0.410411	0.071622	0.519518	0.428923	0.936883	-0.166819	0.416191	0.341542	0.762876	
0.800082	4.33197	5	0	0.052474	0.234336	0.0526985	0.346328	-0.0247595	0.5788	0.231619	0.533778	0.39111	0.889066	0.628736	1.3885	0.16538	0.478502	0.885726	1.44969	-0.011576	0.180778	0.889429	1.52664	0.0556058	-0.281322	0.421504	0.41652	0.0792035	0.520358	0.425174	0.947479	-0.148638	0.404311	0.339775	0.767869	
0.805025	4.33655	5	0	0.042558	0.240816	0.051563	0.349537	-0.025893	0.582004	0.230314	0.537467	0.391618	0.901289	0.622271	1.40677	0.172631	0.481932	0.884391	1.45346	-0.004882	0.183038	0.888047	1.53054	0.0605665	-0.276539	0.426358	0.422629	0.086785	0.521198	0.421424	0.958075	-0.130457	0.392431	0.338009	0.772863	
0.808844	4.33655	5	0	0.032642	0.247295	0.0504275	0.352746	-0.0270265	0.585207	0.229009	0.541157	0.392127	0.913512	0.615807	1.42504	0.179883	0.485363	0.883055	1.45724	0.001812	0.185297	0.886666	1.53445	0.0655272	-0.271755	0.431211	0.428738	0.0943665	0.522038	0.417675	0.968671	-0.112275	0.380551	0.336242	0.777856	
0.811164	4.33502	5	0	0.022726	0.253774	0.049292	0.355956	-0.02816	0.588411	0.227703	0.544846	0.392635	0.925736	0.609343	1.44331	0.187135	0.488793	0.881719	1.46101	0.008506	0.187557	0.885285	1.53835	0.070488	-0.266971	0.436064	0.434847	0.101948	0.522878	0.413926	0.979267	-0.094094	0.368671	0.334475	0.782849	
0.81161	4.33349	5	0	0.0241092	0.249865	0.049292	0.355956	-0.02816	0.588411	0.236349	0.539197	0.394563	0.920289	0.611499	1.43722	0.174242	0.501305	0.881719	1.46101	0.008506	0.187557	0.892672	1.53353	0.072951	-0.273932	0.431211	0.428738	0.0943665	0.522038	0.423685	0.970174	-0.094094	0.368671	0.326586	0.780329	
0.809808	4.33807	5	0	0.0254925	0.245955	0.049292	0.355956	-0.02816	0.588411	0.244995	0.533548	0.39649	0.914841	0.613655	1.43112	0.161349	0.513818	0.881719	1.46101	0.008506	0.187557	0.900058	1.5287	0.075414	-0.280892	0.426358	0.422629	0.086785	0.521198	0.433443	0.961081	-0.094094	0.368671	0.318696	0.777809	
0.805486	4.33655	5	0	0.0268758	0.242046	0.049292	0.355956	-0.02816	0.588411	0.253641	0.527898	0.398417	0.909394	0.615812	1.42503	0.148456	0.52633	0.881719	1.46101	0.008506	0.187557	0.907445	1.52387	0.077877	-0.287853	0.421504	0.41652	0.0792035	0.520358	0.443202	0.951987	-0.094094	0.368671	0.310806	0.775288	
0.799219	4.33655	5	0	0.028259	0.238137	0.049292	0.355956	-0.02816	0.588411	0.262287	0.522249	0.400345	0.903947	0.617968	1.41894	0.135563	0.538843	0.881719	1.46101	0.008506	0.187557	0.914832	1.51904	0.08034	-0.294814	0.416651	0.410411	0.071622	0.519518	0.452961	0.942894	-0.094094	0.368671	0.302917	0.772768	
0.792013	4.33807	5	0	0.0367917	0.235567	0.0549093	0.357223	-0.02383	0.592976	0.257059	0.537022	0.406637	0.899836	0.615812	1.42503	0.146574	0.531648	0.887383	1.46021	0.008506	0.187557	0.918077	1.52594	0.0815707	-0.298292	0.416651	0.410411	0.0845345	0.505292	0.445702	0.944922	-0.110048	0.374255	0.314339	0.765305	
0.784873	4.33655	5	0	0.0453245	0.232997	0.0605265	0.35849	-0.0195	0.597541	0.251832	0.551796	0.412929	0.895725	0.613655	1.43112	0.157586	0.524453	0.893047	1.45942	0.008506	0.187557	0.921323	1.53283	0.0828015	-0.30177	0.416651	0.410411	0.097447	0.491066	0.438443	0.946949	-0.126001	0.379839	0.325762	0.757841	
0.778808	4.33349	5	0	0.0538573	0.230427	0.0661438	0.359757	-0.01517	0.602107	0.246605	0.56657	0.41922	0.891613	0.611499	1.43722	0.168597	0.517258	0.898712	1.45862	0.008506	0.187557	0.924568	1.53972	0.0840323	-0.305249	0.416651	0.410411	0.110359	0.476839	0.431185	0.948977	-0.141955	0.385424	0.337184	0.750377	
0.774825	4.33502	5	0	0.06239	0.227857	0.071761	0.361024	-0.01084	0.606672	0.241377	0.581343	0.425512	0.887502	0.609343	1.44331	0.179609	0.510063	0.904376	1.45782	0.008506	0.187557	0.927813	1.54661	0.085263	-0.308727	0.416651	0.410411	0.123272	0.462613	0.423926	0.951005	-0.157909	0.391008	0.348606	0.742914	
0.773874	4.33502	5	0	0.0637733	0.223948	0.0706242	0.364237	-0.00196475	0.598407	0.243992	0.573953	0.418257	0.894336	0.609343	1.44331	0.177727	0.515383	0.901701	1.46538	0.0136787	0.194139	0.92366	1.55835	0.0778713	-0.287837	0.417227	0.428608	0.130868	0.463439	0.429934	0.952511	-0.157909	0.391008	0.348606	0.742914	
0.775957	4.33044	5	0	0.0651565	0.220038	0.0694875	0.36745	0.0069105	0.590142	0.246607	0.566563	0.411002	0.901171	0.609343	1.44331	0.175844	0.520704	0.899027	1.47294	0.0188515	0.200721	0.919507	1.57009	0.0704795	-0.266946	0.417803	0.446804	0.138464	0.464264	0.435943	0.954017	-0.157909	0.391008	0.348606	0.742914	
0.780281	4.33349	5	0	0.0665397	0.216129	0.0683508	0.370663	0.0157857	0.581877	0.249221	0.559173	0.403746	0.908006	0.609343	1.44331	0.173961	0.526025	0.896352	1.4805	0.0240243	0.207304	0.915353	1.58183	0.0630877	-0.246056	0.41838	0.465	0.146059	0.46509	0.441952	0.955522	-0.157909	0.391008	0.348606	0.742914	
0.78603	4.33349	5	0	0.067923	0.21222	0.067214	0.373876	0.024661	0.573612	0.251836	0.551783	0.396491	0.91484	0.609343	1.44331	0.172079	0.531345	0.893678	1.48806	0.029197	0.213886	0.9112	1.59356	0.055696	-0.225166	0.418956	0.483197	0.153655	0.465916	0.44796	0.957028	-0.157909	0.391008	0.348606	0.742914	
0.792384	4.33502	5	0	0.0593895	0.214792	0.064939	0.380305	0.024661	0.573612	0.250529	0.555477	0.397454	0.912117	0.611499	1.43722	0.173961	0.526025	0.89234	1.49184	0.020968	0.21594	0.915828	1.59656	0.0569293	-0.228651	0.418956	0.483197	0.148721	0.457566	0.45046	0.949963	-0.119282	0.360931	0.350371	0.737926	
0.798527	4.33349	5	0	0.050856	0.217363	0.062664	0.386735	0.024661	0.573612	0.249222	0.559171	0.398418	0.909393	0.613655	1.43112	0.175844	0.520704	0.891002	1.49562	0.012739	0.217995	0.920455	1.59956	0.0581625	-0.232136	0.418956	0.483197	0.143788	0.449217	0.45296	0.942897	-0.0806545	0.330855	0.352136	0.732938	
0.803642	4.33502	5	0	0.0423225	0.219935	0.060389	0.393165	0.024661	0.573612	0.247915	0.562866	0.399382	0.90667	0.615812	1.42503	0.177727	0.515383	0.889663	1.4994	0.00451	0.22005	0.925083	1.60256	0.0593958	-0.235621	0.418956	0.483197	0.138854	0.440868	0.45546	0.935832	-0.0420272	0.300778	0.3539	0.727951	
0.80712	4.33197	5	0	0.033789	0.222507	0.058114	0.399594	0.024661	0.573612	0.246608	0.56656	0.400345	0.903947	0.617968	1.41894	0.179609	0.510063	0.888325	1.50318	-0.003719	0.222104	0.929711	1.60556	0.060629	-0.239106	0.418956	0.483197	0.13392	0.432518	0.45796	0.928767	-0.0034	0.270701	0.355665	0.722963	
0.808893	4.33044	5	0	0.0409392	0.223845	0.0546985	0.409247	0.020119	0.586448	0.250029	0.575697	0.402781	0.910733	0.615812	1.42503	0.177727	0.515383	0.891314	1.50996	0.00451	0.22005	0.926937	1.6134	0.0668255	-0.237795	0.416102	0.491264	0.13392	0.432518	0.466477	0.923202	-0.023846	0.288898	0.357429	0.717978	
0.808986	4.33044	5	0	0.0480895	0.225182	0.051283	0.4189	0.015577	0.599284	0.253449	0.584834	0.405216	0.91752	0.613655	1.43112	0.175844	0.520704	0.894303	1.51674	0.012739	0.217995	0.924162	1.62124	0.073022	-0.236485	0.413247	0.499331	0.13392	0.432518	0.474994	0.917636	-0.044292	0.307095	0.359193	0.712993	
0.807419	4.33197	5	0	0.0552398	0.22652	0.0478675	0.428553	0.011035	0.612119	0.25687	0.59397	0.407652	0.924306	0.611499	1.43722	0.173961	0.526025	0.897291	1.52351	0.020968	0.21594	0.921388	1.62908	0.0792185	-0.235175	0.410392	0.507399	0.13392	0.432518	0.483512	0.912071	-0.064738	0.325291	0.360957	0.708008	
0.804214	4.33044	5	0	0.06239	0.227857	0.044452	0.438206	0.006493	0.624955	0.260291	0.603107	0.410088	0.931093	0.609343	1.44331	0.172079	0.531345	0.90028	1.53029	0.029197	0.213886	0.918614	1.63692	0.085415	-0.233864	0.407538	0.515466	0.13392	0.432518	0.492029	0.906506	-0.085184	0.343488	0.362721	0.703023	
0.799395	4.33044	5	0	0.065156	0.22004	0.044452	0.438206	0.00876475	0.618535	0.262909	0.595708	0.406689	0.92703	0.601756	1.4389	0.172079	0.531345	0.90028	1.53029	0.017909	0.224586	0.917226	1.64084	0.0829462	-0.226887	0.404681	0.523541	0.138854	0.440868	0.479761	0.922671	-0.085184	0.343488	0.37063	0.705522	
0.793038	4.33044	5	0	0.067922	0.212224	0.044452	0.438206	0.0110365	0.612115	0.265527	0.588309	0.403289	0.922967	0.594169	1.43449	0.172079	0.531345	0.90028	1.53029	0.006621	0.235286	0.915838	1.64477	0.0804775	-0.21991	0.401824	0.531616	0.143788	0.449217	0.467494	0.938837	-0.085184	0.343488	0.378538	0.708021	
0.785702	4.33197	5	0	0.070688	0.204407	0.044452	0.438206	0.0133083	0.605694	0.268145	0.58091	0.39989	0.918903	0.586582	1.43008	0.172079	0.531345	0.90028	1.53029	-0.004667	0.245986	0.914449	1.64869	0.0780088	-0.212933	0.398967	0.53969	0.148721	0.457566	0.455226	0.955002	-0.085184	0.343488	0.386447	0.710521	
0.77818	4.33197	5	0	0.073454	0.19659	0.044452	0.438206	0.01558	0.599274	0.270763	0.573511	0.396491	0.91484	0.578995	1.42568	0.172079	0.531345	0.90028	1.53029	-0.015955	0.256686	0.913061	1.65261	0.07554	-0.205956	0.39611	0.547765	0.153655	0.465916	0.442958	0.971167	-0.085184	0.343488	0.394356	0.71302	
0.77127	4.33044	5	0	0.073454	0.19659	0.0455907	0.434987	0.0233275	0.594212	0.270763	0.573511	0.401819	0.913453	0.590893	1.4179	0.173961	0.526025	0.90028	1.53029	-0.014425	0.252362	0.914449	1.64869	0.0693455	-0.207272	0.397539	0.543727	0.146059	0.46509	0.445459	0.964099	-0.085184	0.343488	0.386447	0.710521	
0.765768	4.33044	5	0	0.073454	0.19659	0.0467295	0.431768	0.031075	0.589149	0.270763	0.573511	0.407146	0.912065	0.602791	1.41013	0.175844	0.520704	0.90028	1.53029	-0.012895	0.248038	0.915838	1.64477	0.063151	-0.208588	0.398968	0.539689	0.138464	0.464264	0.44796	0.957031	-0.085184	0.343488	0.378538	0.708021	
0.762473	4.32739	5	0	0.073454	0.19659	0.0478683	0.42855	0.0388225	0.584087	0.270763	0.573511	0.412474	0.910678	0.614689	1.40235	0.177727	0.515383	0.90028	1.53029	-0.011365	0.243715	0.917226	1.64084	0.0569565	-0.209904	0.400396	0.53565	0.130868	0.463439	0.45046	0.949962	-0.085184	0.343488	0.37063	0.705522	
0.762093	4.32892	5	0	0.073454	0.19659	0.049007	0.425331	0.04657	0.579025	0.270763	0.573511	0.417802	0.909291	0.626587	1.39458	0.179609	0.510063	0.90028	1.53029	-0.009835	0.239391	0.918614	1.63692	0.050762	-0.21122	0.401825	0.531612	0.123272	0.462613	0.452961	0.942894	-0.085184	0.343488	0.362721	0.703023	
0.764313	4.33044	5	0	0.0833815	0.190103	0.0478683	0.42855	0.0520525	0.580379	0.269454	0.57721	0.418309	0.921538	0.620118	1.41286	0.177727	0.515383	0.89894	1.53408	-0.011365	0.243715	0.913989	1.63392	0.0557215	-0.206413	0.400396	0.53565	0.119275	0.473911	0.458977	0.944397	-0.085184	0.343488	0.360957	0.708008	
0.76815	4.33044	5	0	0.093309	0.183616	0.0467295	0.431768	0.057535	0.581732	0.268145	0.580909	0.418816	0.933785	0.613649	1.43114	0.175844	0.520704	0.897599	1.53787	-0.012895	0.248038	0.909363	1.63091	0.060681	-0.201606	0.398968	0.539689	0.115277	0.485208	0.464994	0.9459	-0.085184	0.343488	0.359193	0.712993	
0.772612	4.32892	5	0	0.103237	0.177129	0.0455907	0.434987	0.0630175	0.583086	0.266837	0.584607	0.419323	0.946033	0.607181	1.44942	0.173961	0.526025	0.896259	1.54165	-0.014425	0.252362	0.904738	1.6279	0.0656405	-0.1968	0.397539	0.543727	0.11128	0.496505	0.47101	0.947403	-0.085184	0.343488	0.357429	0.717978	
0.776704	4.32739	5	0	0.113164	0.170642	0.044452	0.438206	0.0685	0.584439	0.265528	0.588306	0.41983	0.95828	0.600712	1.4677	0.172079	0.531345	0.894919	1.54544	-0.015955	0.256686	0.900113	1.6249	0.0706	-0.191993	0.39611	0.547765	0.107282	0.507803	0.477026	0.948906	-0.085184	0.343488	0.355665	0.722963	
0.779433	4.32892	5	0	0.104619	0.173223	0.0478675	0.428553	0.0707718	0.578019	0.268145	0.58091	0.41643	0.95421	0.60287	1.46161	0.173961	0.526025	0.896259	1.54165	-0.012896	0.248041	0.88949	1.62281	0.0681072	-0.203771	0.395549	0.529525	0.108615	0.504035	0.47101	0.947403	-0.085184	0.343488	0.357429	0.717978	
0.779831	4.32739	5	0	0.096073	0.175804	0.051283	0.4189	0.0730435	0.571599	0.270762	0.573514	0.413029	0.95014	0.605028	1.45551	0.175844	0.520704	0.897599	1.53787	-0.009837	0.239395	0.878866	1.62072	0.0656145	-0.21555	0.394988	0.511285	0.109948	0.500268	0.464994	0.9459	-0.085184	0.343488	0.359193	0.712993	
0.777732	4.32739	5	0	0.0875275	0.178386	0.0546985	0.409247	0.0753153	0.565178	0.273379	0.566118	0.409629	0.946069	0.607185	1.44941	0.177727	0.515383	0.89894	1.53408	-0.006778	0.230749	0.868243	1.61863	0.0631218	-0.227328	0.394427	0.493045	0.111281	0.496501	0.458977	0.944397	-0.085184	0.343488	0.360957	0.708008	
0.773957	4.32739	5	0	0.078982	0.180967	0.058114	0.399594	0.077587	0.558758	0.275996	0.558722	0.406229	0.941999	0.609343	1.44331	0.179609	0.510063	0.90028	1.53029	-0.003719	0.222104	0.85762	1.61654	0.060629	-0.239106	0.393866	0.474805	0.112614	0.492733	0.452961	0.942894	-0.085184	0.343488	0.362721	0.703023	
0.769385	4.33044	5	0	0.0803632	0.177063	0.0513617	0.401534	0.077587	0.558758	0.275996	0.558722	0.41349	0.935158	0.607185	1.44941	0.18149	0.504746	0.895953	1.5273	-0.0119375	0.224154	0.864536	1.59699	0.0643255	-0.249553	0.398139	0.462728	0.115279	0.485203	0.454211	0.939362	-0.0807332	0.33091	0.353062	0.705504	
0.764896	4.32739	5	0	0.0817445	0.173158	0.0446095	0.403475	0.077587	0.558758	0.275996	0.558722	0.420751	0.928318	0.605028	1.45551	0.183372	0.499428	0.891625	1.5243	-0.020156	0.226203	0.871452	1.57744	0.068022	-0.260001	0.402413	0.450652	0.117943	0.477673	0.45546	0.935831	-0.0762825	0.318331	0.343402	0.707985	
0.761369	4.32739	5	0	0.0831257	0.169254	0.0378573	0.405415	0.077587	0.558758	0.275996	0.558722	0.428012	0.921477	0.60287	1.46161	0.185253	0.494111	0.887298	1.52131	-0.0283745	0.228252	0.878369	1.5579	0.0717185	-0.270448	0.406686	0.438576	0.120608	0.470143	0.45671	0.932299	-0.0718317	0.305752	0.333742	0.710467	
0.759673	4.32892	5	0	0.084507	0.16535	0.031105	0.407355	0.077587	0.558758	0.275996	0.558722	0.435273	0.914636	0.600712	1.4677	0.187135	0.488793	0.882971	1.51832	-0.036593	0.230302	0.885285	1.53835	0.075415	-0.280895	0.410959	0.426499	0.123272	0.462613	0.45796	0.928767	-0.067381	0.293174	0.324083	0.712948	
0.760156	4.32739	5	0	0.077352	0.164026	0.026633	0.402867	0.0721028	0.557409	0.269956	0.556987	0.433343	0.92009	0.598553	1.47381	0.176123	0.495988	0.879984	1.51155	-0.0283745	0.228252	0.880667	1.53537	0.0741832	-0.277414	0.409535	0.430523	0.12194	0.466377	0.465228	0.926733	-0.067381	0.293174	0.335505	0.705485	
0.762374	4.32587	5	0	0.070197	0.162703	0.022161	0.398379	0.0666185	0.556061	0.263916	0.555253	0.431414	0.925544	0.596394	1.47991	0.165112	0.503184	0.876998	1.50477	-0.020156	0.226203	0.876048	1.53238	0.0729515	-0.273933	0.408112	0.434547	0.120608	0.470141	0.472495	0.9247	-0.067381	0.293174	0.346927	0.698021	
0.765821	4.33044	5	0	0.063042	0.16138	0.017689	0.39389	0.0611343	0.554712	0.257876	0.553518	0.429484	0.930997	0.594234	1.48601	0.154101	0.510379	0.874012	1.498	-0.0119375	0.224154	0.871429	1.5294	0.0717197	-0.270452	0.406688	0.43857	0.119276	0.473906	0.479762	0.922667	-0.067381	0.293174	0.35835	0.690557	
0.769989	4.32739	5	0	0.055887	0.160056	0.013217	0.389402	0.05565	0.553363	0.251836	0.551783	0.427554	0.936451	0.592075	1.49211	0.143089	0.517574	0.871025	1.49123	-0.003719	0.222104	0.866811	1.52642	0.070488	-0.266971	0.405264	0.442594	0.117944	0.47767	0.48703	0.920633	-0.067381	0.293174	0.369772	0.683094	
0.774371	4.32739	5	0	0.060024	0.148364	0.0087485	0.384919	0.0579185	0.546952	0.247108	0.546359	0.425116	0.929661	0.594234	1.48601	0.146849	0.506949	0.873699	1.48368	-0.0104097	0.219836	0.864954	1.51564	0.076642	-0.284363	0.403261	0.428449	0.121938	0.466382	0.475	0.917639	-0.0811178	0.292493	0.363633	0.675628	
0.778458	4.32739	5	0	0.064161	0.136673	0.00428	0.380437	0.060187	0.540541	0.24238	0.540936	0.422678	0.922871	0.596394	1.47991	0.150608	0.496323	0.876372	1.47612	-0.0171005	0.217568	0.863098	1.50487	0.082796	-0.301754	0.401259	0.414304	0.125932	0.455094	0.462971	0.914644	-0.0948545	0.291813	0.357493	0.668161	
0.781898	4.32587	5	0	0.068298	0.124981	-0.0001885	0.375954	0.0624555	0.534129	0.237653	0.535512	0.42024	0.916081	0.598553	1.47381	0.154368	0.485698	0.879046	1.46857	-0.0237912	0.2153	0.861241	1.49409	0.08895	-0.319145	0.399257	0.40016	0.129926	0.443806	0.450941	0.91165	-0.108591	0.291133	0.351353	0.660695	
0.784765	4.32434	5	0	0.072435	0.113289	-0.004657	0.371471	0.064724	0.527718	0.232925	0.530088	0.417802	0.909291	0.600712	1.4677	0.158128	0.475072	0.881719	1.46101	-0.030482	0.213032	0.859384	1.48332	0.095104	-0.336537	0.397254	0.386015	0.13392	0.432518	0.438911	0.908655	-0.122328	0.290452	0.345214	0.653229	
0.787209	4.32587	5	0	0.0738127	0.109395	-0.00012025	0.358649	0.0713442	0.525856	0.238959	0.531819	0.423134	0.907902	0.620238	1.46433	0.156249	0.480383	0.879046	1.46857	-0.0192082	0.202348	0.870002	1.48537	0.0889075	-0.337829	0.398674	0.382	0.137909	0.421245	0.441406	0.901604	-0.101927	0.272298	0.340837	0.640815	
0.789379	4.32739	5	0	0.0751905	0.105501	0.0044165	0.345827	0.0779645	0.523995	0.244994	0.533551	0.428466	0.906513	0.639763	1.46096	0.154369	0.485695	0.876372	1.47612	-0.0079345	0.191663	0.880619	1.48742	0.082711	-0.339121	0.400095	0.377986	0.141899	0.409971	0.443901	0.894552	-0.081526	0.254144	0.33646	0.6284	
0.791426	4.32587	5	0	0.0765683	0.101607	0.00895325	0.333005	0.0845848	0.522133	0.251028	0.535282	0.433799	0.905123	0.659289	1.45759	0.15249	0.491006	0.873699	1.48368	0.00333925	0.180979	0.891236	1.48947	0.0765145	-0.340413	0.401516	0.373972	0.145888	0.398697	0.446396	0.887501	-0.061125	0.235991	0.332083	0.615986	
0.793499	4.32739	5	0	0.077946	0.097713	0.01349	0.320183	0.091205	0.520271	0.257063	0.537013	0.439131	0.903734	0.678815	1.45421	0.150611	0.496317	0.871025	1.49123	0.014613	0.170295	0.901854	1.49152	0.070318	-0.341705	0.402936	0.369957	0.149877	0.387424	0.448891	0.88045	-0.040724	0.217837	0.327706	0.603572	
0.795716	4.33044	5	0	0.0807	0.0899305	0.00229125	0.317657	0.0934727	0.513862	0.259674	0.529632	0.442538	0.907796	0.672324	1.47256	0.150611	0.496317	0.881018	1.49343	0.00333925	0.180979	0.909727	1.50139	0.0752845	-0.336938	0.404942	0.384093	0.148548	0.39118	0.447644	0.883975	-0.056687	0.223448	0.331215	0.593655	
0.797926	4.32739	5	0	0.083454	0.082148	-0.0089075	0.315131	0.0957405	0.507454	0.262286	0.522251	0.445944	0.911859	0.665833	1.4909	0.150611	0.496317	0.891011	1.49562	-0.0079345	0.191663	0.9176	1.51125	0.080251	-0.33217	0.406948	0.398228	0.147219	0.394937	0.446396	0.8875	-0.07265	0.229058	0.334724	0.583738	
0.799851	4.32892	5	0	0.086208	0.0743655	-0.0201062	0.312605	0.0980083	0.501045	0.264898	0.514871	0.449351	0.915921	0.659342	1.50925	0.150611	0.496317	0.901004	1.49781	-0.0192082	0.202348	0.925473	1.52111	0.0852175	-0.327402	0.408953	0.412363	0.145889	0.398693	0.445149	0.891025	-0.088613	0.234669	0.338233	0.57382	
0.801209	4.32892	5	0	0.088962	0.066583	-0.031305	0.310079	0.100276	0.494636	0.267509	0.50749	0.452758	0.919983	0.652851	1.52759	0.150611	0.496317	0.910997	1.5	-0.030482	0.213032	0.933346	1.53097	0.090184	-0.322635	0.410959	0.426499	0.14456	0.402449	0.443902	0.89455	-0.104576	0.24028	0.341742	0.563903	
0.801719	4.33197	5	0	0.0831835	0.0613935	-0.0200502	0.295352	0.100276	0.494636	0.270118	0.500115	0.459064	0.915863	0.662632	1.52591	0.159742	0.494436	0.921008	1.50219	-0.027429	0.204404	0.942615	1.53695	0.0852175	-0.327402	0.413805	0.418457	0.139625	0.39413	0.448888	0.880458	-0.0979302	0.221498	0.32598	0.558979	
0.8011	4.32892	5	0	0.077405	0.056204	-0.0087955	0.280624	0.100276	0.494636	0.272728	0.492741	0.465369	0.911743	0.672413	1.52422	0.168873	0.492555	0.931018	1.50439	-0.024376	0.195775	0.951885	1.54292	0.080251	-0.33217	0.41665	0.410415	0.13469	0.38581	0.453875	0.866367	-0.0912845	0.202717	0.310218	0.554055	
0.799078	4.33044	5	0	0.0716265	0.0510145	0.00245925	0.265897	0.100276	0.494636	0.275337	0.485366	0.471674	0.907622	0.682194	1.52254	0.178004	0.490674	0.941029	1.50658	-0.021323	0.187146	0.961154	1.54889	0.0752845	-0.336938	0.419496	0.402373	0.129756	0.377491	0.458861	0.852275	-0.0846388	0.183936	0.294455	0.54913	
0.795681	4.33044	5	0	0.065848	0.045825	0.013714	0.25117	0.100276	0.494636	0.277946	0.477992	0.47798	0.903502	0.691975	1.52086	0.187135	0.488793	0.95104	1.50877	-0.01827	0.178518	0.970423	1.55487	0.070318	-0.341705	0.422341	0.394331	0.124821	0.369171	0.463847	0.838183	-0.077993	0.165154	0.278693	0.544206	
0.79136	4.32892	5	0	0.0757525	0.039353	0.00585275	0.256306	0.104635	0.499179	0.290043	0.481431	0.489194	0.912972	0.714888	1.5342	0.183371	0.499431	0.961385	1.52535	-0.01827	0.178518	0.985745	1.55992	0.069089	-0.338232	0.427196	0.400434	0.1288	0.357926	0.459081	0.833183	-0.075781	0.158902	0.270829	0.541745	
0.786603	4.33044	5	0	0.085657	0.032881	-0.0020085	0.261443	0.108994	0.503722	0.302141	0.48487	0.500408	0.922442	0.7378	1.54754	0.179607	0.510069	0.97173	1.54194	-0.01827	0.178518	1.00107	1.56498	0.06786	-0.334759	0.432052	0.406538	0.132779	0.346681	0.454315	0.828183	-0.073569	0.15265	0.262965	0.539285	
0.781893	4.33197	5	0	0.0955615	0.026409	-0.00986975	0.26658	0.113354	0.508266	0.314238	0.48831	0.511621	0.931911	0.760713	1.56088	0.175843	0.520707	0.982074	1.55852	-0.01827	0.178518	1.01639	1.57003	0.066631	-0.331287	0.436907	0.412641	0.136758	0.335435	0.44955	0.823183	-0.071357	0.146399	0.2551	0.536824	
0.777718	4.33502	5	0	0.105466	0.019937	-0.017731	0.271716	0.117713	0.512809	0.326335	0.491749	0.522835	0.941381	0.783625	1.57422	0.172079	0.531345	0.992419	1.57511	-0.01827	0.178518	1.03171	1.57508	0.065402	-0.327814	0.441762	0.418745	0.140737	0.32419	0.444784	0.818183	-0.069145	0.140147	0.247236	0.534364	
0.774561	4.33349	5	0	0.109587	0.008291	-0.0154705	0.265328	0.121115	0.503194	0.330251	0.48068	0.521868	0.944116	0.791284	1.57868	0.172079	0.531345	0.991074	1.57891	-0.01827	0.178518	1.02429	1.57994	0.0728275	-0.329995	0.438912	0.426798	0.139411	0.327937	0.437536	0.820217	-0.0850772	0.145755	0.252475	0.519558	
0.772738	4.33349	5	0	0.113708	-0.003355	-0.01321	0.25894	0.124517	0.493579	0.334168	0.469611	0.5209	0.946851	0.798943	1.58314	0.172079	0.531345	0.989728	1.58271	-0.01827	0.178518	1.01686	1.58479	0.080253	-0.332175	0.436063	0.434851	0.138085	0.331684	0.430288	0.82225	-0.10101	0.151363	0.257714	0.504752	
0.772146	4.33197	5	0	0.117829	-0.015001	-0.0109495	0.252552	0.127919	0.483965	0.338085	0.458543	0.519933	0.949585	0.806602	1.5876	0.172079	0.531345	0.988383	1.58651	-0.01827	0.178518	1.00944	1.58964	0.0876785	-0.334356	0.433214	0.442903	0.136759	0.335431	0.42304	0.824283	-0.116942	0.15697	0.262953	0.489946	
0.772622	4.33502	5	0	0.12195	-0.026647	-0.008689	0.246164	0.131321	0.47435	0.342001	0.447474	0.518965	0.95232	0.814261	1.59206	0.172079	0.531345	0.987037	1.59032	-0.01827	0.178518	1.00201	1.59449	0.095104	-0.336537	0.430364	0.450956	0.135433	0.339178	0.415792	0.826317	-0.132874	0.162578	0.268192	0.47514	
0.774	4.33349	5	0	0.113418	-0.0240537	0.0003015	0.237835	0.13909	0.469274	0.343305	0.443788	0.518965	0.95232	0.824113	1.59036	0.172079	0.531345	0.994078	1.58572	-0.0234318	0.171952	0.991341	1.59242	0.0814897	-0.335651	0.422664	0.452891	0.131821	0.327148	0.414762	0.810797	-0.126251	0.143862	0.263817	0.462851	
0.776119	4.33807	5	0	0.104885	-0.0214605	0.009292	0.229506	0.146858	0.464198	0.34461	0.440101	0.518965	0.95232	0.833964	1.58865	0.172079	0.531345	1.00112	1.58112	-0.0285935	0.165386	0.980673	1.59035	0.0678755	-0.334765	0.414965	0.454826	0.128209	0.315117	0.413731	0.795278	-0.119629	0.125146	0.259443	0.450562	
0.778812	4.33655	5	0	0.0963533	-0.0188673	0.0182825	0.221177	0.154627	0.459122	0.345915	0.436414	0.518965	0.95232	0.843815	1.58695	0.172079	0.531345	1.00816	1.57651	-0.0337553	0.158821	0.970004	1.58827	0.0542612	-0.33388	0.407266	0.456761	0.124596	0.303087	0.4127	0.779759	-0.113007	0.10643	0.255068	0.438272	
0.781916	4.3396	5	0	0.087821	-0.016274	0.027273	0.212848	0.162395	0.454046	0.347219	0.432728	0.518965	0.95232	0.853667	1.58525	0.172079	0.531345	1.0152	1.57191	-0.038917	0.152255	0.959335	1.5862	0.040647	-0.332994	0.399566	0.458696	0.120984	0.291057	0.41167	0.764239	-0.106384	0.087714	0.250693	0.425983	
0.78527	4.33807	5	0	0.0963533	-0.0188673	0.0205412	0.214793	0.158993	0.463661	0.354587	0.430748	0.53117	0.959081	0.85698	1.60207	0.181221	0.529464	1.01686	1.58254	-0.0358713	0.143647	0.971392	1.58435	0.040647	-0.332994	0.40869	0.452734	0.122307	0.287318	0.41539	0.753726	-0.122284	0.093314	0.24458	0.418638	
0.78871	4.33807	5	0	0.104885	-0.0214605	0.0138095	0.216739	0.155591	0.473276	0.361955	0.428768	0.543374	0.965842	0.860294	1.61888	0.190363	0.527583	1.01852	1.59316	-0.0328255	0.13504	0.983449	1.5825	0.040647	-0.332994	0.417815	0.446771	0.12363	0.283579	0.41911	0.743213	-0.138184	0.098914	0.238467	0.411293	
0.792075	4.33349	5	0	0.113418	-0.0240537	0.00707775	0.218685	0.152189	0.48289	0.369322	0.426788	0.555578	0.972603	0.863607	1.6357	0.199505	0.525703	1.02018	1.60378	-0.0297798	0.126432	0.995506	1.58065	0.040647	-0.332994	0.42694	0.440809	0.124953	0.27984	0.422829	0.732701	-0.154084	0.104514	0.232354	0.403949	
0.795203	4.33655	5	0	0.12195	-0.026647	0.000346	0.22063	0.148787	0.492505	0.37669	0.424808	0.567783	0.979364	0.86692	1.65251	0.208647	0.523822	1.02184	1.6144	-0.026734	0.117824	1.00756	1.5788	0.040647	-0.332994	0.436064	0.434847	0.126276	0.276101	0.426549	0.722188	-0.169984	0.110114	0.226241	0.396604	
0.797932	4.33655	5	0	0.116161	-0.031806	-0.00412275	0.216195	0.149921	0.489299	0.373232	0.415738	0.572181	0.980707	0.874609	1.657	0.208647	0.523822	1.03055	1.62044	-0.033416	0.115579	1.01408	1.59266	0.0431025	-0.339933	0.428364	0.436784	0.123629	0.283581	0.418074	0.727726	-0.18805	0.121919	0.229715	0.386785	
0.800106	4.3396	5	0	0.110372	-0.036965	-0.0085915	0.21176	0.151056	0.486093	0.369775	0.406668	0.576578	0.982049	0.882297	1.66148	0.208647	0.523822	1.03926	1.62647	-0.040098	0.113334	1.0206	1.60651	0.045558	-0.346872	0.420664	0.43872	0.120982	0.29106	0.409599	0.733264	-0.206116	0.133723	0.23319	0.376966	
0.801685	4.33655	5	0	0.104582	-0.042124	-0.0130602	0.207325	0.152191	0.482887	0.366317	0.397597	0.580976	0.983391	0.889985	1.66597	0.208647	0.523822	1.04798	1.6325	-0.04678	0.111089	1.02712	1.62037	0.0480135	-0.353811	0.412964	0.440657	0.118336	0.298539	0.401124	0.738801	-0.224183	0.145528	0.236664	0.367146	
0.802732	4.33655	5	0	0.098793	-0.047283	-0.017529	0.20289	0.153325	0.479681	0.362859	0.388527	0.585374	0.984734	0.897674	1.67045	0.208647	0.523822	1.05669	1.63853	-0.053462	0.108844	1.03364	1.63422	0.050469	-0.36075	0.405264	0.442594	0.115689	0.306019	0.392649	0.744339	-0.242249	0.157333	0.240139	0.357327	
0.803314	4.33807	5	0	0.0916405	-0.048564	-0.0130212	0.19015	0.154459	0.476476	0.365463	0.381167	0.583432	0.990221	0.905374	1.67495	0.208647	0.523822	1.06105	1.64155	-0.0570988	0.098017	1.03364	1.63422	0.045511	-0.365505	0.408111	0.434548	0.129894	0.288114	0.390372	0.732378	-0.219779	0.133081	0.234026	0.350013	
0.803498	4.33502	5	0	0.084488	-0.049845	-0.0085135	0.17741	0.155593	0.473271	0.368067	0.373808	0.58149	0.995708	0.913073	1.67944	0.208647	0.523822	1.06542	1.64457	-0.0607355	0.08719	1.03364	1.63422	0.040553	-0.37026	0.410957	0.426503	0.144098	0.270208	0.388096	0.720416	-0.197308	0.10883	0.227914	0.342699	
0.803351	4.33807	5	0	0.0773355	-0.051126	-0.00400575	0.164671	0.156727	0.470066	0.370671	0.366449	0.579549	1.0012	0.920773	1.68393	0.208647	0.523822	1.06978	1.64759	-0.0643723	0.076363	1.03364	1.63422	0.035595	-0.375014	0.413804	0.418457	0.158303	0.252303	0.385819	0.708454	-0.174838	0.0845785	0.221801	0.335385	
0.802939	4.33502	5	0	0.070183	-0.052407	0.000502	0.151931	0.157861	0.466861	0.373275	0.359089	0.577607	1.00668	0.928473	1.68842	0.208647	0.523822	1.07414	1.65061	-0.068009	0.065536	1.03364	1.63422	0.030637	-0.379769	0.416651	0.410411	0.172508	0.234398	0.383542	0.696493	-0.152368	0.060327	0.215689	0.328071	
0.802343	4.33349	5	0	0.0715525	-0.0562773	-0.00284325	0.144337	0.150093	0.471937	0.367214	0.357397	0.581546	1.02313	0.927388	1.71778	0.219687	0.516609	1.07414	1.65061	-0.063459	0.052677	1.03364	1.63422	0.0330875	-0.386695	0.415228	0.414433	0.171186	0.238135	0.383542	0.696493	-0.168235	0.065915	0.207852	0.325663	
0.801679	4.33655	5	0	0.072922	-0.0601475	-0.0061885	0.136742	0.142324	0.477013	0.361152	0.355704	0.585484	1.03957	0.926302	1.74713	0.230727	0.509395	1.07414	1.65061	-0.058909	0.039818	1.03364	1.63422	0.035538	-0.393621	0.413805	0.418455	0.169864	0.241873	0.383542	0.696493	-0.184101	0.071503	0.200016	0.323256	
0.801071	4.33655	5	0	0.0742915	-0.0640177	-0.00953375	0.129147	0.134555	0.482089	0.35509	0.354011	0.589422	1.05601	0.925216	1.77649	0.241766	0.502182	1.07414	1.65061	-0.054359	0.026959	1.03364	1.63422	0.0379885	-0.400546	0.412382	0.422477	0.168541	0.24561	0.383542	0.696493	-0.199967	0.077091	0.192179	0.320848	
0.800642	4.33655	5	0	0.075661	-0.067888	-0.012879	0.121553	0.126787	0.487165	0.349029	0.352319	0.593361	1.07245	0.924131	1.80585	0.252806	0.494968	1.07414	1.65061	-0.049809	0.0141	1.03364	1.63422	0.040439	-0.407472	0.410959	0.426499	0.167219	0.249348	0.383542	0.696493	-0.215834	0.082679	0.184342	0.318441	
0.800517	4.33502	5	0	0.069884	-0.0730318	-0.0151007	0.110799	0.129054	0.480758	0.34687	0.339618	0.595308	1.06695	0.921928	1.81207	0.245532	0.491537	1.07549	1.6468	-0.0534555	0.0033235	1.03316	1.61944	0.0403725	-0.426031	0.408953	0.412363	0.158305	0.252299	0.378792	0.69154	-0.231664	0.0882462	0.189532	0.303773	
0.800817	4.33349	5	0	0.064107	-0.0781755	-0.0173225	0.100044	0.131321	0.474352	0.34471	0.326916	0.597255	1.06145	0.919725	1.8183	0.238259	0.488106	1.07684	1.64298	-0.057102	-0.007453	1.03268	1.60465	0.040306	-0.44459	0.406948	0.398228	0.149392	0.25525	0.374042	0.686587	-0.247494	0.0938135	0.194722	0.289104	
0.801648	4.33502	5	0	0.05833	-0.0833192	-0.0195442	0.0892902	0.133587	0.467946	0.342551	0.314214	0.599202	1.05594	0.917522	1.82452	0.230985	0.484676	1.07819	1.63916	-0.0607485	-0.0182295	1.03219	1.58987	0.0402395	-0.46315	0.404942	0.384093	0.140479	0.2582	0.369292	0.681634	-0.263324	0.0993808	0.199912	0.274436	
0.802922	4.33349	5	0	0.052553	-0.088463	-0.021766	0.078536	0.135854	0.461539	0.340392	0.301513	0.601149	1.05044	0.915319	1.83075	0.223712	0.481245	1.07955	1.63534	-0.064395	-0.029006	1.03171	1.57508	0.040173	-0.481709	0.402936	0.369957	0.131565	0.261151	0.364542	0.676681	-0.279154	0.104948	0.205102	0.259768	
0.804444	4.32892	5	0	0.05392	-0.0923265	-0.0195215	0.0721933	0.135854	0.461539	0.341689	0.297846	0.606528	1.04904	0.927436	1.82283	0.214568	0.483132	1.08225	1.62771	-0.0680417	-0.039757	1.03587	1.56332	0.0352155	-0.486427	0.405775	0.361933	0.135529	0.249948	0.363495	0.66128	-0.258929	0.0869598	0.198997	0.252499	
0.806016	4.33197	5	0	0.055287	-0.09619	-0.017277	0.0658505	0.135854	0.461539	0.342986	0.294179	0.611907	1.04764	0.939553	1.81491	0.205423	0.485019	1.08495	1.62007	-0.0716885	-0.050508	1.04004	1.55156	0.030258	-0.491145	0.408614	0.353909	0.139493	0.238745	0.362449	0.645878	-0.238704	0.0689715	0.192891	0.245229	
0.807443	4.33197	5	0	0.056654	-0.100053	-0.0150325	0.0595077	0.135854	0.461539	0.344284	0.290512	0.617286	1.04624	0.951669	1.807	0.196279	0.486906	1.08765	1.61244	-0.0753352	-0.061259	1.0442	1.53979	0.0253005	-0.495863	0.411454	0.345885	0.143457	0.227543	0.361403	0.630476	-0.218479	0.0509832	0.186786	0.23796	
0.808527	4.33349	5	0	0.058021	-0.103917	-0.012788	0.053165	0.135854	0.461539	0.345581	0.286845	0.622665	1.04484	0.963786	1.79908	0.187135	0.488793	1.09035	1.60481	-0.078982	-0.07201	1.04836	1.52803	0.020343	-0.500581	0.414293	0.337861	0.147421	0.21634	0.360356	0.615075	-0.198254	0.032995	0.180681	0.230691	
0.809071	4.33197	5	0	0.0522483	-0.109048	-0.0239618	0.050724	0.132622	0.453811	0.337365	0.272512	0.616313	1.04899	0.959376	1.81154	0.190895	0.478168	1.08598	1.6018	-0.0774727	-0.076276	1.04975	1.52411	0.020343	-0.500581	0.423408	0.331905	0.150061	0.208879	0.36282	0.608112	-0.196059	0.026791	0.172859	0.228307	
0.808945	4.33197	5	0	0.0464755	-0.114179	-0.0351355	0.048283	0.129389	0.446084	0.329149	0.25818	0.609961	1.05314	0.954965	1.82401	0.194655	0.467542	1.08162	1.59879	-0.0759635	-0.080542	1.05113	1.52019	0.020343	-0.500581	0.432523	0.32595	0.152701	0.201418	0.365283	0.601148	-0.193864	0.020587	0.165037	0.225923	
0.808147	4.33044	5	0	0.0407028	-0.11931	-0.0463093	0.045842	0.126157	0.438356	0.320934	0.243847	0.603608	1.0573	0.950554	1.83647	0.198414	0.456917	1.07725	1.59577	-0.0744542	-0.084808	1.05252	1.51628	0.020343	-0.500581	0.441637	0.319994	0.155341	0.193957	0.367747	0.594185	-0.191668	0.014383	0.157214	0.223539	
0.806692	4.33044	5	0	0.03493	-0.124441	-0.057483	0.043401	0.122924	0.430629	0.312718	0.229515	0.597256	1.06145	0.946144	1.84894	0.202174	0.446292	1.07289	1.59276	-0.072945	-0.089074	1.05391	1.51236	0.020343	-0.500581	0.450752	0.314038	0.157981	0.186496	0.370211	0.587221	-0.189473	0.008179	0.149392	0.221155	
0.804595	4.33044	5	0	0.0403853	-0.139858	-0.0541242	0.0339088	0.126316	0.421042	0.317888	0.214905	0.595772	1.05185	0.950554	1.83647	0.204052	0.440984	1.07289	1.59276	-0.078102	-0.0955335	1.05252	1.51628	0.0202608	-0.519058	0.448724	0.299965	0.15698	0.167112	0.361945	0.573918	-0.185087	-0.004216	0.145023	0.209043	
0.801869	4.32892	5	0	0.0458405	-0.155276	-0.0507655	0.0244165	0.129709	0.411455	0.323057	0.200294	0.594288	1.04225	0.954965	1.82401	0.205931	0.435676	1.07289	1.59276	-0.083259	-0.101993	1.05113	1.52019	0.0201785	-0.537535	0.446696	0.285893	0.155979	0.147729	0.353679	0.560615	-0.180702	-0.016611	0.140654	0.196932	
0.79853	4.33197	5	0	0.0512958	-0.170693	-0.0474067	0.0149243	0.133102	0.401867	0.328227	0.185684	0.592804	1.03265	0.959376	1.81154	0.207809	0.430368	1.07289	1.59276	-0.088416	-0.108453	1.04975	1.52411	0.0200962	-0.556013	0.444668	0.27182	0.154977	0.128346	0.345412	0.547312	-0.176316	-0.029006	0.136285	0.18482	
0.79464	4.33044	5	0	0.056751	-0.186111	-0.044048	0.005432	0.136494	0.39228	0.333397	0.171074	0.59132	1.02305	0.963786	1.79908	0.209687	0.42506	1.07289	1.59276	-0.093573	-0.114912	1.04836	1.52803	0.020014	-0.57449	0.44264	0.257748	0.153976	0.108962	0.337146	0.534009	-0.17193	-0.041401	0.131916	0.172709	
0.790551	4.33349	5	0	0.0509773	-0.191215	-0.0473932	-0.0021	0.129869	0.394153	0.32864	0.16577	0.594235	1.01482	0.97039	1.78042	0.211564	0.419755	1.0786	1.59196	-0.087551	-0.131931	1.04975	1.52411	0.02852	-0.598529	0.439193	0.247707	0.16186	0.086682	0.337306	0.515251	-0.16755	-0.0537788	0.138789	0.153284	
0.786729	4.33044	5	0	0.0452035	-0.196319	-0.0507385	-0.009632	0.123245	0.396027	0.323883	0.160465	0.597149	1.00658	0.976994	1.76175	0.213441	0.41445	1.08432	1.59116	-0.081529	-0.14895	1.05113	1.52019	0.037026	-0.622568	0.435746	0.237667	0.169743	0.064402	0.337467	0.496493	-0.16317	-0.0661565	0.145663	0.133859	
0.78364	4.32892	5	0	0.0394297	-0.201422	-0.0540837	-0.017164	0.116621	0.3979	0.319127	0.155161	0.600064	0.998341	0.983597	1.74309	0.215318	0.409146	1.09003	1.59035	-0.075507	-0.165968	1.05252	1.51628	0.045532	-0.646608	0.432298	0.227626	0.177627	0.042122	0.337627	0.477735	-0.158791	-0.0785342	0.152536	0.114435	
0.781748	4.32739	5	0	0.033656	-0.206526	-0.057429	-0.024696	0.109996	0.399773	0.31437	0.149857	0.602979	0.990104	0.990201	1.72443	0.217195	0.403841	1.09575	1.58955	-0.069485	-0.182987	1.05391	1.51236	0.054038	-0.670647	0.428851	0.217585	0.185511	0.019842	0.337787	0.458977	-0.154411	-0.090912	0.159409	0.09501	
0.781521	4.32892	5	0	0.0306055	-0.219301	-0.0674618	-0.0302688	0.111274	0.379329	0.304868	0.139272	0.595596	0.969656	0.976961	1.70923	0.21368	0.389848	1.09273	1.58273	-0.0716438	-0.197897	1.05479	1.49374	0.0429033	-0.676542	0.425403	0.207566	0.170345	0.0183562	0.325857	0.456136	-0.183871	-0.085911	0.155025	0.0829732	
0.783366	4.32892	5	0	0.027555	-0.232075	-0.0774945	-0.0358415	0.112552	0.358884	0.295366	0.128688	0.588213	0.949207	0.963721	1.69403	0.210166	0.375856	1.08971	1.57592	-0.0738025	-0.212806	1.05566	1.47512	0.0317685	-0.682437	0.421956	0.197548	0.155179	0.0168705	0.313928	0.453295	-0.213332	-0.08091	0.150641	0.0709365	
0.786846	4.32892	5	0	0.0245045	-0.24485	-0.0875273	-0.0414142	0.11383	0.33844	0.285865	0.118103	0.580831	0.928758	0.950481	1.67884	0.206652	0.361864	1.08669	1.5691	-0.0759612	-0.227716	1.05654	1.4565	0.0206337	-0.688332	0.418509	0.18753	0.140013	0.0153847	0.301998	0.450453	-0.242793	-0.075909	0.146256	0.0588998	
0.79087	4.32892	5	0	0.021454	-0.257625	-0.09756	-0.046987	0.115108	0.317995	0.276363	0.107518	0.573448	0.90831	0.937241	1.66364	0.203137	0.347871	1.08367	1.56228	-0.07812	-0.242625	1.05742	1.43788	0.009499	-0.694227	0.415061	0.177511	0.124847	0.013899	0.290068	0.447612	-0.272253	-0.070908	0.141872	0.046863	
0.794331	4.33044	5	0	0.00857475	-0.263946	-0.09533	-0.0532895	0.103012	0.318559	0.281505	0.0929848	0.568526	0.894729	0.943809	1.64508	0.195882	0.344482	1.07931	1.55928	-0.081783	-0.25326	1.05415	1.43102	0.0081725	-0.709132	0.41929	0.165558	0.121204	0.00206175	0.290216	0.428941	-0.249898	-0.0949985	0.115076	0.049503	
0.796124	4.33044	5	0	-0.0043045	-0.270267	-0.0931	-0.059592	0.090916	0.319124	0.286647	0.0784515	0.563603	0.881149	0.950376	1.62652	0.188626	0.341093	1.07494	1.55628	-0.085446	-0.263894	1.05088	1.42415	0.006846	-0.724036	0.423519	0.153606	0.11756	-0.0097755	0.290365	0.41027	-0.227543	-0.119089	0.08828	0.052143	
0.795141	4.32739	5	0	-0.0171837	-0.276589	-0.09087	-0.0658945	0.07882	0.319689	0.29179	0.0639182	0.558681	0.867568	0.956943	1.60796	0.18137	0.337704	1.07058	1.55328	-0.089109	-0.274529	1.0476	1.41729	0.0055195	-0.738941	0.427749	0.141653	0.113917	-0.0216128	0.290513	0.391599	-0.205188	-0.14318	0.061484	0.054783	
0.790284	4.32892	5	0	-0.030063	-0.28291	-0.08864	-0.072197	0.066724	0.320253	0.296932	0.049385	0.553759	0.853987	0.963511	1.5894	0.174115	0.334315	1.06621	1.55028	-0.092772	-0.285163	1.04433	1.41043	0.004193	-0.753845	0.431978	0.1297	0.110274	-0.03345	0.290662	0.372928	-0.182833	-0.16727	0.034688	0.057423	
0.781337	4.32892	5	0	-0.027354	-0.290566	-0.0953222	-0.070252	0.0700983	0.310717	0.283587	0.0497372	0.560083	0.849855	0.965697	1.58322	0.175984	0.329032	1.06621	1.55028	-0.0897782	-0.293624	1.04243	1.39968	0.005401	-0.757259	0.430569	0.133683	0.114194	-0.0445277	0.295536	0.359151	-0.178474	-0.179588	0.0398108	0.042945	
0.769733	4.32587	5	0	-0.024645	-0.298222	-0.102004	-0.068307	0.0734725	0.301181	0.270241	0.0500895	0.566407	0.845722	0.967883	1.57704	0.177853	0.32375	1.06621	1.55028	-0.0867845	-0.302085	1.04054	1.38893	0.006609	-0.760674	0.42916	0.137665	0.118114	-0.0556055	0.300411	0.345375	-0.174115	-0.191906	0.0449335	0.028467	
0.757087	4.32892	5	0	-0.021936	-0.305878	-0.108687	-0.066362	0.0768468	0.291644	0.256896	0.0504418	0.572732	0.841589	0.970069	1.57086	0.179723	0.318467	1.06621	1.55028	-0.0837907	-0.310546	1.03864	1.37818	0.007817	-0.764089	0.42775	0.141648	0.122033	-0.0666832	0.305285	0.331599	-0.169757	-0.204224	0.0500562	0.013989	
0.745012	4.32587	5	0	-0.019227	-0.313534	-0.115369	-0.064417	0.080221	0.282108	0.243551	0.050794	0.579056	0.837457	0.972255	1.56469	0.181592	0.313184	1.06621	1.55028	-0.080797	-0.319007	1.03675	1.36743	0.009025	-0.767503	0.426341	0.14563	0.125953	-0.077761	0.31016	0.317822	-0.165398	-0.216542	0.055179	-0.000489	
0.735122	4.32739	5	0	-0.02363	-0.322413	-0.114255	-0.0675655	0.076988	0.274458	0.238812	0.0455327	0.575087	0.821203	0.966722	1.55407	0.17621	0.304531	1.06589	1.53588	-0.084466	-0.329601	1.03157	1.34988	0.00768775	-0.782358	0.431974	0.129711	0.129868	-0.0888252	0.299467	0.311593	-0.196989	-0.205357	0.0585897	-0.010128	
0.728999	4.32434	5	0	-0.028033	-0.331293	-0.113141	-0.070714	0.073755	0.266807	0.234073	0.0402715	0.571117	0.804949	0.961189	1.54346	0.170828	0.295878	1.06556	1.52148	-0.088135	-0.340194	1.0264	1.33233	0.0063505	-0.797214	0.437607	0.113792	0.133783	-0.0998895	0.288774	0.305364	-0.228579	-0.194172	0.0620005	-0.019767	
0.727097	4.32587	5	0	-0.032436	-0.340172	-0.112026	-0.0738625	0.070522	0.259157	0.229335	0.0350102	0.567148	0.788694	0.955655	1.53284	0.165445	0.287225	1.06523	1.50709	-0.091804	-0.350788	1.02122	1.31479	0.00501325	-0.812069	0.443239	0.097873	0.137698	-0.110954	0.278081	0.299135	-0.26017	-0.182987	0.0654112	-0.029406	
0.728458	4.32281	5	0	-0.036839	-0.349052	-0.110912	-0.077011	0.067289	0.251507	0.224596	0.029749	0.563179	0.77244	0.950122	1.52223	0.160063	0.278572	1.0649	1.49269	-0.095473	-0.361382	1.01605	1.29724	0.003676	-0.826924	0.448872	0.081954	0.141613	-0.122018	0.267388	0.292906	-0.291761	-0.171802	0.068822	-0.039045	
0.73204	4.32739	5	0	-0.034137	-0.356688	-0.109798	-0.0801583	0.0695333	0.245164	0.225877	0.0261283	0.560712	0.765692	0.944592	1.51164	0.161928	0.273301	1.06323	1.48212	-0.090996	-0.374034	1.00349	1.28458	-7.525E-05	-0.834939	0.437737	0.0739625	0.126487	-0.123459	0.266296	0.277794	-0.269462	-0.195817	0.051578	-0.038878	
0.736798	4.32434	5	0	-0.031435	-0.364324	-0.108685	-0.0833055	0.0717775	0.238821	0.227158	0.0225075	0.558245	0.758944	0.939063	1.50105	0.163793	0.268031	1.06155	1.47155	-0.086519	-0.386687	0.990935	1.27192	-0.0038265	-0.842954	0.426602	0.065971	0.111362	-0.124901	0.265205	0.262681	-0.247162	-0.219832	0.034334	-0.038711	
0.741688	4.32129	5	0	-0.028733	-0.37196	-0.107572	-0.0864527	0.0740217	0.232479	0.22844	0.0188868	0.555778	0.752196	0.933533	1.49047	0.165657	0.262761	1.05987	1.46098	-0.082042	-0.39934	0.978377	1.25926	-0.00757775	-0.850969	0.415467	0.0579795	0.0962357	-0.126342	0.264113	0.247568	-0.224862	-0.243847	0.01709	-0.038544	
0.745688	4.32434	5	0	-0.026031	-0.379596	-0.106458	-0.0896	0.076266	0.226136	0.229721	0.015266	0.553311	0.745448	0.928003	1.47988	0.167522	0.25749	1.05819	1.45041	-0.077565	-0.411992	0.965819	1.24661	-0.011329	-0.858984	0.404332	0.049988	0.08111	-0.127784	0.263021	0.232456	-0.202563	-0.267862	-0.000154	-0.038377	
0.748376	4.32434	5	0	-0.031785	-0.384633	-0.109797	-0.0970885	0.0730305	0.218508	0.226264	0.006402	0.549883	0.741424	0.940068	1.472	0.169386	0.252223	1.05249	1.45122	-0.081243	-0.422537	0.965286	1.23209	-0.0101258	-0.862384	0.408541	0.0380937	0.093876	-0.141781	0.258289	0.227649	-0.220516	-0.256131	0.0144168	-0.0552885	
0.749985	4.32434	5	0	-0.037539	-0.38967	-0.113136	-0.104577	0.069795	0.21088	0.222807	-0.002462	0.546456	0.7374	0.952134	1.46411	0.171249	0.246955	1.04679	1.45203	-0.084921	-0.433082	0.964754	1.21757	-0.0089225	-0.865784	0.412749	0.0261995	0.106642	-0.155778	0.253557	0.222841	-0.238468	-0.2444	0.0289875	-0.0722	
0.750785	4.32281	5	0	-0.043293	-0.394707	-0.116475	-0.112065	0.0665595	0.203252	0.219349	-0.011326	0.543029	0.733376	0.9642	1.45623	0.173113	0.241688	1.04109	1.45284	-0.088599	-0.443627	0.964221	1.20306	-0.00771925	-0.869185	0.416958	0.0143052	0.119408	-0.169775	0.248826	0.218033	-0.256421	-0.23267	0.0435582	-0.0891115	
0.751043	4.32281	5	0	-0.049047	-0.399744	-0.119814	-0.119554	0.063324	0.195624	0.215892	-0.02019	0.539601	0.729352	0.976265	1.44835	0.174977	0.236421	1.03539	1.45365	-0.092277	-0.454172	0.963688	1.18854	-0.006516	-0.872585	0.421167	0.002411	0.132174	-0.183772	0.244094	0.213226	-0.274374	-0.220939	0.058129	-0.106023	
0.751027	4.32129	5	0	-0.0450035	-0.411172	-0.123152	-0.127029	0.0666827	0.186132	0.221003	-0.034635	0.538094	0.71991	0.970722	1.4378	0.178701	0.225896	1.04511	1.44148	-0.0848435	-0.47518	0.963147	1.17406	-0.00666675	-0.890757	0.421899	-0.0193565	0.115761	-0.181522	0.241785	0.20159	-0.252081	-0.244937	0.0409002	-0.105836	
0.751004	4.32434	5	0	-0.04096	-0.422599	-0.12649	-0.134504	0.0700415	0.17664	0.226114	-0.04908	0.536587	0.710468	0.965179	1.42725	0.182425	0.215371	1.05484	1.4293	-0.07741	-0.496188	0.962605	1.15958	-0.0068175	-0.908929	0.422631	-0.041124	0.099347	-0.179272	0.239476	0.189953	-0.229788	-0.268935	0.0236715	-0.10565	
0.751149	4.32129	5	0	-0.0369165	-0.434026	-0.129828	-0.14198	0.0734003	0.167147	0.231226	-0.063525	0.535081	0.701027	0.959635	1.4167	0.18615	0.204846	1.06456	1.41713	-0.0699765	-0.517196	0.962063	1.14511	-0.00696825	-0.927101	0.423362	-0.0628915	0.0829335	-0.177021	0.237166	0.178316	-0.207494	-0.292933	0.00644275	-0.105463	
0.751536	4.32281	5	0	-0.032873	-0.445454	-0.133166	-0.149455	0.076759	0.157655	0.236337	-0.07797	0.533574	0.691585	0.954092	1.40615	0.189874	0.194321	1.07428	1.40495	-0.062543	-0.538204	0.961522	1.13063	-0.007119	-0.945273	0.424094	-0.084659	0.06652	-0.174771	0.234857	0.16668	-0.185201	-0.316931	-0.010786	-0.105276	
0.752236	4.32129	5	0	-0.0315262	-0.44926	-0.129837	-0.158864	0.078996	0.151332	0.237613	-0.0815775	0.538366	0.678044	0.954092	1.40615	0.184483	0.185724	1.06556	1.39902	-0.0743692	-0.54659	0.960414	1.10178	-0.00848	-0.960006	0.422017	-0.0984685	0.071713	-0.189447	0.233751	0.151662	-0.19449	-0.329685	-0.00569875	-0.119653	
0.753317	4.31976	5	0	-0.0301795	-0.453066	-0.126507	-0.168273	0.081233	0.14501	0.23889	-0.085185	0.543157	0.664502	0.954092	1.40615	0.179092	0.177127	1.05683	1.39309	-0.0861955	-0.554976	0.959307	1.07294	-0.009841	-0.974738	0.419941	-0.112278	0.076906	-0.204124	0.232645	0.136644	-0.20378	-0.342438	-0.0006115	-0.13403	
0.754851	4.31976	5	0	-0.0288328	-0.456871	-0.123178	-0.177682	0.08347	0.138688	0.240167	-0.0887925	0.547948	0.65096	0.954092	1.40615	0.173701	0.16853	1.04811	1.38715	-0.0980218	-0.563361	0.958199	1.04409	-0.011202	-0.98947	0.417864	-0.126087	0.082099	-0.2188	0.231538	0.121625	-0.213069	-0.355191	0.00447575	-0.148407	
0.756899	4.32434	5	0	-0.027486	-0.460677	-0.119849	-0.187091	0.085707	0.132365	0.241443	-0.0924	0.55274	0.637419	0.954092	1.40615	0.16831	0.159933	1.03939	1.38122	-0.109848	-0.571747	0.957091	1.01525	-0.012563	-1.0042	0.415787	-0.139897	0.087292	-0.233476	0.230432	0.106607	-0.222358	-0.367945	0.009563	-0.162784	
0.759281	4.32281	5	0	-0.0247945	-0.468284	-0.116523	-0.19649	0.0791125	0.134245	0.235426	-0.0940122	0.544523	0.64695	0.942044	1.41402	0.170167	0.154684	1.0377	1.37071	-0.106886	-0.580117	0.95517	1.00471	-0.012563	-1.0042	0.408134	-0.137925	0.087292	-0.233476	0.231638	0.103199	-0.206569	-0.373561	0.0018095	-0.165077	
0.761505	4.31824	5	0	-0.022103	-0.475891	-0.113198	-0.205889	0.072518	0.136125	0.229409	-0.0956245	0.536307	0.656482	0.929995	1.4219	0.172024	0.149435	1.03602	1.3602	-0.103925	-0.588487	0.953248	0.994177	-0.012563	-1.0042	0.400481	-0.135954	0.087292	-0.233476	0.232843	0.099791	-0.19078	-0.379177	-0.005944	-0.16737	
0.763057	4.32281	5	0	-0.0194115	-0.483498	-0.109872	-0.215287	0.0659235	0.138005	0.223393	-0.0972368	0.52809	0.666013	0.917946	1.42977	0.173881	0.144187	1.03433	1.34969	-0.100964	-0.596856	0.951327	0.983641	-0.012563	-1.0042	0.392827	-0.133982	0.087292	-0.233476	0.234049	0.096383	-0.174991	-0.384793	-0.0136975	-0.169662	
0.763427	4.31976	5	0	-0.01672	-0.491105	-0.106546	-0.224686	0.059329	0.139885	0.217376	-0.098849	0.519873	0.675545	0.905898	1.43764	0.175738	0.138938	1.03265	1.33918	-0.098002	-0.605226	0.949405	0.973105	-0.012563	-1.0042	0.385174	-0.13201	0.087292	-0.233476	0.235255	0.092975	-0.159202	-0.390409	-0.021451	-0.171955	
0.7621	4.31671	5	0	-0.0251665	-0.488508	-0.105438	-0.227817	0.059329	0.139885	0.218651	-0.102452	0.52466	0.662016	0.912407	1.41925	0.179449	0.12845	1.03096	1.32869	-0.10317	-0.61149	0.94285	0.959739	-0.0151265	-1.01552	0.390745	-0.147754	0.088589	-0.237142	0.237666	0.086163	-0.190744	-0.379197	-0.0197588	-0.176737	
0.758574	4.31976	5	0	-0.033613	-0.485911	-0.10433	-0.230948	0.059329	0.139885	0.219926	-0.106055	0.529447	0.648486	0.918915	1.40085	0.183161	0.117962	1.02927	1.3182	-0.108338	-0.617754	0.936294	0.946373	-0.01769	-1.02683	0.396316	-0.163497	0.089886	-0.240807	0.240076	0.079351	-0.222286	-0.367985	-0.0180665	-0.181519	
0.752856	4.31824	5	0	-0.0420595	-0.483315	-0.103223	-0.234079	0.059329	0.139885	0.221201	-0.109659	0.534234	0.634957	0.925424	1.38246	0.186872	0.107474	1.02758	1.30771	-0.113505	-0.624018	0.929739	0.933006	-0.0202535	-1.03815	0.401886	-0.179241	0.091183	-0.244472	0.242486	0.072539	-0.253829	-0.356774	-0.0163742	-0.186301	
0.74576	4.31824	5	0	-0.050506	-0.480718	-0.102115	-0.23721	0.059329	0.139885	0.222476	-0.113262	0.539021	0.621428	0.931933	1.36406	0.190583	0.096986	1.0259	1.29722	-0.118673	-0.630282	0.923183	0.91964	-0.022817	-1.04947	0.407457	-0.194985	0.09248	-0.248138	0.244897	0.065727	-0.285371	-0.345562	-0.014682	-0.191083	
0.738169	4.31976	5	0	-0.0420595	-0.483315	-0.117659	-0.227053	0.0648052	0.141166	0.219925	-0.106054	0.539978	0.618725	0.934099	1.35794	0.190583	0.096986	1.02021	1.29804	-0.109068	-0.636558	0.924535	0.915819	-0.0142743	-1.05505	0.401201	-0.196941	0.0849333	-0.248839	0.238962	0.0643717	-0.265295	-0.363374	-0.0224265	-0.19337	
0.730968	4.31824	5	0	-0.033613	-0.485911	-0.133203	-0.216896	0.0702815	0.142447	0.217375	-0.098846	0.540934	0.616021	0.936266	1.35182	0.190583	0.096986	1.01452	1.29886	-0.099463	-0.642834	0.925887	0.911998	-0.0057315	-1.06063	0.394945	-0.198896	0.0773865	-0.24954	0.233028	0.0630165	-0.245219	-0.381187	-0.030171	-0.195657	
0.72504	4.31824	5	0	-0.0251665	-0.488508	-0.148747	-0.20674	0.0757577	0.143727	0.214825	-0.091638	0.541891	0.613318	0.938433	1.34569	0.190583	0.096986	1.00884	1.29968	-0.089858	-0.64911	0.927238	0.908178	0.00281125	-1.06621	0.388688	-0.200852	0.0698398	-0.250241	0.227094	0.0616613	-0.225143	-0.399	-0.0379155	-0.197943	
0.721231	4.31976	5	0	-0.01672	-0.491105	-0.164291	-0.196583	0.081234	0.145008	0.212274	-0.08443	0.542848	0.610615	0.940599	1.33957	0.190583	0.096986	1.00315	1.3005	-0.080253	-0.655386	0.92859	0.904357	0.011354	-1.0718	0.382432	-0.202808	0.062293	-0.250942	0.221159	0.060306	-0.205067	-0.416812	-0.04566	-0.20023	
0.719653	4.31824	5	0	-0.0265115	-0.484707	-0.15763	-0.198528	0.0801152	0.14817	0.210998	-0.080824	0.539977	0.618727	0.924233	1.35968	0.188728	0.102228	1.00315	1.3005	-0.0750745	-0.649129	0.924533	0.915824	0.0151225	-1.06387	0.392165	-0.19102	0.072432	-0.257567	0.221159	0.060306	-0.225143	-0.399	-0.0311562	-0.217046	
0.719765	4.31518	5	0	-0.036303	-0.478309	-0.150969	-0.200473	0.0789965	0.151332	0.209722	-0.077218	0.537106	0.62684	0.907867	1.37979	0.186873	0.107471	1.00315	1.3005	-0.069896	-0.642872	0.920476	0.927291	0.018891	-1.05594	0.401898	-0.179233	0.082571	-0.264192	0.221159	0.060306	-0.245219	-0.381187	-0.0166525	-0.233862	
0.721004	4.31518	5	0	-0.0460945	-0.471911	-0.144309	-0.202419	0.0778777	0.154493	0.208446	-0.073612	0.534236	0.634953	0.891501	1.39991	0.185018	0.112714	1.00315	1.3005	-0.0647175	-0.636615	0.916418	0.938757	0.0226595	-1.04801	0.411631	-0.167445	0.09271	-0.270817	0.221159	0.060306	-0.265295	-0.363374	-0.00214875	-0.250679	
0.722806	4.31671	5	0	-0.055886	-0.465513	-0.137648	-0.204364	0.076759	0.157655	0.20717	-0.070006	0.531365	0.643065	0.875135	1.42002	0.183163	0.117956	1.00315	1.3005	-0.059539	-0.630358	0.912361	0.950224	0.026428	-1.04008	0.421364	-0.155658	0.102849	-0.277442	0.221159	0.060306	-0.285371	-0.345562	0.012355	-0.267495	
0.724607	4.31366	5	0	-0.0531965	-0.473114	-0.137648	-0.204364	0.0712835	0.156372	0.208446	-0.073612	0.533279	0.637656	0.87947	1.40777	0.192276	0.116034	1.01017	1.29591	-0.0625005	-0.621988	0.921622	0.955944	0.0252313	-1.0367	0.422758	-0.159597	0.0965945	-0.281795	0.216434	0.0555515	-0.28321	-0.351668	0.00460325	-0.269761	
0.725909	4.31671	5	0	-0.050507	-0.480714	-0.137648	-0.204364	0.065808	0.155089	0.209722	-0.077218	0.535193	0.632246	0.883804	1.39552	0.201389	0.114112	1.01719	1.29133	-0.065462	-0.613619	0.930883	0.961664	0.0240345	-1.03332	0.424151	-0.163535	0.09034	-0.286148	0.211708	0.050797	-0.281049	-0.357774	-0.0031485	-0.272027	
0.726785	4.31671	5	0	-0.0478175	-0.488314	-0.137648	-0.204364	0.0603325	0.153806	0.210998	-0.080824	0.537107	0.626837	0.888138	1.38327	0.210502	0.11219	1.02421	1.28674	-0.0684235	-0.605249	0.940144	0.967385	0.0228378	-1.02994	0.425544	-0.167473	0.0840855	-0.290501	0.206982	0.0460425	-0.278889	-0.363881	-0.0109002	-0.274294	
0.727609	4.31824	5	0	-0.045128	-0.495915	-0.137648	-0.204364	0.054857	0.152523	0.212274	-0.08443	0.539021	0.621428	0.892473	1.37102	0.219615	0.110268	1.03123	1.28215	-0.071385	-0.596879	0.949405	0.973105	0.021641	-1.02655	0.426938	-0.171412	0.077831	-0.294854	0.202257	0.041288	-0.276728	-0.369987	-0.018652	-0.27656	
0.728757	4.31976	5	0	-0.0339928	-0.506111	-0.13654	-0.207495	0.0625695	0.147483	0.21355	-0.0880348	0.539978	0.618725	0.892473	1.37102	0.217758	0.115517	1.03425	1.28887	-0.066206	-0.5906	0.954605	0.990356	0.020444	-1.02317	0.42415	-0.163533	0.080418	-0.302165	0.207063	0.0277055	-0.256653	-0.387796	-0.0358057	-0.276334	
0.730605	4.32129	5	0	-0.0228575	-0.516307	-0.135433	-0.210625	0.070282	0.142444	0.214825	-0.0916395	0.540934	0.616021	0.892473	1.37102	0.215901	0.120765	1.03727	1.29558	-0.061027	-0.584321	0.959806	1.00761	0.019247	-1.01979	0.421362	-0.155655	0.083005	-0.309477	0.211869	0.014123	-0.236579	-0.405604	-0.0529595	-0.276107	
0.733529	4.31824	5	0	-0.0117222	-0.526503	-0.134325	-0.213756	0.0779945	0.137405	0.216101	-0.0952443	0.541891	0.613318	0.892473	1.37102	0.214044	0.126014	1.0403	1.30229	-0.055848	-0.578041	0.965006	1.02486	0.01805	-1.0164	0.418575	-0.147776	0.085592	-0.316788	0.216675	0.0005405	-0.216504	-0.423412	-0.0701133	-0.27588	
0.737779	4.31671	5	0	-0.000587	-0.536699	-0.133217	-0.216887	0.085707	0.132365	0.217376	-0.098849	0.542848	0.610615	0.892473	1.37102	0.212187	0.131263	1.04332	1.309	-0.050669	-0.571762	0.970206	1.04211	0.016853	-1.01302	0.415787	-0.139897	0.088179	-0.324099	0.221481	-0.013042	-0.19643	-0.441221	-0.087267	-0.275654	
0.742861	4.31976	5	0	-0.00769275	-0.537892	-0.124334	-0.225097	0.0802303	0.131086	0.219925	-0.106054	0.540934	0.616023	0.890307	1.37714	0.210329	0.136515	1.03763	1.30983	-0.0454855	-0.565472	0.974847	1.04499	0.0206192	-1.00507	0.419261	-0.130036	0.0894717	-0.327752	0.221481	-0.013042	-0.178477	-0.452952	-0.0839017	-0.285165	
0.748007	4.31671	5	0	-0.0147985	-0.539084	-0.115451	-0.233308	0.0747535	0.129808	0.222475	-0.113259	0.539021	0.62143	0.88814	1.38326	0.208471	0.141766	1.03194	1.31065	-0.040302	-0.559182	0.979488	1.04787	0.0243855	-0.997112	0.422735	-0.120176	0.0907645	-0.331406	0.221481	-0.013042	-0.160524	-0.464682	-0.0805365	-0.294675	
0.752451	4.32129	5	0	-0.0219043	-0.540277	-0.106568	-0.241518	0.0692767	0.12853	0.225024	-0.120464	0.537107	0.626837	0.885973	1.38939	0.206612	0.147018	1.02625	1.31147	-0.0351185	-0.552893	0.984128	1.05075	0.0281518	-0.989158	0.426209	-0.110315	0.0920573	-0.335059	0.221481	-0.013042	-0.142572	-0.476413	-0.0771712	-0.304186	
0.755424	4.31671	5	0	-0.02901	-0.54147	-0.097685	-0.249728	0.0638	0.127251	0.227573	-0.127669	0.535194	0.632245	0.883807	1.39551	0.204754	0.15227	1.02056	1.31229	-0.029935	-0.546603	0.988769	1.05362	0.031918	-0.981205	0.429683	-0.100455	0.09335	-0.338712	0.221481	-0.013042	-0.124619	-0.488144	-0.073806	-0.313697	
0.75616	4.31671	5	0	-0.0263263	-0.549054	-0.103247	-0.250904	0.0616762	0.11651	0.224106	-0.136468	0.527387	0.626957	0.888139	1.38327	0.204754	0.15227	1.01754	1.30558	-0.0329075	-0.538202	0.981407	1.05843	0.0295185	-0.974424	0.428286	-0.096506	0.0920573	-0.335059	0.213154	-0.00760125	-0.158329	-0.470805	-0.0704442	-0.323198	
0.754065	4.31671	5	0	-0.0236425	-0.556639	-0.108809	-0.252079	0.0595525	0.10577	0.220639	-0.145268	0.519581	0.62167	0.89247	1.37102	0.204754	0.15227	1.01452	1.29886	-0.03588	-0.5298	0.974046	1.06324	0.027119	-0.967643	0.426889	-0.092557	0.0907645	-0.331406	0.204827	-0.0021605	-0.19204	-0.453466	-0.0670825	-0.332699	
0.749736	4.31518	5	0	-0.0209587	-0.564223	-0.114371	-0.253254	0.0574288	0.0950287	0.217172	-0.154068	0.511774	0.616383	0.896802	1.35878	0.204754	0.15227	1.0115	1.29215	-0.0388525	-0.521399	0.966685	1.06805	0.0247195	-0.960862	0.425491	-0.088608	0.0894717	-0.327752	0.196501	0.00328025	-0.22575	-0.436128	-0.0637208	-0.342199	
0.74427	4.31518	5	0	-0.018275	-0.571807	-0.119933	-0.25443	0.055305	0.084288	0.213705	-0.162867	0.503967	0.611095	0.901134	1.34654	0.204754	0.15227	1.00848	1.28544	-0.041825	-0.512998	0.959323	1.07286	0.02232	-0.954081	0.424094	-0.084659	0.088179	-0.324099	0.188174	0.008721	-0.25946	-0.418789	-0.060359	-0.3517	
0.738765	4.31671	5	0	-0.018275	-0.571807	-0.118827	-0.257556	0.061895	0.082406	0.220992	-0.164864	0.508347	0.612387	0.898969	1.35266	0.202894	0.157525	1.0028	1.28626	-0.0448005	-0.504589	0.960684	1.06902	0.0199187	-0.947295	0.422696	-0.0807082	0.0894717	-0.327752	0.188174	0.008721	-0.261618	-0.412691	-0.0586795	-0.356446	
0.734317	4.31366	5	0	-0.018275	-0.571807	-0.117721	-0.260683	0.068485	0.080524	0.228279	-0.166861	0.512727	0.613678	0.896803	1.35878	0.201035	0.162779	0.997119	1.28708	-0.047776	-0.496179	0.962044	1.06517	0.0175175	-0.940508	0.421298	-0.0767575	0.0907645	-0.331406	0.188174	0.008721	-0.263776	-0.406593	-0.057	-0.361193	
0.732025	4.31518	5	0	-0.018275	-0.571807	-0.116614	-0.26381	0.075075	0.078642	0.235567	-0.168858	0.517107	0.614969	0.894638	1.3649	0.199176	0.168034	0.991439	1.2879	-0.0507515	-0.48777	0.963405	1.06133	0.0151163	-0.933722	0.4199	-0.0728068	0.0920573	-0.335059	0.188174	0.008721	-0.265933	-0.400494	-0.0553205	-0.36594	
0.732703	4.31366	5	0	-0.018275	-0.571807	-0.115508	-0.266936	0.081665	0.07676	0.242854	-0.170855	0.521487	0.616261	0.892473	1.37102	0.197316	0.173289	0.985758	1.28872	-0.053727	-0.479361	0.964766	1.05748	0.012715	-0.926936	0.418502	-0.068856	0.09335	-0.338712	0.188174	0.008721	-0.268091	-0.394396	-0.053641	-0.370686	
0.735915	4.31976	5	0	-0.0196165	-0.568016	-0.114402	-0.270061	0.0771987	0.0893827	0.241581	-0.167258	0.524509	0.635092	0.905705	1.38594	0.193594	0.183808	0.985758	1.28872	-0.0500382	-0.468823	0.969406	1.06037	0.0116603	-0.905338	0.431047	-0.0648905	0.0996093	-0.334373	0.201232	0.008019	-0.252335	-0.4	-0.0553205	-0.36594	
0.740879	4.31518	5	0	-0.020958	-0.564224	-0.113296	-0.273186	0.0727325	0.102005	0.240308	-0.16366	0.527531	0.653923	0.918937	1.40086	0.189872	0.194327	0.985758	1.28872	-0.0463495	-0.458285	0.974046	1.06325	0.0106055	-0.883741	0.443592	-0.060925	0.105869	-0.330033	0.21429	0.007317	-0.236579	-0.405604	-0.057	-0.361193	
0.746816	4.31518	5	0	-0.0222995	-0.560433	-0.11219	-0.276312	0.0682663	0.114628	0.239036	-0.160063	0.530552	0.672754	0.93217	1.41579	0.18615	0.204846	0.985758	1.28872	-0.0426607	-0.447747	0.978685	1.06613	0.00955075	-0.862143	0.456137	-0.0569595	0.112128	-0.325693	0.227347	0.006615	-0.220823	-0.411208	-0.0586795	-0.356446	
0.752946	4.31518	5	0	-0.023641	-0.556642	-0.111084	-0.279437	0.0638	0.127251	0.237763	-0.156466	0.533574	0.691585	0.945402	1.43071	0.182428	0.215365	0.985758	1.28872	-0.038972	-0.437209	0.983325	1.06901	0.008496	-0.840545	0.468682	-0.052994	0.118387	-0.321354	0.240405	0.005913	-0.205067	-0.416812	-0.060359	-0.3517	
0.758489	4.31518	5	0	-0.023641	-0.556642	-0.111084	-0.279437	0.0626822	0.13041	0.230476	-0.15447	0.537961	0.692887	0.941052	1.443	0.182428	0.215365	0.987089	1.28496	-0.0486202	-0.430905	0.981963	1.07286	0.0146623	-0.839337	0.458205	-0.043104	0.11191	-0.30305	0.24514	0.0106582	-0.207228	-0.410706	-0.0637208	-0.342199	
0.762802	4.31366	5	0	-0.023641	-0.556642	-0.111084	-0.279437	0.0615645	0.133568	0.223189	-0.152475	0.542347	0.69419	0.936702	1.4553	0.182428	0.215365	0.98842	1.28119	-0.0582685	-0.424601	0.980602	1.07671	0.0208285	-0.838129	0.447728	-0.033214	0.105434	-0.284746	0.249875	0.0154035	-0.209389	-0.4046	-0.0670825	-0.332699	
0.766001	4.31366	5	0	-0.023641	-0.556642	-0.111084	-0.279437	0.0604468	0.136727	0.215903	-0.150479	0.546734	0.695492	0.932353	1.46759	0.182428	0.215365	0.98975	1.27743	-0.0679167	-0.418296	0.97924	1.08056	0.0269948	-0.836922	0.43725	-0.023324	0.0989568	-0.266442	0.25461	0.0201487	-0.211549	-0.398493	-0.0704442	-0.323198	
0.768457	4.31518	5	0	-0.023641	-0.556642	-0.111084	-0.279437	0.059329	0.139885	0.208616	-0.148483	0.551121	0.696794	0.928003	1.47988	0.182428	0.215365	0.991081	1.27367	-0.077565	-0.411992	0.977878	1.08441	0.033161	-0.835714	0.426773	-0.013434	0.09248	-0.248138	0.259345	0.024894	-0.21371	-0.392387	-0.073806	-0.313697	
0.770543	4.31213	5	0	-0.0165343	-0.555452	-0.118852	-0.274361	0.0625673	0.14749	0.215903	-0.150479	0.557022	0.707549	0.933533	1.49047	0.191549	0.213452	0.994099	1.28038	-0.0694085	-0.414081	0.983883	1.08344	0.0307488	-0.828897	0.429575	-0.0213512	0.102631	-0.254771	0.259345	0.024894	-0.197919	-0.398007	-0.062709	-0.320948	
0.772632	4.31061	5	0	-0.0094275	-0.554262	-0.126621	-0.269285	0.0658055	0.155096	0.223189	-0.152475	0.562922	0.718303	0.939063	1.50105	0.20067	0.21154	0.997118	1.28709	-0.061252	-0.41617	0.989889	1.08248	0.0283365	-0.822079	0.432376	-0.0292685	0.112782	-0.261404	0.259345	0.024894	-0.182128	-0.403628	-0.051612	-0.328199	
0.775096	4.31366	5	0	-0.00232075	-0.553073	-0.134389	-0.264209	0.0690438	0.162701	0.230476	-0.15447	0.568823	0.729058	0.944592	1.51164	0.20979	0.209628	1.00014	1.29379	-0.0530955	-0.418258	0.995894	1.08151	0.0259243	-0.815262	0.435177	-0.0371857	0.122932	-0.268036	0.259345	0.024894	-0.166338	-0.409248	-0.040515	-0.335451	
0.77826	4.31518	5	0	0.004786	-0.551883	-0.142158	-0.259133	0.072282	0.170307	0.237763	-0.156466	0.574724	0.739812	0.950122	1.52223	0.218911	0.207715	1.00315	1.3005	-0.044939	-0.420347	1.0019	1.08055	0.023512	-0.808445	0.437979	-0.045103	0.133083	-0.274669	0.259345	0.024894	-0.150547	-0.414868	-0.029418	-0.342702	
0.781934	4.31366	5	0	0.00344275	-0.548087	-0.139948	-0.26538	0.0755207	0.177926	0.235215	-0.149267	0.585994	0.749184	0.961192	1.54348	0.218911	0.207715	1.00617	1.30721	-0.044939	-0.420347	1.0112	1.08633	0.0223053	-0.805034	0.445655	-0.0470757	0.140652	-0.273977	0.265288	0.0262413	-0.13472	-0.420509	-0.0311	-0.337948	
0.785614	4.31213	5	0	0.0020995	-0.544291	-0.137737	-0.271628	0.0787595	0.185545	0.232668	-0.142068	0.597264	0.758555	0.972262	1.56474	0.218911	0.207715	1.00919	1.31393	-0.044939	-0.420347	1.0205	1.0921	0.0210985	-0.801624	0.45333	-0.0490485	0.148221	-0.273286	0.271232	0.0275885	-0.118893	-0.426149	-0.032782	-0.333194	
0.788793	4.31213	5	0	0.00075625	-0.540495	-0.135526	-0.277875	0.0819982	0.193164	0.230121	-0.134868	0.608534	0.767927	0.983332	1.58599	0.218911	0.207715	1.01221	1.32065	-0.044939	-0.420347	1.0298	1.09788	0.0198917	-0.798214	0.461006	-0.0510212	0.155789	-0.272595	0.277176	0.0289357	-0.103067	-0.431789	-0.034464	-0.328439	
0.790962	4.31213	5	0	-0.000587	-0.536699	-0.133316	-0.284122	0.085237	0.200783	0.227573	-0.127669	0.619804	0.777298	0.994402	1.60725	0.218911	0.207715	1.01523	1.32736	-0.044939	-0.420347	1.0391	1.10366	0.018685	-0.794803	0.468682	-0.052994	0.163358	-0.271903	0.283119	0.030283	-0.08724	-0.43743	-0.036146	-0.323685	
0.791614	4.31518	5	0	0.00075625	-0.540495	-0.136661	-0.291532	0.0874782	0.194449	0.232666	-0.142062	0.611967	0.771954	0.986679	1.60279	0.213512	0.199109	1.0179	1.31983	-0.048625	-0.430893	1.03717	1.09306	0.022304	-0.805031	0.456137	-0.0569595	0.16206	-0.268235	0.272359	0.0425495	-0.123183	-0.413944	-0.0250347	-0.330946	
0.79025	4.31366	5	0	0.0020995	-0.544291	-0.140006	-0.298942	0.0897195	0.188115	0.237758	-0.156454	0.604131	0.766611	0.978957	1.59832	0.208114	0.190502	1.02056	1.31229	-0.052311	-0.441439	1.03525	1.08247	0.025923	-0.815258	0.443592	-0.060925	0.160762	-0.264567	0.261598	0.054816	-0.159127	-0.390458	-0.0139235	-0.338206	
0.786867	4.30603	5	0	0.00344275	-0.548087	-0.143351	-0.306353	0.0919607	0.181782	0.242851	-0.170846	0.596294	0.761267	0.971234	1.59386	0.202715	0.181895	1.02323	1.30475	-0.055997	-0.451984	1.03332	1.07187	0.029542	-0.825486	0.431047	-0.0648905	0.159464	-0.260898	0.250837	0.0670825	-0.19507	-0.366972	-0.00281225	-0.345467	
0.782176	4.31213	5	0	0.004786	-0.551883	-0.146696	-0.313763	0.094202	0.175448	0.247944	-0.185239	0.588457	0.755923	0.963511	1.5894	0.197316	0.173289	1.0259	1.29722	-0.059683	-0.46253	1.0314	1.06127	0.033161	-0.835714	0.418502	-0.068856	0.158166	-0.25723	0.240077	0.079349	-0.231013	-0.343486	0.008299	-0.352727	
0.776945	4.31213	5	0	0.004786	-0.551883	-0.136729	-0.325069	0.0930815	0.178614	0.247944	-0.185239	0.589419	0.753203	0.97561	1.58149	0.191921	0.164701	1.0259	1.29722	-0.0552185	-0.475147	1.02538	1.06224	0.020835	-0.83813	0.413637	-0.074785	0.150598	-0.257925	0.242486	0.0725395	-0.228849	-0.349601	-0.00113025	-0.350221	
0.771939	4.30755	5	0	0.004786	-0.551883	-0.126761	-0.336375	0.091961	0.181781	0.247944	-0.185239	0.590382	0.750484	0.98771	1.57359	0.186527	0.156114	1.0259	1.29722	-0.050754	-0.487764	1.01937	1.06321	0.008509	-0.840546	0.408772	-0.080714	0.143031	-0.258619	0.244896	0.06573	-0.226685	-0.355716	-0.0105595	-0.347715	
0.767927	4.30908	5	0	0.004786	-0.551883	-0.116793	-0.34768	0.0908405	0.184947	0.247944	-0.185239	0.591345	0.747764	0.999809	1.56568	0.181133	0.147526	1.0259	1.29722	-0.0462895	-0.500381	1.01336	1.06418	-0.003817	-0.842962	0.403907	-0.086643	0.135464	-0.259314	0.247306	0.0589205	-0.224522	-0.36183	-0.0199887	-0.345208	
0.765671	4.30908	0	5	0.004786	-0.551883	-0.106826	-0.358986	0.08972	0.188113	0.247944	-0.185239	0.592307	0.745044	1.01191	1.55777	0.175738	0.138938	1.0259	1.29722	-0.041825	-0.512998	1.00735	1.06515	-0.016143	-0.845378	0.399042	-0.092572	0.127896	-0.260008	0.249715	0.052111	-0.222358	-0.367945	-0.029418	-0.342702	
0.765508	4.30908	0	5	0.00344275	-0.548087	-0.113485	-0.35703	0.0874782	0.194449	0.244125	-0.174447	0.591888	0.759968	1.00534	1.57633	0.175738	0.138938	1.02892	1.30393	-0.0403385	-0.5172	1.00927	1.07574	-0.00998325	-0.84417	0.411575	-0.088615	0.134165	-0.255644	0.261605	0.054816	-0.206569	-0.373561	-0.0327832	-0.333191	
0.766896	4.30908	0	5	0.0020995	-0.544291	-0.120144	-0.355074	0.0852365	0.200785	0.240306	-0.163654	0.59147	0.774892	0.998773	1.59489	0.175738	0.138938	1.03194	1.31065	-0.038852	-0.521401	1.01119	1.08633	-0.0038235	-0.842961	0.424108	-0.084658	0.140434	-0.251279	0.273494	0.057521	-0.19078	-0.379177	-0.0361485	-0.323681	
0.769187	4.30908	0	5	0.00075625	-0.540495	-0.126803	-0.353118	0.0829948	0.207121	0.236488	-0.152862	0.591051	0.789815	0.992206	1.61345	0.175738	0.138938	1.03496	1.31737	-0.0373655	-0.525602	1.01311	1.09693	0.00233625	-0.841753	0.436641	-0.080701	0.146703	-0.246914	0.285384	0.060226	-0.174991	-0.384793	-0.0395138	-0.31417	
0.771736	4.30908	0	5	-0.000587	-0.536699	-0.133462	-0.351162	0.080753	0.213457	0.232669	-0.14207	0.590632	0.804739	0.985639	1.63201	0.175738	0.138938	1.03799	1.32409	-0.035879	-0.529804	1.01503	1.10752	0.008496	-0.840545	0.449174	-0.076744	0.152972	-0.24255	0.297274	0.062931	-0.159202	-0.390409	-0.042879	-0.304659	
0.773893	4.30908	0	5	0.00209875	-0.54429	-0.141216	-0.346095	0.0829948	0.207121	0.233942	-0.145669	0.598889	0.795155	0.98783	1.62582	0.186707	0.131771	1.04101	1.33082	-0.034393	-0.534004	1.02434	1.11331	0.00594575	-0.851954	0.442904	-0.0787228	0.142809	-0.235909	0.288914	0.0683933	-0.177155	-0.378678	-0.044563	-0.2999	
0.775013	4.31061	0	5	0.0047845	-0.55188	-0.148971	-0.341028	0.0852365	0.200785	0.235216	-0.149268	0.607146	0.78557	0.99002	1.61963	0.197677	0.124603	1.04403	1.33754	-0.032907	-0.538204	1.03364	1.11909	0.0033955	-0.863363	0.436634	-0.0807015	0.132646	-0.229268	0.280555	0.0738555	-0.195107	-0.366947	-0.046247	-0.295141	
0.77465	4.31213	0	5	0.00747025	-0.559471	-0.156725	-0.335961	0.0874782	0.194449	0.236489	-0.152867	0.615403	0.775986	0.992211	1.61344	0.208646	0.117435	1.04706	1.34427	-0.031421	-0.542403	1.04295	1.12488	0.00084525	-0.874772	0.430364	-0.0826802	0.122483	-0.222628	0.272196	0.0793177	-0.21306	-0.355217	-0.047931	-0.290381	
0.773094	4.31061	0	5	0.010156	-0.567062	-0.16448	-0.330894	0.08972	0.188113	0.237763	-0.156466	0.62366	0.766402	0.994402	1.60725	0.219615	0.110268	1.05008	1.351	-0.029935	-0.546603	1.05225	1.13067	-0.001705	-0.886181	0.424094	-0.084659	0.11232	-0.215987	0.263836	0.08478	-0.231013	-0.343486	-0.049615	-0.285622	
0.770804	4.30755	0	5	0.010156	-0.567062	-0.158931	-0.329729	0.08972	0.188113	0.235215	-0.149267	0.621732	0.771851	0.999942	1.61792	0.217758	0.115517	1.05479	1.36827	-0.0410582	-0.536106	1.06954	1.14615	0.00069875	-0.892975	0.431763	-0.0866325	0.116214	-0.226992	0.267452	0.07456	-0.21306	-0.355217	-0.049615	-0.285622	
0.768236	4.30755	0	5	0.010156	-0.567062	-0.153382	-0.328564	0.08972	0.188113	0.232668	-0.142068	0.619804	0.7773	1.00548	1.62859	0.215901	0.120765	1.0595	1.38555	-0.0521815	-0.525609	1.08683	1.16164	0.0031025	-0.899768	0.439431	-0.088606	0.120108	-0.237998	0.271069	0.06434	-0.195107	-0.366947	-0.049615	-0.285622	
0.765848	4.30755	0	5	0.010156	-0.567062	-0.147832	-0.327398	0.08972	0.188113	0.230121	-0.134868	0.617876	0.782749	1.01102	1.63926	0.214044	0.126014	1.06421	1.40282	-0.0633047	-0.515112	1.10411	1.17712	0.00550625	-0.906562	0.447099	-0.0905795	0.124002	-0.249003	0.274685	0.05412	-0.177155	-0.378678	-0.049615	-0.285622	
0.764099	4.31213	0	5	0.010156	-0.567062	-0.142283	-0.326233	0.08972	0.188113	0.227573	-0.127669	0.615948	0.788198	1.01656	1.64993	0.212187	0.131263	1.06892	1.4201	-0.074428	-0.504615	1.1214	1.1926	0.00791	-0.913356	0.454768	-0.092553	0.127896	-0.260008	0.278301	0.0439	-0.159202	-0.390409	-0.049615	-0.285622	
0.763348	4.30908	0	5	0.00304825	-0.568248	-0.145593	-0.316877	0.083121	0.189991	0.226299	-0.124067	0.613054	0.796377	1.01437	1.65613	0.208469	0.141769	1.07194	1.42686	-0.0677647	-0.502507	1.12938	1.20232	0.0116685	-0.905362	0.464529	-0.0806795	0.125301	-0.252673	0.274685	0.05412	-0.143377	-0.396045	-0.0418743	-0.283357	
0.763466	4.31061	0	5	-0.0040595	-0.569434	-0.148904	-0.30752	0.076522	0.191868	0.225025	-0.120466	0.610159	0.804556	1.01217	1.66233	0.204751	0.152276	1.07497	1.43363	-0.0611015	-0.500399	1.13735	1.21203	0.015427	-0.897367	0.474291	-0.068806	0.122705	-0.245338	0.271069	0.06434	-0.127551	-0.401682	-0.0341335	-0.281091	
0.764166	4.31061	0	5	-0.0111672	-0.570621	-0.152215	-0.298164	0.069923	0.193746	0.22375	-0.116864	0.607265	0.812736	1.00998	1.66854	0.201034	0.162782	1.07799	1.44039	-0.0544382	-0.498291	1.14533	1.22174	0.0191855	-0.889373	0.484052	-0.0569325	0.120109	-0.238002	0.267452	0.07456	-0.111726	-0.407318	-0.0263927	-0.278825	
0.765164	4.30908	0	5	-0.018275	-0.571807	-0.155525	-0.288808	0.063324	0.195624	0.222476	-0.113262	0.604371	0.820915	1.00778	1.67474	0.197316	0.173289	1.08102	1.44716	-0.047775	-0.496183	1.1533	1.23145	0.022944	-0.881379	0.493814	-0.045059	0.117514	-0.230667	0.263836	0.08478	-0.0959	-0.412954	-0.018652	-0.27656	
0.766172	4.30908	0	5	-0.0084835	-0.578205	-0.143309	-0.289589	0.073283	0.184251	0.239621	-0.124465	0.600936	0.816871	1.00998	1.66854	0.206439	0.17137	1.08538	1.45014	-0.0381268	-0.502487	1.15523	1.24215	0.0179837	-0.885977	0.492412	-0.041096	0.120109	-0.238002	0.265042	0.081372	-0.116057	-0.395076	-0.00921275	-0.279063	
0.766906	4.30603	0	5	0.001308	-0.584603	-0.131094	-0.290371	0.083242	0.172877	0.256765	-0.135667	0.597502	0.812827	1.01217	1.66233	0.215561	0.169452	1.08975	1.45311	-0.0284785	-0.508792	1.15716	1.25285	0.0130235	-0.890575	0.491009	-0.037133	0.122705	-0.245338	0.266248	0.077964	-0.136214	-0.377197	0.0002265	-0.281566	
0.767103	4.30908	0	5	0.0110995	-0.591001	-0.118878	-0.291153	0.093201	0.161504	0.27391	-0.14687	0.594067	0.808783	1.01437	1.65613	0.224684	0.167533	1.09412	1.45609	-0.0188302	-0.515096	1.15908	1.26356	0.00806325	-0.895173	0.489607	-0.03317	0.125301	-0.252673	0.267454	0.074556	-0.156371	-0.359318	0.00966575	-0.284069	
0.766704	4.30603	0	5	0.020891	-0.597399	-0.106662	-0.291934	0.10316	0.150131	0.291055	-0.158073	0.590632	0.804739	1.01656	1.64993	0.233807	0.165614	1.09849	1.45907	-0.009182	-0.521401	1.16101	1.27426	0.003103	-0.899771	0.488205	-0.029207	0.127896	-0.260008	0.26866	0.071148	-0.176528	-0.34144	0.019105	-0.286572	
0.765741	4.30755	0	5	0.02801	-0.59622	-0.105525	-0.278253	0.107526	0.154578	0.285952	-0.143651	0.595997	0.803329	1.01876	1.64373	0.239216	0.174221	1.09849	1.45907	-0.001011	-0.523507	1.16569	1.27719	0.010469	-0.901972	0.485399	-0.0212757	0.127896	-0.260008	0.282975	0.0670355	-0.160706	-0.347068	0.02518	-0.279536	
0.764246	4.30603	0	5	0.035129	-0.595041	-0.104388	-0.264572	0.111893	0.159025	0.280849	-0.12923	0.601361	0.80192	1.02095	1.63753	0.244626	0.182827	1.09849	1.45907	0.00716	-0.525613	1.17037	1.28012	0.017835	-0.904173	0.482592	-0.0133445	0.127896	-0.260008	0.297289	0.062923	-0.144883	-0.352696	0.031255	-0.2725	
