0.708	4.27399	0	0	0.138994	-0.781865	0.039837	-0.80236	0.006564	-0.682654	-0.030555	-0.660817	-0.201246	-0.314722	-0.158985	-0.525085	0.004949	-0.671043	-0.154222	-1.04062	-0.060216	-0.768465	-0.168536	-1.32026	-0.154968	-0.534881	-0.144709	-0.552152	0.013274	-0.530116	-0.224023	-0.478474	-0.097722	-0.476074	-0.076853	-0.856106	
0.710246	4.27551	0	0	0.126213	-0.745745	0.037479	-0.777426	-0.001159	-0.641928	-0.0167832	-0.600082	-0.197053	-0.281708	-0.157789	-0.457147	-0.0102485	-0.628093	-0.150337	-1.02346	-0.0499115	-0.738458	-0.160654	-1.30606	-0.145148	-0.502128	-0.140591	-0.501945	0.00961575	-0.497242	-0.21122	-0.443568	-0.0670118	-0.476635	-0.0829155	-0.838973	
0.712412	4.27399	0	0	0.113433	-0.709626	0.035121	-0.752493	-0.008882	-0.601202	-0.0030115	-0.539347	-0.192861	-0.248694	-0.156593	-0.389209	-0.025446	-0.585143	-0.146452	-1.00631	-0.039607	-0.708451	-0.152771	-1.29185	-0.135327	-0.469376	-0.136473	-0.451738	0.0059575	-0.464368	-0.198416	-0.408663	-0.0363015	-0.477197	-0.088978	-0.82184	
0.714507	4.27399	0	0	0.100652	-0.673506	0.032763	-0.727559	-0.016605	-0.560476	0.0107602	-0.478613	-0.188669	-0.215679	-0.155398	-0.321272	-0.0406435	-0.542192	-0.142566	-0.98915	-0.0293025	-0.678444	-0.144888	-1.27764	-0.125507	-0.436623	-0.132355	-0.401531	0.00229925	-0.431493	-0.185613	-0.373757	-0.00559125	-0.477759	-0.0950405	-0.804707	
0.716541	4.27246	0	0	0.087871	-0.637386	0.030405	-0.702625	-0.024328	-0.51975	0.024532	-0.417878	-0.184476	-0.182665	-0.154202	-0.253334	-0.055841	-0.499242	-0.138681	-0.971995	-0.018998	-0.648437	-0.137006	-1.26343	-0.115687	-0.40387	-0.128237	-0.351324	-0.001359	-0.398619	-0.17281	-0.338851	0.025119	-0.47832	-0.101103	-0.787574	
0.718523	4.27246	0	0	0.0814615	-0.619271	0.0244075	-0.685676	-0.0262227	-0.495477	0.0162133	-0.374372	-0.192173	-0.145932	-0.154767	-0.20404	-0.052791	-0.477552	-0.141289	-0.95054	-0.0244907	-0.603279	-0.132099	-1.24074	-0.127114	-0.351363	-0.131466	-0.280148	0.00276075	-0.365109	-0.168956	-0.27838	-0.00600525	-0.433523	-0.0983	-0.772905	
0.720462	4.27551	0	0	0.075052	-0.601156	0.01841	-0.668727	-0.0281175	-0.471203	0.0078945	-0.330866	-0.199871	-0.1092	-0.155332	-0.154746	-0.049741	-0.455861	-0.143898	-0.929086	-0.0299835	-0.558121	-0.127193	-1.21805	-0.138542	-0.298856	-0.134695	-0.208972	0.0068805	-0.331599	-0.165102	-0.217909	-0.0371295	-0.388726	-0.095497	-0.758236	
0.722369	4.28009	0	0	0.0686425	-0.583042	0.0124125	-0.651777	-0.0300122	-0.44693	-0.00042425	-0.28736	-0.207569	-0.0724668	-0.155898	-0.105451	-0.046691	-0.434171	-0.146506	-0.907631	-0.0354763	-0.512963	-0.122286	-1.19536	-0.149969	-0.24635	-0.137924	-0.137795	0.0110002	-0.29809	-0.161248	-0.157437	-0.0682538	-0.34393	-0.092694	-0.743568	
0.724252	4.27399	0	0	0.062233	-0.564927	0.006415	-0.634828	-0.031907	-0.422657	-0.008743	-0.243854	-0.215266	-0.035734	-0.156463	-0.056157	-0.043641	-0.41248	-0.149114	-0.886176	-0.040969	-0.467805	-0.11738	-1.17267	-0.161396	-0.193843	-0.141153	-0.066619	0.01512	-0.26458	-0.157394	-0.096966	-0.099378	-0.299133	-0.089891	-0.728899	
0.726121	4.27704	0	0	0.057417	-0.551317	0.00281125	-0.624643	-0.0413608	-0.395939	-0.00928675	-0.202263	-0.225031	-0.0081365	-0.160567	-0.0206637	-0.054579	-0.381568	-0.14297	-0.87534	-0.040127	-0.440502	-0.116427	-1.15706	-0.170508	-0.16809	-0.135157	-0.0420805	0.00353325	-0.231834	-0.167137	-0.051548	-0.128234	-0.260647	-0.0944562	-0.715996	
0.727986	4.27399	0	0	0.052601	-0.537706	-0.0007925	-0.614458	-0.0508145	-0.369221	-0.0098305	-0.160671	-0.234797	0.019461	-0.164671	0.0148295	-0.065517	-0.350656	-0.136826	-0.864505	-0.039285	-0.413199	-0.115475	-1.14145	-0.17962	-0.142338	-0.129162	-0.017542	-0.0080535	-0.199088	-0.17688	-0.00613	-0.157089	-0.222162	-0.0990215	-0.703094	
0.729856	4.27704	0	0	0.047785	-0.524096	-0.00439625	-0.604273	-0.0602683	-0.342502	-0.0103743	-0.11908	-0.244562	0.0470585	-0.168776	0.0503228	-0.076455	-0.319743	-0.130682	-0.853669	-0.038443	-0.385896	-0.114522	-1.12583	-0.188732	-0.116585	-0.123166	0.0069965	-0.0196402	-0.166342	-0.186622	0.039288	-0.185945	-0.183676	-0.103587	-0.690192	
0.731742	4.27399	0	0	0.042969	-0.510486	-0.008	-0.594088	-0.069722	-0.315784	-0.010918	-0.077489	-0.254327	0.074656	-0.17288	0.085816	-0.087393	-0.288831	-0.124538	-0.842833	-0.037601	-0.358593	-0.113569	-1.11022	-0.197844	-0.090833	-0.117171	0.031535	-0.031227	-0.133596	-0.196365	0.084706	-0.214801	-0.145191	-0.108152	-0.677289	
0.733676	4.27551	0	0	0.0349265	-0.487756	-0.011608	-0.583891	-0.0716755	-0.291326	-0.009131	-0.0222943	-0.253263	0.101641	-0.162591	0.128606	-0.084396	-0.266941	-0.128321	-0.818025	-0.03894	-0.325079	-0.108687	-1.08735	-0.201595	-0.0599997	-0.11705	0.0727683	-0.0376825	-0.115352	-0.193427	0.112222	-0.219328	-0.132397	-0.111199	-0.668677	
0.735726	4.27399	0	0	0.026884	-0.465026	-0.015216	-0.573694	-0.073629	-0.266867	-0.007344	0.0329005	-0.252198	0.128626	-0.152303	0.171397	-0.081399	-0.245052	-0.132104	-0.793217	-0.040279	-0.291566	-0.103804	-1.06449	-0.205345	-0.0291665	-0.116929	0.114002	-0.044138	-0.0971075	-0.19049	0.139738	-0.223855	-0.119602	-0.114247	-0.660065	
0.737958	4.26941	0	0	0.0188415	-0.442296	-0.018824	-0.563498	-0.0755825	-0.242408	-0.005557	0.0880952	-0.251134	0.155611	-0.142014	0.214187	-0.078402	-0.223163	-0.135888	-0.768409	-0.041618	-0.258053	-0.0989215	-1.04162	-0.209095	0.00166675	-0.116808	0.155235	-0.0505935	-0.0788632	-0.187552	0.167253	-0.228383	-0.106807	-0.117294	-0.651454	
0.74044	4.27246	0	0	0.010799	-0.419566	-0.022432	-0.553301	-0.077536	-0.21795	-0.00377	0.14329	-0.250069	0.182596	-0.131725	0.256977	-0.075405	-0.201273	-0.139671	-0.743601	-0.042957	-0.224539	-0.094039	-1.01876	-0.212846	0.0325	-0.116687	0.196468	-0.057049	-0.060619	-0.184614	0.194769	-0.23291	-0.094013	-0.120341	-0.642842	
0.743241	4.27551	0	0	-0.00271	-0.407239	-0.032044	-0.544405	-0.0858595	-0.194426	-0.0230215	0.197697	-0.256936	0.217018	-0.147467	0.325483	-0.0724232	-0.17929	-0.142336	-0.721945	-0.046508	-0.184726	-0.0822102	-0.997054	-0.211253	0.0685333	-0.115901	0.256785	-0.0569955	-0.0381522	-0.180257	0.236313	-0.217623	-0.0941515	-0.124918	-0.629908	
0.746425	4.27551	0	0	-0.016219	-0.394911	-0.041656	-0.53551	-0.094183	-0.170903	-0.042273	0.252105	-0.263803	0.25144	-0.163209	0.393989	-0.0694415	-0.157307	-0.145	-0.700288	-0.050059	-0.144914	-0.0703815	-0.975352	-0.20966	0.104567	-0.115116	0.317103	-0.056942	-0.0156855	-0.175901	0.277857	-0.202336	-0.09429	-0.129494	-0.616975	
0.749926	4.27246	0	0	-0.029728	-0.382584	-0.051268	-0.526614	-0.102507	-0.147379	-0.0615245	0.306513	-0.27067	0.285862	-0.178951	0.462496	-0.0664598	-0.135325	-0.147664	-0.678632	-0.05361	-0.105101	-0.0585528	-0.953649	-0.208068	0.1406	-0.114331	0.37742	-0.0568885	0.00678125	-0.171544	0.319401	-0.187049	-0.0944285	-0.13407	-0.604042	
0.75353	4.29077	0	0	-0.043237	-0.370257	-0.06088	-0.517718	-0.11083	-0.123855	-0.080776	0.36092	-0.277537	0.320284	-0.194693	0.531002	-0.063478	-0.113342	-0.150329	-0.656976	-0.057161	-0.065288	-0.046724	-0.931947	-0.206475	0.176633	-0.113545	0.437737	-0.056835	0.029248	-0.167187	0.360945	-0.171762	-0.094567	-0.138647	-0.591108	
0.757011	4.27551	0	0	-0.0551185	-0.362494	-0.0764688	-0.510147	-0.12312	-0.108059	-0.090446	0.388248	-0.282472	0.334232	-0.191323	0.545525	-0.0678945	-0.10086	-0.145353	-0.642754	-0.0520975	-0.0497732	-0.034878	-0.910129	-0.213062	0.19525	-0.099501	0.460794	-0.0646247	0.0512625	-0.167749	0.398525	-0.176302	-0.0817357	-0.115022	-0.589941	
0.760143	4.27093	0	0	-0.067	-0.35473	-0.0920575	-0.502576	-0.13541	-0.092263	-0.100116	0.415577	-0.287407	0.348179	-0.187952	0.560048	-0.072311	-0.0883785	-0.140377	-0.628532	-0.047034	-0.0342585	-0.023032	-0.888311	-0.219649	0.213867	-0.085457	0.483851	-0.0724145	0.073277	-0.168311	0.436106	-0.180842	-0.0689045	-0.0913965	-0.588774	
0.762702	4.26788	0	0	-0.0788815	-0.346966	-0.107646	-0.495006	-0.147701	-0.076467	-0.109786	0.442906	-0.292343	0.362127	-0.184582	0.574571	-0.0767275	-0.0758967	-0.135401	-0.61431	-0.0419705	-0.0187438	-0.011186	-0.866492	-0.226237	0.232484	-0.071413	0.506908	-0.0802043	0.0952915	-0.168873	0.473686	-0.185382	-0.0560733	-0.0677712	-0.587607	
0.764465	4.27093	0	0	-0.090763	-0.339203	-0.123235	-0.487435	-0.159991	-0.060671	-0.119456	0.470234	-0.297278	0.376074	-0.181211	0.589094	-0.081144	-0.063415	-0.130425	-0.600088	-0.036907	-0.003229	0.00066	-0.844674	-0.232824	0.251101	-0.057369	0.529965	-0.087994	0.117306	-0.169435	0.511266	-0.189922	-0.043242	-0.044146	-0.58644	
0.765376	4.26788	0	0	-0.0939875	-0.33009	-0.114843	-0.492918	-0.167151	-0.0404355	-0.109676	0.503034	-0.30519	0.398435	-0.183645	0.620052	-0.0877802	-0.04466	-0.120077	-0.586826	-0.0455943	0.0213225	0.0125227	-0.822739	-0.239425	0.269757	-0.0544618	0.563698	-0.089294	0.12098	-0.1537	0.520914	-0.170055	-0.0562233	-0.0382922	-0.580283	
0.765647	4.27093	0	0	-0.097212	-0.320977	-0.106451	-0.498402	-0.174311	-0.0202	-0.099895	0.535833	-0.313103	0.420797	-0.186079	0.65101	-0.0944165	-0.025905	-0.109729	-0.573564	-0.0542815	0.045874	0.0243855	-0.800804	-0.246026	0.288413	-0.0515545	0.597432	-0.090594	0.124655	-0.137965	0.530563	-0.150189	-0.0692045	-0.0324385	-0.574126	
0.765513	4.26941	0	0	-0.100436	-0.311864	-0.098059	-0.503885	-0.181471	3.55E-05	-0.0901145	0.568632	-0.321015	0.443159	-0.188512	0.681969	-0.101053	-0.00715	-0.0993803	-0.560301	-0.0629687	0.0704255	0.0362483	-0.778869	-0.252628	0.307068	-0.0486473	0.631165	-0.091894	0.12833	-0.12223	0.540211	-0.130323	-0.0821858	-0.0265847	-0.56797	
0.765212	4.26788	0	0	-0.103661	-0.302751	-0.089667	-0.509369	-0.188631	0.020271	-0.080334	0.601432	-0.328927	0.46552	-0.190946	0.712927	-0.107689	0.011605	-0.089032	-0.547039	-0.071656	0.094977	0.048111	-0.756934	-0.259229	0.325724	-0.04574	0.664898	-0.093194	0.132004	-0.106495	0.549859	-0.110456	-0.095167	-0.020731	-0.561813	
0.764979	4.27093	0	0	-0.106889	-0.293629	-0.0992625	-0.500484	-0.195807	0.0405522	-0.0942793	0.640843	-0.337852	0.490743	-0.188148	0.753272	-0.112121	0.0241305	-0.0840505	-0.532725	-0.0666183	0.110612	0.0615182	-0.739198	-0.251123	0.343438	-0.027991	0.69892	-0.0879775	0.139906	-0.0858275	0.563852	-0.132595	-0.075763	-0.00439775	-0.562489	
0.765049	4.26788	0	0	-0.110117	-0.284507	-0.108858	-0.491599	-0.202984	0.0608335	-0.108225	0.680254	-0.346778	0.515967	-0.18535	0.793617	-0.116553	0.036656	-0.079069	-0.51841	-0.0615805	0.126248	0.0749255	-0.721463	-0.243017	0.361152	-0.010242	0.732943	-0.082761	0.147809	-0.06516	0.577846	-0.154734	-0.056359	0.0119355	-0.563165	
0.76553	4.26788	0	0	-0.113344	-0.275385	-0.118453	-0.482714	-0.210161	0.0811147	-0.12217	0.719666	-0.355703	0.541191	-0.182552	0.833962	-0.120985	0.0491815	-0.0740875	-0.504096	-0.0565428	0.141883	0.0883328	-0.703728	-0.234911	0.378866	0.007507	0.766965	-0.0775445	0.155711	-0.0444925	0.591839	-0.176874	-0.036955	0.0282688	-0.563842	
0.766239	4.26788	0	0	-0.116572	-0.266263	-0.128049	-0.473829	-0.217337	0.101396	-0.136115	0.759077	-0.364628	0.566414	-0.179754	0.874307	-0.125417	0.061707	-0.069106	-0.489782	-0.051505	0.157518	0.10174	-0.685992	-0.226805	0.39658	0.025256	0.800987	-0.072328	0.163613	-0.023825	0.605833	-0.199013	-0.017551	0.044602	-0.564518	
0.766955	4.27246	0	0	-0.128437	-0.25851	-0.130458	-0.467022	-0.219733	0.108167	-0.140311	0.770934	-0.363635	0.563608	-0.177808	0.868806	-0.1232	0.055442	-0.0648787	-0.487516	-0.0630737	0.160341	0.102645	-0.669972	-0.234832	0.398945	0.022245	0.809497	-0.0840532	0.174105	-0.0223985	0.619946	-0.183696	-0.0176733	0.0520173	-0.562691	
0.767457	4.26941	0	0	-0.140302	-0.250757	-0.132866	-0.460215	-0.222129	0.114937	-0.144506	0.782791	-0.362642	0.560802	-0.175861	0.863305	-0.120983	0.049177	-0.0606515	-0.485251	-0.0746425	0.163163	0.10355	-0.653951	-0.24286	0.40131	0.019234	0.818006	-0.0957785	0.184597	-0.020972	0.63406	-0.16838	-0.0177955	0.0594325	-0.560864	
0.767526	4.27093	0	0	-0.152167	-0.243004	-0.135274	-0.453408	-0.224524	0.121708	-0.148702	0.794649	-0.361649	0.557996	-0.173914	0.857804	-0.118767	0.042912	-0.0564243	-0.482985	-0.0862113	0.165986	0.104456	-0.63793	-0.250887	0.403675	0.016223	0.826515	-0.107504	0.19509	-0.0195455	0.648173	-0.153063	-0.0179177	0.0668477	-0.559037	
0.766939	4.27246	0	0	-0.164032	-0.235251	-0.137683	-0.446601	-0.22692	0.128479	-0.152897	0.806506	-0.360656	0.55519	-0.171968	0.852303	-0.11655	0.036647	-0.052197	-0.480719	-0.09778	0.168809	0.105361	-0.62191	-0.258915	0.40604	0.013212	0.835025	-0.119229	0.205582	-0.018119	0.662287	-0.137746	-0.01804	0.074263	-0.55721	
0.765554	4.26788	0	0	-0.155398	-0.233872	-0.140094	-0.439789	-0.232917	0.145429	-0.152012	0.824196	-0.366574	0.5569	-0.162789	0.850534	-0.14009	0.042406	-0.057581	-0.479715	-0.0934245	0.156499	0.0998705	-0.624972	-0.262961	0.397174	0.00652025	0.832856	-0.12183	0.190315	-0.021852	0.654692	-0.170611	-0.0113893	0.089123	-0.553556	
0.763489	4.27093	0	0	-0.146764	-0.232494	-0.142504	-0.432977	-0.238915	0.162378	-0.151128	0.841886	-0.372492	0.55861	-0.153609	0.848765	-0.16363	0.048165	-0.062965	-0.478712	-0.089069	0.144189	0.09438	-0.628034	-0.267007	0.388307	-0.0001715	0.830686	-0.124431	0.175048	-0.025585	0.647097	-0.203476	-0.0047385	0.103983	-0.549902	
0.760916	4.27246	0	0	-0.13813	-0.231116	-0.144915	-0.426165	-0.244912	0.179328	-0.150244	0.859577	-0.37841	0.56032	-0.14443	0.846996	-0.18717	0.053924	-0.068349	-0.477708	-0.0847135	0.13188	0.0888895	-0.631096	-0.271052	0.379441	-0.00686325	0.828517	-0.127032	0.159781	-0.029318	0.639503	-0.23634	0.00191225	0.118843	-0.546247	
0.758005	4.27246	0	0	-0.129496	-0.229737	-0.147325	-0.419353	-0.250909	0.196277	-0.149359	0.877267	-0.384328	0.56203	-0.13525	0.845227	-0.21071	0.059683	-0.073733	-0.476704	-0.080358	0.11957	0.083399	-0.634158	-0.275098	0.370574	-0.013555	0.826348	-0.129633	0.144514	-0.033051	0.631908	-0.269205	0.008563	0.133703	-0.542593	
0.754928	4.26788	0	0	-0.142978	-0.217415	-0.152151	-0.405713	-0.259617	0.201966	-0.170742	0.897339	-0.398132	0.57105	-0.152222	0.86902	-0.204078	0.040941	-0.089858	-0.473706	-0.0760082	0.107277	0.0684855	-0.647636	-0.288466	0.367818	-0.0150602	0.830601	-0.142625	0.136079	-0.0281627	0.636238	-0.277642	-0.0105593	0.130623	-0.533889	
0.751855	4.26941	0	0	-0.15646	-0.205093	-0.156977	-0.392073	-0.268324	0.207656	-0.192124	0.917412	-0.411937	0.58007	-0.169194	0.892813	-0.197447	0.022199	-0.105983	-0.470708	-0.0716585	0.094985	0.053572	-0.661115	-0.301833	0.365061	-0.0165655	0.834855	-0.155617	0.127643	-0.0232745	0.640568	-0.286079	-0.0296815	0.127544	-0.525184	
0.748902	4.26941	0	0	-0.169941	-0.19277	-0.161804	-0.378434	-0.277031	0.213346	-0.213507	0.937484	-0.425741	0.58909	-0.186167	0.916605	-0.190815	0.003457	-0.122108	-0.467709	-0.0673088	0.0826925	0.0386585	-0.674594	-0.3152	0.362304	-0.0180708	0.839108	-0.168609	0.119208	-0.0183862	0.644898	-0.294515	-0.0488037	0.124464	-0.51648	
0.745986	4.26178	0	0	-0.183423	-0.180448	-0.16663	-0.364794	-0.285739	0.219035	-0.23489	0.957556	-0.439545	0.59811	-0.203139	0.940398	-0.184184	-0.015285	-0.138233	-0.464711	-0.062959	0.0704	0.023745	-0.688072	-0.328568	0.359548	-0.019576	0.843362	-0.181601	0.110773	-0.013498	0.649228	-0.302952	-0.067926	0.121384	-0.507776	
0.742984	4.25873	0	0	-0.192039	-0.181842	-0.165491	-0.349779	-0.293237	0.221327	-0.225607	0.951491	-0.446388	0.587503	-0.204512	0.920137	-0.19884	-0.0344355	-0.144343	-0.475769	-0.0730522	0.0393225	0.0143317	-0.698461	-0.343293	0.340526	-0.0350985	0.824129	-0.194562	0.102359	-0.0278833	0.65361	-0.335582	-0.0613435	0.110872	-0.500907	
0.739772	4.26483	0	0	-0.200655	-0.183236	-0.164352	-0.334764	-0.300735	0.223618	-0.216325	0.945425	-0.45323	0.576897	-0.205886	0.899876	-0.213496	-0.053586	-0.150454	-0.486827	-0.0831455	0.008245	0.0049185	-0.708851	-0.358018	0.321505	-0.050621	0.804896	-0.207523	0.0939445	-0.0422685	0.657993	-0.368212	-0.054761	0.10036	-0.494038	
0.736227	4.27093	0	0	-0.209271	-0.184631	-0.163213	-0.319749	-0.308233	0.225909	-0.207042	0.939359	-0.460072	0.56629	-0.20726	0.879616	-0.228153	-0.0727365	-0.156564	-0.497885	-0.0932387	-0.0228325	-0.00449475	-0.71924	-0.372743	0.302484	-0.0661435	0.785663	-0.220484	0.0855303	-0.0566538	0.662376	-0.400842	-0.0481785	0.089848	-0.48717	
0.732224	4.27399	0	0	-0.217887	-0.186025	-0.162074	-0.304734	-0.315731	0.228201	-0.19776	0.933294	-0.466915	0.555683	-0.208633	0.859355	-0.242809	-0.091887	-0.162675	-0.508943	-0.103332	-0.05391	-0.013908	-0.729629	-0.387468	0.283462	-0.081666	0.76643	-0.233445	0.077116	-0.071039	0.666758	-0.433472	-0.041596	0.079336	-0.480301	
0.727779	4.27399	0	0	-0.228104	-0.182858	-0.153749	-0.291743	-0.314531	0.22481	-0.19409	0.943113	-0.476716	0.553486	-0.211961	0.84465	-0.259621	-0.10475	-0.164577	-0.517716	-0.124923	-0.0819378	-0.014814	-0.745537	-0.394205	0.262187	-0.0890038	0.745218	-0.242507	0.05779	-0.0784813	0.651589	-0.444089	-0.0542613	0.068837	-0.473441	
0.723229	4.27093	0	0	-0.238321	-0.179691	-0.145423	-0.278751	-0.313331	0.221418	-0.19042	0.952932	-0.486518	0.55129	-0.21529	0.829946	-0.276432	-0.117613	-0.166479	-0.52649	-0.146513	-0.109965	-0.01572	-0.761445	-0.400942	0.240912	-0.0963415	0.724005	-0.251568	0.038464	-0.0859235	0.636421	-0.454706	-0.0669265	0.058338	-0.46658	
0.718958	4.27093	0	0	-0.248538	-0.176524	-0.137097	-0.265759	-0.312132	0.218027	-0.18675	0.96275	-0.496319	0.549094	-0.218618	0.815241	-0.293243	-0.130476	-0.168381	-0.535263	-0.168104	-0.137993	-0.016626	-0.777354	-0.40768	0.219637	-0.103679	0.702793	-0.26063	0.019138	-0.0933657	0.621252	-0.465323	-0.0795918	0.047839	-0.45972	
0.715348	4.26788	0	0	-0.258755	-0.173357	-0.128772	-0.252768	-0.310932	0.214636	-0.18308	0.972569	-0.50612	0.546897	-0.221946	0.800536	-0.310055	-0.143339	-0.170283	-0.544036	-0.189695	-0.166021	-0.017532	-0.793262	-0.414417	0.198362	-0.111017	0.681581	-0.269691	-0.000188	-0.100808	0.606084	-0.47594	-0.092257	0.03734	-0.45286	
0.712784	4.26941	0	0	-0.26573	-0.179316	-0.125213	-0.244539	-0.323508	0.212435	-0.196032	0.968816	-0.50805	0.537422	-0.225279	0.785876	-0.324632	-0.162323	-0.174092	-0.561535	-0.1955	-0.208744	-0.0317885	-0.826663	-0.425078	0.188263	-0.121333	0.668881	-0.289042	-0.0126978	-0.109392	0.594213	-0.484293	-0.111224	0.044756	-0.451008	
0.711642	4.26636	0	0	-0.272706	-0.185275	-0.121654	-0.23631	-0.336083	0.210233	-0.208985	0.965062	-0.50998	0.527947	-0.228611	0.771215	-0.339209	-0.181306	-0.1779	-0.579033	-0.201305	-0.251468	-0.046045	-0.860064	-0.435739	0.178165	-0.13165	0.656181	-0.308394	-0.0252075	-0.117976	0.582343	-0.492645	-0.13019	0.052172	-0.449155	
0.71214	4.26788	0	0	-0.279682	-0.191234	-0.118095	-0.22808	-0.348658	0.208032	-0.221937	0.961309	-0.511911	0.518472	-0.231944	0.756555	-0.353785	-0.20029	-0.181709	-0.596532	-0.20711	-0.294191	-0.0603015	-0.893464	-0.446399	0.168066	-0.141966	0.643482	-0.327746	-0.0377173	-0.126561	0.570473	-0.500998	-0.149157	0.059588	-0.447302	
0.714332	4.26941	0	0	-0.286657	-0.197193	-0.114536	-0.219851	-0.361234	0.205831	-0.23489	0.957556	-0.513841	0.508997	-0.235277	0.741894	-0.368362	-0.219274	-0.185518	-0.614031	-0.212915	-0.336914	-0.074558	-0.926865	-0.45706	0.157967	-0.152282	0.630782	-0.347097	-0.050227	-0.135145	0.558602	-0.509351	-0.168124	0.067004	-0.44545	
0.718263	4.26483	0	0	-0.285585	-0.22586	-0.109759	-0.215046	-0.35795	0.177708	-0.232947	0.931918	-0.523548	0.476828	-0.247225	0.703608	-0.381498	-0.272056	-0.200776	-0.641382	-0.250844	-0.376729	-0.102649	-0.957469	-0.463909	0.117141	-0.173562	0.586693	-0.3651	-0.066305	-0.153421	0.538199	-0.534968	-0.180581	0.0549625	-0.43423	
0.723981	4.2633	0	0	-0.284513	-0.254527	-0.104983	-0.21024	-0.354666	0.149585	-0.231004	0.90628	-0.533255	0.444659	-0.259172	0.665321	-0.394634	-0.324838	-0.216033	-0.668733	-0.288772	-0.416543	-0.13074	-0.988074	-0.470757	0.076316	-0.194842	0.542604	-0.383104	-0.082383	-0.171696	0.517796	-0.560585	-0.193037	0.042921	-0.423011	
0.731531	4.26636	0	0	-0.283441	-0.283194	-0.100206	-0.205435	-0.351383	0.121462	-0.229061	0.880642	-0.542962	0.41249	-0.27112	0.627035	-0.40777	-0.377619	-0.231291	-0.696085	-0.326701	-0.456358	-0.158831	-1.01868	-0.477606	0.0354905	-0.216121	0.498514	-0.401108	-0.098461	-0.189972	0.497393	-0.586203	-0.205493	0.0308795	-0.411791	
0.740928	4.26483	0	0	-0.282369	-0.311861	-0.095429	-0.20063	-0.348099	0.093339	-0.227118	0.855004	-0.552669	0.380321	-0.283068	0.588748	-0.420906	-0.430401	-0.246549	-0.723436	-0.36463	-0.496173	-0.186922	-1.04928	-0.484454	-0.005335	-0.237401	0.454425	-0.419111	-0.114539	-0.208248	0.47699	-0.61182	-0.21795	0.018838	-0.400571	
0.751743	4.2633	0	0	-0.2947	-0.328182	-0.0894303	-0.19926	-0.357074	0.081078	-0.217845	0.848945	-0.570209	0.370479	-0.282582	0.563419	-0.442681	-0.458338	-0.262147	-0.73554	-0.381805	-0.535283	-0.194762	-1.06365	-0.501689	-0.0166115	-0.244724	0.433591	-0.431931	-0.122813	-0.208531	0.459822	-0.624583	-0.224162	0.0203805	-0.404931	
0.76321	4.26178	0	0	-0.307031	-0.344502	-0.0834315	-0.19789	-0.36605	0.068817	-0.208573	0.842886	-0.587749	0.360637	-0.282096	0.538089	-0.464455	-0.486274	-0.277745	-0.747643	-0.398981	-0.574392	-0.202602	-1.07801	-0.518925	-0.027888	-0.252046	0.412757	-0.444751	-0.131087	-0.208815	0.442654	-0.637347	-0.230373	0.021923	-0.40929	
0.774556	4.26178	0	0	-0.319362	-0.360822	-0.0774327	-0.196521	-0.375026	0.056556	-0.1993	0.836827	-0.605288	0.350796	-0.28161	0.51276	-0.486229	-0.514211	-0.293343	-0.759746	-0.416156	-0.613502	-0.210442	-1.09237	-0.53616	-0.0391645	-0.259369	0.391924	-0.457572	-0.139362	-0.209099	0.425485	-0.650111	-0.236585	0.0234655	-0.41365	
0.785005	4.26483	0	0	-0.331693	-0.377143	-0.071434	-0.195151	-0.384001	0.044295	-0.190028	0.830768	-0.622828	0.340954	-0.281124	0.48743	-0.508004	-0.542148	-0.308941	-0.77185	-0.433331	-0.652612	-0.218282	-1.10674	-0.553395	-0.050441	-0.266691	0.37109	-0.470392	-0.147636	-0.209382	0.408317	-0.662874	-0.242796	0.025008	-0.418009	
0.793786	4.26025	0	0	-0.335454	-0.392045	-0.0665667	-0.208906	-0.386702	0.033142	-0.196503	0.82892	-0.615021	0.333726	-0.281124	0.48743	-0.524618	-0.554605	-0.305528	-0.781496	-0.456742	-0.67369	-0.222763	-1.09407	-0.544202	-0.056448	-0.268163	0.375248	-0.461432	-0.150718	-0.203391	0.409356	-0.682291	-0.230109	0.0234655	-0.41365	
0.800125	4.26025	0	0	-0.339216	-0.406947	-0.0616995	-0.222661	-0.389402	0.021989	-0.202978	0.827072	-0.607214	0.326499	-0.281124	0.48743	-0.541233	-0.567062	-0.302115	-0.791142	-0.480152	-0.694768	-0.227245	-1.08141	-0.535009	-0.062455	-0.269634	0.379407	-0.452472	-0.1538	-0.197401	0.410396	-0.701707	-0.217421	0.021923	-0.40929	
0.803681	4.25873	0	0	-0.342977	-0.421849	-0.0568323	-0.236416	-0.392103	0.010836	-0.209452	0.825225	-0.599408	0.319271	-0.281124	0.48743	-0.557848	-0.579519	-0.298701	-0.800788	-0.503563	-0.715846	-0.231726	-1.06875	-0.525816	-0.068462	-0.271105	0.383566	-0.443513	-0.156882	-0.19141	0.411435	-0.721124	-0.204734	0.0203805	-0.404931	
0.805023	4.2572	0	0	-0.346738	-0.436751	-0.051965	-0.250171	-0.394804	-0.000317	-0.215927	0.823377	-0.591601	0.312044	-0.281124	0.48743	-0.574462	-0.591976	-0.295288	-0.810434	-0.526973	-0.736924	-0.236207	-1.05608	-0.516623	-0.074469	-0.272577	0.387724	-0.434553	-0.159964	-0.185419	0.412474	-0.740541	-0.192047	0.018838	-0.400571	
0.804838	4.26025	0	0	-0.348912	-0.456105	-0.0591115	-0.266602	-0.403765	-0.012506	-0.219099	0.792113	-0.584758	0.292705	-0.287849	0.458616	-0.575273	-0.619318	-0.287693	-0.817867	-0.546135	-0.769603	-0.232294	-1.04889	-0.527241	-0.0843862	-0.273299	0.369036	-0.433277	-0.16357	-0.190271	0.408215	-0.740541	-0.192047	0.00835175	-0.393719	
0.803815	4.26025	0	0	-0.351085	-0.475458	-0.066258	-0.283034	-0.412725	-0.024695	-0.222271	0.760849	-0.577916	0.273365	-0.294573	0.429801	-0.576085	-0.646659	-0.280099	-0.825299	-0.565297	-0.802282	-0.228382	-1.04169	-0.53786	-0.0943035	-0.274022	0.350348	-0.432001	-0.167177	-0.195122	0.403956	-0.740541	-0.192047	-0.0021345	-0.386867	
0.802641	4.26025	0	0	-0.353259	-0.494811	-0.0734045	-0.299465	-0.421686	-0.036884	-0.225443	0.729585	-0.571073	0.254026	-0.301298	0.400987	-0.576897	-0.674001	-0.272504	-0.832731	-0.584458	-0.834961	-0.224469	-1.0345	-0.548478	-0.104221	-0.274744	0.331659	-0.430725	-0.170783	-0.199973	0.399696	-0.740541	-0.192047	-0.0126207	-0.380015	
0.802003	4.25873	0	0	-0.355433	-0.514165	-0.080551	-0.315897	-0.430647	-0.049073	-0.228615	0.698321	-0.56423	0.234687	-0.308023	0.372173	-0.577708	-0.701343	-0.26491	-0.840164	-0.60362	-0.86764	-0.220556	-1.02731	-0.559096	-0.114138	-0.275466	0.312971	-0.429449	-0.174389	-0.204825	0.395437	-0.740541	-0.192047	-0.023107	-0.373163	
0.80248	4.2572	0	0	-0.369323	-0.525801	-0.0876943	-0.332266	-0.432166	-0.0635093	-0.235978	0.678989	-0.559351	0.220899	-0.309491	0.352459	-0.57855	-0.728553	-0.263774	-0.843376	-0.624793	-0.894232	-0.216641	-1.0201	-0.557955	-0.137293	-0.274739	0.29021	-0.43204	-0.189307	-0.212242	0.380512	-0.716668	-0.21733	-0.0320378	-0.370679	
0.80385	4.2572	0	0	-0.383213	-0.537436	-0.0948375	-0.348635	-0.433685	-0.0779455	-0.243341	0.659656	-0.554472	0.207111	-0.310959	0.332744	-0.579391	-0.755762	-0.262637	-0.846588	-0.645966	-0.920824	-0.212727	-1.01289	-0.556814	-0.160448	-0.274012	0.267448	-0.43463	-0.204225	-0.21966	0.365586	-0.692794	-0.242613	-0.0409685	-0.368195	
0.805531	4.26483	0	0	-0.397102	-0.549071	-0.101981	-0.365004	-0.435204	-0.0923817	-0.250704	0.640324	-0.549593	0.193322	-0.312428	0.313029	-0.580232	-0.782972	-0.261501	-0.8498	-0.667139	-0.947415	-0.208813	-1.00569	-0.555674	-0.183603	-0.273285	0.244687	-0.437221	-0.219143	-0.227077	0.350661	-0.668921	-0.267897	-0.0498993	-0.365711	
0.806938	4.2572	0	0	-0.410992	-0.560707	-0.109124	-0.381373	-0.436723	-0.106818	-0.258067	0.620992	-0.544714	0.179534	-0.313896	0.293315	-0.581074	-0.810181	-0.260365	-0.853012	-0.688312	-0.974007	-0.204898	-0.998481	-0.554533	-0.206758	-0.272558	0.221925	-0.439811	-0.234061	-0.234494	0.335736	-0.645047	-0.29318	-0.05883	-0.363227	
0.807488	4.26178	0	0	-0.411594	-0.584398	-0.107872	-0.403164	-0.445672	-0.118927	-0.259907	0.586138	-0.548619	0.175733	-0.310098	0.282581	-0.597638	-0.822405	-0.253903	-0.857235	-0.696232	-1.00902	-0.200982	-0.991262	-0.557267	-0.21894	-0.277692	0.21575	-0.434725	-0.248436	-0.235933	0.321885	-0.660013	-0.293071	-0.0646672	-0.369458	
0.806596	4.26178	0	0	-0.412196	-0.608089	-0.10662	-0.424954	-0.454622	-0.131035	-0.261748	0.551284	-0.552523	0.171932	-0.3063	0.271848	-0.614201	-0.83463	-0.24744	-0.861457	-0.704152	-1.04404	-0.197065	-0.984043	-0.560002	-0.231123	-0.282826	0.209576	-0.429638	-0.262811	-0.237372	0.308033	-0.674979	-0.292962	-0.0705045	-0.375688	
0.803691	4.26025	0	0	-0.412798	-0.63178	-0.105367	-0.446744	-0.463571	-0.143144	-0.263588	0.516429	-0.556428	0.168131	-0.302501	0.261114	-0.630764	-0.846854	-0.240978	-0.865679	-0.712072	-1.07905	-0.193149	-0.976825	-0.562736	-0.243306	-0.287959	0.203401	-0.424551	-0.277187	-0.23881	0.294181	-0.689945	-0.292853	-0.0763417	-0.381919	
0.798726	4.25873	0	0	-0.4134	-0.655471	-0.104115	-0.468535	-0.47252	-0.155253	-0.265428	0.481575	-0.560332	0.16433	-0.298703	0.25038	-0.647328	-0.859078	-0.234515	-0.869902	-0.719992	-1.11407	-0.189232	-0.969606	-0.56547	-0.255488	-0.293093	0.197226	-0.419465	-0.291562	-0.240249	0.28033	-0.704911	-0.292744	-0.082179	-0.38815	
0.792423	4.26178	0	0	-0.414025	-0.679063	-0.108867	-0.491556	-0.47052	-0.179578	-0.272385	0.441315	-0.5584	0.144045	-0.301706	0.211229	-0.657515	-0.889137	-0.229973	-0.882738	-0.752157	-1.13743	-0.193149	-0.976825	-0.564558	-0.297821	-0.291714	0.152029	-0.438684	-0.303805	-0.257328	0.2571	-0.719839	-0.292646	-0.0849365	-0.403058	
0.78556	4.25567	0	0	-0.41465	-0.702654	-0.113618	-0.514576	-0.468519	-0.203904	-0.279342	0.401054	-0.556467	0.123761	-0.304708	0.172078	-0.667702	-0.919196	-0.225431	-0.895574	-0.784323	-1.16079	-0.197065	-0.984043	-0.563646	-0.340155	-0.290334	0.106833	-0.457904	-0.316047	-0.274408	0.23387	-0.734768	-0.292548	-0.087694	-0.417965	
0.778917	4.2633	0	0	-0.415275	-0.726246	-0.118369	-0.537597	-0.466519	-0.228229	-0.286299	0.360794	-0.554535	0.103476	-0.30771	0.132928	-0.677889	-0.949256	-0.220889	-0.90841	-0.816488	-1.18416	-0.200982	-0.991262	-0.562734	-0.382488	-0.288955	0.0616358	-0.477123	-0.32829	-0.291488	0.210639	-0.749696	-0.29245	-0.0904515	-0.432872	
0.773273	4.25415	0	0	-0.4159	-0.749838	-0.123121	-0.560618	-0.464519	-0.252554	-0.293256	0.320534	-0.552602	0.083192	-0.310713	0.093777	-0.688076	-0.979315	-0.216347	-0.921246	-0.848653	-1.20752	-0.204898	-0.998481	-0.561822	-0.424821	-0.287576	0.016439	-0.496343	-0.340533	-0.308567	0.187409	-0.764624	-0.292352	-0.093209	-0.44778	
0.769405	4.2633	0	0	-0.409605	-0.767628	-0.131474	-0.573389	-0.467234	-0.263535	-0.297919	0.293872	-0.551658	0.0657107	-0.319403	0.0708223	-0.702461	-0.997324	-0.217142	-0.933042	-0.856557	-1.24206	-0.207316	-1.00992	-0.576454	-0.442945	-0.294951	-0.00392625	-0.486231	-0.369111	-0.311469	0.159965	-0.755754	-0.31742	-0.0990388	-0.453977	
0.767733	4.26178	0	0	-0.403311	-0.785418	-0.139827	-0.586159	-0.469949	-0.274515	-0.302582	0.267209	-0.550713	0.0482295	-0.328093	0.0478675	-0.716846	-1.01533	-0.217936	-0.944839	-0.864461	-1.27659	-0.209734	-1.02135	-0.591085	-0.46107	-0.302325	-0.0242915	-0.476119	-0.397689	-0.314372	0.13252	-0.746884	-0.342488	-0.104869	-0.460174	
0.767881	4.2633	0	0	-0.397016	-0.803208	-0.148181	-0.59893	-0.472664	-0.285496	-0.307245	0.240547	-0.549768	0.0307483	-0.336783	0.0249127	-0.731231	-1.03334	-0.21873	-0.956635	-0.872364	-1.31113	-0.212152	-1.03279	-0.605716	-0.479194	-0.3097	-0.0446567	-0.466007	-0.426266	-0.317275	0.105076	-0.738013	-0.367557	-0.110698	-0.46637	
0.769363	4.2572	0	0	-0.390721	-0.820998	-0.156534	-0.611701	-0.475379	-0.296476	-0.311908	0.213885	-0.548824	0.013267	-0.345473	0.001958	-0.745616	-1.05135	-0.219525	-0.968431	-0.880268	-1.34566	-0.21457	-1.04422	-0.620348	-0.497318	-0.317074	-0.065022	-0.455895	-0.454844	-0.320177	0.077631	-0.729143	-0.392625	-0.116528	-0.472567	
0.771694	4.25873	0	0	-0.404597	-0.832396	-0.146973	-0.638723	-0.481985	-0.315058	-0.317584	0.170325	-0.546926	-0.0068955	-0.350423	-0.0314472	-0.757877	-1.07518	-0.219194	-0.983397	-0.892225	-1.36857	-0.216991	-1.05563	-0.620564	-0.51649	-0.324449	-0.085295	-0.453372	-0.461974	-0.320518	0.0607958	-0.724717	-0.405133	-0.123884	-0.474423	
0.774389	4.26178	0	0	-0.418473	-0.843793	-0.137412	-0.665744	-0.48859	-0.333641	-0.323261	0.126765	-0.545029	-0.027058	-0.355372	-0.0648525	-0.770139	-1.099	-0.218863	-0.998362	-0.904183	-1.39148	-0.219412	-1.06704	-0.62078	-0.535662	-0.331825	-0.105568	-0.45085	-0.469105	-0.320858	0.0439605	-0.720291	-0.417641	-0.13124	-0.476279	
0.776962	4.25873	0	0	-0.432349	-0.85519	-0.12785	-0.692765	-0.495196	-0.352223	-0.328937	0.083205	-0.543131	-0.0472205	-0.360322	-0.0982577	-0.7824	-1.12283	-0.218533	-1.01333	-0.91614	-1.41438	-0.221833	-1.07845	-0.620997	-0.554833	-0.3392	-0.125841	-0.448327	-0.476235	-0.321198	0.0271252	-0.715866	-0.430149	-0.138596	-0.478135	
0.779015	4.25415	0	0	-0.446225	-0.866588	-0.118289	-0.719787	-0.501802	-0.370805	-0.334613	0.039645	-0.541234	-0.067383	-0.365272	-0.131663	-0.794662	-1.14666	-0.218202	-1.02829	-0.928097	-1.43729	-0.224254	-1.08986	-0.621213	-0.574005	-0.346575	-0.146114	-0.445804	-0.483365	-0.321539	0.01029	-0.71144	-0.442657	-0.145952	-0.479991	
0.780511	4.25873	0	0	-0.438397	-0.88871	-0.129039	-0.725715	-0.503355	-0.385014	-0.343044	0.0040585	-0.544229	-0.0884832	-0.379255	-0.163008	-0.793502	-1.17911	-0.217881	-1.04322	-0.936028	-1.4714	-0.230594	-1.10839	-0.624214	-0.605026	-0.356206	-0.180401	-0.443406	-0.512274	-0.331538	-0.0147432	-0.704813	-0.461386	-0.148709	-0.494818	
0.781508	4.2572	0	0	-0.43057	-0.910832	-0.139788	-0.731643	-0.504908	-0.399223	-0.351474	-0.031528	-0.547224	-0.109584	-0.393239	-0.194354	-0.792342	-1.21156	-0.21756	-1.05815	-0.943958	-1.50551	-0.236933	-1.12693	-0.627215	-0.636047	-0.365836	-0.214688	-0.441009	-0.541184	-0.341538	-0.0397765	-0.698186	-0.480114	-0.151466	-0.509645	
0.782065	4.26178	0	0	-0.422742	-0.932954	-0.150538	-0.737571	-0.506461	-0.413431	-0.359905	-0.0671145	-0.550219	-0.130684	-0.407223	-0.225699	-0.791181	-1.24401	-0.217238	-1.07308	-0.951889	-1.53963	-0.243273	-1.14546	-0.630217	-0.667068	-0.375467	-0.248975	-0.438611	-0.570093	-0.351537	-0.0648097	-0.691559	-0.498843	-0.154222	-0.524471	
0.782239	4.26178	0	0	-0.414915	-0.955076	-0.161287	-0.743499	-0.508014	-0.42764	-0.368335	-0.102701	-0.553214	-0.151784	-0.421206	-0.257044	-0.790021	-1.27646	-0.216917	-1.088	-0.95982	-1.57374	-0.249612	-1.16399	-0.633218	-0.698089	-0.385097	-0.283262	-0.436214	-0.599003	-0.361536	-0.089843	-0.684932	-0.517572	-0.156979	-0.539298	
0.782089	4.26025	0	0	-0.423413	-0.956314	-0.167249	-0.744777	-0.511903	-0.435229	-0.374417	-0.125016	-0.552314	-0.169093	-0.417224	-0.291861	-0.793048	-1.29703	-0.219983	-1.09335	-0.971762	-1.59635	-0.246103	-1.19211	-0.638766	-0.721828	-0.389625	-0.311356	-0.436357	-0.620705	-0.364497	-0.116919	-0.697648	-0.523632	-0.162793	-0.545457	
0.781672	4.25873	0	0	-0.431911	-0.957553	-0.17321	-0.746056	-0.515791	-0.442819	-0.380499	-0.147331	-0.551414	-0.186401	-0.413241	-0.326678	-0.796075	-1.3176	-0.22305	-1.09869	-0.983704	-1.61895	-0.242593	-1.22023	-0.644314	-0.745568	-0.394153	-0.33945	-0.4365	-0.642408	-0.367457	-0.143994	-0.710364	-0.529691	-0.168608	-0.551616	
0.781024	4.26025	0	0	-0.440409	-0.958791	-0.179172	-0.747335	-0.51968	-0.450408	-0.38658	-0.169645	-0.550513	-0.203709	-0.409259	-0.361495	-0.799103	-1.33817	-0.226116	-1.10403	-0.995647	-1.64156	-0.239084	-1.24834	-0.649863	-0.769307	-0.39868	-0.367545	-0.436644	-0.664111	-0.370418	-0.17107	-0.72308	-0.535751	-0.174422	-0.557774	
0.780172	4.25567	0	0	-0.448907	-0.960029	-0.185134	-0.748613	-0.523569	-0.457997	-0.392662	-0.19196	-0.549613	-0.221018	-0.405276	-0.396312	-0.80213	-1.35874	-0.229183	-1.10938	-1.00759	-1.66416	-0.235574	-1.27646	-0.655411	-0.793047	-0.403208	-0.395639	-0.436787	-0.685813	-0.373379	-0.198146	-0.735796	-0.541811	-0.180236	-0.563933	
0.779143	4.25567	0	0	-0.452715	-0.97449	-0.180377	-0.762057	-0.531341	-0.473134	-0.407513	-0.228745	-0.551679	-0.244672	-0.419291	-0.427212	-0.814406	-1.38216	-0.228874	-1.12425	-1.01951	-1.68664	-0.250289	-1.28936	-0.662223	-0.813131	-0.404921	-0.431599	-0.436787	-0.685813	-0.373761	-0.214762	-0.735796	-0.541811	-0.17871	-0.568246	
0.777964	4.2572	0	0	-0.456522	-0.98895	-0.175619	-0.775502	-0.539114	-0.488271	-0.422364	-0.26553	-0.553746	-0.268326	-0.433305	-0.458112	-0.826681	-1.40558	-0.228565	-1.13912	-1.03144	-1.70913	-0.265004	-1.30226	-0.669035	-0.833215	-0.406634	-0.467558	-0.436787	-0.685813	-0.374144	-0.231379	-0.735796	-0.541811	-0.177183	-0.572559	
0.776662	4.26178	0	0	-0.46033	-1.00341	-0.170862	-0.788946	-0.546886	-0.503409	-0.437214	-0.302315	-0.555813	-0.29198	-0.44732	-0.489011	-0.838956	-1.429	-0.228256	-1.15399	-1.04337	-1.73161	-0.279718	-1.31516	-0.675847	-0.853299	-0.408347	-0.503518	-0.436787	-0.685813	-0.374526	-0.247996	-0.735796	-0.541811	-0.175657	-0.576873	
0.775259	4.25415	0	0	-0.464137	-1.01787	-0.166105	-0.802391	-0.554658	-0.518546	-0.452065	-0.3391	-0.557879	-0.315634	-0.461334	-0.519911	-0.851232	-1.45242	-0.227947	-1.16887	-1.05529	-1.75409	-0.294433	-1.32806	-0.682659	-0.873383	-0.41006	-0.539478	-0.436787	-0.685813	-0.374908	-0.264612	-0.735796	-0.541811	-0.174131	-0.581186	
0.773715	4.25262	0	0	-0.45791	-1.03547	-0.170876	-0.807015	-0.555065	-0.535921	-0.446476	-0.374531	-0.556055	-0.33552	-0.455623	-0.559496	-0.856334	-1.46699	-0.223453	-1.18156	-1.0563	-1.77928	-0.290974	-1.35597	-0.685731	-0.903954	-0.411824	-0.575206	-0.438198	-0.703906	-0.380118	-0.285231	-0.731395	-0.554249	-0.179941	-0.587328	
0.771931	4.2511	0	0	-0.451684	-1.05307	-0.175648	-0.811639	-0.555472	-0.553295	-0.440887	-0.409963	-0.55423	-0.355406	-0.449911	-0.599081	-0.861437	-1.48156	-0.21896	-1.19426	-1.0573	-1.80446	-0.287515	-1.38387	-0.688804	-0.934524	-0.413587	-0.610933	-0.439609	-0.721998	-0.385328	-0.30585	-0.726994	-0.566688	-0.185752	-0.593469	
0.769801	4.25415	0	0	-0.445458	-1.07066	-0.18042	-0.816263	-0.555878	-0.570669	-0.435299	-0.445394	-0.552405	-0.375292	-0.444199	-0.638665	-0.86654	-1.49613	-0.214467	-1.20696	-1.05831	-1.82965	-0.284056	-1.41177	-0.691876	-0.965094	-0.415351	-0.64666	-0.441021	-0.740091	-0.390537	-0.326469	-0.722593	-0.579126	-0.191562	-0.599611	
0.767223	4.25415	0	0	-0.439231	-1.08826	-0.185191	-0.820887	-0.556285	-0.588044	-0.42971	-0.480825	-0.550581	-0.395178	-0.438488	-0.67825	-0.871642	-1.5107	-0.209973	-1.21966	-1.05932	-1.85483	-0.280597	-1.43967	-0.694948	-0.995665	-0.417115	-0.682388	-0.442432	-0.758184	-0.395747	-0.347088	-0.718192	-0.591564	-0.197372	-0.605753	
0.764093	4.25262	0	0	-0.446161	-1.09386	-0.191145	-0.822153	-0.560172	-0.595564	-0.439808	-0.491499	-0.550679	-0.409618	-0.443783	-0.6867	-0.863424	-1.53393	-0.211924	-1.22814	-1.05141	-1.87717	-0.283048	-1.45086	-0.687477	-1.01678	-0.418015	-0.700165	-0.437442	-0.772287	-0.395051	-0.366701	-0.696665	-0.610406	-0.194326	-0.614361	
0.760314	4.25262	0	0	-0.453091	-1.09946	-0.197099	-0.823419	-0.564059	-0.603083	-0.449905	-0.502174	-0.550777	-0.424059	-0.449078	-0.69515	-0.855205	-1.55715	-0.213875	-1.23661	-1.04351	-1.89952	-0.285498	-1.46204	-0.680007	-1.03789	-0.418916	-0.717943	-0.432452	-0.786389	-0.394355	-0.386313	-0.675137	-0.629249	-0.19128	-0.622969	
0.755985	4.2511	0	0	-0.460022	-1.10506	-0.203052	-0.824686	-0.567946	-0.610603	-0.460003	-0.512848	-0.550876	-0.438499	-0.454373	-0.703599	-0.846986	-1.58038	-0.215827	-1.24508	-1.0356	-1.92186	-0.287948	-1.47323	-0.672537	-1.059	-0.419817	-0.73572	-0.427462	-0.800492	-0.39366	-0.405926	-0.65361	-0.648092	-0.188235	-0.631576	
0.751444	4.25567	0	0	-0.466952	-1.11066	-0.209006	-0.825952	-0.571833	-0.618123	-0.470101	-0.523523	-0.550974	-0.452939	-0.459668	-0.712049	-0.838768	-1.6036	-0.217778	-1.25356	-1.0277	-1.9442	-0.290399	-1.48441	-0.665066	-1.08011	-0.420717	-0.753498	-0.422472	-0.814595	-0.392964	-0.425539	-0.632082	-0.666934	-0.185189	-0.640184	
0.747043	4.24957	0	0	-0.470774	-1.12501	-0.213768	-0.830568	-0.569949	-0.641935	-0.481261	-0.550646	-0.553095	-0.476347	-0.45586	-0.746195	-0.855147	-1.61516	-0.218612	-1.26518	-1.04556	-1.94966	-0.289919	-1.50386	-0.671922	-1.09991	-0.417423	-0.783107	-0.421226	-0.818117	-0.402587	-0.433584	-0.670697	-0.641703	-0.185189	-0.640184	
0.743137	4.2511	0	0	-0.474596	-1.13936	-0.21853	-0.835184	-0.568064	-0.665747	-0.492422	-0.577768	-0.555215	-0.499755	-0.452052	-0.780341	-0.871527	-1.62671	-0.219445	-1.2768	-1.06341	-1.95512	-0.28944	-1.52331	-0.678778	-1.11971	-0.41413	-0.812717	-0.419979	-0.821639	-0.41221	-0.44163	-0.709312	-0.616471	-0.185189	-0.640184	
0.740079	4.25415	0	0	-0.478418	-1.15372	-0.223292	-0.839799	-0.56618	-0.689559	-0.503582	-0.60489	-0.557336	-0.523163	-0.448244	-0.814487	-0.887907	-1.63826	-0.220278	-1.28842	-1.08127	-1.96059	-0.288961	-1.54275	-0.685633	-1.1395	-0.410836	-0.842326	-0.418733	-0.825162	-0.421834	-0.449676	-0.747926	-0.591239	-0.185189	-0.640184	
0.738204	4.24957	0	0	-0.48224	-1.16807	-0.228054	-0.844415	-0.564296	-0.713371	-0.514742	-0.632013	-0.559457	-0.546571	-0.444436	-0.848633	-0.904286	-1.64982	-0.221112	-1.30005	-1.09913	-1.96605	-0.288481	-1.5622	-0.692489	-1.1593	-0.407542	-0.871935	-0.417486	-0.828684	-0.431457	-0.457721	-0.786541	-0.566008	-0.185189	-0.640184	
0.737498	4.24957	0	0	-0.474504	-1.18993	-0.232812	-0.849025	-0.564736	-0.730595	-0.511896	-0.659571	-0.556737	-0.568942	-0.442491	-0.877485	-0.898156	-1.66714	-0.215522	-1.31584	-1.09126	-1.98828	-0.300716	-1.56375	-0.690356	-1.18488	-0.413611	-0.895317	-0.427823	-0.843554	-0.436682	-0.47813	-0.758478	-0.603417	-0.199838	-0.643828	
0.737601	4.24957	0	0	-0.466769	-1.21179	-0.237571	-0.853635	-0.565177	-0.747818	-0.509049	-0.68713	-0.554016	-0.591313	-0.440546	-0.906338	-0.892026	-1.68446	-0.209932	-1.33164	-1.0834	-2.01051	-0.312952	-1.5653	-0.688222	-1.21046	-0.419681	-0.918699	-0.438161	-0.858424	-0.441908	-0.498538	-0.730414	-0.640826	-0.214486	-0.647473	
0.738142	4.24499	0	0	-0.459033	-1.23365	-0.242329	-0.858244	-0.565617	-0.765042	-0.506202	-0.714689	-0.551296	-0.613683	-0.4386	-0.935191	-0.885896	-1.70179	-0.204342	-1.34744	-1.07553	-2.03274	-0.325187	-1.56686	-0.686089	-1.23605	-0.42575	-0.942081	-0.448498	-0.873294	-0.447133	-0.518947	-0.702351	-0.678234	-0.229135	-0.651117	
0.738749	4.24805	0	0	-0.451298	-1.25551	-0.247087	-0.862854	-0.566058	-0.782266	-0.503356	-0.742247	-0.548576	-0.636054	-0.436655	-0.964043	-0.879766	-1.71911	-0.198752	-1.36324	-1.06767	-2.05497	-0.337423	-1.56841	-0.683956	-1.26163	-0.431819	-0.965463	-0.458835	-0.888164	-0.452358	-0.539356	-0.674288	-0.715643	-0.243784	-0.654761	
0.739049	4.24805	0	0	-0.453601	-1.27412	-0.239994	-0.8829	-0.565364	-0.802678	-0.5082	-0.767524	-0.541958	-0.654757	-0.441966	-0.97236	-0.873648	-1.7364	-0.199601	-1.37481	-1.06178	-2.0716	-0.333035	-1.58081	-0.685546	-1.27667	-0.423455	-0.989099	-0.451391	-0.909202	-0.449515	-0.564955	-0.687006	-0.721602	-0.23923	-0.667633	
0.738688	4.24805	0	0	-0.455904	-1.29273	-0.232901	-0.902946	-0.564669	-0.82309	-0.513043	-0.792801	-0.53534	-0.673459	-0.447277	-0.980676	-0.86753	-1.75369	-0.200449	-1.38638	-1.05589	-2.08824	-0.328647	-1.59321	-0.687136	-1.29171	-0.415092	-1.01274	-0.443947	-0.93024	-0.446671	-0.590553	-0.699724	-0.72756	-0.234675	-0.680504	
0.737571	4.24652	0	0	-0.458208	-1.31134	-0.225808	-0.922992	-0.563975	-0.843503	-0.517887	-0.818077	-0.528723	-0.692162	-0.452588	-0.988992	-0.861412	-1.77098	-0.201297	-1.39795	-1.05001	-2.10487	-0.32426	-1.60561	-0.688726	-1.30675	-0.406729	-1.03637	-0.436503	-0.951278	-0.443828	-0.616151	-0.712443	-0.733519	-0.230121	-0.693375	
0.735802	4.24652	0	0	-0.460511	-1.32995	-0.218715	-0.943038	-0.563281	-0.863915	-0.522731	-0.843354	-0.522105	-0.710865	-0.457899	-0.997309	-0.855294	-1.78828	-0.202146	-1.40952	-1.04412	-2.12151	-0.319872	-1.61801	-0.690316	-1.32179	-0.398365	-1.06001	-0.429059	-0.972316	-0.440985	-0.64175	-0.725161	-0.739477	-0.225567	-0.706247	
0.733492	4.24347	0	0	-0.462826	-1.3485	-0.218762	-0.960943	-0.568795	-0.88518	-0.522392	-0.883197	-0.524292	-0.734015	-0.464909	-1.02406	-0.856374	-1.81408	-0.199662	-1.43049	-1.06196	-2.12687	-0.314031	-1.63452	-0.69352	-1.35174	-0.395174	-1.08926	-0.43176	-0.986687	-0.439259	-0.664174	-0.703689	-0.758257	-0.238672	-0.714144	
0.730753	4.24652	0	0	-0.46514	-1.36704	-0.218809	-0.978849	-0.574308	-0.906444	-0.522053	-0.92304	-0.526479	-0.757165	-0.471919	-1.05081	-0.857453	-1.83988	-0.197178	-1.45147	-1.07979	-2.13223	-0.30819	-1.65102	-0.696724	-1.3817	-0.391983	-1.11851	-0.43446	-1.00106	-0.437533	-0.686599	-0.682217	-0.777037	-0.251777	-0.722042	
0.727692	4.24805	0	0	-0.467454	-1.38558	-0.218857	-0.996754	-0.579821	-0.927708	-0.521713	-0.962882	-0.528667	-0.780315	-0.478929	-1.07756	-0.858533	-1.86568	-0.194695	-1.47245	-1.09763	-2.1376	-0.302349	-1.66753	-0.699927	-1.41165	-0.388792	-1.14777	-0.437161	-1.01543	-0.435807	-0.709023	-0.660746	-0.795817	-0.264883	-0.729939	
0.724502	4.24499	0	0	-0.469769	-1.40413	-0.218904	-1.01466	-0.585335	-0.948973	-0.521374	-1.00273	-0.530854	-0.803465	-0.485939	-1.10432	-0.859613	-1.89149	-0.192211	-1.49343	-1.11546	-2.14296	-0.296508	-1.68404	-0.703131	-1.4416	-0.385601	-1.17702	-0.439861	-1.0298	-0.434081	-0.731447	-0.639274	-0.814597	-0.277988	-0.737837	
0.721988	4.24652	0	0	-0.459034	-1.43447	-0.218965	-1.03251	-0.57507	-0.977984	-0.524979	-1.03134	-0.533061	-0.826515	-0.48407	-1.13284	-0.864765	-1.90574	-0.196161	-1.51014	-1.10765	-2.16504	-0.297524	-1.69921	-0.707586	-1.46793	-0.391742	-1.20007	-0.446509	-1.05494	-0.444158	-0.755508	-0.664717	-0.826402	-0.27043	-0.759197	
0.721249	4.24499	0	0	-0.448299	-1.46481	-0.219026	-1.05036	-0.564805	-1.007	-0.528583	-1.05996	-0.535267	-0.849565	-0.482201	-1.16136	-0.869917	-1.91999	-0.200111	-1.52686	-1.09984	-2.18711	-0.298541	-1.71437	-0.712042	-1.49427	-0.397883	-1.22311	-0.453156	-1.08008	-0.454236	-0.779569	-0.69016	-0.838207	-0.262872	-0.780556	
0.723383	4.24499	0	0	-0.437564	-1.49514	-0.219087	-1.06821	-0.554539	-1.03601	-0.532188	-1.08857	-0.537474	-0.872614	-0.480332	-1.18988	-0.875069	-1.93424	-0.204062	-1.54358	-1.09202	-2.20919	-0.299558	-1.72954	-0.716498	-1.5206	-0.404023	-1.24616	-0.459804	-1.10522	-0.464313	-0.80363	-0.715604	-0.850011	-0.255314	-0.801916	
0.72949	4.24499	0	0	-0.426829	-1.52548	-0.219148	-1.08606	-0.544274	-1.06502	-0.535793	-1.11719	-0.53968	-0.895664	-0.478463	-1.2184	-0.880221	-1.94849	-0.208012	-1.5603	-1.08421	-2.23127	-0.300574	-1.74471	-0.720953	-1.54693	-0.410164	-1.26921	-0.466452	-1.13036	-0.47439	-0.827691	-0.741047	-0.861816	-0.247756	-0.823276	
0.740667	4.24499	0	0	-0.433769	-1.53092	-0.212108	-1.10596	-0.544779	-1.08198	-0.533093	-1.14419	-0.540791	-0.907151	-0.483776	-1.2266	-0.887393	-1.95698	-0.20667	-1.57802	-1.07836	-2.24779	-0.309886	-1.75442	-0.714854	-1.56417	-0.413927	-1.27874	-0.459075	-1.15121	-0.472708	-0.849927	-0.715283	-0.892822	-0.252045	-0.833583	
0.757539	4.24347	0	0	-0.440709	-1.53636	-0.205067	-1.12585	-0.545285	-1.09895	-0.530394	-1.17119	-0.541901	-0.918639	-0.489089	-1.23479	-0.894565	-1.96548	-0.205327	-1.59574	-1.07252	-2.26432	-0.319198	-1.76413	-0.708755	-1.58141	-0.41769	-1.28828	-0.451697	-1.17206	-0.471025	-0.872162	-0.689518	-0.923828	-0.256333	-0.843889	
0.77763	4.24347	0	0	-0.447649	-1.5418	-0.198026	-1.14575	-0.545791	-1.11592	-0.527694	-1.19819	-0.543011	-0.930126	-0.494401	-1.24299	-0.901737	-1.97397	-0.203984	-1.61346	-1.06667	-2.28084	-0.328509	-1.77384	-0.702656	-1.59864	-0.421453	-1.29781	-0.44432	-1.19291	-0.469342	-0.894398	-0.663753	-0.954833	-0.260622	-0.854196	
0.797224	4.24194	0	0	-0.454589	-1.54723	-0.190986	-1.16565	-0.546296	-1.13288	-0.524995	-1.22519	-0.544122	-0.941614	-0.499714	-1.25118	-0.908909	-1.98247	-0.202642	-1.63118	-1.06083	-2.29736	-0.337821	-1.78354	-0.696557	-1.61588	-0.425216	-1.30734	-0.436943	-1.21376	-0.46766	-0.916634	-0.637989	-0.985839	-0.264911	-0.864503	
0.812602	4.24194	0	0	-0.459994	-1.55697	-0.192248	-1.18009	-0.547946	-1.1466	-0.531226	-1.24626	-0.544303	-0.955717	-0.501454	-1.26944	-0.912042	-2.00234	-0.208817	-1.64155	-1.06779	-2.30549	-0.340296	-1.79454	-0.689253	-1.63652	-0.419706	-1.32292	-0.438171	-1.21029	-0.465502	-0.922732	-0.637989	-0.985839	-0.272208	-0.86628	
0.820046	4.24194	0	0	-0.4654	-1.56672	-0.19351	-1.19453	-0.549597	-1.16031	-0.537457	-1.26734	-0.544484	-0.96982	-0.503194	-1.28771	-0.915175	-2.0222	-0.214992	-1.65192	-1.07476	-2.31361	-0.342771	-1.80553	-0.68195	-1.65716	-0.414196	-1.33849	-0.4394	-1.20682	-0.463345	-0.92883	-0.637989	-0.985839	-0.279505	-0.868057	
0.815836	4.24194	0	0	-0.470805	-1.57646	-0.194771	-1.20896	-0.551247	-1.17402	-0.543687	-1.28841	-0.544664	-0.983923	-0.504933	-1.30597	-0.918307	-2.04207	-0.221167	-1.66228	-1.08173	-2.32174	-0.345246	-1.81652	-0.674647	-1.6778	-0.408686	-1.35406	-0.440628	-1.20335	-0.461187	-0.934928	-0.637989	-0.985839	-0.286803	-0.869833	
0.796406	4.24042	0	0	-0.47621	-1.5862	-0.196033	-1.2234	-0.552897	-1.18774	-0.549918	-1.30948	-0.544845	-0.998026	-0.506673	-1.32424	-0.92144	-2.06194	-0.227342	-1.67265	-1.0887	-2.32986	-0.347721	-1.82751	-0.667343	-1.69844	-0.403176	-1.36963	-0.441856	-1.19988	-0.459029	-0.941026	-0.637989	-0.985839	-0.2941	-0.87161	
0.764368	4.24042	0	0	-0.461646	-1.60234	-0.201974	-1.2246	-0.548367	-1.20054	-0.551114	-1.32541	-0.546899	-1.00682	-0.511983	-1.33238	-0.915404	-2.079	-0.224032	-1.68201	-1.0976	-2.33249	-0.347307	-1.84666	-0.679148	-1.70393	-0.404201	-1.38688	-0.443359	-1.21755	-0.467557	-0.951837	-0.65506	-0.979402	-0.288084	-0.888613	
0.730532	4.24042	0	0	-0.447081	-1.61849	-0.207914	-1.2258	-0.543837	-1.21335	-0.552311	-1.34134	-0.548953	-1.01562	-0.517294	-1.34052	-0.909367	-2.09606	-0.220723	-1.69136	-1.1065	-2.33511	-0.346892	-1.8658	-0.690952	-1.70941	-0.405227	-1.40413	-0.444862	-1.23523	-0.476085	-0.962649	-0.672131	-0.972964	-0.282068	-0.905615	
0.706277	4.24194	0	0	-0.432516	-1.63463	-0.213855	-1.227	-0.539306	-1.22615	-0.553508	-1.35727	-0.551007	-1.02442	-0.522604	-1.34867	-0.903331	-2.11312	-0.217413	-1.70071	-1.1154	-2.33774	-0.346477	-1.88494	-0.702757	-1.71489	-0.406252	-1.42138	-0.446364	-1.25291	-0.484612	-0.97346	-0.689203	-0.966526	-0.276051	-0.922617	
0.702978	4.23889	0	0	-0.417952	-1.65078	-0.219795	-1.2282	-0.534776	-1.23895	-0.554704	-1.3732	-0.553061	-1.03322	-0.527914	-1.35681	-0.897295	-2.13018	-0.214104	-1.71006	-1.1243	-2.34036	-0.346063	-1.90408	-0.714561	-1.72037	-0.407278	-1.43863	-0.447867	-1.27059	-0.49314	-0.984271	-0.706274	-0.960089	-0.270035	-0.93962	
0.732013	4.24042	0	0	-0.421002	-1.64216	-0.212685	-1.2303	-0.535908	-1.23575	-0.555984	-1.36958	-0.54634	-1.03761	-0.529695	-1.35178	-0.895285	-2.13586	-0.220499	-1.70589	-1.12236	-2.34584	-0.341729	-1.91633	-0.704413	-1.72964	-0.405906	-1.4425	-0.446642	-1.27405	-0.490989	-0.99035	-0.704104	-0.96622	-0.280332	-0.932892	
0.804759	4.23889	0	0	-0.424052	-1.63354	-0.205575	-1.23241	-0.53704	-1.23255	-0.557265	-1.36597	-0.539619	-1.042	-0.531476	-1.34675	-0.893276	-2.14153	-0.226894	-1.70171	-1.12042	-2.35133	-0.337396	-1.92858	-0.694265	-1.73891	-0.404533	-1.44638	-0.445417	-1.27751	-0.488838	-0.99643	-0.701935	-0.972352	-0.290629	-0.926164	
0.92767	4.23889	0	0	-0.427103	-1.62492	-0.198466	-1.23452	-0.538172	-1.22936	-0.558546	-1.36235	-0.532898	-1.04639	-0.533257	-1.34171	-0.891266	-2.14721	-0.233289	-1.69753	-1.11848	-2.35681	-0.333062	-1.94082	-0.684118	-1.74818	-0.403161	-1.45026	-0.444192	-1.28098	-0.486687	-1.00251	-0.699766	-0.978484	-0.300927	-0.919435	
1.04944	4.24194	0	0	-0.430153	-1.6163	-0.191356	-1.23662	-0.539304	-1.22616	-0.559826	-1.35873	-0.526177	-1.05078	-0.535038	-1.33668	-0.889257	-2.15289	-0.239684	-1.69335	-1.11654	-2.3623	-0.328728	-1.95307	-0.67397	-1.75744	-0.401789	-1.45414	-0.442967	-1.28444	-0.484536	-1.00859	-0.697596	-0.984615	-0.311224	-0.912707	
1.08121	4.23889	0	0	-0.431679	-1.61198	-0.201974	-1.2246	-0.539304	-1.22616	-0.567424	-1.35654	-0.534764	-1.04112	-0.53682	-1.33164	-0.902456	-2.14427	-0.235495	-1.6913	-1.11848	-2.35681	-0.323346	-1.95031	-0.681257	-1.73685	-0.39801	-1.44467	-0.441461	-1.26677	-0.469036	-1	-0.706283	-0.960063	-0.305438	-0.906687	
0.933516	4.23736	0	0	-0.433205	-1.60767	-0.212591	-1.21258	-0.539304	-1.22616	-0.575022	-1.35436	-0.543351	-1.03145	-0.538601	-1.32661	-0.915655	-2.13565	-0.231306	-1.68924	-1.12042	-2.35133	-0.317964	-1.94755	-0.688543	-1.71626	-0.39423	-1.43521	-0.439955	-1.2491	-0.453535	-0.991417	-0.71497	-0.935512	-0.299651	-0.900666	
0.517035	4.23584	0	0	-0.434731	-1.60336	-0.223209	-1.20056	-0.539304	-1.22616	-0.582621	-1.35218	-0.551937	-1.02179	-0.540383	-1.32157	-0.928853	-2.12702	-0.227117	-1.68718	-1.12236	-2.34584	-0.312581	-1.94479	-0.69583	-1.69566	-0.39045	-1.42574	-0.438449	-1.23143	-0.438034	-0.982831	-0.723658	-0.910961	-0.293865	-0.894645	
-0.00412321	4.23736	0	0	-0.436257	-1.59904	-0.233826	-1.18854	-0.539304	-1.22616	-0.590219	-1.35	-0.560524	-1.01212	-0.542165	-1.31654	-0.942052	-2.1184	-0.222928	-1.68513	-1.1243	-2.34036	-0.307199	-1.94203	-0.703117	-1.67507	-0.386671	-1.41628	-0.436943	-1.21376	-0.422534	-0.974245	-0.732345	-0.886409	-0.288079	-0.888625	
-0.113417	4.23736	0	0	-0.42931	-1.59362	-0.221944	-1.18613	-0.534244	-1.22208	-0.567399	-1.35656	-0.55567	-1.01124	-0.542165	-1.31654	-0.944061	-2.11272	-0.223155	-1.67058	-1.12624	-2.33487	-0.304706	-1.9311	-0.696606	-1.67404	-0.386671	-1.41628	-0.434217	-1.19951	-0.427929	-0.958997	-0.719634	-0.880525	-0.283794	-0.878335	
0.0783816	4.23889	0	0	-0.422364	-1.58821	-0.210062	-1.18372	-0.529184	-1.218	-0.544578	-1.36312	-0.550817	-1.01035	-0.542165	-1.31654	-0.946071	-2.10704	-0.223382	-1.65603	-1.12819	-2.32939	-0.302212	-1.92016	-0.690095	-1.67301	-0.386671	-1.41628	-0.431492	-1.18527	-0.433324	-0.94375	-0.706923	-0.87464	-0.279509	-0.868044	
0.378104	4.23431	0	0	-0.415417	-1.58279	-0.19818	-1.18131	-0.524124	-1.21392	-0.521757	-1.36968	-0.545963	-1.00947	-0.542165	-1.31654	-0.94808	-2.10136	-0.22361	-1.64149	-1.13013	-2.3239	-0.299718	-1.90922	-0.683584	-1.67198	-0.386671	-1.41628	-0.428766	-1.17102	-0.438719	-0.928502	-0.694211	-0.868756	-0.275225	-0.857754	
0.611155	4.23279	0	0	-0.40847	-1.57737	-0.186298	-1.1789	-0.519064	-1.20985	-0.498937	-1.37624	-0.541109	-1.00858	-0.542165	-1.31654	-0.95009	-2.09568	-0.223837	-1.62694	-1.13207	-2.31841	-0.297225	-1.89828	-0.677073	-1.67094	-0.386671	-1.41628	-0.42604	-1.15677	-0.444114	-0.913254	-0.6815	-0.862871	-0.27094	-0.847464	
0.740191	4.23431	0	0	-0.389953	-1.5795	-0.186216	-1.16111	-0.50893	-1.20168	-0.492673	-1.35522	-0.539991	-0.99713	-0.529764	-1.30525	-0.940914	-2.09293	-0.213467	-1.61447	-1.12317	-2.31578	-0.279587	-1.89406	-0.666467	-1.66199	-0.382891	-1.40679	-0.432201	-1.13936	-0.434487	-0.905451	-0.666576	-0.863146	-0.278487	-0.826134	
0.789388	4.23889	0	0	-0.371437	-1.58162	-0.186134	-1.14332	-0.498796	-1.19351	-0.48641	-1.3342	-0.538872	-0.985677	-0.517364	-1.29396	-0.931739	-2.09019	-0.203097	-1.602	-1.11427	-2.31315	-0.26195	-1.88984	-0.655861	-1.65304	-0.379111	-1.3973	-0.438362	-1.12194	-0.42486	-0.897649	-0.651652	-0.863421	-0.286034	-0.804805	
0.783211	4.23889	0	0	-0.35292	-1.58375	-0.186051	-1.12553	-0.488663	-1.18534	-0.480147	-1.31318	-0.537754	-0.974224	-0.504964	-1.28268	-0.922563	-2.08744	-0.192726	-1.58953	-1.10537	-2.31052	-0.244312	-1.88562	-0.645255	-1.64409	-0.375332	-1.38782	-0.444523	-1.10453	-0.415233	-0.889846	-0.636728	-0.863696	-0.293581	-0.783475	
0.746125	4.24347	0	0	-0.334403	-1.58588	-0.185969	-1.10774	-0.478529	-1.17717	-0.473883	-1.29216	-0.536636	-0.96277	-0.492563	-1.27139	-0.913387	-2.0847	-0.182356	-1.57706	-1.09648	-2.30789	-0.226674	-1.8814	-0.634649	-1.63514	-0.371552	-1.37833	-0.450684	-1.08712	-0.405606	-0.882043	-0.621804	-0.863971	-0.301128	-0.762146	
0.702583	4.23889	0	0	-0.330491	-1.57178	-0.17759	-1.09532	-0.470654	-1.16254	-0.468916	-1.26739	-0.527671	-0.944194	-0.487312	-1.23978	-0.921448	-2.06192	-0.174192	-1.55826	-1.09536	-2.28322	-0.213346	-1.86485	-0.633817	-1.59849	-0.358826	-1.35366	-0.445278	-1.05842	-0.402475	-0.855815	-0.615596	-0.839519	-0.299887	-0.743228	
0.670554	4.23584	0	0	-0.326578	-1.55768	-0.16921	-1.08291	-0.462779	-1.14791	-0.46395	-1.24262	-0.518706	-0.925619	-0.482061	-1.20817	-0.929509	-2.03913	-0.166028	-1.53947	-1.09425	-2.25855	-0.200018	-1.84829	-0.632985	-1.56183	-0.346101	-1.32899	-0.439871	-1.02972	-0.399344	-0.829588	-0.609388	-0.815067	-0.298645	-0.72431	
0.650649	4.23584	0	0	-0.322666	-1.54359	-0.16083	-1.0705	-0.454904	-1.13329	-0.458983	-1.21786	-0.509742	-0.907043	-0.476811	-1.17657	-0.937571	-2.01635	-0.157864	-1.52067	-1.09313	-2.23388	-0.18669	-1.83173	-0.632152	-1.52518	-0.333375	-1.30432	-0.434465	-1.00102	-0.396213	-0.80336	-0.60318	-0.790615	-0.297403	-0.705392	
0.640603	4.23431	0	0	-0.318754	-1.52949	-0.152451	-1.05808	-0.447029	-1.11866	-0.454016	-1.19309	-0.500777	-0.888467	-0.47156	-1.14496	-0.945632	-1.99357	-0.1497	-1.50187	-1.09202	-2.20921	-0.173362	-1.81518	-0.63132	-1.48852	-0.320649	-1.27965	-0.429059	-0.972316	-0.393082	-0.777132	-0.596972	-0.766163	-0.296162	-0.686474	
0.638154	4.23279	0	0	-0.323361	-1.51647	-0.148847	-1.05019	-0.444229	-1.1081	-0.445176	-1.17919	-0.50249	-0.868965	-0.480555	-1.11954	-0.942519	-1.97365	-0.145742	-1.48509	-1.09289	-2.1789	-0.165856	-1.78201	-0.620302	-1.461	-0.326582	-1.24262	-0.417249	-0.939526	-0.386243	-0.74372	-0.616756	-0.710249	-0.284587	-0.674251	
0.641038	4.23584	0	0	-0.327969	-1.50345	-0.145243	-1.0423	-0.44143	-1.09755	-0.436335	-1.16529	-0.504204	-0.849463	-0.48955	-1.09411	-0.939405	-1.95373	-0.141784	-1.46831	-1.09375	-2.14858	-0.15835	-1.74884	-0.609283	-1.43348	-0.332514	-1.2056	-0.40544	-0.906737	-0.379405	-0.710309	-0.63654	-0.654336	-0.273012	-0.662029	
0.647253	4.23279	0	0	-0.332576	-1.49043	-0.141639	-1.03442	-0.438631	-1.08699	-0.427495	-1.15139	-0.505917	-0.829962	-0.498545	-1.06869	-0.936291	-1.9338	-0.137827	-1.45152	-1.09462	-2.11826	-0.150844	-1.71567	-0.598264	-1.40595	-0.338446	-1.16858	-0.39363	-0.873947	-0.372566	-0.676897	-0.656325	-0.598423	-0.261437	-0.649806	
0.655812	4.23889	0	0	-0.337184	-1.47741	-0.138035	-1.02653	-0.435831	-1.07643	-0.418655	-1.13749	-0.50763	-0.81046	-0.50754	-1.04327	-0.933178	-1.91388	-0.133869	-1.43474	-1.09549	-2.08794	-0.143338	-1.6825	-0.587246	-1.37843	-0.344379	-1.13155	-0.38182	-0.841158	-0.365727	-0.643485	-0.676109	-0.542509	-0.249862	-0.637583	
0.665973	4.23126	0	0	-0.340259	-1.46871	-0.142757	-1.01318	-0.442686	-1.05706	-0.406024	-1.11471	-0.503547	-0.792646	-0.500555	-1.01645	-0.930076	-1.89388	-0.131037	-1.41474	-1.08157	-2.07144	-0.134384	-1.65327	-0.589338	-1.35292	-0.336844	-1.11227	-0.390558	-0.816464	-0.36747	-0.620946	-0.665569	-0.530204	-0.247111	-0.622848	
0.676998	4.23126	0	0	-0.343335	-1.46002	-0.147478	-0.999839	-0.449541	-1.03769	-0.393393	-1.09192	-0.499463	-0.774832	-0.493569	-0.989627	-0.926975	-1.87388	-0.128204	-1.39474	-1.06765	-2.05493	-0.125431	-1.62403	-0.591431	-1.32741	-0.32931	-1.09299	-0.399296	-0.791769	-0.369213	-0.598407	-0.655029	-0.5179	-0.244361	-0.608113	
0.688147	4.23431	0	0	-0.346411	-1.45133	-0.152199	-0.986495	-0.456395	-1.01832	-0.380761	-1.06914	-0.49538	-0.757017	-0.486584	-0.962805	-0.923874	-1.85388	-0.125371	-1.37473	-1.05373	-2.03842	-0.116477	-1.5948	-0.593524	-1.3019	-0.321775	-1.0737	-0.408033	-0.767074	-0.370956	-0.575869	-0.644489	-0.505595	-0.241611	-0.593379	
0.698688	4.22974	0	0	-0.349486	-1.44264	-0.156921	-0.973151	-0.46325	-0.998943	-0.36813	-1.04636	-0.491296	-0.739203	-0.479598	-0.935983	-0.920772	-1.83388	-0.122539	-1.35473	-1.03981	-2.02192	-0.107523	-1.56556	-0.595616	-1.27639	-0.31424	-1.05442	-0.416771	-0.74238	-0.372699	-0.55333	-0.633949	-0.493291	-0.23886	-0.578644	
0.708157	4.23584	0	0	-0.342512	-1.43716	-0.153323	-0.965228	-0.455387	-0.984173	-0.369722	-1.00277	-0.483288	-0.717717	-0.476264	-0.898726	-0.917683	-1.8138	-0.117474	-1.34099	-1.02981	-1.99417	-0.0985785	-1.53614	-0.583379	-1.25207	-0.301533	-1.0293	-0.414105	-0.727808	-0.364145	-0.542229	-0.64059	-0.474523	-0.231537	-0.576805	
0.716383	4.23736	0	0	-0.335539	-1.43168	-0.149725	-0.957305	-0.447524	-0.969402	-0.371314	-0.959185	-0.475279	-0.69623	-0.472929	-0.861468	-0.914594	-1.79372	-0.112409	-1.32726	-1.01981	-1.96642	-0.089634	-1.50672	-0.571141	-1.22774	-0.288826	-1.00418	-0.411439	-0.713235	-0.355591	-0.531127	-0.647231	-0.455754	-0.224214	-0.574966	
0.723213	4.23584	0	0	-0.328566	-1.4262	-0.146127	-0.949381	-0.439661	-0.954632	-0.372907	-0.915596	-0.467271	-0.674743	-0.469595	-0.824211	-0.911504	-1.77364	-0.107344	-1.31352	-1.0098	-1.93866	-0.0806895	-1.47729	-0.558904	-1.20341	-0.276118	-0.979054	-0.408773	-0.698662	-0.347037	-0.520026	-0.653872	-0.436986	-0.21689	-0.573127	
0.728492	4.23584	0	0	-0.321592	-1.42073	-0.142529	-0.941458	-0.431798	-0.939862	-0.374499	-0.872008	-0.459263	-0.653257	-0.46626	-0.786954	-0.908415	-1.75356	-0.102279	-1.29979	-0.999802	-1.91091	-0.071745	-1.44787	-0.546667	-1.17909	-0.263411	-0.953932	-0.406107	-0.68409	-0.338483	-0.508925	-0.660513	-0.418218	-0.209567	-0.571288	
0.732067	4.23279	0	0	-0.33781	-1.40008	-0.153223	-0.929327	-0.439837	-0.917142	-0.379928	-0.83709	-0.459948	-0.62185	-0.46664	-0.739082	-0.907383	-1.72763	-0.101432	-1.28814	-1.00274	-1.87454	-0.0613233	-1.42246	-0.539412	-1.14049	-0.259151	-0.904737	-0.410991	-0.648152	-0.324653	-0.477258	-0.647751	-0.412097	-0.215673	-0.554031	
0.733814	4.23736	0	0	-0.354027	-1.37943	-0.163916	-0.917197	-0.447877	-0.894422	-0.385356	-0.802173	-0.460633	-0.590442	-0.467021	-0.691209	-0.906351	-1.70169	-0.100585	-1.27649	-1.00568	-1.83816	-0.0509015	-1.39705	-0.532157	-1.1019	-0.254891	-0.855541	-0.415876	-0.612214	-0.310824	-0.445591	-0.634989	-0.405976	-0.22178	-0.536774	
0.734087	4.23889	0	0	-0.370245	-1.35879	-0.17461	-0.905066	-0.455916	-0.871702	-0.390785	-0.767256	-0.461318	-0.559035	-0.467401	-0.643336	-0.905318	-1.67575	-0.0997387	-1.26484	-1.00862	-1.80178	-0.0404798	-1.37164	-0.524901	-1.06331	-0.250631	-0.806345	-0.42076	-0.576277	-0.296994	-0.413923	-0.622228	-0.399856	-0.227886	-0.519517	
0.733615	4.23279	0	0	-0.386463	-1.33814	-0.185304	-0.892936	-0.463955	-0.848982	-0.396214	-0.732338	-0.462003	-0.527628	-0.467781	-0.595464	-0.904286	-1.64982	-0.098892	-1.25319	-1.01156	-1.7654	-0.030058	-1.34624	-0.517646	-1.02471	-0.246371	-0.75715	-0.425644	-0.540339	-0.283164	-0.382256	-0.609466	-0.393735	-0.233992	-0.50226	
0.733134	4.23431	0	0	-0.376414	-1.34135	-0.178162	-0.89503	-0.470862	-0.829462	-0.382312	-0.712779	-0.463793	-0.507815	-0.468008	-0.571379	-0.899177	-1.63536	-0.0969245	-1.2447	-1.01256	-1.73445	-0.0265888	-1.31938	-0.526116	-0.981035	-0.253953	-0.715267	-0.421643	-0.507302	-0.286793	-0.336521	-0.601128	-0.375016	-0.237049	-0.493619	
0.733384	4.23584	0	0	-0.366365	-1.34456	-0.171019	-0.897124	-0.477769	-0.809941	-0.36841	-0.69322	-0.465584	-0.488003	-0.468235	-0.547294	-0.894068	-1.6209	-0.094957	-1.23621	-1.01357	-1.7035	-0.0231195	-1.29252	-0.534586	-0.937357	-0.261534	-0.673383	-0.417641	-0.474264	-0.290423	-0.290787	-0.59279	-0.356298	-0.240107	-0.484978	
0.735102	4.23736	0	0	-0.356316	-1.34778	-0.163877	-0.899219	-0.484676	-0.790421	-0.354507	-0.67366	-0.467375	-0.46819	-0.468462	-0.523209	-0.888959	-1.60644	-0.0929895	-1.22772	-1.01457	-1.67255	-0.0196503	-1.26566	-0.543055	-0.89368	-0.269116	-0.631499	-0.413639	-0.441227	-0.294052	-0.245053	-0.584452	-0.33758	-0.243165	-0.476336	
0.738917	4.23889	0	0	-0.346267	-1.35099	-0.156734	-0.901313	-0.491583	-0.770901	-0.340605	-0.654101	-0.469165	-0.448377	-0.468689	-0.499124	-0.88385	-1.59197	-0.091022	-1.21923	-1.01557	-1.6416	-0.016181	-1.2388	-0.551525	-0.850002	-0.276697	-0.589616	-0.409638	-0.408189	-0.297681	-0.199318	-0.576114	-0.318861	-0.246222	-0.467695	
0.744352	4.23889	0	0	-0.350901	-1.33789	-0.165061	-0.895872	-0.49229	-0.750378	-0.342379	-0.609752	-0.46513	-0.43024	-0.463666	-0.466344	-0.894119	-1.56295	-0.0901835	-1.20754	-1.00364	-1.61897	-0.00973875	-1.22027	-0.555029	-0.820337	-0.262624	-0.567885	-0.405748	-0.396969	-0.298416	-0.179477	-0.580574	-0.306256	-0.234309	-0.478802	
0.750282	4.24042	0	0	-0.355536	-1.32479	-0.173387	-0.890431	-0.492997	-0.729855	-0.344153	-0.565403	-0.461095	-0.412103	-0.458643	-0.433564	-0.904389	-1.53393	-0.089345	-1.19584	-0.991704	-1.59634	-0.0032965	-1.20174	-0.558534	-0.790671	-0.248551	-0.546154	-0.401859	-0.385749	-0.29915	-0.159636	-0.585035	-0.293651	-0.222395	-0.489909	
0.755576	4.24194	0	0	-0.360171	-1.3117	-0.181714	-0.88499	-0.493705	-0.709332	-0.345927	-0.521053	-0.45706	-0.393965	-0.453621	-0.400784	-0.914659	-1.5049	-0.0885065	-1.18415	-0.97977	-1.57371	0.00314575	-1.18321	-0.562038	-0.761006	-0.234477	-0.524423	-0.397969	-0.374528	-0.299885	-0.139795	-0.589495	-0.281046	-0.210481	-0.501017	
0.759101	4.24194	0	0	-0.364805	-1.2986	-0.190041	-0.879549	-0.494412	-0.688809	-0.347701	-0.476704	-0.453025	-0.375828	-0.448598	-0.368004	-0.924928	-1.47588	-0.087668	-1.17246	-0.967837	-1.55108	0.009588	-1.16467	-0.565542	-0.73134	-0.220404	-0.502692	-0.394079	-0.363308	-0.30062	-0.119954	-0.593955	-0.268441	-0.198568	-0.512124	
0.759725	4.24194	0	0	-0.370995	-1.2811	-0.199544	-0.870766	-0.507152	-0.652805	-0.340476	-0.437961	-0.446024	-0.351213	-0.43647	-0.331594	-0.919846	-1.4613	-0.0879647	-1.15755	-0.981904	-1.51133	0.0160288	-1.14607	-0.563777	-0.696741	-0.220081	-0.462489	-0.392732	-0.344875	-0.287219	-0.104433	-0.598421	-0.255818	-0.198568	-0.512124	
0.756427	4.24652	0	0	-0.377185	-1.26361	-0.209047	-0.861982	-0.519892	-0.616801	-0.333252	-0.399218	-0.439024	-0.326597	-0.424342	-0.295185	-0.914764	-1.44672	-0.0882615	-1.14263	-0.99597	-1.47157	0.0224695	-1.12746	-0.562012	-0.662143	-0.219758	-0.422285	-0.391385	-0.326442	-0.273818	-0.088911	-0.602888	-0.243196	-0.198568	-0.512124	
0.749647	4.24957	0	0	-0.383375	-1.24612	-0.218551	-0.853198	-0.532631	-0.580797	-0.326028	-0.360474	-0.432024	-0.301982	-0.412214	-0.258775	-0.909683	-1.43213	-0.0885583	-1.12772	-1.01004	-1.43182	0.0289102	-1.10885	-0.560247	-0.627544	-0.219435	-0.382082	-0.390038	-0.308009	-0.260418	-0.0733895	-0.607354	-0.230573	-0.198568	-0.512124	
0.740858	4.25415	0	0	-0.389565	-1.22862	-0.228054	-0.844415	-0.545371	-0.544793	-0.318803	-0.321731	-0.425023	-0.277367	-0.400086	-0.222365	-0.904601	-1.41755	-0.088855	-1.11281	-1.0241	-1.39206	0.035351	-1.09025	-0.558482	-0.592945	-0.219112	-0.341878	-0.388691	-0.289576	-0.247017	-0.057868	-0.61182	-0.21795	-0.198568	-0.512124	
0.731557	4.25567	0	0	-0.391114	-1.22424	-0.236365	-0.838985	-0.551179	-0.52838	-0.32684	-0.299017	-0.423013	-0.268226	-0.40381	-0.21184	-0.908729	-1.40588	-0.0857653	-1.10746	-1.00817	-1.38056	0.0378182	-1.07879	-0.5608	-0.566569	-0.229174	-0.313443	-0.388632	-0.267475	-0.251147	-0.0283643	-0.594551	-0.224377	-0.200097	-0.507802	
0.723241	4.25567	0	0	-0.392664	-1.21986	-0.244675	-0.833554	-0.556986	-0.511966	-0.334877	-0.276302	-0.421002	-0.259084	-0.407535	-0.201315	-0.912857	-1.39422	-0.0826755	-1.10211	-0.992243	-1.36905	0.0402855	-1.06733	-0.563118	-0.540193	-0.239235	-0.285008	-0.388574	-0.245375	-0.255277	0.0011395	-0.577282	-0.230804	-0.201626	-0.50348	
0.717404	4.25567	0	0	-0.394213	-1.21549	-0.252986	-0.828124	-0.562794	-0.495552	-0.342915	-0.253587	-0.418991	-0.249943	-0.411259	-0.19079	-0.916985	-1.38255	-0.0795857	-1.09675	-0.976313	-1.35755	0.0427528	-1.05587	-0.565436	-0.513818	-0.249296	-0.256573	-0.388516	-0.223274	-0.259407	0.0306433	-0.560012	-0.237231	-0.203155	-0.499159	
0.715245	4.26025	0	0	-0.395763	-1.21111	-0.261297	-0.822694	-0.568601	-0.479139	-0.350952	-0.230873	-0.416981	-0.240802	-0.414983	-0.180265	-0.921113	-1.37088	-0.076496	-1.0914	-0.960383	-1.34604	0.04522	-1.04441	-0.567754	-0.487442	-0.259358	-0.228138	-0.388457	-0.201174	-0.263537	0.060147	-0.542743	-0.243658	-0.204684	-0.494837	
0.716325	4.25873	0	0	-0.397313	-1.20673	-0.261297	-0.822694	-0.57442	-0.462695	-0.35901	-0.208101	-0.419872	-0.232632	-0.414983	-0.180265	-0.923179	-1.36505	-0.074538	-1.08284	-0.96645	-1.3289	0.0437143	-1.04015	-0.578152	-0.47788	-0.257918	-0.232206	-0.385906	-0.208382	-0.26129	0.0537975	-0.540507	-0.249976	-0.198572	-0.512111	
0.719648	4.26178	0	0	-0.398863	-1.20235	-0.261297	-0.822694	-0.580238	-0.446252	-0.367067	-0.185329	-0.422762	-0.224463	-0.414983	-0.180265	-0.925245	-1.35921	-0.07258	-1.07428	-0.972517	-1.31175	0.0422085	-1.0359	-0.58855	-0.468317	-0.256479	-0.236273	-0.383356	-0.215589	-0.259043	0.047448	-0.538272	-0.256294	-0.19246	-0.529385	
0.724216	4.26483	0	0	-0.400413	-1.19796	-0.261297	-0.822694	-0.586056	-0.429808	-0.375125	-0.162556	-0.425652	-0.216293	-0.414983	-0.180265	-0.927311	-1.35337	-0.070622	-1.06572	-0.978584	-1.2946	0.0407028	-1.03164	-0.598949	-0.458755	-0.255039	-0.240341	-0.380806	-0.222797	-0.256797	0.0410985	-0.536036	-0.262612	-0.186348	-0.546659	
0.729036	4.26636	0	0	-0.401963	-1.19358	-0.261297	-0.822694	-0.591875	-0.413364	-0.383183	-0.139784	-0.428543	-0.208124	-0.414983	-0.180265	-0.929377	-1.34753	-0.068664	-1.05716	-0.984651	-1.27746	0.039197	-1.02739	-0.609347	-0.449193	-0.2536	-0.244409	-0.378255	-0.230005	-0.25455	0.034749	-0.5338	-0.26893	-0.180236	-0.563933	
0.733109	4.26483	0	0	-0.416658	-1.17724	-0.270785	-0.81392	-0.597704	-0.39689	-0.38722	-0.128376	-0.425573	-0.201681	-0.418712	-0.169727	-0.916035	-1.35625	-0.0785518	-1.04331	-0.986676	-1.27173	0.029207	-1.01759	-0.610621	-0.445591	-0.2536	-0.244409	-0.378255	-0.230005	-0.253427	0.031576	-0.531566	-0.275244	-0.189094	-0.561461	
0.735656	4.26941	0	0	-0.431353	-1.1609	-0.280273	-0.805145	-0.603533	-0.380416	-0.391257	-0.116968	-0.422604	-0.195238	-0.42244	-0.159189	-0.902693	-1.36497	-0.0884395	-1.02946	-0.988701	-1.26601	0.019217	-1.00779	-0.611896	-0.441989	-0.2536	-0.244409	-0.378255	-0.230005	-0.252304	0.028403	-0.529332	-0.281558	-0.197953	-0.558988	
0.736684	4.26788	0	0	-0.446047	-1.14455	-0.28976	-0.79637	-0.609363	-0.363942	-0.395293	-0.10556	-0.419635	-0.188796	-0.426168	-0.148652	-0.88935	-1.37368	-0.0983273	-1.01561	-0.990726	-1.26029	0.009227	-0.997985	-0.613171	-0.438387	-0.2536	-0.244409	-0.378255	-0.230005	-0.251182	0.02523	-0.527098	-0.287871	-0.206811	-0.556516	
0.736381	4.26788	0	0	-0.460742	-1.12821	-0.299248	-0.787596	-0.615192	-0.347468	-0.39933	-0.094152	-0.416665	-0.182353	-0.429897	-0.138114	-0.876008	-1.3824	-0.108215	-1.00176	-0.992751	-1.25456	-0.000763	-0.988184	-0.614445	-0.434785	-0.2536	-0.244409	-0.378255	-0.230005	-0.250059	0.022057	-0.524864	-0.294185	-0.215669	-0.554044	
0.734931	4.26941	0	0	-0.446047	-1.14455	-0.296878	-0.794293	-0.614025	-0.350765	-0.403035	-0.103423	-0.422528	-0.180619	-0.428032	-0.143384	-0.900606	-1.37082	-0.110484	-0.995348	-0.994777	-1.24884	0.0007435	-0.992442	-0.62356	-0.428829	-0.26019	-0.246353	-0.373098	-0.222288	-0.252305	0.0284042	-0.527098	-0.287871	-0.205285	-0.560829	
0.732521	4.26788	0	0	-0.431353	-1.1609	-0.294509	-0.80099	-0.612858	-0.354063	-0.40674	-0.112693	-0.428391	-0.178885	-0.426167	-0.148655	-0.925204	-1.35923	-0.112754	-0.988934	-0.996803	-1.24311	0.00225	-0.996699	-0.632675	-0.422874	-0.266781	-0.248297	-0.367941	-0.21457	-0.254551	0.0347515	-0.529332	-0.281558	-0.1949	-0.567615	
0.729338	4.27093	0	0	-0.416658	-1.17724	-0.292139	-0.807688	-0.611692	-0.35736	-0.410444	-0.121963	-0.434254	-0.17715	-0.424303	-0.153925	-0.949802	-1.34765	-0.115023	-0.982521	-0.99883	-1.23739	0.0037565	-1.00096	-0.641789	-0.416918	-0.273371	-0.25024	-0.362783	-0.206853	-0.256797	0.0410988	-0.531566	-0.275244	-0.184515	-0.5744	
0.725627	4.26941	0	0	-0.401963	-1.19358	-0.289769	-0.814385	-0.610525	-0.360657	-0.414149	-0.131234	-0.440117	-0.175416	-0.422438	-0.159196	-0.9744	-1.33607	-0.117292	-0.976108	-1.00086	-1.23166	0.005263	-1.00521	-0.650904	-0.410962	-0.279962	-0.252184	-0.357626	-0.199136	-0.259043	0.047446	-0.5338	-0.26893	-0.174131	-0.581186	
0.721775	4.26636	0	0	-0.412005	-1.19039	-0.299248	-0.805617	-0.609359	-0.363953	-0.420538	-0.132898	-0.44501	-0.17641	-0.427708	-0.167894	-0.970272	-1.34773	-0.118427	-0.9729	-1.00982	-1.2346	0.008274	-1.01372	-0.653642	-0.423007	-0.288817	-0.268228	-0.361509	-0.210455	-0.259397	0.030613	-0.527103	-0.287857	-0.172606	-0.585497	
0.718185	4.26941	0	0	-0.422047	-1.1872	-0.308727	-0.796849	-0.608192	-0.367249	-0.426928	-0.134561	-0.449904	-0.177404	-0.432978	-0.176591	-0.966144	-1.3594	-0.119562	-0.969691	-1.01879	-1.23754	0.011285	-1.02223	-0.65638	-0.435052	-0.297673	-0.284273	-0.365391	-0.221774	-0.25975	0.01378	-0.520406	-0.306785	-0.17108	-0.589808	
0.71526	4.26788	0	0	-0.432089	-1.184	-0.318207	-0.788082	-0.607026	-0.370545	-0.433317	-0.136224	-0.454797	-0.178399	-0.438248	-0.185288	-0.962016	-1.37107	-0.120698	-0.966482	-1.02776	-1.24049	0.014296	-1.03074	-0.659118	-0.447097	-0.306528	-0.300318	-0.369274	-0.233094	-0.260103	-0.003053	-0.513708	-0.325713	-0.169554	-0.594119	
0.713405	4.26788	0	0	-0.442131	-1.18081	-0.327686	-0.779314	-0.60586	-0.373841	-0.439706	-0.137888	-0.45969	-0.179393	-0.443518	-0.193986	-0.957888	-1.38273	-0.121833	-0.963274	-1.03672	-1.24343	0.017307	-1.03925	-0.661856	-0.459142	-0.315383	-0.316362	-0.373157	-0.244413	-0.260457	-0.019886	-0.507011	-0.34464	-0.168029	-0.59843	
0.713006	4.26636	0	0	-0.443681	-1.17643	-0.321762	-0.778034	-0.608193	-0.367248	-0.45146	-0.12437	-0.462584	-0.171213	-0.449106	-0.178194	-0.959951	-1.3769	-0.122969	-0.960064	-1.03875	-1.23771	0.007327	-1.02946	-0.652751	-0.465091	-0.315383	-0.316362	-0.373157	-0.244413	-0.257097	-0.0293815	-0.509242	-0.338335	-0.171081	-0.589806	
0.714026	4.26941	0	0	-0.445232	-1.17205	-0.315838	-0.776755	-0.610526	-0.360654	-0.463213	-0.110852	-0.465479	-0.163034	-0.454694	-0.162401	-0.962014	-1.37107	-0.124104	-0.956855	-1.04077	-1.23199	-0.002653	-1.01967	-0.643646	-0.471041	-0.315383	-0.316362	-0.373157	-0.244413	-0.253737	-0.038877	-0.511473	-0.332031	-0.174133	-0.581182	
0.715992	4.26636	0	0	-0.446782	-1.16767	-0.309914	-0.775475	-0.612859	-0.354061	-0.474966	-0.0973333	-0.468373	-0.154855	-0.460282	-0.146608	-0.964078	-1.36524	-0.12524	-0.953645	-1.0428	-1.22626	-0.012633	-1.00988	-0.634541	-0.47699	-0.315383	-0.316362	-0.373157	-0.244413	-0.250377	-0.0483725	-0.513704	-0.325726	-0.177184	-0.572557	
0.718411	4.26483	0	0	-0.448332	-1.16328	-0.30399	-0.774195	-0.615192	-0.347468	-0.48672	-0.083815	-0.471267	-0.146675	-0.46587	-0.130816	-0.966141	-1.35941	-0.126376	-0.950436	-1.04482	-1.22054	-0.022613	-1.00009	-0.625436	-0.48294	-0.315383	-0.316362	-0.373157	-0.244413	-0.247017	-0.057868	-0.515935	-0.319421	-0.180236	-0.563933	
0.720788	4.26483	0	0	-0.445233	-1.17204	-0.31347	-0.765423	-0.622551	-0.345195	-0.489064	-0.0968698	-0.47513	-0.135758	-0.469601	-0.120272	-0.968206	-1.35357	-0.129785	-0.9408	-1.03586	-1.21759	-0.0186578	-0.992851	-0.630529	-0.468547	-0.319685	-0.304203	-0.367998	-0.236701	-0.241049	-0.0569015	-0.518167	-0.313112	-0.175951	-0.553453	
0.72263	4.26178	0	0	-0.442133	-1.1808	-0.322951	-0.756652	-0.629909	-0.342921	-0.491407	-0.109924	-0.478993	-0.12484	-0.473332	-0.109728	-0.970271	-1.34774	-0.133195	-0.931165	-1.0269	-1.21464	-0.0147025	-0.985616	-0.635621	-0.454155	-0.323987	-0.292045	-0.362839	-0.22899	-0.235082	-0.055935	-0.5204	-0.306803	-0.171666	-0.542973	
0.723485	4.26636	0	0	-0.439033	-1.18956	-0.332431	-0.74788	-0.637268	-0.340647	-0.493751	-0.122979	-0.482856	-0.113922	-0.477062	-0.0991847	-0.972335	-1.3419	-0.136604	-0.92153	-1.01793	-1.21169	-0.0107472	-0.97838	-0.640713	-0.439762	-0.32829	-0.279887	-0.357679	-0.221278	-0.229114	-0.0549685	-0.522632	-0.300494	-0.167381	-0.532492	
0.723328	4.2633	0	0	-0.435934	-1.19832	-0.341912	-0.739108	-0.644627	-0.338374	-0.496095	-0.136034	-0.486719	-0.103005	-0.480793	-0.088641	-0.9744	-1.33607	-0.140014	-0.911894	-1.00897	-1.20874	-0.006792	-0.971145	-0.645806	-0.425369	-0.332592	-0.267728	-0.35252	-0.213566	-0.223147	-0.054002	-0.524864	-0.294185	-0.163096	-0.522012	
0.722382	4.26025	0	0	-0.434385	-1.2027	-0.343098	-0.735755	-0.643461	-0.34167	-0.502461	-0.1377	-0.480863	-0.104731	-0.48266	-0.0833645	-0.976466	-1.33023	-0.134664	-0.912918	-1.00897	-1.20874	-0.00132525	-0.968163	-0.643259	-0.432568	-0.329723	-0.275836	-0.361504	-0.210468	-0.226877	-0.0612933	-0.527098	-0.287871	-0.157278	-0.515837	
0.720871	4.26178	0	0	-0.432836	-1.20708	-0.344285	-0.732403	-0.642294	-0.344966	-0.508827	-0.139367	-0.475007	-0.106457	-0.484527	-0.078088	-0.978532	-1.32439	-0.129314	-0.913943	-1.00897	-1.20874	0.0041415	-0.96518	-0.640711	-0.439767	-0.326854	-0.283943	-0.370488	-0.20737	-0.230606	-0.0685845	-0.529332	-0.281558	-0.15146	-0.509661	
0.719023	4.26025	0	0	-0.431288	-1.21145	-0.345472	-0.72905	-0.641128	-0.348262	-0.515193	-0.141033	-0.469151	-0.108184	-0.486394	-0.0728115	-0.980598	-1.31855	-0.123965	-0.914968	-1.00897	-1.20874	0.00960825	-0.962198	-0.638164	-0.446967	-0.323986	-0.29205	-0.379473	-0.204272	-0.234336	-0.0758758	-0.531566	-0.275244	-0.145642	-0.503486	
0.717062	4.26025	0	0	-0.429739	-1.21583	-0.346658	-0.725697	-0.639962	-0.351558	-0.521559	-0.142699	-0.463295	-0.10991	-0.488261	-0.067535	-0.982664	-1.31271	-0.118615	-0.915992	-1.00897	-1.20874	0.015075	-0.959215	-0.635617	-0.454166	-0.321117	-0.300158	-0.388457	-0.201174	-0.238066	-0.083167	-0.5338	-0.26893	-0.139824	-0.497311	
0.715206	4.2572	0	0	-0.432837	-1.20708	-0.343114	-0.717692	-0.643462	-0.341666	-0.517876	-0.133448	-0.462272	-0.0979652	-0.472139	-0.0658852	-0.973479	-1.30973	-0.115538	-0.910585	-0.997958	-1.21152	0.0160125	-0.943414	-0.630324	-0.449321	-0.315975	-0.294166	-0.388457	-0.201174	-0.242911	-0.0872883	-0.557778	-0.243544	-0.122032	-0.502278	
0.71363	4.2572	0	0	-0.435935	-1.19832	-0.339569	-0.709688	-0.646962	-0.331774	-0.514194	-0.124198	-0.461249	-0.0860205	-0.456017	-0.0642355	-0.964293	-1.30674	-0.11246	-0.905177	-0.986949	-1.21431	0.01695	-0.927613	-0.625031	-0.444476	-0.310833	-0.288175	-0.388457	-0.201174	-0.247756	-0.0914095	-0.581756	-0.218159	-0.104239	-0.507244	
0.712499	4.2572	0	0	-0.439033	-1.18956	-0.336025	-0.701683	-0.650462	-0.321883	-0.510512	-0.114947	-0.460227	-0.0740757	-0.439895	-0.0625857	-0.955107	-1.30376	-0.109382	-0.899769	-0.975939	-1.21709	0.0178875	-0.911812	-0.619738	-0.43963	-0.305691	-0.282183	-0.388457	-0.201174	-0.252602	-0.0955307	-0.605733	-0.192774	-0.0864465	-0.512211	
0.711976	4.25262	0	0	-0.442131	-1.18081	-0.33248	-0.693678	-0.653962	-0.311991	-0.506829	-0.105697	-0.459204	-0.062131	-0.423773	-0.060936	-0.945922	-1.30077	-0.106305	-0.894362	-0.96493	-1.21988	0.018825	-0.896011	-0.614445	-0.434785	-0.300549	-0.276191	-0.388457	-0.201174	-0.257447	-0.099652	-0.629711	-0.167388	-0.068654	-0.517177	
0.712226	4.2511	0	0	-0.443681	-1.17643	-0.327744	-0.689022	-0.665983	-0.296523	-0.508172	-0.101903	-0.453289	-0.0491422	-0.422256	-0.0415722	-0.954211	-1.27735	-0.108583	-0.887923	-0.971024	-1.20266	0.0212685	-0.884449	-0.606401	-0.417849	-0.296015	-0.247889	-0.383304	-0.193445	-0.252602	-0.0955307	-0.614685	-0.167474	-0.0747928	-0.499828	
0.713412	4.25262	0	0	-0.445232	-1.17205	-0.323009	-0.684365	-0.678005	-0.281056	-0.509514	-0.098108	-0.447373	-0.0361535	-0.420739	-0.0222085	-0.962499	-1.25392	-0.110862	-0.881484	-0.977119	-1.18543	0.023712	-0.872887	-0.598356	-0.400913	-0.291481	-0.219586	-0.378151	-0.185716	-0.247756	-0.0914095	-0.59966	-0.167561	-0.0809315	-0.482479	
0.715523	4.25567	0	0	-0.446782	-1.16767	-0.318273	-0.679709	-0.690026	-0.265588	-0.510857	-0.0943135	-0.441458	-0.0231647	-0.419221	-0.00284475	-0.970787	-1.2305	-0.11314	-0.875045	-0.983213	-1.16821	0.0261555	-0.861324	-0.590311	-0.383978	-0.286947	-0.191283	-0.372997	-0.177987	-0.242911	-0.0872883	-0.584634	-0.167648	-0.0870703	-0.465129	
0.718221	4.25262	0	0	-0.448332	-1.16328	-0.313538	-0.675053	-0.702047	-0.25012	-0.5122	-0.090519	-0.435543	-0.010176	-0.417704	0.016519	-0.979076	-1.20707	-0.115418	-0.868606	-0.989308	-1.15098	0.028599	-0.849762	-0.582267	-0.367042	-0.282413	-0.162981	-0.367844	-0.170258	-0.238066	-0.083167	-0.569608	-0.167734	-0.093209	-0.44778	
0.721136	4.25262	0	0	-0.46146	-1.15134	-0.317109	-0.66496	-0.697038	-0.245772	-0.513543	-0.0867228	-0.439429	0.00080525	-0.419581	0.0218237	-0.985306	-1.18947	-0.111201	-0.866408	-0.989308	-1.15098	0.024049	-0.836903	-0.584825	-0.359811	-0.282413	-0.162981	-0.370401	-0.163032	-0.246265	-0.0778095	-0.57185	-0.161398	-0.097821	-0.434746	
0.723896	4.2511	0	0	-0.474587	-1.13939	-0.32068	-0.654867	-0.692028	-0.241423	-0.514887	-0.0829265	-0.443315	0.0117865	-0.421458	0.0271285	-0.991537	-1.17186	-0.106985	-0.86421	-0.989308	-1.15098	0.019499	-0.824044	-0.587384	-0.352579	-0.282413	-0.162981	-0.372957	-0.155807	-0.254464	-0.072452	-0.574091	-0.155062	-0.102433	-0.421712	
0.726129	4.24652	0	0	-0.487714	-1.12744	-0.324252	-0.644774	-0.687019	-0.237074	-0.51623	-0.0791302	-0.4472	0.0227678	-0.423335	0.0324332	-0.997767	-1.15425	-0.102768	-0.862011	-0.989308	-1.15098	0.014949	-0.811185	-0.589943	-0.345348	-0.282413	-0.162981	-0.375514	-0.148582	-0.262664	-0.0670945	-0.576333	-0.148726	-0.107045	-0.408677	
0.727471	4.24957	0	0	-0.500842	-1.11549	-0.327823	-0.634681	-0.68201	-0.232726	-0.517573	-0.075334	-0.451086	0.033749	-0.425212	0.037738	-1.004	-1.13664	-0.098551	-0.859813	-0.989308	-1.15098	0.010399	-0.798326	-0.592501	-0.338117	-0.282413	-0.162981	-0.37807	-0.141356	-0.270863	-0.061737	-0.578575	-0.14239	-0.111657	-0.395643	
0.727823	4.24805	0	0	-0.49237	-1.11429	-0.331398	-0.624577	-0.687865	-0.216179	-0.507521	-0.064365	-0.442256	0.0385468	-0.414312	0.030616	-0.994816	-1.1336	-0.0966142	-0.85116	-0.987275	-1.15673	0.0143512	-0.791008	-0.593781	-0.334499	-0.282413	-0.162981	-0.375514	-0.148582	-0.274584	-0.0690205	-0.595838	-0.135981	-0.113196	-0.391294	
0.727385	4.24499	0	0	-0.483897	-1.11308	-0.334973	-0.614472	-0.69372	-0.199631	-0.497468	-0.053396	-0.433426	0.0433445	-0.403413	0.023494	-0.985634	-1.13056	-0.0946775	-0.842508	-0.985243	-1.16247	0.0183035	-0.78369	-0.595062	-0.330881	-0.282413	-0.162981	-0.372957	-0.155807	-0.278304	-0.076304	-0.613101	-0.129572	-0.114735	-0.386945	
0.726374	4.24499	0	0	-0.475424	-1.11187	-0.338549	-0.604367	-0.699575	-0.183084	-0.487416	-0.042427	-0.424595	0.0481422	-0.392514	0.016372	-0.976453	-1.12752	-0.0927407	-0.833856	-0.98321	-1.16822	0.0222557	-0.776372	-0.596342	-0.327263	-0.282413	-0.162981	-0.370401	-0.163032	-0.282025	-0.0835875	-0.630365	-0.123163	-0.116273	-0.382596	
0.725007	4.24652	0	0	-0.466952	-1.11066	-0.342124	-0.594263	-0.70543	-0.166537	-0.477364	-0.031458	-0.415765	0.05294	-0.381614	0.00925	-0.967271	-1.12448	-0.090804	-0.825203	-0.981177	-1.17396	0.026208	-0.769054	-0.597622	-0.323645	-0.282413	-0.162981	-0.367844	-0.170258	-0.285745	-0.090871	-0.647628	-0.116754	-0.117812	-0.378247	
0.7235	4.24347	0	0	-0.471614	-1.09749	-0.345703	-0.584147	-0.703945	-0.15221	-0.494523	-0.00266425	-0.416707	0.070498	-0.380103	0.0286903	-0.962246	-1.10965	-0.0888687	-0.816535	-0.981177	-1.17396	0.0231665	-0.760459	-0.597453	-0.304254	-0.284495	-0.136506	-0.372959	-0.155801	-0.282025	-0.0835875	-0.652113	-0.104077	-0.120892	-0.369543	
0.722066	4.24347	0	0	-0.476276	-1.08431	-0.349283	-0.574032	-0.70246	-0.137883	-0.511682	0.0261295	-0.41765	0.088056	-0.378591	0.0481305	-0.957221	-1.09481	-0.0869335	-0.807867	-0.981177	-1.17396	0.020125	-0.751864	-0.597285	-0.284863	-0.286576	-0.110031	-0.378074	-0.141344	-0.278304	-0.076304	-0.656598	-0.091401	-0.123972	-0.360839	
0.720864	4.24499	0	0	-0.480938	-1.07114	-0.352862	-0.563916	-0.700974	-0.123557	-0.52884	0.0549232	-0.418592	0.105614	-0.37708	0.0675707	-0.952195	-1.07998	-0.0849982	-0.7992	-0.981177	-1.17396	0.0170835	-0.743268	-0.597117	-0.265473	-0.288658	-0.083556	-0.38319	-0.126888	-0.274584	-0.0690205	-0.661084	-0.0787245	-0.127052	-0.352134	
0.720018	4.24499	0	0	-0.4856	-1.05796	-0.356442	-0.5538	-0.699489	-0.10923	-0.545999	0.083717	-0.419534	0.123172	-0.375568	0.087011	-0.94717	-1.06515	-0.083063	-0.790532	-0.981177	-1.17396	0.014042	-0.734673	-0.596948	-0.246082	-0.290739	-0.057081	-0.388305	-0.112431	-0.270863	-0.061737	-0.665569	-0.066048	-0.130132	-0.34343	
0.719652	4.24347	0	0	-0.488712	-1.04917	-0.360025	-0.543673	-0.703015	-0.0992647	-0.539635	0.085429	-0.42344	0.134211	-0.382717	0.083504	-0.951347	-1.05335	-0.087641	-0.777594	-0.990153	-1.17692	0.0109978	-0.726069	-0.600802	-0.235189	-0.292187	-0.052989	-0.384438	-0.10104	-0.277582	-0.042749	-0.667814	-0.059703	-0.131673	-0.339075	
0.719889	4.24194	0	0	-0.491823	-1.04037	-0.363609	-0.533546	-0.706541	-0.0892995	-0.53327	0.087141	-0.427346	0.14525	-0.389867	0.079997	-0.955524	-1.04154	-0.092219	-0.764655	-0.99913	-1.17988	0.0079535	-0.717466	-0.604657	-0.224295	-0.293635	-0.048897	-0.380572	-0.0896485	-0.284301	-0.023761	-0.67006	-0.053358	-0.133214	-0.33472	
0.720853	4.24194	0	0	-0.494935	-1.03158	-0.367192	-0.523418	-0.710068	-0.0793342	-0.526906	0.088853	-0.431252	0.156289	-0.397016	0.07649	-0.959701	-1.02974	-0.096797	-0.751717	-1.00811	-1.18284	0.00490925	-0.708862	-0.608511	-0.213402	-0.295083	-0.044805	-0.376705	-0.0782573	-0.291019	-0.004773	-0.672305	-0.047013	-0.134755	-0.330364	
0.722626	4.24194	0	0	-0.498047	-1.02278	-0.370776	-0.513291	-0.713594	-0.069369	-0.520541	0.090565	-0.435158	0.167328	-0.404165	0.072983	-0.963878	-1.01793	-0.101375	-0.738779	-1.01708	-1.1858	0.001865	-0.700258	-0.612365	-0.202509	-0.296531	-0.040713	-0.372838	-0.066866	-0.297738	0.014215	-0.67455	-0.040668	-0.136296	-0.326009	
0.725064	4.24194	0	0	-0.50272	-1.00958	-0.366053	-0.508583	-0.712124	-0.0549813	-0.509144	0.0978168	-0.43123	0.171133	-0.400405	0.0623578	-0.965969	-1.01202	-0.0940788	-0.731093	-1.02604	-1.18876	0.001865	-0.700258	-0.620224	-0.200167	-0.303113	-0.0427022	-0.381829	-0.0637772	-0.296617	0.0110475	-0.672305	-0.047013	-0.136296	-0.326009	
0.727943	4.24042	0	0	-0.507394	-0.996368	-0.361329	-0.503874	-0.710654	-0.0405935	-0.497748	0.105069	-0.427302	0.174938	-0.396646	0.0517325	-0.968059	-1.00611	-0.0867825	-0.723407	-1.03501	-1.19172	0.001865	-0.700258	-0.628083	-0.197825	-0.309696	-0.0446915	-0.390819	-0.0606885	-0.295496	0.00788	-0.67006	-0.053358	-0.136296	-0.326009	
0.73104	4.24042	0	0	-0.512067	-0.983161	-0.356606	-0.499165	-0.709184	-0.0262057	-0.486351	0.11232	-0.423374	0.178744	-0.392887	0.0411072	-0.970149	-1.00021	-0.0794863	-0.71572	-1.04397	-1.19468	0.001865	-0.700258	-0.635941	-0.195482	-0.316278	-0.0466808	-0.399809	-0.0575997	-0.294376	0.0047125	-0.667814	-0.059703	-0.136296	-0.326009	
0.734133	4.24042	0	0	-0.51674	-0.969953	-0.351883	-0.494457	-0.707714	-0.011818	-0.474954	0.119572	-0.419446	0.182549	-0.389127	0.030482	-0.97224	-0.994297	-0.07219	-0.708034	-1.05293	-1.19763	0.001865	-0.700258	-0.6438	-0.19314	-0.32286	-0.04867	-0.4088	-0.054511	-0.293255	0.001545	-0.665569	-0.066048	-0.136296	-0.326009	
0.737	4.23889	0	0	-0.51139	-0.959887	-0.357871	-0.477533	-0.706251	0.00260875	-0.475354	0.140465	-0.42434	0.19638	-0.392887	0.0411072	-0.976425	-0.982468	-0.0779323	-0.691805	-1.05985	-1.20631	-0.0066435	-0.694698	-0.637227	-0.191848	-0.325755	-0.040488	-0.410082	-0.0508872	-0.288419	0.005693	-0.648309	-0.072448	-0.136296	-0.326009	
0.739426	4.23736	0	0	-0.506039	-0.949821	-0.36386	-0.46061	-0.704789	0.0170355	-0.475754	0.161357	-0.429234	0.21021	-0.396646	0.0517325	-0.980611	-0.97064	-0.0836745	-0.675577	-1.06678	-1.21498	-0.015152	-0.689139	-0.630655	-0.190557	-0.32865	-0.032306	-0.411364	-0.0472635	-0.283583	0.009841	-0.63105	-0.078848	-0.136296	-0.326009	
0.741228	4.23889	0	0	-0.500689	-0.939755	-0.369848	-0.443686	-0.703326	0.0314622	-0.476154	0.18225	-0.434128	0.224041	-0.400405	0.0623578	-0.984797	-0.958812	-0.0894167	-0.659348	-1.0737	-1.22366	-0.0236605	-0.683579	-0.624082	-0.189265	-0.331546	-0.024124	-0.412646	-0.0436398	-0.278747	0.013989	-0.61379	-0.085248	-0.136296	-0.326009	
0.742233	4.23736	0	0	-0.495339	-0.929689	-0.375836	-0.426763	-0.701863	0.045889	-0.476554	0.203143	-0.439022	0.237872	-0.404165	0.072983	-0.988982	-0.946983	-0.095159	-0.643119	-1.08062	-1.23233	-0.032169	-0.678019	-0.617509	-0.187973	-0.334441	-0.015942	-0.413928	-0.040016	-0.273911	0.018137	-0.59653	-0.091648	-0.136296	-0.326009	
0.742268	4.23431	0	0	-0.506931	-0.922114	-0.369916	-0.42542	-0.710406	0.051471	-0.482933	0.20141	-0.445883	0.242355	-0.411305	0.0694798	-1.00025	-0.944168	-0.102825	-0.635612	-1.08956	-1.23528	-0.032169	-0.678019	-0.630513	-0.171087	-0.33589	-0.0118483	-0.41136	-0.0249553	-0.274691	0.0381723	-0.62053	-0.0661995	-0.137838	-0.321651	
0.741158	4.23889	0	0	-0.518523	-0.91454	-0.363996	-0.424077	-0.718948	0.057053	-0.489313	0.199678	-0.452744	0.246838	-0.418445	0.0659765	-1.01152	-0.941352	-0.110491	-0.628105	-1.09849	-1.23823	-0.032169	-0.678019	-0.643518	-0.154201	-0.337338	-0.0077545	-0.408791	-0.0098945	-0.27547	0.0582075	-0.64453	-0.040751	-0.13938	-0.317294	
0.738729	4.24194	0	0	-0.530116	-0.906966	-0.358075	-0.422735	-0.727491	0.062635	-0.495692	0.197945	-0.459604	0.251321	-0.425585	0.0624733	-1.02279	-0.938536	-0.118158	-0.620597	-1.10743	-1.24118	-0.032169	-0.678019	-0.656523	-0.137316	-0.338786	-0.00366075	-0.406223	0.00516625	-0.27625	0.0782427	-0.66853	-0.0153025	-0.140922	-0.312937	
0.735006	4.23889	0	0	-0.541708	-0.899391	-0.352155	-0.421392	-0.736033	0.068217	-0.502072	0.196213	-0.466465	0.255804	-0.432725	0.05897	-1.03406	-0.935721	-0.125824	-0.61309	-1.11636	-1.24412	-0.032169	-0.678019	-0.669527	-0.12043	-0.340235	0.000433	-0.403655	0.020227	-0.277029	0.098278	-0.69253	0.010146	-0.142464	-0.308579	
0.730621	4.23584	0	0	-0.531678	-0.90255	-0.354555	-0.414608	-0.738397	0.0748965	-0.504788	0.203889	-0.471362	0.254748	-0.439856	0.0554702	-1.03197	-0.941633	-0.131186	-0.612085	-1.11031	-1.26124	-0.0406693	-0.672465	-0.674801	-0.125372	-0.346806	-0.0015665	-0.412642	0.0233067	-0.285236	0.103641	-0.709742	0.016508	-0.140922	-0.312937	
0.726323	4.23584	0	0	-0.521648	-0.905709	-0.356955	-0.407825	-0.74076	0.081576	-0.507504	0.211564	-0.476259	0.253693	-0.446986	0.0519705	-1.02988	-0.947545	-0.136548	-0.611079	-1.10425	-1.27835	-0.0491695	-0.666911	-0.680074	-0.130314	-0.353376	-0.003566	-0.421629	0.0263865	-0.293444	0.109004	-0.726954	0.02287	-0.13938	-0.317294	
0.722862	4.23279	0	0	-0.511619	-0.908868	-0.359356	-0.401041	-0.743124	0.0882555	-0.51022	0.21924	-0.481155	0.252637	-0.454117	0.0484707	-1.02778	-0.953458	-0.14191	-0.610074	-1.0982	-1.29546	-0.0576698	-0.661357	-0.685347	-0.135257	-0.359947	-0.0055655	-0.430617	0.0294662	-0.301651	0.114366	-0.744167	0.029232	-0.137838	-0.321651	
0.720987	4.23431	0	0	-0.501589	-0.912027	-0.361756	-0.394257	-0.745487	0.094935	-0.512936	0.226916	-0.486052	0.251582	-0.461247	0.044971	-1.02569	-0.95937	-0.147272	-0.609068	-1.09214	-1.31258	-0.06617	-0.655803	-0.690621	-0.140199	-0.366518	-0.007565	-0.439604	0.032546	-0.309858	0.119729	-0.761379	0.035594	-0.136296	-0.326009	
0.72144	4.23584	0	0	-0.506281	-0.898767	-0.366562	-0.380675	-0.740493	0.099382	-0.504259	0.24194	-0.487031	0.254349	-0.454117	0.0484707	-1.03904	-0.950652	-0.152629	-0.608065	-1.1051	-1.30411	-0.0676933	-0.651498	-0.68406	-0.138895	-0.367966	-0.00347325	-0.440889	0.0361785	-0.303902	0.120727	-0.741918	0.022878	-0.146731	-0.31919	
0.724469	4.23584	0	0	-0.510973	-0.885507	-0.371368	-0.367092	-0.735499	0.103829	-0.495583	0.256964	-0.48801	0.257116	-0.446986	0.0519705	-1.05238	-0.941933	-0.157986	-0.607061	-1.11806	-1.29564	-0.0692165	-0.647193	-0.6775	-0.137591	-0.369414	0.0006185	-0.442175	0.039811	-0.297945	0.121725	-0.722457	0.010162	-0.157166	-0.312372	
0.729533	4.23279	0	0	-0.515664	-0.872247	-0.376174	-0.353509	-0.730505	0.108276	-0.486906	0.271988	-0.488989	0.259883	-0.439856	0.0554702	-1.06572	-0.933215	-0.163344	-0.606058	-1.13102	-1.28717	-0.0707397	-0.642888	-0.670939	-0.136288	-0.370861	0.00471025	-0.44346	0.0434435	-0.291988	0.122723	-0.702997	-0.002554	-0.167602	-0.305553	
0.736016	4.23279	0	0	-0.520356	-0.858987	-0.38098	-0.339927	-0.725511	0.112723	-0.47823	0.287012	-0.489968	0.26265	-0.432725	0.05897	-1.07906	-0.924497	-0.168701	-0.605054	-1.14398	-1.27871	-0.072263	-0.638583	-0.664378	-0.134984	-0.372309	0.008802	-0.444745	0.047076	-0.286032	0.123721	-0.683536	-0.01527	-0.178037	-0.298735	
0.743305	4.23279	0	0	-0.530384	-0.855834	-0.38098	-0.339927	-0.731688	0.111618	-0.475506	0.279313	-0.495839	0.264359	-0.443611	0.0660827	-1.07697	-0.930405	-0.177106	-0.609541	-1.14398	-1.27871	-0.0753117	-0.629967	-0.677376	-0.118095	-0.376657	0.021089	-0.440907	0.0585485	-0.292794	0.142831	-0.685785	-0.008916	-0.179579	-0.294377	
0.750785	4.23126	0	0	-0.540411	-0.852682	-0.38098	-0.339927	-0.737864	0.110512	-0.472782	0.271614	-0.50171	0.266068	-0.454496	0.0731955	-1.07488	-0.936314	-0.185511	-0.614028	-1.14398	-1.27871	-0.0783605	-0.621351	-0.690374	-0.101207	-0.381004	0.033376	-0.437069	0.070021	-0.299555	0.16194	-0.688033	-0.002562	-0.181121	-0.29002	
0.757845	4.23431	0	0	-0.550439	-0.84953	-0.38098	-0.339927	-0.74404	0.109407	-0.470058	0.263916	-0.50758	0.267776	-0.465382	0.0803082	-1.07279	-0.942222	-0.193917	-0.618515	-1.14398	-1.27871	-0.0814093	-0.612734	-0.703372	-0.0843185	-0.385352	0.045663	-0.433231	0.0814935	-0.306317	0.18105	-0.690281	0.003792	-0.182662	-0.285663	
0.76404	4.23736	5	0	-0.560466	-0.846377	-0.38098	-0.339927	-0.750217	0.108302	-0.467334	0.256217	-0.513451	0.269485	-0.476267	0.087421	-1.0707	-0.948131	-0.202322	-0.623002	-1.14398	-1.27871	-0.084458	-0.604118	-0.71637	-0.06743	-0.3897	0.05795	-0.429393	0.092966	-0.313079	0.20016	-0.69253	0.010146	-0.184204	-0.281305	
0.769235	4.23126	5	0	-0.558902	-0.850797	-0.379778	-0.343324	-0.747853	0.10162	-0.473717	0.254474	-0.516382	0.262898	-0.470636	0.0715068	-1.07984	-0.951232	-0.209569	-0.630721	-1.15289	-1.28164	-0.0929497	-0.598569	-0.711219	-0.081987	-0.394809	0.0518422	-0.435803	0.088763	-0.317904	0.195963	-0.711991	0.022862	-0.181121	-0.290018	
0.773328	4.22974	5	0	-0.557338	-0.855217	-0.378575	-0.346722	-0.745488	0.094938	-0.480101	0.252731	-0.519313	0.25631	-0.465005	0.0555925	-1.08899	-0.954332	-0.216816	-0.63844	-1.1618	-1.28458	-0.101442	-0.593021	-0.706068	-0.096544	-0.399918	0.0457345	-0.442214	0.08456	-0.322728	0.191766	-0.731451	0.035578	-0.178038	-0.298731	
0.776217	4.23279	5	0	-0.555774	-0.859637	-0.377373	-0.35012	-0.743123	0.088256	-0.486484	0.250989	-0.522244	0.249723	-0.459374	0.0396783	-1.09813	-0.957432	-0.224063	-0.646158	-1.1707	-1.28751	-0.109933	-0.587473	-0.700918	-0.111101	-0.405027	0.0396268	-0.448624	0.080357	-0.327552	0.187568	-0.750912	0.048294	-0.174955	-0.307443	
0.7778	4.23126	5	0	-0.55421	-0.864057	-0.376171	-0.353517	-0.740759	0.081574	-0.492867	0.249246	-0.525175	0.243136	-0.453743	0.023764	-1.10728	-0.960533	-0.23131	-0.653877	-1.17961	-1.29045	-0.118425	-0.581924	-0.695767	-0.125658	-0.410136	0.033519	-0.455034	0.076154	-0.332377	0.183371	-0.770373	0.06101	-0.171872	-0.316156	
0.777975	4.22974	5	0	-0.542618	-0.871632	-0.374969	-0.356913	-0.749293	0.0871502	-0.487845	0.254837	-0.525175	0.243136	-0.457496	0.0343705	-1.10519	-0.96643	-0.233214	-0.66258	-1.19052	-1.2877	-0.119951	-0.577613	-0.695767	-0.125658	-0.399232	0.023248	-0.452462	0.0688845	-0.328998	0.173821	-0.765878	0.0483065	-0.179215	-0.31805	
0.776794	4.23431	5	0	-0.531025	-0.879207	-0.373768	-0.36031	-0.757827	0.0927265	-0.482824	0.260429	-0.525175	0.243136	-0.461249	0.044977	-1.10311	-0.972326	-0.235118	-0.671282	-1.20143	-1.28495	-0.121476	-0.573302	-0.695767	-0.125658	-0.388327	0.012977	-0.449889	0.061615	-0.325619	0.164272	-0.761383	0.035603	-0.186557	-0.319944	
0.774846	4.22821	5	0	-0.519433	-0.886781	-0.372566	-0.363706	-0.766362	0.0983027	-0.477803	0.26602	-0.525175	0.243136	-0.465002	0.0555835	-1.10102	-0.978223	-0.237022	-0.679984	-1.21233	-1.28219	-0.123001	-0.56899	-0.695767	-0.125658	-0.377422	0.002706	-0.447317	0.0543455	-0.32224	0.154722	-0.756888	0.0228995	-0.1939	-0.321838	
0.772837	4.22821	5	0	-0.507841	-0.894356	-0.371364	-0.367102	-0.774896	0.103879	-0.472781	0.271611	-0.525175	0.243136	-0.468755	0.06619	-1.09893	-0.98412	-0.238926	-0.688687	-1.22324	-1.27944	-0.124527	-0.564679	-0.695767	-0.125658	-0.366518	-0.007565	-0.444745	0.047076	-0.318861	0.145172	-0.752393	0.010196	-0.201243	-0.323732	
0.771473	4.23126	5	0	-0.527884	-0.88805	-0.374881	-0.375239	-0.771353	0.0938652	-0.486898	0.271963	-0.526153	0.245899	-0.472512	0.076809	-1.09893	-0.98412	-0.247304	-0.693145	-1.22324	-1.27944	-0.126053	-0.560366	-0.693072	-0.113427	-0.373764	0.0129133	-0.437045	0.0476333	-0.31516	0.152544	-0.75464	0.0165455	-0.198166	-0.332428	
0.771457	4.22821	5	0	-0.547928	-0.881745	-0.378397	-0.383375	-0.76781	0.0838515	-0.501015	0.272315	-0.52713	0.248663	-0.47627	0.087428	-1.09893	-0.98412	-0.255682	-0.697604	-1.22324	-1.27944	-0.12758	-0.556053	-0.690378	-0.101195	-0.38101	0.0333915	-0.429345	0.0481905	-0.311459	0.159917	-0.756886	0.022895	-0.195089	-0.341124	
0.773496	4.22821	5	0	-0.567971	-0.875439	-0.381914	-0.391512	-0.764266	0.0738378	-0.515132	0.272667	-0.528108	0.251426	-0.480027	0.098047	-1.09893	-0.98412	-0.26406	-0.702062	-1.22324	-1.27944	-0.129106	-0.551739	-0.687684	-0.0889642	-0.388256	0.0538697	-0.421644	0.0487477	-0.307758	0.16729	-0.759132	0.0292445	-0.192012	-0.349819	
0.778121	4.23279	5	0	-0.588014	-0.869133	-0.38543	-0.399649	-0.760723	0.063824	-0.529249	0.273019	-0.529086	0.25419	-0.483784	0.108666	-1.09893	-0.98412	-0.272438	-0.70652	-1.22324	-1.27944	-0.130632	-0.547426	-0.684989	-0.076733	-0.395502	0.074348	-0.413944	0.049305	-0.304057	0.174662	-0.761379	0.035594	-0.188935	-0.358515	
0.784792	4.23126	5	0	-0.584892	-0.877958	-0.390143	-0.404384	-0.759543	0.0604885	-0.526529	0.265333	-0.534947	0.255895	-0.480027	0.098047	-1.11015	-0.981322	-0.270155	-0.712973	-1.23011	-1.28806	-0.120614	-0.557288	-0.690258	-0.0816888	-0.400609	0.0682345	-0.426766	0.0409308	-0.312582	0.163108	-0.774061	0.0292463	-0.185861	-0.367202	
0.792557	4.22974	5	0	-0.581769	-0.886783	-0.394857	-0.409119	-0.758363	0.057153	-0.52381	0.257648	-0.540808	0.2576	-0.47627	0.087428	-1.12136	-0.978523	-0.267872	-0.719426	-1.23698	-1.29668	-0.110596	-0.56715	-0.695526	-0.0866445	-0.405716	0.062121	-0.439588	0.0325565	-0.321107	0.151554	-0.786742	0.0228985	-0.182787	-0.37589	
0.800464	4.22974	5	0	-0.578647	-0.895607	-0.39957	-0.413855	-0.757182	0.0538175	-0.521091	0.249963	-0.546669	0.259305	-0.472512	0.076809	-1.13258	-0.975725	-0.265588	-0.725878	-1.24384	-1.3053	-0.100578	-0.577012	-0.700795	-0.0916002	-0.410823	0.0560075	-0.452411	0.0241823	-0.329632	0.139999	-0.799423	0.0165507	-0.179713	-0.384577	
0.807561	4.23279	5	0	-0.575524	-0.904432	-0.404284	-0.41859	-0.756002	0.050482	-0.518371	0.242277	-0.55253	0.26101	-0.468755	0.06619	-1.14379	-0.972927	-0.263305	-0.732331	-1.25071	-1.31392	-0.09056	-0.586874	-0.706064	-0.096556	-0.41593	0.049894	-0.465233	0.015808	-0.338157	0.128445	-0.812105	0.010203	-0.176639	-0.393265	
0.812897	4.23279	5	0	-0.575524	-0.904432	-0.401888	-0.425361	-0.758363	0.0571543	-0.522451	0.253808	-0.546669	0.259305	-0.459747	0.064385	-1.14171	-0.978816	-0.263305	-0.732331	-1.2467	-1.32527	-0.0975263	-0.585637	-0.70349	-0.103831	-0.414482	0.0458003	-0.460103	0.00131025	-0.340731	0.117921	-0.809863	0.003867	-0.18091	-0.403812	
0.81553	4.23431	5	0	-0.575524	-0.904432	-0.399493	-0.432132	-0.760723	0.0638265	-0.526531	0.265338	-0.540808	0.2576	-0.45074	0.06258	-1.13963	-0.984705	-0.263305	-0.732331	-1.24268	-1.33661	-0.104493	-0.584399	-0.700916	-0.111107	-0.413033	0.0417065	-0.454974	-0.0131875	-0.343305	0.107397	-0.807621	-0.002469	-0.185181	-0.414359	
0.815133	4.22974	5	0	-0.575524	-0.904432	-0.397097	-0.438902	-0.763084	0.0704987	-0.530611	0.276869	-0.534947	0.255895	-0.441733	0.060775	-1.13754	-0.990594	-0.263305	-0.732331	-1.23867	-1.34796	-0.111459	-0.583161	-0.698341	-0.118383	-0.411585	0.0376128	-0.449844	-0.0276852	-0.345878	0.096873	-0.805379	-0.008805	-0.189452	-0.424907	
0.812324	4.23126	5	0	-0.575524	-0.904432	-0.394701	-0.445673	-0.765445	0.077171	-0.534691	0.2884	-0.529086	0.25419	-0.432725	0.05897	-1.13546	-0.996483	-0.263305	-0.732331	-1.23465	-1.35931	-0.118425	-0.581924	-0.695767	-0.125658	-0.410136	0.033519	-0.444714	-0.042183	-0.348452	0.086349	-0.803137	-0.015141	-0.193723	-0.435454	
0.807803	4.22974	5	0	-0.570846	-0.917653	-0.389915	-0.459199	-0.77043	0.0727355	-0.517441	0.25941	-0.532992	0.25037	-0.439856	0.0554702	-1.1425	-1.00545	-0.268631	-0.73133	-1.24352	-1.36223	-0.125384	-0.58069	-0.703605	-0.123331	-0.416687	0.0315095	-0.445996	-0.0385607	-0.349575	0.089522	-0.800897	-0.0214725	-0.19219	-0.439786	
0.802269	4.23431	5	0	-0.566168	-0.930874	-0.385129	-0.472726	-0.775415	0.0683	-0.50019	0.230421	-0.536898	0.246551	-0.446986	0.0519705	-1.14953	-1.01441	-0.273957	-0.730328	-1.25239	-1.36514	-0.132343	-0.579456	-0.711443	-0.121004	-0.423238	0.0295	-0.447277	-0.0349385	-0.350697	0.092695	-0.798656	-0.027804	-0.190657	-0.444118	
0.796422	4.22974	5	0	-0.56149	-0.944094	-0.380343	-0.486252	-0.7804	0.0638645	-0.48294	0.201431	-0.540805	0.242731	-0.454117	0.0484707	-1.15657	-1.02338	-0.279284	-0.729327	-1.26127	-1.36806	-0.139301	-0.578221	-0.719281	-0.118678	-0.429789	0.0274905	-0.448559	-0.0313163	-0.35182	0.095868	-0.796416	-0.0341355	-0.189124	-0.448451	
0.790959	4.22821	5	0	-0.556812	-0.957315	-0.375557	-0.499778	-0.785385	0.059429	-0.46569	0.172441	-0.544711	0.238911	-0.461247	0.044971	-1.16361	-1.03235	-0.28461	-0.728326	-1.27014	-1.37097	-0.14626	-0.576987	-0.727119	-0.116351	-0.43634	0.025481	-0.449841	-0.027694	-0.352943	0.099041	-0.794176	-0.040467	-0.187591	-0.452783	
0.786468	4.22821	5	0	-0.566815	-0.954163	-0.364856	-0.511964	-0.785385	0.059429	-0.464333	0.168606	-0.542757	0.23339	-0.466494	0.0361792	-1.15945	-1.04409	-0.278143	-0.732552	-1.26213	-1.3936	-0.150165	-0.584364	-0.72981	-0.12855	-0.437107	0.0071455	-0.442159	-0.0494052	-0.353276	0.0822005	-0.791937	-0.046794	-0.184528	-0.461441	
0.783092	4.22974	5	0	-0.576819	-0.951012	-0.354155	-0.52415	-0.785385	0.059429	-0.462976	0.16477	-0.540803	0.227869	-0.471742	0.0273875	-1.1553	-1.05583	-0.271675	-0.736778	-1.25413	-1.41622	-0.15407	-0.591741	-0.7325	-0.14075	-0.437873	-0.01119	-0.434476	-0.0711165	-0.353608	0.06536	-0.789698	-0.053121	-0.181465	-0.470098	
0.780866	4.22974	5	0	-0.586822	-0.94786	-0.343454	-0.536335	-0.785385	0.059429	-0.461619	0.160934	-0.53885	0.222348	-0.476989	0.0185958	-1.15114	-1.06757	-0.265208	-0.741003	-1.24612	-1.43884	-0.157976	-0.599118	-0.735191	-0.152949	-0.43864	-0.0295255	-0.426793	-0.0928278	-0.353941	0.0485195	-0.78746	-0.059448	-0.178401	-0.478756	
0.779826	4.22974	5	0	-0.596825	-0.944708	-0.332753	-0.548521	-0.785385	0.059429	-0.460262	0.157099	-0.536896	0.216827	-0.482236	0.009804	-1.14699	-1.07932	-0.258741	-0.745229	-1.23812	-1.46147	-0.161881	-0.606495	-0.737882	-0.165149	-0.439406	-0.047861	-0.419111	-0.114539	-0.354274	0.031679	-0.785221	-0.065775	-0.175338	-0.487414	
0.780007	4.22668	5	0	-0.596825	-0.944708	-0.339869	-0.546466	-0.787745	0.0660985	-0.460262	0.157099	-0.531034	0.215118	-0.473238	0.0079955	-1.15817	-1.07652	-0.262165	-0.735552	-1.24898	-1.45871	-0.160359	-0.610796	-0.735316	-0.172401	-0.436522	-0.056013	-0.42808	-0.111456	-0.349796	0.019025	-0.782984	-0.0720975	-0.185735	-0.48062	
0.781445	4.22668	5	0	-0.596825	-0.944708	-0.346986	-0.544412	-0.790105	0.072768	-0.460262	0.157099	-0.525172	0.21341	-0.46424	0.006187	-1.16936	-1.07372	-0.26559	-0.725874	-1.25984	-1.45595	-0.158837	-0.615096	-0.73275	-0.179652	-0.433637	-0.064165	-0.43705	-0.108373	-0.345319	0.006371	-0.780747	-0.07842	-0.196132	-0.473827	
0.784131	4.23126	5	0	-0.596825	-0.944708	-0.354102	-0.542357	-0.792465	0.0794375	-0.460262	0.157099	-0.519309	0.211702	-0.455242	0.0043785	-1.18054	-1.07092	-0.269014	-0.716197	-1.27071	-1.4532	-0.157316	-0.619397	-0.730184	-0.186904	-0.430753	-0.072317	-0.44602	-0.105291	-0.340842	-0.006283	-0.778509	-0.0847425	-0.206529	-0.467033	
0.787668	4.22821	5	0	-0.596825	-0.944708	-0.361218	-0.540302	-0.794825	0.086107	-0.460262	0.157099	-0.513447	0.209993	-0.446244	0.00257	-1.19173	-1.06812	-0.272438	-0.70652	-1.28157	-1.45044	-0.155794	-0.623698	-0.727618	-0.194156	-0.427868	-0.080469	-0.454989	-0.102208	-0.336364	-0.018937	-0.776272	-0.091065	-0.216926	-0.460239	
0.791462	4.22821	5	0	-0.593712	-0.953507	-0.361218	-0.540302	-0.792465	0.0794375	-0.474376	0.157483	-0.515406	0.200669	-0.447758	-0.0167715	-1.18551	-1.0857	-0.272438	-0.70652	-1.27359	-1.47299	-0.159699	-0.631056	-0.734298	-0.214824	-0.425782	-0.106844	-0.462669	-0.102742	-0.341186	-0.0230735	-0.776272	-0.091065	-0.215396	-0.464565	
0.794918	4.22974	5	0	-0.590599	-0.962306	-0.361218	-0.540302	-0.790105	0.072768	-0.488489	0.157867	-0.517365	0.191346	-0.449273	-0.036113	-1.17929	-1.10327	-0.272438	-0.70652	-1.26561	-1.49554	-0.163605	-0.638413	-0.740977	-0.235491	-0.423696	-0.133219	-0.470349	-0.103276	-0.346008	-0.02721	-0.776272	-0.091065	-0.213865	-0.46889	
0.79744	4.22668	5	0	-0.587485	-0.971104	-0.361218	-0.540302	-0.787745	0.0660985	-0.502602	0.158251	-0.519323	0.182022	-0.450788	-0.0554545	-1.17307	-1.12085	-0.272438	-0.70652	-1.25763	-1.51809	-0.167511	-0.645771	-0.747656	-0.256159	-0.421609	-0.159595	-0.47803	-0.103811	-0.35083	-0.0313465	-0.776272	-0.091065	-0.212334	-0.473216	
0.798432	4.22668	5	0	-0.584372	-0.979903	-0.361218	-0.540302	-0.785385	0.059429	-0.516716	0.158635	-0.521282	0.172698	-0.452302	-0.074796	-1.16685	-1.13842	-0.272438	-0.70652	-1.24965	-1.54065	-0.171416	-0.653129	-0.754336	-0.276827	-0.419523	-0.18597	-0.48571	-0.104345	-0.355652	-0.035483	-0.776272	-0.091065	-0.210804	-0.477542	
0.797308	4.22668	5	0	-0.582817	-0.984299	-0.360024	-0.543676	-0.784206	0.056096	-0.523083	0.15691	-0.517383	0.161679	-0.446701	-0.0906255	-1.16271	-1.15012	-0.272438	-0.70652	-1.25454	-1.55475	-0.17532	-0.660473	-0.753216	-0.299733	-0.426873	-0.206089	-0.47933	-0.122375	-0.356008	-0.0522237	-0.791175	-0.091038	-0.219658	-0.47508	
0.793995	4.22668	5	0	-0.581261	-0.988695	-0.35883	-0.547051	-0.783027	0.052763	-0.529451	0.155185	-0.513484	0.15066	-0.441099	-0.106455	-1.15857	-1.16181	-0.272438	-0.70652	-1.25942	-1.56885	-0.179224	-0.667818	-0.752096	-0.32264	-0.434222	-0.226208	-0.47295	-0.140406	-0.356364	-0.0689645	-0.806078	-0.091011	-0.228513	-0.472619	
0.789137	4.22668	5	0	-0.579705	-0.993091	-0.357636	-0.550426	-0.781847	0.04943	-0.535818	0.153459	-0.509585	0.139642	-0.435498	-0.122284	-1.15444	-1.17351	-0.272438	-0.70652	-1.2643	-1.58296	-0.183128	-0.675162	-0.750976	-0.345546	-0.441572	-0.246326	-0.46657	-0.158437	-0.35672	-0.0857052	-0.820982	-0.090984	-0.237368	-0.470157	
0.783435	4.22668	5	0	-0.57815	-0.997487	-0.356442	-0.5538	-0.780668	0.046097	-0.542185	0.151734	-0.505686	0.128623	-0.429897	-0.138114	-1.1503	-1.18521	-0.272438	-0.70652	-1.26919	-1.59706	-0.187032	-0.682507	-0.749856	-0.368453	-0.448922	-0.266445	-0.46019	-0.176467	-0.357076	-0.102446	-0.835885	-0.090957	-0.246222	-0.467695	
0.77759	4.22668	5	0	-0.586587	-0.998729	-0.365938	-0.545	-0.786828	0.0450002	-0.535423	0.132623	-0.511545	0.130335	-0.429897	-0.138114	-1.1594	-1.18824	-0.270155	-0.712973	-1.28002	-1.5943	-0.185515	-0.686793	-0.74731	-0.375649	-0.447491	-0.270489	-0.452505	-0.175948	-0.357076	-0.102446	-0.835885	-0.090957	-0.238898	-0.465831	
0.772302	4.22821	5	0	-0.595024	-0.99997	-0.375435	-0.536201	-0.792987	0.0439035	-0.52866	0.113512	-0.517405	0.132048	-0.429897	-0.138114	-1.16851	-1.19127	-0.267872	-0.719426	-1.29086	-1.59153	-0.183999	-0.69108	-0.744763	-0.382845	-0.44606	-0.274532	-0.44482	-0.175428	-0.357076	-0.102446	-0.835885	-0.090957	-0.231574	-0.463967	
0.768269	4.22363	5	0	-0.60346	-1.00121	-0.384931	-0.527401	-0.799147	0.0428067	-0.521898	0.0944002	-0.523265	0.133761	-0.429897	-0.138114	-1.17761	-1.1943	-0.265588	-0.725878	-1.30169	-1.58877	-0.182482	-0.695366	-0.742217	-0.390042	-0.44463	-0.278575	-0.437134	-0.174908	-0.357076	-0.102446	-0.835885	-0.090957	-0.22425	-0.462103	
0.765894	4.22668	5	0	-0.611897	-1.00245	-0.394428	-0.518602	-0.805307	0.04171	-0.515136	0.075289	-0.529124	0.135473	-0.429897	-0.138114	-1.18672	-1.19733	-0.263305	-0.732331	-1.31253	-1.586	-0.180965	-0.699653	-0.739671	-0.397238	-0.443199	-0.282619	-0.429449	-0.174389	-0.357076	-0.102446	-0.835885	-0.090957	-0.216926	-0.460239	
0.764943	4.22516	5	0	-0.620321	-1.0037	-0.393234	-0.521977	-0.817607	0.0395145	-0.52786	0.071872	-0.529143	0.120691	-0.433302	-0.152082	-1.18053	-1.21483	-0.272813	-0.733553	-1.29375	-1.61121	-0.186384	-0.702698	-0.746381	-0.417695	-0.442596	-0.304735	-0.443536	-0.179029	-0.366708	-0.110668	-0.852982	-0.0846362	-0.215396	-0.464565	
0.765102	4.22211	5	0	-0.628745	-1.00494	-0.39204	-0.525351	-0.829906	0.037319	-0.540585	0.068455	-0.529162	0.105908	-0.436708	-0.16605	-1.17434	-1.23232	-0.282321	-0.734774	-1.27498	-1.63641	-0.191802	-0.705743	-0.75309	-0.438152	-0.441993	-0.326852	-0.457623	-0.183669	-0.37634	-0.118889	-0.870078	-0.0783155	-0.213865	-0.46889	
0.766058	4.22211	5	0	-0.63717	-1.00618	-0.390846	-0.528725	-0.842205	0.0351235	-0.553309	0.065038	-0.52918	0.0911255	-0.440113	-0.180018	-1.16815	-1.24981	-0.291829	-0.735996	-1.2562	-1.66161	-0.197221	-0.708788	-0.759799	-0.458608	-0.441389	-0.348969	-0.47171	-0.18831	-0.385973	-0.127111	-0.887175	-0.0719947	-0.212334	-0.473216	
0.767496	4.22516	0	0	-0.645594	-1.00743	-0.389652	-0.5321	-0.854505	0.032928	-0.566033	0.061621	-0.529199	0.076343	-0.443518	-0.193986	-1.16196	-1.26731	-0.301337	-0.737218	-1.23743	-1.68681	-0.20264	-0.711833	-0.766509	-0.479065	-0.440786	-0.371085	-0.485797	-0.19295	-0.395605	-0.135332	-0.904272	-0.065674	-0.210804	-0.477542	
0.769102	4.22363	0	0	-0.655556	-1.00429	-0.382543	-0.53415	-0.850977	0.022959	-0.564685	0.0578103	-0.533108	0.0725662	-0.44538	-0.188725	-1.17312	-1.26449	-0.303238	-0.745876	-1.25025	-1.67844	-0.211082	-0.706317	-0.762707	-0.48981	-0.437935	-0.379142	-0.483252	-0.200143	-0.400415	-0.139435	-0.882712	-0.0846085	-0.219658	-0.47508	
0.770581	4.22516	0	0	-0.665519	-1.00115	-0.375435	-0.536201	-0.84745	0.01299	-0.563336	0.0539995	-0.537017	0.0687895	-0.447241	-0.183464	-1.18428	-1.26168	-0.305139	-0.754534	-1.26307	-1.67006	-0.219523	-0.700802	-0.758906	-0.500555	-0.435084	-0.387198	-0.480706	-0.207337	-0.405224	-0.143539	-0.861152	-0.103543	-0.228513	-0.472619	
0.771704	4.22211	0	0	-0.675482	-0.99801	-0.368327	-0.538251	-0.843923	0.003021	-0.561987	0.0501888	-0.540925	0.0650127	-0.449102	-0.178203	-1.19544	-1.25887	-0.30704	-0.763192	-1.2759	-1.66168	-0.227965	-0.695286	-0.755104	-0.511299	-0.432234	-0.395254	-0.478161	-0.21453	-0.410034	-0.147643	-0.839592	-0.122478	-0.237368	-0.470157	
0.77225	4.22211	0	0	-0.685444	-0.994872	-0.361218	-0.540302	-0.840395	-0.006948	-0.560639	0.046378	-0.544834	0.061236	-0.450964	-0.172942	-1.20659	-1.25605	-0.308941	-0.77185	-1.28872	-1.6533	-0.236407	-0.68977	-0.751302	-0.522044	-0.429383	-0.403311	-0.475616	-0.221723	-0.414844	-0.151746	-0.818032	-0.141412	-0.246222	-0.467695	
0.772004	4.22058	0	0	-0.679245	-1.01239	-0.368327	-0.538251	-0.841844	-0.021304	-0.560264	0.0256598	-0.54874	0.0574633	-0.459947	-0.171117	-1.20248	-1.26769	-0.310844	-0.780493	-1.2907	-1.64769	-0.237922	-0.685488	-0.751302	-0.522044	-0.440192	-0.393152	-0.476888	-0.218127	-0.42187	-0.149568	-0.837361	-0.128782	-0.247752	-0.463371	
0.770746	4.22211	0	0	-0.673046	-1.02991	-0.375435	-0.536201	-0.843293	-0.03566	-0.559889	0.0049415	-0.552646	0.0536905	-0.46893	-0.169292	-1.19836	-1.27932	-0.312747	-0.789135	-1.29269	-1.64209	-0.239437	-0.681206	-0.751302	-0.522044	-0.451001	-0.382992	-0.478161	-0.214531	-0.428897	-0.147391	-0.856691	-0.116152	-0.249282	-0.459048	
0.768259	4.22058	0	0	-0.666847	-1.04743	-0.382543	-0.53415	-0.844741	-0.050016	-0.559513	-0.0157767	-0.556551	0.0499177	-0.477913	-0.167467	-1.19424	-1.29096	-0.314649	-0.797778	-1.29467	-1.63649	-0.240953	-0.676923	-0.751302	-0.522044	-0.461811	-0.372833	-0.479434	-0.210936	-0.435923	-0.145213	-0.87602	-0.103522	-0.250812	-0.454724	
0.76444	4.22058	0	0	-0.660648	-1.06495	-0.389652	-0.5321	-0.84619	-0.064372	-0.559138	-0.036495	-0.560457	0.046145	-0.486896	-0.165642	-1.19013	-1.30259	-0.316552	-0.806421	-1.29665	-1.63088	-0.242468	-0.672641	-0.751302	-0.522044	-0.47262	-0.362674	-0.480706	-0.20734	-0.442949	-0.143036	-0.895349	-0.090892	-0.252342	-0.4504	
0.759772	4.22058	0	0	-0.657553	-1.0737	-0.37777	-0.547641	-0.848816	-0.0753822	-0.558781	-0.0571405	-0.559519	0.0286937	-0.490291	-0.179578	-1.18396	-1.32002	-0.323765	-0.814045	-1.29269	-1.64209	-0.239438	-0.681203	-0.752769	-0.537576	-0.473453	-0.380686	-0.483291	-0.222222	-0.443313	-0.15967	-0.871563	-0.116118	-0.268486	-0.449819	
0.754926	4.22058	0	0	-0.654458	-1.08244	-0.365888	-0.563182	-0.851442	-0.0863925	-0.558424	-0.077786	-0.558581	0.0112425	-0.493686	-0.193515	-1.17779	-1.33745	-0.330977	-0.82167	-1.28872	-1.65329	-0.236408	-0.689766	-0.754236	-0.553109	-0.474287	-0.398698	-0.485875	-0.237104	-0.443677	-0.176305	-0.847776	-0.141344	-0.28463	-0.449237	
0.75057	4.21753	0	0	-0.651363	-1.09119	-0.354006	-0.578722	-0.854069	-0.0974027	-0.558068	-0.0984315	-0.557643	-0.00620875	-0.497082	-0.207451	-1.17163	-1.35487	-0.338189	-0.829295	-1.28476	-1.6645	-0.233379	-0.698328	-0.755703	-0.568642	-0.475121	-0.416709	-0.488459	-0.251985	-0.444041	-0.19294	-0.82399	-0.166571	-0.300774	-0.448655	
0.747374	4.21753	0	0	-0.648268	-1.09994	-0.342124	-0.594263	-0.856695	-0.108413	-0.557711	-0.119077	-0.556705	-0.02366	-0.500477	-0.221387	-1.16546	-1.3723	-0.345402	-0.836919	-1.28079	-1.6757	-0.230349	-0.70689	-0.75717	-0.584174	-0.475954	-0.434721	-0.491044	-0.266867	-0.444405	-0.209574	-0.800204	-0.191797	-0.316918	-0.448074	
0.746008	4.21905	0	0	-0.65822	-1.09679	-0.340932	-0.597633	-0.861661	-0.112793	-0.56406	-0.120749	-0.561577	-0.0246798	-0.489646	-0.228464	-1.17661	-1.36947	-0.347305	-0.84553	-1.27881	-1.6813	-0.238782	-0.70138	-0.755907	-0.587744	-0.475954	-0.434721	-0.498705	-0.267376	-0.457319	-0.208354	-0.819533	-0.179167	-0.312337	-0.46102	
0.746962	4.21753	0	0	-0.668173	-1.09365	-0.33974	-0.601002	-0.866626	-0.117172	-0.57041	-0.122421	-0.566449	-0.0256995	-0.478816	-0.23554	-1.18775	-1.36665	-0.349208	-0.85414	-1.27683	-1.6869	-0.247215	-0.695869	-0.754644	-0.591314	-0.475954	-0.434721	-0.506366	-0.267884	-0.470232	-0.207134	-0.838863	-0.166537	-0.307756	-0.473966	
0.7499	4.21905	0	0	-0.678125	-1.09051	-0.338548	-0.604371	-0.871592	-0.121552	-0.576759	-0.124093	-0.57132	-0.0267192	-0.467985	-0.242617	-1.1989	-1.36383	-0.351111	-0.86275	-1.27485	-1.69249	-0.255649	-0.690358	-0.75338	-0.594884	-0.475954	-0.434721	-0.514028	-0.268393	-0.483146	-0.205915	-0.858192	-0.153906	-0.303176	-0.486912	
0.754246	4.21753	5	0	-0.688078	-1.08736	-0.337356	-0.607741	-0.876558	-0.125932	-0.583108	-0.125765	-0.576192	-0.027739	-0.457155	-0.249694	-1.21005	-1.361	-0.353014	-0.871361	-1.27287	-1.69809	-0.264082	-0.684848	-0.752117	-0.598454	-0.475954	-0.434721	-0.521689	-0.268902	-0.496059	-0.204695	-0.877521	-0.141276	-0.298595	-0.499858	
0.759427	4.216	5	0	-0.683443	-1.10046	-0.340894	-0.615781	-0.878018	-0.140201	-0.593112	-0.136661	-0.580093	-0.0314895	-0.464274	-0.253105	-1.21707	-1.36977	-0.358314	-0.870359	-1.28765	-1.68413	-0.257163	-0.686079	-0.762428	-0.588972	-0.477376	-0.430703	-0.522958	-0.265316	-0.489052	-0.206868	-0.877521	-0.141276	-0.308942	-0.493097	
0.764867	4.216	5	0	-0.678809	-1.11356	-0.344432	-0.623821	-0.879478	-0.154471	-0.603117	-0.147557	-0.583994	-0.03524	-0.471394	-0.256516	-1.2241	-1.37854	-0.363615	-0.869357	-1.30244	-1.67016	-0.250244	-0.687309	-0.772738	-0.579491	-0.478797	-0.426685	-0.524226	-0.26173	-0.482045	-0.209041	-0.877521	-0.141276	-0.319289	-0.486336	
0.769991	4.21448	5	0	-0.674175	-1.12666	-0.34797	-0.63186	-0.880938	-0.168741	-0.613121	-0.158453	-0.587896	-0.0389905	-0.478513	-0.259928	-1.23113	-1.38731	-0.368916	-0.868355	-1.31722	-1.6562	-0.243326	-0.688539	-0.783049	-0.570009	-0.480219	-0.422666	-0.525495	-0.258144	-0.475038	-0.211215	-0.877521	-0.141276	-0.329636	-0.479575	
0.77426	4.21753	5	0	-0.66954	-1.13976	-0.351508	-0.6399	-0.882398	-0.18301	-0.623126	-0.169349	-0.591797	-0.042741	-0.485633	-0.263339	-1.23816	-1.39608	-0.374216	-0.867353	-1.33201	-1.64224	-0.236407	-0.68977	-0.79336	-0.560527	-0.481641	-0.418648	-0.526764	-0.254558	-0.468031	-0.213388	-0.877521	-0.141276	-0.339983	-0.472814	
0.777421	4.21753	5	0	-0.677938	-1.14097	-0.356234	-0.644566	-0.886194	-0.19066	-0.615123	-0.191968	-0.595696	-0.0464878	-0.501695	-0.264921	-1.23407	-1.40765	-0.374216	-0.867353	-1.31722	-1.6562	-0.253265	-0.678754	-0.797348	-0.568893	-0.493255	-0.426491	-0.531879	-0.262236	-0.477615	-0.221545	-0.87307	-0.153855	-0.347267	-0.474681	
0.77935	4.21448	5	0	-0.686335	-1.14219	-0.36096	-0.649231	-0.889989	-0.19831	-0.60712	-0.214587	-0.599594	-0.0502345	-0.517756	-0.266502	-1.22997	-1.41922	-0.374216	-0.867353	-1.30244	-1.67016	-0.270124	-0.667739	-0.801336	-0.57726	-0.50487	-0.434334	-0.536994	-0.269915	-0.487199	-0.229701	-0.868619	-0.166433	-0.354552	-0.476549	
0.779926	4.21295	5	0	-0.694733	-1.14341	-0.365686	-0.653896	-0.893785	-0.20596	-0.599116	-0.237205	-0.603492	-0.0539813	-0.533818	-0.268084	-1.22588	-1.43079	-0.374216	-0.867353	-1.28765	-1.68413	-0.286982	-0.656723	-0.805324	-0.585626	-0.516485	-0.442177	-0.542109	-0.277594	-0.496783	-0.237857	-0.864169	-0.179012	-0.361836	-0.478417	
0.779028	4.21142	5	0	-0.703131	-1.14463	-0.370412	-0.658562	-0.897581	-0.21361	-0.591113	-0.259824	-0.607391	-0.057728	-0.54988	-0.269666	-1.22179	-1.44235	-0.374216	-0.867353	-1.27287	-1.69809	-0.30384	-0.645707	-0.809312	-0.593992	-0.528099	-0.45002	-0.547224	-0.285272	-0.506367	-0.246014	-0.859718	-0.19159	-0.36912	-0.480284	
0.776536	4.21448	5	0	-0.704673	-1.14027	-0.37751	-0.656507	-0.897581	-0.21361	-0.600113	-0.253943	-0.607391	-0.057728	-0.54803	-0.274896	-1.22179	-1.44235	-0.377615	-0.857745	-1.27089	-1.70369	-0.302326	-0.649987	-0.80553	-0.604681	-0.523845	-0.462042	-0.552335	-0.292935	-0.510049	-0.253204	-0.857495	-0.197873	-0.377918	-0.477847	
0.772343	4.216	5	0	-0.706216	-1.13591	-0.384608	-0.654451	-0.897581	-0.21361	-0.609113	-0.248063	-0.607391	-0.057728	-0.546179	-0.280127	-1.22179	-1.44235	-0.381015	-0.848137	-1.26891	-1.70928	-0.300811	-0.654268	-0.801748	-0.615369	-0.519591	-0.474064	-0.557446	-0.300598	-0.513732	-0.260393	-0.855272	-0.204155	-0.386716	-0.475409	
0.76662	4.21295	5	0	-0.707758	-1.13155	-0.391706	-0.652396	-0.897581	-0.21361	-0.618113	-0.242182	-0.607391	-0.057728	-0.544328	-0.285357	-1.22179	-1.44235	-0.384414	-0.838529	-1.26693	-1.71487	-0.299296	-0.658548	-0.797965	-0.626058	-0.515337	-0.486087	-0.562556	-0.308262	-0.517414	-0.267583	-0.853049	-0.210437	-0.395514	-0.472971	
0.759753	4.216	5	0	-0.709301	-1.12719	-0.398804	-0.650341	-0.897581	-0.21361	-0.627113	-0.236301	-0.607391	-0.057728	-0.542478	-0.290587	-1.22179	-1.44235	-0.387814	-0.828921	-1.26495	-1.72047	-0.297782	-0.662828	-0.794183	-0.636747	-0.511083	-0.498109	-0.567667	-0.315925	-0.521096	-0.274773	-0.850826	-0.21672	-0.404312	-0.470534	
0.752135	4.21142	5	0	-0.704676	-1.14026	-0.384581	-0.672533	-0.900212	-0.224532	-0.635773	-0.250874	-0.611287	-0.0614708	-0.547722	-0.299209	-1.23086	-1.44531	-0.382515	-0.82992	-1.27776	-1.7121	-0.296268	-0.667106	-0.803211	-0.630848	-0.51901	-0.496008	-0.570198	-0.308772	-0.524408	-0.265413	-0.86789	-0.210396	-0.404312	-0.470534	
0.744161	4.2099	5	0	-0.70005	-1.15333	-0.370358	-0.694724	-0.902844	-0.235455	-0.644433	-0.265447	-0.615183	-0.0652135	-0.552967	-0.307831	-1.23993	-1.44826	-0.377216	-0.830919	-1.29056	-1.70373	-0.294755	-0.671384	-0.81224	-0.624948	-0.526936	-0.493907	-0.57273	-0.301619	-0.52772	-0.256054	-0.884954	-0.204072	-0.404312	-0.470534	
0.736224	4.21142	5	0	-0.695425	-1.16641	-0.356135	-0.716916	-0.905475	-0.246377	-0.653093	-0.28002	-0.619079	-0.0689562	-0.558211	-0.316453	-1.249	-1.45122	-0.371916	-0.831917	-1.30337	-1.69537	-0.293241	-0.675662	-0.821268	-0.619049	-0.534863	-0.491805	-0.575261	-0.294466	-0.531031	-0.246694	-0.902019	-0.197749	-0.404312	-0.470534	
0.728702	4.21295	5	0	-0.690799	-1.17948	-0.341912	-0.739108	-0.908107	-0.257299	-0.661753	-0.294593	-0.622975	-0.072699	-0.563455	-0.325075	-1.25807	-1.45418	-0.366617	-0.832916	-1.31617	-1.687	-0.291727	-0.67994	-0.830297	-0.61315	-0.54279	-0.489704	-0.577792	-0.287313	-0.534343	-0.237335	-0.919083	-0.191425	-0.404312	-0.470534	
0.721829	4.21142	5	0	-0.700727	-1.17634	-0.357291	-0.731636	-0.906945	-0.260584	-0.666742	-0.299986	-0.627832	-0.0737145	-0.559764	-0.335508	-1.26712	-1.45713	-0.37532	-0.822299	-1.31419	-1.69259	-0.298631	-0.678716	-0.842032	-0.619156	-0.545049	-0.503598	-0.581631	-0.298544	-0.538019	-0.244525	-0.916863	-0.197699	-0.402789	-0.474839	
0.715755	4.21142	5	0	-0.710654	-1.1732	-0.372671	-0.724163	-0.905782	-0.263869	-0.671732	-0.305378	-0.632688	-0.07473	-0.556072	-0.345941	-1.27618	-1.46008	-0.384023	-0.811682	-1.31221	-1.69818	-0.305535	-0.677493	-0.853766	-0.625163	-0.547308	-0.517492	-0.58547	-0.309775	-0.541695	-0.251715	-0.914643	-0.203973	-0.401265	-0.479144	
0.710631	4.20685	5	0	-0.720582	-1.17006	-0.38805	-0.716691	-0.90462	-0.267155	-0.676721	-0.310771	-0.637545	-0.0757455	-0.55238	-0.356374	-1.28523	-1.46304	-0.392725	-0.801065	-1.31024	-1.70377	-0.312438	-0.67627	-0.865501	-0.631169	-0.549567	-0.531386	-0.589309	-0.321006	-0.545372	-0.258906	-0.912423	-0.210246	-0.399742	-0.483449	
0.706605	4.20837	5	0	-0.73051	-1.16692	-0.403429	-0.709219	-0.903458	-0.27044	-0.68171	-0.316163	-0.642402	-0.076761	-0.548689	-0.366807	-1.29429	-1.46599	-0.401428	-0.790448	-1.30826	-1.70936	-0.319342	-0.675046	-0.877236	-0.637176	-0.551826	-0.54528	-0.593148	-0.332237	-0.549048	-0.266096	-0.910203	-0.21652	-0.398219	-0.487754	
0.703827	4.21142	5	0	-0.73205	-1.16256	-0.403429	-0.709219	-0.905783	-0.263869	-0.676721	-0.310771	-0.643366	-0.074037	-0.543438	-0.358203	-1.29429	-1.46599	-0.398402	-0.785023	-1.31024	-1.70377	-0.313952	-0.671992	-0.874722	-0.644281	-0.551826	-0.54528	-0.591885	-0.335807	-0.550151	-0.262979	-0.929445	-0.203947	-0.410052	-0.476712	
0.702369	4.21142	5	0	-0.733591	-1.15821	-0.403429	-0.709219	-0.908108	-0.257297	-0.671732	-0.305378	-0.644329	-0.071313	-0.538188	-0.3496	-1.29429	-1.46599	-0.395375	-0.779598	-1.31221	-1.69818	-0.308562	-0.668937	-0.872208	-0.651385	-0.551826	-0.54528	-0.590622	-0.339377	-0.551254	-0.259861	-0.948688	-0.191374	-0.421885	-0.465671	
0.702059	4.20837	5	0	-0.735132	-1.15386	-0.403429	-0.709219	-0.910434	-0.250725	-0.666742	-0.299986	-0.645293	-0.068589	-0.532937	-0.340996	-1.29429	-1.46599	-0.392348	-0.774173	-1.31419	-1.69259	-0.303172	-0.665882	-0.869694	-0.658489	-0.551826	-0.54528	-0.589358	-0.342948	-0.552357	-0.256744	-0.967931	-0.1788	-0.433718	-0.45463	
