6.64062	0	0	0.33368	-0.474163	-0.061183	0.018299	0.329544	-0.473839	0.23228	-0.262613	-0.301978	0.166663	0.15665	-0.60853	0.171191	-0.518668	0.668768	-0.458558	0.2625	-0.173591	0.104771	-0.085867	0.76206	0.272045	0.516106	-0.158502	0.752897	0.171709	0.699417	-0.272778	1.87901	-1.23107	0.491313	-0.329248	
6.63605	0	0	0.331541	-0.481551	-0.0619388	0.0204348	0.336738	-0.482461	0.238322	-0.270284	-0.305881	0.169213	0.158201	-0.612913	0.16553	-0.520085	0.659494	-0.474027	0.270125	-0.175988	0.0924365	-0.0778075	0.76301	0.269361	0.517209	-0.161619	0.759206	0.165822	0.701065	-0.277437	1.88396	-1.23594	0.495761	-0.333797	
6.63299	0	0	0.329401	-0.488938	-0.0626945	0.0225705	0.343933	-0.491083	0.244364	-0.277956	-0.309784	0.171764	0.159751	-0.617297	0.15987	-0.521502	0.650221	-0.489496	0.277749	-0.178385	0.080102	-0.069748	0.763959	0.266678	0.518312	-0.164737	0.765516	0.159934	0.702713	-0.282095	1.8889	-1.24082	0.50021	-0.338346	
6.62994	0	0	0.327261	-0.496326	-0.0634502	0.0247062	0.351127	-0.499705	0.250407	-0.285627	-0.313687	0.174314	0.161302	-0.62168	0.154209	-0.52292	0.640948	-0.504965	0.285374	-0.180781	0.0677675	-0.0616885	0.764909	0.263994	0.519416	-0.167855	0.771825	0.154047	0.704362	-0.286754	1.89385	-1.24569	0.504659	-0.342895	
6.63147	0	0	0.325122	-0.503714	-0.064206	0.026842	0.358322	-0.508327	0.256449	-0.293298	-0.31759	0.176864	0.162853	-0.626063	0.148549	-0.524337	0.631674	-0.520434	0.292999	-0.183178	0.055433	-0.053629	0.765859	0.26131	0.520519	-0.170972	0.778134	0.14816	0.70601	-0.291413	1.8988	-1.25056	0.509107	-0.347444	
6.62994	0	0	0.333325	-0.513462	-0.0670043	0.0286703	0.358322	-0.508327	0.265112	-0.298959	-0.31759	0.176864	0.165953	-0.634823	0.150902	-0.530987	0.623234	-0.538165	0.286564	-0.184143	0.0423605	-0.0434453	0.776733	0.243897	0.518533	-0.17686	0.777322	0.150455	0.702759	-0.291079	1.8946	-1.24782	0.509107	-0.347444	
6.62994	0	0	0.341527	-0.523211	-0.0698025	0.0304985	0.358322	-0.508327	0.273776	-0.30462	-0.31759	0.176864	0.169052	-0.643582	0.153254	-0.537637	0.614794	-0.555897	0.280129	-0.185108	0.029288	-0.0332615	0.787606	0.226485	0.516547	-0.182748	0.776509	0.152751	0.699507	-0.290744	1.89041	-1.24509	0.509107	-0.347444	
6.62689	0	0	0.34973	-0.532959	-0.0726007	0.0323268	0.358322	-0.508327	0.282439	-0.31028	-0.31759	0.176864	0.172151	-0.652342	0.155607	-0.544286	0.606354	-0.573628	0.273693	-0.186073	0.0162155	-0.0230777	0.79848	0.209072	0.51456	-0.188635	0.775697	0.155047	0.696255	-0.290409	1.88622	-1.24235	0.509107	-0.347444	
6.62536	0	0	0.357933	-0.542707	-0.075399	0.034155	0.358322	-0.508327	0.291102	-0.315941	-0.31759	0.176864	0.175251	-0.661102	0.15796	-0.550936	0.597914	-0.59136	0.267258	-0.187038	0.003143	-0.012894	0.809354	0.19166	0.512574	-0.194523	0.774885	0.157342	0.693004	-0.290075	1.88203	-1.23961	0.509107	-0.347444	
6.62079	0	0	0.3621	-0.541042	-0.0726007	0.0323268	0.361008	-0.5042	0.297204	-0.314342	-0.321491	0.179413	0.169611	-0.660781	0.160311	-0.557581	0.590839	-0.604566	0.276073	-0.192798	-0.002253	-0.01101	0.807014	0.184954	0.512574	-0.194523	0.780386	0.153748	0.693828	-0.292403	1.88547	-1.24021	0.501723	-0.342619	
6.61774	0	0	0.366268	-0.539376	-0.0698025	0.0304985	0.363694	-0.500072	0.303305	-0.312743	-0.325392	0.181962	0.163971	-0.660461	0.162662	-0.564226	0.583764	-0.617771	0.284887	-0.198557	-0.007649	-0.009126	0.804674	0.178248	0.512574	-0.194523	0.785886	0.150154	0.694651	-0.294731	1.8889	-1.24082	0.494339	-0.337795	
6.61774	0	0	0.370436	-0.53771	-0.0670043	0.0286703	0.366379	-0.495945	0.309407	-0.311144	-0.329293	0.184511	0.158331	-0.66014	0.165014	-0.57087	0.576689	-0.630977	0.293702	-0.204317	-0.013045	-0.007242	0.802335	0.171541	0.512574	-0.194523	0.791386	0.14656	0.695475	-0.297058	1.89234	-1.24142	0.486956	-0.332971	
6.61316	0	0	0.374603	-0.536045	-0.064206	0.026842	0.369065	-0.491817	0.315508	-0.309545	-0.333194	0.18706	0.152691	-0.659819	0.167365	-0.577515	0.569614	-0.644183	0.302517	-0.210077	-0.018441	-0.005358	0.799995	0.164835	0.512574	-0.194523	0.796887	0.142966	0.696299	-0.299386	1.89577	-1.24202	0.479572	-0.328146	
6.61163	0	0	0.37574	-0.525804	-0.0586067	0.0231833	0.369944	-0.482576	0.315558	-0.300258	-0.329293	0.184511	0.15988	-0.664516	0.167365	-0.577515	0.569893	-0.653262	0.303706	-0.213438	-0.0215152	-0.00334925	0.808018	0.155479	0.518753	-0.188978	0.801578	0.141665	0.698727	-0.297393	1.89997	-1.24476	0.483263	-0.330558	
6.61163	0	0	0.376876	-0.515564	-0.0530075	0.0195245	0.370823	-0.473336	0.315608	-0.290971	-0.325392	0.181962	0.167069	-0.669214	0.167365	-0.577515	0.570172	-0.662341	0.304895	-0.216798	-0.0245895	-0.0013405	0.816042	0.146123	0.524933	-0.183434	0.80627	0.140365	0.701155	-0.295399	1.90416	-1.2475	0.486954	-0.33297	
6.60858	0	0	0.378013	-0.505323	-0.0474082	0.0158658	0.371702	-0.464095	0.315658	-0.281685	-0.321491	0.179413	0.174257	-0.673911	0.167365	-0.577515	0.57045	-0.671421	0.306085	-0.220159	-0.0276638	0.00066825	0.824065	0.136767	0.531112	-0.17789	0.810962	0.139065	0.703582	-0.293406	1.90835	-1.25024	0.490645	-0.335381	
6.60248	0	0	0.379149	-0.495082	-0.041809	0.012207	0.372581	-0.454854	0.315708	-0.272398	-0.31759	0.176864	0.181446	-0.678608	0.167365	-0.577515	0.570729	-0.6805	0.307274	-0.223519	-0.030738	0.002677	0.832088	0.127411	0.537292	-0.172345	0.815653	0.137764	0.70601	-0.291413	1.91254	-1.25298	0.494336	-0.337793	
6.60553	0	0	0.376112	-0.486499	-0.039008	0.0103768	0.368962	-0.444627	0.309651	-0.264709	-0.31759	0.176864	0.174257	-0.673911	0.16619	-0.574193	0.565557	-0.682453	0.304895	-0.216797	-0.030738	0.002677	0.84152	0.127419	0.540162	-0.157419	0.821792	0.144353	0.707568	-0.278093	1.91674	-1.25572	0.505419	-0.345035	
6.59942	0	0	0.373075	-0.477916	-0.036207	0.0085465	0.365344	-0.4344	0.303594	-0.257019	-0.31759	0.176864	0.167069	-0.669214	0.165015	-0.570871	0.560385	-0.684405	0.302516	-0.210074	-0.030738	0.002677	0.850952	0.127427	0.543032	-0.142493	0.827932	0.150942	0.709126	-0.264774	1.92093	-1.25846	0.516501	-0.352276	
6.58874	0	0	0.370038	-0.469333	-0.033406	0.00671625	0.361726	-0.424174	0.297538	-0.24933	-0.31759	0.176864	0.15988	-0.664516	0.163839	-0.56755	0.555212	-0.686358	0.300138	-0.203352	-0.030738	0.002677	0.860384	0.127436	0.545902	-0.127567	0.834072	0.157532	0.710683	-0.251455	1.92513	-1.2612	0.527584	-0.359518	
6.59485	0	0	0.367001	-0.46075	-0.030605	0.004886	0.358107	-0.413947	0.291481	-0.241641	-0.31759	0.176864	0.152691	-0.659819	0.162664	-0.564228	0.55004	-0.688311	0.297759	-0.19663	-0.030738	0.002677	0.869816	0.127444	0.548772	-0.112641	0.840211	0.164121	0.712241	-0.238135	1.92932	-1.26395	0.538667	-0.36676	
6.59637	0	0	0.365988	-0.457887	-0.027803	0.00305525	0.357202	-0.411388	0.27064	-0.239211	-0.32539	0.181961	0.120504	-0.662295	0.158181	-0.568957	0.549499	-0.695061	0.297759	-0.19663	-0.0276638	0.00066825	0.861783	0.136811	0.548543	-0.100465	0.840839	0.174328	0.710537	-0.224452	1.92932	-1.26395	0.542365	-0.369176	
6.59332	0	0	0.364975	-0.455024	-0.025001	0.0012245	0.356296	-0.40883	0.249799	-0.236781	-0.33319	0.187057	0.088318	-0.664771	0.153697	-0.573686	0.548957	-0.701812	0.297759	-0.19663	-0.0245895	-0.0013405	0.853749	0.146178	0.548315	-0.0882895	0.841468	0.184534	0.708833	-0.210769	1.92932	-1.26395	0.546062	-0.371592	
6.83288	0	0	0.363962	-0.452161	-0.022199	-0.00060625	0.35539	-0.406271	0.228958	-0.234352	-0.34099	0.192154	0.0561315	-0.667247	0.149214	-0.578415	0.548415	-0.708562	0.297759	-0.19663	-0.0215152	-0.00334925	0.845716	0.155544	0.548086	-0.0761137	0.842096	0.194741	0.707129	-0.197085	1.92932	-1.26395	0.549759	-0.374008	
6.59942	0	0	0.362949	-0.449298	-0.019397	-0.002437	0.354485	-0.403712	0.208117	-0.231922	-0.34879	0.197251	0.023945	-0.669723	0.144731	-0.583144	0.547874	-0.715312	0.297759	-0.19663	-0.018441	-0.005358	0.837682	0.164911	0.547857	-0.063938	0.842724	0.204948	0.705425	-0.183402	1.92932	-1.26395	0.553457	-0.376424	
6.56738	0	0	0.372305	-0.448804	-0.00818025	-0.0097665	0.358074	-0.402121	0.193405	-0.227897	-0.344891	0.194703	-0.00960175	-0.667888	0.153913	-0.591695	0.551685	-0.717802	0.298949	-0.199992	-0.0215152	-0.00334925	0.842873	0.163579	0.552059	-0.0642755	0.841093	0.209556	0.707025	-0.179054	1.93772	-1.26943	0.553457	-0.376424	
6.57043	0	0	0.381661	-0.448311	0.0030365	-0.017096	0.361662	-0.400531	0.178694	-0.223871	-0.340992	0.192156	-0.0431485	-0.666053	0.163095	-0.600245	0.555496	-0.720292	0.300138	-0.203354	-0.0245895	-0.0013405	0.848063	0.162247	0.55626	-0.064613	0.839463	0.214164	0.708625	-0.174705	1.94612	-1.27492	0.553457	-0.376424	
6.56738	0	0	0.391017	-0.447817	0.0142533	-0.0244255	0.365251	-0.39894	0.163982	-0.219845	-0.337093	0.189608	-0.0766952	-0.664218	0.172277	-0.608795	0.559307	-0.722782	0.301327	-0.206715	-0.0276638	0.00066825	0.853253	0.160915	0.560462	-0.0649505	0.837832	0.218772	0.710226	-0.170356	1.95451	-1.2804	0.553457	-0.376424	
6.56128	0	0	0.400373	-0.447324	0.02547	-0.031755	0.36884	-0.397349	0.14927	-0.21582	-0.333194	0.18706	-0.110242	-0.662383	0.181459	-0.617346	0.563118	-0.725272	0.302517	-0.210077	-0.030738	0.002677	0.858444	0.159583	0.564663	-0.065288	0.836201	0.22338	0.711826	-0.166008	1.96291	-1.28589	0.553457	-0.376424	
6.5567	0	0	0.408729	-0.443964	0.0338922	-0.0372582	0.370617	-0.390632	0.146699	-0.208553	-0.333194	0.18706	-0.11332	-0.653683	0.180285	-0.614028	0.565296	-0.723144	0.301327	-0.206715	-0.0276638	0.00066825	0.842377	0.178326	0.560226	-0.0527495	0.833754	0.230297	0.71017	-0.161327	1.95871	-1.28315	0.549759	-0.374008	
6.56128	0	0	0.417084	-0.440605	0.0423145	-0.0427615	0.372394	-0.383915	0.144127	-0.201285	-0.333194	0.18706	-0.116399	-0.644983	0.179111	-0.61071	0.567474	-0.721016	0.300138	-0.203354	-0.0245895	-0.0013405	0.82631	0.19707	0.55579	-0.040211	0.831306	0.237214	0.708514	-0.156647	1.95451	-1.2804	0.546062	-0.371592	
6.55975	0	0	0.42544	-0.437246	0.0507368	-0.0482648	0.374172	-0.377199	0.141556	-0.194018	-0.333194	0.18706	-0.119477	-0.636283	0.177937	-0.607392	0.569652	-0.718889	0.298949	-0.199992	-0.0215152	-0.00334925	0.810242	0.215813	0.551354	-0.0276725	0.828859	0.24413	0.706858	-0.151967	1.95031	-1.27766	0.542365	-0.369176	
6.55212	0	0	0.433796	-0.433886	0.059159	-0.053768	0.375949	-0.370482	0.138984	-0.18675	-0.333194	0.18706	-0.122555	-0.627583	0.176763	-0.604074	0.57183	-0.716761	0.297759	-0.19663	-0.018441	-0.005358	0.794175	0.234556	0.546917	-0.015134	0.826412	0.251047	0.705202	-0.147286	1.94611	-1.27492	0.538667	-0.36676	
6.54602	0	0	0.431764	-0.428145	0.0675895	-0.0592765	0.375949	-0.370482	0.140728	-0.182298	-0.329293	0.184511	-0.116024	-0.615101	0.174413	-0.597434	0.566383	-0.709649	0.296569	-0.193267	-0.0161215	-0.00523175	0.785196	0.246613	0.547787	-0.0060495	0.818448	0.261572	0.705972	-0.140587	1.95031	-1.27766	0.542365	-0.369176	
6.55365	0	0	0.429733	-0.422403	0.07602	-0.064785	0.375949	-0.370482	0.142472	-0.177845	-0.325392	0.181962	-0.109493	-0.602618	0.172064	-0.590795	0.560935	-0.702536	0.295379	-0.189904	-0.013802	-0.0051055	0.776218	0.25867	0.548657	0.003035	0.810484	0.272098	0.706742	-0.133887	1.95451	-1.2804	0.546062	-0.371592	
6.54907	0	0	0.427702	-0.416662	0.0844505	-0.0702935	0.375949	-0.370482	0.144216	-0.173393	-0.321491	0.179413	-0.102963	-0.590135	0.169715	-0.584155	0.555487	-0.695423	0.294189	-0.186541	-0.0114825	-0.00497925	0.767239	0.270727	0.549527	0.0121195	0.80252	0.282624	0.707512	-0.127188	1.95871	-1.28315	0.549759	-0.374008	
6.54449	0	0	0.42567	-0.410921	0.092881	-0.075802	0.375949	-0.370482	0.14596	-0.16894	-0.31759	0.176864	-0.096432	-0.577653	0.167365	-0.577515	0.55004	-0.688311	0.292999	-0.183178	-0.009163	-0.004853	0.75826	0.282784	0.550397	0.021204	0.794556	0.293149	0.708282	-0.120489	1.96291	-1.28589	0.553457	-0.376424	
6.54144	0	0	0.427702	-0.416662	0.10132	-0.0813162	0.376856	-0.373045	0.151138	-0.174188	-0.309782	0.171762	-0.0979763	-0.573289	0.176555	-0.586073	0.550857	-0.690622	0.284184	-0.177418	-0.003009	-0.00887425	0.746014	0.290786	0.552377	0.027159	0.787411	0.301368	0.700878	-0.108441	1.95871	-1.28315	0.546064	-0.371593	
6.53534	0	0	0.429733	-0.422403	0.109759	-0.0868305	0.377763	-0.375608	0.156315	-0.179435	-0.301975	0.166661	-0.0995205	-0.568925	0.185746	-0.594631	0.551675	-0.692933	0.27537	-0.171658	0.003145	-0.0128955	0.733768	0.298788	0.554357	0.033114	0.780266	0.309586	0.693475	-0.0963935	1.95451	-1.2804	0.538671	-0.366762	
6.53229	0	0	0.431764	-0.428145	0.118198	-0.0923448	0.37867	-0.378171	0.161493	-0.184683	-0.294168	0.16156	-0.101065	-0.564561	0.194936	-0.603189	0.552492	-0.695244	0.266555	-0.165899	0.009299	-0.0169167	0.721521	0.30679	0.556337	0.039069	0.773121	0.317805	0.686072	-0.0843457	1.95031	-1.27766	0.531277	-0.361931	
6.53076	0	0	0.433796	-0.433886	0.126637	-0.097859	0.379577	-0.380734	0.166671	-0.189931	-0.28636	0.156458	-0.102609	-0.560197	0.204126	-0.611747	0.55331	-0.697555	0.25774	-0.160139	0.015453	-0.020938	0.709275	0.314792	0.558317	0.045024	0.765976	0.326024	0.678668	-0.072298	1.94611	-1.27492	0.523884	-0.3571	
6.52618	0	0	0.442041	-0.443684	0.133023	-0.103674	0.38589	-0.386829	0.178785	-0.195982	-0.278546	0.151352	-0.0985705	-0.556121	0.202951	-0.608426	0.549499	-0.695065	0.25893	-0.163502	0.0162088	-0.0230737	0.703158	0.318789	0.554113	0.0453537	0.762103	0.325005	0.677074	-0.0766648	1.94267	-1.27431	0.512806	-0.349861	
6.52008	0	0	0.450285	-0.453483	0.139409	-0.109489	0.392204	-0.392925	0.190899	-0.202033	-0.270731	0.146246	-0.094532	-0.552045	0.201776	-0.605106	0.545689	-0.692575	0.26012	-0.166865	0.0169645	-0.0252095	0.697041	0.322786	0.54991	0.0456835	0.758229	0.323986	0.67548	-0.0810315	1.93923	-1.2737	0.501728	-0.342623	
6.52161	0	0	0.45853	-0.463281	0.145795	-0.115303	0.398517	-0.39902	0.203013	-0.208085	-0.262916	0.141139	-0.0904935	-0.54797	0.200602	-0.601785	0.541878	-0.690085	0.26131	-0.170228	0.0177202	-0.0273453	0.690925	0.326782	0.545706	0.0460133	0.754355	0.322967	0.673886	-0.0853982	1.93579	-1.27309	0.49065	-0.335384	
6.52161	0	0	0.466774	-0.473079	0.152181	-0.121118	0.40483	-0.405115	0.215127	-0.214136	-0.255102	0.136033	-0.086455	-0.543894	0.199427	-0.598464	0.538067	-0.687595	0.2625	-0.173591	0.018476	-0.029481	0.684808	0.330779	0.541502	0.046343	0.750482	0.321948	0.672292	-0.089765	1.93235	-1.27249	0.479572	-0.328146	
6.51855	0	0	0.471978	-0.474274	0.166274	-0.130327	0.409334	-0.406088	0.217773	-0.202799	-0.239452	0.125807	-0.0799188	-0.531349	0.201568	-0.587085	0.538606	-0.680838	0.26012	-0.166863	0.0215545	-0.0314925	0.676795	0.340145	0.54039	0.049487	0.751299	0.31964	0.668211	-0.0870983	1.92815	-1.26974	0.479572	-0.328146	
6.52161	0	0	0.477182	-0.475469	0.180366	-0.139535	0.413838	-0.40706	0.220419	-0.191463	-0.223801	0.115581	-0.0733825	-0.518805	0.20371	-0.575707	0.539144	-0.67408	0.257739	-0.160136	0.024633	-0.033504	0.668782	0.349511	0.539277	0.052631	0.752115	0.317332	0.66413	-0.0844315	1.92396	-1.267	0.479572	-0.328146	
6.52313	0	0	0.482385	-0.476664	0.194458	-0.148744	0.418341	-0.408033	0.223064	-0.180126	-0.208151	0.105354	-0.0668462	-0.50626	0.205852	-0.564328	0.539683	-0.667323	0.255358	-0.153409	0.0277115	-0.0355155	0.660769	0.358876	0.538164	0.055775	0.752932	0.315024	0.660049	-0.0817647	1.91976	-1.26426	0.479572	-0.328146	
6.52466	0	0	0.487589	-0.477859	0.208551	-0.157952	0.422845	-0.409006	0.22571	-0.16879	-0.192501	0.095128	-0.06031	-0.493715	0.207993	-0.552949	0.540222	-0.660566	0.252978	-0.146681	0.03079	-0.037527	0.652756	0.368242	0.537052	0.058919	0.753749	0.312716	0.655968	-0.079098	1.91557	-1.26152	0.479572	-0.328146	
6.52618	0	0	0.491781	-0.476186	0.214194	-0.161639	0.427352	-0.40998	0.231829	-0.157826	-0.172898	0.082319	-0.0456663	-0.472912	0.21699	-0.543462	0.545111	-0.64952	0.258219	-0.14234	0.0400328	-0.0435663	0.649903	0.376306	0.542119	0.0677062	0.751298	0.319642	0.65673	-0.072384	1.91901	-1.26213	0.479572	-0.328146	
6.53229	0	0	0.495973	-0.474513	0.219838	-0.165327	0.431859	-0.410955	0.237947	-0.146862	-0.153295	0.06951	-0.0310225	-0.452108	0.225986	-0.533975	0.549999	-0.638473	0.26346	-0.137999	0.0492755	-0.0496055	0.64705	0.38437	0.547187	0.0764935	0.748847	0.326568	0.657492	-0.06567	1.92245	-1.26273	0.479572	-0.328146	
6.53839	0	0	0.500166	-0.47284	0.225482	-0.169015	0.436365	-0.41193	0.244066	-0.135898	-0.133692	0.056701	-0.0163787	-0.431304	0.234983	-0.524488	0.554887	-0.627426	0.268701	-0.133659	0.0585183	-0.0556447	0.644196	0.392433	0.552254	0.0852808	0.746397	0.333493	0.658253	-0.058956	1.92588	-1.26334	0.479572	-0.328146	
6.53839	0	0	0.504358	-0.471167	0.231125	-0.172702	0.440872	-0.412904	0.250185	-0.124934	-0.114089	0.043892	-0.001735	-0.410501	0.243979	-0.515001	0.559776	-0.61638	0.273942	-0.129318	0.067761	-0.061684	0.641343	0.400497	0.557322	0.094068	0.743946	0.340419	0.659015	-0.052242	1.92932	-1.26395	0.479572	-0.328146	
6.54144	0	0	0.501181	-0.475708	0.236772	-0.176392	0.439965	-0.41034	0.255417	-0.120859	-0.102305	0.0361925	-0.00391825	-0.388752	0.246119	-0.503569	0.557026	-0.600313	0.2768	-0.118224	0.0762577	-0.065594	0.642694	0.409959	0.557067	0.106354	0.741494	0.34735	0.656449	-0.0361185	1.93352	-1.26669	0.483263	-0.330558	
6.54144	0	0	0.498003	-0.480249	0.24242	-0.180082	0.439057	-0.407776	0.260649	-0.116784	-0.090522	0.028493	-0.0061015	-0.367002	0.248259	-0.492136	0.554276	-0.584245	0.279659	-0.10713	0.0847545	-0.069504	0.644046	0.41942	0.556812	0.118641	0.739042	0.354281	0.653883	-0.019995	1.93772	-1.26943	0.486954	-0.33297	
6.54297	0	0	0.494825	-0.484791	0.248067	-0.183772	0.43815	-0.405213	0.265882	-0.11271	-0.0787385	0.0207935	-0.00828475	-0.345252	0.250399	-0.480704	0.551525	-0.568178	0.282517	-0.0960368	0.0932513	-0.073414	0.645397	0.428882	0.556557	0.130927	0.736589	0.361212	0.651317	-0.0038715	1.94192	-1.27217	0.490645	-0.335381	
6.54755	0	0	0.491648	-0.489332	0.253714	-0.187462	0.437243	-0.402649	0.271114	-0.108635	-0.066955	0.013094	-0.010468	-0.323503	0.252539	-0.469271	0.548775	-0.55211	0.285375	-0.084943	0.101748	-0.077324	0.646748	0.438344	0.556302	0.143213	0.734137	0.368143	0.648751	0.012252	1.94611	-1.27492	0.494336	-0.337793	
6.54755	0	0	0.497871	-0.493398	0.259365	-0.191155	0.445357	-0.402035	0.283351	-0.0959822	-0.0551553	0.00538375	0.00889325	-0.315771	0.254675	-0.457812	0.55448	-0.543327	0.290623	-0.0805835	0.111011	-0.0833765	0.650958	0.439735	0.560511	0.142889	0.732501	0.372767	0.65276	0.018677	1.94687	-1.27705	0.498784	-0.342342	
6.54449	0	0	0.504095	-0.497465	0.265016	-0.194847	0.453472	-0.401421	0.295589	-0.0833295	-0.0433555	-0.0023265	0.0282545	-0.308038	0.256812	-0.446353	0.560185	-0.534544	0.295871	-0.076224	0.120273	-0.089429	0.655168	0.441126	0.56472	0.142565	0.730865	0.37739	0.65677	0.025102	1.94762	-1.27919	0.503233	-0.34689	
6.54602	0	0	0.510318	-0.501532	0.270667	-0.198539	0.461587	-0.400807	0.307826	-0.0706767	-0.0315557	-0.0100367	0.0476158	-0.300306	0.258949	-0.434895	0.565889	-0.525761	0.30112	-0.0718645	0.129535	-0.0954815	0.659378	0.442518	0.56893	0.142241	0.729228	0.382014	0.660779	0.031527	1.94838	-1.28132	0.507682	-0.351438	
6.54297	0	0	0.516541	-0.505598	0.276318	-0.202232	0.469701	-0.400193	0.320063	-0.058024	-0.019756	-0.017747	0.066977	-0.292573	0.261085	-0.423436	0.571594	-0.516978	0.306368	-0.067505	0.138798	-0.101534	0.663588	0.443909	0.573139	0.141917	0.727592	0.386637	0.664788	0.037952	1.94914	-1.28346	0.51213	-0.355987	
6.54449	0	0	0.517691	-0.495316	0.281217	-0.203791	0.462428	-0.379639	0.330612	-0.0309927	-0.00399775	-0.0280437	0.0713252	-0.257887	0.270099	-0.413868	0.578658	-0.503681	0.309226	-0.0563717	0.154258	-0.111636	0.665893	0.450695	0.582428	0.150424	0.730644	0.389978	0.667965	0.0467453	1.95333	-1.2862	0.515068	-0.356265	
6.54144	0	0	0.518841	-0.485035	0.286116	-0.20535	0.455156	-0.359086	0.34116	-0.0039615	0.0117605	-0.0383405	0.0756735	-0.223201	0.279114	-0.404301	0.585722	-0.490385	0.312085	-0.0452385	0.169718	-0.121737	0.668197	0.457481	0.591717	0.158932	0.733696	0.39332	0.671142	0.0555385	1.95753	-1.28894	0.518007	-0.356544	
6.53992	0	0	0.51999	-0.474753	0.291015	-0.206909	0.447883	-0.338532	0.351708	0.0230697	0.0275188	-0.0486372	0.0800218	-0.188515	0.288129	-0.394734	0.592785	-0.477088	0.314943	-0.0341052	0.185177	-0.131839	0.670502	0.464268	0.601007	0.167439	0.736748	0.396661	0.67432	0.0643317	1.96173	-1.29169	0.520946	-0.356822	
6.53686	0	0	0.52114	-0.464472	0.295914	-0.208468	0.440611	-0.317978	0.362257	0.050101	0.043277	-0.058934	0.08437	-0.153829	0.297143	-0.385166	0.599849	-0.463791	0.317802	-0.022972	0.200637	-0.141941	0.672807	0.471054	0.610296	0.175946	0.7398	0.400002	0.677497	0.073125	1.96593	-1.29443	0.523884	-0.3571	
6.53534	0	0	0.521268	-0.451292	0.304403	-0.214015	0.44326	-0.301889	0.367555	0.0826302	0.0543563	-0.064526	0.0943317	-0.119164	0.310692	-0.370767	0.605263	-0.445772	0.318257	-0.00502675	0.219226	-0.154087	0.680285	0.476547	0.613987	0.20034	0.745909	0.406694	0.685525	0.0860332	1.97854	-1.30267	0.538677	-0.366766	
6.52923	0	0	0.521396	-0.438113	0.312892	-0.219562	0.445909	-0.2858	0.372853	0.115159	0.0654355	-0.070118	0.104293	-0.084499	0.32424	-0.356368	0.610677	-0.427753	0.318712	0.0129185	0.237815	-0.166234	0.687763	0.482039	0.617679	0.224733	0.752018	0.413386	0.693553	0.0989415	1.99115	-1.31091	0.55347	-0.376432	
6.52618	0	0	0.521524	-0.424934	0.321381	-0.225109	0.448559	-0.269711	0.378151	0.147689	0.0765148	-0.07571	0.114255	-0.049834	0.337788	-0.341968	0.616091	-0.409734	0.319167	0.0308638	0.256403	-0.17838	0.695241	0.487532	0.62137	0.249126	0.758126	0.420077	0.70158	0.11185	2.00376	-1.31915	0.568262	-0.386098	
6.52313	0	0	0.521652	-0.411754	0.32987	-0.230656	0.451208	-0.253622	0.383449	0.180218	0.087594	-0.081302	0.124217	-0.015169	0.351337	-0.327569	0.621505	-0.391715	0.319622	0.048809	0.274992	-0.190526	0.702719	0.493025	0.625061	0.27352	0.764235	0.426769	0.709608	0.124758	2.01637	-1.32739	0.583055	-0.395764	
6.52313	0	0	0.524832	-0.407191	0.332701	-0.232506	0.452073	-0.244267	0.386964	0.198845	0.095495	-0.0864648	0.129192	0.0022605	0.345376	-0.310722	0.622029	-0.384857	0.330138	0.0576135	0.284301	-0.196609	0.697935	0.506546	0.630989	0.291656	0.762363	0.444048	0.706076	0.152562	2.02403	-1.33075	0.597117	-0.40331	
6.51855	0	0	0.528012	-0.402628	0.335533	-0.234356	0.452938	-0.234911	0.390478	0.217472	0.103396	-0.0916275	0.134166	0.01969	0.339415	-0.293875	0.622553	-0.377999	0.340653	0.066418	0.29361	-0.202692	0.693151	0.520067	0.636918	0.309791	0.760491	0.461328	0.702545	0.180365	2.03169	-1.33412	0.61118	-0.410857	
6.51703	0	0	0.531193	-0.398065	0.338365	-0.236206	0.453803	-0.225556	0.393992	0.2361	0.111297	-0.0967902	0.139141	0.0371195	0.333453	-0.277028	0.623077	-0.37114	0.351168	0.0752225	0.30292	-0.208775	0.688366	0.533588	0.642846	0.327927	0.75862	0.478607	0.699014	0.208169	2.03935	-1.33748	0.625243	-0.418403	
6.51092	0	0	0.534373	-0.393502	0.341196	-0.238056	0.454668	-0.216201	0.397507	0.254727	0.119198	-0.101953	0.144116	0.054549	0.327492	-0.260181	0.623601	-0.364282	0.361684	0.084027	0.312229	-0.214858	0.683582	0.547109	0.648774	0.346063	0.756748	0.495886	0.695482	0.235973	2.04702	-1.34085	0.639305	-0.425949	
6.5155	0	0	0.536534	-0.38605	0.349696	-0.24361	0.452783	-0.199067	0.401012	0.273424	0.123151	-0.104536	0.146602	0.0632883	0.325105	-0.253433	0.625782	-0.362104	0.366949	0.0884375	0.322304	-0.223083	0.681666	0.552523	0.652725	0.358194	0.75898	0.501576	0.695385	0.245165	2.05198	-1.34573	0.635598	-0.423527	
6.5094	0	0	0.538695	-0.378597	0.358196	-0.249164	0.450898	-0.181933	0.404517	0.292121	0.127105	-0.107119	0.149087	0.0720275	0.322717	-0.246686	0.627964	-0.359927	0.372215	0.092848	0.332379	-0.231309	0.679751	0.557937	0.656676	0.370325	0.761211	0.507266	0.695288	0.254358	2.05695	-1.35062	0.631891	-0.421105	
6.50329	0	0	0.540857	-0.371144	0.366696	-0.254719	0.449014	-0.1648	0.408023	0.310819	0.131058	-0.109702	0.151573	0.0807667	0.320329	-0.239938	0.630146	-0.357749	0.37748	0.0972585	0.342455	-0.239534	0.677836	0.563351	0.660627	0.382456	0.763443	0.512955	0.695192	0.26355	2.06192	-1.35551	0.628184	-0.418683	
6.50024	0	0	0.543018	-0.363692	0.375196	-0.260273	0.447129	-0.147666	0.411528	0.329516	0.135011	-0.112285	0.154059	0.089506	0.317942	-0.233191	0.632327	-0.355571	0.382745	0.101669	0.35253	-0.247759	0.67592	0.568765	0.664578	0.394587	0.765675	0.518645	0.695095	0.272742	2.06688	-1.3604	0.624477	-0.416261	
6.49872	0	0	0.540064	-0.341774	0.383705	-0.265833	0.44523	-0.130487	0.416776	0.352891	0.138966	-0.114869	0.162218	0.0980173	0.32126	-0.224972	0.630668	-0.350882	0.37792	0.115304	0.354883	-0.247654	0.678219	0.575595	0.665422	0.403861	0.761558	0.530281	0.690888	0.284632	2.06613	-1.35826	0.631893	-0.421106	
6.49872	0	0	0.537111	-0.319856	0.392213	-0.271392	0.443332	-0.113307	0.422023	0.376267	0.142921	-0.117453	0.170376	0.106528	0.324578	-0.216753	0.629008	-0.346193	0.373096	0.128938	0.357237	-0.24755	0.680518	0.582425	0.666265	0.413135	0.75744	0.541917	0.686681	0.296522	2.06537	-1.35612	0.639309	-0.425952	
6.48956	0	0	0.534158	-0.297939	0.400722	-0.276952	0.441434	-0.0961275	0.427271	0.399643	0.146875	-0.120038	0.178535	0.11504	0.327896	-0.208534	0.627349	-0.341503	0.368272	0.142572	0.35959	-0.247446	0.682817	0.589255	0.667109	0.42241	0.753323	0.553553	0.682473	0.308412	2.06462	-1.35399	0.646724	-0.430797	
6.48956	0	0	0.531204	-0.276021	0.409231	-0.282512	0.439535	-0.078948	0.432519	0.423018	0.15083	-0.122622	0.186694	0.123551	0.331214	-0.200315	0.62569	-0.336814	0.363447	0.156207	0.361943	-0.247341	0.685116	0.596085	0.667953	0.431684	0.749206	0.565189	0.678266	0.320302	2.06386	-1.35185	0.65414	-0.435643	
6.48651	0	0	0.525056	-0.258646	0.412069	-0.284366	0.439463	-0.0669223	0.426333	0.440502	0.154787	-0.125207	0.189181	0.132326	0.33573	-0.195465	0.62268	-0.33665	0.359824	0.166446	0.362699	-0.249477	0.675142	0.610944	0.665393	0.450586	0.743433	0.581505	0.676473	0.334291	2.06807	-1.35461	0.661562	-0.440493	
6.48346	0	0	0.518908	-0.241272	0.414907	-0.286221	0.439391	-0.0548965	0.420146	0.457986	0.158744	-0.127793	0.191669	0.141101	0.340247	-0.190616	0.61967	-0.336486	0.356201	0.176686	0.363455	-0.251613	0.665169	0.625803	0.662832	0.469488	0.73766	0.597821	0.674681	0.34828	2.07229	-1.35736	0.668984	-0.445342	
6.47583	0	0	0.512761	-0.223897	0.417745	-0.288076	0.439319	-0.0428707	0.413959	0.47547	0.162701	-0.130379	0.194156	0.149875	0.344763	-0.185767	0.61666	-0.336322	0.352578	0.186926	0.36421	-0.253748	0.655195	0.640663	0.660272	0.48839	0.731886	0.614136	0.672888	0.36227	2.0765	-1.36011	0.676406	-0.450191	
6.47278	0	0	0.506613	-0.206522	0.420583	-0.28993	0.439247	-0.030845	0.407773	0.492954	0.166658	-0.132964	0.196643	0.15865	0.349279	-0.180917	0.61365	-0.336158	0.348955	0.197165	0.364966	-0.255884	0.645221	0.655522	0.657712	0.507292	0.726113	0.630452	0.671095	0.376259	2.08072	-1.36287	0.683828	-0.455041	
6.47125	0	0	0.508758	-0.199004	0.428347	-0.293361	0.436487	-0.0230443	0.40952	0.497582	0.161943	-0.128235	0.192561	0.154382	0.351673	-0.187683	0.607115	-0.342694	0.356634	0.194773	0.354887	-0.247657	0.638131	0.662242	0.653477	0.507596	0.718114	0.641062	0.657938	0.38669	2.0765	-1.36011	0.676406	-0.450191	
6.47125	0	0	0.510903	-0.191487	0.436111	-0.296791	0.433727	-0.0152435	0.411266	0.502209	0.157228	-0.123506	0.188479	0.150115	0.354067	-0.194448	0.600579	-0.34923	0.364314	0.192381	0.344809	-0.239429	0.631041	0.668963	0.649241	0.507899	0.710115	0.651671	0.64478	0.39712	2.07229	-1.35736	0.668984	-0.445342	
6.46515	0	0	0.513049	-0.183969	0.443875	-0.300222	0.430966	-0.00744275	0.413013	0.506837	0.152512	-0.118777	0.184397	0.145847	0.356461	-0.201213	0.594044	-0.355766	0.371993	0.18999	0.33473	-0.231202	0.62395	0.675683	0.645005	0.508203	0.702116	0.662281	0.631622	0.40755	2.06807	-1.35461	0.661562	-0.440493	
6.46362	0	0	0.515194	-0.176451	0.451639	-0.303653	0.428206	0.000358	0.41476	0.511464	0.147797	-0.114048	0.180315	0.141579	0.358855	-0.207979	0.587508	-0.362302	0.379672	0.187598	0.324651	-0.222974	0.61686	0.682403	0.64077	0.508507	0.694117	0.672891	0.618465	0.417981	2.06386	-1.35185	0.65414	-0.435643	
6.4621	0	0	0.514252	-0.160198	0.460168	-0.309226	0.4236	0.0133745	0.413847	0.523613	0.148555	-0.116192	0.173047	0.146328	0.360051	-0.21136	0.583983	-0.368991	0.373201	0.186575	0.318441	-0.218917	0.611695	0.68369	0.636537	0.50881	0.687773	0.678832	0.616051	0.415892	2.06386	-1.35185	0.646724	-0.430797	
6.45752	0	0	0.51331	-0.143946	0.468696	-0.314798	0.418994	0.026391	0.412934	0.535761	0.149313	-0.118335	0.165779	0.151077	0.361247	-0.214741	0.580457	-0.37568	0.36673	0.185553	0.312231	-0.214859	0.60653	0.684978	0.632305	0.509112	0.681428	0.684773	0.613638	0.413804	2.06386	-1.35185	0.639309	-0.425952	
6.45447	0	0	0.512368	-0.127694	0.477224	-0.320371	0.414389	0.0394075	0.412021	0.547909	0.150072	-0.120478	0.158511	0.155826	0.362444	-0.218122	0.576931	-0.382369	0.360258	0.18453	0.306022	-0.210802	0.601366	0.686265	0.628072	0.509414	0.675083	0.690713	0.611225	0.411716	2.06386	-1.35185	0.631893	-0.421106	
6.45141	0	0	0.511426	-0.111441	0.485753	-0.325944	0.409783	0.052424	0.411108	0.560058	0.15083	-0.122622	0.151243	0.160575	0.36364	-0.221503	0.573406	-0.389058	0.353787	0.183507	0.299812	-0.206744	0.596201	0.687553	0.62384	0.509717	0.668739	0.696654	0.608811	0.409627	2.06386	-1.35185	0.624477	-0.416261	
6.44836	0	0	0.510472	-0.095145	0.49429	-0.331522	0.407017	0.060243	0.40667	0.572599	0.146875	-0.120038	0.149647	0.165084	0.36364	-0.221503	0.569576	-0.386556	0.352579	0.186922	0.296709	-0.204716	0.585274	0.705135	0.616209	0.51963	0.667913	0.69899	0.598928	0.41975	2.05544	-1.34635	0.624477	-0.416261	
6.44379	0	0	0.509518	-0.078849	0.502827	-0.337101	0.40425	0.068062	0.402233	0.58514	0.142921	-0.117453	0.148052	0.169594	0.36364	-0.221503	0.565747	-0.384054	0.351371	0.190336	0.293606	-0.202688	0.574347	0.722717	0.608579	0.529543	0.667086	0.701326	0.589045	0.429873	2.04702	-1.34085	0.624477	-0.416261	
6.44073	0	0	0.508565	-0.062553	0.511364	-0.342679	0.401483	0.075881	0.397795	0.597681	0.138966	-0.114869	0.146456	0.174103	0.36364	-0.221503	0.561918	-0.381551	0.350163	0.19375	0.290503	-0.200661	0.56342	0.7403	0.600948	0.539456	0.66626	0.703661	0.579163	0.439996	2.0386	-1.33535	0.624477	-0.416261	
6.43616	0	0	0.507611	-0.046257	0.519901	-0.348257	0.398717	0.0837	0.393358	0.610222	0.135011	-0.112285	0.144861	0.178612	0.36364	-0.221503	0.558088	-0.379049	0.348955	0.197165	0.2874	-0.198633	0.552493	0.757882	0.593318	0.549369	0.665433	0.705997	0.56928	0.450119	2.03018	-1.32984	0.624477	-0.416261	
6.43158	0	0	0.507611	-0.046257	0.522748	-0.350117	0.398717	0.0837	0.39073	0.608081	0.127106	-0.10712	0.142383	0.169836	0.357925	-0.222964	0.550743	-0.38323	0.351371	0.190337	0.284298	-0.196606	0.545414	0.764598	0.582603	0.556371	0.658265	0.714274	0.559404	0.46024	2.02176	-1.32435	0.620772	-0.41384	
6.427	0	0	0.507611	-0.046257	0.525596	-0.351978	0.398717	0.0837	0.388101	0.60594	0.119201	-0.101955	0.139906	0.16106	0.35221	-0.224425	0.543398	-0.387412	0.353787	0.18351	0.281196	-0.19458	0.538336	0.771313	0.571887	0.563373	0.651097	0.72255	0.549529	0.47036	2.01335	-1.31885	0.617066	-0.411419	
6.4209	0	0	0.507611	-0.046257	0.528443	-0.353839	0.398717	0.0837	0.385473	0.6038	0.111297	-0.09679	0.137428	0.152284	0.346494	-0.225886	0.536053	-0.391593	0.356202	0.176683	0.278094	-0.192553	0.531257	0.778029	0.561171	0.570374	0.643929	0.730826	0.539654	0.48048	2.00494	-1.31335	0.613361	-0.408997	
6.41785	0	0	0.507611	-0.046257	0.531291	-0.355699	0.398717	0.0837	0.382845	0.601659	0.103392	-0.091625	0.134951	0.143508	0.340779	-0.227347	0.528708	-0.395774	0.358618	0.169855	0.274992	-0.190526	0.524178	0.784745	0.550456	0.577376	0.636761	0.739103	0.529778	0.490601	1.99653	-1.30786	0.609656	-0.406576	
6.41174	0	0	0.505547	-0.0404238	0.539839	-0.361285	0.392353	0.0898633	0.381069	0.606677	0.0986843	-0.086901	0.126101	0.152754	0.343168	-0.2341	0.524059	-0.390941	0.350946	0.172244	0.272647	-0.190636	0.519028	0.78602	0.547371	0.574465	0.627396	0.741629	0.527375	0.488503	1.99308	-1.30724	0.60225	-0.401737	
6.40869	0	0	0.503483	-0.0345905	0.548388	-0.36687	0.385989	0.0960265	0.379294	0.611696	0.0939765	-0.082177	0.117252	0.162	0.345558	-0.240852	0.51941	-0.386109	0.343275	0.174634	0.270301	-0.190745	0.513877	0.787295	0.544285	0.571554	0.618031	0.744156	0.524972	0.486406	1.98963	-1.30663	0.594844	-0.396898	
6.40106	0	0	0.501419	-0.0287572	0.556936	-0.372455	0.379625	0.10219	0.377518	0.616715	0.0892687	-0.077453	0.108402	0.171245	0.347948	-0.247605	0.514761	-0.381276	0.335603	0.177024	0.267956	-0.190854	0.508727	0.78857	0.5412	0.568642	0.608666	0.746683	0.522569	0.484309	1.98618	-1.30602	0.587438	-0.392058	
6.40106	0	0	0.499355	-0.022924	0.565484	-0.378041	0.373261	0.108353	0.375742	0.621733	0.084561	-0.072729	0.099553	0.180491	0.350337	-0.254358	0.510112	-0.376443	0.327932	0.179413	0.265611	-0.190964	0.503577	0.789845	0.538115	0.565731	0.599301	0.749209	0.520166	0.482211	1.98274	-1.30541	0.580032	-0.387219	
6.39191	0	0	0.495223	-0.0112462	0.571943	-0.383904	0.376856	0.110016	0.373923	0.636443	0.0892687	-0.077453	0.0947662	0.194019	0.347948	-0.247605	0.514968	-0.365237	0.329139	0.176003	0.264855	-0.188828	0.499727	0.800726	0.536982	0.568935	0.600127	0.746873	0.519322	0.484596	1.97778	-1.30053	0.576331	-0.384801	
6.38122	0	0	0.49109	0.0004315	0.578402	-0.389768	0.380451	0.111678	0.372104	0.651153	0.0939765	-0.082177	0.0899795	0.207547	0.345558	-0.240852	0.519823	-0.354031	0.330346	0.172592	0.264099	-0.186692	0.495877	0.811607	0.535848	0.572138	0.600953	0.744538	0.518479	0.486981	1.97282	-1.29565	0.572631	-0.382383	
6.3858	0	0	0.486958	0.0121093	0.584862	-0.395631	0.384045	0.11334	0.370285	0.665862	0.0986843	-0.086901	0.0851928	0.221074	0.343168	-0.2341	0.524678	-0.342825	0.331552	0.169181	0.263344	-0.184557	0.492027	0.822488	0.534714	0.575342	0.60178	0.742202	0.517635	0.489366	1.96787	-1.29077	0.56893	-0.379965	
6.37512	0	0	0.482826	0.023787	0.591321	-0.401494	0.38764	0.115003	0.368466	0.680572	0.103392	-0.091625	0.080406	0.234602	0.340779	-0.227347	0.529534	-0.331619	0.332759	0.165771	0.262588	-0.182421	0.488177	0.833369	0.533581	0.578546	0.602606	0.739866	0.516791	0.491751	1.96291	-1.28589	0.565229	-0.377547	
6.37207	0	0	0.482826	0.023787	0.594174	-0.403358	0.382199	0.118558	0.363172	0.685965	0.107343	-0.094207	0.0812683	0.24793	0.337191	-0.217208	0.528069	-0.310842	0.331552	0.169181	0.268791	-0.186474	0.488505	0.845722	0.527907	0.594582	0.60646	0.740939	0.510877	0.508464	1.96291	-1.28589	0.56893	-0.379965	
6.36749	0	0	0.482826	0.023787	0.597028	-0.405223	0.376758	0.122114	0.357878	0.691358	0.111295	-0.096789	0.0821305	0.261258	0.333604	-0.20707	0.526604	-0.290065	0.330346	0.172592	0.274994	-0.190527	0.488834	0.858074	0.522232	0.610618	0.610315	0.742012	0.504964	0.525177	1.96291	-1.28589	0.572631	-0.382383	
6.36444	0	0	0.482826	0.023787	0.599881	-0.407087	0.371317	0.125669	0.352584	0.696751	0.115247	-0.099371	0.0829928	0.274586	0.330017	-0.196931	0.52514	-0.269288	0.329139	0.176003	0.281197	-0.19458	0.489162	0.870426	0.516558	0.626655	0.61417	0.743086	0.49905	0.541889	1.96291	-1.28589	0.576331	-0.384801	
6.35681	0	0	0.482826	0.023787	0.602734	-0.408951	0.365876	0.129225	0.34729	0.702144	0.119198	-0.101953	0.083855	0.287914	0.326429	-0.186792	0.523675	-0.248511	0.327932	0.179413	0.2874	-0.198633	0.48949	0.882779	0.510884	0.642691	0.618024	0.744159	0.493136	0.558602	1.96291	-1.28589	0.580032	-0.387219	
6.35223	0	0	0.484893	0.0179463	0.602734	-0.408951	0.361362	0.130169	0.349913	0.704299	0.119198	-0.101953	0.074999	0.297178	0.326429	-0.186792	0.528523	-0.237228	0.326725	0.182825	0.290503	-0.200661	0.48756	0.888235	0.505534	0.646186	0.610035	0.754771	0.488059	0.572952	1.95871	-1.28315	0.572632	-0.382384	
6.34765	0	0	0.486959	0.0121055	0.602734	-0.408951	0.356847	0.131112	0.352537	0.706454	0.119198	-0.101953	0.066143	0.306442	0.326429	-0.186792	0.533371	-0.225946	0.325518	0.186237	0.293606	-0.202688	0.485629	0.89369	0.500185	0.649682	0.602046	0.765382	0.482981	0.587303	1.95451	-1.2804	0.565233	-0.377549	
6.3446	0	0	0.489026	0.00626475	0.602734	-0.408951	0.352333	0.132055	0.35516	0.708609	0.119198	-0.101953	0.057287	0.315705	0.326429	-0.186792	0.53822	-0.214663	0.32431	0.189649	0.296709	-0.204716	0.483699	0.899145	0.494835	0.653177	0.594058	0.775994	0.477904	0.601653	1.95031	-1.27766	0.557833	-0.372714	
6.34003	0	0	0.491093	0.000424	0.602734	-0.408951	0.347819	0.132999	0.357783	0.710764	0.119198	-0.101953	0.048431	0.324969	0.326429	-0.186792	0.543068	-0.20338	0.323103	0.193061	0.299812	-0.206744	0.481769	0.904601	0.489486	0.656673	0.586069	0.786605	0.472826	0.616003	1.94611	-1.27492	0.550433	-0.367879	
6.33697	0	0	0.49006	0.00334375	0.611299	-0.414548	0.350486	0.137276	0.355949	0.725522	0.123151	-0.104536	0.0452277	0.334022	0.329746	-0.178553	0.545415	-0.184994	0.320687	0.199889	0.306022	-0.210802	0.491109	0.904794	0.487213	0.663095	0.589921	0.787685	0.473527	0.62291	1.95107	-1.27979	0.550433	-0.367879	
6.33087	0	0	0.489027	0.0062635	0.619865	-0.420145	0.353152	0.141554	0.354114	0.740279	0.127105	-0.107119	0.0420245	0.343075	0.333063	-0.170313	0.547761	-0.166608	0.318271	0.206717	0.312231	-0.214859	0.500449	0.904987	0.484941	0.669518	0.593773	0.788764	0.474229	0.629816	1.95602	-1.28467	0.550433	-0.367879	
6.32934	0	0	0.487993	0.00918325	0.62843	-0.425741	0.355819	0.145832	0.35228	0.755037	0.131058	-0.109702	0.0388213	0.352128	0.336379	-0.162074	0.550107	-0.148223	0.315856	0.213544	0.318441	-0.218917	0.509788	0.90518	0.482669	0.675941	0.597625	0.789844	0.47493	0.636722	1.96098	-1.28955	0.550433	-0.367879	
6.32324	0	0	0.48696	0.012103	0.636995	-0.431338	0.358486	0.150109	0.350445	0.769795	0.135011	-0.112285	0.035618	0.361181	0.339696	-0.153834	0.552454	-0.129837	0.31344	0.220372	0.324651	-0.222974	0.519128	0.905373	0.480396	0.682363	0.601477	0.790923	0.475631	0.643629	1.96593	-1.29443	0.550433	-0.367879	
6.32629	0	0	0.482824	0.0237923	0.639852	-0.433205	0.352938	0.165791	0.354741	0.786405	0.138966	-0.114869	0.0332442	0.383653	0.339411	-0.135398	0.556961	-0.109166	0.317481	0.228241	0.340195	-0.233131	0.51945	0.917772	0.484271	0.694666	0.604504	0.794344	0.477878	0.655068	1.97358	-1.29779	0.553376	-0.368159	
6.32324	0	0	0.478688	0.0354815	0.642709	-0.435071	0.347389	0.181472	0.359037	0.803014	0.142921	-0.117453	0.0308705	0.406126	0.339125	-0.116961	0.561469	-0.088496	0.321522	0.236111	0.355739	-0.243287	0.519772	0.930171	0.488146	0.706968	0.60753	0.797764	0.480125	0.666507	1.98123	-1.30114	0.556319	-0.36844	
6.32172	0	0	0.474552	0.0471708	0.645566	-0.436938	0.34184	0.197153	0.363333	0.819624	0.146875	-0.120038	0.0284968	0.428598	0.33884	-0.0985252	0.565976	-0.0678255	0.325564	0.24398	0.371282	-0.253444	0.520094	0.94257	0.49202	0.719271	0.610556	0.801185	0.482372	0.677946	1.98888	-1.3045	0.559262	-0.36872	
6.32019	0	0	0.470416	0.05886	0.648423	-0.438805	0.336292	0.212835	0.367629	0.836234	0.15083	-0.122622	0.026123	0.451071	0.338554	-0.080089	0.570484	-0.047155	0.329605	0.251849	0.386826	-0.263601	0.520416	0.954969	0.495895	0.731573	0.613583	0.804606	0.484619	0.689385	1.99653	-1.30786	0.562205	-0.369	
6.31561	0	0	0.466225	0.0571038	0.645566	-0.436938	0.330854	0.216388	0.361425	0.844178	0.15083	-0.122622	0.0212975	0.464709	0.32563	-0.0611942	0.567625	-0.030714	0.332436	0.26316	0.393051	-0.267669	0.527836	0.960646	0.490194	0.747685	0.618811	0.813802	0.481913	0.705935	2.00494	-1.31335	0.568095	-0.369562	
6.31409	0	0	0.462035	0.0553475	0.642709	-0.435071	0.325416	0.219941	0.355222	0.852121	0.15083	-0.122622	0.016472	0.478347	0.312706	-0.0422995	0.564766	-0.014273	0.335267	0.274471	0.399277	-0.271736	0.535255	0.966324	0.484494	0.763796	0.624038	0.822999	0.479206	0.722484	2.01335	-1.31885	0.573985	-0.370124	
6.31714	0	0	0.457844	0.0535912	0.639852	-0.433205	0.319979	0.223494	0.349019	0.860065	0.15083	-0.122622	0.0116465	0.491985	0.299783	-0.0234048	0.561907	0.002168	0.338098	0.285781	0.405502	-0.275804	0.542674	0.972001	0.478793	0.779907	0.629266	0.832196	0.4765	0.739034	2.02176	-1.32435	0.579875	-0.370686	
6.30951	0	0	0.453653	0.051835	0.636995	-0.431338	0.314541	0.227047	0.342815	0.868008	0.15083	-0.122622	0.006821	0.505623	0.286859	-0.00451	0.559048	0.018609	0.340929	0.297092	0.411728	-0.279872	0.550094	0.977679	0.473092	0.796019	0.634494	0.841392	0.473794	0.755583	2.03018	-1.32984	0.585765	-0.371248	
6.30951	0	0	0.448432	0.0530002	0.639852	-0.433205	0.312689	0.23228	0.341919	0.870539	0.146875	-0.120038	0.004391	0.496726	0.285655	-0.0011085	0.551353	0.0236372	0.338503	0.303949	0.411728	-0.279872	0.557202	0.970928	0.475374	0.789571	0.633664	0.843738	0.470548	0.755854	2.02597	-1.32709	0.585765	-0.371248	
6.30798	0	0	0.44321	0.0541655	0.642709	-0.435071	0.310837	0.237513	0.341024	0.87307	0.142921	-0.117453	0.001961	0.487829	0.284452	0.002293	0.543658	0.0286655	0.336077	0.310805	0.411728	-0.279872	0.56431	0.964177	0.477655	0.783123	0.632834	0.846085	0.467303	0.756126	2.02176	-1.32435	0.585765	-0.371248	
6.30951	0	0	0.437989	0.0553307	0.645566	-0.436938	0.308986	0.242747	0.340129	0.875601	0.138966	-0.114869	-0.000469	0.478932	0.283249	0.0056945	0.535962	0.0336938	0.333651	0.317661	0.411728	-0.279872	0.571418	0.957426	0.479936	0.776675	0.632004	0.848431	0.464058	0.756397	2.01756	-1.3216	0.585765	-0.371248	
6.3034	0	0	0.432768	0.056496	0.648423	-0.438805	0.307134	0.24798	0.339233	0.878132	0.135011	-0.112285	-0.002899	0.470035	0.282045	0.009096	0.528267	0.038722	0.331225	0.324518	0.411728	-0.279872	0.578526	0.950675	0.482218	0.770227	0.631174	0.850777	0.460812	0.756668	2.01335	-1.31885	0.585765	-0.371248	
6.3034	0	0	0.431734	0.0594177	0.648423	-0.438805	0.299847	0.256767	0.341854	0.880313	0.131058	-0.109702	-0.0069355	0.465691	0.287751	0.010601	0.529945	0.0339793	0.336479	0.328999	0.414843	-0.281907	0.575294	0.946472	0.488714	0.763505	0.631174	0.850777	0.455176	0.754805	2.0141	-1.32098	0.579119	-0.368549	
6.30035	0	0	0.4307	0.0623395	0.648423	-0.438805	0.29256	0.265555	0.344475	0.882493	0.127105	-0.107119	-0.010972	0.461348	0.293456	0.012106	0.531624	0.0292365	0.341734	0.33348	0.417957	-0.283942	0.572062	0.942268	0.49521	0.756783	0.631174	0.850777	0.449541	0.752943	2.01486	-1.32312	0.572472	-0.365849	
6.2973	0	0	0.429667	0.0652612	0.648423	-0.438805	0.285273	0.274342	0.347097	0.884674	0.123151	-0.104536	-0.0150085	0.457004	0.299161	0.013611	0.533302	0.0244938	0.346988	0.337961	0.421071	-0.285977	0.56883	0.938065	0.501707	0.75006	0.631174	0.850777	0.443906	0.75108	2.01561	-1.32525	0.565826	-0.36315	
6.29578	0	0	0.428633	0.068183	0.648423	-0.438805	0.277986	0.283129	0.349718	0.886854	0.119198	-0.101953	-0.019045	0.452661	0.304867	0.015116	0.53498	0.019751	0.352243	0.342442	0.424186	-0.288012	0.565598	0.933861	0.508203	0.743338	0.631174	0.850777	0.43827	0.749217	2.01637	-1.32739	0.55918	-0.36045	
6.2912	0	0	0.427599	0.0711057	0.641954	-0.432936	0.270701	0.291917	0.345305	0.889738	0.115247	-0.099371	-0.0319202	0.457586	0.301251	0.025336	0.525966	0.0201755	0.348596	0.352749	0.428057	-0.292183	0.566566	0.931125	0.508203	0.743338	0.630343	0.853124	0.436729	0.744683	2.02479	-1.33289	0.562881	-0.362868	
6.28662	0	0	0.426565	0.0740285	0.635485	-0.427067	0.263416	0.300705	0.340892	0.892621	0.111295	-0.096789	-0.0447955	0.462511	0.297635	0.035556	0.516952	0.0206	0.34495	0.363055	0.431928	-0.296355	0.567535	0.928388	0.508203	0.743338	0.629513	0.855471	0.435188	0.74015	2.0332	-1.33839	0.566581	-0.365286	
6.28204	0	0	0.42553	0.0769512	0.629017	-0.421197	0.256132	0.309493	0.336478	0.895504	0.107343	-0.094207	-0.0576707	0.467437	0.294018	0.045776	0.507937	0.0210245	0.341303	0.373362	0.4358	-0.300527	0.568503	0.925652	0.508203	0.743338	0.628683	0.857817	0.433647	0.735616	2.04162	-1.34389	0.570281	-0.367705	
6.27899	0	0	0.424496	0.079874	0.622548	-0.415328	0.248847	0.318281	0.332065	0.898388	0.103392	-0.091625	-0.070546	0.472362	0.290402	0.055996	0.498923	0.021449	0.337656	0.383668	0.439671	-0.304698	0.569471	0.922915	0.508203	0.743338	0.627852	0.860164	0.432106	0.731082	2.05004	-1.34939	0.573982	-0.370123	
6.27441	0	0	0.421347	0.0751928	0.616839	-0.411597	0.23985	0.320132	0.319808	0.894724	0.087605	-0.0813092	-0.0737877	0.450115	0.276593	0.05978	0.486787	0.00574425	0.337656	0.383668	0.42646	-0.294424	0.567207	0.915986	0.502051	0.737458	0.622334	0.86377	0.427327	0.726824	2.04507	-1.3445	0.573982	-0.370123	
6.27441	0	0	0.418199	0.0705115	0.611129	-0.407867	0.230853	0.321983	0.307551	0.89106	0.071818	-0.0709935	-0.0770295	0.427868	0.262784	0.063564	0.474652	-0.0099605	0.337656	0.383668	0.413249	-0.284149	0.564943	0.909056	0.495899	0.731578	0.616816	0.867376	0.422548	0.722566	2.04011	-1.33962	0.573982	-0.370123	
6.26984	0	0	0.41505	0.0658303	0.60542	-0.404137	0.221855	0.323834	0.295294	0.887396	0.056031	-0.0606777	-0.0802713	0.405621	0.248975	0.067348	0.462516	-0.0256652	0.337656	0.383668	0.400037	-0.273875	0.562679	0.902127	0.489746	0.725698	0.611298	0.870981	0.417769	0.718308	2.03514	-1.33473	0.573982	-0.370123	
6.26526	0	0	0.411901	0.061149	0.599711	-0.400406	0.212858	0.325685	0.283037	0.883732	0.040244	-0.050362	-0.083513	0.383374	0.235166	0.071132	0.450381	-0.04137	0.337656	0.383668	0.386826	-0.263601	0.560415	0.895197	0.483594	0.719818	0.60578	0.874587	0.41299	0.71405	2.03018	-1.32984	0.573982	-0.370123	
6.26373	0	0	0.407721	0.0593912	0.594005	-0.396678	0.208364	0.326608	0.283106	0.873975	0.0284225	-0.0426377	-0.0867703	0.361223	0.238779	0.06092	0.440766	-0.0640645	0.33119	0.382609	0.374389	-0.255474	0.554921	0.884096	0.480857	0.704315	0.60993	0.862859	0.405138	0.700764	2.02252	-1.32648	0.562885	-0.362872	
6.26068	0	0	0.403541	0.0576335	0.5883	-0.39295	0.203871	0.327531	0.283174	0.864217	0.016601	-0.0349135	-0.0900275	0.339072	0.242393	0.050708	0.431151	-0.086759	0.324724	0.381551	0.361951	-0.247347	0.549427	0.872996	0.47812	0.688813	0.614079	0.851131	0.397286	0.687478	2.01486	-1.32312	0.551788	-0.355621	
6.25305	0	0	0.399361	0.0558758	0.582595	-0.389222	0.199377	0.328455	0.283242	0.85446	0.0047795	-0.0271892	-0.0932847	0.316922	0.246007	0.040496	0.421536	-0.109453	0.318259	0.380492	0.349514	-0.239221	0.543934	0.861895	0.475382	0.67331	0.618228	0.839404	0.389434	0.674192	2.00721	-1.31976	0.540691	-0.34837	
6.25305	0	0	0.395181	0.054118	0.576889	-0.385494	0.194883	0.329378	0.283311	0.844703	-0.007042	-0.019465	-0.096542	0.294771	0.24962	0.030284	0.411921	-0.132148	0.311793	0.379433	0.337077	-0.231094	0.53844	0.850794	0.472645	0.657808	0.622378	0.827676	0.381582	0.660906	1.99955	-1.3164	0.529594	-0.341119	
6.24847	0	0	0.393115	0.059957	0.574793	-0.385767	0.189466	0.332917	0.28159	0.840006	-0.018847	-0.0117512	-0.104582	0.286189	0.242725	0.0321743	0.398996	-0.145356	0.30412	0.381807	0.327761	-0.225006	0.531987	0.842444	0.471841	0.648472	0.614668	0.82551	0.376965	0.64739	1.99114	-1.31091	0.52296	-0.338427	
6.25	0	0	0.391049	0.065796	0.572698	-0.38604	0.184049	0.336457	0.27987	0.835309	-0.030652	-0.0040375	-0.112622	0.277607	0.235829	0.0340645	0.386072	-0.158563	0.296447	0.38418	0.318445	-0.218919	0.525533	0.834094	0.471036	0.639136	0.606958	0.823343	0.372348	0.633873	1.98274	-1.30541	0.516327	-0.335735	
6.24237	0	0	0.388983	0.071635	0.570603	-0.386313	0.178631	0.339997	0.278149	0.830613	-0.042457	0.00367625	-0.120661	0.269025	0.228934	0.0359547	0.373148	-0.171771	0.288775	0.386553	0.309128	-0.212832	0.51908	0.825743	0.470232	0.629801	0.599249	0.821176	0.367732	0.620356	1.97434	-1.29992	0.509693	-0.333044	
6.23932	0	0	0.386917	0.077474	0.568507	-0.386586	0.173214	0.343536	0.276429	0.825916	-0.054262	0.01139	-0.128701	0.260443	0.222039	0.037845	0.360223	-0.184979	0.281102	0.388927	0.299812	-0.206744	0.512626	0.817393	0.469428	0.620465	0.591539	0.81901	0.363115	0.60684	1.96593	-1.29443	0.503059	-0.330352	
6.23321	0	0	0.380676	0.0815522	0.559203	-0.378864	0.165168	0.342757	0.266813	0.824446	-0.066051	0.019093	-0.139905	0.260857	0.216354	0.0363327	0.341875	-0.190982	0.283531	0.382063	0.290506	-0.200663	0.504256	0.814497	0.467488	0.614346	0.593196	0.814328	0.35835	0.602619	1.96593	-1.29443	0.503059	-0.330352	
6.23321	0	0	0.374435	0.0856305	0.549899	-0.371142	0.157122	0.341979	0.257196	0.822976	-0.07784	0.026796	-0.15111	0.26127	0.210668	0.0348205	0.323527	-0.196986	0.28596	0.375198	0.2812	-0.194582	0.495886	0.811601	0.465549	0.608227	0.594853	0.809646	0.353585	0.598397	1.96593	-1.29443	0.503059	-0.330352	
6.22711	0	0	0.368193	0.0897088	0.540595	-0.363421	0.149077	0.341201	0.24758	0.821506	-0.089629	0.034499	-0.162314	0.261684	0.204983	0.0333082	0.30518	-0.20299	0.288389	0.368333	0.271894	-0.188502	0.487516	0.808705	0.463609	0.602108	0.596509	0.804965	0.34882	0.594175	1.96593	-1.29443	0.503059	-0.330352	
6.22253	0	0	0.361952	0.093787	0.531291	-0.355699	0.141031	0.340422	0.237963	0.820036	-0.101418	0.042202	-0.173518	0.262098	0.199298	0.031796	0.286832	-0.208993	0.290818	0.361469	0.262588	-0.182421	0.479146	0.805809	0.461669	0.595989	0.598166	0.800283	0.344055	0.589954	1.96593	-1.29443	0.503059	-0.330352	
6.22406	0	0	0.364018	0.087948	0.526353	-0.354114	0.133921	0.337028	0.231034	0.811016	-0.11319	0.0498945	-0.179944	0.249059	0.197221	0.0201027	0.278595	-0.22693	0.285579	0.356984	0.244006	-0.170279	0.482991	0.794941	0.455527	0.590166	0.594314	0.799202	0.339987	0.592612	1.95334	-1.2862	0.499367	-0.327939	
6.21948	0	0	0.366084	0.082109	0.521415	-0.35253	0.126811	0.333635	0.224104	0.801996	-0.124963	0.057587	-0.18637	0.23602	0.195144	0.0084095	0.270358	-0.244868	0.28034	0.352498	0.225424	-0.158137	0.486837	0.784073	0.449385	0.584342	0.590462	0.798121	0.33592	0.59527	1.94075	-1.27798	0.495674	-0.325526	
6.22101	0	0	0.36815	0.07627	0.516476	-0.350945	0.119701	0.330241	0.217174	0.792976	-0.136736	0.0652795	-0.192795	0.222981	0.193067	-0.00328375	0.262121	-0.262805	0.275101	0.348013	0.206842	-0.145996	0.490682	0.773206	0.443244	0.578519	0.58661	0.797041	0.331852	0.597927	1.92816	-1.26975	0.491981	-0.323114	
6.2149	0	0	0.370216	0.070431	0.511538	-0.349361	0.112591	0.326847	0.210245	0.783956	-0.148508	0.072972	-0.199221	0.209942	0.19099	-0.014977	0.253884	-0.280742	0.269862	0.343528	0.18826	-0.133854	0.494527	0.762338	0.437102	0.572696	0.582758	0.79596	0.327785	0.600585	1.91557	-1.26152	0.488289	-0.320701	
6.21948	0	0	0.369183	0.07335	0.507937	-0.345365	0.108116	0.327763	0.210245	0.783956	-0.160265	0.080654	-0.199221	0.209942	0.187711	-0.023257	0.252567	-0.285251	0.272286	0.336677	0.17974	-0.129929	0.496448	0.756909	0.430967	0.566882	0.58139	0.787869	0.327092	0.593711	1.91137	-1.25878	0.481664	-0.318015	
6.21643	0	0	0.36815	0.076269	0.504335	-0.34137	0.10364	0.328679	0.210245	0.783956	-0.172021	0.088336	-0.199221	0.209942	0.184432	-0.031537	0.25125	-0.289761	0.27471	0.329826	0.17122	-0.126003	0.498369	0.75148	0.424832	0.561069	0.580021	0.779778	0.326399	0.586836	1.90718	-1.25604	0.47504	-0.31533	
6.21948	0	0	0.367118	0.079188	0.500734	-0.337374	0.0991645	0.329595	0.210245	0.783956	-0.183778	0.096018	-0.199221	0.209942	0.181154	-0.039817	0.249932	-0.29427	0.277135	0.322975	0.1627	-0.122077	0.50029	0.746051	0.418697	0.555256	0.578653	0.771686	0.325705	0.579962	1.90299	-1.2533	0.468415	-0.312644	
6.22253	0	0	0.366085	0.082107	0.497132	-0.333379	0.094689	0.330511	0.210245	0.783956	-0.195534	0.1037	-0.199221	0.209942	0.177875	-0.048097	0.248615	-0.29878	0.279559	0.316124	0.15418	-0.118152	0.502211	0.740622	0.412562	0.549442	0.577285	0.763595	0.325012	0.573087	1.8988	-1.25056	0.461791	-0.309958	
6.22711	0	0	0.367157	0.092638	0.497132	-0.333379	0.09284	0.335736	0.207504	0.801233	-0.195534	0.1037	-0.201567	0.232165	0.179073	-0.051483	0.251249	-0.289757	0.271901	0.318496	0.153424	-0.116016	0.50029	0.746051	0.416759	0.549154	0.577285	0.763595	0.327392	0.575195	1.8988	-1.25056	0.461791	-0.309958	
6.23169	0	0	0.368229	0.103169	0.497132	-0.333379	0.090991	0.340962	0.204763	0.818509	-0.195534	0.1037	-0.203913	0.254389	0.180271	-0.054869	0.253883	-0.280733	0.264242	0.320867	0.152669	-0.11388	0.498369	0.75148	0.420955	0.548866	0.577285	0.763595	0.329772	0.577303	1.8988	-1.25056	0.461791	-0.309958	
6.23627	0	0	0.369301	0.1137	0.497132	-0.333379	0.089142	0.346187	0.202022	0.835785	-0.195534	0.1037	-0.206259	0.276612	0.181469	-0.058255	0.256518	-0.27171	0.256584	0.323239	0.151913	-0.111745	0.496448	0.756909	0.425152	0.548578	0.577285	0.763595	0.332152	0.57941	1.8988	-1.25056	0.461791	-0.309958	
6.2439	0	0	0.370373	0.124231	0.497132	-0.333379	0.087293	0.351413	0.199281	0.853062	-0.195534	0.1037	-0.208605	0.298836	0.182667	-0.061641	0.259152	-0.262687	0.248926	0.325611	0.151157	-0.109609	0.494527	0.762338	0.429349	0.54829	0.577285	0.763595	0.334532	0.581518	1.8988	-1.25056	0.461791	-0.309958	
6.25	0	0	0.3662	0.122463	0.494287	-0.33152	0.0837455	0.349714	0.194895	0.855928	-0.195534	0.1037	-0.213377	0.312323	0.175796	-0.0597538	0.257165	-0.248832	0.250137	0.322189	0.154248	-0.111629	0.492605	0.76777	0.425958	0.557874	0.573977	0.772944	0.332692	0.595555	1.90718	-1.25604	0.461035	-0.307821	
6.25458	0	0	0.362028	0.120694	0.491443	-0.329661	0.080198	0.348015	0.190509	0.858793	-0.195534	0.1037	-0.218149	0.325809	0.168926	-0.0578665	0.255178	-0.234977	0.251348	0.318766	0.157338	-0.113648	0.490683	0.773203	0.422566	0.567458	0.570669	0.782293	0.330852	0.609592	1.91557	-1.26152	0.460279	-0.305685	
6.25763	0	0	0.357855	0.118925	0.488598	-0.327803	0.0766505	0.346315	0.186123	0.861659	-0.195534	0.1037	-0.222922	0.339296	0.162055	-0.0559793	0.253192	-0.221122	0.252559	0.315344	0.160429	-0.115668	0.488761	0.778635	0.419175	0.577042	0.567361	0.791642	0.329013	0.623629	1.92396	-1.26701	0.459523	-0.303548	
6.26526	0	0	0.353682	0.117157	0.485753	-0.325944	0.073103	0.344616	0.181737	0.864525	-0.195534	0.1037	-0.227694	0.352783	0.155185	-0.054092	0.251205	-0.207267	0.25377	0.311922	0.16352	-0.117688	0.486839	0.784067	0.415784	0.586626	0.564053	0.800991	0.327173	0.637666	1.93235	-1.27249	0.458767	-0.301411	
6.26526	0	0	0.354716	0.114235	0.491443	-0.329662	0.0686337	0.345528	0.182554	0.871748	-0.191617	0.10114	-0.226886	0.366104	0.156382	-0.0574755	0.255974	-0.196005	0.25619	0.305081	0.166612	-0.119708	0.484916	0.789502	0.416915	0.58343	0.56488	0.798653	0.328862	0.632893	1.92815	-1.26974	0.451393	-0.296592	
6.27136	0	0	0.35575	0.111313	0.497134	-0.33338	0.0641645	0.34644	0.18337	0.87897	-0.1877	0.098581	-0.226077	0.379425	0.157579	-0.060859	0.260743	-0.184743	0.258611	0.298241	0.169704	-0.121728	0.482993	0.794938	0.418045	0.580234	0.565708	0.796315	0.330551	0.628119	1.92396	-1.267	0.444018	-0.291774	
6.27746	0	0	0.356784	0.108392	0.502824	-0.337098	0.0596952	0.347353	0.184187	0.886192	-0.183783	0.0960215	-0.225268	0.392747	0.158777	-0.0642425	0.265512	-0.17348	0.261032	0.2914	0.172796	-0.123749	0.481069	0.800373	0.419176	0.577039	0.566535	0.793976	0.33224	0.623346	1.91976	-1.26426	0.436644	-0.286956	
6.27899	0	0	0.357818	0.10547	0.508514	-0.340816	0.055226	0.348265	0.185003	0.893415	-0.179866	0.093462	-0.22446	0.406068	0.159974	-0.067626	0.270281	-0.162218	0.263452	0.284559	0.175888	-0.125769	0.479146	0.805809	0.420307	0.573843	0.567362	0.791638	0.333929	0.618573	1.91557	-1.26152	0.42927	-0.282137	
6.28357	0	0	0.353681	0.117163	0.511361	-0.342676	0.051528	0.358716	0.185735	0.910419	-0.172026	0.0883395	-0.218062	0.419238	0.157579	-0.0608578	0.275535	-0.144026	0.263452	0.284559	0.18517	-0.131834	0.477222	0.811248	0.418045	0.580236	0.561034	0.79757	0.329017	0.623617	1.91137	-1.25878	0.430026	-0.284274	
6.28509	0	0	0.349543	0.128856	0.514207	-0.344537	0.04783	0.369167	0.186468	0.927423	-0.164187	0.083217	-0.211665	0.432409	0.155185	-0.0540895	0.280788	-0.125834	0.263452	0.284559	0.194453	-0.1379	0.475297	0.816686	0.415783	0.586628	0.554706	0.803503	0.324105	0.628661	1.90718	-1.25604	0.430782	-0.286411	
6.28357	0	0	0.345406	0.140549	0.517054	-0.346397	0.044132	0.379619	0.1872	0.944427	-0.156348	0.0780945	-0.205267	0.44558	0.15279	-0.0473213	0.286042	-0.107642	0.263452	0.284559	0.203736	-0.143965	0.473372	0.822125	0.413521	0.59302	0.548379	0.809435	0.319193	0.633706	1.90299	-1.2533	0.431538	-0.288547	
6.28967	0	0	0.341268	0.152242	0.519901	-0.348257	0.040434	0.39007	0.187932	0.961431	-0.148508	0.072972	-0.19887	0.45875	0.150395	-0.040553	0.291295	-0.08945	0.263452	0.284559	0.213018	-0.150031	0.471448	0.827564	0.411259	0.599413	0.542051	0.815367	0.314281	0.63875	1.8988	-1.25056	0.432294	-0.290684	
6.2912	0	0	0.340202	0.141703	0.519901	-0.348257	0.0422837	0.384843	0.184437	0.96177	-0.144586	0.070409	-0.207664	0.467972	0.150395	-0.040553	0.287139	-0.077704	0.263452	0.284559	0.212262	-0.147895	0.464382	0.834273	0.404801	0.606092	0.539568	0.822385	0.312591	0.643525	1.90299	-1.2533	0.427853	-0.286139	
6.29272	0	0	0.339137	0.131165	0.519901	-0.348257	0.0441335	0.379616	0.180941	0.962109	-0.140663	0.067846	-0.216458	0.477194	0.150395	-0.040553	0.282983	-0.065958	0.263452	0.284559	0.211506	-0.145759	0.457315	0.840982	0.398343	0.61277	0.537084	0.829403	0.310902	0.648299	1.90718	-1.25604	0.423412	-0.281595	
6.29425	0	0	0.338071	0.120626	0.519901	-0.348257	0.0459833	0.374389	0.177445	0.962449	-0.13674	0.065283	-0.225253	0.486416	0.150395	-0.040553	0.278826	-0.054212	0.263452	0.284559	0.210751	-0.143622	0.450249	0.847691	0.391886	0.619448	0.534601	0.836422	0.309213	0.653073	1.91137	-1.25878	0.418972	-0.277051	
6.2912	0	0	0.337005	0.110088	0.519901	-0.348257	0.047833	0.369162	0.17395	0.962788	-0.132818	0.06272	-0.234047	0.495638	0.150395	-0.040553	0.27467	-0.042466	0.263452	0.284559	0.209995	-0.141486	0.443183	0.8544	0.385428	0.626127	0.532118	0.84344	0.307523	0.657848	1.91557	-1.26152	0.414531	-0.272506	
6.29272	0	0	0.339071	0.104249	0.520657	-0.350393	0.042443	0.372684	0.177445	0.962449	-0.124968	0.0575905	-0.234047	0.495638	0.149197	-0.037167	0.272174	-0.0354107	0.263452	0.284559	0.210751	-0.143622	0.443183	0.8544	0.387691	0.619732	0.527449	0.844692	0.299554	0.653882	1.91062	-1.25665	0.407166	-0.267694	
6.2912	0	0	0.341137	0.09841	0.521413	-0.352529	0.037053	0.376205	0.180941	0.962109	-0.117118	0.052461	-0.234047	0.495638	0.147999	-0.033781	0.269678	-0.0283555	0.263452	0.284559	0.211506	-0.145759	0.443183	0.8544	0.389954	0.613337	0.52278	0.845943	0.291585	0.649917	1.90567	-1.25177	0.399802	-0.262882	
6.28967	0	0	0.343203	0.092571	0.522168	-0.354666	0.031663	0.379727	0.184437	0.96177	-0.109268	0.0473315	-0.234047	0.495638	0.1468	-0.030395	0.267181	-0.0213002	0.263452	0.284559	0.212262	-0.147895	0.443183	0.8544	0.392217	0.606942	0.518111	0.847195	0.283615	0.645952	1.90072	-1.2469	0.392437	-0.25807	
6.28662	0	0	0.345269	0.086732	0.522924	-0.356802	0.026273	0.383249	0.187932	0.961431	-0.101418	0.042202	-0.234047	0.495638	0.145602	-0.027009	0.264685	-0.014245	0.263452	0.284559	0.213018	-0.150031	0.443183	0.8544	0.39448	0.600547	0.513442	0.848447	0.275646	0.641986	1.89577	-1.24202	0.385073	-0.253258	
6.2912	0	0	0.344236	0.089651	0.520078	-0.354942	0.0244235	0.388476	0.179959	0.974425	-0.0935605	0.0370678	-0.238851	0.509214	0.158149	-0.027392	0.265159	-0.0073165	0.262242	0.287979	0.213018	-0.150031	0.44222	0.857122	0.393349	0.603744	0.507948	0.852036	0.277333	0.637218	1.89653	-1.24416	0.381393	-0.250853	
6.28509	0	0	0.343203	0.09257	0.517231	-0.353081	0.022574	0.393703	0.171986	0.987419	-0.085703	0.0319335	-0.243654	0.52279	0.170696	-0.027775	0.265633	-0.000388	0.261032	0.291399	0.213018	-0.150031	0.441257	0.859843	0.392217	0.606941	0.502455	0.855626	0.27902	0.63245	1.89728	-1.24629	0.377713	-0.248448	
6.28204	0	0	0.342171	0.095489	0.514385	-0.351221	0.0207245	0.39893	0.164012	1.00041	-0.0778455	0.0267993	-0.248458	0.536365	0.183243	-0.028158	0.266108	0.0065405	0.259822	0.294818	0.213018	-0.150031	0.440294	0.862564	0.391086	0.610137	0.496962	0.859216	0.280707	0.627682	1.89804	-1.24843	0.374033	-0.246044	
6.28204	0	0	0.341138	0.098408	0.511538	-0.349361	0.018875	0.404157	0.156039	1.01341	-0.069988	0.021665	-0.253262	0.549941	0.19579	-0.028541	0.266582	0.013469	0.258612	0.298238	0.213018	-0.150031	0.439331	0.865286	0.389955	0.613334	0.491468	0.862805	0.282394	0.622914	1.8988	-1.25056	0.370353	-0.243639	
6.28204	0	0	0.33487	0.08905	0.508692	-0.347502	0.0144135	0.405063	0.152638	1.00396	-0.069988	0.021665	-0.252448	0.532023	0.187714	-0.0232643	0.260638	0.0137325	0.257402	0.301659	0.206829	-0.145987	0.432268	0.871993	0.380444	0.617091	0.484322	0.871073	0.273433	0.630602	1.88966	-1.24295	0.366675	-0.241235	
6.27899	0	0	0.328602	0.079692	0.505847	-0.345642	0.009952	0.405968	0.149236	0.994506	-0.069988	0.021665	-0.251635	0.514105	0.179638	-0.0179875	0.254694	0.013996	0.256191	0.30508	0.200639	-0.141942	0.425206	0.878701	0.370932	0.620849	0.477176	0.879341	0.264471	0.63829	1.88052	-1.23534	0.362996	-0.238832	
6.27746	0	0	0.322334	0.070334	0.503001	-0.343783	0.0054905	0.406874	0.145835	0.985056	-0.069988	0.021665	-0.250822	0.496188	0.171563	-0.0127107	0.248751	0.0142595	0.25498	0.308501	0.194449	-0.137898	0.418144	0.885409	0.361421	0.624606	0.47003	0.887608	0.25551	0.645978	1.87139	-1.22773	0.359317	-0.236429	
6.27289	0	0	0.316066	0.060976	0.500155	-0.341924	0.001029	0.40778	0.142433	0.975606	-0.069988	0.021665	-0.250008	0.47827	0.163487	-0.007434	0.242807	0.014523	0.25377	0.311922	0.18826	-0.133854	0.411081	0.892116	0.35191	0.628363	0.462884	0.895876	0.246549	0.653666	1.86225	-1.22012	0.355639	-0.234025	
6.26678	0	0	0.319157	0.0522393	0.49731	-0.340065	0.00195375	0.405167	0.141626	0.968362	-0.069988	0.021665	-0.250804	0.464913	0.162287	-0.00404275	0.237702	0.0124322	0.252559	0.315344	0.185167	-0.131833	0.406912	0.890655	0.348855	0.625446	0.46454	0.891196	0.243496	0.644673	1.85388	-1.21465	0.348287	-0.229221	
6.26678	0	0	0.322248	0.0435025	0.494466	-0.338206	0.0028785	0.402554	0.140819	0.961118	-0.069988	0.021665	-0.251599	0.451555	0.161087	-0.0006515	0.232596	0.0103415	0.251348	0.318766	0.182074	-0.129811	0.402743	0.889193	0.3458	0.622529	0.466197	0.886515	0.240443	0.635679	1.84551	-1.20918	0.340935	-0.224417	
6.26221	0	0	0.32534	0.0347657	0.491622	-0.336348	0.00380325	0.39994	0.140011	0.953875	-0.069988	0.021665	-0.252395	0.438198	0.159887	0.00273975	0.227491	0.00825075	0.250137	0.322189	0.178981	-0.12779	0.398575	0.887732	0.342745	0.619613	0.467853	0.881834	0.23739	0.626686	1.83714	-1.20371	0.333583	-0.219613	
6.25763	0	0	0.328431	0.026029	0.488777	-0.334489	0.004728	0.397327	0.139204	0.946631	-0.069988	0.021665	-0.253191	0.424841	0.158687	0.006131	0.222386	0.00616	0.248926	0.325611	0.175888	-0.125769	0.394406	0.886271	0.33969	0.616696	0.469509	0.877154	0.234337	0.617693	1.82877	-1.19824	0.326231	-0.214809	
6.25763	0	0	0.328431	0.026029	0.485933	-0.332631	0.00918975	0.396421	0.13223	0.947306	-0.0660565	0.0190963	-0.258773	0.425023	0.156286	0.0129172	0.221083	0.001589	0.247715	0.329035	0.172796	-0.123749	0.401464	0.879568	0.33969	0.616696	0.46485	0.878399	0.231969	0.615582	1.82877	-1.19824	0.319642	-0.212146	
6.25458	0	0	0.328431	0.026029	0.48309	-0.330773	0.0136515	0.395514	0.125256	0.94798	-0.062125	0.0165275	-0.264354	0.425206	0.153884	0.0197035	0.219779	-0.002982	0.246503	0.332458	0.169704	-0.121728	0.408521	0.872865	0.33969	0.616696	0.460191	0.879645	0.2296	0.61347	1.82877	-1.19824	0.313052	-0.209483	
6.24847	0	0	0.328431	0.026029	0.480246	-0.328914	0.0181133	0.394608	0.118282	0.948654	-0.0581935	0.0139588	-0.269936	0.425388	0.151483	0.0264897	0.218475	-0.007553	0.245292	0.335882	0.166612	-0.119708	0.415579	0.866161	0.33969	0.616696	0.455533	0.880891	0.227232	0.611359	1.82877	-1.19824	0.306462	-0.20682	
6.24847	0	0	0.328431	0.026029	0.477402	-0.327056	0.022575	0.393702	0.111308	0.949329	-0.054262	0.01139	-0.275518	0.42557	0.149082	0.033276	0.217172	-0.012124	0.244081	0.339306	0.16352	-0.117688	0.422637	0.859458	0.33969	0.616696	0.450874	0.882136	0.224864	0.609247	1.82877	-1.19824	0.299873	-0.204157	
6.24237	0	0	0.334605	0.00858075	0.471717	-0.323342	0.0208855	0.386773	0.110585	0.932359	-0.062123	0.0165265	-0.290641	0.421609	0.149082	0.033276	0.206979	-0.0162953	0.241657	0.346157	0.157339	-0.11365	0.420711	0.8649	0.337429	0.623086	0.449218	0.886815	0.218288	0.619033	1.82459	-1.19551	0.296202	-0.201759	
6.2439	0	0	0.340779	-0.0088675	0.466032	-0.319627	0.019196	0.379845	0.109861	0.915388	-0.069984	0.021663	-0.305764	0.417648	0.149082	0.033276	0.196785	-0.0204665	0.239233	0.353009	0.151159	-0.109611	0.418786	0.870343	0.335168	0.629477	0.447562	0.891495	0.211711	0.628819	1.8204	-1.19277	0.292532	-0.19936	
6.24084	0	0	0.346953	-0.0263157	0.460348	-0.315912	0.0175065	0.372916	0.109137	0.898418	-0.077845	0.0267995	-0.320887	0.413688	0.149082	0.033276	0.186591	-0.0246377	0.236808	0.35986	0.144979	-0.105572	0.41686	0.875785	0.332906	0.635868	0.445907	0.896174	0.205134	0.638606	1.81622	-1.19004	0.288861	-0.196962	
6.23627	0	0	0.353127	-0.043764	0.454663	-0.312198	0.015817	0.365987	0.108414	0.881448	-0.085706	0.031936	-0.33601	0.409727	0.149082	0.033276	0.176398	-0.028809	0.234384	0.366711	0.138798	-0.101534	0.414934	0.881227	0.330645	0.642258	0.444251	0.900853	0.198558	0.648392	1.81204	-1.18731	0.285191	-0.194563	
6.23321	0	0	0.349986	-0.048409	0.451822	-0.310342	0.013204	0.361676	0.105012	0.872067	-0.085706	0.031936	-0.328064	0.387271	0.143415	0.0317617	0.173323	-0.0448155	0.235596	0.363285	0.132622	-0.0974982	0.411727	0.877047	0.329853	0.632953	0.447562	0.891497	0.201926	0.638874	1.80786	-1.18458	0.274189	-0.187374	
6.23321	0	0	0.346846	-0.053054	0.448981	-0.308485	0.010591	0.357366	0.101609	0.862686	-0.085706	0.031936	-0.320118	0.364816	0.137748	0.0302475	0.170247	-0.060822	0.236809	0.359858	0.126445	-0.0934625	0.408521	0.872868	0.32906	0.623649	0.450873	0.88214	0.205294	0.629355	1.80368	-1.18184	0.263186	-0.180185	
6.23321	0	0	0.343705	-0.057699	0.44614	-0.306629	0.007978	0.353055	0.0982072	0.853305	-0.085706	0.031936	-0.312173	0.342361	0.132081	0.0287333	0.167172	-0.0768285	0.238021	0.356432	0.120269	-0.0894267	0.405314	0.868688	0.328268	0.614344	0.454183	0.872784	0.208662	0.619837	1.79949	-1.17911	0.252184	-0.172996	
6.23321	0	0	0.340564	-0.062344	0.443299	-0.304773	0.005365	0.348744	0.094805	0.843924	-0.085706	0.031936	-0.304227	0.319905	0.126414	0.027219	0.164097	-0.092835	0.239233	0.353006	0.114093	-0.085391	0.402107	0.864509	0.327476	0.605039	0.457494	0.863428	0.21203	0.610319	1.79531	-1.17638	0.241182	-0.165807	
6.23321	0	0	0.340564	-0.062344	0.43762	-0.301062	0.00721025	0.343529	0.0922152	0.841753	-0.085706	0.031936	-0.309793	0.320094	0.134482	0.021947	0.159838	-0.0972453	0.239233	0.353006	0.107922	-0.0813582	0.409164	0.857807	0.322166	0.608509	0.459975	0.856417	0.205618	0.610853	1.78278	-1.16819	0.230194	-0.158627	
6.23016	0	0	0.340564	-0.062344	0.431941	-0.297351	0.0090555	0.338314	0.0896255	0.839581	-0.085706	0.031936	-0.315359	0.320283	0.14255	0.016675	0.155579	-0.101656	0.239233	0.353006	0.10175	-0.0773255	0.41622	0.851106	0.316856	0.611978	0.462456	0.849406	0.199205	0.611387	1.77025	-1.16001	0.219206	-0.151448	
6.23321	0	0	0.340564	-0.062344	0.426262	-0.293641	0.0109008	0.333099	0.0870357	0.83741	-0.085706	0.031936	-0.320925	0.320473	0.150619	0.011403	0.151321	-0.106066	0.239233	0.353006	0.0955785	-0.0732928	0.423277	0.844405	0.311547	0.615448	0.464936	0.842396	0.192793	0.611921	1.75772	-1.15182	0.208218	-0.144268	
6.23474	0	0	0.340564	-0.062344	0.420583	-0.28993	0.012746	0.327884	0.084446	0.835238	-0.085706	0.031936	-0.326491	0.320662	0.158687	0.006131	0.147062	-0.110476	0.239233	0.353006	0.089407	-0.06926	0.430334	0.837703	0.306237	0.618917	0.467417	0.835385	0.186381	0.612455	1.7452	-1.14363	0.19723	-0.137088	
6.23016	0	0	0.341591	-0.065246	0.417745	-0.288076	0.010132	0.323582	0.0783818	0.833409	-0.085706	0.031936	-0.328078	0.325147	0.149419	0.0147952	0.146235	-0.108138	0.239233	0.353006	0.0863228	-0.0672448	0.434509	0.839156	0.307366	0.615726	0.462761	0.836632	0.189586	0.612188	1.74102	-1.1409	0.19723	-0.137088	
6.23321	0	0	0.342618	-0.068148	0.414907	-0.286221	0.007518	0.319281	0.0723175	0.83158	-0.085706	0.031936	-0.329665	0.329631	0.14015	0.0234595	0.145407	-0.1058	0.239233	0.353006	0.0832385	-0.0652295	0.438684	0.84061	0.308495	0.612534	0.458104	0.837879	0.192792	0.611922	1.73685	-1.13818	0.19723	-0.137088	
6.23321	0	0	0.343644	-0.07105	0.412069	-0.284366	0.004904	0.31498	0.0662532	0.829751	-0.085706	0.031936	-0.331251	0.334116	0.130881	0.0321237	0.14458	-0.103461	0.239233	0.353006	0.0801542	-0.0632142	0.442858	0.842063	0.309625	0.609343	0.453448	0.839126	0.195997	0.611655	1.73268	-1.13545	0.19723	-0.137088	
6.23474	0	0	0.344671	-0.073952	0.409231	-0.282512	0.00229	0.310678	0.060189	0.827922	-0.085706	0.031936	-0.332838	0.3386	0.121613	0.040788	0.143753	-0.101123	0.239233	0.353006	0.07707	-0.061199	0.447033	0.843517	0.310754	0.606152	0.448791	0.840373	0.199202	0.611388	1.7285	-1.13273	0.19723	-0.137088	
6.23779	0	0	0.343581	-0.084384	0.403558	-0.278805	0.00243825	0.298578	0.0585655	0.813563	-0.09356	0.0370677	-0.332059	0.320871	0.118351	0.032493	0.144931	-0.112672	0.240445	0.349581	0.070905	-0.0571708	0.448958	0.838078	0.302402	0.606706	0.451269	0.83337	0.195155	0.614032	1.7285	-1.13273	0.189912	-0.132307	
6.23932	0	0	0.342492	-0.094816	0.397884	-0.275098	0.0025865	0.286478	0.056942	0.799203	-0.101414	0.0421995	-0.33128	0.303141	0.115089	0.024198	0.14611	-0.12422	0.241657	0.346156	0.06474	-0.0531425	0.450882	0.832639	0.294049	0.607259	0.453747	0.826366	0.191109	0.616676	1.7285	-1.13273	0.182595	-0.127525	
6.23321	0	0	0.341402	-0.105248	0.392211	-0.271391	0.00273475	0.274379	0.0553185	0.784844	-0.109268	0.0473313	-0.330501	0.285411	0.111827	0.015903	0.147288	-0.135769	0.242869	0.342731	0.058575	-0.0491142	0.452807	0.827201	0.285697	0.607812	0.456225	0.819362	0.187063	0.61932	1.7285	-1.13273	0.175278	-0.122744	
6.24084	0	0	0.340312	-0.11568	0.386538	-0.267684	0.002883	0.262279	0.053695	0.770485	-0.117122	0.052463	-0.329722	0.267682	0.108565	0.007608	0.148467	-0.147317	0.244081	0.339306	0.05241	-0.045086	0.454731	0.821762	0.277345	0.608366	0.458703	0.812359	0.183016	0.621964	1.7285	-1.13273	0.16796	-0.117963	
6.23932	0	0	0.343386	-0.124366	0.389374	-0.269537	0.00747925	0.249289	0.0528805	0.76332	-0.117122	0.052463	-0.332117	0.258935	0.112159	-0.00255	0.146338	-0.149515	0.238853	0.334828	0.0462495	-0.0410605	0.459537	0.808179	0.277681	0.595901	0.463654	0.798369	0.180813	0.61062	1.72092	-1.12941	0.161405	-0.115322	
6.24237	0	0	0.346459	-0.133051	0.39221	-0.27139	0.0120755	0.236299	0.052066	0.756155	-0.117122	0.052463	-0.334512	0.250188	0.115754	-0.012708	0.144209	-0.151713	0.233625	0.330351	0.040089	-0.037035	0.464344	0.794596	0.278016	0.583437	0.468604	0.784378	0.178609	0.599276	1.71334	-1.1261	0.15485	-0.11268	
6.24084	0	0	0.349532	-0.141737	0.395046	-0.273244	0.0166717	0.223309	0.0512515	0.748991	-0.117122	0.052463	-0.336906	0.241442	0.119348	-0.022866	0.142081	-0.153911	0.228398	0.325874	0.0339285	-0.0330095	0.46915	0.781014	0.278352	0.570972	0.473554	0.770388	0.176405	0.587933	1.70575	-1.12278	0.148294	-0.110039	
6.24542	0	0	0.352606	-0.150423	0.397882	-0.275097	0.021268	0.210319	0.050437	0.741826	-0.117122	0.052463	-0.339301	0.232695	0.122943	-0.033024	0.139952	-0.156109	0.22317	0.321396	0.027768	-0.028984	0.473956	0.767431	0.278688	0.558508	0.478505	0.756397	0.174202	0.576589	1.69817	-1.11947	0.141739	-0.107398	
6.24237	0	0	0.3578	-0.151592	0.395046	-0.273244	0.017732	0.208639	0.0530912	0.734325	-0.121046	0.0550272	-0.337721	0.228229	0.126533	-0.0431705	0.138649	-0.160638	0.226799	0.311141	0.0246892	-0.0269725	0.476836	0.759291	0.279017	0.546069	0.482624	0.744755	0.175196	0.565001	1.68984	-1.11403	0.138086	-0.105011	
6.2439	0	0	0.362995	-0.152761	0.39221	-0.27139	0.014196	0.206959	0.0557455	0.726823	-0.12497	0.0575915	-0.33614	0.223762	0.130123	-0.053317	0.137346	-0.165166	0.230428	0.300886	0.0216105	-0.024961	0.479716	0.751151	0.279346	0.533631	0.486743	0.733113	0.176189	0.553413	1.68151	-1.10858	0.134433	-0.102624	
6.24695	0	0	0.36819	-0.153931	0.389374	-0.269537	0.01066	0.205279	0.0583998	0.719321	-0.128894	0.0601558	-0.33456	0.219296	0.133713	-0.0634635	0.136044	-0.169695	0.234056	0.29063	0.0185317	-0.0229495	0.482596	0.743012	0.279676	0.521193	0.490863	0.721471	0.177183	0.541825	1.67318	-1.10314	0.130779	-0.100237	
6.24695	0	0	0.373384	-0.1551	0.386538	-0.267684	0.007124	0.203599	0.061054	0.71182	-0.132818	0.06272	-0.332979	0.214829	0.137303	-0.07361	0.134741	-0.174224	0.237685	0.280375	0.015453	-0.020938	0.485476	0.734872	0.280005	0.508754	0.494982	0.709829	0.178177	0.530237	1.66485	-1.0977	0.127126	-0.09785	
6.24695	0	0	0.37126	-0.162608	0.382947	-0.263695	0.011711	0.190636	0.0585315	0.70003	-0.13674	0.065283	-0.3314	0.210365	0.131641	-0.0751057	0.130487	-0.178611	0.240102	0.273545	0.009299	-0.0169167	0.488353	0.72674	0.283376	0.499228	0.499918	0.695879	0.178327	0.521037	1.66485	-1.0977	0.127126	-0.09785	
6.24695	0	0	0.369136	-0.170117	0.379355	-0.259706	0.016298	0.177672	0.056009	0.688241	-0.140663	0.067846	-0.32982	0.205901	0.125979	-0.0766015	0.126232	-0.182998	0.242518	0.266714	0.003145	-0.0128955	0.491231	0.718608	0.286747	0.489702	0.504854	0.681928	0.178478	0.511836	1.66485	-1.0977	0.127126	-0.09785	
6.2439	0	0	0.367012	-0.177625	0.375764	-0.255717	0.020885	0.164708	0.0534865	0.676451	-0.144586	0.070409	-0.32824	0.201437	0.120318	-0.0780972	0.121977	-0.187385	0.244935	0.259884	-0.003009	-0.00887425	0.494109	0.710475	0.290117	0.480176	0.509791	0.667978	0.178628	0.502636	1.66485	-1.0977	0.127126	-0.09785	
6.24237	0	0	0.364888	-0.185133	0.372173	-0.251728	0.025472	0.151745	0.050964	0.664662	-0.148508	0.072972	-0.326661	0.196973	0.114656	-0.079593	0.117723	-0.191772	0.247352	0.253054	-0.009163	-0.004853	0.496986	0.702343	0.293488	0.47065	0.514727	0.654027	0.178779	0.493435	1.66485	-1.0977	0.127126	-0.09785	
6.23932	0	0	0.363785	-0.195516	0.366505	-0.248025	0.026513	0.137136	0.0501995	0.647923	-0.156348	0.0780945	-0.331464	0.179555	0.120626	-0.0964655	0.116764	-0.205456	0.243329	0.245193	-0.0214575	0.0031805	0.501776	0.688806	0.283228	0.465166	0.512534	0.648319	0.175727	0.484523	1.66485	-1.0977	0.119824	-0.0930788	
6.23932	0	0	0.362681	-0.2059	0.360837	-0.244321	0.027554	0.122527	0.049435	0.631184	-0.164187	0.083217	-0.336267	0.162137	0.126597	-0.113338	0.115805	-0.219141	0.239306	0.237332	-0.033752	0.011214	0.506566	0.675269	0.272968	0.459682	0.510342	0.642612	0.172675	0.475611	1.66485	-1.0977	0.112522	-0.0883075	
6.23779	0	0	0.361577	-0.216283	0.35517	-0.240618	0.028595	0.107919	0.0486705	0.614444	-0.172026	0.0883395	-0.341069	0.144718	0.132567	-0.130211	0.114845	-0.232825	0.235283	0.22947	-0.0460465	0.0192475	0.511356	0.661731	0.262707	0.454198	0.508149	0.636904	0.169622	0.466698	1.66485	-1.0977	0.10522	-0.0835363	
6.24237	0	0	0.360474	-0.226666	0.349502	-0.236914	0.029636	0.09331	0.047906	0.597705	-0.179866	0.093462	-0.345872	0.1273	0.138537	-0.147083	0.113886	-0.246509	0.23126	0.221609	-0.058341	0.027281	0.516146	0.648194	0.252447	0.448714	0.505956	0.631196	0.16657	0.457786	1.66485	-1.0977	0.097918	-0.078765	
6.24084	0	0	0.363537	-0.235321	0.350258	-0.23905	0.0323795	0.0855565	0.0488385	0.585627	-0.183783	0.0960215	-0.33958	0.109519	0.134068	-0.151934	0.110456	-0.253197	0.227239	0.213762	-0.0706182	0.0353033	0.520929	0.634677	0.255	0.430018	0.510879	0.617282	0.16602	0.441817	1.65653	-1.09226	0.0942692	-0.076381	
6.23932	0	0	0.366599	-0.243976	0.351014	-0.241187	0.035123	0.077803	0.049771	0.57355	-0.1877	0.098581	-0.333288	0.091738	0.129599	-0.156785	0.107026	-0.259885	0.223217	0.205916	-0.0828955	0.0433255	0.525711	0.621161	0.257554	0.411322	0.515802	0.603368	0.165471	0.425849	1.6482	-1.08682	0.0906205	-0.073997	
6.23779	0	0	0.369661	-0.252632	0.35177	-0.243323	0.0378665	0.0700495	0.0507035	0.561472	-0.191617	0.10114	-0.326997	0.073957	0.12513	-0.161637	0.103596	-0.266574	0.219195	0.19807	-0.0951728	0.0513477	0.530494	0.607644	0.260107	0.392625	0.520726	0.589453	0.164921	0.40988	1.63988	-1.08138	0.0869718	-0.071613	
6.23779	0	0	0.372724	-0.261287	0.352526	-0.245459	0.04061	0.062296	0.051636	0.549394	-0.195534	0.1037	-0.320705	0.056176	0.120661	-0.166488	0.100166	-0.273262	0.215174	0.190223	-0.10745	0.05937	0.535277	0.594127	0.262661	0.373929	0.525649	0.575539	0.164372	0.393911	1.63156	-1.07594	0.083323	-0.069229	
6.23627	0	0	0.376897	-0.259578	0.352526	-0.245459	0.0468935	0.0562045	0.0568608	0.544071	-0.187698	0.0985797	-0.319134	0.0517362	0.129898	-0.175112	0.100988	-0.275583	0.218785	0.180019	-0.113582	0.0633767	0.544247	0.582038	0.260733	0.367904	0.528927	0.566275	0.167007	0.377708	1.63156	-1.07594	0.079676	-0.0668457	
6.23474	0	0	0.38107	-0.257869	0.352526	-0.245459	0.053177	0.050113	0.0620855	0.538747	-0.179863	0.0934595	-0.317563	0.0472965	0.139135	-0.183735	0.101809	-0.277904	0.222395	0.169815	-0.119714	0.0673835	0.553216	0.56995	0.258806	0.361878	0.532205	0.557011	0.169643	0.361505	1.63156	-1.07594	0.076029	-0.0644625	
6.23627	0	0	0.385242	-0.256161	0.352526	-0.245459	0.0594605	0.0440215	0.0673103	0.533424	-0.172027	0.0883393	-0.315992	0.0428567	0.148372	-0.192359	0.10263	-0.280225	0.226006	0.15961	-0.125845	0.0713903	0.562186	0.557862	0.256879	0.355853	0.535483	0.547747	0.172279	0.345302	1.63156	-1.07594	0.072382	-0.0620793	
6.23779	0	0	0.389415	-0.254452	0.352526	-0.245459	0.065744	0.03793	0.072535	0.5281	-0.164191	0.083219	-0.314421	0.038417	0.157609	-0.200983	0.103452	-0.282546	0.229617	0.149406	-0.131977	0.075397	0.571156	0.545773	0.254951	0.349828	0.538761	0.538483	0.174914	0.329099	1.63156	-1.07594	0.068735	-0.059696	
6.23627	0	0	0.388394	-0.251566	0.349693	-0.243608	0.0666575	0.0353477	0.0690677	0.528456	-0.16027	0.0806572	-0.310435	0.0426405	0.155226	-0.194248	0.101809	-0.277903	0.239662	0.140229	-0.131977	0.075397	0.577264	0.541782	0.259114	0.349535	0.538761	0.538483	0.175746	0.326747	1.63572	-1.07866	0.0760308	-0.0644632	
6.23779	0	0	0.387373	-0.24868	0.346861	-0.241758	0.067571	0.0327655	0.0656005	0.528813	-0.15635	0.0780955	-0.306449	0.046864	0.152842	-0.187513	0.100166	-0.273261	0.249706	0.131053	-0.131977	0.075397	0.583372	0.53779	0.263277	0.349243	0.538761	0.538483	0.176578	0.324395	1.63988	-1.08138	0.0833265	-0.0692305	
6.23474	0	0	0.386352	-0.245794	0.344029	-0.239907	0.0684845	0.0301833	0.0621333	0.52917	-0.152429	0.0755337	-0.302462	0.0510875	0.150459	-0.180778	0.098523	-0.268618	0.259751	0.121876	-0.131977	0.075397	0.58948	0.533799	0.26744	0.34895	0.538761	0.538483	0.177411	0.322044	1.64404	-1.0841	0.0906223	-0.0739978	
6.23321	0	0	0.385331	-0.242908	0.341196	-0.238056	0.069398	0.027601	0.058666	0.529526	-0.148508	0.072972	-0.298476	0.055311	0.148076	-0.174043	0.09688	-0.263975	0.269796	0.112699	-0.131977	0.075397	0.595588	0.529808	0.271603	0.348657	0.538761	0.538483	0.178243	0.319692	1.6482	-1.08682	0.097918	-0.078765	
6.23474	0	0	0.389413	-0.254446	0.335534	-0.234356	0.0658553	0.0259475	0.0630553	0.517121	-0.140661	0.0678447	-0.300892	0.0466498	0.157321	-0.182673	0.102292	-0.271081	0.263358	0.111683	-0.138105	0.0794008	0.596543	0.52711	0.270485	0.351816	0.537123	0.543114	0.180608	0.321763	1.6516	-1.0874	0.101568	-0.08115	
6.23169	0	0	0.393496	-0.265985	0.329871	-0.230656	0.0623125	0.024294	0.0674445	0.504716	-0.132815	0.0627175	-0.303308	0.0379885	0.166566	-0.191304	0.107703	-0.278186	0.256919	0.110667	-0.144232	0.0834045	0.597498	0.524412	0.269368	0.354974	0.535484	0.547745	0.182973	0.323835	1.65501	-1.08799	0.105218	-0.083535	
6.23474	0	0	0.397579	-0.277523	0.324209	-0.226957	0.0587697	0.0226405	0.0718338	0.49231	-0.124969	0.0575903	-0.305724	0.0293273	0.17581	-0.199934	0.113115	-0.285292	0.250481	0.10965	-0.15036	0.0874082	0.598452	0.521713	0.268251	0.358132	0.533845	0.552375	0.185337	0.325906	1.65842	-1.08857	0.108869	-0.08592	
6.23321	0	0	0.401661	-0.289061	0.318547	-0.223257	0.055227	0.020987	0.076223	0.479905	-0.117122	0.052463	-0.30814	0.020666	0.185055	-0.208564	0.118527	-0.292397	0.244043	0.108634	-0.156488	0.091412	0.599407	0.519015	0.267133	0.361291	0.532207	0.557006	0.187702	0.327977	1.66183	-1.08916	0.112519	-0.088305	
6.23016	0	0	0.401661	-0.289061	0.321378	-0.225107	0.0543138	0.0235677	0.080569	0.477065	-0.113196	0.0498978	-0.299442	0.0115725	0.185055	-0.208564	0.121476	-0.29254	0.245244	0.105239	-0.156488	0.091412	0.605519	0.515021	0.267133	0.361291	0.544808	0.545212	0.186169	0.323555	1.66258	-1.09129	0.112519	-0.088305	
6.23016	0	0	0.401661	-0.289061	0.324209	-0.226957	0.0534005	0.0261485	0.084915	0.474226	-0.10927	0.0473325	-0.290744	0.002479	0.185055	-0.208564	0.124426	-0.292683	0.246446	0.101844	-0.156488	0.091412	0.611631	0.511027	0.267133	0.361291	0.557408	0.533419	0.184636	0.319133	1.66334	-1.09343	0.112519	-0.088305	
6.23627	0	0	0.401661	-0.289061	0.327039	-0.228806	0.0524872	0.0287292	0.089261	0.471386	-0.105344	0.0447673	-0.282045	-0.0066145	0.185055	-0.208564	0.127376	-0.292825	0.247647	0.098449	-0.156488	0.091412	0.617744	0.507033	0.267133	0.361291	0.570009	0.521625	0.183103	0.31471	1.66409	-1.09556	0.112519	-0.088305	
6.24084	0	0	0.401661	-0.289061	0.32987	-0.230656	0.051574	0.03131	0.093607	0.468546	-0.101418	0.042202	-0.273347	-0.015708	0.185055	-0.208564	0.130325	-0.292968	0.248848	0.095054	-0.156488	0.091412	0.623856	0.503039	0.267133	0.361291	0.58261	0.509831	0.18157	0.310288	1.66485	-1.0977	0.112519	-0.088305	
6.24695	0	0	0.403797	-0.281586	0.332701	-0.232506	0.048833	0.0390565	0.0944442	0.475628	-0.0935605	0.0370678	-0.278058	-0.00239525	0.188346	-0.200351	0.137537	-0.288751	0.247647	0.098449	-0.149605	0.0852725	0.622901	0.505737	0.273229	0.367029	0.575488	0.518045	0.183935	0.312358	1.66826	-1.09828	0.116171	-0.0906913	
6.25152	0	0	0.405933	-0.274112	0.335533	-0.234356	0.046092	0.046803	0.0952815	0.48271	-0.085703	0.0319335	-0.282768	0.0109175	0.191637	-0.192138	0.144749	-0.284534	0.246446	0.101844	-0.142721	0.079133	0.621946	0.508436	0.279324	0.372767	0.568367	0.526258	0.186301	0.314428	1.67167	-1.09887	0.119822	-0.0930775	
6.25915	0	0	0.408069	-0.266637	0.338365	-0.236206	0.043351	0.0545495	0.0961188	0.489791	-0.0778455	0.0267993	-0.287478	0.0242303	0.194928	-0.183924	0.151961	-0.280317	0.245244	0.105239	-0.135837	0.0729935	0.620992	0.511135	0.28542	0.378506	0.561245	0.534471	0.188666	0.316498	1.67508	-1.09945	0.123474	-0.0954637	
6.26068	0	0	0.410205	-0.259162	0.341196	-0.238056	0.04061	0.062296	0.096956	0.496873	-0.069988	0.021665	-0.292189	0.037543	0.198219	-0.175711	0.159173	-0.2761	0.244043	0.108634	-0.128954	0.066854	0.620037	0.513833	0.291516	0.384244	0.554124	0.542685	0.191031	0.318568	1.67848	-1.10004	0.127126	-0.09785	
6.26526	0	5	0.405007	-0.257985	0.335534	-0.234356	0.0352437	0.0658025	0.0900178	0.497591	-0.0660565	0.0190963	-0.288198	0.041767	0.202705	-0.170859	0.158835	-0.266938	0.249279	0.113049	-0.122822	0.0628472	0.618127	0.519232	0.288961	0.402959	0.555507	0.55069	0.193265	0.329778	1.68265	-1.10276	0.130779	-0.100237	
6.27136	0	5	0.39981	-0.256807	0.329871	-0.230656	0.0298775	0.069309	0.0830795	0.498309	-0.062125	0.0165275	-0.284208	0.045991	0.207191	-0.166008	0.158497	-0.257777	0.254514	0.117464	-0.116691	0.0588405	0.616216	0.524631	0.286405	0.421674	0.55689	0.558695	0.195498	0.340987	1.68682	-1.10548	0.134433	-0.102624	
6.27746	0	5	0.394613	-0.25563	0.324209	-0.226957	0.0245112	0.0728155	0.0761412	0.499027	-0.0581935	0.0139588	-0.280218	0.050215	0.211677	-0.161157	0.158159	-0.248615	0.25975	0.12188	-0.110559	0.0548338	0.614305	0.530031	0.28385	0.44039	0.558272	0.5667	0.197732	0.352197	1.69098	-1.10821	0.138086	-0.105011	
6.27594	0	5	0.389415	-0.254452	0.318547	-0.223257	0.019145	0.076322	0.069203	0.499745	-0.054262	0.01139	-0.276227	0.054439	0.216163	-0.156305	0.157821	-0.239453	0.264985	0.126295	-0.104427	0.050827	0.612395	0.53543	0.281295	0.459105	0.559655	0.574705	0.199965	0.363407	1.69515	-1.11093	0.141739	-0.107398	
6.28052	0	5	0.385242	-0.256161	0.315717	-0.221408	0.020059	0.073739	0.0683685	0.492666	-0.054262	0.01139	-0.273083	0.045553	0.214968	-0.152928	0.166691	-0.239879	0.264985	0.126295	-0.0952208	0.0448115	0.612395	0.53543	0.281295	0.459105	0.558014	0.579344	0.200663	0.370201	1.6959	-1.11307	0.138086	-0.105011	
6.28357	0	5	0.38107	-0.257869	0.312888	-0.219559	0.020973	0.071156	0.067534	0.485587	-0.054262	0.01139	-0.269938	0.036667	0.213774	-0.149551	0.175561	-0.240305	0.264985	0.126295	-0.0860145	0.038796	0.612395	0.53543	0.281295	0.459105	0.556372	0.583983	0.201361	0.376995	1.69666	-1.1152	0.134433	-0.102624	
6.28662	0	5	0.376897	-0.259578	0.310059	-0.21771	0.021887	0.068573	0.0666995	0.478508	-0.054262	0.01139	-0.266794	0.027781	0.212579	-0.146174	0.184432	-0.24073	0.264985	0.126295	-0.0768082	0.0327805	0.612395	0.53543	0.281295	0.459105	0.554731	0.588623	0.20206	0.383788	1.69742	-1.11734	0.130779	-0.100237	
6.28815	0	5	0.372724	-0.261287	0.307229	-0.215861	0.022801	0.06599	0.065865	0.471429	-0.054262	0.01139	-0.26365	0.018895	0.211384	-0.142797	0.193302	-0.241156	0.264985	0.126295	-0.067602	0.026765	0.612395	0.53543	0.281295	0.459105	0.553089	0.593262	0.202758	0.390582	1.69817	-1.11947	0.127126	-0.09785	
6.2912	0	5	0.370683	-0.255518	0.307229	-0.215861	0.0165242	0.072077	0.0693317	0.471069	-0.0503287	0.00882	-0.26365	0.018895	0.210189	-0.139419	0.200535	-0.236923	0.263782	0.129695	-0.058386	0.020743	0.607238	0.536724	0.285466	0.458818	0.552268	0.595582	0.205125	0.392663	1.69817	-1.11947	0.127126	-0.09785	
6.29272	0	5	0.368642	-0.249748	0.307229	-0.215861	0.0102475	0.078164	0.0727985	0.470709	-0.0463955	0.00625	-0.26365	0.018895	0.208993	-0.136041	0.207768	-0.232689	0.262579	0.133095	-0.04917	0.014721	0.602081	0.538018	0.289637	0.458531	0.551447	0.597903	0.207492	0.394744	1.69817	-1.11947	0.127126	-0.09785	
6.2912	0	5	0.3666	-0.243979	0.307229	-0.215861	0.00397075	0.084251	0.0762653	0.470349	-0.0424622	0.00368	-0.26365	0.018895	0.207797	-0.132662	0.215001	-0.228456	0.261376	0.136496	-0.039954	0.008699	0.596925	0.539312	0.293808	0.458245	0.550626	0.600224	0.20986	0.396825	1.69817	-1.11947	0.127126	-0.09785	
6.29272	0	5	0.364559	-0.23821	0.307229	-0.215861	-0.002306	0.090338	0.079732	0.469989	-0.038529	0.00111	-0.26365	0.018895	0.206602	-0.129284	0.222234	-0.224222	0.260173	0.139896	-0.030738	0.002677	0.591768	0.540606	0.297979	0.457958	0.549805	0.602544	0.212227	0.398906	1.69817	-1.11947	0.127126	-0.09785	
6.28967	0	5	0.361494	-0.22955	0.307229	-0.215861	-0.002306	0.090338	0.074511	0.475306	-0.038529	0.00111	-0.261227	0.0275615	0.209892	-0.121035	0.230791	-0.215453	0.266617	0.140917	-0.0184345	-0.0053625	0.589857	0.546007	0.299906	0.46402	0.548162	0.607187	0.212924	0.405712	1.69742	-1.11734	0.127126	-0.09785	
6.28815	0	5	0.35843	-0.220889	0.307229	-0.215861	-0.002306	0.090338	0.06929	0.480623	-0.038529	0.00111	-0.258804	0.036228	0.213182	-0.112786	0.239347	-0.206684	0.27306	0.141937	-0.006131	-0.013402	0.587946	0.551408	0.301833	0.470081	0.546519	0.61183	0.21362	0.412519	1.69666	-1.1152	0.127126	-0.09785	
6.28815	0	5	0.355366	-0.212228	0.307229	-0.215861	-0.002306	0.090338	0.064069	0.485941	-0.038529	0.00111	-0.256381	0.0448945	0.216471	-0.104536	0.247903	-0.197916	0.279504	0.142957	0.0061725	-0.0214415	0.586034	0.556809	0.30376	0.476143	0.544876	0.616473	0.214317	0.419326	1.6959	-1.11307	0.127126	-0.09785	
6.28357	5	0	0.352301	-0.203568	0.307229	-0.215861	-0.002306	0.090338	0.058848	0.491258	-0.038529	0.00111	-0.253958	0.053561	0.219761	-0.096287	0.25646	-0.189147	0.285948	0.143978	0.018476	-0.029481	0.584123	0.56221	0.305687	0.482205	0.543233	0.621116	0.215014	0.426132	1.69515	-1.11093	0.127126	-0.09785	
6.28204	5	0	0.3626	-0.219174	0.301572	-0.212165	0.000435	0.0825915	0.0554265	0.482067	-0.0424622	0.00368	-0.263516	0.0495565	0.220958	-0.0996705	0.257287	-0.191484	0.277096	0.149762	0.018476	-0.029481	0.571911	0.570189	0.305687	0.482205	0.541589	0.625761	0.214872	0.435312	1.69515	-1.11093	0.130779	-0.100237	
6.28357	5	0	0.3729	-0.23478	0.295915	-0.208469	0.003176	0.074845	0.052005	0.472876	-0.0463955	0.00625	-0.273073	0.045552	0.222156	-0.103054	0.258114	-0.193821	0.268245	0.155546	0.018476	-0.029481	0.5597	0.578168	0.305687	0.482205	0.539946	0.630406	0.21473	0.444493	1.69515	-1.11093	0.134433	-0.102624	
6.28204	5	0	0.383199	-0.250386	0.290259	-0.204773	0.005917	0.0670985	0.0485835	0.463684	-0.0503287	0.00882	-0.282631	0.0415475	0.223353	-0.106438	0.258941	-0.196158	0.259393	0.161329	0.018476	-0.029481	0.547489	0.586148	0.305687	0.482205	0.538303	0.635052	0.214588	0.453673	1.69515	-1.11093	0.138086	-0.105011	
6.28052	5	0	0.393499	-0.265992	0.284602	-0.201077	0.008658	0.059352	0.045162	0.454493	-0.054262	0.01139	-0.292189	0.037543	0.22455	-0.109821	0.259768	-0.198495	0.250542	0.167113	0.018476	-0.029481	0.535277	0.594127	0.305687	0.482205	0.536659	0.639697	0.214446	0.462853	1.69515	-1.11093	0.141739	-0.107398	
6.28052	5	0	0.39452	-0.268876	0.286674	-0.200789	0.00421175	0.0602733	0.044326	0.447431	-0.0581935	0.0139588	-0.287478	0.0242303	0.218867	-0.111307	0.260595	-0.200831	0.251746	0.16371	0.018476	-0.029481	0.539098	0.583328	0.299589	0.47643	0.533641	0.636312	0.20804	0.463402	1.68266	-1.10277	0.138086	-0.105011	
6.28815	5	0	0.39554	-0.271761	0.288746	-0.2005	-0.0002345	0.0611945	0.04349	0.44037	-0.062125	0.0165275	-0.282768	0.0109175	0.213184	-0.112793	0.261421	-0.203168	0.25295	0.160307	0.018476	-0.029481	0.542919	0.572529	0.293491	0.470655	0.530624	0.632928	0.201634	0.463952	1.67016	-1.0946	0.134433	-0.102624	
6.29425	5	0	0.39656	-0.274645	0.290818	-0.200211	-0.00468075	0.0621157	0.042654	0.433308	-0.0660565	0.0190963	-0.278058	-0.00239525	0.207502	-0.114279	0.262248	-0.205504	0.254155	0.156905	0.018476	-0.029481	0.54674	0.56173	0.287393	0.46488	0.527606	0.629544	0.195229	0.464501	1.65767	-1.08644	0.130779	-0.100237	
6.30188	5	0	0.397581	-0.277529	0.29289	-0.199923	-0.009127	0.063037	0.041818	0.426247	-0.069988	0.021665	-0.273347	-0.015708	0.201819	-0.115765	0.263075	-0.20784	0.255359	0.153502	0.018476	-0.029481	0.550561	0.550931	0.281295	0.459105	0.524588	0.626159	0.188823	0.46505	1.64518	-1.07828	0.127126	-0.09785	
6.31256	5	0	0.390346	-0.270584	0.290062	-0.198075	-0.0073015	0.0578777	0.0435673	0.421303	-0.0739175	0.0242328	-0.271779	-0.020141	0.203015	-0.119145	0.266044	-0.207984	0.256563	0.1501	0.0246342	-0.033505	0.548278	0.544131	0.281611	0.446719	0.521572	0.622778	0.188966	0.455874	1.64518	-1.07828	0.119068	-0.0909425	
6.32477	5	0	0.383112	-0.26364	0.287235	-0.196227	-0.005476	0.0527185	0.0453165	0.41636	-0.077847	0.0268005	-0.27021	-0.024574	0.204211	-0.122525	0.269013	-0.208128	0.257766	0.146699	0.0307925	-0.037529	0.545995	0.53733	0.281926	0.434333	0.518556	0.619397	0.189109	0.446697	1.64518	-1.07828	0.11101	-0.084035	
6.34003	5	0	0.375877	-0.256695	0.284407	-0.19438	-0.0036505	0.0475592	0.0470657	0.411416	-0.0817765	0.0293682	-0.268641	-0.029007	0.205406	-0.125904	0.271982	-0.208272	0.258969	0.143297	0.0369508	-0.041553	0.543713	0.53053	0.282242	0.421947	0.51554	0.616015	0.189253	0.43752	1.64518	-1.07828	0.102952	-0.0771275	
6.35223	5	0	0.368642	-0.24975	0.281579	-0.192532	-0.001825	0.0424	0.048815	0.406473	-0.085706	0.031936	-0.267073	-0.03344	0.206602	-0.129284	0.274951	-0.208416	0.260173	0.139896	0.043109	-0.045577	0.54143	0.52373	0.282558	0.409561	0.512524	0.612634	0.189396	0.428344	1.64518	-1.07828	0.094894	-0.07022	
6.36749	5	0	0.372814	-0.248039	0.276682	-0.190975	-0.00535675	0.0407435	0.0471022	0.401895	-0.089634	0.0345025	-0.275771	-0.0243487	0.207797	-0.132662	0.277094	-0.206223	0.262579	0.133097	0.043109	-0.045577	0.537241	0.522325	0.281749	0.400361	0.509509	0.609256	0.19037	0.416824	1.64518	-1.07828	0.094894	-0.07022	
6.38122	5	0	0.376987	-0.246329	0.271785	-0.189418	-0.0088885	0.039087	0.0453895	0.397317	-0.093562	0.037069	-0.284468	-0.0152575	0.208993	-0.136041	0.279238	-0.204029	0.264984	0.126298	0.043109	-0.045577	0.533053	0.520919	0.28094	0.391161	0.506495	0.605878	0.191345	0.405304	1.64518	-1.07828	0.094894	-0.07022	
6.39801	5	0	0.381159	-0.244619	0.266888	-0.18786	-0.0124203	0.0374305	0.0436768	0.39274	-0.09749	0.0396355	-0.293165	-0.00616625	0.210189	-0.139419	0.281381	-0.201836	0.26739	0.119498	0.043109	-0.045577	0.528865	0.519513	0.28013	0.381962	0.50348	0.602499	0.192319	0.393783	1.64518	-1.07828	0.094894	-0.07022	
6.41174	5	0	0.385331	-0.242908	0.261991	-0.186303	-0.015952	0.035774	0.041964	0.388162	-0.101418	0.042202	-0.301863	0.002925	0.211384	-0.142797	0.283524	-0.199643	0.269796	0.112699	0.043109	-0.045577	0.524676	0.518108	0.279321	0.372762	0.500466	0.599121	0.193293	0.382263	1.64518	-1.07828	0.094894	-0.07022	
6.42395	5	0	0.384219	-0.253268	0.256342	-0.182612	-0.016748	0.026394	0.0350818	0.379385	-0.11319	0.0498945	-0.302716	-0.0101402	0.209286	-0.154398	0.282207	-0.204172	0.2722	0.105905	0.0338733	-0.039542	0.528486	0.507342	0.275462	0.360717	0.502925	0.59217	0.189397	0.375752	1.63686	-1.07284	0.0920013	-0.0699722	
6.44226	5	0	0.383107	-0.263628	0.250693	-0.17892	-0.017544	0.017014	0.0281995	0.370607	-0.124963	0.057587	-0.303569	-0.0232055	0.207187	-0.165998	0.28089	-0.208702	0.274604	0.0991115	0.0246375	-0.033507	0.532295	0.496576	0.271602	0.348672	0.505384	0.58522	0.185501	0.369242	1.62854	-1.06741	0.0891085	-0.0697245	
6.44836	5	0	0.381996	-0.273988	0.245044	-0.175229	-0.01834	0.007634	0.0213172	0.361829	-0.136736	0.0652795	-0.304422	-0.0362707	0.205089	-0.177598	0.279574	-0.213232	0.277008	0.0923178	0.0154017	-0.027472	0.536104	0.485809	0.267743	0.336628	0.507844	0.578269	0.181605	0.362731	1.62022	-1.06197	0.0862157	-0.0694768	
6.46057	5	0	0.380884	-0.284348	0.239395	-0.171538	-0.019136	-0.001746	0.014435	0.353052	-0.148508	0.072972	-0.305275	-0.049336	0.202991	-0.189199	0.278257	-0.217761	0.279412	0.085524	0.006166	-0.021437	0.539914	0.475043	0.263884	0.324583	0.510303	0.571318	0.177709	0.35622	1.6119	-1.05653	0.083323	-0.069229	
6.46973	5	0	0.383941	-0.292989	0.23375	-0.167849	-0.014586	-0.014605	0.0144655	0.343566	-0.156348	0.0780945	-0.306135	-0.0623698	0.20208	-0.204137	0.281562	-0.2271	0.276572	0.0743395	1.425E-05	-0.0174173	0.541429	0.457529	0.264476	0.299987	0.51138	0.556385	0.168393	0.338816	1.60359	-1.0511	0.0723865	-0.0620827	
6.47583	5	0	0.386999	-0.301631	0.228104	-0.16416	-0.010036	-0.027464	0.014496	0.33408	-0.164187	0.083217	-0.306995	-0.0754035	0.201169	-0.219075	0.284867	-0.23644	0.273732	0.063155	-0.0061375	-0.0133975	0.542944	0.440016	0.265068	0.27539	0.512457	0.541451	0.159077	0.321411	1.59528	-1.04567	0.06145	-0.0549365	
6.48651	5	0	0.390057	-0.310272	0.222459	-0.160471	-0.005486	-0.040323	0.0145265	0.324594	-0.172026	0.0883395	-0.307854	-0.0884372	0.200257	-0.234013	0.288171	-0.245779	0.270891	0.0519705	-0.0122892	-0.00937775	0.544458	0.422502	0.265659	0.250794	0.513534	0.526518	0.149761	0.304007	1.58697	-1.04024	0.0505135	-0.0477902	
6.48498	5	0	0.393114	-0.318913	0.216814	-0.156782	-0.000936	-0.053182	0.014557	0.315108	-0.179866	0.093462	-0.308714	-0.101471	0.199346	-0.248951	0.291476	-0.255118	0.268051	0.040786	-0.018441	-0.005358	0.545973	0.404988	0.266251	0.226198	0.514611	0.511585	0.140445	0.286603	1.57866	-1.03481	0.039577	-0.040644	
6.49261	5	0	0.394132	-0.321792	0.208353	-0.151254	-0.00355875	-0.057393	0.011974	0.313013	-0.187698	0.0985798	-0.30559	-0.1103	0.19605	-0.257134	0.292301	-0.257451	0.264011	0.033011	-0.025344	0.0007945	0.547474	0.387523	0.264599	0.207971	0.515678	0.496688	0.142354	0.263742	1.57451	-1.0321	0.0286545	-0.0335068	
6.49719	5	0	0.395151	-0.32467	0.199891	-0.145725	-0.0061815	-0.061604	0.009391	0.310918	-0.19553	0.103697	-0.302466	-0.119129	0.192754	-0.265316	0.293127	-0.259784	0.259972	0.025236	-0.032247	0.006947	0.548975	0.370058	0.262946	0.189745	0.516744	0.481791	0.144264	0.240881	1.57035	-1.02939	0.017732	-0.0263695	
6.49719	5	0	0.39617	-0.327549	0.19143	-0.140197	-0.00880425	-0.065815	0.006808	0.308823	-0.203363	0.108815	-0.299342	-0.127959	0.189459	-0.273499	0.293953	-0.262118	0.255932	0.017461	-0.03915	0.0130995	0.550475	0.352592	0.261294	0.171518	0.517811	0.466893	0.146173	0.218021	1.5662	-1.02667	0.0068095	-0.0192322	
6.49872	5	0	0.397188	-0.330427	0.182969	-0.134668	-0.011427	-0.070026	0.004225	0.306728	-0.211195	0.113933	-0.296218	-0.136788	0.186163	-0.281681	0.294778	-0.264451	0.251892	0.009686	-0.046053	0.019252	0.551976	0.335127	0.259642	0.153291	0.518878	0.451996	0.148083	0.19516	1.56205	-1.02396	-0.004113	-0.012095	
6.49872	5	0	0.391996	-0.329247	0.177333	-0.130985	-0.00961025	-0.07516	0.00077325	0.307093	-0.21902	0.119046	-0.297779	-0.132375	0.189726	-0.291751	0.295604	-0.266784	0.256678	-0.00384	-0.052196	0.023266	0.552518	0.320381	0.259919	0.141071	0.518305	0.441739	0.14348	0.182002	1.56205	-1.02396	-0.007751	-0.009718	
6.50177	5	0	0.386805	-0.328067	0.171697	-0.127303	-0.0077935	-0.080294	-0.0026785	0.307457	-0.226845	0.12416	-0.299341	-0.127961	0.19329	-0.301822	0.296429	-0.269116	0.261464	-0.017366	-0.058339	0.02728	0.55306	0.305636	0.260196	0.128852	0.517733	0.431482	0.138877	0.168844	1.56205	-1.02396	-0.011389	-0.007341	
6.49567	5	0	0.381613	-0.326887	0.166061	-0.12362	-0.00597675	-0.085428	-0.00613025	0.307822	-0.234671	0.129273	-0.300903	-0.123548	0.196853	-0.311892	0.297254	-0.271448	0.26625	-0.030892	-0.064482	0.031294	0.553602	0.29089	0.260473	0.116632	0.517161	0.421226	0.134275	0.155686	1.56205	-1.02396	-0.015027	-0.004964	
6.49567	5	0	0.376422	-0.325707	0.160425	-0.119937	-0.00416	-0.090562	-0.009582	0.308187	-0.242496	0.134386	-0.302464	-0.119134	0.200416	-0.321962	0.29808	-0.273781	0.271036	-0.044418	-0.070625	0.035308	0.554144	0.276145	0.26075	0.104412	0.516588	0.410969	0.129672	0.142528	1.56205	-1.02396	-0.018665	-0.002587	
6.49719	5	0	0.377335	-0.34177	0.151978	-0.114418	-0.00940525	-0.098962	-0.0121347	0.296635	-0.246406	0.136941	-0.304893	-0.127721	0.1983	-0.333464	0.29379	-0.278146	0.265797	-0.0487835	-0.0790755	0.0391878	0.552789	0.266769	0.254657	0.098777	0.51357	0.407632	0.129788	0.133488	1.55375	-1.01854	-0.0223013	-0.000211	
6.49567	5	0	0.378248	-0.357832	0.143531	-0.108898	-0.0146505	-0.107362	-0.0146875	0.285083	-0.250316	0.139495	-0.307321	-0.136308	0.196185	-0.344965	0.2895	-0.282512	0.260557	-0.053149	-0.087526	0.0430675	0.551434	0.257393	0.248565	0.093142	0.510552	0.404295	0.129903	0.124448	1.54545	-1.01311	-0.0259375	0.002165	
6.49109	5	0	0.379162	-0.373895	0.135084	-0.103378	-0.0198958	-0.115762	-0.0172403	0.273532	-0.254225	0.14205	-0.30975	-0.144896	0.194069	-0.356467	0.285209	-0.286878	0.255318	-0.0575145	-0.0959765	0.0469472	0.550079	0.248017	0.242473	0.087507	0.507533	0.400958	0.130019	0.115409	1.53715	-1.00769	-0.0295738	0.004541	
6.48804	5	0	0.380075	-0.389957	0.126637	-0.097859	-0.025141	-0.124162	-0.019793	0.26198	-0.258135	0.144605	-0.312178	-0.153483	0.191953	-0.367968	0.280919	-0.291243	0.250079	-0.06188	-0.104427	0.050827	0.548724	0.238641	0.23638	0.081872	0.504515	0.397621	0.130134	0.106369	1.52886	-1.00227	-0.03321	0.006917	
6.48651	5	0	0.378949	-0.400247	0.12101	-0.0941822	-0.0215173	-0.134404	-0.020637	0.254989	-0.26595	0.149711	-0.307502	-0.166697	0.191016	-0.382785	0.287185	-0.300709	0.248421	-0.076348	-0.113623	0.056836	0.555324	0.219989	0.233604	0.06689	0.508584	0.386123	0.124704	0.0955985	1.52471	-0.999561	-0.03321	0.006917	
6.48346	5	0	0.377823	-0.410537	0.115383	-0.0905055	-0.0178935	-0.144645	-0.021481	0.247997	-0.273764	0.154817	-0.302826	-0.179911	0.190079	-0.397601	0.293451	-0.310175	0.246764	-0.090816	-0.122819	0.062845	0.561924	0.201336	0.230829	0.051908	0.512652	0.374625	0.119274	0.084828	1.52056	-0.996852	-0.03321	0.006917	
6.47888	5	0	0.376696	-0.420827	0.109756	-0.0868288	-0.0142697	-0.154886	-0.022325	0.241006	-0.281579	0.159923	-0.298151	-0.193125	0.189142	-0.412417	0.299718	-0.319641	0.245107	-0.105284	-0.132016	0.068854	0.568524	0.182683	0.228054	0.036926	0.51672	0.363126	0.113843	0.0740575	1.51642	-0.994142	-0.03321	0.006917	
6.47125	5	0	0.37557	-0.431117	0.104129	-0.083152	-0.010646	-0.165128	-0.023169	0.234015	-0.289393	0.165029	-0.293475	-0.206339	0.188205	-0.427234	0.305984	-0.329107	0.243449	-0.119752	-0.141212	0.074863	0.575124	0.164031	0.225278	0.021944	0.520789	0.351628	0.108413	0.063287	1.51227	-0.991433	-0.03321	0.006917	
6.46515	5	0	0.376584	-0.433983	0.101317	-0.0813145	-0.00883575	-0.170244	-0.023169	0.234015	-0.288635	0.162886	-0.287922	-0.206583	0.19175	-0.437252	0.310603	-0.333915	0.247022	-0.129849	-0.144275	0.0768645	0.574697	0.152042	0.227483	0.0157118	0.52404	0.34244	0.112525	0.0516662	1.51303	-0.993568	-0.0368445	0.009292	
6.4621	5	0	0.377598	-0.436848	0.098505	-0.079477	-0.0070255	-0.175361	-0.023169	0.234015	-0.287876	0.160744	-0.282369	-0.206827	0.195295	-0.447269	0.315222	-0.338723	0.250594	-0.139946	-0.147338	0.078866	0.57427	0.140054	0.229689	0.0094795	0.527291	0.333253	0.116637	0.0400455	1.51378	-0.995704	-0.040479	0.011667	
6.45294	5	0	0.378612	-0.439714	0.095693	-0.0776395	-0.00521525	-0.180477	-0.023169	0.234015	-0.287118	0.158601	-0.276815	-0.207071	0.198839	-0.457286	0.319842	-0.343531	0.254167	-0.150042	-0.150402	0.0808675	0.573843	0.128065	0.231894	0.00324725	0.530542	0.324065	0.120749	0.0284247	1.51454	-0.997839	-0.0441135	0.014042	
6.45447	5	0	0.379626	-0.44258	0.092881	-0.075802	-0.003405	-0.185593	-0.023169	0.234015	-0.28636	0.156458	-0.271262	-0.207315	0.202384	-0.467304	0.324461	-0.348339	0.25774	-0.160139	-0.153465	0.082869	0.573416	0.116077	0.234099	-0.002985	0.533793	0.314877	0.124861	0.016804	1.51529	-0.999974	-0.047748	0.016417	
6.44379	5	0	0.385827	-0.446631	0.09007	-0.0739652	-0.0078395	-0.184661	-0.023169	0.234015	-0.287118	0.158601	-0.267263	-0.203154	0.202384	-0.467304	0.327435	-0.348492	0.26012	-0.166864	-0.153465	0.082869	0.576235	0.108109	0.23935	-0.006416	0.535417	0.310287	0.128044	0.01651	1.51868	-1.00055	-0.0513813	0.018791	
6.43921	5	0	0.392027	-0.450683	0.087259	-0.0721285	-0.012274	-0.183729	-0.023169	0.234015	-0.287876	0.160744	-0.263264	-0.198993	0.202384	-0.467304	0.330408	-0.348646	0.262499	-0.173589	-0.153465	0.082869	0.579055	0.100141	0.244601	-0.009847	0.537041	0.305697	0.131227	0.016216	1.52207	-1.00112	-0.0550145	0.021165	
6.43158	5	0	0.398228	-0.454735	0.084448	-0.0702918	-0.0167085	-0.182798	-0.023169	0.234015	-0.288635	0.162886	-0.259265	-0.194832	0.202384	-0.467304	0.333381	-0.3488	0.264879	-0.180313	-0.153465	0.082869	0.581874	0.0921737	0.249853	-0.013278	0.538666	0.301106	0.13441	0.015922	1.52546	-1.0017	-0.0586477	0.023539	
6.427	0	5	0.404429	-0.458786	0.081637	-0.068455	-0.021143	-0.181866	-0.023169	0.234015	-0.289393	0.165029	-0.255266	-0.190671	0.202384	-0.467304	0.336355	-0.348953	0.267258	-0.187038	-0.153465	0.082869	0.584693	0.084206	0.255104	-0.016709	0.54029	0.296516	0.137593	0.015628	1.52886	-1.00227	-0.062281	0.025913	
6.41632	0	5	0.403293	-0.469049	0.080881	-0.0663187	-0.0193342	-0.186978	-0.0197013	0.224214	-0.293297	0.167581	-0.260823	-0.190427	0.204745	-0.473976	0.335028	-0.353453	0.268447	-0.190398	-0.153465	0.082869	0.591705	0.0775833	0.250692	-0.0042405	0.549593	0.293966	0.141495	0.0220145	1.53376	-1.00712	-0.0542575	0.0190283	
6.41327	0	5	0.402158	-0.479311	0.080125	-0.0641825	-0.0175255	-0.19209	-0.0162335	0.214414	-0.297202	0.170132	-0.266381	-0.190184	0.207105	-0.480648	0.333701	-0.357954	0.269636	-0.193759	-0.153465	0.082869	0.598718	0.0709605	0.24628	0.008228	0.558896	0.291416	0.145398	0.028401	1.53866	-1.01196	-0.046234	0.0121435	
6.40564	0	5	0.401022	-0.489573	0.079369	-0.0620462	-0.0157168	-0.197202	-0.0127657	0.204614	-0.301106	0.172683	-0.271939	-0.18994	0.209466	-0.48732	0.332375	-0.362454	0.270825	-0.19712	-0.153465	0.082869	0.605731	0.0643377	0.241868	0.0206965	0.568199	0.288867	0.1493	0.0347875	1.54357	-1.01681	-0.0382105	0.00525875	
6.40259	0	5	0.399886	-0.499836	0.078613	-0.05991	-0.013908	-0.202314	-0.009298	0.194813	-0.305011	0.175235	-0.277496	-0.189696	0.211827	-0.493992	0.331048	-0.366954	0.272014	-0.20048	-0.153465	0.082869	0.612743	0.057715	0.237456	0.033165	0.577502	0.286317	0.153202	0.041174	1.54847	-1.02165	-0.030187	-0.001626	
6.39496	0	5	0.402921	-0.508413	0.0765588	-0.06021	-0.0121002	-0.207423	-0.00238425	0.18465	-0.304253	0.173092	-0.268821	-0.198751	0.213007	-0.497326	0.327571	-0.373619	0.274391	-0.207197	-0.156527	0.08487	0.615559	0.0497565	0.23856	0.0300463	0.572036	0.289888	0.153094	0.0501925	1.54432	-1.01894	-0.030187	-0.001626	
6.3858	0	5	0.405956	-0.516991	0.0745045	-0.06051	-0.0102925	-0.212532	0.0045295	0.174487	-0.303495	0.170949	-0.260145	-0.207807	0.214187	-0.50066	0.324095	-0.380283	0.276767	-0.213915	-0.159589	0.086871	0.618375	0.041798	0.239663	0.0269275	0.566571	0.293459	0.152986	0.059211	1.54017	-1.01623	-0.030187	-0.001626	
6.38428	0	5	0.408991	-0.525568	0.0724502	-0.06081	-0.00848475	-0.217641	0.0114432	0.164324	-0.302736	0.168806	-0.25147	-0.216862	0.215366	-0.503995	0.320618	-0.386947	0.279144	-0.220632	-0.162651	0.088872	0.621191	0.0338395	0.240766	0.0238088	0.561106	0.29703	0.152879	0.0682295	1.53603	-1.01352	-0.030187	-0.001626	
6.37817	0	5	0.412026	-0.534146	0.070396	-0.06111	-0.006677	-0.22275	0.018357	0.154161	-0.301978	0.166663	-0.242794	-0.225917	0.216546	-0.507329	0.317141	-0.393612	0.281521	-0.227349	-0.165713	0.090873	0.624007	0.025881	0.24187	0.02069	0.55564	0.300601	0.152771	0.077248	1.53188	-1.01081	-0.030187	-0.001626	
6.37665	0	5	0.416204	-0.53248	0.0760173	-0.064783	-0.00224125	-0.223685	0.0209425	0.156235	-0.298832	0.166254	-0.23322	-0.222009	0.215366	-0.503995	0.319291	-0.391443	0.289148	-0.229751	-0.162651	0.088872	0.62213	0.0311858	0.243813	0.0266163	0.564949	0.298049	0.16069	0.081033	1.53188	-1.01081	-0.0273065	-0.00186625	
6.37207	0	5	0.420381	-0.530814	0.0816385	-0.068456	0.0021945	-0.224619	0.023528	0.158308	-0.295686	0.165846	-0.223646	-0.218101	0.214187	-0.50066	0.32144	-0.389275	0.296775	-0.232152	-0.159589	0.086871	0.620253	0.0364905	0.245756	0.0325425	0.574259	0.295497	0.168609	0.084818	1.53188	-1.01081	-0.024426	-0.0021065	
6.36597	0	5	0.424559	-0.529149	0.0872597	-0.072129	0.00663025	-0.225554	0.0261135	0.160382	-0.292539	0.165438	-0.214073	-0.214192	0.213007	-0.497326	0.323589	-0.387107	0.304401	-0.234554	-0.156527	0.08487	0.618376	0.0417953	0.247698	0.0384687	0.583568	0.292946	0.176529	0.088603	1.53188	-1.01081	-0.0215455	-0.00234675	
6.36291	0	5	0.428736	-0.527483	0.092881	-0.075802	0.011066	-0.226489	0.028699	0.162456	-0.289393	0.165029	-0.204499	-0.210284	0.211827	-0.493992	0.325739	-0.384938	0.312028	-0.236956	-0.153465	0.082869	0.616499	0.0471	0.249641	0.044395	0.592877	0.290394	0.184448	0.092388	1.53188	-1.01081	-0.018665	-0.002587	
6.35986	0	5	0.427851	-0.511498	0.0977503	-0.0773413	0.00654325	-0.213707	0.029535	0.178869	-0.276911	0.155225	-0.1996	-0.193112	0.213959	-0.482555	0.337323	-0.376405	0.308461	-0.226875	-0.138138	0.072854	0.625841	0.0471177	0.257682	0.0559597	0.594283	0.29831	0.193095	0.102895	1.54018	-1.01623	-0.00699125	-0.011857	
6.35681	0	5	0.426965	-0.495513	0.10262	-0.0788805	0.0020205	-0.200925	0.030371	0.195282	-0.264428	0.145422	-0.194701	-0.175939	0.216092	-0.471117	0.348907	-0.367872	0.304894	-0.216793	-0.12281	0.062839	0.635182	0.0471355	0.265724	0.0675245	0.595689	0.306226	0.201742	0.113402	1.54847	-1.02166	0.0046825	-0.021127	
6.34918	0	5	0.426079	-0.479527	0.107489	-0.0804197	-0.00250225	-0.188144	0.031207	0.211696	-0.251945	0.135618	-0.189803	-0.158767	0.218224	-0.45968	0.360491	-0.359339	0.301326	-0.206711	-0.107483	0.052824	0.644524	0.0471533	0.273765	0.0790892	0.597095	0.314143	0.210389	0.123908	1.55677	-1.02708	0.0163563	-0.030397	
6.34765	5	0	0.425194	-0.463542	0.112358	-0.081959	-0.007025	-0.175362	0.032043	0.228109	-0.239463	0.125814	-0.184904	-0.141595	0.220357	-0.448243	0.372075	-0.350806	0.297759	-0.19663	-0.092156	0.042809	0.653866	0.047171	0.281806	0.090654	0.598501	0.322059	0.219036	0.134415	1.56507	-1.0325	0.02803	-0.039667	
6.34308	5	0	0.420119	-0.449201	0.118743	-0.0877732	-0.003493	-0.173735	0.0328917	0.235106	-0.231638	0.120701	-0.18158	-0.119922	0.221301	-0.433431	0.380377	-0.332905	0.299436	-0.182198	-0.0683313	0.0288832	0.652426	0.0644638	0.286526	0.111669	0.598275	0.334595	0.224378	0.15433	1.57753	-1.04064	0.042609	-0.049193	
6.33697	5	0	0.415045	-0.434859	0.125127	-0.0935875	3.9E-05	-0.172108	0.0337405	0.242102	-0.223813	0.115588	-0.178255	-0.0982485	0.222246	-0.41862	0.388678	-0.315004	0.301114	-0.167767	-0.0445065	0.0149575	0.650986	0.0817565	0.291246	0.132684	0.598049	0.347131	0.229719	0.174244	1.59	-1.04879	0.057188	-0.058719	
6.3324	5	0	0.40997	-0.420517	0.131512	-0.0994018	0.003571	-0.170482	0.0345893	0.249099	-0.215987	0.110474	-0.174931	-0.0765753	0.223191	-0.403808	0.396979	-0.297103	0.302791	-0.153336	-0.0206818	0.00103175	0.649547	0.0990493	0.295966	0.153698	0.597823	0.359667	0.235061	0.194159	1.60246	-1.05693	0.071767	-0.068245	
6.32629	5	0	0.404895	-0.406176	0.137896	-0.105216	0.007103	-0.168855	0.035438	0.256095	-0.208162	0.105361	-0.171606	-0.054902	0.224135	-0.388996	0.405281	-0.279202	0.304469	-0.138904	0.003143	-0.012894	0.648107	0.116342	0.300686	0.174713	0.597597	0.372203	0.240402	0.214074	1.61492	-1.06507	0.086346	-0.077771	
6.32324	5	0	0.408056	-0.401617	0.149164	-0.112579	0.010637	-0.167228	0.0414835	0.257814	-0.20033	0.100243	-0.160425	-0.0553792	0.229817	-0.387559	0.413087	-0.268108	0.307334	-0.127809	0.0216247	-0.0249702	0.647598	0.131015	0.307625	0.189519	0.601213	0.385801	0.241698	0.236712	1.61908	-1.06779	0.096541	-0.0827908	
6.31714	5	0	0.411217	-0.397058	0.160432	-0.119942	0.014171	-0.1656	0.047529	0.259532	-0.192497	0.0951255	-0.149245	-0.0558565	0.2355	-0.386121	0.420894	-0.257014	0.310199	-0.116715	0.0401065	-0.0370465	0.647088	0.145688	0.314565	0.204325	0.60483	0.399398	0.242994	0.25935	1.62324	-1.07051	0.106736	-0.0878105	
6.31561	5	0	0.414378	-0.3925	0.171701	-0.127305	0.017705	-0.163972	0.0535745	0.26125	-0.184665	0.0900077	-0.138065	-0.0563338	0.241182	-0.384683	0.4287	-0.245919	0.313064	-0.105621	0.0585882	-0.0491228	0.646578	0.160361	0.321504	0.219131	0.608446	0.412996	0.24429	0.281989	1.6274	-1.07323	0.116931	-0.0928303	
6.30798	5	0	0.417539	-0.387941	0.182969	-0.134668	0.021239	-0.162345	0.05962	0.262969	-0.176833	0.08489	-0.126884	-0.056811	0.246864	-0.383246	0.436507	-0.234825	0.315929	-0.094526	0.07707	-0.061199	0.646069	0.175034	0.328443	0.233937	0.612062	0.426594	0.245586	0.304627	1.63156	-1.07594	0.127126	-0.09785	
6.30798	5	0	0.421828	-0.373048	0.197075	-0.143885	0.0220543	-0.153026	0.0691155	0.273799	-0.168993	0.0797675	-0.120407	-0.0439428	0.250178	-0.375099	0.450314	-0.224001	0.318792	-0.0834058	0.0955918	-0.0733015	0.64555	0.189743	0.333444	0.242785	0.608792	0.435836	0.249499	0.311125	1.63572	-1.07866	0.130779	-0.100237	
6.3034	5	0	0.426116	-0.358155	0.211182	-0.153103	0.0228695	-0.143707	0.078611	0.284629	-0.161154	0.074645	-0.11393	-0.0310745	0.253493	-0.366951	0.464121	-0.213178	0.321655	-0.0722855	0.114114	-0.085404	0.645031	0.204452	0.338444	0.251633	0.605522	0.445079	0.253411	0.317623	1.63988	-1.08138	0.134433	-0.102624	
6.29883	5	0	0.430404	-0.343262	0.225289	-0.162321	0.0236848	-0.134387	0.0881065	0.295458	-0.153314	0.0695225	-0.107454	-0.0182063	0.256807	-0.358803	0.477929	-0.202354	0.324518	-0.0611652	0.132635	-0.0975065	0.644513	0.219161	0.343445	0.26048	0.602251	0.454321	0.257324	0.32412	1.64404	-1.0841	0.138086	-0.105011	
6.28815	5	0	0.434693	-0.328369	0.239395	-0.171538	0.0245	-0.125068	0.097602	0.306288	-0.145475	0.0644	-0.100977	-0.005338	0.260121	-0.350656	0.491736	-0.19153	0.327381	-0.050045	0.151157	-0.109609	0.643994	0.23387	0.348446	0.269328	0.598981	0.463564	0.261236	0.330618	1.6482	-1.08682	0.141739	-0.107398	
6.29272	5	0	0.444189	-0.314612	0.253525	-0.180771	0.024403	-0.113164	0.0992677	0.329879	-0.133703	0.0567075	-0.0904627	0.011804	0.269132	-0.341046	0.502241	-0.171239	0.330242	-0.0388985	0.172816	-0.123762	0.644413	0.245937	0.352331	0.281356	0.601193	0.469231	0.265985	0.334767	1.6516	-1.0874	0.14905	-0.112175	
6.28662	5	0	0.453684	-0.300855	0.267655	-0.190003	0.024306	-0.101259	0.100933	0.353471	-0.12193	0.049015	-0.0799485	0.028946	0.278142	-0.331435	0.512745	-0.150947	0.333102	-0.027752	0.194476	-0.137914	0.644832	0.258004	0.356217	0.293384	0.603406	0.474899	0.270735	0.338915	1.65501	-1.08799	0.156361	-0.116953	
6.28052	5	0	0.46318	-0.287097	0.281784	-0.199235	0.024209	-0.0893545	0.102599	0.377063	-0.110157	0.0413225	-0.0694343	0.046088	0.287153	-0.321825	0.52325	-0.130656	0.335963	-0.0166055	0.216135	-0.152067	0.645251	0.270072	0.360102	0.305412	0.605619	0.480566	0.275485	0.343064	1.65842	-1.08857	0.163673	-0.121731	
6.27746	0	5	0.472676	-0.27334	0.295914	-0.208468	0.024112	-0.07745	0.104265	0.400654	-0.098385	0.03363	-0.05892	0.06323	0.296164	-0.312214	0.533755	-0.110364	0.338824	-0.005459	0.237794	-0.16622	0.64567	0.282139	0.363988	0.31744	0.607831	0.486233	0.280234	0.347212	1.66183	-1.08916	0.170984	-0.126508	
6.27746	0	5	0.465512	-0.253092	0.306478	-0.213729	0.0258295	-0.070667	0.105949	0.414786	-0.0905275	0.028496	-0.0499778	0.0849328	0.297098	-0.297291	0.536083	-0.0919025	0.340481	0.00910975	0.250196	-0.174323	0.644184	0.299599	0.372057	0.329201	0.602914	0.500129	0.279267	0.358736	1.67016	-1.0946	0.174642	-0.128898	
6.27289	0	5	0.458348	-0.232845	0.317043	-0.21899	0.027547	-0.063884	0.107632	0.428918	-0.08267	0.023362	-0.0410355	0.106635	0.298032	-0.282368	0.538411	-0.073441	0.342137	0.0236785	0.262597	-0.182426	0.642699	0.317059	0.380127	0.340962	0.597997	0.514026	0.2783	0.37026	1.67849	-1.10004	0.1783	-0.131288	
6.26678	0	5	0.451183	-0.212597	0.327607	-0.22425	0.0292645	-0.057101	0.109316	0.443049	-0.0748125	0.018228	-0.0320933	0.128338	0.298967	-0.267445	0.540738	-0.0549795	0.343794	0.0382473	0.274998	-0.19053	0.641213	0.33452	0.388196	0.352722	0.59308	0.527922	0.277334	0.381784	1.68682	-1.10549	0.181958	-0.133678	
6.26831	0	5	0.444019	-0.19235	0.338172	-0.229511	0.030982	-0.050318	0.111	0.457181	-0.066955	0.013094	-0.023151	0.150041	0.299901	-0.252522	0.543066	-0.036518	0.345451	0.052816	0.2874	-0.198633	0.639728	0.35198	0.396266	0.364483	0.588163	0.541818	0.276367	0.393308	1.69515	-1.11093	0.185616	-0.136068	
6.26678	0	5	0.441969	-0.186556	0.343838	-0.233213	0.0291612	-0.0451723	0.109245	0.462141	-0.0590902	0.007955	-0.0206993	0.158797	0.297514	-0.245777	0.544891	-0.0249643	0.350713	0.0572172	0.293607	-0.202689	0.630774	0.364025	0.395964	0.376873	0.580215	0.552359	0.273857	0.4004	1.6959	-1.11307	0.192937	-0.140851	
6.26068	0	5	0.439919	-0.180763	0.349504	-0.236916	0.0273405	-0.0400265	0.10749	0.467101	-0.0512255	0.002816	-0.0182475	0.167554	0.295127	-0.239032	0.546717	-0.0134105	0.355974	0.0616185	0.299814	-0.206745	0.621819	0.37607	0.395661	0.389263	0.572268	0.5629	0.271348	0.407493	1.69666	-1.1152	0.200257	-0.145635	
6.25915	0	5	0.437869	-0.17497	0.35517	-0.240618	0.0255198	-0.0348808	0.105735	0.472061	-0.0433608	-0.002323	-0.0157958	0.17631	0.292741	-0.232286	0.548542	-0.00185675	0.361236	0.0660198	0.306022	-0.210802	0.612865	0.388114	0.395359	0.401654	0.564321	0.573441	0.268838	0.414585	1.69742	-1.11734	0.207577	-0.150419	
6.25458	0	5	0.435819	-0.169176	0.360836	-0.24432	0.023699	-0.029735	0.10398	0.477021	-0.035496	-0.007462	-0.013344	0.185066	0.290354	-0.225541	0.550367	0.009697	0.366498	0.070421	0.312229	-0.214858	0.603911	0.400159	0.395057	0.414044	0.556373	0.583982	0.266329	0.421678	1.69817	-1.11947	0.214898	-0.155202	
6.2561	0	5	0.438978	-0.164554	0.372935	-0.253868	0.0272368	-0.0280883	0.108291	0.483746	-0.031561	-0.0100333	-0.0149348	0.189562	0.298445	-0.230828	0.551698	0.0142975	0.365294	0.0738225	0.312985	-0.216994	0.592667	0.40544	0.391993	0.411166	0.546231	0.588826	0.261583	0.417509	1.694	-1.11675	0.207577	-0.150419	
6.25305	0	5	0.442138	-0.159932	0.385034	-0.263416	0.0307745	-0.0264415	0.112602	0.490472	-0.027626	-0.0126045	-0.0165255	0.194057	0.306536	-0.236115	0.553029	0.018898	0.364091	0.077224	0.31374	-0.219129	0.581423	0.410722	0.388929	0.408288	0.536089	0.59367	0.256838	0.413341	1.68984	-1.11403	0.200257	-0.145635	
6.24847	0	5	0.445298	-0.155311	0.397132	-0.272964	0.0343123	-0.0247947	0.116913	0.497198	-0.023691	-0.0151757	-0.0181163	0.198553	0.314627	-0.241402	0.55436	0.0234985	0.362888	0.0806255	0.314496	-0.221264	0.57018	0.416004	0.385866	0.405411	0.525948	0.598513	0.252092	0.409172	1.68567	-1.1113	0.192937	-0.140851	
6.25	0	5	0.448457	-0.150689	0.409231	-0.282512	0.03785	-0.023148	0.121224	0.503923	-0.019756	-0.017747	-0.019707	0.203049	0.322718	-0.246689	0.555691	0.028099	0.361684	0.084027	0.315252	-0.2234	0.558936	0.421285	0.382802	0.402533	0.515806	0.603357	0.247347	0.405004	1.68151	-1.10858	0.185616	-0.136068	
6.25152	0	5	0.45478	-0.141428	0.414908	-0.286222	0.040478	-0.0189235	0.122015	0.520616	-0.0158192	-0.0203195	-0.018853	0.216333	0.320329	-0.239939	0.559192	0.0349373	0.361684	0.084027	0.314496	-0.221264	0.547709	0.426556	0.381679	0.405706	0.507319	0.603556	0.242606	0.40084	1.67734	-1.10586	0.185616	-0.136068	
6.2439	0	5	0.461103	-0.132168	0.420585	-0.289931	0.043106	-0.014699	0.122806	0.537309	-0.0118825	-0.022892	-0.017999	0.229618	0.317941	-0.233188	0.562694	0.0417755	0.361684	0.084027	0.31374	-0.219129	0.536483	0.431827	0.380556	0.408879	0.498831	0.603756	0.237865	0.396677	1.67318	-1.10314	0.185616	-0.136068	
6.24542	0	5	0.467427	-0.122908	0.426262	-0.29364	0.045734	-0.0104745	0.123597	0.554002	-0.00794575	-0.0254645	-0.017145	0.242902	0.315553	-0.226438	0.566196	0.0486137	0.361684	0.084027	0.312985	-0.216994	0.525257	0.437098	0.379434	0.412052	0.490343	0.603955	0.233123	0.392513	1.66901	-1.10042	0.185616	-0.136068	
6.2439	5	0	0.47375	-0.113647	0.431939	-0.29735	0.048362	-0.00625	0.124388	0.570695	-0.004009	-0.028037	-0.016291	0.256186	0.313164	-0.219688	0.569697	0.055452	0.361684	0.084027	0.312229	-0.214858	0.51403	0.442369	0.378311	0.415225	0.481856	0.604154	0.228382	0.38835	1.66485	-1.0977	0.185616	-0.136068	
6.24237	5	0	0.473824	-0.100277	0.434779	-0.299206	0.0456248	0.0014855	0.126051	0.584942	0.00387025	-0.0331852	-0.013003	0.278329	0.310774	-0.212932	0.5732	0.0623015	0.36048	0.0874298	0.312229	-0.214858	0.502821	0.44763	0.374941	0.424751	0.471742	0.608982	0.220306	0.393627	1.66485	-1.0977	0.181958	-0.133678	
6.24084	5	0	0.473899	-0.0869075	0.437619	-0.301061	0.0428875	0.009221	0.127715	0.59919	0.0117495	-0.0383335	-0.009715	0.300472	0.308384	-0.206177	0.576703	0.069151	0.359276	0.0908325	0.312229	-0.214858	0.491611	0.45289	0.37157	0.434277	0.461627	0.61381	0.21223	0.398904	1.66485	-1.0977	0.1783	-0.131288	
6.23321	5	0	0.473974	-0.0735377	0.440459	-0.302917	0.0401502	0.0169565	0.129378	0.613437	0.0196288	-0.0434817	-0.006427	0.322614	0.305993	-0.199422	0.580206	0.0760005	0.358072	0.0942353	0.312229	-0.214858	0.480401	0.458151	0.3682	0.443803	0.451513	0.618637	0.204155	0.404181	1.66485	-1.0977	0.174642	-0.128898	
6.23627	5	0	0.474048	-0.060168	0.443299	-0.304773	0.037413	0.024692	0.131041	0.627684	0.027508	-0.04863	-0.003139	0.344757	0.303603	-0.192666	0.583709	0.08285	0.356868	0.097638	0.312229	-0.214858	0.469192	0.463412	0.364829	0.453329	0.441399	0.623465	0.196079	0.409458	1.66485	-1.0977	0.170984	-0.126508	
6.23627	5	0	0.475078	-0.0630793	0.443299	-0.304773	0.043692	0.0186065	0.129274	0.632678	0.0235675	-0.0460552	-0.0079425	0.358333	0.304798	-0.196044	0.580696	0.0829908	0.349202	0.100031	0.306022	-0.210802	0.451935	0.472625	0.361455	0.462865	0.435117	0.629351	0.195938	0.418628	1.66069	-1.09498	0.178302	-0.131289	
6.23474	5	0	0.476109	-0.0659905	0.443299	-0.304773	0.049971	0.012521	0.127507	0.637671	0.019627	-0.0434805	-0.012746	0.371908	0.305994	-0.199423	0.577682	0.0831315	0.341537	0.102424	0.299814	-0.206745	0.434677	0.481838	0.358081	0.472401	0.428835	0.635237	0.195796	0.427799	1.65652	-1.09226	0.185619	-0.136071	
6.23321	5	0	0.477139	-0.0689017	0.443299	-0.304773	0.05625	0.0064355	0.125741	0.642664	0.0156865	-0.0409057	-0.0175495	0.385484	0.307189	-0.202801	0.574669	0.0832722	0.333871	0.104816	0.293607	-0.202689	0.417419	0.491051	0.354706	0.481937	0.422554	0.641123	0.195655	0.43697	1.65236	-1.08954	0.192936	-0.140852	
6.23627	5	0	0.478169	-0.071813	0.443299	-0.304773	0.062529	0.00035	0.123974	0.647658	0.011746	-0.038331	-0.022353	0.39906	0.308384	-0.206179	0.571655	0.083413	0.326205	0.107209	0.2874	-0.198633	0.400162	0.500264	0.351332	0.491473	0.416272	0.647009	0.195514	0.44614	1.6482	-1.08682	0.200254	-0.145633	
6.23474	5	0	0.477139	-0.0689017	0.44614	-0.306629	0.0616162	0.00292925	0.123031	0.659803	0.0156865	-0.0409057	-0.0183162	0.403389	0.309579	-0.209556	0.574669	0.0832722	0.328612	0.100407	0.281197	-0.19458	0.390893	0.500134	0.347151	0.49176	0.406178	0.651823	0.191477	0.448778	1.63988	-1.08138	0.196595	-0.143242	
6.23321	5	0	0.476109	-0.0659905	0.448981	-0.308485	0.0607035	0.0055085	0.122089	0.671949	0.019627	-0.0434805	-0.0142795	0.407718	0.310774	-0.212933	0.577682	0.0831315	0.331018	0.0936055	0.274994	-0.190527	0.381624	0.500004	0.342969	0.492048	0.396085	0.656637	0.18744	0.451415	1.63156	-1.07595	0.192935	-0.14085	
