5.59387	0	0	0.137387	-0.073657	-0.064476	0.035561	0.190682	-0.237224	0.125435	-0.076454	1.16969	-0.764299	0.416527	0.223829	0.553089	0.244883	0.429949	0.081584	0.175985	0.007933	0.272888	-0.176997	0.255996	-0.114126	0.135994	-0.065915	0.118778	-0.313233	0.175445	-0.124934	-0.312033	0.198966	0.097024	-0.068324	
5.59234	0	0	0.137387	-0.073657	-0.0596108	0.034024	0.189805	-0.234745	0.131316	-0.083968	1.17742	-0.76935	0.411835	0.237089	0.556028	0.25281	0.433307	0.0884108	0.177387	0.0215835	0.278979	-0.180977	0.26639	-0.1049	0.138644	-0.0512293	0.123175	-0.31443	0.183946	-0.114499	-0.315943	0.201521	0.107896	-0.075428	
5.59387	0	0	0.137387	-0.073657	-0.0547455	0.032487	0.188928	-0.232267	0.137196	-0.091482	1.18515	-0.774401	0.407143	0.250349	0.558966	0.260737	0.436665	0.0952375	0.178789	0.035234	0.285069	-0.184956	0.276785	-0.0956735	0.141293	-0.0365435	0.127572	-0.315628	0.192446	-0.104064	-0.319853	0.204076	0.118767	-0.082532	
5.59692	0	0	0.137387	-0.073657	-0.0498803	0.03095	0.188051	-0.229789	0.143077	-0.098996	1.19288	-0.779452	0.402452	0.263609	0.561905	0.268664	0.440022	0.102064	0.180191	0.0488845	0.29116	-0.188936	0.28718	-0.0864473	0.143943	-0.0218577	0.13197	-0.316825	0.200947	-0.093629	-0.323763	0.20663	0.129639	-0.089636	
5.59997	0	0	0.137387	-0.073657	-0.045015	0.029413	0.187174	-0.22731	0.148958	-0.10651	1.20061	-0.784503	0.39776	0.276869	0.564843	0.276591	0.44338	0.108891	0.181593	0.062535	0.29725	-0.192916	0.297574	-0.077221	0.146592	-0.007172	0.136367	-0.318022	0.209448	-0.083194	-0.327673	0.209185	0.140511	-0.09674	
5.60303	0	0	0.141481	-0.071974	-0.0422027	0.0275758	0.189774	-0.22329	0.145577	-0.0969562	1.21222	-0.792088	0.408821	0.276446	0.568917	0.281323	0.447571	0.113378	0.194471	0.0614152	0.306394	-0.198891	0.305746	-0.074538	0.150618	-0.00745425	0.133512	-0.321183	0.214932	-0.0814393	-0.330826	0.209604	0.144138	-0.09911	
5.61218	0	0	0.145574	-0.070291	-0.0393905	0.0257385	0.192374	-0.21927	0.142197	-0.0874025	1.22382	-0.799673	0.419882	0.276023	0.57299	0.286056	0.451762	0.117865	0.20735	0.0602955	0.315538	-0.204866	0.313918	-0.071855	0.154645	-0.0077365	0.130657	-0.324345	0.220417	-0.0796845	-0.333979	0.210024	0.147765	-0.10148	
5.61523	0	0	0.149668	-0.068608	-0.0365782	0.0239012	0.194973	-0.215249	0.138817	-0.0778487	1.23543	-0.807257	0.430943	0.2756	0.577064	0.290789	0.455953	0.122351	0.220228	0.0591757	0.324682	-0.21084	0.322091	-0.069172	0.158671	-0.00801875	0.127801	-0.327506	0.225901	-0.0779298	-0.337132	0.210444	0.151392	-0.10385	
5.61981	0	0	0.153761	-0.066925	-0.033766	0.022064	0.197573	-0.211229	0.135436	-0.068295	1.24704	-0.814842	0.442004	0.275177	0.581138	0.295521	0.460144	0.126838	0.233106	0.058056	0.333826	-0.216815	0.330263	-0.066489	0.162697	-0.008301	0.124946	-0.330667	0.231385	-0.076175	-0.340285	0.210863	0.155019	-0.10622	
5.63049	0	0	0.152835	-0.0510455	-0.0245685	0.0144118	0.198416	-0.202238	0.141249	-0.0573795	1.25403	-0.817762	0.455494	0.283403	0.581804	0.309899	0.468535	0.135828	0.235631	0.0685812	0.34298	-0.222796	0.330654	-0.0546925	0.167511	0.000308	0.120551	-0.32947	0.235235	-0.069784	-0.348096	0.215967	0.162278	-0.110963	
5.63812	0	0	0.151908	-0.035166	-0.015371	0.0067595	0.199259	-0.193246	0.147062	-0.046464	1.26102	-0.820681	0.468985	0.291629	0.58247	0.324276	0.476927	0.144819	0.238157	0.0791065	0.352133	-0.228778	0.331046	-0.042896	0.172324	0.008917	0.116156	-0.328273	0.239084	-0.063393	-0.355907	0.221071	0.169536	-0.115706	
5.6427	0	0	0.150981	-0.0192865	-0.0061735	-0.00089275	0.200102	-0.184254	0.152875	-0.0355485	1.26801	-0.8236	0.482475	0.299855	0.583136	0.338654	0.485318	0.153809	0.240683	0.0896317	0.361287	-0.234759	0.331437	-0.0310995	0.177138	0.017526	0.111762	-0.327076	0.242933	-0.057002	-0.363717	0.226174	0.176795	-0.120449	
5.6488	0	0	0.150055	-0.003407	0.003024	-0.008545	0.200945	-0.175263	0.158688	-0.024633	1.275	-0.82652	0.495965	0.308081	0.583802	0.353032	0.493709	0.162799	0.243208	0.100157	0.370441	-0.24074	0.331829	-0.019303	0.181951	0.026135	0.107367	-0.325879	0.246783	-0.050611	-0.371528	0.231278	0.184054	-0.125192	
5.66101	0	0	0.14905	-0.000565	0.0058395	-0.0103848	0.200066	-0.172779	0.156185	-0.026679	1.27811	-0.826909	0.493556	0.299426	0.582664	0.356247	0.493709	0.162799	0.240964	0.1065	0.373495	-0.242735	0.334068	-0.0127198	0.184901	0.028915	0.104516	-0.329038	0.252277	-0.0488517	-0.387128	0.241472	0.184054	-0.125192	
5.67016	0	0	0.148044	0.002277	0.008655	-0.0122245	0.199187	-0.170294	0.153682	-0.028725	1.28123	-0.827298	0.491147	0.29077	0.581527	0.359463	0.493709	0.162799	0.23872	0.112842	0.376548	-0.244731	0.336308	-0.0061365	0.187851	0.031695	0.101665	-0.332197	0.257771	-0.0470925	-0.402729	0.251665	0.184054	-0.125192	
5.67322	0	0	0.147038	0.005119	0.0114705	-0.0140643	0.198308	-0.16781	0.15118	-0.030771	1.28435	-0.827688	0.488738	0.282114	0.580389	0.362679	0.493709	0.162799	0.236475	0.119185	0.379602	-0.246726	0.338548	0.00044675	0.1908	0.034475	0.0988133	-0.335356	0.263264	-0.0453333	-0.41833	0.261859	0.184054	-0.125192	
5.67779	0	0	0.146033	0.007961	0.014286	-0.015904	0.197429	-0.165325	0.148677	-0.032817	1.28747	-0.828077	0.486329	0.273459	0.579251	0.365894	0.493709	0.162799	0.234231	0.125528	0.382655	-0.248721	0.340787	0.00703	0.19375	0.037255	0.095962	-0.338515	0.268758	-0.043574	-0.43393	0.272053	0.184054	-0.125192	
5.68695	0	0	0.148116	0.0153465	0.0163468	-0.0156083	0.19391	-0.15538	0.150332	-0.0283757	1.29135	-0.830611	0.486329	0.273459	0.585603	0.364216	0.494542	0.160444	0.233108	0.128701	0.382655	-0.248721	0.33986	0.00964875	0.191883	0.031415	0.0931123	-0.341671	0.266421	-0.0456133	-0.437826	0.274598	0.18481	-0.127327	
5.69153	0	0	0.150198	0.022732	0.0184075	-0.0153125	0.190391	-0.145435	0.151987	-0.0239345	1.29522	-0.833145	0.486329	0.273459	0.591955	0.362538	0.495376	0.158088	0.231986	0.131874	0.382655	-0.248721	0.338933	0.0122675	0.190016	0.025575	0.0902625	-0.344827	0.264084	-0.0476525	-0.441721	0.277144	0.185565	-0.129463	
5.6961	0	0	0.15228	0.0301175	0.0204683	-0.0150168	0.186872	-0.13549	0.153643	-0.0194933	1.2991	-0.835679	0.486329	0.273459	0.598307	0.360861	0.49621	0.155733	0.230863	0.135047	0.382655	-0.248721	0.338007	0.0148863	0.188149	0.019735	0.0874127	-0.347983	0.261746	-0.0496917	-0.445617	0.27969	0.186321	-0.131599	
5.70068	0	0	0.154363	0.037503	0.022529	-0.014721	0.183353	-0.125545	0.155298	-0.015052	1.30298	-0.838213	0.486329	0.273459	0.604659	0.359183	0.497043	0.153378	0.22974	0.13822	0.382655	-0.248721	0.33708	0.017505	0.186282	0.013895	0.084563	-0.351139	0.259409	-0.051731	-0.449513	0.282235	0.187077	-0.133734	
5.70679	0	0	0.155436	0.0477503	0.022529	-0.014721	0.188591	-0.128968	0.15445	-0.0126562	1.3115	-0.845428	0.488738	0.282114	0.608739	0.363941	0.494943	0.151129	0.227493	0.14457	0.379602	-0.246726	0.33021	0.0240075	0.186282	0.013895	0.078637	-0.345594	0.259409	-0.051731	-0.457299	0.287323	0.187077	-0.133734	
5.71136	0	0	0.156509	0.0579975	0.022529	-0.014721	0.193829	-0.13239	0.153602	-0.0102605	1.32002	-0.852643	0.491147	0.29077	0.612819	0.368699	0.492844	0.148881	0.225247	0.150919	0.376548	-0.244731	0.323341	0.03051	0.186282	0.013895	0.072711	-0.34005	0.259409	-0.051731	-0.465085	0.29241	0.187077	-0.133734	
5.71442	0	0	0.157583	0.0682448	0.022529	-0.014721	0.199068	-0.135813	0.152755	-0.00786475	1.32854	-0.859858	0.493556	0.299426	0.616899	0.373457	0.490745	0.146632	0.223	0.157269	0.373495	-0.242735	0.316472	0.0370125	0.186282	0.013895	0.066785	-0.334506	0.259409	-0.051731	-0.472871	0.297497	0.187077	-0.133734	
5.72052	0	0	0.158656	0.078492	0.022529	-0.014721	0.204306	-0.139236	0.151907	-0.005469	1.33706	-0.867073	0.495965	0.308081	0.620979	0.378215	0.488645	0.144384	0.220753	0.163618	0.370441	-0.24074	0.309602	0.043515	0.186282	0.013895	0.060859	-0.328961	0.259409	-0.051731	-0.480657	0.302585	0.187077	-0.133734	
5.72052	0	0	0.157647	0.0813428	0.022529	-0.014721	0.209547	-0.142661	0.151099	-0.012306	1.33706	-0.867073	0.495124	0.294994	0.616899	0.373457	0.486944	0.13284	0.223	0.157269	0.362043	-0.236895	0.312382	0.0356592	0.187658	-0.00110175	0.062398	-0.333311	0.254738	-0.0558063	-0.488436	0.307668	0.183447	-0.131362	
5.72662	0	0	0.156639	0.0841935	0.022529	-0.014721	0.214789	-0.146086	0.150292	-0.019143	1.33706	-0.867073	0.494283	0.281908	0.612819	0.368699	0.485243	0.121296	0.225247	0.150919	0.353645	-0.233049	0.315161	0.0278035	0.189033	-0.0160985	0.063937	-0.337661	0.250066	-0.0598815	-0.496215	0.312751	0.179816	-0.128991	
5.72662	0	0	0.15563	0.0870443	0.022529	-0.014721	0.22003	-0.149511	0.149484	-0.02598	1.33706	-0.867073	0.493442	0.268821	0.608739	0.363941	0.483541	0.109752	0.227493	0.14457	0.345247	-0.229204	0.317941	0.0199478	0.190409	-0.0310952	0.065476	-0.342011	0.245394	-0.0639567	-0.503994	0.317834	0.176186	-0.126619	
5.72967	0	0	0.154621	0.089895	0.022529	-0.014721	0.225272	-0.152936	0.148677	-0.032817	1.33706	-0.867073	0.492601	0.255735	0.604659	0.359183	0.48184	0.098208	0.22974	0.13822	0.336849	-0.225358	0.320721	0.012092	0.191784	-0.046092	0.067015	-0.346361	0.240723	-0.068032	-0.511773	0.322917	0.172556	-0.124247	
5.72967	0	0	0.158719	0.091603	0.0197125	-0.0128805	0.225272	-0.152936	0.153721	-0.0379528	1.33706	-0.867073	0.495734	0.24688	0.606935	0.352751	0.480134	0.0866898	0.233107	0.128704	0.326949	-0.217248	0.31255	0.00938675	0.188042	-0.057716	0.064938	-0.351687	0.243301	-0.0839495	-0.511018	0.320783	0.168927	-0.121876	
5.72967	0	0	0.162817	0.093311	0.016896	-0.01104	0.225272	-0.152936	0.158765	-0.0430885	1.33706	-0.867073	0.498868	0.238024	0.60921	0.346319	0.478429	0.0751715	0.236474	0.119189	0.317049	-0.209137	0.304379	0.0066815	0.1843	-0.06934	0.062861	-0.357014	0.245878	-0.099867	-0.510263	0.31865	0.165299	-0.119505	
5.73273	0	0	0.166915	0.095019	0.0140795	-0.0091995	0.225272	-0.152936	0.163809	-0.0482242	1.33706	-0.867073	0.502001	0.229169	0.611486	0.339887	0.476723	0.0636532	0.239841	0.109673	0.30715	-0.201026	0.296208	0.00397625	0.180557	-0.080964	0.060784	-0.362341	0.248455	-0.115785	-0.509508	0.316516	0.16167	-0.117134	
5.73578	0	0	0.171013	0.096727	0.011263	-0.007359	0.225272	-0.152936	0.168853	-0.05336	1.33706	-0.867073	0.505134	0.220314	0.613762	0.333455	0.475017	0.052135	0.243208	0.100157	0.29725	-0.192916	0.288037	0.001271	0.176815	-0.092588	0.058707	-0.367667	0.251033	-0.131702	-0.508753	0.314382	0.158042	-0.114763	
5.74036	0	0	0.170003	0.0995807	0.0056325	-0.00368	0.226152	-0.155423	0.164656	-0.0506175	1.34094	-0.86961	0.510685	0.22009	0.613762	0.333455	0.466239	0.0524645	0.24433	0.0969872	0.288116	-0.186947	0.27803	0.00379125	0.169843	-0.0950557	0.0682477	-0.372231	0.254303	-0.140945	-0.51264	0.316922	0.16167	-0.117134	
5.73425	0	0	0.168994	0.102434	2E-06	-1E-06	0.227032	-0.157911	0.160459	-0.047875	1.34483	-0.872148	0.516235	0.219866	0.613762	0.333455	0.45746	0.052794	0.245451	0.0938175	0.278982	-0.180979	0.268022	0.0063115	0.16287	-0.0975235	0.0777885	-0.376795	0.257574	-0.150187	-0.516527	0.319462	0.165299	-0.119505	
5.7251	0	0	0.167984	0.105288	-0.0056285	0.003678	0.227913	-0.160398	0.156262	-0.0451325	1.34871	-0.874686	0.521786	0.219642	0.613762	0.333455	0.448682	0.0531235	0.246573	0.0906477	0.269848	-0.175011	0.258015	0.00883175	0.155897	-0.0999913	0.0873292	-0.381358	0.260844	-0.15943	-0.520414	0.322001	0.168927	-0.121876	
5.73273	0	0	0.166974	0.108142	-0.011259	0.007357	0.228793	-0.162885	0.152065	-0.04239	1.35259	-0.877223	0.527337	0.219418	0.613762	0.333455	0.439903	0.053453	0.247695	0.087478	0.260714	-0.169042	0.248008	0.011352	0.148925	-0.102459	0.09687	-0.385922	0.264114	-0.168672	-0.524301	0.324541	0.172556	-0.124247	
5.7373	0	0	0.163886	0.10358	-0.019698	0.012871	0.232311	-0.172827	0.152946	-0.0539952	1.35648	-0.879761	0.516241	0.219864	0.616036	0.327028	0.437371	0.0443065	0.245167	0.0769585	0.25159	-0.16308	0.242633	0.00081775	0.142244	-0.116789	0.0976387	-0.388095	0.257104	-0.174736	-0.524301	0.324541	0.158051	-0.114769	
5.73578	0	0	0.160798	0.0990185	-0.028137	0.018385	0.235828	-0.18277	0.153828	-0.0656005	1.36036	-0.8823	0.505144	0.220311	0.61831	0.320601	0.434839	0.03516	0.24264	0.066439	0.242465	-0.157118	0.237258	-0.0097165	0.135564	-0.131118	0.0984075	-0.390267	0.250094	-0.1808	-0.524301	0.324541	0.143546	-0.105291	
5.73883	0	0	0.157709	0.0944568	-0.036576	0.023899	0.239346	-0.192712	0.154709	-0.0772058	1.36425	-0.884838	0.494048	0.220757	0.620585	0.314174	0.432306	0.0260135	0.240112	0.0559195	0.233341	-0.151156	0.231882	-0.0202507	0.128883	-0.145448	0.0991763	-0.39244	0.243085	-0.186865	-0.524301	0.324541	0.129041	-0.095813	
5.72815	0	0	0.154621	0.089895	-0.045015	0.029413	0.242864	-0.202654	0.15559	-0.088811	1.36813	-0.887377	0.482952	0.221203	0.622859	0.307747	0.429774	0.016867	0.237584	0.0454	0.224216	-0.145194	0.226507	-0.030785	0.122202	-0.159778	0.099945	-0.394613	0.236075	-0.192929	-0.524301	0.324541	0.114536	-0.086335	
5.72204	0	0	0.15563	0.0870443	-0.0506363	0.0330862	0.23938	-0.204196	0.156435	-0.0912	1.37591	-0.892458	0.490063	0.216556	0.623996	0.304535	0.432257	0.00985075	0.2317	0.044382	0.218894	-0.143358	0.225202	-0.0399485	0.123551	-0.174648	0.105105	-0.397984	0.237001	-0.204162	-0.524301	0.324541	0.114536	-0.086335	
5.71899	0	0	0.156639	0.0841935	-0.0562575	0.0367595	0.235896	-0.205738	0.15728	-0.093589	1.38368	-0.897539	0.497174	0.21191	0.625132	0.301323	0.43474	0.0028345	0.225816	0.043364	0.213572	-0.141523	0.223898	-0.049112	0.1249	-0.189517	0.110264	-0.401355	0.237926	-0.215395	-0.524301	0.324541	0.114536	-0.086335	
5.71747	0	0	0.157647	0.0813428	-0.0618788	0.0404328	0.232412	-0.20728	0.158126	-0.095978	1.39146	-0.902619	0.504285	0.207263	0.626269	0.298111	0.437222	-0.00418175	0.219933	0.042346	0.20825	-0.139687	0.222593	-0.0582755	0.126249	-0.204386	0.115423	-0.404727	0.238852	-0.226628	-0.524301	0.324541	0.114536	-0.086335	
5.71747	0	0	0.158656	0.078492	-0.0675	0.044106	0.228928	-0.208822	0.158971	-0.098367	1.39924	-0.9077	0.511396	0.202616	0.627405	0.294899	0.439705	-0.011198	0.214049	0.041328	0.202928	-0.137852	0.221289	-0.067439	0.127598	-0.219256	0.120583	-0.408098	0.239778	-0.237861	-0.524301	0.324541	0.114536	-0.086335	
5.71442	0	0	0.15456	0.0767865	-0.075925	0.049611	0.226324	-0.212844	0.156468	-0.100403	1.40313	-0.910242	0.512246	0.215676	0.626269	0.298111	0.439754	0.00496475	0.216285	0.0350077	0.196855	-0.133883	0.220368	-0.0648347	0.126526	-0.216226	0.122669	-0.402778	0.246897	-0.240742	-0.509498	0.316509	0.114536	-0.086335	
5.71442	0	0	0.150465	0.075081	-0.08435	0.055116	0.22372	-0.216867	0.153965	-0.102438	1.40702	-0.912784	0.513096	0.228737	0.625132	0.301323	0.439804	0.0211275	0.218522	0.0286875	0.190781	-0.129915	0.219446	-0.0622305	0.125453	-0.213197	0.124756	-0.397457	0.254016	-0.243624	-0.494695	0.308477	0.114536	-0.086335	
5.71136	0	0	0.146369	0.0733755	-0.092775	0.060621	0.221117	-0.22089	0.151461	-0.104474	1.41091	-0.915326	0.513947	0.241797	0.623996	0.304535	0.439854	0.0372902	0.220758	0.0223672	0.184708	-0.125947	0.218525	-0.0596263	0.124381	-0.210167	0.126842	-0.392136	0.261135	-0.246505	-0.479891	0.300444	0.114536	-0.086335	
5.70831	0	0	0.142273	0.07167	-0.1012	0.066126	0.218513	-0.224912	0.148958	-0.10651	1.4148	-0.917868	0.514797	0.254857	0.622859	0.307747	0.439903	0.053453	0.222995	0.016047	0.178635	-0.121978	0.217604	-0.057022	0.123309	-0.207137	0.128929	-0.386816	0.268254	-0.249387	-0.465088	0.292412	0.114536	-0.086335	
5.70679	0	0	0.141201	0.0614292	-0.104007	0.0679597	0.217664	-0.233886	0.152335	-0.116054	1.40702	-0.912785	0.523488	0.245772	0.627403	0.294906	0.45288	0.0575958	0.219349	0.0087215	0.1756	-0.119995	0.230357	-0.0673575	0.127326	-0.207431	0.138274	-0.379536	0.270593	-0.247374	-0.437794	0.274577	0.110914	-0.083968	
5.70373	0	0	0.140129	0.0511885	-0.106813	0.0697935	0.216815	-0.242861	0.155712	-0.125598	1.39924	-0.907702	0.532179	0.236686	0.631946	0.282066	0.465858	0.0617385	0.215703	0.001396	0.172565	-0.118011	0.243111	-0.077693	0.131343	-0.207726	0.147619	-0.372255	0.272933	-0.245361	-0.410499	0.256742	0.107291	-0.081601	
5.69916	0	0	0.139057	0.0409477	-0.109619	0.0716273	0.215965	-0.251835	0.159089	-0.135142	1.39146	-0.902619	0.54087	0.227601	0.636489	0.269226	0.478835	0.0658813	0.212057	-0.0059295	0.16953	-0.116028	0.255864	-0.0880285	0.135359	-0.20802	0.156964	-0.364974	0.275273	-0.243348	-0.383205	0.238908	0.103669	-0.079234	
5.69763	0	0	0.137985	0.030707	-0.112426	0.073461	0.215116	-0.260809	0.162466	-0.144686	1.38368	-0.897536	0.549561	0.218516	0.641033	0.256385	0.491812	0.070024	0.208411	-0.013255	0.166495	-0.114045	0.268618	-0.098364	0.139376	-0.208314	0.166309	-0.357694	0.277612	-0.241335	-0.35591	0.221073	0.100047	-0.076867	
5.69153	0	0	0.134899	0.0261668	-0.12084	0.078959	0.222104	-0.269183	0.166659	-0.147426	1.37979	-0.894996	0.562257	0.213627	0.635812	0.254866	0.503988	0.0765225	0.211758	-0.0227135	0.16953	-0.116028	0.268618	-0.098364	0.141248	-0.202543	0.178537	-0.347234	0.279242	-0.245942	-0.312842	0.192932	0.0855725	-0.0674093	
5.69	0	0	0.131813	0.0216265	-0.129254	0.084457	0.229092	-0.277556	0.170852	-0.150166	1.37591	-0.892456	0.574952	0.208737	0.630591	0.253346	0.516163	0.083021	0.215105	-0.032172	0.172565	-0.118011	0.268618	-0.098364	0.143121	-0.196771	0.190764	-0.336774	0.280873	-0.250549	-0.269774	0.16479	0.071098	-0.0579515	
5.68237	0	0	0.128727	0.0170862	-0.137668	0.089955	0.236079	-0.28593	0.175045	-0.152905	1.37202	-0.889917	0.587648	0.203848	0.625371	0.251827	0.528339	0.0895195	0.218451	-0.0416305	0.1756	-0.119995	0.268618	-0.098364	0.144993	-0.190999	0.202991	-0.326314	0.282503	-0.255156	-0.226706	0.136649	0.0566235	-0.0484938	
5.67932	0	0	0.125641	0.012546	-0.146082	0.095453	0.243067	-0.294304	0.179238	-0.155645	1.36813	-0.887377	0.600344	0.198959	0.62015	0.250308	0.540514	0.096018	0.221798	-0.051089	0.178635	-0.121978	0.268618	-0.098364	0.146866	-0.185228	0.215219	-0.315854	0.284133	-0.259763	-0.183638	0.108507	0.042149	-0.039036	
5.67322	0	0	0.13275	0.00571675	-0.153732	0.0988093	0.243067	-0.294304	0.182563	-0.146809	1.37202	-0.889917	0.602777	0.207599	0.62764	0.245414	0.547666	0.100394	0.214807	-0.048943	0.184708	-0.125947	0.271775	-0.0944192	0.154635	-0.173955	0.231123	-0.304378	0.291976	-0.25603	-0.141108	0.0823575	0.0413932	-0.0369003	
5.67474	0	0	0.139858	-0.0011125	-0.161382	0.102165	0.243067	-0.294304	0.185889	-0.137973	1.37591	-0.892456	0.605209	0.21624	0.63513	0.240519	0.554817	0.104771	0.207815	-0.046797	0.190781	-0.129915	0.274933	-0.0904745	0.162405	-0.162681	0.247028	-0.292902	0.299819	-0.252297	-0.098578	0.056208	0.0406375	-0.0347645	
5.67016	0	0	0.146967	-0.00794175	-0.169031	0.105522	0.243067	-0.294304	0.189214	-0.129137	1.37979	-0.894996	0.607641	0.22488	0.64262	0.235625	0.561969	0.109148	0.200823	-0.044651	0.196855	-0.133883	0.27809	-0.0865298	0.170174	-0.151408	0.262933	-0.281426	0.307662	-0.248563	-0.056048	0.0300585	0.0398818	-0.0326287	
5.66864	0	0	0.154076	-0.014771	-0.176681	0.108878	0.243067	-0.294304	0.192539	-0.120301	1.38368	-0.897536	0.610074	0.23352	0.65011	0.230731	0.569121	0.113524	0.193832	-0.042505	0.202928	-0.137852	0.281247	-0.082585	0.177943	-0.140134	0.278837	-0.26995	0.315505	-0.24483	-0.013518	0.003909	0.039126	-0.030493	
5.66101	0	0	0.15709	-0.0232885	-0.179481	0.110708	0.248305	-0.297727	0.197583	-0.125433	1.38055	-0.897139	0.597369	0.23841	0.651244	0.227526	0.571229	0.115769	0.194946	-0.0456545	0.202928	-0.137852	0.283483	-0.0760278	0.185721	-0.128828	0.294788	-0.258435	0.32009	-0.231853	0.0220607	-0.0193387	0.0427425	-0.032856	
5.65643	0	0	0.160104	-0.031806	-0.182281	0.112537	0.253543	-0.30115	0.202627	-0.130565	1.37742	-0.896742	0.584664	0.243301	0.652378	0.224321	0.573337	0.118015	0.196061	-0.048804	0.202928	-0.137852	0.285719	-0.0694705	0.1935	-0.117522	0.310739	-0.24692	0.324675	-0.218876	0.0576395	-0.0425865	0.046359	-0.035219	
5.65491	0	0	0.163118	-0.0403235	-0.185081	0.114366	0.258782	-0.304572	0.207671	-0.135697	1.37429	-0.896346	0.571958	0.248191	0.653512	0.221116	0.575445	0.120261	0.197176	-0.0519535	0.202928	-0.137852	0.287955	-0.0629133	0.201278	-0.106216	0.32669	-0.235404	0.32926	-0.205898	0.0932183	-0.0658342	0.0499755	-0.037582	
5.6488	0	0	0.166132	-0.048841	-0.187881	0.116196	0.26402	-0.307995	0.212715	-0.140829	1.37117	-0.895949	0.559253	0.253082	0.654646	0.217911	0.577553	0.122506	0.19829	-0.055103	0.202928	-0.137852	0.290191	-0.056356	0.209057	-0.09491	0.342641	-0.223889	0.333845	-0.192921	0.128797	-0.089082	0.053592	-0.039945	
5.64575	0	0	0.169143	-0.0573502	-0.187881	0.116196	0.268385	-0.308944	0.218584	-0.139154	1.37041	-0.893806	0.564817	0.252857	0.647156	0.222805	0.582164	0.117681	0.19829	-0.055103	0.202928	-0.137852	0.293351	-0.0524005	0.214968	-0.0893897	0.352078	-0.21652	0.338539	-0.188877	0.160547	-0.109828	0.0507312	-0.0397178	
5.6366	0	0	0.172154	-0.0658595	-0.187881	0.116196	0.272751	-0.309893	0.224452	-0.137479	1.36965	-0.891663	0.570382	0.252633	0.639666	0.227699	0.586776	0.112856	0.19829	-0.055103	0.202928	-0.137852	0.296511	-0.048445	0.22088	-0.0838695	0.361516	-0.209151	0.343233	-0.184833	0.192297	-0.130574	0.0478705	-0.0394905	
5.64117	0	0	0.175164	-0.0743687	-0.187881	0.116196	0.277116	-0.310841	0.230321	-0.135804	1.36889	-0.88952	0.575947	0.252409	0.632176	0.232594	0.591387	0.108032	0.19829	-0.055103	0.202928	-0.137852	0.29967	-0.0444895	0.226791	-0.0783493	0.370953	-0.201783	0.347927	-0.18079	0.224046	-0.15132	0.0450098	-0.0392632	
5.6366	0	0	0.178175	-0.082878	-0.187881	0.116196	0.281481	-0.31179	0.23619	-0.134129	1.36813	-0.887377	0.581511	0.252184	0.624686	0.237488	0.595998	0.103207	0.19829	-0.055103	0.202928	-0.137852	0.30283	-0.040534	0.232702	-0.072829	0.380391	-0.194414	0.352621	-0.176746	0.255796	-0.172066	0.042149	-0.039036	
5.6366	0	0	0.188388	-0.085191	-0.18228	0.112536	0.284096	-0.307784	0.251312	-0.131137	1.36813	-0.887377	0.587081	0.251958	0.622417	0.243899	0.591387	0.108032	0.197176	-0.0519535	0.209006	-0.141823	0.311005	-0.037841	0.241581	-0.0645325	0.395083	-0.190452	0.361309	-0.175304	0.284429	-0.192416	0.0493832	-0.043763	
5.63812	0	0	0.198601	-0.087504	-0.176679	0.108876	0.28671	-0.303779	0.266435	-0.128146	1.36813	-0.887377	0.59265	0.251731	0.620149	0.25031	0.586776	0.112856	0.196061	-0.048804	0.215083	-0.145794	0.31918	-0.035148	0.25046	-0.056236	0.409775	-0.18649	0.369997	-0.173863	0.313063	-0.212766	0.0566175	-0.04849	
5.6366	0	0	0.208815	-0.089817	-0.171078	0.105217	0.289325	-0.299773	0.281557	-0.125155	1.36813	-0.887377	0.59822	0.251505	0.617881	0.256721	0.582164	0.117681	0.194946	-0.0456545	0.22116	-0.149765	0.327355	-0.032455	0.259338	-0.0479395	0.424467	-0.182528	0.378685	-0.172422	0.341696	-0.233117	0.0638517	-0.053217	
5.6427	0	0	0.219028	-0.09213	-0.165477	0.101557	0.29194	-0.295767	0.296679	-0.122163	1.36813	-0.887377	0.60379	0.251279	0.615612	0.263132	0.577553	0.122506	0.193832	-0.042505	0.227238	-0.153736	0.33553	-0.029762	0.268217	-0.039643	0.439159	-0.178566	0.387373	-0.17098	0.370329	-0.253467	0.071086	-0.057944	
5.63812	0	0	0.218024	-0.0892925	-0.165477	0.101557	0.295433	-0.294237	0.296656	-0.112938	1.37202	-0.889917	0.606219	0.259942	0.620832	0.264653	0.579221	0.117793	0.199708	-0.0414993	0.23332	-0.15771	0.33777	-0.0231818	0.278195	-0.034392	0.449421	-0.173383	0.396789	-0.162873	0.385545	-0.261769	0.0819485	-0.0650417	
5.63812	0	0	0.21702	-0.086455	-0.165477	0.101557	0.298926	-0.292708	0.296633	-0.103714	1.37591	-0.892456	0.608649	0.268605	0.626052	0.266175	0.580888	0.113081	0.205585	-0.0404935	0.239402	-0.161685	0.340011	-0.0166015	0.288172	-0.029141	0.459684	-0.1682	0.406205	-0.154767	0.400761	-0.27007	0.092811	-0.0721395	
5.6427	0	0	0.216016	-0.0836175	-0.165477	0.101557	0.30242	-0.291178	0.29661	-0.0944888	1.37979	-0.894996	0.611078	0.277267	0.631272	0.267697	0.582556	0.108368	0.211461	-0.0394878	0.245484	-0.165659	0.342252	-0.0100212	0.29815	-0.02389	0.469946	-0.163016	0.41562	-0.14666	0.415976	-0.278371	0.103674	-0.0792372	
5.64117	0	0	0.215012	-0.08078	-0.165477	0.101557	0.305913	-0.289648	0.296587	-0.085264	1.38368	-0.897536	0.613507	0.28593	0.636492	0.269218	0.584224	0.103655	0.217337	-0.038482	0.251566	-0.169633	0.344492	-0.003441	0.308128	-0.018639	0.480208	-0.157833	0.425036	-0.138553	0.431192	-0.286673	0.114536	-0.086335	
5.64728	0	0	0.220125	-0.0819385	-0.157068	0.0960628	0.310287	-0.290599	0.302478	-0.083582	1.38368	-0.897536	0.609506	0.281709	0.638762	0.262802	0.581672	0.094465	0.216222	-0.0353292	0.251566	-0.169633	0.350439	-0.00732675	0.312181	-0.0189307	0.486799	-0.153635	0.428106	-0.129845	0.447193	-0.297128	0.124657	-0.0913062	
5.64728	0	0	0.225237	-0.083097	-0.14866	0.0905685	0.31466	-0.29155	0.308369	-0.0819	1.38368	-0.897536	0.605505	0.277489	0.641032	0.256387	0.57912	0.085275	0.215106	-0.0321765	0.251566	-0.169633	0.356386	-0.0112125	0.316234	-0.0192225	0.493391	-0.149438	0.431175	-0.121137	0.463194	-0.307584	0.134777	-0.0962775	
5.6488	0	0	0.23035	-0.0842555	-0.140252	0.0850742	0.319033	-0.292501	0.314261	-0.080218	1.38368	-0.897536	0.601504	0.273268	0.643302	0.249972	0.576567	0.076085	0.213991	-0.0290238	0.251566	-0.169633	0.362332	-0.0150983	0.320287	-0.0195143	0.499982	-0.14524	0.434244	-0.112428	0.479194	-0.318039	0.144898	-0.101249	
5.65338	0	0	0.235462	-0.085414	-0.131843	0.07958	0.323407	-0.293452	0.320152	-0.078536	1.38368	-0.897536	0.597503	0.269047	0.645572	0.243556	0.574015	0.066895	0.212875	-0.025871	0.251566	-0.169633	0.368279	-0.018984	0.32434	-0.019806	0.506573	-0.141042	0.437314	-0.10372	0.495195	-0.328494	0.155019	-0.10622	
5.65338	0	0	0.245699	-0.0877368	-0.126233	0.075914	0.326905	-0.291922	0.32435	-0.0720495	1.37979	-0.894996	0.606221	0.259935	0.645572	0.243556	0.569799	0.0624205	0.210643	-0.0195618	0.248525	-0.167646	0.362332	-0.0150983	0.326509	-0.0259355	0.516308	-0.145701	0.438958	-0.108368	0.507215	-0.336348	0.162278	-0.110963	
5.65643	0	0	0.255935	-0.0900595	-0.120622	0.072248	0.330403	-0.290392	0.328548	-0.065563	1.37591	-0.892456	0.61494	0.250823	0.645572	0.243556	0.565584	0.057946	0.20841	-0.0132525	0.245483	-0.165658	0.356386	-0.0112125	0.328678	-0.032065	0.526042	-0.15036	0.440603	-0.113016	0.519235	-0.344203	0.169536	-0.115706	
5.65948	0	0	0.266172	-0.0923822	-0.115012	0.068582	0.333902	-0.288863	0.332746	-0.0590765	1.37202	-0.889917	0.623659	0.241712	0.645572	0.243556	0.561368	0.0534715	0.206177	-0.00694325	0.242442	-0.16367	0.350439	-0.00732675	0.330847	-0.0381945	0.535777	-0.155018	0.442248	-0.117663	0.531256	-0.352058	0.176795	-0.120449	
5.65948	0	0	0.276409	-0.094705	-0.109402	0.064916	0.3374	-0.287333	0.336944	-0.05259	1.36813	-0.887377	0.632377	0.2326	0.645572	0.243556	0.557152	0.048997	0.203945	-0.000634	0.2394	-0.161683	0.344492	-0.003441	0.333016	-0.044324	0.545512	-0.159677	0.443892	-0.122311	0.543276	-0.359912	0.184054	-0.125192	
5.66254	0	0	0.282637	-0.0856592	-0.103788	0.0612478	0.339143	-0.280834	0.344495	-0.0371755	1.36889	-0.88952	0.62451	0.254832	0.651934	0.241865	0.557983	0.0466478	0.210942	-0.00277975	0.242442	-0.16367	0.351365	-0.00994375	0.343301	-0.0510445	0.558962	-0.163357	0.449539	-0.129572	0.563348	-0.373027	0.191319	-0.129939	
5.66101	0	0	0.288864	-0.0766135	-0.098174	0.0575795	0.340885	-0.274336	0.352046	-0.021761	1.36965	-0.891663	0.616644	0.277064	0.658296	0.240173	0.558814	0.0442985	0.21794	-0.0049255	0.245483	-0.165658	0.358237	-0.0164465	0.353585	-0.057765	0.572412	-0.167037	0.455186	-0.136832	0.583419	-0.386142	0.198583	-0.134686	
5.66406	0	0	0.295092	-0.0675677	-0.09256	0.0539113	0.342627	-0.267838	0.359597	-0.0063465	1.37041	-0.893806	0.608777	0.299296	0.664658	0.238482	0.559646	0.0419493	0.224937	-0.00707125	0.248525	-0.167646	0.36511	-0.0229492	0.36387	-0.0644855	0.585863	-0.170716	0.460832	-0.144093	0.60349	-0.399257	0.205848	-0.139432	
5.66559	0	0	0.30132	-0.058522	-0.086946	0.050243	0.34437	-0.261339	0.367148	0.009068	1.37117	-0.895949	0.600911	0.321528	0.67102	0.236791	0.560477	0.0396	0.231934	-0.009217	0.251566	-0.169633	0.371983	-0.029452	0.374155	-0.071206	0.599313	-0.174396	0.466479	-0.151354	0.623562	-0.412372	0.213113	-0.144179	
5.66406	0	0	0.30141	-0.045441	-0.0841377	0.048408	0.347872	-0.259806	0.36879	0.022832	1.37041	-0.893806	0.605757	0.338928	0.667613	0.24642	0.557983	0.0466495	0.228581	0.0002585	0.254609	-0.171621	0.376082	-0.0281057	0.376048	-0.0653733	0.605941	-0.170203	0.475211	-0.149915	0.64368	-0.425518	0.231302	-0.156064	
5.67016	0	0	0.301501	-0.03236	-0.0813295	0.046573	0.351374	-0.258272	0.370432	0.036596	1.36965	-0.891663	0.610602	0.356328	0.664206	0.256048	0.555489	0.053699	0.225228	0.009734	0.257651	-0.173609	0.380181	-0.0267595	0.377942	-0.0595405	0.612569	-0.16601	0.483943	-0.148477	0.663798	-0.438663	0.249491	-0.16795	
5.66711	0	0	0.301592	-0.019279	-0.0785213	0.044738	0.354876	-0.256738	0.372075	0.05036	1.36889	-0.88952	0.615447	0.373729	0.660799	0.265677	0.552994	0.0607485	0.221876	0.0192095	0.260694	-0.175597	0.384279	-0.0254133	0.379835	-0.0537077	0.619196	-0.161817	0.492675	-0.147038	0.683917	-0.451809	0.26768	-0.179835	
5.67169	0	0	0.301682	-0.006198	-0.075713	0.042903	0.358378	-0.255205	0.373717	0.064124	1.36813	-0.887377	0.620293	0.391129	0.657392	0.275305	0.5505	0.067798	0.218523	0.028685	0.263736	-0.177585	0.388378	-0.024067	0.381728	-0.047875	0.625824	-0.157624	0.501407	-0.145599	0.704035	-0.464955	0.285869	-0.19172	
5.66559	0	0	0.308924	3.975E-05	-0.0736597	0.0432037	0.361882	-0.253671	0.376209	0.0755042	1.37202	-0.889917	0.629885	0.395168	0.658528	0.272094	0.558043	0.0628693	0.217405	0.0318457	0.269825	-0.181563	0.39023	-0.0293018	0.387963	-0.0543068	0.628748	-0.154415	0.499762	-0.140949	0.716129	-0.472857	0.296801	-0.198863	
5.66864	0	0	0.316165	0.0062775	-0.0716065	0.0435045	0.365386	-0.252136	0.378701	0.0868845	1.37591	-0.892456	0.639477	0.399207	0.659664	0.268883	0.565586	0.0579405	0.216286	0.0350065	0.275913	-0.185541	0.392083	-0.0345365	0.394199	-0.0607385	0.631673	-0.151207	0.498116	-0.136299	0.728222	-0.48076	0.307733	-0.206006	
5.66559	0	0	0.323407	0.0125153	-0.0695533	0.0438052	0.36889	-0.250602	0.381193	0.0982648	1.37979	-0.894996	0.649068	0.403246	0.6608	0.265673	0.573128	0.0530117	0.215167	0.0381672	0.282002	-0.18952	0.393935	-0.0397712	0.400434	-0.0671703	0.634597	-0.147999	0.496471	-0.131649	0.740316	-0.488662	0.318665	-0.213149	
5.66254	0	0	0.330649	0.018753	-0.0675	0.044106	0.372394	-0.249068	0.383685	0.109645	1.38368	-0.897536	0.65866	0.407285	0.661936	0.262462	0.580671	0.048083	0.214049	0.041328	0.28809	-0.193498	0.395787	-0.045006	0.406669	-0.073602	0.637521	-0.14479	0.494825	-0.126999	0.75241	-0.496564	0.329597	-0.220292	
5.66559	0	0	0.334862	0.0335877	-0.0639337	0.0401335	0.373257	-0.240063	0.39377	0.12728	1.38757	-0.900077	0.657915	0.424984	0.668303	0.26077	0.587836	0.0524435	0.221052	0.039183	0.29038	-0.193353	0.398564	-0.0528525	0.411822	-0.0769693	0.647305	-0.149476	0.499658	-0.131945	0.756445	-0.499201	0.340543	-0.227444	
5.66406	0	0	0.339075	0.0484225	-0.0603675	0.036161	0.37412	-0.231058	0.403856	0.144915	1.39146	-0.902618	0.657169	0.442682	0.67467	0.259078	0.595001	0.056804	0.228055	0.037038	0.29267	-0.193207	0.40134	-0.060699	0.416975	-0.0803365	0.657089	-0.154162	0.504491	-0.136891	0.760481	-0.501837	0.351488	-0.234596	
5.66406	0	0	0.343288	0.0632572	-0.0568012	0.0321885	0.374983	-0.222053	0.413941	0.162549	1.39535	-0.905159	0.656424	0.460381	0.681038	0.257386	0.602166	0.0611645	0.235058	0.034893	0.29496	-0.193061	0.404116	-0.0685455	0.422129	-0.0837037	0.666874	-0.158848	0.509325	-0.141837	0.764516	-0.504474	0.362434	-0.241749	
5.66406	0	0	0.347501	0.078092	-0.053235	0.028216	0.375846	-0.213048	0.424026	0.180184	1.39924	-0.9077	0.655679	0.47808	0.687405	0.255694	0.609331	0.065525	0.242061	0.032748	0.29725	-0.192916	0.406893	-0.076392	0.427282	-0.087071	0.676658	-0.163534	0.514158	-0.146783	0.768551	-0.507111	0.37338	-0.248901	
5.66559	0	0	0.34453	0.0998732	-0.05118	0.0285153	0.370553	-0.198089	0.419676	0.201719	1.39924	-0.9077	0.667713	0.490928	0.691504	0.260426	0.614003	0.076965	0.247952	0.033763	0.306394	-0.198891	0.417882	-0.0815625	0.437332	-0.0818427	0.67959	-0.160325	0.524555	-0.15	0.78471	-0.51767	0.38434	-0.256063	
5.66559	0	0	0.34156	0.121654	-0.049125	0.0288145	0.36526	-0.18313	0.415326	0.223254	1.39924	-0.9077	0.679746	0.503776	0.695603	0.265158	0.618675	0.088405	0.253843	0.034778	0.315538	-0.204866	0.428871	-0.086733	0.447381	-0.0766145	0.682522	-0.157116	0.534952	-0.153218	0.800869	-0.528228	0.3953	-0.263224	
5.66559	0	0	0.338589	0.143436	-0.04707	0.0291138	0.359967	-0.16817	0.410976	0.244789	1.39924	-0.9077	0.691779	0.516625	0.699702	0.26989	0.623346	0.099845	0.259733	0.035793	0.324682	-0.21084	0.439861	-0.0919035	0.457431	-0.0713862	0.685453	-0.153908	0.545349	-0.156436	0.817028	-0.538787	0.40626	-0.270386	
5.66406	0	0	0.335618	0.165217	-0.045015	0.029413	0.354674	-0.153211	0.406626	0.266324	1.39924	-0.9077	0.703813	0.529473	0.703801	0.274622	0.628018	0.111285	0.265624	0.036808	0.333826	-0.216815	0.45085	-0.097074	0.467481	-0.066158	0.688385	-0.150699	0.555746	-0.159653	0.833187	-0.549346	0.41722	-0.277547	
5.66559	0	0	0.338733	0.169808	-0.044259	0.0272768	0.359061	-0.154159	0.408296	0.27085	1.39924	-0.9077	0.696619	0.534174	0.706075	0.268195	0.628853	0.108926	0.265624	0.036808	0.336876	-0.218808	0.444891	-0.09318	0.469385	-0.0603155	0.69504	-0.146499	0.558117	-0.157625	0.846082	-0.559412	0.42529	-0.284462	
5.66711	0	0	0.341848	0.174398	-0.043503	0.0251405	0.363449	-0.155108	0.409965	0.275377	1.39924	-0.9077	0.689424	0.538876	0.708349	0.261767	0.629687	0.106568	0.265624	0.036808	0.339927	-0.220801	0.438931	-0.089286	0.471289	-0.054473	0.701695	-0.142298	0.560489	-0.155596	0.858977	-0.569478	0.43336	-0.291377	
5.67016	0	0	0.344964	0.178988	-0.042747	0.0230043	0.367837	-0.156056	0.411635	0.279904	1.39924	-0.9077	0.68223	0.543577	0.710624	0.25534	0.630521	0.104209	0.265624	0.036808	0.342977	-0.222795	0.432972	-0.085392	0.473193	-0.0486305	0.70835	-0.138097	0.56286	-0.153568	0.871871	-0.579545	0.44143	-0.298292	
5.66559	0	0	0.348079	0.183579	-0.041991	0.020868	0.372224	-0.157004	0.413305	0.28443	1.39924	-0.9077	0.675035	0.548278	0.712898	0.248913	0.631356	0.101851	0.265624	0.036808	0.346027	-0.224788	0.427013	-0.081498	0.475097	-0.042788	0.715005	-0.133897	0.565232	-0.15154	0.884766	-0.589611	0.4495	-0.305207	
5.66711	0	0	0.351196	0.188175	-0.039179	0.0190307	0.365186	-0.148567	0.408991	0.296622	1.39924	-0.9077	0.678216	0.539289	0.712898	0.248913	0.628408	0.101964	0.266744	0.033644	0.346027	-0.224788	0.432972	-0.085392	0.47809	-0.040015	0.71873	-0.132908	0.568428	-0.151839	0.884766	-0.589611	0.453159	-0.307598	
5.66254	0	0	0.354313	0.192771	-0.036367	0.0171935	0.358149	-0.14013	0.404677	0.308814	1.39924	-0.9077	0.681396	0.5303	0.712898	0.248913	0.62546	0.102078	0.267863	0.03048	0.346027	-0.224788	0.438931	-0.089286	0.481082	-0.037242	0.722454	-0.131919	0.571624	-0.152138	0.884766	-0.589611	0.456819	-0.30999	
5.66254	0	0	0.357429	0.197367	-0.033555	0.0153563	0.351112	-0.131693	0.400363	0.321006	1.39924	-0.9077	0.684576	0.521311	0.712898	0.248913	0.622512	0.102191	0.268983	0.027316	0.346027	-0.224788	0.444891	-0.09318	0.484075	-0.034469	0.726178	-0.13093	0.574821	-0.152437	0.884766	-0.589611	0.460479	-0.312381	
5.66406	0	0	0.360546	0.201963	-0.030743	0.013519	0.344074	-0.123256	0.396049	0.333198	1.39924	-0.9077	0.687757	0.512322	0.712898	0.248913	0.619564	0.102305	0.270102	0.024152	0.346027	-0.224788	0.45085	-0.097074	0.487067	-0.031696	0.729903	-0.129941	0.578017	-0.152736	0.884766	-0.589611	0.464138	-0.314772	
5.66101	0	0	0.356471	0.213479	-0.02793	0.011681	0.347577	-0.121704	0.393458	0.340521	1.39535	-0.905159	0.684576	0.521311	0.710624	0.25534	0.619564	0.102305	0.270102	0.024152	0.349078	-0.226782	0.449924	-0.0944585	0.486792	-0.0196805	0.730475	-0.120037	0.579566	-0.148377	0.896168	-0.59542	0.467799	-0.317164	
5.66254	0	0	0.352397	0.224995	-0.025117	0.009843	0.351079	-0.120151	0.390867	0.347844	1.39146	-0.902618	0.681396	0.5303	0.708349	0.261767	0.619564	0.102305	0.270102	0.024152	0.352129	-0.228775	0.448999	-0.091843	0.486517	-0.007665	0.731048	-0.110133	0.581116	-0.144018	0.907569	-0.601229	0.47146	-0.319557	
5.65643	0	0	0.348322	0.236511	-0.022304	0.008005	0.354582	-0.118598	0.388276	0.355167	1.38757	-0.900077	0.678216	0.539289	0.706075	0.268195	0.619564	0.102305	0.270102	0.024152	0.355181	-0.230769	0.448074	-0.0892275	0.486241	0.0043505	0.731621	-0.100229	0.582666	-0.139658	0.918971	-0.607039	0.475121	-0.321949	
5.65643	0	0	0.344247	0.248027	-0.019491	0.006167	0.358085	-0.117046	0.385685	0.36249	1.38368	-0.897536	0.675035	0.548278	0.703801	0.274622	0.619564	0.102305	0.270102	0.024152	0.358232	-0.232763	0.447148	-0.086612	0.485966	0.016366	0.732193	-0.090325	0.584215	-0.135299	0.930372	-0.612848	0.478782	-0.324341	
5.65033	0	0	0.339097	0.249178	-0.0166773	0.00432825	0.352814	-0.113602	0.387412	0.357607	1.37979	-0.894996	0.675792	0.53052	0.698565	0.273102	0.613228	0.0955783	0.271221	0.020989	0.349081	-0.226784	0.433382	-0.0735935	0.483785	0.0225315	0.728245	-0.0791687	0.584114	-0.126271	0.934428	-0.615498	0.481689	-0.324599	
5.65185	0	0	0.333947	0.250329	-0.0138635	0.0024895	0.347544	-0.110158	0.38914	0.352724	1.37591	-0.892456	0.676549	0.512761	0.69333	0.271582	0.606893	0.0888515	0.27234	0.017826	0.339931	-0.220805	0.419616	-0.060575	0.481603	0.028697	0.724298	-0.0680125	0.584013	-0.117243	0.938484	-0.618148	0.484596	-0.324856	
5.65033	0	0	0.328796	0.251479	-0.0110498	0.00065075	0.342274	-0.106715	0.390868	0.347842	1.37202	-0.889917	0.677306	0.495003	0.688095	0.270062	0.600558	0.0821247	0.27346	0.014663	0.330781	-0.214825	0.405849	-0.0475565	0.479422	0.0348625	0.720351	-0.0568562	0.583911	-0.108215	0.94254	-0.620799	0.487503	-0.325113	
5.6488	0	0	0.323646	0.25263	-0.008236	-0.001188	0.337003	-0.103271	0.392595	0.342959	1.36813	-0.887377	0.678063	0.477244	0.682859	0.268542	0.594222	0.075398	0.274579	0.0115	0.32163	-0.208846	0.392083	-0.034538	0.47724	0.041028	0.716403	-0.0457	0.58381	-0.099187	0.946596	-0.623449	0.49041	-0.325371	
5.64422	0	0	0.323646	0.25263	-0.008236	-0.001188	0.336119	-0.100772	0.385813	0.343639	1.36501	-0.886981	0.668462	0.473181	0.683995	0.26533	0.590834	0.0685692	0.276816	0.0051775	0.318582	-0.206854	0.392083	-0.034538	0.470977	0.0474917	0.714032	-0.0389995	0.582159	-0.0945197	0.938486	-0.61815	0.486747	-0.322978	
5.63965	0	0	0.323646	0.25263	-0.008236	-0.001188	0.335234	-0.098273	0.379032	0.344318	1.36188	-0.886586	0.65886	0.469117	0.685132	0.262118	0.587446	0.0617405	0.279053	-0.001145	0.315534	-0.204863	0.392083	-0.034538	0.464714	0.0539555	0.711661	-0.032299	0.580507	-0.0898525	0.930376	-0.61285	0.483085	-0.320585	
5.63812	0	0	0.323646	0.25263	-0.008236	-0.001188	0.33435	-0.095774	0.37225	0.344998	1.35875	-0.88619	0.649258	0.465054	0.686269	0.258906	0.584059	0.0549118	0.28129	-0.0074675	0.312486	-0.202872	0.392083	-0.034538	0.45845	0.0604193	0.709291	-0.0255985	0.578856	-0.0851853	0.922265	-0.607551	0.479423	-0.318191	
5.63507	0	0	0.323646	0.25263	-0.008236	-0.001188	0.333466	-0.093275	0.365468	0.345678	1.35563	-0.885794	0.639657	0.46099	0.687405	0.255694	0.580671	0.048083	0.283527	-0.01379	0.309438	-0.20088	0.392083	-0.034538	0.452187	0.066883	0.70692	-0.018898	0.577205	-0.080518	0.914155	-0.602252	0.47576	-0.315798	
5.63202	0	0	0.322627	0.255511	-0.008236	-0.001188	0.332581	-0.090775	0.361217	0.348456	1.35563	-0.885794	0.632487	0.465675	0.687405	0.255694	0.574791	0.0483115	0.283527	-0.01379	0.310194	-0.203016	0.384279	-0.0254132	0.455175	0.0696752	0.703756	-0.00995625	0.573072	-0.0688395	0.922265	-0.607551	0.472099	-0.313406	
5.63049	0	0	0.321608	0.258391	-0.008236	-0.001188	0.331697	-0.088275	0.356966	0.351233	1.35563	-0.885794	0.625316	0.470361	0.687405	0.255694	0.568912	0.04854	0.283527	-0.01379	0.310949	-0.205151	0.376476	-0.0162885	0.458163	0.0724675	0.700592	-0.0010145	0.56894	-0.057161	0.930376	-0.61285	0.468438	-0.311013	
5.62439	0	0	0.320589	0.261271	-0.008236	-0.001188	0.330813	-0.085775	0.352714	0.354011	1.35563	-0.885794	0.618146	0.475046	0.687405	0.255694	0.563032	0.0487685	0.283527	-0.01379	0.311705	-0.207287	0.368672	-0.00716375	0.461151	0.0752598	0.697428	0.00792725	0.564808	-0.0454825	0.938486	-0.61815	0.464776	-0.308621	
5.62134	0	0	0.31957	0.264152	-0.008236	-0.001188	0.329928	-0.083275	0.348463	0.356789	1.35563	-0.885794	0.610975	0.479731	0.687405	0.255694	0.557152	0.048997	0.283527	-0.01379	0.312461	-0.209423	0.360868	0.001961	0.464139	0.078052	0.694264	0.016869	0.560675	-0.033804	0.946596	-0.623449	0.461115	-0.306229	
5.61828	0	0	0.316462	0.259542	-0.005421	-0.00302725	0.330813	-0.085775	0.348527	0.347377	1.35098	-0.881114	0.602984	0.471193	0.688541	0.252483	0.550004	0.044642	0.276516	-0.0116378	0.305613	-0.203306	0.353067	0.0110863	0.458967	0.0814315	0.691889	0.0235812	0.557365	-0.0244502	0.94254	-0.620799	0.457456	-0.303838	
5.61828	0	0	0.313353	0.254932	-0.002606	-0.0048665	0.331697	-0.088275	0.348591	0.337965	1.34634	-0.876433	0.594993	0.462655	0.689677	0.249273	0.542856	0.040287	0.269504	-0.0094855	0.298764	-0.197189	0.345267	0.0202115	0.453795	0.084811	0.689514	0.0302935	0.554056	-0.0150965	0.938484	-0.618148	0.453796	-0.301446	
5.61371	0	0	0.310245	0.250322	0.000209	-0.00670575	0.332581	-0.090775	0.348654	0.328552	1.3417	-0.871753	0.587003	0.454118	0.690813	0.246062	0.535709	0.035932	0.262493	-0.00733325	0.291915	-0.191072	0.337466	0.0293368	0.448623	0.0881905	0.687139	0.0370058	0.550746	-0.00574275	0.934428	-0.615498	0.450136	-0.299055	
5.61371	0	0	0.307136	0.245712	0.003024	-0.008545	0.333466	-0.093275	0.348718	0.31914	1.33706	-0.867073	0.579012	0.44558	0.691949	0.242851	0.528561	0.031577	0.255482	-0.005181	0.285067	-0.184955	0.329665	0.038462	0.443451	0.09157	0.684764	0.043718	0.547436	0.003611	0.930372	-0.612848	0.446477	-0.296664	
5.60913	0	0	0.308154	0.242834	0.00790025	-0.010089	0.332581	-0.090775	0.348718	0.31914	1.34094	-0.86961	0.571859	0.450254	0.691949	0.242851	0.525627	0.0316903	0.256599	-0.0083395	0.282022	-0.182966	0.32781	0.0437045	0.439375	0.091861	0.678669	0.0494215	0.542585	0.00858025	0.926318	-0.610199	0.439163	-0.291885	
5.60303	0	0	0.309173	0.239957	0.0127765	-0.011633	0.331697	-0.088275	0.348718	0.31914	1.34483	-0.872148	0.564707	0.454927	0.691949	0.242851	0.522693	0.0318035	0.257717	-0.011498	0.278977	-0.180976	0.325955	0.048947	0.435298	0.092152	0.672574	0.055125	0.537733	0.0135495	0.922264	-0.60755	0.431848	-0.287106	
5.6015	0	0	0.310191	0.237079	0.0176528	-0.013177	0.330813	-0.085775	0.348718	0.31914	1.34871	-0.874686	0.557554	0.459601	0.691949	0.242851	0.51976	0.0319168	0.258835	-0.0146565	0.275933	-0.178986	0.3241	0.0541895	0.431221	0.092443	0.666478	0.0608285	0.532882	0.0185188	0.918209	-0.604901	0.424534	-0.282326	
5.59692	0	0	0.311209	0.234201	0.022529	-0.014721	0.329928	-0.083275	0.348718	0.31914	1.35259	-0.877223	0.550402	0.464275	0.691949	0.242851	0.516826	0.03203	0.259952	-0.017815	0.272888	-0.176997	0.322245	0.059432	0.427145	0.092734	0.660383	0.066532	0.52803	0.023488	0.914155	-0.602252	0.41722	-0.277547	
5.5954	0	0	0.315337	0.235929	0.0253468	-0.016562	0.333429	-0.0817173	0.351243	0.321237	1.35724	-0.881904	0.552806	0.473021	0.689677	0.249274	0.514335	0.0390703	0.257717	-0.0114968	0.272888	-0.176997	0.318532	0.0699262	0.42496	0.098908	0.662516	0.0720268	0.530397	0.0255405	0.922265	-0.607551	0.413565	-0.275159	
5.59387	0	0	0.319466	0.237656	0.0281645	-0.018403	0.336929	-0.0801595	0.353768	0.323334	1.36188	-0.886586	0.555211	0.481766	0.687404	0.255696	0.511844	0.0461105	0.255481	-0.0051785	0.272888	-0.176997	0.314819	0.0804205	0.422775	0.105082	0.664649	0.0775215	0.532764	0.027593	0.930376	-0.61285	0.40991	-0.272771	
5.58777	0	0	0.323594	0.239384	0.0309822	-0.020244	0.34043	-0.0786017	0.356292	0.325431	1.36652	-0.891267	0.557615	0.490511	0.685132	0.262119	0.509352	0.0531508	0.253246	0.00113975	0.272888	-0.176997	0.311105	0.0909148	0.420591	0.111256	0.666782	0.0830162	0.535131	0.0296455	0.938486	-0.61815	0.406255	-0.270382	
5.58472	0	0	0.327722	0.241112	0.0338	-0.022085	0.343931	-0.077044	0.358817	0.327528	1.37117	-0.895949	0.560019	0.499257	0.682859	0.268542	0.506861	0.060191	0.25101	0.007458	0.272888	-0.176997	0.307392	0.101409	0.418406	0.11743	0.668915	0.088511	0.537498	0.031698	0.946596	-0.623449	0.4026	-0.267994	
5.58166	0	0	0.331794	0.229603	0.0366185	-0.0239268	0.35009	-0.0829913	0.356292	0.325431	1.37505	-0.898489	0.55445	0.499455	0.682859	0.268542	0.502268	0.0649973	0.249892	0.0106185	0.273644	-0.179133	0.298661	0.113171	0.418406	0.11743	0.666535	0.0952365	0.530158	0.0436983	0.94584	-0.621314	0.4026	-0.267994	
5.58014	0	0	0.335866	0.218095	0.039437	-0.0257685	0.356248	-0.0889385	0.353768	0.323334	1.37894	-0.901029	0.548881	0.499654	0.682859	0.268542	0.497675	0.0698035	0.248773	0.013779	0.2744	-0.181268	0.28993	0.124933	0.418406	0.11743	0.664155	0.101962	0.522819	0.0556985	0.945085	-0.619179	0.4026	-0.267994	
5.58014	0	0	0.339938	0.206587	0.0422555	-0.0276102	0.362407	-0.0948858	0.351243	0.321237	1.38283	-0.903568	0.543312	0.499853	0.682859	0.268542	0.493082	0.0746098	0.247654	0.0169395	0.275155	-0.183404	0.2812	0.136695	0.418406	0.11743	0.661775	0.108688	0.51548	0.0676988	0.94433	-0.617045	0.4026	-0.267994	
5.57403	0	0	0.34401	0.195078	0.045074	-0.029452	0.368566	-0.100833	0.348718	0.31914	1.38671	-0.906108	0.537743	0.500051	0.682859	0.268542	0.488489	0.079416	0.246536	0.0201	0.275911	-0.18554	0.272469	0.148457	0.418406	0.11743	0.659395	0.115413	0.50814	0.079699	0.943574	-0.61491	0.4026	-0.267994	
5.57403	0	0	0.34401	0.195078	0.053535	-0.0349807	0.372073	-0.0992777	0.356356	0.316022	1.3906	-0.908649	0.536159	0.504526	0.681722	0.271755	0.488926	0.0863558	0.244298	0.026425	0.275911	-0.18554	0.277482	0.147202	0.413241	0.120805	0.658601	0.117656	0.504947	0.0799833	0.943574	-0.61491	0.395295	-0.263221	
5.56793	0	0	0.34401	0.195078	0.061996	-0.0405095	0.375579	-0.0977225	0.363994	0.312905	1.39449	-0.911189	0.534575	0.509001	0.680585	0.274968	0.489363	0.0932955	0.24206	0.03275	0.275911	-0.18554	0.282495	0.145946	0.408075	0.12418	0.657808	0.119899	0.501755	0.0802675	0.943574	-0.61491	0.38799	-0.258447	
5.56335	0	0	0.34401	0.195078	0.070457	-0.0460383	0.379085	-0.0961673	0.371633	0.309787	1.39838	-0.91373	0.532992	0.513477	0.679448	0.278181	0.489799	0.100235	0.239822	0.039075	0.275911	-0.18554	0.287508	0.14469	0.402909	0.127556	0.657015	0.122142	0.498563	0.0805518	0.943574	-0.61491	0.380685	-0.253674	
5.5603	0	0	0.34401	0.195078	0.078918	-0.051567	0.382592	-0.094612	0.379271	0.306669	1.40227	-0.916271	0.531408	0.517952	0.678311	0.281394	0.490236	0.107175	0.237584	0.0454	0.275911	-0.18554	0.292521	0.143435	0.397744	0.130931	0.656221	0.124385	0.49537	0.080836	0.943574	-0.61491	0.37338	-0.248901	
5.55878	0	0	0.348144	0.196799	0.0845633	-0.0552558	0.385215	-0.0905523	0.37921	0.316082	1.40929	-0.919213	0.533805	0.526718	0.68013	0.292569	0.491104	0.121081	0.243474	0.0464173	0.282002	-0.18952	0.28973	0.151323	0.400724	0.133734	0.655427	0.126629	0.498563	0.0805518	0.952447	-0.622349	0.37338	-0.248901	
5.55572	0	0	0.352278	0.19852	0.0902085	-0.0589445	0.387838	-0.0864925	0.37915	0.325495	1.41632	-0.922156	0.536202	0.535484	0.681949	0.303744	0.491973	0.134987	0.249364	0.0474345	0.288092	-0.193499	0.286939	0.159212	0.403703	0.136537	0.654633	0.128873	0.501755	0.0802675	0.961321	-0.629788	0.37338	-0.248901	
5.5542	0	0	0.356412	0.200242	0.0958538	-0.0626333	0.390461	-0.0824327	0.379089	0.334907	1.42334	-0.925099	0.5386	0.544249	0.683769	0.31492	0.492841	0.148893	0.255254	0.0484518	0.294183	-0.197479	0.284148	0.1671	0.406683	0.139339	0.653839	0.131116	0.504947	0.0799833	0.970194	-0.637228	0.37338	-0.248901	
5.54962	0	0	0.360546	0.201963	0.101499	-0.066322	0.393084	-0.078373	0.379028	0.34432	1.43037	-0.928041	0.540997	0.553015	0.685588	0.326095	0.493709	0.162799	0.261144	0.049469	0.300273	-0.201459	0.281357	0.174988	0.409662	0.142142	0.653045	0.13336	0.50814	0.079699	0.979067	-0.644667	0.37338	-0.248901	
5.54809	0	0	0.361564	0.199086	0.104323	-0.0681673	0.398367	-0.0818255	0.380754	0.339441	1.43426	-0.930585	0.53941	0.5575	0.690825	0.327625	0.490373	0.172227	0.25666	0.062141	0.306368	-0.205441	0.279495	0.180251	0.411549	0.14804	0.650662	0.140094	0.503289	0.0846713	0.979067	-0.644667	0.380685	-0.253674	
5.54352	0	0	0.362582	0.196209	0.107148	-0.0700125	0.403651	-0.085278	0.382481	0.334562	1.43815	-0.933129	0.537824	0.561984	0.696063	0.329155	0.487038	0.181655	0.252176	0.074813	0.312463	-0.209424	0.277633	0.185513	0.413436	0.153938	0.64828	0.146828	0.498437	0.0896435	0.979067	-0.644667	0.38799	-0.258447	
5.54352	0	0	0.3636	0.193333	0.109972	-0.0718577	0.408934	-0.0887305	0.384207	0.329684	1.44205	-0.935674	0.536237	0.566469	0.7013	0.330684	0.483702	0.191083	0.247692	0.087485	0.318558	-0.213406	0.275771	0.190775	0.415322	0.159836	0.645897	0.153562	0.493586	0.0946157	0.979067	-0.644667	0.395295	-0.263221	
5.54047	0	0	0.364618	0.190456	0.112796	-0.073703	0.414218	-0.092183	0.385933	0.324805	1.44594	-0.938218	0.53465	0.570953	0.706537	0.332214	0.480366	0.200511	0.243208	0.100157	0.324653	-0.217389	0.273909	0.196038	0.417209	0.165734	0.643514	0.160296	0.488735	0.099588	0.979067	-0.644667	0.4026	-0.267994	
5.54199	0	0	0.37181	0.183546	0.115621	-0.075549	0.414218	-0.092183	0.386796	0.322367	1.44594	-0.938218	0.527497	0.575627	0.704256	0.33866	0.482464	0.202767	0.242086	0.103328	0.330752	-0.221374	0.269828	0.194658	0.424569	0.15617	0.645103	0.155806	0.488032	0.0928413	0.979067	-0.644667	0.395295	-0.263221	
5.54047	0	0	0.379001	0.176636	0.118446	-0.077395	0.414218	-0.092183	0.387659	0.319928	1.44594	-0.938218	0.520345	0.5803	0.701975	0.345106	0.484561	0.205023	0.240964	0.106498	0.336852	-0.225359	0.265748	0.193279	0.431929	0.146606	0.646691	0.151316	0.487328	0.0860945	0.979067	-0.644667	0.38799	-0.258447	
5.54199	0	0	0.386192	0.169727	0.121271	-0.079241	0.414218	-0.092183	0.388521	0.31749	1.44594	-0.938218	0.513193	0.584974	0.699695	0.351551	0.486659	0.207279	0.239843	0.109669	0.342951	-0.229345	0.261667	0.1919	0.43929	0.137042	0.64828	0.146826	0.486625	0.0793477	0.979067	-0.644667	0.380685	-0.253674	
5.54047	0	0	0.393384	0.162817	0.124096	-0.081087	0.414218	-0.092183	0.389384	0.315051	1.44594	-0.938218	0.50604	0.589648	0.697414	0.357997	0.488757	0.209535	0.238721	0.11284	0.34905	-0.23333	0.257586	0.19052	0.44665	0.127478	0.649869	0.142336	0.485922	0.072601	0.979067	-0.644667	0.37338	-0.248901	
5.54047	0	0	0.397527	0.164532	0.129749	-0.0847805	0.423908	-0.0965893	0.39105	0.319588	1.44984	-0.940763	0.510017	0.59395	0.702655	0.359532	0.489185	0.216515	0.245736	0.110695	0.352101	-0.235324	0.26539	0.181377	0.44665	0.127478	0.656763	0.134381	0.485217	0.0658627	0.979067	-0.644667	0.36973	-0.246516	
5.54199	0	0	0.40167	0.166247	0.135402	-0.088474	0.433599	-0.100996	0.392717	0.324125	1.45373	-0.943309	0.513993	0.598251	0.707896	0.361067	0.489613	0.223496	0.25275	0.10855	0.355152	-0.237318	0.273193	0.172235	0.44665	0.127478	0.663658	0.126426	0.484513	0.0591245	0.979067	-0.644667	0.36608	-0.244131	
5.54352	0	0	0.405812	0.167963	0.141054	-0.0921675	0.44329	-0.105402	0.394383	0.328661	1.45763	-0.945855	0.51797	0.602553	0.713136	0.362601	0.49004	0.230476	0.259765	0.106405	0.358204	-0.239311	0.280997	0.163093	0.44665	0.127478	0.670552	0.118471	0.483808	0.0523863	0.979067	-0.644667	0.362429	-0.241746	
5.54809	0	0	0.409955	0.169678	0.146707	-0.095861	0.45298	-0.109808	0.396049	0.333198	1.46152	-0.9484	0.521947	0.606855	0.718377	0.364136	0.490468	0.237456	0.26678	0.10426	0.361255	-0.241305	0.288801	0.15395	0.44665	0.127478	0.677446	0.110516	0.483103	0.045648	0.979067	-0.644667	0.358779	-0.239361	
5.55267	0	0	0.40588	0.181194	0.146707	-0.095861	0.445917	-0.10134	0.392594	0.342963	1.46152	-0.9484	0.529909	0.615474	0.713807	0.377051	0.490894	0.244445	0.26341	0.113783	0.364307	-0.2433	0.28694	0.15921	0.454815	0.126897	0.675858	0.115004	0.484758	0.0409697	0.987193	-0.649976	0.362429	-0.241746	
5.55267	0	0	0.401806	0.19271	0.146707	-0.095861	0.438854	-0.092872	0.389138	0.352729	1.46152	-0.9484	0.537871	0.624092	0.709237	0.389966	0.49132	0.251434	0.260041	0.123305	0.36736	-0.245294	0.285079	0.164469	0.46298	0.126317	0.67427	0.119492	0.486413	0.0362915	0.995318	-0.655285	0.36608	-0.244131	
5.55572	0	0	0.397731	0.204226	0.146707	-0.095861	0.43179	-0.084404	0.385683	0.362494	1.46152	-0.9484	0.545833	0.632711	0.704668	0.40288	0.491746	0.258423	0.256672	0.132828	0.370412	-0.247288	0.283218	0.169729	0.471145	0.125737	0.672682	0.123979	0.488069	0.0316133	1.00344	-0.660595	0.36973	-0.246516	
5.5603	0	0	0.393656	0.215742	0.146707	-0.095861	0.424727	-0.075936	0.382228	0.37226	1.46152	-0.9484	0.553795	0.64133	0.700098	0.415795	0.492172	0.265412	0.253302	0.14235	0.373464	-0.249283	0.281357	0.174988	0.47931	0.125156	0.671094	0.128467	0.489724	0.026935	1.01157	-0.665904	0.37338	-0.248901	
5.56335	0	0	0.399839	0.211702	0.149535	-0.0977087	0.425614	-0.078442	0.385621	0.371921	1.46152	-0.9484	0.545038	0.650512	0.707627	0.410875	0.496781	0.260583	0.251054	0.148704	0.369656	-0.245153	0.287304	0.171102	0.47712	0.131345	0.674815	0.129488	0.490551	0.024597	1.0197	-0.671219	0.377032	-0.251287	
5.56183	0	0	0.406022	0.207662	0.152363	-0.0995565	0.426501	-0.080948	0.389014	0.371582	1.46152	-0.9484	0.536281	0.659693	0.715157	0.405955	0.50139	0.255754	0.248806	0.155058	0.365848	-0.241023	0.293251	0.167216	0.47493	0.137534	0.678536	0.130508	0.491378	0.022259	1.02784	-0.676533	0.380684	-0.253673	
5.56488	0	0	0.412205	0.203622	0.15519	-0.101404	0.427387	-0.083454	0.392407	0.371243	1.46152	-0.9484	0.527524	0.668875	0.722687	0.401035	0.505998	0.250925	0.246557	0.161412	0.36204	-0.236893	0.299198	0.16333	0.47274	0.143723	0.682257	0.131528	0.492206	0.019921	1.03597	-0.681848	0.384335	-0.25606	
5.56946	0	0	0.418388	0.199582	0.158018	-0.103252	0.428274	-0.08596	0.3958	0.370904	1.46152	-0.9484	0.518767	0.678057	0.730216	0.396115	0.510607	0.246096	0.244309	0.167766	0.358232	-0.232763	0.305145	0.159444	0.47055	0.149912	0.685978	0.132549	0.493033	0.017583	1.0441	-0.687162	0.387987	-0.258446	
5.57251	0	0	0.419474	0.209955	0.160847	-0.1051	0.430903	-0.0818963	0.39913	0.380009	1.46542	-0.950947	0.524339	0.677878	0.729073	0.399347	0.511443	0.243733	0.250204	0.168802	0.355181	-0.230769	0.317051	0.151664	0.471645	0.146817	0.691291	0.129078	0.49315	0.0085255	1.06039	-0.697806	0.39164	-0.260833	
5.57251	0	0	0.420561	0.220328	0.163676	-0.106949	0.433532	-0.0778325	0.402459	0.389113	1.46932	-0.953493	0.52991	0.677699	0.727929	0.402579	0.512279	0.241369	0.256099	0.169839	0.352129	-0.228775	0.328957	0.143884	0.472741	0.143722	0.696604	0.125606	0.493267	-0.000532	1.07668	-0.70845	0.395294	-0.26322	
5.57403	0	0	0.421647	0.2307	0.166504	-0.108797	0.436161	-0.0737687	0.405789	0.398218	1.47322	-0.95604	0.535481	0.67752	0.726785	0.40581	0.513116	0.239005	0.261993	0.170876	0.349078	-0.226782	0.340863	0.136105	0.473836	0.140627	0.701917	0.122135	0.493385	-0.0095895	1.09297	-0.719094	0.398947	-0.265607	
5.57403	0	0	0.422733	0.241073	0.169333	-0.110646	0.43879	-0.069705	0.409119	0.407322	1.47711	-0.958587	0.541053	0.677341	0.725642	0.409042	0.513952	0.236642	0.267888	0.171912	0.346027	-0.224788	0.352769	0.128325	0.474931	0.137532	0.70723	0.118663	0.493502	-0.018647	1.10926	-0.729738	0.4026	-0.267994	
5.57709	0	0	0.427966	0.2532	0.172162	-0.112495	0.436127	-0.062178	0.414113	0.421014	1.48101	-0.961135	0.547423	0.690512	0.7286	0.417056	0.519829	0.236437	0.272663	0.176131	0.346027	-0.224788	0.366934	0.127163	0.476826	0.143434	0.716276	0.116206	0.497518	-0.0212712	1.1215	-0.737734	0.4026	-0.267994	
5.57556	0	0	0.433199	0.265327	0.174992	-0.114343	0.433464	-0.054651	0.419107	0.434705	1.48491	-0.963682	0.553792	0.703684	0.731559	0.425069	0.525705	0.236231	0.277438	0.180351	0.346027	-0.224788	0.381099	0.126002	0.47872	0.149337	0.725323	0.113748	0.501534	-0.0238955	1.13374	-0.745731	0.4026	-0.267994	
5.57556	0	0	0.438432	0.277453	0.177822	-0.116192	0.4308	-0.047124	0.424102	0.448396	1.48881	-0.96623	0.560161	0.716855	0.734517	0.433083	0.531582	0.236026	0.282212	0.18457	0.346027	-0.224788	0.395264	0.12484	0.480615	0.15524	0.734369	0.111291	0.505551	-0.0265198	1.14597	-0.753727	0.4026	-0.267994	
5.57709	0	0	0.443665	0.28958	0.180651	-0.118041	0.428137	-0.039597	0.429096	0.462088	1.49271	-0.968778	0.566531	0.730027	0.737475	0.441097	0.537459	0.235821	0.286987	0.188789	0.346027	-0.224788	0.409429	0.123679	0.48251	0.161142	0.743415	0.108833	0.509567	-0.029144	1.15821	-0.761723	0.4026	-0.267994	
5.57556	0	0	0.442641	0.292473	0.183482	-0.119891	0.421959	-0.03363	0.431629	0.464206	1.49271	-0.968778	0.568128	0.725513	0.73862	0.437861	0.53409	0.22894	0.286987	0.188789	0.339928	-0.220802	0.414469	0.122411	0.478425	0.161431	0.746352	0.112098	0.499884	-0.0192257	1.16638	-0.76706	0.406255	-0.270382	
5.57403	0	0	0.441618	0.295365	0.186312	-0.121741	0.41578	-0.027663	0.434163	0.466324	1.49271	-0.968778	0.569725	0.721	0.739766	0.434624	0.53072	0.222058	0.286987	0.188789	0.333828	-0.216817	0.419509	0.121143	0.474339	0.161719	0.749289	0.115362	0.4902	-0.0093075	1.17455	-0.772398	0.40991	-0.272771	
5.57709	0	0	0.440595	0.298257	0.189143	-0.12359	0.409602	-0.021696	0.436696	0.468442	1.49271	-0.968778	0.571322	0.716486	0.740911	0.431388	0.527351	0.215176	0.286987	0.188789	0.327729	-0.212832	0.424548	0.119874	0.470253	0.162007	0.752226	0.118626	0.480517	0.00061075	1.18272	-0.777735	0.413565	-0.275159	
5.57556	0	0	0.439571	0.30115	0.191974	-0.12544	0.403424	-0.015729	0.43923	0.47056	1.49271	-0.968778	0.572919	0.711972	0.742056	0.428152	0.523982	0.208295	0.286987	0.188789	0.32163	-0.208846	0.429588	0.118606	0.466168	0.162296	0.755163	0.121891	0.470834	0.010529	1.19088	-0.783072	0.41722	-0.277547	
5.57098	0	0	0.440649	0.311575	0.194806	-0.12729	0.401647	-0.0107063	0.442561	0.479716	1.49661	-0.971327	0.572919	0.711972	0.743201	0.424917	0.52355	0.20132	0.286987	0.188789	0.315535	-0.204864	0.428656	0.121241	0.472445	0.155814	0.753572	0.126389	0.474848	0.007906	1.19906	-0.788415	0.41722	-0.277547	
5.57556	0	0	0.441727	0.322	0.197637	-0.12914	0.399869	-0.0056835	0.445892	0.488872	1.50051	-0.973876	0.572919	0.711972	0.744345	0.421681	0.523119	0.194344	0.286987	0.188789	0.30944	-0.200881	0.427724	0.123875	0.478722	0.149333	0.75198	0.130887	0.478862	0.005283	1.20724	-0.793757	0.41722	-0.277547	
5.57861	0	0	0.442806	0.332425	0.200468	-0.13099	0.398091	-0.00066075	0.449223	0.498029	1.50441	-0.976425	0.572919	0.711972	0.74549	0.418446	0.522687	0.187368	0.286987	0.188789	0.303345	-0.196899	0.426791	0.12651	0.484999	0.142851	0.750389	0.135385	0.482877	0.00266	1.21541	-0.799099	0.41722	-0.277547	
5.58319	0	0	0.443884	0.34285	0.2033	-0.13284	0.396314	0.004362	0.452554	0.507185	1.50831	-0.978974	0.572919	0.711972	0.746634	0.415211	0.522255	0.180393	0.286987	0.188789	0.29725	-0.192916	0.425859	0.129145	0.491276	0.13637	0.748797	0.139883	0.486891	3.7E-05	1.22359	-0.804442	0.41722	-0.277547	
5.58319	0	0	0.43978	0.354448	0.2033	-0.13284	0.395425	0.0068745	0.449072	0.517026	1.50831	-0.978974	0.575308	0.720827	0.74549	0.418446	0.52142	0.182752	0.28586	0.191974	0.294204	-0.190926	0.428103	0.135787	0.483903	0.145949	0.746408	0.146634	0.49079	0.006475	1.23177	-0.809789	0.424534	-0.282326	
5.58624	0	0	0.435677	0.366046	0.2033	-0.13284	0.394536	0.009387	0.445589	0.526867	1.50831	-0.978974	0.577697	0.729682	0.744345	0.421681	0.520586	0.185111	0.284733	0.195158	0.291158	-0.188936	0.430347	0.142429	0.47653	0.155527	0.74402	0.153385	0.494688	0.012913	1.23996	-0.815136	0.431848	-0.287106	
5.59387	0	0	0.431573	0.377645	0.2033	-0.13284	0.393647	0.0118995	0.442107	0.536707	1.50831	-0.978974	0.580085	0.738537	0.743201	0.424917	0.519751	0.18747	0.283607	0.198343	0.288113	-0.186945	0.432591	0.149072	0.469158	0.165106	0.741631	0.160136	0.498587	0.019351	1.24814	-0.820484	0.439163	-0.291885	
5.59387	0	0	0.427469	0.389243	0.2033	-0.13284	0.392758	0.014412	0.438625	0.546548	1.50831	-0.978974	0.582474	0.747392	0.742056	0.428152	0.518916	0.189829	0.28248	0.201527	0.285067	-0.184955	0.434835	0.155714	0.461785	0.174685	0.739242	0.166887	0.502486	0.025789	1.25632	-0.825831	0.446477	-0.296664	
5.59845	0	0	0.426442	0.392145	0.206132	-0.134691	0.386582	0.0203795	0.44203	0.546215	1.50441	-0.976425	0.580085	0.738537	0.744345	0.421683	0.518483	0.18286	0.283607	0.198343	0.282022	-0.182966	0.434835	0.155714	0.459893	0.16878	0.739242	0.166887	0.49764	0.0307537	1.25223	-0.823157	0.443575	-0.29641	
5.60608	0	0	0.425415	0.395046	0.208965	-0.136542	0.380406	0.026347	0.445436	0.545883	1.50051	-0.973876	0.577697	0.729682	0.746634	0.415214	0.51805	0.175891	0.284733	0.195158	0.278977	-0.180976	0.434835	0.155714	0.458002	0.162876	0.739242	0.166887	0.492795	0.0357185	1.24814	-0.820483	0.440673	-0.296156	
5.60913	0	0	0.424388	0.397948	0.211797	-0.138393	0.37423	0.0323145	0.448842	0.545551	1.49661	-0.971327	0.575308	0.720827	0.748923	0.408745	0.517617	0.168922	0.28586	0.191974	0.275933	-0.178986	0.434835	0.155714	0.45611	0.156971	0.739242	0.166887	0.487949	0.0406833	1.24404	-0.817808	0.43777	-0.295901	
5.60913	0	0	0.423361	0.40085	0.21463	-0.140244	0.368054	0.038282	0.452247	0.545218	1.49271	-0.968778	0.572919	0.711972	0.751212	0.402276	0.517184	0.161953	0.286987	0.188789	0.272888	-0.176997	0.434835	0.155714	0.454218	0.151066	0.739242	0.166887	0.483103	0.045648	1.23995	-0.815134	0.434868	-0.295647	
5.61218	0	0	0.425456	0.408412	0.220298	-0.143947	0.366275	0.0433105	0.456448	0.551945	1.49271	-0.968778	0.572919	0.711972	0.745963	0.400736	0.520954	0.159489	0.289239	0.182424	0.269845	-0.175008	0.428859	0.159619	0.454218	0.151066	0.733122	0.172617	0.480618	0.0526698	1.23995	-0.815134	0.434112	-0.293511	
5.61981	0	0	0.42755	0.415975	0.225965	-0.147651	0.364495	0.048339	0.460648	0.558671	1.49271	-0.968778	0.572919	0.711972	0.740714	0.399196	0.524725	0.157026	0.291492	0.176059	0.266801	-0.173019	0.422884	0.163523	0.454218	0.151066	0.727003	0.178347	0.478133	0.0596915	1.23995	-0.815134	0.433356	-0.291376	
5.62134	0	0	0.429645	0.423538	0.231633	-0.151354	0.362716	0.0533675	0.464848	0.565398	1.49271	-0.968778	0.572919	0.711972	0.735465	0.397655	0.528496	0.154562	0.293745	0.169693	0.263757	-0.171031	0.416908	0.167428	0.454218	0.151066	0.720884	0.184076	0.475649	0.0667133	1.23995	-0.815134	0.432601	-0.28924	
5.62591	0	0	0.43174	0.4311	0.237301	-0.155057	0.360937	0.058396	0.469049	0.572125	1.49271	-0.968778	0.572919	0.711972	0.730216	0.396115	0.532266	0.152098	0.295997	0.163328	0.260714	-0.169042	0.410932	0.171333	0.454218	0.151066	0.714764	0.189806	0.473164	0.073735	1.23995	-0.815134	0.431845	-0.287104	
5.62897	0	0	0.430712	0.434006	0.240136	-0.15691	0.361827	0.0558815	0.463977	0.567861	1.48491	-0.963684	0.557788	0.707996	0.724972	0.394575	0.52346	0.152418	0.290095	0.162294	0.257671	-0.167054	0.40813	0.179251	0.445756	0.163736	0.711575	0.198818	0.470547	0.0898615	1.24329	-0.815674	0.435503	-0.289494	
5.63354	0	0	0.429683	0.436913	0.242972	-0.158763	0.362716	0.053367	0.458905	0.563597	1.47712	-0.958589	0.542656	0.70402	0.719728	0.393035	0.514655	0.152738	0.284193	0.161261	0.254628	-0.165066	0.405328	0.187169	0.437295	0.176405	0.708387	0.20783	0.46793	0.105988	1.24663	-0.816213	0.439161	-0.291884	
5.63354	0	0	0.428654	0.43982	0.245807	-0.160615	0.363606	0.0508525	0.453834	0.559333	1.46932	-0.953495	0.527525	0.700043	0.714485	0.391496	0.505849	0.153058	0.278291	0.160227	0.251586	-0.163078	0.402526	0.195088	0.428834	0.189075	0.705198	0.216841	0.465313	0.122115	1.24996	-0.816752	0.442819	-0.294274	
5.63507	0	0	0.427626	0.442726	0.248642	-0.162468	0.364496	0.048338	0.448762	0.555069	1.46152	-0.9484	0.512394	0.696067	0.709241	0.389956	0.497043	0.153378	0.272389	0.159193	0.248543	-0.16109	0.399724	0.203006	0.420372	0.201745	0.702009	0.225853	0.462696	0.138241	1.2533	-0.817292	0.446477	-0.296664	
5.63507	0	0	0.427626	0.442726	0.251478	-0.164321	0.363606	0.0508525	0.450504	0.550145	1.45763	-0.945855	0.510012	0.687244	0.705143	0.385191	0.496609	0.146423	0.275762	0.14966	0.242461	-0.157116	0.394687	0.204268	0.416296	0.202027	0.702009	0.225853	0.462696	0.138241	1.2574	-0.819968	0.446477	-0.296664	
5.63507	0	0	0.427626	0.442726	0.254314	-0.166175	0.362716	0.053367	0.452247	0.54522	1.45373	-0.943309	0.507631	0.678421	0.701045	0.380426	0.496175	0.139468	0.279135	0.140128	0.236379	-0.153142	0.389649	0.20553	0.41222	0.20231	0.702009	0.225853	0.462696	0.138241	1.26149	-0.822644	0.446477	-0.296664	
5.63507	0	0	0.427626	0.442726	0.257151	-0.168028	0.361827	0.0558815	0.45399	0.540296	1.44984	-0.940763	0.50525	0.669598	0.696948	0.375661	0.495741	0.132513	0.282508	0.130595	0.230298	-0.149168	0.384611	0.206792	0.408144	0.202592	0.702009	0.225853	0.462696	0.138241	1.26559	-0.825319	0.446477	-0.296664	
5.6366	0	0	0.427626	0.442726	0.259987	-0.169881	0.360937	0.058396	0.455732	0.535371	1.44594	-0.938218	0.502868	0.660775	0.69285	0.370896	0.495307	0.125558	0.285881	0.121062	0.224216	-0.145194	0.379574	0.208054	0.404068	0.202874	0.702009	0.225853	0.462696	0.138241	1.26968	-0.827995	0.446477	-0.296664	
5.63965	0	0	0.423509	0.454362	0.265662	-0.173589	0.359157	0.0634275	0.450584	0.540627	1.44205	-0.935674	0.498896	0.65646	0.69285	0.370896	0.494474	0.127911	0.277736	0.126384	0.224216	-0.145194	0.370803	0.219876	0.402972	0.205971	0.695094	0.233838	0.457017	0.145561	1.26559	-0.825319	0.450136	-0.299055	
5.6366	0	0	0.419392	0.465998	0.271338	-0.177297	0.357376	0.068459	0.445437	0.545883	1.43815	-0.933129	0.494924	0.652145	0.69285	0.370896	0.493642	0.130264	0.269591	0.131706	0.224216	-0.145194	0.362032	0.231698	0.401876	0.209068	0.688179	0.241823	0.451338	0.15288	1.26149	-0.822644	0.453796	-0.301446	
5.63202	0	0	0.415274	0.477634	0.277013	-0.181006	0.355596	0.0734905	0.440289	0.55114	1.43426	-0.930585	0.490952	0.647829	0.69285	0.370896	0.49281	0.132617	0.261447	0.137028	0.224216	-0.145194	0.353261	0.243521	0.40078	0.212165	0.681264	0.249808	0.445659	0.160199	1.2574	-0.819968	0.457456	-0.303838	
5.63507	0	0	0.411157	0.48927	0.282688	-0.184714	0.353816	0.078522	0.435141	0.556396	1.43037	-0.928041	0.48698	0.643514	0.69285	0.370896	0.491977	0.13497	0.253302	0.14235	0.224216	-0.145194	0.34449	0.255343	0.399684	0.215262	0.674349	0.257793	0.43998	0.167519	1.2533	-0.817292	0.461115	-0.306229	
5.63202	0	0	0.412187	0.48636	0.285527	-0.186569	0.352926	0.0810385	0.43522	0.546886	1.42647	-0.925498	0.479044	0.634899	0.689895	0.362916	0.483187	0.135288	0.254426	0.139175	0.221176	-0.143208	0.343555	0.257986	0.393419	0.221738	0.671156	0.266819	0.435824	0.179265	1.2533	-0.817292	0.460359	-0.304093	
5.62591	0	0	0.413216	0.483449	0.288366	-0.188424	0.352035	0.083555	0.435299	0.537376	1.42258	-0.922955	0.471109	0.626283	0.68694	0.354936	0.474397	0.135606	0.255549	0.135999	0.218137	-0.141222	0.34262	0.260628	0.387154	0.228214	0.667962	0.275844	0.431667	0.191012	1.2533	-0.817292	0.459603	-0.301956	
5.63049	0	0	0.414246	0.480538	0.291205	-0.190279	0.351145	0.0860715	0.435377	0.527867	1.41869	-0.920411	0.463173	0.617668	0.683986	0.346955	0.465607	0.135924	0.256673	0.132824	0.215097	-0.139236	0.341685	0.263271	0.380889	0.234689	0.664768	0.284869	0.427511	0.202758	1.2533	-0.817292	0.458848	-0.29982	
5.62591	0	0	0.415276	0.477628	0.294044	-0.192134	0.350254	0.088588	0.435456	0.518357	1.4148	-0.917868	0.455237	0.609053	0.681031	0.338975	0.456817	0.136242	0.257796	0.129649	0.212058	-0.13725	0.34075	0.265914	0.374624	0.241165	0.661575	0.293895	0.423355	0.214504	1.2533	-0.817292	0.458092	-0.297684	
5.62439	0	0	0.415276	0.477628	0.296884	-0.19399	0.349363	0.0911055	0.433793	0.513775	1.41166	-0.917469	0.445729	0.604934	0.683309	0.332536	0.450964	0.136452	0.257796	0.129649	0.20902	-0.135265	0.333851	0.272454	0.368362	0.247639	0.661575	0.293895	0.416988	0.215051	1.24512	-0.811945	0.455188	-0.297429	
5.62134	0	0	0.415276	0.477628	0.299724	-0.195846	0.348473	0.093623	0.432129	0.509193	1.40853	-0.917069	0.436221	0.600815	0.685588	0.326098	0.445111	0.136662	0.257796	0.129649	0.205981	-0.133279	0.326952	0.278994	0.3621	0.254114	0.661575	0.293895	0.41062	0.215598	1.23693	-0.806598	0.452284	-0.297174	
5.61981	0	0	0.415276	0.477628	0.302564	-0.197701	0.347582	0.0961405	0.430466	0.504611	1.4054	-0.91667	0.426712	0.596695	0.687866	0.319659	0.439259	0.136872	0.257796	0.129649	0.202943	-0.131294	0.320054	0.285534	0.355837	0.260589	0.661575	0.293895	0.404253	0.216145	1.22875	-0.80125	0.449381	-0.296919	
5.61523	0	0	0.415276	0.477628	0.305404	-0.199557	0.346691	0.098658	0.428803	0.500029	1.40227	-0.916271	0.417204	0.592576	0.690144	0.31322	0.433406	0.137082	0.257796	0.129649	0.199905	-0.129309	0.313155	0.292074	0.349575	0.267063	0.661575	0.293895	0.397886	0.216692	1.22057	-0.795903	0.446477	-0.296664	
5.61676	0	0	0.413216	0.48345	0.308245	-0.201413	0.344017	0.106214	0.427064	0.504944	1.40227	-0.916271	0.41562	0.597054	0.681495	0.321346	0.4355	0.139328	0.256673	0.132824	0.196868	-0.127324	0.30626	0.298612	0.347381	0.273265	0.65546	0.299627	0.395536	0.214616	1.22057	-0.795903	0.442819	-0.294274	
5.61371	0	0	0.411156	0.489271	0.311086	-0.203269	0.341344	0.113771	0.425324	0.509859	1.40227	-0.916271	0.414036	0.601531	0.672847	0.329472	0.437593	0.141574	0.255549	0.135999	0.193831	-0.125339	0.299365	0.30515	0.345186	0.279467	0.649344	0.305358	0.393186	0.212539	1.22057	-0.795903	0.439161	-0.291884	
5.61371	0	0	0.409096	0.495093	0.313926	-0.205126	0.33867	0.121328	0.423585	0.514774	1.40227	-0.916271	0.412451	0.606008	0.664198	0.337598	0.439687	0.143821	0.254426	0.139175	0.190793	-0.123355	0.29247	0.311688	0.342992	0.285669	0.643229	0.31109	0.390836	0.210463	1.22057	-0.795903	0.435503	-0.289494	
5.60913	0	0	0.407036	0.500915	0.316767	-0.206982	0.335996	0.128884	0.421846	0.519689	1.40227	-0.916271	0.410867	0.610486	0.655549	0.345724	0.441781	0.146067	0.253302	0.14235	0.187756	-0.12137	0.285575	0.318226	0.340797	0.291871	0.637114	0.316821	0.388486	0.208387	1.22057	-0.795903	0.431845	-0.287104	
5.6076	0	0	0.403921	0.496239	0.313926	-0.205126	0.337779	0.123846	0.418522	0.510531	1.40227	-0.916271	0.408495	0.601714	0.657827	0.339287	0.436763	0.143925	0.245165	0.147667	0.185476	-0.121522	0.280556	0.319473	0.335635	0.295244	0.631002	0.322551	0.380467	0.213627	1.21239	-0.79056	0.431089	-0.284968	
5.60608	0	0	0.400805	0.491562	0.311086	-0.203269	0.339562	0.118807	0.415199	0.501373	1.40227	-0.916271	0.406122	0.592942	0.660104	0.332851	0.431744	0.141783	0.237028	0.152984	0.183196	-0.121674	0.275536	0.32072	0.330472	0.298617	0.62489	0.32828	0.372447	0.218867	1.20421	-0.785218	0.430333	-0.282832	
5.59997	0	0	0.397689	0.486885	0.308245	-0.201413	0.341344	0.113769	0.411875	0.492216	1.40227	-0.916271	0.40375	0.584171	0.662381	0.326414	0.426726	0.139641	0.22889	0.158301	0.180915	-0.121826	0.270516	0.321967	0.32531	0.301991	0.618778	0.33401	0.364428	0.224107	1.19604	-0.779876	0.429578	-0.280695	
5.5954	0	0	0.394574	0.482209	0.305404	-0.199557	0.343127	0.108731	0.408551	0.483058	1.40227	-0.916271	0.401378	0.575399	0.664659	0.319978	0.421708	0.137499	0.220753	0.163618	0.178635	-0.121978	0.265497	0.323214	0.320147	0.305364	0.612666	0.33974	0.356409	0.229347	1.18786	-0.774533	0.428822	-0.278559	
5.59692	0	0	0.396632	0.476393	0.302564	-0.197701	0.338734	0.109665	0.411155	0.475699	1.40227	-0.916271	0.395843	0.575578	0.659431	0.318449	0.415864	0.137706	0.221877	0.160443	0.181671	-0.123962	0.257339	0.32042	0.322341	0.299162	0.608954	0.338693	0.350205	0.220774	1.17561	-0.766529	0.417857	-0.271394	
5.5954	0	0	0.39869	0.470577	0.299724	-0.195846	0.334342	0.110599	0.413759	0.46834	1.40227	-0.916271	0.390308	0.575758	0.654204	0.31692	0.410019	0.137913	0.223	0.157268	0.184707	-0.125945	0.24918	0.317626	0.324535	0.292961	0.605243	0.337647	0.344002	0.212202	1.16336	-0.758525	0.406893	-0.26423	
5.59082	0	0	0.400747	0.464761	0.296884	-0.19399	0.32995	0.111533	0.416363	0.46098	1.40227	-0.916271	0.384772	0.575937	0.648977	0.315391	0.404175	0.13812	0.224124	0.154092	0.187743	-0.127929	0.241022	0.314831	0.32673	0.286759	0.601531	0.336601	0.337799	0.20363	1.15112	-0.750522	0.395928	-0.257066	
5.58472	0	0	0.402805	0.458945	0.294044	-0.192134	0.325557	0.112467	0.418967	0.453621	1.40227	-0.916271	0.379237	0.576117	0.643749	0.313862	0.398331	0.138327	0.225248	0.150917	0.190779	-0.129913	0.232864	0.312037	0.328924	0.280557	0.597819	0.335554	0.331595	0.195057	1.13887	-0.742518	0.384964	-0.249901	
5.58166	0	0	0.402805	0.458945	0.291205	-0.190279	0.33084	0.109015	0.412965	0.461314	1.40151	-0.914128	0.378436	0.593843	0.648977	0.315391	0.3975	0.140676	0.224124	0.154092	0.19306	-0.129762	0.230656	0.305364	0.322667	0.287029	0.594908	0.332251	0.328567	0.186232	1.13071	-0.737188	0.377662	-0.24513	
5.57861	0	0	0.402805	0.458945	0.288366	-0.188424	0.336124	0.105563	0.406963	0.469007	1.40075	-0.911985	0.377636	0.611569	0.654204	0.31692	0.396669	0.143024	0.223	0.157268	0.195342	-0.129611	0.228448	0.29869	0.316411	0.2935	0.591997	0.328948	0.325539	0.177407	1.12255	-0.731858	0.37036	-0.240359	
5.58014	0	0	0.402805	0.458945	0.285527	-0.186569	0.341408	0.10211	0.400962	0.4767	1.39999	-0.909843	0.376835	0.629296	0.659431	0.318449	0.395838	0.145372	0.221877	0.160443	0.197624	-0.12946	0.226241	0.292017	0.310154	0.299972	0.589087	0.325646	0.322511	0.168582	1.1144	-0.726529	0.363058	-0.235587	
5.57251	0	0	0.402805	0.458945	0.282688	-0.184714	0.346691	0.098658	0.39496	0.484393	1.39924	-0.9077	0.376034	0.647022	0.664659	0.319978	0.395007	0.147721	0.220753	0.163618	0.199905	-0.129309	0.224033	0.285344	0.303898	0.306443	0.586176	0.322343	0.319483	0.159757	1.10624	-0.721199	0.355756	-0.230816	
5.57098	0	0	0.401744	0.448473	0.27985	-0.18286	0.344079	0.0945602	0.390772	0.477705	1.39222	-0.904762	0.381571	0.64685	0.650797	0.326563	0.393749	0.143128	0.219629	0.166795	0.197624	-0.12946	0.226832	0.277435	0.300936	0.303613	0.587772	0.317833	0.313973	0.157962	1.10216	-0.718536	0.349216	-0.228185	
5.56793	0	0	0.400682	0.438001	0.277011	-0.181005	0.341467	0.0904625	0.386584	0.471017	1.3852	-0.901825	0.387108	0.646678	0.636935	0.333147	0.39249	0.138535	0.218506	0.169971	0.195342	-0.129611	0.229631	0.269526	0.297973	0.300783	0.589368	0.313323	0.308464	0.156166	1.09809	-0.715874	0.342676	-0.225554	
5.56335	0	0	0.39962	0.427529	0.274173	-0.17915	0.338855	0.0863648	0.382396	0.464329	1.37818	-0.898887	0.392645	0.646506	0.623074	0.339732	0.391232	0.133942	0.217382	0.173148	0.19306	-0.129762	0.232429	0.261617	0.29501	0.297952	0.590963	0.308812	0.302954	0.15437	1.09401	-0.713211	0.336137	-0.222923	
5.56183	0	0	0.398559	0.417057	0.271335	-0.177296	0.336243	0.082267	0.378208	0.457641	1.37117	-0.895949	0.398182	0.646334	0.609212	0.346317	0.389974	0.129349	0.216258	0.176324	0.190779	-0.129913	0.235228	0.253708	0.292048	0.295122	0.592559	0.304302	0.297444	0.152575	1.08994	-0.710548	0.329597	-0.220292	
5.55725	0	0	0.40989	0.398505	0.265662	-0.173589	0.339802	0.07221	0.385936	0.445061	1.36728	-0.89341	0.396595	0.650818	0.611487	0.339888	0.387885	0.127106	0.217382	0.173148	0.184708	-0.125946	0.233017	0.247054	0.296431	0.282735	0.591242	0.296501	0.293732	0.137046	1.07772	-0.702567	0.318665	-0.213149	
5.5603	0	0	0.421222	0.379953	0.259989	-0.169882	0.343361	0.062153	0.393663	0.432482	1.3634	-0.890872	0.395008	0.655302	0.613762	0.333458	0.385796	0.124863	0.218506	0.169971	0.178637	-0.121979	0.230805	0.2404	0.300813	0.270349	0.589925	0.2887	0.29002	0.121517	1.06551	-0.694585	0.307733	-0.206006	
5.55115	0	0	0.432553	0.361402	0.254315	-0.166175	0.346919	0.052096	0.401391	0.419902	1.35951	-0.888333	0.393422	0.659787	0.616037	0.327028	0.383708	0.12262	0.219629	0.166795	0.172566	-0.118012	0.228594	0.233746	0.305196	0.257962	0.588609	0.280899	0.286308	0.105988	1.0533	-0.686604	0.296801	-0.198863	
5.54504	0	0	0.443884	0.34285	0.248642	-0.162468	0.350478	0.042039	0.409119	0.407322	1.35563	-0.885794	0.391835	0.664271	0.618312	0.320599	0.381619	0.120377	0.220753	0.163618	0.166495	-0.114045	0.226383	0.227092	0.309579	0.245576	0.587292	0.273098	0.282596	0.090459	1.04108	-0.678623	0.285869	-0.19172	
5.54657	0	0	0.444909	0.339953	0.248642	-0.162468	0.357539	0.0335625	0.41165	0.409432	1.35563	-0.885794	0.406884	0.668245	0.623533	0.32213	0.386198	0.115582	0.221877	0.160443	0.163461	-0.112062	0.236045	0.212689	0.308802	0.236574	0.596577	0.258381	0.283556	0.0790817	1.04108	-0.678623	0.274951	-0.184586	
5.54199	0	0	0.445935	0.337056	0.248642	-0.162468	0.3646	0.025086	0.414181	0.411542	1.35563	-0.885794	0.421934	0.672219	0.628755	0.323661	0.390777	0.110786	0.223	0.157268	0.160427	-0.11008	0.245706	0.198287	0.308026	0.227572	0.605861	0.243664	0.284516	0.0677045	1.04108	-0.678623	0.264033	-0.177451	
5.54352	0	0	0.44696	0.334158	0.248642	-0.162468	0.371662	0.0166095	0.416713	0.413652	1.35563	-0.885794	0.436984	0.676193	0.633977	0.325192	0.395357	0.10599	0.224124	0.154092	0.157393	-0.108097	0.255368	0.183885	0.30725	0.21857	0.615146	0.228947	0.285475	0.0563272	1.04108	-0.678623	0.253115	-0.170317	
5.53741	0	0	0.447985	0.331261	0.248642	-0.162468	0.378723	0.008133	0.419244	0.415762	1.35563	-0.885794	0.452033	0.680167	0.639198	0.326723	0.399936	0.101195	0.225248	0.150917	0.154359	-0.106115	0.26503	0.169482	0.306473	0.209568	0.62443	0.21423	0.286435	0.04495	1.04108	-0.678623	0.242197	-0.163183	
5.53741	0	0	0.445882	0.323733	0.242972	-0.158763	0.376104	0.00405425	0.422708	0.405973	1.35098	-0.881114	0.448851	0.68916	0.640336	0.323508	0.398675	0.096612	0.226371	0.147743	0.145263	-0.100172	0.272833	0.160342	0.303509	0.206755	0.626021	0.209733	0.28492	0.0405712	1.03701	-0.675965	0.242197	-0.163183	
5.53284	0	0	0.443778	0.316206	0.237302	-0.155058	0.373486	-2.45E-05	0.426172	0.396183	1.34634	-0.876433	0.445669	0.698154	0.641474	0.320292	0.397415	0.092029	0.227494	0.144568	0.136168	-0.094229	0.280635	0.151203	0.300544	0.203942	0.627613	0.205236	0.283405	0.0361925	1.03295	-0.673307	0.242197	-0.163183	
5.52978	0	0	0.441674	0.308678	0.231633	-0.151354	0.370867	-0.00410325	0.429636	0.386394	1.3417	-0.871753	0.442486	0.707148	0.642611	0.317077	0.396154	0.087446	0.228617	0.141394	0.127073	-0.088286	0.288438	0.142063	0.29758	0.20113	0.629204	0.20074	0.281889	0.0318138	1.02888	-0.67065	0.242197	-0.163183	
5.52521	0	0	0.439571	0.30115	0.225963	-0.147649	0.368248	-0.008182	0.4331	0.376604	1.33706	-0.867073	0.439304	0.716141	0.643749	0.313862	0.394893	0.082863	0.22974	0.13822	0.117977	-0.082343	0.296241	0.132924	0.294616	0.198317	0.630795	0.196243	0.280374	0.027435	1.02481	-0.667992	0.242197	-0.163183	
5.52826	0	0	0.443663	0.289586	0.22313	-0.145798	0.371798	-0.0182135	0.435696	0.369269	1.33706	-0.867073	0.449633	0.702478	0.644886	0.310648	0.399036	0.0711538	0.224978	0.134016	0.111919	-0.0783843	0.300886	0.119797	0.297108	0.18009	0.636358	0.180522	0.277343	0.0186905	1.0215	-0.66747	0.231293	-0.156058	
5.52368	0	0	0.447754	0.278021	0.220297	-0.143947	0.375347	-0.028245	0.438291	0.361934	1.33706	-0.867073	0.459962	0.688814	0.646024	0.307434	0.40318	0.0594445	0.220216	0.129812	0.10586	-0.0744255	0.305531	0.10667	0.299601	0.161863	0.64192	0.164801	0.274313	0.009946	1.01819	-0.666948	0.220388	-0.148933	
5.52063	0	0	0.451846	0.266457	0.217463	-0.142095	0.378897	-0.0382765	0.440886	0.354598	1.33706	-0.867073	0.470291	0.67515	0.647161	0.304219	0.407323	0.0477353	0.215453	0.125609	0.0998022	-0.0704667	0.310176	0.0935422	0.302094	0.143636	0.647482	0.149081	0.271282	0.0012015	1.01488	-0.666426	0.209484	-0.141808	
5.5191	0	0	0.455938	0.254893	0.21463	-0.140244	0.382446	-0.048308	0.443482	0.347263	1.33706	-0.867073	0.48062	0.661487	0.648298	0.301005	0.411466	0.036026	0.210691	0.121405	0.093744	-0.066508	0.314821	0.080415	0.304586	0.125409	0.653045	0.13336	0.268251	-0.007543	1.01157	-0.665904	0.19858	-0.134683	
5.52063	0	0	0.462139	0.250841	0.21463	-0.140244	0.388616	-0.0542665	0.446018	0.349365	1.33706	-0.867073	0.486182	0.661309	0.649435	0.297792	0.414776	0.0266698	0.214054	0.111899	0.0899607	-0.062394	0.332284	0.056913	0.304887	0.11338	0.657805	0.119907	0.27318	-0.0214717	1.00675	-0.661114	0.194948	-0.13231	
5.51605	0	0	0.46834	0.246789	0.21463	-0.140244	0.394787	-0.060225	0.448553	0.351467	1.33706	-0.867073	0.491744	0.661131	0.650572	0.294579	0.418087	0.0173135	0.217418	0.102393	0.0861775	-0.05828	0.349747	0.033411	0.305188	0.101352	0.662565	0.106454	0.278108	-0.0354005	1.00193	-0.656324	0.191317	-0.129937	
5.51605	0	0	0.47454	0.242738	0.21463	-0.140244	0.400957	-0.0661835	0.451089	0.353569	1.33706	-0.867073	0.497306	0.660953	0.651709	0.291366	0.421397	0.00795725	0.220782	0.0928877	0.0823943	-0.054166	0.367209	0.009909	0.30549	0.0893235	0.667326	0.093001	0.283037	-0.0493292	0.997112	-0.651534	0.187686	-0.127565	
5.50995	0	0	0.480741	0.238686	0.21463	-0.140244	0.407127	-0.072142	0.453625	0.355671	1.33706	-0.867073	0.502868	0.660775	0.652846	0.288153	0.424708	-0.001399	0.224145	0.083382	0.078611	-0.050052	0.384672	-0.013593	0.305791	0.077295	0.672086	0.079548	0.287965	-0.063258	0.992293	-0.646744	0.184054	-0.125192	
5.51147	0	0	0.481763	0.235797	0.21463	-0.140244	0.407127	-0.072142	0.453625	0.355671	1.33318	-0.864537	0.514007	0.660414	0.651709	0.291366	0.426362	-0.0060735	0.226385	0.0770505	0.078611	-0.050052	0.387451	-0.0214463	0.31311	0.0677855	0.685079	0.0658922	0.290426	-0.070214	0.997112	-0.651534	0.18481	-0.127327	
5.50537	0	0	0.482785	0.232909	0.21463	-0.140244	0.407127	-0.072142	0.453625	0.355671	1.3293	-0.862	0.525146	0.660053	0.650572	0.294579	0.428016	-0.010748	0.228626	0.070719	0.078611	-0.050052	0.39023	-0.0292995	0.32043	0.058276	0.698073	0.0522365	0.292888	-0.07717	1.00193	-0.656324	0.185565	-0.129463	
5.50232	0	0	0.483808	0.23002	0.21463	-0.140244	0.407127	-0.072142	0.453625	0.355671	1.32541	-0.859464	0.536286	0.659692	0.649435	0.297792	0.42967	-0.0154225	0.230866	0.0643875	0.078611	-0.050052	0.393008	-0.0371527	0.32775	0.0487665	0.711067	0.0385807	0.295349	-0.084126	1.00675	-0.661114	0.186321	-0.131599	
5.50232	0	0	0.48483	0.227131	0.21463	-0.140244	0.407127	-0.072142	0.453625	0.355671	1.32153	-0.856928	0.547425	0.659331	0.648298	0.301005	0.431324	-0.020097	0.233106	0.058056	0.078611	-0.050052	0.395787	-0.045006	0.335069	0.039257	0.72406	0.024925	0.29781	-0.091082	1.01157	-0.665904	0.187077	-0.133734	
5.49927	0	0	0.486873	0.221356	0.21463	-0.140244	0.409786	-0.0796562	0.460488	0.345549	1.32229	-0.859071	0.5522	0.645837	0.650572	0.29458	0.431708	-0.0293237	0.236463	0.048567	0.0725593	-0.0460977	0.405444	-0.0593578	0.328045	0.0367627	0.726436	0.018211	0.296289	-0.0954317	1.00751	-0.663249	0.190709	-0.136107	
5.49774	0	0	0.488916	0.215581	0.21463	-0.140244	0.412444	-0.0871705	0.467351	0.335427	1.32305	-0.861214	0.556975	0.632343	0.652845	0.288155	0.432091	-0.0385505	0.239821	0.039078	0.0665075	-0.0421435	0.4151	-0.0737095	0.321021	0.0342685	0.728811	0.011497	0.294768	-0.0997815	1.00344	-0.660594	0.19434	-0.13848	
5.49774	0	0	0.49096	0.209807	0.21463	-0.140244	0.415103	-0.0946847	0.474214	0.325305	1.32381	-0.863356	0.561749	0.61885	0.655118	0.28173	0.432475	-0.0477772	0.243179	0.029589	0.0604558	-0.0381893	0.424756	-0.0880613	0.313996	0.0317743	0.731187	0.004783	0.293246	-0.104131	0.999378	-0.657938	0.197971	-0.140853	
5.49621	0	0	0.493003	0.204032	0.21463	-0.140244	0.417762	-0.102199	0.481077	0.315183	1.32457	-0.865499	0.566524	0.605356	0.657392	0.275305	0.432859	-0.057004	0.246536	0.0201	0.054404	-0.034235	0.434413	-0.102413	0.306972	0.02928	0.733562	-0.001931	0.291725	-0.108481	0.995314	-0.655283	0.201603	-0.143226	
5.49469	0	0	0.500229	0.197092	0.217463	-0.142095	0.416876	-0.099695	0.484482	0.314836	1.32457	-0.865499	0.568114	0.600863	0.659664	0.268885	0.437432	-0.061786	0.24989	0.0106212	0.054404	-0.034235	0.442221	-0.111533	0.316455	0.0136493	0.741249	-0.0121113	0.29582	-0.120054	0.995314	-0.655283	0.197971	-0.140853	
5.49011	0	0	0.507456	0.190151	0.220297	-0.143947	0.41599	-0.097191	0.487888	0.31449	1.32457	-0.865499	0.569704	0.596369	0.661936	0.262464	0.442005	-0.066568	0.253244	0.0011425	0.054404	-0.034235	0.45003	-0.120652	0.325938	-0.0019815	0.748936	-0.0222915	0.299915	-0.131626	0.995314	-0.655283	0.19434	-0.13848	
5.49011	0	0	0.514682	0.18321	0.22313	-0.145798	0.415104	-0.094687	0.491293	0.314144	1.32457	-0.865499	0.571293	0.591876	0.664207	0.256044	0.446579	-0.07135	0.256598	-0.00833625	0.054404	-0.034235	0.457838	-0.129771	0.335421	-0.0176122	0.756623	-0.0324718	0.30401	-0.143199	0.995314	-0.655283	0.190709	-0.136107	
5.48859	0	0	0.521908	0.17627	0.225963	-0.147649	0.414218	-0.092183	0.494699	0.313797	1.32457	-0.865499	0.572883	0.587383	0.666479	0.249624	0.451152	-0.076132	0.259952	-0.017815	0.054404	-0.034235	0.465647	-0.138891	0.344904	-0.033243	0.76431	-0.042652	0.308105	-0.154772	0.995314	-0.655283	0.187077	-0.133734	
5.48401	0	0	0.525053	0.180873	0.22313	-0.145798	0.416845	-0.0881212	0.498919	0.320441	1.32457	-0.865499	0.575282	0.596185	0.671711	0.251142	0.459101	-0.0741478	0.261069	-0.0209723	0.058185	-0.0383475	0.476654	-0.144074	0.343819	-0.0301768	0.770417	-0.048361	0.309741	-0.159397	0.999378	-0.657938	0.190709	-0.136107	
5.48401	0	0	0.528199	0.185476	0.220297	-0.143947	0.419473	-0.0840595	0.503138	0.327085	1.32457	-0.865499	0.57768	0.604986	0.676942	0.252659	0.467049	-0.0721635	0.262186	-0.0241295	0.061966	-0.04246	0.48766	-0.149258	0.342734	-0.0271105	0.776524	-0.05407	0.311377	-0.164021	1.00344	-0.660594	0.19434	-0.13848	
5.48401	0	0	0.531344	0.19008	0.217463	-0.142095	0.4221	-0.0799978	0.507358	0.333728	1.32457	-0.865499	0.580079	0.613787	0.682173	0.254176	0.474997	-0.0701792	0.263304	-0.0272867	0.065747	-0.0465725	0.498667	-0.154441	0.341649	-0.0240442	0.782631	-0.059779	0.313014	-0.168646	1.00751	-0.663249	0.197971	-0.140853	
5.48401	0	0	0.534489	0.194683	0.21463	-0.140244	0.424727	-0.075936	0.511578	0.340372	1.32457	-0.865499	0.582477	0.622589	0.687405	0.255694	0.482946	-0.068195	0.264421	-0.030444	0.069528	-0.050685	0.509673	-0.159625	0.340564	-0.020978	0.788738	-0.065488	0.31465	-0.173271	1.01157	-0.665904	0.201603	-0.143226	
5.48096	0	0	0.533467	0.197572	0.217463	-0.142095	0.42384	-0.073429	0.509846	0.345268	1.32845	-0.868035	0.583279	0.635914	0.683994	0.265333	0.480082	-0.0519453	0.262186	-0.0241282	0.0748263	-0.052505	0.511019	-0.150453	0.346511	-0.0154267	0.796216	-0.063498	0.318521	-0.166908	1.0197	-0.671219	0.212507	-0.150351	
5.47943	0	0	0.532445	0.20046	0.220297	-0.143947	0.422953	-0.070922	0.508113	0.350164	1.33233	-0.870572	0.584082	0.649239	0.680584	0.274972	0.477219	-0.0356955	0.259952	-0.0178125	0.0801245	-0.054325	0.512365	-0.141282	0.352459	-0.0098755	0.803694	-0.061508	0.322391	-0.160545	1.02784	-0.676533	0.223411	-0.157476	
5.47638	0	0	0.531423	0.203349	0.22313	-0.145798	0.422066	-0.068415	0.506381	0.355061	1.33621	-0.873108	0.584885	0.662563	0.677173	0.284611	0.474356	-0.0194458	0.257717	-0.0114968	0.0854227	-0.056145	0.51371	-0.13211	0.358407	-0.00432425	0.811171	-0.059518	0.326262	-0.154181	1.03597	-0.681848	0.234316	-0.164601	
5.4718	0	0	0.530401	0.206238	0.225963	-0.147649	0.421179	-0.065908	0.504649	0.359957	1.34009	-0.875644	0.585687	0.675888	0.673762	0.29425	0.471492	-0.003196	0.255482	-0.005181	0.090721	-0.057965	0.515056	-0.122939	0.364354	0.001227	0.818649	-0.057528	0.330133	-0.147818	1.0441	-0.687162	0.24522	-0.171726	
5.4718	0	0	0.53457	0.207958	0.231633	-0.151354	0.418517	-0.0583832	0.508869	0.366619	1.34398	-0.878181	0.598463	0.671007	0.672624	0.297465	0.480723	0.0033785	0.263611	-0.0104928	0.090721	-0.057965	0.524233	-0.122898	0.366243	0.00707975	0.8216	-0.0542943	0.332479	-0.145791	1.05632	-0.695143	0.24522	-0.171726	
5.47638	0	0	0.538739	0.209678	0.237302	-0.155058	0.415854	-0.0508585	0.513089	0.373281	1.34786	-0.880719	0.611239	0.666126	0.671486	0.300681	0.489953	0.009953	0.27174	-0.0158045	0.090721	-0.057965	0.533411	-0.122857	0.368131	0.0129325	0.82455	-0.0510605	0.334824	-0.143763	1.06853	-0.703124	0.24522	-0.171726	
5.47027	0	0	0.542907	0.211397	0.242972	-0.158763	0.413191	-0.0433337	0.517309	0.379943	1.35174	-0.883256	0.624014	0.661245	0.670349	0.303897	0.499184	0.0165275	0.27987	-0.0211163	0.090721	-0.057965	0.542588	-0.122816	0.37002	0.0187852	0.8275	-0.0478268	0.33717	-0.141736	1.08075	-0.711105	0.24522	-0.171726	
5.47027	0	0	0.547076	0.213117	0.248642	-0.162468	0.410529	-0.035809	0.521529	0.386605	1.35563	-0.885794	0.63679	0.656364	0.669211	0.307112	0.508415	0.023102	0.287999	-0.026428	0.090721	-0.057965	0.551765	-0.122775	0.371908	0.024638	0.830451	-0.044593	0.339516	-0.139709	1.09296	-0.719086	0.24522	-0.171726	
5.47027	0	0	0.547151	0.226417	0.251478	-0.164321	0.410487	-0.0241973	0.521405	0.405564	1.36264	-0.888729	0.635995	0.674243	0.679682	0.310167	0.517272	0.0389788	0.292781	-0.022263	0.102842	-0.065885	0.558173	-0.114871	0.372707	0.033576	0.831024	-0.0346325	0.344211	-0.135651	1.10111	-0.724413	0.248858	-0.174103	
5.46417	0	0	0.547225	0.239717	0.254314	-0.166175	0.410445	-0.0125855	0.52128	0.424523	1.36965	-0.891665	0.635199	0.692122	0.690153	0.313221	0.526129	0.0548555	0.297563	-0.018098	0.114963	-0.073805	0.56458	-0.106966	0.373507	0.042514	0.831597	-0.024672	0.348905	-0.131593	1.10926	-0.729741	0.252495	-0.17648	
5.4657	0	0	0.5473	0.253017	0.257151	-0.168028	0.410403	-0.00097375	0.521155	0.443482	1.37667	-0.894601	0.634404	0.710002	0.700625	0.316275	0.534987	0.0707323	0.302345	-0.013933	0.127084	-0.081725	0.570988	-0.0990623	0.374306	0.051452	0.832169	-0.0147115	0.3536	-0.127534	1.11742	-0.735068	0.256133	-0.178857	
5.46417	0	0	0.547375	0.266317	0.259987	-0.169881	0.410361	0.010638	0.521031	0.462441	1.38368	-0.897536	0.633609	0.727881	0.711096	0.31933	0.543844	0.086609	0.307127	-0.009768	0.139205	-0.089645	0.577396	-0.091158	0.375105	0.06039	0.832742	-0.004751	0.358295	-0.123476	1.12557	-0.740395	0.259771	-0.181234	
5.46265	0	0	0.548469	0.276746	0.265662	-0.173589	0.405911	0.0232145	0.520092	0.474406	1.39146	-0.902619	0.640006	0.741105	0.705393	0.335447	0.548099	0.107376	0.299284	0.0123962	0.148307	-0.0955925	0.580089	-0.072718	0.378579	0.0842035	0.835467	0.0107277	0.361234	-0.105762	1.14114	-0.74893	0.277227	-0.190999	
5.45959	0	0	0.549563	0.287175	0.271338	-0.177297	0.401461	0.035791	0.519152	0.486372	1.39924	-0.907702	0.646404	0.754328	0.69969	0.351565	0.552353	0.128143	0.291442	0.0345605	0.157409	-0.10154	0.582782	-0.054278	0.382052	0.108017	0.838193	0.0262065	0.364173	-0.0880475	1.15672	-0.757464	0.294684	-0.200763	
5.45959	0	0	0.550658	0.297604	0.277013	-0.181006	0.397011	0.0483675	0.518212	0.498337	1.40702	-0.912785	0.652802	0.767551	0.693988	0.367682	0.556608	0.14891	0.2836	0.0567248	0.16651	-0.107487	0.585474	-0.035838	0.385525	0.131831	0.840918	0.0416853	0.367111	-0.0703332	1.17229	-0.765999	0.31214	-0.210527	
5.45654	0	0	0.551752	0.308033	0.282688	-0.184714	0.392561	0.060944	0.517273	0.510302	1.4148	-0.917868	0.659199	0.780775	0.688285	0.383799	0.560863	0.169677	0.275757	0.078889	0.175612	-0.113435	0.588167	-0.017398	0.388999	0.155644	0.843643	0.057164	0.37005	-0.052619	1.18786	-0.774533	0.329597	-0.220292	
5.45502	0	0	0.553871	0.315577	0.288367	-0.188425	0.388996	0.071018	0.518072	0.517358	1.42648	-0.925501	0.659199	0.780775	0.693524	0.385338	0.562568	0.181276	0.288687	0.0777557	0.188518	-0.12351	0.589509	-0.008153	0.394957	0.161261	0.845003	0.0649212	0.37475	-0.0485368	1.20013	-0.782548	0.329597	-0.220292	
5.45349	0	0	0.555989	0.323121	0.294046	-0.192136	0.385432	0.081092	0.518872	0.524414	1.43816	-0.933134	0.659199	0.780775	0.698763	0.386877	0.564273	0.192874	0.301617	0.0766225	0.201425	-0.133585	0.590851	0.001092	0.400914	0.166877	0.846364	0.0726785	0.379451	-0.0444545	1.2124	-0.790564	0.329597	-0.220292	
5.45196	5	0	0.558107	0.330665	0.299725	-0.195846	0.381868	0.091166	0.519672	0.531469	1.44984	-0.940767	0.659199	0.780775	0.704002	0.388417	0.565978	0.204473	0.314548	0.0754893	0.214332	-0.143661	0.592194	0.010337	0.406872	0.172493	0.847724	0.0804358	0.384151	-0.0403722	1.22466	-0.798579	0.329597	-0.220292	
5.45196	5	0	0.560226	0.338209	0.305404	-0.199557	0.378303	0.10124	0.520471	0.538525	1.46152	-0.9484	0.659199	0.780775	0.709241	0.389956	0.567683	0.216071	0.327478	0.074356	0.227238	-0.153736	0.593536	0.019582	0.41283	0.17811	0.849084	0.088193	0.388851	-0.03629	1.23693	-0.806595	0.329597	-0.220292	
5.44891	5	0	0.561314	0.348674	0.313929	-0.205128	0.372055	0.118897	0.52119	0.555137	1.46932	-0.953495	0.659989	0.794214	0.712198	0.39796	0.576115	0.225119	0.331143	0.0817273	0.23865	-0.159551	0.593942	0.031483	0.414405	0.196139	0.849645	0.098216	0.395085	-0.027826	1.24102	-0.809269	0.336892	-0.225059	
5.44586	5	0	0.562403	0.35914	0.322455	-0.210699	0.365808	0.136553	0.52191	0.571748	1.47712	-0.958589	0.660779	0.807652	0.715154	0.405965	0.584547	0.234167	0.334809	0.0890985	0.250063	-0.165366	0.594348	0.043384	0.415981	0.214168	0.850205	0.108239	0.401318	-0.019362	1.24512	-0.811943	0.344188	-0.229826	
5.44891	5	0	0.563491	0.369605	0.330981	-0.216269	0.35956	0.15421	0.522629	0.58836	1.48491	-0.963684	0.661569	0.821091	0.71811	0.413969	0.59298	0.243215	0.338475	0.0964698	0.261476	-0.171182	0.594753	0.055285	0.417556	0.232197	0.850766	0.118262	0.407552	-0.010898	1.24921	-0.814618	0.351484	-0.234594	
5.44586	5	0	0.564579	0.380071	0.339506	-0.22184	0.353312	0.171867	0.523348	0.604971	1.49271	-0.968778	0.662359	0.83453	0.721067	0.421973	0.601412	0.252263	0.34214	0.103841	0.272888	-0.176997	0.595159	0.067186	0.419132	0.250226	0.851327	0.128285	0.413785	-0.002434	1.2533	-0.817292	0.358779	-0.239361	
5.43976	5	0	0.557317	0.387054	0.34235	-0.223698	0.346235	0.180375	0.516516	0.605636	1.49976	-0.971734	0.655146	0.839243	0.717633	0.431678	0.601844	0.259271	0.335386	0.12293	0.285074	-0.184959	0.588614	0.085684	0.419594	0.271428	0.84494	0.146336	0.416716	0.015398	1.2574	-0.819968	0.368978	-0.244383	
5.43976	5	0	0.550055	0.394037	0.345193	-0.225556	0.339158	0.188883	0.509683	0.606301	1.5068	-0.974689	0.647933	0.843956	0.714198	0.441383	0.602275	0.26628	0.328631	0.142019	0.297259	-0.192921	0.582068	0.104182	0.420056	0.29263	0.838553	0.164386	0.419648	0.03323	1.26149	-0.822644	0.379178	-0.249405	
5.44128	5	0	0.542793	0.401019	0.348037	-0.227415	0.33208	0.197391	0.502851	0.606965	1.51385	-0.977645	0.640721	0.848669	0.710764	0.451089	0.602707	0.273288	0.321877	0.161109	0.309445	-0.200884	0.575523	0.12268	0.420518	0.313832	0.832166	0.182437	0.422579	0.051062	1.26559	-0.825319	0.389378	-0.254427	
5.43823	5	0	0.535531	0.408002	0.350881	-0.229273	0.325003	0.205899	0.496019	0.60763	1.52089	-0.980601	0.633508	0.853382	0.70733	0.460794	0.603139	0.280296	0.315122	0.180198	0.32163	-0.208846	0.568978	0.141178	0.42098	0.335034	0.825779	0.200488	0.425511	0.068894	1.26968	-0.827995	0.399577	-0.259449	
5.43671	5	0	0.534501	0.410913	0.353726	-0.231132	0.32232	0.213481	0.495145	0.610101	1.5287	-0.985705	0.629514	0.849011	0.713721	0.459107	0.603139	0.280296	0.319908	0.184421	0.327729	-0.212832	0.563357	0.157064	0.421756	0.344106	0.82498	0.202747	0.423028	0.075912	1.26559	-0.825319	0.399577	-0.259449	
5.43518	5	0	0.53347	0.413824	0.356571	-0.23299	0.319638	0.221063	0.494271	0.612572	1.53651	-0.990808	0.62552	0.844639	0.720112	0.457421	0.603139	0.280296	0.324693	0.188643	0.333828	-0.216817	0.557735	0.17295	0.422532	0.353179	0.82418	0.205006	0.420544	0.08293	1.26149	-0.822644	0.399577	-0.259449	
5.43213	5	0	0.53244	0.416736	0.359415	-0.234849	0.316955	0.228646	0.493396	0.615042	1.54432	-0.995912	0.621527	0.840267	0.726502	0.455734	0.603139	0.280296	0.329479	0.192866	0.339928	-0.220802	0.552114	0.188836	0.423307	0.362251	0.823381	0.207264	0.418061	0.089948	1.2574	-0.819968	0.399577	-0.259449	
5.43213	5	0	0.53141	0.419647	0.36226	-0.236708	0.314272	0.236228	0.492522	0.617513	1.55214	-1.00102	0.617533	0.835896	0.732893	0.454047	0.603139	0.280296	0.334264	0.197089	0.346027	-0.224788	0.546493	0.204722	0.424083	0.371323	0.822582	0.209523	0.415578	0.096966	1.2533	-0.817292	0.399577	-0.259449	
5.42908	5	0	0.526254	0.434218	0.365106	-0.238567	0.310691	0.246347	0.482984	0.635153	1.55604	-1.00357	0.615927	0.840435	0.729454	0.463766	0.60146	0.285041	0.330877	0.206659	0.352131	-0.228776	0.54875	0.211402	0.430046	0.377019	0.81564	0.217534	0.422643	0.103153	1.2533	-0.817292	0.403232	-0.261837	
5.42602	5	0	0.521099	0.448789	0.367951	-0.240427	0.307111	0.256467	0.473446	0.652794	1.55995	-1.00612	0.614321	0.844974	0.726015	0.473486	0.599781	0.289787	0.327491	0.216229	0.358234	-0.232764	0.551006	0.218081	0.436009	0.382715	0.808698	0.225544	0.429708	0.109341	1.2533	-0.817292	0.406887	-0.264226	
5.4306	5	0	0.515943	0.46336	0.370796	-0.242287	0.30353	0.266587	0.463908	0.670435	1.56386	-1.00868	0.612714	0.849513	0.722575	0.483206	0.598102	0.294532	0.324105	0.2258	0.364337	-0.236752	0.553262	0.224761	0.441973	0.388411	0.801756	0.233555	0.436772	0.115529	1.2533	-0.817292	0.410541	-0.266614	
5.42297	5	0	0.510787	0.477931	0.373642	-0.244146	0.299949	0.276706	0.45437	0.688075	1.56777	-1.01123	0.611108	0.854052	0.719136	0.492925	0.596423	0.299277	0.320718	0.23537	0.370441	-0.24074	0.555519	0.231441	0.447936	0.394107	0.794814	0.241566	0.443837	0.121716	1.2533	-0.817292	0.414196	-0.269002	
5.42297	5	0	0.506623	0.476169	0.376489	-0.246006	0.294662	0.280161	0.449303	0.683778	1.56853	-1.01337	0.603132	0.845316	0.720283	0.489684	0.589262	0.29484	0.318458	0.241756	0.370441	-0.24074	0.546692	0.243331	0.43943	0.406868	0.787875	0.249577	0.438856	0.135791	1.2533	-0.817292	0.414196	-0.269002	
5.42145	5	0	0.502459	0.474407	0.379335	-0.247866	0.289376	0.283615	0.444237	0.679482	1.56928	-1.01552	0.595156	0.83658	0.72143	0.486443	0.582102	0.290402	0.316199	0.248142	0.370441	-0.24074	0.537865	0.255221	0.430924	0.419629	0.780936	0.257587	0.433876	0.149866	1.2533	-0.817292	0.414196	-0.269002	
5.42145	5	0	0.498294	0.472645	0.382181	-0.249726	0.284089	0.287069	0.43917	0.675185	1.57004	-1.01766	0.58718	0.827844	0.722577	0.483202	0.574941	0.285965	0.31394	0.254527	0.370441	-0.24074	0.529038	0.26711	0.422419	0.43239	0.773996	0.265598	0.428895	0.163941	1.2533	-0.817292	0.414196	-0.269002	
5.41839	5	0	0.49413	0.470883	0.385028	-0.251586	0.278802	0.290524	0.434103	0.670888	1.5708	-1.01981	0.579204	0.819108	0.723724	0.479961	0.56778	0.281527	0.31168	0.260913	0.370441	-0.24074	0.520211	0.279	0.413913	0.445151	0.767057	0.273608	0.423915	0.178016	1.2533	-0.817292	0.414196	-0.269002	
5.42145	5	0	0.493098	0.473798	0.385028	-0.251586	0.277906	0.293056	0.434978	0.668416	1.56613	-1.01511	0.568038	0.819441	0.723724	0.479961	0.559791	0.279463	0.31168	0.260913	0.367389	-0.238746	0.514206	0.282924	0.413913	0.445151	0.763321	0.272573	0.419901	0.180639	1.24103	-0.809273	0.410541	-0.266614	
5.41839	5	0	0.492067	0.476714	0.385028	-0.251586	0.27701	0.295588	0.435852	0.665944	1.56147	-1.01041	0.556871	0.819774	0.723724	0.479961	0.551802	0.277398	0.31168	0.260913	0.364337	-0.236752	0.508201	0.286848	0.413913	0.445151	0.759584	0.271538	0.415886	0.183262	1.22876	-0.801254	0.406887	-0.264226	
5.41992	5	0	0.491036	0.479629	0.385028	-0.251586	0.276114	0.298119	0.436727	0.663471	1.5568	-1.00571	0.545705	0.820107	0.723724	0.479961	0.543813	0.275334	0.31168	0.260913	0.361284	-0.234757	0.502195	0.290772	0.413913	0.445151	0.755848	0.270503	0.411872	0.185885	1.21648	-0.793234	0.403232	-0.261837	
5.42145	5	0	0.490004	0.482544	0.385028	-0.251586	0.275218	0.300651	0.437602	0.660999	1.55214	-1.00102	0.534539	0.82044	0.723724	0.479961	0.535824	0.273269	0.31168	0.260913	0.358232	-0.232763	0.49619	0.294696	0.413913	0.445151	0.752112	0.269468	0.407858	0.188508	1.20421	-0.785215	0.399577	-0.259449	
5.42145	5	0	0.481717	0.492443	0.385028	-0.251586	0.270831	0.301571	0.433321	0.663796	1.55214	-1.00102	0.534539	0.82044	0.72143	0.486444	0.532884	0.27337	0.31168	0.260913	0.355181	-0.230769	0.49525	0.297352	0.412807	0.448276	0.747579	0.270693	0.406196	0.193205	1.20012	-0.782544	0.399577	-0.259449	
5.42755	5	0	0.47343	0.502343	0.385028	-0.251586	0.266443	0.302492	0.42904	0.666594	1.55214	-1.00102	0.534539	0.82044	0.719136	0.492927	0.529945	0.273471	0.31168	0.260913	0.352129	-0.228775	0.49431	0.300008	0.411701	0.451402	0.743046	0.271917	0.404535	0.197902	1.19604	-0.779874	0.399577	-0.259449	
5.42755	5	0	0.465142	0.512242	0.385028	-0.251586	0.262055	0.303413	0.42476	0.669391	1.55214	-1.00102	0.534539	0.82044	0.716842	0.499411	0.527005	0.273571	0.31168	0.260913	0.349078	-0.226782	0.493371	0.302664	0.410595	0.454527	0.738513	0.273141	0.402873	0.202598	1.19195	-0.777204	0.399577	-0.259449	
5.43365	5	0	0.456855	0.522142	0.385028	-0.251586	0.257668	0.304333	0.420479	0.672188	1.55214	-1.00102	0.534539	0.82044	0.714548	0.505894	0.524065	0.273672	0.31168	0.260913	0.346027	-0.224788	0.492431	0.30532	0.409489	0.457652	0.73398	0.274366	0.401211	0.207295	1.18786	-0.774533	0.399577	-0.259449	
5.43976	5	0	0.459951	0.513394	0.37858	-0.24573	0.254179	0.302722	0.412019	0.668221	1.54823	-0.998464	0.529787	0.802698	0.711598	0.497856	0.521537	0.264414	0.305772	0.259864	0.342977	-0.222795	0.482313	0.307848	0.406513	0.454792	0.731048	0.271072	0.398861	0.20522	1.18378	-0.771864	0.392272	-0.254676	
5.44281	5	0	0.463046	0.504645	0.372132	-0.239873	0.250689	0.301111	0.403559	0.664254	1.54432	-0.995911	0.525035	0.784955	0.708648	0.489819	0.519008	0.255157	0.299863	0.258816	0.339927	-0.220801	0.472194	0.310377	0.403536	0.451933	0.728117	0.267778	0.39651	0.203145	1.17969	-0.769195	0.384967	-0.249902	
5.44891	5	0	0.466141	0.495897	0.365683	-0.234017	0.2472	0.2995	0.395099	0.660286	1.54042	-0.993359	0.520282	0.767213	0.705698	0.481781	0.51648	0.245899	0.293955	0.257767	0.336876	-0.218808	0.462075	0.312906	0.40056	0.449073	0.725185	0.264483	0.394159	0.20107	1.17561	-0.766525	0.377662	-0.245129	
5.45196	5	0	0.469237	0.487149	0.359235	-0.228161	0.24371	0.297889	0.386639	0.656319	1.53651	-0.990807	0.51553	0.749471	0.702748	0.473744	0.513952	0.236642	0.288046	0.256719	0.333826	-0.216815	0.451957	0.315434	0.397584	0.446213	0.722254	0.261189	0.391809	0.198995	1.17152	-0.763856	0.370357	-0.240356	
5.45502	5	0	0.463018	0.491212	0.359991	-0.230298	0.240223	0.296279	0.389258	0.648917	1.53336	-0.990399	0.511557	0.745132	0.705039	0.46727	0.510587	0.229762	0.291432	0.247149	0.327729	-0.212831	0.454774	0.307473	0.391636	0.4405	0.716395	0.254609	0.391949	0.189885	1.15928	-0.755856	0.366707	-0.237971	
5.46112	5	0	0.4568	0.495276	0.360747	-0.232434	0.236736	0.294668	0.391877	0.641515	1.53022	-0.989991	0.507585	0.740792	0.707329	0.460796	0.507222	0.222883	0.294818	0.237578	0.321632	-0.208848	0.457591	0.299512	0.385688	0.434787	0.710536	0.24803	0.392089	0.180775	1.14704	-0.747856	0.363057	-0.235586	
5.47027	5	0	0.450581	0.49934	0.361504	-0.234571	0.233249	0.293058	0.394497	0.634113	1.52707	-0.989583	0.503613	0.736453	0.70962	0.454323	0.503858	0.216004	0.298205	0.228008	0.315535	-0.204864	0.460407	0.291552	0.379741	0.429075	0.704678	0.24145	0.39223	0.171665	1.13479	-0.739856	0.359406	-0.233201	
5.4718	5	0	0.444362	0.503403	0.36226	-0.236708	0.229762	0.291448	0.397116	0.626711	1.52392	-0.989175	0.49964	0.732114	0.711911	0.447849	0.500493	0.209124	0.301591	0.218438	0.309438	-0.20088	0.463224	0.283591	0.373793	0.423362	0.698819	0.23487	0.39237	0.162555	1.12255	-0.731856	0.355756	-0.230816	
5.47485	5	0	0.444362	0.503403	0.353729	-0.231133	0.232445	0.283866	0.386922	0.627686	1.52002	-0.986625	0.49567	0.72778	0.705526	0.449534	0.498394	0.206868	0.296813	0.21421	0.304101	-0.199035	0.460046	0.279553	0.371924	0.417392	0.701211	0.228109	0.386842	0.160761	1.11847	-0.729192	0.352107	-0.228432	
5.4779	5	0	0.444362	0.503403	0.345198	-0.225559	0.235127	0.276284	0.376729	0.628661	1.51612	-0.984074	0.4917	0.723445	0.699141	0.451219	0.496295	0.204612	0.292036	0.209983	0.298764	-0.197189	0.456867	0.275516	0.370055	0.411423	0.703604	0.221348	0.381315	0.158967	1.11439	-0.726527	0.348459	-0.226048	
5.48248	5	0	0.444362	0.503403	0.336666	-0.219984	0.23781	0.268701	0.366535	0.629635	1.51222	-0.981524	0.48773	0.719111	0.692756	0.452904	0.494196	0.202355	0.287258	0.205755	0.293427	-0.195344	0.453689	0.271478	0.368187	0.405454	0.705996	0.214586	0.375787	0.157174	1.11032	-0.723863	0.34481	-0.223664	
5.48706	5	0	0.444362	0.503403	0.328135	-0.21441	0.240493	0.261119	0.356341	0.63061	1.50831	-0.978974	0.48376	0.714777	0.686371	0.454589	0.492097	0.200099	0.28248	0.201527	0.28809	-0.193498	0.450511	0.26744	0.366318	0.399484	0.708388	0.207825	0.37026	0.15538	1.10624	-0.721199	0.341161	-0.22128	
5.48859	5	0	0.43503	0.502781	0.322452	-0.210697	0.238793	0.254466	0.354779	0.616491	1.50127	-0.97602	0.477418	0.701631	0.690946	0.44166	0.490401	0.188524	0.279957	0.190944	0.278959	-0.187532	0.442287	0.264669	0.36258	0.387568	0.699346	0.21027	0.364048	0.146843	1.09809	-0.715874	0.334624	-0.218651	
5.49011	5	0	0.425699	0.502159	0.31677	-0.206983	0.237093	0.247812	0.353218	0.602372	1.49423	-0.973067	0.471077	0.688485	0.69552	0.428731	0.488705	0.17695	0.277435	0.18036	0.269828	-0.181565	0.434063	0.261899	0.358841	0.375653	0.690304	0.212715	0.357837	0.138305	1.08994	-0.71055	0.328087	-0.216022	
5.48859	5	0	0.416368	0.501537	0.311087	-0.20327	0.235393	0.241158	0.351656	0.588253	1.48719	-0.970113	0.464735	0.675339	0.700095	0.415802	0.487009	0.165376	0.274912	0.169776	0.260697	-0.175599	0.425838	0.259128	0.355103	0.363737	0.681263	0.215159	0.351625	0.129768	1.08179	-0.705226	0.321551	-0.213393	
5.49011	5	0	0.407036	0.500915	0.305404	-0.199557	0.233693	0.234505	0.350094	0.574134	1.48015	-0.967159	0.458393	0.662193	0.70467	0.402873	0.485313	0.153801	0.272389	0.159193	0.251566	-0.169633	0.417614	0.256357	0.351365	0.351821	0.672221	0.217604	0.345413	0.121231	1.07364	-0.699901	0.315014	-0.210764	
5.49164	5	0	0.402891	0.499148	0.300481	-0.197983	0.2311	0.230381	0.345051	0.569872	1.47625	-0.964612	0.450469	0.65357	0.700574	0.398104	0.483215	0.151553	0.268741	0.151807	0.242445	-0.163673	0.421358	0.245776	0.348723	0.336834	0.669297	0.214323	0.340859	0.108046	1.0655	-0.694581	0.31137	-0.208383	
5.49164	5	0	0.398746	0.497381	0.295558	-0.196408	0.228507	0.226258	0.340008	0.56561	1.47235	-0.962066	0.442546	0.644947	0.696478	0.393336	0.481117	0.149305	0.265093	0.144421	0.233324	-0.157713	0.425102	0.235195	0.346081	0.321846	0.666374	0.211042	0.336305	0.0948605	1.05736	-0.689262	0.307727	-0.206002	
5.49774	0	0	0.394601	0.495614	0.290634	-0.194833	0.225914	0.222135	0.334965	0.561348	1.46845	-0.959519	0.434622	0.636324	0.692381	0.388568	0.479019	0.147056	0.261444	0.137035	0.224202	-0.151753	0.428846	0.224613	0.343439	0.306858	0.66345	0.207761	0.331751	0.0816753	1.04922	-0.683943	0.304083	-0.203621	
5.49469	0	0	0.390456	0.493847	0.285711	-0.193259	0.223321	0.218011	0.329922	0.557086	1.46456	-0.956972	0.426698	0.627701	0.688285	0.383799	0.476921	0.144808	0.257796	0.129649	0.215081	-0.145793	0.43259	0.214032	0.340797	0.291871	0.660527	0.20448	0.327197	0.06849	1.04108	-0.678623	0.300439	-0.20124	
5.49316	0	0	0.390456	0.493847	0.280036	-0.189551	0.225105	0.21297	0.331659	0.552175	1.45677	-0.951882	0.426698	0.627701	0.689426	0.380573	0.473991	0.144913	0.261164	0.12013	0.205969	-0.139839	0.43446	0.208746	0.334862	0.286216	0.668227	0.194261	0.324161	0.059721	1.04515	-0.681282	0.296797	-0.19886	
5.49469	0	0	0.390456	0.493847	0.274361	-0.185842	0.226888	0.207929	0.333397	0.547264	1.44898	-0.946792	0.426698	0.627701	0.690568	0.377348	0.471062	0.145018	0.264533	0.110611	0.196858	-0.133885	0.43633	0.20346	0.328928	0.280562	0.675928	0.184041	0.321124	0.050952	1.04922	-0.683941	0.293154	-0.19648	
5.49469	0	0	0.390456	0.493847	0.268685	-0.182134	0.228672	0.202887	0.335135	0.542353	1.44119	-0.941702	0.426698	0.627701	0.691709	0.374122	0.468132	0.145124	0.267901	0.101091	0.187746	-0.127932	0.438201	0.198174	0.322993	0.274907	0.683628	0.173821	0.318088	0.042183	1.05329	-0.686601	0.289511	-0.1941	
5.49774	0	0	0.390456	0.493847	0.26301	-0.178426	0.230456	0.197846	0.336872	0.537442	1.4334	-0.936612	0.426698	0.627701	0.69285	0.370896	0.465202	0.145229	0.271269	0.091572	0.178635	-0.121978	0.440071	0.192888	0.317058	0.269252	0.691329	0.163602	0.315051	0.033414	1.05736	-0.68926	0.285869	-0.19172	
5.49774	0	0	0.394572	0.482215	0.254504	-0.172868	0.234021	0.187772	0.335301	0.523388	1.42951	-0.934069	0.420368	0.614625	0.689895	0.362916	0.461842	0.138387	0.266496	0.08738	0.162715	-0.109934	0.44194	0.187605	0.307074	0.263879	0.687607	0.162578	0.310368	0.0293148	1.05736	-0.68926	0.282228	-0.189341	
5.49774	0	0	0.398687	0.470583	0.245999	-0.16731	0.237586	0.177698	0.333729	0.509333	1.42561	-0.931526	0.414038	0.60155	0.68694	0.354936	0.458481	0.131545	0.261724	0.083188	0.146794	-0.097889	0.443809	0.182322	0.29709	0.258505	0.683885	0.161554	0.305685	0.0252155	1.05736	-0.68926	0.278587	-0.186962	
5.49316	0	0	0.402803	0.45895	0.237493	-0.161752	0.24115	0.167624	0.332157	0.495279	1.42172	-0.928983	0.407708	0.588475	0.683986	0.346955	0.455121	0.124704	0.256951	0.078996	0.130874	-0.0858445	0.445679	0.17704	0.287106	0.253132	0.680162	0.16053	0.301002	0.0211162	1.05736	-0.68926	0.274946	-0.184583	
5.49469	0	0	0.406919	0.447318	0.228987	-0.156194	0.244715	0.15755	0.330586	0.481225	1.41783	-0.92644	0.401378	0.575399	0.681031	0.338975	0.451761	0.117862	0.252179	0.074804	0.114954	-0.0738	0.447548	0.171757	0.277122	0.247759	0.67644	0.159506	0.296319	0.017017	1.05736	-0.68926	0.271305	-0.182204	
5.49469	0	0	0.402774	0.445559	0.223321	-0.152492	0.241228	0.155959	0.325546	0.47699	1.41005	-0.921357	0.399004	0.566643	0.684448	0.329319	0.448402	0.111031	0.25554	0.065305	0.109651	-0.071977	0.451283	0.161201	0.277441	0.235674	0.679619	0.150522	0.294106	0.00595175	1.05329	-0.686601	0.271305	-0.182204	
5.49164	0	0	0.398629	0.4438	0.217655	-0.14879	0.237742	0.154368	0.320507	0.472754	1.40227	-0.916274	0.396631	0.557888	0.687865	0.319662	0.445043	0.104201	0.258902	0.055806	0.104349	-0.070154	0.455018	0.150645	0.27776	0.223589	0.682798	0.141537	0.291894	-0.0051135	1.04922	-0.683941	0.271305	-0.182204	
5.49011	0	0	0.394485	0.442042	0.211989	-0.145087	0.234256	0.152777	0.315468	0.468519	1.39449	-0.911191	0.394258	0.549133	0.691281	0.310005	0.441684	0.0973697	0.262263	0.046307	0.0990465	-0.068331	0.458754	0.140088	0.278079	0.211504	0.685977	0.132552	0.289681	-0.0161788	1.04515	-0.681282	0.271305	-0.182204	
5.48706	0	0	0.39034	0.440283	0.206323	-0.141385	0.230769	0.151186	0.310428	0.464283	1.38671	-0.906108	0.391884	0.540377	0.694698	0.300349	0.438325	0.090539	0.265624	0.036808	0.093744	-0.066508	0.462489	0.129532	0.278398	0.199419	0.689156	0.123568	0.287469	-0.027244	1.04108	-0.678623	0.271305	-0.182204	
5.49011	0	0	0.395513	0.439136	0.200661	-0.137685	0.231659	0.148671	0.315545	0.459059	1.38671	-0.906108	0.399001	0.535726	0.687188	0.305256	0.442911	0.0857388	0.266744	0.033644	0.093744	-0.066508	0.459307	0.125531	0.278398	0.199419	0.690744	0.119079	0.286772	-0.0339275	1.03701	-0.675965	0.267666	-0.179826	
5.48553	0	0	0.400686	0.43799	0.194999	-0.133986	0.232549	0.146155	0.320661	0.453835	1.38671	-0.906108	0.406118	0.531076	0.679679	0.310163	0.447497	0.0809385	0.267863	0.03048	0.093744	-0.066508	0.456126	0.121529	0.278398	0.199419	0.692333	0.11459	0.286075	-0.040611	1.03295	-0.673307	0.264026	-0.177448	
5.48248	5	0	0.405859	0.436843	0.189337	-0.130286	0.233439	0.14364	0.325778	0.448611	1.38671	-0.906108	0.413235	0.526425	0.672169	0.315071	0.452082	0.0761382	0.268983	0.027316	0.093744	-0.066508	0.452945	0.117528	0.278398	0.199419	0.693921	0.110102	0.285378	-0.0472945	1.02888	-0.67065	0.260387	-0.175069	
5.48706	5	0	0.411032	0.435696	0.183675	-0.126586	0.234329	0.141125	0.330895	0.443387	1.38671	-0.906108	0.420352	0.521775	0.664659	0.319978	0.456668	0.071338	0.270102	0.024152	0.093744	-0.066508	0.449763	0.113526	0.278398	0.199419	0.695509	0.105613	0.284681	-0.053978	1.02481	-0.667992	0.256748	-0.172691	
5.48401	5	0	0.408941	0.428134	0.178016	-0.122889	0.237887	0.131071	0.329311	0.429394	1.38283	-0.903568	0.416393	0.517499	0.665797	0.316761	0.455402	0.0667573	0.270102	0.024152	0.0967725	-0.068487	0.452559	0.105624	0.274346	0.199694	0.695509	0.105613	0.28386	-0.0516575	1.02557	-0.670127	0.260387	-0.175069	
5.48706	5	0	0.406849	0.420573	0.172358	-0.119192	0.241444	0.121017	0.327728	0.415401	1.37894	-0.901029	0.412435	0.513224	0.666935	0.313545	0.454135	0.0621765	0.270102	0.024152	0.099801	-0.070466	0.455355	0.097722	0.270294	0.199969	0.695509	0.105613	0.283039	-0.049337	1.02632	-0.672262	0.264026	-0.177448	
5.48706	5	0	0.404757	0.413011	0.1667	-0.115494	0.245002	0.110963	0.326144	0.401408	1.37505	-0.898489	0.408476	0.508948	0.668073	0.310329	0.452869	0.0575958	0.270102	0.024152	0.102829	-0.072445	0.458151	0.08982	0.266242	0.200244	0.695509	0.105613	0.282218	-0.0470165	1.02708	-0.674396	0.267666	-0.179826	
5.48706	5	0	0.402666	0.405449	0.161041	-0.111797	0.248559	0.100909	0.32456	0.387415	1.37117	-0.895949	0.404517	0.504672	0.669211	0.307112	0.451602	0.053015	0.270102	0.024152	0.105858	-0.074424	0.460947	0.081918	0.26219	0.200519	0.695509	0.105613	0.281397	-0.044696	1.02783	-0.676531	0.271305	-0.182204	
5.49164	5	0	0.405744	0.396749	0.155386	-0.108102	0.251225	0.0933758	0.324628	0.377995	1.36728	-0.89341	0.407672	0.495755	0.671486	0.300682	0.455746	0.0413027	0.271221	0.020989	0.099802	-0.0704668	0.457765	0.0779278	0.260323	0.194625	0.694167	0.09787	0.280699	-0.0513735	1.0319	-0.679189	0.264784	-0.179585	
5.49164	5	0	0.408822	0.388049	0.149732	-0.104407	0.25389	0.0858425	0.324696	0.368575	1.3634	-0.890872	0.410828	0.486838	0.673761	0.294253	0.45989	0.0295905	0.27234	0.017826	0.093746	-0.0665095	0.454583	0.0739375	0.258456	0.188731	0.692824	0.090127	0.280002	-0.058051	1.03597	-0.681847	0.258263	-0.176965	
5.49316	5	0	0.411901	0.379349	0.144077	-0.100713	0.256555	0.0783092	0.324765	0.359154	1.35951	-0.888333	0.413983	0.47792	0.676036	0.287824	0.464035	0.0178782	0.27346	0.014663	0.08769	-0.0625523	0.4514	0.0699473	0.25659	0.182838	0.691482	0.082384	0.279304	-0.0647285	1.04003	-0.684504	0.251741	-0.174345	
5.49621	5	0	0.414979	0.370649	0.138423	-0.097018	0.259221	0.070776	0.324833	0.349734	1.35563	-0.885794	0.417138	0.469003	0.678311	0.281394	0.468179	0.006166	0.274579	0.0115	0.081634	-0.058595	0.448218	0.065957	0.254723	0.176944	0.69014	0.074641	0.278606	-0.071406	1.0441	-0.687162	0.24522	-0.171726	
5.49621	5	0	0.408783	0.374698	0.138423	-0.097018	0.260997	0.0657573	0.325695	0.347297	1.35951	-0.888333	0.418714	0.464548	0.685821	0.276487	0.470663	-0.00085375	0.27346	0.014663	0.0846615	-0.0605733	0.449149	0.063327	0.256904	0.170781	0.696242	0.068931	0.281066	-0.0783585	1.03597	-0.681848	0.24522	-0.171726	
5.50232	5	0	0.402587	0.378746	0.138423	-0.097018	0.262772	0.0607385	0.326558	0.34486	1.3634	-0.890872	0.420291	0.460093	0.693331	0.271579	0.473147	-0.0078735	0.27234	0.017826	0.087689	-0.0625515	0.450079	0.060697	0.259084	0.164617	0.702345	0.063221	0.283527	-0.085311	1.02784	-0.676533	0.24522	-0.171726	
5.50384	5	0	0.396391	0.382795	0.138423	-0.097018	0.264548	0.0557198	0.32742	0.342423	1.36728	-0.89341	0.421868	0.455637	0.700841	0.266672	0.475631	-0.0148933	0.271221	0.020989	0.0907165	-0.0645297	0.45101	0.058067	0.261265	0.158454	0.708448	0.057511	0.285987	-0.0922635	1.0197	-0.671219	0.24522	-0.171726	
5.50995	5	0	0.390195	0.386844	0.138423	-0.097018	0.266324	0.050701	0.328282	0.339986	1.37117	-0.895949	0.423444	0.451182	0.708351	0.261765	0.478115	-0.021913	0.270102	0.024152	0.093744	-0.066508	0.45194	0.055437	0.263446	0.152291	0.71455	0.051801	0.288447	-0.099216	1.01157	-0.665904	0.24522	-0.171726	
5.50995	5	0	0.396391	0.382795	0.132772	-0.0933255	0.268986	0.0431785	0.326623	0.335453	1.37117	-0.895949	0.42502	0.446729	0.707213	0.264979	0.47977	-0.02659	0.27712	0.021999	0.093744	-0.066508	0.456985	0.0541623	0.264536	0.149211	0.709241	0.0552702	0.289967	-0.0948645	1.01895	-0.669084	0.248102	-0.171967	
5.50995	5	0	0.402587	0.378746	0.127121	-0.089633	0.271648	0.035656	0.324964	0.330919	1.37117	-0.895949	0.426596	0.442276	0.706076	0.268193	0.481425	-0.031267	0.284137	0.019846	0.093744	-0.066508	0.462031	0.0528875	0.265626	0.14613	0.703931	0.0587395	0.291488	-0.090513	1.02632	-0.672264	0.250984	-0.172208	
5.513	5	0	0.408783	0.374698	0.12147	-0.0859405	0.274309	0.0281335	0.323304	0.326385	1.37117	-0.895949	0.428171	0.437823	0.704939	0.271408	0.483079	-0.035944	0.291154	0.017693	0.093744	-0.066508	0.467076	0.0516127	0.266715	0.14305	0.698622	0.0622088	0.293009	-0.0861615	1.0337	-0.675443	0.253866	-0.17245	
5.50995	5	0	0.414979	0.370649	0.115819	-0.082248	0.276971	0.020611	0.321645	0.321852	1.37117	-0.895949	0.429747	0.43337	0.703801	0.274622	0.484734	-0.040621	0.298172	0.01554	0.093744	-0.066508	0.472121	0.050338	0.267805	0.13997	0.693312	0.065678	0.294529	-0.08181	1.04108	-0.678623	0.256748	-0.172691	
5.513	5	0	0.419079	0.359062	0.115819	-0.082248	0.280517	0.0105907	0.32767	0.304825	1.3634	-0.890873	0.430502	0.415785	0.699702	0.26989	0.485113	-0.0498497	0.298172	0.01554	0.08769	-0.0625523	0.473052	0.047708	0.272161	0.127661	0.694897	0.0611983	0.294529	-0.08181	1.03701	-0.675965	0.260387	-0.175069	
5.513	5	0	0.423179	0.347475	0.115819	-0.082248	0.284062	0.0005705	0.333695	0.287798	1.35563	-0.885796	0.431257	0.398199	0.695603	0.265158	0.485492	-0.0590785	0.298172	0.01554	0.081636	-0.0585965	0.473982	0.045078	0.276516	0.115351	0.696482	0.0567185	0.294529	-0.08181	1.03295	-0.673307	0.264026	-0.177448	
5.51453	5	0	0.427279	0.335889	0.115819	-0.082248	0.287608	-0.00944975	0.339719	0.270771	1.34786	-0.88072	0.432013	0.380613	0.691504	0.260426	0.485872	-0.0683072	0.298172	0.01554	0.075582	-0.0546408	0.474913	0.042448	0.280872	0.103041	0.698067	0.0522388	0.294529	-0.08181	1.02888	-0.67065	0.267666	-0.179826	
5.51453	5	0	0.431379	0.324302	0.115819	-0.082248	0.291153	-0.01947	0.345744	0.253744	1.34009	-0.875644	0.432768	0.363028	0.687405	0.255694	0.486251	-0.077536	0.298172	0.01554	0.069528	-0.050685	0.475844	0.039818	0.285228	0.090732	0.699652	0.047759	0.294529	-0.08181	1.02481	-0.667992	0.271305	-0.182204	
5.51605	5	0	0.438604	0.317356	0.115819	-0.082248	0.29381	-0.026978	0.348322	0.246457	1.33621	-0.873108	0.435909	0.354151	0.689677	0.249274	0.491657	-0.0846572	0.297052	0.0187052	0.069528	-0.050685	0.477704	0.03456	0.279305	0.0851517	0.696722	0.0445108	0.296169	-0.0864457	1.02481	-0.667992	0.271305	-0.182204	
5.51453	5	0	0.445829	0.31041	0.115819	-0.082248	0.296466	-0.034486	0.350901	0.23917	1.33233	-0.870572	0.439051	0.345274	0.691949	0.242853	0.497063	-0.0917785	0.295932	0.0218705	0.069528	-0.050685	0.479565	0.029302	0.273382	0.0795715	0.693792	0.0412625	0.29781	-0.0910815	1.02481	-0.667992	0.271305	-0.182204	
5.513	5	0	0.453053	0.303463	0.115819	-0.082248	0.299123	-0.041994	0.35348	0.231882	1.32845	-0.868035	0.442192	0.336396	0.69422	0.236433	0.502469	-0.0988998	0.294812	0.0250358	0.069528	-0.050685	0.481426	0.024044	0.267459	0.0739912	0.690861	0.0380142	0.29945	-0.0957173	1.02481	-0.667992	0.271305	-0.182204	
5.51605	5	0	0.460278	0.296517	0.115819	-0.082248	0.30178	-0.049502	0.356058	0.224595	1.32457	-0.865499	0.445333	0.327519	0.696492	0.230013	0.507875	-0.106021	0.293692	0.028201	0.069528	-0.050685	0.483286	0.018786	0.261536	0.068411	0.687931	0.034766	0.30109	-0.100353	1.02481	-0.667992	0.271305	-0.182204	
5.51605	5	0	0.46341	0.301148	0.118644	-0.084094	0.30178	-0.049502	0.361971	0.226334	1.32069	-0.862964	0.45642	0.327099	0.69422	0.236433	0.516669	-0.106383	0.300716	0.0260452	0.075582	-0.0546408	0.483286	0.018786	0.271809	0.0616987	0.688723	0.0325285	0.304253	-0.100638	1.02075	-0.665335	0.274946	-0.184583	
5.51453	5	0	0.466541	0.30578	0.121469	-0.08594	0.30178	-0.049502	0.367885	0.228073	1.31681	-0.860429	0.467507	0.32668	0.691949	0.242853	0.525463	-0.106745	0.307741	0.0238895	0.081636	-0.0585965	0.483286	0.018786	0.282081	0.0549865	0.689515	0.030291	0.307416	-0.100922	1.01668	-0.662678	0.278587	-0.186962	
5.51453	5	0	0.469673	0.310412	0.124294	-0.087786	0.30178	-0.049502	0.373798	0.229811	1.31293	-0.857894	0.478594	0.326261	0.689677	0.249274	0.534257	-0.107107	0.314766	0.0217338	0.08769	-0.0625523	0.483286	0.018786	0.292353	0.0482743	0.690306	0.0280535	0.310578	-0.101207	1.01261	-0.660022	0.282228	-0.189341	
5.51605	5	0	0.472805	0.315043	0.127119	-0.089632	0.30178	-0.049502	0.379711	0.23155	1.30905	-0.855359	0.489681	0.325841	0.687405	0.255694	0.543051	-0.107469	0.32179	0.019578	0.093744	-0.066508	0.483286	0.018786	0.302626	0.041562	0.691098	0.025816	0.313741	-0.101492	1.00855	-0.657365	0.285869	-0.19172	
5.51453	5	0	0.472805	0.315043	0.123538	-0.0856497	0.30355	-0.0545035	0.377183	0.229466	1.30517	-0.852825	0.488109	0.330283	0.687405	0.255694	0.544332	-0.102917	0.319548	0.025914	0.0967725	-0.068487	0.481426	0.024044	0.303417	0.0504953	0.691098	0.025816	0.319132	-0.0907442	1.00448	-0.65471	0.300448	-0.201246	
