0.814	5.20935	0	0	-0.113762	-0.106914	-0.100742	-0.102717	-0.059271	-0.100068	-0.163083	0.105904	0.043175	0.194722	-0.058755	0.04774	0.068989	0.200957	0.105493	0.22479	-0.003266	0.000883	0.081656	-0.049081	0.011686	0.020085	0.03076	0.184109	-0.116283	-0.067436	-0.10659	-0.009425	-0.152059	-0.005286	-0.028857	0.081555	
0.817601	5.20935	0	0	-0.109575	-0.104501	-0.100803	-0.0939568	-0.062336	-0.091406	-0.153015	0.0993257	0.0489135	0.193482	-0.055249	0.063001	0.074218	0.199779	0.11024	0.229862	-0.00966575	0.00506475	0.081656	-0.049081	0.011686	0.020085	0.0313425	0.193073	-0.11952	-0.0582882	-0.102093	-0.00572525	-0.159823	0.00661675	-0.0355823	0.0902798	
0.820537	5.20935	0	0	-0.105388	-0.102087	-0.100863	-0.0851965	-0.065401	-0.082744	-0.142948	0.0927475	0.054652	0.192242	-0.051743	0.078262	0.079447	0.198601	0.114986	0.234934	-0.0160655	0.0092465	0.081656	-0.049081	0.011686	0.020085	0.031925	0.202037	-0.122757	-0.0491405	-0.097595	-0.0020255	-0.167586	0.0185195	-0.0423075	0.0990045	
0.822863	5.20935	0	0	-0.101202	-0.0996742	-0.100923	-0.0764362	-0.068466	-0.074082	-0.132881	0.0861693	0.0603905	0.191003	-0.048237	0.093523	0.084676	0.197424	0.119733	0.240006	-0.0224652	0.0134283	0.081656	-0.049081	0.011686	0.020085	0.0325075	0.211001	-0.125994	-0.0399927	-0.0930975	0.00167425	-0.175349	0.0304222	-0.0490327	0.107729	
0.82463	5.20935	0	0	-0.097015	-0.097261	-0.100984	-0.067676	-0.071531	-0.06542	-0.122813	0.079591	0.066129	0.189763	-0.044731	0.108784	0.089905	0.196246	0.12448	0.245078	-0.028865	0.01761	0.081656	-0.049081	0.011686	0.020085	0.03309	0.219965	-0.129231	-0.030845	-0.0886	0.005374	-0.183113	0.042325	-0.055758	0.116454	
0.825892	5.20782	0	0	-0.102947	-0.0804962	-0.106612	-0.0517713	-0.0694705	-0.0534283	-0.112734	0.073005	0.0684035	0.198325	-0.0319202	0.135653	0.0920438	0.203812	0.128778	0.260696	-0.0253452	0.021568	0.0910333	-0.0552085	0.0047155	0.039785	0.0429525	0.234592	-0.129617	-0.0182682	-0.0841435	0.017422	-0.173179	0.044381	-0.051279	0.124365	
0.826703	5.2063	0	0	-0.108879	-0.0637315	-0.112239	-0.0358665	-0.06741	-0.0414365	-0.102655	0.066419	0.070678	0.206888	-0.0191095	0.162521	0.0941825	0.211377	0.133076	0.276313	-0.0218255	0.025526	0.10041	-0.061336	-0.002255	0.059485	0.052815	0.249219	-0.130003	-0.0056915	-0.079687	0.02947	-0.163245	0.046437	-0.0468	0.132277	
0.827114	5.20477	0	0	-0.114811	-0.0469667	-0.117867	-0.0199618	-0.0653495	-0.0294447	-0.0925752	0.059833	0.0729525	0.21545	-0.00629875	0.189389	0.0963212	0.218942	0.137375	0.291931	-0.0183057	0.029484	0.109788	-0.0674635	-0.0092255	0.079185	0.0626775	0.263846	-0.130388	0.00688525	-0.0752305	0.041518	-0.153312	0.048493	-0.042321	0.140188	
0.82718	5.20325	0	0	-0.120743	-0.030202	-0.123495	-0.004057	-0.063289	-0.017453	-0.082496	0.053247	0.075227	0.224013	0.006512	0.216258	0.09846	0.226508	0.141673	0.307549	-0.014786	0.033442	0.119165	-0.073591	-0.016196	0.098885	0.07254	0.278473	-0.130774	0.019462	-0.070774	0.053566	-0.143378	0.050549	-0.037842	0.148099	
0.826954	5.20172	0	0	-0.117746	-0.0244155	-0.121955	0.000184	-0.0648255	-0.0131105	-0.0791335	0.0510498	0.072912	0.230555	0.0051565	0.220089	0.09846	0.226508	0.146426	0.312648	-0.0157468	0.0361568	0.12305	-0.0777733	-0.026477	0.113188	0.0644062	0.290826	-0.141743	0.0389767	-0.0776745	0.0730675	-0.154307	0.0713877	-0.0401012	0.164777	
0.826488	5.20019	0	0	-0.11475	-0.018629	-0.120415	0.004425	-0.066362	-0.008768	-0.075771	0.0488525	0.070597	0.237098	0.003801	0.223919	0.09846	0.226508	0.151179	0.317748	-0.0167075	0.0388715	0.126935	-0.0819555	-0.036758	0.127491	0.0562725	0.303179	-0.152713	0.0584915	-0.084575	0.092569	-0.165237	0.0922265	-0.0423605	0.181455	
0.825836	5.20019	0	0	-0.111753	-0.0128425	-0.118875	0.008666	-0.0678985	-0.0044255	-0.0724085	0.0466552	0.068282	0.24364	0.0024455	0.227749	0.09846	0.226508	0.155933	0.322847	-0.0176682	0.0415862	0.130819	-0.0861377	-0.047039	0.141794	0.0481387	0.315532	-0.163682	0.0780062	-0.0914755	0.11207	-0.176166	0.113065	-0.0446197	0.198133	
0.825051	5.20019	0	0	-0.108756	-0.007056	-0.117335	0.012907	-0.069435	-8.3E-05	-0.069046	0.044458	0.065967	0.250183	0.00109	0.23158	0.09846	0.226508	0.160686	0.327946	-0.018629	0.044301	0.134704	-0.09032	-0.05732	0.156097	0.040005	0.327885	-0.174651	0.097521	-0.098376	0.131572	-0.187095	0.133904	-0.046879	0.214811	
0.824185	5.19714	0	0	-0.106949	0.002103	-0.117407	0.021708	-0.0673817	0.011946	-0.0623172	0.0400615	0.0693962	0.255494	0.005944	0.243151	0.0963955	0.232343	0.166877	0.338284	-0.0259895	0.0511985	0.140963	-0.09441	-0.0619808	0.169269	0.040575	0.336908	-0.178717	0.10901	-0.0992008	0.142124	-0.184837	0.137572	-0.0441407	0.217371	
0.823287	5.19562	0	0	-0.105141	0.011262	-0.11748	0.030509	-0.0653285	0.023975	-0.0555885	0.035665	0.0728255	0.260805	0.010798	0.254722	0.094331	0.238178	0.173068	0.348622	-0.03335	0.058096	0.147223	-0.0985	-0.0666415	0.182441	0.041145	0.345931	-0.182782	0.120499	-0.100026	0.152676	-0.18258	0.14124	-0.0414025	0.219932	
0.822359	5.19562	0	0	-0.103334	0.020421	-0.117552	0.03931	-0.0632753	0.036004	-0.0488598	0.0312685	0.0762548	0.266116	0.015652	0.266294	0.0922665	0.244014	0.179259	0.358959	-0.0407105	0.0649935	0.153482	-0.10259	-0.0713022	0.195612	0.041715	0.354954	-0.186847	0.131989	-0.10085	0.163229	-0.180322	0.144909	-0.0386642	0.222492	
0.821382	5.19562	0	0	-0.101527	0.02958	-0.117624	0.048111	-0.061222	0.048033	-0.042131	0.026872	0.079684	0.271427	0.020506	0.277865	0.090202	0.249849	0.18545	0.369297	-0.048071	0.071891	0.159742	-0.10668	-0.075963	0.208784	0.042285	0.363977	-0.190913	0.143478	-0.101675	0.173781	-0.178064	0.148577	-0.035926	0.225052	
0.820341	5.19562	0	0	-0.103909	0.0363125	-0.122387	0.0529758	-0.0627622	0.052386	-0.0488598	0.0312685	0.0773648	0.277981	0.0195318	0.293276	0.093371	0.254512	0.188316	0.379776	-0.0499938	0.0773247	0.159742	-0.10668	-0.0874152	0.226409	0.0385158	0.38527	-0.195798	0.157284	-0.100257	0.186228	-0.173546	0.155924	-0.0419392	0.242046	
0.819215	5.19409	0	0	-0.106291	0.043045	-0.12715	0.0578405	-0.0643025	0.056739	-0.0555885	0.035665	0.0750455	0.284536	0.0185575	0.308688	0.09654	0.259176	0.191182	0.390256	-0.0519165	0.0827585	0.159742	-0.10668	-0.0988675	0.244034	0.0347465	0.406562	-0.200684	0.171091	-0.09884	0.198676	-0.169029	0.16327	-0.0479525	0.259041	
0.817989	5.19409	0	0	-0.108673	0.0497775	-0.131914	0.0627053	-0.0658428	0.061092	-0.0623172	0.0400615	0.0727262	0.29109	0.0175832	0.324099	0.099709	0.26384	0.194047	0.400736	-0.0538392	0.0881922	0.159742	-0.10668	-0.11032	0.261658	0.0309773	0.427855	-0.205569	0.184897	-0.0974225	0.211123	-0.164512	0.170617	-0.0539657	0.276035	
0.816643	5.19409	0	0	-0.111055	0.05651	-0.136677	0.06757	-0.067383	0.065445	-0.069046	0.044458	0.070407	0.297645	0.016609	0.33951	0.102878	0.268503	0.196913	0.411215	-0.055762	0.093626	0.159742	-0.10668	-0.121772	0.279283	0.027208	0.449148	-0.210454	0.198704	-0.096005	0.223571	-0.159994	0.177964	-0.059979	0.29303	
0.815179	5.19256	0	0	-0.106868	0.0589535	-0.134334	0.0695443	-0.0622508	0.06879	-0.069046	0.044458	0.0738352	0.30297	0.0094215	0.347165	0.101844	0.271425	0.193117	0.421942	-0.0631188	0.100523	0.159742	-0.10668	-0.12972	0.287014	0.022311	0.452348	-0.212899	0.205615	-0.0997922	0.226046	-0.163833	0.178755	-0.058976	0.290195	
0.813628	5.19104	0	0	-0.10268	0.061397	-0.131991	0.0715185	-0.0571185	0.072135	-0.069046	0.044458	0.0772635	0.308296	0.002234	0.35482	0.10081	0.274347	0.189322	0.43267	-0.0704755	0.10742	0.159742	-0.10668	-0.137667	0.294744	0.017414	0.455547	-0.215345	0.212527	-0.103579	0.228521	-0.167673	0.179546	-0.057973	0.287361	
0.812028	5.18799	0	0	-0.0984925	0.0638405	-0.129647	0.0734928	-0.0519862	0.07548	-0.069046	0.044458	0.0806918	0.313621	-0.0049535	0.362476	0.0997767	0.277269	0.185526	0.443397	-0.0778322	0.114316	0.159742	-0.10668	-0.145615	0.302475	0.012517	0.458747	-0.21779	0.219438	-0.107367	0.230995	-0.171513	0.180338	-0.05697	0.284526	
0.810414	5.18494	0	0	-0.094305	0.066284	-0.127304	0.075467	-0.046854	0.078825	-0.069046	0.044458	0.08412	0.318947	-0.012141	0.370131	0.098743	0.280191	0.18173	0.454125	-0.085189	0.121213	0.159742	-0.10668	-0.153562	0.310206	0.00762	0.461947	-0.220236	0.226349	-0.111154	0.23347	-0.175352	0.181129	-0.055967	0.281691	
0.808825	5.18646	0	0	-0.0901145	0.0687295	-0.128918	0.0800292	-0.041717	0.0821733	-0.069046	0.044458	0.0898745	0.317711	-0.0104043	0.37788	0.103982	0.279014	0.18744	0.456586	-0.085189	0.121213	0.158986	-0.104542	-0.161504	0.317934	0.00762	0.461947	-0.222683	0.233266	-0.111924	0.235647	-0.175352	0.181129	-0.0549645	0.278857	
0.807295	5.18646	0	0	-0.085924	0.071175	-0.130532	0.0845915	-0.03658	0.0855215	-0.069046	0.044458	0.095629	0.316474	-0.0086675	0.385629	0.109221	0.277838	0.19315	0.459047	-0.085189	0.121213	0.158229	-0.102404	-0.169446	0.325662	0.00762	0.461947	-0.225131	0.240183	-0.112695	0.237824	-0.175352	0.181129	-0.053962	0.276023	
0.805857	5.18646	0	0	-0.0817335	0.0736205	-0.132147	0.0891538	-0.031443	0.0888697	-0.069046	0.044458	0.101384	0.315237	-0.00693075	0.393378	0.11446	0.276662	0.19886	0.461508	-0.085189	0.121213	0.157472	-0.100265	-0.177389	0.333391	0.00762	0.461947	-0.227578	0.247099	-0.113465	0.24	-0.175352	0.181129	-0.0529595	0.27319	
0.80449	5.17578	0	0	-0.077543	0.076066	-0.133761	0.093716	-0.026306	0.092218	-0.069046	0.044458	0.107138	0.314001	-0.005194	0.401127	0.119699	0.275485	0.20457	0.463969	-0.085189	0.121213	0.156716	-0.098127	-0.185331	0.341119	0.00762	0.461947	-0.230025	0.254016	-0.114235	0.242177	-0.175352	0.181129	-0.051957	0.270356	
0.803154	5.18341	0	0	-0.0697683	0.0683935	-0.130533	0.084594	-0.0247628	0.0878562	-0.0724085	0.0466552	0.107138	0.314001	-0.00730875	0.381798	0.120733	0.272562	0.196961	0.466877	-0.0842273	0.118495	0.148085	-0.0941312	-0.1921	0.345542	-0.0027185	0.459281	-0.236941	0.262082	-0.118791	0.246828	-0.176143	0.183363	-0.059706	0.281957	
0.801808	5.17883	0	0	-0.0619935	0.060721	-0.127305	0.075472	-0.0232195	0.0834945	-0.075771	0.0488525	0.107138	0.314001	-0.0094235	0.362468	0.121768	0.269639	0.189351	0.469784	-0.0832655	0.115777	0.139454	-0.0901355	-0.198869	0.349965	-0.013057	0.456615	-0.243858	0.270149	-0.123347	0.251479	-0.176933	0.185598	-0.067455	0.293558	
0.800413	5.18188	0	0	-0.0542187	0.0530485	-0.124078	0.06635	-0.0216763	0.0791328	-0.0791335	0.0510498	0.107138	0.314001	-0.0115382	0.343139	0.122802	0.266717	0.181742	0.472691	-0.0823037	0.113059	0.130823	-0.0861398	-0.205637	0.354387	-0.0233955	0.453949	-0.250774	0.278216	-0.127903	0.25613	-0.177724	0.187832	-0.075204	0.30516	
0.798926	5.17731	0	0	-0.046444	0.045376	-0.12085	0.057228	-0.020133	0.074771	-0.082496	0.053247	0.107138	0.314001	-0.013653	0.32381	0.123836	0.263794	0.174132	0.475599	-0.081342	0.110341	0.122192	-0.082144	-0.212406	0.35881	-0.033734	0.451283	-0.25769	0.286282	-0.132459	0.260781	-0.178514	0.190066	-0.082953	0.316761	
0.79731	5.17883	0	0	-0.0452512	0.0420053	-0.115279	0.0500838	-0.011902	0.0693928	-0.085857	0.055443	0.11406	0.309478	-0.0153942	0.31609	0.123836	0.263794	0.175082	0.472914	-0.0858095	0.109082	0.112814	-0.0760165	-0.214498	0.350028	-0.0429718	0.445561	-0.262154	0.287425	-0.140725	0.259489	-0.179191	0.181925	-0.0846815	0.311353	
0.795587	5.17578	0	0	-0.0440585	0.0386345	-0.109707	0.0429395	-0.003671	0.0640145	-0.089218	0.057639	0.120981	0.304955	-0.0171355	0.308371	0.123836	0.263794	0.176032	0.470229	-0.090277	0.107824	0.103437	-0.069889	-0.21659	0.341247	-0.0522095	0.439839	-0.266617	0.288567	-0.148991	0.258196	-0.179868	0.173784	-0.08641	0.305945	
0.793856	5.17578	0	0	-0.0428658	0.0352637	-0.104135	0.0357953	0.00456	0.0586363	-0.092579	0.059835	0.127903	0.300433	-0.0188768	0.300652	0.123836	0.263794	0.176982	0.467545	-0.0947445	0.106565	0.0940595	-0.0637615	-0.218682	0.332465	-0.0614472	0.434116	-0.271081	0.28971	-0.157257	0.256904	-0.180545	0.165643	-0.0881385	0.300536	
0.792222	5.17273	0	0	-0.041673	0.031893	-0.098564	0.028651	0.012791	0.053258	-0.09594	0.062031	0.134825	0.29591	-0.020618	0.292932	0.123836	0.263794	0.177932	0.46486	-0.099212	0.105307	0.084682	-0.057634	-0.220774	0.323683	-0.070685	0.428394	-0.275545	0.290853	-0.165523	0.255612	-0.181222	0.157502	-0.089867	0.295128	
0.79079	5.16968	0	0	-0.0327025	0.0208517	-0.0953413	0.0195427	0.0091855	0.0455638	-0.102658	0.066421	0.135987	0.292627	-0.0250742	0.292894	0.12487	0.260872	0.176504	0.459605	-0.0972905	0.0998765	0.0784362	-0.053553	-0.225199	0.321505	-0.07232	0.422417	-0.273913	0.28624	-0.166994	0.251557	-0.178854	0.15081	-0.0915958	0.289726	
0.789663	5.16662	0	0	-0.023732	0.0098105	-0.0921185	0.0104345	0.00558	0.0378695	-0.109377	0.070811	0.137148	0.289345	-0.0295305	0.292856	0.125904	0.25795	0.175075	0.45435	-0.095369	0.094446	0.0721905	-0.049472	-0.229624	0.319328	-0.073955	0.41644	-0.27228	0.281627	-0.168464	0.247502	-0.176486	0.144118	-0.0933245	0.284324	
0.788948	5.16815	0	0	-0.0147615	-0.00123075	-0.0888957	0.00132625	0.0019745	0.0301753	-0.116095	0.075201	0.13831	0.286062	-0.0339867	0.292818	0.126938	0.255029	0.173647	0.449096	-0.0934475	0.0890155	0.0659447	-0.045391	-0.234049	0.317151	-0.07559	0.410463	-0.270648	0.277015	-0.169934	0.243447	-0.174119	0.137426	-0.0950533	0.278922	
0.788638	5.1651	0	0	-0.005791	-0.012272	-0.085673	-0.007782	-0.001631	0.022481	-0.122813	0.079591	0.139471	0.28278	-0.038443	0.29278	0.127972	0.252107	0.172218	0.443841	-0.091526	0.083585	0.059699	-0.04131	-0.238474	0.314973	-0.077225	0.404486	-0.269016	0.272402	-0.171405	0.239392	-0.171751	0.130734	-0.096782	0.27352	
0.788409	5.16205	0	0	-0.008805	-0.018065	-0.0816493	-0.0191543	0.00298775	0.00942775	-0.129526	0.0839773	0.141793	0.276218	-0.0334125	0.265939	0.130039	0.246266	0.171737	0.435913	-0.0940717	0.076906	0.0472208	-0.0331565	-0.246149	0.307332	-0.0810565	0.383557	-0.270216	0.264328	-0.179588	0.229714	-0.174693	0.118955	-0.10024	0.262735	
0.787878	5.159	0	0	-0.011819	-0.023858	-0.0776255	-0.0305265	0.0076065	-0.0036255	-0.136239	0.0883635	0.144115	0.269656	-0.028382	0.239099	0.132105	0.240426	0.171256	0.427985	-0.0966175	0.070227	0.0347425	-0.025003	-0.253825	0.299691	-0.084888	0.362627	-0.271416	0.256254	-0.187772	0.220036	-0.177634	0.107176	-0.103698	0.25195	
0.786662	5.17578	0	0	-0.014833	-0.029651	-0.0736017	-0.0418987	0.0122253	-0.0166787	-0.142952	0.0927497	0.146436	0.263095	-0.0233515	0.212258	0.134171	0.234585	0.170775	0.420057	-0.0991632	0.063548	0.0222642	-0.0168495	-0.2615	0.292051	-0.0887195	0.341698	-0.272617	0.248181	-0.195956	0.210358	-0.180576	0.0953978	-0.107156	0.241165	
0.784378	5.159	0	0	-0.017847	-0.035444	-0.069578	-0.053271	0.016844	-0.029732	-0.149665	0.097136	0.148758	0.256533	-0.018321	0.185418	0.136238	0.228744	0.170294	0.412129	-0.101709	0.056869	0.009786	-0.008696	-0.269175	0.28441	-0.092551	0.320769	-0.273817	0.240107	-0.204139	0.20068	-0.183518	0.083619	-0.110614	0.23038	
0.780641	5.15137	0	0	-0.00769175	-0.049833	-0.0663625	-0.0623583	0.0281503	-0.0438018	-0.15302	0.099328	0.152237	0.246699	-0.0187205	0.173933	0.138303	0.222907	0.163165	0.404443	-0.104255	0.0502003	0.00355375	-0.00462375	-0.26778	0.265819	-0.0936797	0.302818	-0.275019	0.232046	-0.209311	0.190731	-0.182631	0.0710735	-0.113075	0.216801	
0.775195	5.15747	0	0	0.0024635	-0.064222	-0.063147	-0.0714455	0.0394565	-0.0578715	-0.156374	0.10152	0.155717	0.236866	-0.01912	0.162447	0.140369	0.21707	0.156036	0.396756	-0.1068	0.0435315	-0.0026785	-0.0005515	-0.266385	0.247229	-0.0948085	0.284867	-0.276221	0.223985	-0.214483	0.180783	-0.181744	0.058528	-0.115537	0.203222	
0.768532	5.15442	0	0	0.0126188	-0.078611	-0.0599315	-0.0805328	0.0507627	-0.0719413	-0.159728	0.103712	0.159196	0.227032	-0.0195195	0.150962	0.142434	0.211233	0.148907	0.38907	-0.109346	0.0368627	-0.00891075	0.00352075	-0.264991	0.228639	-0.0959373	0.266915	-0.277423	0.215924	-0.219656	0.170834	-0.180856	0.0459825	-0.117999	0.189643	
0.761428	5.15289	0	0	0.022774	-0.093	-0.056716	-0.08962	0.062069	-0.086011	-0.163083	0.105904	0.162676	0.217198	-0.019919	0.139477	0.1445	0.205396	0.141778	0.381383	-0.111892	0.030194	-0.015143	0.007593	-0.263596	0.210048	-0.097066	0.248964	-0.278625	0.207863	-0.224828	0.160885	-0.179969	0.033437	-0.12046	0.176064	
0.75466	5.15289	0	0	0.022126	-0.10548	-0.0510968	-0.105501	0.05998	-0.0979905	-0.169031	0.108146	0.160388	0.208626	-0.023427	0.124187	0.142353	0.197832	0.140808	0.365592	-0.114438	0.0235353	-0.0275938	0.0157287	-0.264533	0.198061	-0.104134	0.237271	-0.279829	0.199815	-0.224001	0.150365	-0.176041	0.0223363	-0.122191	0.170696	
0.749004	5.15442	0	0	0.021478	-0.11796	-0.0454775	-0.121382	0.057891	-0.10997	-0.17498	0.110388	0.1581	0.200054	-0.026935	0.108897	0.140207	0.190269	0.139838	0.3498	-0.116984	0.0168765	-0.0400445	0.0238645	-0.265471	0.186073	-0.111202	0.225578	-0.281034	0.191766	-0.223173	0.139845	-0.172113	0.0112355	-0.123921	0.165328	
0.745234	5.15594	0	0	0.02083	-0.13044	-0.0398582	-0.137262	0.055802	-0.121949	-0.180928	0.11263	0.155811	0.191482	-0.030443	0.093607	0.13806	0.182705	0.138868	0.334009	-0.119529	0.0102177	-0.0524953	0.0320003	-0.266408	0.174086	-0.118269	0.213885	-0.282238	0.183717	-0.222346	0.129325	-0.168185	0.00013475	-0.125652	0.159961	
0.743938	5.15747	0	0	0.020182	-0.14292	-0.034239	-0.153143	0.053713	-0.133929	-0.186876	0.114872	0.153523	0.18291	-0.033951	0.078317	0.135913	0.175142	0.137898	0.318217	-0.122075	0.003559	-0.064946	0.040136	-0.267346	0.162098	-0.125337	0.202192	-0.283442	0.175669	-0.221519	0.118805	-0.164257	-0.010966	-0.127383	0.154593	
0.744691	5.16662	0	0	0.0207122	-0.158718	-0.0325885	-0.166409	0.0531507	-0.150206	-0.193576	0.11925	0.153545	0.167823	-0.0405643	0.0592655	0.134795	0.164681	0.133602	0.302592	-0.116338	-0.0126538	-0.077379	0.04826	-0.270392	0.141466	-0.129194	0.181478	-0.282214	0.160754	-0.227456	0.11106	-0.171044	-0.021866	-0.128857	0.138256	
0.746731	5.16662	0	0	0.0212425	-0.174516	-0.030938	-0.179675	0.0525885	-0.166482	-0.200275	0.123628	0.153566	0.152736	-0.0471775	0.040214	0.133677	0.15422	0.129306	0.286968	-0.110601	-0.0288665	-0.089812	0.056384	-0.273438	0.120834	-0.13305	0.160763	-0.280985	0.145839	-0.233393	0.103316	-0.177831	-0.032766	-0.130331	0.12192	
0.749294	5.16815	0	0	0.0217728	-0.190315	-0.0292875	-0.19294	0.0520263	-0.182759	-0.206975	0.128005	0.153587	0.137649	-0.0537907	0.0211625	0.132559	0.14376	0.125011	0.271343	-0.104865	-0.0450793	-0.102245	0.064508	-0.276483	0.100202	-0.136906	0.140048	-0.279757	0.130924	-0.239329	0.0955707	-0.184619	-0.043666	-0.131804	0.105583	
0.751619	5.1712	0	0	0.022303	-0.206113	-0.027637	-0.206206	0.051464	-0.199036	-0.213675	0.132383	0.153609	0.122562	-0.060404	0.002111	0.131441	0.133299	0.120715	0.255718	-0.099128	-0.061292	-0.114678	0.072632	-0.279529	0.07957	-0.140763	0.119334	-0.278529	0.116009	-0.245266	0.087826	-0.191406	-0.054566	-0.133278	0.089246	
0.752944	5.17731	0	0	0.0228222	-0.221869	-0.022837	-0.219772	0.057579	-0.216318	-0.217023	0.134571	0.153621	0.107514	-0.0568038	-0.0206278	0.131347	0.119955	0.116416	0.240145	-0.100726	-0.0706172	-0.123991	0.078717	-0.274721	0.05138	-0.144631	0.0987052	-0.272047	0.0976897	-0.247442	0.0776427	-0.188192	-0.0736645	-0.131042	0.0726833	
0.752637	5.18646	0	0	0.0233415	-0.237626	-0.018037	-0.233337	0.063694	-0.2336	-0.220371	0.136759	0.153633	0.0924665	-0.0532035	-0.0433665	0.131252	0.106611	0.112117	0.224572	-0.102325	-0.0799425	-0.133304	0.084802	-0.269914	0.02319	-0.148499	0.0780765	-0.265565	0.0793705	-0.249617	0.0674595	-0.184979	-0.092763	-0.128805	0.0561205	
0.750814	5.19562	0	0	0.0238608	-0.253383	-0.013237	-0.246902	0.069809	-0.250883	-0.223719	0.138946	0.153644	0.0774188	-0.0496033	-0.0661053	0.131158	0.0932677	0.107817	0.208999	-0.103924	-0.0892678	-0.142616	0.090887	-0.265106	-0.005	-0.152366	0.0574477	-0.259083	0.0610512	-0.251793	0.0572763	-0.181765	-0.111862	-0.126569	0.0395578	
0.747858	5.20019	0	0	0.02438	-0.269139	-0.008437	-0.260468	0.075924	-0.268165	-0.227067	0.141134	0.153656	0.062371	-0.046003	-0.088844	0.131064	0.079924	0.103518	0.193426	-0.105522	-0.098593	-0.151929	0.096972	-0.260298	-0.03319	-0.156234	0.036819	-0.252601	0.042732	-0.253968	0.047093	-0.178552	-0.13096	-0.124332	0.022995	
0.744153	5.20782	0	0	0.0206785	-0.287223	-0.0131157	-0.273025	0.0753363	-0.284353	-0.240446	0.149876	0.147908	0.0486215	-0.0526377	-0.107734	0.124707	0.0706985	0.100151	0.175258	-0.106171	-0.110592	-0.167428	0.1071	-0.265679	-0.0471537	-0.158465	0.0221137	-0.251396	0.02789	-0.254676	0.040933	-0.179255	-0.138984	-0.128797	0.015146	
0.740083	5.2124	0	0	0.016977	-0.305307	-0.0177945	-0.285581	0.0747485	-0.300541	-0.253825	0.158618	0.142161	0.034872	-0.0592725	-0.126623	0.11835	0.061473	0.0967845	0.157091	-0.10682	-0.122591	-0.182927	0.117227	-0.27106	-0.0611175	-0.160696	0.0074085	-0.250192	0.013048	-0.255383	0.034773	-0.179958	-0.147008	-0.133262	0.007297	
0.736031	5.22461	0	0	0.0132755	-0.323391	-0.0224733	-0.298138	0.0741607	-0.316729	-0.267203	0.167359	0.136413	0.0211225	-0.0659073	-0.145512	0.111994	0.0522475	0.0934178	0.138924	-0.107468	-0.134591	-0.198426	0.127354	-0.27644	-0.0750813	-0.162927	-0.00729675	-0.248987	-0.001794	-0.256091	0.028613	-0.180661	-0.155033	-0.137727	-0.000552	
0.732303	5.22461	0	0	0.009574	-0.341475	-0.027152	-0.310695	0.073573	-0.332917	-0.280582	0.176101	0.130666	0.007373	-0.072542	-0.164402	0.105637	0.043022	0.090051	0.120756	-0.108117	-0.14659	-0.213925	0.137482	-0.281821	-0.089045	-0.165158	-0.022002	-0.247782	-0.016636	-0.256799	0.022453	-0.181364	-0.163057	-0.142192	-0.008401	
0.728878	5.22766	0	0	0.0135947	-0.367094	-0.024729	-0.326127	0.0744942	-0.353353	-0.287264	0.180467	0.12492	-0.00633325	-0.0805075	-0.179454	0.111783	0.025653	0.085742	0.105293	-0.107821	-0.161248	-0.226304	0.14557	-0.275925	-0.120276	-0.169046	-0.0424858	-0.246587	-0.0314428	-0.26349	0.0169033	-0.179732	-0.177676	-0.14369	-0.0246137	
0.725653	5.23529	0	0	0.0176155	-0.392714	-0.022306	-0.34156	0.0754155	-0.373788	-0.293945	0.184833	0.119174	-0.0200395	-0.088473	-0.194507	0.117929	0.008284	0.081433	0.0898295	-0.107525	-0.175906	-0.238683	0.153659	-0.270029	-0.151507	-0.172934	-0.0629695	-0.245393	-0.0462495	-0.270181	0.0113535	-0.178099	-0.192294	-0.145187	-0.0408265	
0.722527	5.23529	0	0	0.0216362	-0.418333	-0.019883	-0.356992	0.0763367	-0.394224	-0.300627	0.189199	0.113428	-0.0337457	-0.0964385	-0.20956	0.124075	-0.009085	0.077124	0.0743662	-0.10723	-0.190565	-0.251062	0.161747	-0.264133	-0.182738	-0.176821	-0.0834533	-0.244198	-0.0610563	-0.276872	0.00580375	-0.176467	-0.206912	-0.146684	-0.0570392	
0.719395	5.24139	0	0	0.025657	-0.443953	-0.01746	-0.372424	0.077258	-0.41466	-0.307308	0.193565	0.107682	-0.047452	-0.104404	-0.224612	0.130221	-0.026454	0.072815	0.058903	-0.106934	-0.205223	-0.263441	0.169836	-0.258237	-0.213969	-0.180709	-0.103937	-0.243003	-0.075863	-0.283563	0.000254	-0.174835	-0.221531	-0.148182	-0.073252	
0.716155	5.24444	0	0	0.0226202	-0.449616	-0.0182275	-0.378837	0.073613	-0.422174	-0.307308	0.193565	0.105383	-0.055907	-0.092882	-0.232141	0.129083	-0.0368185	0.0723105	0.0511242	-0.102187	-0.218638	-0.265776	0.169719	-0.255804	-0.235402	-0.180247	-0.115722	-0.23817	-0.0895217	-0.280522	-0.00833925	-0.176323	-0.227324	-0.151661	-0.0838445	
0.712763	5.25055	0	0	0.0195835	-0.455279	-0.018995	-0.38525	0.069968	-0.429688	-0.307308	0.193565	0.103083	-0.064362	-0.08136	-0.239669	0.127945	-0.047183	0.071806	0.0433455	-0.09744	-0.232054	-0.268112	0.169601	-0.253371	-0.256835	-0.179785	-0.127507	-0.233337	-0.103181	-0.277481	-0.0169325	-0.177812	-0.233118	-0.155139	-0.094437	
0.70928	5.2536	0	0	0.0165467	-0.460941	-0.0197625	-0.391663	0.066323	-0.437201	-0.307308	0.193565	0.100783	-0.072817	-0.069838	-0.247198	0.126807	-0.0575475	0.0713015	0.0355668	-0.092693	-0.245469	-0.270448	0.169484	-0.250938	-0.278268	-0.179322	-0.139293	-0.228504	-0.116839	-0.274441	-0.0255257	-0.179301	-0.238911	-0.158617	-0.105029	
0.705782	5.25513	0	0	0.01351	-0.466604	-0.02053	-0.398076	0.062678	-0.444715	-0.307308	0.193565	0.098484	-0.081272	-0.058316	-0.254727	0.125669	-0.067912	0.070797	0.027788	-0.087946	-0.258885	-0.272783	0.169367	-0.248505	-0.299701	-0.17886	-0.151078	-0.223671	-0.130498	-0.2714	-0.034119	-0.180789	-0.244704	-0.162096	-0.115622	
0.702344	5.26123	0	0	0.0104742	-0.472259	-0.010292	-0.392661	0.0544865	-0.439362	-0.313984	0.197927	0.0904545	-0.0884522	-0.0600915	-0.26223	0.118286	-0.0741775	0.073593	0.019886	-0.0914585	-0.262771	-0.27972	0.175543	-0.248367	-0.314636	-0.177804	-0.154062	-0.221257	-0.13732	-0.264657	-0.0368742	-0.188431	-0.243091	-0.154669	-0.116189	
0.699041	5.26581	0	0	0.0074385	-0.477914	-5.4E-05	-0.387246	0.046295	-0.43401	-0.320661	0.20229	0.082425	-0.0956325	-0.061867	-0.269733	0.110903	-0.080443	0.076389	0.011984	-0.094971	-0.266656	-0.286657	0.181719	-0.248229	-0.329571	-0.176748	-0.157046	-0.218844	-0.144141	-0.257914	-0.0396295	-0.196074	-0.241478	-0.147241	-0.116756	
0.695946	5.26581	0	0	0.00440275	-0.483569	0.010184	-0.381832	0.0381035	-0.428658	-0.327338	0.206653	0.0743955	-0.102813	-0.0636425	-0.277237	0.103519	-0.0867085	0.079185	0.004082	-0.0984835	-0.270542	-0.293594	0.187896	-0.248092	-0.344506	-0.175692	-0.160031	-0.21643	-0.150962	-0.25117	-0.0423847	-0.203716	-0.239865	-0.139814	-0.117324	
0.693101	5.27038	0	0	0.001367	-0.489224	0.020422	-0.376417	0.029912	-0.423305	-0.334014	0.211015	0.066366	-0.109993	-0.065418	-0.28474	0.096136	-0.092974	0.081981	-0.00382	-0.101996	-0.274428	-0.300531	0.194072	-0.247954	-0.359441	-0.174636	-0.163015	-0.214016	-0.157784	-0.244427	-0.04514	-0.211358	-0.238252	-0.132387	-0.117891	
0.690532	5.27344	0	0	0.0006715	-0.501482	0.0220147	-0.380918	0.0329445	-0.431875	-0.339928	0.213235	0.0652087	-0.121641	-0.07295	-0.288471	0.0939767	-0.100422	0.0796092	-0.00631725	-0.09185	-0.28929	-0.302863	0.193952	-0.240002	-0.381916	-0.173128	-0.17775	-0.216058	-0.163436	-0.239153	-0.0518875	-0.215106	-0.247621	-0.133144	-0.125965	
0.688263	5.27344	0	0	-2.4E-05	-0.513739	0.0236075	-0.38542	0.035977	-0.440446	-0.345842	0.215456	0.0640515	-0.13329	-0.080482	-0.292202	0.0918175	-0.107871	0.0772375	-0.0088145	-0.081704	-0.304152	-0.305195	0.193832	-0.232049	-0.404391	-0.171619	-0.192486	-0.218101	-0.169088	-0.23388	-0.058635	-0.218855	-0.256991	-0.133902	-0.134039	
0.686318	5.27344	0	0	-0.0007195	-0.525996	0.0252003	-0.389921	0.0390095	-0.449017	-0.351757	0.217676	0.0628942	-0.144938	-0.088014	-0.295932	0.0896582	-0.115319	0.0748658	-0.0113118	-0.071558	-0.319013	-0.307527	0.193713	-0.224097	-0.426866	-0.17011	-0.207222	-0.220143	-0.17474	-0.228606	-0.0653825	-0.222604	-0.26636	-0.13466	-0.142113	
0.684722	5.27801	0	0	-0.001415	-0.538254	0.026793	-0.394422	0.042042	-0.457587	-0.357671	0.219896	0.061737	-0.156586	-0.095546	-0.299663	0.087499	-0.122767	0.072494	-0.013809	-0.061412	-0.333875	-0.309859	0.193593	-0.216144	-0.449341	-0.168602	-0.221957	-0.222185	-0.180392	-0.223332	-0.07213	-0.226352	-0.275729	-0.135417	-0.150187	
0.683445	5.27954	0	0	-0.005619	-0.540585	0.0212725	-0.396002	0.036888	-0.460802	-0.357671	0.219896	0.057157	-0.158549	-0.088014	-0.295932	0.0895357	-0.128523	0.0833408	-0.0168495	-0.0585733	-0.341898	-0.310615	0.195731	-0.216033	-0.464189	-0.165442	-0.230886	-0.215321	-0.188368	-0.222573	-0.0742765	-0.233202	-0.276312	-0.131478	-0.161319	
0.682342	5.27954	0	0	-0.009823	-0.542917	0.015752	-0.397583	0.031734	-0.464017	-0.357671	0.219896	0.052577	-0.160512	-0.080482	-0.292202	0.0915725	-0.134279	0.0941875	-0.01989	-0.0557345	-0.34992	-0.311372	0.197869	-0.215922	-0.479038	-0.162283	-0.239816	-0.208457	-0.196344	-0.221813	-0.076423	-0.240052	-0.276895	-0.127539	-0.172451	
0.681247	5.27954	0	0	-0.014027	-0.545248	0.0102315	-0.399163	0.02658	-0.467232	-0.357671	0.219896	0.047997	-0.162474	-0.07295	-0.288471	0.0936092	-0.140035	0.105034	-0.0229305	-0.0528957	-0.357943	-0.312129	0.200007	-0.215811	-0.493886	-0.159124	-0.248745	-0.201593	-0.204319	-0.221053	-0.0785695	-0.246901	-0.277479	-0.1236	-0.183583	
0.679997	5.27954	0	0	-0.018231	-0.547579	0.004711	-0.400743	0.021426	-0.470447	-0.357671	0.219896	0.043417	-0.164437	-0.065418	-0.28474	0.095646	-0.145791	0.115881	-0.025971	-0.050057	-0.365966	-0.312885	0.202145	-0.2157	-0.508734	-0.155964	-0.257674	-0.194729	-0.212295	-0.220294	-0.080716	-0.253751	-0.278062	-0.119661	-0.194715	
0.678427	5.29022	0	0	-0.0170633	-0.55088	0.0023505	-0.402657	0.0147638	-0.469383	-0.361005	0.222074	0.0365617	-0.159958	-0.0605365	-0.273485	0.095646	-0.145791	0.11546	-0.015568	-0.048166	-0.37131	-0.306707	0.198108	-0.217859	-0.517157	-0.152197	-0.257848	-0.193123	-0.216833	-0.216538	-0.08317	-0.249939	-0.278867	-0.120645	-0.191933	
0.676412	5.29175	0	0	-0.0158955	-0.554181	-1E-05	-0.40457	0.0081015	-0.468318	-0.364339	0.224253	0.0297065	-0.155478	-0.055655	-0.262229	0.095646	-0.145791	0.115039	-0.005165	-0.046275	-0.376655	-0.300528	0.19407	-0.220017	-0.525579	-0.148429	-0.258022	-0.191518	-0.221371	-0.212782	-0.085624	-0.246127	-0.279671	-0.12163	-0.189152	
0.674135	5.30243	0	0	-0.0147277	-0.557482	-0.0023705	-0.406484	0.00143925	-0.467254	-0.367672	0.226431	0.0228513	-0.150999	-0.0507735	-0.250973	0.095646	-0.145791	0.114619	0.005238	-0.044384	-0.382	-0.29435	0.190033	-0.222175	-0.534002	-0.144662	-0.258196	-0.189912	-0.225908	-0.209027	-0.088078	-0.242315	-0.280476	-0.122614	-0.18637	
0.671935	5.30395	0	0	-0.01356	-0.560783	-0.004731	-0.408398	-0.005223	-0.46619	-0.371006	0.228609	0.015996	-0.146519	-0.045892	-0.239718	0.095646	-0.145791	0.114198	0.015641	-0.042493	-0.387344	-0.288172	0.185996	-0.224334	-0.542424	-0.140895	-0.25837	-0.188306	-0.230446	-0.205271	-0.090532	-0.238503	-0.281281	-0.123598	-0.183588	
0.67015	5.31616	0	0	-0.01356	-0.560783	-0.0078855	-0.408064	-0.00370975	-0.470466	-0.371763	0.230748	0.0125645	-0.151703	-0.0401213	-0.243488	0.0976812	-0.151543	0.116574	0.0181438	-0.040603	-0.392685	-0.290505	0.185877	-0.225365	-0.554021	-0.139842	-0.261346	-0.192761	-0.229279	-0.198514	-0.093297	-0.244643	-0.273896	-0.126553	-0.175238	
0.669119	5.32989	0	0	-0.01356	-0.560783	-0.01104	-0.40773	-0.0021965	-0.474742	-0.37252	0.232886	0.009133	-0.156888	-0.0343505	-0.247259	0.0997165	-0.157296	0.11895	0.0206465	-0.038713	-0.398027	-0.292839	0.185758	-0.226396	-0.565619	-0.13879	-0.264321	-0.197216	-0.228112	-0.191757	-0.096062	-0.250784	-0.26651	-0.129507	-0.166887	
0.669172	5.3421	0	0	-0.01356	-0.560783	-0.0141945	-0.407397	-0.00068325	-0.479019	-0.373276	0.235025	0.0057015	-0.162072	-0.0285798	-0.25103	0.101752	-0.163049	0.121327	0.0231492	-0.036823	-0.403368	-0.295172	0.18564	-0.227427	-0.577217	-0.137737	-0.267296	-0.201671	-0.226944	-0.185	-0.098827	-0.256925	-0.259125	-0.132462	-0.158537	
0.670354	5.35431	0	0	-0.01356	-0.560783	-0.017349	-0.407063	0.00083	-0.483295	-0.374033	0.237164	0.00227	-0.167256	-0.022809	-0.2548	0.103787	-0.168801	0.123703	0.025652	-0.034933	-0.408709	-0.297505	0.185521	-0.228458	-0.588814	-0.136684	-0.270272	-0.206126	-0.225777	-0.178243	-0.101592	-0.263065	-0.25174	-0.135417	-0.150187	
0.672356	5.36346	0	0	-0.0081865	-0.561756	-0.0181443	-0.404816	0.00083	-0.483295	-0.370699	0.234986	0.00227	-0.167256	-0.0223633	-0.243514	0.103787	-0.168801	0.129393	0.0280215	-0.0375135	-0.415228	-0.295172	0.18564	-0.229494	-0.600386	-0.138348	-0.276043	-0.204521	-0.230312	-0.176724	-0.105885	-0.266874	-0.250938	-0.128746	-0.158826	
0.674843	5.37567	0	0	-0.002813	-0.562729	-0.0189395	-0.40257	0.00083	-0.483295	-0.367366	0.232808	0.00227	-0.167256	-0.0219175	-0.232227	0.103787	-0.168801	0.135082	0.030391	-0.040094	-0.421747	-0.292839	0.185758	-0.23053	-0.611959	-0.140012	-0.281813	-0.202917	-0.234846	-0.175206	-0.110177	-0.270683	-0.250136	-0.122075	-0.167466	
0.677484	5.3894	0	0	0.0025605	-0.563703	-0.0197347	-0.400323	0.00083	-0.483295	-0.364032	0.230629	0.00227	-0.167256	-0.0214717	-0.220941	0.103787	-0.168801	0.140772	0.0327605	-0.0426745	-0.428267	-0.290505	0.185877	-0.231566	-0.623532	-0.141675	-0.287583	-0.201313	-0.23938	-0.173687	-0.11447	-0.274492	-0.249333	-0.115403	-0.176105	
0.679946	5.40161	0	0	0.007934	-0.564676	-0.02053	-0.398076	0.00083	-0.483295	-0.360698	0.228451	0.00227	-0.167256	-0.021026	-0.209654	0.103787	-0.168801	0.146462	0.03513	-0.045255	-0.434786	-0.288172	0.185996	-0.232602	-0.635104	-0.143339	-0.293354	-0.199708	-0.243915	-0.172168	-0.118762	-0.278301	-0.248531	-0.108732	-0.184745	
0.681983	5.41382	0	0	0.0067655	-0.561374	-0.0197625	-0.391663	0.00083	-0.483295	-0.347351	0.219729	0.00227	-0.167256	-0.0130257	-0.194573	0.104804	-0.171676	0.152158	0.0375012	-0.0433685	-0.440117	-0.288172	0.185996	-0.240306	-0.642297	-0.137467	-0.299475	-0.197303	-0.250712	-0.172168	-0.118762	-0.272164	-0.255914	-0.112448	-0.184456	
0.683726	5.42145	0	0	0.005597	-0.558072	-0.018995	-0.38525	0.00083	-0.483295	-0.334003	0.211008	0.00227	-0.167256	-0.0050255	-0.179491	0.105821	-0.17455	0.157854	0.0398725	-0.041482	-0.445449	-0.288172	0.185996	-0.248011	-0.649491	-0.131596	-0.305596	-0.194898	-0.25751	-0.172168	-0.118762	-0.266026	-0.263296	-0.116165	-0.184167	
0.685406	5.4306	0	0	0.0044285	-0.55477	-0.0182275	-0.378837	0.00083	-0.483295	-0.320656	0.202286	0.00227	-0.167256	0.00297475	-0.16441	0.106839	-0.177425	0.16355	0.0422438	-0.0395955	-0.450781	-0.288172	0.185996	-0.255715	-0.656685	-0.125724	-0.311717	-0.192492	-0.264307	-0.172168	-0.118762	-0.259889	-0.270679	-0.119882	-0.183877	
0.687254	5.43976	0	0	0.00326	-0.551468	-0.01746	-0.372424	0.00083	-0.483295	-0.307308	0.193565	0.00227	-0.167256	0.010975	-0.149329	0.107856	-0.1803	0.169246	0.044615	-0.037709	-0.456112	-0.288172	0.185996	-0.263419	-0.663878	-0.119853	-0.317838	-0.190087	-0.271104	-0.172168	-0.118762	-0.253751	-0.278062	-0.123598	-0.183588	
0.689503	5.44891	0	0	0.0109747	-0.559047	-0.0190525	-0.367924	0.00234225	-0.487569	-0.303968	0.191382	-0.00343575	-0.166001	0.0145255	-0.134193	0.102641	-0.179101	0.170181	0.0419725	-0.0339392	-0.466766	-0.288172	0.185996	-0.26446	-0.675404	-0.120904	-0.314866	-0.19454	-0.269935	-0.164645	-0.123678	-0.251491	-0.274479	-0.119882	-0.183877	
0.692376	5.45349	0	0	0.0186895	-0.566627	-0.020645	-0.363424	0.0038545	-0.491843	-0.300628	0.1892	-0.0091415	-0.164747	0.018076	-0.119058	0.0974255	-0.177903	0.171116	0.03933	-0.0301695	-0.47742	-0.288172	0.185996	-0.2655	-0.68693	-0.121956	-0.311895	-0.198993	-0.268767	-0.157122	-0.128593	-0.249232	-0.270897	-0.116165	-0.184167	
0.695895	5.46112	0	0	0.0264042	-0.574207	-0.0222375	-0.358924	0.00536675	-0.496117	-0.297288	0.187018	-0.0148473	-0.163492	0.0216265	-0.103923	0.0922102	-0.176704	0.172051	0.0366875	-0.0263997	-0.488074	-0.288172	0.185996	-0.266541	-0.698456	-0.123008	-0.308924	-0.203447	-0.267598	-0.149599	-0.133509	-0.246973	-0.267315	-0.112448	-0.184456	
0.699848	5.46265	0	0	0.034119	-0.581786	-0.02383	-0.354424	0.006879	-0.500391	-0.293948	0.184835	-0.020553	-0.162238	0.025177	-0.088787	0.086995	-0.175506	0.172986	0.034045	-0.02263	-0.498728	-0.288172	0.185996	-0.267581	-0.709982	-0.124059	-0.305952	-0.2079	-0.266429	-0.142076	-0.138425	-0.244713	-0.263732	-0.108732	-0.184745	
0.704011	5.4657	0	0	0.0275727	-0.577508	-0.0214718	-0.352503	0.0083905	-0.504663	-0.287264	0.180468	-0.01714	-0.171884	0.0296343	-0.0887857	0.0910593	-0.186992	0.17009	0.02376	-0.026158	-0.502559	-0.29435	0.190033	-0.274154	-0.720306	-0.125726	-0.311714	-0.208701	-0.264165	-0.143595	-0.134132	-0.251631	-0.254149	-0.10797	-0.176679	
0.708158	5.46722	0	0	0.0210265	-0.573231	-0.0191135	-0.350583	0.009902	-0.508935	-0.280579	0.1761	-0.013727	-0.18153	0.0340915	-0.0887845	0.0951235	-0.198479	0.167194	0.013475	-0.029686	-0.50639	-0.300528	0.19407	-0.280726	-0.730629	-0.127393	-0.317476	-0.209502	-0.2619	-0.145114	-0.12984	-0.258549	-0.244566	-0.107207	-0.168614	
0.712065	5.46722	0	0	0.0144803	-0.568954	-0.0167552	-0.348662	0.0114135	-0.513207	-0.273895	0.171733	-0.010314	-0.191176	0.0385488	-0.0887833	0.0991877	-0.209965	0.164299	0.00319	-0.033214	-0.510222	-0.306707	0.198108	-0.287299	-0.740953	-0.12906	-0.323237	-0.210304	-0.259636	-0.146632	-0.125548	-0.265467	-0.234983	-0.106445	-0.160549	
0.715515	5.46417	0	0	0.007934	-0.564676	-0.014397	-0.346741	0.012925	-0.517479	-0.267211	0.167365	-0.006901	-0.200822	0.043006	-0.088782	0.103252	-0.221451	0.161403	-0.007095	-0.036742	-0.514053	-0.312885	0.202145	-0.293872	-0.751276	-0.130727	-0.328999	-0.211105	-0.257371	-0.148151	-0.121255	-0.272385	-0.2254	-0.105683	-0.152483	
0.71835	5.4657	0	0	0.0144803	-0.568954	-0.0136325	-0.340313	0.014436	-0.521749	-0.247884	0.156381	-0.0114665	-0.202778	0.0479005	-0.077394	0.104267	-0.224321	0.159955	-0.0122288	-0.03298	-0.524684	-0.315972	0.204162	-0.300438	-0.761573	-0.131345	-0.337719	-0.210304	-0.259636	-0.144387	-0.123714	-0.263207	-0.231397	-0.108415	-0.154981	
0.720445	5.46417	0	0	0.0210265	-0.573231	-0.012868	-0.333884	0.015947	-0.526018	-0.228557	0.145397	-0.016032	-0.204734	0.052795	-0.066006	0.105283	-0.22719	0.158506	-0.0173625	-0.029218	-0.535316	-0.31906	0.20618	-0.307005	-0.771869	-0.131963	-0.34644	-0.209502	-0.2619	-0.140623	-0.126173	-0.254028	-0.237395	-0.111147	-0.157479	
0.721674	5.46265	0	0	0.0275727	-0.577508	-0.0121035	-0.327456	0.017458	-0.530288	-0.20923	0.134413	-0.0205975	-0.206691	0.0576895	-0.054618	0.106298	-0.23006	0.157058	-0.0224962	-0.025456	-0.545948	-0.322148	0.208197	-0.313572	-0.782166	-0.132581	-0.35516	-0.208701	-0.264165	-0.136859	-0.128633	-0.24485	-0.243392	-0.11388	-0.159976	
0.721913	5.45807	0	0	0.034119	-0.581786	-0.011339	-0.321027	0.018969	-0.534558	-0.189903	0.123429	-0.025163	-0.208647	0.062584	-0.04323	0.107313	-0.232929	0.15561	-0.02763	-0.021694	-0.556579	-0.325235	0.210214	-0.320138	-0.792463	-0.133199	-0.36388	-0.2079	-0.266429	-0.133095	-0.131092	-0.235672	-0.249389	-0.116612	-0.162474	
0.721036	5.45196	0	0	0.037164	-0.576157	-0.013771	-0.305561	0.025634	-0.535631	-0.17313	0.11247	-0.0240267	-0.211858	0.0710273	-0.0165475	0.103115	-0.234595	0.157474	-0.032899	-0.0207543	-0.559235	-0.328321	0.212231	-0.324536	-0.794445	-0.128382	-0.367028	-0.213151	-0.262998	-0.130089	-0.131405	-0.236449	-0.247193	-0.110923	-0.168332	
0.719021	5.45044	0	0	0.040209	-0.570528	-0.016203	-0.290094	0.032299	-0.536703	-0.156358	0.10151	-0.0228905	-0.215068	0.0794705	0.010135	0.0989165	-0.236262	0.159338	-0.038168	-0.0198145	-0.561891	-0.331408	0.214248	-0.328933	-0.796427	-0.123564	-0.370175	-0.218402	-0.259567	-0.127083	-0.131719	-0.237226	-0.244997	-0.105234	-0.174189	
0.716294	5.44586	0	0	0.043254	-0.564898	-0.018635	-0.274627	0.038964	-0.537775	-0.139586	0.0905505	-0.0217543	-0.218279	0.0879137	0.0368175	0.0947183	-0.237928	0.161203	-0.043437	-0.0188747	-0.564547	-0.334495	0.216264	-0.333331	-0.798409	-0.118747	-0.373323	-0.223653	-0.256136	-0.124078	-0.132032	-0.238003	-0.2428	-0.0995457	-0.180047	
0.713398	5.44281	0	0	0.046299	-0.559269	-0.021067	-0.259161	0.045629	-0.538848	-0.122813	0.079591	-0.020618	-0.22149	0.096357	0.0635	0.09052	-0.239594	0.163067	-0.048706	-0.017935	-0.567203	-0.337581	0.218281	-0.337729	-0.800391	-0.113929	-0.376471	-0.228904	-0.252705	-0.121072	-0.132346	-0.23878	-0.240604	-0.093857	-0.185905	
0.710879	5.43671	0	0	0.0385778	-0.551683	-0.0195087	-0.254968	0.037453	-0.533506	-0.116095	0.075201	-0.0240458	-0.22665	0.0909507	0.078779	0.093562	-0.248191	0.159235	-0.0563183	-0.0242827	-0.563056	-0.341423	0.222435	-0.349862	-0.79489	-0.118128	-0.364603	-0.221605	-0.250507	-0.117337	-0.126527	-0.238854	-0.230417	-0.0903575	-0.175338	
0.70928	5.42755	0	0	0.0308565	-0.544096	-0.0179505	-0.250775	0.029277	-0.528164	-0.109377	0.070811	-0.0274735	-0.23181	0.0855445	0.094058	0.096604	-0.256788	0.155403	-0.0639305	-0.0306305	-0.558908	-0.345264	0.226589	-0.361994	-0.789389	-0.122328	-0.352735	-0.214306	-0.24831	-0.113602	-0.120709	-0.238928	-0.22023	-0.086858	-0.164772	
0.709142	5.4245	0	0	0.0231352	-0.536509	-0.0163923	-0.246582	0.021101	-0.522821	-0.102658	0.066421	-0.0309012	-0.23697	0.0801383	0.109337	0.099646	-0.265384	0.151572	-0.0715428	-0.0369783	-0.55476	-0.349106	0.230744	-0.374127	-0.783887	-0.126528	-0.340867	-0.207007	-0.246113	-0.109867	-0.114891	-0.239001	-0.210043	-0.0833585	-0.154205	
0.710593	5.42145	0	0	0.015414	-0.528923	-0.014834	-0.242389	0.012925	-0.517479	-0.09594	0.062031	-0.034329	-0.24213	0.074732	0.124616	0.102688	-0.273981	0.14774	-0.079155	-0.043326	-0.550613	-0.352948	0.234898	-0.38626	-0.778386	-0.130727	-0.328999	-0.199708	-0.243915	-0.106132	-0.109072	-0.239075	-0.199856	-0.079859	-0.143639	
0.713082	5.41687	0	0	0.0207953	-0.529897	-0.014076	-0.23593	0.012925	-0.517479	-0.0858528	0.05544	-0.0445772	-0.242825	0.077851	0.128459	0.098491	-0.275641	0.14391	-0.0867535	-0.0414473	-0.555922	-0.356032	0.236913	-0.389529	-0.783524	-0.131345	-0.337719	-0.206567	-0.235947	-0.103122	-0.109386	-0.23448	-0.202858	-0.0788723	-0.146427	
0.715988	5.41077	0	0	0.0261765	-0.530871	-0.013318	-0.22947	0.012925	-0.517479	-0.0757655	0.048849	-0.0548255	-0.243521	0.08097	0.132302	0.094294	-0.277301	0.14008	-0.094352	-0.0395685	-0.561232	-0.359117	0.238928	-0.392798	-0.788663	-0.131963	-0.34644	-0.213425	-0.22798	-0.100112	-0.1097	-0.229884	-0.205861	-0.0778855	-0.149216	
0.718693	5.40466	0	0	0.0315577	-0.531844	-0.01256	-0.223011	0.012925	-0.517479	-0.0656782	0.042258	-0.0650737	-0.244217	0.084089	0.136144	0.090097	-0.278962	0.13625	-0.10195	-0.0376898	-0.566542	-0.362201	0.240944	-0.396067	-0.793801	-0.132581	-0.35516	-0.220284	-0.220012	-0.0971028	-0.110013	-0.225289	-0.208864	-0.0768987	-0.152004	
0.720577	5.40466	0	0	0.036939	-0.532818	-0.011802	-0.216552	0.012925	-0.517479	-0.055591	0.035667	-0.075322	-0.244912	0.087208	0.139987	0.0859	-0.280622	0.13242	-0.109549	-0.035811	-0.571851	-0.365285	0.242959	-0.399336	-0.798939	-0.133199	-0.36388	-0.227143	-0.212044	-0.094093	-0.110327	-0.220694	-0.211866	-0.075912	-0.154793	
0.721048	5.40008	0	0	0.045372	-0.528149	-0.0007565	-0.213325	0.0195893	-0.518549	-0.0387528	0.0246642	-0.0741887	-0.248114	0.0920945	0.151518	0.087925	-0.286345	0.127664	-0.114511	-0.0367502	-0.569196	-0.367612	0.242835	-0.41144	-0.793453	-0.136965	-0.363698	-0.2251	-0.206402	-0.0918428	-0.10849	-0.217653	-0.21047	-0.0778858	-0.149215	
0.720015	5.39093	0	0	0.053805	-0.523481	0.010289	-0.210097	0.0262535	-0.51962	-0.0219145	0.0136615	-0.0730555	-0.251317	0.096981	0.163049	0.08995	-0.292068	0.122907	-0.119474	-0.0376895	-0.566542	-0.369938	0.242712	-0.423544	-0.787967	-0.14073	-0.363517	-0.223057	-0.200759	-0.0895925	-0.106653	-0.214612	-0.209074	-0.0798595	-0.143637	
0.717848	5.38788	0	0	0.062238	-0.518812	0.0213345	-0.20687	0.0329178	-0.52069	-0.00507625	0.00265875	-0.0719223	-0.25452	0.101867	0.17458	0.091975	-0.297791	0.11815	-0.124436	-0.0386288	-0.563887	-0.372264	0.242588	-0.435647	-0.782482	-0.144495	-0.363335	-0.221014	-0.195116	-0.0873422	-0.104816	-0.211572	-0.207678	-0.0818332	-0.138059	
0.714931	5.38788	0	0	0.070671	-0.514143	0.03238	-0.203643	0.039582	-0.52176	0.011762	-0.008344	-0.070789	-0.257722	0.106754	0.186111	0.094	-0.303514	0.113394	-0.129399	-0.039568	-0.561233	-0.374591	0.242464	-0.447751	-0.776996	-0.148261	-0.363154	-0.218971	-0.189474	-0.085092	-0.102979	-0.208531	-0.206282	-0.083807	-0.132481	
0.711652	5.37872	0	0	0.0748922	-0.511806	0.0299738	-0.196842	0.0380697	-0.517486	0.011762	-0.008344	-0.0764733	-0.256469	0.10716	0.197648	0.0887933	-0.302311	0.107714	-0.131734	-0.04779	-0.551777	-0.374591	0.242464	-0.456584	-0.766378	-0.148695	-0.351467	-0.222186	-0.180389	-0.0844012	-0.088528	-0.206268	-0.202683	-0.0793215	-0.124679	
0.708396	5.37414	0	0	0.0791135	-0.509469	0.0275675	-0.190041	0.0365575	-0.513212	0.011762	-0.008344	-0.0821575	-0.255217	0.107566	0.209184	0.0835865	-0.301107	0.102035	-0.13407	-0.056012	-0.542322	-0.374591	0.242464	-0.465416	-0.755759	-0.149128	-0.339781	-0.225401	-0.171304	-0.0837105	-0.074077	-0.204004	-0.199084	-0.074836	-0.116877	
0.705504	5.37262	0	0	0.0833347	-0.507132	0.0251612	-0.18324	0.0350453	-0.508938	0.011762	-0.008344	-0.0878417	-0.253964	0.107971	0.220721	0.0783797	-0.299903	0.0963555	-0.136405	-0.064234	-0.532866	-0.374591	0.242464	-0.474248	-0.74514	-0.149562	-0.328095	-0.228615	-0.162219	-0.0830198	-0.059626	-0.201741	-0.195485	-0.0703505	-0.109075	
0.703069	5.36499	0	0	0.087556	-0.504795	0.022755	-0.176439	0.033533	-0.504664	0.011762	-0.008344	-0.093526	-0.252711	0.108377	0.232258	0.073173	-0.2987	0.090676	-0.13874	-0.072456	-0.52341	-0.374591	0.242464	-0.483081	-0.734522	-0.149996	-0.316408	-0.23183	-0.153134	-0.082329	-0.045175	-0.199478	-0.191886	-0.065865	-0.101273	
0.701089	5.36041	0	0	0.087556	-0.504795	0.0203468	-0.169633	0.033533	-0.504664	0.00839175	-0.00614175	-0.0969417	-0.257858	0.106614	0.224556	0.075196	-0.304418	0.0868545	-0.146309	-0.0670533	-0.524898	-0.377673	0.244478	-0.495154	-0.729058	-0.156472	-0.31902	-0.240302	-0.140606	-0.080882	-0.032847	-0.204078	-0.18888	-0.0708125	-0.0872908	
0.699563	5.35126	0	0	0.087556	-0.504795	0.0179385	-0.162827	0.033533	-0.504664	0.0050215	-0.0039395	-0.100358	-0.263004	0.104852	0.216855	0.077219	-0.310135	0.083033	-0.153878	-0.0616505	-0.526386	-0.380755	0.246492	-0.507227	-0.723593	-0.162949	-0.321632	-0.248775	-0.128078	-0.079435	-0.020519	-0.208678	-0.185874	-0.07576	-0.0733085	
0.698489	5.34668	0	0	0.087556	-0.504795	0.0155303	-0.156021	0.033533	-0.504664	0.00165125	-0.00173725	-0.103773	-0.268151	0.103089	0.209153	0.079242	-0.315853	0.0792115	-0.161446	-0.0562477	-0.527874	-0.383837	0.248506	-0.5193	-0.718128	-0.169426	-0.324245	-0.257247	-0.115551	-0.077988	-0.008191	-0.213279	-0.182869	-0.0807075	-0.0593263	
0.697867	5.34668	0	0	0.087556	-0.504795	0.013122	-0.149215	0.033533	-0.504664	-0.001719	0.000465	-0.107189	-0.273298	0.101326	0.201452	0.081265	-0.32157	0.07539	-0.169015	-0.050845	-0.529362	-0.386919	0.25052	-0.531373	-0.712664	-0.175902	-0.326857	-0.265719	-0.103023	-0.076541	0.004137	-0.217879	-0.179863	-0.085655	-0.045344	
0.697693	5.34363	0	0	0.0852093	-0.498163	0.0146798	-0.144996	0.0305062	-0.49611	0.005023	-0.00394025	-0.112864	-0.272047	0.0941348	0.209101	0.0802537	-0.318712	0.072092	-0.168871	-0.0536667	-0.521387	-0.386919	0.25052	-0.539075	-0.705207	-0.175902	-0.326857	-0.269746	-0.0916423	-0.0743335	0.01433	-0.22014	-0.183464	-0.087636	-0.0397448	
0.697964	5.33447	0	0	0.0828625	-0.49153	0.0162375	-0.140778	0.0274795	-0.487556	0.011765	-0.0083455	-0.118539	-0.270797	0.0869435	0.216749	0.0792425	-0.315854	0.068794	-0.168728	-0.0564885	-0.513412	-0.386919	0.25052	-0.546777	-0.69775	-0.175902	-0.326857	-0.273773	-0.0802615	-0.072126	0.024523	-0.222401	-0.187064	-0.089617	-0.0341455	
0.698673	5.32989	0	0	0.0805157	-0.484897	0.0177952	-0.13656	0.0244528	-0.479001	0.018507	-0.0127508	-0.124214	-0.269546	0.0797522	0.224398	0.0782313	-0.312995	0.065496	-0.168584	-0.0593103	-0.505437	-0.386919	0.25052	-0.554479	-0.690294	-0.175902	-0.326857	-0.2778	-0.0688808	-0.0699185	0.034716	-0.224661	-0.190664	-0.091598	-0.0285462	
0.699818	5.32989	0	0	0.078169	-0.478265	0.019353	-0.132341	0.021426	-0.470447	0.025249	-0.017156	-0.129889	-0.268296	0.072561	0.232047	0.07722	-0.310137	0.062198	-0.16844	-0.062132	-0.497462	-0.386919	0.25052	-0.562181	-0.682837	-0.175902	-0.326857	-0.281827	-0.0575	-0.067711	0.044909	-0.226922	-0.194265	-0.093579	-0.022947	
0.701391	5.32379	0	0	0.0788657	-0.465956	0.0161367	-0.123251	0.0168802	-0.4576	0.025249	-0.017156	-0.138953	-0.257457	0.0688745	0.25514	0.0751962	-0.304418	0.0603463	-0.163207	-0.0550833	-0.489789	-0.380754	0.246492	-0.566647	-0.670214	-0.178445	-0.309215	-0.286666	-0.0438238	-0.0678077	0.0616287	-0.233854	-0.184658	-0.0948135	-0.0092105	
0.703372	5.31769	0	0	0.0795625	-0.453647	0.0129205	-0.114162	0.0123345	-0.444754	0.025249	-0.017156	-0.148016	-0.246618	0.065188	0.278234	0.0731725	-0.298698	0.0584945	-0.157973	-0.0480345	-0.482117	-0.374589	0.242463	-0.571114	-0.657591	-0.180988	-0.291574	-0.291505	-0.0301475	-0.0679045	0.0783485	-0.240787	-0.17505	-0.096048	0.004526	
0.705536	5.31311	0	0	0.0802593	-0.441339	0.00970425	-0.105072	0.00778875	-0.431907	0.025249	-0.017156	-0.15708	-0.23578	0.0615015	0.301328	0.0711488	-0.292979	0.0566427	-0.15274	-0.0409858	-0.474444	-0.368424	0.238434	-0.575581	-0.644969	-0.183531	-0.273932	-0.296345	-0.0164712	-0.0680012	0.0950682	-0.247719	-0.165442	-0.0972825	0.0182625	
0.707534	5.30853	0	0	0.080956	-0.42903	0.006488	-0.095983	0.003243	-0.41906	0.025249	-0.017156	-0.166143	-0.224941	0.057815	0.324421	0.069125	-0.28726	0.054791	-0.147507	-0.033937	-0.466771	-0.362259	0.234406	-0.580047	-0.632346	-0.186074	-0.25629	-0.301184	-0.002795	-0.068098	0.111788	-0.254651	-0.155835	-0.098517	0.031999	
0.709013	5.30243	0	0	0.0894062	-0.424324	0.0056835	-0.093709	0.00839275	-0.415833	0.0211203	-0.012813	-0.167275	-0.221742	0.0560647	0.316692	0.0671	-0.281537	0.0538645	-0.144889	-0.0395985	-0.450771	-0.35609	0.230375	-0.589982	-0.618567	-0.193446	-0.235456	-0.300776	0.007469	-0.0705158	0.135082	-0.254735	-0.145614	-0.0990193	0.0539313	
0.709619	5.30243	0	0	0.0978565	-0.419617	0.004879	-0.091435	0.0135425	-0.412605	0.0169915	-0.00847	-0.168407	-0.218543	0.0543145	0.308963	0.065075	-0.275814	0.052938	-0.142271	-0.04526	-0.434771	-0.34992	0.226344	-0.599918	-0.604788	-0.200818	-0.214621	-0.300369	0.017733	-0.0729335	0.158376	-0.254819	-0.135392	-0.0995215	0.0758635	
0.709	5.29785	0	0	0.106307	-0.414911	0.0040745	-0.089161	0.0186923	-0.409378	0.0128627	-0.004127	-0.169539	-0.215343	0.0525642	0.301234	0.06305	-0.270091	0.0520115	-0.139653	-0.0509215	-0.418771	-0.343751	0.222312	-0.609854	-0.591008	-0.20819	-0.193787	-0.299961	0.027997	-0.0753513	0.181669	-0.254903	-0.125171	-0.100024	0.0977958	
0.706972	5.29175	0	0	0.114757	-0.410204	0.00327	-0.086887	0.023842	-0.406151	0.008734	0.000216	-0.170671	-0.212144	0.050814	0.293505	0.061025	-0.264368	0.051085	-0.137035	-0.056583	-0.402771	-0.337581	0.218281	-0.619789	-0.577229	-0.215562	-0.172952	-0.299553	0.038261	-0.077769	0.204963	-0.254987	-0.11495	-0.100526	0.119728	
0.704026	5.28564	0	0	0.120861	-0.398821	0.00401925	-0.0803797	0.027477	-0.398626	0.0121055	-0.00198725	-0.172936	-0.205742	0.0449845	0.297314	0.069413	-0.261041	0.0440827	-0.126418	-0.0549515	-0.39357	-0.331407	0.214247	-0.628604	-0.566607	-0.216617	-0.169971	-0.307233	0.0485508	-0.0770598	0.211195	-0.264175	-0.108946	-0.102518	0.125359	
0.70082	5.28717	0	0	0.126964	-0.387438	0.0047685	-0.0738725	0.031112	-0.391101	0.015477	-0.0041905	-0.175202	-0.199341	0.039155	0.301123	0.077801	-0.257714	0.0370805	-0.115802	-0.05332	-0.384369	-0.325233	0.210213	-0.637418	-0.555985	-0.217672	-0.166991	-0.314914	0.0588405	-0.0763505	0.217426	-0.273363	-0.102942	-0.104511	0.13099	
0.698014	5.28412	0	0	0.133068	-0.376055	0.00551775	-0.0673653	0.034747	-0.383576	0.0188485	-0.00639375	-0.177467	-0.192939	0.0333255	0.304933	0.086189	-0.254387	0.0300783	-0.105186	-0.0516885	-0.375167	-0.319059	0.206179	-0.646232	-0.545363	-0.218726	-0.164011	-0.322594	0.0691303	-0.0756412	0.223658	-0.282551	-0.0969388	-0.106504	0.136621	
0.696268	5.28717	0	0	0.139172	-0.364672	0.006267	-0.060858	0.038382	-0.376051	0.02222	-0.008597	-0.179732	-0.186537	0.027496	0.308742	0.094577	-0.25106	0.023076	-0.094569	-0.050057	-0.365966	-0.312885	0.202145	-0.655047	-0.534741	-0.219781	-0.16103	-0.330274	0.07942	-0.074932	0.229889	-0.291739	-0.090935	-0.108496	0.142252	
0.696226	5.29175	0	0	0.14528	-0.353258	0.00540175	-0.0497838	0.0322962	-0.358852	0.032343	-0.0152115	-0.183133	-0.176926	0.029242	0.316474	0.0895025	-0.236718	0.028739	-0.0922227	-0.0439565	-0.355552	-0.303616	0.196088	-0.659528	-0.522078	-0.220244	-0.149259	-0.333512	0.0885703	-0.074224	0.236128	-0.29252	-0.0887293	-0.106762	0.147618	
0.698038	5.29785	0	0	0.151388	-0.341843	0.0045365	-0.0387095	0.0262105	-0.341653	0.042466	-0.021826	-0.186534	-0.167314	0.030988	0.324205	0.084428	-0.222377	0.034402	-0.0898765	-0.037856	-0.345138	-0.294347	0.190031	-0.664008	-0.509415	-0.220708	-0.137489	-0.33675	0.0977205	-0.073516	0.242368	-0.2933	-0.0865235	-0.105029	0.152983	
0.701265	5.3009	0	0	0.157496	-0.330429	0.00367125	-0.0276353	0.0201248	-0.324454	0.052589	-0.0284405	-0.189935	-0.157702	0.032734	0.331937	0.0793535	-0.208035	0.040065	-0.0875303	-0.0317555	-0.334724	-0.285077	0.183975	-0.668489	-0.496752	-0.221171	-0.125719	-0.339987	0.106871	-0.072808	0.248607	-0.29408	-0.0843177	-0.103295	0.158349	
0.705433	5.31311	0	0	0.163604	-0.319014	0.002806	-0.016561	0.014039	-0.307255	0.062712	-0.035055	-0.193336	-0.148091	0.03448	0.339668	0.074279	-0.193693	0.045728	-0.085184	-0.025655	-0.32431	-0.275808	0.177918	-0.672969	-0.484089	-0.221634	-0.113948	-0.343225	0.116021	-0.0721	0.254846	-0.294861	-0.082112	-0.101562	0.163715	
0.71007	5.32379	0	0	0.161237	-0.312325	0.0059725	-0.016877	0.014039	-0.307255	0.055962	-0.0306445	-0.19447	-0.144885	0.0245615	0.355033	0.076441	-0.186273	0.0396475	-0.077177	-0.031347	-0.308224	-0.272716	0.175897	-0.677456	-0.471408	-0.222104	-0.102154	-0.345656	0.12289	-0.0691428	0.262978	-0.293392	-0.076284	-0.106553	0.177821	
0.7147	5.33447	0	0	0.15887	-0.305635	0.009139	-0.017193	0.014039	-0.307255	0.049212	-0.026234	-0.195605	-0.141679	0.014643	0.370398	0.078603	-0.178852	0.033567	-0.06917	-0.037039	-0.292137	-0.269624	0.173877	-0.681943	-0.458727	-0.222573	-0.09036	-0.348086	0.129758	-0.0661855	0.271111	-0.291924	-0.070456	-0.111544	0.191928	
0.718888	5.34973	0	0	0.156503	-0.298946	0.0123055	-0.017509	0.014039	-0.307255	0.042462	-0.0218235	-0.19674	-0.138473	0.0047245	0.385762	0.080765	-0.171431	0.0274865	-0.061163	-0.042731	-0.276051	-0.266533	0.171856	-0.68643	-0.446046	-0.223043	-0.078566	-0.350517	0.136627	-0.0632282	0.279243	-0.290455	-0.064628	-0.116536	0.206034	
0.72257	5.36499	0	0	0.154136	-0.292256	0.015472	-0.017825	0.014039	-0.307255	0.035712	-0.017413	-0.197874	-0.135267	-0.005194	0.401127	0.082927	-0.164011	0.021406	-0.053156	-0.048423	-0.259965	-0.263441	0.169836	-0.690917	-0.433365	-0.223513	-0.066772	-0.352947	0.143496	-0.060271	0.287375	-0.288986	-0.0588	-0.121527	0.22014	
0.725902	5.3772	0	0	0.160743	-0.296573	0.0114985	-0.0152288	0.014039	-0.307255	0.035712	-0.017413	-0.197874	-0.135267	-0.0113907	0.393334	0.0819098	-0.161136	0.014821	-0.052887	-0.048423	-0.259965	-0.269624	0.173876	-0.694123	-0.438584	-0.228915	-0.0724335	-0.353758	0.145787	-0.0694063	0.296702	-0.298169	-0.0527995	-0.123526	0.225789	
0.729042	5.39245	0	0	0.16735	-0.30089	0.007525	-0.0126325	0.014039	-0.307255	0.035712	-0.017413	-0.197874	-0.135267	-0.0175875	0.38554	0.0808925	-0.158261	0.008236	-0.052618	-0.048423	-0.259965	-0.275806	0.177916	-0.697329	-0.443802	-0.234316	-0.078095	-0.354568	0.148078	-0.0785415	0.306029	-0.307352	-0.046799	-0.125524	0.231438	
0.732149	5.40619	0	0	0.173957	-0.305207	0.0035515	-0.0100363	0.014039	-0.307255	0.035712	-0.017413	-0.197874	-0.135267	-0.0237842	0.377746	0.0798752	-0.155387	0.001651	-0.052349	-0.048423	-0.259965	-0.281989	0.181956	-0.700534	-0.44902	-0.239718	-0.0837565	-0.355378	0.150368	-0.0876767	0.315357	-0.316535	-0.0407985	-0.127523	0.237086	
0.735379	5.41382	0	0	0.180564	-0.309524	-0.000422	-0.00744	0.014039	-0.307255	0.035712	-0.017413	-0.197874	-0.135267	-0.029981	0.369953	0.078858	-0.152512	-0.004934	-0.05208	-0.048423	-0.259965	-0.288172	0.185996	-0.70374	-0.454239	-0.24512	-0.089418	-0.356189	0.152659	-0.096812	0.324684	-0.325718	-0.034798	-0.129522	0.242735	
0.738846	5.4245	0	0	0.181748	-0.31287	0.0027445	-0.0077555	0.0155615	-0.311558	0.0390865	-0.0196177	-0.202401	-0.137238	-0.0241593	0.366149	0.078858	-0.152512	-0.0087305	-0.059674	-0.0493725	-0.257281	-0.29435	0.190033	-0.706944	-0.459451	-0.249461	-0.098053	-0.360629	0.153799	-0.104321	0.321198	-0.326499	-0.0325893	-0.136969	0.243258	
0.742328	5.43365	0	0	0.182931	-0.316215	0.005911	-0.008071	0.017084	-0.31586	0.042461	-0.0218225	-0.206927	-0.139209	-0.0183375	0.362345	0.078858	-0.152512	-0.012527	-0.067268	-0.050322	-0.254598	-0.300528	0.19407	-0.710148	-0.464662	-0.253803	-0.106688	-0.36507	0.15494	-0.11183	0.317712	-0.327281	-0.0303805	-0.144417	0.243782	
0.745465	5.44128	0	0	0.184115	-0.319561	0.0090775	-0.0083865	0.0186065	-0.320163	0.0458355	-0.0240272	-0.211454	-0.141179	-0.0125157	0.358541	0.078858	-0.152512	-0.0163235	-0.074862	-0.0512715	-0.251914	-0.306707	0.198108	-0.713352	-0.469874	-0.258144	-0.115323	-0.36951	0.156081	-0.11934	0.314227	-0.328063	-0.0281718	-0.151865	0.244306	
0.747895	5.44739	0	0	0.185299	-0.322906	0.012244	-0.008702	0.020129	-0.324466	0.04921	-0.026232	-0.215981	-0.14315	-0.006694	0.354737	0.078858	-0.152512	-0.02012	-0.082456	-0.052221	-0.24923	-0.312885	0.202145	-0.716556	-0.475086	-0.262485	-0.123958	-0.373951	0.157221	-0.126849	0.310741	-0.328844	-0.025963	-0.159312	0.244829	
0.749257	5.45654	0	0	0.181058	-0.325276	0.0090775	-0.0083865	0.0216507	-0.328767	0.04921	-0.026232	-0.221638	-0.141917	-0.007683	0.37019	0.0778405	-0.149636	-0.0248405	-0.0874205	-0.053171	-0.246545	-0.319059	0.206179	-0.721997	-0.473964	-0.262485	-0.123958	-0.374762	0.159512	-0.129092	0.308853	-0.314379	-0.0269192	-0.164031	0.247913	
0.749187	5.46417	0	0	0.176818	-0.327646	0.005911	-0.008071	0.0231725	-0.333067	0.04921	-0.026232	-0.227294	-0.140684	-0.008672	0.385642	0.076823	-0.146761	-0.029561	-0.092385	-0.054121	-0.243861	-0.325233	0.210213	-0.727439	-0.472842	-0.262485	-0.123958	-0.375572	0.161803	-0.131336	0.306965	-0.299913	-0.0278755	-0.16875	0.250997	
0.747424	5.46417	0	0	0.172577	-0.330016	0.0027445	-0.0077555	0.0246943	-0.337368	0.04921	-0.026232	-0.232951	-0.139451	-0.009661	0.401095	0.0758055	-0.143885	-0.0342815	-0.0973495	-0.055071	-0.241176	-0.331407	0.214247	-0.732881	-0.471719	-0.262485	-0.123958	-0.376383	0.164093	-0.133579	0.305077	-0.285448	-0.0288317	-0.17347	0.25408	
0.744372	5.4657	0	0	0.168336	-0.332386	-0.000422	-0.00744	0.026216	-0.341669	0.04921	-0.026232	-0.238607	-0.138218	-0.01065	0.416548	0.074788	-0.141009	-0.039002	-0.102314	-0.056021	-0.238491	-0.337581	0.218281	-0.738322	-0.470597	-0.262485	-0.123958	-0.377194	0.166384	-0.135823	0.303189	-0.270982	-0.029788	-0.178189	0.257164	
0.740717	5.46722	0	0	0.173063	-0.345745	0.00280425	-0.0165575	0.030777	-0.354559	0.049967	-0.028372	-0.23973	-0.149786	-0.0154827	0.404899	0.0726285	-0.148437	-0.0433048	-0.117578	-0.0604877	-0.2397	-0.356076	0.230366	-0.740403	-0.478963	-0.271626	-0.129438	-0.380821	0.165232	-0.14409	0.301887	-0.277928	-0.0201462	-0.178189	0.257164	
0.737148	5.47485	0	0	0.17779	-0.359104	0.0060305	-0.025675	0.035338	-0.367449	0.050724	-0.030512	-0.240853	-0.161355	-0.0203155	0.39325	0.070469	-0.155865	-0.0476075	-0.132843	-0.0649545	-0.240908	-0.374571	0.242451	-0.742483	-0.487328	-0.280766	-0.134918	-0.384447	0.16408	-0.152356	0.300586	-0.284875	-0.0105045	-0.178189	0.257164	
0.734351	5.47485	0	0	0.182517	-0.372463	0.00925675	-0.0347925	0.039899	-0.380339	0.051481	-0.032652	-0.241975	-0.172924	-0.0251483	0.381602	0.0683095	-0.163293	-0.0519102	-0.148107	-0.0694212	-0.242117	-0.393066	0.254536	-0.744563	-0.495694	-0.289907	-0.140398	-0.388074	0.162928	-0.160623	0.299284	-0.291821	-0.00086275	-0.178189	0.257164	
0.733013	5.47943	0	0	0.187244	-0.385822	0.012483	-0.04391	0.04446	-0.393229	0.052238	-0.034792	-0.243098	-0.184492	-0.029981	0.369953	0.06615	-0.170721	-0.056213	-0.163371	-0.073888	-0.243325	-0.411561	0.266621	-0.746644	-0.504059	-0.299047	-0.145878	-0.391701	0.161776	-0.168889	0.297982	-0.298767	0.008779	-0.178189	0.257164	
0.733646	5.48248	0	0	0.183003	-0.38818	0.0149005	-0.050742	0.0393055	-0.396459	0.0589908	-0.0392042	-0.244225	-0.196035	-0.027259	0.362261	0.0639897	-0.178137	-0.0637952	-0.178445	-0.0719897	-0.248691	-0.423869	0.274663	-0.755272	-0.508132	-0.302327	-0.157452	-0.393707	0.156048	-0.173295	0.285803	-0.289569	0.002769	-0.184624	0.25486	
0.735961	5.48401	0	0	0.178762	-0.390539	0.017318	-0.057574	0.034151	-0.39969	0.0657435	-0.0436165	-0.245353	-0.207578	-0.024537	0.354568	0.0618295	-0.185554	-0.0713775	-0.19352	-0.0700915	-0.254056	-0.436177	0.282705	-0.7639	-0.512206	-0.305608	-0.169027	-0.395712	0.15032	-0.177702	0.273624	-0.280371	-0.003241	-0.191059	0.252555	
0.739447	5.48706	0	0	0.174521	-0.392898	0.0197355	-0.064406	0.0289965	-0.402921	0.0724962	-0.0480288	-0.24648	-0.219122	-0.021815	0.346876	0.0596693	-0.19297	-0.0789597	-0.208594	-0.0681933	-0.259421	-0.448485	0.290748	-0.772528	-0.516279	-0.308889	-0.180601	-0.397718	0.144593	-0.182108	0.261444	-0.271173	-0.009251	-0.197494	0.250251	
0.74359	5.49316	0	0	0.17028	-0.395256	0.022153	-0.071238	0.023842	-0.406151	0.079249	-0.052441	-0.247607	-0.230665	-0.019093	0.339184	0.057509	-0.200386	-0.086542	-0.223668	-0.066295	-0.264787	-0.460793	0.29879	-0.781156	-0.520352	-0.312169	-0.192175	-0.399723	0.138865	-0.186514	0.249265	-0.261975	-0.015261	-0.203929	0.247947	
0.747879	5.49316	0	0	0.173818	-0.405255	0.019792	-0.0731948	0.028392	-0.41901	0.08187	-0.0525085	-0.250995	-0.235809	-0.017355	0.346921	0.0543343	-0.204925	-0.0917655	-0.236236	-0.0707593	-0.265992	-0.46694	0.302807	-0.776693	-0.532966	-0.31381	-0.197952	-0.397296	0.132005	-0.187214	0.24304	-0.254334	-0.01685	-0.200936	0.239489	
0.751802	5.49774	0	0	0.177356	-0.415253	0.017431	-0.0751515	0.032942	-0.431869	0.084491	-0.052576	-0.254383	-0.240953	-0.015617	0.354657	0.0511595	-0.209464	-0.096989	-0.248803	-0.0752235	-0.267197	-0.473087	0.306824	-0.772229	-0.545579	-0.315451	-0.203728	-0.394869	0.125145	-0.187914	0.236816	-0.246693	-0.018439	-0.197943	0.23103	
0.75494	5.50079	0	0	0.180894	-0.425252	0.01507	-0.0771082	0.037492	-0.444728	0.087112	-0.0526435	-0.25777	-0.246097	-0.013879	0.362394	0.0479847	-0.214002	-0.102212	-0.261371	-0.0796878	-0.268402	-0.479235	0.310841	-0.767766	-0.558193	-0.317092	-0.209505	-0.392441	0.118285	-0.188614	0.230592	-0.239052	-0.020028	-0.19495	0.222572	
0.757331	5.50537	0	0	0.184432	-0.435251	0.012709	-0.079065	0.042042	-0.457587	0.089733	-0.052711	-0.261158	-0.251241	-0.012141	0.370131	0.04481	-0.218541	-0.107436	-0.273938	-0.084152	-0.269607	-0.485382	0.314858	-0.763303	-0.570807	-0.318733	-0.215281	-0.390014	0.111425	-0.189314	0.224367	-0.231411	-0.021617	-0.191957	0.214114	
0.759145	5.51453	0	0	0.182546	-0.444255	0.0175358	-0.0927065	0.0384017	-0.46508	0.0863547	-0.0505035	-0.267928	-0.261509	-0.0142603	0.350831	0.0456867	-0.23452	-0.118274	-0.288769	-0.0857708	-0.278844	-0.500731	0.324887	-0.763161	-0.58542	-0.326801	-0.223686	-0.383152	0.103428	-0.193788	0.220615	-0.232978	-0.0171873	-0.19096	0.211296	
0.760551	5.513	0	0	0.180661	-0.453259	0.0223625	-0.106348	0.0347615	-0.472573	0.0829765	-0.048296	-0.274699	-0.271776	-0.0163795	0.331531	0.0465635	-0.250499	-0.129113	-0.3036	-0.0873895	-0.288082	-0.51608	0.334917	-0.76302	-0.600033	-0.33487	-0.232091	-0.37629	0.09543	-0.198262	0.216863	-0.234546	-0.0127575	-0.189963	0.208479	
0.761719	5.52368	0	0	0.178775	-0.462262	0.0271893	-0.119989	0.0311212	-0.480066	0.0795982	-0.0460885	-0.281469	-0.282044	-0.0184988	0.312232	0.0474403	-0.266479	-0.139951	-0.318432	-0.0890082	-0.29732	-0.531429	0.344946	-0.762879	-0.614647	-0.342939	-0.240495	-0.369428	0.0874325	-0.202735	0.21311	-0.236113	-0.00832775	-0.188966	0.205661	
0.762819	5.53284	0	0	0.176889	-0.471266	0.032016	-0.133631	0.027481	-0.487559	0.07622	-0.043881	-0.288239	-0.292312	-0.020618	0.292932	0.048317	-0.282458	-0.150789	-0.333263	-0.090627	-0.306557	-0.546778	0.354975	-0.762737	-0.62926	-0.351007	-0.2489	-0.362566	0.079435	-0.207209	0.209358	-0.23768	-0.003898	-0.187969	0.202843	
0.763975	5.53741	0	0	0.173826	-0.476932	0.0272925	-0.137527	0.023842	-0.495039	0.0795982	-0.0460885	-0.28825	-0.306965	-0.0196493	0.277563	0.0409573	-0.288632	-0.149091	-0.356216	-0.0922483	-0.315777	-0.555974	0.360984	-0.769136	-0.639569	-0.356973	-0.263196	-0.365387	0.0760108	-0.213146	0.201571	-0.239934	-0.00753275	-0.1877	0.191847	
0.765006	5.54352	0	0	0.170763	-0.482598	0.022569	-0.141423	0.020203	-0.502519	0.0829765	-0.048296	-0.28826	-0.321618	-0.0186805	0.262193	0.0335975	-0.294807	-0.147393	-0.379169	-0.0938695	-0.324998	-0.565171	0.366993	-0.775535	-0.649877	-0.362938	-0.277491	-0.368207	0.0725865	-0.219083	0.193783	-0.242189	-0.0111675	-0.187432	0.18085	
0.765611	5.5542	0	0	0.1677	-0.488263	0.0178455	-0.145319	0.016564	-0.509999	0.0863547	-0.0505035	-0.28827	-0.336271	-0.0177118	0.246824	0.0262377	-0.300982	-0.145694	-0.402123	-0.0954907	-0.334218	-0.574367	0.373002	-0.781933	-0.660186	-0.368903	-0.291787	-0.371028	0.0691623	-0.225021	0.185996	-0.244443	-0.0148022	-0.187163	0.169854	
0.765489	5.55572	0	0	0.164637	-0.493929	0.013122	-0.149215	0.012925	-0.517479	0.089733	-0.052711	-0.288281	-0.350924	-0.016743	0.231454	0.018878	-0.307156	-0.143996	-0.425076	-0.097112	-0.343438	-0.583563	0.379011	-0.788332	-0.670495	-0.374869	-0.306082	-0.373848	0.065738	-0.230958	0.178209	-0.246697	-0.018437	-0.186894	0.158858	
0.764338	5.55878	0	0	0.164637	-0.493929	0.013925	-0.151484	0.00626775	-0.516412	0.089733	-0.052711	-0.291666	-0.356031	-0.0136405	0.235317	0.0177243	-0.317368	-0.149222	-0.437504	-0.102514	-0.341962	-0.586626	0.381013	-0.786112	-0.676769	-0.373824	-0.309036	-0.37304	0.0634555	-0.229426	0.173878	-0.240526	-0.0258727	-0.190608	0.159123	
0.761856	5.56335	0	0	0.164637	-0.493929	0.014728	-0.153753	-0.0003895	-0.515344	0.089733	-0.052711	-0.29505	-0.361138	-0.010538	0.239181	0.0165705	-0.32758	-0.154448	-0.449932	-0.107916	-0.340487	-0.589689	0.383014	-0.783892	-0.683042	-0.372779	-0.311989	-0.372232	0.061173	-0.227893	0.169547	-0.234354	-0.0333085	-0.194322	0.159387	
0.757799	5.56335	0	0	0.164637	-0.493929	0.015531	-0.156023	-0.00704675	-0.514277	0.089733	-0.052711	-0.298434	-0.366244	-0.0074355	0.243044	0.0154167	-0.337793	-0.159674	-0.462359	-0.113318	-0.339011	-0.592753	0.385016	-0.781672	-0.689316	-0.371734	-0.314943	-0.371425	0.0588905	-0.22636	0.165216	-0.228183	-0.0407442	-0.198035	0.159652	
0.752407	5.5664	0	0	0.164637	-0.493929	0.016334	-0.158292	-0.013704	-0.513209	0.089733	-0.052711	-0.301819	-0.371351	-0.004333	0.246908	0.014263	-0.348005	-0.1649	-0.474787	-0.11872	-0.337535	-0.595816	0.387018	-0.779452	-0.69559	-0.370689	-0.317896	-0.370617	0.056608	-0.224828	0.160885	-0.222012	-0.04818	-0.201749	0.159916	
0.746172	5.56793	0	0	0.164637	-0.493929	0.0203455	-0.16963	-0.0106845	-0.521743	0.083735	-0.0504368	-0.304081	-0.379619	-0.0051255	0.223893	0.007921	-0.356997	-0.169216	-0.489746	-0.121284	-0.34407	-0.598122	0.386881	-0.782652	-0.700728	-0.376058	-0.323464	-0.365372	0.053181	-0.225594	0.16305	-0.2274	-0.0429578	-0.198035	0.159652	
0.739587	5.57098	0	0	0.164637	-0.493929	0.024357	-0.180968	-0.007665	-0.530277	0.077737	-0.0481625	-0.306342	-0.387887	-0.005918	0.200877	0.001579	-0.365989	-0.173533	-0.504705	-0.123849	-0.350604	-0.600428	0.386744	-0.785851	-0.705866	-0.381427	-0.329031	-0.360127	0.049754	-0.226361	0.165216	-0.232788	-0.0377355	-0.194322	0.159387	
0.733144	5.57251	0	0	0.164637	-0.493929	0.0283685	-0.192305	-0.0046455	-0.53881	0.071739	-0.0458882	-0.308604	-0.396154	-0.0067105	0.177862	-0.004763	-0.374981	-0.177849	-0.519664	-0.126413	-0.357139	-0.602733	0.386607	-0.78905	-0.711003	-0.386796	-0.334599	-0.354883	0.046327	-0.227127	0.167381	-0.238176	-0.0325133	-0.190608	0.159123	
0.727338	5.57709	0	0	0.164637	-0.493929	0.03238	-0.203643	-0.001626	-0.547344	0.065741	-0.043614	-0.310866	-0.404422	-0.007503	0.154847	-0.011105	-0.383973	-0.182166	-0.534623	-0.128977	-0.363674	-0.605039	0.38647	-0.79225	-0.716141	-0.392165	-0.340166	-0.349638	0.0429	-0.227893	0.169546	-0.243564	-0.027291	-0.186894	0.158858	
0.722581	5.57709	0	0	0.170053	-0.494913	0.0331817	-0.205909	0.00503275	-0.548416	0.0724962	-0.0480283	-0.314248	-0.409512	-0.00790725	0.143375	-0.00808625	-0.392504	-0.181791	-0.544725	-0.128033	-0.366342	-0.605795	0.388608	-0.783508	-0.726668	-0.393805	-0.345894	-0.34439	0.039471	-0.225595	0.163052	-0.241998	-0.0317165	-0.189613	0.156311	
0.718896	5.58166	0	0	0.175469	-0.495897	0.0339835	-0.208174	0.0116915	-0.549487	0.0792515	-0.0524425	-0.31763	-0.414602	-0.0083115	0.131903	-0.0050675	-0.401035	-0.181417	-0.554828	-0.127089	-0.369009	-0.606552	0.390745	-0.774765	-0.737196	-0.395445	-0.351621	-0.339143	0.036042	-0.223297	0.156558	-0.240432	-0.036142	-0.192332	0.153764	
0.716188	5.58472	0	0	0.180885	-0.496881	0.0347853	-0.21044	0.0183503	-0.550558	0.0860067	-0.0568567	-0.321013	-0.419693	-0.00871575	0.12043	-0.00204875	-0.409566	-0.181042	-0.56493	-0.126145	-0.371677	-0.607309	0.392883	-0.766023	-0.747723	-0.397085	-0.357349	-0.333895	0.032613	-0.220999	0.150064	-0.238867	-0.0405675	-0.195051	0.151217	
0.714362	5.58929	0	0	0.186301	-0.497865	0.035587	-0.212706	0.025009	-0.55163	0.092762	-0.061271	-0.324395	-0.424783	-0.00912	0.108958	0.00097	-0.418097	-0.180668	-0.575032	-0.125201	-0.374345	-0.608065	0.395021	-0.757281	-0.75825	-0.398725	-0.363076	-0.328647	0.029184	-0.218701	0.14357	-0.237301	-0.044993	-0.19777	0.14867	
0.713323	5.59082	0	0	0.182771	-0.487889	0.035587	-0.212706	0.025009	-0.55163	0.0860067	-0.0568567	-0.325514	-0.421619	-0.014922	0.112749	-0.00521725	-0.414054	-0.179761	-0.577594	-0.126145	-0.371677	-0.601939	0.391018	-0.752965	-0.756255	-0.39127	-0.363416	-0.325011	0.0303185	-0.212697	0.142975	-0.244939	-0.043403	-0.189344	0.145326	
0.712977	5.58777	0	0	0.179241	-0.477912	0.035587	-0.212706	0.025009	-0.55163	0.0792515	-0.0524425	-0.326634	-0.418455	-0.020724	0.11654	-0.0114045	-0.410011	-0.178854	-0.580156	-0.127089	-0.369009	-0.595814	0.387016	-0.74865	-0.75426	-0.383815	-0.363755	-0.321376	0.031453	-0.206692	0.142379	-0.252576	-0.041813	-0.180919	0.141982	
0.713282	5.59234	0	0	0.175711	-0.467936	0.035587	-0.212706	0.025009	-0.55163	0.0724962	-0.0480283	-0.327754	-0.415291	-0.026526	0.120332	-0.0175918	-0.405969	-0.177948	-0.582719	-0.128033	-0.366342	-0.589689	0.383014	-0.744335	-0.752265	-0.376359	-0.364094	-0.31774	0.0325875	-0.200687	0.141784	-0.260214	-0.040223	-0.172493	0.138638	
0.714304	5.58929	0	0	0.172181	-0.457959	0.035587	-0.212706	0.025009	-0.55163	0.065741	-0.043614	-0.328873	-0.412127	-0.032328	0.124123	-0.023779	-0.401926	-0.177041	-0.585281	-0.128977	-0.363674	-0.583563	0.379011	-0.740019	-0.75027	-0.368904	-0.364434	-0.314104	0.033722	-0.194683	0.141188	-0.267852	-0.038633	-0.164068	0.135294	
0.716124	5.58777	0	0	0.1776	-0.458942	0.033224	-0.214644	0.025009	-0.55163	0.058991	-0.0392035	-0.328873	-0.412127	-0.0331445	0.101244	-0.0217683	-0.407609	-0.177577	-0.592804	-0.122634	-0.367818	-0.580499	0.377009	-0.734591	-0.751408	-0.376359	-0.364094	-0.310466	0.0348568	-0.196215	0.145519	-0.262469	-0.0438497	-0.167054	0.143734	
0.718819	5.58624	0	0	0.183019	-0.459924	0.030861	-0.216583	0.025009	-0.55163	0.052241	-0.034793	-0.328873	-0.412127	-0.033961	0.0783645	-0.0197575	-0.413292	-0.178114	-0.600327	-0.116291	-0.371963	-0.577435	0.375007	-0.729163	-0.752546	-0.383815	-0.363755	-0.306829	0.0359915	-0.197748	0.14985	-0.257087	-0.0490665	-0.17004	0.152174	
0.72247	5.58166	0	0	0.188438	-0.460906	0.028498	-0.218521	0.025009	-0.55163	0.045491	-0.0303825	-0.328873	-0.412127	-0.0347775	0.0554852	-0.0177467	-0.418974	-0.178651	-0.60785	-0.109948	-0.376107	-0.57437	0.373004	-0.723736	-0.753684	-0.39127	-0.363416	-0.303191	0.0371262	-0.19928	0.154181	-0.251704	-0.0542832	-0.173027	0.160613	
0.727151	5.57861	0	0	0.193857	-0.461889	0.026135	-0.220459	0.025009	-0.55163	0.038741	-0.025972	-0.328873	-0.412127	-0.035594	0.032606	-0.015736	-0.424657	-0.179187	-0.615373	-0.103605	-0.380252	-0.571306	0.371002	-0.718308	-0.754822	-0.398725	-0.363076	-0.299553	0.038261	-0.200813	0.158512	-0.246322	-0.0595	-0.176013	0.169053	
0.73275	5.57251	0	0	0.190322	-0.451898	0.0253335	-0.218194	0.023499	-0.547362	0.0319962	-0.021565	-0.324371	-0.410201	-0.0404545	0.0211893	-0.0177467	-0.418974	-0.180093	-0.612814	-0.106439	-0.372244	-0.562106	0.364991	-0.713985	-0.752827	-0.397682	-0.366022	-0.295104	0.0371105	-0.196276	0.153882	-0.253174	-0.060119	-0.176743	0.16088	
0.738935	5.57098	0	0	0.186786	-0.441906	0.024532	-0.21593	0.021989	-0.543094	0.0252515	-0.017158	-0.31987	-0.408274	-0.045315	0.0097725	-0.0197575	-0.413292	-0.180999	-0.610254	-0.109272	-0.364235	-0.552907	0.35898	-0.709662	-0.750832	-0.39664	-0.368968	-0.290655	0.03596	-0.19174	0.149253	-0.260026	-0.060738	-0.177474	0.152707	
0.745361	5.56793	0	0	0.183251	-0.431915	0.0237305	-0.213666	0.020479	-0.538826	0.0185068	-0.012751	-0.315368	-0.406348	-0.0501755	-0.00164425	-0.0217683	-0.407609	-0.181904	-0.607695	-0.112106	-0.356227	-0.543708	0.352968	-0.705339	-0.748837	-0.395597	-0.371914	-0.286205	0.0348095	-0.187203	0.144624	-0.266879	-0.061357	-0.178204	0.144535	
0.751683	5.5664	0	0	0.179716	-0.421924	0.022929	-0.211401	0.018969	-0.534558	0.011762	-0.008344	-0.310866	-0.404422	-0.055036	-0.013061	-0.023779	-0.401926	-0.18281	-0.605136	-0.11494	-0.348219	-0.534508	0.346957	-0.701016	-0.746842	-0.394555	-0.37486	-0.281756	0.033659	-0.182666	0.139994	-0.273731	-0.061976	-0.178934	0.136362	
0.757557	5.56183	0	0	0.177357	-0.415257	0.0221275	-0.209136	0.00929	-0.524951	0.00839175	-0.00614175	-0.308604	-0.396154	-0.055036	-0.013061	-0.0278045	-0.390549	-0.18281	-0.605136	-0.111428	-0.344351	-0.522226	0.338932	-0.69236	-0.742849	-0.389186	-0.369305	-0.272849	0.0313535	-0.180426	0.141861	-0.272168	-0.0663928	-0.175217	0.136095	
0.762641	5.56335	0	0	0.174998	-0.40859	0.021326	-0.206871	-0.000389	-0.515344	0.0050215	-0.0039395	-0.306342	-0.387887	-0.055036	-0.013061	-0.03183	-0.379173	-0.18281	-0.605136	-0.107917	-0.340483	-0.509945	0.330908	-0.683703	-0.738855	-0.383817	-0.363749	-0.263941	0.029048	-0.178187	0.143729	-0.270605	-0.0708095	-0.171501	0.135828	
0.766826	5.56335	0	0	0.172639	-0.401923	0.0205245	-0.204605	-0.010068	-0.505737	0.00165125	-0.00173725	-0.304081	-0.379619	-0.055036	-0.013061	-0.0358555	-0.367797	-0.18281	-0.605136	-0.104405	-0.336616	-0.497663	0.322883	-0.675046	-0.734861	-0.378447	-0.358193	-0.255034	0.0267425	-0.175948	0.145596	-0.269043	-0.0752263	-0.167785	0.135561	
0.770355	5.56488	0	0	0.17028	-0.395256	0.019723	-0.20234	-0.019747	-0.49613	-0.001719	0.000465	-0.301819	-0.371351	-0.055036	-0.013061	-0.039881	-0.35642	-0.18281	-0.605136	-0.100894	-0.332748	-0.485382	0.314858	-0.66639	-0.730868	-0.373078	-0.352638	-0.246127	0.024437	-0.173708	0.147463	-0.26748	-0.079643	-0.164068	0.135294	
0.773497	5.56946	0	0	0.17028	-0.395256	0.0173618	-0.20428	-0.019747	-0.49613	-0.00845575	0.004867	-0.298434	-0.366244	-0.0670088	-0.0168895	-0.0367162	-0.351921	-0.189314	-0.604821	-0.0929173	-0.327678	-0.476159	0.308832	-0.658833	-0.723725	-0.373526	-0.340999	-0.244098	0.0301455	-0.170762	0.155539	-0.27442	-0.0700145	-0.165329	0.149101	
0.776524	5.57098	0	0	0.17028	-0.395256	0.0150005	-0.206219	-0.019747	-0.49613	-0.0151925	0.009269	-0.29505	-0.361138	-0.0789815	-0.020718	-0.0335515	-0.347422	-0.195818	-0.604506	-0.0849405	-0.322607	-0.466936	0.302805	-0.651276	-0.716581	-0.373974	-0.32936	-0.242068	0.035854	-0.167815	0.163614	-0.281359	-0.060386	-0.166591	0.162908	
0.779705	5.56946	0	0	0.17028	-0.395256	0.0126393	-0.208158	-0.019747	-0.49613	-0.0219292	0.013671	-0.291666	-0.356031	-0.0909543	-0.0245465	-0.0303868	-0.342923	-0.202321	-0.60419	-0.0769637	-0.317536	-0.457714	0.296779	-0.643718	-0.709438	-0.374421	-0.317721	-0.240038	0.0415625	-0.164869	0.17169	-0.288299	-0.0507575	-0.167852	0.176715	
0.78331	5.57251	0	0	0.17028	-0.395256	0.010278	-0.210098	-0.019747	-0.49613	-0.028666	0.018073	-0.288281	-0.350924	-0.102927	-0.028375	-0.027222	-0.338424	-0.208825	-0.603875	-0.068987	-0.312466	-0.448491	0.290752	-0.636161	-0.702295	-0.374869	-0.306082	-0.238009	0.047271	-0.161922	0.179766	-0.295239	-0.041129	-0.169113	0.190522	
0.787503	5.57556	0	0	0.17146	-0.39859	0.00947675	-0.207834	-0.019747	-0.49613	-0.028666	0.018073	-0.284895	-0.345811	-0.104682	-0.0359543	-0.0292385	-0.332725	-0.215322	-0.603562	-0.0664165	-0.305908	-0.439258	0.284719	-0.62525	-0.704586	-0.371138	-0.306249	-0.233548	0.046116	-0.15661	0.17296	-0.289862	-0.0463407	-0.171834	0.18797	
0.792104	5.57403	0	0	0.17264	-0.401924	0.0086755	-0.205569	-0.019747	-0.49613	-0.028666	0.018073	-0.281509	-0.340697	-0.106437	-0.0435335	-0.031255	-0.327025	-0.221819	-0.603249	-0.063846	-0.299351	-0.430026	0.278687	-0.614339	-0.706877	-0.367406	-0.306416	-0.229088	0.044961	-0.151298	0.166153	-0.284485	-0.0515525	-0.174555	0.185418	
0.796868	5.58014	0	0	0.173819	-0.405258	0.00787425	-0.203304	-0.019747	-0.49613	-0.028666	0.018073	-0.278123	-0.335583	-0.108191	-0.0511127	-0.0332715	-0.321326	-0.228315	-0.602936	-0.0612755	-0.292793	-0.420793	0.272654	-0.603428	-0.709168	-0.363675	-0.306582	-0.224628	0.043806	-0.145985	0.159347	-0.279108	-0.0567643	-0.177276	0.182865	
0.801549	5.57861	0	0	0.174999	-0.408592	0.007073	-0.20104	-0.019747	-0.49613	-0.028666	0.018073	-0.274737	-0.33047	-0.109946	-0.058692	-0.035288	-0.315627	-0.234812	-0.602623	-0.058705	-0.286235	-0.411561	0.266621	-0.592517	-0.711459	-0.359943	-0.306749	-0.220167	0.042651	-0.140673	0.15254	-0.273731	-0.061976	-0.179997	0.180313	
0.805901	5.58166	0	0	0.172639	-0.401923	0.00386575	-0.191976	-0.022771	-0.487584	-0.018559	0.0114687	-0.270224	-0.328531	-0.112213	-0.0397482	-0.0331335	-0.308264	-0.235717	-0.600066	-0.0516628	-0.278462	-0.401562	0.258444	-0.582702	-0.710608	-0.354566	-0.301169	-0.209616	0.035757	-0.136894	0.150071	-0.273731	-0.061976	-0.174287	0.174418	
0.80968	5.57556	0	0	0.170279	-0.395253	0.0006585	-0.182912	-0.025795	-0.479038	-0.008452	0.0048645	-0.26571	-0.326592	-0.114479	-0.0208045	-0.030979	-0.3009	-0.236621	-0.597509	-0.0446205	-0.270689	-0.391563	0.250267	-0.572887	-0.709758	-0.34919	-0.295588	-0.199066	0.028863	-0.133115	0.147601	-0.273731	-0.061976	-0.168577	0.168523	
0.812652	5.57709	0	0	0.167919	-0.388583	-0.00254875	-0.173847	-0.028819	-0.470492	0.001655	-0.00173975	-0.261196	-0.324652	-0.116746	-0.00186075	-0.0288245	-0.293536	-0.237526	-0.594952	-0.0375783	-0.262916	-0.381564	0.24209	-0.563073	-0.708907	-0.343813	-0.290007	-0.188515	0.021969	-0.129336	0.145132	-0.273731	-0.061976	-0.162867	0.162627	
0.814794	5.57709	0	0	0.165559	-0.381914	-0.005756	-0.164783	-0.031843	-0.461946	0.011762	-0.008344	-0.256683	-0.322713	-0.119012	0.017083	-0.02667	-0.286173	-0.238431	-0.592395	-0.030536	-0.255143	-0.371565	0.233913	-0.553258	-0.708056	-0.338436	-0.284427	-0.177964	0.015075	-0.125557	0.142663	-0.273731	-0.061976	-0.157157	0.156732	
0.816245	5.58166	0	0	0.162502	-0.387606	-0.013679	-0.159606	-0.028819	-0.470492	0.00839175	-0.00614175	-0.263447	-0.318294	-0.126528	0.0132575	-0.02667	-0.286173	-0.244016	-0.594642	-0.0196802	-0.258107	-0.371565	0.233913	-0.553258	-0.708056	-0.335746	-0.281633	-0.178774	0.0173645	-0.129396	0.153513	-0.278424	-0.0487127	-0.157424	0.167734	
0.817148	5.58166	0	0	0.159444	-0.393298	-0.021602	-0.154429	-0.025795	-0.479038	0.0050215	-0.0039395	-0.27021	-0.313874	-0.134045	0.009432	-0.02667	-0.286173	-0.249601	-0.596888	-0.0088245	-0.26107	-0.371565	0.233913	-0.553258	-0.708056	-0.333056	-0.27884	-0.179585	0.019654	-0.133236	0.164363	-0.283117	-0.0354495	-0.157691	0.178735	
0.817647	5.58014	0	0	0.156386	-0.39899	-0.029525	-0.149252	-0.022771	-0.487584	0.00165125	-0.00173725	-0.276973	-0.309455	-0.141562	0.0056065	-0.02667	-0.286173	-0.255186	-0.599135	0.00203125	-0.264034	-0.371565	0.233913	-0.553258	-0.708056	-0.330365	-0.276047	-0.180395	0.0219435	-0.137075	0.175213	-0.28781	-0.0221863	-0.157957	0.189737	
0.817885	5.58472	0	0	0.153329	-0.404682	-0.037448	-0.144075	-0.019747	-0.49613	-0.001719	0.000465	-0.283737	-0.305035	-0.149078	0.001781	-0.02667	-0.286173	-0.260771	-0.601381	0.012887	-0.266998	-0.371565	0.233913	-0.553258	-0.708056	-0.327675	-0.273253	-0.181205	0.024233	-0.140914	0.186063	-0.292503	-0.008923	-0.158224	0.200739	
0.818005	5.58472	0	0	0.156864	-0.414673	-0.0430115	-0.136953	-0.0182362	-0.5004	0.00089425	0.00040275	-0.28937	-0.303799	-0.150418	0.0055675	-0.02667	-0.286173	-0.26635	-0.603626	0.0109852	-0.261623	-0.372321	0.236051	-0.552143	-0.711207	-0.32558	-0.279173	-0.180395	0.0219435	-0.13861	0.179552	-0.287123	-0.0141392	-0.16566	0.201265	
0.818103	5.5954	0	0	0.1604	-0.424665	-0.048575	-0.129831	-0.0167255	-0.504669	0.0035075	0.0003405	-0.295003	-0.302563	-0.151757	0.009354	-0.02667	-0.286173	-0.27193	-0.605872	0.0090835	-0.256248	-0.373078	0.238189	-0.551029	-0.714357	-0.323485	-0.285093	-0.179585	0.019654	-0.136306	0.17304	-0.281743	-0.0193555	-0.173096	0.201791	
0.818103	5.59692	0	0	0.163935	-0.434656	-0.0541385	-0.122708	-0.0152147	-0.508939	0.00612075	0.00027825	-0.300635	-0.301328	-0.153097	0.0131405	-0.02667	-0.286173	-0.277509	-0.608117	0.00718175	-0.250873	-0.373835	0.240326	-0.549914	-0.717507	-0.321391	-0.291013	-0.178774	0.0173645	-0.134002	0.166528	-0.276362	-0.0245717	-0.180533	0.202317	
0.817896	5.60608	0	0	0.16747	-0.444647	-0.059702	-0.115586	-0.013704	-0.513209	0.008734	0.000216	-0.306268	-0.300092	-0.154437	0.016927	-0.02667	-0.286173	-0.283089	-0.610362	0.00528	-0.245498	-0.374591	0.242464	-0.548799	-0.720658	-0.319296	-0.296933	-0.177964	0.015075	-0.131698	0.160017	-0.270982	-0.029788	-0.187969	0.202843	
0.817368	5.60913	0	0	0.156646	-0.442691	-0.0605047	-0.113317	-0.0203542	-0.512145	0.0053635	0.00241825	-0.304019	-0.306448	-0.155378	0.0321157	-0.0256602	-0.289027	-0.288662	-0.612606	0.0043285	-0.242809	-0.374591	0.242464	-0.548799	-0.720658	-0.316603	-0.294141	-0.177154	0.012786	-0.13093	0.157848	-0.270982	-0.029788	-0.182258	0.196946	
0.81641	5.61676	0	0	0.145823	-0.440735	-0.0613075	-0.111048	-0.0270045	-0.511081	0.001993	0.0046205	-0.30177	-0.312805	-0.156318	0.0473045	-0.0246505	-0.29188	-0.294236	-0.61485	0.003377	-0.240121	-0.374591	0.242464	-0.548799	-0.720658	-0.31391	-0.29135	-0.176344	0.010497	-0.130163	0.155678	-0.270982	-0.029788	-0.176547	0.191049	
0.814911	5.62439	0	0	0.134999	-0.438778	-0.0621102	-0.10878	-0.0336547	-0.510016	-0.0013775	0.00682275	-0.29952	-0.319161	-0.157259	0.0624933	-0.0236407	-0.294734	-0.29981	-0.617094	0.0024255	-0.237432	-0.374591	0.242464	-0.548799	-0.720658	-0.311217	-0.288558	-0.175534	0.008208	-0.129395	0.153508	-0.270982	-0.029788	-0.170837	0.185152	
0.812768	5.62286	0	0	0.124176	-0.436822	-0.062913	-0.106511	-0.040305	-0.508952	-0.004748	0.009025	-0.297271	-0.325517	-0.1582	0.077682	-0.022631	-0.297588	-0.305383	-0.619338	0.001474	-0.234743	-0.374591	0.242464	-0.548799	-0.720658	-0.308524	-0.285766	-0.174724	0.005919	-0.128627	0.151339	-0.270982	-0.029788	-0.165126	0.179255	
0.810075	5.62897	0	0	0.122299	-0.445816	-0.070022	-0.10361	-0.0454395	-0.512155	-0.008117	0.0112263	-0.306277	-0.329395	-0.1586	0.0662815	-0.024787	-0.304948	-0.310579	-0.631613	0.0033765	-0.24012	-0.383833	0.248503	-0.555276	-0.730941	-0.309726	-0.303168	-0.177572	0.0025035	-0.133114	0.147604	-0.273233	-0.033416	-0.171563	0.176969	
0.807099	5.63049	0	0	0.120421	-0.45481	-0.077131	-0.100709	-0.050574	-0.515357	-0.011486	0.0134275	-0.315284	-0.333272	-0.159	0.054881	-0.026943	-0.312308	-0.315775	-0.643889	0.005279	-0.245497	-0.393076	0.254543	-0.561754	-0.741224	-0.310928	-0.32057	-0.180421	-0.000912	-0.137602	0.143869	-0.275483	-0.037044	-0.178001	0.174683	
0.804114	5.63354	0	0	0.118543	-0.463804	-0.08424	-0.097808	-0.0557085	-0.51856	-0.014855	0.0156287	-0.324291	-0.33715	-0.159399	0.0434805	-0.029099	-0.319667	-0.320972	-0.656164	0.0071815	-0.250873	-0.402319	0.260582	-0.568231	-0.751507	-0.31213	-0.337973	-0.18327	-0.0043275	-0.14209	0.140133	-0.277734	-0.040672	-0.184439	0.172396	
0.801396	5.63354	0	0	0.116666	-0.472798	-0.091349	-0.094907	-0.060843	-0.521763	-0.018224	0.01783	-0.333297	-0.341028	-0.159799	0.03208	-0.031255	-0.327027	-0.326168	-0.668439	0.009084	-0.25625	-0.411561	0.266621	-0.574708	-0.76179	-0.313332	-0.355375	-0.186118	-0.007743	-0.146577	0.136398	-0.279985	-0.0443	-0.190876	0.17011	
0.799219	5.63507	0	0	0.12019	-0.482756	-0.0953023	-0.092324	-0.049675	-0.535612	-0.0114845	0.0134265	-0.334431	-0.352471	-0.159799	0.03208	-0.0334115	-0.334375	-0.335489	-0.677984	0.00460475	-0.257454	-0.417717	0.270644	-0.5834	-0.76577	-0.313937	-0.364055	-0.194236	-0.0077115	-0.146521	0.128036	-0.282235	-0.047925	-0.195317	0.162205	
0.797856	5.6366	0	0	0.123713	-0.492714	-0.0992555	-0.089741	-0.038507	-0.54946	-0.004745	0.009023	-0.335566	-0.363915	-0.159799	0.03208	-0.035568	-0.341724	-0.344811	-0.687528	0.0001255	-0.258658	-0.423874	0.274667	-0.592091	-0.769751	-0.314543	-0.372735	-0.202353	-0.00768	-0.146465	0.119674	-0.284486	-0.05155	-0.199758	0.1543	
0.797409	5.62897	0	0	0.127237	-0.502672	-0.103209	-0.087158	-0.027339	-0.563308	0.0019945	0.0046195	-0.3367	-0.375358	-0.159799	0.03208	-0.0377245	-0.349072	-0.354132	-0.697072	-0.00435375	-0.259862	-0.43003	0.278689	-0.600783	-0.773732	-0.315148	-0.381415	-0.210471	-0.0076485	-0.146409	0.111313	-0.286736	-0.055175	-0.204199	0.146394	
0.797535	5.62744	0	0	0.13076	-0.51263	-0.107162	-0.084575	-0.016171	-0.577157	0.008734	0.000216	-0.337834	-0.386801	-0.159799	0.03208	-0.039881	-0.35642	-0.363453	-0.706617	-0.008833	-0.261066	-0.436186	0.282712	-0.609475	-0.777712	-0.315753	-0.390095	-0.218588	-0.007617	-0.146353	0.102951	-0.288986	-0.0588	-0.20864	0.138489	
0.797822	5.62134	0	0	0.122304	-0.517299	-0.110251	-0.0930122	-0.0264465	-0.583527	-0.0047395	0.00901975	-0.345704	-0.393821	-0.176131	0.0282027	-0.051375	-0.364208	-0.371863	-0.718669	-0.0114097	-0.267637	-0.448485	0.290749	-0.617044	-0.784822	-0.323223	-0.389747	-0.216971	-0.0121862	-0.150127	0.105417	-0.292798	-0.058007	-0.20864	0.138489	
0.797858	5.61828	0	0	0.113848	-0.521968	-0.113339	-0.101449	-0.036722	-0.589897	-0.018213	0.0178235	-0.353575	-0.400841	-0.192464	0.0243255	-0.062869	-0.371997	-0.380272	-0.730722	-0.0139865	-0.274208	-0.460784	0.298785	-0.624613	-0.791932	-0.330693	-0.3894	-0.215355	-0.0167555	-0.1539	0.107882	-0.296609	-0.057214	-0.20864	0.138489	
0.79723	5.61981	0	0	0.105392	-0.526636	-0.116427	-0.109887	-0.0469975	-0.596266	-0.0316865	0.0266272	-0.361445	-0.407861	-0.208796	0.0204482	-0.074363	-0.379785	-0.388682	-0.742774	-0.0165633	-0.280779	-0.473083	0.306822	-0.632183	-0.799042	-0.338164	-0.389052	-0.213738	-0.0213247	-0.157674	0.110348	-0.30042	-0.056421	-0.20864	0.138489	
0.795527	5.61066	0	0	0.096936	-0.531305	-0.119516	-0.118324	-0.057273	-0.602636	-0.04516	0.035431	-0.369315	-0.414881	-0.225129	0.016571	-0.085857	-0.387573	-0.397091	-0.754826	-0.01914	-0.28735	-0.485382	0.314858	-0.639752	-0.806152	-0.345634	-0.388704	-0.212121	-0.025894	-0.161448	0.112814	-0.304232	-0.055628	-0.20864	0.138489	
0.79241	5.6076	0	0	0.092713	-0.533637	-0.125006	-0.119958	-0.0593998	-0.614305	-0.0552513	0.0420247	-0.381657	-0.423808	-0.234343	0.00517325	-0.0850007	-0.403397	-0.408704	-0.766682	-0.0261875	-0.295108	-0.497663	0.322883	-0.647311	-0.813248	-0.352658	-0.399958	-0.214157	-0.0315835	-0.163634	0.102604	-0.300328	-0.0666603	-0.211094	0.124991	
0.788094	5.59997	0	0	0.08849	-0.535969	-0.130497	-0.121592	-0.0615265	-0.625975	-0.0653425	0.0486185	-0.394	-0.432735	-0.243557	-0.0062245	-0.0841445	-0.419221	-0.420317	-0.778538	-0.033235	-0.302867	-0.509945	0.330908	-0.654869	-0.820344	-0.359681	-0.411212	-0.216193	-0.037273	-0.165821	0.0923945	-0.296424	-0.0776925	-0.213549	0.111493	
0.78305	5.59692	0	0	0.084267	-0.538301	-0.135987	-0.123227	-0.0636533	-0.637644	-0.0754337	0.0552122	-0.406342	-0.441661	-0.252771	-0.0176223	-0.0832883	-0.435045	-0.43193	-0.790394	-0.0402825	-0.310625	-0.522226	0.338932	-0.662428	-0.827439	-0.366704	-0.422466	-0.21823	-0.0429625	-0.168007	0.0821848	-0.292521	-0.0887247	-0.216003	0.0979958	
0.77775	5.58929	0	0	0.080044	-0.540633	-0.141478	-0.124861	-0.06578	-0.649314	-0.085525	0.061806	-0.418684	-0.450588	-0.261985	-0.02902	-0.082432	-0.450869	-0.443543	-0.80225	-0.04733	-0.318383	-0.534508	0.346957	-0.669987	-0.834535	-0.373728	-0.43372	-0.220266	-0.048652	-0.170193	0.071975	-0.288617	-0.099757	-0.218457	0.084498	
0.772666	5.58166	0	0	0.080044	-0.540633	-0.143821	-0.126809	-0.0642793	-0.653555	-0.0956043	0.068392	-0.420934	-0.458808	-0.26372	-0.036579	-0.0887483	-0.459799	-0.450499	-0.809345	-0.0489577	-0.327605	-0.543708	0.352968	-0.679746	-0.835369	-0.379099	-0.439247	-0.223916	-0.0497747	-0.174673	0.0682605	-0.289309	-0.107776	-0.2182	0.0735637	
0.768269	5.57403	0	0	0.080044	-0.540633	-0.146164	-0.128757	-0.0627785	-0.657797	-0.105684	0.074978	-0.423184	-0.467028	-0.265456	-0.044138	-0.0950645	-0.468728	-0.457456	-0.816439	-0.0505855	-0.336828	-0.552907	0.35898	-0.689505	-0.836203	-0.38447	-0.444774	-0.227565	-0.0508975	-0.179152	0.064546	-0.29	-0.115795	-0.217944	0.0626295	
0.764991	5.5664	0	0	0.080044	-0.540633	-0.148506	-0.130705	-0.0612777	-0.662038	-0.115763	0.081564	-0.425435	-0.475249	-0.267191	-0.051697	-0.101381	-0.477658	-0.464413	-0.823534	-0.0522133	-0.34605	-0.562106	0.364991	-0.699264	-0.837037	-0.389841	-0.450302	-0.231215	-0.0520203	-0.183632	0.0608315	-0.290692	-0.123815	-0.217687	0.0516952	
0.762795	5.55878	0	0	0.080044	-0.540633	-0.150849	-0.132653	-0.059777	-0.66628	-0.125842	0.08815	-0.427685	-0.483469	-0.268926	-0.059256	-0.107697	-0.486588	-0.471369	-0.830629	-0.053841	-0.355272	-0.571306	0.371002	-0.709023	-0.837871	-0.395212	-0.455829	-0.234865	-0.053143	-0.188111	0.057117	-0.291384	-0.131834	-0.21743	0.040761	
0.761329	5.55267	0	0	0.0758243	-0.542964	-0.157871	-0.138491	-0.0634082	-0.673681	-0.138506	0.0947795	-0.429936	-0.491675	-0.275879	-0.089374	-0.114007	-0.495497	-0.479741	-0.842582	-0.055471	-0.364478	-0.580496	0.377007	-0.712239	-0.842973	-0.405939	-0.466858	-0.237706	-0.0565445	-0.19335	0.0555633	-0.297441	-0.134645	-0.22385	0.0385042	
0.760236	5.54199	0	0	0.0716045	-0.545294	-0.164894	-0.144328	-0.0670395	-0.681081	-0.151169	0.101409	-0.432188	-0.499881	-0.282832	-0.119492	-0.120316	-0.504406	-0.488112	-0.854535	-0.057101	-0.373683	-0.589685	0.383012	-0.715455	-0.848074	-0.416666	-0.477888	-0.240546	-0.059946	-0.198589	0.0540095	-0.303499	-0.137456	-0.23027	0.0362475	
0.75916	5.53741	0	0	0.0673847	-0.547624	-0.171916	-0.150166	-0.0706708	-0.688481	-0.163832	0.108039	-0.434439	-0.508087	-0.289785	-0.14961	-0.126626	-0.513316	-0.496484	-0.866489	-0.058731	-0.382888	-0.598875	0.389016	-0.718671	-0.853175	-0.427392	-0.488917	-0.243387	-0.0633475	-0.203828	0.0524558	-0.309557	-0.140267	-0.23669	0.0339908	
0.757742	5.52978	0	0	0.063165	-0.549955	-0.178939	-0.156004	-0.074302	-0.695882	-0.176496	0.114668	-0.43669	-0.516293	-0.296738	-0.179728	-0.132936	-0.522225	-0.504856	-0.878442	-0.060361	-0.392094	-0.608065	0.395021	-0.721887	-0.858277	-0.438119	-0.499946	-0.246228	-0.066749	-0.209067	0.050902	-0.315614	-0.143078	-0.24311	0.031734	
0.755651	5.52368	0	0	0.0708965	-0.557549	-0.179681	-0.162462	-0.0809258	-0.694809	-0.186548	0.121236	-0.438943	-0.524485	-0.303287	-0.19846	-0.134094	-0.53231	-0.511794	-0.8855	-0.0565845	-0.402767	-0.614186	0.399021	-0.725102	-0.863372	-0.44244	-0.508373	-0.24381	-0.0735828	-0.217297	0.0496495	-0.32011	-0.150282	-0.246559	0.0211017	
0.752911	5.51605	0	0	0.078628	-0.565144	-0.180422	-0.168919	-0.0875495	-0.693736	-0.196599	0.127804	-0.441195	-0.532676	-0.309835	-0.217191	-0.135251	-0.542395	-0.518732	-0.892557	-0.052808	-0.41344	-0.620307	0.40302	-0.728317	-0.868467	-0.446761	-0.516799	-0.241392	-0.0804165	-0.225527	0.048397	-0.324606	-0.157486	-0.250007	0.0104695	
0.749825	5.50995	0	0	0.0863595	-0.572738	-0.181164	-0.175376	-0.0941733	-0.692662	-0.206651	0.134372	-0.443447	-0.540867	-0.316383	-0.235922	-0.136409	-0.552479	-0.525669	-0.899615	-0.0490315	-0.424113	-0.626428	0.40702	-0.731531	-0.873562	-0.451081	-0.525226	-0.238974	-0.0872503	-0.233758	0.0471445	-0.329102	-0.164689	-0.253456	-0.00016275	
0.7467	5.50232	0	0	0.094091	-0.580332	-0.181906	-0.181834	-0.100797	-0.691589	-0.216703	0.14094	-0.4457	-0.549059	-0.322932	-0.254654	-0.137567	-0.562564	-0.532607	-0.906673	-0.045255	-0.434786	-0.632549	0.411019	-0.734746	-0.878657	-0.455402	-0.533652	-0.236556	-0.094084	-0.241988	0.045892	-0.333598	-0.171893	-0.256904	-0.010795	
0.743845	5.49621	0	0	0.0886992	-0.57935	-0.182649	-0.188283	-0.097803	-0.70005	-0.23343	0.15187	-0.451284	-0.547824	-0.336074	-0.254675	-0.139724	-0.569816	-0.539003	-0.906353	-0.0478352	-0.441295	-0.635608	0.413018	-0.73254	-0.884891	-0.460754	-0.539142	-0.23414	-0.100913	-0.242697	0.039731	-0.329713	-0.182871	-0.261339	-0.0186163	
0.741568	5.49011	0	0	0.0833075	-0.578369	-0.183393	-0.194733	-0.094809	-0.708511	-0.250157	0.162799	-0.456867	-0.54659	-0.349217	-0.254697	-0.14188	-0.577067	-0.545399	-0.906033	-0.0504155	-0.447804	-0.638667	0.415017	-0.730334	-0.891126	-0.466106	-0.544631	-0.231723	-0.107741	-0.243405	0.03357	-0.325829	-0.193849	-0.265775	-0.0264375	
0.740158	5.48401	0	0	0.0779158	-0.577387	-0.184136	-0.201183	-0.091815	-0.716972	-0.266883	0.173729	-0.46245	-0.545355	-0.36236	-0.254719	-0.144037	-0.584318	-0.551794	-0.905714	-0.0529958	-0.454314	-0.641725	0.417015	-0.728128	-0.89736	-0.471458	-0.550121	-0.229307	-0.11457	-0.244114	0.027409	-0.321945	-0.204827	-0.27021	-0.0342587	
0.739653	5.47333	0	0	0.072524	-0.576406	-0.184879	-0.207632	-0.088821	-0.725433	-0.28361	0.184659	-0.468034	-0.54412	-0.375502	-0.25474	-0.146194	-0.59157	-0.55819	-0.905394	-0.055576	-0.460823	-0.644784	0.419014	-0.725922	-0.903594	-0.47681	-0.55561	-0.226891	-0.121398	-0.244823	0.021248	-0.31806	-0.215805	-0.274645	-0.04208	
0.73994	5.46722	0	0	0.0760305	-0.586316	-0.18403	-0.218576	-0.0924497	-0.732808	-0.303639	0.197746	-0.465813	-0.550396	-0.381143	-0.288236	-0.148351	-0.59881	-0.561031	-0.915102	-0.0581562	-0.467323	-0.653954	0.425006	-0.723718	-0.909824	-0.483797	-0.566743	-0.225281	-0.125947	-0.250048	0.0196985	-0.32411	-0.218596	-0.271688	-0.0504355	
0.740901	5.46112	0	0	0.079537	-0.596226	-0.183181	-0.229521	-0.0960785	-0.740182	-0.323668	0.210834	-0.463593	-0.556671	-0.386784	-0.321732	-0.150509	-0.60605	-0.563873	-0.92481	-0.0607365	-0.473823	-0.663124	0.430998	-0.721513	-0.916054	-0.490784	-0.577875	-0.223672	-0.130497	-0.255274	0.018149	-0.330159	-0.221388	-0.268732	-0.058791	
0.742418	5.45502	0	0	0.0830435	-0.606136	-0.182333	-0.240465	-0.0997072	-0.747556	-0.343697	0.223921	-0.461373	-0.562947	-0.392424	-0.355229	-0.152666	-0.61329	-0.566715	-0.934519	-0.0633168	-0.480323	-0.672294	0.43699	-0.719309	-0.922284	-0.497772	-0.589008	-0.222062	-0.135047	-0.260499	0.0165995	-0.336209	-0.22418	-0.265775	-0.0671465	
0.744372	5.44739	0	0	0.08655	-0.616046	-0.181484	-0.251409	-0.103336	-0.754931	-0.363726	0.237008	-0.459152	-0.569223	-0.398065	-0.388725	-0.154824	-0.62053	-0.569556	-0.944227	-0.065897	-0.486823	-0.681464	0.442982	-0.717105	-0.928514	-0.504759	-0.600141	-0.220452	-0.139596	-0.265724	0.01505	-0.342259	-0.226971	-0.262819	-0.075502	
0.74663	5.44128	0	0	0.0888855	-0.622646	-0.186161	-0.255271	-0.0937282	-0.764455	-0.370392	0.241364	-0.459152	-0.569223	-0.408533	-0.396132	-0.15383	-0.623341	-0.572749	-0.944066	-0.064015	-0.492142	-0.684519	0.444978	-0.709477	-0.935892	-0.50907	-0.608515	-0.223297	-0.142981	-0.270184	0.011351	-0.337608	-0.240114	-0.266273	-0.0860745	
0.748887	5.43518	0	0	0.091221	-0.629247	-0.190839	-0.259132	-0.0841205	-0.773978	-0.377058	0.24572	-0.459152	-0.569223	-0.419002	-0.403539	-0.152835	-0.626151	-0.575942	-0.943906	-0.062133	-0.497461	-0.687573	0.446974	-0.701848	-0.943269	-0.513381	-0.61689	-0.226141	-0.146365	-0.274644	0.007652	-0.332958	-0.253256	-0.269726	-0.096647	
0.750739	5.4306	0	0	0.0935565	-0.635848	-0.195516	-0.262993	-0.0745128	-0.783501	-0.383724	0.250075	-0.459152	-0.569223	-0.429471	-0.410946	-0.15184	-0.628962	-0.579135	-0.943745	-0.060251	-0.50278	-0.690627	0.448969	-0.69422	-0.950647	-0.517692	-0.625264	-0.228986	-0.149749	-0.279103	0.003953	-0.328307	-0.266399	-0.27318	-0.107219	
0.751785	5.42297	0	0	0.095892	-0.642448	-0.200193	-0.266855	-0.064905	-0.793025	-0.39039	0.254431	-0.459152	-0.569223	-0.439939	-0.418353	-0.150846	-0.631773	-0.582328	-0.943584	-0.058369	-0.508099	-0.693682	0.450965	-0.686592	-0.958025	-0.522003	-0.633638	-0.23183	-0.153134	-0.283563	0.000254	-0.323657	-0.279542	-0.276634	-0.117792	
0.75162	5.42145	5	0	0.095892	-0.642448	-0.199398	-0.269103	-0.071526	-0.791942	-0.403707	0.263132	-0.461373	-0.562947	-0.441249	-0.41465	-0.15897	-0.622143	-0.584987	-0.936068	-0.058369	-0.508099	-0.689871	0.446831	-0.682264	-0.956065	-0.518303	-0.633819	-0.224965	-0.161113	-0.278292	-0.0064945	-0.321334	-0.286106	-0.279344	-0.120292	
0.749842	5.41382	5	0	0.095892	-0.642448	-0.198602	-0.271351	-0.078147	-0.79086	-0.417023	0.271834	-0.463593	-0.556671	-0.442559	-0.410946	-0.167093	-0.612513	-0.587647	-0.928551	-0.058369	-0.508099	-0.68606	0.442698	-0.677936	-0.954105	-0.514603	-0.634	-0.2181	-0.169092	-0.27302	-0.013243	-0.319012	-0.292671	-0.282053	-0.122793	
0.746124	5.40924	5	0	0.095892	-0.642448	-0.197806	-0.273599	-0.084768	-0.789778	-0.430339	0.280535	-0.465813	-0.550396	-0.44387	-0.407243	-0.175216	-0.602882	-0.590306	-0.921035	-0.058369	-0.508099	-0.68225	0.438565	-0.673609	-0.952145	-0.510903	-0.634181	-0.211234	-0.177071	-0.267749	-0.0199915	-0.316689	-0.299235	-0.284763	-0.125294	
0.740876	5.40314	5	0	0.095892	-0.642448	-0.197011	-0.275847	-0.091389	-0.788695	-0.443656	0.289236	-0.468034	-0.54412	-0.44518	-0.40354	-0.18334	-0.593252	-0.592966	-0.913519	-0.058369	-0.508099	-0.678439	0.434431	-0.669281	-0.950185	-0.507203	-0.634362	-0.204369	-0.18505	-0.262477	-0.02674	-0.314366	-0.305799	-0.287473	-0.127794	
0.734922	5.40161	5	0	0.0916695	-0.64476	-0.198554	-0.280022	-0.098003	-0.787616	-0.450306	0.293581	-0.46134	-0.548494	-0.448658	-0.418332	-0.178201	-0.594448	-0.592966	-0.913519	-0.0539032	-0.506927	-0.678439	0.434431	-0.662745	-0.954456	-0.510903	-0.634181	-0.198304	-0.190758	-0.266228	-0.024289	-0.312818	-0.310172	-0.288456	-0.125017	
0.729088	5.40161	5	0	0.087447	-0.647072	-0.200097	-0.284196	-0.104617	-0.786536	-0.456957	0.297927	-0.454645	-0.552868	-0.452135	-0.433125	-0.173062	-0.595643	-0.592966	-0.913519	-0.0494375	-0.505756	-0.678439	0.434431	-0.656208	-0.958727	-0.514603	-0.634	-0.19224	-0.196467	-0.269979	-0.021838	-0.311271	-0.314546	-0.289438	-0.122239	
0.724202	5.39856	5	0	0.0832245	-0.649383	-0.201639	-0.28837	-0.111231	-0.785457	-0.463608	0.302272	-0.44795	-0.557243	-0.455612	-0.447918	-0.167922	-0.596839	-0.592966	-0.913519	-0.0449717	-0.504584	-0.678439	0.434431	-0.649672	-0.962998	-0.518303	-0.633819	-0.186175	-0.202176	-0.273729	-0.019387	-0.309723	-0.31892	-0.290421	-0.119461	
0.72109	5.39856	5	0	0.079002	-0.651695	-0.203182	-0.292545	-0.117845	-0.784378	-0.470258	0.306618	-0.441256	-0.561617	-0.45909	-0.46271	-0.162783	-0.598035	-0.592966	-0.913519	-0.040506	-0.503413	-0.678439	0.434431	-0.643136	-0.967269	-0.522003	-0.633638	-0.180111	-0.207884	-0.27748	-0.016936	-0.308176	-0.323293	-0.291404	-0.116684	
0.720356	5.39093	5	0	0.0878905	-0.66257	-0.202387	-0.294791	-0.109739	-0.789675	-0.469501	0.304479	-0.443478	-0.555337	-0.463443	-0.462706	-0.159632	-0.593604	-0.593853	-0.911012	-0.036037	-0.502242	-0.672327	0.430437	-0.631151	-0.972706	-0.515216	-0.642545	-0.172438	-0.218133	-0.279709	-0.018782	-0.305083	-0.332033	-0.290185	-0.130282	
0.721563	5.39245	5	0	0.096779	-0.673445	-0.201593	-0.297037	-0.101632	-0.794971	-0.468744	0.302339	-0.4457	-0.549057	-0.467797	-0.462701	-0.156481	-0.589172	-0.59474	-0.908505	-0.031568	-0.50107	-0.666214	0.426443	-0.619166	-0.978142	-0.508428	-0.651451	-0.164764	-0.228382	-0.281938	-0.020628	-0.30199	-0.340774	-0.288966	-0.14388	
0.723976	5.39398	5	0	0.105667	-0.684319	-0.200798	-0.299282	-0.0935255	-0.800268	-0.467987	0.3002	-0.447923	-0.542776	-0.47215	-0.462697	-0.153329	-0.584741	-0.595627	-0.905999	-0.027099	-0.499899	-0.660102	0.422449	-0.60718	-0.983579	-0.50164	-0.660357	-0.157091	-0.238631	-0.284168	-0.022474	-0.298898	-0.349515	-0.287747	-0.157478	
0.72686	5.38788	5	0	0.114556	-0.695194	-0.200003	-0.301528	-0.085419	-0.805565	-0.46723	0.298061	-0.450145	-0.536496	-0.476503	-0.462693	-0.150178	-0.58031	-0.596514	-0.903492	-0.02263	-0.498728	-0.653989	0.418455	-0.595195	-0.989015	-0.494853	-0.669264	-0.149418	-0.24888	-0.286397	-0.02432	-0.295805	-0.358255	-0.286528	-0.171076	
0.72948	5.3894	5	0	0.115722	-0.698488	-0.204724	-0.296717	-0.0920337	-0.804484	-0.470553	0.300233	-0.446781	-0.531445	-0.470411	-0.455307	-0.148023	-0.573055	-0.592793	-0.89628	-0.0190997	-0.494893	-0.644813	0.412459	-0.577732	-0.995633	-0.489503	-0.663814	-0.142545	-0.256858	-0.281129	-0.0310633	-0.298833	-0.359634	-0.284567	-0.17662	
0.731101	5.38483	5	0	0.116887	-0.701782	-0.209444	-0.291906	-0.0986485	-0.803403	-0.473876	0.302404	-0.443418	-0.526394	-0.464318	-0.44792	-0.145867	-0.5658	-0.589071	-0.889067	-0.0155695	-0.491057	-0.635636	0.406463	-0.560269	-1.00225	-0.484154	-0.658364	-0.135673	-0.264837	-0.27586	-0.0378065	-0.301861	-0.361012	-0.282605	-0.182163	
0.731253	5.38025	5	0	0.118053	-0.705075	-0.214165	-0.287094	-0.105263	-0.802321	-0.4772	0.304575	-0.440054	-0.521344	-0.458226	-0.440534	-0.143711	-0.558545	-0.585349	-0.881854	-0.0120392	-0.487221	-0.62646	0.400467	-0.542805	-1.00887	-0.478804	-0.652914	-0.1288	-0.272815	-0.270591	-0.0445497	-0.304889	-0.362391	-0.280643	-0.187706	
0.730249	5.38177	5	0	0.119218	-0.708369	-0.218886	-0.282283	-0.111878	-0.80124	-0.480523	0.306747	-0.43669	-0.516293	-0.452133	-0.433148	-0.141556	-0.55129	-0.581628	-0.874642	-0.008509	-0.483386	-0.617283	0.394471	-0.525342	-1.01549	-0.473454	-0.647464	-0.121927	-0.280794	-0.265323	-0.051293	-0.307917	-0.36377	-0.278682	-0.19325	
0.728543	5.38177	5	0	0.116155	-0.713958	-0.221221	-0.28421	-0.110387	-0.805453	-0.487923	0.313227	-0.43669	-0.516293	-0.458226	-0.440534	-0.142553	-0.54847	-0.581628	-0.874642	0.00233325	-0.486373	-0.614222	0.392471	-0.518775	-1.01978	-0.473454	-0.647464	-0.11425	-0.291039	-0.265323	-0.051293	-0.307917	-0.36377	-0.278682	-0.19325	
0.72659	5.38025	5	0	0.113093	-0.719548	-0.223556	-0.286137	-0.108897	-0.809667	-0.495322	0.319707	-0.43669	-0.516293	-0.464318	-0.44792	-0.143551	-0.545651	-0.581628	-0.874642	0.0131755	-0.48936	-0.611161	0.39047	-0.512209	-1.02407	-0.473454	-0.647464	-0.106573	-0.301283	-0.265323	-0.051293	-0.307917	-0.36377	-0.278682	-0.19325	
0.724844	5.37262	5	0	0.11003	-0.725137	-0.225891	-0.288064	-0.107406	-0.813881	-0.502722	0.326186	-0.43669	-0.516293	-0.470411	-0.455307	-0.144548	-0.542832	-0.581628	-0.874642	0.0240178	-0.492346	-0.6081	0.38847	-0.505642	-1.02836	-0.473454	-0.647464	-0.0988967	-0.311528	-0.265323	-0.051293	-0.307917	-0.36377	-0.278682	-0.19325	
0.723758	5.37262	5	0	0.106967	-0.730726	-0.228226	-0.289991	-0.105915	-0.818094	-0.510122	0.332666	-0.43669	-0.516293	-0.476503	-0.462693	-0.145546	-0.540012	-0.581628	-0.874642	0.03486	-0.495333	-0.605039	0.38647	-0.499076	-1.03265	-0.473454	-0.647464	-0.09122	-0.321773	-0.265323	-0.051293	-0.307917	-0.36377	-0.278682	-0.19325	
0.723607	5.37567	5	0	0.111619	-0.743874	-0.229766	-0.29416	-0.102935	-0.826515	-0.512684	0.332696	-0.43669	-0.516293	-0.479547	-0.466381	-0.141395	-0.538387	-0.58074	-0.877152	0.0329728	-0.49	-0.601977	0.384469	-0.484825	-1.04436	-0.471394	-0.653284	-0.0835417	-0.332014	-0.259295	-0.0601802	-0.308628	-0.371691	-0.282143	-0.203758	
0.724378	5.37262	5	0	0.116271	-0.757022	-0.231307	-0.29833	-0.0999555	-0.834936	-0.515247	0.332726	-0.43669	-0.516293	-0.482591	-0.470068	-0.137244	-0.536763	-0.579851	-0.879663	0.0310855	-0.484667	-0.598915	0.382468	-0.470574	-1.05607	-0.469335	-0.659104	-0.0758635	-0.342256	-0.253267	-0.0690675	-0.309339	-0.379613	-0.285604	-0.214266	
0.726031	5.37872	5	0	0.120923	-0.770169	-0.232847	-0.3025	-0.0969757	-0.843358	-0.517809	0.332755	-0.43669	-0.516293	-0.485634	-0.473755	-0.133093	-0.535138	-0.578963	-0.882173	0.0291982	-0.479333	-0.595852	0.380467	-0.456323	-1.06778	-0.467276	-0.664924	-0.0681853	-0.352497	-0.247238	-0.0779548	-0.31005	-0.387535	-0.289065	-0.224774	
0.728525	5.37872	5	0	0.125575	-0.783317	-0.234387	-0.306669	-0.093996	-0.851779	-0.520372	0.332785	-0.43669	-0.516293	-0.488678	-0.477443	-0.128942	-0.533513	-0.578075	-0.884683	0.027311	-0.474	-0.59279	0.378466	-0.442072	-1.07948	-0.465216	-0.670744	-0.060507	-0.362739	-0.24121	-0.086842	-0.310761	-0.395456	-0.292526	-0.235282	
0.73182	5.38177	5	0	0.120186	-0.78232	-0.238308	-0.304107	-0.0925072	-0.855986	-0.520372	0.332785	-0.437803	-0.513148	-0.482589	-0.470064	-0.131939	-0.525044	-0.57488	-0.884841	0.0327382	-0.475495	-0.586663	0.374462	-0.435491	-1.08378	-0.457798	-0.671117	-0.058905	-0.367266	-0.240451	-0.0889865	-0.304648	-0.402802	-0.284924	-0.246625	
0.735871	5.39398	5	0	0.114796	-0.781324	-0.242228	-0.301546	-0.0910185	-0.860194	-0.520372	0.332785	-0.438916	-0.510003	-0.476499	-0.462685	-0.134935	-0.516575	-0.571685	-0.884999	0.0381655	-0.47699	-0.580535	0.370459	-0.428909	-1.08808	-0.45038	-0.67149	-0.057303	-0.371794	-0.239693	-0.091131	-0.298535	-0.410149	-0.277321	-0.257969	
0.740492	5.40161	5	0	0.109407	-0.780327	-0.246148	-0.298984	-0.0895297	-0.864401	-0.520372	0.332785	-0.440029	-0.506857	-0.47041	-0.455307	-0.137932	-0.508106	-0.56849	-0.885156	0.0435927	-0.478486	-0.574407	0.366455	-0.422328	-1.09239	-0.442961	-0.671863	-0.055701	-0.376321	-0.238934	-0.0932755	-0.292421	-0.417495	-0.269719	-0.269313	
0.745329	5.41077	5	0	0.104018	-0.77933	-0.250069	-0.296422	-0.088041	-0.868609	-0.520372	0.332785	-0.441142	-0.503712	-0.464321	-0.447928	-0.140929	-0.499637	-0.565295	-0.885314	0.04902	-0.479981	-0.56828	0.362451	-0.415746	-1.09669	-0.435543	-0.672236	-0.054099	-0.380849	-0.238175	-0.09542	-0.286308	-0.424841	-0.262117	-0.280656	
0.750021	5.4245	5	0	0.102115	-0.788176	-0.246896	-0.305391	-0.093164	-0.871726	-0.52369	0.334953	-0.440029	-0.506857	-0.471289	-0.440532	-0.135777	-0.500832	-0.571683	-0.884999	0.0535072	-0.478809	-0.56828	0.362451	-0.410262	-1.09787	-0.430178	-0.666784	-0.0496228	-0.382034	-0.231427	-0.0981805	-0.286365	-0.414744	-0.264073	-0.275128	
0.754204	5.43976	5	0	0.100213	-0.797022	-0.243723	-0.314359	-0.098287	-0.874843	-0.527008	0.337121	-0.438916	-0.510003	-0.478258	-0.433137	-0.130625	-0.502027	-0.578071	-0.884685	0.0579945	-0.477637	-0.56828	0.362451	-0.404779	-1.09906	-0.424813	-0.661333	-0.0451465	-0.383219	-0.22468	-0.100941	-0.286421	-0.404648	-0.266029	-0.269599	
0.757518	5.45349	5	0	0.0983098	-0.805868	-0.240549	-0.323327	-0.10341	-0.877961	-0.530326	0.33929	-0.437803	-0.513148	-0.485227	-0.425741	-0.125472	-0.503222	-0.584459	-0.88437	0.0624818	-0.476466	-0.56828	0.362451	-0.399296	-1.10024	-0.419447	-0.655882	-0.0406702	-0.384403	-0.217932	-0.103702	-0.286478	-0.394551	-0.267985	-0.264071	
0.759604	5.4657	5	0	0.096407	-0.814714	-0.237376	-0.332296	-0.108533	-0.881078	-0.533644	0.341458	-0.43669	-0.516293	-0.492195	-0.418345	-0.12032	-0.504417	-0.590847	-0.884055	0.066969	-0.475294	-0.56828	0.362451	-0.393812	-1.10143	-0.414082	-0.65043	-0.036194	-0.385588	-0.211184	-0.106462	-0.286535	-0.384454	-0.269941	-0.258543	
0.760311	5.47943	0	5	0.0975668	-0.817992	-0.243626	-0.331657	-0.115138	-0.879993	-0.527007	0.337121	-0.435578	-0.519437	-0.490463	-0.410943	-0.12032	-0.504417	-0.586766	-0.886722	0.066024	-0.472624	-0.562148	0.358444	-0.392709	-1.10455	-0.404583	-0.656636	-0.0345925	-0.390114	-0.20667	-0.111061	-0.284991	-0.388818	-0.270698	-0.266546	
0.75978	5.49164	0	5	0.0987265	-0.82127	-0.249877	-0.331018	-0.121742	-0.878908	-0.520369	0.332784	-0.434465	-0.522581	-0.48873	-0.403541	-0.12032	-0.504417	-0.582685	-0.889389	0.065079	-0.469954	-0.556016	0.354438	-0.391605	-1.10767	-0.395085	-0.662843	-0.032991	-0.394641	-0.202155	-0.115659	-0.283447	-0.393182	-0.271455	-0.274548	
0.758172	5.49927	0	5	0.0998862	-0.824547	-0.256127	-0.330379	-0.128347	-0.877823	-0.513732	0.328446	-0.433353	-0.525725	-0.486997	-0.396138	-0.12032	-0.504417	-0.578604	-0.892055	0.064134	-0.467283	-0.549884	0.350431	-0.390502	-1.11078	-0.385586	-0.669049	-0.0313895	-0.399167	-0.19764	-0.120257	-0.281903	-0.397545	-0.272212	-0.282551	
0.755652	5.51147	0	5	0.101046	-0.827825	-0.262377	-0.32974	-0.134951	-0.876738	-0.507094	0.324109	-0.43224	-0.528869	-0.485265	-0.388736	-0.12032	-0.504417	-0.574523	-0.894722	0.063189	-0.464613	-0.543752	0.346424	-0.389399	-1.1139	-0.376087	-0.675256	-0.029788	-0.403693	-0.193126	-0.124856	-0.280359	-0.401909	-0.272969	-0.290554	
0.752381	5.51453	0	5	0.098726	-0.821268	-0.260046	-0.327819	-0.137925	-0.868332	-0.497128	0.317597	-0.433353	-0.525725	-0.477446	-0.373891	-0.115164	-0.505614	-0.568131	-0.895039	0.0686247	-0.466111	-0.537616	0.342415	-0.382807	-1.11821	-0.369673	-0.672721	-0.0245077	-0.407143	-0.189368	-0.127311	-0.271977	-0.405709	-0.271015	-0.296075	
0.748524	5.52673	0	5	0.096406	-0.814711	-0.257714	-0.325897	-0.140899	-0.859927	-0.487162	0.311085	-0.434465	-0.522581	-0.469627	-0.359045	-0.110007	-0.506811	-0.561739	-0.895356	0.0740605	-0.46761	-0.531479	0.338405	-0.376216	-1.12252	-0.36326	-0.670187	-0.0192275	-0.410594	-0.185611	-0.129767	-0.263595	-0.409508	-0.269062	-0.301596	
0.744338	5.53589	0	5	0.094086	-0.808154	-0.255383	-0.323975	-0.143873	-0.851522	-0.477196	0.304573	-0.435578	-0.519437	-0.461808	-0.344199	-0.10485	-0.508007	-0.555347	-0.895674	0.0794962	-0.469108	-0.525343	0.334396	-0.369625	-1.12682	-0.356847	-0.667652	-0.0139472	-0.414044	-0.181854	-0.132222	-0.255214	-0.413307	-0.267108	-0.307118	
0.740213	5.53894	0	5	0.091766	-0.801597	-0.253051	-0.322054	-0.146847	-0.843116	-0.46723	0.298061	-0.43669	-0.516293	-0.453989	-0.329354	-0.099694	-0.509204	-0.548955	-0.895991	0.084932	-0.470606	-0.519207	0.330386	-0.363033	-1.13113	-0.350433	-0.665117	-0.008667	-0.417494	-0.178096	-0.134677	-0.246832	-0.417107	-0.265154	-0.312639	
0.736546	5.54047	0	5	0.091766	-0.801597	-0.259298	-0.321417	-0.146847	-0.843116	-0.46723	0.298061	-0.435578	-0.519437	-0.462289	-0.318218	-0.099694	-0.509204	-0.548067	-0.898501	0.0839865	-0.467934	-0.516137	0.32838	-0.370728	-1.12371	-0.349807	-0.656548	-0.0110697	-0.410703	-0.172094	-0.135301	-0.24766	-0.404813	-0.264395	-0.304643	
0.733737	5.54657	0	5	0.091766	-0.801597	-0.265545	-0.320781	-0.146847	-0.843116	-0.46723	0.298061	-0.434465	-0.522581	-0.47059	-0.307083	-0.099694	-0.509204	-0.547179	-0.901011	0.083041	-0.465262	-0.513068	0.326374	-0.378422	-1.11628	-0.34918	-0.64798	-0.0134725	-0.403913	-0.166093	-0.135925	-0.248489	-0.39252	-0.263636	-0.296648	
0.732183	5.54352	0	5	0.091766	-0.801597	-0.271791	-0.320144	-0.146847	-0.843116	-0.46723	0.298061	-0.433353	-0.525725	-0.47889	-0.295948	-0.099694	-0.509204	-0.54629	-0.903522	0.0820955	-0.46259	-0.509998	0.324368	-0.386117	-1.10886	-0.348553	-0.639412	-0.0158753	-0.397122	-0.160091	-0.136549	-0.249317	-0.380227	-0.262876	-0.288652	
0.732261	5.5542	0	5	0.091766	-0.801597	-0.278038	-0.319507	-0.146847	-0.843116	-0.46723	0.298061	-0.43224	-0.528869	-0.487191	-0.284812	-0.099694	-0.509204	-0.545402	-0.906032	0.08115	-0.459918	-0.506928	0.322362	-0.393812	-1.10143	-0.347927	-0.630843	-0.018278	-0.390332	-0.154089	-0.137173	-0.250145	-0.367933	-0.262117	-0.280656	
0.733891	5.55115	0	5	0.0971515	-0.802594	-0.27333	-0.324305	-0.146847	-0.843116	-0.463905	0.295889	-0.431128	-0.532012	-0.482835	-0.284801	-0.0976947	-0.514854	-0.542739	-0.913559	0.0839852	-0.467931	-0.513067	0.326373	-0.383912	-1.11509	-0.34586	-0.636684	-0.0121935	-0.396049	-0.15709	-0.136861	-0.250145	-0.367933	-0.262876	-0.288652	
0.736547	5.54962	0	5	0.102537	-0.803592	-0.268622	-0.329102	-0.146847	-0.843116	-0.460581	0.293717	-0.430016	-0.535154	-0.478479	-0.28479	-0.0956955	-0.520505	-0.540076	-0.921086	0.0868205	-0.475944	-0.519205	0.330384	-0.374012	-1.12874	-0.343793	-0.642524	-0.006109	-0.401765	-0.160092	-0.136548	-0.250145	-0.367933	-0.263636	-0.296648	
0.739684	5.54809	0	5	0.107923	-0.804589	-0.263915	-0.3339	-0.146847	-0.843116	-0.457257	0.291544	-0.428904	-0.538297	-0.474122	-0.284778	-0.0936963	-0.526155	-0.537412	-0.928612	0.0896558	-0.483958	-0.525343	0.334395	-0.364112	-1.1424	-0.341727	-0.648365	-2.45E-05	-0.407481	-0.163094	-0.136236	-0.250145	-0.367933	-0.264395	-0.304643	
0.742758	5.54657	0	5	0.113308	-0.805586	-0.259207	-0.338698	-0.146847	-0.843116	-0.453932	0.289372	-0.427792	-0.54144	-0.469766	-0.284767	-0.091697	-0.531806	-0.534749	-0.936139	0.092491	-0.491971	-0.531482	0.338406	-0.354212	-1.15606	-0.33966	-0.654206	0.00606	-0.413198	-0.166095	-0.135924	-0.250145	-0.367933	-0.265154	-0.312639	
0.745225	5.54352	5	0	0.110986	-0.799022	-0.256875	-0.336778	-0.141733	-0.83999	-0.44062	0.280674	-0.43338	-0.540204	-0.459314	-0.27729	-0.091697	-0.531806	-0.530662	-0.93881	0.0934355	-0.49464	-0.528413	0.336401	-0.366288	-1.15056	-0.333866	-0.660236	0.0007765	-0.409745	-0.165336	-0.138068	-0.250918	-0.365747	-0.267867	-0.315109	
0.746562	5.54199	5	0	0.108663	-0.792458	-0.254543	-0.334858	-0.136619	-0.836863	-0.427309	0.271976	-0.438968	-0.538968	-0.448861	-0.269813	-0.091697	-0.531806	-0.526575	-0.941481	0.09438	-0.497309	-0.525344	0.334396	-0.378364	-1.14506	-0.328072	-0.666266	-0.004507	-0.406293	-0.164577	-0.140213	-0.251692	-0.363561	-0.27058	-0.317578	
0.746657	5.53894	5	0	0.106341	-0.785894	-0.252211	-0.332937	-0.131505	-0.833737	-0.413998	0.263278	-0.444557	-0.537732	-0.438408	-0.262336	-0.091697	-0.531806	-0.522488	-0.944151	0.0953245	-0.499979	-0.522276	0.332391	-0.390441	-1.13957	-0.322278	-0.672296	-0.0097905	-0.402841	-0.163819	-0.142357	-0.252466	-0.361376	-0.273293	-0.320047	
0.745765	5.53741	5	0	0.104018	-0.77933	-0.249879	-0.331017	-0.126391	-0.830611	-0.400686	0.25458	-0.450145	-0.536496	-0.427956	-0.254859	-0.091697	-0.531806	-0.518401	-0.946822	0.096269	-0.502648	-0.519207	0.330386	-0.402517	-1.13407	-0.316484	-0.678326	-0.015074	-0.399388	-0.16306	-0.144502	-0.253239	-0.35919	-0.276006	-0.322517	
0.744151	5.52826	5	0	0.105179	-0.782612	-0.251419	-0.335176	-0.132993	-0.829532	-0.404016	0.256756	-0.449034	-0.539637	-0.427956	-0.254859	-0.087702	-0.543096	-0.523912	-0.949002	0.0936637	-0.509149	-0.52841	0.336399	-0.402517	-1.13407	-0.317517	-0.675407	-0.0174778	-0.392594	-0.161576	-0.140524	-0.24943	-0.359998	-0.27427	-0.317287	
0.742082	5.52215	5	0	0.106341	-0.785895	-0.252958	-0.339336	-0.139595	-0.828453	-0.407346	0.258931	-0.447923	-0.542777	-0.427956	-0.254859	-0.083707	-0.554387	-0.529423	-0.951183	0.0910585	-0.515649	-0.537613	0.342413	-0.402517	-1.13407	-0.31855	-0.672488	-0.0198815	-0.3858	-0.160092	-0.136547	-0.24562	-0.360806	-0.272533	-0.312057	
0.739825	5.5191	5	0	0.107503	-0.789178	-0.254498	-0.343496	-0.146198	-0.827373	-0.410675	0.261107	-0.446811	-0.545918	-0.427956	-0.254859	-0.079712	-0.565677	-0.534934	-0.953364	0.0884532	-0.522149	-0.546816	0.348426	-0.402517	-1.13407	-0.319583	-0.669569	-0.0222852	-0.379007	-0.158609	-0.132569	-0.241811	-0.361614	-0.270797	-0.306828	
0.73764	5.51758	5	0	0.108664	-0.79246	-0.256038	-0.347655	-0.1528	-0.826294	-0.414005	0.263283	-0.4457	-0.549059	-0.427956	-0.254859	-0.075717	-0.576967	-0.540445	-0.955544	0.085848	-0.52865	-0.556019	0.354439	-0.402517	-1.13407	-0.320616	-0.66665	-0.024689	-0.372213	-0.157125	-0.128591	-0.238002	-0.362422	-0.269061	-0.301598	
0.735704	5.513	5	0	0.107503	-0.789178	-0.255246	-0.349893	-0.1528	-0.826294	-0.414005	0.263283	-0.443478	-0.555337	-0.431003	-0.258594	-0.0788803	-0.581403	-0.540983	-0.962893	0.0768717	-0.530978	-0.562905	0.360582	-0.412371	-1.13481	-0.324975	-0.675015	-0.030771	-0.366497	-0.157125	-0.128591	-0.241811	-0.361614	-0.270797	-0.306828	
0.734136	5.50384	5	0	0.106341	-0.785895	-0.254454	-0.352132	-0.1528	-0.826294	-0.414005	0.263283	-0.441257	-0.561615	-0.434051	-0.262329	-0.0820435	-0.585838	-0.541522	-0.970243	0.0678955	-0.533305	-0.569791	0.366725	-0.422226	-1.13555	-0.329334	-0.68338	-0.036853	-0.360781	-0.157125	-0.128591	-0.24562	-0.360806	-0.272533	-0.312057	
0.733056	5.50384	5	0	0.105179	-0.782612	-0.253662	-0.354371	-0.1528	-0.826294	-0.414005	0.263283	-0.439035	-0.567893	-0.437098	-0.266064	-0.0852067	-0.590274	-0.542061	-0.977592	0.0589192	-0.535633	-0.576677	0.372868	-0.43208	-1.13629	-0.333692	-0.691745	-0.042935	-0.355065	-0.157125	-0.128591	-0.24943	-0.359998	-0.27427	-0.317287	
0.73258	5.50384	5	0	0.104018	-0.77933	-0.25287	-0.356609	-0.1528	-0.826294	-0.414005	0.263283	-0.436814	-0.574171	-0.440145	-0.269799	-0.08837	-0.59471	-0.542599	-0.984942	0.049943	-0.537961	-0.583563	0.379011	-0.441934	-1.13703	-0.338051	-0.70011	-0.049017	-0.349349	-0.157125	-0.128591	-0.253239	-0.35919	-0.276006	-0.322517	
0.732827	5.50079	5	0	0.109407	-0.780327	-0.250537	-0.354691	-0.146198	-0.827373	-0.400678	0.254575	-0.436814	-0.574171	-0.42704	-0.269771	-0.0863765	-0.600344	-0.533546	-0.992782	0.0518268	-0.543285	-0.582807	0.376873	-0.447405	-1.13584	-0.339083	-0.697195	-0.049017	-0.349349	-0.157884	-0.126445	-0.253239	-0.35919	-0.27503	-0.325275	
0.733885	5.5069	5	0	0.114796	-0.781324	-0.248204	-0.352773	-0.139595	-0.828453	-0.387352	0.245867	-0.436814	-0.574171	-0.413934	-0.269744	-0.084383	-0.605979	-0.524492	-1.00062	0.0537105	-0.548609	-0.582051	0.374735	-0.452876	-1.13466	-0.340114	-0.69428	-0.049017	-0.349349	-0.158644	-0.124299	-0.253239	-0.35919	-0.274054	-0.328032	
0.735605	5.5069	5	0	0.120186	-0.78232	-0.245872	-0.350854	-0.132993	-0.829532	-0.374025	0.237159	-0.436814	-0.574171	-0.400828	-0.269716	-0.0823895	-0.611614	-0.515439	-1.00846	0.0555942	-0.553932	-0.581294	0.372598	-0.458347	-1.13348	-0.341145	-0.691365	-0.049017	-0.349349	-0.159404	-0.122153	-0.253239	-0.35919	-0.273079	-0.330789	
0.73772	5.50842	5	0	0.125575	-0.783317	-0.243539	-0.348936	-0.126391	-0.830611	-0.360698	0.228451	-0.436814	-0.574171	-0.387723	-0.269688	-0.080396	-0.617248	-0.506385	-1.0163	0.057478	-0.559256	-0.580538	0.37046	-0.463818	-1.13229	-0.342177	-0.68845	-0.049017	-0.349349	-0.160163	-0.120007	-0.253239	-0.35919	-0.272103	-0.333547	
0.739962	5.50995	0	5	0.124413	-0.780032	-0.244332	-0.346697	-0.124902	-0.834819	-0.364032	0.230629	-0.435704	-0.577309	-0.397373	-0.254781	-0.0784035	-0.622879	-0.511355	-1.01113	0.0584195	-0.561917	-0.577473	0.368458	-0.471485	-1.12489	-0.342581	-0.676969	-0.0530287	-0.338012	-0.155676	-0.116336	-0.248715	-0.352054	-0.272319	-0.322799	
0.742062	5.5069	0	5	0.12325	-0.776747	-0.245124	-0.344457	-0.123413	-0.839027	-0.367366	0.232808	-0.434593	-0.580446	-0.407022	-0.239874	-0.076411	-0.62851	-0.516326	-1.00596	0.059361	-0.564577	-0.574409	0.366456	-0.479152	-1.11749	-0.342985	-0.665488	-0.0570405	-0.326674	-0.151189	-0.112665	-0.244192	-0.344918	-0.272536	-0.312051	
0.743754	5.51147	0	5	0.122088	-0.773462	-0.245917	-0.342218	-0.121924	-0.843234	-0.370699	0.234986	-0.433483	-0.583584	-0.416671	-0.224967	-0.0744185	-0.634141	-0.521297	-1.00079	0.0603025	-0.567238	-0.571345	0.364453	-0.486819	-1.11009	-0.343389	-0.654007	-0.0610522	-0.315337	-0.146701	-0.108993	-0.239669	-0.337782	-0.272753	-0.301302	
0.744808	5.51758	0	5	0.120926	-0.770177	-0.246709	-0.339978	-0.120435	-0.847442	-0.374033	0.237164	-0.432373	-0.586721	-0.426321	-0.21006	-0.072426	-0.639772	-0.526267	-0.995614	0.061244	-0.569899	-0.56828	0.362451	-0.494486	-1.10269	-0.343793	-0.642526	-0.065064	-0.303999	-0.142214	-0.105322	-0.235145	-0.330646	-0.272969	-0.290554	
0.74526	5.51453	0	5	0.12632	-0.771175	-0.248295	-0.335497	-0.121924	-0.843234	-0.370699	0.234986	-0.432373	-0.586721	-0.417991	-0.221239	-0.0714303	-0.642586	-0.523068	-0.99578	0.0621852	-0.572559	-0.56828	0.362451	-0.494486	-1.10269	-0.34276	-0.645446	-0.06667	-0.29946	-0.146738	-0.100714	-0.231332	-0.331454	-0.272969	-0.290554	
0.74526	5.52063	0	5	0.131713	-0.772172	-0.24988	-0.331016	-0.123413	-0.839027	-0.367366	0.232808	-0.432373	-0.586721	-0.40966	-0.232418	-0.0704345	-0.6454	-0.519869	-0.995946	0.0631265	-0.575219	-0.56828	0.362451	-0.494486	-1.10269	-0.341727	-0.648366	-0.068276	-0.294921	-0.151263	-0.096106	-0.227519	-0.332263	-0.272969	-0.290554	
0.744958	5.51758	0	5	0.137106	-0.77317	-0.251466	-0.326535	-0.124902	-0.834819	-0.364032	0.230629	-0.432373	-0.586721	-0.40133	-0.243597	-0.0694388	-0.648214	-0.516669	-0.996112	0.0640677	-0.577879	-0.56828	0.362451	-0.494486	-1.10269	-0.340693	-0.651286	-0.069882	-0.290381	-0.155787	-0.091498	-0.223705	-0.333071	-0.272969	-0.290554	
0.744506	5.52521	0	5	0.1425	-0.774168	-0.253051	-0.322054	-0.126391	-0.830611	-0.360698	0.228451	-0.432373	-0.586721	-0.393	-0.254776	-0.068443	-0.651028	-0.51347	-0.996278	0.065009	-0.580539	-0.56828	0.362451	-0.494486	-1.10269	-0.33966	-0.654206	-0.071488	-0.285842	-0.160311	-0.08689	-0.219892	-0.333879	-0.272969	-0.290554	
0.744053	5.52368	0	5	0.146734	-0.771879	-0.248385	-0.318208	-0.127881	-0.826402	-0.354027	0.224092	-0.427894	-0.584823	-0.385569	-0.251026	-0.0632825	-0.652236	-0.502976	-0.999285	0.065009	-0.580539	-0.565971	0.362586	-0.501047	-1.0984	-0.33966	-0.654206	-0.0678147	-0.284751	-0.154303	-0.0875112	-0.23055	-0.333646	-0.273946	-0.287792	
