0.542	5.45196	0	0	0	0	-0.082324	0.890375	0	0	0.088499	0.533047	0	0	-0.051039	-0.170019	0.127111	-0.029889	0.045917	-0.038099	0.245667	-0.090952	0.126217	-0.195567	0.217091	0.05859	0.057969	-0.122604	-0.062706	-0.397364	-0.280595	-0.67682	-0.088939	-0.280638	-0.144165	-0.202938	
0.541944	5.45044	0	0	0	0	-0.067254	0.935298	0	0	0.0921205	0.553915	0	0	-0.0611602	-0.141415	0.138452	0.013229	0.043304	-0.0179697	0.254794	-0.0678293	0.127449	-0.186636	0.229502	0.0822158	0.0630337	-0.0956343	-0.052053	-0.380186	-0.275766	-0.667054	-0.0661638	-0.251954	-0.122274	-0.176681	
0.542048	5.45502	0	0	0	0	-0.052184	0.980222	0	0	0.095742	0.574784	0	0	-0.0712815	-0.112811	0.149792	0.056347	0.040691	0.0021595	0.263922	-0.0447065	0.128681	-0.177704	0.241913	0.105842	0.0680985	-0.0686645	-0.0414	-0.363007	-0.270937	-0.657288	-0.0433885	-0.22327	-0.100383	-0.150423	
0.542326	5.45807	0	0	0	0	-0.037114	1.02514	0	0	0.0993635	0.595652	0	0	-0.0814027	-0.084207	0.161132	0.099465	0.038078	0.0222888	0.27305	-0.0215837	0.129912	-0.168773	0.254323	0.129467	0.0731632	-0.0416948	-0.030747	-0.345828	-0.266107	-0.647523	-0.0206132	-0.194585	-0.0784928	-0.124165	
0.542793	5.46265	0	0	0	0	-0.022044	1.07007	0	0	0.102985	0.61652	0	0	-0.091524	-0.055603	0.172473	0.142583	0.035465	0.042418	0.282177	0.001539	0.131144	-0.159842	0.266734	0.153093	0.078228	-0.014725	-0.020094	-0.32865	-0.261278	-0.637757	0.002162	-0.165901	-0.056602	-0.097908	
0.543463	5.46265	0	0	0	0	-0.010102	1.10956	0	0	0.099718	0.636132	0	0	-0.0876525	-0.032914	0.17881	0.189345	0.0411772	0.0645592	0.281237	0.028703	0.129649	-0.155617	0.262891	0.187487	0.087876	0.0131953	-0.008566	-0.313825	-0.257298	-0.62556	0.0202313	-0.133863	-0.0331808	-0.0755565	
0.544352	5.47027	0	0	0	0	0.00184	1.14905	0	0	0.096451	0.655744	0	0	-0.083781	-0.010225	0.185148	0.236106	0.0468895	0.0867005	0.280297	0.055867	0.128154	-0.151391	0.259047	0.221881	0.097524	0.0411155	0.002962	-0.298999	-0.253319	-0.613363	0.0383005	-0.101826	-0.0097595	-0.053205	
0.545473	5.4718	0	0	0	0	0.013782	1.18855	0	0	0.093184	0.675357	0	0	-0.0799095	0.012464	0.191486	0.282868	0.0526018	0.108842	0.279357	0.083031	0.126659	-0.147166	0.255204	0.256275	0.107172	0.0690357	0.01449	-0.284174	-0.249339	-0.601167	0.0563698	-0.0697885	0.0136617	-0.0308535	
0.54684	5.47485	0	0	0	0	0.025724	1.22804	0	0	0.089917	0.694969	0	0	-0.076038	0.035153	0.197823	0.32963	0.058314	0.130983	0.278417	0.110195	0.125164	-0.14294	0.251361	0.290669	0.11682	0.096956	0.026018	-0.269349	-0.24536	-0.58897	0.074439	-0.037751	0.037083	-0.008502	
0.54847	5.47333	0	0	0	0	0.0332462	1.25086	0	0	0.082454	0.705681	0	0	-0.0773532	0.0613242	0.203613	0.367332	0.0581277	0.157076	0.284326	0.130317	0.119451	-0.139207	0.256298	0.312069	0.123614	0.119254	0.0367065	-0.252029	-0.245838	-0.571972	0.0848688	-0.0046545	0.0606032	0.0139923	
0.550342	5.48553	0	0	0	0	0.0407685	1.27369	0	0	0.074991	0.716393	0	0	-0.0786685	0.0874955	0.209404	0.405033	0.0579415	0.183169	0.290235	0.150439	0.113737	-0.135474	0.261236	0.333469	0.130407	0.141553	0.047395	-0.23471	-0.246317	-0.554975	0.0952985	0.028442	0.0841235	0.0364865	
0.55238	5.48859	0	0	0	0	0.0482908	1.29652	0	0	0.067528	0.727106	0	0	-0.0799837	0.113667	0.215194	0.442735	0.0577553	0.209263	0.296144	0.170561	0.108024	-0.13174	0.266174	0.354869	0.137201	0.163852	0.0580835	-0.21739	-0.246796	-0.537977	0.105728	0.0615385	0.107644	0.0589808	
0.554499	5.48248	0	0	0	0	0.055813	1.31934	0	0	0.060065	0.737818	0	0	-0.081299	0.139838	0.220984	0.480437	0.057569	0.235356	0.302053	0.190683	0.102311	-0.128007	0.271111	0.376269	0.143994	0.18615	0.068772	-0.20007	-0.247274	-0.52098	0.116158	0.094635	0.131164	0.081475	
0.556617	5.48401	0	0	0	0	0.0706632	1.32156	0	0	0.060065	0.737818	0	0	-0.0811807	0.161985	0.219005	0.518544	0.0666843	0.248011	0.30106	0.218078	0.102311	-0.128007	0.268321	0.407761	0.15255	0.20356	0.0821387	-0.180654	-0.242265	-0.503805	0.130427	0.127575	0.145964	0.116243	
0.558649	5.48096	0	0	0	0	0.0855135	1.32378	0	0	0.060065	0.737818	0	0	-0.0810625	0.184132	0.217027	0.55665	0.0757995	0.260667	0.300067	0.245473	0.102311	-0.128007	0.265531	0.439252	0.161106	0.220971	0.0955055	-0.161238	-0.237257	-0.48663	0.144697	0.160515	0.160765	0.151011	
0.56051	5.47943	0	0	0	0	0.100364	1.326	0	0	0.060065	0.737818	0	0	-0.0809442	0.20628	0.215048	0.594757	0.0849148	0.273322	0.299073	0.272869	0.102311	-0.128007	0.262741	0.470743	0.169662	0.238381	0.108872	-0.141822	-0.232248	-0.469455	0.158966	0.193456	0.175565	0.185779	
0.562113	5.47485	0	0	0	0	0.115214	1.32822	0	0	0.060065	0.737818	0	0	-0.080826	0.228427	0.213069	0.632864	0.09403	0.285977	0.29808	0.300264	0.102311	-0.128007	0.259951	0.502235	0.178218	0.255791	0.122239	-0.122406	-0.22724	-0.45228	0.173235	0.226396	0.190365	0.220547	
0.563372	5.4657	0	0	0	0	0.135075	1.33117	0	0	0.0642433	0.746775	0	0	-0.084442	0.249897	0.215577	0.658348	0.103159	0.298674	0.298292	0.324287	0.105032	-0.123283	0.260549	0.52418	0.178607	0.282469	0.128619	-0.0926415	-0.22206	-0.427683	0.192364	0.256422	0.214058	0.256207	
0.564202	5.47333	0	0	0	0	0.154936	1.33412	0	0	0.0684215	0.755731	0	0	-0.088058	0.271366	0.218085	0.683833	0.112287	0.311372	0.298503	0.34831	0.107753	-0.11856	0.261148	0.546125	0.178997	0.309146	0.134998	-0.062877	-0.21688	-0.403086	0.211494	0.286448	0.237752	0.291868	
0.564562	5.46722	0	0	0	0	0.174796	1.33708	0	0	0.0725998	0.764687	0	0	-0.091674	0.292836	0.220593	0.709317	0.121415	0.32407	0.298714	0.372333	0.110473	-0.113836	0.261746	0.568069	0.179387	0.335824	0.141378	-0.0331125	-0.2117	-0.378489	0.230623	0.316475	0.261445	0.327528	
0.564488	5.46265	0	0	0	0	0.194657	1.34003	0	0	0.076778	0.773644	0	0	-0.09529	0.314306	0.223101	0.734801	0.130544	0.336767	0.298926	0.396356	0.113194	-0.109112	0.262345	0.590014	0.179776	0.362502	0.147758	-0.003348	-0.20652	-0.353892	0.249752	0.346501	0.285138	0.363188	
0.56402	5.46265	0	0	0	0	0.215898	1.35412	0	0	0.083048	0.787114	0	0	-0.0870838	0.324907	0.232428	0.741071	0.149817	0.346635	0.298403	0.410158	0.110199	-0.100647	0.258911	0.599719	0.185475	0.374215	0.158534	0.023712	-0.204977	-0.326804	0.261174	0.377537	0.310403	0.394973	
0.563202	5.46417	0	0	0	0	0.237138	1.3682	0	0	0.089318	0.800584	0	0	-0.0788775	0.335508	0.241754	0.74734	0.169091	0.356503	0.29788	0.423959	0.107204	-0.092182	0.255477	0.609425	0.191174	0.385929	0.169311	0.050772	-0.203434	-0.299716	0.272596	0.408574	0.335669	0.426759	
0.562098	5.46265	0	0	0	0	0.258379	1.38229	0	0	0.095588	0.814054	0	0	-0.0706712	0.346109	0.251081	0.75361	0.188364	0.366371	0.297356	0.43776	0.104208	-0.083717	0.252043	0.619131	0.196874	0.397643	0.180088	0.077832	-0.201891	-0.272628	0.284018	0.439611	0.360934	0.458544	
0.560944	5.45502	0	0	0	0	0.27962	1.39638	0	0	0.101858	0.827524	0	0	-0.062465	0.35671	0.260408	0.75988	0.207638	0.376239	0.296833	0.451562	0.101213	-0.075252	0.248609	0.628836	0.202573	0.409356	0.190864	0.104892	-0.200348	-0.24554	0.29544	0.470647	0.3862	0.490329	
0.560051	5.45196	0	0	0	0	0.290927	1.40904	0	0	0.108869	0.849378	0	0	-0.057198	0.37568	0.269751	0.766161	0.223515	0.395928	0.296833	0.451562	0.109652	-0.0742525	0.244313	0.629155	0.205424	0.415225	0.184777	0.131698	-0.203485	-0.22093	0.29917	0.491844	0.386196	0.516228	
0.559731	5.45502	0	0	0	0	0.302233	1.4217	0	0	0.11588	0.871232	0	0	-0.051931	0.394649	0.279094	0.772443	0.239392	0.415617	0.296833	0.451562	0.118092	-0.073253	0.240017	0.629474	0.208275	0.421094	0.17869	0.158504	-0.206622	-0.196321	0.302901	0.513041	0.386191	0.542127	
0.560292	5.45196	0	0	0	0	0.31354	1.43435	0	0	0.122891	0.893086	0	0	-0.046664	0.413619	0.288437	0.778725	0.255269	0.435307	0.296833	0.451562	0.126532	-0.0722535	0.235721	0.629793	0.211125	0.426963	0.172603	0.185311	-0.209758	-0.171711	0.306631	0.534238	0.386186	0.568027	
0.56175	5.45196	0	0	0	0	0.324847	1.44701	0	0	0.129902	0.91494	0	0	-0.041397	0.432589	0.29778	0.785006	0.271146	0.454996	0.296833	0.451562	0.134971	-0.071254	0.231425	0.630112	0.213976	0.432832	0.166516	0.212117	-0.212895	-0.147101	0.310361	0.555435	0.386182	0.593926	
0.563655	5.44586	0	0	0	0	0.338029	1.45448	0	0	0.132099	0.940041	0	0	-0.0286763	0.453199	0.308282	0.788069	0.285324	0.479712	0.303748	0.44435	0.141922	-0.0660127	0.236001	0.617178	0.225028	0.429479	0.167428	0.219147	-0.210847	-0.137131	0.306396	0.56664	0.395127	0.594571	
0.565514	5.43976	0	0	0	0	0.35121	1.46194	0	0	0.134297	0.965143	0	0	-0.0159555	0.473809	0.318785	0.791132	0.299502	0.504427	0.310663	0.437137	0.148872	-0.0607715	0.240577	0.604245	0.23608	0.426126	0.16834	0.226178	-0.208799	-0.127162	0.302431	0.577846	0.404071	0.595216	
0.566833	5.45196	0	0	0	0	0.364392	1.46941	0	0	0.136495	0.990244	0	0	-0.00323475	0.494419	0.329287	0.794195	0.31368	0.529142	0.317579	0.429924	0.155823	-0.0555303	0.245154	0.591311	0.247133	0.422774	0.169252	0.233209	-0.206751	-0.117192	0.298467	0.589051	0.413015	0.595861	
0.56718	5.44128	0	0	0	0	0.377574	1.47687	0	0	0.138692	1.01534	0	0	0.009486	0.515029	0.339789	0.797258	0.327858	0.553858	0.324494	0.422712	0.162773	-0.050289	0.24973	0.578378	0.258185	0.419421	0.170164	0.240239	-0.204703	-0.107222	0.294502	0.600256	0.42196	0.596506	
0.566574	5.44281	0	0	0	0	0.380739	1.48286	0	0	0.138781	1.036	0	0	0.0170012	0.539163	0.348021	0.806794	0.342062	0.578726	0.328933	0.422505	0.175194	-0.0355245	0.246578	0.575471	0.270338	0.426979	0.17638	0.241903	-0.197132	-0.0970628	0.301277	0.602297	0.426437	0.596827	
0.565252	5.43823	0	0	0	0	0.383904	1.48885	0	0	0.13887	1.05665	0	0	0.0245165	0.563296	0.356253	0.816329	0.356266	0.603593	0.333372	0.422299	0.187615	-0.02076	0.243426	0.572564	0.28249	0.434536	0.182596	0.243567	-0.189561	-0.0869035	0.308053	0.604337	0.430914	0.597148	
0.563448	5.43671	0	0	0	0	0.387069	1.49483	0	0	0.138959	1.0773	0	0	0.0320317	0.58743	0.364485	0.825865	0.370471	0.62846	0.337811	0.422092	0.200035	-0.0059955	0.240275	0.569658	0.294642	0.442094	0.188813	0.24523	-0.181991	-0.0767442	0.314829	0.606378	0.435392	0.59747	
0.561398	5.4245	0	0	0	0	0.390234	1.50082	0	0	0.139048	1.09796	0	0	0.039547	0.611564	0.372717	0.835401	0.384675	0.653328	0.34225	0.421886	0.212456	0.008769	0.237123	0.566751	0.306795	0.449652	0.195029	0.246894	-0.17442	-0.066585	0.321604	0.608419	0.439869	0.597791	
0.559305	5.4245	0	0	0	0	0.3934	1.50681	0	0	0.140486	1.11482	0	0	0.0508028	0.636626	0.379813	0.848206	0.403164	0.679391	0.349896	0.424978	0.221878	0.0321427	0.240275	0.569658	0.315394	0.467346	0.198612	0.256018	-0.163046	-0.0512948	0.33518	0.612502	0.447337	0.602661	
0.55731	5.42602	0	0	0	0	0.396566	1.51281	0	0	0.141925	1.13168	0	0	0.0620585	0.661687	0.386909	0.861011	0.421652	0.705453	0.357543	0.42807	0.2313	0.0555165	0.243426	0.572564	0.323993	0.485041	0.202196	0.265142	-0.151673	-0.0360045	0.348757	0.616586	0.454806	0.607532	
0.55555	5.42145	0	0	0	0	0.399732	1.5188	0	0	0.143363	1.14855	0	0	0.0733142	0.686749	0.394005	0.873816	0.44014	0.731515	0.36519	0.431162	0.240722	0.0788902	0.246578	0.575471	0.332592	0.502736	0.20578	0.274265	-0.1403	-0.0207143	0.362333	0.620669	0.462275	0.612402	
0.554161	5.4245	0	0	0	0	0.402898	1.52479	0	0	0.144801	1.16541	0	0	0.08457	0.711811	0.401101	0.886621	0.458629	0.757578	0.372836	0.434254	0.250144	0.102264	0.24973	0.578378	0.341191	0.52043	0.209363	0.283389	-0.128926	-0.005424	0.375909	0.624752	0.469743	0.617272	
0.553256	5.41992	0	0	0	0	0.401041	1.53004	0	0	0.147599	1.17845	0	0	0.0935815	0.731966	0.413259	0.896163	0.472898	0.782766	0.376762	0.447894	0.266867	0.117693	0.257184	0.580963	0.35734	0.544997	0.220944	0.289222	-0.112852	0.0125813	0.383622	0.634857	0.475722	0.626387	
0.552796	5.41839	0	0	0	0	0.399184	1.53529	0	0	0.150398	1.19149	0	0	0.102593	0.752122	0.425418	0.905705	0.487167	0.807953	0.380688	0.461535	0.28359	0.133122	0.264638	0.583549	0.373489	0.569565	0.232525	0.295056	-0.0967775	0.0305865	0.391335	0.644961	0.481702	0.635502	
0.552688	5.42145	0	0	0	0	0.397326	1.54054	0	0	0.153197	1.20453	0	0	0.111604	0.772278	0.437576	0.915246	0.501437	0.83314	0.384613	0.475175	0.300314	0.14855	0.272092	0.586135	0.389637	0.594132	0.244105	0.300889	-0.0807033	0.0485918	0.399047	0.655066	0.487681	0.644617	
0.552837	5.41839	0	0	0	0	0.395469	1.54579	0	0	0.155995	1.21758	0	0	0.120616	0.792433	0.449734	0.924788	0.515706	0.858328	0.388539	0.488816	0.317037	0.163979	0.279546	0.58872	0.405786	0.618699	0.255686	0.306722	-0.064629	0.066597	0.40676	0.665171	0.49366	0.653732	
0.55315	5.41687	0	0	0	0	0.385433	1.54428	0	0	0.146352	1.22388	0	0	0.127379	0.807612	0.45294	0.937717	0.533556	0.873627	0.39371	0.498971	0.325268	0.178435	0.28701	0.591307	0.421974	0.643421	0.263725	0.312976	-0.052177	0.087088	0.418392	0.674919	0.511651	0.655023	
0.55359	5.42145	0	0	0	0	0.375398	1.54277	0	0	0.136709	1.23018	0	0	0.134141	0.822792	0.456147	0.950645	0.551405	0.888926	0.39888	0.509127	0.333498	0.192891	0.294474	0.593894	0.438161	0.668144	0.271765	0.319229	-0.039725	0.107579	0.430024	0.684667	0.529642	0.656313	
0.554186	5.4306	0	0	0	0	0.365363	1.54126	0	0	0.127067	1.23648	0	0	0.140903	0.837971	0.459353	0.963573	0.569255	0.904225	0.40405	0.519282	0.341728	0.207346	0.301939	0.59648	0.454349	0.692866	0.279804	0.325483	-0.027273	0.12807	0.441655	0.694416	0.547633	0.657604	
0.554973	5.42908	0	0	0	0	0.355327	1.53975	0	0	0.117424	1.24278	0	0	0.147666	0.85315	0.462559	0.976502	0.587105	0.919524	0.409221	0.529438	0.349959	0.221802	0.309403	0.599067	0.470537	0.717588	0.287843	0.331737	-0.014821	0.148561	0.453287	0.704164	0.565624	0.658895	
0.555982	5.44128	0	0	0	0	0.352714	1.51731	0	0	0.114636	1.22973	0	0	0.151427	0.853964	0.460251	0.983025	0.593905	0.926668	0.409934	0.539818	0.355451	0.231468	0.310271	0.608464	0.483879	0.736452	0.29144	0.340913	-0.00058	0.164163	0.456109	0.717536	0.570125	0.672297	
0.557235	5.44128	0	0	0	0	0.350101	1.49487	0	0	0.111849	1.21668	0	0	0.155189	0.854778	0.457943	0.989549	0.600706	0.933812	0.410648	0.550199	0.360943	0.241134	0.31114	0.617862	0.497221	0.755315	0.295037	0.350089	0.013661	0.179765	0.458931	0.730908	0.574626	0.6857	
0.558698	5.44739	0	0	0	0	0.347487	1.47243	0	0	0.109061	1.20363	0	0	0.15895	0.855592	0.455634	0.996073	0.607507	0.940957	0.411362	0.560579	0.366435	0.2508	0.312009	0.627259	0.510563	0.774178	0.298634	0.359265	0.027902	0.195367	0.461753	0.744281	0.579127	0.699102	
0.560324	5.44891	0	0	0	0	0.344874	1.44999	0	0	0.106273	1.19058	0	0	0.162711	0.856406	0.453326	1.0026	0.614307	0.948101	0.412075	0.570959	0.371927	0.260466	0.312877	0.636656	0.523905	0.793042	0.302231	0.368441	0.042143	0.210969	0.464575	0.757653	0.583628	0.712504	
0.562065	5.45196	0	0	0	0	0.342244	1.42765	0	0	0.102766	1.16915	0	0	0.15895	0.855592	0.449418	1.00264	0.616086	0.943074	0.418497	0.577626	0.374675	0.265307	0.313743	0.64607	0.532563	0.811114	0.31206	0.369714	0.0527315	0.229048	0.472315	0.767845	0.592644	0.726276	
0.563874	5.45349	0	0	0	0	0.339614	1.4053	0	0	0.099258	1.14771	0	0	0.155189	0.854778	0.445511	1.00269	0.617865	0.938047	0.42492	0.584293	0.377422	0.270149	0.314608	0.655484	0.54122	0.829187	0.321888	0.370986	0.06332	0.247127	0.480055	0.778038	0.601661	0.740048	
0.565703	5.46112	0	0	0	0	0.336983	1.38296	0	0	0.0957505	1.12628	0	0	0.151427	0.853964	0.441603	1.00273	0.619643	0.93302	0.431342	0.59096	0.380169	0.274991	0.315473	0.664898	0.549878	0.84726	0.331716	0.372259	0.0739085	0.265206	0.487795	0.788231	0.610677	0.75382	
0.567509	5.46112	0	0	0	0	0.334353	1.36062	0	0	0.092243	1.10485	0	0	0.147666	0.85315	0.437695	1.00278	0.621422	0.927993	0.437764	0.597627	0.382917	0.279832	0.316339	0.674312	0.558536	0.865332	0.341545	0.373532	0.084497	0.283285	0.495535	0.798423	0.619693	0.767592	
0.569244	5.46265	0	0	0	0	0.336708	1.33909	0	0	0.0969633	1.08107	0	0	0.146915	0.843834	0.435649	0.986584	0.624977	0.917947	0.439726	0.604504	0.382917	0.279832	0.319502	0.67724	0.564312	0.877424	0.338911	0.390669	0.091405	0.303861	0.502279	0.811487	0.627206	0.785695	
0.570864	5.46875	0	0	0	0	0.339063	1.31756	0	0	0.101684	1.05729	0	0	0.146164	0.834519	0.433603	0.97039	0.628531	0.907901	0.441688	0.611382	0.382917	0.279832	0.322665	0.680168	0.570087	0.889515	0.336278	0.407805	0.098313	0.324437	0.509023	0.82455	0.63472	0.803798	
0.572319	5.47943	0	0	0	0	0.341418	1.29604	0	0	0.106404	1.03351	0	0	0.145413	0.825203	0.431556	0.954197	0.632085	0.897856	0.443649	0.618259	0.382917	0.279832	0.325828	0.683097	0.575862	0.901606	0.333644	0.424942	0.105221	0.345012	0.515766	0.837614	0.642233	0.8219	
0.573536	5.49011	0	0	0	0	0.343773	1.27451	0	0	0.111124	1.00974	0	0	0.144662	0.815888	0.42951	0.938003	0.63564	0.88781	0.445611	0.625136	0.382917	0.279832	0.328991	0.686025	0.581638	0.913698	0.33101	0.442079	0.112129	0.365588	0.52251	0.850678	0.649746	0.840003	
0.574434	5.50384	0	0	0	0	0.352454	1.26485	0	0	0.115197	0.998224	0	0	0.147667	0.807395	0.437558	0.915258	0.641713	0.883841	0.442398	0.621795	0.390251	0.271721	0.33129	0.679528	0.586356	0.914587	0.335497	0.4488	0.115202	0.381003	0.518482	0.862062	0.65425	0.853545	
0.574932	5.52368	0	0	0	0	0.361135	1.25518	0	0	0.11927	0.986713	0	0	0.150672	0.798902	0.445605	0.892513	0.647787	0.879873	0.439185	0.618454	0.397584	0.26361	0.333589	0.67303	0.591074	0.915477	0.339984	0.45552	0.118275	0.396419	0.514454	0.873446	0.658754	0.867086	
0.57495	5.54657	0	0	0	0	0.369816	1.24552	0	0	0.123343	0.975202	0	0	0.153678	0.790409	0.453653	0.869768	0.65386	0.875905	0.435972	0.615113	0.404917	0.255499	0.335888	0.666533	0.595793	0.916366	0.344471	0.46224	0.121348	0.411834	0.510426	0.88483	0.663258	0.880628	
0.574506	5.56488	0	0	0	0	0.378497	1.23586	0	0	0.127416	0.963691	0	0	0.156683	0.781916	0.461701	0.847023	0.659933	0.871936	0.432759	0.611772	0.412251	0.247388	0.338187	0.660036	0.600511	0.917255	0.348958	0.468961	0.124421	0.427249	0.506398	0.896214	0.667762	0.894169	
0.573769	5.58624	0	0	0	0	0.379833	1.24696	0	0	0.127416	0.963691	0	0	0.164949	0.769991	0.4702	0.833989	0.672092	0.863991	0.436511	0.601168	0.421114	0.234963	0.341632	0.650299	0.608891	0.907808	0.340029	0.474796	0.129146	0.429979	0.507405	0.893366	0.654151	0.906364	
0.572927	5.61218	0	0	0	0	0.38117	1.25807	0	0	0.127416	0.963691	0	0	0.173216	0.758066	0.478699	0.820955	0.684252	0.856046	0.440264	0.590564	0.429977	0.222538	0.345078	0.640562	0.61727	0.89836	0.331099	0.480631	0.133872	0.432709	0.508413	0.890519	0.640541	0.918559	
0.572164	5.63354	0	0	0	0	0.382506	1.26917	0	0	0.127416	0.963691	0	0	0.181482	0.746142	0.487198	0.807922	0.696411	0.8481	0.444016	0.579959	0.43884	0.210113	0.348523	0.630825	0.625649	0.888912	0.322169	0.486465	0.138597	0.435439	0.509421	0.887672	0.62693	0.930754	
0.571641	5.65338	0	0	0	0	0.383843	1.28028	0	0	0.127416	0.963691	0	0	0.189749	0.734217	0.495697	0.794888	0.708571	0.840155	0.447768	0.569355	0.447703	0.197688	0.351968	0.621088	0.634029	0.879465	0.31324	0.4923	0.143322	0.438169	0.510428	0.884824	0.61332	0.942949	
0.571262	5.66559	0	0	0	0	0.385176	1.29141	0	0	0.128773	0.959857	0	0	0.196516	0.726536	0.501903	0.788342	0.717193	0.842244	0.458481	0.5515	0.452277	0.184761	0.362021	0.60455	0.641331	0.858828	0.313221	0.48266	0.147783	0.425561	0.505602	0.877043	0.616387	0.921158	
0.5708	5.6839	0	0	0	0	0.386508	1.30254	0	0	0.130129	0.956023	0	0	0.203284	0.718854	0.508108	0.781795	0.725815	0.844333	0.469194	0.533645	0.456851	0.171834	0.372075	0.588013	0.648633	0.838191	0.313202	0.47302	0.152245	0.412952	0.500775	0.869263	0.619455	0.899368	
0.570024	5.70373	0	0	0	0	0.38784	1.31367	0	0	0.131485	0.95219	0	0	0.210051	0.711173	0.514314	0.775249	0.734438	0.846422	0.479907	0.51579	0.461425	0.158906	0.382128	0.571475	0.655936	0.817555	0.313183	0.463379	0.156706	0.400343	0.495949	0.861482	0.622522	0.877578	
0.568707	5.71136	0	0	0	0	0.389173	1.32479	0	0	0.132842	0.948356	0	0	0.216818	0.703492	0.52052	0.768702	0.74306	0.848511	0.49062	0.497935	0.465999	0.145979	0.392182	0.554937	0.663238	0.796918	0.313164	0.453739	0.161167	0.387735	0.491122	0.853701	0.62559	0.855787	
0.566756	5.71747	0	0	0	0	0.38416	1.32407	0	0	0.136908	0.936865	0	0	0.214549	0.698461	0.521667	0.765462	0.750933	0.839504	0.494362	0.48736	0.469045	0.137371	0.390153	0.548796	0.670523	0.776329	0.317601	0.441202	0.15911	0.377466	0.494232	0.83421	0.628636	0.834067	
0.564403	5.72967	0	0	0	0	0.379146	1.32334	0	0	0.140974	0.925374	0	0	0.21228	0.693429	0.522813	0.762222	0.758806	0.830497	0.498104	0.476785	0.472091	0.128764	0.388124	0.542655	0.677809	0.75574	0.322037	0.428664	0.157052	0.367196	0.497343	0.814718	0.631681	0.812348	
0.561926	5.73578	0	0	0	0	0.374133	1.32262	0	0	0.14504	0.913882	0	0	0.21001	0.688397	0.523959	0.758982	0.766678	0.821491	0.501845	0.46621	0.475137	0.120156	0.386096	0.536513	0.685094	0.73515	0.326473	0.416126	0.154995	0.356926	0.500453	0.795226	0.634726	0.790628	
0.559602	5.73578	0	0	0	0	0.36912	1.32189	0	0	0.149106	0.902391	0	0	0.207741	0.683366	0.525106	0.755742	0.774551	0.812484	0.505587	0.455635	0.478183	0.111548	0.384067	0.530372	0.692379	0.714561	0.33091	0.403589	0.152938	0.346657	0.503563	0.775735	0.637772	0.768909	
0.557683	5.73273	0	0	0	0	0.371464	1.30038	0	0	0.148973	0.881908	0	0	0.211454	0.661435	0.524628	0.7461	0.767693	0.805391	0.506097	0.441773	0.478456	0.0981535	0.389786	0.514208	0.683636	0.696599	0.327309	0.394392	0.152509	0.323768	0.506656	0.756299	0.636276	0.746941	
0.55617	5.7312	0	0	0	0	0.373808	1.27887	0	0	0.148841	0.861425	0	0	0.215168	0.639504	0.52415	0.736459	0.760834	0.798297	0.506606	0.427912	0.478729	0.084759	0.395505	0.498045	0.674894	0.678636	0.323709	0.385196	0.152081	0.300879	0.509748	0.736864	0.63478	0.724972	
0.554924	5.7312	0	0	0	0	0.376153	1.25737	0	0	0.148709	0.840943	0	0	0.218881	0.617572	0.523673	0.726817	0.753976	0.791203	0.507116	0.41405	0.479001	0.0713645	0.401225	0.481881	0.666151	0.660674	0.320109	0.375999	0.151652	0.27799	0.512841	0.717429	0.633284	0.703003	
0.553802	5.72357	0	0	0	0	0.378497	1.23586	0	0	0.148576	0.82046	0	0	0.222594	0.595641	0.523195	0.717175	0.747118	0.78411	0.507626	0.400188	0.479274	0.05797	0.406944	0.465717	0.657408	0.642711	0.316508	0.366803	0.151223	0.255101	0.515934	0.697993	0.631788	0.681035	
0.552662	5.72052	0	0	0	0	0.353995	1.21606	0	0	0.129882	0.800476	0	0	0.2135	0.575662	0.522229	0.697941	0.741268	0.761	0.506141	0.379568	0.478283	0.0355505	0.406293	0.443831	0.654088	0.60952	0.311108	0.353044	0.146047	0.229631	0.504346	0.67736	0.621252	0.65853	
0.551441	5.71442	0	0	0	0	0.329493	1.19626	0	0	0.111187	0.780492	0	0	0.204406	0.555683	0.521262	0.678708	0.735418	0.737891	0.504656	0.358948	0.477291	0.013131	0.405641	0.421945	0.650769	0.576329	0.305708	0.339286	0.140871	0.204161	0.492757	0.656727	0.610715	0.636024	
0.550212	5.71136	0	0	0	0	0.304992	1.17645	0	0	0.0924925	0.760508	0	0	0.195313	0.535705	0.520296	0.659474	0.729567	0.714781	0.50317	0.338328	0.4763	-0.0092885	0.40499	0.400058	0.64745	0.543137	0.300309	0.325528	0.135695	0.178692	0.481168	0.636094	0.600179	0.613519	
0.549063	5.69916	0	0	0	0	0.28049	1.15665	0	0	0.073798	0.740524	0	0	0.186219	0.515726	0.51933	0.640241	0.723717	0.691672	0.501685	0.317708	0.475309	-0.031708	0.404339	0.378172	0.64413	0.509946	0.294909	0.311769	0.130519	0.153222	0.46958	0.615461	0.589643	0.591014	
0.548082	5.69153	0	0	0	0	0.262013	1.10552	0	0	0.0700368	0.699315	0	0	0.176342	0.486698	0.511676	0.618022	0.715316	0.662689	0.50142	0.293673	0.468508	-0.0502537	0.403668	0.356371	0.637852	0.471076	0.291271	0.293077	0.119731	0.127718	0.459001	0.592128	0.580609	0.564408	
0.547338	5.68695	0	0	0	0	0.243536	1.05439	0	0	0.0662755	0.658106	0	0	0.166465	0.457669	0.504022	0.595802	0.706915	0.633706	0.501154	0.269637	0.461707	-0.0687995	0.402998	0.33457	0.631574	0.432206	0.287632	0.274385	0.108942	0.102214	0.448422	0.568795	0.571576	0.537802	
0.546803	5.67932	0	0	0	0	0.225058	1.00325	0	0	0.0625142	0.616898	0	0	0.156589	0.428641	0.496368	0.573582	0.698513	0.604723	0.500889	0.245602	0.454905	-0.0873452	0.402327	0.312769	0.625296	0.393335	0.283994	0.255692	0.0981542	0.0767107	0.437842	0.545461	0.562542	0.511197	
0.546418	5.67016	0	0	0	0	0.206581	0.95212	0	0	0.058753	0.575689	0	0	0.146712	0.399612	0.488714	0.551363	0.690112	0.57574	0.500624	0.221567	0.448104	-0.105891	0.401656	0.290968	0.619018	0.354465	0.280356	0.237	0.087366	0.051207	0.427263	0.522128	0.553508	0.484591	
0.546123	5.66406	0	0	0	0	0.203383	0.887684	0	0	0.0515072	0.53415	0	0	0.136831	0.370769	0.474403	0.526225	0.671375	0.549882	0.494644	0.201351	0.435528	-0.120587	0.400966	0.269251	0.612049	0.331812	0.275831	0.220858	0.0821667	0.0260088	0.415705	0.501714	0.538499	0.462043	
0.54586	5.65796	0	0	0	0	0.200185	0.823248	0	0	0.0442615	0.492611	0	0	0.126951	0.341925	0.460092	0.501087	0.652638	0.524024	0.488665	0.181134	0.422952	-0.135282	0.400276	0.247534	0.605081	0.309159	0.271307	0.204717	0.0769675	0.0008105	0.404146	0.481299	0.52349	0.439495	
0.545606	5.65185	0	0	0	0	0.196987	0.758812	0	0	0.0370158	0.451073	0	0	0.11707	0.313082	0.445781	0.475949	0.633902	0.498166	0.482685	0.160918	0.410375	-0.149978	0.399586	0.225818	0.598113	0.286505	0.266782	0.188576	0.0717683	-0.0243877	0.392588	0.460885	0.508482	0.416947	
0.545367	5.64422	0	0	0	0	0.193789	0.694376	0	0	0.02977	0.409534	0	0	0.107189	0.284238	0.43147	0.450811	0.615165	0.472308	0.476706	0.140702	0.397799	-0.164674	0.398896	0.204101	0.591144	0.263852	0.262257	0.172434	0.066569	-0.049586	0.38103	0.440471	0.493473	0.394399	
0.545153	5.6366	0	0	0	0	0.186878	0.640724	0	0	0.0266733	0.377056	0	0	0.104781	0.257064	0.428325	0.416104	0.611045	0.444671	0.472717	0.127273	0.392272	-0.174121	0.389366	0.195589	0.580612	0.251366	0.254225	0.166249	0.0625685	-0.0621743	0.371402	0.425327	0.483002	0.38512	
0.544971	5.63202	0	0	0	0	0.179966	0.587071	0	0	0.0235765	0.344578	0	0	0.102374	0.22989	0.42518	0.381398	0.606925	0.417034	0.468728	0.113844	0.386745	-0.183569	0.379837	0.187077	0.57008	0.23888	0.246194	0.160063	0.058568	-0.0747625	0.361773	0.410183	0.472531	0.375841	
0.544815	5.62744	0	0	0	0	0.173054	0.533419	0	0	0.0204797	0.3121	0	0	0.0999665	0.202716	0.422035	0.346692	0.602805	0.389396	0.464739	0.100416	0.381218	-0.193017	0.370308	0.178565	0.559548	0.226395	0.238162	0.153878	0.0545675	-0.0873508	0.352145	0.395039	0.462061	0.366562	
0.544644	5.61981	0	0	0	0	0.166143	0.479766	0	0	0.017383	0.279622	0	0	0.097559	0.175542	0.41889	0.311985	0.598685	0.361759	0.46075	0.086987	0.375691	-0.202464	0.360778	0.170053	0.549016	0.213909	0.23013	0.147693	0.050567	-0.099939	0.342517	0.379895	0.45159	0.357283	
0.544413	5.61371	0	0	0	0	0.166893	0.448453	0	0	0.0226585	0.264713	0	0	0.103422	0.158973	0.420105	0.286793	0.599624	0.346031	0.455533	0.0770617	0.372929	-0.20718	0.359862	0.160844	0.54788	0.203057	0.223907	0.14605	0.04499	-0.10009	0.337708	0.372344	0.450078	0.348617	
0.544074	5.61218	0	0	0	0	0.167642	0.417141	0	0	0.027934	0.249804	0	0	0.109285	0.142404	0.42132	0.2616	0.600562	0.330303	0.450315	0.0671365	0.370167	-0.211895	0.358945	0.151635	0.546744	0.192205	0.217683	0.144407	0.039413	-0.100241	0.332899	0.364794	0.448566	0.339951	
0.543596	5.61066	0	0	0	0	0.168392	0.385828	0	0	0.0332095	0.234894	0	0	0.115147	0.125835	0.422535	0.236408	0.601501	0.314575	0.445098	0.0572112	0.367404	-0.21661	0.358028	0.142425	0.545608	0.181353	0.211459	0.142764	0.033836	-0.100393	0.32809	0.357243	0.447054	0.331284	
0.543042	5.60913	0	0	0	0	0.169142	0.354515	0	0	0.038485	0.219985	0	0	0.12101	0.109266	0.42375	0.211215	0.60244	0.298847	0.439881	0.047286	0.364642	-0.221326	0.357112	0.133216	0.544472	0.170501	0.205236	0.141121	0.028259	-0.100544	0.323281	0.349693	0.445542	0.322618	
0.542515	5.6076	0	0	0	0	0.170911	0.349516	0	0	0.0445425	0.213165	0	0	0.129968	0.106595	0.430997	0.201611	0.618768	0.291953	0.448008	0.0366493	0.370405	-0.225091	0.365924	0.120111	0.549167	0.171296	0.197269	0.144424	0.028259	-0.100544	0.307785	0.351276	0.435124	0.32621	
0.542119	5.6076	0	0	0	0	0.172679	0.344517	0	0	0.0506	0.206344	0	0	0.138926	0.103925	0.438244	0.192006	0.635097	0.28506	0.456134	0.0260125	0.376168	-0.228857	0.374737	0.107006	0.553861	0.172091	0.189302	0.147728	0.028259	-0.100544	0.292289	0.352859	0.424706	0.329802	
0.541952	5.6076	0	0	0	0	0.174448	0.339518	0	0	0.0566575	0.199524	0	0	0.147883	0.101254	0.445491	0.182401	0.651425	0.278166	0.464261	0.0153758	0.381931	-0.232622	0.383549	0.0939003	0.558555	0.172886	0.181336	0.151031	0.028259	-0.100544	0.276793	0.354443	0.414288	0.333395	
0.541995	5.60608	0	0	0	0	0.176217	0.334519	0	0	0.062715	0.192703	0	0	0.156841	0.098583	0.452738	0.172797	0.667754	0.271272	0.472388	0.004739	0.387694	-0.236388	0.392361	0.080795	0.56325	0.173681	0.173369	0.154334	0.028259	-0.100544	0.261297	0.356026	0.40387	0.336987	
0.542106	5.60455	0	0	0	0	0.165968	0.348904	0	0	0.062715	0.192703	0	0	0.168101	0.100781	0.463289	0.175645	0.677156	0.284037	0.476841	0.00449175	0.397732	-0.239687	0.395541	0.083614	0.572651	0.17527	0.172451	0.147331	0.0263453	-0.103087	0.257488	0.345722	0.390489	0.336094	
0.542141	5.60303	0	0	0	0	0.15572	0.36329	0	0	0.062715	0.192703	0	0	0.17936	0.10298	0.47384	0.178492	0.686557	0.296803	0.481295	0.0042445	0.407769	-0.242987	0.398722	0.086433	0.582051	0.17686	0.171533	0.140327	0.0244315	-0.10563	0.253679	0.335418	0.377108	0.335201	
0.541951	5.60455	0	0	0	0	0.145471	0.377675	0	0	0.062715	0.192703	0	0	0.190619	0.105179	0.484392	0.18134	0.695959	0.309569	0.485749	0.00399725	0.417806	-0.246286	0.401902	0.089252	0.591452	0.178449	0.170614	0.133324	0.0225177	-0.108173	0.249869	0.325113	0.363727	0.334309	
0.541476	5.59845	0	0	0	0	0.135222	0.39206	0	0	0.062715	0.192703	0	0	0.201879	0.107377	0.494943	0.184188	0.705361	0.322334	0.490202	0.00375	0.427844	-0.249586	0.405082	0.092071	0.600852	0.180038	0.169696	0.126321	0.020604	-0.110716	0.24606	0.314809	0.350346	0.333416	
0.540869	5.59845	0	0	0	0	0.128517	0.396441	0	0	0.061924	0.184639	0	0	0.204169	0.112258	0.499367	0.193494	0.718271	0.325269	0.493433	0.00696775	0.437897	-0.252893	0.408264	0.0948925	0.605558	0.180832	0.16611	0.117275	0.0193925	-0.123184	0.242251	0.304528	0.342891	0.315855	
0.540319	5.59387	0	0	0	0	0.121812	0.400822	0	0	0.061133	0.176575	0	0	0.206459	0.11714	0.503791	0.2028	0.73118	0.328204	0.496663	0.0101855	0.447949	-0.256201	0.411446	0.097714	0.610264	0.181626	0.162523	0.10823	0.018181	-0.135653	0.238442	0.294247	0.335437	0.298294	
0.540014	5.59387	0	0	0	0	0.115106	0.405204	0	0	0.060342	0.168512	0	0	0.208749	0.122021	0.508216	0.212107	0.744089	0.331139	0.499893	0.0134033	0.458002	-0.259508	0.414629	0.100535	0.614971	0.18242	0.158936	0.0991845	0.0169695	-0.148121	0.234632	0.283967	0.327982	0.280733	
0.540115	5.58472	0	0	0	0	0.108401	0.409585	0	0	0.059551	0.160448	0	0	0.211039	0.126903	0.51264	0.221413	0.756999	0.334074	0.503124	0.016621	0.468054	-0.262816	0.417811	0.103357	0.619677	0.183214	0.15535	0.090139	0.015758	-0.160589	0.230823	0.273686	0.320527	0.263172	
0.540609	5.58014	0	0	0	0	0.0950065	0.418337	0	0	0.0519175	0.151159	0	0	0.217736	0.119337	0.520969	0.230636	0.762124	0.345915	0.516513	0.0158732	0.469555	-0.267058	0.42531	0.105814	0.617895	0.18825	0.160583	0.075349	0.0134963	-0.178009	0.232827	0.257509	0.314543	0.241535	
0.541407	5.57556	0	0	0	0	0.081612	0.42709	0	0	0.044284	0.14187	0	0	0.224433	0.111772	0.529299	0.239858	0.76725	0.357756	0.529901	0.0151255	0.471056	-0.271299	0.432809	0.108271	0.616113	0.193285	0.165816	0.060559	0.0112345	-0.19543	0.234831	0.241331	0.308559	0.219898	
0.542423	5.57403	0	0	0	0	0.0682175	0.435842	0	0	0.0366505	0.132581	0	0	0.231129	0.104207	0.537628	0.249081	0.772375	0.369596	0.543289	0.0143777	0.472556	-0.27554	0.440309	0.110729	0.614332	0.198321	0.17105	0.045769	0.00897275	-0.21285	0.236835	0.225154	0.302575	0.198262	
0.54357	5.56946	0	0	0	0	0.054823	0.444594	0	0	0.029017	0.123292	0	0	0.237826	0.096641	0.545957	0.258304	0.777501	0.381437	0.556678	0.01363	0.474057	-0.279782	0.447808	0.113186	0.61255	0.203357	0.176283	0.030979	0.006711	-0.23027	0.238839	0.208977	0.296591	0.176625	
0.544737	5.56183	0	0	0	0	0.0499035	0.443963	0	0	0.025321	0.102926	0	0	0.225083	0.0985923	0.55317	0.27074	0.777501	0.381437	0.557459	0.023801	0.471278	-0.284483	0.454187	0.11884	0.614332	0.198321	0.175356	0.024015	0.00443925	-0.247632	0.233072	0.204263	0.29211	0.163634	
0.545791	5.55725	0	0	0	0	0.044984	0.443333	0	0	0.021625	0.082559	0	0	0.212341	0.100544	0.560383	0.283176	0.777501	0.381437	0.558241	0.033972	0.468499	-0.289184	0.460565	0.124495	0.616113	0.193285	0.174429	0.017051	0.0021675	-0.264995	0.227306	0.19955	0.287629	0.150643	
0.546598	5.5542	0	0	0	0	0.0400645	0.442702	0	0	0.017929	0.0621925	0	0	0.199599	0.102495	0.567595	0.295612	0.777501	0.381437	0.559022	0.044143	0.46572	-0.293886	0.466944	0.130149	0.617895	0.18825	0.173502	0.010087	-0.00010425	-0.282357	0.22154	0.194836	0.283147	0.137653	
0.547025	5.54809	0	0	0	0	0.035145	0.442071	0	0	0.014233	0.041826	0	0	0.186856	0.104446	0.574808	0.308048	0.777501	0.381437	0.559804	0.054314	0.462941	-0.298587	0.473323	0.135803	0.619677	0.183214	0.172575	0.003123	-0.002376	-0.299719	0.215773	0.190123	0.278666	0.124662	
0.547044	5.54352	0	0	0	0	0.0217818	0.450803	0	0	-0.00150875	0.0350753	0	0	0.183103	0.103713	0.575848	0.32702	0.781815	0.382421	0.560582	0.0645045	0.458665	-0.299049	0.467663	0.151799	0.614971	0.18242	0.169037	0.00354375	-0.008115	-0.307252	0.217723	0.184612	0.272724	0.115836	
0.546938	5.54199	0	0	0	0	0.0084185	0.459534	0	0	-0.0172505	0.0283245	0	0	0.179349	0.102981	0.576889	0.345992	0.78613	0.383404	0.56136	0.074695	0.454389	-0.299511	0.462003	0.167795	0.610264	0.181626	0.165499	0.0039645	-0.013854	-0.314785	0.219673	0.179101	0.266781	0.10701	
0.54704	5.53894	0	0	0	0	-0.00494475	0.468266	0	0	-0.0329922	0.0215737	0	0	0.175596	0.102248	0.577929	0.364963	0.790444	0.384387	0.562137	0.0848855	0.450113	-0.299974	0.456343	0.183791	0.605558	0.180832	0.161961	0.00438525	-0.019593	-0.322319	0.221623	0.17359	0.260839	0.0981847	
0.547686	5.53436	0	0	0	0	-0.018308	0.476998	0	0	-0.048734	0.014823	0	0	0.171843	0.101515	0.57897	0.383935	0.794759	0.385371	0.562915	0.095076	0.445837	-0.300436	0.450683	0.199787	0.600852	0.180038	0.158423	0.004806	-0.025332	-0.329852	0.223573	0.168079	0.254896	0.089359	
0.549163	5.52826	0	0	0	0	-0.0316503	0.485716	0	0	-0.0589395	0.012989	0	0	0.170377	0.105658	0.581641	0.409303	0.793008	0.39032	0.562455	0.108773	0.447335	-0.304669	0.455926	0.208681	0.59437	0.184274	0.16022	0.009307	-0.0317475	-0.327539	0.226457	0.170432	0.254896	0.089359	
0.551295	5.52978	0	0	0	0	-0.0449925	0.494434	0	0	-0.069145	0.011155	0	0	0.168911	0.109801	0.584313	0.434671	0.791257	0.395269	0.561994	0.122471	0.448833	-0.308903	0.46117	0.217575	0.587888	0.188509	0.162016	0.013808	-0.038163	-0.325226	0.229341	0.172784	0.254896	0.089359	
0.553653	5.53131	0	0	0	0	-0.0583348	0.503153	0	0	-0.0793505	0.009321	0	0	0.167445	0.113944	0.586985	0.460038	0.789505	0.400218	0.561534	0.136168	0.450331	-0.313136	0.466413	0.226468	0.581406	0.192744	0.163812	0.018309	-0.0445785	-0.322912	0.232224	0.175137	0.254896	0.089359	
0.555807	5.52063	0	0	0	0	-0.071677	0.511871	0	0	-0.089556	0.007487	0	0	0.165979	0.118087	0.589656	0.485406	0.787754	0.405167	0.561074	0.149866	0.451829	-0.31737	0.471656	0.235362	0.574924	0.19698	0.165609	0.02281	-0.050994	-0.320599	0.235108	0.177489	0.254896	0.089359	
0.557328	5.51605	0	0	0	0	-0.0916515	0.524923	0	0	-0.10626	0.024069	0	0	0.158639	0.138832	0.592305	0.510896	0.78074	0.424991	0.566318	0.159862	0.448832	-0.308901	0.475766	0.24749	0.571361	0.207048	0.162171	0.0421095	-0.0560122	-0.29851	0.232132	0.196407	0.253477	0.106176	
0.558008	5.51605	0	0	0	0	-0.111626	0.537975	0	0	-0.122964	0.040651	0	0	0.151299	0.159577	0.594953	0.536386	0.773725	0.444815	0.571562	0.169858	0.445835	-0.300432	0.479876	0.259617	0.567799	0.217116	0.158733	0.061409	-0.0610305	-0.27642	0.229156	0.215325	0.252057	0.122992	
0.558039	5.5191	0	0	0	0	-0.131601	0.551026	0	0	-0.139668	0.057233	0	0	0.143958	0.180321	0.597601	0.561876	0.766711	0.464638	0.576807	0.179854	0.442839	-0.291963	0.483985	0.271744	0.564237	0.227185	0.155296	0.0807085	-0.0660488	-0.254331	0.226181	0.234243	0.250638	0.139809	
0.557659	5.51147	0	0	0	0	-0.151575	0.564078	0	0	-0.156372	0.073815	0	0	0.136618	0.201066	0.60025	0.587366	0.759697	0.484462	0.582051	0.18985	0.439842	-0.283494	0.488095	0.283872	0.560674	0.237253	0.151858	0.100008	-0.071067	-0.232241	0.223205	0.253161	0.249219	0.156626	
0.557103	5.50995	0	0	0	0	-0.153345	0.56908	0	0	-0.159514	0.0928975	0	0	0.135279	0.227536	0.589962	0.61644	0.763049	0.50137	0.581578	0.203608	0.443891	-0.269836	0.481262	0.303181	0.556444	0.263291	0.153732	0.123491	-0.0693617	-0.197473	0.223094	0.27451	0.253718	0.18238	
0.556588	5.50842	0	0	0	0	-0.155115	0.574081	0	0	-0.162656	0.11198	0	0	0.133941	0.254005	0.579675	0.645514	0.766401	0.518277	0.581105	0.217366	0.447941	-0.256177	0.47443	0.322491	0.552215	0.289328	0.155607	0.146973	-0.0676565	-0.162705	0.222982	0.295859	0.258217	0.208134	
0.556201	5.50995	0	0	0	0	-0.156885	0.579083	0	0	-0.165798	0.131062	0	0	0.132602	0.280474	0.569388	0.674588	0.769754	0.535185	0.580632	0.231125	0.45199	-0.242519	0.467597	0.341801	0.547985	0.315366	0.157481	0.170455	-0.0659513	-0.127936	0.22287	0.317207	0.262717	0.233888	
0.555969	5.5069	0	0	0	0	-0.158655	0.584085	0	0	-0.16894	0.150145	0	0	0.131264	0.306944	0.5591	0.703662	0.773106	0.552092	0.580159	0.244883	0.456039	-0.22886	0.460765	0.36111	0.543755	0.341404	0.159356	0.193938	-0.064246	-0.093168	0.222759	0.338556	0.267216	0.259642	
0.555922	5.50537	0	0	0	0	-0.153773	0.584742	0	0	-0.153817	0.16874	0	0	0.128413	0.337716	0.550601	0.716682	0.780771	0.570072	0.575198	0.258903	0.452793	-0.207122	0.461671	0.370433	0.542395	0.373448	0.16033	0.220009	-0.061413	-0.0456112	0.224526	0.36516	0.268742	0.293879	
0.556085	5.50079	0	0	0	0	-0.14889	0.585399	0	0	-0.138693	0.187335	0	0	0.125562	0.368487	0.542103	0.729702	0.788437	0.588051	0.570237	0.272923	0.449547	-0.185385	0.462577	0.379756	0.541034	0.405492	0.161305	0.24608	-0.05858	0.0019455	0.226292	0.391764	0.270267	0.328116	
0.556391	5.50842	0	0	0	0	-0.144008	0.586057	0	0	-0.12357	0.20593	0	0	0.122711	0.399259	0.533605	0.742722	0.796103	0.60603	0.565277	0.286942	0.4463	-0.163647	0.463482	0.389078	0.539674	0.437536	0.16228	0.272151	-0.055747	0.0495022	0.228058	0.418367	0.271793	0.362352	
0.556633	5.50232	0	0	0	0	-0.139126	0.586714	0	0	-0.108447	0.224525	0	0	0.11986	0.43003	0.525106	0.755742	0.803768	0.62401	0.560316	0.300962	0.443054	-0.141909	0.464388	0.398401	0.538313	0.46958	0.163254	0.298222	-0.052914	0.097059	0.229825	0.444971	0.273319	0.396589	
0.556597	5.50232	0	0	0	0	-0.141337	0.607428	0	0	-0.108016	0.264311	0	0	0.123691	0.453326	0.515663	0.749472	0.805338	0.64605	0.548886	0.30843	0.438275	-0.115829	0.45117	0.412	0.536907	0.501796	0.161535	0.32232	-0.0538383	0.147429	0.224815	0.469673	0.273312	0.435238	
0.55607	5.50079	0	0	0	0	-0.143547	0.628143	0	0	-0.107586	0.304097	0	0	0.127522	0.476622	0.506221	0.743202	0.806907	0.66809	0.537456	0.315899	0.433495	-0.089749	0.437952	0.4256	0.535501	0.534011	0.159817	0.346418	-0.0547625	0.197799	0.219805	0.494376	0.273305	0.473887	
0.55489	5.49927	0	0	0	0	-0.145757	0.648857	0	0	-0.107155	0.343883	0	0	0.131354	0.499917	0.496779	0.736931	0.808477	0.690129	0.526026	0.323368	0.428715	-0.063669	0.424733	0.4392	0.534095	0.566227	0.158098	0.370517	-0.0556868	0.248169	0.214795	0.519078	0.273298	0.512536	
0.553178	5.49469	0	0	0	0	-0.147968	0.669571	0	0	-0.106724	0.383669	0	0	0.135185	0.523213	0.487336	0.730661	0.810046	0.712169	0.514596	0.330836	0.423936	-0.037589	0.411515	0.452799	0.532689	0.598443	0.156379	0.394615	-0.056611	0.298539	0.209785	0.54378	0.273291	0.551185	
0.551139	5.49316	0	0	0	0	-0.136856	0.681634	0	0	-0.0934765	0.418203	0	0	0.140492	0.542399	0.484096	0.717879	0.817705	0.730307	0.513848	0.320547	0.427951	-0.0237677	0.405161	0.447029	0.53486	0.620591	0.148425	0.417094	-0.0540855	0.339282	0.201873	0.566142	0.273251	0.577095	
0.548983	5.49011	0	0	0	0	-0.125744	0.693698	0	0	-0.080229	0.452737	0	0	0.1458	0.561585	0.480856	0.705097	0.825364	0.748446	0.513099	0.310258	0.431967	-0.0099465	0.398807	0.44126	0.537032	0.642739	0.140471	0.439574	-0.05156	0.380026	0.19396	0.588503	0.273211	0.603006	
0.546911	5.48706	0	0	0	0	-0.114633	0.705761	0	0	-0.0669815	0.487271	0	0	0.151108	0.580771	0.477616	0.692316	0.833023	0.766585	0.512351	0.299968	0.435982	0.00387475	0.392453	0.43549	0.539204	0.664887	0.132517	0.462054	-0.0490345	0.420769	0.186048	0.610864	0.273171	0.628916	
0.545033	5.48706	0	0	0	0	-0.103521	0.717824	0	0	-0.053734	0.521805	0	0	0.156415	0.599957	0.474376	0.679534	0.840682	0.784723	0.511602	0.289679	0.439998	0.017696	0.386099	0.42972	0.541375	0.687035	0.124563	0.484533	-0.046509	0.461512	0.178136	0.633226	0.273131	0.654826	
0.543371	5.48096	0	0	0	0	-0.100863	0.739348	0	0	-0.0507408	0.554598	0	0	0.166978	0.615784	0.481218	0.660197	0.852685	0.803979	0.508857	0.272651	0.439728	0.031057	0.387482	0.413961	0.547161	0.69901	0.110398	0.495712	-0.0479487	0.489567	0.164576	0.639935	0.259724	0.679814	
0.541947	5.4779	0	0	0	0	-0.098206	0.760873	0	0	-0.0477475	0.587391	0	0	0.17754	0.631611	0.488061	0.640859	0.864688	0.823236	0.506113	0.255623	0.439458	0.044418	0.388864	0.398202	0.552948	0.710986	0.0962325	0.506891	-0.0493885	0.517622	0.151016	0.646644	0.246316	0.704802	
0.540779	5.4779	0	0	0	0	-0.0955485	0.782397	0	0	-0.0447542	0.620184	0	0	0.188103	0.647438	0.494903	0.621522	0.876691	0.842492	0.503368	0.238595	0.439188	0.057779	0.390246	0.382443	0.558734	0.722961	0.0820673	0.518069	-0.0508283	0.545678	0.137456	0.653353	0.232909	0.72979	
0.539887	5.47485	0	0	0	0	-0.092891	0.803921	0	0	-0.041761	0.652977	0	0	0.198666	0.663265	0.501745	0.602185	0.888694	0.861749	0.500624	0.221567	0.438918	0.07114	0.391629	0.366684	0.56452	0.734937	0.067902	0.529248	-0.052268	0.573733	0.123896	0.660062	0.219502	0.754778	
0.539282	5.47333	0	0	0	0	-0.0964678	0.814029	0	0	-0.0416187	0.673236	0	0	0.205474	0.678359	0.501254	0.592613	0.898157	0.874988	0.505563	0.207608	0.445967	0.0764387	0.390728	0.357387	0.565597	0.746074	0.0634825	0.522527	-0.049369	0.581549	0.120144	0.64962	0.210626	0.754082	
0.538976	5.47027	0	0	0	0	-0.100045	0.824137	0	0	-0.0414765	0.693495	0	0	0.212281	0.693453	0.500764	0.58304	0.90762	0.888227	0.510503	0.193648	0.453016	0.0817375	0.389826	0.34809	0.566673	0.757212	0.059063	0.515806	-0.04647	0.589364	0.116392	0.639179	0.201751	0.753386	
0.538981	5.46875	0	0	0	0	-0.103621	0.834246	0	0	-0.0413343	0.713753	0	0	0.219089	0.708547	0.500273	0.573468	0.917084	0.901465	0.515443	0.179688	0.460065	0.0870362	0.388925	0.338794	0.56775	0.76835	0.0546435	0.509084	-0.043571	0.597179	0.11264	0.628737	0.192876	0.752689	
0.53935	5.46417	0	0	0	0	-0.107198	0.844354	0	0	-0.041192	0.734012	0	0	0.225896	0.723641	0.499782	0.563896	0.926547	0.914704	0.520382	0.165729	0.467114	0.092335	0.388023	0.329497	0.568826	0.779487	0.050224	0.502363	-0.040672	0.604995	0.108888	0.618295	0.184	0.751993	
0.540362	5.46112	0	0	0	0	-0.107198	0.844354	0	0	-0.0391148	0.73848	0	0	0.22516	0.737181	0.500919	0.560682	0.929873	0.932008	0.518383	0.158997	0.475695	0.0933392	0.389159	0.326285	0.584797	0.776957	0.049336	0.48568	-0.0360915	0.600059	0.107107	0.602305	0.181103	0.734436	
0.542377	5.45807	0	0	0	0	-0.107198	0.844354	0	0	-0.0370375	0.742949	0	0	0.224423	0.750722	0.502057	0.557468	0.933199	0.949313	0.516385	0.152264	0.484276	0.0943435	0.390296	0.323073	0.600768	0.774427	0.048448	0.468998	-0.031511	0.595123	0.105327	0.586315	0.178206	0.716879	
0.545752	5.46112	0	0	0	0	-0.107198	0.844354	0	0	-0.0349602	0.747418	0	0	0.223687	0.764262	0.503194	0.554253	0.936524	0.966617	0.514386	0.145532	0.492857	0.0953477	0.391433	0.319861	0.616738	0.771896	0.04756	0.452315	-0.0269305	0.590187	0.103546	0.570324	0.17531	0.699322	
0.550816	5.45502	0	0	0	0	-0.107198	0.844354	0	0	-0.032883	0.751886	0	0	0.22295	0.777802	0.504331	0.551039	0.93985	0.983921	0.512388	0.1388	0.501438	0.096352	0.392569	0.316649	0.632709	0.769366	0.046672	0.435632	-0.02235	0.585251	0.101766	0.554334	0.172413	0.681765	
0.557297	5.45044	0	0	0	0	-0.102299	0.845042	0	0	-0.0363005	0.751206	0	0	0.223712	0.787115	0.511009	0.554091	0.947527	1.00235	0.516853	0.138561	0.502686	0.105465	0.402339	0.312735	0.640341	0.776254	0.0422535	0.428948	-0.017768	0.580314	0.107674	0.537636	0.172449	0.668806	
0.564332	5.45196	0	0	0	0	-0.097399	0.845729	0	0	-0.039718	0.750525	0	0	0.224473	0.796428	0.517687	0.557144	0.955205	1.02078	0.521319	0.138321	0.503934	0.114579	0.412109	0.30882	0.647973	0.783142	0.037835	0.422263	-0.013186	0.575378	0.113583	0.520938	0.172484	0.655846	
0.571039	5.45502	0	0	0	0	-0.0924995	0.846417	0	0	-0.0431355	0.749845	0	0	0.225235	0.805741	0.524365	0.560196	0.962882	1.03921	0.525784	0.138082	0.505182	0.123693	0.421879	0.304905	0.655606	0.79003	0.0334165	0.415578	-0.008604	0.570442	0.119491	0.50424	0.17252	0.642887	
0.576534	5.44739	0	0	0	0	-0.0876	0.847104	0	0	-0.046553	0.749164	0	0	0.225996	0.815054	0.531043	0.563248	0.970559	1.05764	0.530249	0.137843	0.50643	0.132806	0.431649	0.300991	0.663238	0.796918	0.028998	0.408894	-0.004022	0.565505	0.125399	0.487542	0.172556	0.629928	
0.580097	5.45044	0	0	0	0	-0.0924995	0.846417	0	0	-0.0486287	0.744697	0	0	0.230529	0.825194	0.537083	0.579117	0.973873	1.07507	0.535485	0.147829	0.507675	0.141935	0.434603	0.316371	0.670881	0.80382	0.0360492	0.39855	0.00056125	0.560568	0.118685	0.48552	0.181447	0.61766	
0.581918	5.45807	0	0	0	0	-0.097399	0.845729	0	0	-0.0507045	0.74023	0	0	0.235063	0.835335	0.543122	0.594985	0.977186	1.09251	0.540722	0.157814	0.50892	0.151065	0.437556	0.331751	0.678524	0.810721	0.0431005	0.388206	0.0051445	0.555632	0.11197	0.483498	0.190337	0.605392	
0.582494	5.45807	0	0	0	0	-0.102299	0.845042	0	0	-0.0527803	0.735763	0	0	0.239596	0.845476	0.549161	0.610853	0.9805	1.10994	0.545959	0.167799	0.510166	0.160195	0.440509	0.34713	0.686166	0.817623	0.0501517	0.377862	0.00972775	0.550695	0.105256	0.481475	0.199228	0.593123	
0.582323	5.46417	0	0	0	0	-0.107198	0.844354	0	0	-0.054856	0.731296	0	0	0.244129	0.855616	0.555201	0.626722	0.983814	1.12738	0.551195	0.177785	0.511411	0.169324	0.443463	0.36251	0.693809	0.824525	0.057203	0.367518	0.014311	0.545758	0.098541	0.479453	0.208119	0.580855	
0.581902	5.46722	0	0	0	0	-0.110306	0.838614	0	0	-0.062417	0.7217	0	0	0.247906	0.856428	0.561241	0.642648	0.990741	1.13464	0.550721	0.191528	0.520012	0.170341	0.448694	0.371483	0.698548	0.825398	0.054551	0.365429	0.0150867	0.53555	0.100506	0.473899	0.211089	0.572461	
0.581566	5.48553	0	0	0	0	-0.113413	0.832873	0	0	-0.069978	0.712104	0	0	0.251684	0.857239	0.56728	0.658573	0.997669	1.1419	0.550248	0.20527	0.528612	0.171358	0.453925	0.380456	0.703288	0.826271	0.051899	0.36334	0.0158625	0.525341	0.102471	0.468345	0.214059	0.564068	
0.581328	5.50232	0	0	0	0	-0.11652	0.827133	0	0	-0.077539	0.702507	0	0	0.255461	0.858051	0.57332	0.674499	1.0046	1.14916	0.549775	0.219013	0.537213	0.172375	0.459157	0.389428	0.708027	0.827144	0.049247	0.361251	0.0166383	0.515133	0.104437	0.462792	0.217029	0.555675	
0.581161	5.5191	0	0	0	0	-0.119628	0.821392	0	0	-0.0851	0.692911	0	0	0.259238	0.858862	0.57936	0.690424	1.01152	1.15642	0.549301	0.232756	0.545814	0.173392	0.464388	0.398401	0.712766	0.828017	0.046595	0.359162	0.017414	0.504925	0.106402	0.457238	0.219999	0.547281	
0.581041	5.53284	0	0	0	0	-0.135607	0.808572	0	0	-0.098863	0.670031	0	0	0.25697	0.853787	0.578698	0.703306	1.00971	1.16153	0.555776	0.239291	0.547342	0.169074	0.470767	0.404162	0.709853	0.821983	0.048353	0.354194	0.011705	0.497031	0.103538	0.454842	0.222966	0.538895	
0.58095	5.5542	0	0	0	0	-0.151586	0.795753	0	0	-0.112626	0.64715	0	0	0.254701	0.848712	0.578036	0.716187	1.0079	1.16665	0.562251	0.245825	0.548869	0.164757	0.477145	0.409923	0.70694	0.815949	0.050111	0.349225	0.005996	0.489138	0.100673	0.452447	0.225933	0.53051	
0.580988	5.57251	0	0	0	0	-0.167565	0.782933	0	0	-0.126389	0.62427	0	0	0.252433	0.843636	0.577374	0.729069	1.00609	1.17177	0.568726	0.25236	0.550396	0.16044	0.483523	0.415684	0.704026	0.809916	0.051869	0.344257	0.000287	0.481245	0.0978093	0.450051	0.2289	0.522124	
0.58135	5.59082	0	0	0	0	-0.183544	0.770113	0	0	-0.140152	0.60139	0	0	0.250164	0.838561	0.576712	0.741951	1.00428	1.17688	0.575201	0.258895	0.551924	0.156122	0.489902	0.421445	0.701113	0.803882	0.053627	0.339289	-0.005422	0.473351	0.094945	0.447656	0.231867	0.513739	
0.582233	5.61371	0	0	0	0	-0.193711	0.726627	0	0	-0.145952	0.55621	0	0	0.23959	0.822568	0.570497	0.748505	0.997358	1.16961	0.577201	0.265674	0.543322	0.155109	0.490805	0.430798	0.700024	0.792705	0.055384	0.334323	-0.006682	0.452915	0.102717	0.436182	0.227432	0.513416	
0.583835	5.63812	0	0	0	0	-0.203879	0.683141	0	0	-0.151753	0.511031	0	0	0.229017	0.806574	0.564282	0.755059	0.990433	1.16234	0.5792	0.272452	0.53472	0.154097	0.491708	0.440151	0.698934	0.781528	0.057141	0.329357	-0.007942	0.432479	0.110489	0.424708	0.222996	0.513093	
0.586257	5.66101	0	0	0	0	-0.214046	0.639655	0	0	-0.157554	0.465851	0	0	0.218443	0.790581	0.558067	0.761612	0.983509	1.15508	0.581199	0.279231	0.526118	0.153084	0.492611	0.449504	0.697844	0.770351	0.058898	0.324392	-0.009202	0.412043	0.11826	0.413234	0.21856	0.512771	
0.589122	5.67932	0	0	0	0	-0.224213	0.596169	0	0	-0.163354	0.420672	0	0	0.207869	0.774588	0.551852	0.768166	0.976585	1.14781	0.583199	0.28601	0.517516	0.152071	0.493514	0.458857	0.696755	0.759174	0.060655	0.319426	-0.010462	0.391607	0.126032	0.40176	0.214125	0.512448	
0.591899	5.70373	0	0	0	0	-0.224703	0.554356	0	0	-0.168457	0.383939	0	0	0.198043	0.745173	0.555953	0.745571	0.975078	1.12526	0.580716	0.293028	0.515018	0.133841	0.493514	0.458857	0.6862	0.746302	0.0597768	0.321908	-0.021741	0.383557	0.116378	0.408068	0.221525	0.504393	
0.594056	5.72357	0	0	0	0	-0.225193	0.512543	0	0	-0.173561	0.347207	0	0	0.188216	0.715758	0.560054	0.722976	0.973572	1.10272	0.578233	0.300046	0.51252	0.11561	0.493514	0.458857	0.675644	0.73343	0.0588985	0.324391	-0.03302	0.375507	0.106724	0.414376	0.228925	0.496339	
0.595062	5.74341	0	0	0	0	-0.225684	0.47073	0	0	-0.178664	0.310474	0	0	0.178389	0.686344	0.564155	0.700381	0.972066	1.08018	0.575749	0.307064	0.510023	0.0973795	0.493514	0.458857	0.665088	0.720559	0.0580202	0.326873	-0.044299	0.367457	0.0970707	0.420684	0.236324	0.488284	
0.594633	5.75714	0	0	0	0	-0.226174	0.428917	0	0	-0.183767	0.273742	0	0	0.168563	0.656929	0.568256	0.677786	0.970559	1.05764	0.573266	0.314082	0.507525	0.079149	0.493514	0.458857	0.654533	0.707687	0.057142	0.329356	-0.055578	0.359407	0.087417	0.426992	0.243724	0.480229	
0.593089	5.78003	0	0	0	0	-0.228875	0.407809	0	0	-0.182677	0.250239	0	0	0.167729	0.625057	0.567275	0.65857	0.976984	1.02609	0.574989	0.296782	0.500727	0.0604902	0.490563	0.443394	0.649428	0.67951	0.0465575	0.330548	-0.067845	0.346276	0.077857	0.422592	0.230423	0.47927	
0.590847	5.79071	0	0	0	0	-0.231577	0.386701	0	0	-0.181588	0.226735	0	0	0.166896	0.593185	0.566293	0.639353	0.98341	0.99455	0.576712	0.279482	0.49393	0.0418315	0.487612	0.427931	0.644322	0.651334	0.035973	0.33174	-0.080112	0.333145	0.068297	0.418193	0.217122	0.478312	
0.588324	5.81055	0	0	0	0	-0.234279	0.365593	0	0	-0.180498	0.203232	0	0	0.166062	0.561314	0.565311	0.620136	0.989835	0.963005	0.578436	0.262183	0.487133	0.0231728	0.484661	0.412468	0.639216	0.623158	0.0253885	0.332933	-0.092379	0.320015	0.058737	0.413793	0.203822	0.477353	
0.585927	5.81665	0	0	0	0	-0.23698	0.344485	0	0	-0.179408	0.179729	0	0	0.165228	0.529442	0.56433	0.60092	0.996261	0.931461	0.580159	0.244883	0.480335	0.004514	0.48171	0.397005	0.634111	0.594981	0.014804	0.334125	-0.104646	0.306884	0.049177	0.409394	0.190521	0.476394	
0.583855	5.82275	0	0	0	0	-0.24319	0.333336	0	0	-0.182259	0.167386	0	0	0.16366	0.51109	0.570029	0.584815	0.992912	0.914183	0.587585	0.223894	0.479331	-0.017853	0.485361	0.374798	0.627183	0.572052	0.0094955	0.320451	-0.111472	0.286437	0.0445182	0.391195	0.183154	0.458744	
0.582074	5.82886	0	0	0	0	-0.2494	0.322187	0	0	-0.18511	0.155042	0	0	0.162091	0.492738	0.575727	0.568709	0.989564	0.896904	0.595012	0.202906	0.478328	-0.04022	0.489012	0.352591	0.620255	0.549124	0.004187	0.306777	-0.118299	0.26599	0.0398595	0.372995	0.175787	0.441095	
0.58054	5.83496	0	0	0	0	-0.25561	0.311038	0	0	-0.187961	0.142699	0	0	0.160523	0.474386	0.581426	0.552604	0.986216	0.879625	0.602438	0.181917	0.477324	-0.062587	0.492662	0.330383	0.613327	0.526196	-0.0011215	0.293102	-0.125125	0.245543	0.0352008	0.354796	0.168421	0.423445	
0.579207	5.83191	0	0	0	0	-0.26182	0.299889	0	0	-0.190812	0.130356	0	0	0.158955	0.456034	0.587125	0.536498	0.982867	0.862347	0.609865	0.160929	0.47632	-0.084954	0.496313	0.308176	0.606399	0.503267	-0.00643	0.279428	-0.131951	0.225096	0.030542	0.336597	0.161054	0.405795	
0.578024	5.83343	0	0	0	0	-0.260073	0.294951	0	0	-0.192118	0.134049	0	0	0.154413	0.446114	0.589402	0.530064	0.979511	0.845129	0.60909	0.1507	0.476565	-0.0982355	0.496532	0.295673	0.611799	0.488005	-0.00822075	0.265396	-0.130328	0.21257	0.0325615	0.320446	0.158106	0.388526	
0.576887	5.83038	0	0	0	0	-0.258325	0.290013	0	0	-0.193425	0.137742	0	0	0.149871	0.436194	0.591678	0.523629	0.976155	0.82791	0.608314	0.14047	0.47681	-0.111517	0.496752	0.28317	0.6172	0.472744	-0.0100115	0.251364	-0.128704	0.200043	0.034581	0.304295	0.155157	0.371256	
0.575675	5.83343	0	0	0	0	-0.256578	0.285075	0	0	-0.194732	0.141434	0	0	0.14533	0.426275	0.593955	0.517195	0.972798	0.810692	0.607538	0.130241	0.477055	-0.124799	0.496972	0.270667	0.6226	0.457483	-0.0118023	0.237331	-0.127081	0.187517	0.0366005	0.288145	0.152208	0.353986	
0.574265	5.82733	0	0	0	0	-0.254831	0.280137	0	0	-0.196038	0.145127	0	0	0.140788	0.416355	0.596232	0.510761	0.969442	0.793474	0.606763	0.120012	0.4773	-0.13808	0.497191	0.258164	0.628	0.442221	-0.013593	0.223299	-0.125457	0.174991	0.03862	0.271994	0.14926	0.336717	
0.572535	5.81665	0	0	0	0	-0.268019	0.288755	0	0	-0.197345	0.148821	0	0	0.138517	0.411404	0.598507	0.504332	0.958169	0.785351	0.604751	0.113285	0.470245	-0.143295	0.501734	0.245323	0.621488	0.446476	-0.0153637	0.218764	-0.121804	0.172604	0.0367372	0.266878	0.159558	0.32041	
0.570451	5.8136	0	0	0	0	-0.281207	0.297372	0	0	-0.198652	0.152515	0	0	0.136247	0.406452	0.600782	0.497902	0.946896	0.777227	0.602739	0.106559	0.46319	-0.14851	0.506278	0.232483	0.614977	0.45073	-0.0171345	0.214228	-0.118151	0.170217	0.0348545	0.261762	0.169856	0.304103	
0.568153	5.80902	0	0	0	0	-0.294396	0.30599	0	0	-0.199959	0.156209	0	0	0.133976	0.401501	0.603057	0.491472	0.935622	0.769103	0.600726	0.0998325	0.456135	-0.153725	0.510821	0.219642	0.608465	0.454985	-0.0189052	0.209693	-0.114497	0.16783	0.0329718	0.256646	0.180154	0.287797	
0.565797	5.79681	0	0	0	0	-0.307584	0.314607	0	0	-0.201266	0.159903	0	0	0.131706	0.39655	0.605332	0.485043	0.924349	0.76098	0.598714	0.093106	0.44908	-0.15894	0.515365	0.206801	0.601954	0.45924	-0.020676	0.205158	-0.110844	0.165443	0.031089	0.25153	0.190452	0.27149	
0.563542	5.78918	0	0	0	0	-0.310679	0.309043	0	0	-0.205957	0.162968	0	0	0.124211	0.395019	0.598633	0.482013	0.913099	0.752876	0.600394	0.0759545	0.447813	-0.167923	0.51557	0.194348	0.603752	0.454159	-0.0268325	0.203493	-0.112602	0.170411	0.0253797	0.246807	0.190452	0.27149	
0.561537	5.78308	0	0	0	0	-0.313774	0.303478	0	0	-0.210648	0.166034	0	0	0.116715	0.393489	0.591933	0.478983	0.901849	0.744773	0.602073	0.058803	0.446546	-0.176905	0.515775	0.181894	0.60555	0.449077	-0.032989	0.201829	-0.11436	0.17538	0.0196705	0.242085	0.190452	0.27149	
0.559845	5.77545	0	0	0	0	-0.316869	0.297914	0	0	-0.215339	0.169099	0	0	0.10922	0.391958	0.585233	0.475953	0.8906	0.736669	0.603753	0.0416515	0.445279	-0.185888	0.515979	0.16944	0.607348	0.443995	-0.0391455	0.200164	-0.116117	0.180348	0.0139613	0.237363	0.190452	0.27149	
0.558489	5.76172	0	0	0	0	-0.319964	0.29235	0	0	-0.22003	0.172164	0	0	0.101725	0.390427	0.578534	0.472923	0.87935	0.728565	0.605433	0.0245	0.444012	-0.194871	0.516184	0.156987	0.609146	0.438914	-0.045302	0.198499	-0.117875	0.185316	0.008252	0.23264	0.190452	0.27149	
0.557486	5.75104	0	0	0	0	-0.325765	0.265878	0	0	-0.224179	0.163522	0	0	0.0919767	0.383957	0.564652	0.457359	0.867336	0.709453	0.602625	0.00765275	0.429932	-0.20525	0.516382	0.14456	0.606232	0.433011	-0.0488385	0.189449	-0.120649	0.185219	0.0006695	0.222827	0.19043	0.258754	
0.556858	5.74341	0	0	0	0	-0.331566	0.239406	0	0	-0.228327	0.154879	0	0	0.0822285	0.377487	0.55077	0.441794	0.855323	0.69034	0.599816	-0.0091945	0.415853	-0.215629	0.51658	0.132133	0.603318	0.427109	-0.052375	0.180399	-0.123423	0.185121	-0.006913	0.213014	0.190409	0.246019	
0.55656	5.7373	0	0	0	0	-0.337367	0.212935	0	0	-0.232476	0.146236	0	0	0.0724802	0.371018	0.536887	0.42623	0.84331	0.671227	0.597008	-0.0260418	0.401774	-0.226009	0.516779	0.119706	0.600405	0.421207	-0.0559115	0.171348	-0.126198	0.185024	-0.0144955	0.203202	0.190387	0.233283	
0.556439	5.72204	0	0	0	0	-0.343168	0.186463	0	0	-0.236624	0.137594	0	0	0.062732	0.364548	0.523005	0.410666	0.831296	0.652115	0.594199	-0.042889	0.387694	-0.236388	0.516977	0.107279	0.597491	0.415304	-0.059448	0.162298	-0.128972	0.184927	-0.022078	0.193389	0.190365	0.220547	
0.556329	5.71136	0	0	0	0	-0.355536	0.164415	0	0	-0.232184	0.11487	0	0	0.0559462	0.349768	0.509769	0.382527	0.816748	0.627109	0.582451	-0.0591587	0.373651	-0.246736	0.508519	0.0956257	0.585174	0.407766	-0.0638535	0.155724	-0.136408	0.182151	-0.023901	0.177742	0.177114	0.219658	
0.556067	5.70373	0	0	0	0	-0.367905	0.142367	0	0	-0.227743	0.0921455	0	0	0.0491605	0.334988	0.496534	0.354387	0.802201	0.602104	0.570704	-0.0754285	0.359608	-0.257084	0.500062	0.0839725	0.572858	0.400227	-0.068259	0.149149	-0.143845	0.179375	-0.025724	0.162095	0.163863	0.21877	
0.55552	5.69763	0	0	0	0	-0.380273	0.120319	0	0	-0.223303	0.0694213	0	0	0.0423748	0.320208	0.483299	0.326248	0.787654	0.577098	0.558956	-0.0916982	0.345565	-0.267431	0.491604	0.0723193	0.560541	0.392688	-0.0726645	0.142575	-0.151282	0.176599	-0.027547	0.146448	0.150613	0.217882	
0.554765	5.68695	0	0	0	0	-0.392642	0.098271	0	0	-0.218863	0.046697	0	0	0.035589	0.305428	0.470063	0.298109	0.773106	0.552092	0.547208	-0.107968	0.331522	-0.277779	0.483146	0.060666	0.548224	0.38515	-0.07707	0.136001	-0.158718	0.173823	-0.02937	0.130801	0.137362	0.216993	
0.553964	5.67169	0	0	0	0	-0.393645	0.0726715	0	0	-0.221721	0.0344403	0	0	0.0288073	0.290699	0.465732	0.266781	0.755081	0.537147	0.542372	-0.131317	0.324742	-0.296056	0.470387	0.0494212	0.53125	0.376808	-0.0884748	0.130241	-0.16891	0.170951	-0.0455245	0.12456	0.125603	0.211968	
0.55328	5.67169	0	0	0	0	-0.394649	0.047072	0	0	-0.224579	0.0221835	0	0	0.0220255	0.27597	0.4614	0.235453	0.737057	0.522202	0.537535	-0.154665	0.317962	-0.314333	0.457628	0.0381765	0.514276	0.368466	-0.0998795	0.12448	-0.179102	0.168079	-0.061679	0.118318	0.113843	0.206944	
0.552872	5.66254	0	0	0	0	-0.395653	0.0214725	0	0	-0.227436	0.00992675	0	0	0.0152438	0.261241	0.457069	0.204125	0.719032	0.507257	0.532699	-0.178013	0.311183	-0.332611	0.444869	0.0269317	0.497302	0.360124	-0.111284	0.11872	-0.189294	0.165207	-0.0778335	0.112077	0.102084	0.201919	
0.552771	5.65185	0	0	0	0	-0.396656	-0.004127	0	0	-0.230294	-0.00233	0	0	0.008462	0.246512	0.452738	0.172797	0.701008	0.492312	0.527863	-0.201362	0.304403	-0.350888	0.43211	0.015687	0.480328	0.351782	-0.122689	0.112959	-0.199486	0.162335	-0.093988	0.105836	0.090324	0.196894	
0.55285	5.6427	0	0	0	0	-0.40112	-0.0199025	0	0	-0.231075	-0.01028	0	0	0.011396	0.23822	0.451678	0.154047	0.695915	0.480416	0.519372	-0.21431	0.290412	-0.36115	0.427987	0.00373125	0.478098	0.329991	-0.137561	0.107608	-0.205148	0.154614	-0.10817	0.094164	0.074198	0.191578	
0.552972	5.63507	0	0	0	0	-0.405585	-0.035678	0	0	-0.231857	-0.01823	0	0	0.01433	0.229928	0.450618	0.135296	0.690823	0.468521	0.510881	-0.227257	0.276422	-0.371413	0.423865	-0.0082245	0.475868	0.308201	-0.152433	0.102257	-0.210809	0.146892	-0.122352	0.082492	0.058072	0.186262	
0.553001	5.63507	0	0	0	0	-0.41005	-0.0514535	0	0	-0.232638	-0.02618	0	0	0.017264	0.221636	0.449558	0.116546	0.68573	0.456625	0.502391	-0.240204	0.262431	-0.381676	0.419743	-0.0201802	0.473638	0.286411	-0.167305	0.0969052	-0.216471	0.139171	-0.136534	0.07082	0.041946	0.180947	
0.552815	5.62439	0	0	0	0	-0.414514	-0.067229	0	0	-0.23342	-0.03413	0	0	0.020198	0.213344	0.448498	0.097796	0.680637	0.444729	0.4939	-0.253152	0.248441	-0.391938	0.41562	-0.032136	0.471408	0.26462	-0.182177	0.091554	-0.222133	0.131449	-0.150716	0.059148	0.02582	0.175631	
0.552365	5.61676	0	0	0	0	-0.422411	-0.07326	0	0	-0.238874	-0.0390163	0	0	0.022461	0.21824	0.448498	0.097796	0.674594	0.448678	0.497541	-0.263443	0.244426	-0.405443	0.416743	-0.035308	0.459163	0.257167	-0.181373	0.0703625	-0.227054	0.113776	-0.154409	0.038602	0.0155527	0.153897	
0.551618	5.61371	0	0	0	0	-0.430308	-0.079291	0	0	-0.244328	-0.0439025	0	0	0.024724	0.223137	0.448498	0.097796	0.668551	0.452627	0.501182	-0.273733	0.240412	-0.418948	0.417865	-0.03848	0.446917	0.249713	-0.180569	0.049171	-0.231976	0.096103	-0.158102	0.018056	0.0052855	0.132163	
0.550541	5.60913	0	0	0	0	-0.438206	-0.085322	0	0	-0.249782	-0.0487887	0	0	0.026987	0.228033	0.448498	0.097796	0.662507	0.456576	0.504824	-0.284024	0.236398	-0.432453	0.418987	-0.041652	0.434672	0.242259	-0.179764	0.0279795	-0.236898	0.07843	-0.161795	-0.00249	-0.00498175	0.11043	
0.549116	5.6015	0	0	0	0	-0.446103	-0.091353	0	0	-0.255236	-0.053675	0	0	0.02925	0.232929	0.448498	0.097796	0.656464	0.460525	0.508465	-0.294315	0.232383	-0.445958	0.42011	-0.044824	0.422427	0.234806	-0.17896	0.006788	-0.241819	0.060757	-0.165488	-0.023036	-0.015249	0.088696	
0.54752	5.59845	0	0	0	0	-0.458783	-0.0979607	0	0	-0.261468	-0.0664725	0	0	0.027782	0.237078	0.445145	0.107271	0.650425	0.464471	0.504018	-0.294044	0.223925	-0.446872	0.426663	-0.0515435	0.421308	0.223968	-0.186866	-0.00865025	-0.24776	0.038145	-0.172977	-0.0431018	-0.0298755	0.0667875	
0.546088	5.59387	0	0	0	0	-0.471463	-0.104569	0	0	-0.2677	-0.07927	0	0	0.026314	0.241227	0.441793	0.116747	0.644386	0.468417	0.49957	-0.293773	0.215467	-0.447786	0.433215	-0.058263	0.42019	0.213131	-0.194771	-0.0240885	-0.253701	0.015533	-0.180465	-0.0631675	-0.044502	0.044879	
0.545159	5.58929	0	0	0	0	-0.484143	-0.111176	0	0	-0.273932	-0.0920675	0	0	0.024846	0.245376	0.43844	0.126222	0.638346	0.472363	0.495122	-0.293502	0.207009	-0.448701	0.439767	-0.0649825	0.419072	0.202293	-0.202676	-0.0395267	-0.259642	-0.007079	-0.187953	-0.0832333	-0.0591285	0.0229705	
0.545071	5.58777	0	0	0	0	-0.496823	-0.117784	0	0	-0.280164	-0.104865	0	0	0.023378	0.249525	0.435087	0.135697	0.632307	0.476309	0.490675	-0.293231	0.198551	-0.449615	0.44632	-0.071702	0.417953	0.191456	-0.210582	-0.054965	-0.265583	-0.029691	-0.195442	-0.103299	-0.073755	0.001062	
0.54592	5.57556	0	0	0	0	-0.499567	-0.13827	0	0	-0.289755	-0.118226	0	0	0.018181	0.252921	0.438972	0.135589	0.623739	0.474308	0.491887	-0.296657	0.193064	-0.458893	0.440889	-0.0681532	0.409274	0.174048	-0.209808	-0.0760128	-0.274282	-0.052281	-0.198201	-0.126365	-0.0767567	-0.0282985	
0.547309	5.57861	0	0	0	0	-0.502312	-0.158757	0	0	-0.299347	-0.131587	0	0	0.012984	0.256317	0.442856	0.135481	0.615171	0.472307	0.4931	-0.300084	0.187578	-0.468171	0.435458	-0.0646045	0.400596	0.156641	-0.209035	-0.0970605	-0.28298	-0.074871	-0.20096	-0.149431	-0.0797585	-0.057659	
0.548782	5.57403	0	0	0	0	-0.505056	-0.179244	0	0	-0.308939	-0.144948	0	0	0.007787	0.259712	0.44674	0.135372	0.606604	0.470307	0.494312	-0.30351	0.182091	-0.477449	0.430028	-0.0610558	0.391918	0.139234	-0.208261	-0.118108	-0.291679	-0.097461	-0.203719	-0.172496	-0.0827603	-0.0870195	
0.549884	5.56488	0	0	0	0	-0.5078	-0.19973	0	0	-0.31853	-0.158309	0	0	0.00259	0.263108	0.450625	0.135264	0.598036	0.468306	0.495525	-0.306936	0.176604	-0.486727	0.424597	-0.057507	0.383239	0.121826	-0.207487	-0.139156	-0.300378	-0.120051	-0.206478	-0.195562	-0.085762	-0.11638	
0.550228	5.55725	0	0	0	0	-0.529989	-0.207438	0	0	-0.328894	-0.179481	0	0	-0.00485925	0.261598	0.449506	0.138426	0.589481	0.466305	0.495525	-0.306936	0.159745	-0.48855	0.424597	-0.057507	0.371044	0.114452	-0.212778	-0.152461	-0.306332	-0.142445	-0.213052	-0.207796	-0.0916588	-0.137482	
0.549905	5.55572	0	0	0	0	-0.552178	-0.215147	0	0	-0.339258	-0.200653	0	0	-0.0123085	0.260087	0.448387	0.141587	0.580927	0.464305	0.495525	-0.306936	0.142885	-0.490373	0.424597	-0.057507	0.358849	0.107078	-0.218068	-0.165766	-0.312285	-0.164838	-0.219625	-0.220029	-0.0975555	-0.158584	
0.549197	5.55878	0	0	0	0	-0.574367	-0.222855	0	0	-0.349622	-0.221824	0	0	-0.0197578	0.258576	0.447269	0.144749	0.572372	0.462304	0.495525	-0.306936	0.126026	-0.492196	0.424597	-0.057507	0.346653	0.099704	-0.223358	-0.179071	-0.318239	-0.187232	-0.226198	-0.232263	-0.103452	-0.179687	
0.548387	5.54962	0	0	0	0	-0.596556	-0.230564	0	0	-0.359986	-0.242996	0	0	-0.027207	0.257066	0.44615	0.147911	0.563817	0.460303	0.495525	-0.306936	0.109166	-0.494019	0.424597	-0.057507	0.334458	0.09233	-0.228649	-0.192376	-0.324193	-0.209626	-0.232772	-0.244497	-0.109349	-0.200789	
0.547753	5.54352	0	0	0	0	-0.612208	-0.242472	0	0	-0.372897	-0.256833	0	0	-0.033181	0.251414	0.441671	0.160569	0.555275	0.458302	0.487443	-0.296386	0.107908	-0.502811	0.418048	-0.05079	0.32229	0.0849725	-0.226992	-0.206467	-0.333593	-0.222196	-0.237467	-0.25174	-0.113761	-0.213457	
0.547363	5.53741	0	0	0	0	-0.62786	-0.254381	0	0	-0.385808	-0.27067	0	0	-0.039155	0.245762	0.437191	0.173228	0.546733	0.456301	0.479361	-0.285836	0.10665	-0.511602	0.411498	-0.044073	0.310122	0.077615	-0.225335	-0.220558	-0.342994	-0.234767	-0.242163	-0.258982	-0.118172	-0.226126	
0.54705	5.54047	0	0	0	0	-0.643513	-0.26629	0	0	-0.39872	-0.284507	0	0	-0.045129	0.24011	0.432712	0.185887	0.538192	0.4543	0.47128	-0.275287	0.105392	-0.520393	0.404949	-0.037356	0.297955	0.0702575	-0.223679	-0.234649	-0.352394	-0.247337	-0.246859	-0.266225	-0.122583	-0.238794	
0.546632	5.52826	0	0	0	0	-0.659165	-0.278198	0	0	-0.411631	-0.298344	0	0	-0.051103	0.234458	0.428233	0.198545	0.52965	0.452299	0.463198	-0.264737	0.104134	-0.529185	0.3984	-0.030639	0.285787	0.0629	-0.222022	-0.24874	-0.361795	-0.259908	-0.251554	-0.273467	-0.126995	-0.251463	
0.545929	5.52521	0	0	0	0	-0.676462	-0.285288	0	0	-0.422449	-0.307933	0	0	-0.0651728	0.240469	0.423748	0.211222	0.516862	0.449298	0.461985	-0.261308	0.0900545	-0.526387	0.402705	-0.0310132	0.278276	0.056349	-0.228968	-0.247914	-0.365711	-0.272282	-0.253427	-0.278422	-0.137119	-0.247954	
0.544828	5.52215	0	0	0	0	-0.69376	-0.292377	0	0	-0.433268	-0.317522	0	0	-0.0792425	0.24648	0.419262	0.223898	0.504073	0.446296	0.460772	-0.257879	0.075975	-0.523589	0.40701	-0.0313875	0.270765	0.049798	-0.235914	-0.247087	-0.369628	-0.284657	-0.2553	-0.283378	-0.147242	-0.244445	
0.543433	5.52368	0	0	0	0	-0.711058	-0.299466	0	0	-0.444086	-0.327111	0	0	-0.0933123	0.252492	0.414777	0.236574	0.491285	0.443294	0.459558	-0.25445	0.0618955	-0.520791	0.411315	-0.0317617	0.263253	0.043247	-0.242861	-0.24626	-0.373545	-0.297032	-0.257172	-0.288333	-0.157365	-0.240936	
0.541892	5.51453	0	0	0	0	-0.728355	-0.306556	0	0	-0.454904	-0.3367	0	0	-0.107382	0.258503	0.410292	0.249251	0.478497	0.440293	0.458345	-0.251021	0.047816	-0.517993	0.41562	-0.032136	0.255742	0.036696	-0.249807	-0.245434	-0.377461	-0.309406	-0.259045	-0.293288	-0.167489	-0.237427	
0.540353	5.51147	0	0	0	0	-0.743912	-0.318396	0	0	-0.465701	-0.346262	0	0	-0.119188	0.269399	0.404056	0.27775	0.467273	0.458985	0.461949	-0.224311	0.047816	-0.517993	0.41955	-0.00782275	0.259732	0.0531975	-0.247992	-0.231759	-0.380896	-0.299699	-0.256249	-0.280689	-0.167489	-0.237427	
0.538949	5.50995	0	0	0	0	-0.759469	-0.330237	0	0	-0.476498	-0.355824	0	0	-0.130993	0.280295	0.397821	0.30625	0.456048	0.477676	0.465553	-0.197602	0.047816	-0.517993	0.423481	0.0164905	0.263722	0.069699	-0.246177	-0.218084	-0.384331	-0.289992	-0.253453	-0.26809	-0.167489	-0.237427	
0.5377	5.5069	0	0	0	0	-0.775026	-0.342078	0	0	-0.487296	-0.365387	0	0	-0.142798	0.291191	0.391585	0.334749	0.444824	0.496368	0.469156	-0.170893	0.047816	-0.517993	0.427411	0.0408037	0.267713	0.0862005	-0.244362	-0.204409	-0.387765	-0.280285	-0.250656	-0.255491	-0.167489	-0.237427	
0.536571	5.50079	0	0	0	0	-0.790583	-0.353918	0	0	-0.498093	-0.374949	0	0	-0.154604	0.302087	0.385349	0.363248	0.4336	0.51506	0.47276	-0.144183	0.047816	-0.517993	0.431342	0.065117	0.271703	0.102702	-0.242547	-0.190734	-0.3912	-0.270578	-0.24786	-0.242892	-0.167489	-0.237427	
0.535524	5.49774	0	0	0	0	-0.788577	-0.373513	0	0	-0.500153	-0.379133	0	0	-0.157616	0.288158	0.369345	0.354159	0.438827	0.500286	0.461076	-0.160337	0.0339902	-0.528128	0.420861	0.047523	0.256703	0.0895795	-0.244419	-0.213644	-0.396825	-0.278093	-0.250636	-0.26579	-0.17178	-0.225301	
0.534523	5.49164	0	0	0	0	-0.786571	-0.393108	0	0	-0.502212	-0.383317	0	0	-0.160627	0.27423	0.353342	0.345069	0.444055	0.485513	0.449391	-0.176491	0.0201645	-0.538263	0.410381	0.029929	0.241702	0.076457	-0.24629	-0.236553	-0.402451	-0.285608	-0.253412	-0.288687	-0.176071	-0.213176	
0.53355	5.49316	0	0	0	0	-0.784565	-0.412703	0	0	-0.504272	-0.387502	0	0	-0.163639	0.260301	0.337338	0.335979	0.449282	0.470739	0.437706	-0.192645	0.00633875	-0.548398	0.3999	0.012335	0.226702	0.0633345	-0.248162	-0.259463	-0.408077	-0.293124	-0.256189	-0.311585	-0.180361	-0.20105	
0.532604	5.48859	0	0	0	0	-0.782559	-0.432298	0	0	-0.506332	-0.391686	0	0	-0.166651	0.246372	0.321335	0.32689	0.454509	0.455966	0.426022	-0.208799	-0.007487	-0.558533	0.38942	-0.005259	0.211701	0.050212	-0.250034	-0.282373	-0.413702	-0.300639	-0.258965	-0.334483	-0.184652	-0.188924	
0.531686	5.48553	0	0	-49.8528	30.5487	-0.744625	-0.427806	0	0	-0.516625	-0.412545	0	0	-0.20661	0.20297	0.280883	0.268454	0.386474	0.376711	0.406723	-0.22778	-0.046276	-0.571366	0.361807	-0.0212895	0.169151	0.0323953	-0.260553	-0.299548	-0.430387	-0.315779	-0.274919	-0.350729	-0.180361	-0.20105	
0.530796	5.48401	0	0	-99.7057	61.0974	-0.706692	-0.423315	0	0	-0.526917	-0.433404	0	0	-0.246568	0.159569	0.24043	0.210018	0.318438	0.297455	0.387424	-0.246761	-0.085065	-0.584199	0.334194	-0.03732	0.126601	0.0145785	-0.271072	-0.316723	-0.447071	-0.330919	-0.290874	-0.366976	-0.176071	-0.213176	
0.529947	5.48706	0	0	-149.559	91.6461	-0.668758	-0.418824	0	0	-0.53721	-0.454263	0	0	-0.286527	0.116168	0.199978	0.151581	0.250402	0.2182	0.368125	-0.265742	-0.123854	-0.597033	0.306581	-0.0533505	0.0840503	-0.00323825	-0.281592	-0.333897	-0.463755	-0.346059	-0.306829	-0.383222	-0.17178	-0.225301	
0.529172	5.48248	0	0	-199.411	122.195	-0.630824	-0.414332	0	0	-0.547503	-0.475122	0	0	-0.326486	0.072766	0.159526	0.093145	0.182367	0.138945	0.348826	-0.284723	-0.162643	-0.609866	0.278968	-0.069381	0.0415	-0.021055	-0.292111	-0.351072	-0.48044	-0.361199	-0.322783	-0.399468	-0.167489	-0.237427	
0.528509	5.47333	0	0	-198.544	121.628	-0.627754	-0.408999	0	0	-0.54497	-0.482281	0	0	-0.339824	0.04386	0.1498	0.0562588	0.154905	0.101386	0.341613	-0.30099	-0.176335	-0.61993	0.272829	-0.087185	0.0266588	-0.0340543	-0.30255	-0.359008	-0.487911	-0.371154	-0.333081	-0.411143	-0.179027	-0.229888	
0.527997	5.47485	0	0	-197.676	121.061	-0.624684	-0.403666	0	0	-0.542437	-0.48944	0	0	-0.353161	0.014954	0.140073	0.0193725	0.127443	0.063826	0.3344	-0.317257	-0.190026	-0.629993	0.26669	-0.104989	0.0118175	-0.0470535	-0.31299	-0.366945	-0.495381	-0.38111	-0.343379	-0.422819	-0.190564	-0.222349	
0.527639	5.47638	0	0	-196.808	120.494	-0.621614	-0.398332	0	0	-0.539904	-0.496599	0	0	-0.366499	-0.013952	0.130347	-0.0175137	0.0999818	0.0262665	0.327187	-0.333524	-0.203718	-0.640057	0.260551	-0.122793	-0.00302375	-0.0600528	-0.323429	-0.374881	-0.502852	-0.391066	-0.353676	-0.434495	-0.202102	-0.21481	
0.527317	5.47638	0	0	-195.941	119.927	-0.618544	-0.392999	0	0	-0.537371	-0.503758	0	0	-0.379836	-0.042858	0.12062	-0.0544	0.07252	-0.011293	0.319974	-0.349791	-0.21741	-0.65012	0.254412	-0.140597	-0.017865	-0.073052	-0.333868	-0.382817	-0.510323	-0.401021	-0.363974	-0.44617	-0.21364	-0.207271	
0.526882	5.47638	0	0	-194.031	119.488	-0.623302	-0.39356	0	0	-0.541961	-0.500758	0	0	-0.382842	-0.0565083	0.126695	-0.0822752	0.0575355	-0.019904	0.319574	-0.373056	-0.217191	-0.662907	0.24605	-0.152053	-0.018965	-0.0836535	-0.341684	-0.388757	-0.521189	-0.401327	-0.371451	-0.455565	-0.219403	-0.203505	
0.526184	5.48248	0	0	-192.121	119.048	-0.628061	-0.394122	0	0	-0.546552	-0.497759	0	0	-0.385849	-0.0701585	0.132769	-0.11015	0.042551	-0.028515	0.319174	-0.396321	-0.216973	-0.675694	0.237689	-0.163509	-0.020065	-0.094255	-0.3495	-0.394697	-0.532056	-0.401633	-0.378927	-0.464959	-0.225166	-0.19974	
0.525107	5.48553	0	0	-190.211	118.609	-0.632819	-0.394683	0	0	-0.551143	-0.49476	0	0	-0.388855	-0.0838088	0.138844	-0.138026	0.0275665	-0.037126	0.318774	-0.419586	-0.216755	-0.688481	0.229327	-0.174965	-0.021165	-0.104857	-0.357316	-0.400636	-0.542922	-0.401939	-0.386404	-0.474354	-0.230929	-0.195974	
0.523777	5.48859	0	0	-188.301	118.17	-0.637578	-0.395244	0	0	-0.555733	-0.49176	0	0	-0.391861	-0.097459	0.144919	-0.165901	0.012582	-0.045737	0.318374	-0.442851	-0.216536	-0.701268	0.220965	-0.186421	-0.022265	-0.115458	-0.365132	-0.406576	-0.553789	-0.402245	-0.393881	-0.483749	-0.236692	-0.192208	
0.522432	5.49011	0	5	-186.464	117.886	-0.639267	-0.390469	0	0	-0.560321	-0.488762	0	0	-0.395518	-0.0981883	0.141092	-0.165786	0.00010425	-0.0486012	0.317173	-0.439456	-0.229181	-0.689847	0.221897	-0.177367	-0.0337807	-0.096613	-0.371913	-0.387412	-0.567036	-0.388035	-0.403252	-0.467428	-0.246742	-0.176319	
0.52131	5.49164	0	5	-184.627	117.603	-0.640956	-0.385695	0	0	-0.564909	-0.485764	0	0	-0.399174	-0.0989175	0.137265	-0.165671	-0.0123735	-0.0514655	0.315971	-0.436061	-0.241826	-0.678425	0.222829	-0.168313	-0.0452965	-0.077768	-0.378695	-0.368248	-0.580284	-0.373825	-0.412624	-0.451108	-0.256791	-0.16043	
0.520628	5.49621	0	5	-182.79	117.319	-0.642646	-0.38092	0	0	-0.569496	-0.482767	0	0	-0.402831	-0.0996468	0.133437	-0.165557	-0.0248513	-0.0543298	0.31477	-0.432666	-0.254471	-0.667003	0.223761	-0.159258	-0.0568123	-0.058923	-0.385476	-0.349083	-0.593531	-0.359614	-0.421995	-0.434787	-0.266841	-0.144542	
0.520352	5.49774	0	5	-180.953	117.035	-0.644335	-0.376146	0	0	-0.574084	-0.479769	0	0	-0.406488	-0.100376	0.12961	-0.165442	-0.037329	-0.057194	0.313569	-0.429271	-0.267116	-0.655582	0.224693	-0.150204	-0.068328	-0.040078	-0.392257	-0.329919	-0.606779	-0.345404	-0.431366	-0.418467	-0.27689	-0.128653	
0.520265	5.49774	0	5	-179.186	116.94	-0.644982	-0.346288	0	0	-0.572511	-0.464272	0	0	-0.393939	-0.0804563	0.143795	-0.141231	-0.0149595	-0.0313262	0.32079	-0.413073	-0.257603	-0.645982	0.231747	-0.123314	-0.0552685	-0.0221245	-0.393858	-0.306713	-0.611898	-0.330937	-0.431415	-0.397995	-0.284054	-0.108407	
0.520148	5.5069	0	5	-177.42	116.844	-0.645629	-0.31643	0	0	-0.570938	-0.448776	0	0	-0.381391	-0.0605365	0.15798	-0.117019	0.00741	-0.0054585	0.32801	-0.396875	-0.24809	-0.636381	0.238802	-0.096423	-0.042209	-0.004171	-0.395458	-0.283508	-0.617016	-0.316471	-0.431464	-0.377523	-0.291218	-0.0881605	
0.51979	5.51147	0	5	-175.654	116.748	-0.646276	-0.286572	0	0	-0.569365	-0.43328	0	0	-0.368843	-0.0406168	0.172165	-0.0928083	0.0297795	0.0204093	0.33523	-0.380676	-0.238578	-0.626781	0.245857	-0.0695325	-0.0291495	0.0137825	-0.397058	-0.260302	-0.622135	-0.302005	-0.431513	-0.357051	-0.298382	-0.0679142	
0.519184	5.51147	0	5	-173.888	116.652	-0.646923	-0.256714	0	0	-0.567792	-0.417783	0	0	-0.356294	-0.020697	0.18635	-0.068597	0.052149	0.046277	0.342451	-0.364478	-0.229065	-0.617181	0.252911	-0.042642	-0.01609	0.031736	-0.398659	-0.237096	-0.627254	-0.287538	-0.431562	-0.336579	-0.305546	-0.047668	
0.518543	5.51147	0	5	-171.514	115.102	-0.642846	-0.226111	0	0	-0.564175	-0.398052	0	0	-0.350289	0.00675875	0.198862	-0.028659	0.082993	0.074278	0.352891	-0.345064	-0.223687	-0.608016	0.265363	-0.0191332	-0.00759	0.0489665	-0.395123	-0.21903	-0.625255	-0.277705	-0.431629	-0.316034	-0.315607	-0.0317378	
0.518088	5.51453	0	5	-169.141	113.551	-0.63877	-0.195509	0	0	-0.560558	-0.378321	0	0	-0.344284	0.0342145	0.211374	0.011279	0.113837	0.102279	0.363331	-0.325651	-0.21831	-0.59885	0.277815	0.0043755	0.00091	0.066197	-0.391588	-0.200964	-0.623256	-0.267871	-0.431696	-0.29549	-0.325669	-0.0158075	
0.518042	5.5191	0	5	-166.768	112	-0.634694	-0.164906	0	0	-0.556942	-0.358591	0	0	-0.33828	0.0616703	0.223886	0.051217	0.144681	0.13028	0.373771	-0.306237	-0.212932	-0.589685	0.290268	0.0278843	0.00941	0.0834275	-0.388053	-0.182899	-0.621257	-0.258038	-0.431762	-0.274945	-0.33573	0.00012275	
0.518449	5.51758	0	5	-164.394	110.449	-0.630617	-0.134303	0	0	-0.553325	-0.33886	0	0	-0.332275	0.089126	0.236398	0.091155	0.175525	0.158281	0.384211	-0.286823	-0.207555	-0.58052	0.30272	0.051393	0.01791	0.100658	-0.384517	-0.164833	-0.619258	-0.248204	-0.431829	-0.2544	-0.345791	0.016053	
0.519084	5.513	0	5	-162.699	110.593	-0.621434	-0.118036	0	0	-0.547944	-0.334072	0	0	-0.321156	0.113384	0.254995	0.125025	0.18624	0.192292	0.394664	-0.267317	-0.202174	-0.571334	0.308634	0.0817718	0.026417	0.11796	-0.385335	-0.153159	-0.624533	-0.24104	-0.428125	-0.24449	-0.348665	0.0241755	
0.519693	5.51758	0	5	-161.004	110.738	-0.612251	-0.101769	0	0	-0.542563	-0.329284	0	0	-0.310037	0.137642	0.273593	0.158896	0.196955	0.226302	0.405116	-0.247811	-0.196792	-0.562148	0.314549	0.112151	0.034924	0.135262	-0.386154	-0.141485	-0.629807	-0.233876	-0.424421	-0.234581	-0.35154	0.032298	
0.520026	5.52368	0	5	-159.309	110.882	-0.603069	-0.0855013	0	0	-0.537182	-0.324497	0	0	-0.298918	0.1619	0.292191	0.192766	0.20767	0.260313	0.415569	-0.228305	-0.19141	-0.552961	0.320464	0.142529	0.043431	0.152564	-0.386972	-0.12981	-0.635082	-0.226713	-0.420717	-0.224672	-0.354414	0.0404205	
0.519973	5.52063	0	5	-157.614	111.026	-0.593886	-0.069234	0	0	-0.531801	-0.319709	0	0	-0.287799	0.186158	0.310788	0.226636	0.218385	0.294324	0.426022	-0.208799	-0.186029	-0.543775	0.326378	0.172908	0.051938	0.169866	-0.38779	-0.118136	-0.640357	-0.219549	-0.417013	-0.214762	-0.357288	0.048543	
0.519763	5.51758	0	5	-155.307	109.518	-0.597681	-0.0444145	0	0	-0.538954	-0.309494	0	0	-0.289182	0.212385	0.31942	0.267329	0.230061	0.312922	0.429604	-0.182053	-0.187492	-0.53964	0.332268	0.203474	0.0558525	0.186417	-0.387758	-0.10886	-0.644775	-0.214803	-0.418005	-0.201762	-0.358726	0.052607	
0.51968	5.5191	0	5	-153	108.011	-0.601476	-0.019595	0	0	-0.546107	-0.299279	0	0	-0.290564	0.238612	0.328051	0.308022	0.241736	0.331519	0.433187	-0.155308	-0.188955	-0.535504	0.338159	0.23404	0.059767	0.202968	-0.387726	-0.099584	-0.649193	-0.210056	-0.418996	-0.188761	-0.360164	0.056671	
0.520005	5.52215	0	5	-150.693	106.503	-0.605271	0.0052245	0	0	-0.55326	-0.289063	0	0	-0.291946	0.264838	0.336682	0.348715	0.253412	0.350117	0.436769	-0.128562	-0.190419	-0.531368	0.344049	0.264606	0.0636815	0.219519	-0.387694	-0.090308	-0.653611	-0.20531	-0.419988	-0.17576	-0.361602	0.060735	
0.520922	5.52521	0	5	-148.385	104.996	-0.609066	0.030044	0	0	-0.560413	-0.278848	0	0	-0.293329	0.291065	0.345314	0.389408	0.265087	0.368715	0.440351	-0.101816	-0.191882	-0.527233	0.349939	0.295172	0.067596	0.23607	-0.387662	-0.081032	-0.658029	-0.200564	-0.42098	-0.16276	-0.36304	0.064799	
0.522228	5.53131	0	5	-146.086	103.493	-0.604672	0.0458448	0	0	-0.55759	-0.266819	0	0	-0.28591	0.314818	0.358926	0.427161	0.272557	0.386394	0.44836	-0.0751773	-0.189191	-0.522628	0.358084	0.319487	0.071505	0.252678	-0.384176	-0.072137	-0.659741	-0.195725	-0.41258	-0.155874	-0.357284	0.0735495	
0.523626	5.54352	0	5	-143.786	101.99	-0.600277	0.0616455	0	0	-0.554768	-0.25479	0	0	-0.278492	0.338572	0.372538	0.464915	0.280027	0.404073	0.456369	-0.0485385	-0.186501	-0.518023	0.366229	0.343801	0.075414	0.269286	-0.38069	-0.063242	-0.661453	-0.190886	-0.40418	-0.148989	-0.351528	0.0823	
0.524819	5.56335	0	5	-141.486	100.488	-0.595882	0.0774462	0	0	-0.551945	-0.242762	0	0	-0.271073	0.362325	0.38615	0.502668	0.287496	0.421752	0.464379	-0.0218997	-0.18381	-0.513418	0.374374	0.368115	0.079323	0.285894	-0.377203	-0.054347	-0.663166	-0.186047	-0.395779	-0.142103	-0.345772	0.0910505	
0.525551	5.57403	0	5	-139.187	98.9852	-0.591488	0.093247	0	0	-0.549122	-0.230733	0	0	-0.263654	0.386078	0.399762	0.540421	0.294966	0.439431	0.472388	0.004739	-0.181119	-0.508813	0.382519	0.39243	0.083232	0.302502	-0.373717	-0.045452	-0.664878	-0.181208	-0.387379	-0.135218	-0.340016	0.099801	
0.525869	5.59082	0	5	-136.938	97.5156	-0.59055	0.118861	0	0	-0.550148	-0.207807	0	0	-0.261404	0.413328	0.405575	0.578631	0.302439	0.457183	0.48162	0.0280535	-0.185517	-0.496383	0.385195	0.420447	0.091744	0.320005	-0.370231	-0.036539	-0.661903	-0.166385	-0.385579	-0.11986	-0.331373	0.112964	
0.525948	5.60913	0	5	-134.688	96.0459	-0.589613	0.144475	0	0	-0.551173	-0.184882	0	0	-0.259154	0.440578	0.411387	0.616841	0.309912	0.474934	0.490851	0.051368	-0.189915	-0.483954	0.387871	0.448463	0.100256	0.337508	-0.366744	-0.027626	-0.658929	-0.151562	-0.383779	-0.104502	-0.32273	0.126127	
0.525969	5.62439	0	5	-132.439	94.5763	-0.588676	0.17009	0	0	-0.552199	-0.161957	0	0	-0.256903	0.467828	0.4172	0.655051	0.317385	0.492686	0.500083	0.0746825	-0.194313	-0.471524	0.390547	0.47648	0.108768	0.355012	-0.363258	-0.018713	-0.655954	-0.13674	-0.381979	-0.089144	-0.314087	0.139289	
0.526098	5.63812	0	5	-130.19	93.1067	-0.587738	0.195704	0	0	-0.553224	-0.139031	0	0	-0.254653	0.495078	0.423012	0.693261	0.324858	0.510438	0.509315	0.097997	-0.198711	-0.459095	0.393223	0.504496	0.11728	0.372515	-0.359771	-0.0098	-0.65298	-0.121917	-0.380179	-0.073786	-0.305444	0.152452	
0.526359	5.64728	0	5	-128.005	91.679	-0.588562	0.226339	0	0	-0.550186	-0.107497	0	0	-0.245041	0.524064	0.432221	0.722032	0.338318	0.524352	0.512844	0.125164	-0.191865	-0.453999	0.392695	0.529744	0.120459	0.405181	-0.354541	0.0036035	-0.648035	-0.097113	-0.371821	-0.0564475	-0.295353	0.174171	
0.526661	5.66101	0	5	-125.82	90.2512	-0.589386	0.256974	0	0	-0.547148	-0.0759635	0	0	-0.235428	0.553049	0.44143	0.750803	0.351778	0.538266	0.516373	0.152331	-0.18502	-0.448904	0.392168	0.554992	0.123639	0.437848	-0.34931	0.017007	-0.64309	-0.072309	-0.363464	-0.039109	-0.285262	0.19589	
0.526911	5.66864	0	5	-123.635	88.8234	-0.59021	0.287609	0	0	-0.544109	-0.0444297	0	0	-0.225816	0.582035	0.450639	0.779575	0.365238	0.552181	0.519902	0.179498	-0.178174	-0.443808	0.391641	0.580239	0.126819	0.470515	-0.34408	0.0304105	-0.638145	-0.047505	-0.355106	-0.0217705	-0.27517	0.217609	
0.527021	5.67627	0	5	-121.45	87.3957	-0.591034	0.318244	0	0	-0.541071	-0.012896	0	0	-0.216203	0.611021	0.459848	0.808346	0.378698	0.566095	0.523431	0.206665	-0.171328	-0.438712	0.391113	0.605487	0.129998	0.503181	-0.33885	0.043814	-0.6332	-0.022701	-0.346749	-0.004432	-0.265079	0.239328	
0.527014	5.67779	5	0	-118.891	85.7237	-0.580575	0.345427	0	0	-0.536027	0.0231218	0	0	-0.211787	0.643585	0.462378	0.834151	0.386934	0.594919	0.530657	0.223458	-0.167417	-0.425289	0.394013	0.621078	0.134929	0.530991	-0.33621	0.0645815	-0.62457	0.00733625	-0.333655	0.009888	-0.259353	0.273519	
0.527073	5.69	5	0	-116.332	84.0517	-0.570115	0.37261	0	0	-0.530984	0.0591395	0	0	-0.207371	0.676148	0.464909	0.859955	0.395169	0.623743	0.537883	0.240251	-0.163506	-0.411867	0.396914	0.636669	0.13986	0.558801	-0.33357	0.085349	-0.615941	0.0373735	-0.320562	0.024208	-0.253627	0.30771	
0.527391	5.69458	5	0	-113.774	82.3797	-0.559656	0.399793	0	0	-0.525941	0.0951572	0	0	-0.202954	0.708712	0.46744	0.88576	0.403405	0.652567	0.545108	0.257044	-0.159596	-0.398444	0.399814	0.65226	0.144792	0.58661	-0.330931	0.106117	-0.607311	0.0674108	-0.307468	0.038528	-0.247901	0.341901	
0.528161	5.70373	5	0	-111.215	80.7077	-0.549197	0.426976	0	0	-0.520897	0.131175	0	0	-0.198538	0.741275	0.46997	0.911565	0.411641	0.681391	0.552334	0.273837	-0.155685	-0.385021	0.402714	0.667851	0.149723	0.61442	-0.328291	0.126884	-0.598681	0.097448	-0.294375	0.052848	-0.242175	0.376092	
0.529473	5.70221	5	0	-109.114	79.3347	-0.535682	0.459952	0	0	-0.512552	0.168095	0	0	-0.188953	0.770645	0.481013	0.924388	0.427649	0.70148	0.556324	0.287409	-0.147607	-0.371076	0.403585	0.677294	0.165696	0.639062	-0.323059	0.1498	-0.586357	0.132832	-0.285101	0.0781058	-0.227771	0.411201	
0.531156	5.70984	5	0	-107.012	77.9617	-0.522166	0.492927	0	0	-0.504206	0.205014	0	0	-0.179368	0.800015	0.492055	0.937211	0.443657	0.721568	0.560315	0.300982	-0.13953	-0.357131	0.404456	0.686736	0.181669	0.663704	-0.317826	0.172715	-0.574034	0.168216	-0.275828	0.103363	-0.213367	0.446311	
0.533001	5.71594	5	0	-104.911	76.5886	-0.508651	0.525902	0	0	-0.49586	0.241934	0	0	-0.169783	0.829384	0.503098	0.950034	0.459666	0.741656	0.564306	0.314555	-0.131452	-0.343186	0.405328	0.696179	0.197643	0.688345	-0.312593	0.19563	-0.561711	0.203601	-0.266554	0.128621	-0.198964	0.481421	
0.534798	5.71594	5	0	-102.81	75.2156	-0.495136	0.558878	0	0	-0.487515	0.278854	0	0	-0.160198	0.858754	0.514141	0.962857	0.475674	0.761745	0.568296	0.328127	-0.123374	-0.329241	0.406199	0.705622	0.213616	0.712987	-0.307361	0.218546	-0.549387	0.238985	-0.25728	0.153879	-0.18456	0.51653	
0.536355	5.71899	5	0	-100.655	73.8079	-0.4882	0.596409	0	0	-0.485175	0.322813	0	0	-0.155839	0.891724	0.515042	0.982366	0.49246	0.793004	0.572285	0.341739	-0.115556	-0.302191	0.405912	0.718345	0.221361	0.747115	-0.301272	0.248575	-0.541459	0.287058	-0.250911	0.187487	-0.171626	0.556102	
0.537592	5.71594	5	0	-98.5009	72.4002	-0.481263	0.633939	0	0	-0.482835	0.366772	0	0	-0.151479	0.924694	0.515943	1.00187	0.509247	0.824263	0.576273	0.355352	-0.107739	-0.275141	0.405625	0.731068	0.229107	0.781242	-0.295183	0.278604	-0.533532	0.33513	-0.244542	0.221096	-0.158691	0.595674	
0.538466	5.71899	5	0	-96.3465	70.9924	-0.474327	0.671469	0	0	-0.480495	0.41073	0	0	-0.14712	0.957665	0.516845	1.02138	0.526033	0.855521	0.580261	0.368964	-0.0999208	-0.248091	0.405339	0.743791	0.236853	0.815369	-0.289094	0.308634	-0.525605	0.383203	-0.238173	0.254705	-0.145757	0.635247	
0.538934	5.71442	5	0	-94.1921	69.5847	-0.46739	0.709	0	0	-0.478155	0.454689	0	0	-0.142761	0.990635	0.517746	1.04089	0.54282	0.88678	0.58425	0.382576	-0.092103	-0.221041	0.405052	0.756514	0.244598	0.849497	-0.283005	0.338663	-0.517677	0.431276	-0.231804	0.288313	-0.132823	0.674819	
0.538962	5.70984	5	0	-91.3077	67.7	-0.467094	0.751128	0	0	-0.47457	0.495266	0	0	-0.130993	1.02552	0.523718	1.05715	0.557856	0.92332	0.581251	0.403506	-0.080107	-0.19333	0.406775	0.775493	0.261636	0.885687	-0.273449	0.3685	-0.507078	0.479944	-0.221667	0.321785	-0.117003	0.719318	
0.53866	5.70831	5	0	-88.4233	65.8153	-0.466798	0.793257	0	0	-0.470985	0.535844	0	0	-0.119225	1.0604	0.52969	1.0734	0.572892	0.95986	0.578252	0.424435	-0.068111	-0.16562	0.408498	0.794472	0.278674	0.921877	-0.263894	0.398336	-0.496479	0.528612	-0.21153	0.355256	-0.101183	0.763817	
0.538256	5.70526	5	0	-85.5389	63.9306	-0.466502	0.835386	0	0	-0.4674	0.576421	0	0	-0.107457	1.09529	0.535661	1.08965	0.587928	0.996399	0.575253	0.445364	-0.056115	-0.13791	0.410221	0.813451	0.295713	0.958067	-0.254338	0.428173	-0.48588	0.577281	-0.201393	0.388728	-0.0853623	0.808316	
0.537982	5.69916	5	0	-82.6545	62.0458	-0.466206	0.877514	0	0	-0.463815	0.616999	0	0	-0.095689	1.13017	0.541633	1.10591	0.602964	1.03294	0.572254	0.466294	-0.044119	-0.110199	0.411944	0.83243	0.312751	0.994257	-0.244782	0.45801	-0.475281	0.625949	-0.191256	0.4222	-0.069542	0.852815	
0.538071	5.68848	0	5	-80.7416	60.7959	-0.465985	0.919954	0	0	-0.462318	0.653437	0	0	-0.0944332	1.17219	0.544109	1.1321	0.616213	1.07487	0.579466	0.483326	-0.0351135	-0.0738323	0.417992	0.851166	0.323303	1.03501	-0.236996	0.493023	-0.462882	0.677777	-0.174489	0.457965	-0.0625313	0.896985	
0.538607	5.68542	0	5	-78.8287	59.546	-0.465763	0.962395	0	0	-0.460822	0.689875	0	0	-0.0931775	1.21421	0.546585	1.1583	0.629462	1.11679	0.586677	0.500358	-0.026108	-0.0374655	0.424041	0.869903	0.333855	1.07577	-0.22921	0.528037	-0.450483	0.729604	-0.157722	0.49373	-0.0555205	0.941156	
0.53941	5.67932	0	5	-76.9159	58.2961	-0.465542	1.00483	0	0	-0.459325	0.726313	0	0	-0.0919217	1.25623	0.54906	1.18449	0.642711	1.15872	0.593889	0.517391	-0.0171025	-0.00109875	0.43009	0.888639	0.344407	1.11653	-0.221424	0.56305	-0.438083	0.781432	-0.140956	0.529495	-0.0485098	0.985327	
0.540267	5.6839	0	5	-75.003	57.0462	-0.465321	1.04727	0	0	-0.457829	0.762751	0	0	-0.090666	1.29825	0.551536	1.21069	0.65596	1.20065	0.601101	0.534423	-0.008097	0.035268	0.436138	0.907375	0.354959	1.15728	-0.213638	0.598063	-0.425684	0.83326	-0.124189	0.56526	-0.041499	1.0295	
0.540966	5.67474	0	5	-73.8583	56.2982	-0.459785	1.0748	0	0	-0.455741	0.78741	0	0	-0.0811583	1.32849	0.548883	1.24035	0.664878	1.24185	0.601303	0.558836	0.002392	0.0676472	0.435506	0.933086	0.367328	1.19318	-0.204993	0.630825	-0.41891	0.877548	-0.118873	0.602393	-0.0271135	1.06591	
0.541336	5.67322	0	5	-72.7136	55.5502	-0.45425	1.10232	0	0	-0.453653	0.812069	0	0	-0.0716505	1.35874	0.546229	1.27001	0.673795	1.28304	0.601505	0.583249	0.012881	0.100026	0.434875	0.958796	0.379696	1.22907	-0.196349	0.663586	-0.412135	0.921836	-0.113557	0.639526	-0.012728	1.10233	
0.541415	5.67016	0	5	-71.5689	54.8023	-0.448715	1.12984	0	0	-0.451566	0.836729	0	0	-0.0621427	1.38898	0.543575	1.29966	0.682713	1.32424	0.601707	0.607662	0.02337	0.132406	0.434243	0.984506	0.392064	1.26496	-0.187704	0.696348	-0.405361	0.966124	-0.10824	0.67666	0.0016575	1.13874	
0.5413	5.67169	0	5	-70.4242	54.0543	-0.443179	1.15736	0	0	-0.449478	0.861388	0	0	-0.052635	1.41923	0.540922	1.32932	0.691631	1.36544	0.601909	0.632075	0.033859	0.164785	0.433611	1.01022	0.404433	1.30085	-0.17906	0.729109	-0.398587	1.01041	-0.102924	0.713793	0.016043	1.17516	
0.541088	5.66254	0	5	-67.5398	52.1696	-0.441937	1.16826	0	0	-0.451458	0.877182	0	0	-0.0543573	1.44699	0.53782	1.34918	0.699828	1.39557	0.603348	0.653027	0.0401212	0.196855	0.437298	1.03574	0.407401	1.3351	-0.176571	0.760301	-0.394677	1.04708	-0.0956673	0.745588	0.017167	1.21064	
0.540879	5.66101	0	5	-64.6554	50.2848	-0.440696	1.17916	0	0	-0.453439	0.892976	0	0	-0.0560795	1.47476	0.534718	1.36904	0.708025	1.42569	0.604787	0.673978	0.0463835	0.228924	0.440984	1.06127	0.410369	1.36935	-0.174082	0.791493	-0.390767	1.08375	-0.0884105	0.777384	0.018291	1.24612	
0.54078	5.65643	0	5	-61.771	48.4001	-0.439454	1.19006	0	0	-0.455419	0.90877	0	0	-0.0578017	1.50252	0.531616	1.38889	0.716222	1.45582	0.606225	0.694929	0.0526458	0.260994	0.444671	1.0868	0.413338	1.4036	-0.171593	0.822685	-0.386857	1.12041	-0.0811537	0.80918	0.019415	1.2816	
0.540908	5.65338	0	5	-58.8866	46.5154	-0.438212	1.20096	0	0	-0.4574	0.924564	0	0	-0.059524	1.53028	0.528514	1.40875	0.724419	1.48595	0.607664	0.715881	0.058908	0.293064	0.448357	1.11232	0.416306	1.43785	-0.169104	0.853877	-0.382947	1.15708	-0.073897	0.840975	0.020539	1.31708	
0.541377	5.64575	0	5	-56.9738	45.2655	-0.438212	1.20096	0	0	-0.45404	0.925273	0	0	-0.0566598	1.54511	0.52264	1.42535	0.725775	1.50882	0.60782	0.740491	0.0582243	0.319931	0.442144	1.14188	0.42296	1.46178	-0.163074	0.875139	-0.380972	1.18338	-0.0675098	0.864874	0.02619	1.33984	
0.542302	5.63965	0	5	-55.0609	44.0156	-0.438212	1.20096	0	0	-0.450681	0.925981	0	0	-0.0537955	1.55994	0.516765	1.44196	0.727131	1.53169	0.607976	0.765101	0.0575405	0.346797	0.435932	1.17143	0.429613	1.48571	-0.157044	0.896402	-0.378997	1.20968	-0.0611225	0.888772	0.031841	1.36261	
0.543648	5.63812	0	5	-53.148	42.7656	-0.438212	1.20096	0	0	-0.447322	0.926689	0	0	-0.0509312	1.57477	0.510891	1.45856	0.728487	1.55456	0.608133	0.789711	0.0568567	0.373663	0.42972	1.20099	0.436267	1.50964	-0.151014	0.917664	-0.377023	1.23598	-0.0547352	0.912671	0.037492	1.38537	
0.545103	5.63202	0	5	-51.2351	41.5157	-0.438212	1.20096	0	0	-0.443962	0.927398	0	0	-0.048067	1.5896	0.505016	1.47516	0.729843	1.57743	0.608289	0.814321	0.056173	0.40053	0.423507	1.23054	0.442921	1.53357	-0.144984	0.938927	-0.375048	1.26228	-0.048348	0.93657	0.043143	1.40814	
0.546326	5.61981	5	0	-48.7689	39.9043	-0.431574	1.19663	0	0	-0.4406	0.928106	0	0	-0.0436662	1.60011	0.50384	1.47849	0.734841	1.59005	0.605185	0.835631	0.0585138	0.418882	0.418434	1.25688	0.433591	1.55994	-0.14338	0.963174	-0.374952	1.28595	-0.0544883	0.964426	0.042825	1.43491	
0.546979	5.61523	5	0	-46.3028	38.2929	-0.424937	1.19229	0	0	-0.437238	0.928815	0	0	-0.0392655	1.61063	0.502663	1.48181	0.739838	1.60267	0.602081	0.856941	0.0608545	0.437234	0.413362	1.28322	0.424262	1.58631	-0.141776	0.987422	-0.374856	1.30962	-0.0606285	0.992281	0.042507	1.46168	
0.546806	5.61218	5	0	-43.8367	36.6814	-0.418299	1.18795	0	0	-0.433877	0.929523	0	0	-0.0348647	1.62114	0.501487	1.48513	0.744835	1.61529	0.598978	0.878251	0.0631952	0.455586	0.408289	1.30957	0.414932	1.61267	-0.140172	1.01167	-0.37476	1.3333	-0.0667688	1.02014	0.042189	1.48844	
0.546032	5.60608	5	0	-41.3705	35.07	-0.411662	1.18361	0	0	-0.430515	0.930232	0	0	-0.030464	1.63166	0.500311	1.48846	0.749833	1.6279	0.595874	0.899561	0.065536	0.473938	0.403216	1.33591	0.405602	1.63904	-0.138568	1.03592	-0.374664	1.35697	-0.072909	1.04799	0.041871	1.51521	
0.54504	5.59692	5	0	-37.8947	32.7988	-0.415261	1.19379	0	0	-0.425125	0.935432	0	0	-0.026062	1.6422	0.501487	1.48513	0.752996	1.64574	0.590792	0.913925	0.0609507	0.486897	0.397313	1.35259	0.403733	1.64432	-0.144855	1.05368	-0.378291	1.37521	-0.0760777	1.06746	0.0417003	1.52864	
0.544216	5.59082	5	0	-34.4189	30.5276	-0.41886	1.20396	0	0	-0.419735	0.940632	0	0	-0.02166	1.65274	0.502663	1.48181	0.75616	1.66358	0.585709	0.928289	0.0563655	0.499856	0.39141	1.36927	0.401864	1.64961	-0.151141	1.07145	-0.381918	1.39345	-0.0792465	1.08692	0.0415295	1.54207	
0.543925	5.59082	5	0	-30.943	28.2565	-0.422459	1.21413	0	0	-0.414344	0.945832	0	0	-0.017258	1.66328	0.50384	1.47849	0.759324	1.68142	0.580626	0.942652	0.0517802	0.512814	0.385506	1.38596	0.399994	1.65489	-0.157428	1.08922	-0.385546	1.41169	-0.0824152	1.10638	0.0413587	1.5555	
0.544172	5.58624	5	0	-27.4672	25.9853	-0.426058	1.2243	0	0	-0.408954	0.951032	0	0	-0.012856	1.67382	0.505016	1.47516	0.762487	1.69926	0.575544	0.957016	0.047195	0.525773	0.379603	1.40264	0.398125	1.66017	-0.163715	1.10699	-0.389173	1.42993	-0.085584	1.12584	0.041188	1.56893	
0.544642	5.57556	5	0	-27.4672	25.9853	-0.421216	1.22505	0	0	-0.404899	0.960029	0	0	-0.00690525	1.68001	0.516409	1.46516	0.771158	1.70158	0.575544	0.957016	0.047195	0.525773	0.376441	1.39957	0.399994	1.65489	-0.169931	1.11496	-0.395593	1.44009	-0.0914225	1.13184	0.0336945	1.57716	
0.545007	5.57403	5	0	-27.4672	25.9853	-0.416375	1.2258	0	0	-0.400844	0.969027	0	0	-0.0009545	1.6862	0.527802	1.45516	0.779829	1.70389	0.575544	0.957016	0.047195	0.525773	0.373278	1.39651	0.401864	1.64961	-0.176148	1.12292	-0.402014	1.45024	-0.097261	1.13783	0.026201	1.58539	
0.544941	5.57861	5	0	-27.4672	25.9853	-0.411533	1.22655	0	0	-0.39679	0.978024	0	0	0.00499625	1.69239	0.539196	1.44516	0.7885	1.7062	0.575544	0.957016	0.047195	0.525773	0.370115	1.39344	0.403733	1.64432	-0.182364	1.13089	-0.408434	1.4604	-0.103099	1.14382	0.0187075	1.59362	
0.544301	5.57556	5	0	-27.4672	25.9853	-0.406692	1.2273	0	0	-0.392735	0.987021	0	0	0.010947	1.69858	0.550589	1.43516	0.797171	1.70851	0.575544	0.957016	0.047195	0.525773	0.366953	1.39037	0.405602	1.63904	-0.18858	1.13886	-0.414854	1.47056	-0.108938	1.14981	0.011214	1.60185	
0.543371	5.57403	5	0	-27.4672	25.9853	-0.408494	1.23239	0	0	-0.393393	0.999118	0	0	0.016904	1.70478	0.554114	1.4252	0.799673	1.71487	0.579356	0.946241	0.0502525	0.517132	0.368508	1.37398	0.404642	1.6275	-0.197325	1.13481	-0.420374	1.47019	-0.114596	1.14481	-0.0110475	1.61306	
0.542494	5.56946	5	0	-27.4672	25.9853	-0.410296	1.23748	0	0	-0.394051	1.01121	0	0	0.022861	1.71098	0.557638	1.41524	0.802175	1.72122	0.583169	0.935466	0.05331	0.50849	0.370064	1.35759	0.403682	1.61596	-0.20607	1.13076	-0.425894	1.46982	-0.120254	1.1398	-0.033309	1.62428	
0.542016	5.57251	5	0	-27.4672	25.9853	-0.412098	1.24258	0	0	-0.39471	1.02331	0	0	0.028818	1.71719	0.561163	1.40528	0.804677	1.72757	0.586982	0.924691	0.0563675	0.499849	0.371619	1.34119	0.402721	1.60441	-0.214815	1.12671	-0.431413	1.46945	-0.125913	1.13479	-0.0555705	1.63549	
0.542214	5.57098	5	0	-27.4672	25.9853	-0.4139	1.24767	0	0	-0.395368	1.03541	0	0	0.034775	1.72339	0.564688	1.39532	0.807179	1.73393	0.590794	0.913916	0.059425	0.491208	0.373175	1.3248	0.401761	1.59287	-0.22356	1.12266	-0.436933	1.46908	-0.131571	1.12978	-0.077832	1.6467	
0.54294	5.56946	0	5	-20.6004	19.489	-0.415703	1.25277	0	0	-0.393342	1.03993	0	0	0.0400812	1.71992	0.567036	1.38868	0.8152	1.72469	0.588831	0.906925	0.0624798	0.482575	0.374718	1.30845	0.402657	1.57609	-0.223405	1.10307	-0.437882	1.45581	-0.137051	1.11382	-0.0789857	1.62417	
0.543879	5.56183	0	5	-13.7336	12.9926	-0.417507	1.25786	0	0	-0.391316	1.04444	0	0	0.0453875	1.71645	0.569384	1.38205	0.823222	1.71545	0.586869	0.899934	0.0655345	0.473942	0.376262	1.2921	0.403554	1.55932	-0.223251	1.08348	-0.43883	1.44254	-0.142532	1.09786	-0.0801395	1.60163	
0.544714	5.56488	0	5	-6.8668	6.49632	-0.41931	1.26296	0	0	-0.38929	1.04896	0	0	0.0506938	1.71299	0.571731	1.37541	0.831244	1.70622	0.584906	0.892943	0.0685893	0.46531	0.377805	1.27575	0.40445	1.54254	-0.223096	1.06389	-0.439778	1.42927	-0.148012	1.08189	-0.0812933	1.57909	
0.54514	5.56488	0	5	0	0	-0.421113	1.26805	0	0	-0.387264	1.05348	0	0	0.056	1.70952	0.574079	1.36878	0.839265	1.69698	0.582943	0.885952	0.071644	0.456677	0.379348	1.2594	0.405346	1.52576	-0.222941	1.0443	-0.440727	1.41599	-0.153493	1.06593	-0.082447	1.55655	
0.545053	5.56183	0	5	0	0	-0.422917	1.27315	0	0	-0.386584	1.0618	0	0	0.0597595	1.71043	0.577597	1.35883	0.837426	1.70218	0.585479	0.878784	0.0731702	0.452364	0.380879	1.24309	0.407206	1.5205	-0.228095	1.03018	-0.437079	1.40569	-0.144523	1.04058	-0.086669	1.54272	
0.544565	5.5542	0	5	0	0	-0.424721	1.27825	0	0	-0.385904	1.07013	0	0	0.063519	1.71134	0.581116	1.34889	0.835588	1.70737	0.588015	0.871617	0.0746965	0.448051	0.38241	1.22678	0.409067	1.51524	-0.233249	1.01605	-0.433431	1.39538	-0.135553	1.01523	-0.090891	1.5289	
0.543794	5.55725	0	5	0	0	-0.426525	1.28335	0	0	-0.385224	1.07845	0	0	0.0672785	1.71225	0.584634	1.33895	0.833749	1.71257	0.590551	0.864449	0.0762228	0.443737	0.383941	1.21047	0.410928	1.50998	-0.238404	1.00193	-0.429784	1.38507	-0.126583	0.989875	-0.095113	1.51507	
0.54286	5.55572	0	5	0	0	-0.428329	1.28845	0	0	-0.384544	1.08678	0	0	0.071038	1.71317	0.588152	1.329	0.83191	1.71777	0.593087	0.857282	0.077749	0.439424	0.385472	1.19416	0.412788	1.50473	-0.243558	0.987804	-0.426136	1.37476	-0.117613	0.964524	-0.099335	1.50124	
0.541886	5.54962	0	5	0	0	-0.431941	1.29866	0	0	-0.385215	1.09893	0	0	0.0694873	1.71755	0.591666	1.31907	0.825727	1.72181	0.594355	0.8537	0.0762228	0.443737	0.38582	1.1812	0.412788	1.50473	-0.242599	0.975541	-0.422465	1.37236	-0.123272	0.959577	-0.0947633	1.48832	
0.540999	5.54657	0	5	0	0	-0.435552	1.30886	0	0	-0.385886	1.11108	0	0	0.0679365	1.72193	0.595181	1.30914	0.819545	1.72585	0.595622	0.850119	0.0746965	0.448051	0.386169	1.16824	0.412788	1.50473	-0.241641	0.963278	-0.418795	1.36996	-0.128931	0.954631	-0.0901915	1.4754	
0.540331	5.54352	0	5	0	0	-0.439163	1.31907	0	0	-0.386557	1.12323	0	0	0.0663858	1.72631	0.598695	1.29921	0.813362	1.72989	0.59689	0.846538	0.0731702	0.452364	0.386517	1.15529	0.412788	1.50473	-0.240682	0.951014	-0.415125	1.36756	-0.134589	0.949684	-0.0856197	1.46247	
0.540011	5.54047	0	5	0	0	-0.442775	1.32927	0	0	-0.387228	1.13538	0	0	0.064835	1.7307	0.602209	1.28928	0.807179	1.73393	0.598157	0.842956	0.071644	0.456677	0.386865	1.14233	0.412788	1.50473	-0.239724	0.938751	-0.411454	1.36516	-0.140248	0.944737	-0.081048	1.44955	
0.540145	5.53589	0	5	0	0	-0.4482	1.34461	0	0	-0.392628	1.15064	0	0	0.0626263	1.7254	0.595502	1.28603	0.817709	1.73104	0.601956	0.83222	0.0758685	0.457234	0.388375	1.12609	0.419345	1.50044	-0.233543	0.930838	-0.406844	1.36809	-0.133443	0.935973	-0.0795255	1.44525	
0.540679	5.53436	0	5	0	0	-0.453624	1.35994	0	0	-0.398027	1.1659	0	0	0.0604175	1.72011	0.588795	1.28279	0.828239	1.72816	0.605754	0.821484	0.080093	0.457792	0.389884	1.10986	0.425901	1.49616	-0.227363	0.922925	-0.402234	1.37103	-0.126639	0.927208	-0.078003	1.44095	
0.541494	5.52826	0	5	0	0	-0.459049	1.37527	0	0	-0.403427	1.18116	0	0	0.0582088	1.71481	0.582088	1.27954	0.838769	1.72528	0.609553	0.810748	0.0843175	0.458349	0.391394	1.09363	0.432457	1.49187	-0.221183	0.915012	-0.397623	1.37396	-0.119834	0.918443	-0.0764805	1.43664	
0.54247	5.52826	0	5	0	0	-0.464474	1.3906	0	0	-0.408826	1.19642	0	0	0.056	1.70952	0.575381	1.2763	0.849299	1.72239	0.613352	0.800012	0.088542	0.458906	0.392903	1.0774	0.439014	1.48759	-0.215002	0.907099	-0.393013	1.37689	-0.113029	0.909679	-0.074958	1.43234	
0.543485	5.52063	0	5	0	0	-0.472927	1.40006	0	0	-0.408826	1.19642	0	0	0.0515835	1.69895	0.577286	1.25982	0.844952	1.72124	0.611379	0.793057	0.0927695	0.459463	0.390066	1.06151	0.440873	1.48233	-0.217617	0.904935	-0.387486	1.37724	-0.114868	0.904408	-0.0793582	1.43191	
0.544435	5.5191	0	5	0	0	-0.48138	1.40951	0	0	-0.408826	1.19642	0	0	0.047167	1.68838	0.579191	1.24335	0.840604	1.72008	0.609406	0.786102	0.096997	0.46002	0.387228	1.04562	0.442732	1.47708	-0.220232	0.902772	-0.381959	1.3776	-0.116706	0.899138	-0.0837585	1.43148	
0.545231	5.51605	0	5	0	0	-0.489834	1.41897	0	0	-0.408826	1.19642	0	0	0.0427505	1.67781	0.581096	1.22688	0.836257	1.71892	0.607434	0.779147	0.101224	0.460576	0.38439	1.02973	0.444592	1.47182	-0.222847	0.900608	-0.376432	1.37795	-0.118544	0.893867	-0.0881588	1.43105	
0.545784	5.51605	0	5	0	0	-0.498287	1.42843	0	0	-0.408826	1.19642	0	0	0.038334	1.66724	0.583001	1.2104	0.83191	1.71777	0.605461	0.772192	0.105452	0.461133	0.381553	1.01384	0.446451	1.46657	-0.225462	0.898444	-0.370905	1.3783	-0.120383	0.888596	-0.092559	1.43062	
0.546006	5.51147	0	5	0	0	-0.509746	1.43198	0	0	-0.414211	1.19114	0	0	0.0317112	1.65143	0.580959	1.19401	0.83124	1.70623	0.601514	0.758313	0.10698	0.456816	0.37987	0.994713	0.44361	1.46035	-0.223681	0.89341	-0.375495	1.38329	-0.119391	0.885792	-0.091038	1.42632	
0.54587	5.50995	0	5	0	0	-0.521206	1.43554	0	0	-0.419597	1.18585	0	0	0.0250885	1.63563	0.578918	1.17762	0.830571	1.69469	0.597567	0.744434	0.108508	0.452499	0.378188	0.975589	0.440769	1.45414	-0.221899	0.888375	-0.380084	1.38827	-0.118399	0.882987	-0.089517	1.42202	
0.545532	5.50537	0	5	0	0	-0.532666	1.43909	0	0	-0.424982	1.18057	0	0	0.0184657	1.61982	0.576877	1.16123	0.829901	1.68314	0.593619	0.730555	0.110035	0.448181	0.376505	0.956465	0.437928	1.44792	-0.220118	0.883341	-0.384674	1.39325	-0.117406	0.880182	-0.087996	1.41772	
0.545179	5.50384	0	5	0	0	-0.544125	1.44265	0	0	-0.430367	1.17529	0	0	0.011843	1.60401	0.574835	1.14484	0.829231	1.6716	0.589672	0.716676	0.111563	0.443864	0.374823	0.937341	0.435087	1.44171	-0.218337	0.878307	-0.389264	1.39823	-0.116414	0.877378	-0.086475	1.41342	
0.544997	5.49774	0	5	0	0	-0.554955	1.43009	0	0	-0.445826	1.16783	0	0	0.00301625	1.58303	0.566534	1.13511	0.822383	1.66412	0.590216	0.702636	0.117322	0.440101	0.37081	0.924835	0.438798	1.43122	-0.222732	0.881179	-0.389264	1.39823	-0.118254	0.872116	-0.0805527	1.40955	
0.545149	5.49469	0	5	0	0	-0.565786	1.41753	0	0	-0.461285	1.16036	0	0	-0.0058105	1.56204	0.558234	1.12537	0.815534	1.65664	0.590759	0.688596	0.123081	0.436337	0.366796	0.912329	0.44251	1.42073	-0.227127	0.88405	-0.389264	1.39823	-0.120093	0.866854	-0.0746305	1.40568	
0.54559	5.49316	0	5	0	0	-0.576617	1.40498	0	0	-0.476744	1.15289	0	0	-0.0146372	1.54105	0.549934	1.11564	0.808686	1.64915	0.591302	0.674556	0.12884	0.432574	0.362783	0.899823	0.446221	1.41024	-0.231522	0.886922	-0.389264	1.39823	-0.121933	0.861593	-0.0687082	1.40181	
0.546167	5.49469	0	5	0	0	-0.587447	1.39242	0	0	-0.492203	1.14543	0	0	-0.023464	1.52007	0.541633	1.10591	0.801837	1.64167	0.591846	0.660516	0.134599	0.428811	0.358769	0.887317	0.449932	1.39975	-0.235917	0.889794	-0.389264	1.39823	-0.123773	0.856331	-0.062786	1.39794	
0.546727	5.49469	0	5	0	0	-0.589856	1.37051	0	0	-0.496892	1.12805	0	0	-0.0353487	1.50783	0.527108	1.10279	0.794996	1.6342	0.589867	0.653611	0.12884	0.432574	0.361086	0.880767	0.445234	1.39879	-0.235917	0.889794	-0.388351	1.39565	-0.127594	0.856674	-0.0687082	1.40181	
0.547118	5.49164	0	5	0	0	-0.592266	1.3486	0	0	-0.501581	1.11068	0	0	-0.0472335	1.4956	0.512584	1.09968	0.788156	1.62674	0.587889	0.646705	0.123081	0.436337	0.363404	0.874218	0.440537	1.39784	-0.235917	0.889794	-0.387438	1.39307	-0.131414	0.857017	-0.0746305	1.40568	
0.547248	5.48859	0	5	0	0	-0.594675	1.32668	0	0	-0.50627	1.0933	0	0	-0.0591182	1.48337	0.498059	1.09657	0.781316	1.61927	0.585911	0.6398	0.117322	0.440101	0.365722	0.867668	0.43584	1.39688	-0.235917	0.889794	-0.386525	1.39049	-0.135235	0.857361	-0.0805527	1.40955	
0.547106	5.49316	0	5	0	0	-0.597084	1.30477	0	0	-0.510959	1.07593	0	0	-0.071003	1.47114	0.483535	1.09345	0.774475	1.6118	0.583932	0.632895	0.111563	0.443864	0.368039	0.861118	0.431142	1.39592	-0.235917	0.889794	-0.385612	1.38791	-0.139056	0.857704	-0.086475	1.41342	
0.546689	5.48859	0	5	0	0	-0.60431	1.28219	0	0	-0.510964	1.05556	0	0	-0.0776082	1.45552	0.476426	1.08049	0.765816	1.60951	0.574954	0.633302	0.110035	0.448181	0.357077	0.868281	0.424596	1.4002	-0.24031	0.892664	-0.384699	1.38533	-0.144856	0.863648	-0.086475	1.41342	
0.545993	5.48401	0	5	0	0	-0.611536	1.25962	0	0	-0.51097	1.03518	0	0	-0.0842135	1.43989	0.469317	1.06753	0.757157	1.60723	0.565975	0.633709	0.108508	0.452499	0.346114	0.875444	0.418049	1.40447	-0.244702	0.895535	-0.383787	1.38275	-0.150657	0.869591	-0.086475	1.41342	
0.545032	5.48096	0	5	0	0	-0.618761	1.23704	0	0	-0.510975	1.01481	0	0	-0.0908188	1.42427	0.462209	1.05456	0.748497	1.60494	0.556997	0.634115	0.10698	0.456816	0.335152	0.882607	0.411502	1.40875	-0.249095	0.898405	-0.382874	1.38018	-0.156457	0.875534	-0.086475	1.41342	
0.543881	5.48706	0	5	0	0	-0.625987	1.21446	0	0	-0.51098	0.994434	0	0	-0.097424	1.40865	0.4551	1.0416	0.739838	1.60265	0.548019	0.634522	0.105452	0.461133	0.32419	0.88977	0.404956	1.41303	-0.253488	0.901276	-0.381961	1.3776	-0.162257	0.881478	-0.086475	1.41342	
0.542635	5.48553	0	5	0	0	-0.625416	1.19854	0	0	-0.508986	0.978613	0	0	-0.100302	1.39395	0.455362	1.01886	0.743491	1.59232	0.540309	0.631378	0.101224	0.460576	0.32103	0.886803	0.397433	1.40587	-0.256988	0.901629	-0.393005	1.37689	-0.164091	0.876219	-0.0983072	1.42115	
0.541385	5.47943	0	5	0	0	-0.624845	1.18261	0	0	-0.506992	0.962792	0	0	-0.10318	1.37926	0.455624	0.996115	0.747144	1.582	0.532598	0.628235	0.096997	0.46002	0.31787	0.883836	0.389911	1.39872	-0.260489	0.901981	-0.404049	1.37618	-0.165926	0.870959	-0.11014	1.42888	
0.540225	5.47943	0	5	0	0	-0.624275	1.16669	0	0	-0.504999	0.94697	0	0	-0.106058	1.36457	0.455886	0.973371	0.750797	1.57168	0.524888	0.625091	0.0927695	0.459463	0.31471	0.88087	0.382388	1.39156	-0.263989	0.902334	-0.415092	1.37547	-0.16776	0.865699	-0.121972	1.43662	
0.539235	5.48248	0	5	0	0	-0.623704	1.15077	0	0	-0.503005	0.931149	0	0	-0.108936	1.34988	0.456148	0.950627	0.75445	1.56135	0.517178	0.621947	0.088542	0.458906	0.31155	0.877903	0.374866	1.38441	-0.267489	0.902687	-0.426136	1.37476	-0.169594	0.86044	-0.133804	1.44435	
0.538491	5.47943	0	5	0	0	-0.618347	1.13562	0	0	-0.496337	0.912304	0	0	-0.101327	1.32838	0.455239	0.931219	0.759922	1.54589	0.514487	0.604653	0.0831463	0.449171	0.306391	0.868711	0.366368	1.36589	-0.280581	0.901578	-0.437182	1.36615	-0.183846	0.859003	-0.139543	1.43489	
0.538068	5.47943	0	5	0	0	-0.612989	1.12048	0	0	-0.489669	0.893459	0	0	-0.0937185	1.30687	0.45433	0.911811	0.765394	1.53042	0.511795	0.587359	0.0777505	0.439435	0.301232	0.859519	0.35787	1.34736	-0.293673	0.90047	-0.448228	1.35754	-0.198097	0.857565	-0.145282	1.42544	
0.538039	5.4779	0	5	0	0	-0.607631	1.10534	0	0	-0.483001	0.874614	0	0	-0.0861097	1.28537	0.453421	0.892402	0.770866	1.51496	0.509103	0.570065	0.0723547	0.4297	0.296073	0.850326	0.349372	1.32884	-0.306765	0.899361	-0.459273	1.34894	-0.212349	0.856128	-0.151021	1.41599	
0.53838	5.47943	0	5	0	0	-0.602274	1.0902	0	0	-0.476333	0.855769	0	0	-0.078501	1.26386	0.452512	0.872994	0.776338	1.4995	0.506412	0.552771	0.066959	0.419965	0.290914	0.841134	0.340874	1.31032	-0.319857	0.898252	-0.470319	1.34033	-0.226601	0.854691	-0.15676	1.40653	
0.538935	5.47638	0	5	0	0	-0.601726	1.07435	0	0	-0.478355	0.851304	0	0	-0.0829195	1.25355	0.455493	0.853592	0.775648	1.48808	0.503712	0.535536	0.0646085	0.401658	0.286911	0.828704	0.334218	1.28668	-0.330257	0.889615	-0.482275	1.32644	-0.24264	0.848007	-0.166874	1.39667	
0.539538	5.4718	0	5	0	0	-0.601179	1.05851	0	0	-0.480378	0.846839	0	0	-0.087338	1.24324	0.458473	0.834191	0.774959	1.47666	0.501011	0.5183	0.062258	0.38335	0.282909	0.816274	0.327563	1.26305	-0.340658	0.880978	-0.494231	1.31256	-0.258679	0.841322	-0.176988	1.38681	
0.540021	5.46722	0	5	0	0	-0.600631	1.04266	0	0	-0.4824	0.842374	0	0	-0.0917565	1.23293	0.461454	0.814789	0.77427	1.46524	0.498311	0.501065	0.0599075	0.365043	0.278907	0.803843	0.320908	1.23941	-0.351058	0.872341	-0.506187	1.29867	-0.274717	0.834638	-0.187101	1.37695	
0.54028	5.46875	0	5	0	0	-0.600084	1.02681	0	0	-0.484422	0.837909	0	0	-0.096175	1.22263	0.464434	0.795387	0.77358	1.45382	0.495611	0.483829	0.057557	0.346736	0.274904	0.791413	0.314252	1.21578	-0.361459	0.863704	-0.518143	1.28478	-0.290756	0.827954	-0.197215	1.36709	
0.540413	5.46722	0	5	0	0	-0.598304	1.02178	0	0	-0.478406	0.831086	0	0	-0.0841657	1.21148	0.481893	0.779	0.765613	1.46298	0.508062	0.448642	0.0636307	0.32957	0.290725	0.758569	0.320577	1.18378	-0.369186	0.847589	-0.524624	1.26346	-0.298046	0.807051	-0.221912	1.36024	
0.540562	5.46265	0	5	0	0	-0.596524	1.01675	0	0	-0.472389	0.824264	0	0	-0.0721565	1.20034	0.499353	0.762612	0.757646	1.47214	0.520512	0.413454	0.0697045	0.312404	0.306546	0.725724	0.326902	1.15178	-0.376914	0.831475	-0.531105	1.24214	-0.305336	0.786147	-0.246608	1.35339	
0.54087	5.45654	0	5	0	0	-0.594745	1.01172	0	0	-0.466372	0.817441	0	0	-0.0601472	1.1892	0.516813	0.746225	0.749679	1.4813	0.532963	0.378267	0.0757782	0.295238	0.322366	0.69288	0.333228	1.11977	-0.384642	0.81536	-0.537586	1.22082	-0.312626	0.765244	-0.271305	1.34654	
0.541453	5.45959	0	5	0	0	-0.592965	1.00669	0	0	-0.460356	0.810618	0	0	-0.048138	1.17806	0.534272	0.729838	0.741712	1.49046	0.545413	0.343079	0.081852	0.278072	0.338187	0.660036	0.339553	1.08777	-0.392369	0.799245	-0.544067	1.1995	-0.319916	0.744341	-0.296001	1.33968	
0.54219	5.45349	0	5	0	0	-0.606113	1.01528	0	0	-0.461687	0.814379	0	0	-0.05187	1.1772	0.53885	0.7169	0.734199	1.47168	0.543909	0.322497	0.0836922	0.260409	0.330991	0.644794	0.334673	1.05925	-0.402681	0.781055	-0.547815	1.17844	-0.328186	0.726302	-0.294176	1.30904	
0.542827	5.45196	0	5	0	0	-0.619261	1.02387	0	0	-0.463017	0.81814	0	0	-0.055602	1.17634	0.543428	0.703962	0.726687	1.4529	0.542404	0.301915	0.0855325	0.242746	0.323795	0.629552	0.329793	1.03072	-0.412992	0.762865	-0.551562	1.15738	-0.336457	0.708262	-0.29235	1.27841	
0.543111	5.44586	0	5	0	0	-0.632409	1.03247	0	0	-0.464348	0.821901	0	0	-0.059334	1.17549	0.548006	0.691023	0.719174	1.43412	0.540899	0.281333	0.0873727	0.225083	0.316599	0.614309	0.324914	1.0022	-0.423304	0.744674	-0.55531	1.13632	-0.344727	0.690222	-0.290524	1.24777	
0.542794	5.44739	0	5	0	0	-0.645557	1.04106	0	0	-0.465679	0.825662	0	0	-0.063066	1.17464	0.552584	0.678085	0.711661	1.41534	0.539395	0.260751	0.089213	0.20742	0.309403	0.599067	0.320034	0.973674	-0.433616	0.726484	-0.559058	1.11527	-0.352998	0.672183	-0.288699	1.21713	
0.541876	5.44891	0	5	0	0	-0.642546	1.04683	0	0	-0.464987	0.833891	0	0	-0.063066	1.17464	0.546381	0.684624	0.700533	1.40687	0.531694	0.257713	0.086506	0.202615	0.309675	0.586453	0.309691	0.960686	-0.433518	0.707306	-0.555504	1.09732	-0.355665	0.659049	-0.291407	1.19934	
0.540693	5.44128	0	5	0	0	-0.639535	1.05259	0	0	-0.464294	0.842121	0	0	-0.063066	1.17464	0.540178	0.691162	0.689404	1.39839	0.523994	0.254676	0.083799	0.197811	0.309947	0.57384	0.299347	0.947698	-0.433419	0.688127	-0.55195	1.07937	-0.358332	0.645914	-0.294115	1.18155	
0.539607	5.43976	0	5	0	0	-0.636524	1.05836	0	0	-0.463602	0.85035	0	0	-0.063066	1.17464	0.533975	0.6977	0.678276	1.38992	0.516293	0.251638	0.081092	0.193006	0.310219	0.561227	0.289004	0.934711	-0.43332	0.668948	-0.548395	1.06142	-0.361	0.63278	-0.296824	1.16376	
0.538978	5.43671	0	5	0	0	-0.633513	1.06413	0	0	-0.46291	0.858579	0	0	-0.063066	1.17464	0.527772	0.704239	0.667147	1.38144	0.508592	0.248601	0.078385	0.188201	0.310491	0.548613	0.278661	0.921723	-0.433222	0.64977	-0.544841	1.04347	-0.363667	0.619646	-0.299532	1.14596	
0.539032	5.43671	0	5	0	0	-0.637077	1.07421	0	0	-0.46222	0.866821	0	0	-0.067616	1.18749	0.525483	0.710708	0.666455	1.37011	0.509829	0.245105	0.0741685	0.187672	0.308472	0.542482	0.275822	0.915695	-0.437522	0.643043	-0.542148	1.03586	-0.355981	0.608258	-0.299394	1.13286	
0.539564	5.43213	0	5	0	0	-0.640642	1.08428	0	0	-0.46153	0.875062	0	0	-0.072166	1.20035	0.523194	0.717177	0.665763	1.35877	0.511066	0.241609	0.069952	0.187143	0.306454	0.53635	0.272983	0.909668	-0.441823	0.636316	-0.539456	1.02825	-0.348295	0.596869	-0.299256	1.11976	
0.540283	5.43213	0	5	0	0	-0.644207	1.09435	0	0	-0.46084	0.883304	0	0	-0.076716	1.21321	0.520905	0.723646	0.665072	1.34744	0.512303	0.238113	0.0657355	0.186614	0.304435	0.530218	0.270143	0.90364	-0.446123	0.629588	-0.536763	1.02064	-0.34061	0.585481	-0.299117	1.10666	
0.540895	5.43365	0	5	0	0	-0.647771	1.10443	0	0	-0.46015	0.891546	0	0	-0.081266	1.22607	0.518616	0.730115	0.66438	1.3361	0.51354	0.234617	0.061519	0.186085	0.302416	0.524087	0.267304	0.897613	-0.450423	0.622861	-0.53407	1.01303	-0.332924	0.574093	-0.298979	1.09356	
0.541145	5.43365	5	0	0	0	-0.653126	1.11956	0	0	-0.460799	0.903577	0	0	-0.076018	1.22264	0.521384	0.733283	0.660074	1.33499	0.511065	0.24161	0.0672472	0.182342	0.303558	0.520859	0.269116	0.892491	-0.448669	0.617904	-0.529535	1.00812	-0.331948	0.571335	-0.297484	1.08934	
0.541084	5.42908	5	0	0	0	-0.65848	1.13469	0	0	-0.461448	0.915609	0	0	-0.07077	1.21921	0.524153	0.736452	0.655768	1.33388	0.508591	0.248603	0.0729755	0.178599	0.304701	0.517631	0.270929	0.887369	-0.446914	0.612947	-0.525	1.00321	-0.330971	0.568577	-0.295989	1.08511	
0.540925	5.42602	5	0	0	0	-0.663834	1.14982	0	0	-0.462096	0.92764	0	0	-0.065522	1.21578	0.526921	0.73962	0.651461	1.33277	0.506117	0.255597	0.0787037	0.174856	0.305843	0.514403	0.272742	0.882246	-0.44516	0.607989	-0.520466	0.998295	-0.329995	0.565818	-0.294494	1.08089	
0.540884	5.42908	5	0	0	0	-0.669189	1.16496	0	0	-0.462745	0.939672	0	0	-0.060274	1.21235	0.529689	0.742788	0.647155	1.33166	0.503642	0.26259	0.084432	0.171113	0.306985	0.511175	0.274554	0.877124	-0.443406	0.603032	-0.515931	0.993383	-0.329019	0.56306	-0.292999	1.07666	
0.541171	5.43213	5	0	0	0	-0.669766	1.18088	0	0	-0.4634	0.951727	0	0	-0.063311	1.22094	0.530165	0.752442	0.64896	1.32656	0.501166	0.269589	0.0829203	0.175385	0.305843	0.514403	0.279209	0.87802	-0.444283	0.60551	-0.511343	0.996234	-0.328167	0.57099	-0.290141	1.08129	
0.541853	5.43365	5	0	0	0	-0.670343	1.1968	0	0	-0.464056	0.963782	0	0	-0.066348	1.22952	0.53064	0.762096	0.650765	1.32146	0.498689	0.276588	0.0814085	0.179657	0.304701	0.517631	0.283864	0.878917	-0.44516	0.607989	-0.506754	0.999085	-0.327314	0.578919	-0.287282	1.08592	
0.542814	5.43365	5	0	0	0	-0.670919	1.21271	0	0	-0.464711	0.975838	0	0	-0.069385	1.2381	0.531116	0.77175	0.652571	1.31635	0.496213	0.283587	0.0798967	0.183929	0.303558	0.520859	0.288518	0.879814	-0.446037	0.610467	-0.502166	1.00194	-0.326461	0.586848	-0.284423	1.09056	
0.543926	5.43671	5	0	0	0	-0.671496	1.22863	0	0	-0.465367	0.987893	0	0	-0.072422	1.24669	0.531592	0.781404	0.654376	1.31125	0.493736	0.290586	0.078385	0.188201	0.302416	0.524087	0.293173	0.88071	-0.446914	0.612945	-0.497578	1.00479	-0.325609	0.594778	-0.281565	1.09519	
0.545062	5.44128	5	0	0	0	-0.672084	1.2446	0	0	-0.469386	0.999253	0	0	-0.0686905	1.24755	0.528615	0.800823	0.654376	1.31125	0.501433	0.293636	0.086828	0.189258	0.305578	0.526987	0.296017	0.886734	-0.442612	0.619669	-0.493885	1.01018	-0.321952	0.605139	-0.269983	1.10063	
0.546121	5.44433	5	0	0	0	-0.672672	1.26056	0	0	-0.473406	1.01061	0	0	-0.064959	1.24841	0.525637	0.820242	0.654376	1.31125	0.509129	0.296686	0.095271	0.190314	0.30874	0.529887	0.298862	0.892758	-0.438311	0.626392	-0.490191	1.01557	-0.318295	0.615499	-0.258401	1.10608	
0.547088	5.44128	5	0	0	0	-0.67326	1.27652	0	0	-0.477426	1.02197	0	0	-0.0612275	1.24928	0.52266	0.83966	0.654376	1.31125	0.516826	0.299736	0.103714	0.191371	0.311903	0.532787	0.301706	0.898782	-0.434009	0.633116	-0.486498	1.02097	-0.314639	0.62586	-0.246819	1.11153	
0.547964	5.44586	5	0	0	0	-0.673848	1.29248	0	0	-0.481445	1.03333	0	0	-0.057496	1.25014	0.519683	0.859079	0.654376	1.31125	0.524522	0.302786	0.112157	0.192428	0.315065	0.535687	0.30455	0.904806	-0.429708	0.63984	-0.482804	1.02636	-0.310982	0.63622	-0.235237	1.11698	
0.548754	5.44586	5	0	0	0	-0.676246	1.31357	0	0	-0.47607	1.03856	0	0	-0.0605375	1.25874	0.522913	0.871981	0.658683	1.31236	0.528502	0.316372	0.117581	0.202049	0.32025	0.54473	0.310241	0.91688	-0.428043	0.654035	-0.479962	1.0421	-0.305497	0.651806	-0.232509	1.13476	
0.549454	5.44281	5	0	0	0	-0.678644	1.33466	0	0	-0.470695	1.0438	0	0	-0.063579	1.26733	0.526142	0.884884	0.662991	1.31347	0.532482	0.329958	0.123005	0.21167	0.325435	0.553774	0.315932	0.928955	-0.426378	0.66823	-0.47712	1.05784	-0.300013	0.667391	-0.229781	1.15255	
0.550007	5.43976	5	0	0	0	-0.681043	1.35575	0	0	-0.46532	1.04903	0	0	-0.0666205	1.27593	0.529371	0.897787	0.667298	1.31458	0.536462	0.343543	0.128429	0.221291	0.33062	0.562817	0.321622	0.941029	-0.424714	0.682425	-0.474277	1.07358	-0.294529	0.682976	-0.227053	1.17034	
0.550318	5.44281	5	0	0	0	-0.683441	1.37684	0	0	-0.459945	1.05426	0	0	-0.069662	1.28452	0.532601	0.910689	0.671605	1.31568	0.540442	0.357129	0.133853	0.230912	0.335805	0.57186	0.327313	0.953103	-0.423049	0.69662	-0.471435	1.08932	-0.289044	0.698562	-0.224325	1.18813	
0.550291	5.44586	0	5	0	0	-0.677459	1.38858	0	0	-0.4512	1.06022	0	0	-0.0727063	1.29312	0.52452	0.933525	0.680229	1.3179	0.541927	0.3778	0.146555	0.232503	0.338698	0.587411	0.339503	0.960967	-0.423156	0.715842	-0.467697	1.10256	-0.279762	0.713859	-0.217233	1.2064	
0.549832	5.43976	0	5	0	0	-0.671477	1.40033	0	0	-0.442456	1.06619	0	0	-0.0757505	1.30173	0.51644	0.956362	0.688853	1.32012	0.543411	0.398472	0.159257	0.234094	0.341591	0.602963	0.351693	0.96883	-0.423263	0.735063	-0.463958	1.11579	-0.270481	0.729156	-0.210141	1.22466	
0.548931	5.43365	0	5	0	0	-0.665495	1.41208	0	0	-0.433711	1.07215	0	0	-0.0787947	1.31033	0.50836	0.979198	0.697477	1.32233	0.544896	0.419144	0.171959	0.235685	0.344483	0.618515	0.363884	0.976693	-0.42337	0.754285	-0.46022	1.12903	-0.261199	0.744454	-0.203049	1.24293	
0.547735	5.43671	0	5	0	0	-0.659513	1.42383	0	0	-0.424966	1.07811	0	0	-0.081839	1.31894	0.500279	1.00203	0.706101	1.32455	0.546381	0.439815	0.184661	0.237276	0.347376	0.634066	0.376074	0.984557	-0.423477	0.773506	-0.456481	1.14227	-0.251917	0.759751	-0.195957	1.2612	
0.546409	5.43365	0	5	0	0	-0.640298	1.42697	0	0	-0.416207	1.08408	0	0	-0.081839	1.31894	0.499123	1.0053	0.716548	1.32165	0.5516	0.449966	0.185861	0.246397	0.351413	0.646413	0.375274	1.00095	-0.413105	0.782088	-0.45184	1.15298	-0.253195	0.784161	-0.187351	1.27527	
0.545116	5.43365	0	5	0	0	-0.621083	1.43011	0	0	-0.407448	1.09006	0	0	-0.081839	1.31894	0.497967	1.00857	0.726994	1.31875	0.556819	0.460116	0.187062	0.255517	0.355451	0.658761	0.374473	1.01733	-0.402733	0.790671	-0.447199	1.1637	-0.254472	0.808571	-0.178745	1.28934	
0.544013	5.42755	0	5	0	0	-0.601868	1.43324	0	0	-0.39869	1.09603	0	0	-0.081839	1.31894	0.496811	1.01184	0.737441	1.31586	0.562038	0.470266	0.188262	0.264638	0.359488	0.671108	0.373672	1.03372	-0.392361	0.799253	-0.442558	1.17442	-0.25575	0.832982	-0.170139	1.3034	
0.543202	5.42602	0	5	0	0	-0.582653	1.43638	0	0	-0.389931	1.102	0	0	-0.081839	1.31894	0.495655	1.0151	0.747888	1.31296	0.567257	0.480417	0.189463	0.273759	0.363525	0.683455	0.372872	1.05011	-0.381989	0.807835	-0.437917	1.18513	-0.257028	0.857392	-0.161533	1.31747	
0.542773	5.4245	0	5	0	0	-0.566999	1.44976	0	0	-0.374401	1.10944	0	0	-0.0787947	1.31033	0.500277	1.00204	0.754022	1.30895	0.564757	0.487482	0.195226	0.269993	0.358918	0.696473	0.375721	1.0562	-0.383822	0.8225	-0.438785	1.19554	-0.251554	0.873165	-0.157306	1.33116	
0.542812	5.4245	0	5	0	0	-0.551345	1.46314	0	0	-0.358871	1.11687	0	0	-0.0757505	1.30173	0.504898	0.988979	0.760157	1.30494	0.562257	0.494547	0.200989	0.266227	0.354312	0.709491	0.378571	1.06228	-0.385655	0.837166	-0.439654	1.20594	-0.24608	0.888938	-0.153079	1.34485	
0.543398	5.41687	0	5	0	0	-0.53569	1.47652	0	0	-0.343341	1.12431	0	0	-0.0727063	1.29312	0.50952	0.975918	0.766291	1.30093	0.559757	0.501613	0.206752	0.262462	0.349706	0.72251	0.38142	1.06837	-0.387487	0.851831	-0.440522	1.21635	-0.240607	0.90471	-0.148851	1.35855	
