0.474	7.47375	5	0	-0.118515	0.273445	-0.192514	0.143881	-0.252418	-0.057321	-0.200095	-0.225759	-0.142809	-0.107808	0.040558	-0.041085	0.076749	0.310102	0.261187	0.121841	0.038576	0.104292	0.108405	0.018132	0.021958	0.088049	-0.080129	-0.196788	-0.107513	0.238999	-0.142871	-0.161916	-0.085166	0.077952	-0.134669	-0.142447	
0.471952	7.47528	5	0	-0.115614	0.265248	-0.187891	0.130815	-0.24962	-0.0652275	-0.198941	-0.229021	-0.142075	-0.119146	0.0426542	-0.047009	0.0766478	0.284857	0.260227	0.124554	0.0334407	0.0828363	0.107141	0.0118517	0.010849	0.0725483	-0.0852865	-0.211498	-0.11345	0.223394	-0.150013	-0.175246	-0.0861233	0.053125	-0.143756	-0.15505	
0.471181	7.47375	5	0	-0.112714	0.257051	-0.183267	0.117749	-0.246823	-0.073134	-0.197787	-0.232283	-0.141342	-0.130484	0.0447505	-0.052933	0.0765465	0.259611	0.259267	0.127268	0.0283055	0.0613805	0.105877	0.0055715	-0.00026	0.0570475	-0.090444	-0.226208	-0.119386	0.207788	-0.157155	-0.188576	-0.0870805	0.028298	-0.152844	-0.167654	
0.471377	7.46765	5	0	-0.109813	0.248854	-0.178644	0.104683	-0.244025	-0.0810405	-0.196632	-0.235546	-0.140608	-0.141822	0.0468467	-0.058857	0.0764452	0.234366	0.258307	0.129981	0.0231702	0.0399247	0.104614	-0.00070875	-0.011369	0.0415468	-0.0956015	-0.240917	-0.125323	0.192183	-0.164297	-0.201906	-0.0880377	0.003471	-0.161931	-0.180257	
0.472233	7.46307	5	0	-0.106913	0.240657	-0.174021	0.091617	-0.241227	-0.088947	-0.195478	-0.238808	-0.139874	-0.15316	0.048943	-0.064781	0.076344	0.209121	0.257347	0.132694	0.018035	0.018469	0.10335	-0.006989	-0.022478	0.026046	-0.100759	-0.255627	-0.13126	0.176578	-0.171439	-0.215236	-0.088995	-0.021356	-0.171018	-0.19286	
0.47344	7.4646	5	0	-0.104015	0.232467	-0.176522	0.0832208	-0.244103	-0.093141	-0.192633	-0.238159	-0.142408	-0.164511	0.0468467	-0.058857	0.0762157	0.183986	0.323765	0.215624	0.020114	0.00061925	0.153405	0.0197482	-0.0226965	0.0110575	-0.101264	-0.268826	-0.141034	0.161111	-0.171158	-0.224401	-0.105525	-0.0295825	-0.173477	-0.198656	
0.474689	7.46307	5	0	-0.101117	0.224278	-0.179023	0.0748245	-0.24698	-0.097335	-0.189788	-0.237509	-0.144943	-0.175862	0.0447505	-0.052933	0.0760875	0.158851	0.390183	0.298554	0.022193	-0.0172305	0.20346	0.0464855	-0.022915	-0.003931	-0.101768	-0.282025	-0.150807	0.145643	-0.170876	-0.233565	-0.122055	-0.037809	-0.175935	-0.204452	
0.475672	7.45697	5	0	-0.0982197	0.216089	-0.181523	0.0664282	-0.249856	-0.101529	-0.186943	-0.23686	-0.147478	-0.187214	0.0426542	-0.047009	0.0759592	0.133716	0.456601	0.381484	0.024272	-0.0350802	0.253515	0.0732228	-0.0231335	-0.0189195	-0.102273	-0.295223	-0.160581	0.130175	-0.170594	-0.24273	-0.138585	-0.0460355	-0.178394	-0.210248	
0.476087	7.45239	5	0	-0.095322	0.207899	-0.184024	0.058032	-0.252732	-0.105723	-0.184098	-0.236211	-0.150012	-0.198565	0.040558	-0.041085	0.075831	0.108581	0.523019	0.464414	0.026351	-0.05293	0.30357	0.09996	-0.023352	-0.033908	-0.102778	-0.308422	-0.170355	0.114708	-0.170313	-0.251895	-0.155115	-0.054262	-0.180852	-0.216044	
0.475859	7.44934	5	0	-0.0911103	0.208294	-0.181523	0.0664282	-0.248458	-0.10548	-0.181872	-0.225112	-0.149289	-0.209858	0.0510117	-0.043358	0.0742333	0.0876342	0.578375	0.520231	0.0296755	-0.0742917	0.33215	0.13884	-0.0307502	-0.0441718	-0.10536	-0.315739	-0.185199	0.124407	-0.17548	-0.23729	-0.167731	-0.0460185	-0.183511	-0.195786	
0.475199	7.44781	5	0	-0.0868985	0.20869	-0.179023	0.0748245	-0.244184	-0.105236	-0.179646	-0.214012	-0.148566	-0.221151	0.0614655	-0.045631	0.0726355	0.0666875	0.63373	0.576048	0.033	-0.0956535	0.36073	0.177721	-0.0381485	-0.0544355	-0.107942	-0.323056	-0.200043	0.134107	-0.180648	-0.222686	-0.180347	-0.037775	-0.186169	-0.175528	
0.474332	7.44781	5	0	-0.0826868	0.209085	-0.176522	0.0832208	-0.23991	-0.104993	-0.17742	-0.202913	-0.147844	-0.232444	0.0719193	-0.047904	0.0710377	0.0457407	0.689086	0.631864	0.0363245	-0.117015	0.389309	0.216601	-0.0455467	-0.0646992	-0.110524	-0.330374	-0.214888	0.143806	-0.185816	-0.208082	-0.192962	-0.0295315	-0.188828	-0.155269	
0.473481	7.43866	5	0	-0.078475	0.20948	-0.174021	0.091617	-0.235636	-0.10475	-0.175194	-0.191814	-0.147121	-0.243737	0.082373	-0.050177	0.06944	0.024794	0.744441	0.687681	0.039649	-0.138377	0.417889	0.255481	-0.052945	-0.074963	-0.113106	-0.337691	-0.229732	0.153505	-0.190983	-0.193477	-0.205578	-0.021288	-0.191487	-0.135011	
0.472771	7.43408	5	0	-0.078475	0.20948	-0.164205	0.110344	-0.237034	-0.100799	-0.166209	-0.164937	-0.146404	-0.255009	0.0823545	-0.0364745	0.0736752	0.00010625	0.824815	0.702252	0.0361955	-0.152526	0.43813	0.278474	-0.0423058	-0.0894515	-0.111036	-0.343541	-0.245198	0.175743	-0.200607	-0.157911	-0.233225	0.0158045	-0.189269	-0.102996	
0.472262	7.43866	5	0	-0.078475	0.20948	-0.15439	0.12907	-0.238432	-0.0968485	-0.157224	-0.13806	-0.145687	-0.266282	0.082336	-0.022772	0.0779105	-0.0245815	0.905189	0.716824	0.032742	-0.166675	0.458371	0.301466	-0.0316665	-0.10394	-0.108965	-0.349392	-0.260663	0.197982	-0.21023	-0.122344	-0.260871	0.052897	-0.18705	-0.070981	
0.472012	7.43408	5	0	-0.078475	0.20948	-0.144574	0.147796	-0.239829	-0.0928978	-0.148239	-0.111182	-0.14497	-0.277554	0.0823175	-0.0090695	0.0821458	-0.0492693	0.985563	0.731395	0.0292885	-0.180824	0.478612	0.324458	-0.0210273	-0.118429	-0.106895	-0.355242	-0.276129	0.22022	-0.219853	-0.0867775	-0.288517	0.0899895	-0.184831	-0.038966	
0.472048	7.43103	5	0	-0.078475	0.20948	-0.134758	0.166523	-0.241227	-0.088947	-0.139254	-0.084305	-0.144253	-0.288826	0.082299	0.004633	0.086381	-0.073957	1.06594	0.745966	0.025835	-0.194973	0.498853	0.347451	-0.010388	-0.132917	-0.104825	-0.361092	-0.291595	0.242458	-0.229477	-0.051211	-0.316164	0.127082	-0.182613	-0.006951	
0.472209	7.43103	5	0	-0.0771608	0.218072	-0.129758	0.183435	-0.242625	-0.0849947	-0.134181	-0.0724525	-0.144534	-0.297273	0.0864827	0.00646875	0.0891538	-0.0945022	1.13647	0.800652	0.0198685	-0.20199	0.52638	0.380493	-0.0158257	-0.133129	-0.113616	-0.35085	-0.29561	0.264539	-0.233215	-0.0238963	-0.334166	0.164297	-0.186323	0.0291018	
0.472259	7.43255	5	0	-0.0758465	0.226664	-0.124758	0.200346	-0.244024	-0.0810425	-0.129107	-0.0606	-0.144815	-0.305721	0.0906665	0.0083045	0.0919265	-0.115047	1.20701	0.855339	0.013902	-0.209006	0.553906	0.413536	-0.0212635	-0.133341	-0.122407	-0.340608	-0.299626	0.286619	-0.236954	0.0034185	-0.352167	0.201512	-0.190033	0.0651545	
0.471962	7.43561	5	0	-0.0745323	0.235255	-0.119758	0.217257	-0.245423	-0.0770902	-0.124034	-0.0487475	-0.145096	-0.314168	0.0948502	0.0101402	0.0946992	-0.135593	1.27754	0.910025	0.0079355	-0.216023	0.581433	0.446578	-0.0267013	-0.133553	-0.131198	-0.330367	-0.303642	0.3087	-0.240693	0.0307332	-0.370169	0.238727	-0.193744	0.101207	
0.471197	7.42493	5	0	-0.073218	0.243847	-0.114758	0.234169	-0.246821	-0.073138	-0.118961	-0.036895	-0.145377	-0.322615	0.099034	0.011976	0.097472	-0.156138	1.34808	0.964711	0.001969	-0.22304	0.60896	0.47962	-0.032139	-0.133765	-0.139989	-0.320125	-0.307657	0.33078	-0.244431	0.058048	-0.38817	0.275942	-0.197454	0.13726	
0.470219	7.43103	5	0	-0.0704533	0.248348	-0.114758	0.234169	-0.242545	-0.072892	-0.121816	-0.0375595	-0.143679	-0.33665	0.096952	0.0042005	0.0972445	-0.180888	1.35039	0.976455	-0.00947425	-0.226461	0.608149	0.502136	-0.042999	-0.134193	-0.139989	-0.320125	-0.307874	0.352877	-0.245066	0.0766088	-0.379581	0.292678	-0.197761	0.163731	
0.469355	7.43561	5	0	-0.0676885	0.252849	-0.114758	0.234169	-0.238269	-0.072646	-0.124671	-0.038224	-0.141981	-0.350686	0.09487	-0.003575	0.097017	-0.205638	1.3527	0.988198	-0.0209175	-0.229882	0.607337	0.524653	-0.053859	-0.134621	-0.139989	-0.320125	-0.308092	0.374974	-0.245702	0.0951695	-0.370992	0.309414	-0.198068	0.190201	
0.468929	7.43103	5	0	-0.0649238	0.25735	-0.114758	0.234169	-0.233993	-0.0724	-0.127527	-0.0388885	-0.140283	-0.364722	0.092788	-0.0113505	0.0967895	-0.230387	1.35502	0.999942	-0.0323608	-0.233303	0.606526	0.547169	-0.064719	-0.135048	-0.139989	-0.320125	-0.308309	0.397071	-0.246337	0.11373	-0.362402	0.32615	-0.198376	0.216671	
0.469006	7.42645	5	0	-0.062159	0.261851	-0.114758	0.234169	-0.229717	-0.072154	-0.130382	-0.039553	-0.138585	-0.378757	0.090706	-0.019126	0.096562	-0.255137	1.35733	1.01169	-0.043804	-0.236724	0.605715	0.569686	-0.075579	-0.135476	-0.139989	-0.320125	-0.308526	0.419168	-0.246972	0.132291	-0.353813	0.342886	-0.198683	0.243142	
0.469225	7.43103	5	0	-0.066375	0.261451	-0.114936	0.219146	-0.236868	-0.0765973	-0.134291	-0.0546845	-0.143411	-0.3928	0.0907267	-0.0464752	0.088925	-0.284236	1.31877	0.984019	-0.059442	-0.240104	0.585841	0.575335	-0.0918317	-0.136127	-0.153415	-0.311352	-0.308079	0.428656	-0.245203	0.135679	-0.347512	0.338769	-0.197981	0.253972	
0.469192	7.43408	5	0	-0.070591	0.261051	-0.115115	0.204124	-0.24402	-0.0810405	-0.1382	-0.069816	-0.148237	-0.406844	0.0907475	-0.0738245	0.081288	-0.313334	1.2802	0.956352	-0.07508	-0.243484	0.565967	0.580985	-0.108085	-0.136778	-0.166841	-0.30258	-0.307632	0.438145	-0.243433	0.139066	-0.341212	0.334652	-0.197279	0.264803	
0.468539	7.42798	5	0	-0.074807	0.260652	-0.115294	0.189101	-0.251171	-0.0854837	-0.142108	-0.0849475	-0.153063	-0.420887	0.0907682	-0.101174	0.073651	-0.342433	1.24164	0.928685	-0.090718	-0.246865	0.546093	0.586634	-0.124337	-0.137429	-0.180267	-0.293807	-0.307186	0.447633	-0.241664	0.142454	-0.334911	0.330535	-0.196577	0.275633	
0.467406	7.43103	5	0	-0.079023	0.260252	-0.115472	0.174078	-0.258322	-0.089927	-0.146017	-0.100079	-0.157889	-0.43493	0.090789	-0.128523	0.066014	-0.371532	1.20308	0.901018	-0.106356	-0.250245	0.526219	0.592283	-0.14059	-0.13808	-0.193693	-0.285034	-0.306739	0.457122	-0.239895	0.145842	-0.32861	0.326418	-0.195875	0.286464	
0.466356	7.43561	5	0	-0.0787562	0.234894	-0.130109	0.153463	-0.258493	-0.114066	-0.145838	-0.135431	-0.157792	-0.462847	0.0803385	-0.153449	0.0452012	-0.401075	1.14908	0.87296	-0.126154	-0.253591	0.512018	0.582036	-0.155073	-0.143615	-0.207586	-0.28944	-0.304488	0.450759	-0.240619	0.1395	-0.338265	0.326334	-0.194142	0.281566	
0.465963	7.43255	5	0	-0.0784895	0.209535	-0.144747	0.132848	-0.258663	-0.138204	-0.145659	-0.170783	-0.157694	-0.490764	0.069888	-0.178375	0.0243885	-0.430618	1.09509	0.844902	-0.145952	-0.256937	0.497818	0.571789	-0.169556	-0.149151	-0.221479	-0.293846	-0.302236	0.444395	-0.241343	0.133159	-0.34792	0.32625	-0.192409	0.276669	
0.466685	7.43255	5	0	-0.0782227	0.184177	-0.159384	0.112232	-0.258833	-0.162343	-0.145481	-0.206134	-0.157597	-0.51868	0.0594375	-0.203301	0.00357575	-0.460161	1.04109	0.816844	-0.16575	-0.260283	0.483617	0.561543	-0.18404	-0.154686	-0.235373	-0.298252	-0.299984	0.438032	-0.242068	0.126817	-0.357575	0.326166	-0.190676	0.271771	
0.468197	7.43408	5	0	-0.077956	0.158819	-0.174021	0.091617	-0.259004	-0.186481	-0.145302	-0.241486	-0.157499	-0.546597	0.048987	-0.228227	-0.017237	-0.489704	0.987094	0.788786	-0.185548	-0.263629	0.469416	0.551296	-0.198523	-0.160221	-0.249266	-0.302658	-0.297733	0.431669	-0.242792	0.120476	-0.36723	0.326082	-0.188943	0.266874	
0.469866	7.43561	5	0	-0.0846912	0.128742	-0.174633	0.0469955	-0.267726	-0.210974	-0.156013	-0.272039	-0.172079	-0.56055	0.023999	-0.239001	-0.036429	-0.510872	0.910071	0.774199	-0.201546	-0.277527	0.443356	0.524593	-0.206095	-0.185173	-0.261062	-0.312888	-0.295936	0.41584	-0.240387	0.105296	-0.368067	0.301117	-0.192084	0.250132	
0.471056	7.43561	5	0	-0.0914265	0.098665	-0.175245	0.002374	-0.276449	-0.235467	-0.166725	-0.302592	-0.18666	-0.574503	-0.000989	-0.249775	-0.055621	-0.532039	0.833049	0.759613	-0.217544	-0.291426	0.417295	0.497891	-0.213667	-0.210126	-0.272859	-0.323118	-0.294139	0.400012	-0.237982	0.090115	-0.368904	0.276153	-0.195225	0.233389	
0.471318	7.43255	5	0	-0.0981618	0.068588	-0.175858	-0.0422475	-0.285172	-0.259961	-0.177436	-0.333146	-0.201241	-0.588455	-0.025977	-0.260549	-0.074813	-0.553207	0.756026	0.745027	-0.233541	-0.305324	0.391234	0.471188	-0.221239	-0.235079	-0.284656	-0.333348	-0.292343	0.384183	-0.235578	0.0749345	-0.369741	0.251189	-0.198367	0.216647	
0.470811	7.43713	5	0	-0.104897	0.038511	-0.17647	-0.086869	-0.293894	-0.284454	-0.188148	-0.363699	-0.215821	-0.602408	-0.050965	-0.271323	-0.094005	-0.574375	0.679003	0.73044	-0.249539	-0.319222	0.365174	0.444485	-0.228811	-0.260031	-0.296452	-0.343578	-0.290546	0.368354	-0.233173	0.059754	-0.370578	0.226224	-0.201508	0.199905	
0.469815	7.43866	5	0	-0.112986	0.00016475	-0.193602	-0.115447	-0.298479	-0.320511	-0.194882	-0.396647	-0.226825	-0.607991	-0.0696305	-0.272638	-0.115793	-0.575406	0.617959	0.691102	-0.261312	-0.333103	0.332138	0.408193	-0.238099	-0.280018	-0.30156	-0.358132	-0.289882	0.355731	-0.233903	0.0534365	-0.368083	0.205522	-0.210538	0.187062	
0.468607	7.43561	5	0	-0.121076	-0.0381815	-0.210735	-0.144026	-0.303064	-0.356568	-0.201616	-0.429595	-0.23783	-0.613575	-0.088296	-0.273952	-0.137582	-0.576437	0.556915	0.651763	-0.273085	-0.346984	0.299102	0.371901	-0.247387	-0.300005	-0.306668	-0.372686	-0.289217	0.343109	-0.234633	0.047119	-0.365588	0.18482	-0.219568	0.174218	
0.467395	7.43255	5	0	-0.129165	-0.0765278	-0.227868	-0.172604	-0.307649	-0.392625	-0.208349	-0.462543	-0.248834	-0.619158	-0.106961	-0.275267	-0.15937	-0.577467	0.495871	0.612425	-0.284859	-0.360864	0.266066	0.33561	-0.256675	-0.319992	-0.311776	-0.387239	-0.288552	0.330486	-0.235363	0.0408015	-0.363092	0.164118	-0.228599	0.161375	
0.466271	7.43103	5	0	-0.137254	-0.114874	-0.245	-0.201182	-0.312234	-0.428682	-0.215083	-0.495491	-0.259838	-0.624741	-0.125627	-0.276582	-0.181158	-0.578498	0.434827	0.573087	-0.296632	-0.374745	0.23303	0.299318	-0.265963	-0.339979	-0.316884	-0.401793	-0.287888	0.317863	-0.236093	0.034484	-0.360597	0.143416	-0.237629	0.148532	
0.465316	7.43561	5	0	-0.149643	-0.140867	-0.252533	-0.225939	-0.323723	-0.445097	-0.220726	-0.514115	-0.265332	-0.627529	-0.129767	-0.278375	-0.199932	-0.575375	0.399692	0.532473	-0.305912	-0.395553	0.205984	0.266743	-0.26647	-0.369305	-0.308671	-0.425005	-0.291051	0.305332	-0.235784	0.025233	-0.364395	0.126879	-0.239059	0.127042	
0.464608	7.4295	5	0	-0.162033	-0.166861	-0.260066	-0.250696	-0.335213	-0.461512	-0.226369	-0.53274	-0.270825	-0.630317	-0.133906	-0.280168	-0.218705	-0.572252	0.364557	0.491858	-0.315192	-0.416361	0.178939	0.234169	-0.266978	-0.398632	-0.300457	-0.448216	-0.294214	0.292801	-0.235475	0.015982	-0.368193	0.110341	-0.240489	0.105551	
0.464167	7.42645	5	0	-0.174423	-0.192854	-0.267598	-0.275454	-0.346703	-0.477927	-0.232011	-0.551365	-0.276319	-0.633106	-0.138045	-0.28196	-0.237479	-0.569129	0.329422	0.451244	-0.324471	-0.43717	0.151894	0.201595	-0.267485	-0.427958	-0.292244	-0.471427	-0.297377	0.28027	-0.235165	0.006731	-0.37199	0.0938035	-0.241919	0.0840605	
0.463968	7.42798	5	0	-0.186812	-0.218847	-0.275131	-0.300211	-0.358192	-0.494342	-0.237654	-0.569989	-0.281813	-0.635894	-0.142185	-0.283753	-0.256253	-0.566006	0.294287	0.410629	-0.333751	-0.457978	0.124848	0.16902	-0.267993	-0.457284	-0.284031	-0.494639	-0.30054	0.267739	-0.234856	-0.00252	-0.375788	0.077266	-0.243349	0.06257	
0.463986	7.4295	5	0	-0.202103	-0.224295	-0.298766	-0.294631	-0.369537	-0.498859	-0.245015	-0.575072	-0.283092	-0.64143	-0.140116	-0.2896	-0.263518	-0.570391	0.267593	0.381823	-0.336402	-0.485684	0.10605	0.143265	-0.2739	-0.486637	-0.287116	-0.514864	-0.298772	0.252017	-0.236325	-0.015111	-0.373328	0.056692	-0.258228	0.0536605	
0.464187	7.42798	5	0	-0.217394	-0.229742	-0.322402	-0.289052	-0.380883	-0.503375	-0.252377	-0.580155	-0.28437	-0.646966	-0.138047	-0.295446	-0.270784	-0.574776	0.240898	0.353017	-0.339052	-0.51339	0.087252	0.117511	-0.279806	-0.515991	-0.290202	-0.535089	-0.297005	0.236295	-0.237793	-0.027702	-0.370867	0.036118	-0.273107	0.044751	
0.464491	7.43255	5	0	-0.232686	-0.235189	-0.346037	-0.283473	-0.392228	-0.507892	-0.259738	-0.585238	-0.285649	-0.652503	-0.135979	-0.301292	-0.278049	-0.579161	0.214204	0.324211	-0.341703	-0.541096	0.068454	0.0917557	-0.285713	-0.545344	-0.293287	-0.555314	-0.295237	0.220574	-0.239262	-0.040293	-0.368406	0.015544	-0.287985	0.0358415	
0.464804	7.44018	5	0	-0.247977	-0.240637	-0.369673	-0.277893	-0.403573	-0.512409	-0.267099	-0.590321	-0.286928	-0.658039	-0.13391	-0.307139	-0.285314	-0.583546	0.187509	0.295405	-0.344354	-0.568802	0.049656	0.066001	-0.29162	-0.574697	-0.296372	-0.575539	-0.293469	0.204852	-0.240731	-0.052884	-0.365946	-0.00503	-0.302864	0.026932	
0.465027	7.45544	5	0	-0.261899	-0.237706	-0.376702	-0.2733	-0.413408	-0.508962	-0.281273	-0.576115	-0.283998	-0.66632	-0.13391	-0.307139	-0.285447	-0.595616	0.17997	0.264806	-0.357314	-0.579001	0.0355948	0.0467985	-0.299234	-0.599109	-0.296899	-0.588504	-0.291713	0.189169	-0.239393	-0.0650302	-0.366404	-0.0173458	-0.306015	0.0104095	
0.465108	7.46155	5	0	-0.27582	-0.234776	-0.383732	-0.268707	-0.423242	-0.505516	-0.295447	-0.561909	-0.281068	-0.6746	-0.13391	-0.307139	-0.28558	-0.607687	0.17243	0.234207	-0.370275	-0.589201	0.0215335	0.027596	-0.306849	-0.623522	-0.297426	-0.60147	-0.289956	0.173485	-0.238056	-0.0771765	-0.366862	-0.0296615	-0.309166	-0.006113	
0.465089	7.47375	5	0	-0.289741	-0.231846	-0.390761	-0.264114	-0.433077	-0.502069	-0.30962	-0.547703	-0.278138	-0.682881	-0.13391	-0.307139	-0.285713	-0.619757	0.164891	0.203608	-0.383236	-0.5994	0.00747225	0.0083935	-0.314464	-0.647935	-0.297953	-0.614436	-0.2882	0.157801	-0.236718	-0.0893228	-0.36732	-0.0419773	-0.312317	-0.0226355	
0.465029	7.48749	5	0	-0.303663	-0.228915	-0.397791	-0.259521	-0.442912	-0.498622	-0.323794	-0.533497	-0.275208	-0.691161	-0.13391	-0.307139	-0.285846	-0.631827	0.157352	0.173009	-0.396196	-0.609599	-0.006589	-0.010809	-0.322078	-0.672347	-0.29848	-0.627401	-0.286444	0.142118	-0.23538	-0.101469	-0.367778	-0.054293	-0.315468	-0.039158	
0.464986	7.50122	5	0	-0.305082	-0.224906	-0.397574	-0.24486	-0.445655	-0.49087	-0.316453	-0.528394	-0.271973	-0.691153	-0.123555	-0.30941	-0.277324	-0.643466	0.149941	0.150809	-0.396676	-0.61993	-0.0182825	-0.0267378	-0.324056	-0.682043	-0.30105	-0.63458	-0.283104	0.132679	-0.233014	-0.116517	-0.36343	-0.06658	-0.326167	-0.0469955	
0.464982	7.49969	5	0	-0.3065	-0.220896	-0.397358	-0.2302	-0.448398	-0.483117	-0.309111	-0.52329	-0.268738	-0.691146	-0.1132	-0.311682	-0.268801	-0.655106	0.142531	0.128608	-0.397157	-0.630261	-0.029976	-0.0426665	-0.326034	-0.691739	-0.303621	-0.64176	-0.279764	0.123241	-0.230648	-0.131565	-0.359083	-0.078867	-0.336867	-0.054833	
0.464995	7.5119	5	0	-0.307918	-0.216887	-0.397141	-0.215539	-0.451141	-0.475365	-0.30177	-0.518187	-0.265503	-0.691139	-0.102845	-0.313953	-0.260278	-0.666745	0.13512	0.106408	-0.397638	-0.640591	-0.0416695	-0.0585953	-0.328012	-0.701434	-0.306192	-0.64894	-0.276425	0.113802	-0.228282	-0.146613	-0.354735	-0.091154	-0.347567	-0.0626705	
0.465002	7.52106	5	0	-0.309337	-0.212878	-0.396924	-0.200878	-0.453884	-0.467613	-0.294428	-0.513084	-0.262268	-0.691131	-0.09249	-0.316225	-0.251756	-0.678384	0.127709	0.084207	-0.398118	-0.650922	-0.053363	-0.074524	-0.32999	-0.71113	-0.308762	-0.656119	-0.273085	0.104363	-0.225916	-0.161661	-0.350388	-0.103441	-0.358266	-0.070508	
0.464984	7.52563	5	0	-0.302427	-0.208138	-0.380351	-0.201821	-0.446797	-0.463294	-0.285386	-0.504115	-0.260985	-0.685601	-0.0904128	-0.308584	-0.248818	-0.674233	0.120444	0.070294	-0.398118	-0.650922	-0.0603682	-0.0840495	-0.32999	-0.71113	-0.313368	-0.657535	-0.265927	0.0948522	-0.226373	-0.177081	-0.342676	-0.111626	-0.353157	-0.0849473	
0.464955	7.53326	5	0	-0.295518	-0.203398	-0.363778	-0.202765	-0.439711	-0.458975	-0.276344	-0.495147	-0.259703	-0.680072	-0.0883355	-0.300943	-0.24588	-0.670082	0.113179	0.056381	-0.398118	-0.650922	-0.0673735	-0.093575	-0.32999	-0.71113	-0.317974	-0.65895	-0.258769	0.0853415	-0.22683	-0.192501	-0.334964	-0.119811	-0.348048	-0.0993865	
0.46495	7.53784	5	0	-0.288608	-0.198657	-0.347205	-0.203708	-0.432624	-0.454656	-0.267301	-0.486179	-0.25842	-0.674542	-0.0862583	-0.293301	-0.242942	-0.665932	0.105915	0.042468	-0.398118	-0.650922	-0.0743787	-0.103101	-0.32999	-0.71113	-0.32258	-0.660366	-0.25161	0.0758308	-0.227288	-0.207921	-0.327252	-0.127996	-0.342939	-0.113826	
0.465001	7.54547	5	0	-0.281699	-0.193917	-0.330632	-0.204651	-0.425537	-0.450337	-0.258259	-0.47721	-0.257137	-0.669012	-0.084181	-0.28566	-0.240004	-0.661781	0.09865	0.028555	-0.398118	-0.650922	-0.081384	-0.112626	-0.32999	-0.71113	-0.327186	-0.661782	-0.244452	0.06632	-0.227745	-0.223341	-0.31954	-0.136181	-0.33783	-0.128265	
0.465117	7.54547	5	0	-0.27478	-0.18917	-0.318576	-0.192714	-0.419817	-0.442124	-0.249752	-0.475318	-0.252616	-0.663466	-0.0779578	-0.289726	-0.22838	-0.657219	0.0994525	0.017686	-0.391029	-0.647572	-0.084971	-0.122012	-0.319284	-0.710802	-0.325151	-0.667534	-0.24334	0.0631783	-0.227182	-0.241629	-0.313271	-0.140277	-0.336864	-0.143669	
0.465212	7.54242	5	0	-0.267862	-0.184423	-0.306521	-0.180777	-0.414096	-0.43391	-0.241244	-0.473426	-0.248094	-0.657921	-0.0717345	-0.293793	-0.216755	-0.652658	0.100255	0.006817	-0.38394	-0.644222	-0.088558	-0.131399	-0.308578	-0.710473	-0.323115	-0.673287	-0.242229	0.0600365	-0.226619	-0.259918	-0.307002	-0.144373	-0.335898	-0.159073	
0.465172	7.54242	5	0	-0.260943	-0.179676	-0.294465	-0.168839	-0.408376	-0.425697	-0.232737	-0.471535	-0.243573	-0.652375	-0.0655112	-0.29786	-0.205131	-0.648096	0.101058	-0.004052	-0.376851	-0.640873	-0.092145	-0.140786	-0.297873	-0.710145	-0.32108	-0.679039	-0.241117	0.0568948	-0.226055	-0.278207	-0.300734	-0.148469	-0.334933	-0.174477	
0.464887	7.54547	5	0	-0.254025	-0.174929	-0.28241	-0.156902	-0.402656	-0.417484	-0.224229	-0.469643	-0.239052	-0.646829	-0.059288	-0.301926	-0.193507	-0.643534	0.10186	-0.014921	-0.369762	-0.637523	-0.095732	-0.150172	-0.287167	-0.709817	-0.319045	-0.684791	-0.240005	0.053753	-0.225492	-0.296495	-0.294465	-0.152565	-0.333967	-0.189881	
0.464346	7.53937	5	0	-0.242918	-0.16981	-0.268039	-0.151393	-0.396931	-0.409253	-0.215709	-0.467751	-0.235507	-0.638505	-0.0530605	-0.305995	-0.189016	-0.631242	0.102812	-0.0176098	-0.368053	-0.630648	-0.0914195	-0.16236	-0.283494	-0.704886	-0.310368	-0.69488	-0.23618	0.053669	-0.230834	-0.306414	-0.28626	-0.148485	-0.342228	-0.191858	
0.463711	7.53631	5	0	-0.231811	-0.164691	-0.253668	-0.145885	-0.391206	-0.401023	-0.207188	-0.46586	-0.231962	-0.630182	-0.046833	-0.310065	-0.184526	-0.618949	0.103763	-0.0202985	-0.366345	-0.623773	-0.087107	-0.174547	-0.279822	-0.699954	-0.301691	-0.70497	-0.232355	0.053585	-0.236177	-0.316333	-0.278054	-0.144405	-0.350489	-0.193834	
0.463161	7.53784	5	0	-0.220704	-0.159572	-0.239298	-0.140376	-0.385481	-0.392792	-0.198668	-0.463969	-0.228418	-0.621859	-0.0406055	-0.314134	-0.180035	-0.606657	0.104715	-0.0229873	-0.364636	-0.616898	-0.0827945	-0.186735	-0.27615	-0.695022	-0.293014	-0.715059	-0.22853	0.053501	-0.241519	-0.326251	-0.269848	-0.140325	-0.35875	-0.195811	
0.462861	7.53784	5	0	-0.209597	-0.154453	-0.224927	-0.134867	-0.379756	-0.384561	-0.190148	-0.462077	-0.224873	-0.613535	-0.034378	-0.318203	-0.175544	-0.594364	0.105666	-0.025676	-0.362928	-0.610023	-0.078482	-0.198923	-0.272477	-0.690091	-0.284337	-0.725148	-0.224705	0.053417	-0.246862	-0.33617	-0.261643	-0.136245	-0.367011	-0.197788	
0.462748	7.53479	5	0	-0.208267	-0.146025	-0.217618	-0.124712	-0.378271	-0.376538	-0.18446	-0.460816	-0.219365	-0.610743	-0.0406185	-0.327619	-0.168242	-0.589983	0.113427	-0.0390095	-0.354599	-0.610132	-0.077589	-0.211201	-0.270493	-0.680376	-0.284886	-0.738031	-0.227558	0.0722133	-0.256306	-0.334463	-0.280994	-0.0951973	-0.35949	-0.206387	
0.462574	7.53021	5	0	-0.206938	-0.137597	-0.210309	-0.114557	-0.376787	-0.368516	-0.178773	-0.459556	-0.213857	-0.60795	-0.046859	-0.337034	-0.16094	-0.585602	0.121189	-0.052343	-0.346271	-0.610242	-0.076696	-0.223479	-0.268508	-0.670661	-0.285434	-0.750914	-0.230411	0.0910095	-0.265751	-0.332756	-0.300344	-0.0541495	-0.351969	-0.214986	
0.462085	7.52716	5	0	-0.205608	-0.129169	-0.203	-0.104402	-0.375302	-0.360493	-0.173086	-0.458295	-0.208349	-0.605158	-0.0530995	-0.346449	-0.153638	-0.581221	0.12895	-0.0656765	-0.337943	-0.610352	-0.075803	-0.235757	-0.266524	-0.660946	-0.285982	-0.763798	-0.233265	0.109806	-0.275195	-0.331049	-0.319694	-0.0131017	-0.344447	-0.223585	
0.461101	7.52563	5	0	-0.204279	-0.120741	-0.195691	-0.094247	-0.373818	-0.352471	-0.167398	-0.457034	-0.202841	-0.602365	-0.05934	-0.355865	-0.146336	-0.57684	0.136711	-0.07901	-0.329614	-0.610461	-0.07491	-0.248035	-0.264539	-0.651231	-0.286531	-0.776681	-0.236118	0.128602	-0.28464	-0.329342	-0.339045	0.027946	-0.336926	-0.232184	
0.459837	7.52106	5	0	-0.207135	-0.11267	-0.188373	-0.0840647	-0.365323	-0.35202	-0.166252	-0.460272	-0.202841	-0.602365	-0.0635115	-0.371089	-0.144931	-0.58081	0.134327	-0.0980642	-0.330842	-0.606991	-0.0863973	-0.254536	-0.267922	-0.641669	-0.291139	-0.778078	-0.241223	0.153769	-0.294352	-0.318532	-0.331421	0.0610195	-0.346144	-0.21879	
0.458647	7.518	5	0	-0.20999	-0.104599	-0.181056	-0.0738825	-0.356828	-0.351569	-0.165107	-0.463509	-0.202841	-0.602365	-0.067683	-0.386313	-0.143527	-0.58478	0.131943	-0.117119	-0.33207	-0.603521	-0.0978845	-0.261037	-0.271305	-0.632108	-0.295748	-0.779475	-0.246329	0.178935	-0.304064	-0.307722	-0.323796	0.094093	-0.355362	-0.205396	
0.457884	7.51648	5	0	-0.212846	-0.096528	-0.173739	-0.0637002	-0.348333	-0.351119	-0.163961	-0.466747	-0.202841	-0.602365	-0.0718545	-0.401537	-0.142122	-0.58875	0.129559	-0.136173	-0.333298	-0.60005	-0.109372	-0.267538	-0.274689	-0.622546	-0.300356	-0.780872	-0.251435	0.204102	-0.313776	-0.296912	-0.316172	0.127166	-0.36458	-0.192002	
0.45774	7.51495	5	0	-0.215702	-0.088457	-0.166421	-0.053518	-0.339838	-0.350668	-0.162816	-0.469984	-0.202841	-0.602365	-0.076026	-0.416761	-0.140717	-0.59272	0.127175	-0.155227	-0.334526	-0.59658	-0.120859	-0.274039	-0.278072	-0.612984	-0.304965	-0.782269	-0.25654	0.229269	-0.323488	-0.286102	-0.308548	0.16024	-0.373798	-0.178608	
0.458069	7.5058	5	0	-0.205903	-0.0917552	-0.14967	-0.05447	-0.336969	-0.346536	-0.157122	-0.468726	-0.200879	-0.607908	-0.0781445	-0.437748	-0.142266	-0.600857	0.112774	-0.17457	-0.348528	-0.568727	-0.134465	-0.274471	-0.282884	-0.584049	-0.319721	-0.754977	-0.252897	0.251227	-0.324062	-0.267841	-0.294633	0.189415	-0.367238	-0.171823	
0.458683	7.49969	5	0	-0.196105	-0.0950535	-0.132918	-0.055422	-0.334099	-0.342405	-0.151428	-0.467468	-0.198918	-0.613452	-0.080263	-0.458735	-0.143814	-0.608993	0.098374	-0.193914	-0.36253	-0.540874	-0.148071	-0.274902	-0.287695	-0.555115	-0.334477	-0.727685	-0.249255	0.273185	-0.324636	-0.24958	-0.280717	0.218589	-0.360678	-0.165039	
0.459402	7.50122	5	0	-0.186306	-0.0983518	-0.116167	-0.056374	-0.331229	-0.338273	-0.145734	-0.466209	-0.196957	-0.618996	-0.0823815	-0.479723	-0.145363	-0.617129	0.0839735	-0.213257	-0.376531	-0.51302	-0.161677	-0.275334	-0.292507	-0.526181	-0.349233	-0.700394	-0.245612	0.295143	-0.325211	-0.231319	-0.266802	0.247764	-0.354118	-0.158254	
0.460221	7.49664	5	0	-0.176507	-0.10165	-0.099415	-0.057326	-0.32836	-0.334141	-0.14004	-0.464951	-0.194995	-0.624539	-0.0845	-0.50071	-0.146911	-0.625266	0.069573	-0.2326	-0.390533	-0.485167	-0.175283	-0.275766	-0.297319	-0.497246	-0.363989	-0.673102	-0.24197	0.317101	-0.325785	-0.213058	-0.252887	0.276939	-0.347558	-0.15147	
0.461282	7.49054	5	0	-0.172317	-0.101282	-0.094371	-0.0405905	-0.324105	-0.333916	-0.135487	-0.460451	-0.204426	-0.616246	-0.0989793	-0.500177	-0.148314	-0.621301	0.0445332	-0.238746	-0.397031	-0.443359	-0.188858	-0.276206	-0.300219	-0.458338	-0.360386	-0.64002	-0.230667	0.339036	-0.321069	-0.184727	-0.249735	0.323016	-0.334415	-0.137862	
0.462735	7.48749	5	0	-0.168127	-0.100914	-0.089327	-0.023855	-0.31985	-0.333691	-0.130935	-0.455951	-0.213856	-0.607954	-0.113458	-0.499644	-0.149717	-0.617336	0.0194935	-0.244891	-0.403529	-0.401551	-0.202432	-0.276645	-0.30312	-0.419431	-0.356783	-0.606938	-0.219364	0.36097	-0.316353	-0.156397	-0.246584	0.369092	-0.321272	-0.124254	
0.464705	7.49054	5	0	-0.163937	-0.100545	-0.084283	-0.0071195	-0.315596	-0.333465	-0.126382	-0.45145	-0.223286	-0.599661	-0.127938	-0.499111	-0.15112	-0.613372	-0.00554625	-0.251037	-0.410028	-0.359743	-0.216006	-0.277085	-0.306021	-0.380523	-0.353179	-0.573856	-0.208062	0.382905	-0.311637	-0.128066	-0.243432	0.415169	-0.30813	-0.110647	
0.467165	7.48291	5	0	-0.159747	-0.100177	-0.079239	0.009616	-0.311341	-0.33324	-0.121829	-0.44695	-0.232717	-0.591368	-0.142417	-0.498578	-0.152523	-0.609407	-0.030586	-0.257183	-0.416526	-0.317935	-0.229581	-0.277525	-0.308921	-0.341615	-0.349576	-0.540774	-0.196759	0.40484	-0.306921	-0.099736	-0.240281	0.461246	-0.294987	-0.097039	
0.470029	7.47223	5	0	-0.155655	-0.0873	-0.0693612	0.0282835	-0.30133	-0.324734	-0.109301	-0.430161	-0.238316	-0.566368	-0.148569	-0.467739	-0.174953	-0.533503	-0.0396977	-0.265514	-0.404765	-0.268889	-0.227085	-0.265186	-0.299209	-0.292066	-0.340421	-0.479816	-0.187706	0.433291	-0.292028	-0.0666058	-0.211755	0.491082	-0.279372	-0.0775365	
0.473211	7.4707	5	0	-0.151562	-0.074423	-0.0594835	0.046951	-0.291319	-0.316229	-0.096772	-0.413372	-0.243915	-0.541367	-0.154721	-0.436899	-0.197383	-0.4576	-0.0488095	-0.273845	-0.393004	-0.219842	-0.22459	-0.252848	-0.289497	-0.242516	-0.331265	-0.418859	-0.178654	0.461741	-0.277135	-0.0334755	-0.183228	0.520918	-0.263757	-0.058034	
0.47657	7.47375	5	0	-0.14747	-0.061546	-0.0496058	0.0656185	-0.281309	-0.307723	-0.0842435	-0.396583	-0.249513	-0.516367	-0.160873	-0.40606	-0.219813	-0.381696	-0.0579212	-0.282176	-0.381243	-0.170795	-0.222095	-0.24051	-0.279785	-0.192967	-0.322109	-0.357901	-0.169601	0.490192	-0.262241	-0.00034525	-0.154701	0.550755	-0.248141	-0.0385315	
0.479776	7.47223	5	0	-0.143377	-0.048669	-0.039728	0.084286	-0.271298	-0.299218	-0.071715	-0.379794	-0.255112	-0.491366	-0.167025	-0.375221	-0.242243	-0.305792	-0.067033	-0.290507	-0.369482	-0.121749	-0.219599	-0.228171	-0.270073	-0.143418	-0.312954	-0.296943	-0.160549	0.518643	-0.247348	0.032785	-0.126175	0.580591	-0.232526	-0.019029	
0.482461	7.46765	5	0	-0.136636	-0.0187367	-0.0391535	0.129363	-0.26256	-0.274735	-0.064945	-0.346583	-0.253976	-0.457822	-0.167046	-0.321252	-0.246066	-0.219734	-0.0508425	-0.27658	-0.352323	-0.0757575	-0.203341	-0.206089	-0.25329	-0.09803	-0.288405	-0.249912	-0.146507	0.544006	-0.238079	0.065307	-0.10241	0.610618	-0.214422	0.00645575	
0.48426	7.4707	5	0	-0.129895	0.0111955	-0.038579	0.17444	-0.253823	-0.250251	-0.058175	-0.313372	-0.252839	-0.424279	-0.167068	-0.267283	-0.249888	-0.133676	-0.034652	-0.262653	-0.335163	-0.029766	-0.187082	-0.184007	-0.236507	-0.052642	-0.263856	-0.202881	-0.132464	0.569369	-0.228811	0.097829	-0.0786455	0.640645	-0.196319	0.0319405	
0.484999	7.47528	5	0	-0.123155	0.0411278	-0.0380045	0.219517	-0.245086	-0.225768	-0.051405	-0.280161	-0.251703	-0.390735	-0.167089	-0.213313	-0.253711	-0.047618	-0.0184615	-0.248727	-0.318004	0.0162255	-0.170824	-0.161926	-0.219724	-0.007254	-0.239306	-0.15585	-0.118422	0.594732	-0.219543	0.130351	-0.0548808	0.670671	-0.178215	0.0574252	
0.484948	7.47833	5	0	-0.116414	0.07106	-0.03743	0.264594	-0.236348	-0.201285	-0.044635	-0.24695	-0.250567	-0.357191	-0.16711	-0.159344	-0.257533	0.03844	-0.002271	-0.2348	-0.300845	0.062217	-0.154566	-0.139844	-0.202941	0.038134	-0.214757	-0.108819	-0.10438	0.620095	-0.210274	0.162873	-0.031116	0.700698	-0.160111	0.08291	
0.484439	7.47986	5	0	-0.111279	0.117958	-0.0344452	0.318608	-0.23749	-0.161088	-0.0465848	-0.197708	-0.246227	-0.323409	-0.15064	-0.111172	-0.239898	0.102056	0.020291	-0.204386	-0.282819	0.0943448	-0.131432	-0.117391	-0.179164	0.0642197	-0.192696	-0.0687075	-0.101918	0.645746	-0.204564	0.18879	-0.022022	0.730762	-0.144408	0.102648	
0.483802	7.48443	5	0	-0.106144	0.164855	-0.0314605	0.372622	-0.238633	-0.120892	-0.0485345	-0.148465	-0.241888	-0.289627	-0.13417	-0.062999	-0.222263	0.165672	0.042853	-0.173972	-0.264794	0.126473	-0.108298	-0.094938	-0.155387	0.0903055	-0.170635	-0.028596	-0.0994555	0.671397	-0.198854	0.214707	-0.012928	0.760827	-0.128706	0.122385	
0.483274	7.49512	5	0	-0.101009	0.211753	-0.0284758	0.426636	-0.239776	-0.0806955	-0.0504843	-0.0992225	-0.237548	-0.255845	-0.117701	-0.0148265	-0.204627	0.229288	0.065415	-0.143558	-0.246768	0.1586	-0.0851632	-0.072485	-0.13161	0.116391	-0.148574	0.0115155	-0.0969933	0.697048	-0.193145	0.240625	-0.003834	0.790891	-0.113003	0.142122	
0.482945	7.49969	5	0	-0.095874	0.258651	-0.025491	0.48065	-0.240918	-0.040499	-0.052434	-0.04998	-0.233209	-0.222063	-0.101231	0.033346	-0.186992	0.292904	0.087977	-0.113144	-0.228742	0.190728	-0.062029	-0.050032	-0.107833	0.142477	-0.126513	0.051627	-0.094531	0.722699	-0.187435	0.266542	0.00526	0.820955	-0.0973	0.16186	
0.482889	7.50885	5	0	-0.096495	0.30968	-0.0323153	0.53124	-0.24641	-0.00029325	-0.0590465	-0.005003	-0.229166	-0.196571	-0.093091	0.0782925	-0.175268	0.348494	0.104592	-0.08269	-0.212349	0.215898	-0.0490915	-0.0278082	-0.0894062	0.168495	-0.111623	0.083079	-0.0859277	0.741953	-0.185282	0.285736	0.0124527	0.842561	-0.091676	0.184541	
0.483179	7.52106	5	0	-0.097116	0.36071	-0.0391395	0.58183	-0.251901	0.0399125	-0.065659	0.039974	-0.225123	-0.171079	-0.084951	0.123239	-0.163544	0.404083	0.121206	-0.052236	-0.195956	0.241068	-0.036154	-0.0055845	-0.0709795	0.194514	-0.096734	0.114531	-0.0773245	0.761208	-0.18313	0.30493	0.0196455	0.864167	-0.086052	0.207223	
0.4838	7.54242	5	0	-0.097737	0.411739	-0.0459637	0.63242	-0.257393	0.0801183	-0.0722715	0.084951	-0.221079	-0.145586	-0.076811	0.168185	-0.151819	0.459672	0.137821	-0.021782	-0.179562	0.266237	-0.0232165	0.0166393	-0.0525528	0.220532	-0.0818445	0.145983	-0.0687212	0.780463	-0.180977	0.324125	0.0268383	0.885772	-0.080428	0.229904	
0.484642	7.5531	5	0	-0.098358	0.462768	-0.052788	0.68301	-0.262884	0.120324	-0.078884	0.129928	-0.217036	-0.120094	-0.068671	0.213132	-0.140095	0.515262	0.154436	0.008672	-0.163169	0.291407	-0.010279	0.038863	-0.034126	0.246551	-0.066955	0.177435	-0.060118	0.799717	-0.178824	0.343319	0.034031	0.907378	-0.074804	0.252586	
0.485588	7.56988	5	0	-0.101839	0.509646	-0.0525903	0.713808	-0.265621	0.152777	-0.0849152	0.16452	-0.207749	-0.10009	-0.0521693	0.248367	-0.118144	0.555144	0.168721	0.020087	-0.144176	0.309505	0.00595925	0.051944	-0.0211107	0.272481	-0.0546048	0.201567	-0.060414	0.822376	-0.176339	0.353167	0.0393312	0.920407	-0.0698997	0.264488	
0.486522	7.58972	5	0	-0.10532	0.556524	-0.0523925	0.744606	-0.268357	0.185229	-0.0909465	0.199111	-0.198461	-0.0800865	-0.0356675	0.283602	-0.0961925	0.595025	0.183005	0.031502	-0.125184	0.327604	0.0221975	0.065025	-0.0080955	0.298411	-0.0422545	0.225698	-0.06071	0.845036	-0.173854	0.363015	0.0446315	0.933437	-0.0649955	0.276389	
0.487324	7.61566	5	0	-0.1088	0.603403	-0.0521947	0.775404	-0.271093	0.217682	-0.0969778	0.233703	-0.189173	-0.0600828	-0.0191657	0.318837	-0.0742413	0.634907	0.19729	0.042917	-0.106191	0.345702	0.0384358	0.078106	0.00491975	0.32434	-0.0299043	0.24983	-0.061006	0.867695	-0.171369	0.372862	0.0499318	0.946466	-0.0600912	0.288291	
0.487873	7.63245	5	0	-0.112281	0.650281	-0.051997	0.806202	-0.27383	0.250135	-0.103009	0.268295	-0.179886	-0.040079	-0.002664	0.354072	-0.05229	0.674788	0.211575	0.054332	-0.087198	0.3638	0.054674	0.091187	0.017935	0.35027	-0.017554	0.273961	-0.061302	0.890354	-0.168884	0.38271	0.055232	0.959495	-0.055187	0.300193	
0.488047	7.6477	5	0	-0.105721	0.681245	-0.0542973	0.8284	-0.268073	0.271004	-0.105548	0.293032	-0.171848	-0.0257115	0.0118175	0.381647	-0.0361585	0.706004	0.222868	0.0656802	-0.0681397	0.381992	0.070961	0.104318	0.0327415	0.371349	-0.0009255	0.286189	-0.0542795	0.90329	-0.164284	0.386597	0.0586435	0.963874	-0.057965	0.320938	
0.48774	7.66601	5	0	-0.099161	0.712209	-0.0565975	0.850599	-0.262315	0.291872	-0.108086	0.317769	-0.16381	-0.011344	0.026299	0.409222	-0.020027	0.737221	0.234161	0.0770285	-0.0490815	0.400183	0.087248	0.11745	0.047548	0.392428	0.015703	0.298418	-0.047257	0.916225	-0.159684	0.390483	0.062055	0.968253	-0.060743	0.341683	
0.487029	7.68127	5	0	-0.092601	0.743172	-0.0588977	0.872798	-0.256557	0.31274	-0.110625	0.342506	-0.155772	0.0030235	0.0407805	0.436797	-0.0038955	0.768437	0.245455	0.0883768	-0.0300233	0.418374	0.103535	0.130581	0.0623545	0.413507	0.0323315	0.310646	-0.0402345	0.929161	-0.155084	0.394369	0.0654665	0.972632	-0.063521	0.362427	
0.486111	7.69501	5	0	-0.086041	0.774136	-0.061198	0.894996	-0.2508	0.333609	-0.113163	0.367243	-0.147734	0.017391	0.055262	0.464372	0.012236	0.799653	0.256748	0.099725	-0.010965	0.436566	0.119822	0.143712	0.077161	0.434586	0.04896	0.322874	-0.033212	0.942097	-0.150484	0.398256	0.068878	0.977011	-0.066299	0.383172	
0.485183	7.70569	5	0	-0.084994	0.795979	-0.0587403	0.903761	-0.247914	0.350255	-0.110989	0.378677	-0.140945	0.0260657	0.0635337	0.482217	0.0373358	0.805843	0.268064	0.11111	0.00389175	0.454836	0.133798	0.153658	0.0865087	0.455501	0.0540925	0.338052	-0.0289125	0.951832	-0.15083	0.407683	0.070399	0.972712	-0.0621058	0.384224	
0.484422	7.7301	5	0	-0.083947	0.817821	-0.0562825	0.912527	-0.245029	0.3669	-0.108814	0.390111	-0.134156	0.0347405	0.0718055	0.500063	0.0624355	0.812032	0.27938	0.122495	0.0187485	0.473106	0.147774	0.163604	0.0958565	0.476416	0.059225	0.353229	-0.024613	0.961568	-0.151176	0.417109	0.07192	0.968414	-0.0579125	0.385277	
0.483848	7.73926	5	0	-0.0829	0.839664	-0.0538248	0.921293	-0.242143	0.383545	-0.106639	0.401545	-0.127366	0.0434152	0.0800772	0.517908	0.0875352	0.818221	0.290697	0.133879	0.0336052	0.491377	0.161749	0.17355	0.105204	0.497331	0.0643575	0.368407	-0.0203135	0.971303	-0.151522	0.426536	0.073441	0.964115	-0.0537192	0.386329	
0.483402	7.74689	5	0	-0.081853	0.861506	-0.051367	0.930058	-0.239257	0.400191	-0.104465	0.412979	-0.120577	0.05209	0.088349	0.535753	0.112635	0.824411	0.302013	0.145264	0.048462	0.509647	0.175725	0.183496	0.114552	0.518246	0.06949	0.383585	-0.016014	0.981039	-0.151868	0.435962	0.074962	0.959816	-0.049526	0.387381	
0.483029	7.75909	5	0	-0.076363	0.870824	-0.0465192	0.932082	-0.236392	0.404507	-0.105158	0.423733	-0.114032	0.052189	0.09673	0.539599	0.134893	0.8131	0.307272	0.156469	0.057394	0.520652	0.187372	0.190229	0.127479	0.529167	0.0788997	0.386721	-0.009398	0.984254	-0.150097	0.43941	0.073068	0.951148	-0.0512722	0.392316	
0.482667	7.76977	5	0	-0.070873	0.880143	-0.0416715	0.934106	-0.233527	0.408824	-0.105851	0.434486	-0.107486	0.052288	0.105111	0.543444	0.157151	0.801789	0.312531	0.167674	0.066326	0.531658	0.19902	0.196962	0.140405	0.540088	0.0883095	0.389856	-0.002782	0.987469	-0.148326	0.442857	0.071174	0.942481	-0.0530185	0.397251	
0.482247	7.77435	5	0	-0.065383	0.889461	-0.0368238	0.936129	-0.230663	0.41314	-0.106543	0.44524	-0.100941	0.052387	0.113492	0.54729	0.17941	0.790478	0.31779	0.178879	0.075258	0.542663	0.210668	0.203695	0.153332	0.551009	0.0977193	0.392992	0.003834	0.990684	-0.146555	0.446304	0.06928	0.933814	-0.0547648	0.402187	
0.481695	7.7774	5	0	-0.059893	0.898779	-0.031976	0.938153	-0.227798	0.417456	-0.107236	0.455994	-0.094395	0.052486	0.121873	0.551136	0.201668	0.779167	0.323049	0.190084	0.08419	0.553669	0.222315	0.210428	0.166259	0.56193	0.107129	0.396128	0.01045	0.993899	-0.144784	0.449752	0.067386	0.925146	-0.056511	0.407122	
0.480937	7.78046	5	0	-0.059893	0.898779	-0.0223432	0.926667	-0.223506	0.417748	-0.108422	0.459347	-0.0891048	0.046841	0.121873	0.551136	0.219514	0.754582	0.316012	0.192588	0.0927422	0.553704	0.22468	0.213671	0.177278	0.562492	0.118695	0.393217	0.00929275	0.997169	-0.146905	0.455746	0.0620785	0.912138	-0.0607033	0.406067	
0.479921	7.78503	5	0	-0.059893	0.898779	-0.0127105	0.915181	-0.219214	0.41804	-0.109608	0.4627	-0.0838145	0.041196	0.121873	0.551136	0.23736	0.729998	0.308975	0.195093	0.101295	0.553738	0.227044	0.216913	0.188296	0.563055	0.130262	0.390307	0.0081355	1.00044	-0.149025	0.461739	0.056771	0.899129	-0.0648955	0.405012	
0.478665	7.78046	5	0	-0.059893	0.898779	-0.00307775	0.903696	-0.214922	0.418331	-0.110795	0.466053	-0.0785242	0.035551	0.121873	0.551136	0.255207	0.705413	0.301939	0.197598	0.109847	0.553773	0.229409	0.220156	0.199315	0.563617	0.141828	0.387396	0.00697825	1.00371	-0.151146	0.467733	0.0514635	0.88612	-0.0690878	0.403957	
0.477197	7.7713	5	0	-0.059893	0.898779	0.006555	0.89221	-0.21063	0.418623	-0.111981	0.469406	-0.073234	0.029906	0.121873	0.551136	0.273053	0.680828	0.294902	0.200102	0.118399	0.553808	0.231773	0.223399	0.210334	0.564179	0.153394	0.384485	0.005821	1.00698	-0.153267	0.473727	0.046156	0.873112	-0.07328	0.402902	
0.47555	7.76977	5	0	-0.055437	0.886186	0.0089425	0.885462	-0.213498	0.414306	-0.109609	0.462701	-0.0734915	0.021328	0.130448	0.526901	0.271537	0.65926	0.28566	0.191504	0.120987	0.546494	0.23161	0.213933	0.221212	0.549309	0.155533	0.378441	0.003091	1.00374	-0.153267	0.473727	0.04538	0.847338	-0.0774693	0.401847	
0.473835	7.76672	5	0	-0.050981	0.873593	0.01133	0.878715	-0.216365	0.409988	-0.107236	0.455997	-0.073749	0.01275	0.139024	0.502666	0.270022	0.637691	0.276419	0.182906	0.123575	0.53918	0.231448	0.204467	0.23209	0.534439	0.157672	0.372396	0.000361	1.00049	-0.153267	0.473727	0.044604	0.821565	-0.0816585	0.400792	
0.472313	7.75604	5	0	-0.046525	0.861	0.0137175	0.871968	-0.219232	0.405671	-0.104864	0.449292	-0.0740065	0.004172	0.147599	0.478431	0.268506	0.616123	0.267177	0.174308	0.126163	0.531866	0.231286	0.195001	0.242967	0.519569	0.15981	0.366351	-0.002369	0.997248	-0.153267	0.473727	0.043828	0.795791	-0.0858478	0.399738	
0.471263	7.74994	5	0	-0.042069	0.848407	0.016105	0.86522	-0.2221	0.401354	-0.102492	0.442588	-0.074264	-0.004406	0.156175	0.454196	0.266991	0.594555	0.257935	0.16571	0.128751	0.524552	0.231123	0.185535	0.253845	0.504699	0.161949	0.360307	-0.005099	0.994004	-0.153267	0.473727	0.043052	0.770018	-0.090037	0.398683	
0.470947	7.74231	5	0	-0.0488355	0.830291	0.0160138	0.84974	-0.21928	0.380972	-0.099434	0.425149	-0.0780617	-0.021563	0.13735	0.438643	0.25651	0.559705	0.243622	0.154206	0.130519	0.49535	0.222765	0.169508	0.246374	0.494082	0.154652	0.351154	-0.0059385	0.974477	-0.156806	0.466827	0.0260123	0.748443	-0.0914418	0.376891	
0.471273	7.73926	5	0	-0.055602	0.812175	0.0159225	0.834261	-0.216461	0.36059	-0.096376	0.407711	-0.0818595	-0.03872	0.118525	0.423091	0.246029	0.524855	0.229309	0.142703	0.132287	0.466148	0.214406	0.15348	0.238903	0.483465	0.147354	0.342	-0.006778	0.954951	-0.160345	0.459927	0.0089725	0.726867	-0.0928465	0.3551	
0.471793	7.72552	5	0	-0.0623685	0.79406	0.0158313	0.818781	-0.213641	0.340208	-0.093318	0.390273	-0.0856573	-0.055877	0.0997	0.407539	0.235548	0.490006	0.214995	0.131199	0.134055	0.436946	0.206047	0.137453	0.231433	0.472849	0.140057	0.332846	-0.0076175	0.935424	-0.163883	0.453026	-0.00806725	0.705291	-0.0942513	0.333309	
0.472042	7.71637	5	0	-0.069135	0.775944	0.01574	0.803301	-0.210821	0.319826	-0.09026	0.372834	-0.089455	-0.073034	0.080875	0.391986	0.225067	0.455156	0.200682	0.119695	0.135823	0.407744	0.197689	0.121425	0.223962	0.462232	0.13276	0.323693	-0.008457	0.915897	-0.167422	0.446126	-0.025107	0.683716	-0.095656	0.311517	
0.471613	7.71332	5	0	-0.0729535	0.749571	0.00593075	0.78389	-0.216596	0.298958	-0.091764	0.350721	-0.095528	-0.092992	0.0747755	0.354403	0.214517	0.4079	0.175174	0.09691	0.1273	0.371457	0.183353	0.0927545	0.219865	0.426315	0.122894	0.306999	-0.020943	0.896547	-0.171671	0.43281	-0.043998	0.653768	-0.116543	0.306298	
0.470656	7.70416	5	0	-0.076772	0.723198	-0.0038785	0.764478	-0.222371	0.27809	-0.093268	0.328608	-0.101601	-0.11295	0.068676	0.31682	0.203967	0.360645	0.149666	0.074125	0.118777	0.33517	0.169017	0.064084	0.215769	0.390398	0.113028	0.290305	-0.033429	0.877198	-0.17592	0.419493	-0.062889	0.623821	-0.13743	0.301079	
0.469633	7.69653	5	0	-0.0805905	0.696825	-0.0136878	0.745067	-0.228146	0.257222	-0.094772	0.306495	-0.107674	-0.132908	0.0625765	0.279236	0.193417	0.313389	0.124158	0.05134	0.110253	0.298883	0.154682	0.0354135	0.211673	0.354481	0.103162	0.273612	-0.045915	0.857849	-0.180168	0.406176	-0.08178	0.593874	-0.158316	0.295859	
0.469008	7.68738	5	0	-0.084409	0.670452	-0.023497	0.725655	-0.233921	0.236354	-0.096276	0.284382	-0.113747	-0.152866	0.056477	0.241653	0.182867	0.266133	0.09865	0.028555	0.10173	0.262596	0.140346	0.006743	0.207576	0.318564	0.093296	0.256918	-0.058401	0.838499	-0.184417	0.39286	-0.100671	0.563926	-0.179203	0.29064	
0.469121	7.68127	5	0	-0.095399	0.652074	-0.0356603	0.713016	-0.239702	0.215578	-0.104184	0.27164	-0.121095	-0.178396	0.0356778	0.218504	0.166395	0.223171	0.0761007	-0.0021115	0.0804197	0.226628	0.123679	-0.0249082	0.197941	0.282656	0.0829833	0.226793	-0.06972	0.816011	-0.195364	0.381667	-0.128827	0.546741	-0.188237	0.277727	
0.469751	7.6767	5	0	-0.106389	0.633696	-0.0478235	0.700376	-0.245484	0.194802	-0.112093	0.258899	-0.128444	-0.203927	0.0148785	0.195354	0.149922	0.180208	0.0535515	-0.032778	0.0591095	0.19066	0.107012	-0.0565595	0.188306	0.246748	0.0726705	0.196668	-0.081039	0.793524	-0.206311	0.370474	-0.156982	0.529556	-0.19727	0.264814	
0.470526	7.66754	5	0	-0.117379	0.615318	-0.0599868	0.687737	-0.251266	0.174026	-0.120001	0.246157	-0.135792	-0.229457	-0.00592075	0.172204	0.133449	0.137246	0.0310022	-0.0634445	0.0377993	0.154692	0.0903443	-0.0882108	0.178672	0.210839	0.0623578	0.166543	-0.092358	0.771036	-0.217257	0.359282	-0.185138	0.512371	-0.206304	0.251901	
0.471074	7.66296	5	0	-0.128369	0.59694	-0.07215	0.675098	-0.257047	0.15325	-0.12791	0.233415	-0.143141	-0.254987	-0.02672	0.149055	0.116977	0.094284	0.008453	-0.094111	0.016489	0.118724	0.073677	-0.119862	0.169037	0.174931	0.052045	0.136418	-0.103677	0.748548	-0.228204	0.348089	-0.213293	0.495186	-0.215337	0.238988	
0.471163	7.65533	5	0	-0.135138	0.579076	-0.0891125	0.660534	-0.262835	0.132566	-0.134637	0.217399	-0.150498	-0.280378	-0.0307567	0.106042	0.103384	0.0436133	-0.008994	-0.12168	0.0045175	0.0687925	0.0503845	-0.142237	0.150182	0.13391	0.041728	0.106493	-0.119541	0.739063	-0.241578	0.352249	-0.234583	0.48655	-0.233687	0.239714	
0.470881	7.65076	5	0	-0.141906	0.561213	-0.106075	0.645971	-0.268622	0.111881	-0.141364	0.201383	-0.157855	-0.305769	-0.0347935	0.0630295	0.0897905	-0.0070575	-0.026441	-0.149249	-0.007454	0.018861	0.027092	-0.164612	0.131328	0.092888	0.031411	0.0765675	-0.135405	0.729578	-0.254951	0.356409	-0.255873	0.477913	-0.252037	0.24044	
0.470354	7.63855	5	0	-0.148674	0.543349	-0.123038	0.631407	-0.27441	0.0911973	-0.148091	0.185368	-0.165212	-0.33116	-0.0388303	0.0200167	0.0761973	-0.0577283	-0.043888	-0.176818	-0.0194255	-0.0310705	0.0037995	-0.186988	0.112473	0.0518665	0.021094	0.0466422	-0.151268	0.720093	-0.268325	0.360568	-0.277164	0.469277	-0.270387	0.241165	
0.469712	7.63397	5	0	-0.155443	0.525485	-0.14	0.616843	-0.280198	0.070513	-0.154818	0.169352	-0.172569	-0.356551	-0.042867	-0.022996	0.062604	-0.108399	-0.061335	-0.204387	-0.031397	-0.081002	-0.019493	-0.209363	0.093619	0.010845	0.010777	0.016717	-0.167132	0.710608	-0.281698	0.364728	-0.298454	0.460641	-0.288737	0.241891	
0.469117	7.63092	5	0	-0.162211	0.507693	-0.149752	0.597663	-0.293056	0.0575785	-0.162712	0.1567	-0.177962	-0.387377	-0.063593	-0.0457562	0.0387703	-0.15496	-0.0817085	-0.231858	-0.053102	-0.126807	-0.041616	-0.234628	0.074794	-0.0297847	-0.0130645	-0.004176	-0.191339	0.714048	-0.301009	0.377347	-0.327046	0.472895	-0.310481	0.252348	
0.468763	7.62482	5	0	-0.168979	0.489901	-0.159503	0.578483	-0.305915	0.044644	-0.170606	0.144048	-0.183356	-0.418204	-0.084319	-0.0685165	0.0149365	-0.20152	-0.102082	-0.259329	-0.074807	-0.172611	-0.063739	-0.259892	0.055969	-0.0704145	-0.036906	-0.025069	-0.215546	0.717488	-0.320321	0.389965	-0.355638	0.48515	-0.332225	0.262805	
0.468851	7.61871	5	0	-0.175747	0.47211	-0.169255	0.559303	-0.318773	0.0317095	-0.1785	0.131396	-0.188749	-0.44903	-0.105045	-0.0912768	-0.00889725	-0.248081	-0.122456	-0.286799	-0.096512	-0.218416	-0.085862	-0.285157	0.037144	-0.111044	-0.0607475	-0.045962	-0.239753	0.720929	-0.339633	0.402584	-0.384231	0.497404	-0.353968	0.273262	
0.469542	7.61261	5	0	-0.182515	0.454318	-0.179006	0.540123	-0.331632	0.018775	-0.186394	0.118744	-0.194142	-0.479856	-0.125771	-0.114037	-0.032731	-0.294642	-0.142829	-0.31427	-0.118217	-0.264221	-0.107985	-0.310422	0.018319	-0.151674	-0.084589	-0.066855	-0.26396	0.724369	-0.358944	0.415203	-0.412823	0.509658	-0.375712	0.283719	
0.470609	7.61413	5	0	-0.194928	0.440286	-0.195888	0.525697	-0.33602	-0.00569325	-0.1891	0.100214	-0.205748	-0.502189	-0.134016	-0.144761	-0.0449493	-0.348235	-0.165162	-0.34426	-0.142358	-0.30253	-0.135359	-0.320436	-0.00417825	-0.19697	-0.106247	-0.0935037	-0.274323	0.721254	-0.369457	0.419784	-0.43022	0.517813	-0.389149	0.29625	
0.471586	7.60345	5	0	-0.20734	0.426254	-0.21277	0.511271	-0.340409	-0.0301615	-0.191806	0.081685	-0.217354	-0.524521	-0.142261	-0.175486	-0.0571675	-0.401829	-0.187495	-0.37425	-0.166498	-0.340839	-0.162733	-0.330449	-0.0266755	-0.242266	-0.127905	-0.120152	-0.284686	0.71814	-0.37997	0.424366	-0.447617	0.525969	-0.402587	0.308781	
0.472005	7.59735	5	0	-0.219753	0.412222	-0.229652	0.496845	-0.344797	-0.0546298	-0.194513	0.0631555	-0.22896	-0.546854	-0.150506	-0.206211	-0.0693857	-0.455422	-0.209828	-0.40424	-0.190639	-0.379148	-0.190106	-0.340463	-0.0491728	-0.287563	-0.149562	-0.146801	-0.295049	0.715025	-0.390483	0.428947	-0.465014	0.534124	-0.416025	0.321312	
0.471513	7.59582	5	0	-0.232165	0.39819	-0.246534	0.482419	-0.349185	-0.079098	-0.197219	0.044626	-0.240566	-0.569187	-0.158751	-0.236935	-0.081604	-0.509015	-0.232161	-0.43423	-0.21478	-0.417457	-0.21748	-0.350477	-0.07167	-0.332859	-0.17122	-0.17345	-0.305412	0.71191	-0.400996	0.433528	-0.482411	0.542279	-0.429462	0.333843	
0.470359	7.59277	5	0	-0.241654	0.376026	-0.258707	0.454891	-0.363473	-0.100008	-0.205623	0.024829	-0.249227	-0.599681	-0.175262	-0.271021	-0.103984	-0.558458	-0.26139	-0.469454	-0.242529	-0.444963	-0.253411	-0.345536	-0.102644	-0.353565	-0.196938	-0.188213	-0.316891	0.712006	-0.409389	0.432152	-0.493493	0.54631	-0.441157	0.341485	
0.468987	7.58819	5	0	-0.251144	0.353862	-0.27088	0.427362	-0.37776	-0.120918	-0.214027	0.005032	-0.257887	-0.630174	-0.191772	-0.305107	-0.126365	-0.607901	-0.29062	-0.504678	-0.270277	-0.472469	-0.289343	-0.340595	-0.133619	-0.374271	-0.222656	-0.202975	-0.328369	0.712101	-0.417783	0.430777	-0.504576	0.550342	-0.452852	0.349127	
0.467842	7.58362	5	0	-0.260634	0.331698	-0.283053	0.399834	-0.392047	-0.141828	-0.222431	-0.014765	-0.266547	-0.660667	-0.208282	-0.339194	-0.148746	-0.657344	-0.31985	-0.539902	-0.298025	-0.499976	-0.325274	-0.335655	-0.164593	-0.394978	-0.248373	-0.217738	-0.339848	0.712197	-0.426176	0.429401	-0.515659	0.554373	-0.464547	0.356768	
0.467207	7.58362	5	0	-0.270123	0.309534	-0.295226	0.372306	-0.406335	-0.162738	-0.230835	-0.034562	-0.275208	-0.691161	-0.224793	-0.37328	-0.171126	-0.706787	-0.349079	-0.575126	-0.325774	-0.527482	-0.361205	-0.330714	-0.195567	-0.415684	-0.274091	-0.2325	-0.351327	0.712292	-0.434569	0.428025	-0.526741	0.558404	-0.476242	0.36441	
0.466972	7.57904	5	0	-0.279458	0.274868	-0.305074	0.338414	-0.413593	-0.191113	-0.235765	-0.0640773	-0.282911	-0.724201	-0.241277	-0.407092	-0.193467	-0.755664	-0.384005	-0.610177	-0.364878	-0.533964	-0.391454	-0.331743	-0.23172	-0.436452	-0.310938	-0.244323	-0.35825	0.699568	-0.436651	0.408846	-0.538169	0.549841	-0.476907	0.353599	
0.466966	7.57294	5	0	-0.288793	0.240203	-0.314922	0.304521	-0.420851	-0.219488	-0.240694	-0.0935925	-0.290613	-0.757241	-0.257761	-0.440905	-0.215808	-0.804541	-0.418932	-0.645227	-0.403982	-0.540446	-0.421704	-0.332773	-0.267873	-0.45722	-0.347784	-0.256146	-0.365173	0.686844	-0.438733	0.389667	-0.549597	0.541278	-0.477573	0.342788	
0.467023	7.56988	5	0	-0.298128	0.205537	-0.324771	0.270628	-0.428108	-0.247862	-0.245624	-0.123108	-0.298316	-0.790281	-0.274245	-0.474717	-0.238148	-0.853417	-0.453858	-0.680277	-0.443086	-0.546928	-0.451954	-0.333802	-0.304026	-0.477987	-0.384631	-0.26797	-0.372096	0.67412	-0.440815	0.370489	-0.561026	0.532715	-0.478239	0.331976	
0.467104	7.56683	5	0	-0.307463	0.170872	-0.334619	0.236736	-0.435366	-0.276237	-0.250553	-0.152623	-0.306018	-0.823321	-0.290729	-0.508529	-0.260489	-0.902294	-0.488784	-0.715328	-0.48219	-0.55341	-0.482203	-0.334831	-0.340179	-0.498755	-0.421478	-0.279793	-0.379019	0.661396	-0.442897	0.35131	-0.572454	0.524152	-0.478904	0.321165	
0.467318	7.56836	5	0	-0.319547	0.13203	-0.34695	0.194714	-0.445489	-0.308556	-0.266835	-0.184559	-0.315675	-0.850677	-0.313312	-0.538069	-0.285535	-0.942856	-0.539277	-0.721964	-0.505008	-0.570385	-0.503505	-0.341644	-0.36376	-0.523788	-0.442803	-0.306023	-0.382549	0.639138	-0.452316	0.327905	-0.573199	0.499068	-0.48436	0.298561	
0.467784	7.56073	5	0	-0.331631	0.0931885	-0.359281	0.152693	-0.455611	-0.340875	-0.283116	-0.216495	-0.325331	-0.878033	-0.335894	-0.567608	-0.310581	-0.983419	-0.58977	-0.7286	-0.527826	-0.58736	-0.524807	-0.348457	-0.387342	-0.548821	-0.464128	-0.332253	-0.386078	0.61688	-0.461734	0.3045	-0.573945	0.473984	-0.489816	0.275956	
0.468598	7.55768	5	0	-0.343716	0.0543467	-0.371611	0.110671	-0.465734	-0.373195	-0.299397	-0.248431	-0.334987	-0.90539	-0.358477	-0.597147	-0.335626	-1.02398	-0.640264	-0.735236	-0.550643	-0.604334	-0.54611	-0.355269	-0.410923	-0.573853	-0.485452	-0.358482	-0.389608	0.594621	-0.471153	0.281094	-0.57469	0.448901	-0.495272	0.253352	
0.469607	7.56225	5	0	-0.3558	0.015505	-0.383942	0.068649	-0.475857	-0.405514	-0.315679	-0.280367	-0.344644	-0.932746	-0.38106	-0.626687	-0.360672	-1.06454	-0.690757	-0.741872	-0.573461	-0.621309	-0.567412	-0.362082	-0.434504	-0.598886	-0.506777	-0.384712	-0.393138	0.572363	-0.480572	0.257689	-0.575436	0.423817	-0.500728	0.230747	
0.470506	7.5592	5	0	-0.369208	-0.0314033	-0.394015	0.0205628	-0.483257	-0.445329	-0.324545	-0.324326	-0.364569	-0.94905	-0.419777	-0.636621	-0.392446	-1.08543	-0.737783	-0.740717	-0.590861	-0.641677	-0.585468	-0.37783	-0.456311	-0.628485	-0.523956	-0.42226	-0.401613	0.553424	-0.484086	0.226035	-0.58576	0.398733	-0.506194	0.208249	
0.470989	7.55615	5	0	-0.382615	-0.0783115	-0.404088	-0.0275235	-0.490657	-0.485145	-0.333411	-0.368285	-0.384494	-0.965353	-0.458493	-0.646554	-0.424221	-1.10631	-0.784809	-0.739563	-0.60826	-0.662044	-0.603523	-0.393578	-0.478117	-0.658083	-0.541135	-0.459807	-0.410088	0.534485	-0.487599	0.194381	-0.596085	0.373648	-0.51166	0.18575	
0.47083	7.55463	5	0	-0.396022	-0.12522	-0.414161	-0.0756097	-0.498057	-0.52496	-0.342277	-0.412245	-0.404419	-0.981657	-0.49721	-0.656488	-0.455995	-1.1272	-0.831834	-0.738408	-0.62566	-0.682412	-0.621579	-0.409326	-0.499924	-0.687682	-0.558313	-0.497354	-0.418564	0.515546	-0.491113	0.162727	-0.60641	0.348564	-0.517127	0.163251	
0.470221	7.56073	5	0	-0.40943	-0.172128	-0.424234	-0.123696	-0.505457	-0.564776	-0.351143	-0.456204	-0.424344	-0.997961	-0.535927	-0.666421	-0.48777	-1.14808	-0.87886	-0.737253	-0.64306	-0.70278	-0.639634	-0.425074	-0.521731	-0.71728	-0.575492	-0.534902	-0.427039	0.496607	-0.494627	0.131073	-0.616734	0.32348	-0.522593	0.140753	
0.469482	7.56225	5	0	-0.422867	-0.218569	-0.448357	-0.162169	-0.512899	-0.604275	-0.360057	-0.499774	-0.43972	-1.00878	-0.560247	-0.676836	-0.520538	-1.15331	-0.902836	-0.743192	-0.653893	-0.729919	-0.653263	-0.443605	-0.534846	-0.755898	-0.592646	-0.572121	-0.434389	0.474585	-0.500244	0.105455	-0.613157	0.286299	-0.530464	0.112522	
0.468935	7.56073	5	0	-0.436304	-0.265011	-0.472481	-0.200643	-0.520341	-0.643775	-0.36897	-0.543344	-0.455095	-1.01961	-0.584566	-0.68725	-0.553307	-1.15854	-0.926813	-0.749132	-0.664725	-0.757057	-0.666891	-0.462136	-0.547961	-0.794516	-0.609801	-0.60934	-0.441739	0.452563	-0.505861	0.079837	-0.60958	0.249118	-0.538335	0.084291	
0.468797	7.56073	5	0	-0.44974	-0.311452	-0.496605	-0.239117	-0.527783	-0.683275	-0.377883	-0.586914	-0.470471	-1.03043	-0.608885	-0.697665	-0.586075	-1.16377	-0.950789	-0.755071	-0.675558	-0.784196	-0.680519	-0.480666	-0.561076	-0.833134	-0.626955	-0.646559	-0.449088	0.430541	-0.511477	0.054219	-0.606003	0.211938	-0.546207	0.05606	
0.469033	7.56378	5	0	-0.463177	-0.357893	-0.520728	-0.27759	-0.535225	-0.722774	-0.386797	-0.630484	-0.485847	-1.04125	-0.633205	-0.708079	-0.618843	-1.169	-0.974765	-0.76101	-0.686391	-0.811335	-0.694148	-0.499197	-0.574191	-0.871752	-0.64411	-0.683778	-0.456438	0.408519	-0.517094	0.028601	-0.602426	0.174757	-0.554078	0.027829	
0.46957	7.56683	5	0	-0.47399	-0.387396	-0.542085	-0.293039	-0.550807	-0.739073	-0.399703	-0.653968	-0.492561	-1.04935	-0.643315	-0.718955	-0.633122	-1.17737	-0.97973	-0.771479	-0.69024	-0.835026	-0.705312	-0.505579	-0.580075	-0.900387	-0.649662	-0.710792	-0.459555	0.395969	-0.518519	0.0160565	-0.60947	0.154129	-0.567048	0.0141443	
0.470334	7.56225	5	0	-0.484804	-0.416899	-0.563441	-0.308488	-0.566389	-0.755372	-0.412609	-0.677451	-0.499275	-1.05746	-0.653425	-0.72983	-0.6474	-1.18574	-0.984695	-0.781949	-0.694088	-0.858716	-0.716476	-0.511961	-0.585958	-0.929022	-0.655213	-0.737805	-0.462672	0.383418	-0.519943	0.003512	-0.616514	0.133501	-0.580017	0.0004595	
0.471223	7.56225	5	0	-0.495617	-0.446402	-0.584798	-0.323936	-0.581971	-0.771671	-0.425516	-0.700935	-0.505989	-1.06556	-0.663535	-0.740706	-0.661679	-1.19412	-0.989661	-0.792419	-0.697936	-0.882407	-0.727641	-0.518342	-0.591841	-0.957658	-0.660764	-0.764818	-0.465788	0.370868	-0.521367	-0.0090325	-0.623558	0.112874	-0.592987	-0.0132253	
0.472094	7.56531	5	0	-0.50643	-0.475905	-0.606155	-0.339385	-0.597553	-0.78797	-0.438422	-0.724418	-0.512703	-1.07366	-0.673645	-0.751581	-0.675957	-1.20249	-0.994626	-0.802888	-0.701785	-0.906098	-0.738805	-0.524724	-0.597725	-0.986293	-0.666316	-0.791832	-0.468905	0.358317	-0.522792	-0.021577	-0.630602	0.092246	-0.605957	-0.02691	
0.472804	7.56378	5	0	-0.526999	-0.477645	-0.615573	-0.343004	-0.61147	-0.784747	-0.450771	-0.723693	-0.513027	-1.08177	-0.675673	-0.75898	-0.683082	-1.20667	-0.980487	-0.810169	-0.706361	-0.916173	-0.737757	-0.527686	-0.601658	-1.00529	-0.671364	-0.805982	-0.467117	0.342592	-0.520012	-0.0211493	-0.635781	0.079908	-0.604958	-0.042296	
0.473223	7.5592	5	0	-0.547568	-0.479384	-0.624991	-0.346624	-0.625387	-0.781524	-0.46312	-0.722969	-0.51335	-1.08987	-0.677701	-0.766379	-0.690207	-1.21085	-0.966349	-0.81745	-0.710938	-0.926248	-0.736709	-0.530647	-0.605592	-1.02429	-0.676411	-0.820132	-0.465329	0.326867	-0.517233	-0.0207215	-0.64096	0.06757	-0.60396	-0.057682	
0.473414	7.56378	5	0	-0.568137	-0.481124	-0.63441	-0.350243	-0.639303	-0.778302	-0.475469	-0.722245	-0.513674	-1.09797	-0.679729	-0.773777	-0.697332	-1.21503	-0.952211	-0.824731	-0.715515	-0.936322	-0.735661	-0.533608	-0.609525	-1.04329	-0.681458	-0.834282	-0.46354	0.311141	-0.514454	-0.0202937	-0.646138	0.055232	-0.602962	-0.073068	
0.473575	7.56225	5	0	-0.588706	-0.482864	-0.643828	-0.353863	-0.65322	-0.775079	-0.487818	-0.72152	-0.513997	-1.10608	-0.681757	-0.781176	-0.704457	-1.21921	-0.938072	-0.832012	-0.720091	-0.946397	-0.734613	-0.53657	-0.613459	-1.06228	-0.686506	-0.848432	-0.461752	0.295416	-0.511674	-0.019866	-0.651317	0.042894	-0.601963	-0.088454	
0.473912	7.56073	5	0	-0.591499	-0.474971	-0.652831	-0.32842	-0.657274	-0.763622	-0.48785	-0.70435	-0.509847	-1.10879	-0.677721	-0.779453	-0.701749	-1.22686	-0.918906	-0.828856	-0.71889	-0.949792	-0.730082	-0.530419	-0.611807	-1.06695	-0.679449	-0.839961	-0.459522	0.289114	-0.504682	-0.00645575	-0.653184	0.034698	-0.605352	-0.078877	
0.474575	7.55768	5	0	-0.594291	-0.467079	-0.661833	-0.302976	-0.661328	-0.752166	-0.487881	-0.68718	-0.505696	-1.1115	-0.673685	-0.777729	-0.699041	-1.23451	-0.89974	-0.8257	-0.717688	-0.953187	-0.72555	-0.524268	-0.610156	-1.07162	-0.672392	-0.83149	-0.457291	0.282811	-0.49769	0.0069545	-0.655051	0.026502	-0.60874	-0.0693	
0.475368	7.55615	5	0	-0.597084	-0.459186	-0.670836	-0.277533	-0.665381	-0.740709	-0.487913	-0.67001	-0.501546	-1.11421	-0.669648	-0.776006	-0.696334	-1.24216	-0.880574	-0.822543	-0.716487	-0.956582	-0.721019	-0.518117	-0.608505	-1.07628	-0.665335	-0.82302	-0.455061	0.276509	-0.490697	0.0203648	-0.656918	0.018306	-0.612128	-0.059723	
0.475954	7.56073	5	0	-0.599877	-0.451293	-0.679839	-0.25209	-0.669435	-0.729252	-0.487945	-0.65284	-0.497396	-1.11692	-0.665612	-0.774283	-0.693626	-1.24982	-0.861408	-0.819387	-0.715286	-0.959977	-0.716488	-0.511966	-0.606853	-1.08095	-0.658278	-0.814549	-0.452831	0.270207	-0.483705	0.033775	-0.658785	0.01011	-0.615517	-0.050146	
0.475992	7.55768	5	0	-0.59866	-0.430809	-0.667801	-0.22559	-0.669195	-0.705865	-0.477355	-0.622867	-0.495156	-1.11423	-0.653485	-0.769109	-0.688032	-1.25347	-0.829567	-0.810696	-0.711194	-0.960041	-0.705145	-0.496545	-0.606853	-1.08095	-0.648684	-0.798959	-0.45015	0.2733	-0.471456	0.0573482	-0.658785	0.01011	-0.610737	-0.0385203	
0.475295	7.56378	5	0	-0.597442	-0.410324	-0.655763	-0.199091	-0.668956	-0.682478	-0.466764	-0.592893	-0.492917	-1.11154	-0.641358	-0.763934	-0.682438	-1.25713	-0.797725	-0.802005	-0.707102	-0.960104	-0.693802	-0.481125	-0.606853	-1.08095	-0.639091	-0.78337	-0.447469	0.276393	-0.459206	0.0809215	-0.658785	0.01011	-0.605957	-0.0268945	
0.474233	7.56988	5	0	-0.596224	-0.38984	-0.643724	-0.172591	-0.668716	-0.659092	-0.456174	-0.56292	-0.490677	-1.10885	-0.629231	-0.75876	-0.676845	-1.26078	-0.765884	-0.793315	-0.70301	-0.960168	-0.682459	-0.465704	-0.606853	-1.08095	-0.629498	-0.76778	-0.444788	0.279487	-0.446956	0.104495	-0.658785	0.01011	-0.601176	-0.0152688	
0.473306	7.56836	5	0	-0.595007	-0.369356	-0.631686	-0.146091	-0.668476	-0.635705	-0.445583	-0.532947	-0.488438	-1.10615	-0.617104	-0.753586	-0.671251	-1.26444	-0.734043	-0.784624	-0.698918	-0.960232	-0.671116	-0.450283	-0.606853	-1.08095	-0.619904	-0.75219	-0.442107	0.28258	-0.434707	0.128068	-0.658785	0.01011	-0.596396	-0.003643	
0.473013	7.56988	5	0	-0.585579	-0.34806	-0.617192	-0.111123	-0.658517	-0.61563	-0.428825	-0.494396	-0.482999	-1.10347	-0.608983	-0.737006	-0.661406	-1.26793	-0.704585	-0.76038	-0.696025	-0.956899	-0.649751	-0.434447	-0.59795	-1.076	-0.609792	-0.723678	-0.439424	0.285676	-0.423486	0.154731	-0.647823	0.00608425	-0.595022	0.0176422	
0.473559	7.57141	5	0	-0.57615	-0.326763	-0.602698	-0.0761545	-0.648557	-0.595554	-0.412068	-0.455845	-0.47756	-1.10078	-0.600862	-0.720425	-0.651562	-1.27142	-0.675127	-0.736136	-0.693133	-0.953566	-0.628386	-0.418611	-0.589047	-1.07105	-0.59968	-0.695167	-0.436742	0.288772	-0.412266	0.181393	-0.636861	0.0020585	-0.593647	0.0389275	
0.474566	7.57751	5	0	-0.566721	-0.305466	-0.588204	-0.0411863	-0.638598	-0.575479	-0.39531	-0.417294	-0.47212	-1.0981	-0.592741	-0.703845	-0.641717	-1.27491	-0.64567	-0.711893	-0.69024	-0.950233	-0.60702	-0.402775	-0.580143	-1.0661	-0.589567	-0.666655	-0.43406	0.291868	-0.401045	0.208056	-0.625899	-0.00196725	-0.592272	0.0602127	
0.475586	7.58209	5	0	-0.557293	-0.28417	-0.57371	-0.006218	-0.628639	-0.555404	-0.378552	-0.378743	-0.466681	-1.09542	-0.58462	-0.687265	-0.631872	-1.2784	-0.616212	-0.687649	-0.687347	-0.9469	-0.585655	-0.386939	-0.57124	-1.06114	-0.579455	-0.638143	-0.431377	0.294964	-0.389824	0.234719	-0.614937	-0.005993	-0.590898	0.081498	
0.476179	7.57599	5	0	-0.538189	-0.266016	-0.559207	0.0290335	-0.614465	-0.535007	-0.358946	-0.339191	-0.463154	-1.08731	-0.572431	-0.668873	-0.630332	-1.27058	-0.58259	-0.657861	-0.676251	-0.943692	-0.56633	-0.365024	-0.562322	-1.05618	-0.56478	-0.608007	-0.424891	0.298006	-0.375791	0.261997	-0.619273	0.00626025	-0.579636	0.100111	
0.47619	7.57751	5	0	-0.519085	-0.247862	-0.544703	0.064285	-0.600292	-0.514611	-0.339339	-0.299639	-0.459626	-1.0792	-0.560243	-0.650481	-0.628791	-1.26276	-0.548968	-0.628073	-0.665156	-0.940484	-0.547004	-0.34311	-0.553404	-1.05122	-0.550106	-0.57787	-0.418405	0.301047	-0.361757	0.289274	-0.623609	0.0185135	-0.568374	0.118724	
0.475803	7.58362	5	0	-0.49998	-0.229708	-0.5302	0.0995365	-0.586118	-0.494215	-0.319732	-0.260087	-0.456099	-1.0711	-0.548054	-0.632089	-0.62725	-1.25493	-0.515346	-0.598285	-0.65406	-0.937277	-0.527679	-0.321196	-0.544486	-1.04626	-0.535431	-0.547734	-0.411919	0.304088	-0.347723	0.316552	-0.627944	0.0307668	-0.557111	0.137336	
0.475222	7.58362	5	0	-0.480876	-0.211554	-0.515696	0.134788	-0.571945	-0.473818	-0.300126	-0.220535	-0.452572	-1.06299	-0.535866	-0.613697	-0.62571	-1.24711	-0.481724	-0.568497	-0.642964	-0.934069	-0.508353	-0.299281	-0.535568	-1.0413	-0.520756	-0.517598	-0.405433	0.30713	-0.33369	0.34383	-0.63228	0.04302	-0.545849	0.155949	
0.474645	7.57904	5	0	-0.465851	-0.193681	-0.501183	0.170327	-0.560584	-0.457423	-0.27932	-0.183886	-0.445838	-1.05488	-0.517547	-0.599209	-0.619917	-1.2391	-0.442936	-0.535648	-0.638368	-0.923976	-0.487895	-0.280252	-0.528295	-1.03165	-0.510639	-0.488704	-0.402746	0.310231	-0.324206	0.36739	-0.615084	0.0349268	-0.547934	0.187114	
0.474196	7.57904	5	0	-0.450827	-0.175808	-0.48667	0.205865	-0.549222	-0.441028	-0.258514	-0.147238	-0.439104	-1.04676	-0.499228	-0.584722	-0.614124	-1.2311	-0.404149	-0.5028	-0.633773	-0.913884	-0.467437	-0.261223	-0.521022	-1.02199	-0.500522	-0.459809	-0.40006	0.313333	-0.314723	0.39095	-0.597888	0.0268335	-0.550019	0.218279	
0.473947	7.58209	5	0	-0.435802	-0.157934	-0.472157	0.241404	-0.537861	-0.424632	-0.237708	-0.110589	-0.43237	-1.03865	-0.480909	-0.570234	-0.60833	-1.22309	-0.365361	-0.469951	-0.629177	-0.903792	-0.446979	-0.242194	-0.513748	-1.01234	-0.490405	-0.430915	-0.397373	0.316435	-0.305239	0.414509	-0.580692	0.0187403	-0.552104	0.249444	
0.473967	7.58362	5	0	-0.420777	-0.140061	-0.457644	0.276943	-0.526499	-0.408237	-0.216902	-0.07394	-0.425636	-1.03054	-0.46259	-0.555746	-0.602537	-1.21508	-0.326573	-0.437102	-0.624581	-0.893699	-0.426521	-0.223165	-0.506475	-1.00268	-0.480288	-0.402021	-0.394686	0.319536	-0.295755	0.438069	-0.563496	0.010647	-0.554189	0.280609	
0.474295	7.57599	5	0	-0.412597	-0.126883	-0.445563	0.304271	-0.515118	-0.391772	-0.201748	-0.0383057	-0.422104	-1.0224	-0.450339	-0.537191	-0.589755	-1.21458	-0.294532	-0.409502	-0.620472	-0.893762	-0.406147	-0.213243	-0.502835	-0.997842	-0.459411	-0.388912	-0.395804	0.322697	-0.286967	0.455305	-0.564943	0.014737	-0.545315	0.293504	
0.47475	7.57751	5	0	-0.404417	-0.113705	-0.433482	0.331599	-0.503736	-0.375308	-0.186595	-0.0026715	-0.418573	-1.01426	-0.438088	-0.518636	-0.576973	-1.21407	-0.262492	-0.381902	-0.616362	-0.893825	-0.385773	-0.203321	-0.499195	-0.993005	-0.438535	-0.375803	-0.396922	0.325858	-0.278178	0.47254	-0.56639	0.018827	-0.536442	0.306398	
0.475069	7.57904	5	0	-0.396237	-0.100527	-0.421402	0.358927	-0.492355	-0.358843	-0.171442	0.0329628	-0.415042	-1.00612	-0.425838	-0.500081	-0.564191	-1.21357	-0.230452	-0.354302	-0.612252	-0.893889	-0.365399	-0.1934	-0.495555	-0.988168	-0.417659	-0.362694	-0.398041	0.329018	-0.26939	0.489775	-0.567837	0.022917	-0.527568	0.319292	
0.474986	7.57141	5	0	-0.388057	-0.087349	-0.409321	0.386255	-0.480973	-0.342378	-0.156288	0.068597	-0.41151	-0.997986	-0.413587	-0.481526	-0.551409	-1.21306	-0.198411	-0.326702	-0.608143	-0.893952	-0.345025	-0.183478	-0.491915	-0.98333	-0.396782	-0.349585	-0.399159	0.332179	-0.260601	0.507011	-0.569284	0.027007	-0.518694	0.332187	
0.474346	7.56988	5	0	-0.377016	-0.0821875	-0.397342	0.398636	-0.476655	-0.330219	-0.139284	0.0905623	-0.410226	-0.99255	-0.407453	-0.472215	-0.549864	-1.2052	-0.174337	-0.309883	-0.601617	-0.900838	-0.331509	-0.182994	-0.483287	-0.992576	-0.387586	-0.346654	-0.404081	0.335396	-0.25851	0.52639	-0.578399	0.0392562	-0.525594	0.351686	
0.473397	7.57141	5	0	-0.365974	-0.077026	-0.385362	0.411017	-0.472336	-0.318059	-0.12228	0.112528	-0.408941	-0.987115	-0.401319	-0.462904	-0.548319	-1.19734	-0.150263	-0.293065	-0.59509	-0.907725	-0.317993	-0.182509	-0.47466	-1.00182	-0.378389	-0.343724	-0.409004	0.338612	-0.256419	0.54577	-0.587514	0.0515055	-0.532493	0.371185	
0.472471	7.56988	5	0	-0.354932	-0.0718645	-0.373382	0.423397	-0.468018	-0.305899	-0.105275	0.134493	-0.407656	-0.981679	-0.395185	-0.453594	-0.546774	-1.18948	-0.12619	-0.276247	-0.588564	-0.914612	-0.304477	-0.182025	-0.466033	-1.01107	-0.369192	-0.340794	-0.413927	0.341828	-0.254328	0.565149	-0.59663	0.0637547	-0.539392	0.390684	
0.471902	7.56683	5	0	-0.343891	-0.066703	-0.361403	0.435778	-0.4637	-0.29374	-0.088271	0.156458	-0.406372	-0.976243	-0.389051	-0.444283	-0.545229	-1.18162	-0.102116	-0.259428	-0.582038	-0.921498	-0.290961	-0.181541	-0.457405	-1.02032	-0.359996	-0.337863	-0.418849	0.345045	-0.252237	0.584529	-0.605745	0.076004	-0.546292	0.410183	
0.471818	7.56073	5	0	-0.343891	-0.066703	-0.361291	0.4509	-0.459469	-0.293505	-0.0815165	0.172478	-0.404124	-0.973525	-0.384958	-0.442512	-0.538237	-1.18915	-0.0861145	-0.253551	-0.582535	-0.931652	-0.287577	-0.181421	-0.457736	-1.03451	-0.359996	-0.337863	-0.426007	0.354584	-0.260749	0.608584	-0.61776	0.0964582	-0.544998	0.431886	
0.47197	7.56378	5	0	-0.343891	-0.066703	-0.361179	0.466023	-0.455237	-0.293269	-0.074762	0.188499	-0.401876	-0.970808	-0.380865	-0.44074	-0.531246	-1.19668	-0.070113	-0.247674	-0.583032	-0.941805	-0.284193	-0.181302	-0.458068	-1.04871	-0.359996	-0.337863	-0.433164	0.364123	-0.269261	0.63264	-0.629775	0.116913	-0.543705	0.453588	
0.472066	7.56378	5	0	-0.343891	-0.066703	-0.361068	0.481146	-0.451006	-0.293034	-0.0680075	0.204519	-0.399629	-0.96809	-0.376773	-0.438969	-0.524255	-1.2042	-0.0541115	-0.241797	-0.583529	-0.951958	-0.28081	-0.181182	-0.4584	-1.06291	-0.359996	-0.337863	-0.440322	0.373663	-0.277772	0.656695	-0.64179	0.137367	-0.542412	0.475291	
0.471828	7.5592	5	0	-0.343891	-0.066703	-0.360956	0.496268	-0.446775	-0.292799	-0.061253	0.220539	-0.397381	-0.965372	-0.37268	-0.437198	-0.517263	-1.21173	-0.03811	-0.23592	-0.584026	-0.962112	-0.277426	-0.181062	-0.458731	-1.07711	-0.359996	-0.337863	-0.447479	0.383202	-0.286284	0.680751	-0.653805	0.157821	-0.541118	0.496993	
0.471239	7.5592	5	0	-0.342466	-0.0707302	-0.351512	0.485028	-0.442541	-0.292565	-0.0533155	0.233282	-0.397381	-0.965372	-0.368584	-0.435426	-0.517263	-1.21173	-0.0280448	-0.230222	-0.583325	-0.975645	-0.278499	-0.178029	-0.459071	-1.09128	-0.355881	-0.349492	-0.456877	0.399078	-0.292004	0.705354	-0.665439	0.190699	-0.549792	0.521508	
0.470561	7.55615	5	0	-0.341041	-0.0747575	-0.342068	0.473789	-0.438306	-0.29233	-0.045378	0.246026	-0.397381	-0.965372	-0.364489	-0.433654	-0.517263	-1.21173	-0.0179795	-0.224524	-0.582623	-0.989179	-0.279573	-0.174996	-0.45941	-1.10544	-0.351766	-0.36112	-0.466274	0.414953	-0.297724	0.729957	-0.677072	0.223578	-0.558466	0.546022	
0.470067	7.56073	5	0	-0.339616	-0.0787848	-0.332624	0.462549	-0.434072	-0.292095	-0.0374405	0.258769	-0.397381	-0.965372	-0.360394	-0.431882	-0.517263	-1.21173	-0.00791425	-0.218826	-0.581921	-1.00271	-0.280646	-0.171963	-0.45975	-1.11961	-0.347652	-0.372749	-0.475671	0.430829	-0.303443	0.754559	-0.688705	0.256456	-0.567141	0.570537	
0.469996	7.55157	5	0	-0.338191	-0.082812	-0.32318	0.451309	-0.429838	-0.291861	-0.029503	0.271512	-0.397381	-0.965372	-0.356298	-0.43011	-0.517263	-1.21173	0.002151	-0.213128	-0.58122	-1.01625	-0.281719	-0.16893	-0.46009	-1.13377	-0.343537	-0.384377	-0.485069	0.446705	-0.309163	0.779162	-0.700339	0.289335	-0.575815	0.595051	
0.470283	7.55005	5	0	-0.328439	-0.0860877	-0.313608	0.455196	-0.422743	-0.287484	-0.0186803	0.284989	-0.395132	-0.962653	-0.352199	-0.428337	-0.517263	-1.21173	0.0171195	-0.212663	-0.588939	-1.00598	-0.290318	-0.144629	-0.475649	-1.12001	-0.347652	-0.372749	-0.47972	0.452959	-0.304317	0.799253	-0.691522	0.318482	-0.572207	0.622956	
0.470693	7.55157	5	0	-0.318688	-0.0893635	-0.304036	0.459083	-0.415648	-0.283108	-0.0078575	0.298465	-0.392884	-0.959933	-0.348101	-0.426565	-0.517263	-1.21173	0.032088	-0.212198	-0.596657	-0.995704	-0.298916	-0.120329	-0.491208	-1.10625	-0.351766	-0.36112	-0.47437	0.459213	-0.29947	0.819345	-0.682705	0.347629	-0.568599	0.650861	
0.470994	7.55157	5	0	-0.308937	-0.0926393	-0.294463	0.462969	-0.408554	-0.278732	0.00296525	0.311942	-0.390635	-0.957213	-0.344002	-0.424792	-0.517263	-1.21173	0.0470565	-0.211732	-0.604375	-0.985434	-0.307514	-0.0960277	-0.506767	-1.09249	-0.355881	-0.349492	-0.469021	0.465466	-0.294624	0.839436	-0.673887	0.376775	-0.56499	0.678765	
0.470998	7.54547	5	0	-0.299185	-0.095915	-0.284891	0.466856	-0.401459	-0.274355	0.013788	0.325419	-0.388387	-0.954494	-0.339903	-0.423019	-0.517263	-1.21173	0.062025	-0.211267	-0.612094	-0.975163	-0.316113	-0.071727	-0.522326	-1.07873	-0.359996	-0.337863	-0.463672	0.47172	-0.289778	0.859527	-0.66507	0.405922	-0.561382	0.70667	
0.470749	7.53784	5	0	-0.292273	-0.0911348	-0.268161	0.466081	-0.39574	-0.266057	0.0246305	0.338944	-0.384853	-0.946319	-0.331696	-0.41947	-0.510076	-1.20755	0.0792595	-0.199934	-0.618838	-0.944562	-0.314449	-0.0376473	-0.520023	-1.05503	-0.369845	-0.295552	-0.456764	0.4843	-0.279292	0.88069	-0.645229	0.431243	-0.546065	0.727058	
0.470353	7.54394	5	0	-0.285361	-0.0863545	-0.251431	0.465305	-0.390022	-0.257759	0.035473	0.35247	-0.381319	-0.938145	-0.323489	-0.415922	-0.502889	-1.20337	0.096494	-0.1886	-0.625581	-0.91396	-0.312785	-0.0035675	-0.517721	-1.03132	-0.379693	-0.25324	-0.449855	0.49688	-0.268806	0.901852	-0.625389	0.456564	-0.530747	0.747445	
0.469914	7.54394	5	0	-0.278448	-0.0815743	-0.234701	0.46453	-0.384304	-0.24946	0.0463155	0.365996	-0.377784	-0.92997	-0.315283	-0.412374	-0.495702	-1.19919	0.113728	-0.177266	-0.632324	-0.883358	-0.31112	0.0305123	-0.515418	-1.00762	-0.389541	-0.210929	-0.442947	0.509461	-0.25832	0.923015	-0.605548	0.481884	-0.515429	0.767833	
0.469519	7.53479	5	0	-0.271536	-0.076794	-0.217971	0.463755	-0.378585	-0.241162	0.057158	0.379521	-0.37425	-0.921796	-0.307076	-0.408825	-0.488515	-1.19501	0.130963	-0.165933	-0.639068	-0.852757	-0.309456	0.064592	-0.513115	-0.983913	-0.39939	-0.168618	-0.436039	0.522041	-0.247834	0.944177	-0.585707	0.507205	-0.500112	0.78822	
0.469213	7.52869	5	0	-0.259116	-0.0631673	-0.20823	0.482847	-0.365742	-0.228442	0.068526	0.400533	-0.367179	-0.9054	-0.305027	-0.387836	-0.482499	-1.17521	0.145878	-0.121975	-0.634272	-0.808486	-0.285289	0.0936063	-0.512204	-0.941077	-0.386757	-0.131762	-0.420372	0.531392	-0.234505	0.965946	-0.557667	0.537042	-0.484756	0.808718	
0.469032	7.53479	5	0	-0.246697	-0.0495405	-0.198489	0.501939	-0.3529	-0.215722	0.079894	0.421546	-0.360109	-0.889005	-0.302978	-0.366847	-0.476483	-1.15542	0.160793	-0.0780175	-0.629476	-0.764215	-0.261123	0.12262	-0.511294	-0.89824	-0.374124	-0.094906	-0.404704	0.540743	-0.221175	0.987714	-0.529627	0.566879	-0.4694	0.829215	
0.469014	7.53479	5	0	-0.234277	-0.0359138	-0.188747	0.521031	-0.340058	-0.203002	0.091262	0.442558	-0.353039	-0.87261	-0.300928	-0.345859	-0.470467	-1.13562	0.175709	-0.0340597	-0.62468	-0.719944	-0.236956	0.151635	-0.510383	-0.855403	-0.361492	-0.05805	-0.389037	0.550094	-0.207846	1.00948	-0.501587	0.596715	-0.454044	0.849713	
0.469164	7.52563	5	0	-0.221858	-0.022287	-0.179006	0.540123	-0.327215	-0.190282	0.10263	0.46357	-0.345968	-0.856214	-0.298879	-0.32487	-0.464451	-1.11583	0.190624	0.009898	-0.619884	-0.675673	-0.212789	0.180649	-0.509473	-0.812567	-0.348859	-0.021194	-0.373369	0.559445	-0.194517	1.03125	-0.473547	0.626552	-0.438688	0.870211	
0.469455	7.52716	5	0	-0.206655	-0.0041655	-0.162072	0.55461	-0.312865	-0.169386	0.114013	0.48469	-0.346677	-0.817759	-0.301011	-0.278602	-0.462237	-1.06059	0.202915	0.0790233	-0.607684	-0.617257	-0.185104	0.21004	-0.49437	-0.764096	-0.335809	0.029369	-0.353828	0.568781	-0.176149	1.0475	-0.436049	0.644062	-0.41323	0.888087	
0.469857	7.53631	5	0	-0.191451	0.013956	-0.145138	0.569097	-0.298516	-0.14849	0.125397	0.505811	-0.347387	-0.779305	-0.303143	-0.232335	-0.460023	-1.00536	0.215205	0.148148	-0.595483	-0.558841	-0.157418	0.239431	-0.479268	-0.715624	-0.322759	0.079932	-0.334288	0.578117	-0.157781	1.06376	-0.398552	0.661573	-0.387773	0.905964	
0.470339	7.53631	5	0	-0.176248	0.0320775	-0.128204	0.583583	-0.284166	-0.127594	0.13678	0.526931	-0.348097	-0.740851	-0.305275	-0.186067	-0.457809	-0.950125	0.227496	0.217274	-0.583282	-0.500425	-0.129733	0.268822	-0.464166	-0.667153	-0.309709	0.130495	-0.314748	0.587453	-0.139413	1.08001	-0.361054	0.679084	-0.362315	0.923841	
0.47087	7.52563	5	0	-0.161045	0.050199	-0.11127	0.59807	-0.269817	-0.106698	0.148164	0.548052	-0.348806	-0.702396	-0.307407	-0.1398	-0.455595	-0.894891	0.239787	0.286399	-0.571082	-0.442009	-0.102047	0.298213	-0.449063	-0.618682	-0.296659	0.181058	-0.295207	0.596789	-0.121045	1.09626	-0.323556	0.696594	-0.336857	0.941717	
0.471419	7.53174	5	0	-0.150136	0.0806572	-0.0918045	0.621284	-0.258242	-0.0777575	0.16367	0.566599	-0.346064	-0.655335	-0.307613	-0.085426	-0.458956	-0.811335	0.280232	0.346494	-0.548189	-0.389931	-0.070786	0.327998	-0.423286	-0.569295	-0.268015	0.217341	-0.275596	0.606151	-0.112256	1.11415	-0.301549	0.731012	-0.309501	0.954665	
0.471955	7.53174	5	0	-0.139227	0.111116	-0.072339	0.644498	-0.246666	-0.048817	0.179175	0.585145	-0.343323	-0.608275	-0.307818	-0.031052	-0.462317	-0.72778	0.320677	0.406589	-0.525297	-0.337854	-0.039525	0.357783	-0.397509	-0.519908	-0.239372	0.253625	-0.255985	0.615512	-0.103468	1.13204	-0.279541	0.765429	-0.282145	0.967613	
0.472427	7.53174	5	0	-0.128318	0.141574	-0.0528735	0.667712	-0.235091	-0.0198765	0.194681	0.603691	-0.340581	-0.561214	-0.308024	0.023322	-0.465677	-0.644224	0.361122	0.466683	-0.502405	-0.285776	-0.008264	0.387567	-0.371733	-0.470522	-0.210728	0.289909	-0.236374	0.624873	-0.0946795	1.14994	-0.257534	0.799847	-0.25479	0.980561	
0.472689	7.53021	5	0	-0.117409	0.172032	-0.033408	0.690926	-0.223516	0.009064	0.210187	0.622238	-0.33784	-0.514153	-0.30823	0.077696	-0.469038	-0.560668	0.401567	0.526778	-0.479512	-0.233699	0.022997	0.417352	-0.345956	-0.421135	-0.182084	0.326192	-0.216763	0.634235	-0.085891	1.16783	-0.235527	0.834264	-0.227434	0.993509	
0.472562	7.53326	5	0	-0.109411	0.210918	-0.0307405	0.730481	-0.21905	0.045912	0.211678	0.644817	-0.336174	-0.463893	-0.294016	0.118507	-0.462617	-0.467172	0.457329	0.562928	-0.448653	-0.191606	0.0599932	0.431682	-0.309565	-0.385502	-0.155842	0.355217	-0.207067	0.650146	-0.0777622	1.17911	-0.204019	0.856249	-0.210722	0.998053	
0.471866	7.53479	5	0	-0.101413	0.249804	-0.028073	0.770037	-0.214583	0.08276	0.213169	0.667396	-0.334507	-0.413632	-0.279803	0.159318	-0.456197	-0.373676	0.513092	0.599079	-0.417794	-0.149513	0.0969895	0.446013	-0.273173	-0.349869	-0.1296	0.384242	-0.19737	0.666057	-0.0696335	1.19039	-0.17251	0.878235	-0.194011	1.0026	
0.470565	7.53326	5	0	-0.0934143	0.288691	-0.0254055	0.809592	-0.210116	0.119608	0.21466	0.689975	-0.332841	-0.363372	-0.265589	0.20013	-0.449776	-0.280179	0.568855	0.63523	-0.386936	-0.10742	0.133986	0.460343	-0.236782	-0.314235	-0.103358	0.413267	-0.187673	0.681969	-0.0615047	1.20167	-0.141002	0.90022	-0.177299	1.00714	
0.469007	7.53326	5	0	-0.085416	0.327577	-0.022738	0.849147	-0.20565	0.156456	0.216151	0.712554	-0.331175	-0.313112	-0.251375	0.240941	-0.443355	-0.186683	0.624617	0.67138	-0.356077	-0.065327	0.170982	0.474673	-0.20039	-0.278602	-0.077116	0.442292	-0.177977	0.69788	-0.053376	1.21295	-0.109494	0.922206	-0.160587	1.01168	
0.467601	7.53326	5	0	-0.0846063	0.374628	-0.0321787	0.90729	-0.204072	0.201597	0.206484	0.739875	-0.321394	-0.276417	-0.237067	0.268258	-0.418573	-0.119353	0.656061	0.706864	-0.327163	-0.0405755	0.191936	0.485156	-0.178299	-0.248138	-0.062678	0.460711	-0.167124	0.710625	-0.0505227	1.21346	-0.102371	0.943882	-0.144454	1.00501	
0.466748	7.53479	5	0	-0.0837965	0.421679	-0.0416195	0.965433	-0.202493	0.246737	0.196817	0.767196	-0.311613	-0.239722	-0.222759	0.295575	-0.393791	-0.052024	0.687504	0.742347	-0.29825	-0.015824	0.21289	0.49564	-0.156209	-0.217673	-0.04824	0.479131	-0.156272	0.723369	-0.0476695	1.21397	-0.095247	0.965558	-0.12832	0.998343	
0.466552	7.53021	5	0	-0.0829867	0.46873	-0.0510603	1.02358	-0.200914	0.291878	0.187149	0.794517	-0.301833	-0.203026	-0.208451	0.322893	-0.369009	0.0153055	0.718948	0.777831	-0.269336	0.0089275	0.233845	0.506124	-0.134118	-0.187208	-0.033802	0.49755	-0.145419	0.736114	-0.0448163	1.21448	-0.0881235	0.987235	-0.112186	0.991672	
0.466728	7.52106	5	0	-0.082177	0.515781	-0.060501	1.08172	-0.199336	0.337019	0.177482	0.821838	-0.292052	-0.166331	-0.194143	0.35021	-0.344227	0.082635	0.750392	0.813315	-0.240422	0.033679	0.254799	0.516607	-0.112027	-0.156744	-0.019364	0.515969	-0.134566	0.748859	-0.041963	1.21499	-0.081	1.00891	-0.096053	0.985001	
0.466962	7.52563	5	0	-0.072809	0.551165	-0.0531745	1.10831	-0.186389	0.362617	0.171425	0.838956	-0.277549	-0.151994	-0.185871	0.354002	-0.31371	0.109539	0.777533	0.82594	-0.223169	0.0443325	0.268723	0.517203	-0.102686	-0.13652	-0.00570275	0.507042	-0.13185	0.752052	-0.047246	1.20421	-0.0647515	1.00489	-0.0966865	0.973808	
0.466967	7.52716	5	0	-0.063441	0.586548	-0.045848	1.13489	-0.173441	0.388215	0.165368	0.856074	-0.263046	-0.137657	-0.177598	0.357794	-0.283193	0.136443	0.804675	0.838566	-0.205917	0.054986	0.282647	0.517798	-0.0933455	-0.116296	0.0079585	0.498116	-0.129133	0.755245	-0.052529	1.19343	-0.048503	1.00087	-0.09732	0.962614	
0.466715	7.51648	5	0	-0.054073	0.621931	-0.0385215	1.16148	-0.160494	0.413813	0.15931	0.873193	-0.248544	-0.12332	-0.169326	0.361586	-0.252676	0.163347	0.831816	0.851191	-0.188665	0.0656395	0.296572	0.518394	-0.0840047	-0.096072	0.0216198	0.489189	-0.126416	0.758438	-0.057812	1.18266	-0.0322545	0.996855	-0.0979535	0.951421	
0.466349	7.51495	5	0	-0.044705	0.657315	-0.031195	1.18807	-0.147546	0.439411	0.153253	0.890311	-0.234041	-0.108983	-0.161054	0.365378	-0.222159	0.190251	0.858958	0.863817	-0.171412	0.076293	0.310496	0.518989	-0.074664	-0.075848	0.035281	0.480262	-0.1237	0.761631	-0.063095	1.17188	-0.016006	0.992837	-0.098587	0.940227	
0.466017	7.518	5	0	-0.0364327	0.67115	-0.011786	1.18063	-0.137478	0.448369	0.150353	0.889572	-0.228532	-0.106074	-0.156821	0.353415	-0.19742	0.183493	0.864081	0.858297	-0.167196	0.0762842	0.3137	0.49994	-0.074664	-0.075848	0.034864	0.466594	-0.121414	0.755169	-0.0651125	1.15191	-0.008049	0.984337	-0.098096	0.912898	
0.465839	7.51495	5	0	-0.0281605	0.684986	0.007623	1.17319	-0.127409	0.457326	0.147453	0.888833	-0.223023	-0.103164	-0.152587	0.341452	-0.172681	0.176735	0.869203	0.852777	-0.162981	0.0762755	0.316904	0.480892	-0.074664	-0.075848	0.034447	0.452926	-0.119127	0.748707	-0.06713	1.13194	-9.2E-05	0.975838	-0.097605	0.88557	
0.46581	7.51037	5	0	-0.0198883	0.698821	0.027032	1.16575	-0.117341	0.466284	0.144553	0.888094	-0.217515	-0.100255	-0.148354	0.329488	-0.147941	0.169977	0.874325	0.847257	-0.158765	0.0762668	0.320107	0.461843	-0.074664	-0.075848	0.03403	0.439258	-0.11684	0.742245	-0.0691475	1.11196	0.007865	0.967338	-0.097114	0.858241	
0.465889	7.50885	5	0	-0.011616	0.712657	0.046441	1.15831	-0.107272	0.475242	0.141653	0.887355	-0.212006	-0.097346	-0.144121	0.317525	-0.123202	0.163219	0.879448	0.841737	-0.154549	0.076258	0.323311	0.442794	-0.074664	-0.075848	0.033613	0.42559	-0.114554	0.735783	-0.071165	1.09199	0.015822	0.958839	-0.096623	0.830912	
0.466033	7.5058	5	0	-0.0073775	0.713099	0.0488543	1.15149	-0.102957	0.475534	0.135382	0.878297	-0.211007	-0.100169	-0.137782	0.29961	-0.110103	0.151523	0.860617	0.832348	-0.156239	0.069128	0.31605	0.423389	-0.076624	-0.085863	0.0284972	0.410389	-0.111127	0.726099	-0.0742805	1.07516	0.010534	0.945818	-0.102119	0.807601	
0.466219	7.50427	5	0	-0.003139	0.713542	0.0512675	1.14467	-0.098641	0.475826	0.129111	0.869239	-0.210008	-0.102992	-0.131443	0.281695	-0.0970035	0.139826	0.841786	0.82296	-0.157928	0.061998	0.308789	0.403984	-0.078584	-0.095878	0.0233815	0.395188	-0.107701	0.716414	-0.077396	1.05833	0.005246	0.932797	-0.107616	0.784291	
0.466463	7.49512	5	0	0.0010995	0.713985	0.0536807	1.13785	-0.0943255	0.476118	0.122841	0.860181	-0.20901	-0.105815	-0.125104	0.26378	-0.0839043	0.12813	0.822956	0.813572	-0.159618	0.054868	0.301527	0.384578	-0.080544	-0.105893	0.0182658	0.379987	-0.104274	0.70673	-0.0805115	1.0415	-4.2E-05	0.919776	-0.113112	0.760981	
0.466788	7.49359	5	0	0.005338	0.714427	0.056094	1.13103	-0.09001	0.47641	0.11657	0.851123	-0.208011	-0.108638	-0.118765	0.245865	-0.070805	0.116433	0.804125	0.804183	-0.161308	0.047738	0.294266	0.365173	-0.082504	-0.115908	0.01315	0.364786	-0.100847	0.697046	-0.083627	1.02466	-0.00533	0.906755	-0.118608	0.73767	
0.467215	7.49512	5	0	0.012537	0.706511	0.0633222	1.1106	-0.081395	0.464559	0.113198	0.84282	-0.207012	-0.11146	-0.120801	0.238029	-0.0693617	0.112354	0.793555	0.789465	-0.157523	0.0370405	0.288267	0.352238	-0.0861955	-0.121016	0.012719	0.351193	-0.097424	0.687372	-0.0832232	1.01498	-0.0026825	0.885305	-0.119931	0.71556	
0.467733	7.49359	5	0	0.019736	0.698595	0.0705505	1.09018	-0.07278	0.452708	0.109826	0.834517	-0.206014	-0.114282	-0.122837	0.230193	-0.0679185	0.108275	0.782984	0.774747	-0.153737	0.026343	0.282268	0.339303	-0.089887	-0.126123	0.012288	0.337599	-0.094001	0.677698	-0.0828195	1.00531	-3.5E-05	0.863855	-0.121255	0.693449	
0.468295	7.49054	5	0	0.026935	0.690679	0.0777788	1.06975	-0.064165	0.440856	0.106455	0.826214	-0.205015	-0.117104	-0.124874	0.222357	-0.0664753	0.104197	0.772414	0.76003	-0.149952	0.0156455	0.276269	0.326369	-0.0935785	-0.131231	0.011857	0.324006	-0.090578	0.668024	-0.0824158	0.995627	0.0026125	0.842405	-0.122579	0.671339	
0.468852	7.48443	5	0	0.034134	0.682763	0.085007	1.04932	-0.05555	0.429005	0.103083	0.817911	-0.204016	-0.119926	-0.12691	0.214521	-0.065032	0.100118	0.761844	0.745312	-0.146167	0.004948	0.27027	0.313434	-0.09727	-0.136339	0.011426	0.310413	-0.087155	0.65835	-0.082012	0.985949	0.00526	0.820955	-0.123902	0.649228	
0.469355	7.48901	5	0	0.0441085	0.679458	0.0971033	1.03096	-0.0497947	0.425245	0.103083	0.817911	-0.204016	-0.119926	-0.129019	0.22048	-0.0591985	0.0963062	0.757621	0.739441	-0.144906	0.001385	0.270114	0.303924	-0.0955407	-0.141226	0.00929875	0.316425	-0.086015	0.655128	-0.0813318	0.992564	-3.925E-05	0.808028	-0.120385	0.639289	
0.469752	7.48443	5	0	0.054083	0.676152	0.1092	1.01261	-0.0440395	0.421484	0.103083	0.817911	-0.204016	-0.119926	-0.131128	0.22644	-0.053365	0.0924945	0.753397	0.733569	-0.143645	-0.002178	0.269958	0.294413	-0.0938115	-0.146112	0.0071715	0.322437	-0.084875	0.651906	-0.0806515	0.999179	-0.0053385	0.7951	-0.116868	0.629349	
0.469987	7.48138	5	0	0.0640575	0.672847	0.121296	0.994256	-0.0382843	0.417724	0.103083	0.817911	-0.204016	-0.119926	-0.133236	0.232399	-0.0475315	0.0886828	0.749174	0.727698	-0.142385	-0.005741	0.269801	0.284903	-0.0920823	-0.150999	0.00504425	0.328448	-0.083735	0.648683	-0.0799712	1.00579	-0.0106378	0.782173	-0.113351	0.619409	
0.470005	7.47986	5	0	0.074032	0.669541	0.133392	0.975902	-0.032529	0.413963	0.103083	0.817911	-0.204016	-0.119926	-0.135345	0.238359	-0.041698	0.084871	0.744951	0.721827	-0.141124	-0.009304	0.269645	0.275393	-0.090353	-0.155886	0.002917	0.33446	-0.082595	0.645461	-0.079291	1.01241	-0.015937	0.769246	-0.109834	0.60947	
0.469798	7.47986	5	0	0.0868007	0.670843	0.133467	0.991534	-0.0224385	0.41048	0.10235	0.828896	-0.196502	-0.122667	-0.122901	0.243992	-0.0358602	0.0810565	0.749048	0.71915	-0.138167	-0.005757	0.277703	0.272529	-0.0866595	-0.150784	0.0148612	0.345174	-0.083294	0.658313	-0.0822818	1.03795	-0.0174443	0.773506	-0.110925	0.625474	
0.469576	7.48138	5	0	0.0995695	0.672145	0.133543	1.00717	-0.012348	0.406996	0.101617	0.839881	-0.188988	-0.125407	-0.110457	0.249624	-0.0300225	0.077242	0.753144	0.716473	-0.135209	-0.00221	0.285761	0.269666	-0.082966	-0.145681	0.0268055	0.355888	-0.083993	0.671165	-0.0852725	1.06349	-0.0189515	0.777765	-0.112016	0.641478	
0.469609	7.47375	5	0	0.112338	0.673446	0.133618	1.0228	-0.0022575	0.403513	0.100884	0.850867	-0.181473	-0.128147	-0.098013	0.255257	-0.0241847	0.0734275	0.757241	0.713797	-0.132252	0.001337	0.293819	0.266802	-0.0792725	-0.140578	0.0387497	0.366602	-0.084692	0.684018	-0.0882633	1.08903	-0.0204587	0.782025	-0.113107	0.657482	
0.470165	7.47375	5	0	0.125107	0.674748	0.133693	1.03843	0.007833	0.40003	0.100151	0.861852	-0.173959	-0.130888	-0.085569	0.26089	-0.018347	0.069613	0.761338	0.71112	-0.129295	0.004884	0.301877	0.263939	-0.075579	-0.135476	0.050694	0.377316	-0.085391	0.69687	-0.091254	1.11457	-0.021966	0.786285	-0.114198	0.673486	
0.471308	7.47681	5	0	0.129186	0.688188	0.136171	1.04729	0.0093015	0.408409	0.100624	0.869433	-0.170698	-0.130848	-0.081493	0.276621	-0.00666	0.0619765	0.769537	0.705762	-0.11536	0.0012625	0.307731	0.267324	-0.0681857	-0.125251	0.0536797	0.398584	-0.095686	0.725965	-0.0997352	1.15564	-0.038951	0.820351	-0.120601	0.704512	
0.472637	7.47528	5	0	0.133265	0.701629	0.138649	1.05614	0.01077	0.416789	0.101098	0.877014	-0.167438	-0.130808	-0.077417	0.292353	0.005027	0.05434	0.777737	0.700404	-0.101425	-0.002359	0.313586	0.270709	-0.0607925	-0.115025	0.0566655	0.419852	-0.105981	0.75506	-0.108217	1.19672	-0.055936	0.854418	-0.127004	0.735538	
0.473692	7.47528	5	0	0.137343	0.71507	0.141127	1.065	0.0122385	0.425169	0.101571	0.884595	-0.164177	-0.130769	-0.073341	0.308084	0.016714	0.0467035	0.785936	0.695047	-0.0874892	-0.0059805	0.319441	0.274095	-0.0533992	-0.1048	0.0596513	0.44112	-0.116276	0.784155	-0.116698	1.23779	-0.072921	0.888484	-0.133407	0.766564	
0.474022	7.47528	0	5	0.141422	0.72851	0.143605	1.07385	0.013707	0.433548	0.102044	0.892176	-0.160916	-0.130729	-0.069265	0.323815	0.028401	0.039067	0.794136	0.689689	-0.073554	-0.009602	0.325295	0.27748	-0.046006	-0.094574	0.062637	0.462388	-0.126571	0.81325	-0.125179	1.27886	-0.089906	0.92255	-0.13981	0.79759	
0.473518	7.47986	0	5	0.146986	0.737786	0.148497	1.0759	0.0180438	0.43383	0.104939	0.892916	-0.158919	-0.136374	-0.0588247	0.3216	0.0312855	0.030915	0.802343	0.684326	-0.0676175	-0.00250025	0.328939	0.287133	-0.0331598	-0.0841008	0.0703145	0.485338	-0.128029	0.839142	-0.128698	1.31449	-0.0891977	0.948431	-0.140298	0.824856	
0.472516	7.47986	0	5	0.15255	0.747062	0.153389	1.07794	0.0223805	0.434113	0.107834	0.893656	-0.156921	-0.142019	-0.0483845	0.319384	0.03417	0.022763	0.81055	0.678964	-0.061681	0.0046015	0.332584	0.296787	-0.0203135	-0.0736275	0.077992	0.508288	-0.129487	0.865034	-0.132216	1.35012	-0.0884895	0.974311	-0.140786	0.852122	
0.471375	7.48291	0	5	0.158114	0.756338	0.158281	1.07999	0.0267172	0.434395	0.110729	0.894397	-0.154923	-0.147664	-0.0379442	0.317168	0.0370545	0.014611	0.818758	0.673601	-0.0557445	0.0117032	0.336228	0.306441	-0.00746725	-0.0631542	0.0856695	0.531237	-0.130945	0.890926	-0.135734	1.38575	-0.0877813	1.00019	-0.141274	0.879388	
0.470432	7.48596	0	5	0.163678	0.765614	0.163173	1.08204	0.031054	0.434677	0.113624	0.895137	-0.152926	-0.153309	-0.027504	0.314953	0.039939	0.006459	0.826965	0.668238	-0.049808	0.018805	0.339872	0.316094	0.005379	-0.052681	0.093347	0.554187	-0.132403	0.916818	-0.139253	1.42137	-0.087073	1.02607	-0.141762	0.906654	
0.469708	7.48596	0	5	0.16795	0.766054	0.172897	1.07044	0.032488	0.430624	0.111465	0.883397	-0.152198	-0.164623	-0.027504	0.314953	0.0471388	-0.0138888	0.826827	0.659708	-0.0493697	0.029517	0.334323	0.331776	0.00211575	-0.0278392	0.0915975	0.574038	-0.130431	0.933041	-0.140162	1.44109	-0.096197	1.05186	-0.13872	0.923979	
0.469002	7.49054	0	5	0.172221	0.766495	0.182621	1.05884	0.033922	0.426571	0.109307	0.871657	-0.151469	-0.175937	-0.027504	0.314953	0.0543385	-0.0342365	0.82669	0.651177	-0.0489315	0.040229	0.328774	0.347457	-0.0011475	-0.0029975	0.089848	0.593889	-0.128458	0.949264	-0.141071	1.4608	-0.105321	1.07765	-0.135678	0.941304	
0.468112	7.49359	0	5	0.176493	0.766935	0.192346	1.04725	0.035356	0.422518	0.107149	0.859918	-0.15074	-0.187251	-0.027504	0.314953	0.0615382	-0.0545843	0.826553	0.642647	-0.0484933	0.050941	0.323226	0.363138	-0.00441075	0.0218443	0.0880985	0.613741	-0.126486	0.965486	-0.141981	1.48051	-0.114445	1.10343	-0.132635	0.95863	
0.466882	7.49206	0	5	0.180765	0.767376	0.20207	1.03565	0.03679	0.418465	0.10499	0.848178	-0.150012	-0.198565	-0.027504	0.314953	0.068738	-0.074932	0.826415	0.634117	-0.048055	0.061653	0.317677	0.37882	-0.007674	0.046686	0.086349	0.633592	-0.124513	0.981709	-0.14289	1.50022	-0.123569	1.12922	-0.129593	0.975955	
0.46544	7.49817	0	5	0.180951	0.754336	0.187383	1.02954	0.032413	0.405767	0.0965665	0.827457	-0.149566	-0.218322	-0.0315928	0.299217	0.0641317	-0.0999905	0.816806	0.616747	-0.0586255	0.0795763	0.311973	0.38496	-0.0164105	0.0713765	0.073015	0.656369	-0.121799	0.984947	-0.144634	1.49658	-0.126616	1.13783	-0.127813	0.970925	
0.464004	7.49817	0	5	0.181138	0.741297	0.172697	1.02343	0.028036	0.393069	0.088143	0.806736	-0.14912	-0.238078	-0.0356815	0.283482	0.0595255	-0.125049	0.807197	0.599376	-0.069196	0.0974995	0.306269	0.391101	-0.025147	0.096067	0.059681	0.679146	-0.119085	0.988186	-0.146377	1.49293	-0.129663	1.14644	-0.126034	0.965896	
0.462796	7.49359	0	5	0.181324	0.728258	0.15801	1.01732	0.023659	0.380371	0.0797195	0.786014	-0.148674	-0.257834	-0.0397703	0.267746	0.0549192	-0.150108	0.797588	0.582005	-0.0797665	0.115423	0.300566	0.397242	-0.0338835	0.120757	0.046347	0.701923	-0.116372	0.991424	-0.148121	1.48929	-0.132711	1.15505	-0.124254	0.960866	
0.46195	7.49664	0	5	0.18151	0.715218	0.143323	1.01121	0.019282	0.367673	0.071296	0.765293	-0.148228	-0.277591	-0.043859	0.252011	0.050313	-0.175166	0.787979	0.564635	-0.090337	0.133346	0.294862	0.403382	-0.04262	0.145448	0.033013	0.7247	-0.113658	0.994662	-0.149865	1.48564	-0.135758	1.16366	-0.122474	0.955836	
0.461411	7.50275	0	5	0.173327	0.688377	0.14305	0.964491	0.010526	0.342384	0.059022	0.728959	-0.155304	-0.294531	-0.0541532	0.226644	0.0412945	-0.200326	0.757001	0.563448	-0.103865	0.1477	0.292343	0.390558	-0.0498087	0.150145	0.028317	0.723077	-0.115219	0.988166	-0.147861	1.46284	-0.121722	1.13795	-0.133255	0.947434	
0.461098	7.50275	0	5	0.165143	0.661536	0.142777	0.917768	0.00177	0.317094	0.046748	0.692624	-0.16238	-0.311471	-0.0644475	0.201276	0.032276	-0.225486	0.726023	0.562261	-0.117394	0.162055	0.289825	0.377734	-0.0569975	0.154842	0.023621	0.721454	-0.11678	0.981671	-0.145857	1.44005	-0.107685	1.11224	-0.144037	0.939033	
0.460928	7.50122	0	5	0.15696	0.634694	0.142504	0.871045	-0.006986	0.291805	0.034474	0.656289	-0.169456	-0.328411	-0.0747417	0.175909	0.0232575	-0.250646	0.695045	0.561074	-0.130922	0.176409	0.287307	0.364911	-0.0641863	0.15954	0.018925	0.719831	-0.118342	0.975175	-0.143853	1.41725	-0.0936493	1.08653	-0.154818	0.930632	
0.460858	7.50885	0	5	0.148777	0.607853	0.142231	0.824322	-0.015742	0.266515	0.0222	0.619955	-0.176532	-0.345351	-0.085036	0.150542	0.014239	-0.275806	0.664067	0.559887	-0.144451	0.190764	0.284788	0.352087	-0.071375	0.164237	0.014229	0.718208	-0.119903	0.968679	-0.141849	1.39445	-0.079613	1.06082	-0.165599	0.92223	
0.460876	7.51343	0	5	0.139272	0.572443	0.127362	0.787455	-0.0202502	0.229355	0.0053635	0.579139	-0.187559	-0.351051	-0.101619	0.143105	-0.0091115	-0.27293	0.627234	0.56686	-0.141913	0.183591	0.275319	0.339029	-0.0661303	0.149415	0.009157	0.702789	-0.116864	0.949188	-0.147301	1.36709	-0.0769258	1.03927	-0.169282	0.893848	
0.460974	7.51495	0	5	0.129767	0.537033	0.112493	0.750587	-0.0247585	0.192195	-0.011473	0.538323	-0.198585	-0.356751	-0.118202	0.135669	-0.032462	-0.270054	0.5904	0.573832	-0.139375	0.176418	0.265849	0.325971	-0.0608855	0.134592	0.004085	0.687369	-0.113824	0.929697	-0.152753	1.33973	-0.0742385	1.01772	-0.172964	0.865466	
0.461143	7.52106	0	5	0.120263	0.501623	0.0976247	0.71372	-0.0292668	0.155035	-0.0283095	0.497507	-0.209612	-0.362452	-0.134785	0.128232	-0.0558125	-0.267179	0.553567	0.580804	-0.136837	0.169244	0.25638	0.312913	-0.0556408	0.11977	-0.000987	0.67195	-0.110785	0.910206	-0.158206	1.31237	-0.0715512	0.996164	-0.176647	0.837084	
0.46138	7.53021	0	5	0.110758	0.466213	0.082756	0.676853	-0.033775	0.117875	-0.045146	0.456691	-0.220639	-0.368152	-0.151368	0.120796	-0.079163	-0.264303	0.516734	0.587777	-0.134299	0.162071	0.246911	0.299855	-0.050396	0.104947	-0.006059	0.656531	-0.107746	0.890715	-0.163658	1.28501	-0.068864	0.974612	-0.18033	0.808702	
0.461682	7.53784	0	5	0.0984505	0.426542	0.0702533	0.633632	-0.044046	0.0847135	-0.0538857	0.410972	-0.228121	-0.365412	-0.174189	0.131147	-0.0993072	-0.232559	0.512302	0.56511	-0.137253	0.158491	0.238558	0.283726	-0.050599	0.089915	-0.004699	0.622981	-0.104724	0.87128	-0.170878	1.25422	-0.0695897	0.948781	-0.184039	0.780475	
0.462047	7.547	0	5	0.086143	0.386872	0.0577505	0.59041	-0.054317	0.051552	-0.0626255	0.365254	-0.235603	-0.362671	-0.19701	0.141498	-0.119451	-0.200815	0.50787	0.542443	-0.140207	0.154911	0.230206	0.267597	-0.050802	0.074883	-0.003339	0.589432	-0.101703	0.851845	-0.178098	1.22343	-0.0703155	0.92295	-0.187748	0.752247	
0.462422	7.55615	0	5	0.0738355	0.347201	0.0452478	0.547189	-0.064588	0.0183905	-0.0713652	0.319535	-0.243085	-0.359931	-0.21983	0.15185	-0.139596	-0.169071	0.503438	0.519776	-0.14316	0.15133	0.221853	0.251468	-0.051005	0.059851	-0.001979	0.555883	-0.0986807	0.832409	-0.185317	1.19264	-0.0710413	0.897118	-0.191457	0.72402	
0.462611	7.56683	0	5	0.061528	0.307531	0.032745	0.503968	-0.074859	-0.014771	-0.080105	0.273816	-0.250567	-0.357191	-0.242651	0.162201	-0.15974	-0.137327	0.499006	0.497109	-0.146114	0.14775	0.2135	0.235339	-0.051208	0.044819	-0.000619	0.522333	-0.095659	0.812974	-0.192537	1.16186	-0.071767	0.871287	-0.195166	0.695793	
0.462394	7.57294	0	5	0.0461795	0.289091	0.00850175	0.494257	-0.0935487	-0.0239332	-0.102809	0.250331	-0.253534	-0.348804	-0.246772	0.160336	-0.156651	-0.108264	0.492611	0.480058	-0.136824	0.133422	0.202957	0.225485	-0.0407675	0.0153127	-0.00612525	0.493425	-0.0976635	0.796867	-0.195864	1.12871	-0.0725197	0.845573	-0.208982	0.670501	
0.461561	7.57446	0	5	0.030831	0.270651	-0.0157415	0.484546	-0.112238	-0.0330955	-0.125512	0.226845	-0.256502	-0.340417	-0.250893	0.158471	-0.153561	-0.079202	0.486215	0.463007	-0.127533	0.119095	0.192414	0.215631	-0.030327	-0.0141935	-0.0116315	0.464516	-0.099668	0.780761	-0.199192	1.09556	-0.0732725	0.81986	-0.222798	0.645209	
0.460165	7.57751	0	5	0.0154825	0.252211	-0.0399848	0.474836	-0.130928	-0.0422577	-0.148216	0.203359	-0.259469	-0.332031	-0.255015	0.156607	-0.150472	-0.0501395	0.47982	0.445956	-0.118243	0.104767	0.181871	0.205778	-0.0198865	-0.0436997	-0.0171378	0.435608	-0.101672	0.764655	-0.202519	1.06241	-0.0740253	0.794147	-0.236613	0.619917	
0.458591	7.58514	0	5	0.000134	0.233771	-0.064228	0.465125	-0.149618	-0.05142	-0.17092	0.179874	-0.262437	-0.323644	-0.259136	0.154742	-0.147383	-0.021077	0.473424	0.428905	-0.108953	0.09044	0.171328	0.195924	-0.009446	-0.073206	-0.022644	0.4067	-0.103677	0.748548	-0.205846	1.02926	-0.074778	0.768433	-0.250429	0.594625	
0.457239	7.59125	0	5	-0.0167535	0.232191	-0.081206	0.450762	-0.161081	-0.0561137	-0.190185	0.164496	-0.255946	-0.323584	-0.252852	0.136981	-0.141444	9E-06	0.463971	0.411804	-0.109383	0.079727	0.165354	0.183125	-0.016852	-0.0834483	-0.0260508	0.371963	-0.103409	0.726045	-0.213791	0.992297	-0.0804492	0.742777	-0.256586	0.560715	
0.45646	7.58972	0	5	-0.033641	0.23061	-0.098184	0.436398	-0.172544	-0.0608075	-0.20945	0.149118	-0.249455	-0.323523	-0.246567	0.119221	-0.135506	0.021095	0.454519	0.394703	-0.109813	0.069014	0.15938	0.170326	-0.024258	-0.0936905	-0.0294575	0.337226	-0.103141	0.703542	-0.221736	0.955338	-0.0861205	0.717121	-0.262743	0.526806	
0.456179	7.59277	0	5	-0.0505285	0.229029	-0.115162	0.422034	-0.184008	-0.0655012	-0.228716	0.133739	-0.242965	-0.323462	-0.240283	0.10146	-0.129567	0.042181	0.445067	0.377602	-0.110242	0.058301	0.153406	0.157528	-0.031664	-0.103933	-0.0328642	0.30249	-0.102874	0.68104	-0.22968	0.918379	-0.0917917	0.691464	-0.2689	0.492896	
0.456111	7.5943	0	5	-0.067416	0.227449	-0.13214	0.407671	-0.195471	-0.070195	-0.247981	0.118361	-0.236474	-0.323402	-0.233998	0.0837	-0.123628	0.063267	0.435614	0.360501	-0.110672	0.047588	0.147432	0.144729	-0.03907	-0.114175	-0.036271	0.267753	-0.102606	0.658537	-0.237625	0.88142	-0.097463	0.665808	-0.275057	0.458987	
0.45597	7.59735	0	5	-0.075841	0.226655	-0.137109	0.39062	-0.202633	-0.074639	-0.255186	0.0952157	-0.235484	-0.3262	-0.233891	0.0564025	-0.104724	0.0477893	0.420076	0.343245	-0.115328	0.036912	0.138013	0.131845	-0.04301	-0.134161	-0.0532735	0.242098	-0.111209	0.639435	-0.245601	0.844739	-0.108028	0.640234	-0.285392	0.424255	
0.455595	7.5943	0	5	-0.084266	0.225861	-0.142078	0.373569	-0.209796	-0.079083	-0.262391	0.0720705	-0.234494	-0.328998	-0.233784	0.029105	-0.0858205	0.0323115	0.404539	0.32599	-0.119983	0.026236	0.128595	0.118961	-0.04695	-0.154147	-0.070276	0.216444	-0.119813	0.620332	-0.253577	0.808057	-0.118593	0.614659	-0.295727	0.389522	
0.455173	7.59582	0	5	-0.092691	0.225068	-0.147047	0.356518	-0.216958	-0.083527	-0.269596	0.0489253	-0.233504	-0.331796	-0.233676	0.0018075	-0.0669167	0.0168338	0.389001	0.308734	-0.124639	0.01556	0.119176	0.106077	-0.05089	-0.174132	-0.0872785	0.190789	-0.128416	0.60123	-0.261553	0.771376	-0.129159	0.589085	-0.306061	0.35479	
0.454952	7.59888	0	5	-0.101116	0.224274	-0.152016	0.339467	-0.22412	-0.087971	-0.276801	0.02578	-0.232514	-0.334594	-0.233569	-0.02549	-0.048013	0.001356	0.373463	0.291478	-0.129295	0.004884	0.109757	0.093193	-0.05483	-0.194118	-0.104281	0.165134	-0.137019	0.582128	-0.269529	0.734695	-0.139724	0.563511	-0.316396	0.320058	
0.455171	7.59277	0	5	-0.108082	0.219388	-0.156989	0.322478	-0.224205	-0.100062	-0.285685	-0.00118725	-0.227568	-0.348572	-0.233493	-0.0526593	-0.0480908	-0.0110823	0.353823	0.268634	-0.131432	-0.0128785	0.0980035	0.0771485	-0.0659208	-0.209357	-0.112395	0.129309	-0.137244	0.550266	-0.280349	0.69782	-0.137575	0.529782	-0.326744	0.285584	
0.455796	7.58972	0	5	-0.115047	0.214502	-0.161962	0.305489	-0.22429	-0.112153	-0.29457	-0.0281545	-0.222622	-0.36255	-0.233417	-0.0798285	-0.0481685	-0.0235205	0.334182	0.24579	-0.13357	-0.030641	0.08625	0.061104	-0.0770115	-0.224597	-0.120509	0.093485	-0.137468	0.518404	-0.291169	0.660945	-0.135425	0.496053	-0.337093	0.25111	
0.456506	7.58362	0	5	-0.122013	0.209616	-0.166934	0.2885	-0.224375	-0.124244	-0.303454	-0.0551217	-0.217676	-0.376529	-0.233341	-0.106998	-0.0482462	-0.0359588	0.314542	0.222946	-0.135707	-0.0484035	0.0744965	0.0450595	-0.0881022	-0.239836	-0.128623	0.0576605	-0.137692	0.486543	-0.301989	0.624071	-0.133276	0.462323	-0.347442	0.216636	
0.456969	7.58667	0	5	-0.128979	0.20473	-0.171907	0.271511	-0.22446	-0.136335	-0.312338	-0.082089	-0.21273	-0.390507	-0.233265	-0.134167	-0.048324	-0.048397	0.294902	0.200102	-0.137844	-0.066166	0.062743	0.029015	-0.099193	-0.255075	-0.136737	0.021836	-0.137917	0.454681	-0.312809	0.587196	-0.131127	0.428594	-0.35779	0.182162	
0.456915	7.58057	0	5	-0.128846	0.19208	-0.181689	0.252689	-0.228825	-0.148636	-0.317248	-0.111497	-0.214289	-0.404504	-0.247659	-0.14728	-0.0455433	-0.068905	0.273114	0.166363	-0.142949	-0.0873848	0.0452407	0.009732	-0.101425	-0.279757	-0.14905	-0.00193575	-0.146533	0.43579	-0.321199	0.560477	-0.143197	0.407518	-0.365736	0.153799	
0.456509	7.56988	0	5	-0.128713	0.179429	-0.19147	0.233867	-0.23319	-0.160937	-0.322159	-0.140905	-0.215848	-0.418502	-0.262053	-0.160392	-0.0427625	-0.089413	0.251325	0.132624	-0.148054	-0.108604	0.0277385	-0.009551	-0.103657	-0.30444	-0.161363	-0.0257075	-0.155148	0.416899	-0.329589	0.533757	-0.155267	0.386441	-0.373683	0.125436	
0.456098	7.56836	0	5	-0.12858	0.166779	-0.201252	0.215044	-0.237555	-0.173237	-0.327069	-0.170313	-0.217408	-0.432499	-0.276447	-0.173505	-0.0399817	-0.109921	0.229537	0.0988843	-0.15316	-0.129822	0.0102363	-0.028834	-0.10589	-0.329122	-0.173677	-0.0494792	-0.163764	0.398008	-0.337979	0.507038	-0.167336	0.365365	-0.381629	0.0970722	
0.456027	7.56683	0	5	-0.128447	0.154129	-0.211034	0.196222	-0.24192	-0.185538	-0.331979	-0.199721	-0.218967	-0.446497	-0.290841	-0.186618	-0.037201	-0.130429	0.207749	0.065145	-0.158265	-0.151041	-0.007266	-0.048117	-0.108122	-0.353805	-0.18599	-0.073251	-0.172379	0.379117	-0.346369	0.480319	-0.179406	0.344289	-0.389575	0.068709	
0.456434	7.5592	0	5	-0.124117	0.141893	-0.216009	0.179368	-0.243407	-0.193642	-0.33983	-0.21209	-0.220533	-0.460457	-0.292863	-0.207741	-0.0432085	-0.151346	0.183024	0.0315937	-0.16213	-0.175696	-0.0180587	-0.0763402	-0.119197	-0.368896	-0.189018	-0.0939092	-0.186148	0.385667	-0.363552	0.486959	-0.199885	0.360882	-0.403654	0.070474	
0.456955	7.5531	0	5	-0.119788	0.129657	-0.220984	0.162514	-0.244894	-0.201746	-0.34768	-0.22446	-0.2221	-0.474418	-0.294885	-0.228864	-0.049216	-0.172262	0.158299	-0.0019575	-0.165995	-0.20035	-0.0288515	-0.104564	-0.130271	-0.383987	-0.192047	-0.114567	-0.199918	0.392217	-0.380734	0.493598	-0.220364	0.377476	-0.417733	0.072239	
0.45715	7.55005	0	5	-0.115458	0.11742	-0.225959	0.145659	-0.246381	-0.20985	-0.355531	-0.236829	-0.223666	-0.488378	-0.296907	-0.249988	-0.0552235	-0.193179	0.133573	-0.0355087	-0.169861	-0.225005	-0.0396442	-0.132787	-0.141346	-0.399079	-0.195076	-0.135226	-0.213688	0.398767	-0.397917	0.500238	-0.240843	0.39407	-0.431812	0.074004	
0.456606	7.54852	0	5	-0.111128	0.105184	-0.230934	0.128805	-0.247868	-0.217954	-0.363381	-0.249198	-0.225232	-0.502339	-0.298929	-0.271111	-0.061231	-0.214096	0.108848	-0.06906	-0.173726	-0.24966	-0.050437	-0.16101	-0.152421	-0.41417	-0.198104	-0.155884	-0.227457	0.405317	-0.4151	0.506877	-0.261322	0.410663	-0.445891	0.075769	
0.455389	7.547	0	5	-0.115331	0.104798	-0.238216	0.118524	-0.250746	-0.222117	-0.365055	-0.253096	-0.231029	-0.513502	-0.300976	-0.278731	-0.0658235	-0.238936	0.0902068	-0.10213	-0.186784	-0.260091	-0.0721613	-0.167894	-0.1615	-0.419374	-0.207372	-0.158862	-0.240309	0.430864	-0.424613	0.533763	-0.284334	0.448226	-0.456851	0.0940853	
0.454025	7.53937	0	5	-0.119535	0.104411	-0.245499	0.108242	-0.253625	-0.22628	-0.366729	-0.256993	-0.236825	-0.524666	-0.303022	-0.286351	-0.070416	-0.263775	0.0715655	-0.135201	-0.199842	-0.270521	-0.0938855	-0.174777	-0.170578	-0.424579	-0.21664	-0.16184	-0.253161	0.456411	-0.434126	0.560649	-0.307345	0.485789	-0.467811	0.112402	
0.453056	7.53631	0	5	-0.123738	0.104024	-0.252781	0.0979605	-0.256503	-0.230443	-0.368403	-0.260891	-0.242622	-0.535829	-0.305069	-0.293971	-0.0750085	-0.288615	0.0529243	-0.168272	-0.212899	-0.280951	-0.11561	-0.181661	-0.179657	-0.429783	-0.225908	-0.164818	-0.266014	0.481958	-0.44364	0.587535	-0.330356	0.523352	-0.47877	0.130718	
0.452904	7.53021	0	5	-0.127941	0.103638	-0.260063	0.087679	-0.259382	-0.234606	-0.370077	-0.264788	-0.248419	-0.546993	-0.307116	-0.301591	-0.079601	-0.313455	0.034283	-0.201342	-0.225957	-0.291382	-0.137334	-0.188545	-0.188736	-0.434988	-0.235176	-0.167796	-0.278866	0.507505	-0.453153	0.614421	-0.353368	0.560915	-0.48973	0.149034	
0.453323	7.52869	0	5	-0.1265	0.0995647	-0.26255	0.0792957	-0.257992	-0.238534	-0.365579	-0.260239	-0.249994	-0.560882	-0.305057	-0.307411	-0.082795	-0.34217	0.020885	-0.22327	-0.24306	-0.266667	-0.148615	-0.185849	-0.202665	-0.411033	-0.247666	-0.132497	-0.273024	0.523339	-0.452576	0.646321	-0.349266	0.590544	-0.48665	0.165653	
0.453837	7.51953	0	5	-0.125059	0.0954915	-0.265037	0.0709125	-0.256602	-0.242463	-0.361081	-0.25569	-0.25157	-0.574771	-0.302998	-0.31323	-0.085989	-0.370885	0.007487	-0.245198	-0.260163	-0.241952	-0.159896	-0.183153	-0.216595	-0.387078	-0.260156	-0.0971985	-0.267181	0.539173	-0.452	0.678222	-0.345164	0.620174	-0.48357	0.182272	
0.453975	7.52258	0	5	-0.123617	0.0914183	-0.267525	0.0625293	-0.255212	-0.246391	-0.356583	-0.25114	-0.253145	-0.588661	-0.300938	-0.31905	-0.089183	-0.3996	-0.005911	-0.267127	-0.277267	-0.217237	-0.171177	-0.180457	-0.230524	-0.363124	-0.272646	-0.0618997	-0.261339	0.555008	-0.451423	0.710122	-0.341062	0.649803	-0.48049	0.198891	
0.453533	7.52106	0	5	-0.122176	0.087345	-0.270012	0.054146	-0.253822	-0.250319	-0.352085	-0.246591	-0.25472	-0.60255	-0.298879	-0.32487	-0.092377	-0.428315	-0.019309	-0.289055	-0.29437	-0.192522	-0.182458	-0.177761	-0.244454	-0.339169	-0.285136	-0.026601	-0.255497	0.570842	-0.450847	0.742023	-0.33696	0.679432	-0.47741	0.21551	
0.452807	7.518	0	5	-0.123498	0.0788227	-0.2725	0.0457777	-0.251044	-0.25817	-0.348734	-0.238783	-0.259236	-0.608109	-0.305061	-0.307399	-0.098285	-0.436737	-0.0329555	-0.276055	-0.301436	-0.160746	-0.181211	-0.171562	-0.24936	-0.309893	-0.288441	0.0119095	-0.2569	0.596403	-0.441504	0.766026	-0.326901	0.692319	-0.47606	0.237053	
0.45215	7.50885	0	5	-0.124819	0.0703005	-0.274987	0.0374095	-0.248266	-0.266021	-0.345383	-0.230975	-0.263753	-0.613668	-0.311243	-0.289928	-0.104193	-0.445159	-0.046602	-0.263054	-0.308501	-0.12897	-0.179964	-0.165362	-0.254265	-0.280618	-0.291745	0.05042	-0.258304	0.621964	-0.432161	0.790029	-0.316843	0.705205	-0.47471	0.258596	
0.451888	7.5119	0	5	-0.126141	0.0617782	-0.277475	0.0290412	-0.245488	-0.273872	-0.342032	-0.223167	-0.268269	-0.619228	-0.317425	-0.272457	-0.110101	-0.453581	-0.0602485	-0.250054	-0.315567	-0.097194	-0.178717	-0.159162	-0.25917	-0.251342	-0.29505	0.0889305	-0.259707	0.647524	-0.422818	0.814032	-0.306784	0.718091	-0.47336	0.280139	
0.452056	7.5058	0	5	-0.127463	0.053256	-0.279963	0.020673	-0.24271	-0.281723	-0.338681	-0.215359	-0.272785	-0.624787	-0.323607	-0.254986	-0.116009	-0.462003	-0.073895	-0.237054	-0.322633	-0.065418	-0.17747	-0.152963	-0.264076	-0.222066	-0.298355	0.127441	-0.26111	0.673085	-0.413475	0.838035	-0.296725	0.730978	-0.47201	0.301682	
0.452487	7.50732	0	5	-0.128787	0.044748	-0.287045	0.0253002	-0.244204	-0.289791	-0.340984	-0.20885	-0.279643	-0.605406	-0.333982	-0.21226	-0.145963	-0.402432	-0.063687	-0.223272	-0.311735	-0.0370715	-0.16817	-0.1403	-0.258255	-0.192205	-0.290368	0.163349	-0.249161	0.682581	-0.407602	0.85512	-0.294865	0.739513	-0.461373	0.309722	
0.453012	7.49969	0	5	-0.130111	0.03624	-0.294127	0.0299275	-0.245698	-0.297858	-0.343287	-0.20234	-0.286501	-0.586025	-0.344357	-0.169535	-0.175918	-0.342861	-0.053479	-0.20949	-0.300836	-0.008725	-0.15887	-0.127636	-0.252433	-0.162344	-0.282381	0.199256	-0.237212	0.692077	-0.40173	0.872204	-0.293005	0.748047	-0.450736	0.317763	
0.453484	7.50122	0	5	-0.131435	0.027732	-0.301208	0.0345548	-0.247193	-0.305926	-0.345591	-0.195831	-0.293359	-0.566644	-0.354732	-0.126809	-0.205873	-0.28329	-0.043271	-0.195708	-0.289937	0.0196215	-0.149571	-0.114973	-0.246612	-0.132482	-0.274395	0.235163	-0.225263	0.701573	-0.395858	0.889288	-0.291145	0.756582	-0.440099	0.325803	
0.453831	7.49817	0	5	-0.132759	0.019224	-0.30829	0.039182	-0.248687	-0.313993	-0.347894	-0.189322	-0.300217	-0.547263	-0.365107	-0.084083	-0.235827	-0.223719	-0.033063	-0.181926	-0.279039	0.047968	-0.140271	-0.10231	-0.240791	-0.102621	-0.266408	0.271071	-0.213314	0.711069	-0.389985	0.906373	-0.289285	0.765117	-0.429462	0.333843	
0.454003	7.49664	0	5	-0.13983	0.0269678	-0.315366	0.0438055	-0.257114	-0.302459	-0.354814	-0.169766	-0.299355	-0.522208	-0.354996	-0.0454903	-0.234034	-0.16601	-0.0116483	-0.156891	-0.261401	0.0693462	-0.123963	-0.0800478	-0.218983	-0.0868068	-0.256329	0.30125	-0.212467	0.730344	-0.38585	0.919988	-0.287427	0.773667	-0.424666	0.345732	
0.45395	7.49206	0	5	-0.146902	0.0347115	-0.322442	0.048429	-0.265541	-0.290925	-0.361733	-0.15021	-0.298492	-0.497152	-0.344885	-0.0068975	-0.232241	-0.1083	0.0097665	-0.131856	-0.243762	0.0907245	-0.107656	-0.0577855	-0.197176	-0.0709925	-0.24625	0.331429	-0.21162	0.749619	-0.381715	0.933603	-0.285569	0.782217	-0.419869	0.357622	
0.453694	7.49054	0	5	-0.153973	0.0424552	-0.329518	0.0530525	-0.273968	-0.27939	-0.368653	-0.130654	-0.29763	-0.472097	-0.334774	0.0316952	-0.230449	-0.0505905	0.0311813	-0.106822	-0.226124	0.112103	-0.0913478	-0.0355232	-0.175368	-0.0551782	-0.236171	0.361608	-0.210772	0.768895	-0.37758	0.947217	-0.28371	0.790766	-0.415072	0.369511	
0.453353	7.49054	0	5	-0.161045	0.050199	-0.336594	0.057676	-0.282395	-0.267856	-0.375573	-0.111098	-0.296768	-0.447041	-0.324663	0.070288	-0.228656	0.007119	0.052596	-0.081787	-0.208486	0.133481	-0.07504	-0.013261	-0.15356	-0.039364	-0.226092	0.391787	-0.209925	0.78817	-0.373445	0.960832	-0.281852	0.799316	-0.410276	0.381401	
0.453051	7.48596	0	5	-0.169683	0.0746108	-0.350413	0.0967312	-0.289342	-0.248224	-0.380844	-0.0875563	-0.290439	-0.419019	-0.30836	0.105134	-0.208114	0.049948	0.0782073	-0.050979	-0.185298	0.151391	-0.0529183	0.0124695	-0.140577	-0.013868	-0.204973	0.40569	-0.204512	0.79457	-0.370634	0.961329	-0.273996	0.790927	-0.412007	0.386293	
0.452899	7.47986	0	5	-0.17832	0.0990225	-0.364233	0.135787	-0.296288	-0.228592	-0.386115	-0.0640145	-0.28411	-0.390996	-0.292056	0.13998	-0.187572	0.092777	0.103819	-0.020171	-0.16211	0.169301	-0.0307965	0.0382	-0.127593	0.011628	-0.183854	0.419594	-0.1991	0.800969	-0.367824	0.961827	-0.266141	0.782537	-0.413738	0.391185	
0.452887	7.48596	0	5	-0.186958	0.123434	-0.378052	0.174842	-0.303234	-0.20896	-0.391386	-0.0404728	-0.277781	-0.362974	-0.275752	0.174826	-0.16703	0.135606	0.12943	0.010637	-0.138922	0.187211	-0.00867475	0.0639305	-0.11461	0.037124	-0.162734	0.433497	-0.193688	0.807369	-0.365013	0.962325	-0.258285	0.774148	-0.415469	0.396078	
0.452945	7.48291	0	5	-0.195596	0.147846	-0.391871	0.213897	-0.310181	-0.189328	-0.396657	-0.016931	-0.271452	-0.334951	-0.259449	0.209672	-0.146488	0.178435	0.155041	0.041445	-0.115734	0.205121	0.013447	0.089661	-0.101627	0.06262	-0.141615	0.4474	-0.188275	0.813768	-0.362202	0.962822	-0.250429	0.765759	-0.4172	0.40097	
0.453006	7.47833	0	5	-0.192986	0.164959	-0.384646	0.224238	-0.305833	-0.177042	-0.398471	-0.00315475	-0.256925	-0.320764	-0.245052	0.223128	-0.120128	0.192662	0.182833	0.0753382	-0.100933	0.223123	0.039102	0.115705	-0.0833778	0.0734425	-0.129757	0.458183	-0.193269	0.817031	-0.363939	0.959289	-0.250798	0.752991	-0.419597	0.395016	
0.452992	7.47375	0	5	-0.190375	0.182072	-0.37742	0.234578	-0.301486	-0.164757	-0.400285	0.0106215	-0.242399	-0.306578	-0.230654	0.236584	-0.0937685	0.20689	0.210625	0.109232	-0.086132	0.241125	0.064757	0.141748	-0.0651285	0.084265	-0.1179	0.468967	-0.198263	0.820295	-0.365676	0.955757	-0.251167	0.740223	-0.421993	0.389062	
0.452805	7.47528	0	5	-0.187765	0.199185	-0.370194	0.244919	-0.297139	-0.152472	-0.4021	0.0243977	-0.227872	-0.292391	-0.216257	0.250039	-0.0674088	0.221117	0.238417	0.143125	-0.071331	0.259128	0.090412	0.167792	-0.0468792	0.0950875	-0.106042	0.47975	-0.203258	0.823558	-0.367413	0.952225	-0.251537	0.727454	-0.424389	0.383107	
0.452343	7.47681	0	5	-0.185154	0.216298	-0.362969	0.25526	-0.292791	-0.140186	-0.403914	0.038174	-0.213345	-0.278204	-0.20186	0.263495	-0.041049	0.235344	0.266209	0.177018	-0.05653	0.27713	0.116067	0.193836	-0.02863	0.10591	-0.094185	0.490533	-0.208252	0.826821	-0.36915	0.948692	-0.251906	0.714686	-0.426786	0.377153	
0.451518	7.47223	0	5	-0.181103	0.229373	-0.358196	0.257169	-0.291315	-0.132058	-0.402754	0.034896	-0.207559	-0.266873	-0.193592	0.267259	-0.0248898	0.240565	0.289976	0.20552	-0.0408237	0.280746	0.132551	0.216545	-0.015779	0.116527	-0.0895148	0.492122	-0.20867	0.817158	-0.367266	0.926497	-0.252665	0.689236	-0.433304	0.370148	
0.45053	7.46918	0	5	-0.177052	0.242448	-0.353422	0.259078	-0.28984	-0.123931	-0.401594	0.031618	-0.201773	-0.255543	-0.185324	0.271023	-0.0087305	0.245786	0.313744	0.234021	-0.0251175	0.284361	0.149035	0.239254	-0.002928	0.127143	-0.0848445	0.493711	-0.209089	0.807496	-0.365382	0.904301	-0.253423	0.663787	-0.439823	0.363143	
0.449848	7.47223	0	5	-0.173001	0.255523	-0.348649	0.260987	-0.288364	-0.115804	-0.400434	0.02834	-0.195987	-0.244212	-0.177055	0.274787	0.00742875	0.251007	0.337512	0.262522	-0.00941125	0.287977	0.165519	0.261963	0.009923	0.13776	-0.0801743	0.4953	-0.209507	0.797833	-0.363498	0.882106	-0.254182	0.638337	-0.446342	0.356137	
0.44995	7.47375	5	0	-0.16895	0.268598	-0.343876	0.262896	-0.286888	-0.107676	-0.399274	0.025062	-0.190201	-0.232882	-0.168787	0.278551	0.023588	0.256228	0.361279	0.291024	0.006295	0.291593	0.182003	0.284672	0.022774	0.148376	-0.075504	0.496889	-0.209925	0.78817	-0.361614	0.859911	-0.25494	0.612887	-0.45286	0.349132	
0.451145	7.46765	5	0	-0.16475	0.269003	-0.343876	0.262896	-0.285493	-0.11162	-0.397462	0.0112917	-0.185677	-0.227188	-0.168787	0.278551	0.035323	0.24856	0.379863	0.308393	0.019064	0.29159	0.197124	0.291593	0.0336985	0.148858	-0.073368	0.490853	-0.215332	0.781782	-0.375648	0.857462	-0.266514	0.604284	-0.461095	0.347014	
0.45291	7.46612	5	0	-0.16055	0.269407	-0.343876	0.262896	-0.284098	-0.115563	-0.39565	-0.0024785	-0.181154	-0.221494	-0.168787	0.278551	0.047058	0.240892	0.398447	0.325763	0.031833	0.291587	0.212245	0.298514	0.044623	0.14934	-0.071232	0.484816	-0.22074	0.775393	-0.389682	0.855012	-0.278088	0.595681	-0.46933	0.344896	
0.454459	7.47528	5	0	-0.15635	0.269811	-0.343876	0.262896	-0.282702	-0.119507	-0.393838	-0.0162488	-0.176631	-0.2158	-0.168787	0.278551	0.058793	0.233224	0.41703	0.343132	0.044602	0.291585	0.227366	0.305435	0.0555475	0.149821	-0.069096	0.47878	-0.226147	0.769004	-0.403715	0.852563	-0.289663	0.587077	-0.477566	0.342777	
0.455017	7.47223	5	0	-0.15215	0.270216	-0.343876	0.262896	-0.281307	-0.123451	-0.392026	-0.030019	-0.172107	-0.210106	-0.168787	0.278551	0.070528	0.225556	0.435614	0.360501	0.057371	0.291582	0.242487	0.312356	0.066472	0.150303	-0.06696	0.472744	-0.231554	0.762616	-0.417749	0.850114	-0.301237	0.578474	-0.485801	0.340659	
0.454338	7.46765	5	0	-0.146497	0.266522	-0.346337	0.254452	-0.278518	-0.131333	-0.400993	-0.0392327	-0.163594	-0.215668	-0.164568	0.266628	0.0778555	0.217609	0.447851	0.36096	0.0629143	0.28796	0.247218	0.318884	0.073697	0.145582	-0.0626928	0.460684	-0.24494	0.778803	-0.427627	0.861214	-0.326161	0.607689	-0.496817	0.35911	
0.453115	7.46612	5	0	-0.140844	0.262829	-0.348798	0.246007	-0.275728	-0.139215	-0.40996	-0.0484465	-0.155082	-0.221231	-0.160349	0.254704	0.085183	0.209663	0.460089	0.36142	0.0684575	0.284338	0.251949	0.325412	0.080922	0.140861	-0.0584255	0.448624	-0.258327	0.79499	-0.437506	0.872314	-0.351085	0.636905	-0.507834	0.37756	
0.452136	7.4707	5	0	-0.135192	0.259135	-0.351259	0.237563	-0.272939	-0.147098	-0.418927	-0.0576602	-0.146569	-0.226794	-0.15613	0.242781	0.0925105	0.201716	0.472326	0.361879	0.0740008	0.280716	0.256681	0.33194	0.088147	0.13614	-0.0541582	0.436563	-0.271713	0.811176	-0.447384	0.883414	-0.376008	0.666121	-0.51885	0.396011	
0.452122	7.46765	5	0	-0.129539	0.255441	-0.35372	0.229119	-0.27015	-0.15498	-0.427894	-0.066874	-0.138056	-0.232356	-0.151911	0.230857	0.099838	0.193769	0.484563	0.362338	0.079544	0.277094	0.261412	0.338468	0.095372	0.131419	-0.049891	0.424503	-0.285099	0.827363	-0.457263	0.894514	-0.400932	0.695336	-0.529867	0.414462	
0.453074	7.46307	5	0	-0.133743	0.255039	-0.356032	0.235654	-0.27868	-0.155461	-0.438803	-0.044673	-0.142865	-0.246502	-0.141447	0.214866	0.096804	0.176829	0.526618	0.36666	0.092777	0.287948	0.280073	0.345553	0.115548	0.137323	-0.0379803	0.435277	-0.287793	0.824162	-0.45613	0.933387	-0.403911	0.703757	-0.530948	0.4302	
0.454533	7.4646	5	0	-0.137946	0.254637	-0.358344	0.24219	-0.287211	-0.155942	-0.449711	-0.022472	-0.147674	-0.260649	-0.130984	0.198874	0.09377	0.159888	0.568673	0.370981	0.10601	0.298802	0.298735	0.352638	0.135724	0.143228	-0.0260695	0.44605	-0.290486	0.820961	-0.454998	0.97226	-0.406891	0.712178	-0.532029	0.445938	
0.456033	7.4646	5	0	-0.14215	0.254235	-0.360657	0.248725	-0.295741	-0.156422	-0.46062	-0.000271	-0.152483	-0.274795	-0.12052	0.182883	0.090736	0.142948	0.610727	0.375302	0.119243	0.309657	0.317397	0.359724	0.1559	0.149132	-0.0141587	0.456823	-0.29318	0.817761	-0.453865	1.01113	-0.409871	0.720599	-0.533109	0.461676	
0.457163	7.46002	5	0	-0.146354	0.253833	-0.362969	0.25526	-0.304271	-0.156903	-0.471529	0.02193	-0.157292	-0.288941	-0.110056	0.166891	0.087702	0.126008	0.652782	0.379624	0.132476	0.320511	0.336058	0.366809	0.176076	0.155036	-0.002248	0.467597	-0.295874	0.81456	-0.452733	1.05001	-0.41285	0.72902	-0.53419	0.477414	
0.45772	7.46155	5	0	-0.148835	0.224046	-0.365283	0.2618	-0.301677	-0.188791	-0.455286	0.0365122	-0.170163	-0.317126	-0.112099	0.159084	0.0741492	0.0752835	0.623677	0.417793	0.132025	0.345961	0.317243	0.350205	0.161969	0.194905	-0.0125708	0.511605	-0.295147	0.801698	-0.434375	1.08255	-0.419165	0.733146	-0.533547	0.48829	
0.457551	7.45697	5	0	-0.151315	0.194259	-0.367598	0.26834	-0.299083	-0.220678	-0.439043	0.0510945	-0.183034	-0.34531	-0.114142	0.151276	0.0605965	0.024559	0.594573	0.455962	0.131573	0.37141	0.298428	0.3336	0.147862	0.234773	-0.0228935	0.555614	-0.29442	0.788837	-0.416017	1.1151	-0.42548	0.737272	-0.532905	0.499165	
