0.607	5.12848	0	0	0	0	-0.263703	0.016193	0	0	-0.314144	-0.067566	0	0	-0.134427	0.021216	0.09609	-0.023483	0.178182	0.184686	0.09264	-0.128526	0.047202	-0.172213	0.048384	-0.112988	-0.156639	-0.04718	-0.359348	0.159497	-0.461056	0.022664	-0.4757	0.242514	-0.390395	0.080138	
0.603709	5.13	0	0	0	0	-0.260067	0.0211637	0	0	-0.322889	-0.0646618	0	0	-0.146075	0.0197592	0.1021	-0.017445	0.17707	0.175075	0.0938703	-0.132003	0.044407	-0.176436	0.051682	-0.122309	-0.161504	-0.0477845	-0.366887	0.15134	-0.468478	0.0110775	-0.480163	0.232728	-0.400255	0.0682475	
0.601452	5.13	0	0	0	0	-0.25643	0.0261345	0	0	-0.331634	-0.0617575	0	0	-0.157722	0.0183025	0.10811	-0.011407	0.175959	0.165463	0.0951005	-0.13548	0.041612	-0.180658	0.05498	-0.131629	-0.16637	-0.048389	-0.374426	0.143183	-0.4759	-0.000509	-0.484627	0.222942	-0.410115	0.056357	
0.600037	5.13	0	0	0	0	-0.252794	0.0311052	0	0	-0.340378	-0.0588532	0	0	-0.16937	0.0168457	0.11412	-0.005369	0.174847	0.155852	0.0963307	-0.138957	0.038817	-0.184881	0.058278	-0.14095	-0.171236	-0.0489935	-0.381965	0.135026	-0.483322	-0.0120955	-0.48909	0.213155	-0.419975	0.0444665	
0.599272	5.13153	0	0	0	0	-0.249157	0.036076	0	0	-0.349123	-0.055949	0	0	-0.181018	0.015389	0.12013	0.000669	0.173735	0.146241	0.097561	-0.142434	0.036022	-0.189104	0.061576	-0.15027	-0.176101	-0.049598	-0.389504	0.126869	-0.490744	-0.023682	-0.493553	0.203369	-0.429835	0.032576	
0.598964	5.12848	0	0	0	0	-0.266572	0.0548105	0	0	-0.359149	-0.0493977	0	0	-0.184606	0.002647	0.12013	0.000669	0.165176	0.144951	0.101249	-0.152857	0.033228	-0.193322	0.0605025	-0.159111	-0.170882	-0.0643472	-0.394239	0.120633	-0.496934	-0.0305733	-0.499959	0.199099	-0.433596	0.0167493	
0.598921	5.12695	0	0	0	0	-0.283988	0.073545	0	0	-0.369175	-0.0428465	0	0	-0.188194	-0.010095	0.12013	0.000669	0.156617	0.143661	0.104937	-0.16328	0.030434	-0.197541	0.059429	-0.167952	-0.165663	-0.0790965	-0.398973	0.114397	-0.503124	-0.0374645	-0.506364	0.194829	-0.437358	0.0009225	
0.598949	5.12543	0	0	0	0	-0.301403	0.0922795	0	0	-0.379202	-0.0362953	0	0	-0.191781	-0.022837	0.12013	0.000669	0.148058	0.14237	0.108625	-0.173702	0.02764	-0.201759	0.0583555	-0.176793	-0.160444	-0.0938458	-0.403707	0.10816	-0.509313	-0.0443557	-0.51277	0.190559	-0.441119	-0.0149043	
0.598857	5.12543	0	0	0	0	-0.318818	0.111014	0	0	-0.389228	-0.029744	0	0	-0.195369	-0.035579	0.12013	0.000669	0.139499	0.14108	0.112313	-0.184125	0.024846	-0.205977	0.057282	-0.185634	-0.155225	-0.108595	-0.408442	0.101924	-0.515503	-0.051247	-0.519176	0.186289	-0.44488	-0.030731	
0.598451	5.12543	0	0	0	0	-0.324369	0.0962688	0	0	-0.407784	-0.0316507	0	0	-0.214713	-0.037993	0.110681	0.0043505	0.121314	0.128926	0.113541	-0.187596	0.0220532	-0.210191	0.0540137	-0.188265	-0.161827	-0.104281	-0.412953	0.104872	-0.522977	-0.0463635	-0.528489	0.190262	-0.463113	-0.0188173	
0.597544	5.1239	0	0	0	0	-0.329921	0.0815235	0	0	-0.426341	-0.0335575	0	0	-0.234056	-0.040407	0.101232	0.008032	0.103129	0.116773	0.114769	-0.191068	0.0192605	-0.214404	0.0507455	-0.190895	-0.168429	-0.0999675	-0.417463	0.107819	-0.530451	-0.04148	-0.537802	0.194235	-0.481345	-0.0069035	
0.596114	5.12848	0	0	0	0	-0.335472	0.0667783	0	0	-0.444897	-0.0354643	0	0	-0.253399	-0.042821	0.0917823	0.0117135	0.084944	0.104619	0.115998	-0.19454	0.0164677	-0.218618	0.0474772	-0.193525	-0.175031	-0.0956538	-0.421974	0.110766	-0.537924	-0.0365965	-0.547114	0.198208	-0.499578	0.00501025	
0.59434	5.13	0	0	0	0	-0.341023	0.052033	0	0	-0.463453	-0.037371	0	0	-0.272743	-0.045235	0.082333	0.015395	0.066759	0.092465	0.117226	-0.198011	0.013675	-0.222832	0.044209	-0.196156	-0.181633	-0.09134	-0.426484	0.113714	-0.545398	-0.031713	-0.556427	0.202181	-0.517811	0.016924	
0.592413	5.1178	0	0	0	0	-0.358852	0.0417005	0	0	-0.476967	-0.0425438	0	0	-0.284028	-0.05888	0.0767692	-0.00336175	0.04596	0.0752748	0.112786	-0.211102	0.00531875	-0.223405	0.0398675	-0.207598	-0.18823	-0.0870295	-0.436571	0.11285	-0.553704	-0.0244645	-0.567945	0.201265	-0.525281	0.024849	
0.590524	5.11017	0	0	0	0	-0.37668	0.031368	0	0	-0.490482	-0.0477165	0	0	-0.295314	-0.072525	0.0712055	-0.0221185	0.025161	0.0580845	0.108347	-0.224193	-0.0030375	-0.223978	0.035526	-0.21904	-0.194827	-0.082719	-0.446657	0.111986	-0.56201	-0.017216	-0.579464	0.200349	-0.532751	0.032774	
0.588856	5.10864	0	0	0	0	-0.394509	0.0210355	0	0	-0.503996	-0.0528892	0	0	-0.306599	-0.08617	0.0656417	-0.0408752	0.004362	0.0408943	0.103907	-0.237284	-0.0113937	-0.224551	0.0311845	-0.230483	-0.201423	-0.0784085	-0.456744	0.111122	-0.570315	-0.0099675	-0.590982	0.199433	-0.540221	0.040699	
0.587514	5.10712	0	0	0	0	-0.412338	0.010703	0	0	-0.51751	-0.058062	0	0	-0.317884	-0.099815	0.060078	-0.059632	-0.016437	0.023704	0.099468	-0.250375	-0.01975	-0.225124	0.026843	-0.241925	-0.20802	-0.074098	-0.466831	0.110258	-0.578621	-0.002719	-0.602501	0.198517	-0.547691	0.048624	
0.586554	5.10101	0	0	0	0	-0.416192	-0.008691	0	0	-0.529875	-0.055576	0	0	-0.329433	-0.101257	0.0439657	-0.0714237	-0.0344918	0.011656	0.092582	-0.256516	-0.026708	-0.229618	0.0246725	-0.247635	-0.221198	-0.065487	-0.478404	0.12341	-0.589437	0.011639	-0.614697	0.210706	-0.557963	0.0644757	
0.586032	5.09796	0	0	0	0	-0.420046	-0.028085	0	0	-0.542239	-0.05309	0	0	-0.340982	-0.102699	0.0278535	-0.0832155	-0.0525465	-0.000392	0.085696	-0.262657	-0.033666	-0.234111	0.022502	-0.253345	-0.234376	-0.056876	-0.489976	0.136563	-0.600253	0.025997	-0.626894	0.222895	-0.568234	0.0803275	
0.586004	5.09643	0	0	0	0	-0.4239	-0.047479	0	0	-0.554604	-0.050604	0	0	-0.352532	-0.104142	0.0117412	-0.0950073	-0.0706013	-0.01244	0.07881	-0.268798	-0.040624	-0.238604	0.0203315	-0.259055	-0.247555	-0.048265	-0.501549	0.149715	-0.611069	0.040355	-0.639091	0.235085	-0.578506	0.0961793	
0.586504	5.09186	0	0	0	0	-0.427754	-0.066873	0	0	-0.566968	-0.048118	0	0	-0.364081	-0.105584	-0.004371	-0.106799	-0.088656	-0.024488	0.071924	-0.274939	-0.047582	-0.243098	0.018161	-0.264765	-0.260733	-0.039654	-0.513122	0.162867	-0.621885	0.054713	-0.651287	0.247274	-0.588777	0.112031	
0.587481	5.09338	0	0	0	0	-0.434474	-0.0478818	0	0	-0.577278	-0.0189807	0	0	-0.360822	-0.0807122	-0.00024025	-0.107022	-0.0721722	-0.00800025	0.0778135	-0.278787	-0.046185	-0.234971	0.0192373	-0.255962	-0.244802	-0.0273665	-0.508415	0.169119	-0.621987	0.0712115	-0.652258	0.25002	-0.586925	0.119973	
0.588867	5.08728	0	0	0	0	-0.441194	-0.0288905	0	0	-0.587588	0.0101565	0	0	-0.357564	-0.0558405	0.0038905	-0.107244	-0.0556885	0.0084875	0.083703	-0.282635	-0.044788	-0.226844	0.0203135	-0.247159	-0.228872	-0.015079	-0.503708	0.17537	-0.622089	0.08771	-0.65323	0.252765	-0.585072	0.127915	
0.59059	5.0888	0	0	0	0	-0.447913	-0.00989925	0	0	-0.597898	0.0392938	0	0	-0.354305	-0.0309688	0.00802125	-0.107467	-0.0392048	0.0249753	0.0895925	-0.286484	-0.043391	-0.218716	0.0213897	-0.238357	-0.212941	-0.0027915	-0.499001	0.181622	-0.622191	0.104208	-0.654201	0.255511	-0.58322	0.135857	
0.592579	5.08423	0	0	0	0	-0.454633	0.009092	0	0	-0.608208	0.068431	0	0	-0.351046	-0.006097	0.012152	-0.10769	-0.022721	0.041463	0.095482	-0.290332	-0.041994	-0.210589	0.022466	-0.229554	-0.19701	0.009496	-0.494294	0.187873	-0.622293	0.120707	-0.655173	0.258257	-0.581368	0.143799	
0.594692	5.08423	0	0	0	0	-0.452488	0.033316	0	0	-0.601419	0.103373	0	0	-0.341802	0.0361285	0.0211357	-0.098683	-0.00131	0.082317	0.0989282	-0.287266	-0.0350295	-0.194	0.0279017	-0.221204	-0.188039	0.0416297	-0.493229	0.194648	-0.614569	0.139464	-0.652964	0.26315	-0.574851	0.151763	
0.596653	5.0827	5	0	0	0	-0.450344	0.05754	0	0	-0.59463	0.138315	0	0	-0.332558	0.078354	0.0301195	-0.089676	0.020101	0.123171	0.102375	-0.284199	-0.028065	-0.177412	0.0333375	-0.212855	-0.179068	0.0737635	-0.492164	0.201423	-0.606845	0.158222	-0.650755	0.268043	-0.568334	0.159726	
0.598174	5.08575	5	0	0	0	-0.448199	0.081764	0	0	-0.587841	0.173256	0	0	-0.323313	0.120579	0.0391032	-0.080669	0.041512	0.164025	0.105821	-0.281133	-0.0211005	-0.160824	0.0387732	-0.204506	-0.170098	0.105897	-0.491099	0.208198	-0.59912	0.17698	-0.648546	0.272937	-0.561817	0.16769	
0.598968	5.08423	5	0	0	0	-0.446054	0.105988	0	0	-0.581052	0.208198	0	0	-0.314069	0.162805	0.048087	-0.071662	0.062923	0.204879	0.109267	-0.278067	-0.014136	-0.144235	0.044209	-0.196156	-0.161127	0.138031	-0.490034	0.214973	-0.591396	0.195737	-0.646337	0.27783	-0.5553	0.175654	
0.598762	5.0827	5	0	0	0	-0.452609	0.139675	0	0	-0.582992	0.246234	0	0	-0.300996	0.20592	0.05065	-0.0559393	0.0817	0.24096	0.112715	-0.274998	-0.00158575	-0.131231	0.0529208	-0.185152	-0.148647	0.160425	-0.489832	0.224191	-0.584516	0.21697	-0.649256	0.28608	-0.554858	0.187609	
0.597632	5.0766	5	0	0	0	-0.459164	0.173362	0	0	-0.584933	0.28427	0	0	-0.287923	0.249034	0.053213	-0.0402165	0.100477	0.277042	0.116163	-0.271929	0.0109645	-0.118226	0.0616325	-0.174148	-0.136167	0.182819	-0.489629	0.233409	-0.577636	0.238203	-0.652175	0.29433	-0.554415	0.199564	
0.596021	5.07965	5	0	0	0	-0.465719	0.207049	0	0	-0.586873	0.322307	0	0	-0.27485	0.292149	0.055776	-0.0244938	0.119254	0.313123	0.119611	-0.268859	0.0235147	-0.105222	0.0703442	-0.163144	-0.123687	0.205213	-0.489426	0.242627	-0.570757	0.259436	-0.655094	0.30258	-0.553972	0.211519	
0.594385	5.07965	5	0	0	0	-0.472274	0.240736	0	0	-0.588813	0.360343	0	0	-0.261777	0.335264	0.058339	-0.008771	0.138031	0.349205	0.123059	-0.26579	0.036065	-0.092218	0.079056	-0.15214	-0.111207	0.227607	-0.489224	0.251845	-0.563877	0.280669	-0.658013	0.31083	-0.55353	0.223474	
0.593183	5.0766	5	0	0	0	-0.475479	0.264966	0	0	-0.595582	0.390337	0	0	-0.264239	0.376639	0.0608947	0.00700075	0.148259	0.384238	0.122829	-0.252316	0.0388522	-0.0758115	0.075723	-0.130831	-0.11026	0.25383	-0.488163	0.258641	-0.565712	0.302151	-0.661909	0.321842	-0.554507	0.239448	
0.592822	5.07812	5	0	0	0	-0.478683	0.289195	0	0	-0.602351	0.420331	0	0	-0.266701	0.418013	0.0634505	0.0227725	0.158488	0.41927	0.122598	-0.238841	0.0416395	-0.059405	0.07239	-0.109522	-0.109313	0.280054	-0.487101	0.265436	-0.567547	0.323633	-0.665806	0.332854	-0.555483	0.255421	
0.593275	5.08423	5	0	0	0	-0.481888	0.313425	0	0	-0.60912	0.450325	0	0	-0.269162	0.459388	0.0660063	0.0385443	0.168716	0.454303	0.122368	-0.225366	0.0444268	-0.0429985	0.069057	-0.088213	-0.108366	0.306277	-0.48604	0.272232	-0.569383	0.345115	-0.669702	0.343865	-0.556459	0.271395	
0.594288	5.08728	5	0	0	0	-0.485092	0.337655	0	0	-0.615889	0.480319	0	0	-0.271624	0.500763	0.068562	0.054316	0.178945	0.489336	0.122138	-0.211892	0.047214	-0.026592	0.065724	-0.066904	-0.107419	0.3325	-0.484979	0.279028	-0.571218	0.366597	-0.673599	0.354877	-0.557436	0.287369	
0.595601	5.07202	5	0	0	0	-0.492075	0.342218	0	0	-0.620889	0.483586	0	0	-0.26953	0.517827	0.0639655	0.0673057	0.192916	0.50116	0.117223	-0.198003	0.0402057	-0.006786	0.063475	-0.0486505	-0.1145	0.352513	-0.487567	0.286341	-0.572569	0.378569	-0.675549	0.360388	-0.563094	0.303359	
0.596959	5.06286	5	0	0	0	-0.499059	0.346781	0	0	-0.625889	0.486853	0	0	-0.267436	0.53489	0.059369	0.0802955	0.206888	0.512984	0.112309	-0.184114	0.0331975	0.01302	0.061226	-0.030397	-0.121582	0.372525	-0.490154	0.293654	-0.573921	0.390541	-0.677499	0.365899	-0.568752	0.319349	
0.598145	5.06286	5	0	0	0	-0.506042	0.351345	0	0	-0.630889	0.49012	0	0	-0.265343	0.551954	0.0547725	0.0932853	0.22086	0.524809	0.107395	-0.170225	0.0261893	0.032826	0.058977	-0.0121435	-0.128663	0.392537	-0.492741	0.300967	-0.575272	0.402512	-0.679449	0.37141	-0.57441	0.33534	
0.599129	5.06439	5	0	0	0	-0.513026	0.355908	0	0	-0.635889	0.493387	0	0	-0.263249	0.569018	0.050176	0.106275	0.234831	0.536633	0.10248	-0.156336	0.019181	0.052632	0.056728	0.00611	-0.135744	0.41255	-0.495329	0.30828	-0.576623	0.414484	-0.681399	0.376921	-0.580068	0.35133	
0.599931	5.06439	5	0	0	0	-0.516605	0.350859	0	0	-0.64457	0.496214	0	0	-0.268539	0.572475	0.0494793	0.096744	0.229998	0.550292	0.10125	-0.152861	0.0177775	0.0565985	0.055623	0.009233	-0.142397	0.416897	-0.5007	0.313665	-0.584978	0.421793	-0.692622	0.386374	-0.588983	0.36331	
0.600572	5.05981	5	0	0	0	-0.520183	0.345811	0	0	-0.653252	0.49904	0	0	-0.273829	0.575932	0.0487825	0.087213	0.225165	0.563951	0.10002	-0.149385	0.016374	0.060565	0.054518	0.012356	-0.14905	0.421245	-0.506072	0.31905	-0.593332	0.429102	-0.703846	0.395827	-0.597897	0.37529	
0.601071	5.06134	5	0	0	0	-0.523761	0.340763	0	0	-0.661933	0.501867	0	0	-0.279119	0.579388	0.0480857	0.077682	0.220332	0.577609	0.0987907	-0.145909	0.0149705	0.0645315	0.053413	0.015479	-0.155703	0.425592	-0.511443	0.324435	-0.601687	0.436411	-0.71507	0.405281	-0.606812	0.38727	
0.601419	5.07507	5	0	0	0	-0.52734	0.335714	0	0	-0.670614	0.504694	0	0	-0.284409	0.582845	0.047389	0.068151	0.215499	0.591268	0.097561	-0.142434	0.013567	0.068498	0.052308	0.018602	-0.162356	0.429939	-0.516814	0.32982	-0.610041	0.44372	-0.726293	0.414734	-0.615727	0.39925	
0.601533	5.08118	5	0	0	0	-0.530916	0.330672	0	0	-0.671679	0.496859	0	0	-0.285452	0.574304	0.0549777	0.0582042	0.212812	0.586022	0.0928887	-0.142053	0.00519675	0.06787	0.049042	0.015935	-0.166798	0.413615	-0.527736	0.331333	-0.619073	0.436683	-0.738716	0.416496	-0.635763	0.403112	
0.601317	5.0827	5	0	0	0	-0.534493	0.325631	0	0	-0.672744	0.489024	0	0	-0.286494	0.565763	0.0625665	0.0482575	0.210125	0.580776	0.0882165	-0.141673	-0.0031735	0.067242	0.045776	0.013268	-0.171239	0.39729	-0.538658	0.332846	-0.628105	0.429646	-0.75114	0.418257	-0.6558	0.406973	
0.600676	5.10254	5	0	0	0	-0.538069	0.320589	0	0	-0.673809	0.48119	0	0	-0.287536	0.557222	0.0701553	0.0383108	0.207438	0.575529	0.0835443	-0.141292	-0.0115437	0.066614	0.04251	0.010601	-0.175681	0.380966	-0.549581	0.334358	-0.637137	0.422609	-0.763563	0.420018	-0.675836	0.410835	
0.599519	5.12085	5	0	0	0	-0.541645	0.315547	0	0	-0.674874	0.473355	0	0	-0.288579	0.548681	0.077744	0.028364	0.204751	0.570283	0.078872	-0.140911	-0.019914	0.065986	0.039244	0.007934	-0.180123	0.364642	-0.560503	0.335871	-0.646169	0.415572	-0.775987	0.42178	-0.695872	0.414697	
0.597862	5.13611	5	0	0	0	-0.546915	0.315304	0	0	-0.684603	0.468354	0	0	-0.288212	0.536164	0.0830407	0.0249033	0.198845	0.574142	0.084774	-0.144767	-0.0226928	0.0617098	0.0414523	0.001693	-0.192959	0.357687	-0.559832	0.324198	-0.652642	0.40136	-0.779389	0.409195	-0.705561	0.402605	
0.595881	5.15137	5	0	0	0	-0.552185	0.315061	0	0	-0.694332	0.463353	0	0	-0.287845	0.523648	0.0883375	0.0214425	0.192939	0.578001	0.090676	-0.148624	-0.0254715	0.0574335	0.0436605	-0.004548	-0.205795	0.350731	-0.55916	0.312526	-0.659115	0.387147	-0.782791	0.396609	-0.71525	0.390512	
0.593767	5.16968	5	0	0	0	-0.557455	0.314819	0	0	-0.704061	0.458353	0	0	-0.287478	0.511131	0.0936343	0.0179817	0.187033	0.58186	0.096578	-0.15248	-0.0282503	0.0531573	0.0458687	-0.010789	-0.218631	0.343776	-0.558488	0.300853	-0.665587	0.372935	-0.786193	0.384023	-0.724939	0.37842	
0.591707	5.18951	5	0	0	0	-0.562725	0.314576	0	0	-0.71379	0.453352	0	0	-0.287111	0.498615	0.098931	0.014521	0.181127	0.585719	0.10248	-0.156336	-0.031029	0.048881	0.048077	-0.01703	-0.231467	0.336821	-0.557817	0.28918	-0.67206	0.358723	-0.789595	0.371438	-0.734628	0.366328	
0.589883	5.2063	5	0	0	0	-0.569686	0.319125	0	0	-0.727169	0.447923	0	0	-0.297301	0.493019	0.0977833	0.0177642	0.174156	0.579784	0.10248	-0.156336	-0.033807	0.0446093	0.0491805	-0.0201487	-0.235902	0.320588	-0.562505	0.282896	-0.67853	0.344558	-0.794941	0.364374	-0.744301	0.354274	
0.588383	5.22461	5	0	0	0	-0.576647	0.323673	0	0	-0.740548	0.442495	0	0	-0.307492	0.487422	0.0966355	0.0210075	0.167184	0.57385	0.10248	-0.156336	-0.036585	0.0403375	0.050284	-0.0232675	-0.240336	0.304356	-0.567194	0.276612	-0.684999	0.330394	-0.800287	0.357309	-0.753974	0.342221	
0.587226	5.24139	5	0	0	0	-0.583608	0.328221	0	0	-0.753927	0.437066	0	0	-0.317683	0.481826	0.0954877	0.0242508	0.160212	0.567915	0.10248	-0.156336	-0.039363	0.0360658	0.0513875	-0.0263862	-0.244771	0.288123	-0.571882	0.270328	-0.691469	0.316229	-0.805633	0.350244	-0.763648	0.330168	
0.586429	5.26886	5	0	0	0	-0.590569	0.33277	0	0	-0.767306	0.431637	0	0	-0.327873	0.47623	0.09434	0.027494	0.153241	0.56198	0.10248	-0.156336	-0.042141	0.031794	0.052491	-0.029505	-0.249205	0.271891	-0.57657	0.264044	-0.697939	0.302064	-0.810979	0.34318	-0.773321	0.318114	
0.586012	5.29327	5	0	0	0	-0.611579	0.331773	0	0	-0.776754	0.415197	0	0	-0.336282	0.454231	0.0954877	0.0242508	0.145206	0.546298	0.103709	-0.15981	-0.0518643	0.0229543	0.050327	-0.035279	-0.253644	0.255715	-0.582114	0.260197	-0.706442	0.285615	-0.81729	0.338869	-0.779761	0.3101	
0.585961	5.30701	5	0	0	0	-0.632589	0.330776	0	0	-0.786201	0.398758	0	0	-0.344691	0.432231	0.0966355	0.0210075	0.137171	0.530616	0.104939	-0.163284	-0.0615875	0.0141145	0.048163	-0.041053	-0.258082	0.239538	-0.587657	0.25635	-0.714946	0.269166	-0.823601	0.334558	-0.786201	0.302086	
0.586119	5.32837	5	0	0	0	-0.653599	0.329779	0	0	-0.795649	0.382319	0	0	-0.353099	0.410232	0.0977833	0.0177642	0.129136	0.514934	0.106168	-0.166759	-0.0713107	0.00527475	0.045999	-0.046827	-0.262521	0.223361	-0.593201	0.252504	-0.723449	0.252716	-0.829912	0.330247	-0.792642	0.294072	
0.586286	5.34057	5	0	0	0	-0.674609	0.328782	0	0	-0.805097	0.365879	0	0	-0.361508	0.388233	0.098931	0.014521	0.121101	0.499252	0.107397	-0.170233	-0.081034	-0.003565	0.043835	-0.052601	-0.26696	0.207185	-0.598744	0.248657	-0.731953	0.236267	-0.836223	0.325936	-0.799082	0.286058	
0.586262	5.34973	5	0	0	0	-0.678511	0.294655	0	0	-0.817954	0.337693	0	0	-0.372366	0.361873	0.090635	0.0149572	0.110398	0.478434	0.108626	-0.173706	-0.0879535	-0.0202577	0.041671	-0.0583675	-0.282833	0.194734	-0.600655	0.24431	-0.739609	0.217509	-0.837438	0.318306	-0.802711	0.270137	
0.585846	5.35431	5	0	0	0	-0.682412	0.260528	0	0	-0.830812	0.309507	0	0	-0.383224	0.335514	0.082339	0.0153935	0.099696	0.457616	0.109855	-0.177179	-0.094873	-0.0369505	0.039507	-0.064134	-0.298705	0.182283	-0.602567	0.239962	-0.747264	0.198751	-0.838653	0.310675	-0.80634	0.254216	
0.585007	5.35736	5	0	0	0	-0.686314	0.226401	0	0	-0.843669	0.28132	0	0	-0.394082	0.309154	0.074043	0.0158298	0.0889935	0.436799	0.111084	-0.180652	-0.101793	-0.0536432	0.037343	-0.0699005	-0.314578	0.169832	-0.604478	0.235615	-0.754919	0.179994	-0.839867	0.303044	-0.80997	0.238295	
0.584026	5.36499	5	0	0	0	-0.690215	0.192274	0	0	-0.856526	0.253134	0	0	-0.40494	0.282794	0.065747	0.016266	0.078291	0.415981	0.112313	-0.184125	-0.108712	-0.070336	0.035179	-0.075667	-0.330451	0.157381	-0.606389	0.231268	-0.762575	0.161236	-0.841082	0.295414	-0.813599	0.222374	
0.583221	5.37262	5	0	0	0	-0.70273	0.16761	0	0	-0.868085	0.221502	0	0	-0.41824	0.252156	0.068473	-0.0029315	0.0676013	0.395267	0.111322	-0.194147	-0.118397	-0.091187	0.035214	-0.0876408	-0.339711	0.140685	-0.6083	0.226925	-0.777637	0.1474	-0.852467	0.29444	-0.821429	0.218362	
0.582911	5.37567	5	0	0	0	-0.715245	0.142946	0	0	-0.879644	0.18987	0	0	-0.43154	0.221519	0.071199	-0.022129	0.0569115	0.374553	0.11033	-0.204169	-0.128082	-0.112038	0.035249	-0.0996145	-0.348971	0.123989	-0.610211	0.222581	-0.7927	0.133564	-0.863853	0.293466	-0.82926	0.214351	
0.583403	5.39093	5	0	0	0	-0.727761	0.118281	0	0	-0.891204	0.158237	0	0	-0.444841	0.190881	0.073925	-0.0413265	0.0462217	0.35384	0.109339	-0.21419	-0.137766	-0.132889	0.035284	-0.111588	-0.358232	0.107292	-0.612122	0.218238	-0.807763	0.119727	-0.875239	0.292491	-0.83709	0.21034	
0.584847	5.41077	5	0	0	0	-0.740276	0.093617	0	0	-0.902763	0.126605	0	0	-0.458141	0.160243	0.076651	-0.060524	0.035532	0.333126	0.108348	-0.224212	-0.147451	-0.15374	0.035319	-0.123562	-0.367492	0.090596	-0.614033	0.213895	-0.822825	0.105891	-0.886624	0.291517	-0.84492	0.206328	
0.587266	5.4306	5	0	0	0	-0.757781	0.0832473	0	0	-0.913249	0.102824	0	0	-0.468985	0.134226	0.0782188	-0.0764418	0.0280213	0.303567	0.103908	-0.237284	-0.162653	-0.170879	0.032083	-0.138144	-0.375005	0.0690625	-0.624901	0.21541	-0.834154	0.0896965	-0.901126	0.288391	-0.86334	0.206212	
0.590681	5.45349	5	0	0	0	-0.775286	0.0728775	0	0	-0.923734	0.0790435	0	0	-0.47983	0.10821	0.0797865	-0.0923595	0.0205105	0.274007	0.099468	-0.250356	-0.177855	-0.188018	0.028847	-0.152726	-0.382519	0.047529	-0.63577	0.216924	-0.845483	0.073502	-0.915628	0.285266	-0.88176	0.206096	
0.595113	5.47485	5	0	0	0	-0.792791	0.0625078	0	0	-0.934219	0.0552627	0	0	-0.490674	0.0821928	0.0813542	-0.108277	0.0129998	0.244448	0.095028	-0.263428	-0.193057	-0.205156	0.025611	-0.167308	-0.390033	0.0259955	-0.646639	0.218439	-0.856811	0.0573075	-0.93013	0.28214	-0.900179	0.20598	
0.600533	5.49927	5	0	0	0	-0.810296	0.052138	0	0	-0.944705	0.031482	0	0	-0.501518	0.056176	0.082922	-0.124195	0.005489	0.214889	0.090588	-0.2765	-0.208259	-0.222295	0.022375	-0.18189	-0.397546	0.004462	-0.657507	0.219953	-0.86814	0.041113	-0.944632	0.279014	-0.918599	0.205864	
0.606574	5.52673	5	0	0	0	-0.815498	0.0519092	0	0	-0.953034	0.0230458	0	0	-0.503648	0.0395792	0.084063	-0.127419	0.00172775	0.200178	0.0967013	-0.293777	-0.215156	-0.238771	0.0278527	-0.19737	-0.398896	-0.00595775	-0.662174	0.213701	-0.87909	0.0319793	-0.955002	0.275306	-0.928194	0.193946	
0.612724	5.54809	5	0	0	0	-0.8207	0.0516805	0	0	-0.961363	0.0146095	0	0	-0.505779	0.0229825	0.085204	-0.130644	-0.0020335	0.185467	0.102815	-0.311055	-0.222054	-0.255246	0.0333305	-0.21285	-0.400246	-0.0163775	-0.666841	0.207448	-0.890041	0.0228455	-0.965372	0.271598	-0.937788	0.182028	
0.618474	5.56946	5	0	0	0	-0.825902	0.0514517	0	0	-0.969692	0.00617325	0	0	-0.507909	0.00638575	0.086345	-0.133869	-0.00579475	0.170756	0.108928	-0.328332	-0.228951	-0.271722	0.0388083	-0.228331	-0.401595	-0.0267973	-0.671508	0.201195	-0.900991	0.0137117	-0.975741	0.26789	-0.947383	0.170109	
0.623313	5.58929	5	0	0	0	-0.831104	0.051223	0	0	-0.978021	-0.002263	0	0	-0.510039	-0.010211	0.087486	-0.137093	-0.009556	0.156045	0.115041	-0.345609	-0.235848	-0.288198	0.044286	-0.243811	-0.402945	-0.037217	-0.676175	0.194943	-0.911941	0.004578	-0.986111	0.264182	-0.956977	0.158191	
0.626811	5.61523	5	0	0	0	-0.830916	0.0656237	0	0	-0.979298	0.0013445	0	0	-0.508973	-0.00191925	0.0900672	-0.121407	-0.0169602	0.164314	0.115041	-0.345609	-0.237229	-0.296268	0.045363	-0.234995	-0.401595	-0.0267973	-0.675319	0.192525	-0.912773	0.00692975	-0.984183	0.258733	-0.961564	0.158162	
0.629081	5.63507	5	0	0	0	-0.830729	0.0800245	0	0	-0.980574	0.004952	0	0	-0.507907	0.0063725	0.0926485	-0.105721	-0.0243645	0.172582	0.115041	-0.345609	-0.238611	-0.304339	0.04644	-0.22618	-0.400246	-0.0163775	-0.674464	0.190107	-0.913606	0.0092815	-0.982255	0.253284	-0.966151	0.158133	
0.630457	5.65643	5	0	0	0	-0.830542	0.0944253	0	0	-0.98185	0.0085595	0	0	-0.50684	0.0146643	0.0952298	-0.0900357	-0.0317687	0.18085	0.115041	-0.345609	-0.239992	-0.31241	0.047517	-0.217365	-0.398896	-0.00595775	-0.673609	0.18769	-0.914438	0.0116332	-0.980327	0.247836	-0.970738	0.158103	
0.631274	5.67016	5	0	0	0	-0.830354	0.108826	0	0	-0.983127	0.012167	0	0	-0.505774	0.022956	0.097811	-0.07435	-0.039173	0.189119	0.115041	-0.345609	-0.241373	-0.32048	0.048594	-0.208549	-0.397546	0.004462	-0.672753	0.185272	-0.91527	0.013985	-0.978399	0.242387	-0.975325	0.158074	
0.631865	5.68542	5	0	0	0	-0.838568	0.146983	0	0	-0.989736	0.0414975	0	0	-0.505361	0.055745	0.0987977	-0.0426147	-0.032758	0.208988	0.119495	-0.332577	-0.242748	-0.30462	0.0583827	-0.188699	-0.401829	0.0450678	-0.670656	0.198786	-0.913023	0.039694	-0.977924	0.263047	-0.965739	0.16999	
0.632526	5.68695	5	0	0	0	-0.846782	0.18514	0	0	-0.996345	0.070828	0	0	-0.504947	0.088534	0.0997845	-0.0108795	-0.026343	0.228857	0.12395	-0.319546	-0.244123	-0.28876	0.0681715	-0.168849	-0.406112	0.0856735	-0.668559	0.212301	-0.910777	0.065403	-0.977448	0.283707	-0.956153	0.181906	
0.633245	5.68848	5	0	0	0	-0.854997	0.223297	0	0	-1.00295	0.100158	0	0	-0.504534	0.121323	0.100771	0.0208558	-0.019928	0.248725	0.128404	-0.306514	-0.245498	-0.272901	0.0779602	-0.148998	-0.410396	0.126279	-0.666461	0.225816	-0.908531	0.091112	-0.976973	0.304367	-0.946568	0.193822	
0.63386	5.69305	5	0	0	0	-0.863211	0.261454	0	0	-1.00956	0.129489	0	0	-0.504121	0.154112	0.101758	0.052591	-0.013513	0.268594	0.132858	-0.293482	-0.246873	-0.257041	0.087749	-0.129148	-0.414679	0.166885	-0.664364	0.23933	-0.906284	0.116821	-0.976498	0.325027	-0.936982	0.205738	
0.634209	5.69	5	0	0	0	-0.869804	0.29504	0	0	-1.01726	0.151245	0	0	-0.506541	0.194969	0.101549	0.08777	-0.0102835	0.297543	0.134856	-0.273473	-0.246889	-0.233024	0.0865335	-0.0899975	-0.407635	0.204113	-0.662088	0.262101	-0.90456	0.152098	-0.975818	0.35616	-0.935793	0.241465	
0.63413	5.68237	5	0	0	0	-0.876397	0.328627	0	0	-1.02496	0.173	0	0	-0.50896	0.235826	0.101339	0.122949	-0.007054	0.326491	0.136854	-0.253464	-0.246905	-0.209007	0.085318	-0.050847	-0.400591	0.24134	-0.659813	0.284871	-0.902836	0.187376	-0.975138	0.387292	-0.934603	0.277191	
0.633482	5.67016	5	0	0	0	-0.882989	0.362213	0	0	-1.03266	0.194755	0	0	-0.511379	0.276684	0.10113	0.158128	-0.0038245	0.35544	0.138852	-0.233456	-0.246921	-0.18499	0.0841025	-0.0116965	-0.393548	0.278567	-0.657537	0.307642	-0.901111	0.222654	-0.974459	0.418424	-0.933414	0.312918	
0.632354	5.66254	5	0	0	0	-0.889582	0.395799	0	0	-1.04035	0.216511	0	0	-0.513799	0.317541	0.100921	0.193307	-0.000595	0.384389	0.14085	-0.213447	-0.246937	-0.160973	0.082887	0.027454	-0.386504	0.315795	-0.655262	0.330413	-0.899387	0.257931	-0.973779	0.449557	-0.932224	0.348645	
0.630968	5.65338	5	0	0	0	-0.892838	0.419968	0	0	-1.04317	0.235114	0	0	-0.510688	0.342832	0.100454	0.206171	-5.525E-05	0.408291	0.139382	-0.196459	-0.249727	-0.14109	0.081669	0.0547447	-0.385638	0.341982	-0.658358	0.358656	-0.900575	0.293471	-0.972164	0.478105	-0.938512	0.39252	
0.629548	5.63965	5	0	0	0	-0.896094	0.444137	0	0	-1.04598	0.253717	0	0	-0.507578	0.368124	0.099987	0.219035	0.0004845	0.432193	0.137915	-0.179472	-0.252518	-0.121206	0.080451	0.0820355	-0.384773	0.368169	-0.661454	0.386898	-0.901763	0.32901	-0.970549	0.506652	-0.9448	0.436395	
0.628317	5.63202	5	0	0	0	-0.89935	0.468305	0	0	-1.04879	0.27232	0	0	-0.504468	0.393415	0.09952	0.231898	0.00102425	0.456095	0.136447	-0.162484	-0.255308	-0.101323	0.079233	0.109326	-0.383908	0.394355	-0.664549	0.415141	-0.902951	0.36455	-0.968934	0.5352	-0.951088	0.480269	
0.627484	5.61676	5	0	0	0	-0.902606	0.492474	0	0	-1.0516	0.290923	0	0	-0.501357	0.418706	0.099053	0.244762	0.001564	0.479997	0.13498	-0.145496	-0.258099	-0.08144	0.078015	0.136617	-0.383042	0.420542	-0.667645	0.443383	-0.904139	0.40009	-0.967319	0.563748	-0.957376	0.524144	
0.627086	5.60303	5	0	0	0	-0.907589	0.521534	0	0	-1.0521	0.313668	0	0	-0.502104	0.443573	0.0985785	0.257653	-0.00217825	0.503301	0.137199	-0.138917	-0.252599	-0.0729677	0.076837	0.151882	-0.383503	0.436177	-0.675589	0.456083	-0.903485	0.414352	-0.974154	0.583063	-0.961261	0.548192	
0.627053	5.58777	5	0	0	0	-0.912572	0.550594	0	0	-1.0526	0.336413	0	0	-0.502852	0.468441	0.098104	0.270545	-0.0059205	0.526604	0.139418	-0.132338	-0.247098	-0.0644955	0.075659	0.167146	-0.383964	0.451812	-0.683532	0.468784	-0.90283	0.428615	-0.980988	0.602379	-0.965147	0.572239	
0.627313	5.56946	5	0	0	0	-0.917554	0.579654	0	0	-1.0531	0.359157	0	0	-0.503599	0.493308	0.0976295	0.283436	-0.00966275	0.549907	0.141637	-0.12576	-0.241598	-0.0560233	0.074481	0.182411	-0.384424	0.467447	-0.691476	0.481484	-0.902176	0.442877	-0.987823	0.621694	-0.969032	0.596287	
0.627795	5.56335	5	0	0	0	-0.922537	0.608714	0	0	-1.05359	0.381902	0	0	-0.504346	0.518175	0.097155	0.296328	-0.013405	0.573211	0.143856	-0.119181	-0.236097	-0.047551	0.073303	0.197676	-0.384885	0.483082	-0.699419	0.494184	-0.901521	0.457139	-0.994657	0.641009	-0.972918	0.620334	
0.628433	5.54657	5	0	0	0	-0.920654	0.633385	0	0	-1.05282	0.401073	0	0	-0.499872	0.539718	0.0973472	0.318908	-0.0113073	0.592762	0.143606	-0.105616	-0.230592	-0.0390605	0.0721145	0.212978	-0.383587	0.493757	-0.698392	0.501031	-0.903739	0.471468	-0.995441	0.654275	-0.971152	0.628419	
0.629205	5.52978	5	0	0	0	-0.918771	0.658057	0	0	-1.05205	0.420243	0	0	-0.495398	0.561261	0.0975395	0.341487	-0.0092095	0.612313	0.143356	-0.0920505	-0.225087	-0.03057	0.070926	0.22828	-0.382288	0.504432	-0.697365	0.507877	-0.905957	0.485796	-0.996225	0.667541	-0.969386	0.636503	
0.630123	5.51453	5	0	0	0	-0.916888	0.682728	0	0	-1.05127	0.439414	0	0	-0.490925	0.582804	0.0977318	0.364066	-0.00711175	0.631863	0.143106	-0.0784853	-0.219582	-0.0220795	0.0697375	0.243583	-0.38099	0.515106	-0.696338	0.514724	-0.908174	0.500125	-0.997009	0.680807	-0.967621	0.644588	
0.631198	5.5069	5	0	0	0	-0.915005	0.707399	0	0	-1.0505	0.458585	0	0	-0.486451	0.604347	0.097924	0.386646	-0.005014	0.651414	0.142856	-0.06492	-0.214077	-0.013589	0.068549	0.258885	-0.379692	0.525781	-0.695311	0.521571	-0.910392	0.514454	-0.997793	0.694073	-0.965855	0.652673	
0.632442	5.49164	5	0	0	0	-0.916637	0.727027	0	0	-1.0619	0.480125	0	0	-0.489672	0.624858	0.0992617	0.406018	-0.00983975	0.665052	0.146049	-0.0481995	-0.216901	0.0064275	0.076125	0.27335	-0.38017	0.541488	-0.693262	0.535293	-0.909755	0.528787	-1.00055	0.712915	-0.962328	0.668883	
0.633867	5.48248	5	0	0	0	-0.918269	0.746654	0	0	-1.0733	0.501664	0	0	-0.492893	0.64537	0.1006	0.425389	-0.0146655	0.67869	0.149241	-0.031479	-0.219724	0.026444	0.083701	0.287815	-0.380649	0.557194	-0.691213	0.549014	-0.909118	0.543121	-1.0033	0.731757	-0.9588	0.685092	
0.635511	5.47027	5	0	0	0	-0.919902	0.766282	0	0	-1.0847	0.523203	0	0	-0.496113	0.665882	0.101937	0.444761	-0.0194912	0.692328	0.152434	-0.0147585	-0.222548	0.0464605	0.091277	0.30228	-0.381127	0.572901	-0.689163	0.562736	-0.908481	0.557454	-1.00606	0.750599	-0.955273	0.701302	
0.63743	5.46265	5	0	0	0	-0.921534	0.78591	0	0	-1.0961	0.544743	0	0	-0.499334	0.686393	0.103275	0.464133	-0.024317	0.705966	0.155627	0.001962	-0.225372	0.066477	0.098853	0.316745	-0.381605	0.588607	-0.687114	0.576458	-0.907844	0.571787	-1.00881	0.769441	-0.951746	0.717512	
0.639684	5.45807	5	0	0	0	-0.928445	0.790426	0	0	-1.10593	0.551163	0	0	-0.507414	0.697819	0.101601	0.48045	-0.0334035	0.718902	0.158812	0.018739	-0.225417	0.0786475	0.0965243	0.335301	-0.380317	0.599334	-0.682311	0.592192	-0.902332	0.588518	-1.00846	0.790571	-0.945039	0.737893	
0.642327	5.44433	5	0	0	0	-0.935355	0.794941	0	0	-1.11575	0.557582	0	0	-0.515494	0.709245	0.099927	0.496767	-0.04249	0.731839	0.161997	0.035516	-0.225461	0.090818	0.0941955	0.353856	-0.37903	0.610061	-0.677507	0.607926	-0.89682	0.605248	-1.0081	0.811701	-0.938333	0.758275	
0.645415	5.43365	5	0	0	0	-0.942265	0.799457	0	0	-1.12558	0.564002	0	0	-0.523574	0.720672	0.098253	0.513084	-0.0515765	0.744775	0.165183	0.052293	-0.225506	0.102988	0.0918667	0.372412	-0.377742	0.620788	-0.672704	0.623659	-0.891308	0.621978	-1.00775	0.832831	-0.931626	0.778657	
0.648883	5.4306	5	0	0	0	-0.949176	0.803972	0	0	-1.1354	0.570422	0	0	-0.531654	0.732098	0.096579	0.529401	-0.060663	0.757711	0.168368	0.06907	-0.225551	0.115159	0.089538	0.390967	-0.376454	0.631515	-0.667901	0.639393	-0.885796	0.638709	-1.00739	0.853961	-0.924919	0.799038	
0.652525	5.4245	5	0	0	0	-0.949176	0.803972	0	0	-1.1393	0.581436	0	0	-0.533069	0.736098	0.0935835	0.52628	-0.060663	0.757711	0.17058	0.075723	-0.224202	0.123397	0.0829055	0.397738	-0.371614	0.632213	-0.668478	0.66059	-0.888592	0.662785	-1.00607	0.872378	-0.9257	0.827515	
0.656129	5.41382	5	0	0	0	-0.949176	0.803972	0	0	-1.1432	0.59245	0	0	-0.534485	0.740098	0.090588	0.523159	-0.060663	0.757711	0.172791	0.082376	-0.222853	0.131635	0.076273	0.404508	-0.366773	0.63291	-0.669056	0.681787	-0.891387	0.686861	-1.00474	0.890796	-0.926481	0.855992	
0.659485	5.40466	5	0	0	0	-0.949176	0.803972	0	0	-1.14709	0.603465	0	0	-0.535901	0.744099	0.0875925	0.520039	-0.060663	0.757711	0.175003	0.089029	-0.221503	0.139874	0.0696405	0.411279	-0.361933	0.633607	-0.669633	0.702985	-0.894183	0.710937	-1.00342	0.909214	-0.927261	0.884468	
0.662381	5.40314	5	0	0	0	-0.949176	0.803972	0	0	-1.15099	0.614479	0	0	-0.537316	0.748099	0.084597	0.516918	-0.060663	0.757711	0.177215	0.095682	-0.220154	0.148112	0.063008	0.41805	-0.357093	0.634305	-0.670211	0.724182	-0.896979	0.735013	-1.00209	0.927631	-0.928042	0.912945	
0.664673	5.39856	5	0	0	0	-0.943916	0.819146	0	0	-1.15158	0.637497	0	0	-0.536315	0.756679	0.085765	0.513617	-0.0511218	0.769005	0.175972	0.0991957	-0.213253	0.152735	0.0674917	0.405378	-0.354027	0.640029	-0.669197	0.731106	-0.892645	0.747054	-1.00407	0.933214	-0.926292	0.921149	
0.666404	5.39245	5	0	0	0	-0.938655	0.83432	0	0	-1.15217	0.660514	0	0	-0.535314	0.76526	0.086933	0.510316	-0.0415805	0.780299	0.174728	0.10271	-0.206352	0.157357	0.0719755	0.392706	-0.350962	0.645753	-0.668183	0.73803	-0.888311	0.759096	-1.00604	0.938798	-0.924543	0.929353	
0.667645	5.38483	5	0	0	0	-0.933395	0.849494	0	0	-1.15276	0.683531	0	0	-0.534313	0.773841	0.088101	0.507015	-0.0320392	0.791592	0.173485	0.106223	-0.199451	0.16198	0.0764593	0.380034	-0.347896	0.651478	-0.667168	0.744953	-0.883978	0.771138	-1.00802	0.944381	-0.922793	0.937558	
0.668466	5.38177	5	0	0	0	-0.928134	0.864668	0	0	-1.15335	0.706549	0	0	-0.533312	0.782421	0.089269	0.503714	-0.022498	0.802886	0.172241	0.109737	-0.19255	0.166603	0.080943	0.367362	-0.34483	0.657202	-0.666154	0.751877	-0.879644	0.783179	-1.01	0.949965	-0.921043	0.945762	
0.668939	5.38483	5	0	0	0	-0.941888	0.903539	0	0	-1.15067	0.741731	0	0	-0.527908	0.812856	0.0952635	0.509954	-0.013537	0.828695	0.175696	0.112886	-0.181534	0.183816	0.087574	0.360596	-0.337412	0.67947	-0.666016	0.761282	-0.870117	0.804928	-1.00374	0.95447	-0.91611	0.958146	
0.669136	5.38177	5	0	0	0	-0.955642	0.94241	0	0	-1.14799	0.776913	0	0	-0.522504	0.843292	0.101258	0.516193	-0.004576	0.854503	0.17915	0.116035	-0.170517	0.20103	0.094205	0.35383	-0.329994	0.701737	-0.665878	0.770687	-0.860591	0.826677	-0.997483	0.958974	-0.911177	0.97053	
0.669142	5.38177	5	0	0	0	-0.969396	0.981281	0	0	-1.1453	0.812094	0	0	-0.517101	0.873727	0.107253	0.522433	0.004385	0.880312	0.182605	0.119184	-0.159501	0.218244	0.100836	0.347063	-0.322576	0.724005	-0.66574	0.780091	-0.851064	0.848427	-0.991227	0.963479	-0.906244	0.982915	
0.66905	5.38483	5	0	0	0	-0.98315	1.02015	0	0	-1.14262	0.847276	0	0	-0.511697	0.904162	0.113247	0.528673	0.013346	0.90612	0.18606	0.122333	-0.148485	0.235457	0.107467	0.340297	-0.315158	0.746273	-0.665602	0.789496	-0.841537	0.870176	-0.98497	0.967984	-0.901311	0.995299	
0.668951	5.38635	5	0	0	0	-0.983115	1.05014	0	0	-1.14721	0.881689	0	0	-0.507751	0.938831	0.115732	0.544859	0.0249518	0.937436	0.192975	0.128639	-0.137518	0.265072	0.106347	0.343462	-0.299806	0.775164	-0.657181	0.804928	-0.833152	0.911575	-0.989769	0.992649	-0.889998	1.01609	
0.668937	5.38483	5	0	0	0	-0.983081	1.08014	0	0	-1.15181	0.916102	0	0	-0.503806	0.973499	0.118217	0.561045	0.0365575	0.968753	0.199891	0.134945	-0.12655	0.294686	0.105227	0.346627	-0.284455	0.804055	-0.648759	0.820361	-0.824767	0.952975	-0.994568	1.01731	-0.878684	1.03688	
0.669097	5.37872	5	0	0	0	-0.983046	1.11013	0	0	-1.15641	0.950515	0	0	-0.49986	1.00817	0.120702	0.577232	0.0481633	1.00007	0.206807	0.141251	-0.115583	0.3243	0.104107	0.349792	-0.269103	0.832945	-0.640338	0.835794	-0.816383	0.994374	-0.999366	1.04198	-0.867371	1.05767	
0.66946	5.38635	5	0	0	0	-0.983011	1.14012	0	0	-1.16101	0.984928	0	0	-0.495915	1.04284	0.123187	0.593418	0.059769	1.03138	0.213722	0.147557	-0.104615	0.353915	0.102987	0.352957	-0.253752	0.861836	-0.631916	0.851226	-0.807998	1.03577	-1.00416	1.06665	-0.856058	1.07846	
0.669984	5.39093	5	0	0	0	-0.995134	1.15933	0	0	-1.16169	1.00831	0	0	-0.493957	1.06026	0.12136	0.586973	0.0730158	1.05828	0.211228	0.154606	-0.0964093	0.379355	0.104107	0.349792	-0.248135	0.889463	-0.629774	0.87465	-0.807183	1.08244	-0.998756	1.08471	-0.855178	1.11565	
0.670621	5.38788	5	0	0	0	-1.00726	1.17854	0	0	-1.16238	1.03169	0	0	-0.492	1.07768	0.119533	0.580529	0.0862625	1.08519	0.208734	0.161654	-0.0882035	0.404796	0.105227	0.346627	-0.242518	0.91709	-0.627632	0.898074	-0.806368	1.12911	-0.993347	1.10277	-0.854297	1.15283	
0.671324	5.38177	5	0	0	0	-1.01938	1.19775	0	0	-1.16306	1.05507	0	0	-0.490042	1.0951	0.117706	0.574084	0.0995092	1.11208	0.20624	0.168703	-0.0799977	0.430237	0.106347	0.343462	-0.236902	0.944716	-0.625489	0.921499	-0.805553	1.17578	-0.987938	1.12083	-0.853417	1.19001	
0.672046	5.38635	5	0	0	0	-1.0315	1.21696	0	0	-1.16375	1.07845	0	0	-0.488085	1.11252	0.115879	0.567639	0.112756	1.13898	0.203746	0.175752	-0.071792	0.455677	0.107467	0.340297	-0.231285	0.972343	-0.623347	0.944923	-0.804738	1.22245	-0.982529	1.1389	-0.852537	1.2272	
0.672723	5.38788	5	0	0	0	-1.02112	1.23281	0	0	-1.15721	1.10296	0	0	-0.482285	1.13061	0.114051	0.561203	0.12602	1.16606	0.212195	0.164812	-0.0621647	0.477227	0.10755	0.328089	-0.233637	0.993513	-0.627872	0.94788	-0.799285	1.23975	-0.992765	1.14559	-0.861533	1.23939	
0.673231	5.38025	5	0	0	0	-1.01074	1.24866	0	0	-1.15068	1.12747	0	0	-0.476486	1.1487	0.112224	0.554768	0.139284	1.19313	0.220645	0.153872	-0.0525375	0.498777	0.107632	0.315881	-0.235989	1.01468	-0.632397	0.950836	-0.793832	1.25706	-1.003	1.15227	-0.87053	1.25158	
0.673435	5.37262	5	0	0	0	-1.00036	1.26452	0	0	-1.14415	1.15198	0	0	-0.470687	1.16679	0.110396	0.548332	0.152549	1.22021	0.229094	0.142932	-0.0429102	0.520326	0.107715	0.303672	-0.238342	1.03585	-0.636922	0.953793	-0.788378	1.27437	-1.01324	1.15896	-0.879526	1.26377	
0.6732	5.37109	5	0	0	0	-0.98998	1.28037	0	0	-1.13762	1.17648	0	0	-0.464887	1.18488	0.108568	0.541896	0.165813	1.24728	0.237543	0.131992	-0.033283	0.541876	0.107798	0.291464	-0.240694	1.05702	-0.641447	0.95675	-0.782925	1.29168	-1.02347	1.16565	-0.888523	1.27597	
0.672391	5.37109	5	0	0	0	-0.99698	1.31524	0	0	-1.13739	1.20813	0	0	-0.460536	1.20713	0.11808	0.538223	0.173123	1.27843	0.236296	0.135516	-0.0278473	0.563167	0.108916	0.288305	-0.238188	1.07902	-0.641447	0.95675	-0.779495	1.30656	-1.02148	1.16002	-0.889977	1.28007	
0.670897	5.36346	5	0	0	0	-1.00398	1.35011	0	0	-1.13716	1.23977	0	0	-0.456186	1.22938	0.127592	0.53455	0.180432	1.30958	0.23505	0.139039	-0.0224115	0.584457	0.110034	0.285147	-0.235681	1.10102	-0.641447	0.95675	-0.776064	1.32144	-1.01949	1.1544	-0.891431	1.28418	
0.66887	5.35431	5	0	0	0	-1.01098	1.38498	0	0	-1.13693	1.27141	0	0	-0.451835	1.25163	0.137104	0.530877	0.187742	1.34073	0.233803	0.142563	-0.0169758	0.605747	0.111151	0.281989	-0.233175	1.12301	-0.641447	0.95675	-0.772634	1.33633	-1.0175	1.14877	-0.892884	1.28829	
0.666623	5.34973	5	0	0	0	-1.01798	1.41985	0	0	-1.13671	1.30306	0	0	-0.447484	1.27388	0.146616	0.527204	0.195052	1.37189	0.232556	0.146087	-0.01154	0.627038	0.112269	0.27883	-0.230669	1.14501	-0.641447	0.95675	-0.769204	1.35121	-1.01551	1.14315	-0.894338	1.2924	
0.66447	5.34515	5	0	0	0	-1.03017	1.43921	0	0	-1.14567	1.31761	0	0	-0.454723	1.29434	0.144274	0.533822	0.189397	1.40084	0.23602	0.149245	-0.00467575	0.644364	0.110033	0.285148	-0.224537	1.15681	-0.642327	0.959238	-0.766657	1.36862	-1.0175	1.14877	-0.891157	1.29664	
0.662726	5.33905	5	0	0	0	-1.04236	1.45857	0	0	-1.15462	1.33216	0	0	-0.461962	1.3148	0.141933	0.540439	0.183742	1.4298	0.239484	0.152402	0.0021885	0.66169	0.107797	0.291467	-0.218405	1.1686	-0.643208	0.961727	-0.764111	1.38604	-1.01949	1.1544	-0.887976	1.30089	
0.661699	5.33142	5	0	0	0	-1.05455	1.47793	0	0	-1.16358	1.34671	0	0	-0.469202	1.33526	0.139592	0.547057	0.178087	1.45876	0.242949	0.155559	0.00905275	0.679015	0.105562	0.297785	-0.212272	1.1804	-0.644089	0.964216	-0.761564	1.40345	-1.02148	1.16002	-0.884796	1.30513	
0.661404	5.32989	5	0	0	0	-1.06673	1.49729	0	0	-1.17254	1.36126	0	0	-0.476441	1.35572	0.13725	0.553675	0.172432	1.48771	0.246413	0.158717	0.015917	0.696341	0.103326	0.304103	-0.20614	1.19219	-0.644969	0.966704	-0.759017	1.42086	-1.02347	1.16565	-0.881615	1.30937	
0.661467	5.32684	5	0	0	0	-1.07361	1.48659	0	0	-1.17844	1.35642	0	0	-0.486548	1.34973	0.128251	0.544303	0.168124	1.48691	0.241701	0.159084	0.013043	0.704464	0.0945503	0.30498	-0.211025	1.19143	-0.649491	0.969659	-0.764553	1.4283	-1.0327	1.16952	-0.895247	1.32145	
0.661488	5.32379	5	0	0	0	-1.08049	1.4759	0	0	-1.18435	1.35158	0	0	-0.496654	1.34375	0.119253	0.534932	0.163816	1.48611	0.23699	0.159452	0.010169	0.712586	0.0857745	0.305857	-0.215911	1.19067	-0.654014	0.972614	-0.77009	1.43574	-1.04193	1.17338	-0.90888	1.33352	
0.661067	5.31769	5	0	0	0	-1.08737	1.4652	0	0	-1.19025	1.34674	0	0	-0.506761	1.33777	0.110254	0.52556	0.159507	1.48531	0.232278	0.15982	0.007295	0.720708	0.0769988	0.306734	-0.220796	1.18991	-0.658536	0.97557	-0.775626	1.44318	-1.05116	1.17725	-0.922513	1.34559	
0.659804	5.31921	5	0	0	0	-1.09425	1.45451	0	0	-1.19615	1.3419	0	0	-0.516868	1.33179	0.101255	0.516188	0.155199	1.48452	0.227567	0.160187	0.004421	0.728831	0.068223	0.307611	-0.225681	1.18914	-0.663059	0.978525	-0.781162	1.45062	-1.06038	1.18112	-0.936145	1.35766	
0.657507	5.31616	5	0	0	0	-1.09939	1.43892	0	0	-1.20566	1.33653	0	0	-0.518782	1.3142	0.104092	0.496583	0.143954	1.47742	0.220647	0.153875	0.003093	0.720334	0.0683045	0.29543	-0.234868	1.17147	-0.67233	0.965474	-0.789484	1.43316	-1.06477	1.16024	-0.948819	1.34068	
0.654577	5.31158	5	0	0	0	-1.10452	1.42334	0	0	-1.21516	1.33117	0	0	-0.520696	1.29662	0.106929	0.476978	0.13271	1.47033	0.213727	0.147563	0.001765	0.711837	0.068386	0.283248	-0.244055	1.1538	-0.681602	0.952423	-0.797807	1.4157	-1.06915	1.13936	-0.961493	1.32369	
0.651523	5.30701	5	0	0	0	-1.10965	1.40775	0	0	-1.22467	1.3258	0	0	-0.52261	1.27903	0.109766	0.457374	0.121465	1.46324	0.206807	0.141251	0.000437	0.70334	0.0684675	0.271066	-0.253243	1.13613	-0.690874	0.939373	-0.806129	1.39824	-1.07354	1.11847	-0.974166	1.30671	
0.648852	5.30701	5	0	0	0	-1.11478	1.39216	0	0	-1.23418	1.32044	0	0	-0.524524	1.26144	0.112603	0.437769	0.11022	1.45615	0.199887	0.134939	-0.000891	0.694843	0.068549	0.258885	-0.26243	1.11846	-0.700145	0.926322	-0.814451	1.38078	-1.07792	1.09759	-0.98684	1.28972	
0.647072	5.30548	5	0	0	0	-1.12165	1.38154	0	0	-1.23741	1.3081	0	0	-0.537006	1.25082	0.110768	0.431374	0.0989987	1.44907	0.203621	0.124385	-0.00498525	0.681939	0.0730075	0.246284	-0.267996	1.09065	-0.704024	0.907898	-0.824779	1.3609	-1.0874	1.08012	-0.996598	1.26465	
0.646564	5.30395	5	0	0	0	-1.12852	1.37091	0	0	-1.24063	1.29576	0	0	-0.549488	1.24019	0.108934	0.42498	0.0877775	1.442	0.207355	0.113831	-0.0090795	0.669036	0.077466	0.233684	-0.273563	1.06285	-0.707902	0.889474	-0.835106	1.34103	-1.09688	1.06266	-1.00636	1.23957	
0.647098	5.2948	5	0	0	0	-1.13539	1.36028	0	0	-1.24386	1.28343	0	0	-0.561969	1.22956	0.1071	0.418585	0.0765563	1.43492	0.21109	0.103277	-0.0131737	0.656132	0.0819245	0.221083	-0.27913	1.03505	-0.711781	0.87105	-0.845433	1.32116	-1.10637	1.04519	-1.01611	1.2145	
0.648256	5.2948	5	0	0	0	-1.14226	1.34966	0	0	-1.24709	1.27109	0	0	-0.574451	1.21893	0.105265	0.41219	0.065335	1.42784	0.214824	0.092723	-0.017268	0.643228	0.086383	0.208483	-0.284696	1.00724	-0.71566	0.852626	-0.855761	1.30129	-1.11585	1.02772	-1.02587	1.18942	
0.649621	5.29327	5	0	0	0	-1.16632	1.34277	0	0	-1.26472	1.25669	0	0	-0.580206	1.20084	0.102266	0.409091	0.0472343	1.41453	0.211364	0.0895795	-0.032599	0.637702	0.0819997	0.208927	-0.292079	0.984674	-0.717668	0.838735	-0.860317	1.28153	-1.12419	1.01815	-1.03535	1.17681	
0.650777	5.28564	5	0	0	0	-1.19039	1.33589	0	0	-1.28235	1.24228	0	0	-0.58596	1.18275	0.099268	0.405993	0.0291335	1.40121	0.207905	0.086436	-0.04793	0.632175	0.0776165	0.209372	-0.299461	0.962106	-0.719675	0.824845	-0.864873	1.26178	-1.13253	1.00858	-1.04482	1.1642	
0.651344	5.27649	5	0	0	0	-1.21445	1.329	0	0	-1.29997	1.22787	0	0	-0.591715	1.16466	0.0962695	0.402894	0.0110327	1.3879	0.204446	0.0832925	-0.063261	0.626648	0.0732332	0.209817	-0.306844	0.939537	-0.721683	0.810955	-0.869429	1.24202	-1.14086	0.999016	-1.0543	1.15159	
0.651305	5.27801	5	0	0	0	-1.23851	1.32211	0	0	-1.3176	1.21347	0	0	-0.59747	1.14657	0.093271	0.399796	-0.007068	1.37458	0.200986	0.080149	-0.078592	0.621122	0.06885	0.210261	-0.314227	0.916968	-0.723691	0.797064	-0.873985	1.22226	-1.1492	0.989447	-1.06378	1.13898	
0.650837	5.27191	5	0	0	0	-1.24528	1.28154	0	0	-1.325	1.18103	0	0	-0.608019	1.11926	0.0824535	0.384151	-0.024441	1.34661	0.194073	0.0738707	-0.0854287	0.603886	0.0623172	0.204859	-0.326461	0.893789	-0.729327	0.783684	-0.885169	1.20503	-1.15654	0.977123	-1.07926	1.13035	
0.650121	5.27038	5	0	0	0	-1.25204	1.24096	0	0	-1.3324	1.14859	0	0	-0.618567	1.09196	0.071636	0.368506	-0.041814	1.31863	0.18716	0.0675925	-0.0922655	0.586651	0.0557845	0.199458	-0.338695	0.87061	-0.734963	0.770304	-0.896352	1.18779	-1.16388	0.964798	-1.09474	1.12172	
0.649337	5.26276	5	0	0	0	-1.25881	1.20039	0	0	-1.3398	1.11615	0	0	-0.629115	1.06465	0.0608185	0.352861	-0.059187	1.29066	0.180247	0.0613143	-0.0991023	0.569415	0.0492517	0.194056	-0.350929	0.847432	-0.7406	0.756925	-0.907536	1.17055	-1.17123	0.952473	-1.11023	1.11308	
0.64866	5.2597	5	0	0	0	-1.26558	1.15981	0	0	-1.3472	1.08371	0	0	-0.639664	1.03735	0.050001	0.337216	-0.07656	1.26269	0.173334	0.055036	-0.105939	0.55218	0.042719	0.188655	-0.363163	0.824253	-0.746236	0.743545	-0.91872	1.15332	-1.17857	0.940149	-1.12571	1.10445	
0.648174	5.25818	5	0	0	0	-1.27581	1.12922	0	0	-1.35104	1.05199	0	0	-0.648791	1.0062	0.046812	0.31164	-0.0997632	1.23875	0.170145	0.0382688	-0.123858	0.529922	0.03737	0.168034	-0.376652	0.790435	-0.757362	0.726244	-0.933027	1.12882	-1.19421	0.91838	-1.13829	1.08775	
0.64788	5.25207	5	0	0	0	-1.28604	1.09863	0	0	-1.35488	1.02027	0	0	-0.657917	0.975052	0.043623	0.286065	-0.122967	1.21481	0.166957	0.0215015	-0.141776	0.507664	0.032021	0.147414	-0.390142	0.756616	-0.768488	0.708943	-0.947334	1.10433	-1.20985	0.896611	-1.15086	1.07104	
0.647773	5.24444	5	0	0	0	-1.29628	1.06805	0	0	-1.35872	0.988547	0	0	-0.667044	0.943903	0.040434	0.26049	-0.14617	1.19087	0.163768	0.00473425	-0.159695	0.485407	0.026672	0.126793	-0.403631	0.722797	-0.779614	0.691642	-0.961642	1.07984	-1.22549	0.874842	-1.16344	1.05434	
0.647852	5.2475	5	0	0	0	-1.30651	1.03746	0	0	-1.36256	0.956827	0	0	-0.67617	0.912754	0.037245	0.234914	-0.169373	1.16693	0.160579	-0.012033	-0.177614	0.463149	0.021323	0.106172	-0.41712	0.688979	-0.79074	0.674341	-0.975949	1.05535	-1.24113	0.853073	-1.17602	1.03764	
0.648111	5.2536	5	0	0	0	-1.31845	1.0267	0	0	-1.37069	0.947924	0	0	-0.68335	0.898964	0.0400195	0.215558	-0.178179	1.14086	0.156148	-0.0252547	-0.178861	0.442436	0.0246985	0.0847345	-0.429323	0.666112	-0.799108	0.659086	-0.982511	1.03343	-1.24958	0.833113	-1.19626	1.01674	
0.648484	5.2536	5	0	0	0	-1.33039	1.01594	0	0	-1.37881	0.939021	0	0	-0.690531	0.885175	0.042794	0.196201	-0.186984	1.11478	0.151718	-0.0384765	-0.180107	0.421723	0.028074	0.063297	-0.441526	0.643246	-0.807477	0.643832	-0.989074	1.01152	-1.25803	0.813152	-1.2165	0.995848	
0.648809	5.2597	5	0	0	0	-1.34233	1.00518	0	0	-1.38694	0.930119	0	0	-0.697711	0.871386	0.0455685	0.176844	-0.19579	1.08871	0.147287	-0.0516983	-0.181354	0.40101	0.0314495	0.0418595	-0.453729	0.620379	-0.815846	0.628577	-0.995637	0.989599	-1.26649	0.793192	-1.23674	0.974954	
0.648918	5.27191	5	0	0	0	-1.35427	0.994425	0	0	-1.39506	0.921216	0	0	-0.704891	0.857596	0.048343	0.157488	-0.204596	1.06264	0.142856	-0.06492	-0.1826	0.380297	0.034825	0.020422	-0.465932	0.597513	-0.824214	0.613322	-1.0022	0.967682	-1.27494	0.773232	-1.25697	0.954059	
0.648643	5.29175	5	0	0	0	-1.3713	0.998139	0	0	-1.40579	0.91971	0	0	-0.708262	0.844435	0.042358	0.151394	-0.212417	1.04661	0.141873	-0.0750015	-0.193657	0.375251	0.0348723	0.0083985	-0.472027	0.586127	-0.826234	0.599611	-1.00534	0.9604	-1.27722	0.757784	-1.25897	0.933738	
0.647815	5.30395	5	0	0	0	-1.38832	1.00185	0	0	-1.41651	0.918203	0	0	-0.711632	0.831275	0.036373	0.1453	-0.220237	1.03058	0.140891	-0.085083	-0.204715	0.370204	0.0349195	-0.003625	-0.478121	0.574742	-0.828255	0.585899	-1.00848	0.953118	-1.2795	0.742336	-1.26097	0.913417	
0.646363	5.32226	5	0	0	0	-1.40534	1.00557	0	0	-1.42723	0.916697	0	0	-0.715002	0.818114	0.030388	0.139206	-0.228057	1.01456	0.139908	-0.0951645	-0.215772	0.365158	0.0349668	-0.0156485	-0.484216	0.563356	-0.830276	0.572187	-1.01162	0.945836	-1.28178	0.726887	-1.26296	0.893096	
0.644447	5.34057	5	0	0	0	-1.42237	1.00928	0	0	-1.43796	0.915191	0	0	-0.718373	0.804953	0.024403	0.133112	-0.235878	0.998532	0.138925	-0.105246	-0.226829	0.360112	0.035014	-0.027672	-0.490311	0.55197	-0.832296	0.558476	-1.01477	0.938554	-1.28405	0.711439	-1.26496	0.872775	
0.642262	5.35431	5	0	0	0	-1.43763	0.993379	0	0	-1.44832	0.902137	0	0	-0.723156	0.795813	0.0131407	0.130481	-0.246922	0.991694	0.135476	-0.108348	-0.23098	0.35976	0.0284885	-0.0329872	-0.503459	0.560561	-0.835035	0.556513	-1.02134	0.940983	-1.29525	0.710303	-1.26808	0.868654	
0.640005	5.36346	5	0	0	0	-1.45289	0.977478	0	0	-1.45867	0.889083	0	0	-0.72794	0.786672	0.0018785	0.12785	-0.257966	0.984855	0.132026	-0.11145	-0.235131	0.359407	0.021963	-0.0383025	-0.516607	0.569152	-0.837773	0.55455	-1.02791	0.943413	-1.30645	0.709167	-1.27121	0.864533	
0.637871	5.36957	5	0	0	0	-1.46816	0.961577	0	0	-1.46903	0.87603	0	0	-0.732724	0.777532	-0.00938375	0.125218	-0.26901	0.978016	0.128577	-0.114551	-0.239281	0.359055	0.0154375	-0.0436177	-0.529755	0.577743	-0.840512	0.552586	-1.03449	0.945843	-1.31765	0.708031	-1.27434	0.860412	
0.636011	5.38177	5	0	0	0	-1.48342	0.945676	0	0	-1.47939	0.862976	0	0	-0.737507	0.768392	-0.020646	0.122587	-0.280054	0.971178	0.125128	-0.117653	-0.243432	0.358703	0.008912	-0.048933	-0.542903	0.586334	-0.843251	0.550623	-1.04106	0.948272	-1.32884	0.706895	-1.27747	0.856291	
0.634424	5.38788	5	0	0	0	-1.49357	0.930208	0	0	-1.48132	0.847288	0	0	-0.747066	0.750172	-0.0302815	0.103971	-0.282031	0.951441	0.120695	-0.130798	-0.254459	0.353664	0.007889	-0.0697685	-0.547211	0.569987	-0.853183	0.549613	-1.05161	0.945849	-1.33711	0.697528	-1.29847	0.863848	
0.633078	5.39245	5	0	0	0	-1.50372	0.91474	0	0	-1.48324	0.831601	0	0	-0.756625	0.731952	-0.039917	0.085355	-0.284008	0.931704	0.116262	-0.143943	-0.265485	0.348625	0.006866	-0.090604	-0.55152	0.55364	-0.863115	0.548604	-1.06217	0.943426	-1.34537	0.68816	-1.31946	0.871406	
0.631943	5.39245	5	0	0	0	-1.51387	0.899273	0	0	-1.48517	0.815913	0	0	-0.766184	0.713732	-0.0495525	0.066739	-0.285984	0.911968	0.11183	-0.157088	-0.276512	0.343586	0.005843	-0.111439	-0.555829	0.537294	-0.873048	0.547594	-1.07272	0.941003	-1.35364	0.678793	-1.34045	0.878963	
0.630986	5.39245	5	0	0	0	-1.52402	0.883805	0	0	-1.4871	0.800226	0	0	-0.775743	0.695512	-0.059188	0.048123	-0.287961	0.892231	0.107397	-0.170233	-0.287538	0.338547	0.00482	-0.132275	-0.560137	0.520947	-0.88298	0.546585	-1.08328	0.93858	-1.3619	0.669426	-1.36145	0.88652	
0.630135	5.39245	5	0	0	0	-1.53416	0.883078	0	0	-1.4845	0.792891	0	0	-0.776314	0.674548	-0.0594355	0.0259407	-0.297372	0.880905	0.104189	-0.186805	-0.287459	0.326273	-0.001668	-0.149473	-0.566207	0.509622	-0.886871	0.528546	-1.08868	0.921651	-1.3763	0.655689	-1.37107	0.862089	
0.629164	5.39093	5	0	0	0	-1.5443	0.882352	0	0	-1.48191	0.785556	0	0	-0.776884	0.653585	-0.059683	0.0037585	-0.306782	0.869579	0.100982	-0.203377	-0.287381	0.314	-0.008156	-0.16667	-0.572277	0.498297	-0.890761	0.510506	-1.09408	0.904722	-1.39069	0.641952	-1.3807	0.837658	
0.627809	5.38635	5	0	0	0	-1.55443	0.881625	0	0	-1.47931	0.778221	0	0	-0.777455	0.632622	-0.0599305	-0.0184238	-0.316192	0.858254	0.0977737	-0.219949	-0.287302	0.301727	-0.014644	-0.183868	-0.578346	0.486971	-0.894651	0.492467	-1.09948	0.887794	-1.40508	0.628214	-1.39032	0.813228	
0.625805	5.38635	5	0	0	0	-1.56457	0.880899	0	0	-1.47671	0.770886	0	0	-0.778026	0.611658	-0.060178	-0.040606	-0.325603	0.846928	0.094566	-0.236521	-0.287223	0.289453	-0.021132	-0.201066	-0.584416	0.475646	-0.898542	0.474428	-1.10489	0.870865	-1.41947	0.614477	-1.39994	0.788797	
0.62289	5.38483	5	0	0	0	-1.56626	0.870988	0	0	-1.47995	0.758922	0	0	-0.785195	0.598107	-0.063859	-0.0530565	-0.324993	0.832582	0.0889055	-0.246125	-0.289957	0.285137	-0.020016	-0.216049	-0.592236	0.469309	-0.905013	0.463727	-1.11029	0.853998	-1.41885	0.591009	-1.40957	0.764501	
0.618926	5.38177	5	0	0	0	-1.56794	0.861077	0	0	-1.48318	0.746957	0	0	-0.792365	0.584556	-0.06754	-0.065507	-0.324384	0.818236	0.083245	-0.25573	-0.292691	0.280821	-0.0189	-0.231032	-0.600056	0.462973	-0.911484	0.453025	-1.1157	0.837132	-1.41824	0.567541	-1.41919	0.740205	
0.614237	5.37567	5	0	0	0	-1.56963	0.851166	0	0	-1.48642	0.734992	0	0	-0.799535	0.571005	-0.071221	-0.0779575	-0.323774	0.80389	0.0775845	-0.265334	-0.295426	0.276504	-0.017784	-0.246016	-0.607875	0.456637	-0.917955	0.442323	-1.1211	0.820265	-1.41762	0.544072	-1.42881	0.71591	
0.609252	5.3772	5	0	0	0	-1.57131	0.841255	0	0	-1.48965	0.723028	0	0	-0.806704	0.557454	-0.074902	-0.090408	-0.323165	0.789544	0.071924	-0.274939	-0.29816	0.272188	-0.016668	-0.260999	-0.615695	0.4503	-0.924426	0.431622	-1.12651	0.803399	-1.417	0.520604	-1.43843	0.691614	
0.6044	5.3833	5	0	0	0	-1.58479	0.835409	0	0	-1.5	0.710128	0	0	-0.822815	0.546767	-0.0756065	-0.0998335	-0.33676	0.777559	0.0697062	-0.281459	-0.299491	0.263913	-0.017743	-0.269783	-0.616972	0.439707	-0.930891	0.420949	-1.1356	0.789004	-1.43022	0.514607	-1.44184	0.675557	
0.600109	5.3772	5	0	0	0	-1.59827	0.829563	0	0	-1.51034	0.697227	0	0	-0.838927	0.53608	-0.076311	-0.109259	-0.350355	0.765574	0.0674885	-0.28798	-0.300822	0.255639	-0.018818	-0.278567	-0.618249	0.429114	-0.937356	0.410276	-1.1447	0.774609	-1.44345	0.508609	-1.44525	0.6595	
0.596649	5.37414	5	0	0	0	-1.61175	0.823717	0	0	-1.52069	0.684326	0	0	-0.855039	0.525394	-0.0770155	-0.118684	-0.363951	0.753588	0.0652708	-0.2945	-0.302153	0.247364	-0.019893	-0.287351	-0.619526	0.418522	-0.943822	0.399603	-1.15379	0.760214	-1.45667	0.502612	-1.44866	0.643443	
0.593964	5.37414	5	0	0	0	-1.62523	0.817871	0	0	-1.53103	0.671426	0	0	-0.87115	0.514707	-0.07772	-0.12811	-0.377546	0.741603	0.063053	-0.301021	-0.303484	0.23909	-0.020968	-0.296135	-0.620803	0.407929	-0.950287	0.38893	-1.16288	0.745819	-1.46989	0.496615	-1.45207	0.627386	
0.591956	5.3772	5	0	0	0	-1.63197	0.793053	0	0	-1.54105	0.647188	0	0	-0.88206	0.500688	-0.0870825	-0.124462	-0.390114	0.739405	0.0652708	-0.2945	-0.314478	0.2341	-0.017727	-0.281643	-0.622555	0.412881	-0.951999	0.393771	-1.16884	0.738646	-1.47583	0.502588	-1.46417	0.623135	
0.590525	5.37414	5	0	0	0	-1.6387	0.768236	0	0	-1.55106	0.622949	0	0	-0.892971	0.486668	-0.096445	-0.120814	-0.402681	0.737206	0.0674885	-0.28798	-0.325473	0.229111	-0.014486	-0.267151	-0.624307	0.417832	-0.953712	0.398611	-1.17481	0.731472	-1.48178	0.508561	-1.47628	0.618883	
0.589584	5.37872	5	0	0	0	-1.64543	0.743418	0	0	-1.56108	0.59871	0	0	-0.903881	0.472649	-0.105807	-0.117165	-0.415248	0.735008	0.0697062	-0.281459	-0.336467	0.224122	-0.011245	-0.252659	-0.626059	0.422784	-0.955425	0.403451	-1.18077	0.724298	-1.48772	0.514534	-1.48839	0.614632	
0.589239	5.37567	5	0	0	0	-1.65216	0.7186	0	0	-1.57109	0.574472	0	0	-0.914791	0.458629	-0.11517	-0.113517	-0.427816	0.732809	0.071924	-0.274939	-0.347462	0.219132	-0.008004	-0.238167	-0.627811	0.427736	-0.957137	0.408292	-1.18673	0.717125	-1.49367	0.520507	-1.5005	0.610381	
0.589793	5.38177	5	0	0	0	-1.65387	0.694253	0	0	-1.57048	0.551773	0	0	-0.91816	0.445764	-0.105807	-0.117165	-0.409454	0.731221	0.07659	-0.275329	-0.357038	0.210202	0.0028785	-0.233389	-0.621275	0.423465	-0.96243	0.413612	-1.19268	0.709966	-1.49463	0.523225	-1.5036	0.606332	
0.591556	5.37872	5	0	0	0	-1.65557	0.669906	0	0	-1.56987	0.529073	0	0	-0.92153	0.432898	-0.096445	-0.120814	-0.391093	0.729634	0.081256	-0.27572	-0.366613	0.201273	0.013761	-0.228611	-0.614739	0.419194	-0.967723	0.418932	-1.19863	0.702806	-1.49559	0.525944	-1.50669	0.602284	
0.59484	5.37872	5	0	0	0	-1.65728	0.645558	0	0	-1.56926	0.506374	0	0	-0.924899	0.420033	-0.0870825	-0.124462	-0.372731	0.728047	0.085922	-0.27611	-0.376188	0.192344	0.0246435	-0.223833	-0.608202	0.414923	-0.973015	0.424251	-1.20459	0.695646	-1.49655	0.528662	-1.50979	0.598236	
0.599883	5.38177	5	0	0	0	-1.65899	0.621211	0	0	-1.56865	0.483675	0	0	-0.928268	0.407168	-0.07772	-0.12811	-0.35437	0.726459	0.090588	-0.2765	-0.385764	0.183414	0.035526	-0.219055	-0.601666	0.410652	-0.978308	0.429571	-1.21054	0.688487	-1.49751	0.53138	-1.51289	0.594187	
0.606263	5.3833	5	0	0	0	-1.67074	0.610762	0	0	-1.57062	0.468282	0	0	-0.93164	0.394338	-0.0758775	-0.121901	-0.341172	0.714363	0.0883677	-0.283022	-0.391146	0.162702	0.0453508	-0.223095	-0.607731	0.3994	-0.986465	0.42374	-1.21142	0.667014	-1.49961	0.526482	-1.52636	0.593888	
0.613207	5.38483	5	0	0	0	-1.6825	0.600313	0	0	-1.57259	0.45289	0	0	-0.935011	0.381508	-0.074035	-0.115692	-0.327974	0.702268	0.0861475	-0.289544	-0.396528	0.14199	0.0551755	-0.227134	-0.613796	0.388148	-0.994622	0.417909	-1.2123	0.645541	-1.5017	0.521583	-1.53983	0.593589	
0.619937	5.39093	5	0	0	0	-1.69425	0.589865	0	0	-1.57455	0.437497	0	0	-0.938383	0.368678	-0.0721925	-0.109483	-0.314776	0.690172	0.0839273	-0.296065	-0.40191	0.121278	0.0650003	-0.231174	-0.619861	0.376896	-1.00278	0.412079	-1.21318	0.624069	-1.5038	0.516685	-1.5533	0.59329	
0.625676	5.40161	5	0	0	0	-1.70601	0.579416	0	0	-1.57652	0.422104	0	0	-0.941755	0.355848	-0.07035	-0.103274	-0.301578	0.678076	0.081707	-0.302587	-0.407292	0.100566	0.074825	-0.235213	-0.625926	0.365644	-1.01094	0.406248	-1.21406	0.602596	-1.50589	0.511787	-1.56677	0.592991	
0.629738	5.41534	5	0	0	0	-1.71103	0.579078	0	0	-1.58104	0.413964	0	0	-0.94513	0.343052	-0.0655262	-0.0940528	-0.310995	0.666895	0.0770435	-0.302196	-0.416789	0.0796157	0.0715362	-0.225918	-0.635015	0.348824	-1.01551	0.399952	-1.22115	0.59074	-1.51392	0.512858	-1.56707	0.581074	
0.632309	5.43823	5	0	0	0	-1.71606	0.57874	0	0	-1.58557	0.405824	0	0	-0.948505	0.330257	-0.0607025	-0.0848315	-0.320411	0.655715	0.07238	-0.301804	-0.426285	0.0586655	0.0682475	-0.216624	-0.644104	0.332004	-1.02009	0.393656	-1.22824	0.578883	-1.52195	0.51393	-1.56737	0.569157	
0.634065	5.45654	5	0	0	0	-1.72108	0.578402	0	0	-1.59009	0.397685	0	0	-0.951879	0.317461	-0.0558788	-0.0756103	-0.329827	0.644535	0.0677165	-0.301412	-0.435781	0.0377153	0.0649588	-0.207329	-0.653194	0.315183	-1.02467	0.38736	-1.23533	0.567027	-1.52998	0.515002	-1.56767	0.55724	
0.635687	5.48401	5	0	0	0	-1.7261	0.578064	0	0	-1.59462	0.389545	0	0	-0.955254	0.304665	-0.051055	-0.066389	-0.339244	0.633354	0.063053	-0.301021	-0.445278	0.016765	0.06167	-0.198035	-0.662283	0.298363	-1.02924	0.381064	-1.24242	0.555171	-1.53801	0.516073	-1.56797	0.545323	
0.637854	5.51147	5	0	0	0	-1.72777	0.582773	0	0	-1.59688	0.385481	0	0	-0.964141	0.307476	-0.0485138	-0.0506898	-0.347056	0.617716	0.0677165	-0.301412	-0.453432	0.004049	0.064917	-0.183454	-0.66531	0.292771	-1.03196	0.379126	-1.24554	0.548067	-1.53496	0.518254	-1.56797	0.545323	
0.64119	5.53741	5	0	0	0	-1.72943	0.587482	0	0	-1.59914	0.381418	0	0	-0.973029	0.310288	-0.0459725	-0.0349905	-0.354868	0.602078	0.07238	-0.301804	-0.461587	-0.008667	0.068164	-0.168874	-0.668338	0.28718	-1.03467	0.377188	-1.24866	0.540963	-1.53191	0.520434	-1.56797	0.545323	
0.64549	5.56488	5	0	0	0	-1.7311	0.592191	0	0	-1.6014	0.377354	0	0	-0.981917	0.313099	-0.0434313	-0.0192912	-0.36268	0.58644	0.0770435	-0.302196	-0.469741	-0.021383	0.071411	-0.154294	-0.671366	0.281589	-1.03739	0.37525	-1.25178	0.53386	-1.52885	0.522614	-1.56797	0.545323	
0.649924	5.59387	5	0	0	0	-1.73277	0.5969	0	0	-1.60366	0.373291	0	0	-0.990804	0.31591	-0.04089	-0.003592	-0.370492	0.570802	0.081707	-0.302587	-0.477895	-0.034099	0.074658	-0.139713	-0.674393	0.275997	-1.0401	0.373312	-1.2549	0.526756	-1.5258	0.524795	-1.56797	0.545323	
0.653649	5.62286	5	0	0	0	-1.74947	0.615057	0	0	-1.61426	0.371912	0	0	-0.992183	0.319807	-0.042942	0.0251175	-0.377283	0.564891	0.0802535	-0.285683	-0.486087	-0.0347505	0.077864	-0.113081	-0.67962	0.29077	-1.04081	0.384912	-1.25827	0.536269	-1.52145	0.544961	-1.5587	0.55744	
0.655818	5.64728	5	0	0	0	-1.76616	0.633215	0	0	-1.62486	0.370533	0	0	-0.993562	0.323705	-0.044994	0.053827	-0.384073	0.55898	0.0788	-0.268779	-0.494278	-0.035402	0.08107	-0.0864485	-0.684848	0.305544	-1.04151	0.396513	-1.26163	0.545783	-1.5171	0.565127	-1.54942	0.569557	
0.655603	5.66864	5	0	0	0	-1.78286	0.651372	0	0	-1.63546	0.369154	0	0	-0.994941	0.327602	-0.047046	0.0825365	-0.390864	0.55307	0.0773465	-0.251874	-0.50247	-0.0360535	0.084276	-0.0598162	-0.690076	0.320318	-1.04222	0.408113	-1.265	0.555296	-1.51275	0.585293	-1.54014	0.581675	
0.652965	5.6961	5	0	0	0	-1.79956	0.669529	0	0	-1.64606	0.367775	0	0	-0.99632	0.331499	-0.049098	0.111246	-0.397655	0.547159	0.075893	-0.23497	-0.510662	-0.036705	0.087482	-0.033184	-0.695303	0.335091	-1.04292	0.419714	-1.26837	0.564809	-1.5084	0.605459	-1.53086	0.593792	
0.649004	5.72052	5	0	0	0	-1.80123	0.674246	0	0	-1.64351	0.360582	0	0	-0.99908	0.339299	-0.0518632	0.130526	-0.40184	0.546448	0.0695102	-0.204126	-0.524307	-0.0337875	0.081846	0.00657775	-0.701022	0.365403	-1.04164	0.444938	-1.27031	0.586233	-1.50697	0.633915	-1.53139	0.633689	
0.644909	5.73425	5	0	0	0	-1.8029	0.678962	0	0	-1.64097	0.353388	0	0	-1.00184	0.347098	-0.0546285	0.149807	-0.406025	0.545736	0.0631275	-0.173282	-0.537953	-0.03087	0.07621	0.0463395	-0.706742	0.395715	-1.04035	0.470162	-1.27226	0.607658	-1.50553	0.662372	-1.53191	0.673586	
0.641871	5.74646	5	0	0	0	-1.80457	0.683678	0	0	-1.63842	0.346195	0	0	-1.0046	0.354897	-0.0573938	0.169087	-0.410209	0.545025	0.0567447	-0.142437	-0.551598	-0.0279525	0.070574	0.0861012	-0.712461	0.426027	-1.03907	0.495385	-1.2742	0.629082	-1.50409	0.690828	-1.53243	0.713483	
0.641074	5.76019	5	0	0	0	-1.80624	0.688395	0	0	-1.63587	0.339002	0	0	-1.00736	0.362697	-0.060159	0.188367	-0.414394	0.544314	0.050362	-0.111593	-0.565244	-0.025035	0.064938	0.125863	-0.718181	0.456339	-1.03778	0.520609	-1.27615	0.650507	-1.50266	0.719285	-1.53296	0.75338	
0.643061	5.77698	5	0	0	0	-1.79287	0.708739	0	0	-1.63263	0.350716	0	0	-1.01052	0.382784	-0.0535247	0.204056	-0.409197	0.554712	0.0560055	-0.101905	-0.573406	-0.0256958	0.0725263	0.140225	-0.715665	0.477555	-1.04737	0.538072	-1.28009	0.669616	-1.50834	0.746179	-1.5369	0.777351	
0.647056	5.78613	5	0	0	0	-1.77951	0.729083	0	0	-1.62939	0.362431	0	0	-1.01368	0.402871	-0.0468905	0.219745	-0.404	0.56511	0.061649	-0.0922165	-0.581568	-0.0263565	0.0801145	0.154586	-0.713148	0.498772	-1.05695	0.555534	-1.28403	0.688724	-1.51401	0.773073	-1.54085	0.801322	
0.652128	5.80139	5	0	0	0	-1.76614	0.749428	0	0	-1.62615	0.374146	0	0	-1.01685	0.422957	-0.0402563	0.235434	-0.398804	0.575508	0.0672925	-0.0825282	-0.589729	-0.0270172	0.0877027	0.168948	-0.710632	0.519988	-1.06653	0.572996	-1.28797	0.707833	-1.51969	0.799966	-1.54479	0.825293	
0.657342	5.81207	5	0	0	0	-1.75278	0.769772	0	0	-1.6229	0.38586	0	0	-1.02001	0.443044	-0.033622	0.251123	-0.393607	0.585906	0.072936	-0.07284	-0.597891	-0.027678	0.095291	0.183309	-0.708116	0.541204	-1.07612	0.590459	-1.29192	0.726942	-1.52537	0.82686	-1.54874	0.849264	
0.661766	5.8258	5	0	0	0	-1.74616	0.823975	0	0	-1.62283	0.427481	0	0	-1.0072	0.473881	-0.027476	0.279772	-0.38161	0.602273	0.070203	-0.0522843	-0.595191	-0.0234483	0.095145	0.207631	-0.699595	0.573907	-1.07501	0.606567	-1.28543	0.748501	-1.52705	0.853343	-1.5347	0.873847	
0.664673	5.83343	5	0	0	0	-1.73955	0.878179	0	0	-1.62275	0.469102	0	0	-0.994389	0.504719	-0.02133	0.30842	-0.369613	0.61864	0.06747	-0.0317285	-0.592491	-0.0192185	0.094999	0.231953	-0.691073	0.60661	-1.07389	0.622675	-1.27894	0.770059	-1.52874	0.879826	-1.52067	0.898429	
0.666354	5.83954	5	0	0	0	-1.73293	0.932383	0	0	-1.62268	0.510724	0	0	-0.98158	0.535556	-0.015184	0.337068	-0.357616	0.635006	0.064737	-0.0111727	-0.589792	-0.0149887	0.094853	0.256274	-0.682551	0.639313	-1.07278	0.638784	-1.27245	0.791617	-1.53042	0.906308	-1.50663	0.923012	
0.667405	5.84259	5	0	0	0	-1.72632	0.986586	0	0	-1.6226	0.552345	0	0	-0.96877	0.566393	-0.009038	0.365717	-0.345619	0.651373	0.062004	0.009383	-0.587092	-0.010759	0.094707	0.280596	-0.67403	0.672016	-1.07167	0.654892	-1.26597	0.813176	-1.53211	0.932791	-1.49259	0.947595	
0.66842	5.84717	5	0	0	0	-1.71475	1.04177	0	0	-1.62035	0.598409	0	0	-0.965325	0.612706	-0.0034245	0.407535	-0.336801	0.676859	0.0686042	0.0292787	-0.588537	0.00519225	0.0978077	0.307755	-0.664295	0.715728	-1.0633	0.679454	-1.26237	0.858991	-1.52259	0.97122	-1.48114	0.9926	
0.669996	5.84411	5	0	0	0	-1.70319	1.09695	0	0	-1.6181	0.644472	0	0	-0.961879	0.65902	0.002189	0.449353	-0.327983	0.702344	0.0752045	0.0491745	-0.589982	0.0211435	0.100908	0.334914	-0.654559	0.75944	-1.05493	0.704016	-1.25876	0.904806	-1.51308	1.00965	-1.46968	1.03761	
0.672691	5.83954	5	0	0	0	-1.69163	1.15213	0	0	-1.61585	0.690535	0	0	-0.958433	0.705333	0.0078025	0.49117	-0.319164	0.727829	0.0818047	0.0690702	-0.591428	0.0370948	0.104009	0.362073	-0.644823	0.803151	-1.04656	0.728578	-1.25516	0.950621	-1.50357	1.04808	-1.45822	1.08261	
0.67642	5.83496	5	0	0	0	-1.68007	1.20731	0	0	-1.6136	0.736599	0	0	-0.954988	0.751646	0.013416	0.532988	-0.310346	0.753315	0.088405	0.088966	-0.592873	0.053046	0.10711	0.389232	-0.635088	0.846863	-1.03819	0.75314	-1.25156	0.996436	-1.49405	1.08651	-1.44676	1.12762	
0.680559	5.83954	5	0	0	0	-1.66505	1.23839	0	0	-1.60139	0.765193	0	0	-0.952572	0.78978	0.0100243	0.565696	-0.311561	0.782004	0.081901	0.120215	-0.590247	0.0693825	0.10466	0.420143	-0.630196	0.890214	-1.03059	0.789681	-1.24236	1.04268	-1.48852	1.13643	-1.42913	1.18151	
0.684468	5.83801	5	0	0	0	-1.65003	1.26948	0	0	-1.58918	0.793787	0	0	-0.950156	0.827915	0.0066325	0.598405	-0.312777	0.810694	0.075397	0.151463	-0.587621	0.085719	0.10221	0.451053	-0.625303	0.933565	-1.02299	0.826222	-1.23317	1.08892	-1.48299	1.18634	-1.41151	1.23539	
0.687506	5.84259	5	0	0	0	-1.63501	1.30057	0	0	-1.57697	0.822381	0	0	-0.94774	0.86605	0.00324075	0.631113	-0.313992	0.839383	0.068893	0.182712	-0.584995	0.102055	0.09976	0.481964	-0.62041	0.976916	-1.01539	0.862763	-1.22397	1.13517	-1.47746	1.23626	-1.39389	1.28928	
0.689035	5.83649	5	0	0	0	-1.62	1.33166	0	0	-1.56476	0.850975	0	0	-0.945324	0.904184	-0.000151	0.663821	-0.315207	0.868073	0.062389	0.21396	-0.582369	0.118392	0.09731	0.512874	-0.615518	1.02027	-1.00779	0.899304	-1.21477	1.18141	-1.47193	1.28618	-1.37627	1.34317	
0.688681	5.84869	5	0	0	0	-1.59651	1.36872	0	0	-1.55421	0.895043	0	0	-0.931156	0.931789	-0.00304	0.683558	-0.304804	0.889285	0.0586518	0.224523	-0.581059	0.12658	0.0950562	0.519244	-0.608293	1.04285	-1.01554	0.930919	-1.21551	1.2157	-1.46763	1.31785	-1.37998	1.3927	
0.686984	5.85022	5	0	0	0	-1.57303	1.40579	0	0	-1.54366	0.939111	0	0	-0.916987	0.959395	-0.005929	0.703296	-0.2944	0.910496	0.0549145	0.235085	-0.57975	0.134767	0.0928025	0.525614	-0.601067	1.06542	-1.0233	0.962534	-1.21625	1.24998	-1.46333	1.34952	-1.38369	1.44223	
0.684674	5.85174	5	0	0	0	-1.54954	1.44286	0	0	-1.53311	0.983178	0	0	-0.902819	0.987	-0.008818	0.723033	-0.283996	0.931707	0.0511773	0.245647	-0.57844	0.142955	0.0905487	0.531984	-0.593842	1.088	-1.03106	0.994149	-1.21699	1.28427	-1.45903	1.38118	-1.38741	1.49176	
0.682482	5.84411	5	0	0	0	-1.52606	1.47992	0	0	-1.52255	1.02725	0	0	-0.88865	1.01461	-0.011707	0.742771	-0.273593	0.952919	0.04744	0.25621	-0.57713	0.151143	0.088295	0.538354	-0.586616	1.11058	-1.03882	1.02576	-1.21773	1.31856	-1.45473	1.41285	-1.39112	1.54128	
0.681137	5.85174	5	0	0	0	-1.51969	1.53615	0	0	-1.51693	1.07491	0	0	-0.882528	1.05386	-0.0033225	0.765436	-0.269024	0.978058	0.0496245	0.262912	-0.571733	0.159694	0.0826532	0.554299	-0.584207	1.13249	-1.04049	1.04016	-1.21701	1.34072	-1.45252	1.43956	-1.38456	1.57491	
0.681325	5.84411	5	0	0	0	-1.51332	1.59238	0	0	-1.5113	1.12258	0	0	-0.876405	1.09312	0.005062	0.788102	-0.264456	1.0032	0.051809	0.269615	-0.566337	0.168245	0.0770115	0.570243	-0.581797	1.1544	-1.04215	1.05456	-1.2163	1.36288	-1.45032	1.46626	-1.378	1.60854	
0.683072	5.83954	5	0	0	0	-1.50695	1.64861	0	0	-1.50567	1.17025	0	0	-0.870283	1.13238	0.0134465	0.810767	-0.259887	1.02834	0.0539935	0.276317	-0.56094	0.176795	0.0713697	0.586187	-0.579387	1.17631	-1.04382	1.06896	-1.21558	1.38504	-1.44811	1.49296	-1.37143	1.64217	
0.685907	5.83496	5	0	0	0	-1.50057	1.70484	0	0	-1.50005	1.21792	0	0	-0.864161	1.17164	0.021831	0.833432	-0.255319	1.05347	0.056178	0.28302	-0.555543	0.185346	0.065728	0.602132	-0.576978	1.19823	-1.04548	1.08336	-1.21486	1.4072	-1.4459	1.51966	-1.36487	1.67579	
0.689348	5.83038	5	0	0	0	-1.49064	1.73636	0	0	-1.49991	1.24939	0	0	-0.861369	1.19777	0.026659	0.866264	-0.259217	1.07719	0.0652332	0.29611	-0.551535	0.197854	0.067734	0.62048	-0.572775	1.21511	-1.03902	1.10393	-1.21132	1.42948	-1.4376	1.55121	-1.34627	1.70177	
0.692911	5.81665	5	0	0	0	-1.4807	1.76789	0	0	-1.49977	1.28087	0	0	-0.858577	1.2239	0.031487	0.899096	-0.263114	1.10091	0.0742885	0.309201	-0.547528	0.210362	0.06974	0.638827	-0.568572	1.232	-1.03256	1.1245	-1.20778	1.45177	-1.42929	1.58276	-1.32768	1.72774	
0.696115	5.80292	5	0	0	0	-1.47077	1.79941	0	0	-1.49963	1.31235	0	0	-0.855786	1.25003	0.036315	0.931929	-0.267012	1.12462	0.0833437	0.322292	-0.543521	0.222869	0.071746	0.657175	-0.564369	1.24889	-1.0261	1.14507	-1.20424	1.47405	-1.42099	1.61431	-1.30908	1.75371	
0.698571	5.79529	5	0	0	0	-1.46084	1.83094	0	0	-1.4995	1.34382	0	0	-0.852994	1.27616	0.041143	0.964761	-0.270909	1.14834	0.092399	0.335382	-0.539513	0.235377	0.073752	0.675523	-0.560166	1.26578	-1.01964	1.16564	-1.2007	1.49633	-1.41268	1.64586	-1.29048	1.77969	
0.700229	5.78766	5	0	0	0	-1.46259	1.8359	0	0	-1.50214	1.35131	0	0	-0.858216	1.27957	0.0357902	0.968259	-0.285183	1.1506	0.0814505	0.353421	-0.547789	0.246844	0.0636895	0.691948	-0.57041	1.28034	-1.01943	1.19422	-1.20396	1.51365	-1.40847	1.67809	-1.29295	1.82605	
0.701111	5.7724	5	0	0	0	-1.46435	1.84086	0	0	-1.50479	1.35879	0	0	-0.863438	1.28298	0.0304375	0.971756	-0.299456	1.15286	0.070502	0.37146	-0.556064	0.258311	0.053627	0.708374	-0.580654	1.2949	-1.01922	1.22279	-1.20723	1.53097	-1.40426	1.71032	-1.29541	1.87241	
0.701242	5.75867	5	0	0	0	-1.4661	1.84582	0	0	-1.50744	1.36628	0	0	-0.868661	1.2864	0.0250847	0.975253	-0.313729	1.15513	0.0595535	0.3895	-0.564339	0.269778	0.0435645	0.7248	-0.590898	1.30946	-1.01901	1.25137	-1.2105	1.54828	-1.40004	1.74256	-1.29788	1.91877	
0.700644	5.74493	5	0	0	0	-1.46785	1.85078	0	0	-1.51009	1.37377	0	0	-0.873883	1.28981	0.019732	0.978751	-0.328003	1.15739	0.048605	0.407539	-0.572615	0.281245	0.033502	0.741225	-0.601142	1.32403	-1.0188	1.27995	-1.21377	1.5656	-1.39583	1.77479	-1.30035	1.96513	
0.699345	5.74188	5	0	0	0	-1.46785	1.85078	0	0	-1.52343	1.37961	0	0	-0.874808	1.28108	0.019732	0.978751	-0.334796	1.15125	0.048605	0.407539	-0.575309	0.276946	0.0302445	0.738427	-0.60894	1.31732	-1.0224	1.28038	-1.22055	1.56054	-1.40293	1.78382	-1.30787	1.97325	
0.697487	5.72662	5	0	0	0	-1.46785	1.85078	0	0	-1.53677	1.38545	0	0	-0.875733	1.27236	0.019732	0.978751	-0.341589	1.1451	0.048605	0.407539	-0.578002	0.272646	0.026987	0.735629	-0.616738	1.31062	-1.02599	1.28081	-1.22734	1.55548	-1.41003	1.79284	-1.31539	1.98138	
0.695347	5.71442	5	0	0	0	-1.46785	1.85078	0	0	-1.55012	1.39129	0	0	-0.876657	1.26363	0.019732	0.978751	-0.348382	1.13896	0.048605	0.407539	-0.580696	0.268346	0.0237295	0.73283	-0.624536	1.30391	-1.02959	1.28124	-1.23412	1.55043	-1.41714	1.80187	-1.32292	1.9895	
0.693208	5.70526	5	0	0	0	-1.46785	1.85078	0	0	-1.56346	1.39712	0	0	-0.877582	1.2549	0.019732	0.978751	-0.355175	1.13282	0.048605	0.407539	-0.58339	0.264047	0.020472	0.730032	-0.632334	1.29721	-1.03319	1.28167	-1.24091	1.54537	-1.42424	1.81089	-1.33044	1.99762	
0.691354	5.70221	5	0	0	0	-1.48509	1.86968	0	0	-1.56834	1.40032	0	0	-0.881368	1.25427	0.0203365	0.988673	-0.365201	1.13585	0.048605	0.407539	-0.584784	0.267987	0.0193383	0.733236	-0.635325	1.2913	-1.03142	1.27669	-1.24398	1.53789	-1.42424	1.81089	-1.32144	1.98533	
0.69007	5.69153	5	0	0	0	-1.50233	1.88857	0	0	-1.57322	1.40351	0	0	-0.885153	1.25364	0.020941	0.998595	-0.375227	1.13887	0.048605	0.407539	-0.586178	0.271927	0.0182045	0.73644	-0.638316	1.2854	-1.02965	1.2717	-1.24704	1.53042	-1.42424	1.81089	-1.31244	1.97303	
0.689543	5.6839	5	0	0	0	-1.51958	1.90747	0	0	-1.57811	1.4067	0	0	-0.888939	1.253	0.0215455	1.00852	-0.385252	1.1419	0.048605	0.407539	-0.587573	0.275868	0.0170707	0.739643	-0.641308	1.2795	-1.02789	1.26671	-1.25011	1.52294	-1.42424	1.81089	-1.30344	1.96074	
0.68947	5.67779	5	0	0	0	-1.53682	1.92637	0	0	-1.58299	1.40989	0	0	-0.892725	1.25237	0.02215	1.01844	-0.395278	1.14493	0.048605	0.407539	-0.588967	0.279808	0.015937	0.742847	-0.644299	1.2736	-1.02612	1.26172	-1.25317	1.51546	-1.42424	1.81089	-1.29444	1.94845	
0.689396	5.66864	5	0	0	0	-1.55368	1.91451	0	0	-1.59902	1.39164	0	0	-0.907843	1.24983	0.0167972	1.02194	-0.406241	1.13801	0.0520358	0.410746	-0.597134	0.279087	0.015937	0.742847	-0.645485	1.26261	-1.02429	1.26628	-1.25885	1.51539	-1.42525	1.81375	-1.30197	1.95657	
0.688861	5.66864	5	0	0	0	-1.57054	1.90266	0	0	-1.61504	1.3734	0	0	-0.922961	1.24729	0.0114445	1.02543	-0.417203	1.1311	0.0554665	0.413953	-0.605301	0.278367	0.015937	0.742847	-0.646671	1.25162	-1.02246	1.27084	-1.26453	1.51531	-1.42626	1.8166	-1.30949	1.96469	
0.687408	5.65491	5	0	0	0	-1.5874	1.8908	0	0	-1.63107	1.35516	0	0	-0.938079	1.24476	0.00609175	1.02893	-0.428166	1.12419	0.0588972	0.417161	-0.613469	0.277647	0.015937	0.742847	-0.647858	1.24063	-1.02063	1.27539	-1.27021	1.51523	-1.42727	1.81946	-1.31701	1.97281	
0.684603	5.64575	5	0	0	0	-1.60426	1.87895	0	0	-1.64709	1.33691	0	0	-0.953197	1.24222	0.000739	1.03243	-0.439128	1.11727	0.062328	0.420368	-0.621636	0.276926	0.015937	0.742847	-0.649044	1.22964	-1.0188	1.27995	-1.27589	1.51515	-1.42828	1.82231	-1.32454	1.98093	
0.680747	5.64117	5	0	0	0	-1.61409	1.84742	0	0	-1.65691	1.31188	0	0	-0.958318	1.21154	-0.003442	1.0094	-0.455201	1.09971	0.0520422	0.410755	-0.633767	0.263694	0.0051895	0.725279	-0.667581	1.21047	-1.02063	1.27539	-1.28288	1.5027	-1.44253	1.81847	-1.33675	1.9761	
0.677024	5.63354	5	0	0	0	-1.62392	1.81589	0	0	-1.66672	1.28684	0	0	-0.963438	1.18086	-0.007623	0.986366	-0.471274	1.08215	0.0417565	0.401142	-0.645897	0.250463	-0.005558	0.707711	-0.686117	1.1913	-1.02246	1.27084	-1.28987	1.49025	-1.45677	1.81462	-1.34897	1.97127	
0.674668	5.62134	5	0	0	0	-1.63376	1.78436	0	0	-1.67654	1.26181	0	0	-0.968559	1.15018	-0.011804	0.963336	-0.487346	1.06458	0.0314708	0.391529	-0.658027	0.237231	-0.0163055	0.690142	-0.704654	1.17213	-1.02429	1.26628	-1.29686	1.4778	-1.47102	1.81078	-1.36119	1.96644	
0.674915	5.61523	5	0	0	0	-1.64359	1.75283	0	0	-1.68636	1.23678	0	0	-0.97368	1.11949	-0.015985	0.940305	-0.503419	1.04702	0.021185	0.381916	-0.670158	0.223999	-0.027053	0.672574	-0.723191	1.15297	-1.02612	1.26172	-1.30385	1.46534	-1.48527	1.80694	-1.37341	1.96161	
0.679	5.6076	5	0	0	0	-1.6621	1.74603	0	0	-1.70402	1.23407	0	0	-0.972711	1.09422	-0.0201803	0.91738	-0.511113	1.03107	0.0193322	0.361408	-0.676815	0.207256	-0.0311618	0.64831	-0.730347	1.13039	-1.03344	1.24354	-1.3091	1.44803	-1.49144	1.78038	-1.38736	1.9356	
0.687196	5.6015	5	0	0	0	-1.68062	1.73923	0	0	-1.72169	1.23137	0	0	-0.971741	1.06894	-0.0243755	0.894454	-0.518806	1.01512	0.0174795	0.3409	-0.683472	0.190513	-0.0352705	0.624046	-0.737504	1.10781	-1.04076	1.22536	-1.31435	1.43072	-1.49762	1.75382	-1.4013	1.9096	
0.695935	5.59082	5	0	0	0	-1.69914	1.73243	0	0	-1.73936	1.22866	0	0	-0.970772	1.04367	-0.0285708	0.871529	-0.5265	0.999174	0.0156268	0.320391	-0.690129	0.173769	-0.0393792	0.599782	-0.74466	1.08524	-1.04808	1.20718	-1.31961	1.4134	-1.50379	1.72726	-1.41525	1.88359	
0.700688	5.57861	5	0	0	0	-1.71765	1.72563	0	0	-1.75702	1.22596	0	0	-0.969802	1.01839	-0.032766	0.848604	-0.534194	0.983226	0.013774	0.299883	-0.696786	0.157026	-0.043488	0.575518	-0.751816	1.06266	-1.0554	1.189	-1.32486	1.39609	-1.50997	1.7007	-1.4292	1.85759	
0.696925	5.57098	5	0	0	0	-1.72933	1.71442	0	0	-1.76498	1.21694	0	0	-0.975919	1.01317	-0.0393258	0.832426	-0.545087	0.976396	0.006928	0.293523	-0.703527	0.152411	-0.0466107	0.560464	-0.766109	1.06035	-1.05196	1.16958	-1.32705	1.38623	-1.51815	1.67994	-1.42805	1.82823	
0.680117	5.56793	5	0	0	0	-1.74101	1.7032	0	0	-1.77293	1.20792	0	0	-0.982036	1.00795	-0.0458855	0.816248	-0.555979	0.969566	8.2E-05	0.287162	-0.710268	0.147795	-0.0497335	0.545411	-0.780403	1.05805	-1.04853	1.15017	-1.32924	1.37638	-1.52634	1.65918	-1.4269	1.79888	
0.646487	5.55725	5	0	0	0	-1.75269	1.69199	0	0	-1.78089	1.1989	0	0	-0.988153	1.00273	-0.0524452	0.80007	-0.566872	0.962735	-0.006764	0.280802	-0.717009	0.143179	-0.0528563	0.530357	-0.794697	1.05574	-1.04509	1.13075	-1.33144	1.36652	-1.53453	1.63841	-1.42575	1.76953	
0.601897	5.54504	5	0	0	0	-1.76437	1.68077	0	0	-1.78885	1.18989	0	0	-0.99427	0.997509	-0.059005	0.783892	-0.577765	0.955905	-0.01361	0.274442	-0.72375	0.138564	-0.055979	0.515303	-0.80899	1.05343	-1.04165	1.11133	-1.33363	1.35667	-1.54271	1.61765	-1.4246	1.74018	
0.558892	5.54352	5	0	0	0	-1.77244	1.64476	0	0	-1.79419	1.17352	0	0	-1.00789	0.991075	-0.0673583	0.761311	-0.588636	0.949089	-0.0192042	0.26458	-0.739967	0.137152	-0.0634705	0.500714	-0.823248	1.05112	-1.04444	1.09983	-1.33473	1.35174	-1.55289	1.60261	-1.43239	1.72311	
0.530145	5.53589	5	0	0	0	-1.7805	1.60875	0	0	-1.79953	1.15715	0	0	-1.02152	0.984641	-0.0757115	0.73873	-0.599506	0.942273	-0.0247985	0.254717	-0.756184	0.13574	-0.070962	0.486124	-0.837506	1.04881	-1.04723	1.08833	-1.33583	1.34682	-1.56307	1.58758	-1.44018	1.70603	
0.528004	5.52521	5	0	0	0	-1.78856	1.57274	0	0	-1.80486	1.14078	0	0	-1.03514	0.978207	-0.0840647	0.716149	-0.610377	0.935456	-0.0303927	0.244855	-0.7724	0.134329	-0.0784535	0.471535	-0.851763	1.0465	-1.05003	1.07683	-1.33693	1.3419	-1.57325	1.57254	-1.44797	1.68896	
0.554568	5.51453	5	0	0	0	-1.79663	1.53673	0	0	-1.8102	1.12441	0	0	-1.04876	0.971773	-0.092418	0.693568	-0.621248	0.92864	-0.035987	0.234992	-0.788617	0.132917	-0.085945	0.456946	-0.866021	1.04419	-1.05282	1.06532	-1.33802	1.33698	-1.58342	1.5575	-1.45576	1.67189	
0.599953	5.513	5	0	0	0	-1.81317	1.51022	0	0	-1.81203	1.10863	0	0	-1.05204	0.958615	-0.101404	0.661388	-0.626354	0.918085	-0.0400357	0.207991	-0.800657	0.11982	-0.0910952	0.423926	-0.871359	1.01677	-1.06548	1.05271	-1.34697	1.3222	-1.59668	1.52946	-1.47711	1.6543	
0.653596	5.50384	5	0	0	0	-1.8297	1.48371	0	0	-1.81385	1.09285	0	0	-1.05532	0.945456	-0.11039	0.629207	-0.631459	0.907529	-0.0440845	0.18099	-0.812697	0.106722	-0.0962455	0.390907	-0.876698	0.989346	-1.07813	1.04009	-1.35591	1.30741	-1.60993	1.50141	-1.49847	1.63672	
0.704932	5.49774	5	0	0	0	-1.84624	1.4572	0	0	-1.81568	1.07707	0	0	-1.0586	0.932298	-0.119375	0.597027	-0.636564	0.896974	-0.0481333	0.15399	-0.824737	0.0936253	-0.101396	0.357888	-0.882036	0.961924	-1.09079	1.02747	-1.36485	1.29262	-1.62319	1.47336	-1.51982	1.61913	
0.743395	5.48553	5	0	0	0	-1.86277	1.43069	0	0	-1.8175	1.06129	0	0	-1.06188	0.919139	-0.128361	0.564847	-0.64167	0.886419	-0.052182	0.126989	-0.836777	0.080528	-0.106546	0.324868	-0.887374	0.934503	-1.10345	1.01485	-1.3738	1.27783	-1.63644	1.44531	-1.54117	1.60155	
0.758617	5.48401	5	0	0	0	-1.87427	1.40479	0	0	-1.82193	1.05289	0	0	-1.06516	0.906017	-0.126804	0.525988	-0.64518	0.871388	-0.0608983	0.100488	-0.842016	0.0600705	-0.110621	0.288932	-0.897462	0.906487	-1.10729	0.987093	-1.38015	1.25581	-1.64771	1.41187	-1.55524	1.5637	
0.74815	5.47638	5	0	0	0	-1.88577	1.37889	0	0	-1.82636	1.04449	0	0	-1.06845	0.892894	-0.125248	0.487128	-0.648689	0.856356	-0.0696145	0.073988	-0.847255	0.039613	-0.114697	0.252996	-0.90755	0.878471	-1.11114	0.959334	-1.38651	1.2338	-1.65897	1.37843	-1.56931	1.52586	
0.720062	5.47333	5	0	0	0	-1.89726	1.35299	0	0	-1.83079	1.0361	0	0	-1.07173	0.879772	-0.123691	0.448269	-0.652199	0.841325	-0.0783308	0.0474875	-0.852495	0.0191555	-0.118773	0.21706	-0.917639	0.850456	-1.11498	0.931574	-1.39286	1.21178	-1.67024	1.345	-1.58338	1.48802	
0.683143	5.4657	5	0	0	0	-1.90876	1.3271	0	0	-1.83522	1.0277	0	0	-1.07501	0.866649	-0.122135	0.40941	-0.655709	0.826294	-0.087047	0.020987	-0.857734	-0.001302	-0.122848	0.181124	-0.927727	0.82244	-1.11882	0.903815	-1.39922	1.18976	-1.68151	1.31156	-1.59745	1.45017	
0.646185	5.46112	5	0	0	0	-1.92176	1.27659	0	0	-1.8389	0.996335	0	0	-1.07974	0.824141	-0.127247	0.355128	-0.672596	0.799367	-0.0942767	-0.0223015	-0.872324	-0.0303993	-0.13124	0.133885	-0.943197	0.767651	-1.13445	0.861371	-1.40854	1.13641	-1.691	1.25172	-1.61948	1.38379	
0.617882	5.46112	5	0	0	0	-1.93475	1.22609	0	0	-1.84258	0.964974	0	0	-1.08448	0.781634	-0.132359	0.300846	-0.689483	0.77244	-0.101506	-0.06559	-0.886914	-0.0594965	-0.139631	0.086647	-0.958668	0.712862	-1.15008	0.818928	-1.41786	1.08306	-1.7005	1.19188	-1.6415	1.31741	
0.602498	5.45807	5	0	0	0	-1.94775	1.17558	0	0	-1.84626	0.933612	0	0	-1.08921	0.739127	-0.137471	0.246564	-0.70637	0.745513	-0.108736	-0.108878	-0.901503	-0.0885937	-0.148023	0.0394085	-0.974139	0.658072	-1.16571	0.776484	-1.42718	1.0297	-1.70999	1.13203	-1.66353	1.25102	
0.598166	5.44891	5	0	0	0	-1.96075	1.12508	0	0	-1.84994	0.90225	0	0	-1.09394	0.696619	-0.142583	0.192282	-0.723257	0.718586	-0.115966	-0.152167	-0.916093	-0.117691	-0.156415	-0.00783	-0.989609	0.603283	-1.18133	0.73404	-1.43651	0.976351	-1.71949	1.07219	-1.68555	1.18464	
0.602568	5.44891	5	0	0	0	-1.9903	1.06408	0	0	-1.86951	0.85356	0	0	-1.11228	0.648267	-0.160557	0.151834	-0.748696	0.666721	-0.131514	-0.184406	-0.931957	-0.154574	-0.167049	-0.0484615	-1.01623	0.552625	-1.18975	0.700312	-1.45488	0.933092	-1.74082	1.03542	-1.70573	1.13939	
0.613389	5.45044	5	0	0	0	-2.01984	1.00309	0	0	-1.88908	0.804871	0	0	-1.13061	0.599915	-0.178532	0.111386	-0.774134	0.614856	-0.147061	-0.216644	-0.947821	-0.191456	-0.177683	-0.089093	-1.04285	0.501967	-1.19817	0.666585	-1.47326	0.889834	-1.76214	0.998657	-1.72591	1.09414	
0.628275	5.46112	5	0	0	0	-2.04939	0.942091	0	0	-1.90865	0.756182	0	0	-1.14894	0.551562	-0.196507	0.0709387	-0.799573	0.562991	-0.162608	-0.248883	-0.963685	-0.228338	-0.188318	-0.129724	-1.06948	0.451309	-1.20658	0.632857	-1.49163	0.846575	-1.78347	0.96189	-1.74608	1.04889	
0.643398	5.45959	5	0	0	0	-2.07893	0.881094	0	0	-1.92822	0.707492	0	0	-1.16728	0.50321	-0.214481	0.030491	-0.825012	0.511126	-0.178156	-0.281122	-0.979549	-0.265221	-0.198952	-0.170356	-1.0961	0.400651	-1.215	0.599129	-1.51001	0.803317	-1.80479	0.925124	-1.76626	1.00364	
0.65302	5.46112	5	0	0	0	-2.08867	0.822445	0	0	-1.94081	0.660308	0	0	-1.1819	0.455932	-0.224266	-0.00999775	-0.853493	0.468676	-0.189079	-0.313496	-0.996792	-0.28625	-0.212867	-0.201449	-1.11969	0.356138	-1.22502	0.579647	-1.52699	0.772338	-1.81705	0.89535	-1.78756	0.974824	
0.651273	5.46722	5	0	0	0	-2.09841	0.763796	0	0	-1.95341	0.613124	0	0	-1.19651	0.408655	-0.234051	-0.0504865	-0.881974	0.426227	-0.200002	-0.34587	-1.01403	-0.307279	-0.226781	-0.232543	-1.14329	0.311625	-1.23504	0.560166	-1.54396	0.74136	-1.82931	0.865577	-1.80886	0.946005	
0.632292	5.47027	5	0	0	0	-2.10814	0.705146	0	0	-1.966	0.56594	0	0	-1.21113	0.361377	-0.243836	-0.0909752	-0.910456	0.383777	-0.210926	-0.378245	-1.03128	-0.328309	-0.240696	-0.263636	-1.16689	0.267112	-1.24506	0.540684	-1.56094	0.710381	-1.84156	0.835804	-1.83017	0.917185	
0.590716	5.4657	5	0	0	0	-2.11788	0.646497	0	0	-1.9786	0.518756	0	0	-1.22575	0.314099	-0.253621	-0.131464	-0.938937	0.341328	-0.221849	-0.410619	-1.04852	-0.349338	-0.254611	-0.294729	-1.19048	0.222599	-1.25507	0.521202	-1.57791	0.679403	-1.85382	0.80603	-1.85147	0.888366	
0.533532	5.46875	5	0	0	0	-2.12771	0.602779	0	0	-1.98112	0.484621	0	0	-1.232	0.276608	-0.259787	-0.159329	-0.954112	0.310837	-0.231795	-0.432951	-1.06173	-0.369934	-0.257779	-0.320884	-1.20473	0.179893	-1.26423	0.499407	-1.58763	0.643937	-1.86607	0.776459	-1.87712	0.859626	
0.480465	5.47638	5	0	0	0	-2.13754	0.55906	0	0	-1.98364	0.450485	0	0	-1.23825	0.239117	-0.265952	-0.187194	-0.969286	0.280345	-0.241741	-0.455284	-1.07494	-0.39053	-0.260948	-0.347039	-1.21897	0.137188	-1.27339	0.477612	-1.59735	0.60847	-1.87832	0.746888	-1.90277	0.830886	
0.45183	5.47485	5	0	0	0	-2.14737	0.515342	0	0	-1.98615	0.41635	0	0	-1.2445	0.201626	-0.272118	-0.21506	-0.984461	0.249854	-0.251688	-0.477616	-1.08815	-0.411126	-0.264116	-0.373193	-1.23322	0.0944825	-1.28254	0.455817	-1.60706	0.573004	-1.89057	0.717317	-1.92842	0.802147	
0.463976	5.47027	5	0	0	0	-2.1572	0.471624	0	0	-1.98867	0.382215	0	0	-1.25075	0.164135	-0.278284	-0.242925	-0.999636	0.219362	-0.261634	-0.499948	-1.10136	-0.431722	-0.267285	-0.399348	-1.24746	0.051777	-1.2917	0.434022	-1.61678	0.537538	-1.90282	0.687746	-1.95407	0.773407	
0.510469	5.46722	5	0	0	0	-2.16705	0.44247	0	0	-1.98998	0.344742	0	0	-1.25605	0.135108	-0.278564	-0.264736	-1.00413	0.195495	-0.263603	-0.519554	-1.10928	-0.444028	-0.268333	-0.419756	-1.2668	0.023816	-1.29295	0.409015	-1.6254	0.507016	-1.91111	0.657866	-1.96666	0.733432	
0.576749	5.46112	5	0	0	0	-2.17691	0.413316	0	0	-1.99128	0.307268	0	0	-1.26135	0.106081	-0.278845	-0.286546	-1.00863	0.171629	-0.265571	-0.539161	-1.11719	-0.456334	-0.269381	-0.440165	-1.28613	-0.004145	-1.2942	0.384008	-1.63402	0.476494	-1.91941	0.627987	-1.97925	0.693458	
0.648242	5.46417	5	0	0	0	-2.18676	0.384163	0	0	-1.99259	0.269795	0	0	-1.26665	0.077054	-0.279125	-0.308356	-1.01313	0.147762	-0.26754	-0.558767	-1.12511	-0.46864	-0.270428	-0.460574	-1.30546	-0.032106	-1.29546	0.359	-1.64264	0.445972	-1.9277	0.598108	-1.99184	0.653483	
0.710378	5.45654	5	0	0	0	-2.19661	0.355009	0	0	-1.99389	0.232322	0	0	-1.27195	0.048027	-0.279406	-0.330167	-1.01763	0.123895	-0.269509	-0.578373	-1.13302	-0.480946	-0.271476	-0.480982	-1.32479	-0.060067	-1.29671	0.333993	-1.65126	0.41545	-1.936	0.568228	-2.00443	0.613509	
0.748583	5.45196	5	0	0	0	-2.20972	0.335234	0	0	-1.99775	0.202164	0	0	-1.27493	0.0235027	-0.283066	-0.342399	-1.02521	0.108813	-0.268103	-0.59492	-1.13829	-0.489129	-0.274688	-0.495244	-1.33484	-0.086538	-1.30052	0.316259	-1.65436	0.385096	-1.93832	0.542874	-2.01539	0.581755	
0.751317	5.45349	5	0	0	0	-2.22284	0.31546	0	0	-2.00161	0.172006	0	0	-1.2779	-0.0010215	-0.286727	-0.35463	-1.03279	0.09373	-0.266696	-0.611466	-1.14357	-0.497312	-0.2779	-0.509506	-1.34488	-0.113009	-1.30433	0.298526	-1.65745	0.354741	-1.94064	0.51752	-2.02636	0.550001	
0.724898	5.45044	5	0	0	0	-2.23595	0.295685	0	0	-2.00548	0.141847	0	0	-1.28088	-0.0255458	-0.290387	-0.366862	-1.04037	0.0786475	-0.265289	-0.628012	-1.14884	-0.505494	-0.281113	-0.523768	-1.35493	-0.13948	-1.30814	0.280793	-1.66055	0.324387	-1.94297	0.492167	-2.03732	0.518246	
0.682168	5.44586	5	0	0	0	-2.24906	0.27591	0	0	-2.00934	0.111689	0	0	-1.28385	-0.05007	-0.294048	-0.379094	-1.04796	0.063565	-0.263883	-0.644559	-1.15411	-0.513677	-0.284325	-0.53803	-1.36498	-0.165951	-1.31195	0.263059	-1.66365	0.294033	-1.94529	0.466813	-2.04828	0.486492	
0.635977	5.44281	5	0	0	0	-2.26703	0.255908	0	0	-2.02015	0.0808253	0	0	-1.29693	-0.067897	-0.295879	-0.385198	-1.05958	0.0478612	-0.270658	-0.650531	-1.15407	-0.525308	-0.286469	-0.543629	-1.37377	-0.182141	-1.31209	0.253982	-1.66535	0.275438	-1.95142	0.452277	-2.05322	0.462904	
0.599175	5.43823	5	0	0	0	-2.285	0.235906	0	0	-2.03097	0.0499615	0	0	-1.31	-0.085724	-0.297709	-0.391302	-1.07121	0.0321575	-0.277433	-0.656503	-1.15404	-0.536938	-0.288614	-0.549227	-1.38256	-0.19833	-1.31224	0.244904	-1.66706	0.256844	-1.95756	0.437742	-2.05815	0.439316	
0.580822	5.44281	5	0	0	0	-2.30297	0.215904	0	0	-2.04179	0.0190977	0	0	-1.32307	-0.103551	-0.29954	-0.397406	-1.08284	0.0164538	-0.284208	-0.662475	-1.154	-0.548569	-0.290759	-0.554826	-1.39135	-0.21452	-1.31239	0.235827	-1.66877	0.238249	-1.96369	0.423206	-2.06309	0.415728	
0.57746	5.43518	5	0	0	0	-2.32095	0.195902	0	0	-2.05261	-0.011766	0	0	-1.33614	-0.121378	-0.301371	-0.40351	-1.09447	0.00075	-0.290983	-0.668447	-1.15396	-0.5602	-0.292903	-0.560425	-1.40015	-0.23071	-1.31253	0.22675	-1.67048	0.219654	-1.96982	0.408671	-2.06803	0.39214	
0.583048	5.42755	5	0	0	0	-2.32916	0.162665	0	0	-2.06121	-0.0384915	0	0	-1.34316	-0.134311	-0.307269	-0.409378	-1.10203	-0.0142187	-0.295562	-0.668052	-1.16323	-0.557042	-0.297193	-0.559954	-1.40768	-0.236729	-1.31268	0.217688	-1.67713	0.21506	-1.97689	0.396854	-2.07132	0.376477	
0.591542	5.43365	5	0	0	0	-2.33737	0.129429	0	0	-2.06982	-0.065217	0	0	-1.35018	-0.147245	-0.313167	-0.415245	-1.1096	-0.0291875	-0.300142	-0.667657	-1.1725	-0.553885	-0.301482	-0.559482	-1.41522	-0.242748	-1.31283	0.208625	-1.68378	0.210465	-1.98397	0.385037	-2.07462	0.360814	
0.596939	5.43671	5	0	0	0	-2.34558	0.0961925	0	0	-2.07842	-0.0919425	0	0	-1.35721	-0.160178	-0.319064	-0.421113	-1.11716	-0.0441562	-0.304721	-0.667262	-1.18177	-0.550728	-0.305771	-0.559011	-1.42275	-0.248766	-1.31298	0.199563	-1.69044	0.205871	-1.99104	0.373219	-2.07792	0.345152	
0.596168	5.43823	5	0	0	0	-2.35379	0.062956	0	0	-2.08703	-0.118668	0	0	-1.36423	-0.173111	-0.324962	-0.426981	-1.12472	-0.059125	-0.3093	-0.666867	-1.19104	-0.54757	-0.310061	-0.55854	-1.43028	-0.254785	-1.31313	0.1905	-1.69709	0.201277	-1.99812	0.361402	-2.08122	0.329489	
0.591186	5.44891	5	0	0	0	-2.34902	0.0353858	0	0	-2.08183	-0.143544	0	0	-1.36757	-0.185497	-0.334912	-0.432611	-1.12015	-0.072046	-0.312682	-0.669849	-1.19234	-0.555411	-0.307916	-0.564603	-1.44116	-0.251323	-1.32017	0.191439	-1.70097	0.196669	-2.00801	0.357614	-2.08725	0.321575	
0.584443	5.46265	5	0	0	0	-2.34424	0.0078155	0	0	-2.07664	-0.168419	0	0	-1.37091	-0.197882	-0.344863	-0.438242	-1.11558	-0.084967	-0.316063	-0.672831	-1.19363	-0.563252	-0.305771	-0.570666	-1.45203	-0.247861	-1.32721	0.192379	-1.70485	0.192061	-2.01791	0.353825	-2.09327	0.313661	
0.578391	5.4779	5	0	0	0	-2.33947	-0.0197548	0	0	-2.07144	-0.193295	0	0	-1.37425	-0.210268	-0.354814	-0.443873	-1.11101	-0.097888	-0.319445	-0.675813	-1.19493	-0.571094	-0.303625	-0.576729	-1.46291	-0.244399	-1.33425	0.193319	-1.70873	0.187454	-2.02781	0.350036	-2.0993	0.305748	
0.575295	5.48401	5	0	0	0	-2.3347	-0.047325	0	0	-2.06624	-0.218171	0	0	-1.37759	-0.222654	-0.364764	-0.449503	-1.10643	-0.110809	-0.322826	-0.678795	-1.19623	-0.578935	-0.30148	-0.582792	-1.47378	-0.240937	-1.34129	0.194258	-1.71262	0.182846	-2.0377	0.346248	-2.10533	0.297834	
0.575375	5.49621	5	0	0	0	-2.33797	-0.0521592	0	0	-2.0697	-0.218594	0	0	-1.37625	-0.226439	-0.360304	-0.462108	-1.11048	-0.111474	-0.325012	-0.685146	-1.20149	-0.587067	-0.302553	-0.591403	-1.47502	-0.251043	-1.34328	0.180932	-1.71762	0.173627	-2.04679	0.32968	-2.11601	0.278219	
0.577574	5.50842	5	0	0	0	-2.34124	-0.0569935	0	0	-2.07315	-0.219017	0	0	-1.37491	-0.230224	-0.355843	-0.474713	-1.11453	-0.112138	-0.327198	-0.691498	-1.20675	-0.595199	-0.303627	-0.600015	-1.47627	-0.261148	-1.34526	0.167605	-1.72261	0.164409	-2.05588	0.313113	-2.12669	0.258603	
0.580815	5.51605	5	0	0	0	-2.34451	-0.0618278	0	0	-2.07661	-0.21944	0	0	-1.37357	-0.234009	-0.351383	-0.487318	-1.11857	-0.112802	-0.329384	-0.69785	-1.21201	-0.603331	-0.3047	-0.608626	-1.47751	-0.271254	-1.34725	0.154279	-1.72761	0.15519	-2.06498	0.296546	-2.13737	0.238988	
0.584023	5.51758	5	0	0	0	-2.34778	-0.066662	0	0	-2.08006	-0.219863	0	0	-1.37223	-0.237794	-0.346923	-0.499923	-1.12262	-0.113467	-0.33157	-0.704201	-1.21727	-0.611463	-0.305773	-0.617237	-1.47876	-0.281359	-1.34924	0.140953	-1.73261	0.145971	-2.07407	0.279978	-2.14805	0.219373	
0.586352	5.52063	5	0	0	0	-2.35911	-0.062737	0	0	-2.07414	-0.226411	0	0	-1.37223	-0.237794	-0.349867	-0.502839	-1.12362	-0.122727	-0.326802	-0.717676	-1.22119	-0.62333	-0.310064	-0.628379	-1.47207	-0.30026	-1.35223	0.121029	-1.73627	0.125238	-2.07643	0.255015	-2.15332	0.184579	
0.58786	5.52368	5	0	0	0	-2.37045	-0.058812	0	0	-2.06822	-0.23296	0	0	-1.37223	-0.237794	-0.352812	-0.505756	-1.12462	-0.131987	-0.322034	-0.731151	-1.22512	-0.635196	-0.314354	-0.639521	-1.46538	-0.319161	-1.35521	0.101105	-1.73993	0.104504	-2.07878	0.230052	-2.15858	0.149785	
0.588823	5.52826	5	0	0	0	-2.38179	-0.054887	0	0	-2.0623	-0.239509	0	0	-1.37223	-0.237794	-0.355756	-0.508672	-1.12562	-0.141247	-0.317266	-0.744626	-1.22905	-0.647063	-0.318644	-0.650663	-1.45869	-0.338061	-1.3582	0.081181	-1.7436	0.0837705	-2.08114	0.205088	-2.16384	0.11499	
0.589517	5.52215	5	0	0	0	-2.39312	-0.050962	0	0	-2.05638	-0.246057	0	0	-1.37223	-0.237794	-0.3587	-0.511589	-1.12662	-0.150507	-0.312498	-0.758101	-1.23297	-0.65893	-0.322935	-0.661805	-1.452	-0.356962	-1.36119	0.061257	-1.74726	0.063037	-2.0835	0.180125	-2.16911	0.080196	
0.590217	5.52521	5	0	0	0	-2.38665	-0.0551878	0	0	-2.06107	-0.242994	0	0	-1.37591	-0.238299	-0.357587	-0.514735	-1.13571	-0.161065	-0.31807	-0.767388	-1.23558	-0.674508	-0.325093	-0.678945	-1.46244	-0.368262	-1.36586	0.0461315	-1.74624	0.0446343	-2.08384	0.160028	-2.17409	0.0571048	
0.591012	5.52673	5	0	0	0	-2.38019	-0.0594135	0	0	-2.06575	-0.23993	0	0	-1.37959	-0.238804	-0.356473	-0.517881	-1.14479	-0.171623	-0.323642	-0.776674	-1.23818	-0.690086	-0.327251	-0.696084	-1.47288	-0.379561	-1.37053	0.031006	-1.74522	0.0262315	-2.08418	0.139931	-2.17907	0.0340135	
0.591667	5.52673	5	0	0	0	-2.37372	-0.0636392	0	0	-2.07044	-0.236867	0	0	-1.38326	-0.239308	-0.35536	-0.521027	-1.15387	-0.182181	-0.329215	-0.785961	-1.24079	-0.705664	-0.329409	-0.713224	-1.48332	-0.39086	-1.37521	0.0158805	-1.7442	0.00782875	-2.08452	0.119835	-2.18405	0.0109223	
0.591911	5.52063	5	0	0	0	-2.36725	-0.067865	0	0	-2.07513	-0.233803	0	0	-1.38694	-0.239813	-0.354247	-0.524173	-1.16295	-0.192739	-0.334787	-0.795247	-1.24339	-0.721242	-0.331567	-0.730364	-1.49376	-0.40216	-1.37988	0.000755	-1.74318	-0.010574	-2.08486	0.099738	-2.18903	-0.012169	
0.591476	5.51758	5	0	0	0	-2.37693	-0.0545772	0	0	-2.07291	-0.229895	0	0	-1.3933	-0.232753	-0.361643	-0.514502	-1.17302	-0.212463	-0.343917	-0.794446	-1.24732	-0.733039	-0.34439	-0.728929	-1.50418	-0.413424	-1.37386	-0.00680475	-1.75144	-0.010489	-2.08486	0.099738	-2.18935	-0.0236365	
0.590121	5.513	5	0	0	0	-2.3866	-0.0412895	0	0	-2.07069	-0.225987	0	0	-1.39965	-0.225693	-0.369038	-0.504831	-1.1831	-0.232187	-0.353047	-0.793644	-1.25126	-0.744837	-0.357212	-0.727494	-1.5146	-0.424689	-1.36785	-0.0143645	-1.7597	-0.010404	-2.08486	0.099738	-2.18967	-0.035104	
0.5881	5.513	5	0	0	0	-2.39627	-0.0280017	0	0	-2.06847	-0.222079	0	0	-1.406	-0.218633	-0.376434	-0.495161	-1.19317	-0.251912	-0.362177	-0.792843	-1.25519	-0.756634	-0.370034	-0.726058	-1.52502	-0.435953	-1.36183	-0.0219242	-1.76796	-0.010319	-2.08486	0.099738	-2.18999	-0.0465715	
0.58609	5.50995	5	0	0	0	-2.40595	-0.014714	0	0	-2.06624	-0.218171	0	0	-1.41236	-0.211573	-0.38383	-0.48549	-1.20324	-0.271636	-0.371307	-0.792041	-1.25912	-0.768431	-0.382857	-0.724623	-1.53544	-0.447217	-1.35582	-0.029484	-1.77622	-0.010234	-2.08486	0.099738	-2.19031	-0.058039	
0.584781	5.50079	5	0	0	0	-2.41726	-0.0108038	0	0	-2.07217	-0.21162	0	0	-1.42273	-0.193149	-0.385351	-0.46996	-1.22084	-0.269978	-0.378242	-0.784928	-1.26701	-0.769014	-0.386053	-0.715592	-1.55247	-0.439694	-1.35565	-0.0205155	-1.77785	-0.00562825	-2.07984	0.10661	-2.1873	-0.0541688	
0.584864	5.50079	5	0	0	0	-2.42858	-0.0068935	0	0	-2.07809	-0.205068	0	0	-1.4331	-0.174725	-0.386873	-0.45443	-1.23843	-0.26832	-0.385178	-0.777814	-1.2749	-0.769597	-0.389248	-0.706561	-1.56951	-0.432171	-1.35548	-0.011547	-1.77948	-0.0010225	-2.07483	0.113483	-2.18429	-0.0502985	
0.58682	5.49469	5	0	0	0	-2.4399	-0.00298325	0	0	-2.08401	-0.198517	0	0	-1.44347	-0.156301	-0.388394	-0.4389	-1.25602	-0.266663	-0.392114	-0.770701	-1.28279	-0.770179	-0.392444	-0.697529	-1.58654	-0.424649	-1.35532	-0.0025785	-1.78111	0.00358325	-2.06981	0.120355	-2.18128	-0.0464282	
0.589935	5.49316	5	0	0	0	-2.45121	0.000927	0	0	-2.08993	-0.191966	0	0	-1.45385	-0.137877	-0.389915	-0.42337	-1.27362	-0.265005	-0.399049	-0.763587	-1.29068	-0.770762	-0.39564	-0.688498	-1.60358	-0.417126	-1.35515	0.00639	-1.78274	0.008189	-2.06479	0.127227	-2.17827	-0.042558	
0.593067	5.48096	5	0	0	0	-2.44636	0.0012395	0	0	-2.0924	-0.184986	0	0	-1.45787	-0.126498	-0.393265	-0.413901	-1.27763	-0.265659	-0.405981	-0.756475	-1.29594	-0.767324	-0.403105	-0.678987	-1.60814	-0.417751	-1.35315	0.019632	-1.78518	0.015102	-2.06649	0.142578	-2.1793	-0.0272757	
0.595073	5.4779	0	5	0	0	-2.44151	0.001552	0	0	-2.09487	-0.178007	0	0	-1.4619	-0.115119	-0.396616	-0.404432	-1.28165	-0.266313	-0.412914	-0.749362	-1.3012	-0.763887	-0.41057	-0.669477	-1.61271	-0.418376	-1.35114	0.032874	-1.78763	0.022015	-2.06819	0.157928	-2.18033	-0.0119935	
0.594812	5.47638	0	5	0	0	-2.43665	0.0018645	0	0	-2.09734	-0.171027	0	0	-1.46592	-0.10374	-0.399967	-0.394964	-1.28566	-0.266966	-0.419847	-0.74225	-1.30646	-0.76045	-0.418035	-0.659966	-1.61727	-0.419002	-1.34914	0.046116	-1.79007	0.028928	-2.0699	0.173279	-2.18135	0.00328875	
0.591693	5.46875	0	5	0	0	-2.4318	0.002177	0	0	-2.09981	-0.164047	0	0	-1.46995	-0.092361	-0.403317	-0.385495	-1.28967	-0.26762	-0.426779	-0.735138	-1.31172	-0.757012	-0.4255	-0.650455	-1.62183	-0.419627	-1.34714	0.059358	-1.79252	0.035841	-2.0716	0.18863	-2.18238	0.018571	
0.586677	5.46265	0	5	0	0	-2.42694	0.00248875	0	0	-2.09291	-0.16319	0	0	-1.46897	-0.0842423	-0.400381	-0.382556	-1.28717	-0.262703	-0.43133	-0.734747	-1.31172	-0.757012	-0.430829	-0.646973	-1.63261	-0.416192	-1.34514	0.0726342	-1.79742	0.0496835	-2.07613	0.211983	-2.17906	0.0339773	
0.580993	5.45959	0	5	0	0	-2.42208	0.0028005	0	0	-2.086	-0.162334	0	0	-1.46799	-0.0761235	-0.397444	-0.379617	-1.28466	-0.257785	-0.435882	-0.734355	-1.31172	-0.757012	-0.436159	-0.64349	-1.64338	-0.412757	-1.34315	0.0859105	-1.80232	0.063526	-2.08066	0.235336	-2.17574	0.0493835	
0.575871	5.46112	0	5	0	0	-2.41722	0.00311225	0	0	-2.07909	-0.161477	0	0	-1.46701	-0.0680048	-0.394508	-0.376679	-1.28216	-0.252868	-0.440433	-0.733964	-1.31172	-0.757012	-0.441489	-0.640008	-1.65415	-0.409323	-1.34115	0.0991867	-1.80721	0.0773685	-2.0852	0.258689	-2.17243	0.0647898	
0.572497	5.45044	0	5	0	0	-2.41237	0.003424	0	0	-2.07218	-0.16062	0	0	-1.46603	-0.059886	-0.391572	-0.37374	-1.27965	-0.24795	-0.444984	-0.733573	-1.31172	-0.757012	-0.446818	-0.636526	-1.66493	-0.405888	-1.33916	0.112463	-1.81211	0.091211	-2.08973	0.282042	-2.16911	0.080196	
0.571197	5.44433	0	5	0	0	-2.39938	0.0088975	0	0	-2.06898	-0.149268	0	0	-1.46138	-0.0512273	-0.391993	-0.361307	-1.28168	-0.230211	-0.446172	-0.730214	-1.3091	-0.752985	-0.450019	-0.627479	-1.66493	-0.405888	-1.34168	0.119585	-1.811	0.0958095	-2.08378	0.286327	-2.17181	0.087829	
0.571493	5.44281	0	5	0	0	-2.38638	0.014371	0	0	-2.06578	-0.137916	0	0	-1.45673	-0.0425685	-0.392413	-0.348874	-1.28371	-0.212471	-0.447361	-0.726854	-1.30648	-0.748959	-0.45322	-0.618432	-1.66493	-0.405888	-1.3442	0.126708	-1.80988	0.100408	-2.07782	0.290611	-2.17451	0.095462	
0.57288	5.44433	0	5	0	0	-2.37339	0.0198445	0	0	-2.06258	-0.126565	0	0	-1.45208	-0.0339098	-0.392834	-0.33644	-1.28574	-0.194732	-0.44855	-0.723495	-1.30386	-0.744932	-0.456421	-0.609386	-1.66493	-0.405888	-1.34672	0.13383	-1.80877	0.105007	-2.07187	0.294895	-2.17721	0.103095	
0.574849	5.43671	0	5	0	0	-2.3604	0.025318	0	0	-2.05938	-0.115213	0	0	-1.44743	-0.025251	-0.393255	-0.324007	-1.28777	-0.176992	-0.449738	-0.720136	-1.30124	-0.740906	-0.459622	-0.600339	-1.66493	-0.405888	-1.34924	0.140953	-1.80765	0.109605	-2.06592	0.29918	-2.17991	0.110728	
0.576921	5.4245	0	5	0	0	-2.35061	0.0399127	0	0	-2.06558	-0.0976917	0	0	-1.44916	-0.0094775	-0.386685	-0.308802	-1.28026	-0.16215	-0.447567	-0.713801	-1.296	-0.732841	-0.460704	-0.5857	-1.65914	-0.39524	-1.35344	0.152837	-1.80706	0.123445	-2.0609	0.306133	-2.1739	0.11855	
0.578745	5.4245	0	5	0	0	-2.34081	0.0545075	0	0	-2.07178	-0.0801705	0	0	-1.45088	0.006296	-0.380116	-0.293596	-1.27275	-0.147308	-0.445395	-0.707466	-1.29076	-0.724776	-0.461787	-0.571062	-1.65335	-0.384593	-1.35765	0.16472	-1.80647	0.137286	-2.05589	0.313086	-2.16788	0.126371	
0.580012	5.42297	0	5	0	0	-2.33101	0.0691023	0	0	-2.07798	-0.0626493	0	0	-1.4526	0.0220695	-0.373546	-0.278391	-1.26525	-0.132465	-0.443224	-0.701132	-1.28552	-0.71671	-0.462869	-0.556423	-1.64755	-0.373945	-1.36185	0.176604	-1.80588	0.151126	-2.05087	0.320039	-2.16187	0.134193	
0.580413	5.41687	0	5	0	0	-2.32122	0.083697	0	0	-2.08418	-0.045128	0	0	-1.45432	0.037843	-0.366976	-0.263186	-1.25774	-0.117623	-0.441053	-0.694797	-1.28027	-0.708645	-0.463952	-0.541785	-1.64176	-0.363297	-1.36606	0.188488	-1.80529	0.164966	-2.04586	0.326992	-2.15585	0.142015	
0.579641	5.41077	0	5	0	0	-2.31791	0.102598	0	0	-2.08693	-0.027127	0	0	-1.45509	0.0618473	-0.367851	-0.238163	-1.25479	-0.0898193	-0.435518	-0.685471	-1.27243	-0.684957	-0.457586	-0.524995	-1.63808	-0.333124	-1.36577	0.206607	-1.79504	0.190387	-2.04258	0.349465	-2.14517	0.161547	
0.577653	5.40619	0	5	0	0	-2.3146	0.121499	0	0	-2.08969	-0.009126	0	0	-1.45586	0.0858515	-0.368726	-0.21314	-1.25184	-0.0620155	-0.429984	-0.676146	-1.26459	-0.661269	-0.451219	-0.508204	-1.63439	-0.302951	-1.36548	0.224727	-1.7848	0.215808	-2.0393	0.371939	-2.13448	0.181078	
0.57486	5.40924	0	5	0	0	-2.3113	0.1404	0	0	-2.09245	0.008875	0	0	-1.45662	0.109856	-0.369601	-0.188118	-1.2489	-0.0342117	-0.424449	-0.66682	-1.25675	-0.637581	-0.444853	-0.491414	-1.6307	-0.272779	-1.36519	0.242846	-1.77455	0.241228	-2.03602	0.394412	-2.12379	0.200609	
0.571722	5.41382	0	5	0	0	-2.30799	0.159301	0	0	-2.0952	0.026876	0	0	-1.45739	0.13386	-0.370476	-0.163095	-1.24595	-0.006408	-0.418915	-0.657494	-1.24891	-0.613893	-0.438487	-0.474624	-1.62702	-0.242606	-1.3649	0.260966	-1.7643	0.266649	-2.03274	0.416886	-2.11311	0.220141	
0.5687	5.4245	0	5	0	0	-2.30797	0.173359	0	0	-2.10143	0.0444733	0	0	-1.45682	0.154122	-0.375445	-0.137768	-1.25358	0.015148	-0.421522	-0.63763	-1.23978	-0.582221	-0.450312	-0.441204	-1.61589	-0.206189	-1.36279	0.283467	-1.75985	0.308594	-2.03138	0.444826	-2.10212	0.251441	
0.566211	5.43671	0	5	0	0	-2.30794	0.187418	0	0	-2.10766	0.0620705	0	0	-1.45626	0.174383	-0.380414	-0.112441	-1.26121	0.036704	-0.424129	-0.617767	-1.23066	-0.550548	-0.462137	-0.407785	-1.60477	-0.169772	-1.36069	0.305967	-1.75539	0.350538	-2.03001	0.472766	-2.09113	0.282741	
0.56431	5.46265	0	5	0	0	-2.30791	0.201476	0	0	-2.11388	0.0796678	0	0	-1.45569	0.194644	-0.385382	-0.087114	-1.26883	0.05826	-0.426735	-0.597904	-1.22153	-0.518876	-0.473963	-0.374366	-1.59365	-0.133356	-1.35859	0.328468	-1.75093	0.392483	-2.02865	0.500705	-2.08014	0.314042	
0.56286	5.48553	0	5	0	0	-2.30788	0.215534	0	0	-2.12011	0.097265	0	0	-1.45513	0.214906	-0.390351	-0.061787	-1.27646	0.079816	-0.429342	-0.57804	-1.2124	-0.487203	-0.485788	-0.340946	-1.58252	-0.096939	-1.35649	0.350969	-1.74647	0.434428	-2.02729	0.528645	-2.06915	0.345342	
0.561724	5.513	0	5	0	0	-2.31763	0.228955	0	0	-2.1204	0.108296	0	0	-1.45825	0.234683	-0.397144	-0.0425883	-1.27856	0.0977973	-0.433166	-0.554728	-1.19797	-0.458788	-0.486969	-0.314385	-1.57311	-0.055451	-1.3578	0.383176	-1.73738	0.479073	-2.01509	0.557921	-2.05515	0.38086	
0.560764	5.53436	0	5	0	0	-2.32738	0.242375	0	0	-2.12069	0.119327	0	0	-1.46138	0.254459	-0.403938	-0.0233895	-1.28065	0.115778	-0.43699	-0.531416	-1.18354	-0.430373	-0.488149	-0.287825	-1.56369	-0.013963	-1.35912	0.415382	-1.72828	0.523717	-2.00289	0.587197	-2.04114	0.416377	
0.559983	5.56335	0	5	0	0	-2.33713	0.255796	0	0	-2.12098	0.130358	0	0	-1.46451	0.274236	-0.410731	-0.00419075	-1.28275	0.13376	-0.440814	-0.508104	-1.16911	-0.401958	-0.489329	-0.261264	-1.55427	0.027525	-1.36043	0.447589	-1.71918	0.568362	-1.99069	0.616473	-2.02713	0.451895	
0.559644	5.58929	0	5	0	0	-2.34689	0.269216	0	0	-2.12127	0.141389	0	0	-1.46763	0.294012	-0.417524	0.015008	-1.28484	0.151741	-0.444638	-0.484792	-1.15468	-0.373543	-0.49051	-0.234703	-1.54486	0.069013	-1.36175	0.479795	-1.71008	0.613007	-1.97849	0.645749	-2.01313	0.487413	
0.560042	5.61066	0	5	0	0	-2.34038	0.264964	0	0	-2.12626	0.155514	0	0	-1.47812	0.312713	-0.427255	0.0312238	-1.2879	0.160399	-0.447285	-0.464799	-1.14954	-0.341779	-0.493821	-0.213723	-1.54296	0.104651	-1.35349	0.504033	-1.70213	0.653298	-1.97419	0.676218	-2.00793	0.522969	
0.561471	5.63507	0	5	0	0	-2.33387	0.260713	0	0	-2.13126	0.169639	0	0	-1.48861	0.331414	-0.436986	0.0474395	-1.29097	0.169056	-0.449931	-0.444806	-1.14441	-0.310015	-0.497132	-0.192742	-1.54107	0.140289	-1.34524	0.528272	-1.69417	0.693588	-1.96989	0.706686	-2.00274	0.558526	
0.564168	5.66101	0	5	0	0	-2.32737	0.256462	0	0	-2.13626	0.183764	0	0	-1.4991	0.350115	-0.446716	0.0636552	-1.29403	0.177714	-0.452578	-0.424814	-1.13927	-0.27825	-0.500444	-0.171762	-1.53918	0.175927	-1.33698	0.55251	-1.68622	0.733879	-1.96559	0.737155	-1.99754	0.594082	
0.567894	5.68085	0	5	0	0	-2.32086	0.25221	0	0	-2.14126	0.197889	0	0	-1.50958	0.368816	-0.456447	0.079871	-1.2971	0.186372	-0.455225	-0.404821	-1.13414	-0.246486	-0.503755	-0.150782	-1.53729	0.211565	-1.32872	0.576748	-1.67827	0.77417	-1.96129	0.767624	-1.99235	0.629638	
0.572168	5.69916	0	5	0	0	-2.30944	0.2624	0	0	-2.1359	0.213436	0	0	-1.50865	0.377101	-0.457582	0.0830795	-1.30016	0.195039	-0.453329	-0.385127	-1.1276	-0.230191	-0.512439	-0.126239	-1.53203	0.23777	-1.33097	0.61171	-1.67533	0.805184	-1.95799	0.801	-1.9858	0.661513	
0.576508	5.71289	0	5	0	0	-2.29801	0.272589	0	0	-2.13055	0.228984	0	0	-1.50771	0.385386	-0.458718	0.086288	-1.30323	0.203705	-0.451433	-0.365433	-1.12106	-0.213896	-0.521123	-0.101696	-1.52677	0.263975	-1.33322	0.646672	-1.67238	0.836199	-1.95468	0.834376	-1.97925	0.693387	
0.580433	5.72967	0	5	0	0	-2.28659	0.282778	0	0	-2.1252	0.244531	0	0	-1.50677	0.393672	-0.459853	0.0894965	-1.30629	0.212372	-0.449538	-0.34574	-1.11452	-0.1976	-0.529808	-0.077153	-1.52151	0.290179	-1.33547	0.681633	-1.66944	0.867213	-1.95138	0.867752	-1.97271	0.725262	
0.583627	5.74188	0	5	0	0	-2.27516	0.292968	0	0	-2.11985	0.260078	0	0	-1.50583	0.401957	-0.460988	0.092705	-1.30936	0.221038	-0.447642	-0.326046	-1.10798	-0.181305	-0.538492	-0.05261	-1.51625	0.316384	-1.33772	0.716595	-1.66649	0.898227	-1.94807	0.901128	-1.96616	0.757136	
0.58624	5.74798	0	5	0	0	-2.27025	0.321649	0	0	-2.11355	0.283263	0	0	-1.49617	0.407533	-0.452869	0.0923355	-1.30286	0.226793	-0.443341	-0.313115	-1.09472	-0.172285	-0.53749	-0.0438107	-1.51047	0.327475	-1.33476	0.746444	-1.67217	0.922142	-1.9478	0.932458	-1.96848	0.788922	
0.588501	5.75409	0	5	0	0	-2.26533	0.35033	0	0	-2.10725	0.306448	0	0	-1.48652	0.413108	-0.44475	0.091966	-1.29635	0.232548	-0.439041	-0.300184	-1.08147	-0.163265	-0.536488	-0.0350115	-1.50469	0.338566	-1.33181	0.776294	-1.67784	0.946057	-1.94752	0.963788	-1.9708	0.820709	
0.590642	5.7663	0	5	0	0	-2.26042	0.37901	0	0	-2.10095	0.329633	0	0	-1.47687	0.418684	-0.436631	0.0915965	-1.28984	0.238302	-0.43474	-0.287253	-1.06821	-0.154245	-0.535487	-0.0262123	-1.49891	0.349658	-1.32885	0.806144	-1.68352	0.969972	-1.94725	0.995118	-1.97311	0.852496	
0.592888	5.77392	0	5	0	0	-2.2555	0.407691	0	0	-2.09466	0.352818	0	0	-1.46721	0.42426	-0.428512	0.091227	-1.28334	0.244057	-0.43044	-0.274322	-1.05496	-0.145225	-0.534485	-0.017413	-1.49313	0.360749	-1.32589	0.835993	-1.68919	0.993887	-1.94697	1.02645	-1.97543	0.884282	
0.595311	5.78003	0	5	0	0	-2.24734	0.44154	0	0	-2.09184	0.375637	0	0	-1.46534	0.440899	-0.423145	0.109976	-1.28487	0.248399	-0.427353	-0.257929	-1.04832	-0.140706	-0.527037	-0.015181	-1.49484	0.365591	-1.32659	0.857091	-1.68726	0.996304	-1.93694	1.04098	-1.98102	0.900081	
0.597773	5.78461	0	5	0	0	-2.23918	0.47539	0	0	-2.08901	0.398455	0	0	-1.46346	0.457538	-0.417778	0.128725	-1.28641	0.252742	-0.424265	-0.241536	-1.04168	-0.136187	-0.519589	-0.012949	-1.49655	0.370432	-1.32728	0.878189	-1.68533	0.998721	-1.9269	1.05551	-1.98661	0.915881	
0.600123	5.79834	0	5	0	0	-2.23102	0.509239	0	0	-2.08619	0.421273	0	0	-1.46159	0.474176	-0.412411	0.147473	-1.28795	0.257084	-0.421177	-0.225143	-1.03504	-0.131668	-0.51214	-0.010717	-1.49827	0.375274	-1.32798	0.899286	-1.68339	1.00114	-1.91687	1.07004	-1.9922	0.931681	
0.602207	5.80597	0	5	0	0	-2.22285	0.543088	0	0	-2.08337	0.444092	0	0	-1.45971	0.490815	-0.407044	0.166222	-1.28948	0.261427	-0.41809	-0.20875	-1.0284	-0.127149	-0.504692	-0.008485	-1.49998	0.380116	-1.32867	0.920384	-1.68146	1.00356	-1.90683	1.08456	-1.99779	0.94748	
0.603877	5.81207	0	5	0	0	-2.2246	0.590826	0	0	-2.0831	0.474181	0	0	-1.4629	0.510811	-0.401041	0.194574	-1.287	0.266485	-0.408282	-0.186128	-1.02176	-0.122624	-0.5016	0.006087	-1.49537	0.380831	-1.32151	0.928871	-1.6817	0.996354	-1.89483	1.09364	-1.99478	0.951591	
0.605077	5.8197	0	5	0	0	-2.22635	0.638564	0	0	-2.08283	0.50427	0	0	-1.46609	0.530806	-0.395038	0.222926	-1.28451	0.271543	-0.398475	-0.163505	-1.01511	-0.118099	-0.498507	0.020659	-1.49077	0.381546	-1.31434	0.937359	-1.68194	0.989152	-1.88283	1.10271	-1.99176	0.955703	
0.60583	5.83038	0	5	0	0	-2.22809	0.686302	0	0	-2.08257	0.534359	0	0	-1.46928	0.550801	-0.389035	0.251278	-1.28203	0.2766	-0.388667	-0.140882	-1.00846	-0.113573	-0.495415	0.035231	-1.48616	0.382261	-1.30718	0.945847	-1.68218	0.981951	-1.87083	1.11179	-1.98875	0.959814	
0.606159	5.83954	0	5	0	0	-2.22984	0.73404	0	0	-2.0823	0.564448	0	0	-1.47247	0.570797	-0.383032	0.27963	-1.27954	0.281658	-0.37886	-0.11826	-1.00182	-0.109048	-0.492323	0.049803	-1.48156	0.382976	-1.30001	0.954334	-1.68242	0.974749	-1.85883	1.12086	-1.98573	0.963925	
0.60609	5.84717	0	5	0	0	-2.2251	0.777855	0	0	-2.08426	0.590593	0	0	-1.47568	0.590851	-0.374115	0.311233	-1.2857	0.299067	-0.367824	-0.0989723	-0.993798	-0.108369	-0.484955	0.0640007	-1.47695	0.38369	-1.28834	0.969342	-1.67964	0.974771	-1.85763	1.14978	-1.9797	0.972161	
0.605674	5.84869	0	5	0	0	-2.22035	0.82167	0	0	-2.08623	0.616737	0	0	-1.47889	0.610906	-0.365198	0.342836	-1.29186	0.316475	-0.356789	-0.0796845	-0.985779	-0.107689	-0.477587	0.0781985	-1.47234	0.384405	-1.27667	0.984351	-1.67686	0.974793	-1.85643	1.1787	-1.97367	0.980397	
0.605231	5.85785	0	5	0	0	-2.21561	0.865486	0	0	-2.08819	0.642882	0	0	-1.4821	0.630961	-0.356282	0.374439	-1.29802	0.333883	-0.345753	-0.0603968	-0.977761	-0.107009	-0.470218	0.0923962	-1.46773	0.38512	-1.265	0.999359	-1.67408	0.974815	-1.85523	1.20762	-1.96763	0.988633	
0.605232	5.86243	0	5	0	0	-2.21087	0.909301	0	0	-2.09016	0.669027	0	0	-1.48531	0.651015	-0.347365	0.406042	-1.30418	0.351292	-0.334718	-0.041109	-0.969742	-0.10633	-0.46285	0.106594	-1.46312	0.385834	-1.25333	1.01437	-1.6713	0.974837	-1.85403	1.23654	-1.9616	0.996869	
0.606153	5.85937	0	5	0	0	-2.21931	0.947484	0	0	-2.10601	0.693236	0	0	-1.49083	0.666621	-0.344872	0.444564	-1.30974	0.354926	-0.329496	-0.0179197	-0.963077	-0.101797	-0.459764	0.121256	-1.46022	0.391401	-1.24069	1.03641	-1.66912	0.98446	-1.83493	1.25817	-1.95092	1.01737	
0.608468	5.85327	0	5	0	0	-2.22774	0.985666	0	0	-2.12186	0.717445	0	0	-1.49635	0.682227	-0.34238	0.483086	-1.3153	0.35856	-0.324274	0.0052695	-0.956411	-0.097265	-0.456677	0.135919	-1.45733	0.396967	-1.22806	1.05844	-1.66695	0.994082	-1.81583	1.27979	-1.94024	1.03788	
0.612533	5.84869	0	5	0	0	-2.23618	1.02385	0	0	-2.13771	0.741654	0	0	-1.50188	0.697833	-0.339887	0.521608	-1.32086	0.362193	-0.319052	0.0284588	-0.949746	-0.0927325	-0.453591	0.150582	-1.45443	0.402533	-1.21542	1.08048	-1.66477	1.0037	-1.79673	1.30142	-1.92956	1.05838	
0.617935	5.84869	0	5	0	0	-2.24462	1.06203	0	0	-2.15357	0.765863	0	0	-1.5074	0.713439	-0.337394	0.56013	-1.32642	0.365827	-0.31383	0.051648	-0.943081	-0.0882	-0.450505	0.165244	-1.45154	0.4081	-1.20278	1.10252	-1.66259	1.01333	-1.77763	1.32304	-1.91888	1.07889	
0.623954	5.83343	0	5	0	0	-2.2463	1.06676	0	0	-2.15575	0.761746	0	0	-1.51336	0.708337	-0.348439	0.579943	-1.3394	0.354239	-0.321199	0.0724733	-0.944446	-0.0843433	-0.456	0.180773	-1.45154	0.4081	-1.19633	1.13255	-1.66467	1.03498	-1.78142	1.36624	-1.90072	1.10383	
0.629866	5.82733	0	5	0	0	-2.24797	1.0715	0	0	-2.15793	0.757629	0	0	-1.51933	0.703236	-0.359484	0.599755	-1.35237	0.34265	-0.328568	0.0932985	-0.94581	-0.0804865	-0.461495	0.196302	-1.45154	0.4081	-1.18987	1.16257	-1.66674	1.05663	-1.78521	1.40943	-1.88255	1.12877	
0.63495	5.81665	0	5	0	0	-2.24965	1.07623	0	0	-2.16012	0.753512	0	0	-1.5253	0.698134	-0.370529	0.619567	-1.36534	0.331062	-0.335937	0.114124	-0.947175	-0.0766297	-0.466989	0.21183	-1.45154	0.4081	-1.18342	1.1926	-1.66882	1.07828	-1.78899	1.45263	-1.86439	1.15372	
0.638559	5.80749	0	5	0	0	-2.25132	1.08097	0	0	-2.1623	0.749395	0	0	-1.53126	0.693032	-0.381574	0.63938	-1.37832	0.319473	-0.343306	0.134949	-0.94854	-0.072773	-0.472484	0.227359	-1.45154	0.4081	-1.17697	1.22263	-1.6709	1.09993	-1.79278	1.49582	-1.84622	1.17866	
0.640678	5.79681	0	5	0	0	-2.2464	1.08139	0	0	-2.15884	0.749906	0	0	-1.53814	0.679558	-0.381022	0.626424	-1.38726	0.30864	-0.344217	0.124867	-0.949905	-0.0689145	-0.482031	0.219273	-1.46247	0.411516	-1.1795	1.24912	-1.66936	1.11927	-1.78767	1.5248	-1.84707	1.21932	
0.641623	5.78461	0	5	0	0	-2.24147	1.08181	0	0	-2.15538	0.750417	0	0	-1.54501	0.666083	-0.380469	0.613467	-1.3962	0.297807	-0.345129	0.114785	-0.951271	-0.065056	-0.491577	0.211188	-1.47341	0.414931	-1.18203	1.27561	-1.66781	1.13862	-1.78256	1.55379	-1.84792	1.25999	
0.641707	5.77545	0	5	0	0	-2.23654	1.08223	0	0	-2.15192	0.750927	0	0	-1.55188	0.652608	-0.379916	0.60051	-1.40515	0.286974	-0.34604	0.104702	-0.952636	-0.0611975	-0.501123	0.203102	-1.48435	0.418347	-1.18456	1.3021	-1.66627	1.15797	-1.77746	1.58277	-1.84877	1.30065	
0.641249	5.76782	0	5	0	0	-2.23162	1.08266	0	0	-2.14846	0.751438	0	0	-1.55875	0.639134	-0.379364	0.587554	-1.41409	0.276141	-0.346951	0.09462	-0.954001	-0.057339	-0.51067	0.195016	-1.49528	0.421762	-1.18709	1.32859	-1.66473	1.17732	-1.77235	1.61175	-1.84962	1.34131	
0.640549	5.75714	0	5	0	0	-2.24001	1.10638	0	0	-2.15011	0.766388	0	0	-1.55646	0.64362	-0.379364	0.587554	-1.41809	0.275424	-0.347866	0.0845567	-0.954085	-0.0454055	-0.510559	0.18303	-1.49067	0.422482	-1.18528	1.33315	-1.65871	1.19193	-1.76931	1.6249	-1.84357	1.34974	
0.639735	5.73883	0	5	0	0	-2.2484	1.1301	0	0	-2.15176	0.781338	0	0	-1.55417	0.648107	-0.379364	0.587554	-1.42209	0.274707	-0.34878	0.0744935	-0.95417	-0.033472	-0.510449	0.171044	-1.48607	0.423202	-1.18347	1.33771	-1.65268	1.20655	-1.76626	1.63805	-1.83751	1.35817	
0.638806	5.7312	0	5	0	0	-2.2568	1.15382	0	0	-2.15341	0.796287	0	0	-1.55188	0.652594	-0.379364	0.587554	-1.42609	0.273989	-0.349695	0.0644302	-0.954254	-0.0215385	-0.510339	0.159059	-1.48146	0.423922	-1.18166	1.34228	-1.64665	1.22117	-1.76322	1.65119	-1.83145	1.3666	
0.637757	5.71899	0	5	0	0	-2.26519	1.17754	0	0	-2.15505	0.811237	0	0	-1.54959	0.65708	-0.379364	0.587554	-1.43009	0.273272	-0.35061	0.054367	-0.954338	-0.009605	-0.510228	0.147073	-1.47685	0.424642	-1.17985	1.34684	-1.64063	1.23579	-1.76018	1.66434	-1.82539	1.37502	
0.636586	5.71289	0	5	0	0	-2.26052	1.20743	0	0	-2.15145	0.842295	0	0	-1.54548	0.678379	-0.374668	0.597082	-1.4313	0.300756	-0.351836	0.0578318	-0.939708	0.0076375	-0.504855	0.143562	-1.46355	0.442122	-1.17358	1.34849	-1.62685	1.26032	-1.75312	1.67707	-1.81773	1.39175	
0.635291	5.69916	0	5	0	0	-2.25585	1.23733	0	0	-2.14785	0.873354	0	0	-1.54137	0.699678	-0.369973	0.606609	-1.43252	0.328239	-0.353062	0.0612965	-0.925077	0.02488	-0.499482	0.140051	-1.45025	0.459601	-1.16731	1.35014	-1.61308	1.28484	-1.74607	1.68979	-1.81006	1.40847	
0.633923	5.68848	0	5	0	0	-2.25117	1.26722	0	0	-2.14426	0.904413	0	0	-1.53726	0.720978	-0.365278	0.616136	-1.43373	0.355722	-0.354288	0.0647612	-0.910447	0.0421225	-0.49411	0.136541	-1.43696	0.477081	-1.16104	1.3518	-1.5993	1.30937	-1.73901	1.70252	-1.80239	1.42519	
0.632581	5.68695	0	5	0	0	-2.2465	1.29711	0	0	-2.14066	0.935471	0	0	-1.53315	0.742277	-0.360582	0.625664	-1.43495	0.383206	-0.355514	0.068226	-0.895817	0.059365	-0.488737	0.13303	-1.42366	0.494561	-1.15477	1.35345	-1.58552	1.3339	-1.73195	1.71525	-1.79472	1.44191	
0.631367	5.67932	0	5	0	0	-2.25003	1.32147	0	0	-2.14274	0.961994	0	0	-1.5355	0.770897	-0.363465	0.64522	-1.4362	0.410815	-0.34632	0.067549	-0.885289	0.0883852	-0.486649	0.138812	-1.41552	0.526806	-1.14486	1.36425	-1.5713	1.37332	-1.71987	1.72473	-1.78993	1.46682	
0.630379	5.66711	0	5	0	0	-2.25356	1.34583	0	0	-2.14481	0.988517	0	0	-1.53785	0.799516	-0.366348	0.664776	-1.43745	0.438424	-0.337126	0.066872	-0.874761	0.117405	-0.484562	0.144593	-1.40739	0.559052	-1.13495	1.37506	-1.55707	1.41274	-1.70778	1.73422	-1.78513	1.49173	
0.629719	5.66254	0	5	0	0	-2.25709	1.37019	0	0	-2.14689	1.01504	0	0	-1.5402	0.828136	-0.36923	0.684332	-1.4387	0.466034	-0.327932	0.066195	-0.864232	0.146426	-0.482475	0.150375	-1.39926	0.591297	-1.12505	1.38586	-1.54284	1.45217	-1.69569	1.7437	-1.78033	1.51663	
0.629448	5.65796	0	5	0	0	-2.26061	1.39454	0	0	-2.14897	1.04156	0	0	-1.54255	0.856756	-0.372113	0.703888	-1.43995	0.493643	-0.318738	0.065518	-0.853704	0.175446	-0.480387	0.156157	-1.39113	0.623543	-1.11514	1.39666	-1.52862	1.49159	-1.6836	1.75318	-1.77553	1.54154	
0.62959	5.65033	0	5	0	0	-2.26554	1.39409	0	0	-2.14333	1.04628	0	0	-1.54533	0.864604	-0.380884	0.694468	-1.44149	0.498009	-0.323337	0.0658573	-0.855309	0.203543	-0.485763	0.15967	-1.39344	0.643911	-1.10969	1.41042	-1.51915	1.5288	-1.68156	1.76927	-1.77219	1.57065	
0.630169	5.64117	0	5	0	0	-2.27047	1.39363	0	0	-2.13768	1.051	0	0	-1.5481	0.872451	-0.389654	0.685048	-1.44303	0.502375	-0.327936	0.0661965	-0.856913	0.23164	-0.49114	0.163183	-1.39575	0.664278	-1.10424	1.42419	-1.50969	1.566	-1.67952	1.78537	-1.76885	1.59977	
0.631208	5.63812	0	5	0	0	-2.2754	1.39316	0	0	-2.13204	1.05572	0	0	-1.55088	0.880299	-0.398424	0.675629	-1.44458	0.506741	-0.332534	0.0665358	-0.858518	0.259737	-0.496516	0.166695	-1.39807	0.684646	-1.0988	1.43795	-1.50023	1.60321	-1.67748	1.80146	-1.76551	1.62888	
0.632726	5.63202	0	5	0	0	-2.28033	1.39271	0	0	-2.12639	1.06045	0	0	-1.55366	0.888147	-0.407195	0.666209	-1.44612	0.511107	-0.337133	0.066875	-0.860123	0.287834	-0.501892	0.170208	-1.40038	0.705014	-1.09335	1.45171	-1.49076	1.64041	-1.67544	1.81755	-1.76217	1.65799	
0.634605	5.62591	0	5	0	0	-2.27863	1.38792	0	0	-2.12809	1.07559	0	0	-1.55227	0.884222	-0.40901	0.637193	-1.45012	0.510363	-0.346011	0.0540443	-0.852038	0.288576	-0.508144	0.152879	-1.40327	0.699355	-1.1023	1.45756	-1.49211	1.66024	-1.6855	1.82413	-1.77098	1.67002	
0.636564	5.61981	0	5	0	0	-2.27694	1.38314	0	0	-2.12979	1.09074	0	0	-1.55088	0.880297	-0.410824	0.608178	-1.45412	0.509619	-0.354889	0.0412135	-0.843953	0.289318	-0.514397	0.13555	-1.40616	0.693696	-1.11125	1.4634	-1.49346	1.68008	-1.69556	1.8307	-1.77978	1.68205	
0.638317	5.61523	0	5	0	0	-2.27525	1.37835	0	0	-2.13149	1.10589	0	0	-1.54949	0.876373	-0.412639	0.579162	-1.45812	0.508875	-0.363767	0.0283827	-0.835868	0.290061	-0.520649	0.118221	-1.40905	0.688036	-1.12019	1.46925	-1.49481	1.69991	-1.70562	1.83727	-1.78859	1.69408	
0.639574	5.61371	0	5	0	0	-2.27355	1.37357	0	0	-2.13319	1.12104	0	0	-1.5481	0.872448	-0.414454	0.550146	-1.46212	0.508131	-0.372645	0.015552	-0.827783	0.290803	-0.526902	0.100892	-1.41195	0.682377	-1.12914	1.4751	-1.49615	1.71974	-1.71568	1.84385	-1.7974	1.70611	
0.640052	5.61218	0	5	0	0	-2.28356	1.38746	0	0	-2.12926	1.14099	0	0	-1.54075	0.873682	-0.412226	0.521122	-1.46457	0.503025	-0.374489	-0.00447475	-0.826513	0.299021	-0.529886	0.0743925	-1.4131	0.671825	-1.13546	1.46383	-1.49246	1.71733	-1.71269	1.82447	-1.80949	1.68894	
0.639669	5.60913	0	5	0	0	-2.29356	1.40136	0	0	-2.12532	1.16094	0	0	-1.53341	0.874916	-0.409998	0.492098	-1.46702	0.497919	-0.376333	-0.0245015	-0.825243	0.307239	-0.532871	0.047893	-1.41426	0.661274	-1.14178	1.45256	-1.48877	1.71492	-1.7097	1.80508	-1.82159	1.67178	
0.638671	5.60913	0	5	0	0	-2.30357	1.41525	0	0	-2.12139	1.18089	0	0	-1.52606	0.87615	-0.40777	0.463074	-1.46947	0.492814	-0.378177	-0.0445283	-0.823973	0.315457	-0.535856	0.0213935	-1.41542	0.650722	-1.1481	1.44129	-1.48509	1.71251	-1.7067	1.7857	-1.83368	1.65461	
0.637334	5.61218	0	5	0	0	-2.31357	1.42915	0	0	-2.11745	1.20084	0	0	-1.51871	0.877384	-0.405542	0.43405	-1.47193	0.487708	-0.380021	-0.064555	-0.822703	0.323675	-0.53884	-0.005106	-1.41657	0.64017	-1.15441	1.43002	-1.4814	1.71009	-1.70371	1.76632	-1.84577	1.63744	
0.635935	5.61218	0	5	0	0	-2.32527	1.44785	0	0	-2.117	1.22031	0	0	-1.5192	0.889795	-0.411388	0.427873	-1.48544	0.489836	-0.378802	-0.0680012	-0.821435	0.331906	-0.542016	-0.007761	-1.41484	0.635273	-1.14999	1.41752	-1.47489	1.70774	-1.70473	1.75829	-1.85037	1.62483	
0.634748	5.61371	0	5	0	0	-2.33697	1.46654	0	0	-2.11656	1.23978	0	0	-1.5197	0.902207	-0.417235	0.421696	-1.49895	0.491964	-0.377582	-0.0714475	-0.820167	0.340137	-0.545192	-0.010416	-1.41311	0.630375	-1.14557	1.40502	-1.46838	1.70538	-1.70575	1.75026	-1.85498	1.61221	
0.633848	5.61218	0	5	0	0	-2.34867	1.48524	0	0	-2.11611	1.25925	0	0	-1.52019	0.914618	-0.423081	0.415518	-1.51246	0.494092	-0.376362	-0.0748938	-0.8189	0.348369	-0.548367	-0.013071	-1.41138	0.625478	-1.14115	1.39253	-1.46187	1.70303	-1.70677	1.74223	-1.85958	1.5996	
0.63291	5.61066	0	5	0	0	-2.36037	1.50394	0	0	-2.11566	1.27872	0	0	-1.52069	0.927029	-0.428928	0.409341	-1.52598	0.49622	-0.375143	-0.07834	-0.817632	0.3566	-0.551543	-0.015726	-1.40964	0.62058	-1.13673	1.38003	-1.45535	1.70067	-1.70779	1.7342	-1.86418	1.58698	
