6.67114	0	0	-0.212674	0.25856	0.185116	0.377587	-0.323151	0.21079	0.028102	0.514168	0.037403	-0.010034	0.240518	-0.085838	-0.208186	0.147865	0.005264	0.022147	-0.382159	0.259218	0.204443	-0.125397	-0.07727	0.065655	0.218684	-0.106983	-0.042454	0.048978	0.181719	-0.095508	0.067745	-0.277305	0.063318	-0.170883	
6.67419	0	0	-0.216657	0.251154	0.183754	0.371415	-0.32615	0.200013	0.0202822	0.514099	0.0300625	-0.00523775	0.237929	-0.0998815	-0.22084	0.159421	-0.0160383	0.0377075	-0.400924	0.271479	0.186458	-0.113645	-0.09275	0.0741212	0.212672	-0.122216	-0.0497095	0.053719	0.174602	-0.0908575	0.0586995	-0.27556	0.0587317	-0.178068	
6.66809	0	0	-0.220641	0.243749	0.182391	0.365243	-0.329148	0.189236	0.0124625	0.514031	0.022722	-0.0004415	0.235341	-0.113925	-0.233494	0.170978	-0.0373405	0.053268	-0.419689	0.283741	0.168473	-0.101893	-0.10823	0.0825875	0.206659	-0.137448	-0.056965	0.05846	0.167484	-0.086207	0.049654	-0.273814	0.0541455	-0.185254	
6.66351	0	0	-0.224624	0.236343	0.181029	0.35907	-0.332147	0.178459	0.00464275	0.513962	0.0153815	0.00435475	0.232752	-0.127968	-0.246147	0.182535	-0.0586428	0.0688285	-0.438454	0.296002	0.150488	-0.0901418	-0.12371	0.0910538	0.200647	-0.15268	-0.0642205	0.063201	0.160367	-0.0815565	0.0406085	-0.272068	0.0495592	-0.192439	
6.66504	0	0	-0.228607	0.228937	0.179667	0.352898	-0.335145	0.167682	-0.003177	0.513893	0.008041	0.009151	0.230163	-0.142012	-0.258801	0.194091	-0.079945	0.084389	-0.457219	0.308263	0.132503	-0.07839	-0.13919	0.09952	0.194635	-0.167913	-0.071476	0.067942	0.15325	-0.076906	0.031563	-0.270323	0.044973	-0.199624	
6.66962	0	0	-0.232899	0.231741	0.17614	0.35285	-0.346746	0.171627	-0.014381	0.516039	0.000707	0.0139435	0.222664	-0.152811	-0.26917	0.199222	-0.102612	0.0975587	-0.476697	0.32263	0.111241	-0.0628583	-0.153677	0.112284	0.187027	-0.178579	-0.0794777	0.074805	0.141832	-0.0678085	0.025402	-0.276698	0.0487583	-0.220387	
6.67419	0	0	-0.23719	0.234546	0.172613	0.352803	-0.358347	0.175573	-0.025585	0.518185	-0.006627	0.018736	0.215164	-0.16361	-0.279539	0.204353	-0.125278	0.110729	-0.496176	0.336998	0.089978	-0.0473265	-0.168164	0.125047	0.179418	-0.189246	-0.0874795	0.081668	0.130414	-0.058711	0.019241	-0.283073	0.0525435	-0.24115	
6.68793	0	0	-0.241481	0.23735	0.169085	0.352755	-0.369947	0.179518	-0.036789	0.520332	-0.013961	0.0235285	0.207665	-0.174409	-0.289908	0.209484	-0.147945	0.123898	-0.515655	0.351365	0.0687155	-0.0317947	-0.18265	0.137811	0.17181	-0.199912	-0.0954813	0.088531	0.118997	-0.0496135	0.01308	-0.289449	0.0563287	-0.261914	
6.70471	0	0	-0.245773	0.240154	0.165558	0.352707	-0.381548	0.183464	-0.047993	0.522478	-0.021295	0.028321	0.200165	-0.185208	-0.300277	0.214615	-0.170611	0.137068	-0.535133	0.365733	0.047453	-0.016263	-0.197137	0.150575	0.164202	-0.210578	-0.103483	0.095394	0.107579	-0.040516	0.006919	-0.295824	0.060114	-0.282677	
6.70166	0	0	-0.25083	0.245125	0.162309	0.36189	-0.387878	0.182152	-0.053191	0.522427	-0.026181	0.0315135	0.19517	-0.192391	-0.315089	0.224294	-0.193969	0.152331	-0.550705	0.375908	0.0313498	-0.004102	-0.203614	0.154807	0.1608	-0.217027	-0.107106	0.097761	0.110379	-0.0407083	0.01526	-0.307507	0.0638482	-0.29323	
6.70013	0	0	-0.255887	0.250096	0.15906	0.371074	-0.394208	0.180839	-0.058389	0.522376	-0.031067	0.034706	0.190175	-0.199573	-0.329901	0.233972	-0.217328	0.167594	-0.566277	0.386083	0.0152465	0.008059	-0.210091	0.15904	0.157398	-0.223476	-0.110728	0.100128	0.113178	-0.0409005	0.023601	-0.319191	0.0675825	-0.303783	
6.71539	0	0	-0.260943	0.255068	0.15581	0.380257	-0.400538	0.179527	-0.063587	0.522325	-0.035953	0.0378985	0.185181	-0.206755	-0.344713	0.243651	-0.240686	0.182856	-0.58185	0.396258	-0.00085675	0.02022	-0.216568	0.163272	0.153996	-0.229926	-0.11435	0.102495	0.115978	-0.0410928	0.031942	-0.330874	0.0713168	-0.314337	
6.7215	0	0	-0.266	0.260039	0.152561	0.38944	-0.406868	0.178215	-0.068785	0.522274	-0.040839	0.041091	0.180186	-0.213938	-0.359525	0.253329	-0.264044	0.198119	-0.597422	0.406433	-0.01696	0.032381	-0.223045	0.167504	0.150594	-0.236375	-0.117973	0.104862	0.118778	-0.041285	0.040283	-0.342558	0.075051	-0.32489	
6.75506	0	0	-0.272271	0.259137	0.138745	0.398467	-0.415933	0.175067	-0.0827678	0.517638	-0.0481628	0.0458765	0.169104	-0.214521	-0.36986	0.258439	-0.281521	0.209539	-0.603643	0.410498	-0.02387	0.0352573	-0.223045	0.167504	0.149292	-0.240723	-0.107854	0.0998847	0.118778	-0.041285	0.0567213	-0.353299	0.0898888	-0.336612	
6.71692	0	0	-0.278543	0.258235	0.12493	0.407494	-0.424997	0.171919	-0.0967505	0.513001	-0.0554865	0.050662	0.158022	-0.215104	-0.380196	0.263548	-0.298998	0.220959	-0.609864	0.414563	-0.03078	0.0381335	-0.223045	0.167504	0.14799	-0.24507	-0.0977345	0.0949075	0.118778	-0.041285	0.0731595	-0.36404	0.104727	-0.348334	
6.7749	0	0	-0.284814	0.257332	0.111115	0.416522	-0.434061	0.168771	-0.110733	0.508365	-0.0628102	0.0554475	0.14694	-0.215687	-0.390531	0.268657	-0.316475	0.232378	-0.616084	0.418628	-0.03769	0.0410097	-0.223045	0.167504	0.146689	-0.249418	-0.0876152	0.0899303	0.118778	-0.041285	0.0895978	-0.374781	0.119564	-0.360056	
6.66351	0	0	-0.291085	0.25643	0.097299	0.425549	-0.443126	0.165623	-0.124716	0.503729	-0.070134	0.060233	0.135858	-0.21627	-0.400867	0.273767	-0.333952	0.243798	-0.622305	0.422693	-0.0446	0.043886	-0.223045	0.167504	0.145387	-0.253765	-0.077496	0.084953	0.118778	-0.041285	0.106036	-0.385522	0.134402	-0.371778	
6.62994	0	0	-0.298565	0.249665	0.0956778	0.410147	-0.440866	0.149658	-0.13134	0.485735	-0.0774515	0.0650145	0.127099	-0.233966	-0.405318	0.278319	-0.351394	0.255195	-0.626169	0.426858	-0.0581128	0.0543542	-0.223804	0.169649	0.141987	-0.260198	-0.0666102	0.07784	0.118778	-0.041285	0.114144	-0.384586	0.152977	-0.383915	
6.63147	0	0	-0.306044	0.242899	0.0940565	0.394744	-0.438606	0.133692	-0.137965	0.467742	-0.084769	0.069796	0.118339	-0.251661	-0.409769	0.282871	-0.368835	0.266591	-0.630032	0.431022	-0.0716255	0.0648225	-0.224563	0.171795	0.138587	-0.26663	-0.0557245	0.070727	0.118778	-0.041285	0.122251	-0.383651	0.171552	-0.396053	
6.63757	0	0	-0.313523	0.236134	0.0924352	0.379341	-0.436346	0.117727	-0.144589	0.449748	-0.0920865	0.0745775	0.10958	-0.269357	-0.41422	0.287424	-0.386277	0.277988	-0.633896	0.435186	-0.0851382	0.0752908	-0.225323	0.17394	0.135186	-0.273063	-0.0448387	0.063614	0.118778	-0.041285	0.130359	-0.382715	0.190128	-0.408191	
6.64215	0	0	-0.321003	0.229369	0.090814	0.363939	-0.434086	0.101762	-0.151214	0.431755	-0.099404	0.079359	0.10082	-0.287053	-0.418671	0.291976	-0.403718	0.289385	-0.63776	0.439351	-0.098651	0.085759	-0.226082	0.176086	0.131786	-0.279496	-0.033953	0.056501	0.118778	-0.041285	0.138466	-0.38178	0.208703	-0.420328	
6.6513	5	0	-0.321454	0.221353	0.0926985	0.348629	-0.438736	0.0957603	-0.159412	0.41828	-0.106715	0.0841362	0.0944505	-0.311407	-0.426812	0.29894	-0.421879	0.302893	-0.640113	0.439248	-0.110636	0.0919517	-0.225323	0.17394	0.13236	-0.297148	-0.0332005	0.0543745	0.115978	-0.0410928	0.155191	-0.405169	0.209647	-0.433093	
6.65893	5	0	-0.321906	0.213337	0.094583	0.333319	-0.443385	0.0897585	-0.167609	0.404805	-0.114027	0.0889135	0.088081	-0.335761	-0.434952	0.305903	-0.440041	0.316401	-0.642466	0.439146	-0.122621	0.0981445	-0.224563	0.171795	0.132935	-0.314801	-0.032448	0.052248	0.113178	-0.0409005	0.171916	-0.428559	0.210591	-0.445858	
6.6513	5	0	-0.322358	0.205321	0.0964675	0.318008	-0.448035	0.0837568	-0.175807	0.39133	-0.121338	0.0936908	0.0817115	-0.360114	-0.443093	0.312866	-0.458202	0.329909	-0.644818	0.439044	-0.134607	0.104337	-0.223804	0.169649	0.133509	-0.332453	-0.0316955	0.0501215	0.110379	-0.0407083	0.188642	-0.451948	0.211534	-0.458623	
6.65283	5	0	-0.322809	0.197305	0.098352	0.302698	-0.452685	0.077755	-0.184005	0.377855	-0.128649	0.098468	0.075342	-0.384468	-0.451233	0.31983	-0.476363	0.343417	-0.647171	0.438941	-0.146592	0.11053	-0.223045	0.167504	0.134083	-0.350105	-0.030943	0.047995	0.107579	-0.040516	0.205367	-0.475337	0.212478	-0.471388	
6.62994	5	0	-0.323263	0.189301	0.0969943	0.296557	-0.452101	0.0665415	-0.186249	0.362247	-0.135201	0.101112	0.0702615	-0.401813	-0.457854	0.322512	-0.492978	0.352633	-0.659591	0.447056	-0.15677	0.117181	-0.229517	0.171733	0.129376	-0.360819	-0.038954	0.0548645	0.0997232	-0.0337458	0.200101	-0.484334	0.215273	-0.489378	
6.62842	5	0	-0.323717	0.181296	0.0956365	0.290415	-0.451518	0.055328	-0.188493	0.346638	-0.141752	0.103756	0.065181	-0.419157	-0.464474	0.325194	-0.509594	0.361849	-0.67201	0.455171	-0.166948	0.123831	-0.235989	0.175962	0.124669	-0.371533	-0.046965	0.061734	0.0918675	-0.0269755	0.194835	-0.493331	0.218067	-0.507369	
6.64825	5	0	-0.324171	0.173291	0.0942787	0.284274	-0.450934	0.0441145	-0.190738	0.33103	-0.148304	0.106399	0.0601005	-0.436502	-0.471094	0.327875	-0.526209	0.371064	-0.68443	0.463286	-0.177126	0.130482	-0.242462	0.180191	0.119961	-0.382248	-0.054976	0.0686035	0.0840117	-0.0202053	0.18957	-0.502329	0.220861	-0.525359	
6.63147	5	0	-0.324625	0.165287	0.092921	0.278132	-0.45035	0.032901	-0.192982	0.315422	-0.154855	0.109043	0.05502	-0.453847	-0.477715	0.330557	-0.542825	0.38028	-0.696849	0.471401	-0.187304	0.137132	-0.248934	0.18442	0.115254	-0.392962	-0.062987	0.075473	0.076156	-0.013435	0.184304	-0.511326	0.223656	-0.543349	
6.61926	5	0	-0.335145	0.167185	0.0894082	0.278086	-0.458564	0.0274532	-0.197584	0.306502	-0.164585	0.115401	0.046383	-0.461087	-0.492451	0.340185	-0.560161	0.391607	-0.712348	0.481528	-0.19747	0.143775	-0.255401	0.188646	0.113949	-0.397274	-0.073111	0.0804533	0.08046	-0.0178845	0.183577	-0.521198	0.220869	-0.55564	
6.57806	5	0	-0.345666	0.169084	0.0858955	0.27804	-0.466778	0.0220055	-0.202185	0.297581	-0.174316	0.121759	0.037746	-0.468328	-0.507186	0.349814	-0.577496	0.402935	-0.727847	0.491656	-0.207636	0.150417	-0.261869	0.192872	0.112644	-0.401585	-0.083235	0.0854335	0.084764	-0.022334	0.182849	-0.531071	0.218081	-0.567932	
6.55517	5	0	-0.356187	0.170983	0.0823828	0.277994	-0.474993	0.0165578	-0.206787	0.288661	-0.184047	0.128117	0.029109	-0.475568	-0.521922	0.359442	-0.594831	0.414263	-0.743345	0.501783	-0.217802	0.15706	-0.268336	0.197098	0.11134	-0.405897	-0.093359	0.0904138	0.089068	-0.0267835	0.182122	-0.540944	0.215294	-0.580223	
6.66504	5	0	-0.366707	0.172881	0.07887	0.277948	-0.483207	0.01111	-0.211389	0.279741	-0.193777	0.134475	0.020472	-0.482808	-0.536657	0.369071	-0.612167	0.42559	-0.758844	0.51191	-0.227968	0.163703	-0.274803	0.201324	0.110035	-0.410209	-0.103483	0.095394	0.093372	-0.031233	0.181395	-0.550816	0.212507	-0.592514	
6.57501	5	0	-0.370661	0.165524	0.0772292	0.262653	-0.4881	-0.0036805	-0.217781	0.268614	-0.20425	0.142955	0.010666	-0.48669	-0.555798	0.383222	-0.632348	0.438777	-0.774315	0.522019	-0.233046	0.167021	-0.280506	0.203402	0.110035	-0.410209	-0.102731	0.093268	0.0976772	-0.035683	0.17328	-0.551715	0.215287	-0.60037	
6.61774	5	0	-0.374616	0.158168	0.0755885	0.247359	-0.492992	-0.018471	-0.224174	0.257486	-0.214722	0.151436	0.00086	-0.490572	-0.574939	0.397373	-0.652529	0.451963	-0.789786	0.532128	-0.238125	0.170339	-0.28621	0.205479	0.110035	-0.410209	-0.101978	0.091142	0.101983	-0.040133	0.165164	-0.552613	0.218066	-0.608225	
6.6452	5	0	-0.378571	0.150811	0.0739477	0.232064	-0.497885	-0.0332615	-0.230567	0.246359	-0.225195	0.159916	-0.008946	-0.494455	-0.594079	0.411525	-0.672709	0.465149	-0.805257	0.542237	-0.243204	0.173658	-0.291914	0.207556	0.110035	-0.410209	-0.101226	0.089016	0.106288	-0.044583	0.157049	-0.553512	0.220846	-0.616081	
6.64673	5	0	-0.382525	0.143454	0.072307	0.21677	-0.502778	-0.048052	-0.236959	0.235231	-0.235668	0.168396	-0.018752	-0.498337	-0.61322	0.425676	-0.69289	0.478336	-0.820728	0.552346	-0.248282	0.176976	-0.297617	0.209634	0.110035	-0.410209	-0.100474	0.08689	0.110593	-0.049033	0.148934	-0.554411	0.223626	-0.623937	
6.6391	5	0	-0.382979	0.135478	0.07553	0.207662	-0.506591	-0.0563302	-0.23282	0.230828	-0.237343	0.167853	-0.0212285	-0.501858	-0.624232	0.432871	-0.702279	0.486112	-0.833085	0.56042	-0.25082	0.178635	-0.304834	0.215998	0.114508	-0.414853	-0.10847	0.093749	0.116948	-0.0515485	0.143455	-0.550831	0.223626	-0.623937	
6.61011	5	0	-0.383433	0.127501	0.078753	0.198553	-0.510404	-0.0646085	-0.228681	0.226425	-0.239017	0.16731	-0.023705	-0.505378	-0.635243	0.440067	-0.711669	0.493889	-0.845441	0.568495	-0.253359	0.180293	-0.31205	0.222363	0.118982	-0.419496	-0.116465	0.100608	0.123302	-0.054064	0.137976	-0.54725	0.223626	-0.623937	
6.604	5	0	-0.383887	0.119525	0.081976	0.189445	-0.514217	-0.0728868	-0.224543	0.222022	-0.240692	0.166767	-0.0261815	-0.508899	-0.646254	0.447262	-0.721059	0.501665	-0.857798	0.576569	-0.255897	0.181951	-0.319267	0.228728	0.123455	-0.42414	-0.124461	0.107467	0.129657	-0.0565795	0.132496	-0.54367	0.223626	-0.623937	
6.63605	5	0	-0.384341	0.111549	0.085199	0.180337	-0.51803	-0.081165	-0.220404	0.217619	-0.242367	0.166224	-0.028658	-0.51242	-0.657266	0.454457	-0.730448	0.509442	-0.870155	0.584643	-0.258435	0.18361	-0.326483	0.235092	0.127929	-0.428783	-0.132457	0.114326	0.136012	-0.059095	0.127017	-0.54009	0.223626	-0.623937	
6.6513	5	0	-0.375815	0.105978	0.0946647	0.18349	-0.512821	-0.0863623	-0.209626	0.230986	-0.228542	0.158828	-0.010338	-0.511536	-0.656509	0.452318	-0.724693	0.505682	-0.884821	0.592587	-0.258435	0.18361	-0.328951	0.235056	0.136607	-0.429291	-0.138942	0.116929	0.150999	-0.070525	0.121769	-0.549046	0.229192	-0.629586	
6.66199	5	0	-0.36729	0.100407	0.104131	0.186643	-0.507611	-0.0915595	-0.198849	0.244352	-0.214716	0.151431	0.007982	-0.510652	-0.655752	0.45018	-0.718938	0.501921	-0.899487	0.60053	-0.258435	0.18361	-0.331419	0.235019	0.145285	-0.429798	-0.145427	0.119531	0.165986	-0.081955	0.116522	-0.558003	0.234758	-0.635235	
6.6803	5	0	-0.358765	0.0948367	0.113596	0.189796	-0.502402	-0.0967568	-0.188072	0.257719	-0.20089	0.144035	0.026302	-0.509768	-0.654996	0.448041	-0.713182	0.498161	-0.914154	0.608474	-0.258435	0.18361	-0.333887	0.234983	0.153963	-0.430306	-0.151911	0.122134	0.180974	-0.093385	0.111274	-0.566959	0.240324	-0.640884	
6.69556	5	0	-0.350239	0.089266	0.123062	0.192949	-0.497193	-0.101954	-0.177294	0.271085	-0.187065	0.136638	0.044622	-0.508884	-0.654239	0.445902	-0.707427	0.4944	-0.92882	0.616417	-0.258435	0.18361	-0.336355	0.234947	0.162641	-0.430813	-0.158396	0.124737	0.195961	-0.104815	0.106026	-0.575916	0.24589	-0.646533	
6.69861	5	0	-0.340481	0.089507	0.128235	0.208283	-0.504053	-0.0920897	-0.163681	0.291206	-0.172461	0.127096	0.0521945	-0.48805	-0.651327	0.445643	-0.693022	0.484987	-0.938059	0.622454	-0.258435	0.18361	-0.336355	0.234947	0.165261	-0.422187	-0.165627	0.129462	0.209465	-0.112002	0.0988865	-0.579496	0.252399	-0.644748	
6.69861	5	0	-0.330722	0.089748	0.133407	0.223618	-0.510914	-0.0822255	-0.150068	0.311327	-0.157857	0.117553	0.059767	-0.467216	-0.648415	0.445385	-0.678617	0.475575	-0.947299	0.628491	-0.258435	0.18361	-0.336355	0.234947	0.16788	-0.413562	-0.172858	0.134187	0.22297	-0.119189	0.091747	-0.583075	0.258907	-0.642964	
6.71387	5	0	-0.320964	0.089989	0.138579	0.238952	-0.517775	-0.0723613	-0.136455	0.331449	-0.143253	0.108011	0.0673395	-0.446381	-0.645503	0.445126	-0.664212	0.466162	-0.956538	0.634529	-0.258435	0.18361	-0.336355	0.234947	0.170499	-0.404936	-0.18009	0.138912	0.236475	-0.126376	0.0846075	-0.586655	0.265416	-0.641179	
6.72455	5	0	-0.311205	0.09023	0.143752	0.254286	-0.524635	-0.062497	-0.122842	0.35157	-0.128649	0.098468	0.074912	-0.425547	-0.642591	0.444867	-0.649807	0.456749	-0.965777	0.640566	-0.258435	0.18361	-0.336355	0.234947	0.173119	-0.39631	-0.187321	0.143637	0.249979	-0.133563	0.077468	-0.590235	0.271925	-0.639394	
6.72302	5	0	-0.311967	0.0923833	0.140516	0.263432	-0.529017	-0.059634	-0.117775	0.373964	-0.117214	0.0926338	0.0873615	-0.407803	-0.642591	0.444867	-0.638266	0.449208	-0.975006	0.646597	-0.253358	0.180293	-0.337114	0.237092	0.186825	-0.394913	-0.187321	0.143637	0.261441	-0.142689	0.0674955	-0.585778	0.281238	-0.635405	
6.72455	5	0	-0.312729	0.0945365	0.13728	0.272577	-0.533398	-0.056771	-0.112707	0.396358	-0.105779	0.0867995	0.099811	-0.390058	-0.642591	0.444867	-0.626724	0.441667	-0.984236	0.652627	-0.248281	0.176976	-0.337873	0.239237	0.200531	-0.393516	-0.187321	0.143637	0.272903	-0.151816	0.057523	-0.581322	0.290552	-0.631417	
6.72302	5	0	-0.313491	0.0966898	0.134044	0.281722	-0.537779	-0.053908	-0.107639	0.418751	-0.094344	0.0809653	0.11226	-0.372314	-0.642591	0.444867	-0.615182	0.434125	-0.993465	0.658657	-0.243204	0.173658	-0.338632	0.241382	0.214237	-0.392118	-0.187321	0.143637	0.284366	-0.160942	0.0475505	-0.576865	0.299866	-0.627428	
6.72455	5	0	-0.314253	0.098843	0.130808	0.290868	-0.542161	-0.051045	-0.102572	0.441145	-0.082909	0.075131	0.12471	-0.354569	-0.642591	0.444867	-0.603641	0.426584	-1.00269	0.664688	-0.238127	0.170341	-0.339391	0.243527	0.227943	-0.390721	-0.187321	0.143637	0.295828	-0.170069	0.037578	-0.572408	0.309179	-0.623439	
6.72302	5	0	-0.309219	0.0938983	0.135408	0.287862	-0.542161	-0.051045	-0.0925393	0.456945	-0.0731452	0.0687512	0.13708	-0.347077	-0.642591	0.444867	-0.592084	0.419032	-1.01191	0.670712	-0.233047	0.167021	-0.341858	0.24349	0.229257	-0.386397	-0.188073	0.145763	0.305797	-0.174946	0.0340182	-0.574199	0.313848	-0.6164	
6.71692	5	0	-0.304184	0.0889535	0.140009	0.284857	-0.542161	-0.051045	-0.0825065	0.472745	-0.0633815	0.0623715	0.14945	-0.339585	-0.642591	0.444867	-0.580527	0.411481	-1.02113	0.676736	-0.227967	0.163702	-0.344325	0.243453	0.230571	-0.382073	-0.188825	0.147889	0.315765	-0.179823	0.0304585	-0.575991	0.318518	-0.609362	
6.71539	5	0	-0.29915	0.0840087	0.144609	0.281851	-0.542161	-0.051045	-0.0724738	0.488546	-0.0536177	0.0559918	0.16182	-0.332094	-0.642591	0.444867	-0.56897	0.403929	-1.03035	0.682761	-0.222887	0.160383	-0.346791	0.243415	0.231885	-0.377749	-0.189578	0.150015	0.325734	-0.184701	0.0268987	-0.577783	0.323187	-0.602324	
6.70929	5	0	-0.294116	0.079064	0.149209	0.278845	-0.542161	-0.051045	-0.062441	0.504346	-0.043854	0.049612	0.17419	-0.324602	-0.642591	0.444867	-0.557413	0.396377	-1.03957	0.688785	-0.217807	0.157063	-0.349258	0.243378	0.233199	-0.373425	-0.19033	0.152141	0.335703	-0.189578	0.023339	-0.579574	0.327856	-0.595285	
6.70776	5	0	-0.286327	0.0756297	0.155177	0.281983	-0.537779	-0.053908	-0.053189	0.522458	-0.0340792	0.0432248	0.181689	-0.313892	-0.638921	0.442469	-0.54584	0.388815	-1.04647	0.69493	-0.215266	0.155402	-0.356465	0.249736	0.236899	-0.375843	-0.201165	0.159221	0.335703	-0.189578	0.024511	-0.594731	0.325996	-0.59003	
6.69861	5	0	-0.278537	0.0721955	0.161145	0.285122	-0.533398	-0.056771	-0.043937	0.540569	-0.0243045	0.0368375	0.189188	-0.303181	-0.63525	0.440071	-0.534268	0.381254	-1.05336	0.701075	-0.212724	0.153742	-0.363672	0.256095	0.2406	-0.378262	-0.212	0.166301	0.335703	-0.189578	0.025683	-0.609889	0.324137	-0.584776	
6.69556	5	0	-0.270748	0.0687612	0.167114	0.28826	-0.529017	-0.059634	-0.034685	0.558681	-0.0145298	0.0304503	0.196686	-0.292471	-0.63158	0.437672	-0.522695	0.373692	-1.06026	0.70722	-0.210183	0.152082	-0.370879	0.262453	0.244301	-0.38068	-0.222836	0.173381	0.335703	-0.189578	0.026855	-0.625047	0.322277	-0.579521	
6.70013	5	0	-0.262959	0.065327	0.173082	0.291398	-0.524635	-0.062497	-0.025433	0.576793	-0.004755	0.024063	0.204185	-0.281761	-0.627909	0.435274	-0.511122	0.36613	-1.06715	0.713365	-0.207642	0.150421	-0.378086	0.268811	0.248001	-0.383098	-0.233671	0.180461	0.335703	-0.189578	0.028027	-0.640204	0.320418	-0.574266	
6.6925	5	0	-0.253166	0.0655535	0.186121	0.294625	-0.523557	-0.0560198	-0.0187803	0.594954	0.00258325	0.019268	0.215399	-0.270832	-0.624237	0.432874	-0.500289	0.360693	-1.07329	0.717375	-0.200768	0.147568	-0.378845	0.270957	0.250908	-0.383269	-0.240887	0.185176	0.33495	-0.187448	0.0218573	-0.646433	0.326008	-0.579939	
6.69403	5	0	-0.243372	0.06578	0.19916	0.297851	-0.522478	-0.0495425	-0.0121275	0.613115	0.0099215	0.014473	0.226612	-0.259902	-0.620564	0.430475	-0.489456	0.355256	-1.07943	0.721385	-0.193895	0.144716	-0.379604	0.273102	0.253814	-0.38344	-0.248103	0.189891	0.334196	-0.185318	0.0156875	-0.652663	0.331598	-0.585611	
6.69556	5	0	-0.233579	0.0660065	0.212199	0.301077	-0.5214	-0.0430652	-0.00547475	0.631275	0.0172598	0.009678	0.237826	-0.248973	-0.616892	0.428075	-0.478624	0.349819	-1.08556	0.725394	-0.187022	0.141864	-0.380363	0.275247	0.256721	-0.383611	-0.255318	0.194606	0.333442	-0.183189	0.00951775	-0.658892	0.337188	-0.591284	
6.69861	5	0	-0.223786	0.066233	0.225238	0.304304	-0.520322	-0.036588	0.001178	0.649436	0.024598	0.004883	0.24904	-0.238044	-0.61322	0.425676	-0.467791	0.344382	-1.0917	0.729404	-0.180148	0.139011	-0.381122	0.277393	0.259628	-0.383782	-0.262534	0.199321	0.332689	-0.181059	0.003348	-0.665122	0.342778	-0.596957	
6.69861	5	0	-0.217503	0.0671008	0.219823	0.319609	-0.516763	-0.037117	5E-07	0.66757	0.0319427	8.4E-05	0.251645	-0.224059	-0.60879	0.421137	-0.455431	0.334665	-1.0917	0.729404	-0.172513	0.134022	-0.381122	0.277393	0.258832	-0.381533	-0.263286	0.201448	0.32836	-0.176592	0.00073725	-0.669566	0.345581	-0.594747	
6.70471	5	0	-0.211219	0.0679685	0.214407	0.334915	-0.513203	-0.037646	-0.001177	0.685703	0.0392875	-0.004715	0.25425	-0.210074	-0.604359	0.416598	-0.443072	0.324947	-1.0917	0.729404	-0.164878	0.129034	-0.381122	0.277393	0.258037	-0.379285	-0.264039	0.203574	0.32403	-0.172126	-0.0018735	-0.674009	0.348384	-0.592538	
6.70318	5	0	-0.204935	0.0688363	0.208991	0.35022	-0.509644	-0.038175	-0.0023545	0.703836	0.0466323	-0.009514	0.256856	-0.196089	-0.599929	0.412058	-0.430712	0.315229	-1.0917	0.729404	-0.157244	0.124046	-0.381122	0.277393	0.257241	-0.377036	-0.264792	0.205701	0.319701	-0.16766	-0.00448425	-0.678452	0.351187	-0.590328	
6.69403	5	0	-0.198652	0.069704	0.203576	0.365525	-0.506085	-0.038704	-0.003532	0.72197	0.053977	-0.014313	0.259461	-0.182104	-0.595499	0.407519	-0.418353	0.305512	-1.0917	0.729404	-0.149609	0.119057	-0.381122	0.277393	0.256445	-0.374787	-0.265544	0.207828	0.315372	-0.163193	-0.007095	-0.682896	0.35399	-0.588119	
6.69861	5	0	-0.200651	0.0660363	0.20466	0.362462	-0.507991	-0.042847	-0.000923	0.722004	0.0556728	-0.013783	0.257051	-0.175292	-0.59258	0.407257	-0.416205	0.30575	-1.0917	0.729404	-0.144515	0.115729	-0.380363	0.275247	0.259353	-0.374958	-0.268397	0.208057	0.312552	-0.162988	-0.008763	-0.689997	0.352129	-0.582859	
6.70318	5	0	-0.202649	0.0623685	0.205744	0.359398	-0.509897	-0.04699	0.001686	0.722038	0.0573685	-0.013253	0.25464	-0.16848	-0.589662	0.406994	-0.414057	0.305988	-1.0917	0.729404	-0.139422	0.112401	-0.379604	0.273102	0.262261	-0.375129	-0.271251	0.208287	0.309731	-0.162782	-0.010431	-0.697097	0.350268	-0.5776	
6.70013	5	0	-0.204647	0.0587007	0.206828	0.356335	-0.511803	-0.051133	0.004295	0.722072	0.0590642	-0.012723	0.252229	-0.161668	-0.586744	0.406732	-0.411909	0.306227	-1.0917	0.729404	-0.134328	0.109072	-0.378845	0.270957	0.265169	-0.3753	-0.274104	0.208516	0.306911	-0.162577	-0.012099	-0.704198	0.348407	-0.57234	
6.69861	5	0	-0.206646	0.055033	0.207912	0.353272	-0.513709	-0.055276	0.006904	0.722106	0.06076	-0.012193	0.249819	-0.154856	-0.583825	0.406469	-0.409761	0.306465	-1.0917	0.729404	-0.129235	0.105744	-0.378086	0.268811	0.268077	-0.375471	-0.276957	0.208745	0.304091	-0.162372	-0.013767	-0.711299	0.346546	-0.567081	
6.69708	5	0	-0.200833	0.0479215	0.217149	0.347236	-0.511231	-0.0622795	0.006904	0.722106	0.0639643	-0.0159248	0.252229	-0.161668	-0.583825	0.406469	-0.403196	0.300533	-1.09783	0.733411	-0.126687	0.104079	-0.384529	0.273021	0.26676	-0.379797	-0.292117	0.220286	0.296947	-0.157704	-0.0189857	-0.720156	0.340014	-0.568877	
6.69556	5	0	-0.195021	0.04081	0.226387	0.3412	-0.508753	-0.069283	0.006904	0.722106	0.0671685	-0.0196565	0.25464	-0.16848	-0.583825	0.406469	-0.39663	0.294601	-1.10396	0.737418	-0.124139	0.102414	-0.390972	0.277231	0.265443	-0.384123	-0.307277	0.231827	0.289803	-0.153036	-0.0242045	-0.729014	0.333482	-0.570674	
6.69556	5	0	-0.189209	0.0336985	0.235625	0.335164	-0.506275	-0.0762865	0.006904	0.722106	0.0703727	-0.0233882	0.257051	-0.175292	-0.583825	0.406469	-0.390065	0.28867	-1.11009	0.741424	-0.121591	0.100749	-0.397415	0.281441	0.264127	-0.388448	-0.322436	0.243367	0.28266	-0.148369	-0.0294232	-0.737872	0.32695	-0.57247	
6.69098	5	0	-0.183396	0.026587	0.244862	0.329128	-0.503797	-0.08329	0.006904	0.722106	0.073577	-0.02712	0.259461	-0.182104	-0.583825	0.406469	-0.3835	0.282738	-1.11623	0.745431	-0.119043	0.099084	-0.403858	0.285651	0.26281	-0.392774	-0.337596	0.254908	0.275516	-0.143701	-0.034642	-0.746729	0.320418	-0.574266	
6.6864	5	0	-0.173291	0.016672	0.257653	0.323125	-0.496935	-0.093154	0.00930425	0.715323	0.067923	-0.0217877	0.256956	-0.1857	-0.580148	0.404066	-0.381349	0.282974	-1.11623	0.745431	-0.119043	0.099084	-0.403858	0.285651	0.262288	-0.399342	-0.351227	0.26218	0.261246	-0.134377	-0.0415258	-0.762628	0.318536	-0.589182	
6.68182	5	0	-0.163185	0.006757	0.270444	0.317122	-0.490073	-0.103018	0.0117045	0.708539	0.062269	-0.0164555	0.25445	-0.189296	-0.576472	0.401664	-0.379198	0.283211	-1.11623	0.745431	-0.119043	0.099084	-0.403858	0.285651	0.261765	-0.40591	-0.364858	0.269452	0.246976	-0.125053	-0.0484095	-0.778528	0.316654	-0.604097	
6.6803	5	0	-0.15308	-0.003158	0.283235	0.311119	-0.48321	-0.112882	0.0141047	0.701755	0.056615	-0.0111233	0.251945	-0.192892	-0.572795	0.399262	-0.377047	0.283447	-1.11623	0.745431	-0.119043	0.099084	-0.403858	0.285651	0.261242	-0.412477	-0.378489	0.276723	0.232707	-0.115729	-0.0552933	-0.794428	0.314772	-0.619013	
6.68182	5	0	-0.142975	-0.013073	0.296026	0.305116	-0.476348	-0.122746	0.016505	0.694972	0.050961	-0.005791	0.249439	-0.196488	-0.569118	0.396859	-0.374896	0.283683	-1.11623	0.745431	-0.119043	0.099084	-0.403858	0.285651	0.26072	-0.419045	-0.39212	0.283995	0.218437	-0.106405	-0.062177	-0.810327	0.31289	-0.633928	
6.67572	5	0	-0.141451	-0.017379	0.290314	0.311204	-0.477436	-0.129202	0.0102777	0.690358	0.0468177	-0.00472175	0.244431	-0.20367	-0.569118	0.396859	-0.37414	0.281548	-1.11929	0.747433	-0.121591	0.100749	-0.407837	0.2899	0.257291	-0.42543	-0.399303	0.288689	0.208504	-0.101552	-0.0619745	-0.822669	0.305428	-0.643148	
6.67724	5	0	-0.139927	-0.021685	0.284602	0.317292	-0.478523	-0.135658	0.0040505	0.685744	0.0426745	-0.0036525	0.239423	-0.210851	-0.569118	0.396859	-0.373385	0.279413	-1.12235	0.749435	-0.124139	0.102414	-0.411816	0.294149	0.253862	-0.431816	-0.406485	0.293382	0.198571	-0.0966985	-0.061772	-0.83501	0.297965	-0.652368	
6.67572	5	0	-0.138404	-0.025991	0.278891	0.323379	-0.47961	-0.142114	-0.00217675	0.681129	0.0385313	-0.00258325	0.234415	-0.218033	-0.569118	0.396859	-0.37263	0.277277	-1.12542	0.751438	-0.126687	0.104079	-0.415794	0.298399	0.250432	-0.438202	-0.413668	0.298075	0.188638	-0.0918453	-0.0615695	-0.847352	0.290502	-0.661588	
6.67114	5	0	-0.13688	-0.030297	0.273179	0.329467	-0.480698	-0.14857	-0.008404	0.676515	0.034388	-0.001514	0.229407	-0.225215	-0.569118	0.396859	-0.371874	0.275142	-1.12848	0.75344	-0.129235	0.105744	-0.419773	0.302648	0.247003	-0.444587	-0.42085	0.302769	0.178705	-0.086992	-0.061367	-0.859694	0.28304	-0.670808	
6.66962	5	0	-0.142416	-0.0332957	0.269349	0.320199	-0.487256	-0.158596	-0.0158452	0.660582	0.0238483	0.007011	0.219503	-0.229182	-0.573552	0.401401	-0.378441	0.281075	-1.13079	0.753309	-0.131028	0.105277	-0.422233	0.302605	0.242783	-0.448723	-0.424439	0.305114	0.168032	-0.0800177	-0.0684503	-0.863193	0.283021	-0.680846	
6.66962	5	0	-0.147952	-0.0362945	0.265519	0.310932	-0.493814	-0.168623	-0.0232865	0.64465	0.0133085	0.015536	0.209599	-0.233149	-0.577986	0.405942	-0.385008	0.287007	-1.1331	0.753178	-0.132821	0.104809	-0.424692	0.302563	0.238562	-0.452858	-0.428028	0.307459	0.157359	-0.0730435	-0.0755335	-0.866693	0.283002	-0.690884	
6.66656	5	0	-0.153488	-0.0392933	0.261689	0.301664	-0.500372	-0.178649	-0.0307277	0.628718	0.00276875	0.024061	0.199695	-0.237116	-0.582419	0.410484	-0.391576	0.29294	-1.13541	0.753046	-0.134614	0.104342	-0.427152	0.302521	0.234341	-0.456993	-0.431617	0.309804	0.146685	-0.0660692	-0.0826168	-0.870193	0.282983	-0.700923	
6.66504	5	0	-0.159024	-0.042292	0.257859	0.292396	-0.50693	-0.188675	-0.038169	0.612785	-0.007771	0.032586	0.189791	-0.241083	-0.586853	0.415026	-0.398143	0.298873	-1.13772	0.752915	-0.136407	0.103875	-0.429611	0.302478	0.230121	-0.461129	-0.435206	0.312149	0.136012	-0.059095	-0.0897	-0.873692	0.282964	-0.710961	
6.66504	5	0	-0.168077	-0.0446375	0.259728	0.277077	-0.508288	-0.203852	-0.0388182	0.592477	-0.021675	0.0400332	0.179806	-0.255387	-0.594202	0.419828	-0.409755	0.306461	-1.14384	0.756916	-0.140745	0.105071	-0.435285	0.304537	0.227487	-0.469735	-0.438794	0.314493	0.128904	-0.0544503	-0.0887655	-0.876333	0.281094	-0.715762	
6.66351	5	0	-0.17713	-0.046983	0.261597	0.261757	-0.509646	-0.219029	-0.0394675	0.572169	-0.035579	0.0474805	0.16982	-0.269692	-0.60155	0.424629	-0.421367	0.314048	-1.14996	0.760917	-0.145083	0.106267	-0.44096	0.306596	0.224853	-0.478341	-0.442381	0.316837	0.121796	-0.0498055	-0.087831	-0.878974	0.279223	-0.720564	
6.65741	5	0	-0.186184	-0.0493285	0.263465	0.246438	-0.511004	-0.234206	-0.0401167	0.551861	-0.049483	0.0549277	0.159835	-0.283996	-0.608899	0.429431	-0.432979	0.321635	-1.15609	0.764918	-0.149421	0.107463	-0.446634	0.308654	0.22222	-0.486948	-0.445969	0.319182	0.114687	-0.0451607	-0.0868965	-0.881615	0.277353	-0.725365	
6.65893	5	0	-0.195237	-0.051674	0.265334	0.231119	-0.512362	-0.249383	-0.040766	0.531553	-0.063387	0.062375	0.14985	-0.298301	-0.616248	0.434233	-0.444591	0.329223	-1.16221	0.768919	-0.153759	0.108659	-0.452308	0.310713	0.219586	-0.495554	-0.449557	0.321526	0.107579	-0.040516	-0.085962	-0.884256	0.275483	-0.730167	
6.65436	5	0	-0.192198	-0.060261	0.268573	0.221964	-0.512634	-0.258113	-0.041208	0.518055	-0.073899	0.0708817	0.144863	-0.305433	-0.61992	0.436632	-0.45329	0.334907	-1.16221	0.768919	-0.159602	0.114116	-0.456282	0.314959	0.21537	-0.499675	-0.456728	0.326211	0.0933802	-0.0312383	-0.0902382	-0.895657	0.277302	-0.74539	
6.65436	5	0	-0.18916	-0.068848	0.271813	0.212809	-0.512907	-0.266844	-0.04165	0.504557	-0.084411	0.0793885	0.139877	-0.312566	-0.623592	0.439032	-0.461988	0.340591	-1.16221	0.768919	-0.165445	0.119572	-0.460256	0.319204	0.211154	-0.503796	-0.463898	0.330897	0.0791815	-0.0219605	-0.0945145	-0.907059	0.279122	-0.760613	
6.65436	5	0	-0.186121	-0.077435	0.275052	0.203655	-0.51318	-0.275575	-0.042092	0.49106	-0.094923	0.0878953	0.13489	-0.319698	-0.627265	0.441431	-0.470687	0.346274	-1.16221	0.768919	-0.171288	0.125028	-0.46423	0.32345	0.206939	-0.507918	-0.471069	0.335583	0.0649828	-0.0126827	-0.0987908	-0.918461	0.280941	-0.775836	
6.65283	5	0	-0.183083	-0.086022	0.278291	0.1945	-0.513452	-0.284305	-0.042534	0.477562	-0.105435	0.096402	0.129903	-0.326831	-0.630937	0.443831	-0.479385	0.351958	-1.16221	0.768919	-0.177131	0.130485	-0.468204	0.327695	0.202723	-0.512039	-0.478239	0.340268	0.050784	-0.003405	-0.103067	-0.929862	0.28276	-0.791059	
6.65283	5	0	-0.183083	-0.086022	0.279672	0.200636	-0.514271	-0.281989	-0.046718	0.482018	-0.109556	0.0974568	0.123828	-0.320265	-0.63385	0.44409	-0.484424	0.353609	-1.15609	0.764918	-0.177131	0.130485	-0.464989	0.325595	0.200616	-0.514098	-0.474655	0.337926	0.047238	-0.001088	-0.1094	-0.923698	0.276252	-0.792812	
6.65893	5	0	-0.183083	-0.086022	0.281053	0.206772	-0.515091	-0.279672	-0.050902	0.486474	-0.113677	0.0985115	0.117752	-0.313699	-0.636764	0.444349	-0.489463	0.35526	-1.14996	0.760917	-0.177131	0.130485	-0.461774	0.323494	0.19851	-0.516157	-0.47107	0.335584	0.043692	0.001229	-0.115733	-0.917534	0.269744	-0.794566	
6.65893	5	0	-0.183083	-0.086022	0.282433	0.212908	-0.515911	-0.277356	-0.055086	0.490929	-0.117798	0.0995662	0.111677	-0.307133	-0.639678	0.444608	-0.494501	0.35691	-1.14384	0.756916	-0.177131	0.130485	-0.458559	0.321393	0.196403	-0.518216	-0.467485	0.333241	0.040146	0.003546	-0.122065	-0.91137	0.263235	-0.796319	
6.66199	5	0	-0.183083	-0.086022	0.283814	0.219044	-0.51673	-0.27504	-0.05927	0.495385	-0.121919	0.100621	0.105602	-0.300567	-0.642591	0.444867	-0.49954	0.358561	-1.13772	0.752915	-0.177131	0.130485	-0.455344	0.319293	0.194296	-0.520275	-0.463901	0.330899	0.0366	0.005863	-0.128398	-0.905206	0.256727	-0.798072	
6.66046	5	0	-0.190883	-0.0825745	0.275951	0.231227	-0.52192	-0.269867	-0.062442	0.504349	-0.126037	0.101674	0.100818	-0.287046	-0.642591	0.444867	-0.49954	0.358561	-1.12852	0.746908	-0.169496	0.125496	-0.448911	0.315089	0.194029	-0.511509	-0.456727	0.326211	0.040146	0.003546	-0.128599	-0.892905	0.263235	-0.796319	
6.66351	5	0	-0.198684	-0.079127	0.268089	0.24341	-0.527111	-0.264694	-0.065614	0.513313	-0.130155	0.102727	0.0960335	-0.273525	-0.642591	0.444867	-0.49954	0.358561	-1.11933	0.740901	-0.161861	0.120507	-0.442478	0.310886	0.193763	-0.502743	-0.449553	0.321524	0.043692	0.001229	-0.1288	-0.880603	0.269744	-0.794566	
6.67114	5	0	-0.206485	-0.0756795	0.260226	0.255593	-0.532301	-0.259522	-0.068786	0.522278	-0.134274	0.103781	0.0912493	-0.260004	-0.642591	0.444867	-0.49954	0.358561	-1.11014	0.734895	-0.154227	0.115519	-0.436044	0.306682	0.193497	-0.493977	-0.44238	0.316837	0.047238	-0.001088	-0.129001	-0.868302	0.276252	-0.792812	
6.66962	5	0	-0.214285	-0.072232	0.252363	0.267776	-0.537491	-0.254349	-0.071958	0.531242	-0.138392	0.104834	0.086465	-0.246483	-0.642591	0.444867	-0.49954	0.358561	-1.10095	0.728888	-0.146592	0.11053	-0.429611	0.302478	0.19323	-0.485211	-0.435206	0.312149	0.050784	-0.003405	-0.129202	-0.856001	0.28276	-0.791059	
6.66962	5	0	-0.214285	-0.072232	0.251281	0.270833	-0.539131	-0.249713	-0.069937	0.540272	-0.141581	0.108555	0.082872	-0.236329	-0.638921	0.442469	-0.493746	0.354775	-1.09174	0.722875	-0.141498	0.107202	-0.422414	0.296126	0.193752	-0.478671	-0.424434	0.305111	0.061431	-0.010362	-0.126812	-0.839268	0.280941	-0.775836	
6.67114	5	0	-0.214285	-0.072232	0.2502	0.27389	-0.540771	-0.245078	-0.067916	0.549301	-0.144769	0.112277	0.079279	-0.226175	-0.63525	0.440071	-0.487951	0.350989	-1.08254	0.716862	-0.136405	0.103874	-0.415216	0.289775	0.194275	-0.472131	-0.413663	0.298072	0.072078	-0.017319	-0.124423	-0.822534	0.279122	-0.760613	
6.67267	5	0	-0.214285	-0.072232	0.249118	0.276947	-0.542412	-0.240443	-0.065895	0.558331	-0.147958	0.115998	0.075686	-0.21602	-0.63158	0.437672	-0.482157	0.347203	-1.07334	0.710848	-0.131311	0.100545	-0.408019	0.283423	0.194797	-0.465591	-0.402892	0.291034	0.082725	-0.024276	-0.122033	-0.8058	0.277302	-0.74539	
6.66656	5	0	-0.214285	-0.072232	0.248036	0.280004	-0.544052	-0.235807	-0.063874	0.567361	-0.151147	0.119719	0.072093	-0.205866	-0.627909	0.435274	-0.476363	0.343417	-1.06413	0.704835	-0.126218	0.097217	-0.400822	0.277071	0.195319	-0.459051	-0.39212	0.283995	0.093372	-0.031233	-0.119643	-0.789067	0.275483	-0.730167	
6.66504	5	0	-0.211525	-0.0707363	0.248326	0.289223	-0.541057	-0.225276	-0.0606348	0.587724	-0.14384	0.114945	0.083232	-0.194895	-0.620563	0.430474	-0.458957	0.332044	-1.05185	0.696807	-0.117818	0.0900897	-0.391156	0.270755	0.192149	-0.450091	-0.388526	0.281647	0.093372	-0.031233	-0.127862	-0.777587	0.281998	-0.728401	
6.66656	5	0	-0.208765	-0.0692405	0.248616	0.298442	-0.538061	-0.214745	-0.0573955	0.608087	-0.136533	0.11017	0.094371	-0.183924	-0.613217	0.425674	-0.441551	0.32067	-1.03956	0.688779	-0.109418	0.0829625	-0.38149	0.264439	0.188978	-0.441132	-0.384933	0.279299	0.093372	-0.031233	-0.13608	-0.766108	0.288513	-0.726635	
6.66351	5	0	-0.206004	-0.0677448	0.248906	0.307661	-0.535066	-0.204214	-0.0541562	0.62845	-0.129226	0.105396	0.10551	-0.172952	-0.605872	0.420874	-0.424145	0.309297	-1.02728	0.680751	-0.101018	0.0758353	-0.371823	0.258122	0.185808	-0.432172	-0.38134	0.276951	0.093372	-0.031233	-0.144299	-0.754628	0.295029	-0.724868	
6.66351	5	0	-0.203244	-0.066249	0.249196	0.31688	-0.532071	-0.193683	-0.050917	0.648813	-0.121919	0.100621	0.116649	-0.161981	-0.598526	0.416074	-0.406739	0.297924	-1.01499	0.672723	-0.092618	0.068708	-0.362157	0.251806	0.182638	-0.423212	-0.377746	0.274603	0.093372	-0.031233	-0.152518	-0.743149	0.301544	-0.723102	
6.66046	5	0	-0.19924	-0.058958	0.250851	0.332294	-0.529901	-0.180801	-0.0474858	0.676079	-0.112167	0.0942485	0.118088	-0.134145	-0.583816	0.406462	-0.37765	0.278917	-0.999609	0.662672	-0.0773055	0.0587025	-0.349251	0.243373	0.190543	-0.421482	-0.377746	0.274603	0.100477	-0.0358757	-0.149925	-0.738728	0.294124	-0.712225	
6.65893	5	0	-0.195236	-0.051667	0.252507	0.347708	-0.52773	-0.167919	-0.0440545	0.703345	-0.102414	0.087876	0.119527	-0.106309	-0.569105	0.39685	-0.348561	0.25991	-0.984227	0.652621	-0.061993	0.048697	-0.336346	0.23494	0.198447	-0.419752	-0.377746	0.274603	0.107582	-0.0405185	-0.147333	-0.734308	0.286705	-0.701348	
6.65893	5	0	-0.191232	-0.044376	0.254162	0.363122	-0.52556	-0.155037	-0.0406232	0.730611	-0.0926615	0.0815035	0.120965	-0.0784723	-0.554395	0.387238	-0.319473	0.240902	-0.968844	0.64257	-0.0466805	0.0386915	-0.323441	0.226508	0.206351	-0.418022	-0.377746	0.274603	0.114688	-0.0451613	-0.14474	-0.729887	0.279285	-0.690471	
6.65741	5	0	-0.187228	-0.037085	0.255817	0.378536	-0.52339	-0.142155	-0.037192	0.757877	-0.082909	0.075131	0.122404	-0.050636	-0.539684	0.377626	-0.290384	0.221895	-0.953462	0.632519	-0.031368	0.028686	-0.310535	0.218075	0.214256	-0.416292	-0.377746	0.274603	0.121793	-0.049804	-0.142148	-0.725466	0.271865	-0.679594	
6.65741	5	0	-0.18951	-0.0306348	0.253922	0.393945	-0.52751	-0.13051	-0.0373935	0.78066	-0.0755872	0.0703467	0.126234	-0.0295045	-0.524949	0.367998	-0.267042	0.206643	-0.938052	0.62245	-0.0193408	0.0224655	-0.304075	0.213854	0.216883	-0.407653	-0.374903	0.27438	0.124594	-0.049997	-0.143087	-0.722813	0.277454	-0.6752	
6.65893	5	0	-0.191793	-0.0241845	0.252028	0.409354	-0.531631	-0.118865	-0.037595	0.803442	-0.0682655	0.0655625	0.130065	-0.008373	-0.510213	0.358369	-0.243699	0.19139	-0.922643	0.612381	-0.0073135	0.016245	-0.297615	0.209633	0.21951	-0.399014	-0.372061	0.274158	0.127395	-0.05019	-0.144025	-0.72016	0.283043	-0.670805	
6.66199	5	0	-0.194076	-0.0177343	0.250133	0.424763	-0.535752	-0.10722	-0.0377965	0.826224	-0.0609438	0.0607783	0.133896	0.0127585	-0.495478	0.348741	-0.220357	0.176138	-0.907233	0.602312	0.00471375	0.0100245	-0.291155	0.205412	0.222137	-0.390374	-0.369218	0.273935	0.130197	-0.050383	-0.144963	-0.717508	0.288632	-0.666411	
6.66351	5	0	-0.196358	-0.011284	0.248238	0.440172	-0.539872	-0.095575	-0.037998	0.849007	-0.053622	0.055994	0.137726	0.03389	-0.480742	0.339112	-0.197015	0.160885	-0.891823	0.592243	0.016741	0.003804	-0.284695	0.201191	0.224764	-0.381735	-0.366375	0.273713	0.132998	-0.050576	-0.145902	-0.714855	0.294221	-0.662016	
6.67419	5	0	-0.194836	-0.0155847	0.252868	0.437147	-0.539048	-0.0979052	-0.0351945	0.855907	-0.053622	0.055994	0.134092	0.044161	-0.465981	0.329467	-0.173609	0.145591	-0.883319	0.588325	0.0236647	0.00091875	-0.282222	0.201224	0.222378	-0.374993	-0.362779	0.271363	0.128689	-0.0461233	-0.153187	-0.706014	0.295163	-0.654575	
6.6864	5	0	-0.193315	-0.0198855	0.257498	0.434121	-0.538223	-0.100236	-0.032391	0.862807	-0.053622	0.055994	0.130458	0.054432	-0.45122	0.319821	-0.150203	0.130297	-0.874814	0.584408	0.0305885	-0.0019665	-0.279749	0.201258	0.219992	-0.36825	-0.359182	0.269013	0.124381	-0.0416705	-0.160472	-0.697174	0.296106	-0.647135	
6.69708	5	0	-0.191793	-0.0241862	0.262128	0.431096	-0.537399	-0.102566	-0.0295875	0.869706	-0.053622	0.055994	0.126823	0.064703	-0.436459	0.310176	-0.126797	0.115003	-0.86631	0.580491	0.0375123	-0.00485175	-0.277276	0.201291	0.217607	-0.361507	-0.355585	0.266663	0.120072	-0.0372178	-0.167757	-0.688333	0.297048	-0.639695	
6.71692	5	0	-0.190271	-0.028487	0.266758	0.428071	-0.536574	-0.104896	-0.026784	0.876606	-0.053622	0.055994	0.123189	0.074974	-0.421698	0.300531	-0.103391	0.099709	-0.857805	0.576573	0.044436	-0.007737	-0.274803	0.201324	0.215221	-0.354765	-0.351989	0.264313	0.115763	-0.032765	-0.175042	-0.679492	0.29799	-0.632254	
6.72302	5	0	-0.18951	-0.0306365	0.267035	0.437353	-0.537399	-0.102566	-0.024593	0.892671	-0.0487375	0.0528023	0.123245	0.0854797	-0.406911	0.290869	-0.082858	0.0862925	-0.857805	0.576573	0.0528752	-0.01489	-0.274803	0.201324	0.211524	-0.352349	-0.359181	0.269012	0.109412	-0.0302523	-0.170349	-0.692756	0.290547	-0.63142	
6.73828	5	0	-0.18875	-0.032786	0.267312	0.446636	-0.538223	-0.100236	-0.022402	0.908737	-0.043853	0.0496105	0.123301	0.0959855	-0.392125	0.281207	-0.062325	0.072876	-0.857805	0.576573	0.0613145	-0.022043	-0.274803	0.201324	0.207826	-0.349933	-0.366372	0.273711	0.10306	-0.0277395	-0.165656	-0.70602	0.283104	-0.630586	
6.75049	5	0	-0.187989	-0.0349355	0.267589	0.455919	-0.539048	-0.0979052	-0.020211	0.924802	-0.0389685	0.0464188	0.123357	0.106491	-0.377339	0.271546	-0.041792	0.0594595	-0.857805	0.576573	0.0697538	-0.029196	-0.274803	0.201324	0.204128	-0.347517	-0.373563	0.27841	0.0967085	-0.0252268	-0.160962	-0.719283	0.275661	-0.629751	
6.76269	5	0	-0.187228	-0.037085	0.267866	0.465201	-0.539872	-0.095575	-0.01802	0.940867	-0.034084	0.043227	0.123413	0.116997	-0.362552	0.261884	-0.021259	0.046043	-0.857805	0.576573	0.078193	-0.036349	-0.274803	0.201324	0.200431	-0.345101	-0.380755	0.283109	0.090357	-0.022714	-0.156269	-0.732547	0.268218	-0.628917	
6.77338	5	0	-0.18246	-0.0319332	0.273049	0.48078	-0.541522	-0.0909127	-0.0190725	0.966125	-0.0267518	0.038436	0.121032	0.134397	-0.351445	0.254627	-0.0014325	0.0347295	-0.854716	0.574555	0.0858847	-0.041375	-0.274803	0.201324	0.203333	-0.345268	-0.384349	0.285457	0.086053	-0.018264	-0.157923	-0.739613	0.270071	-0.634155	
6.78406	5	0	-0.177693	-0.0267815	0.278232	0.49636	-0.543172	-0.0862505	-0.020125	0.991384	-0.0194195	0.033645	0.118651	0.151797	-0.340339	0.24737	0.018394	0.023416	-0.851627	0.572537	0.0935765	-0.046401	-0.274803	0.201324	0.206234	-0.345436	-0.387942	0.287805	0.081749	-0.013814	-0.159577	-0.746679	0.271925	-0.639393	
6.78711	5	0	-0.172926	-0.0216297	0.283416	0.511939	-0.544821	-0.0815883	-0.0211775	1.01664	-0.0120873	0.028854	0.11627	0.169197	-0.329233	0.240112	0.0382205	0.0121025	-0.848539	0.570518	0.101268	-0.051427	-0.274803	0.201324	0.209136	-0.345603	-0.391536	0.290154	0.077445	-0.009364	-0.16123	-0.753746	0.273778	-0.64463	
6.79016	5	0	-0.168158	-0.016478	0.288599	0.527518	-0.546471	-0.076926	-0.02223	1.0419	-0.004755	0.024063	0.113889	0.186597	-0.318126	0.232855	0.058047	0.000789	-0.84545	0.5685	0.10896	-0.056453	-0.274803	0.201324	0.212038	-0.34577	-0.39513	0.292502	0.073141	-0.004914	-0.162884	-0.760812	0.275631	-0.649868	
6.79016	5	0	-0.173207	-0.0115242	0.285584	0.546127	-0.551673	-0.071734	-0.026911	1.06256	-0.005509	0.0261938	0.109018	0.200363	-0.31147	0.230151	0.0698305	-0.0069105	-0.84236	0.566481	0.110771	-0.0559977	-0.274803	0.201324	0.212552	-0.339187	-0.399475	0.296976	0.073141	-0.004914	-0.163821	-0.758164	0.270986	-0.646833	
6.79321	5	0	-0.178256	-0.0065705	0.282569	0.564736	-0.556875	-0.066542	-0.031592	1.08323	-0.006263	0.0283245	0.104147	0.214128	-0.304815	0.227447	0.081614	-0.01461	-0.839271	0.564462	0.112582	-0.0555425	-0.274803	0.201324	0.213066	-0.332604	-0.403819	0.30145	0.073141	-0.004914	-0.164758	-0.755516	0.266341	-0.643798	
6.78406	5	0	-0.183304	-0.00161675	0.279553	0.583345	-0.562077	-0.06135	-0.036273	1.10389	-0.007017	0.0304552	0.099276	0.227894	-0.29816	0.224743	0.0933975	-0.0223095	-0.836181	0.562444	0.114393	-0.0550873	-0.274803	0.201324	0.213581	-0.32602	-0.408164	0.305925	0.073141	-0.004914	-0.165695	-0.752868	0.261696	-0.640763	
6.781	5	0	-0.188353	0.003337	0.276538	0.601954	-0.567279	-0.056158	-0.040954	1.12455	-0.007771	0.032586	0.094405	0.24166	-0.291504	0.222039	0.105181	-0.030009	-0.833091	0.560425	0.116204	-0.054632	-0.274803	0.201324	0.214095	-0.319437	-0.412509	0.310399	0.073141	-0.004914	-0.166632	-0.75022	0.257051	-0.637728	
6.77948	5	0	-0.191877	0.00398475	0.278992	0.605112	-0.570004	-0.0579628	-0.0424027	1.13609	-0.0102157	0.0341835	0.0956235	0.238216	-0.288552	0.221755	0.110323	-0.0317272	-0.842357	0.56648	0.114393	-0.0550873	-0.284495	0.207657	0.207495	-0.316855	-0.415347	0.310618	0.0667983	-0.00240725	-0.174845	-0.738743	0.253335	-0.637312	
6.7749	5	0	-0.1954	0.0046325	0.281446	0.60827	-0.572728	-0.0597675	-0.0438515	1.14762	-0.0126605	0.035781	0.096842	0.234773	-0.285601	0.221472	0.115465	-0.0334455	-0.851623	0.572534	0.112582	-0.0555425	-0.294187	0.213989	0.200896	-0.314273	-0.418185	0.310837	0.0604555	9.95E-05	-0.183057	-0.727266	0.249618	-0.636896	
6.76727	5	0	-0.198924	0.00528025	0.283899	0.611428	-0.575453	-0.0615723	-0.0453003	1.15915	-0.0151053	0.0373785	0.0980605	0.23133	-0.282649	0.221188	0.120607	-0.0351638	-0.860889	0.578588	0.110771	-0.0559977	-0.303879	0.220322	0.194296	-0.311691	-0.421022	0.311056	0.0541128	0.00260625	-0.191269	-0.715788	0.245902	-0.636481	
6.76575	5	0	-0.202448	0.005928	0.286353	0.614586	-0.578178	-0.063377	-0.046749	1.17068	-0.01755	0.038976	0.099279	0.227886	-0.279698	0.220905	0.125749	-0.036882	-0.870155	0.584643	0.10896	-0.056453	-0.313571	0.226655	0.187696	-0.309109	-0.42386	0.311275	0.04777	0.005113	-0.199482	-0.704311	0.242186	-0.636065	
6.76117	5	0	-0.202448	0.005928	0.29372	0.624076	-0.578178	-0.063377	-0.0437937	1.18466	-0.0224372	0.0421695	0.0894595	0.234302	-0.282649	0.221188	0.123555	-0.0370905	-0.875572	0.586543	0.104585	-0.055233	-0.319267	0.228728	0.187184	-0.315692	-0.431037	0.315964	0.0399257	0.0118763	-0.203003	-0.706085	0.237536	-0.64308	
6.75659	5	0	-0.202448	0.005928	0.301087	0.633566	-0.578178	-0.063377	-0.0408385	1.19863	-0.0273245	0.045363	0.07964	0.240719	-0.285601	0.221472	0.121361	-0.037299	-0.880989	0.588443	0.100211	-0.054013	-0.324963	0.230801	0.186672	-0.322275	-0.438214	0.320654	0.0320815	0.0186395	-0.206524	-0.707858	0.232886	-0.650095	
6.75049	5	0	-0.202448	0.005928	0.308454	0.643056	-0.578178	-0.063377	-0.0378833	1.21261	-0.0322117	0.0485565	0.0698205	0.247136	-0.288552	0.221755	0.119168	-0.0375075	-0.886406	0.590343	0.0958365	-0.052793	-0.330659	0.232874	0.18616	-0.328858	-0.44539	0.325343	0.0242372	0.0254028	-0.210046	-0.709632	0.228235	-0.657111	
6.74744	5	0	-0.202448	0.005928	0.315821	0.652546	-0.578178	-0.063377	-0.034928	1.22658	-0.037099	0.05175	0.060001	0.253552	-0.291504	0.222039	0.116974	-0.037716	-0.891823	0.592243	0.091462	-0.051573	-0.336355	0.234947	0.185648	-0.335441	-0.452567	0.330032	0.016393	0.032166	-0.213567	-0.711406	0.223585	-0.664126	
6.74591	5	0	-0.200448	0.009586	0.320995	0.668283	-0.581479	-0.0540478	-0.0319772	1.2406	-0.0419838	0.0549417	0.052658	0.263645	-0.298916	0.226882	0.114026	-0.0357893	-0.900318	0.596154	0.0863365	-0.048224	-0.34527	0.239123	0.184339	-0.33977	-0.458985	0.332591	0.0136038	0.032351	-0.211693	-0.716703	0.218014	-0.668519	
6.74133	5	0	-0.198448	0.013244	0.326168	0.68402	-0.58478	-0.0447185	-0.0290265	1.25462	-0.0468685	0.0581335	0.045315	0.273739	-0.306329	0.231725	0.111077	-0.0338625	-0.908813	0.600066	0.081211	-0.044875	-0.354185	0.2433	0.183031	-0.344098	-0.465403	0.33515	0.0108145	0.032536	-0.209819	-0.722	0.212444	-0.672911	
6.73828	5	0	-0.196448	0.016902	0.331342	0.699758	-0.588082	-0.0353892	-0.0260758	1.26863	-0.0517533	0.0613253	0.037972	0.283833	-0.313741	0.236569	0.108129	-0.0319357	-0.917307	0.603978	0.0760855	-0.041526	-0.3631	0.247477	0.181723	-0.348427	-0.471821	0.337709	0.00802525	0.032721	-0.207944	-0.727297	0.206874	-0.677303	
6.73523	5	0	-0.194448	0.02056	0.336516	0.715495	-0.591383	-0.02606	-0.023125	1.28265	-0.056638	0.064517	0.030629	0.293926	-0.321153	0.241412	0.105181	-0.030009	-0.925802	0.607889	0.07096	-0.038177	-0.372015	0.251653	0.180414	-0.352756	-0.478239	0.340268	0.005236	0.032906	-0.20607	-0.732594	0.201303	-0.681696	
6.7337	5	0	-0.202254	0.0240055	0.33321	0.724838	-0.59493	-0.025536	-0.029823	1.29412	-0.0639595	0.069301	0.0257265	0.29713	-0.328559	0.246251	0.0933975	-0.0223095	-0.932717	0.614047	0.0632772	-0.033157	-0.375996	0.255903	0.178824	-0.348262	-0.475407	0.340052	0.008779	0.0305907	-0.2124	-0.726422	0.200379	-0.679085	
6.73065	5	0	-0.210061	0.027451	0.329904	0.734182	-0.598477	-0.025012	-0.036521	1.3056	-0.071281	0.074085	0.020824	0.300333	-0.335965	0.25109	0.081614	-0.01461	-0.939632	0.620204	0.0555945	-0.028137	-0.379976	0.260153	0.177233	-0.343767	-0.472575	0.339836	0.012322	0.0282755	-0.21873	-0.720249	0.199455	-0.676474	
6.7276	5	0	-0.217867	0.0308965	0.326598	0.743525	-0.602024	-0.024488	-0.043219	1.31707	-0.0786025	0.078869	0.0159215	0.303536	-0.343371	0.25593	0.0698305	-0.0069105	-0.946547	0.626362	0.0479118	-0.023117	-0.383957	0.264402	0.175643	-0.339273	-0.469743	0.339621	0.015865	0.0259602	-0.225061	-0.714077	0.198531	-0.673864	
6.72455	5	0	-0.225673	0.034342	0.323292	0.752868	-0.605571	-0.023964	-0.049917	1.32855	-0.085924	0.083653	0.011019	0.30674	-0.350777	0.260769	0.058047	0.000789	-0.953462	0.632519	0.040229	-0.018097	-0.387938	0.268652	0.174053	-0.334778	-0.466911	0.339405	0.019408	0.023645	-0.231391	-0.707905	0.197607	-0.671253	
6.7276	5	0	-0.228431	0.0328342	0.319734	0.752798	-0.609116	-0.023441	-0.0507343	1.33086	-0.097359	0.0894868	0.003659	0.306254	-0.361117	0.265881	0.044096	0.00826325	-0.962695	0.638552	0.0292423	-0.0092795	-0.397597	0.274964	0.167465	-0.332201	-0.466159	0.337279	0.0201615	0.0215155	-0.237718	-0.701735	0.196683	-0.668641	
6.7215	5	0	-0.231188	0.0313265	0.316176	0.752727	-0.612661	-0.022918	-0.0515515	1.33317	-0.108794	0.0953205	-0.003701	0.305767	-0.371457	0.270992	0.030145	0.0157375	-0.971927	0.644585	0.0182555	-0.000462	-0.407257	0.281275	0.160876	-0.329624	-0.465406	0.335152	0.020915	0.019386	-0.244045	-0.695564	0.195759	-0.66603	
6.71997	5	0	-0.233946	0.0298187	0.312619	0.752656	-0.616206	-0.022395	-0.0523687	1.33548	-0.120229	0.101154	-0.011061	0.305281	-0.381798	0.276104	0.016194	0.0232117	-0.98116	0.650617	0.00726875	0.0083555	-0.416916	0.287586	0.154287	-0.327047	-0.464653	0.333025	0.0216685	0.0172565	-0.250372	-0.689393	0.194835	-0.663418	
6.71844	5	0	-0.236703	0.028311	0.309061	0.752586	-0.619751	-0.021872	-0.053186	1.33779	-0.131664	0.106988	-0.018421	0.304794	-0.392138	0.281216	0.002243	0.030686	-0.990392	0.65665	-0.003718	0.017173	-0.426575	0.293898	0.147699	-0.32447	-0.463901	0.330899	0.022422	0.015127	-0.256699	-0.683223	0.193911	-0.660806	
6.71844	5	0	-0.233946	0.0298187	0.310413	0.758891	-0.622228	-0.0148723	-0.0512307	1.34717	-0.136535	0.110171	-0.0245338	0.311435	-0.40322	0.288458	-0.0102597	0.040497	-0.997296	0.662801	-0.00627425	0.0188432	-0.430551	0.298145	0.147699	-0.32447	-0.467485	0.333241	0.0259665	0.012811	-0.261148	-0.682352	0.189281	-0.657781	
6.71539	5	0	-0.231188	0.0313265	0.311764	0.765195	-0.624704	-0.0078725	-0.0492755	1.35656	-0.141406	0.113353	-0.0306465	0.318077	-0.414303	0.2957	-0.0227625	0.050308	-1.0042	0.668952	-0.0088305	0.0205135	-0.434527	0.302393	0.147699	-0.32447	-0.47107	0.335584	0.029511	0.010495	-0.265597	-0.681482	0.184651	-0.654756	
6.71081	5	0	-0.228431	0.0328342	0.313116	0.7715	-0.627181	-0.00087275	-0.0473203	1.36595	-0.146276	0.116536	-0.0367593	0.324719	-0.425386	0.302941	-0.0352652	0.060119	-1.0111	0.675103	-0.0113868	0.0221838	-0.438504	0.30664	0.147699	-0.32447	-0.474655	0.337926	0.0330555	0.008179	-0.270046	-0.680611	0.180021	-0.65173	
6.71692	5	0	-0.225673	0.034342	0.314468	0.777805	-0.629658	0.006127	-0.045365	1.37533	-0.151147	0.119719	-0.042872	0.33136	-0.436468	0.310183	-0.047768	0.06993	-1.01801	0.681254	-0.013943	0.023854	-0.44248	0.310887	0.147699	-0.32447	-0.478239	0.340268	0.0366	0.005863	-0.274495	-0.67974	0.175391	-0.648705	
6.71539	5	0	-0.23101	0.0494255	0.310292	0.799739	-0.634617	0.020143	-0.0493075	1.39394	-0.156015	0.1229	-0.0440767	0.345399	-0.44678	0.315276	-0.0558123	0.0735448	-1.02184	0.685395	-0.0172528	0.0276555	-0.443239	0.313033	0.146616	-0.313388	-0.478239	0.340268	0.0472425	-0.001091	-0.270046	-0.680611	0.177247	-0.643891	
6.71234	5	0	-0.236347	0.064509	0.306115	0.821673	-0.639576	0.034159	-0.05325	1.41254	-0.160883	0.126081	-0.0452815	0.359438	-0.457091	0.32037	-0.0638565	0.0771595	-1.02567	0.689536	-0.0205625	0.031457	-0.443998	0.315178	0.145532	-0.302306	-0.478239	0.340268	0.057885	-0.008045	-0.265597	-0.681482	0.179103	-0.639077	
6.71234	5	0	-0.241685	0.0795925	0.301939	0.843607	-0.644536	0.048175	-0.0571925	1.43114	-0.165751	0.129261	-0.0464862	0.373477	-0.467403	0.325464	-0.0719007	0.0807743	-1.02949	0.693678	-0.0238723	0.0352585	-0.444757	0.317323	0.144448	-0.291224	-0.478239	0.340268	0.0685275	-0.014999	-0.261148	-0.682352	0.180959	-0.634262	
6.71081	5	0	-0.247022	0.094676	0.297763	0.865541	-0.649495	0.062191	-0.061135	1.44975	-0.170619	0.132442	-0.047691	0.387516	-0.477715	0.330557	-0.079945	0.084389	-1.03332	0.697819	-0.027182	0.03906	-0.445516	0.319469	0.143365	-0.280142	-0.478239	0.340268	0.07917	-0.021953	-0.256699	-0.683223	0.182815	-0.629448	
6.71234	5	0	-0.25054	0.095317	0.299975	0.859289	-0.653863	0.0650452	-0.0585205	1.44982	-0.175484	0.135621	-0.0513562	0.397875	-0.489526	0.339919	-0.0887358	0.0901332	-1.03025	0.695811	-0.027182	0.03906	-0.445516	0.319469	0.141478	-0.266786	-0.471821	0.337709	0.0855188	-0.0244642	-0.264899	-0.671752	0.180966	-0.614156	
6.71387	5	0	-0.254057	0.095958	0.302187	0.853038	-0.658232	0.0678995	-0.055906	1.44989	-0.180349	0.1388	-0.0550215	0.408233	-0.501337	0.34928	-0.0975265	0.0958775	-1.02717	0.693803	-0.027182	0.03906	-0.445516	0.319469	0.139591	-0.253431	-0.465403	0.33515	0.0918675	-0.0269755	-0.273099	-0.660281	0.179116	-0.598863	
6.71081	5	0	-0.257575	0.096599	0.304399	0.846786	-0.6626	0.0707538	-0.0532915	1.44997	-0.185215	0.141979	-0.0586867	0.418592	-0.513147	0.358642	-0.106317	0.101622	-1.0241	0.691795	-0.027182	0.03906	-0.445516	0.319469	0.137704	-0.240075	-0.458985	0.332591	0.0982163	-0.0294867	-0.281298	-0.64881	0.177266	-0.583571	
6.70929	5	0	-0.261093	0.09724	0.306611	0.840534	-0.666968	0.073608	-0.050677	1.45004	-0.19008	0.145158	-0.062352	0.42895	-0.524958	0.368004	-0.115108	0.107366	-1.02103	0.689787	-0.027182	0.03906	-0.445516	0.319469	0.135817	-0.22672	-0.452567	0.330032	0.104565	-0.031998	-0.289498	-0.637339	0.175417	-0.568279	
6.70624	5	0	-0.26033	0.095084	0.311277	0.837485	-0.667795	0.0759463	-0.0488825	1.45244	-0.194189	0.146205	-0.0635745	0.432405	-0.531563	0.370675	-0.120964	0.111192	-1.02103	0.689787	-0.0220702	0.03572	-0.442299	0.317367	0.137117	-0.222367	-0.459738	0.334718	0.107365	-0.0321898	-0.289498	-0.637339	0.166146	-0.552144	
6.70471	5	0	-0.259568	0.092928	0.315942	0.834437	-0.668623	0.0782845	-0.047088	1.45483	-0.198298	0.147253	-0.064797	0.43586	-0.538168	0.373347	-0.126819	0.115018	-1.02103	0.689787	-0.0169585	0.03238	-0.439082	0.315265	0.138417	-0.218014	-0.466908	0.339403	0.110164	-0.0323815	-0.289498	-0.637339	0.156876	-0.536008	
6.70471	5	0	-0.258805	0.090772	0.320607	0.831388	-0.66945	0.0806227	-0.0452935	1.45723	-0.202406	0.1483	-0.0660195	0.439316	-0.544772	0.376018	-0.132675	0.118844	-1.02103	0.689787	-0.0118468	0.02904	-0.435864	0.313162	0.139717	-0.213662	-0.474078	0.344088	0.112964	-0.0325732	-0.289498	-0.637339	0.147605	-0.519873	
6.70318	5	0	-0.258042	0.088616	0.325273	0.82834	-0.670277	0.082961	-0.043499	1.45962	-0.206515	0.149347	-0.067242	0.442771	-0.551377	0.378689	-0.13853	0.12267	-1.02103	0.689787	-0.006735	0.0257	-0.432647	0.31106	0.141017	-0.209309	-0.481249	0.348774	0.115763	-0.032765	-0.289498	-0.637339	0.138334	-0.503738	
6.70471	5	0	-0.25605	0.092288	0.323061	0.834592	-0.671932	0.0876393	-0.0407305	1.46674	-0.204838	0.149889	-0.0647917	0.446486	-0.559489	0.385634	-0.139286	0.124805	-1.01795	0.687778	-0.0049325	0.0261613	-0.432647	0.31106	0.144416	-0.202851	-0.484832	0.351115	0.11221	-0.030443	-0.292068	-0.641773	0.135548	-0.495864	
6.70624	5	0	-0.254058	0.09596	0.320848	0.840843	-0.673588	0.0923175	-0.037962	1.47386	-0.203161	0.150431	-0.0623415	0.450201	-0.567601	0.392579	-0.140041	0.126941	-1.01488	0.68577	-0.00313	0.0266225	-0.432647	0.31106	0.147815	-0.196393	-0.488415	0.353456	0.108657	-0.028121	-0.294637	-0.646207	0.132762	-0.48799	
6.70318	5	0	-0.252066	0.099632	0.318636	0.847095	-0.675243	0.0969957	-0.0351935	1.48098	-0.201483	0.150972	-0.0598913	0.453916	-0.575713	0.399524	-0.140796	0.129076	-1.01181	0.683761	-0.0013275	0.0270838	-0.432647	0.31106	0.151214	-0.189936	-0.491998	0.355798	0.105103	-0.025799	-0.297207	-0.650641	0.129976	-0.480116	
6.70471	5	0	-0.250074	0.103304	0.316424	0.853347	-0.676898	0.101674	-0.032425	1.4881	-0.199806	0.151514	-0.057441	0.457631	-0.583825	0.406469	-0.141552	0.131211	-1.00873	0.681752	0.000475	0.027545	-0.432647	0.31106	0.154613	-0.183478	-0.495581	0.358139	0.10155	-0.023477	-0.299777	-0.655075	0.12719	-0.472242	
6.70624	5	0	-0.251601	0.107619	0.316663	0.862814	-0.677726	0.104014	-0.0296563	1.49523	-0.199052	0.149384	-0.0574402	0.468275	-0.585987	0.404593	-0.140041	0.126941	-1.0049	0.677609	0.00890525	0.0203972	-0.429428	0.308957	0.152711	-0.170067	-0.499915	0.362606	0.100796	-0.0213465	-0.291583	-0.666536	0.119771	-0.461336	
6.70929	5	0	-0.253128	0.111935	0.316902	0.872281	-0.678554	0.106354	-0.0268875	1.50236	-0.198298	0.147254	-0.0574395	0.478919	-0.588148	0.402718	-0.13853	0.122671	-1.00107	0.673466	0.0173355	0.0132495	-0.42621	0.306854	0.150809	-0.156655	-0.50425	0.367073	0.100042	-0.019216	-0.283389	-0.677998	0.112352	-0.450429	
6.70624	5	0	-0.254655	0.11625	0.317141	0.881747	-0.679382	0.108694	-0.0241188	1.50948	-0.197545	0.145123	-0.0574388	0.489564	-0.59031	0.400842	-0.137019	0.118401	-0.997241	0.669324	0.0257657	0.00610175	-0.422992	0.304751	0.148908	-0.143243	-0.508584	0.371541	0.099288	-0.0170855	-0.275195	-0.68946	0.104934	-0.439522	
6.70929	5	0	-0.256182	0.120565	0.31738	0.891214	-0.68021	0.111034	-0.02135	1.51661	-0.196791	0.142993	-0.057438	0.500208	-0.592472	0.398966	-0.135508	0.114131	-0.993411	0.665181	0.034196	-0.001046	-0.419773	0.302648	0.147006	-0.129832	-0.512918	0.376008	0.098534	-0.014955	-0.267001	-0.700921	0.097515	-0.428616	
6.71081	5	0	-0.258173	0.11689	0.312476	0.884796	-0.681265	0.10453	-0.0215005	1.50956	-0.196791	0.142993	-0.0635638	0.506875	-0.596902	0.403505	-0.135508	0.114131	-0.991089	0.665304	0.0418785	-0.00606575	-0.419773	0.302648	0.145096	-0.116394	-0.512165	0.373881	0.0957362	-0.0147648	-0.272384	-0.697404	0.0928618	-0.415465	
6.70929	5	0	-0.260163	0.113215	0.307571	0.878378	-0.682321	0.0980265	-0.021651	1.50251	-0.196791	0.142993	-0.0696895	0.513541	-0.601333	0.408044	-0.135508	0.114131	-0.988768	0.665427	0.049561	-0.0110855	-0.419773	0.302648	0.143186	-0.102956	-0.511413	0.371754	0.0929385	-0.0145745	-0.277767	-0.693887	0.0882085	-0.402315	
6.71081	5	0	-0.262154	0.10954	0.302667	0.871959	-0.683377	0.0915227	-0.0218015	1.49545	-0.196791	0.142993	-0.0758153	0.520207	-0.605763	0.412582	-0.135508	0.114131	-0.986446	0.66555	0.0572435	-0.0161053	-0.419773	0.302648	0.141276	-0.0895172	-0.51066	0.369627	0.0901408	-0.0143842	-0.28315	-0.690369	0.0835552	-0.389165	
6.70929	5	0	-0.264145	0.105865	0.297763	0.865541	-0.684432	0.085019	-0.021952	1.4884	-0.196791	0.142993	-0.081941	0.526874	-0.610193	0.417121	-0.135508	0.114131	-0.984124	0.665673	0.064926	-0.021125	-0.419773	0.302648	0.139366	-0.076079	-0.509907	0.3675	0.087343	-0.014194	-0.288533	-0.686852	0.078902	-0.376014	
6.70929	5	0	-0.267661	0.106505	0.297763	0.865541	-0.69233	0.0883827	-0.0167117	1.48855	-0.192681	0.141945	-0.081941	0.526874	-0.610193	0.417121	-0.130408	0.11244	-0.981046	0.663662	0.071861	-0.0240173	-0.417313	0.30269	0.139054	-0.0671547	-0.517066	0.372177	0.0759423	-0.0051065	-0.292976	-0.685983	0.0761068	-0.368114	
6.70776	5	0	-0.271177	0.107144	0.297763	0.865541	-0.700228	0.0917465	-0.0114715	1.4887	-0.188571	0.140897	-0.081941	0.526874	-0.610193	0.417121	-0.125308	0.110748	-0.977969	0.661651	0.078796	-0.0269095	-0.414853	0.302732	0.138743	-0.0582305	-0.524224	0.376855	0.0645415	0.003981	-0.29742	-0.685115	0.0733115	-0.360214	
6.70471	5	0	-0.274692	0.107784	0.297763	0.865541	-0.708126	0.0951103	-0.00623125	1.48885	-0.184461	0.139849	-0.081941	0.526874	-0.610193	0.417121	-0.120208	0.109057	-0.974892	0.65964	0.085731	-0.0298018	-0.412392	0.302775	0.138431	-0.0493062	-0.531383	0.381532	0.0531408	0.0130685	-0.301863	-0.684246	0.0705163	-0.352315	
6.70318	5	0	-0.278208	0.108423	0.297763	0.865541	-0.716024	0.098474	-0.000991	1.489	-0.180351	0.138801	-0.081941	0.526874	-0.610193	0.417121	-0.115108	0.107366	-0.971814	0.657629	0.092666	-0.032694	-0.409932	0.302817	0.13812	-0.040382	-0.538542	0.38621	0.04174	0.022156	-0.306306	-0.683377	0.067721	-0.344415	
6.70471	5	0	-0.269182	0.110819	0.307337	0.868907	-0.709781	0.0997873	0.00193275	1.5032	-0.170615	0.13244	-0.0782755	0.537813	-0.606519	0.414721	-0.106317	0.101622	-0.967981	0.653484	0.101117	-0.0398553	-0.405193	0.296421	0.138292	-0.024769	-0.546447	0.393011	0.04174	0.022156	-0.306306	-0.683377	0.0686203	-0.336897	
6.69708	5	0	-0.260157	0.113214	0.316912	0.872274	-0.703537	0.101101	0.0048565	1.5174	-0.160879	0.126078	-0.07461	0.548752	-0.602846	0.41232	-0.0975265	0.0958775	-0.964147	0.649339	0.109567	-0.0470165	-0.400453	0.290025	0.138464	-0.009156	-0.554353	0.399811	0.04174	0.022156	-0.306306	-0.683377	0.0695195	-0.329378	
6.69708	5	0	-0.251131	0.11561	0.326487	0.875641	-0.697294	0.102414	0.00778025	1.5316	-0.151143	0.119717	-0.0709445	0.559691	-0.599172	0.409919	-0.0887358	0.0901332	-0.960314	0.645195	0.118018	-0.0541777	-0.395713	0.283628	0.138635	0.006457	-0.562258	0.406612	0.04174	0.022156	-0.306306	-0.683377	0.0704188	-0.321859	
6.69861	5	0	-0.242105	0.118005	0.336061	0.879007	-0.691051	0.103727	0.010704	1.5458	-0.141407	0.113355	-0.067279	0.57063	-0.595499	0.407519	-0.079945	0.084389	-0.956481	0.64105	0.126469	-0.061339	-0.390974	0.277232	0.138807	0.02207	-0.570163	0.413413	0.04174	0.022156	-0.306306	-0.683377	0.071318	-0.314341	
6.6925	5	0	-0.240414	0.131853	0.334079	0.894761	-0.692484	0.117263	0.013767	1.56714	-0.129975	0.107523	-0.068542	0.595522	-0.585225	0.40245	-0.0652735	0.0748025	-0.95032	0.637024	0.144454	-0.0730907	-0.381304	0.270913	0.146067	0.0418595	-0.570163	0.413413	0.0480822	0.0196502	-0.304674	-0.676301	0.0721752	-0.296627	
6.69556	5	0	-0.238724	0.145701	0.332097	0.910516	-0.693917	0.130799	0.01683	1.58848	-0.118544	0.101691	-0.069805	0.620414	-0.574952	0.397381	-0.050602	0.065216	-0.94416	0.632999	0.16244	-0.0848425	-0.371634	0.264595	0.153326	0.061649	-0.570163	0.413413	0.0544245	0.0171445	-0.303042	-0.669226	0.0730325	-0.278914	
6.69861	5	0	-0.237034	0.159549	0.330115	0.92627	-0.69535	0.144334	0.019893	1.60981	-0.107112	0.0958597	-0.071068	0.645307	-0.564678	0.392313	-0.0359305	0.0556295	-0.937999	0.628973	0.180425	-0.0965942	-0.361964	0.258277	0.160585	0.0814385	-0.570163	0.413413	0.0607668	0.0146387	-0.301409	-0.66215	0.0738898	-0.261201	
6.70624	5	0	-0.235343	0.173397	0.328133	0.942024	-0.696783	0.15787	0.022956	1.63115	-0.095681	0.090028	-0.072331	0.670199	-0.554404	0.387244	-0.021259	0.046043	-0.931838	0.624948	0.19841	-0.108346	-0.352294	0.251958	0.167845	0.101228	-0.570163	0.413413	0.067109	0.012133	-0.299777	-0.655075	0.074747	-0.243487	
6.71539	5	0	-0.217239	0.17822	0.327022	0.945163	-0.686769	0.16756	0.0286342	1.65266	-0.0793463	0.080993	-0.0674678	0.688485	-0.536745	0.37735	-0.0014325	0.0347295	-0.928756	0.622934	0.200982	-0.110027	-0.3466	0.249887	0.172671	0.127984	-0.572985	0.413621	0.0826125	0.00692025	-0.300963	-0.640029	0.0774182	-0.220792	
6.73218	5	0	-0.199134	0.183042	0.325912	0.948301	-0.676754	0.17725	0.0343125	1.67417	-0.0630115	0.071958	-0.0626045	0.706771	-0.519087	0.367456	0.018394	0.023416	-0.925674	0.62092	0.203554	-0.111708	-0.340907	0.247816	0.177497	0.154739	-0.575806	0.41383	0.098116	0.0017075	-0.302148	-0.624982	0.0800895	-0.198097	
6.75506	5	0	-0.181029	0.187864	0.324802	0.951439	-0.66674	0.186939	0.0399908	1.69568	-0.0466767	0.062923	-0.0577413	0.725058	-0.501428	0.357563	0.0382205	0.0121025	-0.922592	0.618907	0.206127	-0.113389	-0.335213	0.245745	0.182323	0.181495	-0.578627	0.414038	0.113619	-0.00350525	-0.303333	-0.609935	0.0827607	-0.175401	
6.77338	5	0	-0.162925	0.192687	0.323691	0.954578	-0.656725	0.196629	0.045669	1.7172	-0.030342	0.053888	-0.052878	0.743344	-0.48377	0.347669	0.058047	0.000789	-0.91951	0.616893	0.208699	-0.11507	-0.32952	0.243674	0.187149	0.20825	-0.581449	0.414247	0.129123	-0.008718	-0.304519	-0.594889	0.085432	-0.152706	
6.79321	5	0	-0.147839	0.206211	0.331054	0.964262	-0.650027	0.215768	0.0584122	1.74143	-0.0132193	0.0426995	-0.0455747	0.765497	-0.464558	0.333471	0.0794342	-0.0148275	-0.910258	0.610847	0.22415	-0.125166	-0.315841	0.233087	0.194399	0.228241	-0.578627	0.414038	0.148227	-0.0162797	-0.301952	-0.590441	0.0834967	-0.137144	
6.81152	5	0	-0.132754	0.219736	0.338417	0.973947	-0.643328	0.234907	0.0711555	1.76567	0.0039035	0.031511	-0.0382715	0.787649	-0.445345	0.319273	0.100822	-0.030444	-0.901005	0.604801	0.2396	-0.135261	-0.302161	0.222499	0.20165	0.248232	-0.575806	0.41383	0.16733	-0.0238415	-0.299385	-0.585993	0.0815615	-0.121583	
6.82983	5	0	-0.117668	0.233261	0.345779	0.983631	-0.63663	0.254047	0.0838988	1.78991	0.0210262	0.0203225	-0.0309682	0.809801	-0.426133	0.305074	0.122209	-0.0460605	-0.891752	0.598756	0.255051	-0.145356	-0.288482	0.211912	0.2089	0.268224	-0.572985	0.413621	0.186434	-0.0314033	-0.296818	-0.581544	0.0796262	-0.106021	
6.84357	5	0	-0.102583	0.246785	0.353142	0.993315	-0.629932	0.273186	0.096642	1.81415	0.038149	0.009134	-0.023665	0.831954	-0.406921	0.290876	0.143596	-0.061677	-0.8825	0.59271	0.270501	-0.155452	-0.274803	0.201324	0.21615	0.288215	-0.570163	0.413413	0.205538	-0.038965	-0.294251	-0.577096	0.077691	-0.090459	
6.86035	5	0	-0.0869935	0.268458	0.350244	1.02186	-0.622189	0.299001	0.105208	1.85039	0.0602145	-0.005284	-0.0114227	0.850985	-0.382531	0.278229	0.160564	-0.071123	-0.873992	0.588791	0.285979	-0.165566	-0.262623	0.195015	0.225504	0.310474	-0.566588	0.411077	0.229578	-0.0448205	-0.292624	-0.569983	0.0803945	-0.0778983	
6.87256	5	0	-0.071404	0.290131	0.347345	1.05041	-0.614446	0.324815	0.113773	1.88663	0.08228	-0.019702	0.0008195	0.870017	-0.35814	0.265582	0.177532	-0.080569	-0.865485	0.584871	0.301458	-0.17568	-0.250443	0.188705	0.234857	0.332733	-0.563012	0.40874	0.253618	-0.050676	-0.290998	-0.56287	0.083098	-0.0653375	
6.88629	5	0	-0.0558145	0.311804	0.344446	1.07896	-0.606703	0.350629	0.122339	1.92287	0.104345	-0.03412	0.0130618	0.889049	-0.33375	0.252934	0.194501	-0.090015	-0.856977	0.580952	0.316937	-0.185794	-0.238262	0.182395	0.244211	0.354992	-0.559437	0.406404	0.277659	-0.0565315	-0.289371	-0.555757	0.0858015	-0.0527767	
6.8985	5	0	-0.040225	0.333477	0.341548	1.10751	-0.59896	0.376444	0.130905	1.95911	0.126411	-0.048538	0.025304	0.90808	-0.30936	0.240287	0.211469	-0.099461	-0.84847	0.577033	0.332415	-0.195908	-0.226082	0.176086	0.253565	0.377251	-0.555861	0.404068	0.301699	-0.062387	-0.287744	-0.548644	0.088505	-0.040216	
6.90002	5	0	-0.0332817	0.360949	0.336164	1.13291	-0.59479	0.402904	0.136679	1.98826	0.146073	-0.0613853	0.0214555	0.940452	-0.284892	0.227591	0.226267	-0.10913	-0.836104	0.568953	0.347921	-0.20604	-0.206636	0.16338	0.26421	0.404139	-0.545125	0.397053	0.328661	-0.0684917	-0.277207	-0.543246	0.0920805	-0.0199775	
6.91223	5	0	-0.0263385	0.388421	0.330779	1.15831	-0.59062	0.429365	0.142452	2.01741	0.165735	-0.0742325	0.017607	0.972823	-0.260425	0.214894	0.241065	-0.1188	-0.823738	0.560873	0.363428	-0.216172	-0.18719	0.150673	0.274855	0.431028	-0.53439	0.390038	0.355623	-0.0745965	-0.26667	-0.537849	0.095656	0.000261	
6.91986	5	0	-0.0193952	0.415892	0.325395	1.18372	-0.58645	0.455825	0.148226	2.04655	0.185396	-0.0870797	0.0137585	1.0052	-0.235957	0.202198	0.255863	-0.128469	-0.811373	0.552793	0.378934	-0.226305	-0.167743	0.137966	0.285499	0.457916	-0.523654	0.383023	0.382585	-0.0807013	-0.256133	-0.532452	0.0992315	0.0204995	
6.92596	5	0	-0.012452	0.443364	0.32001	1.20912	-0.58228	0.482285	0.154	2.0757	0.205058	-0.099927	0.00991	1.03757	-0.211489	0.189501	0.270661	-0.138138	-0.799007	0.544713	0.39444	-0.236437	-0.148297	0.12526	0.296144	0.484804	-0.512918	0.376008	0.409547	-0.086806	-0.245596	-0.527054	0.102807	0.040738	
6.93207	5	0	-0.003633	0.456201	0.317968	1.22508	-0.573909	0.496952	0.156033	2.09273	0.219834	-0.109582	0.0160565	1.04172	-0.190671	0.179191	0.28624	-0.149959	-0.789721	0.538645	0.399615	-0.239818	-0.135308	0.116773	0.297529	0.50536	-0.506506	0.373454	0.422974	-0.0856955	-0.255715	-0.51019	0.102654	0.0614245	
6.93817	5	0	0.005186	0.469038	0.315926	1.24105	-0.565538	0.51162	0.158065	2.10976	0.234609	-0.119236	0.022203	1.04587	-0.169853	0.16888	0.301819	-0.16178	-0.780435	0.532578	0.40479	-0.2432	-0.12232	0.108286	0.298913	0.525917	-0.500094	0.3709	0.4364	-0.084585	-0.265833	-0.493327	0.102502	0.082111	
6.93664	5	0	0.014005	0.481875	0.313884	1.25701	-0.557168	0.526287	0.160098	2.12679	0.249385	-0.128891	0.0283495	1.05001	-0.149034	0.15857	0.317398	-0.173602	-0.771149	0.52651	0.409965	-0.246582	-0.109331	0.099799	0.300298	0.546474	-0.493683	0.368347	0.449827	-0.0834745	-0.275952	-0.476464	0.102349	0.102797	
6.93207	5	0	0.022824	0.494712	0.311842	1.27297	-0.548797	0.540954	0.162131	2.14382	0.264161	-0.138546	0.034496	1.05416	-0.128216	0.14826	0.332977	-0.185423	-0.761863	0.520443	0.41514	-0.249963	-0.096343	0.091312	0.301683	0.56703	-0.487271	0.365793	0.463253	-0.082364	-0.28607	-0.4596	0.102197	0.123484	
6.93359	5	0	0.031655	0.507592	0.318057	1.28602	-0.543147	0.553782	0.169351	2.15382	0.265872	-0.138025	0.034496	1.05416	-0.10734	0.137914	0.346315	-0.190855	-0.755667	0.516394	0.419564	-0.251214	-0.0898415	0.0870635	0.302966	0.571567	-0.487271	0.365793	0.470454	-0.087069	-0.291466	-0.456074	0.104014	0.128485	
6.93207	5	0	0.040486	0.520471	0.324271	1.29906	-0.537497	0.56661	0.176571	2.16383	0.267583	-0.137505	0.034496	1.05416	-0.0864645	0.127568	0.359653	-0.196287	-0.749471	0.512346	0.423988	-0.252466	-0.08334	0.082815	0.304249	0.576105	-0.487271	0.365793	0.477654	-0.091774	-0.296863	-0.452547	0.105831	0.133486	
6.92749	5	0	0.049317	0.533351	0.330485	1.31211	-0.531848	0.579438	0.183792	2.17383	0.269294	-0.136984	0.034496	1.05416	-0.0655888	0.117222	0.372991	-0.201718	-0.743275	0.508297	0.428411	-0.253717	-0.0768385	0.0785665	0.305532	0.580642	-0.487271	0.365793	0.484855	-0.096479	-0.30226	-0.449021	0.107649	0.138486	
6.91833	5	0	0.058148	0.546231	0.3367	1.32515	-0.526198	0.592266	0.191012	2.18383	0.271005	-0.136463	0.034496	1.05416	-0.044713	0.106876	0.386329	-0.20715	-0.737079	0.504248	0.432835	-0.254968	-0.070337	0.074318	0.306815	0.585179	-0.487271	0.365793	0.492056	-0.101184	-0.307656	-0.445495	0.109466	0.143487	
6.91528	5	0	0.072594	0.562306	0.344238	1.34474	-0.517813	0.607032	0.196433	2.19135	0.276691	-0.141817	0.037002	1.04708	-0.0305108	0.0992437	0.38784	-0.211421	-0.730124	0.498063	0.43359	-0.2571	-0.0638303	0.0700665	0.303883	0.585303	-0.482934	0.361323	0.494331	-0.107614	-0.306712	-0.448163	0.101088	0.146898	
6.91376	5	0	0.08704	0.57838	0.351776	1.36433	-0.509429	0.621798	0.201853	2.19887	0.282378	-0.147172	0.039508	1.04	-0.0163085	0.0916115	0.389351	-0.215692	-0.723168	0.491878	0.434344	-0.259232	-0.0573235	0.065815	0.300951	0.585427	-0.478596	0.356853	0.496606	-0.114044	-0.305767	-0.450832	0.0927095	0.150309	
6.9107	5	0	0.101486	0.594454	0.359315	1.38391	-0.501044	0.636565	0.207274	2.20639	0.288065	-0.152527	0.042014	1.03292	-0.00210625	0.0839793	0.390863	-0.219963	-0.716213	0.485694	0.435098	-0.261365	-0.0508168	0.0615635	0.298018	0.58555	-0.474258	0.352383	0.498882	-0.120475	-0.304823	-0.4535	0.0843312	0.153721	
6.90918	5	0	0.115932	0.610529	0.366853	1.4035	-0.492659	0.651331	0.212695	2.21391	0.293751	-0.157881	0.04452	1.02584	0.012096	0.076347	0.392374	-0.224234	-0.709257	0.479509	0.435853	-0.263497	-0.04431	0.057312	0.295086	0.585674	-0.469921	0.347913	0.501157	-0.126905	-0.303879	-0.456169	0.075953	0.157132	
6.9046	5	0	0.131202	0.62445	0.361197	1.41948	-0.487002	0.664243	0.20834	2.2186	0.291285	-0.156269	0.0346732	1.02139	0.0225752	0.071148	0.380493	-0.21647	-0.706155	0.477482	0.430675	-0.260113	-0.0435507	0.0551665	0.29298	0.583467	-0.458406	0.338753	0.510637	-0.13804	-0.298752	-0.4472	0.0676718	0.150176	
6.90918	5	0	0.146472	0.638371	0.355541	1.43547	-0.481345	0.677156	0.203985	2.2233	0.288818	-0.154658	0.0248265	1.01695	0.0330545	0.065949	0.368611	-0.208707	-0.703053	0.475455	0.425496	-0.25673	-0.0427915	0.053021	0.290873	0.58126	-0.44689	0.329594	0.520118	-0.149174	-0.293626	-0.438231	0.0593905	0.14322	
6.9046	5	0	0.161741	0.652293	0.349885	1.45145	-0.475688	0.690068	0.199631	2.22799	0.286351	-0.153046	0.0149798	1.01251	0.0435338	0.06075	0.356729	-0.200943	-0.699951	0.473428	0.420318	-0.253346	-0.0420323	0.0508755	0.288767	0.579053	-0.435375	0.320435	0.529598	-0.160309	-0.2885	-0.429262	0.0511093	0.136264	
6.90155	5	0	0.177011	0.666214	0.344229	1.46744	-0.470031	0.70298	0.195276	2.23268	0.283885	-0.151434	0.005133	1.00807	0.054013	0.055551	0.344848	-0.19318	-0.696849	0.471401	0.41514	-0.249963	-0.041273	0.04873	0.28666	0.576846	-0.42386	0.311275	0.539079	-0.171444	-0.283373	-0.420293	0.042828	0.129308	
6.89392	5	0	0.178247	0.67225	0.33934	1.4608	-0.466443	0.702484	0.193362	2.22286	0.275735	-0.14447	-0.00708425	0.988933	0.059995	0.0549398	0.32334	-0.177484	-0.693746	0.469373	0.400379	-0.241956	-0.044527	0.0508563	0.278242	0.568032	-0.413084	0.304234	0.53263	-0.168876	-0.288106	-0.406918	0.0400705	0.126993	
6.89392	5	0	0.179484	0.678285	0.33445	1.45416	-0.462855	0.701987	0.191448	2.21305	0.267586	-0.137507	-0.0193015	0.9698	0.065977	0.0543285	0.301832	-0.161789	-0.690643	0.467345	0.385618	-0.233949	-0.047781	0.0529825	0.269824	0.559217	-0.402308	0.297192	0.52618	-0.166308	-0.292838	-0.393543	0.037313	0.124677	
6.89087	5	0	0.18072	0.684321	0.32956	1.44752	-0.459268	0.701491	0.189534	2.20323	0.259436	-0.130543	-0.0315187	0.950667	0.071959	0.0537173	0.280323	-0.146093	-0.687539	0.465318	0.370856	-0.225943	-0.051035	0.0551087	0.261406	0.550402	-0.391531	0.29015	0.519731	-0.16374	-0.29757	-0.380167	0.0345555	0.122361	
6.89239	5	0	0.181956	0.690357	0.324671	1.44089	-0.45568	0.700994	0.18762	2.19342	0.251286	-0.123579	-0.043736	0.931534	0.077941	0.053106	0.258815	-0.130397	-0.684436	0.46329	0.356095	-0.217936	-0.054289	0.057235	0.252988	0.541588	-0.380755	0.283109	0.513282	-0.161172	-0.302303	-0.366792	0.031798	0.120046	
6.88934	5	0	0.184768	0.691944	0.324487	1.43119	-0.451239	0.698093	0.184857	2.18602	0.232351	-0.112845	-0.0510117	0.909278	0.0682113	0.056166	0.222599	-0.105091	-0.693742	0.469371	0.335451	-0.204447	-0.0665335	0.0635867	0.238286	0.526215	-0.385101	0.287584	0.504754	-0.160535	-0.304862	-0.371291	0.018891	0.116142	
6.88782	5	0	0.18758	0.693531	0.324302	1.42149	-0.446799	0.695191	0.182094	2.17862	0.213415	-0.10211	-0.0582875	0.887023	0.0584815	0.059226	0.186384	-0.079785	-0.703048	0.475452	0.314806	-0.190958	-0.078778	0.0699385	0.223585	0.510841	-0.389448	0.29206	0.496227	-0.159898	-0.307422	-0.375791	0.005984	0.112238	
6.88629	5	0	0.190393	0.695118	0.324118	1.41179	-0.442358	0.69229	0.17933	2.17121	0.194479	-0.0913763	-0.0655633	0.864768	0.0487517	0.062286	0.150168	-0.054479	-0.712354	0.481532	0.294162	-0.177468	-0.0910225	0.0762903	0.208883	0.495468	-0.393794	0.296535	0.4877	-0.159262	-0.309982	-0.38029	-0.006923	0.108335	
6.88476	5	0	0.193205	0.696705	0.323933	1.40209	-0.437918	0.689388	0.176567	2.16381	0.175544	-0.080642	-0.072839	0.842512	0.039022	0.065346	0.113952	-0.029173	-0.72166	0.487613	0.273518	-0.163979	-0.103267	0.082642	0.194182	0.480095	-0.39814	0.30101	0.479172	-0.158625	-0.312541	-0.384789	-0.01983	0.104431	
6.88324	5	0	0.197255	0.704341	0.313404	1.41143	-0.440471	0.696603	0.172222	2.16849	0.160806	-0.0710122	-0.0789165	0.82764	0.0322905	0.0680962	0.0874527	-0.0118578	-0.727858	0.491663	0.257313	-0.151752	-0.113765	0.091151	0.185798	0.47134	-0.393794	0.296535	0.477089	-0.160552	-0.317938	-0.381263	-0.0234393	0.094474	
6.88324	5	0	0.201305	0.711978	0.302876	1.42076	-0.443024	0.703817	0.167876	2.17317	0.146068	-0.0613825	-0.084994	0.812768	0.025559	0.0708465	0.0609535	0.0054575	-0.734057	0.495714	0.241109	-0.139524	-0.124264	0.09966	0.177415	0.462585	-0.389448	0.29206	0.475006	-0.162479	-0.323334	-0.377737	-0.0270485	0.084517	
6.88324	5	0	0.205356	0.719615	0.292347	1.43009	-0.445577	0.711032	0.163531	2.17785	0.131331	-0.0517528	-0.0910715	0.797895	0.0188275	0.0735968	0.0344543	0.0227727	-0.740255	0.499764	0.224904	-0.127297	-0.134763	0.108169	0.169031	0.45383	-0.385101	0.287584	0.472923	-0.164406	-0.328731	-0.37421	-0.0306577	0.07456	
6.87713	5	0	0.209406	0.727251	0.281818	1.43943	-0.44813	0.718247	0.159186	2.18253	0.116593	-0.042123	-0.097149	0.783023	0.012096	0.076347	0.007955	0.040088	-0.746454	0.503814	0.208699	-0.11507	-0.145261	0.116678	0.160647	0.445075	-0.380755	0.283109	0.47084	-0.166333	-0.334128	-0.370684	-0.034267	0.064603	
6.86951	5	0	0.208617	0.729482	0.268692	1.43575	-0.45257	0.721148	0.15124	2.1822	0.109234	-0.037314	-0.104459	0.771689	0.00612925	0.0769505	-0.020637	0.0571285	-0.746454	0.503814	0.193276	-0.104993	-0.151748	0.120917	0.152276	0.436341	-0.374316	0.280537	0.475193	-0.170821	-0.335074	-0.368009	-0.035129	0.0569682	
6.86951	5	0	0.207827	0.731714	0.255565	1.43206	-0.457011	0.72405	0.143294	2.18188	0.101875	-0.032505	-0.111769	0.760355	0.0001625	0.077554	-0.049229	0.074169	-0.746454	0.503814	0.177853	-0.094915	-0.158235	0.125156	0.143904	0.427607	-0.367877	0.277965	0.479546	-0.175309	-0.336021	-0.365334	-0.035991	0.0493335	
6.86035	5	0	0.207037	0.733945	0.242439	1.42838	-0.461451	0.726951	0.135349	2.18155	0.0945152	-0.027696	-0.11908	0.749021	-0.00580425	0.0781575	-0.077821	0.0912095	-0.746454	0.503814	0.162431	-0.0848375	-0.164721	0.129394	0.135533	0.418873	-0.361438	0.275393	0.483899	-0.179796	-0.336967	-0.362659	-0.036853	0.0416987	
6.8573	5	0	0.206248	0.736176	0.229312	1.4247	-0.465892	0.729853	0.127403	2.18122	0.087156	-0.022887	-0.12639	0.737687	-0.011771	0.078761	-0.106413	0.10825	-0.746454	0.503814	0.147008	-0.07476	-0.171208	0.133633	0.127162	0.410139	-0.354999	0.272821	0.488252	-0.184284	-0.337914	-0.359984	-0.037715	0.034064	
6.85882	5	0	0.204223	0.732354	0.221838	1.40513	-0.46419	0.725043	0.126339	2.16905	0.076599	-0.0143503	-0.138556	0.71887	-0.0200065	0.0857897	-0.139336	0.131404	-0.746454	0.503814	0.131613	-0.0647005	-0.17769	0.137869	0.117988	0.403729	-0.3442	0.265765	0.484655	-0.181934	-0.340755	-0.351954	-0.0441508	0.0321272	
6.85425	5	0	0.202199	0.728533	0.214364	1.38557	-0.462487	0.720232	0.125276	2.15689	0.066042	-0.0058135	-0.150722	0.700052	-0.028242	0.0928185	-0.172258	0.154558	-0.746454	0.503814	0.116218	-0.054641	-0.184173	0.142104	0.108815	0.397319	-0.333402	0.258709	0.481058	-0.179584	-0.343596	-0.343924	-0.0505865	0.0301905	
6.8512	5	0	0.200174	0.724711	0.20689	1.366	-0.460785	0.715421	0.124212	2.14472	0.055485	0.00272325	-0.162889	0.681234	-0.0364775	0.0998472	-0.205181	0.177713	-0.746454	0.503814	0.100823	-0.0445815	-0.190655	0.146339	0.0996408	0.390909	-0.322603	0.251652	0.477462	-0.177234	-0.346438	-0.335894	-0.0570222	0.0282538	
6.84967	5	0	0.198149	0.720889	0.199416	1.34643	-0.459083	0.710611	0.123149	2.13255	0.044928	0.01126	-0.175055	0.662417	-0.044713	0.106876	-0.238103	0.200867	-0.746454	0.503814	0.085428	-0.034522	-0.197137	0.150575	0.090467	0.384499	-0.311804	0.244596	0.473865	-0.174884	-0.349279	-0.327864	-0.063458	0.026317	
6.84967	5	0	0.201303	0.711974	0.195491	1.32707	-0.453792	0.705305	0.123881	2.1229	0.0383375	0.0139275	-0.178666	0.640775	-0.0499093	0.10533	-0.25851	0.214201	-0.746454	0.503814	0.07262	-0.026153	-0.200376	0.152691	0.085834	0.373377	-0.307449	0.240115	0.471782	-0.176809	-0.341041	-0.33942	-0.0707467	0.0167695	
6.85425	5	0	0.204458	0.703059	0.191567	1.3077	-0.4485	0.699999	0.124613	2.11325	0.031747	0.016595	-0.182277	0.619133	-0.0551055	0.103784	-0.278917	0.227536	-0.746454	0.503814	0.059812	-0.017784	-0.203615	0.154808	0.081201	0.362255	-0.303094	0.235634	0.469699	-0.178734	-0.332803	-0.350976	-0.0780355	0.007222	
6.8512	5	0	0.207613	0.694144	0.187642	1.28833	-0.443209	0.694694	0.125345	2.1036	0.0251565	0.0192625	-0.185888	0.597491	-0.0603018	0.102238	-0.299324	0.240871	-0.746454	0.503814	0.047004	-0.009415	-0.206854	0.156924	0.076568	0.351134	-0.298738	0.231153	0.467617	-0.180659	-0.324565	-0.362532	-0.0853243	-0.0023255	
6.85577	5	0	0.210767	0.685229	0.183717	1.26896	-0.437918	0.689388	0.126077	2.09395	0.018566	0.02193	-0.189499	0.575849	-0.065498	0.100692	-0.319731	0.254205	-0.746454	0.503814	0.034196	-0.001046	-0.210093	0.159041	0.071935	0.340012	-0.294383	0.226672	0.465534	-0.182584	-0.316327	-0.374088	-0.092613	-0.011873	
6.86188	5	0	0.219555	0.679487	0.179978	1.25925	-0.437918	0.689388	0.124276	2.09146	0.0112277	0.0267253	-0.191914	0.561473	-0.0684732	0.10099	-0.336429	0.263474	-0.749551	0.505838	0.0239632	0.0056405	-0.213331	0.161157	0.0730985	0.328659	-0.290779	0.224317	0.462697	-0.182372	-0.318885	-0.378584	-0.096216	-0.0217607	
6.86493	5	0	0.228343	0.673745	0.176238	1.24954	-0.437918	0.689388	0.122475	2.08897	0.0038895	0.0315205	-0.194329	0.547096	-0.0714485	0.101288	-0.353127	0.272742	-0.752649	0.507862	0.0137305	0.012327	-0.216569	0.163272	0.074262	0.317306	-0.287174	0.221962	0.459859	-0.18216	-0.321443	-0.383081	-0.099819	-0.0316485	
6.87103	5	0	0.23713	0.668003	0.172499	1.23983	-0.437918	0.689388	0.120673	2.08648	-0.00344875	0.0363158	-0.196744	0.53272	-0.0744237	0.101585	-0.369824	0.28201	-0.755746	0.509886	0.00349775	0.0190135	-0.219807	0.165388	0.0754255	0.305954	-0.28357	0.219607	0.457021	-0.181948	-0.324001	-0.387577	-0.103422	-0.0415362	
6.87103	5	0	0.245918	0.662261	0.16876	1.23012	-0.437918	0.689388	0.118872	2.08399	-0.010787	0.041111	-0.199159	0.518343	-0.077399	0.101883	-0.386522	0.291279	-0.758844	0.51191	-0.006735	0.0257	-0.223045	0.167504	0.076589	0.294601	-0.279966	0.217252	0.454184	-0.181736	-0.326559	-0.392074	-0.107025	-0.051424	
6.86951	5	0	0.243099	0.660678	0.160363	1.22348	-0.437067	0.686984	0.111787	2.0813	-0.0156758	0.0443053	-0.205241	0.514354	-0.0848597	0.106758	-0.401039	0.300765	-0.759599	0.514043	-0.015156	0.0328415	-0.224563	0.171795	0.0786765	0.296766	-0.277113	0.217023	0.464969	-0.188783	-0.321162	-0.3956	-0.107889	-0.0590085	
6.87408	5	0	0.24028	0.659096	0.151967	1.21683	-0.436217	0.684581	0.104703	2.0786	-0.0205645	0.0474995	-0.211322	0.510364	-0.0923205	0.111633	-0.415556	0.310251	-0.760353	0.516177	-0.023577	0.039983	-0.226082	0.176087	0.080764	0.298931	-0.27426	0.216794	0.475754	-0.195831	-0.315766	-0.399126	-0.108754	-0.066593	
6.86645	5	0	0.237461	0.657514	0.14357	1.21018	-0.435366	0.682177	0.0976178	2.0759	-0.0254533	0.0506937	-0.217404	0.506374	-0.0997813	0.116509	-0.430074	0.319737	-0.761108	0.51831	-0.031998	0.0471245	-0.2276	0.180378	0.0828515	0.301096	-0.271407	0.216565	0.486539	-0.202878	-0.310369	-0.402653	-0.109618	-0.0741775	
6.86493	5	0	0.234642	0.655931	0.135174	1.20354	-0.434516	0.679774	0.090533	2.07321	-0.030342	0.053888	-0.223486	0.502385	-0.107242	0.121384	-0.444591	0.329223	-0.761863	0.520443	-0.040419	0.054266	-0.229119	0.18467	0.084939	0.303261	-0.268554	0.216336	0.497324	-0.209925	-0.304972	-0.406179	-0.110483	-0.081762	
6.86493	5	0	0.236545	0.641007	0.133466	1.17804	-0.429418	0.665366	0.091142	2.05636	-0.036916	0.0565452	-0.224686	0.484624	-0.106485	0.119243	-0.459084	0.338693	-0.761863	0.520443	-0.0447717	0.055471	-0.22836	0.182524	0.0820395	0.303391	-0.260586	0.209494	0.504522	-0.214628	-0.307811	-0.398156	-0.113153	-0.0942557	
6.8634	5	0	0.238449	0.626083	0.131759	1.15254	-0.42432	0.650958	0.091751	2.0395	-0.04349	0.0592025	-0.225887	0.466862	-0.105727	0.117102	-0.473576	0.348162	-0.761863	0.520443	-0.0491245	0.056676	-0.2276	0.180378	0.07914	0.303521	-0.252617	0.202652	0.511719	-0.219332	-0.31065	-0.390134	-0.115822	-0.106749	
6.85577	5	0	0.240352	0.611159	0.130051	1.12704	-0.419222	0.636549	0.09236	2.02265	-0.050064	0.0618598	-0.227087	0.449101	-0.104969	0.114961	-0.488069	0.357632	-0.761863	0.520443	-0.0534772	0.057881	-0.226841	0.178232	0.0762405	0.303651	-0.244648	0.19581	0.518917	-0.224035	-0.313488	-0.382111	-0.118491	-0.119243	
6.8573	5	0	0.242256	0.596235	0.128343	1.10154	-0.414124	0.622141	0.092969	2.0058	-0.056638	0.064517	-0.228288	0.43134	-0.104212	0.11282	-0.502562	0.367102	-0.761863	0.520443	-0.05783	0.059086	-0.226082	0.176086	0.073341	0.303781	-0.23668	0.188968	0.526115	-0.228738	-0.316327	-0.374088	-0.121161	-0.131737	
6.8573	5	0	0.249792	0.584481	0.12793	1.08251	-0.407135	0.612043	0.092727	1.99137	-0.0598332	0.0682433	-0.230715	0.41707	-0.104212	0.11282	-0.519921	0.378445	-0.761108	0.51831	-0.0629342	0.0624212	-0.222844	0.17397	0.0720662	0.299322	-0.229458	0.184249	0.523271	-0.228522	-0.317274	-0.371412	-0.130239	-0.146094	
6.85577	5	0	0.257329	0.572726	0.127517	1.06349	-0.400146	0.601945	0.092485	1.97693	-0.0630285	0.0719695	-0.233142	0.402799	-0.104212	0.11282	-0.53728	0.389787	-0.760353	0.516177	-0.0680385	0.0657565	-0.219606	0.171854	0.0707915	0.294864	-0.222237	0.17953	0.520428	-0.228305	-0.318221	-0.368737	-0.139316	-0.160452	
6.8512	5	0	0.264865	0.560972	0.127103	1.04447	-0.393158	0.591846	0.092243	1.9625	-0.0662237	0.0756958	-0.235569	0.388529	-0.104212	0.11282	-0.554639	0.40113	-0.759599	0.514043	-0.0731427	0.0690918	-0.216368	0.169739	0.0695168	0.290405	-0.215015	0.174811	0.517584	-0.228089	-0.319168	-0.366061	-0.148394	-0.17481	
6.85577	5	0	0.272401	0.549218	0.12669	1.02544	-0.386169	0.581748	0.092001	1.94806	-0.069419	0.079422	-0.237996	0.374259	-0.104212	0.11282	-0.571998	0.412473	-0.758844	0.51191	-0.078247	0.072427	-0.21313	0.167623	0.068242	0.285946	-0.207793	0.170092	0.51474	-0.227873	-0.320115	-0.363385	-0.157471	-0.189167	
6.8573	5	0	0.282764	0.539034	0.134659	1.01302	-0.376428	0.57354	0.0961915	1.93622	-0.068665	0.0772908	-0.23314	0.360535	-0.103455	0.11068	-0.569107	0.410584	-0.759599	0.514043	-0.0807978	0.0740937	-0.20665	0.163389	0.0703287	0.28811	-0.20418	0.167731	0.518339	-0.230225	-0.307418	-0.375795	-0.171188	-0.190326	
6.8573	5	0	0.293127	0.528851	0.142627	1.00059	-0.366687	0.565333	0.100382	1.92438	-0.067911	0.0751595	-0.228284	0.346811	-0.102697	0.10854	-0.566217	0.408695	-0.760353	0.516177	-0.0833485	0.0757605	-0.200171	0.159155	0.0724155	0.290273	-0.200567	0.16537	0.521939	-0.232577	-0.294721	-0.388205	-0.184906	-0.191485	
6.85577	5	0	0.303489	0.518667	0.150595	0.988163	-0.356946	0.557125	0.104572	1.91253	-0.067157	0.0730283	-0.223428	0.333088	-0.101939	0.106399	-0.563326	0.406807	-0.761108	0.51831	-0.0858992	0.0774273	-0.193691	0.154921	0.0745023	0.292437	-0.196953	0.163009	0.525539	-0.234929	-0.282025	-0.400615	-0.198624	-0.192643	
6.85577	5	0	0.313852	0.508483	0.158564	0.975735	-0.347205	0.548917	0.108763	1.90069	-0.066403	0.070897	-0.218572	0.319364	-0.101182	0.104259	-0.560435	0.404918	-0.761863	0.520443	-0.08845	0.079094	-0.187212	0.150687	0.076589	0.294601	-0.19334	0.160648	0.529138	-0.237281	-0.269328	-0.413025	-0.212341	-0.193802	
6.85882	5	0	0.317466	0.507827	0.156349	0.981996	-0.341907	0.543613	0.112111	1.89123	-0.0705295	0.0719555	-0.214924	0.319617	-0.104153	0.104555	-0.56257	0.404672	-0.761863	0.520443	-0.0866535	0.0795592	-0.181487	0.148596	0.079952	0.301229	-0.182491	0.153559	0.53919	-0.242207	-0.255938	-0.415603	-0.208682	-0.19417	
6.85577	5	0	0.321081	0.507171	0.154134	0.988256	-0.33661	0.538309	0.115459	1.88177	-0.074656	0.073014	-0.211276	0.31987	-0.107124	0.104851	-0.564706	0.404425	-0.761863	0.520443	-0.084857	0.0800245	-0.175762	0.146505	0.083315	0.307858	-0.171642	0.14647	0.549243	-0.247134	-0.242547	-0.418181	-0.205022	-0.194538	
6.8512	5	0	0.324696	0.506516	0.151918	0.994517	-0.331313	0.533005	0.118808	1.8723	-0.0787825	0.0740725	-0.207629	0.320122	-0.110095	0.105147	-0.566841	0.404178	-0.761863	0.520443	-0.0830605	0.0804897	-0.170036	0.144414	0.086678	0.314487	-0.160793	0.139381	0.559295	-0.25206	-0.229157	-0.420759	-0.201363	-0.194905	
6.8573	5	0	0.32831	0.50586	0.149703	1.00078	-0.326015	0.527701	0.122156	1.86284	-0.082909	0.075131	-0.203981	0.320375	-0.113066	0.105443	-0.568976	0.403932	-0.761863	0.520443	-0.081264	0.080955	-0.164311	0.142323	0.090041	0.321115	-0.149944	0.132292	0.569347	-0.256986	-0.215767	-0.423337	-0.197704	-0.195273	
6.85425	5	0	0.330665	0.499204	0.151699	0.985044	-0.323472	0.520515	0.12453	1.84858	-0.0836627	0.0772615	-0.207629	0.320122	-0.110095	0.105147	-0.572621	0.407956	-0.75952	0.520553	-0.07616	0.07762	-0.154575	0.135961	0.0934052	0.327754	-0.135457	0.122826	0.575804	-0.259563	-0.201665	-0.416067	-0.204089	-0.197168	
6.84814	5	0	0.33302	0.492549	0.153695	0.96931	-0.320929	0.513329	0.126905	1.83431	-0.0844165	0.079392	-0.211276	0.31987	-0.107124	0.104851	-0.576267	0.411979	-0.757178	0.520663	-0.071056	0.074285	-0.14484	0.1296	0.0967695	0.334394	-0.12097	0.113361	0.582261	-0.262139	-0.187563	-0.408797	-0.210475	-0.199064	
6.85272	5	0	0.335375	0.485893	0.155691	0.953577	-0.318387	0.506144	0.129279	1.82005	-0.0851703	0.0815225	-0.214924	0.319617	-0.104153	0.104555	-0.579912	0.416002	-0.754835	0.520772	-0.065952	0.07095	-0.135104	0.123238	0.100134	0.341033	-0.106484	0.103895	0.588718	-0.264716	-0.173462	-0.401526	-0.216861	-0.20096	
6.84967	5	0	0.33773	0.479238	0.157687	0.937844	-0.315844	0.498958	0.131653	1.80578	-0.085924	0.083653	-0.218572	0.319364	-0.101182	0.104259	-0.583557	0.420026	-0.752493	0.520882	-0.060848	0.067615	-0.125368	0.116876	0.103498	0.347672	-0.091997	0.094429	0.595175	-0.267293	-0.15936	-0.394256	-0.223246	-0.202855	
6.8512	5	0	0.339299	0.474804	0.159671	0.922149	-0.310545	0.493655	0.137493	1.78928	-0.0802897	0.0783335	-0.213723	0.305662	-0.0899885	0.0969447	-0.582801	0.417891	-0.74554	0.514698	-0.0557407	0.0642777	-0.118112	0.110485	0.104312	0.345372	-0.081116	0.087319	0.595931	-0.269429	-0.148078	-0.378897	-0.236924	-0.204019	
6.84814	5	0	0.340868	0.470369	0.161656	0.906454	-0.305246	0.488352	0.143334	1.77277	-0.0746555	0.073014	-0.208875	0.291959	-0.078795	0.0896305	-0.582046	0.415756	-0.738587	0.508514	-0.0506335	0.0609405	-0.110855	0.104094	0.105126	0.343071	-0.070235	0.080209	0.596687	-0.271566	-0.136796	-0.363537	-0.250602	-0.205182	
6.84662	5	0	0.342437	0.465935	0.16364	0.890758	-0.299947	0.483049	0.149174	1.75627	-0.0690213	0.0676945	-0.204026	0.278257	-0.0676015	0.0823163	-0.581291	0.41362	-0.731633	0.50233	-0.0455262	0.0576033	-0.103599	0.097703	0.10594	0.340771	-0.059354	0.073099	0.597442	-0.273702	-0.125515	-0.348178	-0.26428	-0.206346	
6.84662	5	0	0.344006	0.461501	0.165625	0.875063	-0.294648	0.477746	0.155014	1.73976	-0.063387	0.062375	-0.199178	0.264555	-0.056408	0.075002	-0.580535	0.411485	-0.72468	0.496146	-0.040419	0.054266	-0.096343	0.091312	0.106754	0.338471	-0.048473	0.065989	0.598198	-0.275838	-0.114233	-0.332819	-0.277958	-0.20751	
6.84509	5	0	0.350458	0.462399	0.171371	0.868912	-0.288279	0.479107	0.158346	1.73035	-0.0592577	0.0613148	-0.196757	0.257711	-0.0414603	0.065235	-0.566832	0.404173	-0.719232	0.494227	-0.0353087	0.0509267	-0.084094	0.084958	0.107567	0.336171	-0.0412113	0.061244	0.595347	-0.275617	-0.102656	-0.330027	-0.280609	-0.219894	
6.83594	5	0	0.35691	0.463298	0.177117	0.862761	-0.28191	0.480468	0.161679	1.72093	-0.0551285	0.0602545	-0.194335	0.250868	-0.0265125	0.055468	-0.553129	0.396861	-0.713784	0.492307	-0.0301985	0.0475875	-0.071845	0.078604	0.108381	0.333871	-0.0339495	0.056499	0.592495	-0.275396	-0.091079	-0.327234	-0.283261	-0.232278	
6.83899	5	0	0.363362	0.464196	0.182862	0.856609	-0.27554	0.481829	0.165011	1.71151	-0.0509993	0.0591943	-0.191913	0.244025	-0.0115647	0.045701	-0.539426	0.389548	-0.708336	0.490387	-0.0250882	0.0442483	-0.059596	0.07225	0.109194	0.331572	-0.0266877	0.051754	0.589643	-0.275174	-0.079502	-0.324442	-0.285913	-0.244663	
6.83899	5	0	0.369814	0.465094	0.188608	0.850458	-0.269171	0.48319	0.168343	1.70209	-0.04687	0.058134	-0.189492	0.237181	0.003383	0.035934	-0.525723	0.382236	-0.702888	0.488468	-0.019978	0.040909	-0.047347	0.065896	0.110008	0.329272	-0.019426	0.047009	0.586792	-0.274953	-0.067925	-0.32165	-0.288564	-0.257047	
6.83288	5	0	0.381469	0.46089	0.187505	0.853576	-0.261946	0.482154	0.172504	1.69033	-0.041984	0.0549415	-0.190722	0.2301	0.003383	0.035934	-0.524968	0.380101	-0.696681	0.484412	-0.0207325	0.0430418	-0.0383375	0.0616592	0.106642	0.322639	-0.0114057	0.0401335	0.585452	-0.279001	-0.0605625	-0.330605	-0.287576	-0.269769	
6.82983	5	0	0.393125	0.456685	0.186401	0.856693	-0.254721	0.481117	0.176665	1.67857	-0.037098	0.051749	-0.191951	0.223019	0.003383	0.035934	-0.524212	0.377966	-0.690473	0.480356	-0.021487	0.0451745	-0.029328	0.0574225	0.103275	0.316006	-0.0033855	0.033258	0.584113	-0.28305	-0.0532	-0.339561	-0.286589	-0.282492	
6.82678	5	0	0.40478	0.452481	0.185298	0.859811	-0.247497	0.480081	0.180825	1.66682	-0.032212	0.0485565	-0.193181	0.215939	0.003383	0.035934	-0.523456	0.37583	-0.684265	0.4763	-0.0222415	0.0473072	-0.0203185	0.0531857	0.0999093	0.309373	0.00463475	0.0263825	0.582774	-0.287098	-0.0458375	-0.348517	-0.285601	-0.295214	
6.82678	5	0	0.416436	0.448277	0.184195	0.862929	-0.240272	0.479045	0.184986	1.65506	-0.027326	0.045364	-0.194411	0.208858	0.003383	0.035934	-0.522701	0.373695	-0.678058	0.472244	-0.022996	0.04944	-0.011309	0.048949	0.096543	0.30274	0.012655	0.019507	0.581434	-0.291146	-0.038475	-0.357472	-0.284613	-0.307936	
6.82526	5	0	0.413595	0.446721	0.182861	0.856613	-0.237729	0.471857	0.179397	1.64066	-0.024882	0.043767	-0.188372	0.191792	0.003383	0.035934	-0.520562	0.373939	-0.677303	0.47011	-0.024797	0.0489772	-0.0072905	0.044673	0.097701	0.291399	0.012655	0.019507	0.57934	-0.293058	-0.0356155	-0.365553	-0.287331	-0.310181	
6.82526	5	0	0.410755	0.445166	0.181526	0.850297	-0.235185	0.46467	0.173808	1.62627	-0.022438	0.04217	-0.182334	0.174727	0.003383	0.035934	-0.518423	0.374183	-0.676548	0.467977	-0.026598	0.0485145	-0.003272	0.040397	0.098859	0.280058	0.012655	0.019507	0.577245	-0.294969	-0.032756	-0.373634	-0.290049	-0.312426	
6.82526	5	0	0.407914	0.44361	0.180192	0.84398	-0.232642	0.457482	0.168219	1.61188	-0.019994	0.040573	-0.176295	0.157661	0.003383	0.035934	-0.516283	0.374427	-0.675793	0.465843	-0.028399	0.0480517	0.0007465	0.036121	0.100017	0.268716	0.012655	0.019507	0.575151	-0.296881	-0.0298965	-0.381714	-0.292766	-0.314672	
6.82526	5	0	0.405073	0.442055	0.178858	0.837664	-0.230099	0.450294	0.16263	1.59749	-0.01755	0.038976	-0.170257	0.140595	0.003383	0.035934	-0.514144	0.374671	-0.675038	0.463709	-0.0302	0.047589	0.004765	0.031845	0.101175	0.257375	0.012655	0.019507	0.573056	-0.298793	-0.027037	-0.389795	-0.295484	-0.316917	
6.82526	5	0	0.406154	0.429422	0.177286	0.821948	-0.228634	0.436461	0.165629	1.57394	-0.01924	0.0384422	-0.173938	0.129905	0.00040075	0.0362375	-0.510493	0.370644	-0.684347	0.469792	-0.03966	0.052131	-0.00099225	0.033957	0.099427	0.246189	0.0170435	0.015005	0.577415	-0.303281	-0.0241805	-0.397869	-0.291841	-0.317287	
6.82526	5	0	0.407235	0.416788	0.175715	0.806232	-0.227169	0.422627	0.168627	1.55039	-0.02093	0.0379085	-0.177619	0.119216	-0.0025815	0.036541	-0.506842	0.366616	-0.693657	0.475875	-0.04912	0.056673	-0.0067495	0.036069	0.097679	0.235004	0.021432	0.010503	0.581773	-0.307769	-0.021324	-0.405942	-0.288198	-0.317658	
6.82373	5	0	0.408316	0.404154	0.174144	0.790516	-0.225705	0.408793	0.171625	1.52684	-0.02262	0.0373747	-0.181301	0.108526	-0.00556375	0.0368445	-0.503191	0.362588	-0.702967	0.481958	-0.05858	0.061215	-0.0125068	0.038181	0.095931	0.223818	0.0258205	0.006001	0.586132	-0.312256	-0.0184675	-0.414015	-0.284555	-0.318028	
6.82678	5	0	0.409397	0.391521	0.172572	0.7748	-0.22424	0.39496	0.174624	1.50329	-0.02431	0.036841	-0.184982	0.097836	-0.008546	0.037148	-0.49954	0.358561	-0.712276	0.488041	-0.06804	0.065757	-0.018264	0.040293	0.094183	0.212632	0.030209	0.001499	0.590491	-0.316744	-0.015611	-0.422089	-0.280912	-0.318398	
6.82068	5	0	0.409688	0.381124	0.176721	0.753004	-0.224473	0.38593	0.175123	1.48681	-0.0267535	0.0384375	-0.176563	0.0740438	-0.0122837	0.0395903	-0.50533	0.362345	-0.721575	0.494117	-0.0807907	0.0740887	-0.0247755	0.0445478	0.0906755	0.190334	0.0258205	0.006001	0.576838	-0.309462	-0.0352457	-0.425783	-0.278137	-0.32624	
6.82068	5	0	0.409979	0.370727	0.18087	0.731209	-0.224706	0.376899	0.175623	1.47034	-0.029197	0.040034	-0.168145	0.0502515	-0.0160215	0.0420325	-0.51112	0.366128	-0.730874	0.500194	-0.0935415	0.0824205	-0.031287	0.0488025	0.087168	0.168036	0.021432	0.010503	0.563185	-0.30218	-0.0548805	-0.429477	-0.275363	-0.334082	
6.8161	5	0	0.410271	0.360329	0.185018	0.709413	-0.224938	0.367869	0.176123	1.45386	-0.0316405	0.0416305	-0.159726	0.0264593	-0.0197592	0.0444748	-0.516911	0.369912	-0.740174	0.50627	-0.106292	0.0907523	-0.0377985	0.0530573	0.0836605	0.145739	0.0170435	0.015005	0.549532	-0.294898	-0.0745153	-0.433172	-0.272588	-0.341924	
6.8161	5	0	0.410562	0.349932	0.189167	0.687617	-0.225171	0.358839	0.176622	1.43739	-0.034084	0.043227	-0.151307	0.002667	-0.023497	0.046917	-0.522701	0.373695	-0.749473	0.512347	-0.119043	0.099084	-0.04431	0.057312	0.080153	0.123441	0.012655	0.019507	0.535879	-0.287616	-0.09415	-0.436866	-0.269813	-0.349766	
6.81457	5	0	0.416533	0.342632	0.190012	0.675164	-0.220712	0.355925	0.178103	1.42568	-0.0316405	0.0416305	-0.147761	-0.017893	-0.0309675	0.0517985	-0.545823	0.388803	-0.751816	0.512238	-0.126685	0.104077	-0.047564	0.0594382	0.0791992	0.110052	0.0162913	0.017131	0.533035	-0.287396	-0.074969	-0.455585	-0.281556	-0.366156	
6.81152	5	0	0.422504	0.335332	0.190857	0.66271	-0.216253	0.353012	0.179584	1.41396	-0.029197	0.040034	-0.144215	-0.038453	-0.038438	0.05668	-0.568944	0.403912	-0.754158	0.512128	-0.134326	0.109071	-0.050818	0.0615645	0.0782455	0.0966635	0.0199275	0.014755	0.530191	-0.287177	-0.055788	-0.474305	-0.293298	-0.382545	
6.81763	5	0	0.428474	0.328031	0.191702	0.650257	-0.211794	0.350098	0.181065	1.40225	-0.0267535	0.0384375	-0.140669	-0.059013	-0.0459085	0.0615615	-0.592066	0.419021	-0.756501	0.512019	-0.141967	0.114064	-0.054072	0.0636908	0.0772918	0.0832748	0.0235637	0.012379	0.527348	-0.286957	-0.036607	-0.493024	-0.30504	-0.398935	
6.82526	5	0	0.434445	0.320731	0.192547	0.637803	-0.207335	0.347184	0.182546	1.39054	-0.02431	0.036841	-0.137123	-0.079573	-0.053379	0.066443	-0.615188	0.434129	-0.758844	0.51191	-0.149609	0.119057	-0.057326	0.065817	0.076338	0.069886	0.0272	0.010003	0.524504	-0.286738	-0.017426	-0.511744	-0.316783	-0.415324	
6.83288	5	0	0.440918	0.321601	0.190105	0.634644	-0.203718	0.346656	0.185016	1.38356	-0.0194212	0.0336465	-0.134728	-0.086341	-0.057112	0.068882	-0.620959	0.4379	-0.765036	0.515956	-0.154699	0.122383	-0.054072	0.0636908	0.0800385	0.067468	0.038118	0.002869	0.530948	-0.289309	-0.005808	-0.509022	-0.31945	-0.427579	
6.84357	5	0	0.44739	0.32247	0.187663	0.631485	-0.200101	0.346129	0.187486	1.37658	-0.0145325	0.030452	-0.132333	-0.093109	-0.060845	0.071321	-0.626729	0.44167	-0.771227	0.520002	-0.15979	0.12571	-0.050818	0.0615645	0.083739	0.06505	0.049036	-0.004265	0.537391	-0.291881	0.00581	-0.5063	-0.322118	-0.439833	
6.84967	5	0	0.453863	0.32334	0.185222	0.628325	-0.196485	0.345602	0.189955	1.3696	-0.00964375	0.0272575	-0.129938	-0.099877	-0.064578	0.07376	-0.6325	0.445441	-0.777419	0.524047	-0.164881	0.129036	-0.047564	0.0594382	0.0874395	0.062632	0.059954	-0.011399	0.543834	-0.294453	0.017428	-0.503578	-0.324786	-0.452087	
6.86035	5	0	0.460335	0.32421	0.18278	0.625166	-0.192868	0.345074	0.192425	1.36262	-0.004755	0.024063	-0.127543	-0.106645	-0.068311	0.076199	-0.638271	0.449212	-0.783611	0.528093	-0.169971	0.132362	-0.04431	0.057312	0.09114	0.060214	0.070872	-0.018533	0.550278	-0.297024	0.029046	-0.500856	-0.327453	-0.464342	
6.86951	5	0	0.466313	0.316904	0.183617	0.612747	-0.186715	0.337383	0.194893	1.35565	-0.00230975	0.0224652	-0.119037	-0.109602	-0.0794997	0.08351	-0.638271	0.449212	-0.795981	0.536176	-0.174304	0.133555	-0.04431	0.057312	0.0924255	0.0646252	0.0781585	-0.0232943	0.564692	-0.306442	0.0371217	-0.499937	-0.322899	-0.467317	
6.87103	5	0	0.472291	0.309598	0.184453	0.600328	-0.180562	0.329692	0.19736	1.34867	0.0001355	0.0208675	-0.110532	-0.112559	-0.0906885	0.090821	-0.638271	0.449212	-0.808351	0.544259	-0.178638	0.134747	-0.04431	0.057312	0.093711	0.0690365	0.085445	-0.0280555	0.579105	-0.31586	0.0451975	-0.499018	-0.318346	-0.470293	
6.88171	5	0	0.478269	0.302293	0.18529	0.587909	-0.174409	0.322	0.199828	1.3417	0.00258075	0.0192698	-0.102027	-0.115515	-0.101877	0.098132	-0.638271	0.449212	-0.820721	0.552342	-0.182971	0.135939	-0.04431	0.057312	0.0949965	0.0734477	0.0927315	-0.0328167	0.593519	-0.325279	0.0532732	-0.4981	-0.313792	-0.473268	
6.88476	5	0	0.484247	0.294987	0.186127	0.57549	-0.168256	0.314309	0.202296	1.33472	0.005026	0.017672	-0.093521	-0.118472	-0.113066	0.105443	-0.638271	0.449212	-0.833091	0.560425	-0.187304	0.137132	-0.04431	0.057312	0.096282	0.077859	0.100018	-0.037578	0.607932	-0.334697	0.061349	-0.497181	-0.309238	-0.476244	
6.88171	5	0	0.490226	0.287682	0.194028	0.563213	-0.162946	0.309005	0.213515	1.32561	0.009919	0.0144747	-0.08261	-0.128202	-0.12424	0.112744	-0.641155	0.451096	-0.846198	0.570629	-0.193143	0.142586	-0.047564	0.0594382	0.101273	0.0798533	0.102911	-0.0378335	0.623719	-0.340094	0.0656265	-0.485498	-0.301084	-0.469576	
6.87866	5	0	0.496205	0.280377	0.20193	0.550936	-0.157635	0.303701	0.224735	1.31649	0.014812	0.0112775	-0.071699	-0.137933	-0.135414	0.120046	-0.644039	0.452981	-0.859306	0.580834	-0.198982	0.14804	-0.050818	0.0615645	0.106263	0.0818475	0.105804	-0.038089	0.639506	-0.345491	0.069904	-0.473815	-0.292929	-0.462909	
6.87713	5	0	0.502185	0.273072	0.209832	0.53866	-0.152325	0.298396	0.235954	1.30737	0.019705	0.00808025	-0.060788	-0.147664	-0.146588	0.127348	-0.646923	0.454865	-0.872413	0.591038	-0.20482	0.153494	-0.054072	0.0636908	0.111254	0.0838417	0.108697	-0.0383445	0.655294	-0.350888	0.0741815	-0.462131	-0.284774	-0.456241	
6.87103	5	0	0.508164	0.265767	0.217733	0.526383	-0.147015	0.293092	0.247173	1.29825	0.024598	0.004883	-0.049877	-0.157394	-0.157762	0.134649	-0.649807	0.456749	-0.88552	0.601242	-0.210659	0.158948	-0.057326	0.065817	0.116244	0.085836	0.11159	-0.0386	0.671081	-0.356285	0.078459	-0.450448	-0.27662	-0.449573	
6.86798	5	0	0.518295	0.265945	0.223454	0.520276	-0.136982	0.293877	0.256943	1.30081	0.0368428	-0.00311775	-0.0352077	-0.156569	-0.160726	0.134941	-0.643283	0.450845	-0.88785	0.601125	-0.208117	0.157287	-0.0508168	0.0615638	0.118337	0.0879735	0.118886	-0.043367	0.681175	-0.36124	0.0875077	-0.452218	-0.278419	-0.454398	
6.8634	5	0	0.528426	0.266122	0.229175	0.514168	-0.126949	0.294663	0.266712	1.30336	0.0490875	-0.0111185	-0.0205385	-0.155744	-0.163691	0.135234	-0.636759	0.444941	-0.890181	0.601008	-0.205576	0.155626	-0.0443075	0.0573105	0.120431	0.090111	0.126182	-0.048134	0.691269	-0.366195	0.0965565	-0.453989	-0.280218	-0.459223	
6.8573	5	0	0.538557	0.2663	0.234895	0.508061	-0.116915	0.295448	0.276481	1.30591	0.0613323	-0.0191192	-0.00586925	-0.154918	-0.166656	0.135526	-0.630234	0.439037	-0.892512	0.600891	-0.203034	0.153965	-0.0377982	0.0530573	0.122525	0.0922485	0.133477	-0.052901	0.701362	-0.37115	0.105605	-0.455759	-0.282018	-0.464048	
6.85425	5	0	0.548688	0.266478	0.240616	0.501953	-0.106882	0.296233	0.286251	1.30847	0.073577	-0.02712	0.0088	-0.154093	-0.16962	0.135819	-0.62371	0.433133	-0.894842	0.600774	-0.200492	0.152304	-0.031289	0.048804	0.124618	0.094386	0.140773	-0.057668	0.711456	-0.376105	0.114654	-0.457529	-0.283817	-0.468873	
6.85272	5	0	0.559349	0.274832	0.247702	0.502063	-0.0965823	0.306049	0.300342	1.30642	0.0932048	-0.0399453	0.0235065	-0.153276	-0.16962	0.135819	-0.621579	0.433382	-0.885583	0.594724	-0.184471	0.140197	-0.017497	0.0381425	0.137524	0.0982372	0.152481	-0.066953	0.721564	-0.381069	0.13351	-0.451179	-0.287415	-0.478507	
6.8512	5	0	0.57001	0.283185	0.254788	0.502173	-0.0862825	0.315865	0.314433	1.30437	0.112833	-0.0527705	0.038213	-0.152459	-0.16962	0.135819	-0.619449	0.433631	-0.876324	0.588674	-0.16845	0.128089	-0.003705	0.027481	0.150429	0.102088	0.164188	-0.076238	0.731671	-0.386033	0.152366	-0.444829	-0.291013	-0.488142	
6.85425	5	0	0.58067	0.291539	0.261874	0.502283	-0.0759828	0.325681	0.328523	1.30232	0.13246	-0.0655958	0.0529195	-0.151642	-0.16962	0.135819	-0.617318	0.43388	-0.867064	0.582623	-0.152428	0.115982	0.010087	0.0168195	0.163334	0.10594	0.175895	-0.085523	0.741779	-0.390996	0.171222	-0.438479	-0.294612	-0.497776	
6.85272	5	0	0.591331	0.299893	0.26896	0.502393	-0.065683	0.335497	0.342614	1.30027	0.152088	-0.078421	0.067626	-0.150825	-0.16962	0.135819	-0.615188	0.434129	-0.857805	0.576573	-0.136407	0.103875	0.023879	0.006158	0.17624	0.109791	0.187603	-0.094808	0.751886	-0.39596	0.190078	-0.432129	-0.29821	-0.50741	
6.85882	5	0	0.594706	0.309627	0.262142	0.511591	-0.0626473	0.34641	0.345271	1.30032	0.168546	-0.0875367	0.077556	-0.136413	-0.165142	0.131248	-0.594205	0.418777	-0.848536	0.570516	-0.118561	0.092214	0.0401983	-0.00450525	0.180921	0.120798	0.193409	-0.0953318	0.760496	-0.396661	0.200848	-0.42669	-0.290014	-0.510769	
6.8634	5	0	0.598081	0.319361	0.255323	0.52079	-0.0596115	0.357324	0.347928	1.30038	0.185003	-0.0966525	0.087486	-0.122001	-0.160664	0.126677	-0.573221	0.403424	-0.839267	0.56446	-0.100715	0.080553	0.0565175	-0.0151685	0.185602	0.131804	0.199215	-0.0958555	0.769106	-0.397362	0.211618	-0.421252	-0.281818	-0.514129	
6.87103	5	0	0.601455	0.329095	0.248505	0.529988	-0.0565758	0.368237	0.350585	1.30043	0.20146	-0.105768	0.097416	-0.107589	-0.156185	0.122107	-0.552237	0.388072	-0.829997	0.558403	-0.082869	0.068892	0.0728368	-0.0258317	0.190283	0.142811	0.205022	-0.0963792	0.777716	-0.398064	0.222388	-0.415814	-0.273622	-0.517489	
6.87561	5	0	0.60483	0.338829	0.241687	0.539186	-0.05354	0.37915	0.353242	1.30048	0.217918	-0.114884	0.107346	-0.093177	-0.151707	0.117536	-0.531254	0.37272	-0.820728	0.552346	-0.065023	0.057231	0.089156	-0.036495	0.194964	0.153818	0.210828	-0.096903	0.786326	-0.398765	0.233158	-0.410375	-0.265426	-0.520848	
6.88019	5	0	0.604044	0.34105	0.24387	0.533016	-0.0515977	0.383416	0.360209	1.29593	0.233452	-0.126672	0.119628	-0.0959673	-0.144259	0.11267	-0.502273	0.353783	-0.814543	0.548305	-0.050451	0.0493482	0.0989623	-0.0429028	0.201269	0.160266	0.221806	-0.104077	0.794948	-0.399471	0.24299	-0.402216	-0.264582	-0.503408	
6.88171	5	0	0.603258	0.343271	0.246053	0.526846	-0.0496555	0.387682	0.367175	1.29138	0.248986	-0.13846	0.13191	-0.0987575	-0.136812	0.107803	-0.473293	0.334846	-0.808358	0.544264	-0.035879	0.0414655	0.108768	-0.0493105	0.207575	0.166714	0.232785	-0.11125	0.80357	-0.400176	0.252821	-0.394057	-0.263738	-0.485967	
6.88324	5	0	0.602473	0.345491	0.248237	0.520677	-0.0477132	0.391947	0.374142	1.28683	0.26452	-0.150249	0.144192	-0.101548	-0.129364	0.102937	-0.444312	0.31591	-0.802173	0.540222	-0.021307	0.0335828	0.118575	-0.0557182	0.213881	0.173163	0.243764	-0.118423	0.812192	-0.400882	0.262653	-0.385897	-0.262895	-0.468527	
6.88629	5	0	0.601687	0.347712	0.25042	0.514507	-0.045771	0.396213	0.381109	1.28228	0.280054	-0.162037	0.156474	-0.104338	-0.121916	0.09807	-0.415331	0.296973	-0.795988	0.536181	-0.006735	0.0257	0.128381	-0.062126	0.220186	0.179611	0.254742	-0.125597	0.820814	-0.401588	0.272485	-0.377738	-0.262051	-0.451087	
6.88934	5	0	0.606125	0.344812	0.256417	0.517704	-0.0384847	0.395144	0.388081	1.27772	0.29486	-0.171711	0.166366	-0.10032	-0.11819	0.0956353	-0.389165	0.279875	-0.781261	0.528198	0.0104257	0.0161258	0.140715	-0.0685355	0.224393	0.183916	0.255495	-0.127724	0.827326	-0.404199	0.265046	-0.368705	-0.252033	-0.449621	
6.88782	5	0	0.610564	0.341912	0.262414	0.520902	-0.0311985	0.394076	0.395053	1.27316	0.309665	-0.181385	0.176258	-0.0963015	-0.114463	0.0932005	-0.362998	0.262777	-0.766533	0.520215	0.0275865	0.0065515	0.153049	-0.074945	0.228601	0.188221	0.256248	-0.129852	0.833837	-0.40681	0.257608	-0.359672	-0.242015	-0.448156	
6.88782	5	0	0.615002	0.339012	0.268412	0.524099	-0.0239122	0.393007	0.402026	1.26861	0.32447	-0.19106	0.186151	-0.0922832	-0.110736	0.0907658	-0.336832	0.24568	-0.751806	0.512231	0.0447472	-0.00302275	0.165382	-0.0813545	0.232809	0.192527	0.257	-0.131979	0.840348	-0.409421	0.250169	-0.350639	-0.231998	-0.44669	
6.89392	5	0	0.61944	0.336112	0.274409	0.527296	-0.016626	0.391938	0.408998	1.26405	0.339276	-0.200734	0.196043	-0.088265	-0.10701	0.088331	-0.310665	0.228582	-0.737079	0.504248	0.061908	-0.012597	0.177716	-0.087764	0.237016	0.196832	0.257753	-0.134106	0.84686	-0.412032	0.242731	-0.341606	-0.22198	-0.445224	
6.8985	0	5	0.625965	0.336973	0.287518	0.530607	-0.007382	0.395137	0.418836	1.26658	0.353353	-0.208294	0.207162	-0.0876582	-0.0965782	0.0831588	-0.285174	0.213567	-0.714602	0.487921	0.0857515	-0.029816	0.19411	-0.0984763	0.241227	0.201143	0.257753	-0.134106	0.849739	-0.41227	0.245366	-0.337064	-0.220175	-0.440389	
6.90613	0	5	0.632489	0.337834	0.300627	0.533918	0.001862	0.398336	0.428674	1.26912	0.36743	-0.215855	0.21828	-0.0870515	-0.0861465	0.0779865	-0.259683	0.198551	-0.692125	0.471595	0.109595	-0.047035	0.210504	-0.109188	0.245437	0.205453	0.257753	-0.134106	0.852619	-0.412508	0.248001	-0.332523	-0.21837	-0.435554	
6.90918	0	5	0.639014	0.338694	0.313736	0.537228	0.011106	0.401536	0.438512	1.27165	0.381508	-0.223415	0.229399	-0.0864448	-0.0757147	0.0728142	-0.234191	0.183536	-0.669648	0.455268	0.133439	-0.064254	0.226898	-0.119901	0.249647	0.209763	0.257753	-0.134106	0.855498	-0.412745	0.250637	-0.327982	-0.216565	-0.430718	
6.92901	0	5	0.645539	0.339555	0.326845	0.540539	0.02035	0.404735	0.44835	1.27418	0.395585	-0.230976	0.240518	-0.085838	-0.065283	0.067642	-0.2087	0.168521	-0.647171	0.438941	0.157282	-0.081473	0.243292	-0.130613	0.253858	0.214074	0.257753	-0.134106	0.858378	-0.412983	0.253272	-0.32344	-0.21476	-0.425883	
6.9397	0	5	0.646837	0.345546	0.323827	0.559173	0.0251012	0.410882	0.453881	1.28133	0.40301	-0.235828	0.246733	-0.0820178	-0.0578155	0.0627627	-0.186057	0.155367	-0.61368	0.418697	0.185587	-0.0999678	0.263006	-0.143495	0.253524	0.22313	0.261416	-0.136499	0.862016	-0.41536	0.250637	-0.327982	-0.204762	-0.41434	
6.95648	0	5	0.648135	0.351536	0.320808	0.577807	0.0298525	0.417029	0.459411	1.28848	0.410436	-0.240679	0.252947	-0.0781975	-0.050348	0.0578835	-0.163415	0.142213	-0.580188	0.398452	0.213892	-0.118462	0.282721	-0.156377	0.253189	0.232186	0.265078	-0.138893	0.865654	-0.417737	0.248001	-0.332523	-0.194765	-0.402797	
6.96258	0	5	0.649432	0.357526	0.31779	0.596441	0.0346038	0.423177	0.464942	1.29564	0.417861	-0.245531	0.259162	-0.0743772	-0.0428805	0.0530043	-0.140772	0.12906	-0.546697	0.378208	0.242196	-0.136957	0.302435	-0.169258	0.252854	0.241242	0.268741	-0.141286	0.869292	-0.420114	0.245366	-0.337064	-0.184767	-0.391254	
6.97327	0	5	0.65073	0.363517	0.314772	0.615075	0.039355	0.429324	0.470472	1.30279	0.425286	-0.250383	0.265377	-0.070557	-0.035413	0.048125	-0.11813	0.115906	-0.513205	0.357964	0.270501	-0.155452	0.322149	-0.18214	0.25252	0.250298	0.272404	-0.143679	0.87293	-0.422491	0.242731	-0.341606	-0.174769	-0.379711	
6.97784	0	5	0.645776	0.358207	0.321618	0.605837	0.041059	0.424508	0.474797	1.29817	0.424532	-0.248252	0.262873	-0.074176	-0.032434	0.047823	-0.10423	0.108465	-0.478822	0.335497	0.292975	-0.168498	0.334558	-0.188598	0.250892	0.2549	0.273156	-0.145806	0.875055	-0.420591	0.241056	-0.348854	-0.162944	-0.363263	
6.98089	0	5	0.640821	0.352897	0.328463	0.596599	0.042763	0.419693	0.479121	1.29355	0.423778	-0.246121	0.260369	-0.077795	-0.029455	0.047521	-0.090329	0.101024	-0.444438	0.31303	0.315449	-0.181543	0.346967	-0.195056	0.249263	0.259502	0.273908	-0.147932	0.877181	-0.418691	0.239381	-0.356102	-0.151119	-0.346814	
6.98089	0	5	0.635867	0.347588	0.335309	0.587362	0.044467	0.414877	0.483446	1.28893	0.423024	-0.243989	0.257866	-0.081414	-0.026476	0.047219	-0.0764285	0.093583	-0.410054	0.290563	0.337922	-0.194589	0.359376	-0.201515	0.247635	0.264105	0.274661	-0.150058	0.879306	-0.416791	0.237706	-0.363349	-0.139294	-0.330365	
6.98242	0	5	0.630913	0.342278	0.342154	0.578124	0.046171	0.410061	0.487771	1.28431	0.42227	-0.241858	0.255362	-0.085033	-0.023497	0.046917	-0.062528	0.086142	-0.375671	0.268096	0.360396	-0.207635	0.371785	-0.207973	0.246006	0.268707	0.275413	-0.152185	0.881432	-0.414891	0.236031	-0.370597	-0.127469	-0.313917	
6.98089	0	5	0.619448	0.336116	0.346535	0.565742	0.041665	0.413005	0.490249	1.2773	0.413125	-0.237521	0.253881	-0.112897	-0.0197592	0.0444748	-0.0734993	0.091669	-0.3128	0.227015	0.375916	-0.217776	0.372544	-0.210119	0.229696	0.217708	0.26443	-0.145008	0.807599	-0.37158	0.173371	-0.396031	-0.12478	-0.301532	
6.97479	0	5	0.607984	0.329954	0.350917	0.55336	0.037159	0.415949	0.492727	1.2703	0.40398	-0.233184	0.2524	-0.140761	-0.0160215	0.0420325	-0.0844705	0.097196	-0.249928	0.185934	0.391436	-0.227917	0.373304	-0.212265	0.213386	0.166709	0.253447	-0.137831	0.733766	-0.328269	0.110711	-0.421464	-0.12209	-0.289148	
6.97174	0	5	0.596519	0.323792	0.355298	0.540978	0.032653	0.418894	0.495206	1.26329	0.394836	-0.228847	0.25092	-0.168624	-0.0122837	0.0395903	-0.0954417	0.102723	-0.187057	0.144852	0.406957	-0.238059	0.374063	-0.214411	0.197076	0.115711	0.242463	-0.130655	0.659933	-0.284957	0.0480518	-0.446898	-0.119401	-0.276763	
6.97479	0	5	0.585055	0.31763	0.359679	0.528596	0.028147	0.421838	0.497684	1.25629	0.385691	-0.22451	0.249439	-0.196488	-0.008546	0.037148	-0.106413	0.10825	-0.124186	0.103771	0.422477	-0.2482	0.374822	-0.216557	0.180766	0.064712	0.23148	-0.123478	0.5861	-0.241646	-0.014608	-0.472331	-0.116712	-0.264378	
6.97937	0	5	0.576195	0.32342	0.365429	0.522461	0.0365572	0.427455	0.499532	1.25867	0.358528	-0.206761	0.254144	-0.220454	-0.00480675	0.0347047	-0.0866357	0.0969693	-0.042513	0.0520445	0.453603	-0.268538	0.407072	-0.23598	0.169471	0.056327	0.23148	-0.123478	0.586856	-0.243784	-0.0243085	-0.480428	-0.100196	-0.260999	
6.99158	0	5	0.567335	0.32921	0.371178	0.516326	0.0449675	0.433072	0.50138	1.26105	0.331365	-0.189012	0.258848	-0.244421	-0.0010675	0.0322615	-0.0668585	0.0856885	0.03916	0.000318	0.484728	-0.288876	0.439321	-0.255403	0.158176	0.047942	0.23148	-0.123478	0.587612	-0.245922	-0.034009	-0.488524	-0.08368	-0.25762	
7.00226	0	5	0.558474	0.334999	0.376927	0.510192	0.0533778	0.43869	0.503227	1.26344	0.304201	-0.171263	0.263553	-0.268388	0.00267175	0.0298183	-0.0470812	0.0744077	0.120833	-0.0514085	0.515853	-0.309214	0.471571	-0.274826	0.146881	0.039557	0.23148	-0.123478	0.588369	-0.248059	-0.0437095	-0.49662	-0.067164	-0.254241	
7.01752	0	5	0.549614	0.340789	0.382677	0.504057	0.061788	0.444307	0.505075	1.26582	0.277038	-0.153514	0.268257	-0.292354	0.006411	0.027375	-0.027304	0.063127	0.202506	-0.103135	0.546979	-0.329552	0.503821	-0.294249	0.135586	0.031172	0.23148	-0.123478	0.589125	-0.250197	-0.05341	-0.504717	-0.050648	-0.250862	
7.03125	0	5	0.558701	0.353631	0.371439	0.485299	0.0667912	0.459599	0.499923	1.27277	0.269645	-0.148683	0.26324	-0.299498	0.0138948	0.022485	0.002114	0.0439045	0.241574	-0.130303	0.573003	-0.346557	0.537717	-0.318047	0.132363	0.0402802	0.23514	-0.125869	0.605671	-0.257721	-0.0510618	-0.487687	-0.0395947	-0.252002	
7.04346	0	5	0.567787	0.366474	0.360202	0.466541	0.0717945	0.474891	0.49477	1.27973	0.262251	-0.143852	0.258223	-0.306643	0.0213785	0.017595	0.031532	0.024682	0.280641	-0.157471	0.599028	-0.363562	0.571613	-0.341846	0.12914	0.0493885	0.238799	-0.12826	0.622216	-0.265245	-0.0487135	-0.470656	-0.0285415	-0.253142	
7.05566	0	5	0.576874	0.379317	0.348965	0.447782	0.0767977	0.490183	0.489617	1.28669	0.254858	-0.139022	0.253206	-0.313787	0.0288623	0.012705	0.06095	0.0054595	0.319709	-0.184639	0.625053	-0.380567	0.605509	-0.365644	0.125918	0.0584968	0.242458	-0.130652	0.638762	-0.272769	-0.0463652	-0.453626	-0.0174882	-0.254283	
7.07092	0	5	0.58596	0.392159	0.337727	0.429024	0.081801	0.505475	0.484465	1.29365	0.247465	-0.134191	0.248189	-0.320931	0.036346	0.007815	0.090368	-0.013763	0.358777	-0.211807	0.651077	-0.397572	0.639405	-0.389442	0.122695	0.067605	0.246118	-0.133043	0.655308	-0.280293	-0.044017	-0.436596	-0.006435	-0.255423	
7.08618	0	5	0.596133	0.392354	0.320217	0.397968	0.0837538	0.509777	0.478105	1.28883	0.249929	-0.135801	0.245682	-0.324498	0.025123	0.0151483	0.111021	-0.027258	0.358022	-0.209674	0.656292	-0.400979	0.649371	-0.395954	0.114479	0.074725	0.246118	-0.133043	0.674758	-0.288068	-0.032409	-0.433845	-0.0046145	-0.250525	
7.09534	0	5	0.606305	0.392548	0.302706	0.366911	0.0857065	0.51408	0.471745	1.28401	0.252393	-0.13741	0.243175	-0.328066	0.0139	0.0224815	0.131674	-0.040753	0.357267	-0.20754	0.661506	-0.404386	0.659337	-0.402466	0.106264	0.081845	0.246118	-0.133043	0.694207	-0.295843	-0.020801	-0.431095	-0.002794	-0.245627	
7.09991	0	5	0.616478	0.392743	0.285196	0.335855	0.0876592	0.518382	0.465384	1.27919	0.254856	-0.13902	0.240668	-0.331633	0.002677	0.0298148	0.152327	-0.054248	0.356512	-0.205406	0.66672	-0.407794	0.669303	-0.408978	0.0980485	0.088965	0.246118	-0.133043	0.713657	-0.303617	-0.009193	-0.428344	-0.0009735	-0.24073	
7.10754	0	5	0.62665	0.392938	0.267686	0.304798	0.089612	0.522684	0.459024	1.27438	0.25732	-0.14063	0.238161	-0.3352	-0.008546	0.037148	0.17298	-0.067743	0.355757	-0.203273	0.671935	-0.411201	0.679269	-0.41549	0.089833	0.096085	0.246118	-0.133043	0.733107	-0.311392	0.002415	-0.425594	0.000847	-0.235832	
7.10907	0	5	0.627438	0.390713	0.258351	0.271001	0.089612	0.522684	0.452671	1.26957	0.25561	-0.141151	0.230646	-0.345882	-0.0376452	0.0545173	0.16783	-0.0660198	0.342967	-0.194916	0.66336	-0.403958	0.681834	-0.415516	0.0769772	0.0922328	0.2388	-0.128262	0.747618	-0.320874	-0.00659475	-0.423843	0.00360275	-0.233571	
7.11059	0	5	0.628225	0.388487	0.249016	0.237204	0.089612	0.522684	0.446319	1.26475	0.2539	-0.141672	0.223131	-0.356564	-0.0667445	0.0718865	0.162679	-0.0642965	0.330177	-0.186559	0.654785	-0.396715	0.6844	-0.415543	0.0641215	0.0883805	0.231483	-0.12348	0.762129	-0.330356	-0.0156045	-0.422091	0.0063585	-0.231311	
7.11365	0	5	0.629012	0.386261	0.23968	0.203406	0.089612	0.522684	0.439966	1.25994	0.252191	-0.142192	0.215616	-0.367245	-0.0958438	0.0892557	0.157529	-0.0625732	0.317387	-0.178201	0.64621	-0.389473	0.686965	-0.415569	0.0512657	0.0845282	0.224166	-0.118698	0.776641	-0.339838	-0.0246143	-0.42034	0.00911425	-0.22905	
7.12128	0	5	0.6298	0.384036	0.230345	0.169609	0.089612	0.522684	0.433613	1.25513	0.250481	-0.142713	0.208101	-0.377927	-0.124943	0.106625	0.152379	-0.06085	0.304597	-0.169844	0.637635	-0.38223	0.68953	-0.415595	0.03841	0.080676	0.216848	-0.113917	0.791152	-0.34932	-0.033624	-0.418589	0.01187	-0.226789	
7.1289	0	5	0.637394	0.372234	0.229428	0.142185	0.0958465	0.514891	0.435066	1.24344	0.250481	-0.142713	0.204289	-0.388402	-0.162117	0.130916	0.145722	-0.054858	0.278319	-0.151032	0.619415	-0.370325	0.682123	-0.409105	0.0279932	0.0700165	0.194933	-0.0995972	0.802051	-0.356442	-0.0485012	-0.435692	0.0201925	-0.230195	
7.13196	0	5	0.644987	0.360432	0.22851	0.114761	0.102081	0.507098	0.436519	1.23176	0.250481	-0.142713	0.200476	-0.398877	-0.199292	0.155206	0.139064	-0.048866	0.252042	-0.132221	0.601195	-0.35842	0.674716	-0.402614	0.0175765	0.059357	0.173018	-0.0852775	0.812951	-0.363564	-0.0633785	-0.452794	0.028515	-0.233602	
7.14416	0	5	0.652581	0.348631	0.227592	0.087337	0.108315	0.499305	0.437971	1.22007	0.250481	-0.142713	0.196663	-0.409353	-0.236467	0.179497	0.132406	-0.042874	0.225764	-0.113409	0.582975	-0.346514	0.667308	-0.396124	0.00715975	0.0486975	0.151103	-0.0709577	0.823851	-0.370685	-0.0782557	-0.469896	0.0368375	-0.237008	
7.14722	0	5	0.660174	0.336829	0.226675	0.059913	0.11455	0.491512	0.439424	1.20838	0.250481	-0.142713	0.192851	-0.419828	-0.273641	0.203788	0.125749	-0.036882	0.199486	-0.094598	0.564755	-0.334609	0.659901	-0.389634	-0.003257	0.038038	0.129188	-0.056638	0.83475	-0.377807	-0.093133	-0.486999	0.04516	-0.240415	
7.14722	0	5	0.663319	0.32794	0.220066	0.038643	0.113448	0.484799	0.437384	1.19899	0.250481	-0.142713	0.190228	-0.433642	-0.306204	0.223421	0.111768	-0.0293882	0.174794	-0.0801048	0.541386	-0.319339	0.650698	-0.385271	-0.0107753	0.0272695	0.110968	-0.0447328	0.843538	-0.386839	-0.105385	-0.499555	0.0442685	-0.247955	
7.14874	0	5	0.666464	0.319052	0.213457	0.017373	0.112347	0.478087	0.435343	1.1896	0.250481	-0.142713	0.187606	-0.447456	-0.338767	0.243055	0.0977865	-0.0218945	0.150102	-0.0656115	0.518018	-0.304069	0.641495	-0.380908	-0.0182935	0.016501	0.092748	-0.0328275	0.852326	-0.395872	-0.117637	-0.512112	0.043377	-0.255495	
