6.50787	0	0	0.288764	0.752915	0.702996	1.515	0.374491	-0.232566	1.37342	-0.879723	1.20254	-0.732358	0.974421	0.962427	0.157324	-0.07489	0.394756	0.708284	-0.584267	0.394894	0.965577	-0.61159	0.018669	0.005941	0.848579	0.07958	0.747756	-0.297525	1.07819	-0.273567	0.533379	0.770197	0.596956	0.719598	
6.50482	0	0	0.286007	0.751225	0.700457	1.52217	0.373736	-0.230432	1.36691	-0.873835	1.20507	-0.73401	0.973377	0.965377	0.157324	-0.07489	0.392042	0.708275	-0.591325	0.399506	0.964822	-0.609457	0.014258	0.0104732	0.852349	0.0771162	0.739842	-0.294001	1.07585	-0.275357	0.535454	0.764333	0.591521	0.715934	
6.50482	0	0	0.283251	0.749534	0.697918	1.52935	0.372981	-0.228299	1.36041	-0.867948	1.20759	-0.735662	0.972333	0.968327	0.157324	-0.07489	0.389328	0.708265	-0.598384	0.404118	0.964068	-0.607325	0.009847	0.0150055	0.85612	0.0746525	0.731928	-0.290477	1.0735	-0.277146	0.537529	0.75847	0.586086	0.712269	
6.50635	0	0	0.280494	0.747844	0.695379	1.53653	0.372226	-0.226165	1.35391	-0.86206	1.21012	-0.737314	0.97129	0.971276	0.157324	-0.07489	0.386614	0.708256	-0.605442	0.40873	0.963313	-0.605193	0.005436	0.0195377	0.859891	0.0721887	0.724014	-0.286952	1.07116	-0.278936	0.539604	0.752606	0.58065	0.708605	
6.51092	0	0	0.277737	0.746154	0.69284	1.5437	0.371471	-0.224031	1.34741	-0.856172	1.21265	-0.738966	0.970246	0.974226	0.157324	-0.07489	0.3839	0.708247	-0.612501	0.413342	0.962558	-0.60306	0.001025	0.02407	0.863661	0.069725	0.7161	-0.283428	1.06881	-0.280726	0.541679	0.746742	0.575215	0.704941	
6.50329	0	0	0.265462	0.752429	0.686483	1.56167	0.364768	-0.219651	1.34091	-0.850286	1.21518	-0.740619	0.975006	0.980194	0.153756	-0.0725585	0.385793	0.710576	-0.616783	0.417781	0.964719	-0.602832	0.00467675	0.0216838	0.865776	0.0801445	0.721193	-0.288403	1.07503	-0.281469	0.547722	0.742793	0.580422	0.699736	
6.50482	0	0	0.253188	0.758705	0.680126	1.57963	0.358066	-0.215272	1.33441	-0.8444	1.21771	-0.742271	0.979767	0.986163	0.150188	-0.070227	0.387687	0.712904	-0.621065	0.42222	0.966881	-0.602604	0.0083285	0.0192975	0.867891	0.090564	0.726285	-0.293377	1.08125	-0.282212	0.553766	0.738845	0.585628	0.694531	
6.50482	0	0	0.240914	0.764981	0.673769	1.5976	0.351363	-0.210893	1.32791	-0.838515	1.22024	-0.743924	0.984527	0.992131	0.14662	-0.0678955	0.38958	0.715232	-0.625347	0.426659	0.969043	-0.602377	0.0119802	0.0169112	0.870005	0.100984	0.731378	-0.298351	1.08748	-0.282955	0.559809	0.734896	0.590835	0.689326	
6.50787	0	0	0.228639	0.771256	0.667412	1.61556	0.344661	-0.206513	1.32141	-0.832629	1.22277	-0.745577	0.989288	0.998099	0.143052	-0.065564	0.391473	0.717561	-0.629629	0.431098	0.971204	-0.602149	0.015632	0.014525	0.87212	0.111403	0.736471	-0.303326	1.0937	-0.283698	0.565852	0.730947	0.596042	0.684121	
6.50329	0	0	0.225087	0.771832	0.652066	1.62283	0.339801	-0.200055	1.31492	-0.826745	1.22201	-0.743444	0.989577	1.007	0.145864	-0.0657588	0.38901	0.724523	-0.633155	0.433401	0.971204	-0.602149	0.0148725	0.0166715	0.868899	0.128711	0.736471	-0.303326	1.09686	-0.27579	0.558771	0.737827	0.598762	0.68595	
6.50787	0	0	0.221535	0.772409	0.636719	1.63009	0.334942	-0.193598	1.30842	-0.820861	1.22126	-0.74131	0.989866	1.0159	0.148676	-0.0659535	0.386547	0.731484	-0.63668	0.435705	0.971204	-0.602149	0.014113	0.018818	0.865677	0.146018	0.736471	-0.303326	1.10003	-0.267882	0.551691	0.744708	0.601482	0.687779	
6.50177	0	0	0.217983	0.772985	0.621373	1.63735	0.330082	-0.187141	1.30193	-0.814978	1.2205	-0.739177	0.990155	1.0248	0.151488	-0.0661482	0.384083	0.738446	-0.640206	0.438008	0.971204	-0.602149	0.0133535	0.0209645	0.862456	0.163326	0.736471	-0.303326	1.10319	-0.259974	0.54461	0.751588	0.604201	0.689608	
6.50482	0	0	0.214431	0.773561	0.606027	1.64462	0.325222	-0.180683	1.29543	-0.809094	1.21975	-0.737044	0.990444	1.03371	0.1543	-0.066343	0.38162	0.745408	-0.643732	0.440312	0.971204	-0.602149	0.012594	0.023111	0.859234	0.180634	0.736471	-0.303326	1.10636	-0.252066	0.53753	0.758468	0.606921	0.691437	
6.50329	0	0	0.214431	0.773561	0.603038	1.64104	0.324466	-0.178548	1.29755	-0.808835	1.21899	-0.73491	0.992825	1.0367	0.153544	-0.0642058	0.382691	0.750065	-0.648011	0.44475	0.973367	-0.601921	0.0081825	0.0276443	0.859896	0.186969	0.74005	-0.304018	1.10953	-0.244144	0.530453	0.765347	0.607981	0.697962	
6.50024	0	0	0.214431	0.773561	0.600049	1.63747	0.323711	-0.176412	1.29966	-0.808577	1.21824	-0.732776	0.995206	1.03969	0.152787	-0.0620685	0.383761	0.754722	-0.652291	0.449187	0.975529	-0.601694	0.003771	0.0321775	0.860559	0.193303	0.74363	-0.30471	1.11269	-0.236221	0.523376	0.772225	0.60904	0.704487	
6.50482	0	0	0.214431	0.773561	0.59706	1.6339	0.322956	-0.174277	1.30178	-0.808318	1.21748	-0.730643	0.997588	1.04269	0.152031	-0.0599312	0.384831	0.759378	-0.656571	0.453624	0.977691	-0.601467	-0.0006405	0.0367108	0.861221	0.199638	0.74721	-0.305403	1.11586	-0.228298	0.5163	0.779103	0.6101	0.711013	
6.50177	0	0	0.214431	0.773561	0.594071	1.63033	0.3222	-0.172142	1.30389	-0.808059	1.21673	-0.728509	0.999969	1.04568	0.151275	-0.057794	0.385902	0.764035	-0.66085	0.458062	0.979854	-0.601239	-0.005052	0.041244	0.861883	0.205973	0.750789	-0.306095	1.11903	-0.220376	0.509223	0.785982	0.611159	0.717538	
6.50329	0	0	0.212825	0.7781	0.598332	1.6303	0.326305	-0.176466	1.30676	-0.809935	1.21926	-0.730162	0.999969	1.04568	0.154845	-0.0601265	0.38508	0.766359	-0.664373	0.460364	0.979854	-0.601239	-0.005052	0.041244	0.864883	0.205706	0.74721	-0.305403	1.11979	-0.222543	0.518374	0.773241	0.609269	0.713359	
6.50635	0	0	0.211219	0.78264	0.602593	1.63028	0.33041	-0.180789	1.30963	-0.81181	1.22179	-0.731815	0.999969	1.04568	0.158415	-0.062459	0.384258	0.768682	-0.667895	0.462666	0.979854	-0.601239	-0.005052	0.041244	0.867883	0.205439	0.74363	-0.30471	1.12056	-0.22471	0.527524	0.760501	0.607379	0.70918	
6.5094	0	0	0.209613	0.787179	0.606854	1.63026	0.334514	-0.185113	1.3125	-0.813685	1.22432	-0.733469	0.999969	1.04568	0.161984	-0.0647915	0.383435	0.771006	-0.671418	0.464967	0.979854	-0.601239	-0.005052	0.041244	0.870882	0.205172	0.74005	-0.304018	1.12133	-0.226878	0.536675	0.747761	0.60549	0.705	
6.51398	0	0	0.208007	0.791718	0.611115	1.63024	0.338619	-0.189437	1.31537	-0.815561	1.22685	-0.735122	0.999969	1.04568	0.165554	-0.067124	0.382613	0.773329	-0.67494	0.467269	0.979854	-0.601239	-0.005052	0.041244	0.873882	0.204905	0.736471	-0.303326	1.12209	-0.229045	0.545826	0.73502	0.6036	0.700821	
6.51398	0	0	0.205596	0.798531	0.61156	1.64101	0.344566	-0.191681	1.32112	-0.819314	1.23191	-0.73843	1.00473	1.05168	0.169125	-0.0694575	0.385328	0.773342	-0.678461	0.46957	0.982772	-0.603146	-0.00140025	0.0388578	0.876104	0.206841	0.737229	-0.305467	1.12521	-0.229416	0.55187	0.731071	0.60254	0.694302	
6.51398	0	0	0.203186	0.805343	0.612005	1.65178	0.350513	-0.193926	1.32686	-0.823068	1.23697	-0.741737	1.0095	1.05767	0.172696	-0.071791	0.388043	0.773354	-0.681982	0.471871	0.985691	-0.605053	0.0022515	0.0364715	0.878326	0.208776	0.737986	-0.307608	1.12833	-0.229788	0.557913	0.727123	0.60148	0.687782	
6.51245	0	0	0.200775	0.812156	0.612451	1.66255	0.35646	-0.19617	1.33261	-0.826821	1.24203	-0.745044	1.01426	1.06367	0.176267	-0.0741245	0.390758	0.773367	-0.685504	0.474172	0.988609	-0.60696	0.00590325	0.0340852	0.880547	0.210711	0.738744	-0.30975	1.13145	-0.230159	0.563956	0.723174	0.60042	0.681263	
6.5155	0	0	0.198364	0.818969	0.612896	1.67332	0.362407	-0.198414	1.33835	-0.830574	1.2471	-0.748352	1.01903	1.06966	0.179838	-0.076458	0.393473	0.77338	-0.689025	0.476473	0.991527	-0.608867	0.009555	0.031699	0.882769	0.212647	0.739502	-0.311891	1.13457	-0.23053	0.57	0.719225	0.59936	0.674744	
6.5155	0	0	0.193208	0.824085	0.603537	1.68774	0.361651	-0.196278	1.33759	-0.82844	1.24456	-0.746698	1.01483	1.08153	0.179838	-0.076458	0.391827	0.77803	-0.695308	0.478937	0.998122	-0.614816	0.0110742	0.0274055	0.884211	0.216788	0.745354	-0.319006	1.13845	-0.23307	0.564993	0.720244	0.605398	0.667196	
6.51245	0	0	0.188051	0.829201	0.594178	1.70216	0.360895	-0.194142	1.33684	-0.826306	1.24203	-0.745044	1.01063	1.09339	0.179838	-0.076458	0.390182	0.782681	-0.701591	0.481401	1.00472	-0.620766	0.0125935	0.023112	0.885654	0.22093	0.751206	-0.326121	1.14234	-0.235609	0.559986	0.721264	0.611436	0.659647	
6.51245	0	0	0.182895	0.834318	0.584818	1.71658	0.36014	-0.192007	1.33608	-0.824171	1.2395	-0.74339	1.00644	1.10526	0.179838	-0.076458	0.388537	0.787331	-0.707874	0.483865	1.01131	-0.626715	0.0141128	0.0188185	0.887096	0.225072	0.757058	-0.333237	1.14623	-0.238149	0.55498	0.722283	0.617473	0.652099	
6.51245	0	0	0.177738	0.839434	0.575459	1.73101	0.359384	-0.189871	1.33533	-0.822037	1.23697	-0.741736	1.00224	1.11712	0.179838	-0.076458	0.386891	0.791981	-0.714157	0.486329	1.01791	-0.632664	0.015632	0.014525	0.888538	0.229213	0.76291	-0.340352	1.15011	-0.240689	0.549973	0.723302	0.623511	0.644551	
6.5094	0	0	0.174995	0.837733	0.581829	1.713	0.352681	-0.185492	1.32959	-0.818284	1.23444	-0.740082	0.997758	1.12005	0.179838	-0.076458	0.388537	0.787331	-0.724703	0.49322	1.01574	-0.632889	0.00833	0.0192963	0.886977	0.233624	0.754995	-0.336825	1.14935	-0.238521	0.549973	0.723302	0.622682	0.646894	
6.51092	0	0	0.172253	0.836032	0.588199	1.695	0.345979	-0.181112	1.32384	-0.814531	1.23191	-0.738429	0.993278	1.12297	0.179838	-0.076458	0.390182	0.782681	-0.73525	0.500112	1.01357	-0.633114	0.001028	0.0240675	0.885417	0.238036	0.74708	-0.333298	1.14858	-0.236353	0.549973	0.723302	0.621853	0.649237	
6.5094	0	0	0.16951	0.834331	0.594568	1.677	0.339276	-0.176733	1.3181	-0.810778	1.22938	-0.736776	0.988798	1.1259	0.179838	-0.076458	0.391827	0.77803	-0.745796	0.507003	1.01141	-0.633339	-0.006274	0.0288387	0.883856	0.242447	0.739165	-0.329772	1.14781	-0.234185	0.549973	0.723302	0.621024	0.65158	
6.5094	0	0	0.166767	0.83263	0.600938	1.659	0.332574	-0.172353	1.31235	-0.807025	1.22685	-0.735122	0.984318	1.12883	0.179838	-0.076458	0.393473	0.77338	-0.756342	0.513894	1.00924	-0.633564	-0.013576	0.03361	0.882295	0.246858	0.73125	-0.326245	1.14705	-0.232017	0.549973	0.723302	0.620195	0.653923	
6.50482	0	0	0.167571	0.830359	0.596678	1.65902	0.332574	-0.172353	1.31523	-0.808901	1.22179	-0.731816	0.986418	1.12289	0.172697	-0.071792	0.393473	0.77338	-0.766875	0.520777	1.01141	-0.633339	-0.0208718	0.0383773	0.878633	0.240776	0.722587	-0.320584	1.14393	-0.231645	0.552045	0.717446	0.618536	0.658611	
6.50177	0	0	0.168374	0.828088	0.592418	1.65904	0.332574	-0.172353	1.3181	-0.810777	1.21673	-0.728511	0.988517	1.11696	0.165556	-0.067126	0.393473	0.77338	-0.777409	0.527659	1.01357	-0.633114	-0.0281675	0.0431445	0.874971	0.234693	0.713923	-0.314924	1.14081	-0.231274	0.554117	0.71159	0.616877	0.663299	
6.50024	0	0	0.169177	0.825817	0.588158	1.65906	0.332574	-0.172353	1.32097	-0.812653	1.21167	-0.725205	0.990617	1.11103	0.158416	-0.06246	0.393473	0.77338	-0.787942	0.534542	1.01574	-0.632889	-0.0354633	0.0479117	0.871308	0.22861	0.70526	-0.309263	1.13769	-0.230902	0.556189	0.705734	0.615218	0.667987	
6.50024	0	0	0.169981	0.823546	0.583898	1.65908	0.332574	-0.172353	1.32384	-0.814529	1.20661	-0.721899	0.992717	1.10509	0.151275	-0.057794	0.393473	0.77338	-0.798476	0.541425	1.01791	-0.632664	-0.042759	0.052679	0.867646	0.222528	0.696597	-0.303602	1.13457	-0.23053	0.558261	0.699878	0.613559	0.672675	
6.50024	0	0	0.168374	0.828089	0.585612	1.66625	0.332574	-0.172353	1.32671	-0.816406	1.20408	-0.720247	0.992717	1.10509	0.147707	-0.0554625	0.394295	0.771056	-0.8125	0.550589	1.01791	-0.632664	-0.050808	0.0595885	0.863986	0.216455	0.694539	-0.30719	1.12987	-0.23412	0.561367	0.691101	0.614389	0.670331	
6.49872	0	0	0.166766	0.832631	0.587325	1.67343	0.332574	-0.172353	1.32958	-0.818283	1.20155	-0.718595	0.992717	1.10509	0.144139	-0.053131	0.395118	0.768732	-0.826525	0.559753	1.01791	-0.632664	-0.058857	0.066498	0.860326	0.210382	0.692481	-0.310778	1.12516	-0.23771	0.564472	0.682324	0.615218	0.667987	
6.49567	0	0	0.165159	0.837174	0.589039	1.68061	0.332574	-0.172353	1.33246	-0.82016	1.19903	-0.716943	0.992717	1.10509	0.140571	-0.0507995	0.39594	0.766408	-0.840549	0.568917	1.01791	-0.632664	-0.066906	0.0734075	0.856665	0.204309	0.690422	-0.314366	1.12046	-0.241301	0.567578	0.673547	0.616047	0.665642	
6.49567	0	0	0.163552	0.841716	0.590752	1.68779	0.332574	-0.172353	1.33533	-0.822037	1.1965	-0.715291	0.992717	1.10509	0.137003	-0.048468	0.396762	0.764084	-0.854574	0.578081	1.01791	-0.632664	-0.074955	0.080317	0.853005	0.198236	0.688364	-0.317954	1.11576	-0.244891	0.570684	0.66477	0.616877	0.663298	
6.49719	0	0	0.157596	0.849102	0.591189	1.69858	0.329225	-0.170164	1.33533	-0.822037	1.1922	-0.714122	0.988239	1.10802	0.134193	-0.0482747	0.394047	0.764072	-0.865077	0.584944	1.02083	-0.634573	-0.0785975	0.0826972	0.852343	0.191905	0.686306	-0.321539	1.11494	-0.251012	0.560679	0.666813	0.625642	0.657571	
6.49567	0	0	0.151639	0.856488	0.591627	1.70937	0.325875	-0.167976	1.33533	-0.822037	1.1879	-0.712952	0.983761	1.11094	0.131382	-0.0480815	0.391332	0.76406	-0.87558	0.591807	1.02375	-0.636482	-0.08224	0.0850775	0.851681	0.185573	0.684249	-0.325124	1.11412	-0.257134	0.550674	0.668856	0.634408	0.651843	
6.48956	0	0	0.145683	0.863874	0.592064	1.72016	0.322526	-0.165788	1.33533	-0.822037	1.1836	-0.711783	0.979284	1.11387	0.128572	-0.0478883	0.388617	0.764047	-0.886084	0.59867	1.02667	-0.638391	-0.0858825	0.0874578	0.851018	0.179241	0.682192	-0.328709	1.1133	-0.263255	0.540668	0.670898	0.643174	0.646115	
6.48956	0	0	0.139727	0.87126	0.592501	1.73096	0.319177	-0.163599	1.33533	-0.822037	1.1793	-0.710614	0.974806	1.11679	0.125761	-0.047695	0.385902	0.764035	-0.896587	0.605533	1.02959	-0.6403	-0.089525	0.089838	0.850356	0.17291	0.680134	-0.332294	1.11249	-0.269377	0.530663	0.672941	0.651939	0.640388	
6.49261	0	0	0.134253	0.867851	0.583983	1.73098	0.309137	-0.157039	1.32671	-0.816408	1.16844	-0.701881	0.967956	1.11671	0.117876	-0.0408995	0.381297	0.761688	-0.903582	0.610104	1.02959	-0.6403	-0.096805	0.094595	0.846697	0.166855	0.672244	-0.328781	1.1109	-0.27333	0.53273	0.667098	0.654666	0.642211	
6.48956	0	0	0.128778	0.864442	0.575465	1.731	0.299097	-0.150479	1.3181	-0.810779	1.15759	-0.693148	0.961106	1.11663	0.109991	-0.034104	0.376692	0.75934	-0.910577	0.614675	1.02959	-0.6403	-0.104085	0.099352	0.843039	0.160799	0.664354	-0.325267	1.10932	-0.277282	0.534798	0.661255	0.657393	0.644034	
6.48956	0	0	0.123304	0.861032	0.566947	1.73103	0.289057	-0.143918	1.30949	-0.805151	1.14673	-0.684414	0.954256	1.11655	0.102106	-0.0273085	0.372088	0.756992	-0.917572	0.619245	1.02959	-0.6403	-0.111365	0.104109	0.83938	0.154744	0.656464	-0.321754	1.10773	-0.281235	0.536865	0.655413	0.660119	0.645858	
6.48956	0	0	0.11783	0.857623	0.558429	1.73105	0.279017	-0.137358	1.30087	-0.799522	1.13588	-0.675681	0.947406	1.11646	0.094221	-0.020513	0.367483	0.754645	-0.924567	0.623816	1.02959	-0.6403	-0.118645	0.108866	0.835721	0.148689	0.648574	-0.318241	1.10615	-0.285188	0.538932	0.64957	0.662846	0.647681	
6.48956	0	0	0.108501	0.846284	0.550326	1.70595	0.275673	-0.135173	1.28653	-0.790153	1.12151	-0.66793	0.933177	1.09847	0.087098	-0.0158587	0.361564	0.740689	-0.935049	0.630665	1.02083	-0.634575	-0.129554	0.115994	0.826195	0.134685	0.636377	-0.311913	1.09523	-0.288021	0.533069	0.639943	0.65846	0.650547	
6.48956	0	0	0.099172	0.834945	0.542223	1.68085	0.272329	-0.132988	1.2722	-0.780785	1.10713	-0.660179	0.918949	1.08048	0.079975	-0.0112045	0.355645	0.726733	-0.945531	0.637514	1.01207	-0.628851	-0.140462	0.123122	0.816668	0.120682	0.624181	-0.305586	1.08432	-0.290853	0.527206	0.630316	0.654074	0.653413	
6.49261	0	0	0.089843	0.823606	0.534119	1.65574	0.268985	-0.130803	1.25786	-0.771416	1.09276	-0.652428	0.90472	1.06248	0.072852	-0.00655025	0.349725	0.712776	-0.956013	0.644364	1.00331	-0.623127	-0.151371	0.13025	0.807141	0.106678	0.611984	-0.299258	1.0734	-0.293685	0.521344	0.620689	0.649688	0.656279	
6.48804	0	0	0.080514	0.812267	0.526016	1.63064	0.265641	-0.128618	1.24352	-0.762048	1.07839	-0.644677	0.890492	1.04449	0.065729	-0.001896	0.343806	0.69882	-0.966495	0.651213	0.994547	-0.617402	-0.16228	0.137378	0.797615	0.092675	0.599787	-0.29293	1.06249	-0.296518	0.515481	0.611062	0.645302	0.659145	
6.49109	0	0	0.0735973	0.794187	0.531446	1.59134	0.259713	-0.126386	1.22424	-0.751093	1.06329	-0.63481	0.880742	1.02368	0.058612	0.00275425	0.334367	0.68721	-0.969986	0.653494	0.985795	-0.611683	-0.172415	0.14235	0.788875	0.076539	0.588365	-0.288749	1.05546	-0.301876	0.505667	0.599572	0.640683	0.653154	
6.49109	0	0	0.0666805	0.776108	0.536875	1.55204	0.253784	-0.124154	1.20497	-0.740137	1.04819	-0.624942	0.870993	1.00287	0.051495	0.0074045	0.324929	0.675599	-0.973477	0.655775	0.977043	-0.605965	-0.182551	0.147322	0.780135	0.060403	0.576942	-0.284569	1.04843	-0.307234	0.495853	0.588081	0.636064	0.647163	
6.49261	0	0	0.0597637	0.758028	0.542305	1.51274	0.247856	-0.121922	1.18569	-0.729182	1.03308	-0.615074	0.861243	0.982056	0.044378	0.0120547	0.315491	0.663988	-0.976968	0.658056	0.968291	-0.600246	-0.192687	0.152295	0.771395	0.044267	0.56552	-0.280388	1.0414	-0.312592	0.48604	0.576591	0.631445	0.641172	
6.49109	0	0	0.052847	0.739949	0.547734	1.47344	0.241927	-0.11969	1.16641	-0.718227	1.01798	-0.605207	0.851493	0.961244	0.037261	0.016705	0.306052	0.652378	-0.980459	0.660337	0.959539	-0.594527	-0.202822	0.157267	0.762655	0.028131	0.554098	-0.276207	1.03438	-0.31795	0.476226	0.5651	0.626826	0.635181	
6.48956	0	0	0.0376322	0.73602	0.538788	1.46285	0.231155	-0.111009	1.15138	-0.706762	1.00793	-0.598638	0.837604	0.952258	0.0329482	0.0211665	0.300396	0.645429	-0.981214	0.662472	0.955869	-0.590488	-0.20797	0.163932	0.75757	0.0180442	0.546997	-0.274848	1.02812	-0.325452	0.476382	0.551601	0.624104	0.633359	
6.49567	0	0	0.0224175	0.732092	0.529842	1.45226	0.220382	-0.102329	1.13634	-0.695296	0.997877	-0.59207	0.823714	0.943272	0.0286355	0.025628	0.29474	0.63848	-0.98197	0.664606	0.952198	-0.58645	-0.213118	0.170596	0.752484	0.0079575	0.539896	-0.273489	1.02186	-0.332954	0.476538	0.538103	0.621382	0.631538	
6.49109	0	0	0.00720275	0.728163	0.520895	1.44166	0.20961	-0.0936478	1.12131	-0.683831	0.987825	-0.585501	0.809824	0.934286	0.0243228	0.0300895	0.289085	0.631531	-0.982726	0.666741	0.948528	-0.582411	-0.218265	0.177261	0.747398	-0.00212925	0.532795	-0.272131	1.0156	-0.340455	0.476695	0.524604	0.618659	0.629717	
6.49261	0	0	-0.008012	0.724234	0.511949	1.43107	0.198838	-0.084967	1.10627	-0.672366	0.977772	-0.578932	0.795935	0.9253	0.02001	0.034551	0.283429	0.624582	-0.983481	0.668876	0.944858	-0.578372	-0.223413	0.183926	0.742313	-0.012216	0.525694	-0.270772	1.00934	-0.347957	0.476851	0.511105	0.615937	0.627895	
6.48804	0	0	-0.0215945	0.715811	0.499245	1.43117	0.189589	-0.0805655	1.08992	-0.663323	0.967731	-0.572371	0.786789	0.922263	0.0164553	0.036874	0.271822	0.62685	-0.983481	0.668876	0.941944	-0.576468	-0.230665	0.188665	0.737898	-0.016026	0.517091	-0.265151	1.01087	-0.35226	0.47495	0.503431	0.615937	0.627895	
6.49261	0	0	-0.035177	0.707388	0.486541	1.43126	0.18034	-0.076164	1.07357	-0.654281	0.95769	-0.56581	0.777643	0.919226	0.0129005	0.039197	0.260216	0.629117	-0.983481	0.668876	0.939029	-0.574564	-0.237918	0.193404	0.733483	-0.019836	0.508489	-0.25953	1.01239	-0.356563	0.473048	0.495757	0.615937	0.627895	
6.49261	0	0	-0.0487595	0.698964	0.473837	1.43136	0.171091	-0.0717625	1.05722	-0.645238	0.947649	-0.559249	0.768498	0.916188	0.00934575	0.04152	0.248609	0.631385	-0.983481	0.668876	0.936115	-0.572659	-0.245171	0.198142	0.729067	-0.023646	0.499886	-0.253908	1.01391	-0.360865	0.471147	0.488082	0.615937	0.627895	
6.48804	0	0	-0.062342	0.690541	0.461133	1.43146	0.161842	-0.067361	1.04087	-0.636195	0.937608	-0.552688	0.759352	0.913151	0.005791	0.043843	0.237003	0.633653	-0.983481	0.668876	0.933201	-0.570755	-0.252423	0.202881	0.724652	-0.027456	0.491283	-0.248287	1.01544	-0.365168	0.469246	0.480408	0.615937	0.627895	
6.48651	0	0	-0.0758908	0.682139	0.45051	1.41384	0.151849	-0.0608313	1.02664	-0.626898	0.926824	-0.544001	0.745802	0.913004	-0.002071	0.050624	0.23243	0.631329	-0.97999	0.666595	0.930288	-0.568852	-0.256047	0.205249	0.722446	-0.0293595	0.492793	-0.252553	1.01234	-0.364796	0.461347	0.476664	0.621383	0.631539	
6.48804	0	0	-0.0894395	0.673736	0.439887	1.39623	0.141856	-0.0543015	1.01242	-0.617601	0.91604	-0.535314	0.732251	0.912857	-0.009933	0.057405	0.227857	0.629005	-0.976499	0.664314	0.927374	-0.566948	-0.259671	0.207617	0.720239	-0.031263	0.494302	-0.256819	1.00924	-0.364424	0.453448	0.472921	0.626829	0.635183	
6.48498	0	0	-0.102988	0.665334	0.429263	1.37862	0.131862	-0.0477718	0.998187	-0.608305	0.905256	-0.526627	0.718701	0.91271	-0.017795	0.064186	0.223284	0.626682	-0.973007	0.662033	0.924461	-0.565044	-0.263295	0.209985	0.718033	-0.0331665	0.495812	-0.261085	1.00614	-0.364053	0.445548	0.469178	0.632275	0.638827	
6.48651	0	0	-0.116537	0.656932	0.41864	1.361	0.121869	-0.041242	0.983959	-0.599008	0.894472	-0.51794	0.70515	0.912563	-0.025657	0.070967	0.218711	0.624358	-0.969516	0.659752	0.921548	-0.563141	-0.266919	0.212353	0.715827	-0.03507	0.497321	-0.265351	1.00304	-0.363681	0.437649	0.465434	0.637721	0.642471	
6.48498	0	0	-0.117657	0.650774	0.419429	1.34688	0.118541	-0.039067	0.981116	-0.59715	0.890217	-0.5168	0.701488	0.903721	-0.025657	0.070967	0.216833	0.622046	-0.970272	0.661887	0.914969	-0.557202	-0.271301	0.216867	0.707676	-0.0364292	0.489482	-0.261868	1.00222	-0.369757	0.429761	0.461695	0.636892	0.644815	
6.48651	0	0	-0.118778	0.644616	0.420218	1.33276	0.115212	-0.036892	0.978274	-0.595293	0.885962	-0.51566	0.697825	0.894878	-0.025657	0.070967	0.214955	0.619734	-0.971027	0.664022	0.90839	-0.551262	-0.275683	0.221382	0.699525	-0.0377885	0.481642	-0.258385	1.0014	-0.375833	0.421874	0.457956	0.636062	0.647158	
6.48346	0	0	-0.119899	0.638459	0.421006	1.31865	0.111883	-0.034717	0.975431	-0.593435	0.881706	-0.51452	0.694163	0.886035	-0.025657	0.070967	0.213077	0.617422	-0.971782	0.666157	0.901811	-0.545322	-0.280066	0.225897	0.691374	-0.0391478	0.473803	-0.254901	1.00059	-0.381909	0.413986	0.454216	0.635233	0.649502	
6.48498	0	0	-0.121019	0.632301	0.421795	1.30453	0.108555	-0.032542	0.972588	-0.591577	0.877451	-0.51338	0.690501	0.877193	-0.025657	0.070967	0.211199	0.61511	-0.972538	0.668292	0.895232	-0.539383	-0.284448	0.230411	0.683223	-0.040507	0.465963	-0.251418	0.99977	-0.387985	0.406098	0.450477	0.634404	0.651846	
6.48041	0	0	-0.123724	0.630626	0.421795	1.30453	0.105228	-0.030368	0.975431	-0.593435	0.879201	-0.512883	0.690501	0.877193	-0.022105	0.068646	0.213077	0.617422	-0.96829	0.663875	0.895987	-0.541517	-0.283688	0.228264	0.682558	-0.046751	0.458132	-0.24794	1.00205	-0.394428	0.411207	0.436038	0.628959	0.6482	
6.48346	0	0	-0.126429	0.628951	0.421795	1.30453	0.101901	-0.028194	0.978274	-0.595293	0.88095	-0.512386	0.690501	0.877193	-0.018553	0.066325	0.214955	0.619734	-0.964042	0.659458	0.896742	-0.543651	-0.282928	0.226116	0.681892	-0.052995	0.450301	-0.244461	1.00433	-0.40087	0.416316	0.421598	0.623514	0.644553	
6.48041	0	0	-0.129134	0.627277	0.421795	1.30453	0.098574	-0.02602	0.981116	-0.59715	0.8827	-0.511889	0.690501	0.877193	-0.015001	0.064004	0.216833	0.622046	-0.959794	0.65504	0.897498	-0.545786	-0.282168	0.223968	0.681226	-0.059239	0.44247	-0.240983	1.00661	-0.407312	0.421425	0.407159	0.618069	0.640907	
6.48193	0	0	-0.131839	0.625602	0.421795	1.30453	0.095247	-0.023846	0.983959	-0.599008	0.88445	-0.511392	0.690501	0.877193	-0.011449	0.061683	0.218711	0.624358	-0.955546	0.650623	0.898253	-0.54792	-0.281408	0.221821	0.680561	-0.065483	0.434639	-0.237505	1.00889	-0.413755	0.426534	0.39272	0.612624	0.63726	
6.48498	0	0	-0.136126	0.628404	0.428988	1.30798	0.095247	-0.023846	0.983204	-0.596874	0.886956	-0.513029	0.692849	0.880151	-0.004341	0.0570385	0.219774	0.628975	-0.949312	0.648191	0.900409	-0.547688	-0.282168	0.223968	0.683532	-0.0657553	0.430349	-0.234702	1.00655	-0.415527	0.423611	0.387978	0.614281	0.632578	
6.48498	0	0	-0.140414	0.631205	0.436181	1.31144	0.095247	-0.023846	0.982449	-0.594739	0.889461	-0.514666	0.695197	0.883109	0.002767	0.052394	0.220837	0.633593	-0.943078	0.64576	0.902565	-0.547456	-0.282928	0.226116	0.686503	-0.0660275	0.42606	-0.231899	1.00421	-0.417299	0.420689	0.383236	0.615937	0.627897	
6.48193	0	0	-0.144701	0.634007	0.443374	1.3149	0.095247	-0.023846	0.981693	-0.592605	0.891966	-0.516303	0.697545	0.886066	0.009875	0.0477495	0.221901	0.63821	-0.936845	0.643328	0.904722	-0.547224	-0.283688	0.228264	0.689475	-0.0662998	0.42177	-0.229097	1.00187	-0.419072	0.417766	0.378494	0.617593	0.623215	
6.48498	0	0	-0.148988	0.636808	0.450567	1.31836	0.095247	-0.023846	0.980938	-0.590471	0.894472	-0.51794	0.699893	0.889024	0.016983	0.043105	0.222964	0.642827	-0.930611	0.640896	0.906878	-0.546992	-0.284448	0.230411	0.692446	-0.066572	0.417481	-0.226294	0.999535	-0.420844	0.414843	0.373752	0.61925	0.618533	
6.48041	0	0	-0.15169	0.635133	0.441331	1.33257	0.091921	-0.0216727	0.975253	-0.586757	0.89873	-0.519081	0.700172	0.897834	0.0197825	0.04292	0.225906	0.649767	-0.923616	0.636325	0.907633	-0.549126	-0.280066	0.225897	0.690909	-0.0622283	0.417481	-0.226294	0.99568	-0.418325	0.416882	0.367988	0.614873	0.621393	
6.48193	0	0	-0.154392	0.633457	0.432096	1.34677	0.088595	-0.0194995	0.969569	-0.583042	0.902988	-0.520223	0.700451	0.906645	0.022582	0.042735	0.228848	0.656707	-0.916621	0.631754	0.908388	-0.551261	-0.275683	0.221382	0.689372	-0.0578845	0.417481	-0.226294	0.991824	-0.415805	0.418922	0.362225	0.610496	0.624253	
6.48651	0	0	-0.157093	0.631781	0.422861	1.36097	0.085269	-0.0173263	0.963885	-0.579327	0.907246	-0.521365	0.70073	0.915455	0.0253815	0.04255	0.23179	0.663648	-0.909625	0.627184	0.909143	-0.553395	-0.271301	0.216867	0.687835	-0.0535407	0.417481	-0.226294	0.987969	-0.413286	0.420961	0.356461	0.606119	0.627113	
6.48041	0	0	-0.159795	0.630106	0.413625	1.37518	0.081943	-0.015153	0.9582	-0.575613	0.911504	-0.522506	0.701009	0.924265	0.028181	0.042365	0.234732	0.670588	-0.90263	0.622613	0.909898	-0.555529	-0.266919	0.212353	0.686298	-0.049197	0.417481	-0.226294	0.984114	-0.410767	0.423	0.350698	0.601742	0.629973	
6.48498	0	0	-0.165194	0.626758	0.42114	1.35394	0.0745395	-0.0086735	0.955359	-0.573757	0.914011	-0.524145	0.699974	0.927192	0.0388587	0.035388	0.235794	0.675216	-0.899131	0.620326	0.903321	-0.549591	-0.267679	0.2145	0.687732	-0.045122	0.413194	-0.223492	0.985632	-0.415057	0.406091	0.359532	0.600914	0.632313	
6.47888	0	0	-0.170593	0.62341	0.428655	1.3327	0.067136	-0.002194	0.952518	-0.571901	0.916519	-0.525783	0.698938	0.930119	0.0495365	0.028411	0.236857	0.679845	-0.895631	0.618039	0.896745	-0.543653	-0.268439	0.216648	0.689166	-0.041047	0.408907	-0.220691	0.98715	-0.419348	0.389183	0.368366	0.600086	0.634654	
6.48041	0	0	-0.175992	0.620062	0.43617	1.31146	0.0597325	0.0042855	0.949677	-0.570044	0.919026	-0.527421	0.697902	0.933045	0.0602142	0.021434	0.23792	0.684473	-0.892131	0.615753	0.890168	-0.537714	-0.269198	0.218796	0.6906	-0.036972	0.404619	-0.21789	0.988668	-0.423639	0.372275	0.3772	0.599257	0.636995	
6.48041	0	0	-0.181391	0.616714	0.443685	1.29022	0.052329	0.010765	0.946836	-0.568188	0.921534	-0.52906	0.696867	0.935972	0.070892	0.014457	0.238982	0.689102	-0.888632	0.613466	0.883591	-0.531776	-0.269958	0.220943	0.692034	-0.032897	0.400332	-0.215088	0.990186	-0.427929	0.355366	0.386034	0.598429	0.639335	
6.48193	0	0	-0.17981	0.612245	0.446186	1.28315	0.052329	0.010765	0.949677	-0.570044	0.926551	-0.532339	0.701287	0.933084	0.0744542	0.0121292	0.241924	0.69606	-0.885131	0.611178	0.884346	-0.53391	-0.269198	0.218796	0.689831	-0.0347995	0.396047	-0.212288	0.987091	-0.427555	0.357403	0.380276	0.59051	0.64271	
6.48346	0	0	-0.178229	0.607776	0.448687	1.27609	0.052329	0.010765	0.952518	-0.571901	0.931569	-0.535617	0.705707	0.930195	0.0780165	0.0098015	0.244866	0.703019	-0.88163	0.608891	0.885101	-0.536045	-0.268439	0.216648	0.687628	-0.036702	0.391761	-0.209488	0.983996	-0.427182	0.359441	0.374518	0.582591	0.646085	
6.48193	0	0	-0.176648	0.603308	0.451188	1.26902	0.052329	0.010765	0.955359	-0.573757	0.936586	-0.538896	0.710126	0.927307	0.0815787	0.00747375	0.247809	0.709978	-0.878128	0.606603	0.885856	-0.538179	-0.267679	0.2145	0.685426	-0.0386045	0.387476	-0.206688	0.980902	-0.426809	0.361479	0.36876	0.574671	0.649461	
6.48804	0	0	-0.175067	0.598839	0.453689	1.26195	0.052329	0.010765	0.9582	-0.575613	0.941604	-0.542175	0.714546	0.924419	0.085141	0.005146	0.250751	0.716936	-0.874627	0.604315	0.886611	-0.540313	-0.266919	0.212353	0.683223	-0.040507	0.383191	-0.203888	0.977807	-0.426435	0.363516	0.363002	0.566752	0.652836	
6.48804	0	0	-0.174277	0.596606	0.451188	1.26902	0.052329	0.010765	0.9582	-0.575613	0.946624	-0.545455	0.719247	0.930354	0.09227	0.00048775	0.253694	0.723905	-0.871125	0.602027	0.883702	-0.538412	-0.263295	0.209985	0.683223	-0.040507	0.383945	-0.206019	0.980082	-0.432865	0.363516	0.363002	0.56652	0.643998	
6.48956	0	0	-0.173486	0.594372	0.448687	1.27609	0.052329	0.010765	0.9582	-0.575613	0.951645	-0.548736	0.723948	0.93629	0.099399	-0.0041705	0.256636	0.730875	-0.867622	0.599738	0.880793	-0.536511	-0.259671	0.207617	0.683223	-0.040507	0.384699	-0.208151	0.982357	-0.439296	0.363516	0.363002	0.566287	0.635159	
6.48956	0	0	-0.172696	0.592139	0.446186	1.28315	0.052329	0.010765	0.9582	-0.575613	0.956666	-0.552017	0.72865	0.942226	0.106528	-0.00882875	0.259578	0.737845	-0.864119	0.59745	0.877883	-0.53461	-0.256047	0.205249	0.683223	-0.040507	0.385454	-0.210282	0.984633	-0.445726	0.363516	0.363002	0.566055	0.626321	
6.49261	0	0	-0.171905	0.589905	0.443685	1.29022	0.052329	0.010765	0.9582	-0.575613	0.961686	-0.555297	0.733351	0.948161	0.113657	-0.013487	0.262521	0.744814	-0.860617	0.595161	0.874974	-0.532709	-0.252423	0.202881	0.683223	-0.040507	0.386208	-0.212413	0.986908	-0.452156	0.363516	0.363002	0.565822	0.617483	
6.48804	0	0	-0.17967	0.593262	0.4429	1.30434	0.046442	0.0129698	0.953274	-0.574035	0.971736	-0.561864	0.738056	0.954106	0.117223	-0.0158175	0.269807	0.747176	-0.859861	0.593026	0.874974	-0.532709	-0.248798	0.200512	0.685426	-0.0386045	0.386208	-0.212413	0.987666	-0.454298	0.358567	0.364024	0.571019	0.612291	
6.48956	0	0	-0.187436	0.59662	0.442114	1.31846	0.040555	0.0151745	0.948349	-0.572458	0.981785	-0.568431	0.74276	0.960051	0.12079	-0.018148	0.277092	0.749537	-0.859106	0.59089	0.874974	-0.532709	-0.245172	0.198143	0.687628	-0.036702	0.386208	-0.212413	0.988424	-0.456441	0.353617	0.365046	0.576217	0.607098	
6.48956	0	0	-0.195201	0.599977	0.441329	1.33257	0.034668	0.0173792	0.943423	-0.57088	0.991835	-0.574997	0.747465	0.965996	0.124357	-0.0204785	0.284378	0.751899	-0.858351	0.588755	0.874974	-0.532709	-0.241546	0.195774	0.689831	-0.0347995	0.386208	-0.212413	0.989182	-0.458583	0.348668	0.366067	0.581414	0.601905	
6.48498	0	0	-0.202966	0.603334	0.440544	1.34669	0.028781	0.019584	0.938497	-0.569302	1.00188	-0.581564	0.75217	0.971941	0.127923	-0.022809	0.291664	0.754261	-0.857595	0.58662	0.874974	-0.532709	-0.237921	0.193405	0.692034	-0.032897	0.386208	-0.212413	0.98994	-0.460725	0.343718	0.367089	0.586611	0.596713	
6.48498	0	0	-0.202504	0.592741	0.438826	1.33965	0.0180708	0.0282242	0.929227	-0.561604	1.00188	-0.581564	0.748779	0.971901	0.127923	-0.022809	0.288961	0.754246	-0.861097	0.588909	0.872066	-0.530809	-0.237921	0.193405	0.691265	-0.0307228	0.386208	-0.212413	0.98994	-0.460725	0.343718	0.367089	0.587438	0.594377	
6.48041	0	0	-0.202043	0.582148	0.437109	1.3326	0.0073605	0.0368645	0.919958	-0.553906	1.00188	-0.581564	0.745389	0.971861	0.127923	-0.022809	0.286258	0.754231	-0.8646	0.591197	0.869157	-0.528908	-0.237921	0.193405	0.690496	-0.0285485	0.386208	-0.212413	0.98994	-0.460725	0.343718	0.367089	0.588264	0.59204	
6.48193	0	0	-0.201581	0.571556	0.435391	1.32556	-0.00334975	0.0455047	0.910689	-0.546209	1.00188	-0.581564	0.741998	0.97182	0.127923	-0.022809	0.283555	0.754215	-0.868102	0.593485	0.866248	-0.527007	-0.237921	0.193405	0.689726	-0.0263743	0.386208	-0.212413	0.98994	-0.460725	0.343718	0.367089	0.58909	0.589703	
6.48041	0	0	-0.201119	0.560963	0.433673	1.31852	-0.01406	0.054145	0.901419	-0.538511	1.00188	-0.581564	0.738607	0.97178	0.127923	-0.022809	0.280852	0.7542	-0.871605	0.595774	0.86334	-0.525107	-0.237921	0.193405	0.688957	-0.0242	0.386208	-0.212413	0.98994	-0.460725	0.343718	0.367089	0.589917	0.587367	
6.47888	0	0	-0.2092	0.555968	0.431483	1.30093	-0.024003	0.060642	0.89008	-0.531102	0.999371	-0.579921	0.740403	0.957087	0.124357	-0.0204785	0.277088	0.749539	-0.879361	0.602484	0.850961	-0.515378	-0.242306	0.197922	0.685322	-0.030178	0.381925	-0.209614	0.983754	-0.459975	0.338773	0.368109	0.586373	0.587887	
6.47888	0	0	-0.217282	0.550973	0.429294	1.28335	-0.033946	0.067139	0.87874	-0.523693	0.996858	-0.578279	0.742198	0.942393	0.12079	-0.018148	0.273324	0.744878	-0.887118	0.609193	0.838583	-0.505648	-0.246692	0.202438	0.681686	-0.036156	0.377642	-0.206815	0.977567	-0.459226	0.333827	0.369129	0.58283	0.588407	
6.47583	0	0	-0.225363	0.545978	0.427104	1.26577	-0.043889	0.073636	0.867401	-0.516283	0.994344	-0.576636	0.743994	0.9277	0.117223	-0.0158175	0.269561	0.740217	-0.894874	0.615903	0.826204	-0.495919	-0.251077	0.206954	0.678051	-0.042134	0.373359	-0.204017	0.97138	-0.458477	0.328881	0.370149	0.579286	0.588927	
6.47888	0	0	-0.233444	0.540983	0.424915	1.24818	-0.053832	0.080133	0.856062	-0.508874	0.991831	-0.574994	0.74579	0.913007	0.113657	-0.013487	0.265797	0.735556	-0.90263	0.622613	0.813825	-0.48619	-0.255462	0.211471	0.674415	-0.048112	0.369076	-0.201218	0.965194	-0.457727	0.323936	0.371169	0.575742	0.589447	
6.4743	0	0	-0.233774	0.532647	0.423193	1.24117	-0.0604543	0.08446	0.847568	-0.503324	0.989318	-0.573352	0.743154	0.901236	0.114414	-0.0156258	0.264489	0.723968	-0.912365	0.627332	0.802972	-0.480739	-0.258326	0.211691	0.669349	-0.0581462	0.364795	-0.198421	0.963618	-0.461634	0.331934	0.361522	0.571962	0.581153	
6.47125	0	0	-0.234104	0.524312	0.42147	1.23416	-0.0670765	0.088787	0.839073	-0.497773	0.986806	-0.57171	0.740517	0.889466	0.11517	-0.0177645	0.26318	0.71238	-0.9221	0.632052	0.79212	-0.475289	-0.26119	0.211912	0.664282	-0.0681805	0.360514	-0.195624	0.962041	-0.46554	0.339932	0.351875	0.568183	0.572859	
6.47278	0	0	-0.234435	0.515977	0.419748	1.22716	-0.0736988	0.093114	0.830578	-0.492223	0.984293	-0.570068	0.73788	0.877695	0.115927	-0.0199032	0.261871	0.700793	-0.931835	0.636772	0.781267	-0.469838	-0.264055	0.212133	0.659215	-0.0782147	0.356233	-0.192826	0.960464	-0.469446	0.347931	0.342228	0.564403	0.564564	
6.47125	0	0	-0.234765	0.507641	0.418026	1.22015	-0.080321	0.097441	0.822084	-0.486672	0.98178	-0.568426	0.735244	0.865925	0.116684	-0.022042	0.260563	0.689205	-0.94157	0.641491	0.770414	-0.464387	-0.266919	0.212353	0.654149	-0.088249	0.351952	-0.190029	0.958888	-0.473353	0.355929	0.332581	0.560623	0.55627	
6.4682	0	0	-0.240146	0.504324	0.420519	1.2131	-0.08363	0.0996033	0.817181	-0.485109	0.977512	-0.567278	0.739377	0.854243	0.113119	-0.0197125	0.258434	0.679949	-0.948557	0.646056	0.758822	-0.456813	-0.270541	0.21472	0.654249	-0.0966412	0.351952	-0.190029	0.959645	-0.475492	0.348948	0.339352	0.560382	0.54747	
6.4682	0	0	-0.245526	0.501006	0.423013	1.20606	-0.086939	0.101766	0.812277	-0.483545	0.973243	-0.566129	0.74351	0.842562	0.109553	-0.017383	0.256305	0.670692	-0.955543	0.650621	0.747229	-0.449238	-0.274164	0.217087	0.654348	-0.105034	0.351952	-0.190029	0.960402	-0.477631	0.341967	0.346124	0.56014	0.53867	
6.46667	0	0	-0.250906	0.497688	0.425506	1.19901	-0.090248	0.103928	0.807374	-0.481982	0.968975	-0.564981	0.747644	0.830881	0.105988	-0.0150535	0.254176	0.661436	-0.96253	0.655187	0.735637	-0.441663	-0.277786	0.219454	0.654448	-0.113426	0.351952	-0.190029	0.961159	-0.479771	0.334987	0.352895	0.559899	0.52987	
6.46515	0	0	-0.256287	0.494371	0.427999	1.19197	-0.093557	0.10609	0.802471	-0.480419	0.964707	-0.563833	0.751777	0.819199	0.102423	-0.012724	0.252047	0.65218	-0.969516	0.659752	0.724045	-0.434089	-0.281408	0.221821	0.654548	-0.121818	0.351952	-0.190029	0.961916	-0.48191	0.328006	0.359666	0.559658	0.52107	
6.46667	0	0	-0.261662	0.491057	0.421291	1.19906	-0.099416	0.108276	0.799643	-0.478571	0.962951	-0.564326	0.749422	0.816252	0.0960537	-0.010206	0.248036	0.64063	-0.984228	0.671006	0.718255	-0.430306	-0.282168	0.223968	0.652348	-0.123709	0.356233	-0.192826	0.962673	-0.484049	0.339937	0.35187	0.567563	0.517695	
6.46667	0	0	-0.267037	0.487742	0.414583	1.20615	-0.105275	0.110463	0.796816	-0.476724	0.961195	-0.56482	0.747067	0.813305	0.0896845	-0.007688	0.244025	0.62908	-0.998939	0.68226	0.712465	-0.426522	-0.282928	0.226116	0.650149	-0.1256	0.360514	-0.195624	0.963429	-0.486187	0.351868	0.344074	0.575469	0.51432	
6.46057	0	0	-0.272413	0.484428	0.407874	1.21324	-0.111134	0.112649	0.793988	-0.474876	0.95944	-0.565313	0.744711	0.810358	0.0833153	-0.00517	0.240013	0.617531	-1.01365	0.693515	0.706674	-0.422739	-0.283688	0.228264	0.64795	-0.127491	0.364795	-0.198421	0.964186	-0.488326	0.363799	0.336278	0.583375	0.510945	
6.46515	0	0	-0.277788	0.481114	0.401166	1.22033	-0.116993	0.114836	0.79116	-0.473029	0.957684	-0.565806	0.742356	0.807411	0.076946	-0.002652	0.236002	0.605981	-1.02836	0.704769	0.700884	-0.418955	-0.284448	0.230411	0.64575	-0.129382	0.369076	-0.201218	0.964943	-0.490465	0.37573	0.328482	0.59128	0.50757	
6.46362	0	0	-0.274649	0.472243	0.403178	1.20278	-0.120298	0.116996	0.79116	-0.473029	0.949402	-0.558754	0.743094	0.795727	0.0733852	-0.00032525	0.230364	0.599056	-1.04577	0.716147	0.694342	-0.41304	-0.291688	0.235142	0.640589	-0.130998	0.36983	-0.203349	0.964186	-0.488326	0.369762	0.332381	0.597545	0.508851	
6.46057	0	0	-0.27151	0.463372	0.40519	1.18524	-0.123604	0.119155	0.79116	-0.473029	0.941119	-0.551702	0.743833	0.784042	0.0698245	0.0020015	0.224726	0.592131	-1.06319	0.727525	0.687801	-0.407125	-0.298928	0.239873	0.635428	-0.132615	0.370584	-0.20548	0.963429	-0.486187	0.363795	0.336281	0.60381	0.510131	
6.4621	0	0	-0.268371	0.454502	0.407202	1.16769	-0.126909	0.121315	0.79116	-0.473029	0.932837	-0.544649	0.744571	0.772358	0.0662637	0.00432825	0.219089	0.585205	-1.0806	0.738903	0.68126	-0.401209	-0.306169	0.244604	0.630266	-0.134232	0.371337	-0.20761	0.962673	-0.484049	0.357828	0.34018	0.610075	0.511412	
6.46057	0	0	-0.265232	0.445631	0.409214	1.15015	-0.130214	0.123475	0.79116	-0.473029	0.924555	-0.537597	0.745309	0.760673	0.062703	0.006655	0.213451	0.57828	-1.09801	0.750281	0.674718	-0.395294	-0.313409	0.249335	0.625105	-0.135848	0.372091	-0.209741	0.961916	-0.48191	0.35186	0.34408	0.61634	0.512693	
6.46057	0	0	-0.261759	0.445066	0.412942	1.13961	-0.127664	0.123451	0.798891	-0.47644	0.920295	-0.536454	0.750456	0.746126	0.0548295	0.0134438	0.215634	0.564497	-1.11041	0.755097	0.673337	-0.397672	-0.319883	0.251914	0.625966	-0.146378	0.362777	-0.202017	0.965765	-0.484425	0.353894	0.338331	0.61469	0.517356	
6.45904	0	0	-0.258286	0.444501	0.416671	1.12907	-0.125114	0.123426	0.806622	-0.47985	0.916036	-0.535311	0.755603	0.731579	0.046956	0.0202325	0.217817	0.550714	-1.1228	0.759913	0.671955	-0.400051	-0.326357	0.254493	0.626827	-0.156908	0.353464	-0.194294	0.969613	-0.486939	0.355928	0.332583	0.61304	0.52202	
6.45904	0	0	-0.254813	0.443936	0.4204	1.11853	-0.122565	0.123402	0.814353	-0.483261	0.911776	-0.534169	0.760751	0.717031	0.0390825	0.0270213	0.22	0.536931	-1.1352	0.764729	0.670574	-0.402429	-0.332832	0.257073	0.627688	-0.167438	0.344151	-0.18657	0.973461	-0.489454	0.357962	0.326834	0.61139	0.526683	
6.45904	0	0	-0.25134	0.443371	0.424128	1.108	-0.120015	0.123378	0.822084	-0.486672	0.907516	-0.533026	0.765898	0.702484	0.031209	0.03381	0.222183	0.523148	-1.14759	0.769545	0.669192	-0.404808	-0.339306	0.259652	0.628549	-0.177968	0.334837	-0.178846	0.97731	-0.491969	0.359996	0.321085	0.60974	0.531347	
6.45447	0	0	-0.249435	0.447242	0.424614	1.11848	-0.113401	0.119056	0.833412	-0.494074	0.902505	-0.529751	0.770316	0.699597	0.0284093	0.0339952	0.218425	0.518553	-1.1657	0.783016	0.671329	-0.404564	-0.346534	0.264375	0.623393	-0.179577	0.33056	-0.176051	0.978067	-0.494108	0.362029	0.31534	0.615762	0.523826	
6.45904	0	0	-0.24753	0.451112	0.4251	1.12897	-0.106786	0.114734	0.84474	-0.501476	0.897493	-0.526477	0.774733	0.696711	0.0256095	0.0341805	0.214666	0.513958	-1.1838	0.796488	0.673466	-0.404319	-0.353762	0.269098	0.618236	-0.181185	0.326284	-0.173257	0.978824	-0.496246	0.364061	0.309595	0.621785	0.516306	
6.45904	0	0	-0.245624	0.454983	0.425586	1.13946	-0.100171	0.110412	0.856068	-0.508878	0.892481	-0.523202	0.779151	0.693825	0.0228098	0.0343658	0.210908	0.509363	-1.20191	0.809959	0.675602	-0.404075	-0.36099	0.273821	0.613079	-0.182794	0.322008	-0.170463	0.97958	-0.498385	0.366094	0.30385	0.627807	0.508785	
6.45294	0	0	-0.243719	0.458853	0.426072	1.14994	-0.093557	0.10609	0.867396	-0.51628	0.88747	-0.519927	0.783569	0.690938	0.02001	0.034551	0.20715	0.504768	-1.22001	0.82343	0.677739	-0.403831	-0.368218	0.278544	0.607923	-0.184403	0.317731	-0.167668	0.980337	-0.500524	0.368127	0.298105	0.63383	0.501264	
6.45447	0	0	-0.246075	0.465512	0.422338	1.1605	-0.090248	0.103928	0.875902	-0.521838	0.884965	-0.51829	0.787989	0.68805	0.0129018	0.0391958	0.206082	0.500182	-1.23387	0.832483	0.680632	-0.405721	-0.37183	0.280904	0.610213	-0.190874	0.31421	-0.167006	0.980337	-0.500524	0.371174	0.289494	0.634655	0.498933	
6.45599	0	0	-0.248431	0.47217	0.418603	1.17105	-0.086939	0.101766	0.884408	-0.527395	0.88246	-0.516653	0.792409	0.685161	0.0057935	0.0438405	0.205014	0.495597	-1.24772	0.841535	0.683524	-0.407612	-0.375441	0.283264	0.612502	-0.197344	0.310689	-0.166344	0.980337	-0.500524	0.37422	0.280884	0.635479	0.496603	
6.45447	0	0	-0.250788	0.478829	0.414868	1.1816	-0.08363	0.0996033	0.892913	-0.532953	0.879956	-0.515017	0.796829	0.682273	-0.00131475	0.0484852	0.203946	0.491012	-1.26157	0.850588	0.686417	-0.409502	-0.379053	0.285624	0.614791	-0.203815	0.307169	-0.165681	0.980337	-0.500524	0.377267	0.272274	0.636304	0.494272	
6.45752	0	0	-0.253144	0.485488	0.411134	1.19216	-0.080321	0.097441	0.901419	-0.538511	0.877451	-0.51338	0.801249	0.679385	-0.008423	0.05313	0.202878	0.486426	-1.27543	0.859641	0.68931	-0.411392	-0.382665	0.287984	0.617081	-0.210285	0.303648	-0.165019	0.980337	-0.500524	0.380314	0.263663	0.637129	0.491941	
6.45904	0	0	-0.248097	0.480483	0.408166	1.18869	-0.08363	0.0996033	0.904256	-0.540365	0.869941	-0.508473	0.802277	0.676478	-0.0119747	0.0554508	0.203428	0.47727	-1.28581	0.866421	0.688555	-0.409258	-0.393491	0.295058	0.61336	-0.207853	0.298622	-0.160097	0.978823	-0.496246	0.370421	0.265718	0.635479	0.496603	
6.4621	0	0	-0.243049	0.475479	0.405197	1.18522	-0.086939	0.101766	0.907093	-0.542219	0.862432	-0.503566	0.803306	0.673572	-0.0155265	0.0577715	0.203979	0.468113	-1.29618	0.873201	0.6878	-0.407123	-0.404317	0.302132	0.609638	-0.205422	0.293596	-0.155174	0.97731	-0.491968	0.360528	0.267772	0.63383	0.501266	
6.46362	0	0	-0.238002	0.470474	0.402229	1.18175	-0.090248	0.103928	0.909931	-0.544073	0.854922	-0.498659	0.804335	0.670666	-0.0190783	0.0600922	0.204529	0.458956	-1.30656	0.879981	0.687044	-0.404989	-0.415143	0.309206	0.605916	-0.20299	0.288569	-0.150252	0.975796	-0.48769	0.350634	0.269827	0.63218	0.505928	
6.46057	0	0	-0.232955	0.465469	0.399261	1.17827	-0.093557	0.10609	0.912768	-0.545927	0.847412	-0.493752	0.805363	0.667759	-0.02263	0.062413	0.205079	0.4498	-1.31693	0.886761	0.686289	-0.402855	-0.425969	0.31628	0.602195	-0.200559	0.283543	-0.14533	0.974282	-0.483412	0.340741	0.271882	0.630531	0.51059	
6.45904	0	0	-0.232955	0.465469	0.402992	1.16773	-0.090248	0.103928	0.918445	-0.549637	0.843164	-0.492616	0.802999	0.664837	-0.02263	0.062413	0.202391	0.449798	-1.32805	0.895668	0.687044	-0.404989	-0.433939	0.323139	0.596283	-0.20001	0.275005	-0.139751	0.974282	-0.483412	0.338841	0.264313	0.633255	0.512396	
6.46362	0	0	-0.232955	0.465469	0.406724	1.15718	-0.086939	0.101766	0.924122	-0.553346	0.838916	-0.49148	0.800635	0.661914	-0.02263	0.062413	0.199704	0.449796	-1.33917	0.904575	0.6878	-0.407123	-0.441908	0.329997	0.59037	-0.19946	0.266466	-0.134171	0.974282	-0.483412	0.336941	0.256744	0.635979	0.514203	
6.46057	0	0	-0.232955	0.465469	0.410456	1.14664	-0.08363	0.0996033	0.929799	-0.557055	0.834667	-0.490344	0.798271	0.658992	-0.02263	0.062413	0.197016	0.449795	-1.35029	0.913483	0.688555	-0.409258	-0.449878	0.336856	0.584457	-0.198911	0.257928	-0.128592	0.974282	-0.483412	0.335041	0.249174	0.638704	0.516009	
6.45752	0	0	-0.232955	0.465469	0.414187	1.13609	-0.080321	0.097441	0.935476	-0.560765	0.830419	-0.489208	0.795907	0.65607	-0.02263	0.062413	0.194328	0.449793	-1.36141	0.92239	0.68931	-0.411392	-0.457848	0.343715	0.578545	-0.198362	0.24939	-0.123013	0.974282	-0.483412	0.333141	0.241605	0.641428	0.517815	
6.45599	0	0	-0.231048	0.469345	0.412944	1.1396	-0.0762548	0.093142	0.947597	-0.570326	0.830419	-0.489208	0.804749	0.650292	-0.0261805	0.064733	0.197825	0.447508	-1.36831	0.9269	0.697239	-0.414932	-0.465052	0.348422	0.579307	-0.200517	0.237352	-0.116786	0.971947	-0.485175	0.337191	0.230159	0.638704	0.516009	
6.45447	0	0	-0.229142	0.473221	0.411701	1.14312	-0.0721885	0.088843	0.959718	-0.579886	0.830419	-0.489208	0.813591	0.644515	-0.029731	0.067053	0.201322	0.445223	-1.37521	0.93141	0.705167	-0.418472	-0.472255	0.353129	0.58007	-0.202672	0.225315	-0.110558	0.969612	-0.486938	0.341241	0.218714	0.635979	0.514203	
6.45904	0	0	-0.227236	0.477097	0.410457	1.14663	-0.0681222	0.084544	0.971838	-0.589447	0.830419	-0.489208	0.822433	0.638737	-0.0332815	0.069373	0.204819	0.442939	-1.38212	0.93592	0.713096	-0.422012	-0.479459	0.357836	0.580832	-0.204827	0.213278	-0.10433	0.967278	-0.488702	0.345291	0.207268	0.633255	0.512396	
6.45752	0	0	-0.225329	0.480973	0.409214	1.15015	-0.064056	0.080245	0.983959	-0.599008	0.830419	-0.489208	0.831275	0.632959	-0.036832	0.071693	0.208316	0.440654	-1.38902	0.94043	0.721025	-0.425552	-0.486663	0.362543	0.581594	-0.206982	0.20124	-0.098103	0.964943	-0.490465	0.349341	0.195822	0.630531	0.51059	
6.45294	0	0	-0.228475	0.489864	0.405955	1.17122	-0.0599888	0.075946	0.990403	-0.604858	0.830419	-0.489208	0.838383	0.641724	-0.0360755	0.0695553	0.211266	0.44752	-1.39516	0.942801	0.733372	-0.435261	-0.485903	0.360395	0.585312	-0.209412	0.201994	-0.100233	0.968035	-0.490841	0.350353	0.192963	0.634906	0.507732	
6.45599	0	0	-0.231621	0.498754	0.402697	1.19229	-0.0559215	0.071647	0.996846	-0.610709	0.830419	-0.489208	0.845492	0.650489	-0.035319	0.0674175	0.214217	0.454387	-1.4013	0.945172	0.74572	-0.44497	-0.485144	0.358248	0.589031	-0.211841	0.202747	-0.102363	0.971127	-0.491217	0.351364	0.190103	0.63928	0.504873	
6.45141	0	0	-0.234766	0.507644	0.399438	1.21336	-0.0518543	0.067348	1.00329	-0.61656	0.830419	-0.489208	0.8526	0.659254	-0.0345625	0.0652797	0.217167	0.461253	-1.40744	0.947543	0.758067	-0.454678	-0.484384	0.356101	0.592749	-0.214271	0.203501	-0.104493	0.974218	-0.491593	0.352376	0.187244	0.643655	0.502015	
6.45141	0	0	-0.237912	0.516535	0.396179	1.23443	-0.047787	0.063049	1.00973	-0.62241	0.830419	-0.489208	0.859709	0.668019	-0.033806	0.063142	0.220117	0.46812	-1.41358	0.949914	0.770414	-0.464387	-0.483624	0.353953	0.596467	-0.2167	0.204255	-0.106623	0.97731	-0.491969	0.353388	0.184385	0.64803	0.499156	
6.44989	0	0	-0.240274	0.523209	0.388688	1.2556	-0.044474	0.0608842	1.01049	-0.624543	0.835422	-0.492477	0.864762	0.682638	-0.0267038	0.0585013	0.224949	0.477294	-1.41283	0.947779	0.782777	-0.474105	-0.482864	0.351806	0.601621	-0.215096	0.199241	-0.10171	0.983498	-0.492723	0.344523	0.183587	0.644728	0.508488	
6.45141	0	0	-0.242635	0.529883	0.381196	1.27677	-0.041161	0.0587195	1.01124	-0.626677	0.840425	-0.495746	0.869815	0.697256	-0.0196015	0.0538605	0.229781	0.486467	-1.41207	0.945644	0.79514	-0.483824	-0.482104	0.349659	0.606774	-0.213493	0.194228	-0.0967965	0.989686	-0.493476	0.335658	0.18279	0.641426	0.517819	
6.45447	0	0	-0.244997	0.536556	0.373705	1.29794	-0.037848	0.0565548	1.012	-0.62881	0.845428	-0.499015	0.874868	0.711875	-0.0124992	0.0492197	0.234614	0.495641	-1.41132	0.94351	0.807503	-0.493542	-0.481345	0.347512	0.611927	-0.211889	0.189215	-0.0918832	0.995874	-0.494229	0.326794	0.181993	0.638124	0.527151	
6.45904	0	0	-0.247358	0.54323	0.366214	1.31911	-0.034535	0.05439	1.01275	-0.630943	0.850431	-0.502284	0.879921	0.726494	-0.005397	0.044579	0.239446	0.504815	-1.41056	0.941375	0.819866	-0.503261	-0.480585	0.345365	0.617081	-0.210285	0.184201	-0.08697	1.00206	-0.494983	0.317929	0.181195	0.634822	0.536483	
6.4621	0	0	-0.248933	0.547682	0.366214	1.31911	-0.034535	0.05439	1.01484	-0.630669	0.852934	-0.503919	0.879193	0.738193	0.00171125	0.0399342	0.244281	0.514009	-1.40711	0.939122	0.828582	-0.508957	-0.484185	0.347717	0.617751	-0.204089	0.180697	-0.086318	1.00364	-0.491078	0.310976	0.187935	0.638619	0.544778	
6.46973	0	0	-0.250509	0.552134	0.366214	1.31911	-0.034535	0.05439	1.01693	-0.630395	0.855436	-0.505554	0.878466	0.749893	0.0088195	0.0352895	0.249115	0.523203	-1.40367	0.93687	0.837298	-0.514652	-0.487784	0.350069	0.618421	-0.197893	0.177194	-0.085666	1.00522	-0.487174	0.304022	0.194674	0.642416	0.553072	
6.47735	0	0	-0.252084	0.556586	0.366214	1.31911	-0.034535	0.05439	1.01902	-0.630122	0.857939	-0.50719	0.877738	0.761593	0.0159278	0.0306447	0.25395	0.532397	-1.40022	0.934617	0.846015	-0.520347	-0.491383	0.352421	0.619091	-0.191698	0.17369	-0.085014	1.0068	-0.48327	0.297069	0.201413	0.646213	0.561366	
6.4743	0	0	-0.253659	0.561038	0.366214	1.31911	-0.034535	0.05439	1.02111	-0.629848	0.860441	-0.508825	0.877011	0.773292	0.023036	0.026	0.258785	0.541591	-1.39677	0.932364	0.854731	-0.526043	-0.494983	0.354773	0.619761	-0.185502	0.170186	-0.084362	1.00839	-0.479365	0.290115	0.208153	0.65001	0.569661	
6.48193	0	0	-0.247489	0.562144	0.369175	1.32261	-0.034535	0.05439	1.02681	-0.633568	0.870459	-0.515371	0.8862	0.77628	0.0265923	0.0236762	0.264692	0.555417	-1.39677	0.932364	0.862701	-0.52961	-0.494983	0.354773	0.622722	-0.185777	0.166684	-0.0837113	1.00453	-0.476847	0.286197	0.206321	0.647527	0.576677	
6.48346	0	0	-0.24132	0.563249	0.372136	1.32611	-0.034535	0.05439	1.0325	-0.637289	0.880476	-0.521917	0.89539	0.779268	0.0301485	0.0213525	0.2706	0.569244	-1.39677	0.932364	0.870671	-0.533178	-0.494983	0.354773	0.625683	-0.186053	0.163183	-0.0830605	1.00068	-0.474329	0.28228	0.20449	0.645045	0.583694	
6.48346	0	0	-0.23515	0.564355	0.375097	1.32961	-0.034535	0.05439	1.0382	-0.64101	0.890493	-0.528462	0.90458	0.782255	0.0337048	0.0190288	0.276508	0.58307	-1.39677	0.932364	0.878641	-0.536746	-0.494983	0.354773	0.628644	-0.186329	0.159681	-0.0824098	0.996825	-0.471811	0.278363	0.202659	0.642562	0.590711	
6.48804	0	0	-0.22898	0.565461	0.378058	1.3331	-0.034535	0.05439	1.04389	-0.64473	0.900511	-0.535008	0.913769	0.785243	0.037261	0.016705	0.282415	0.596896	-1.39677	0.932364	0.886611	-0.540313	-0.494983	0.354773	0.631605	-0.186604	0.156179	-0.081759	0.992972	-0.469293	0.274445	0.200827	0.640079	0.597727	
6.48956	0	0	-0.232135	0.574378	0.379768	1.34015	-0.034535	0.05439	1.04959	-0.648453	0.907277	-0.537789	0.91541	0.799936	0.0471823	0.0118658	0.292663	0.606156	-1.39332	0.93011	0.892433	-0.544117	-0.491383	0.352421	0.637531	-0.187156	0.156179	-0.081759	0.993729	-0.471434	0.27053	0.198997	0.640907	0.595387	
6.49414	0	0	-0.235291	0.583295	0.381478	1.34719	-0.034535	0.05439	1.05529	-0.652176	0.914043	-0.54057	0.917052	0.814628	0.0571035	0.0070265	0.30291	0.615417	-1.38987	0.927857	0.898254	-0.547921	-0.487784	0.350069	0.643458	-0.187709	0.156179	-0.081759	0.994487	-0.473576	0.266616	0.197166	0.641734	0.593048	
6.49261	0	0	-0.238446	0.592213	0.383189	1.35423	-0.034535	0.05439	1.06099	-0.6559	0.920809	-0.543351	0.918693	0.829321	0.0670247	0.00218725	0.313157	0.624677	-1.38642	0.925604	0.904076	-0.551725	-0.484185	0.347717	0.649384	-0.188261	0.156179	-0.081759	0.995245	-0.475717	0.262701	0.195335	0.642562	0.590709	
6.49414	0	0	-0.241601	0.60113	0.384899	1.36127	-0.034535	0.05439	1.06668	-0.659623	0.927575	-0.546132	0.920334	0.844014	0.076946	-0.002652	0.323405	0.633938	-1.38298	0.92335	0.909898	-0.555529	-0.480585	0.345365	0.65531	-0.188813	0.156179	-0.081759	0.996002	-0.477858	0.258786	0.193505	0.64339	0.588369	
6.49261	0	0	-0.246658	0.60615	0.373165	1.38256	-0.037848	0.0565548	1.06383	-0.657761	0.940879	-0.556465	0.930883	0.852923	0.0883935	-0.0117755	0.332034	0.647853	-1.36917	0.914326	0.919393	-0.563373	-0.473381	0.340658	0.658948	-0.182883	0.151926	-0.0789798	0.996002	-0.477858	0.259795	0.190652	0.639011	0.59123	
6.49261	0	0	-0.251715	0.611169	0.361431	1.40385	-0.041161	0.0587195	1.06098	-0.655899	0.954183	-0.566798	0.941433	0.861831	0.099841	-0.020899	0.340662	0.661768	-1.35536	0.905303	0.928888	-0.571218	-0.466178	0.33595	0.662585	-0.176953	0.147673	-0.0762005	0.996002	-0.477858	0.260804	0.1878	0.634632	0.594092	
6.48956	0	0	-0.256773	0.616189	0.349697	1.42513	-0.044474	0.0608842	1.05813	-0.654037	0.967487	-0.577132	0.951983	0.870739	0.111288	-0.0300225	0.349291	0.675683	-1.34155	0.896279	0.938383	-0.579063	-0.458974	0.331243	0.666222	-0.171022	0.143419	-0.0734212	0.996002	-0.477858	0.261814	0.184947	0.630252	0.596954	
6.48346	0	0	-0.26183	0.621208	0.337963	1.44642	-0.047787	0.063049	1.05529	-0.652175	0.980791	-0.587465	0.962532	0.879648	0.122736	-0.039146	0.35792	0.689598	-1.32774	0.887255	0.947878	-0.586907	-0.45177	0.326536	0.66986	-0.165092	0.139166	-0.070642	0.996002	-0.477858	0.262823	0.182094	0.625873	0.599815	
6.47888	0	0	-0.267993	0.620091	0.331246	1.45354	-0.0544092	0.067376	1.0439	-0.644734	0.985816	-0.590748	0.964168	0.894417	0.13344	-0.0461405	0.360311	0.70586	-1.3139	0.878217	0.956627	-0.592624	-0.440953	0.319468	0.671967	-0.154822	0.138412	-0.0685125	0.991393	-0.4732	0.260804	0.187801	0.627768	0.603973	
6.47888	0	0	-0.274155	0.618974	0.324529	1.46065	-0.0610315	0.071703	1.03251	-0.637293	0.990841	-0.594032	0.965803	0.909187	0.144145	-0.053135	0.362702	0.722122	-1.30007	0.869179	0.965376	-0.59834	-0.430136	0.3124	0.674073	-0.144551	0.137659	-0.066383	0.986783	-0.468541	0.258785	0.193507	0.629663	0.608132	
6.48041	0	0	-0.280317	0.617857	0.317812	1.46777	-0.0676537	0.07603	1.02112	-0.629851	0.995866	-0.597315	0.967438	0.923956	0.15485	-0.0601295	0.365092	0.738383	-1.28624	0.86014	0.974125	-0.604057	-0.419319	0.305332	0.67618	-0.134281	0.136906	-0.0642535	0.982174	-0.463883	0.256766	0.199213	0.631559	0.612291	
6.46973	0	0	-0.28648	0.61674	0.311095	1.47489	-0.074276	0.080357	1.00973	-0.62241	1.00089	-0.600598	0.969074	0.938725	0.165554	-0.067124	0.367483	0.754645	-1.27241	0.851102	0.982874	-0.609774	-0.408502	0.298264	0.678287	-0.124011	0.136152	-0.062124	0.977564	-0.459225	0.254747	0.20492	0.633454	0.616449	
6.47125	0	0	-0.29106	0.611169	0.311908	1.46073	-0.080893	0.0846807	1.00404	-0.618693	1.00516	-0.60175	0.966988	0.94462	0.171941	-0.069654	0.375051	0.763993	-1.26548	0.846577	0.988711	-0.613589	-0.408502	0.298264	0.67522	-0.115343	0.140405	-0.064903	0.977564	-0.459225	0.25765	0.209609	0.638075	0.622434	
6.47278	0	0	-0.295639	0.605597	0.31272	1.44657	-0.08751	0.0890045	0.998356	-0.614976	1.00944	-0.602903	0.964902	0.950515	0.178329	-0.072184	0.382618	0.77334	-1.25856	0.842053	0.994549	-0.617403	-0.408502	0.298264	0.672153	-0.106675	0.144658	-0.067682	0.977564	-0.459225	0.260553	0.214298	0.642697	0.628418	
6.4743	0	0	-0.300219	0.600025	0.313532	1.43242	-0.094127	0.0933283	0.992668	-0.611259	1.01371	-0.604055	0.962817	0.956409	0.184716	-0.074714	0.390186	0.782688	-1.25163	0.837529	1.00039	-0.621217	-0.408502	0.298264	0.669086	-0.0980063	0.148912	-0.070461	0.977564	-0.459225	0.263457	0.218986	0.647318	0.634403	
6.46973	0	0	-0.304799	0.594454	0.314345	1.41826	-0.100744	0.097652	0.986979	-0.607542	1.01798	-0.605207	0.960731	0.962304	0.191103	-0.077244	0.397754	0.792036	-1.24471	0.833004	1.00622	-0.625032	-0.408502	0.298264	0.666019	-0.089338	0.153165	-0.07324	0.977564	-0.459225	0.26636	0.223675	0.651939	0.640388	
6.4682	0	0	-0.308269	0.59501	0.313092	1.4218	-0.100744	0.097652	0.986224	-0.605409	1.02805	-0.611783	0.971005	0.962395	0.205408	-0.0865915	0.403681	0.80607	-1.23084	0.823944	1.00914	-0.62694	-0.386068	0.281954	0.672726	-0.092053	0.165937	-0.0815857	0.977564	-0.459225	0.292048	0.21568	0.653006	0.646903	
6.4682	0	0	-0.311739	0.595565	0.311839	1.42534	-0.100744	0.097652	0.985469	-0.603275	1.03811	-0.618359	0.981279	0.962485	0.219714	-0.095939	0.409608	0.820105	-1.21698	0.814884	1.01206	-0.628848	-0.363633	0.265645	0.679432	-0.094768	0.17871	-0.0899315	0.977564	-0.459225	0.317737	0.207686	0.654072	0.653418	
6.4682	0	0	-0.315208	0.596121	0.310585	1.42889	-0.100744	0.097652	0.984714	-0.601141	1.04818	-0.624936	0.991552	0.962576	0.234019	-0.105287	0.415536	0.83414	-1.20311	0.805824	1.01498	-0.630756	-0.341198	0.249335	0.686138	-0.097483	0.191482	-0.0982772	0.977564	-0.459225	0.343425	0.199692	0.655139	0.659933	
6.47125	0	0	-0.318678	0.596677	0.309332	1.43243	-0.100744	0.097652	0.983959	-0.599008	1.05824	-0.631512	1.00183	0.962666	0.248324	-0.114634	0.421463	0.848174	-1.18925	0.796764	1.01791	-0.632664	-0.318764	0.233026	0.692845	-0.100198	0.204255	-0.106623	0.977564	-0.459225	0.369114	0.191697	0.656205	0.666448	
6.4682	0	0	-0.321042	0.603357	0.313979	1.44302	-0.0948825	0.0954635	0.983959	-0.599008	1.07008	-0.63761	1.00003	0.977469	0.261897	-0.121859	0.430944	0.859933	-1.16841	0.783146	1.02083	-0.634573	-0.301419	0.223343	0.694281	-0.096133	0.224831	-0.11843	0.975229	-0.460991	0.391859	0.192247	0.662254	0.658889	
6.46362	0	0	-0.323406	0.610038	0.318626	1.45362	-0.089021	0.093275	0.983959	-0.599008	1.08193	-0.643707	0.998228	0.992271	0.27547	-0.129083	0.440426	0.871692	-1.14757	0.769529	1.02375	-0.636482	-0.284074	0.21366	0.695718	-0.092068	0.245407	-0.130238	0.972894	-0.462758	0.414604	0.192796	0.668302	0.65133	
6.46667	0	0	-0.325769	0.616719	0.323273	1.46421	-0.0831595	0.0910865	0.983959	-0.599008	1.09377	-0.649805	0.996429	1.00707	0.289042	-0.136308	0.449907	0.883452	-1.12672	0.755911	1.02667	-0.638391	-0.266729	0.203976	0.697155	-0.088003	0.265983	-0.142045	0.970559	-0.464525	0.437349	0.193346	0.67435	0.643771	
6.46515	0	0	-0.328133	0.623399	0.32792	1.4748	-0.077298	0.088898	0.983959	-0.599008	1.10561	-0.655903	0.99463	1.02188	0.302615	-0.143533	0.459388	0.895211	-1.10588	0.742293	1.02959	-0.6403	-0.249384	0.194293	0.698591	-0.083938	0.286559	-0.153852	0.968224	-0.466291	0.460094	0.193895	0.680399	0.636212	
6.46515	0	0	-0.330499	0.630084	0.327099	1.489	-0.077298	0.088898	0.978274	-0.595293	1.1157	-0.662497	0.997298	1.03379	0.314134	-0.152704	0.462597	0.909314	-1.08772	0.728785	1.03327	-0.644343	-0.226849	0.177918	0.705208	-0.0782435	0.308696	-0.169954	0.968981	-0.468431	0.490961	0.184755	0.693577	0.627601	
6.46667	0	0	-0.332865	0.636769	0.326279	1.50319	-0.077298	0.088898	0.972589	-0.591579	1.12579	-0.669091	0.999967	1.0457	0.325654	-0.161874	0.465805	0.923416	-1.06956	0.715278	1.03694	-0.648385	-0.204313	0.161542	0.711824	-0.072549	0.330832	-0.186057	0.969739	-0.470572	0.521827	0.175616	0.706755	0.61899	
6.46362	0	0	-0.33523	0.643455	0.325458	1.51739	-0.077298	0.088898	0.966905	-0.587865	1.13588	-0.675684	1.00264	1.05761	0.337173	-0.171045	0.469014	0.937519	-1.0514	0.70177	1.04062	-0.652427	-0.181777	0.145167	0.718441	-0.0668545	0.352969	-0.202159	0.970496	-0.472712	0.552694	0.166476	0.719934	0.610379	
6.4682	0	0	-0.337596	0.65014	0.324637	1.53158	-0.077298	0.088898	0.96122	-0.58415	1.14597	-0.682278	1.0053	1.06952	0.348692	-0.180216	0.472223	0.951622	-1.03324	0.688262	1.0443	-0.65647	-0.159242	0.128792	0.725058	-0.06116	0.375106	-0.218261	0.971253	-0.474852	0.583561	0.157336	0.733112	0.601768	
6.47278	0	0	-0.338697	0.644008	0.321688	1.52804	-0.0798515	0.088925	0.956294	-0.582572	1.15253	-0.689845	0.995302	1.07833	0.353795	-0.186837	0.477681	0.951661	-1.02278	0.681427	1.04138	-0.65456	-0.154848	0.124271	0.72352	-0.0568123	0.371579	-0.217593	0.972767	-0.479131	0.576544	0.164129	0.729547	0.602295	
6.47888	0	0	-0.339799	0.637876	0.318738	1.5245	-0.082405	0.088952	0.951369	-0.580993	1.15909	-0.697412	0.985301	1.08715	0.358898	-0.193458	0.483139	0.951699	-1.01232	0.674592	1.03845	-0.652651	-0.150454	0.11975	0.721982	-0.0524645	0.368051	-0.216926	0.974282	-0.48341	0.569527	0.170923	0.725982	0.602822	
6.47278	0	0	-0.3409	0.631743	0.315788	1.52096	-0.0849585	0.088979	0.946443	-0.579414	1.16565	-0.704978	0.975299	1.09596	0.364001	-0.20008	0.488596	0.951738	-1.00186	0.667756	1.03553	-0.650741	-0.14606	0.115229	0.720443	-0.0481167	0.364524	-0.216259	0.975796	-0.48769	0.562509	0.177716	0.722416	0.603349	
6.4743	0	0	-0.342002	0.625611	0.312839	1.51742	-0.087512	0.089006	0.941517	-0.577836	1.17221	-0.712545	0.965298	1.10477	0.369104	-0.206701	0.494054	0.951777	-0.991397	0.660921	1.03261	-0.648832	-0.141666	0.110708	0.718905	-0.043769	0.360997	-0.215591	0.97731	-0.491969	0.555492	0.184509	0.718851	0.603876	
6.49261	0	0	-0.343105	0.619487	0.313658	1.50324	-0.0933713	0.0911935	0.930921	-0.572553	1.16893	-0.708762	0.963688	1.08989	0.361168	-0.199873	0.492154	0.949414	-0.998372	0.665479	1.02093	-0.641201	-0.149693	0.117603	0.709985	-0.0429535	0.353195	-0.21213	0.970371	-0.48908	0.533562	0.194423	0.713628	0.609091	
6.49109	0	0	-0.344207	0.613362	0.314477	1.48906	-0.0992305	0.093381	0.920326	-0.567269	1.16565	-0.704978	0.962077	1.07501	0.353233	-0.193044	0.490254	0.94705	-1.00535	0.670036	1.00925	-0.63357	-0.15772	0.124498	0.701064	-0.042138	0.345393	-0.208669	0.963433	-0.48619	0.511632	0.204338	0.708406	0.614306	
6.50024	0	0	-0.34531	0.607237	0.315297	1.47488	-0.10509	0.0955685	0.90973	-0.561986	1.16237	-0.701194	0.960467	1.06013	0.345297	-0.186215	0.488354	0.944686	-1.01232	0.674594	0.997572	-0.625938	-0.165748	0.131393	0.692144	-0.0413225	0.337591	-0.205207	0.956495	-0.4833	0.489702	0.214252	0.703184	0.619521	
6.50329	0	0	-0.346413	0.601113	0.316116	1.4607	-0.110949	0.097756	0.899134	-0.556703	1.15909	-0.697411	0.958856	1.04525	0.337361	-0.179387	0.486454	0.942323	-1.0193	0.679152	0.985893	-0.618307	-0.173775	0.138288	0.683223	-0.040507	0.329789	-0.201746	0.949556	-0.480411	0.467772	0.224166	0.697961	0.624736	
6.50177	0	0	-0.357586	0.604993	0.310219	1.45365	-0.11501	0.10205	0.895544	-0.552717	1.15909	-0.697411	0.954104	1.03927	0.330188	-0.1747	0.482656	0.937601	-1.02278	0.68143	0.971317	-0.608782	-0.181037	0.143033	0.67662	-0.046208	0.316972	-0.193371	0.947224	-0.482175	0.447937	0.228304	0.691671	0.623439	
6.49872	0	0	-0.36876	0.608874	0.304321	1.44661	-0.11907	0.106345	0.891954	-0.548731	1.15909	-0.697411	0.949353	1.03329	0.323014	-0.170012	0.478857	0.932878	-1.02627	0.683707	0.95674	-0.599257	-0.188299	0.147778	0.670016	-0.051909	0.304155	-0.184997	0.944892	-0.483938	0.428102	0.232443	0.68538	0.622143	
6.50482	0	0	-0.379933	0.612755	0.298424	1.43956	-0.123131	0.11064	0.888364	-0.544745	1.15909	-0.697411	0.944601	1.0273	0.315841	-0.165324	0.475059	0.928155	-1.02975	0.685984	0.942164	-0.589733	-0.19556	0.152522	0.663412	-0.05761	0.291338	-0.176622	0.94256	-0.485702	0.408267	0.236582	0.67909	0.620847	
6.50635	0	0	-0.391106	0.616635	0.292526	1.43252	-0.127192	0.114934	0.884774	-0.540759	1.15909	-0.697411	0.939849	1.02132	0.308667	-0.160637	0.471261	0.923433	-1.03324	0.688262	0.927587	-0.580208	-0.202822	0.157267	0.656809	-0.063311	0.278521	-0.168247	0.940228	-0.487466	0.388432	0.24072	0.6728	0.61955	
6.50177	0	0	-0.394564	0.617185	0.285821	1.43962	-0.130496	0.117093	0.881939	-0.538907	1.15657	-0.695762	0.939563	1.01243	0.301499	-0.155953	0.465568	0.91636	-1.03748	0.692673	0.915189	-0.570467	-0.206451	0.159638	0.656144	-0.0695455	0.278521	-0.168247	0.939472	-0.485328	0.376509	0.24851	0.674458	0.614865	
6.49872	0	0	-0.398022	0.617735	0.279116	1.44673	-0.1338	0.119252	0.879105	-0.537055	1.15404	-0.694112	0.939276	1.00354	0.294332	-0.15127	0.459875	0.909288	-1.04172	0.697083	0.902791	-0.560725	-0.210079	0.162009	0.655479	-0.07578	0.278521	-0.168247	0.938716	-0.48319	0.364587	0.256301	0.676115	0.610179	
6.49872	0	0	-0.40148	0.618286	0.272412	1.45383	-0.137104	0.121411	0.87627	-0.535203	1.15152	-0.692462	0.938989	0.994654	0.287164	-0.146587	0.454183	0.902215	-1.04596	0.701494	0.890392	-0.550984	-0.213707	0.16438	0.654814	-0.0820145	0.278521	-0.168247	0.937959	-0.481053	0.352664	0.264092	0.677773	0.605494	
6.49567	0	0	-0.404938	0.618836	0.265707	1.46093	-0.140408	0.12357	0.873436	-0.533351	1.14899	-0.690813	0.938703	0.985766	0.279996	-0.141903	0.44849	0.895142	-1.0502	0.705905	0.877994	-0.541243	-0.217336	0.166751	0.654149	-0.088249	0.278521	-0.168247	0.937203	-0.478915	0.340741	0.271882	0.679431	0.600808	
6.49567	0	0	-0.415301	0.620482	0.259005	1.46804	-0.147012	0.127885	0.86777	-0.529649	1.14395	-0.687515	0.929782	0.991595	0.276415	-0.139563	0.44115	0.892753	-1.05095	0.70804	0.868517	-0.53341	-0.218095	0.168898	0.651183	-0.0879772	0.277768	-0.166118	0.942624	-0.477525	0.338711	0.277618	0.680503	0.607314	
6.48804	0	0	-0.425663	0.622127	0.252304	1.47514	-0.153617	0.1322	0.862105	-0.525946	1.1389	-0.684217	0.920862	0.997424	0.272833	-0.137222	0.43381	0.890363	-1.05171	0.710174	0.859039	-0.525578	-0.218855	0.171044	0.648217	-0.0877055	0.277014	-0.163989	0.948045	-0.476134	0.336682	0.283354	0.681574	0.61382	
6.48498	0	0	-0.436026	0.623773	0.245602	1.48224	-0.160222	0.136516	0.856439	-0.522244	1.13385	-0.680919	0.911941	1.00325	0.269252	-0.134882	0.426471	0.887973	-1.05246	0.712309	0.849562	-0.517745	-0.219614	0.17319	0.645251	-0.0874338	0.276261	-0.161859	0.953467	-0.474743	0.334653	0.289089	0.682646	0.620326	
6.48041	0	0	-0.446389	0.625419	0.2389	1.48934	-0.166826	0.140831	0.850773	-0.518542	1.12881	-0.677621	0.903021	1.00908	0.26567	-0.132542	0.419131	0.885584	-1.05322	0.714444	0.840085	-0.509912	-0.220374	0.175337	0.642285	-0.087162	0.275507	-0.15973	0.958888	-0.473353	0.332623	0.294825	0.683718	0.626832	
6.47278	0	0	-0.451717	0.622072	0.239719	1.4752	-0.176723	0.147298	0.842281	-0.512993	1.12376	-0.674325	0.897996	0.994249	0.258512	-0.127864	0.415926	0.871538	-1.06094	0.721129	0.827714	-0.500188	-0.228386	0.182223	0.635591	-0.0844537	0.274753	-0.157601	0.963557	-0.469821	0.326668	0.298716	0.691914	0.6323	
6.47583	0	0	-0.457045	0.618726	0.240538	1.46106	-0.18662	0.153765	0.833789	-0.507445	1.11872	-0.671029	0.892971	0.979417	0.251353	-0.123187	0.41272	0.857492	-1.06866	0.727815	0.815343	-0.490464	-0.236399	0.189109	0.628897	-0.0817455	0.274	-0.155471	0.968226	-0.466289	0.320713	0.302608	0.700111	0.637768	
6.4743	0	0	-0.462374	0.615379	0.241357	1.44691	-0.196517	0.160232	0.825298	-0.501896	1.11367	-0.667734	0.887945	0.964586	0.244195	-0.11851	0.409515	0.843447	-1.07638	0.734501	0.802972	-0.480739	-0.244411	0.195995	0.622203	-0.0790373	0.273247	-0.153342	0.972895	-0.462757	0.314758	0.306499	0.708308	0.643235	
6.47583	0	0	-0.467702	0.612032	0.242176	1.43277	-0.206414	0.166699	0.816806	-0.496348	1.10863	-0.664438	0.88292	0.949754	0.237036	-0.113832	0.40631	0.829401	-1.0841	0.741186	0.790601	-0.471015	-0.252423	0.202881	0.615509	-0.076329	0.272493	-0.151212	0.977564	-0.459225	0.308803	0.31039	0.716504	0.648703	
6.46973	0	0	-0.464562	0.603159	0.244235	1.41513	-0.20971	0.168853	0.811149	-0.492652	1.10107	-0.659498	0.882339	0.932066	0.229883	-0.109158	0.399564	0.817707	-1.09377	0.745869	0.779756	-0.46557	-0.259669	0.207616	0.612651	-0.084448	0.263205	-0.143506	0.976048	-0.454941	0.303867	0.31141	0.709615	0.658622	
6.46973	0	0	-0.461423	0.594286	0.246293	1.39749	-0.213007	0.171007	0.805493	-0.488955	1.09351	-0.654557	0.881757	0.914378	0.22273	-0.104485	0.392817	0.806013	-1.10345	0.750552	0.768911	-0.460124	-0.266915	0.212351	0.609793	-0.092567	0.253918	-0.135799	0.974532	-0.450657	0.29893	0.31243	0.702727	0.668542	
6.4682	0	0	-0.458283	0.585413	0.248352	1.37985	-0.216303	0.173161	0.799837	-0.485259	1.08595	-0.649617	0.881176	0.89669	0.215578	-0.0998108	0.38607	0.794319	-1.11313	0.755236	0.758067	-0.454678	-0.274162	0.217086	0.606935	-0.100686	0.24463	-0.128092	0.973016	-0.446372	0.293994	0.313451	0.695838	0.678462	
6.46973	0	0	-0.455143	0.57654	0.250411	1.36221	-0.2196	0.175315	0.79418	-0.481563	1.07839	-0.644677	0.880594	0.879002	0.208425	-0.095137	0.379324	0.782625	-1.12281	0.759919	0.747222	-0.449233	-0.281408	0.221821	0.604077	-0.108805	0.235342	-0.120386	0.9715	-0.442088	0.289058	0.314471	0.688949	0.688381	
6.46667	0	0	-0.46016	0.581523	0.247913	1.36926	-0.2196	0.175315	0.797008	-0.483411	1.07411	-0.643519	0.880298	0.870179	0.205607	-0.094939	0.374473	0.773297	-1.13248	0.764595	0.742183	-0.44758	-0.291507	0.226769	0.600455	-0.114749	0.231832	-0.11973	0.975352	-0.444605	0.280211	0.31364	0.688949	0.688381	
6.46667	0	0	-0.465177	0.586506	0.245415	1.37632	-0.2196	0.175315	0.799835	-0.485259	1.06982	-0.642361	0.880003	0.861356	0.20279	-0.094741	0.369622	0.763969	-1.14215	0.76927	0.737143	-0.445928	-0.301605	0.231716	0.596832	-0.120693	0.228322	-0.119074	0.979204	-0.447122	0.271365	0.31281	0.688949	0.688381	
6.46362	0	0	-0.470194	0.591488	0.242917	1.38338	-0.2196	0.175315	0.802663	-0.487106	1.06554	-0.641203	0.879707	0.852533	0.199972	-0.094543	0.364772	0.75464	-1.15182	0.773945	0.732104	-0.444275	-0.311703	0.236664	0.593209	-0.126637	0.224812	-0.118418	0.983056	-0.449639	0.262518	0.31198	0.688949	0.688381	
6.46667	0	0	-0.475211	0.596471	0.240419	1.39044	-0.2196	0.175315	0.805491	-0.488954	1.06126	-0.640045	0.879412	0.84371	0.197154	-0.094345	0.359921	0.745312	-1.16148	0.778621	0.727065	-0.442623	-0.321802	0.241612	0.589587	-0.132581	0.221302	-0.117762	0.986908	-0.452156	0.253671	0.311149	0.688949	0.688381	
6.46667	0	0	-0.479441	0.599235	0.240858	1.40102	-0.226944	0.181756	0.804736	-0.48682	1.05799	-0.636267	0.874969	0.846613	0.189254	-0.0875397	0.352614	0.742955	-1.17189	0.785423	0.724169	-0.440731	-0.325418	0.243975	0.588158	-0.13663	0.21704	-0.114977	0.990003	-0.452531	0.254684	0.308284	0.691681	0.690211	
6.4621	0	0	-0.483672	0.602	0.241297	1.41161	-0.234289	0.188196	0.803981	-0.484687	1.05472	-0.632489	0.870526	0.849516	0.181354	-0.0807345	0.345306	0.740599	-1.1823	0.792225	0.721274	-0.438839	-0.329035	0.246338	0.586729	-0.140678	0.212778	-0.112193	0.993098	-0.452906	0.255698	0.30542	0.694412	0.692041	
6.46515	0	0	-0.487902	0.604764	0.241737	1.42219	-0.241634	0.194637	0.803226	-0.482553	1.05144	-0.628711	0.866083	0.852419	0.173454	-0.0739293	0.337998	0.738243	-1.19271	0.799027	0.718379	-0.436947	-0.332651	0.248701	0.585301	-0.144726	0.208517	-0.109408	0.996194	-0.453281	0.256711	0.302555	0.697144	0.69387	
6.46057	0	0	-0.492132	0.607528	0.242176	1.43277	-0.248978	0.201078	0.802471	-0.480419	1.04817	-0.624933	0.86164	0.855322	0.165554	-0.067124	0.330691	0.735886	-1.20312	0.805829	0.715483	-0.435055	-0.336267	0.251064	0.583872	-0.148775	0.204255	-0.106623	0.999289	-0.453656	0.257725	0.29969	0.699875	0.6957	
6.46057	0	0	-0.493223	0.601424	0.237986	1.43279	-0.254806	0.203245	0.799643	-0.478571	1.04138	-0.622135	0.862677	0.852392	0.158416	-0.06246	0.327736	0.728913	-1.21427	0.814758	0.714728	-0.432921	-0.340641	0.255573	0.583108	-0.146616	0.199995	-0.10384	0.997013	-0.447224	0.258738	0.296826	0.700943	0.702237	
6.46057	0	0	-0.494314	0.59532	0.233797	1.43281	-0.260635	0.205411	0.796816	-0.476724	1.03459	-0.619336	0.863714	0.849463	0.151279	-0.057796	0.324782	0.721939	-1.22543	0.823686	0.713973	-0.430787	-0.345016	0.260082	0.582344	-0.144456	0.195736	-0.101056	0.994738	-0.440793	0.259752	0.293963	0.70201	0.708774	
6.45904	0	0	-0.495404	0.589217	0.229607	1.43283	-0.266463	0.207578	0.793988	-0.474876	1.02779	-0.616537	0.86475	0.846534	0.144141	-0.053132	0.321827	0.714966	-1.23658	0.832615	0.713218	-0.428654	-0.34939	0.264591	0.58158	-0.142296	0.191476	-0.0982733	0.992462	-0.434361	0.260765	0.291099	0.703078	0.715312	
6.45599	0	0	-0.496495	0.583113	0.225417	1.43284	-0.272292	0.209745	0.79116	-0.473029	1.021	-0.613739	0.865787	0.843604	0.137003	-0.048468	0.318872	0.707993	-1.24773	0.841543	0.712463	-0.42652	-0.353765	0.2691	0.580816	-0.140137	0.187216	-0.09549	0.990186	-0.427929	0.261779	0.288235	0.704145	0.721849	
6.4621	0	0	-0.49837	0.57923	0.220794	1.42229	-0.273047	0.21188	0.79116	-0.473029	1.02025	-0.611606	0.860016	0.840623	0.137003	-0.048468	0.316986	0.705667	-1.25812	0.848329	0.709568	-0.424629	-0.36099	0.273821	0.574906	-0.139595	0.182958	-0.092708	0.984814	-0.421121	0.253956	0.284548	0.705211	0.728395	
6.45904	0	0	-0.500246	0.575348	0.21617	1.41173	-0.273803	0.214015	0.79116	-0.473029	1.01949	-0.609473	0.854244	0.837642	0.137003	-0.048468	0.315099	0.703342	-1.2685	0.855114	0.706673	-0.422737	-0.368215	0.278542	0.568995	-0.139053	0.178701	-0.089926	0.979442	-0.414312	0.246132	0.28086	0.706278	0.73494	
6.46057	0	0	-0.502121	0.571465	0.211547	1.40118	-0.274558	0.216151	0.79116	-0.473029	1.01874	-0.60734	0.848473	0.834661	0.137003	-0.048468	0.313213	0.701016	-1.27888	0.8619	0.703779	-0.420846	-0.37544	0.283263	0.563085	-0.138512	0.174444	-0.087144	0.974071	-0.407504	0.238309	0.277172	0.707344	0.741486	
6.46057	0	0	-0.503996	0.567583	0.206924	1.39062	-0.275314	0.218286	0.79116	-0.473029	1.01798	-0.605207	0.842702	0.83168	0.137003	-0.048468	0.311327	0.69869	-1.28927	0.868685	0.700884	-0.418955	-0.382665	0.287984	0.557175	-0.13797	0.170186	-0.084362	0.968699	-0.400695	0.230486	0.273485	0.70841	0.748032	
6.45904	0	0	-0.50931	0.564251	0.20942	1.38357	-0.277849	0.218301	0.79116	-0.473029	1.01296	-0.601922	0.845807	0.822906	0.13268	-0.0439997	0.310259	0.694054	-1.29619	0.873204	0.700884	-0.418955	-0.386275	0.290343	0.554222	-0.1377	0.160924	-0.0766722	0.962515	-0.399953	0.222674	0.269801	0.704844	0.748551	
6.45599	0	0	-0.514624	0.560918	0.211916	1.37651	-0.280384	0.218315	0.79116	-0.473029	1.00793	-0.598637	0.848912	0.814132	0.128357	-0.0395315	0.309192	0.689418	-1.3031	0.877723	0.700884	-0.418955	-0.389885	0.292702	0.551269	-0.13743	0.151662	-0.0689825	0.956331	-0.399211	0.214862	0.266118	0.701278	0.74907	
6.45752	0	0	-0.519937	0.557586	0.214412	1.36946	-0.282918	0.21833	0.79116	-0.473029	1.0029	-0.595351	0.852016	0.805357	0.124033	-0.0350633	0.308124	0.684781	-1.31002	0.882242	0.700884	-0.418955	-0.393496	0.295061	0.548317	-0.137159	0.142399	-0.0612928	0.950147	-0.398468	0.20705	0.262434	0.697712	0.749588	
6.45904	0	0	-0.525251	0.554254	0.216908	1.3624	-0.285453	0.218345	0.79116	-0.473029	0.997872	-0.592066	0.855121	0.796583	0.11971	-0.030595	0.307056	0.680145	-1.31693	0.886761	0.700884	-0.418955	-0.397106	0.29742	0.545364	-0.136889	0.133137	-0.053603	0.943963	-0.397726	0.199238	0.25875	0.694146	0.750107	
6.45904	0	0	-0.530254	0.559223	0.225284	1.36235	-0.283674	0.220466	0.790405	-0.470895	0.996114	-0.592557	0.853052	0.802431	0.123277	-0.0329255	0.303535	0.682446	-1.31618	0.884626	0.703779	-0.420846	-0.396346	0.295273	0.54908	-0.139318	0.12964	-0.0529552	0.940873	-0.397356	0.198364	0.248351	0.692249	0.745916	
6.45447	0	0	-0.535256	0.564192	0.233659	1.3623	-0.281895	0.222587	0.78965	-0.468761	0.994356	-0.593048	0.850982	0.80828	0.126843	-0.035256	0.300013	0.684746	-1.31542	0.882492	0.706673	-0.422737	-0.395587	0.293126	0.552797	-0.141746	0.126142	-0.0523075	0.937783	-0.396985	0.197491	0.237952	0.690351	0.741725	
6.45599	0	0	-0.540258	0.569162	0.242035	1.36225	-0.280116	0.224708	0.788894	-0.466626	0.992598	-0.59354	0.848912	0.814129	0.13041	-0.0375865	0.296492	0.687047	-1.31467	0.880358	0.709568	-0.424629	-0.394827	0.290979	0.556513	-0.144175	0.122645	-0.0516598	0.934694	-0.396615	0.196618	0.227554	0.688454	0.737533	
6.45447	0	0	-0.545261	0.574131	0.250411	1.36221	-0.278337	0.226829	0.788139	-0.464492	0.99084	-0.594031	0.846843	0.819977	0.133977	-0.039917	0.292971	0.689348	-1.31391	0.878223	0.712463	-0.42652	-0.394067	0.288832	0.56023	-0.146603	0.119147	-0.051012	0.931604	-0.396245	0.195744	0.217155	0.686556	0.733342	
6.45447	0	0	-0.546349	0.568043	0.246663	1.3728	-0.28416	0.228992	0.786067	-0.464779	0.990085	-0.591898	0.847139	0.828785	0.133977	-0.039917	0.294037	0.693985	-1.31045	0.875964	0.718255	-0.430305	-0.386845	0.284113	0.562318	-0.136343	0.114898	-0.0482358	0.930845	-0.394101	0.185929	0.219185	0.689287	0.735178	
6.45599	0	0	-0.547438	0.561954	0.242916	1.38339	-0.289984	0.231156	0.783996	-0.465066	0.989331	-0.589765	0.847434	0.837593	0.133977	-0.039917	0.295103	0.698623	-1.307	0.873704	0.724047	-0.43409	-0.379623	0.279394	0.564406	-0.126084	0.110649	-0.0454595	0.930087	-0.391956	0.176114	0.221216	0.692018	0.737013	
6.45599	0	0	-0.548526	0.555865	0.239168	1.39398	-0.295808	0.233319	0.781924	-0.465353	0.988576	-0.587631	0.84773	0.846402	0.133977	-0.039917	0.29617	0.703261	-1.30354	0.871445	0.72984	-0.437874	-0.372401	0.274675	0.566494	-0.115824	0.1064	-0.0426832	0.929328	-0.389811	0.166298	0.223247	0.694749	0.738849	
6.45599	0	0	-0.549614	0.549777	0.23542	1.40457	-0.301631	0.235482	0.779852	-0.46564	0.987821	-0.585498	0.848025	0.85521	0.133977	-0.039917	0.297236	0.707898	-1.30008	0.869186	0.735632	-0.441659	-0.365179	0.269956	0.568582	-0.105564	0.102151	-0.039907	0.928569	-0.387667	0.156483	0.225277	0.69748	0.740685	
6.45294	0	0	-0.554917	0.546449	0.225361	1.39758	-0.304163	0.235495	0.774201	-0.461948	0.987821	-0.585498	0.849061	0.852282	0.137545	-0.0422485	0.298302	0.71254	-1.30084	0.871321	0.738529	-0.443553	-0.365179	0.269956	0.565521	-0.0969125	0.0929055	-0.032228	0.923204	-0.380863	0.151581	0.22629	0.690582	0.750627	
6.45141	0	0	-0.56022	0.543122	0.215303	1.39058	-0.306695	0.235508	0.76855	-0.458255	0.987821	-0.585498	0.850097	0.849353	0.141114	-0.04458	0.299368	0.717182	-1.30159	0.873455	0.741427	-0.445446	-0.365179	0.269956	0.56246	-0.088261	0.08366	-0.024549	0.917839	-0.374059	0.14668	0.227302	0.683683	0.760568	
6.44684	0	0	-0.565522	0.539794	0.205244	1.38359	-0.309227	0.235521	0.7629	-0.454562	0.987821	-0.585498	0.851134	0.846425	0.144682	-0.0469115	0.300433	0.721823	-1.30235	0.87559	0.744325	-0.44734	-0.365179	0.269956	0.559398	-0.0796095	0.0744145	-0.01687	0.912475	-0.367255	0.141778	0.228315	0.676785	0.770509	
6.44989	0	0	-0.570825	0.536466	0.195185	1.3766	-0.311759	0.235534	0.757249	-0.45087	0.987821	-0.585498	0.85217	0.843496	0.14825	-0.049243	0.301499	0.726465	-1.3031	0.877725	0.747222	-0.449233	-0.365179	0.269956	0.556337	-0.070958	0.065169	-0.009191	0.90711	-0.360451	0.136876	0.229327	0.669887	0.780451	
6.44531	0	0	-0.567702	0.527639	0.204356	1.36248	-0.311759	0.235534	0.754425	-0.449025	0.992847	-0.588782	0.851134	0.846425	0.15539	-0.053909	0.308797	0.72882	-1.29965	0.875465	0.747222	-0.449233	-0.362325	0.269742	0.556337	-0.070958	0.0574393	-0.005778	0.904024	-0.360084	0.141912	0.215095	0.662767	0.78148	
6.44379	0	0	-0.564579	0.518812	0.213527	1.34836	-0.311759	0.235534	0.7516	-0.44718	0.997874	-0.592067	0.850097	0.849353	0.162531	-0.058575	0.316095	0.731175	-1.29619	0.873205	0.747222	-0.449233	-0.359472	0.269528	0.556337	-0.070958	0.0497095	-0.002365	0.900938	-0.359718	0.146948	0.200863	0.655647	0.782509	
6.44684	0	0	-0.561455	0.509985	0.222699	1.33424	-0.311759	0.235534	0.748776	-0.445334	1.0029	-0.595351	0.849061	0.852282	0.169672	-0.063241	0.323393	0.733531	-1.29273	0.870945	0.747222	-0.449233	-0.356619	0.269314	0.556337	-0.070958	0.0419798	0.001048	0.897852	-0.359351	0.151983	0.186631	0.648526	0.783539	
6.44836	0	0	-0.558332	0.501158	0.23187	1.32012	-0.311759	0.235534	0.745952	-0.443489	1.00793	-0.598635	0.848025	0.85521	0.176812	-0.067907	0.330691	0.735886	-1.28927	0.868685	0.747222	-0.449233	-0.353765	0.2691	0.556337	-0.070958	0.03425	0.004461	0.894766	-0.358984	0.157019	0.172399	0.641406	0.784568	
6.43921	0	0	-0.560203	0.497296	0.236058	1.32009	-0.311759	0.235534	0.745952	-0.443489	1.01296	-0.601921	0.854835	0.855266	0.183959	-0.0725767	0.330937	0.742857	-1.27888	0.8619	0.750121	-0.451127	-0.35015	0.266738	0.56225	-0.0714935	0.03425	0.004461	0.889358	-0.360396	0.154131	0.16773	0.641181	0.775666	
6.44379	0	0	-0.562074	0.493433	0.240246	1.32006	-0.311759	0.235534	0.745952	-0.443489	1.01798	-0.605208	0.861645	0.855321	0.191105	-0.0772465	0.331184	0.749828	-1.2685	0.855114	0.753019	-0.453021	-0.346535	0.264376	0.568163	-0.072029	0.03425	0.004461	0.883949	-0.361808	0.151243	0.16306	0.640955	0.766764	
6.43921	0	0	-0.563945	0.48957	0.244433	1.32003	-0.311759	0.235534	0.745952	-0.443489	1.02301	-0.608494	0.868454	0.855376	0.198252	-0.0819162	0.33143	0.756798	-1.25812	0.848329	0.755918	-0.454915	-0.342921	0.262014	0.574076	-0.0725645	0.03425	0.004461	0.87854	-0.363219	0.148354	0.158391	0.640729	0.757862	
6.43921	0	0	-0.565816	0.485708	0.248621	1.32001	-0.311759	0.235534	0.745952	-0.443489	1.02804	-0.61178	0.875264	0.855432	0.205399	-0.086586	0.331676	0.763769	-1.24773	0.841543	0.758816	-0.456809	-0.339306	0.259652	0.579989	-0.0731	0.03425	0.004461	0.873132	-0.364631	0.145466	0.153722	0.640504	0.74896	
6.43768	0	0	-0.571115	0.482396	0.248621	1.32001	-0.318331	0.239828	0.740307	-0.4398	1.03131	-0.615557	0.874227	0.858363	0.209731	-0.09106	0.333564	0.766104	-1.24005	0.83488	0.756673	-0.457049	-0.331312	0.252778	0.581415	-0.0690365	0.0265285	0.007869	0.871567	-0.368551	0.149485	0.142364	0.641937	0.735374	
6.43768	0	0	-0.576414	0.479084	0.248621	1.32001	-0.324902	0.244121	0.734661	-0.436111	1.03458	-0.619334	0.87319	0.861295	0.214063	-0.095534	0.335451	0.768439	-1.23236	0.828217	0.754529	-0.457288	-0.323319	0.245904	0.58284	-0.064973	0.018807	0.011277	0.870002	-0.37247	0.153504	0.131005	0.643371	0.721788	
6.43921	0	0	-0.581713	0.475772	0.248621	1.32001	-0.331473	0.248415	0.729016	-0.432423	1.03785	-0.623111	0.872152	0.864227	0.218395	-0.100008	0.337339	0.770774	-1.22468	0.821554	0.752385	-0.457528	-0.315325	0.239031	0.584266	-0.0609095	0.0110855	0.014685	0.868437	-0.37639	0.157523	0.119647	0.644805	0.708202	
6.43616	0	0	-0.587012	0.47246	0.248621	1.32001	-0.338045	0.252709	0.723371	-0.428734	1.04113	-0.626888	0.871115	0.867158	0.222727	-0.104482	0.339226	0.773109	-1.21699	0.814891	0.750242	-0.457768	-0.307331	0.232157	0.585692	-0.056846	0.003364	0.018093	0.866872	-0.38031	0.161542	0.108289	0.646238	0.694616	
6.43463	0	0	-0.592156	0.450477	0.244309	1.28501	-0.343856	0.254865	0.705151	-0.420109	1.03861	-0.625244	0.862976	0.861215	0.22706	-0.108957	0.338159	0.768454	-1.21277	0.810492	0.739412	-0.452331	-0.30943	0.230228	0.579777	-0.0563115	-0.00011675	0.0187308	0.862228	-0.38386	0.147863	0.108506	0.64328	0.683924	
6.43158	0	0	-0.597299	0.428493	0.239996	1.25002	-0.349667	0.257021	0.686932	-0.411485	1.03609	-0.623601	0.854837	0.855272	0.231394	-0.113432	0.337093	0.763799	-1.20854	0.806092	0.728582	-0.446895	-0.311529	0.228299	0.573862	-0.055777	-0.0035975	0.0193685	0.857584	-0.387409	0.134184	0.108723	0.640321	0.673231	
6.43463	0	0	-0.602443	0.40651	0.235683	1.21502	-0.355478	0.259177	0.668712	-0.40286	1.03358	-0.621957	0.846699	0.849329	0.235728	-0.117906	0.336026	0.759144	-1.20432	0.801693	0.717753	-0.441459	-0.313628	0.226371	0.567947	-0.0552425	-0.00707825	0.0200062	0.852939	-0.390959	0.120504	0.10894	0.637362	0.662539	
6.43158	0	0	-0.607587	0.384527	0.231371	1.18003	-0.361289	0.261333	0.650492	-0.394235	1.03106	-0.620313	0.83856	0.843386	0.240061	-0.122381	0.334959	0.754489	-1.2001	0.797293	0.706923	-0.436022	-0.315727	0.224442	0.562032	-0.054708	-0.010559	0.020644	0.848295	-0.394509	0.106825	0.109157	0.634404	0.651846	
6.42853	0	0	-0.610871	0.366465	0.234141	1.14865	-0.371129	0.267763	0.636427	-0.385045	1.02603	-0.617027	0.837965	0.825796	0.236484	-0.120044	0.335532	0.745204	-1.19663	0.795027	0.692465	-0.426575	-0.320102	0.228951	0.554701	-0.058237	-0.0147915	0.0234095	0.83831	-0.391274	0.104944	0.101676	0.62541	0.648718	
6.43158	0	0	-0.614156	0.348403	0.23691	1.11728	-0.38097	0.274192	0.622362	-0.375854	1.021	-0.613741	0.837371	0.808205	0.232907	-0.117706	0.336105	0.735919	-1.19316	0.79276	0.678006	-0.417127	-0.324478	0.23346	0.54737	-0.061766	-0.019024	0.026175	0.828326	-0.38804	0.103063	0.094195	0.616416	0.64559	
6.43005	0	0	-0.61744	0.33034	0.23968	1.0859	-0.39081	0.280622	0.608298	-0.366664	1.01597	-0.610454	0.836776	0.790614	0.229329	-0.115369	0.336677	0.726634	-1.18969	0.790493	0.663547	-0.407679	-0.328854	0.237969	0.54004	-0.065295	-0.0232565	0.0289405	0.818341	-0.384806	0.101182	0.086714	0.607423	0.642463	
6.43158	0	0	-0.620724	0.312278	0.24245	1.05453	-0.40065	0.287052	0.594233	-0.357474	1.01094	-0.607168	0.836181	0.773024	0.225752	-0.113032	0.33725	0.717349	-1.18623	0.788227	0.649089	-0.398232	-0.333229	0.242478	0.532709	-0.068824	-0.027489	0.031706	0.808356	-0.381571	0.099301	0.079233	0.598429	0.639335	
6.427	0	0	-0.629745	0.301378	0.233617	1.04422	-0.407204	0.291334	0.582998	-0.350133	1.00592	-0.603884	0.833513	0.761314	0.22142	-0.108558	0.331588	0.710371	-1.18276	0.78596	0.635409	-0.390933	-0.33247	0.240332	0.529866	-0.076936	-0.0359473	0.0372327	0.799142	-0.380482	0.090537	0.078434	0.596301	0.626343	
6.42853	0	0	-0.638767	0.290477	0.224784	1.03392	-0.413758	0.295617	0.571763	-0.342792	1.00089	-0.600599	0.830844	0.749604	0.217089	-0.104084	0.325925	0.703393	-1.17929	0.783693	0.62173	-0.383634	-0.331711	0.238186	0.527022	-0.085048	-0.0444055	0.0427595	0.789929	-0.379393	0.081773	0.077635	0.594173	0.613351	
6.42853	0	0	-0.647788	0.279577	0.215951	1.02362	-0.420311	0.299899	0.560528	-0.33545	0.995866	-0.597315	0.828176	0.737894	0.212757	-0.0996107	0.320263	0.696415	-1.17582	0.781425	0.608051	-0.376336	-0.330951	0.23604	0.524179	-0.09316	-0.0528638	0.0482863	0.780715	-0.378305	0.073009	0.076836	0.592045	0.600359	
6.42853	0	0	-0.656809	0.268677	0.207118	1.01332	-0.426865	0.304182	0.549293	-0.328109	0.99084	-0.594031	0.825508	0.726184	0.208425	-0.095137	0.314601	0.689437	-1.17235	0.779158	0.594371	-0.369037	-0.330192	0.233894	0.521336	-0.101272	-0.061322	0.053813	0.771501	-0.377216	0.064245	0.076037	0.589917	0.587367	
6.42547	0	0	-0.663181	0.259434	0.202946	1.01337	-0.43014	0.306322	0.540876	-0.322609	0.985817	-0.590749	0.822836	0.714502	0.208425	-0.095137	0.310578	0.677855	-1.16963	0.779024	0.578452	-0.355355	-0.338939	0.24291	0.519151	-0.103164	-0.0628288	0.0580717	0.76692	-0.372579	0.0701268	0.072194	0.582831	0.588406	
6.42547	0	0	-0.669552	0.25019	0.198773	1.01342	-0.433415	0.308462	0.53246	-0.317109	0.980793	-0.587466	0.820165	0.702821	0.208425	-0.095137	0.306555	0.666272	-1.16691	0.77889	0.562532	-0.341673	-0.347685	0.251925	0.516965	-0.105056	-0.0643355	0.0623305	0.762339	-0.367943	0.0760085	0.068351	0.575746	0.589446	
6.42547	0	0	-0.675924	0.240947	0.194601	1.01347	-0.43669	0.310602	0.524043	-0.31161	0.975769	-0.584183	0.817494	0.691139	0.208425	-0.095137	0.302532	0.654689	-1.1642	0.778755	0.546613	-0.327992	-0.356432	0.26094	0.51478	-0.106948	-0.0658423	0.0665892	0.757759	-0.363306	0.0818902	0.064508	0.56866	0.590485	
6.42547	0	0	-0.682296	0.231704	0.190429	1.01353	-0.439965	0.312742	0.515626	-0.30611	0.970746	-0.580901	0.814822	0.679457	0.208425	-0.095137	0.298509	0.643107	-1.16148	0.778621	0.530694	-0.31431	-0.365179	0.269956	0.512595	-0.10884	-0.067349	0.070848	0.753178	-0.358669	0.087772	0.060665	0.561574	0.591524	
6.42547	0	0	-0.684489	0.219756	0.18701	0.99973	-0.449783	0.319157	0.503662	-0.296652	0.962461	-0.573848	0.810093	0.67361	0.200522	-0.0883295	0.290156	0.636154	-1.16571	0.783024	0.521305	-0.306534	-0.368791	0.272316	0.505173	-0.10399	-0.067349	0.070848	0.753178	-0.358669	0.0867712	0.0634933	0.565116	0.591005	
6.427	0	0	-0.686681	0.207809	0.183591	0.985935	-0.4596	0.325572	0.491698	-0.287195	0.954177	-0.566794	0.805365	0.667763	0.192618	-0.081522	0.281803	0.629201	-1.16994	0.787427	0.511915	-0.298759	-0.372402	0.274676	0.497751	-0.0991405	-0.067349	0.070848	0.753178	-0.358669	0.0857705	0.0663215	0.568658	0.590485	
6.42547	0	0	-0.688874	0.195861	0.180172	0.97214	-0.469418	0.331987	0.479733	-0.277737	0.945893	-0.559741	0.800636	0.661917	0.184715	-0.0747145	0.273451	0.622249	-1.17416	0.79183	0.502526	-0.290984	-0.376014	0.277036	0.490329	-0.0942908	-0.067349	0.070848	0.753178	-0.358669	0.0847698	0.0691497	0.5722	0.589966	
6.42547	0	0	-0.691067	0.183914	0.176753	0.958345	-0.479236	0.338402	0.467769	-0.268279	0.937608	-0.552688	0.795907	0.65607	0.176812	-0.067907	0.265098	0.615296	-1.17839	0.796233	0.493137	-0.283208	-0.379626	0.279396	0.482907	-0.089441	-0.067349	0.070848	0.753178	-0.358669	0.083769	0.071978	0.575742	0.589447	
6.42395	0	0	-0.691397	0.17578	0.176268	0.947996	-0.482506	0.340539	0.468524	-0.270412	0.93084	-0.549905	0.794259	0.641535	0.170428	-0.0653787	0.26108	0.603765	-1.18533	0.800767	0.485266	-0.279705	-0.386845	0.284113	0.478545	-0.093226	-0.067349	0.070848	0.754691	-0.362944	0.0818885	0.064513	0.574915	0.591783	
6.42395	0	0	-0.691726	0.167646	0.175784	0.937647	-0.485776	0.342676	0.469278	-0.272545	0.924072	-0.547123	0.792612	0.627	0.164044	-0.0628505	0.257062	0.592234	-1.19227	0.8053	0.477395	-0.276203	-0.394064	0.28883	0.474183	-0.097011	-0.067349	0.070848	0.756204	-0.367219	0.080008	0.057048	0.574089	0.594118	
6.42547	0	0	-0.692056	0.159512	0.175299	0.927299	-0.489046	0.344812	0.470033	-0.274679	0.917304	-0.544341	0.790964	0.612465	0.157659	-0.0603222	0.253044	0.580703	-1.1992	0.809834	0.469525	-0.272701	-0.401283	0.293547	0.469822	-0.100796	-0.067349	0.070848	0.757716	-0.371494	0.0781275	0.049583	0.573263	0.596454	
6.4209	0	0	-0.692386	0.151378	0.174815	0.91695	-0.492316	0.346949	0.470788	-0.276812	0.910536	-0.541558	0.789316	0.59793	0.151275	-0.057794	0.249026	0.569172	-1.20614	0.814368	0.461654	-0.269198	-0.408502	0.298264	0.46546	-0.104581	-0.067349	0.070848	0.759229	-0.375769	0.076247	0.042118	0.572436	0.59879	
6.41785	0	0	-0.688213	0.148652	0.180208	0.913426	-0.48653	0.344809	0.470033	-0.274679	0.90803	-0.539921	0.791049	0.583444	0.147707	-0.0554625	0.245007	0.557671	-1.20885	0.814499	0.447297	-0.259817	-0.415715	0.302977	0.457399	-0.105943	-0.071575	0.0736095	0.756162	-0.375408	0.0743657	0.0346648	0.570546	0.594639	
6.41937	0	0	-0.684041	0.145925	0.185602	0.909902	-0.480744	0.34267	0.469278	-0.272545	0.905523	-0.538283	0.792782	0.568959	0.144139	-0.053131	0.240989	0.546169	-1.21157	0.81463	0.432941	-0.250436	-0.422928	0.30769	0.449339	-0.107305	-0.075801	0.076371	0.753096	-0.375047	0.0724845	0.0272115	0.568657	0.590488	
6.41785	0	0	-0.679868	0.143199	0.190995	0.906378	-0.474958	0.340531	0.468524	-0.270412	0.903017	-0.536645	0.794514	0.554474	0.140571	-0.0507995	0.236971	0.534668	-1.21428	0.81476	0.418584	-0.241055	-0.43014	0.312403	0.441279	-0.108667	-0.080027	0.0791325	0.750029	-0.374686	0.0706033	0.0197583	0.566767	0.586337	
6.41785	0	0	-0.675696	0.140472	0.196388	0.902854	-0.469172	0.338391	0.467769	-0.268279	0.900511	-0.535008	0.796247	0.539988	0.137003	-0.048468	0.232952	0.523167	-1.21699	0.814891	0.404227	-0.231674	-0.437353	0.317116	0.433218	-0.110029	-0.084253	0.081894	0.746962	-0.374325	0.068722	0.012305	0.564878	0.582186	
6.41632	0	0	-0.676464	0.142643	0.199331	0.906262	-0.465899	0.336253	0.467769	-0.268279	0.892997	-0.530098	0.793882	0.537088	0.129871	-0.043808	0.230002	0.51628	-1.21277	0.810492	0.396379	-0.228186	-0.440198	0.317325	0.435504	-0.11649	-0.080027	0.0791325	0.750785	-0.376823	0.0697203	0.00948375	0.565704	0.579852	
6.41479	0	0	-0.677232	0.144814	0.202274	0.909669	-0.462627	0.334114	0.467769	-0.268279	0.885482	-0.525188	0.791517	0.534188	0.122739	-0.039148	0.227053	0.509392	-1.20854	0.806092	0.388532	-0.224698	-0.443043	0.317533	0.43779	-0.122951	-0.075801	0.076371	0.754607	-0.379321	0.0707185	0.0066625	0.56653	0.577518	
6.41327	0	0	-0.678	0.146985	0.205217	0.913076	-0.459354	0.331975	0.467769	-0.268279	0.877968	-0.520278	0.789152	0.531288	0.115607	-0.034488	0.224103	0.502505	-1.20432	0.801693	0.380684	-0.22121	-0.445887	0.317742	0.440077	-0.129413	-0.071575	0.0736095	0.75843	-0.381818	0.0717167	0.00384125	0.567356	0.575184	
6.41479	0	0	-0.678768	0.149156	0.20816	0.916484	-0.456082	0.329837	0.467769	-0.268279	0.870454	-0.515368	0.786787	0.528388	0.108475	-0.029828	0.221154	0.495617	-1.2001	0.797293	0.372836	-0.217722	-0.448732	0.31795	0.442363	-0.135874	-0.067349	0.070848	0.762253	-0.384316	0.072715	0.00102	0.568182	0.57285	
6.41174	0	0	-0.677232	0.144815	0.206933	0.919953	-0.456838	0.331972	0.464214	-0.264316	0.866203	-0.51423	0.785445	0.522602	0.105668	-0.0296367	0.220084	0.491032	-1.20086	0.799427	0.367106	-0.213978	-0.448732	0.31795	0.439424	-0.135609	-0.0665955	0.0687185	0.769147	-0.387178	0.0678393	0.00203775	0.57692	0.56714	
6.40716	0	0	-0.675696	0.140473	0.205705	0.923422	-0.457593	0.334108	0.460658	-0.260352	0.861951	-0.513092	0.784103	0.516817	0.10286	-0.0294455	0.219015	0.486448	-1.20161	0.801561	0.361375	-0.210234	-0.448732	0.31795	0.436485	-0.135344	-0.065842	0.066589	0.776042	-0.390041	0.0629635	0.0030555	0.585659	0.56143	
6.41479	0	0	-0.67416	0.136131	0.204478	0.926891	-0.458348	0.336243	0.457103	-0.256389	0.8577	-0.511953	0.782761	0.511031	0.100053	-0.0292542	0.217946	0.481864	-1.20237	0.803695	0.355645	-0.206489	-0.448732	0.31795	0.433546	-0.135078	-0.0650885	0.0644595	0.782936	-0.392904	0.0580878	0.00407325	0.594398	0.555721	
6.41022	0	0	-0.672624	0.13179	0.203251	0.93036	-0.459104	0.338378	0.453548	-0.252426	0.853449	-0.510815	0.781419	0.505245	0.097246	-0.029063	0.216876	0.477279	-1.20312	0.805829	0.349915	-0.202745	-0.448732	0.31795	0.430607	-0.134813	-0.064335	0.06233	0.789831	-0.395766	0.053212	0.005091	0.603136	0.550011	
6.41022	0	0	-0.671088	0.12745	0.199818	0.916617	-0.459104	0.338378	0.447951	-0.248769	0.848446	-0.507546	0.774331	0.496571	0.0957332	-0.0247877	0.215806	0.472699	-1.20583	0.80596	0.341327	-0.197133	-0.452335	0.320304	0.424733	-0.134284	-0.0650885	0.0644595	0.792146	-0.393992	0.0542098	0.0022715	0.599831	0.55935	
6.41174	0	0	-0.669553	0.123111	0.196386	0.902875	-0.459104	0.338378	0.442354	-0.245111	0.843444	-0.504277	0.767243	0.487897	0.0942205	-0.0205125	0.214736	0.468118	-1.20854	0.806091	0.332738	-0.191522	-0.455937	0.322658	0.41886	-0.133755	-0.065842	0.066589	0.794461	-0.392218	0.0552075	-0.000548	0.596526	0.568689	
6.41174	0	0	-0.668018	0.118772	0.192954	0.889132	-0.459104	0.338378	0.436756	-0.241453	0.838441	-0.501008	0.760154	0.479222	0.0927078	-0.0162373	0.213667	0.463538	-1.21126	0.806223	0.32415	-0.18591	-0.459539	0.325012	0.412987	-0.133226	-0.0665955	0.0687185	0.796777	-0.390444	0.0562052	-0.0033675	0.593222	0.578028	
6.41327	0	0	-0.666482	0.114432	0.189521	0.875389	-0.459104	0.338378	0.431159	-0.237796	0.833438	-0.497739	0.753066	0.470548	0.091195	-0.011962	0.212597	0.458958	-1.21397	0.806354	0.315562	-0.180298	-0.463142	0.327366	0.407113	-0.132697	-0.067349	0.070848	0.799092	-0.38867	0.057203	-0.006187	0.589917	0.587367	
6.41174	0	0	-0.665714	0.112263	0.193193	0.865011	-0.452555	0.334099	0.433957	-0.239625	0.830183	-0.493972	0.756123	0.461907	0.091195	-0.011962	0.213406	0.45667	-1.21472	0.808488	0.309086	-0.174427	-0.467503	0.331866	0.407874	-0.134848	-0.063121	0.0680852	0.802922	-0.391172	0.0611902	-0.017456	0.58909	0.589703	
6.41174	0	0	-0.664947	0.110095	0.196865	0.854632	-0.446006	0.32982	0.436756	-0.241453	0.826928	-0.490206	0.759181	0.453266	0.091195	-0.011962	0.214216	0.454382	-1.21548	0.810623	0.302611	-0.168556	-0.471863	0.336365	0.408636	-0.136999	-0.058893	0.0653225	0.806751	-0.393675	0.0651775	-0.028725	0.588264	0.59204	
6.41632	0	0	-0.66418	0.107926	0.200538	0.844253	-0.439458	0.325541	0.439554	-0.243281	0.823673	-0.48644	0.762239	0.444625	0.091195	-0.011962	0.215026	0.452094	-1.21623	0.812757	0.296135	-0.162685	-0.476224	0.340865	0.409397	-0.13915	-0.054665	0.0625597	0.81058	-0.396177	0.0691647	-0.039994	0.587438	0.594377	
6.41327	0	0	-0.663412	0.105757	0.20421	0.833875	-0.432909	0.321262	0.442352	-0.24511	0.820418	-0.482673	0.765296	0.435984	0.091195	-0.011962	0.215835	0.449806	-1.21699	0.814891	0.28966	-0.156814	-0.480585	0.345365	0.410158	-0.141301	-0.050437	0.059797	0.81441	-0.398679	0.073152	-0.051263	0.586611	0.596713	
6.41479	0	0	-0.658132	0.108979	0.216728	0.833675	-0.426355	0.316979	0.447951	-0.248769	0.821172	-0.484806	0.768679	0.435987	0.0947588	-0.0142908	0.223099	0.452098	-1.21352	0.812626	0.29252	-0.158683	-0.480585	0.345365	0.413094	-0.141566	-0.054665	0.0625597	0.816728	-0.396906	0.062413	-0.04641	0.59181	0.591519	
6.41022	0	0	-0.652851	0.112201	0.229245	0.833475	-0.419801	0.312697	0.453551	-0.252427	0.821927	-0.486938	0.772062	0.435991	0.0983225	-0.0166195	0.230363	0.45439	-1.21006	0.81036	0.29538	-0.160551	-0.480585	0.345365	0.41603	-0.14183	-0.058893	0.0653225	0.819045	-0.395132	0.051674	-0.041557	0.597009	0.586326	
6.41327	0	0	-0.647571	0.115423	0.241762	0.833274	-0.413247	0.308415	0.45915	-0.256085	0.822681	-0.489071	0.775445	0.435994	0.101886	-0.0189482	0.237627	0.456681	-1.20659	0.808095	0.298239	-0.162419	-0.480585	0.345365	0.418967	-0.142095	-0.063121	0.0680852	0.821363	-0.393358	0.040935	-0.036704	0.602209	0.581133	
6.41479	0	0	-0.642291	0.118645	0.25428	0.833074	-0.406693	0.304132	0.464749	-0.259744	0.823436	-0.491204	0.778828	0.435997	0.10545	-0.021277	0.244891	0.458973	-1.20312	0.805829	0.301099	-0.164288	-0.480585	0.345365	0.421903	-0.14236	-0.067349	0.070848	0.823681	-0.391585	0.030196	-0.031851	0.607408	0.575939	
6.41174	0	0	-0.645365	0.127332	0.240295	0.860865	-0.403414	0.30199	0.470352	-0.263405	0.827683	-0.492339	0.780497	0.450422	0.109015	-0.0236065	0.24973	0.468145	-1.19618	0.801295	0.312548	-0.171769	-0.473381	0.340658	0.429958	-0.141004	-0.0596445	0.0674515	0.831398	-0.3884	0.0340693	-0.0300527	0.609302	0.580091	
6.41174	0	0	-0.648439	0.13602	0.226309	0.888657	-0.400135	0.299847	0.475955	-0.267066	0.83193	-0.493475	0.782166	0.464848	0.11258	-0.025936	0.25457	0.477318	-1.18924	0.796762	0.323997	-0.17925	-0.466178	0.33595	0.438014	-0.139649	-0.05194	0.064055	0.839116	-0.385216	0.0379425	-0.0282545	0.611196	0.584243	
6.41327	0	0	-0.651513	0.144707	0.212324	0.916448	-0.396857	0.297704	0.481557	-0.270728	0.836177	-0.494611	0.783836	0.479273	0.116145	-0.0282655	0.259409	0.48649	-1.18231	0.792228	0.335446	-0.186731	-0.458974	0.331243	0.446069	-0.138294	-0.0442355	0.0606585	0.846834	-0.382031	0.0418157	-0.0264563	0.61309	0.588396	
6.41174	0	0	-0.654587	0.153394	0.198339	0.94424	-0.393578	0.295562	0.48716	-0.274389	0.840424	-0.495746	0.785505	0.493698	0.11971	-0.030595	0.264248	0.495662	-1.17537	0.787694	0.346895	-0.194212	-0.45177	0.326536	0.454124	-0.136938	-0.036531	0.057262	0.854551	-0.378846	0.045689	-0.024658	0.614984	0.592548	
6.40869	0	0	-0.648535	0.154453	0.199567	0.94077	-0.386261	0.289139	0.493522	-0.280186	0.840424	-0.495746	0.782439	0.502361	0.126845	-0.035257	0.268277	0.507153	-1.17265	0.78756	0.357604	-0.19957	-0.45177	0.326536	0.454016	-0.128584	-0.037285	0.0593925	0.864605	-0.373881	0.0495648	-0.0228588	0.613565	0.606068	
6.41174	0	0	-0.642483	0.155512	0.200795	0.9373	-0.378944	0.282717	0.499883	-0.285983	0.840424	-0.495746	0.779374	0.511024	0.13398	-0.039919	0.272305	0.518644	-1.16994	0.787427	0.368314	-0.204927	-0.45177	0.326536	0.453907	-0.12023	-0.038039	0.061523	0.874659	-0.368915	0.0534405	-0.0210595	0.612146	0.619587	
6.41022	0	0	-0.636431	0.156571	0.202023	0.93383	-0.371627	0.276294	0.506244	-0.29178	0.840424	-0.495746	0.776309	0.519688	0.141115	-0.044581	0.276334	0.530135	-1.16722	0.787293	0.379024	-0.210284	-0.45177	0.326536	0.453798	-0.111876	-0.038793	0.0636535	0.884712	-0.36395	0.0573162	-0.0192602	0.610728	0.633107	
6.41022	0	0	-0.630379	0.15763	0.203251	0.93036	-0.36431	0.269872	0.512606	-0.297577	0.840424	-0.495746	0.773243	0.528351	0.14825	-0.049243	0.280363	0.541626	-1.1645	0.78716	0.389733	-0.215642	-0.45177	0.326536	0.45369	-0.103522	-0.039547	0.065784	0.894766	-0.358984	0.061192	-0.017461	0.609309	0.646627	
6.40869	0	0	-0.627402	0.167397	0.212826	0.926771	-0.355214	0.26557	0.525884	-0.304612	0.848686	-0.502784	0.78136	0.534162	0.15972	-0.058381	0.286278	0.555457	-1.15408	0.78035	0.399096	-0.223401	-0.45177	0.326536	0.464048	-0.108632	-0.0345608	0.060888	0.896333	-0.355058	0.061192	-0.017461	0.606822	0.653656	
6.41022	0	0	-0.624425	0.177164	0.222401	0.923182	-0.346118	0.261268	0.539162	-0.311648	0.856949	-0.509823	0.789477	0.539974	0.171189	-0.067519	0.292192	0.569287	-1.14366	0.77354	0.408459	-0.231159	-0.45177	0.326536	0.474406	-0.113742	-0.0295745	0.055992	0.8979	-0.351133	0.061192	-0.017461	0.604334	0.660686	
6.40564	0	0	-0.621448	0.186931	0.231977	0.919593	-0.337022	0.256966	0.552439	-0.318684	0.865211	-0.516861	0.797593	0.545786	0.182659	-0.076657	0.298107	0.583118	-1.13324	0.766729	0.417823	-0.238918	-0.45177	0.326536	0.484764	-0.118853	-0.0245882	0.051096	0.899467	-0.347207	0.061192	-0.017461	0.601847	0.667715	
6.40259	0	0	-0.618471	0.196698	0.241552	0.916004	-0.327926	0.252664	0.565717	-0.325719	0.873473	-0.523899	0.80571	0.551597	0.194129	-0.085795	0.304022	0.596948	-1.12281	0.759919	0.427186	-0.246676	-0.45177	0.326536	0.495122	-0.123963	-0.019602	0.0462	0.901034	-0.343281	0.061192	-0.017461	0.59936	0.674744	
6.40259	0	0	-0.617039	0.21085	0.24376	0.933265	-0.321352	0.248368	0.579773	-0.334903	0.886	-0.532085	0.814156	0.566131	0.201278	-0.0904667	0.315353	0.610839	-1.1151	0.75324	0.441553	-0.256063	-0.44456	0.321825	0.500254	-0.122341	-0.0230805	0.0468352	0.904121	-0.343647	0.0690593	-0.0269335	0.601019	0.670057	
6.39953	0	0	-0.615608	0.225002	0.245969	0.950527	-0.314778	0.244073	0.593828	-0.344087	0.898528	-0.54027	0.822602	0.580665	0.208428	-0.0951385	0.326684	0.62473	-1.10739	0.74656	0.455919	-0.265451	-0.43735	0.317114	0.505386	-0.120718	-0.026559	0.0474705	0.907208	-0.344014	0.0769265	-0.036406	0.602677	0.665371	
6.39801	0	0	-0.614177	0.239155	0.248177	0.967788	-0.308205	0.239778	0.607884	-0.353272	0.911055	-0.548455	0.831048	0.595198	0.215578	-0.0998103	0.338014	0.638621	-1.09968	0.73988	0.470286	-0.274838	-0.430141	0.312403	0.510518	-0.119095	-0.0300375	0.0481058	0.910295	-0.344381	0.0847938	-0.0458785	0.604336	0.660684	
6.40106	0	0	-0.612745	0.253307	0.250386	0.985049	-0.301631	0.235482	0.621939	-0.362456	0.923582	-0.556641	0.839494	0.609732	0.222727	-0.104482	0.349345	0.652512	-1.09197	0.733201	0.484652	-0.284225	-0.422931	0.307692	0.51565	-0.117473	-0.033516	0.048741	0.913382	-0.344747	0.092661	-0.055351	0.605994	0.655997	
6.40106	0	0	-0.61474	0.26805	0.245932	1.0094	-0.298342	0.233333	0.630383	-0.367974	0.930353	-0.559426	0.843518	0.627214	0.232706	-0.109359	0.357163	0.668764	-1.08153	0.726377	0.499042	-0.293628	-0.418564	0.303189	0.52221	-0.111797	-0.0258032	0.045339	0.91571	-0.342966	0.0857907	-0.0486962	0.610373	0.653136	
6.39801	0	0	-0.616734	0.282793	0.241478	1.03375	-0.295053	0.231184	0.638827	-0.373491	0.937123	-0.56221	0.847542	0.644696	0.242685	-0.114237	0.364982	0.685017	-1.07108	0.719553	0.513433	-0.303032	-0.414197	0.298685	0.52877	-0.106121	-0.0180905	0.041937	0.918039	-0.341185	0.0789205	-0.0420415	0.614753	0.650274	
6.39496	0	0	-0.618729	0.297535	0.237025	1.0581	-0.291764	0.229035	0.647272	-0.379009	0.943893	-0.564995	0.851566	0.662178	0.252665	-0.119114	0.3728	0.701269	-1.06064	0.712729	0.527824	-0.312435	-0.409831	0.294181	0.535329	-0.100445	-0.0103777	0.038535	0.920368	-0.339404	0.0720502	-0.0353868	0.619132	0.647412	
6.40106	0	0	-0.620724	0.312278	0.232571	1.08245	-0.288475	0.226886	0.655716	-0.384527	0.950664	-0.567779	0.85559	0.67966	0.262644	-0.123991	0.380618	0.717522	-1.0502	0.705905	0.542214	-0.321838	-0.405464	0.289678	0.541889	-0.094769	-0.002665	0.035133	0.922696	-0.337623	0.06518	-0.028732	0.623511	0.644551	
6.39801	0	0	-0.617305	0.311726	0.233806	1.07895	-0.285185	0.224736	0.66135	-0.388209	0.958196	-0.572701	0.852803	0.697164	0.269809	-0.128672	0.383832	0.731486	-1.0405	0.701207	0.552989	-0.327238	-0.403374	0.291613	0.543203	-0.082322	-0.00689925	0.0378997	0.924265	-0.333692	0.0700565	-0.0297523	0.621023	0.651582	
6.39496	0	0	-0.613886	0.311173	0.235042	1.07546	-0.281894	0.222586	0.666984	-0.39189	0.965727	-0.577622	0.850016	0.714668	0.276973	-0.133354	0.387046	0.745451	-1.03079	0.69651	0.563763	-0.332638	-0.401285	0.293549	0.544517	-0.069875	-0.0111335	0.0406665	0.925834	-0.32976	0.074933	-0.0307725	0.618535	0.658613	
6.39496	0	0	-0.610467	0.310621	0.236277	1.07197	-0.278604	0.220436	0.672619	-0.395572	0.973259	-0.582543	0.84723	0.732172	0.284138	-0.138036	0.390259	0.759416	-1.02109	0.691812	0.574538	-0.338038	-0.399196	0.295485	0.545832	-0.057428	-0.0153677	0.0434332	0.927403	-0.325828	0.0798095	-0.0317928	0.616047	0.665644	
6.39953	0	0	-0.607048	0.310069	0.237512	1.06848	-0.275314	0.218286	0.678253	-0.399253	0.980791	-0.587465	0.844443	0.749676	0.291303	-0.142717	0.393473	0.77338	-1.01139	0.687114	0.585313	-0.343438	-0.397106	0.29742	0.547146	-0.044981	-0.019602	0.0462	0.928972	-0.321897	0.084686	-0.032813	0.613559	0.672675	
6.39801	0	0	-0.603627	0.309516	0.238747	1.06499	-0.275314	0.218286	0.681072	-0.401095	0.985061	-0.588615	0.851247	0.749717	0.297717	-0.145264	0.399155	0.780398	-1.0079	0.684835	0.591084	-0.347209	-0.397106	0.29742	0.550868	-0.0474128	-0.014614	0.041303	0.928972	-0.321897	0.0788125	-0.028975	0.612729	0.67502	
6.39648	0	0	-0.600207	0.308963	0.239981	1.0615	-0.275314	0.218286	0.68389	-0.402936	0.989332	-0.589765	0.858051	0.749758	0.304131	-0.147811	0.404836	0.787416	-1.00442	0.682555	0.596855	-0.350979	-0.397106	0.29742	0.554589	-0.0498445	-0.009626	0.036406	0.928972	-0.321897	0.072939	-0.025137	0.6119	0.677365	
6.39496	0	0	-0.596786	0.30841	0.241215	1.05802	-0.275314	0.218286	0.686708	-0.404778	0.993602	-0.590916	0.864856	0.7498	0.310545	-0.150359	0.410517	0.794435	-1.00093	0.680276	0.602625	-0.35475	-0.397106	0.29742	0.55831	-0.0522762	-0.004638	0.031509	0.928972	-0.321897	0.0670655	-0.021299	0.611071	0.67971	
6.39191	0	0	-0.593365	0.307857	0.24245	1.05453	-0.275314	0.218286	0.689527	-0.406619	0.997872	-0.592066	0.87166	0.749841	0.316959	-0.152906	0.416199	0.801453	-0.997439	0.677997	0.608396	-0.358521	-0.397106	0.29742	0.562032	-0.054708	0.00035	0.026612	0.928972	-0.321897	0.061192	-0.017461	0.610241	0.682055	
6.39343	0	0	-0.587293	0.308938	0.255006	1.05437	-0.272779	0.218271	0.694411	-0.40817	1.01045	-0.600283	0.878777	0.75867	0.324136	-0.157595	0.420236	0.813149	-0.991214	0.675571	0.61706	-0.364182	-0.386271	0.29034	0.563455	-0.0506417	0.0011035	0.0244823	0.934345	-0.328713	0.0670655	-0.021299	0.615452	0.676847	
6.39343	0	0	-0.581221	0.310019	0.267562	1.05422	-0.270243	0.218257	0.699296	-0.409721	1.02302	-0.608499	0.885895	0.7675	0.331312	-0.162284	0.424272	0.824845	-0.984989	0.673145	0.625723	-0.369843	-0.375436	0.28326	0.564879	-0.0465755	0.001857	0.0223525	0.939718	-0.335529	0.072939	-0.025137	0.620664	0.671639	
6.38885	0	0	-0.575148	0.3111	0.280118	1.05406	-0.267707	0.218242	0.70418	-0.411272	1.0356	-0.616716	0.893012	0.776329	0.338488	-0.166974	0.428309	0.836541	-0.978763	0.670718	0.634386	-0.375504	-0.3646	0.27618	0.566302	-0.0425092	0.0026105	0.0202228	0.945091	-0.342344	0.0788125	-0.028975	0.625875	0.666431	
6.39038	0	0	-0.569076	0.312181	0.292674	1.05391	-0.265172	0.218227	0.709065	-0.412823	1.04817	-0.624933	0.90013	0.785158	0.345665	-0.171663	0.432346	0.848237	-0.972538	0.668292	0.64305	-0.381165	-0.353765	0.2691	0.567726	-0.038443	0.003364	0.018093	0.950464	-0.34916	0.084686	-0.032813	0.631086	0.661223	
6.39038	0	0	-0.572177	0.320945	0.299064	1.07125	-0.261879	0.216076	0.711886	-0.414666	1.05749	-0.629382	0.901769	0.799847	0.352848	-0.176356	0.437209	0.857626	-0.962056	0.661443	0.648075	-0.382808	-0.354525	0.271248	0.572765	-0.028394	0.006847	0.0174545	0.949704	-0.347011	0.082691	-0.027175	0.63381	0.663049	
6.39191	0	0	-0.575278	0.329709	0.305454	1.08859	-0.258586	0.213924	0.714708	-0.41651	1.06681	-0.63383	0.903408	0.814536	0.360031	-0.18105	0.442072	0.867015	-0.951574	0.654594	0.653101	-0.384451	-0.355285	0.273396	0.577803	-0.018345	0.01033	0.016816	0.948943	-0.344862	0.080696	-0.021537	0.636534	0.664875	
6.39038	0	0	-0.578379	0.338474	0.311845	1.10593	-0.255294	0.211773	0.717529	-0.418353	1.07613	-0.638278	0.905047	0.829226	0.367213	-0.185743	0.446935	0.876403	-0.941093	0.647745	0.658126	-0.386093	-0.356045	0.275543	0.582842	-0.008296	0.013813	0.0161775	0.948182	-0.342713	0.078701	-0.015899	0.639258	0.666701	
6.39038	0	0	-0.58148	0.347238	0.318235	1.12327	-0.252001	0.209621	0.72035	-0.420197	1.08545	-0.642727	0.906686	0.843915	0.374396	-0.190436	0.451798	0.885792	-0.930611	0.640896	0.663151	-0.387736	-0.356805	0.277691	0.587881	0.001753	0.017296	0.015539	0.947422	-0.340564	0.076706	-0.010261	0.641982	0.668527	
6.38885	0	0	-0.579929	0.342855	0.316995	1.12677	-0.258585	0.213923	0.72035	-0.420197	1.09124	-0.648155	0.905944	0.855679	0.375152	-0.192574	0.450143	0.890468	-0.923616	0.636325	0.666043	-0.389626	-0.35319	0.275329	0.58919	0.0142653	0.0265287	0.007869	0.949754	-0.338782	0.0913562	-0.0133267	0.646603	0.67453	
6.38733	0	0	-0.578378	0.338472	0.315755	1.13027	-0.265169	0.218225	0.72035	-0.420197	1.09704	-0.653582	0.905203	0.867443	0.375909	-0.194713	0.448489	0.895144	-0.916621	0.631754	0.668934	-0.391515	-0.349575	0.272967	0.590498	0.0267775	0.0357615	0.000199	0.952087	-0.337	0.106007	-0.0163925	0.651225	0.680534	
6.38733	0	0	-0.576827	0.334088	0.314516	1.13378	-0.271753	0.222527	0.72035	-0.420197	1.10283	-0.65901	0.904461	0.879207	0.376665	-0.196851	0.446835	0.899819	-0.909625	0.627184	0.671826	-0.393404	-0.34596	0.270605	0.591806	0.0392897	0.0449942	-0.007471	0.954419	-0.335219	0.120657	-0.0194582	0.655846	0.686538	
6.3858	0	0	-0.575276	0.329705	0.313276	1.13728	-0.278337	0.226829	0.72035	-0.420197	1.10863	-0.664438	0.903719	0.890971	0.377422	-0.198989	0.44518	0.904495	-0.90263	0.622613	0.674718	-0.395294	-0.342345	0.268243	0.593115	0.051802	0.054227	-0.015141	0.956751	-0.333437	0.135307	-0.022524	0.660467	0.692541	
6.38733	0	0	-0.572951	0.323134	0.315755	1.13028	-0.28416	0.228992	0.718284	-0.420488	1.1104	-0.663952	0.904758	0.888035	0.377422	-0.198989	0.44518	0.904495	-0.90263	0.622613	0.672582	-0.395539	-0.341585	0.266095	0.594537	0.055892	0.0584698	-0.0179132	0.95599	-0.331286	0.128422	-0.0158553	0.665092	0.698554	
6.3858	0	0	-0.570626	0.316564	0.318234	1.12327	-0.289984	0.231156	0.716218	-0.420778	1.11216	-0.663466	0.905797	0.885099	0.377422	-0.198989	0.44518	0.904495	-0.90263	0.622613	0.670445	-0.395783	-0.340826	0.263948	0.59596	0.059982	0.0627125	-0.0206855	0.955229	-0.329136	0.121538	-0.0091865	0.669717	0.704568	
6.38733	0	0	-0.568301	0.309994	0.320714	1.11626	-0.295808	0.233319	0.714152	-0.421069	1.11393	-0.66298	0.906836	0.882162	0.377422	-0.198989	0.44518	0.904495	-0.90263	0.622613	0.668308	-0.396028	-0.340066	0.2618	0.597383	0.064072	0.0669552	-0.0234577	0.954468	-0.326985	0.114654	-0.00251775	0.674342	0.710581	
6.3858	0	0	-0.565976	0.303423	0.323193	1.10925	-0.301631	0.235482	0.712086	-0.42136	1.1157	-0.662494	0.907875	0.879226	0.377422	-0.198989	0.44518	0.904495	-0.90263	0.622613	0.666172	-0.396273	-0.339306	0.259652	0.598805	0.068162	0.071198	-0.02623	0.953707	-0.324834	0.107769	0.004151	0.678967	0.716594	
6.3858	0	0	-0.567078	0.297413	0.331108	1.0987	-0.304918	0.23763	0.706446	-0.417675	1.11645	-0.664628	0.90313	0.873304	0.37383	-0.196642	0.444111	0.899802	-0.901875	0.620478	0.660392	-0.392496	-0.339306	0.259652	0.599575	0.065985	0.071198	-0.02623	0.952896	-0.330916	0.114654	-0.00251775	0.675406	0.717112	
6.3858	0	0	-0.56818	0.291404	0.339024	1.08814	-0.308206	0.239779	0.700806	-0.41399	1.11721	-0.666761	0.898386	0.867382	0.370238	-0.194295	0.443042	0.89511	-0.901119	0.618343	0.654611	-0.388719	-0.339306	0.259652	0.600345	0.063808	0.071198	-0.02623	0.952085	-0.336997	0.121538	-0.0091865	0.671845	0.717631	
6.38428	0	0	-0.569282	0.285394	0.346939	1.07759	-0.311493	0.241927	0.695167	-0.410304	1.11796	-0.668894	0.893641	0.861461	0.366646	-0.191948	0.441973	0.890417	-0.900363	0.616207	0.64883	-0.384942	-0.339306	0.259652	0.601116	0.061631	0.071198	-0.02623	0.951275	-0.343079	0.128422	-0.0158552	0.668285	0.718149	
6.38122	0	0	-0.570384	0.279384	0.354854	1.06703	-0.314781	0.244075	0.689527	-0.406619	1.11872	-0.671028	0.888896	0.855539	0.363054	-0.189601	0.440904	0.885724	-0.899608	0.614072	0.64305	-0.381165	-0.339306	0.259652	0.601886	0.059454	0.071198	-0.02623	0.950464	-0.34916	0.135307	-0.022524	0.664724	0.718668	
6.38122	0	0	-0.57226	0.275567	0.359057	1.06698	-0.314781	0.244075	0.683891	-0.402936	1.11872	-0.671028	0.887562	0.849652	0.363054	-0.189601	0.437939	0.878686	-0.899608	0.614072	0.640161	-0.379277	-0.33569	0.257289	0.60485	0.0591908	0.0754428	-0.0290037	0.949652	-0.355234	0.141197	-0.0263725	0.667219	0.711617	
6.3858	0	0	-0.574136	0.271751	0.363259	1.06692	-0.314781	0.244075	0.678255	-0.399254	1.11872	-0.671028	0.886227	0.843765	0.363054	-0.189601	0.434974	0.871647	-0.899608	0.614072	0.637273	-0.377389	-0.332074	0.254927	0.607815	0.0589275	0.0796875	-0.0317775	0.94884	-0.361309	0.147087	-0.030221	0.669714	0.704565	
6.38428	0	0	-0.576012	0.267934	0.367461	1.06687	-0.314781	0.244075	0.672619	-0.395571	1.11872	-0.671028	0.884892	0.837879	0.363054	-0.189601	0.432008	0.864609	-0.899608	0.614072	0.634384	-0.375502	-0.328457	0.252564	0.610779	0.0586643	0.0839322	-0.0345512	0.948028	-0.367383	0.152976	-0.0340695	0.672209	0.697514	
6.38122	0	0	-0.577888	0.264117	0.371664	1.06682	-0.314781	0.244075	0.666983	-0.391888	1.11872	-0.671028	0.883558	0.831992	0.363054	-0.189601	0.429043	0.85757	-0.899608	0.614072	0.631495	-0.373614	-0.324841	0.250201	0.613743	0.058401	0.088177	-0.037325	0.947216	-0.373457	0.158866	-0.037918	0.674704	0.690463	
6.38122	0	0	-0.580867	0.254311	0.369185	1.07382	-0.320597	0.246233	0.652909	-0.382692	1.11544	-0.667247	0.884594	0.829063	0.358707	-0.185116	0.426079	0.850543	-0.896108	0.611785	0.62572	-0.369841	-0.321223	0.247837	0.614396	0.0646725	0.0916705	-0.0379705	0.948735	-0.377749	0.155868	-0.0294463	0.679928	0.685244	
6.37817	0	0	-0.583846	0.244505	0.366707	1.08082	-0.326413	0.248392	0.638835	-0.373496	1.11216	-0.663466	0.88563	0.826135	0.354359	-0.180632	0.423114	0.843516	-0.892609	0.609498	0.619946	-0.366067	-0.317605	0.245473	0.61505	0.070944	0.095164	-0.038616	0.950253	-0.382042	0.152871	-0.0209745	0.685152	0.680024	
6.38122	0	0	-0.586825	0.2347	0.364229	1.08783	-0.332229	0.250551	0.624761	-0.3643	1.10889	-0.659684	0.886667	0.823206	0.350012	-0.176148	0.420149	0.836488	-0.889109	0.607212	0.614171	-0.362294	-0.313987	0.243109	0.615703	0.0772155	0.0986575	-0.0392615	0.951772	-0.386335	0.149873	-0.0125027	0.690376	0.674805	
6.37817	0	0	-0.589804	0.224894	0.36175	1.09483	-0.338045	0.252709	0.610687	-0.355104	1.10561	-0.655903	0.887703	0.820278	0.345665	-0.171663	0.417185	0.829461	-0.88561	0.604925	0.608396	-0.358521	-0.310369	0.240745	0.616356	0.083487	0.102151	-0.039907	0.953291	-0.390627	0.146875	-0.004031	0.6956	0.669585	
6.37512	0	0	-0.59543	0.213489	0.366211	1.0704	-0.345367	0.259135	0.596636	-0.345923	1.10132	-0.654743	0.879557	0.814354	0.339245	-0.169112	0.410434	0.817766	-0.889109	0.607212	0.602625	-0.35475	-0.310369	0.240745	0.61778	0.0875848	0.1064	-0.0426832	0.95405	-0.392772	0.154665	-0.00042775	0.697501	0.673763	
6.37512	0	0	-0.601055	0.202085	0.370672	1.04597	-0.352688	0.265561	0.582585	-0.336742	1.09704	-0.653582	0.871412	0.808431	0.332825	-0.166561	0.403683	0.80607	-0.892609	0.609498	0.596855	-0.350979	-0.310369	0.240745	0.619203	0.0916825	0.110649	-0.0454595	0.954809	-0.394918	0.162456	0.0031755	0.699402	0.677941	
6.37665	0	0	-0.606681	0.190681	0.375133	1.02154	-0.36001	0.271987	0.568534	-0.32756	1.09275	-0.652422	0.863267	0.802507	0.326405	-0.16401	0.396933	0.794374	-0.896108	0.611785	0.591084	-0.347209	-0.310369	0.240745	0.620626	0.0957802	0.114898	-0.0482358	0.955569	-0.397064	0.170246	0.00677875	0.701302	0.682118	
6.37817	0	0	-0.612307	0.179276	0.379594	0.997115	-0.367332	0.278413	0.554483	-0.318379	1.08847	-0.651262	0.855121	0.796583	0.319985	-0.161459	0.390182	0.782679	-0.899608	0.614072	0.585313	-0.343438	-0.310369	0.240745	0.62205	0.099878	0.119147	-0.051012	0.956328	-0.399209	0.178036	0.010382	0.703203	0.686296	
6.37512	0	0	-0.613749	0.165171	0.376128	0.983288	-0.369858	0.278422	0.546818	-0.315011	1.08418	-0.650103	0.853484	0.781939	0.313571	-0.158911	0.384258	0.768698	-0.910098	0.620927	0.577419	-0.339921	-0.310369	0.240745	0.621398	0.0936012	0.119147	-0.051012	0.949388	-0.396323	0.169134	0.0227262	0.702371	0.688647	
6.38275	0	0	-0.61519	0.151065	0.372663	0.969461	-0.372384	0.278431	0.539154	-0.311644	1.0799	-0.648944	0.851846	0.767296	0.307156	-0.156363	0.378335	0.754717	-0.920589	0.627781	0.569525	-0.336403	-0.310369	0.240745	0.620745	0.0873245	0.119147	-0.051012	0.942449	-0.393438	0.160232	0.0350705	0.701539	0.690998	
6.3858	0	0	-0.616632	0.13696	0.369198	0.955633	-0.37491	0.278439	0.531489	-0.308276	1.07562	-0.647785	0.850209	0.752652	0.300742	-0.153816	0.372411	0.740736	-0.93108	0.634636	0.561632	-0.332886	-0.310369	0.240745	0.620092	0.0810478	0.119147	-0.051012	0.935509	-0.390552	0.15133	0.0474147	0.700707	0.693349	
6.3858	0	0	-0.618074	0.122855	0.365732	0.941806	-0.377436	0.278448	0.523825	-0.304908	1.07133	-0.646626	0.848572	0.738008	0.294328	-0.151268	0.366487	0.726755	-0.94157	0.641491	0.553738	-0.329368	-0.310369	0.240745	0.61944	0.074771	0.119147	-0.051012	0.928569	-0.387667	0.142428	0.059759	0.699875	0.6957	
6.38733	0	0	-0.624128	0.121803	0.365732	0.941806	-0.381471	0.282726	0.517462	-0.29911	1.06806	-0.642848	0.852697	0.726349	0.287164	-0.146587	0.363274	0.712828	-0.949312	0.648191	0.544343	-0.321588	-0.30751	0.240528	0.617245	0.072856	0.118393	-0.048882	0.92624	-0.389442	0.147324	0.0587372	0.699637	0.686823	
6.38733	0	0	-0.630182	0.12075	0.365732	0.941806	-0.385507	0.287005	0.511099	-0.293311	1.06479	-0.639069	0.856823	0.714691	0.279999	-0.141905	0.360061	0.698901	-0.957054	0.654891	0.534948	-0.313809	-0.30465	0.24031	0.61505	0.070941	0.11764	-0.046752	0.92391	-0.391217	0.15222	0.0577155	0.699399	0.677945	
6.39496	0	0	-0.636237	0.119697	0.365732	0.941806	-0.389543	0.291283	0.504735	-0.287513	1.06151	-0.63529	0.860948	0.703032	0.272834	-0.137223	0.356847	0.684973	-0.964796	0.661592	0.525553	-0.30603	-0.301791	0.240092	0.612856	0.069026	0.116886	-0.044622	0.921581	-0.392992	0.157115	0.0566938	0.699162	0.669068	
6.39801	0	0	-0.642291	0.118645	0.365732	0.941806	-0.393578	0.295562	0.498372	-0.281714	1.05824	-0.631512	0.865073	0.691373	0.26567	-0.132542	0.353634	0.671046	-0.972538	0.668292	0.516158	-0.29825	-0.298932	0.239875	0.610661	0.067111	0.116132	-0.042492	0.919252	-0.394767	0.162011	0.055672	0.698924	0.66019	
6.39801	0	0	-0.640755	0.114305	0.366231	0.952204	-0.393578	0.295562	0.501176	-0.283546	1.05572	-0.629867	0.862702	0.688445	0.257755	-0.125727	0.347965	0.664086	-0.983007	0.675133	0.506771	-0.290476	-0.298932	0.239875	0.613627	0.0668475	0.116132	-0.042492	0.920768	-0.399053	0.164905	0.0603168	0.697853	0.653672	
6.40106	0	0	-0.63922	0.109964	0.366729	0.962601	-0.393578	0.295562	0.50398	-0.285378	1.05321	-0.628222	0.860332	0.685517	0.24984	-0.118912	0.342297	0.657126	-0.993477	0.681974	0.497385	-0.282702	-0.298932	0.239875	0.616592	0.066584	0.116132	-0.042492	0.922285	-0.403339	0.167798	0.0649615	0.696782	0.647155	
6.40106	0	0	-0.637684	0.105623	0.367227	0.972999	-0.393578	0.295562	0.506783	-0.287211	1.05069	-0.626578	0.857961	0.682588	0.241925	-0.112096	0.336628	0.650167	-1.00395	0.688814	0.487998	-0.274928	-0.298932	0.239875	0.619557	0.0663205	0.116132	-0.042492	0.923801	-0.407626	0.170692	0.0696062	0.695712	0.640637	
6.39953	0	0	-0.636148	0.101283	0.367726	0.983397	-0.393578	0.295562	0.509587	-0.289043	1.04817	-0.624933	0.85559	0.67966	0.23401	-0.105281	0.330959	0.643207	-1.01442	0.695655	0.478611	-0.267154	-0.298932	0.239875	0.622523	0.066057	0.116132	-0.042492	0.925318	-0.411912	0.173586	0.074251	0.694641	0.634119	
6.39648	0	0	-0.634613	0.0969445	0.366491	0.986888	-0.400134	0.299846	0.507538	-0.289345	1.03987	-0.617868	0.852191	0.679644	0.222526	-0.0961335	0.326112	0.633954	-1.02487	0.702488	0.472861	-0.263397	-0.298932	0.239875	0.623294	0.0638792	0.116132	-0.042492	0.928406	-0.412282	0.182391	0.0750395	0.696301	0.629428	
6.39953	0	0	-0.633077	0.092606	0.365256	0.990379	-0.40669	0.30413	0.505489	-0.289646	1.03157	-0.610802	0.848791	0.679628	0.211043	-0.086986	0.321265	0.6247	-1.03533	0.70932	0.467112	-0.25964	-0.298932	0.239875	0.624065	0.0617015	0.116132	-0.042492	0.931495	-0.412653	0.191196	0.075828	0.69796	0.624738	
6.39648	0	0	-0.631542	0.0882675	0.364021	0.993869	-0.413247	0.308414	0.50344	-0.289947	1.02327	-0.603737	0.845392	0.679611	0.19956	-0.0778385	0.316417	0.615447	-1.04578	0.716152	0.461363	-0.255883	-0.298932	0.239875	0.624835	0.0595238	0.116132	-0.042492	0.934584	-0.413023	0.200001	0.0766165	0.69962	0.620048	
6.39648	0	0	-0.630007	0.083929	0.362786	0.99736	-0.419803	0.312698	0.501391	-0.290249	1.01496	-0.596672	0.841993	0.679595	0.188076	-0.068691	0.31157	0.606194	-1.05624	0.722985	0.455613	-0.252126	-0.298932	0.239875	0.625606	0.057346	0.116132	-0.042492	0.937672	-0.413394	0.208806	0.077405	0.70128	0.615357	
