0.693	6.63299	0	0	0.520222	-0.155652	0.482158	1.04416	0.489468	-0.290601	0.571515	0.255977	0.367633	-0.206484	0.374192	0.554649	0.33408	0.262804	1.0274	-0.63724	0.538161	-0.324117	0.79326	-0.488526	0.462682	-0.266388	0.852136	-0.521962	0.021207	0.004106	0.398658	-0.237599	0.27144	0.761324	0.219957	0.614254	
0.689282	6.63299	0	0	0.523786	-0.15633	0.48406	1.03879	0.488712	-0.288463	0.572076	0.247216	0.368387	-0.208615	0.364992	0.556746	0.329956	0.257083	1.01699	-0.630436	0.53512	-0.32213	0.782764	-0.481668	0.459245	-0.264143	0.846346	-0.518179	0.0282307	-0.0004835	0.397905	-0.235471	0.275501	0.782922	0.218401	0.618651	
0.687087	6.62689	0	0	0.527351	-0.157008	0.485962	1.03341	0.487955	-0.286326	0.572636	0.238455	0.369141	-0.210747	0.355791	0.558844	0.325832	0.251363	1.00658	-0.623632	0.53208	-0.320144	0.772269	-0.47481	0.455809	-0.261897	0.840556	-0.514396	0.0352545	-0.005073	0.397152	-0.233343	0.279561	0.80452	0.216845	0.623048	
0.68618	6.62689	0	0	0.530915	-0.157685	0.487864	1.02804	0.487199	-0.284189	0.573197	0.229695	0.369895	-0.212878	0.346591	0.560941	0.321709	0.245642	0.996164	-0.616828	0.529039	-0.318157	0.761773	-0.467952	0.452373	-0.259652	0.834765	-0.510612	0.0422783	-0.0096625	0.396399	-0.231214	0.283621	0.826117	0.215289	0.627445	
0.686323	6.62994	0	0	0.534479	-0.158363	0.489766	1.02266	0.486443	-0.282051	0.573758	0.220934	0.370649	-0.215009	0.33739	0.563038	0.317585	0.239922	0.985751	-0.610024	0.525999	-0.316171	0.751277	-0.461094	0.448936	-0.257406	0.828975	-0.506829	0.049302	-0.014252	0.395646	-0.229086	0.287682	0.847715	0.213733	0.631842	
0.687282	6.62994	0	0	0.536525	-0.154744	0.492904	1.02268	0.493732	-0.28517	0.570457	0.223091	0.369895	-0.212878	0.335527	0.560344	0.313464	0.23421	0.972753	-0.60153	0.516884	-0.310215	0.738175	-0.452533	0.445501	-0.255161	0.820297	-0.501158	0.0485503	-0.012127	0.391393	-0.224671	0.288542	0.845285	0.209107	0.628105	
0.688821	6.62536	0	0	0.53857	-0.151125	0.496042	1.02269	0.501022	-0.28829	0.567155	0.225248	0.369141	-0.210747	0.333663	0.55765	0.309343	0.228498	0.959754	-0.593037	0.507769	-0.30426	0.725073	-0.443972	0.442066	-0.252916	0.811619	-0.495488	0.0477985	-0.010002	0.38714	-0.220255	0.289402	0.842855	0.204481	0.624369	
0.690704	6.62231	0	0	0.540615	-0.147507	0.49918	1.02271	0.508311	-0.291409	0.563854	0.227406	0.368387	-0.208615	0.3318	0.554955	0.305222	0.222786	0.946755	-0.584543	0.498655	-0.298304	0.711972	-0.435411	0.43863	-0.250672	0.802941	-0.489818	0.0470467	-0.007877	0.382888	-0.21584	0.290262	0.840424	0.199856	0.620633	
0.692695	6.63299	0	0	0.542661	-0.143888	0.502318	1.02272	0.5156	-0.294529	0.560552	0.229563	0.367633	-0.206484	0.329936	0.552261	0.301101	0.217074	0.933757	-0.57605	0.48954	-0.292348	0.69887	-0.42685	0.435195	-0.248427	0.794263	-0.484147	0.046295	-0.005752	0.378635	-0.211425	0.291122	0.837994	0.19523	0.616896	
0.694559	6.62689	0	0	0.545468	-0.142417	0.505744	1.03082	0.518869	-0.295021	0.563081	0.229589	0.372806	-0.209865	0.3327	0.552411	0.295438	0.215736	0.922618	-0.567131	0.485749	-0.288231	0.687649	-0.417879	0.431002	-0.244037	0.788482	-0.48037	0.046295	-0.005752	0.37164	-0.206854	0.286905	0.838882	0.191384	0.610969	
0.696059	6.61926	0	0	0.548275	-0.140945	0.509169	1.03892	0.522137	-0.295513	0.565611	0.229614	0.37798	-0.213245	0.335464	0.552561	0.289775	0.214399	0.911478	-0.558213	0.481958	-0.284114	0.676427	-0.408908	0.426809	-0.239648	0.782702	-0.476593	0.046295	-0.005752	0.364645	-0.202284	0.282687	0.839769	0.187539	0.605042	
0.696961	6.62231	0	0	0.551082	-0.139474	0.512595	1.04702	0.525406	-0.296005	0.56814	0.229639	0.383153	-0.216625	0.338228	0.55271	0.284112	0.213061	0.900339	-0.549295	0.478168	-0.279998	0.665206	-0.399937	0.422616	-0.235258	0.776922	-0.472816	0.046295	-0.005752	0.357649	-0.197713	0.27847	0.840656	0.183694	0.599114	
0.697084	6.62231	0	0	0.553889	-0.138002	0.51602	1.05512	0.528675	-0.296497	0.570669	0.229665	0.388327	-0.220006	0.340992	0.55286	0.278449	0.211724	0.8892	-0.540376	0.474377	-0.275881	0.653985	-0.390966	0.418423	-0.230868	0.771141	-0.469039	0.046295	-0.005752	0.350654	-0.193142	0.274253	0.841544	0.179848	0.593187	
0.696534	6.62079	0	0	0.54091	-0.129521	0.503747	1.06314	0.523893	-0.291728	0.563856	0.227407	0.387573	-0.217874	0.330963	0.565284	0.273564	0.208205	0.878828	-0.533599	0.468308	-0.271915	0.648756	-0.387549	0.41499	-0.228625	0.765365	-0.465264	0.0490568	-0.0059225	0.349901	-0.191013	0.28183	0.842198	0.173678	0.593846	
0.695508	6.61621	0	0	0.527931	-0.121041	0.491475	1.07116	0.519111	-0.286959	0.557044	0.225148	0.386818	-0.215743	0.320934	0.577708	0.268678	0.204685	0.868456	-0.526822	0.462239	-0.26795	0.643528	-0.384133	0.411558	-0.226382	0.759588	-0.461489	0.0518185	-0.006093	0.349147	-0.188884	0.289407	0.842853	0.167507	0.594505	
0.694202	6.61774	0	0	0.514953	-0.11256	0.479202	1.07918	0.514328	-0.282189	0.550231	0.222889	0.386064	-0.213611	0.310905	0.590131	0.263792	0.201166	0.858084	-0.520044	0.45617	-0.263985	0.638299	-0.380717	0.408126	-0.22414	0.753811	-0.457715	0.0545802	-0.0062635	0.348394	-0.186755	0.296984	0.843507	0.161336	0.595164	
0.692812	6.61621	0	0	0.501974	-0.104079	0.466929	1.0872	0.509546	-0.27742	0.543418	0.220631	0.38531	-0.211479	0.300876	0.602555	0.258907	0.197647	0.847712	-0.513267	0.450101	-0.260019	0.63307	-0.3773	0.404693	-0.221897	0.748035	-0.45394	0.057342	-0.006434	0.347641	-0.184626	0.304561	0.844162	0.155166	0.595823	
0.691533	6.61468	0	0	0.496375	-0.10703	0.458203	1.07637	0.505522	-0.274791	0.54145	0.211864	0.380136	-0.208099	0.298057	0.594615	0.251587	0.192375	0.834765	-0.504807	0.441005	-0.254076	0.622622	-0.370473	0.390977	-0.212935	0.736494	-0.446399	0.0530757	-0.00201175	0.340651	-0.180059	0.301979	0.851459	0.150553	0.592097	
0.690456	6.60858	0	0	0.490775	-0.109981	0.449477	1.06554	0.501499	-0.272162	0.539483	0.203097	0.374963	-0.204718	0.295239	0.586675	0.244267	0.187103	0.821817	-0.496347	0.43191	-0.248133	0.612175	-0.363646	0.377261	-0.203973	0.724952	-0.438858	0.0488095	0.0024105	0.333662	-0.175492	0.299397	0.858756	0.145939	0.58837	
0.689532	6.61316	0	0	0.485175	-0.112932	0.44075	1.0547	0.497475	-0.269533	0.537516	0.194331	0.369789	-0.201338	0.292421	0.578735	0.236947	0.181832	0.80887	-0.487886	0.422814	-0.242189	0.601727	-0.356819	0.363545	-0.19501	0.71341	-0.431316	0.0445432	0.00683275	0.326672	-0.170925	0.296815	0.866054	0.141325	0.584643	
0.688703	6.61468	0	0	0.479576	-0.115883	0.432024	1.04387	0.493451	-0.266904	0.535548	0.185564	0.364616	-0.197958	0.289602	0.570795	0.229627	0.17656	0.795922	-0.479426	0.413719	-0.236246	0.591279	-0.349992	0.349829	-0.186048	0.701869	-0.423775	0.040277	0.011255	0.319683	-0.166358	0.294233	0.873351	0.136712	0.580917	
0.68791	6.61163	0	0	0.481096	-0.120178	0.433924	1.0385	0.489429	-0.264276	0.537089	0.18121	0.362785	-0.1984	0.290502	0.568253	0.220778	0.175648	0.790749	-0.476046	0.407661	-0.232288	0.58606	-0.346582	0.342979	-0.181572	0.695347	-0.417869	0.0375168	0.011424	0.31619	-0.164076	0.290098	0.86297	0.134425	0.57063	
0.687095	6.61011	0	0	0.482616	-0.124474	0.435823	1.03313	0.485407	-0.261648	0.53863	0.176855	0.360953	-0.198842	0.291401	0.56571	0.211928	0.174735	0.785575	-0.472665	0.401602	-0.228329	0.58084	-0.343172	0.336129	-0.177096	0.688825	-0.411963	0.0347565	0.011593	0.312698	-0.161794	0.285962	0.85259	0.132138	0.560343	
0.686219	6.61163	0	0	0.484136	-0.128769	0.437723	1.02777	0.481386	-0.25902	0.54017	0.172501	0.359121	-0.199284	0.292301	0.563168	0.203078	0.173822	0.780402	-0.469284	0.395544	-0.224371	0.575621	-0.339761	0.32928	-0.172621	0.682303	-0.406056	0.0319963	0.011762	0.309206	-0.159511	0.281827	0.842209	0.129852	0.550057	
0.685354	6.61468	0	0	0.485656	-0.133065	0.439622	1.0224	0.477364	-0.256392	0.541711	0.168147	0.35729	-0.199726	0.293201	0.560625	0.194229	0.17291	0.775229	-0.465904	0.389486	-0.220412	0.570402	-0.336351	0.32243	-0.168145	0.675781	-0.40015	0.029236	0.011931	0.305713	-0.157229	0.277691	0.831828	0.127565	0.53977	
0.684607	6.61163	0	0	0.480578	-0.128096	0.438001	1.03585	0.473344	-0.253765	0.545223	0.172549	0.35729	-0.199726	0.29512	0.571107	0.194229	0.17291	0.775229	-0.465904	0.385704	-0.216301	0.572257	-0.335924	0.317488	-0.161615	0.675024	-0.39801	0.0249725	0.0163515	0.304959	-0.1551	0.280268	0.824545	0.126034	0.535727	
0.684088	6.60705	0	0	0.475501	-0.123128	0.43638	1.04929	0.469324	-0.251138	0.548735	0.176951	0.35729	-0.199726	0.297038	0.58159	0.194229	0.17291	0.775229	-0.465904	0.381922	-0.212189	0.574111	-0.335496	0.312546	-0.155085	0.674266	-0.39587	0.020709	0.020772	0.304206	-0.15297	0.282845	0.817261	0.124503	0.531685	
0.683907	6.61468	0	0	0.470423	-0.118159	0.434759	1.06274	0.465304	-0.248512	0.552247	0.181353	0.35729	-0.199726	0.298957	0.592073	0.194229	0.17291	0.775229	-0.465904	0.378139	-0.208077	0.575966	-0.335069	0.307604	-0.148555	0.673509	-0.39373	0.0164455	0.0251925	0.303453	-0.150841	0.285422	0.809978	0.122972	0.527643	
0.684167	6.61621	0	0	0.465346	-0.11319	0.433138	1.07619	0.461284	-0.245885	0.555759	0.185755	0.35729	-0.199726	0.300876	0.602555	0.194229	0.17291	0.775229	-0.465904	0.374357	-0.203966	0.577821	-0.334642	0.302662	-0.142025	0.672752	-0.39159	0.012182	0.029613	0.302699	-0.148711	0.287999	0.802694	0.121441	0.5236	
0.684831	6.60858	0	0	0.46255	-0.114665	0.427552	1.06539	0.457266	-0.243259	0.554773	0.181376	0.348784	-0.192529	0.29727	0.612747	0.193459	0.175086	0.775229	-0.465904	0.374357	-0.203966	0.585653	-0.33976	0.303422	-0.144172	0.679274	-0.397497	0.019958	0.0228975	0.310439	-0.155406	0.291358	0.804231	0.122214	0.521415	
0.685679	6.61011	0	0	0.459754	-0.11614	0.421966	1.05459	0.453248	-0.240634	0.553787	0.176997	0.340278	-0.185332	0.293663	0.622938	0.192689	0.177262	0.775229	-0.465904	0.374357	-0.203966	0.593485	-0.344878	0.304181	-0.146319	0.685797	-0.403404	0.027734	0.016182	0.318179	-0.162101	0.294717	0.805769	0.122987	0.519229	
0.686481	6.61774	0	0	0.456959	-0.117615	0.41638	1.04379	0.44923	-0.238009	0.552802	0.172618	0.331771	-0.178135	0.290057	0.63313	0.191918	0.179439	0.775229	-0.465904	0.374357	-0.203966	0.601318	-0.349995	0.304941	-0.148466	0.692319	-0.40931	0.03551	0.0094665	0.325919	-0.168795	0.298077	0.807307	0.123761	0.517043	
0.687007	6.61926	0	0	0.454163	-0.11909	0.410794	1.03298	0.445212	-0.235383	0.551816	0.168239	0.323265	-0.170938	0.286451	0.643322	0.191148	0.181615	0.775229	-0.465904	0.374357	-0.203966	0.60915	-0.355113	0.305701	-0.150613	0.698841	-0.415217	0.043286	0.002751	0.333659	-0.17549	0.301436	0.808844	0.124534	0.514858	
0.687027	6.61316	0	0	0.454923	-0.121236	0.41364	1.02494	0.441196	-0.232759	0.555884	0.163907	0.321437	-0.171382	0.285549	0.645872	0.190378	0.183792	0.780402	-0.469284	0.375112	-0.206099	0.613271	-0.361084	0.30722	-0.154906	0.699598	-0.417357	0.0362622	0.00734025	0.334413	-0.177619	0.298077	0.807307	0.120699	0.50897	
0.686376	6.61316	0	0	0.455682	-0.123383	0.416486	1.0169	0.43718	-0.230135	0.559952	0.159575	0.319609	-0.171826	0.284647	0.648421	0.189608	0.185969	0.785575	-0.472665	0.375866	-0.208232	0.617392	-0.367055	0.308739	-0.159198	0.700355	-0.419496	0.0292385	0.0119295	0.335166	-0.179748	0.294717	0.805769	0.116864	0.503081	
0.685217	6.61468	0	0	0.456442	-0.12553	0.419333	1.00885	0.433164	-0.22751	0.56402	0.155244	0.31778	-0.172271	0.283744	0.650971	0.188837	0.188146	0.790749	-0.476046	0.376621	-0.210366	0.621513	-0.373025	0.310257	-0.16349	0.701112	-0.421635	0.0222147	0.0165187	0.335919	-0.181877	0.291358	0.804231	0.113029	0.497193	
0.683816	6.61774	0	0	0.457201	-0.127676	0.422179	1.00081	0.429148	-0.224886	0.568088	0.150912	0.315952	-0.172715	0.282842	0.653521	0.188067	0.190323	0.795922	-0.479426	0.377376	-0.212499	0.625634	-0.378996	0.311776	-0.167783	0.701869	-0.423775	0.015191	0.021108	0.336673	-0.184006	0.287999	0.802694	0.109194	0.491305	
0.682442	6.61316	0	0	0.465834	-0.133317	0.42654	1.0062	0.433164	-0.22751	0.569076	0.155288	0.315952	-0.172715	0.28932	0.659098	0.190622	0.20038	0.806279	-0.486193	0.383432	-0.216456	0.630107	-0.38028	0.311017	-0.165637	0.703996	-0.42352	0.01795	0.02094	0.338662	-0.182031	0.287216	0.793884	0.11151	0.48476	
0.681361	6.61316	0	0	0.474467	-0.138958	0.430901	1.0116	0.43718	-0.230135	0.570063	0.159665	0.315952	-0.172715	0.295798	0.664675	0.193178	0.210436	0.816635	-0.49296	0.389488	-0.220413	0.63458	-0.381564	0.310257	-0.163491	0.706122	-0.423265	0.020709	0.020772	0.34065	-0.180057	0.286432	0.785073	0.113825	0.478215	
0.680834	6.61926	0	0	0.4831	-0.144598	0.435261	1.017	0.441196	-0.232759	0.571051	0.164042	0.315952	-0.172715	0.302276	0.670252	0.195733	0.220493	0.826991	-0.499727	0.395544	-0.224371	0.639053	-0.382848	0.309498	-0.161345	0.708249	-0.42301	0.023468	0.020604	0.342639	-0.178082	0.285649	0.776263	0.116141	0.47167	
0.680935	6.61621	0	0	0.491733	-0.150239	0.439622	1.0224	0.445212	-0.235383	0.572038	0.168418	0.315952	-0.172715	0.308754	0.675829	0.198288	0.23055	0.837348	-0.506494	0.4016	-0.228328	0.643526	-0.384132	0.308739	-0.159199	0.710376	-0.422755	0.026227	0.020436	0.344627	-0.176107	0.284866	0.767453	0.118457	0.465125	
0.681537	6.61163	0	0	0.493773	-0.146621	0.438001	1.03585	0.44923	-0.238009	0.571267	0.170597	0.312616	-0.168897	0.312473	0.681256	0.201614	0.238444	0.847717	-0.513269	0.40766	-0.232288	0.651373	-0.389259	0.315586	-0.163673	0.719034	-0.428412	0.0297395	0.0181408	0.348877	-0.180522	0.296732	0.755974	0.116925	0.461098	
0.682505	6.61163	0	0	0.495814	-0.143002	0.43638	1.04929	0.453248	-0.240634	0.570496	0.172775	0.309281	-0.165078	0.316193	0.686684	0.20494	0.246337	0.858086	-0.520045	0.413721	-0.236248	0.659219	-0.394386	0.322433	-0.168147	0.727691	-0.434069	0.033252	0.0158455	0.353128	-0.184936	0.308597	0.744496	0.115392	0.457071	
0.683701	6.61468	0	0	0.497854	-0.139383	0.434759	1.06274	0.457266	-0.243259	0.569726	0.174954	0.305945	-0.16126	0.319912	0.692111	0.208266	0.254231	0.868454	-0.52682	0.419782	-0.240208	0.667065	-0.399513	0.32928	-0.172621	0.736349	-0.439726	0.0367645	0.0135502	0.357378	-0.189351	0.320462	0.733018	0.11386	0.453045	
0.68499	6.61011	0	0	0.499895	-0.135765	0.433138	1.07619	0.461284	-0.245885	0.568955	0.177132	0.302609	-0.157441	0.323632	0.697538	0.211592	0.262125	0.878823	-0.533595	0.425842	-0.244168	0.674912	-0.40464	0.336127	-0.177095	0.745007	-0.445383	0.040277	0.011255	0.361628	-0.193765	0.332328	0.721539	0.112327	0.449018	
0.686243	6.60095	0	0	0.496335	-0.13509	0.434759	1.06274	0.456509	-0.24112	0.569508	0.168401	0.293044	-0.15283	0.316246	0.694506	0.214802	0.261707	0.878823	-0.533595	0.428874	-0.246149	0.674912	-0.40464	0.336127	-0.177095	0.747895	-0.44727	0.043791	0.00895875	0.364373	-0.193921	0.342491	0.714898	0.113098	0.446839	
0.687365	6.60553	0	0	0.492775	-0.134415	0.43638	1.04929	0.451735	-0.236355	0.570061	0.15967	0.283479	-0.148219	0.308861	0.691474	0.218011	0.261289	0.878823	-0.533595	0.431905	-0.24813	0.674912	-0.40464	0.336127	-0.177095	0.750782	-0.449157	0.047305	0.0066625	0.367117	-0.194078	0.352654	0.708257	0.113869	0.44466	
0.688269	6.61011	0	0	0.489216	-0.13374	0.438001	1.03585	0.44696	-0.231591	0.570615	0.150938	0.273915	-0.143608	0.301476	0.688442	0.221221	0.260871	0.878823	-0.533595	0.434937	-0.250111	0.674912	-0.40464	0.336127	-0.177095	0.75367	-0.451044	0.050819	0.00436625	0.369862	-0.194234	0.362816	0.701617	0.11464	0.442481	
0.688869	6.60553	0	0	0.485656	-0.133065	0.439622	1.0224	0.442185	-0.226826	0.571168	0.142207	0.26435	-0.138997	0.29409	0.68541	0.224431	0.260453	0.878823	-0.533595	0.437969	-0.252092	0.674912	-0.40464	0.336127	-0.177095	0.756558	-0.452931	0.054333	0.00207	0.372607	-0.19439	0.372979	0.694976	0.115411	0.440302	
0.689076	6.59942	0	0	0.487175	-0.137358	0.442183	1.0063	0.442942	-0.228965	0.573256	0.129142	0.259195	-0.135629	0.290323	0.672183	0.225976	0.256085	0.87623	-0.5319	0.437969	-0.252092	0.667065	-0.399513	0.332703	-0.174857	0.747897	-0.447272	0.0515712	0.00224025	0.37336	-0.19652	0.374745	0.678941	0.116188	0.429752	
0.68881	6.60095	0	0	0.488694	-0.141652	0.444743	0.9902	0.443698	-0.231104	0.575343	0.116078	0.254041	-0.132261	0.286556	0.658956	0.227522	0.251717	0.873637	-0.530206	0.437969	-0.252092	0.659219	-0.394386	0.329279	-0.17262	0.739237	-0.441613	0.0488095	0.0024105	0.374114	-0.198649	0.376511	0.662906	0.116965	0.419202	
0.68814	6.61011	0	0	0.490214	-0.145946	0.447303	0.974101	0.444455	-0.233244	0.57743	0.103013	0.248886	-0.128892	0.282789	0.645728	0.229068	0.247348	0.871043	-0.528512	0.437969	-0.252092	0.651373	-0.389259	0.325854	-0.170382	0.730576	-0.435954	0.0460477	0.00258075	0.374868	-0.200778	0.378278	0.646871	0.117742	0.408651	
0.68729	6.60095	0	0	0.491733	-0.150239	0.449864	0.958002	0.445212	-0.235383	0.579518	0.089948	0.243731	-0.125524	0.279022	0.632501	0.230613	0.24298	0.86845	-0.526817	0.437969	-0.252092	0.643526	-0.384132	0.32243	-0.168145	0.721916	-0.430295	0.043286	0.002751	0.375621	-0.202908	0.380044	0.630836	0.118519	0.398101	
0.686495	6.59942	0	0	0.491733	-0.150239	0.448916	0.96068	0.445212	-0.235383	0.575232	0.0877405	0.23343	-0.118793	0.277109	0.622008	0.228948	0.239034	0.860675	-0.521736	0.434183	-0.247978	0.634932	-0.376877	0.318248	-0.163762	0.719031	-0.42841	0.043286	0.002751	0.372876	-0.202752	0.375868	0.62057	0.120828	0.383225	
0.685986	6.59485	0	0	0.491733	-0.150239	0.447968	0.963358	0.445212	-0.235383	0.570945	0.085533	0.22313	-0.112063	0.275196	0.611514	0.227282	0.235089	0.852899	-0.516655	0.430396	-0.243864	0.626338	-0.369622	0.314065	-0.159379	0.716146	-0.426525	0.043286	0.002751	0.370132	-0.202595	0.371692	0.610305	0.123137	0.368349	
0.685997	6.59942	0	0	0.491733	-0.150239	0.447021	0.966036	0.445212	-0.235383	0.566658	0.0833255	0.21283	-0.105332	0.273284	0.601021	0.225616	0.231143	0.845124	-0.511575	0.426609	-0.239749	0.617744	-0.362368	0.309883	-0.154996	0.713261	-0.42464	0.043286	0.002751	0.367387	-0.202438	0.367515	0.600039	0.125446	0.353473	
0.68668	6.59637	0	0	0.491733	-0.150239	0.446073	0.968714	0.445212	-0.235383	0.562372	0.081118	0.202529	-0.098602	0.271371	0.590528	0.223951	0.227197	0.837348	-0.506494	0.422823	-0.235635	0.60915	-0.355113	0.305701	-0.150613	0.710376	-0.422755	0.043286	0.002751	0.364642	-0.202282	0.363339	0.589773	0.127755	0.338597	
0.687854	6.59485	0	0	0.484618	-0.14889	0.433565	0.968655	0.441196	-0.232759	0.556332	0.0767252	0.192241	-0.0918797	0.267658	0.585137	0.221391	0.217138	0.824404	-0.498036	0.419792	-0.233655	0.5961	-0.346586	0.30152	-0.14623	0.703852	-0.416847	0.0503155	-0.00184225	0.367387	-0.202438	0.376871	0.584641	0.131599	0.336085	
0.689251	6.5979	0	0	0.477504	-0.147541	0.421056	0.968596	0.43718	-0.230135	0.550293	0.0723325	0.181953	-0.0851575	0.263945	0.579746	0.218832	0.207078	0.811461	-0.489579	0.416762	-0.231675	0.58305	-0.338059	0.297339	-0.141848	0.697328	-0.410939	0.057345	-0.0064355	0.370132	-0.202595	0.390404	0.579509	0.135442	0.333574	
0.690607	6.59942	0	0	0.47039	-0.146191	0.408547	0.968537	0.433164	-0.22751	0.544253	0.0679398	0.171666	-0.0784352	0.260231	0.574354	0.216272	0.197018	0.798517	-0.481121	0.413731	-0.229694	0.570001	-0.329532	0.293157	-0.137465	0.690804	-0.405031	0.0643745	-0.0110288	0.372876	-0.202752	0.403936	0.574377	0.139286	0.331062	
0.691655	6.59637	0	0	0.463275	-0.144842	0.396039	0.968478	0.429148	-0.224886	0.538213	0.063547	0.161378	-0.071713	0.256518	0.568963	0.213712	0.186959	0.785574	-0.472664	0.4107	-0.227714	0.556951	-0.321005	0.288976	-0.133082	0.68428	-0.399123	0.071404	-0.015622	0.375621	-0.202908	0.417468	0.569245	0.143129	0.328551	
0.692134	6.59332	0	0	0.46048	-0.146313	0.395466	0.952417	0.429148	-0.224886	0.535467	0.0570118	0.151856	-0.0671298	0.249933	0.547921	0.200774	0.180358	0.764905	-0.459158	0.398588	-0.2198	0.541317	-0.310789	0.276064	-0.126295	0.66988	-0.389713	0.0741685	-0.015794	0.378367	-0.203065	0.418281	0.577998	0.143129	0.328551	
0.691977	6.59485	0	0	0.457684	-0.147784	0.394894	0.936357	0.429148	-0.224886	0.532722	0.0504765	0.142335	-0.0625465	0.243347	0.526878	0.187837	0.173758	0.744236	-0.445653	0.386475	-0.211885	0.525683	-0.300574	0.263151	-0.119509	0.655479	-0.380304	0.076933	-0.015966	0.381113	-0.203223	0.419094	0.586751	0.143129	0.328551	
0.691332	6.5979	0	0	0.454889	-0.149255	0.394321	0.920296	0.429148	-0.224886	0.529977	0.0439413	0.132813	-0.0579632	0.236762	0.505835	0.174899	0.167157	0.723567	-0.432148	0.374363	-0.20397	0.51005	-0.290358	0.250239	-0.112722	0.641079	-0.370895	0.0796975	-0.016138	0.38386	-0.20338	0.419907	0.595504	0.143129	0.328551	
0.690358	6.59485	0	0	0.452094	-0.150726	0.393748	0.904235	0.429148	-0.224886	0.527231	0.037406	0.123291	-0.05338	0.230176	0.484793	0.161961	0.160556	0.702898	-0.418642	0.362251	-0.196056	0.494416	-0.280143	0.237326	-0.105935	0.626679	-0.361485	0.082462	-0.01631	0.386606	-0.203537	0.42072	0.604257	0.143129	0.328551	
0.689212	6.58874	0	0	0.452852	-0.15287	0.399704	0.896241	0.429148	-0.224886	0.53381	0.033107	0.115593	-0.0483495	0.2319	0.472	0.153014	0.15138	0.687429	-0.408534	0.356201	-0.192103	0.478811	-0.269946	0.230498	-0.101473	0.615934	-0.356109	0.082462	-0.01631	0.386606	-0.203537	0.423285	0.597009	0.145433	0.322039	
0.688053	6.59637	0	0	0.453611	-0.155014	0.40566	0.888246	0.429148	-0.224886	0.540389	0.028808	0.107894	-0.043319	0.233624	0.459206	0.144068	0.142204	0.67196	-0.398427	0.350152	-0.18815	0.463206	-0.259749	0.22367	-0.097012	0.605188	-0.350733	0.082462	-0.01631	0.386606	-0.203537	0.425849	0.589762	0.147737	0.315528	
0.687017	6.59637	0	0	0.454369	-0.157158	0.411615	0.880252	0.429148	-0.224886	0.546968	0.024509	0.100195	-0.0382885	0.235348	0.446413	0.135122	0.133028	0.656491	-0.388319	0.344102	-0.184197	0.4476	-0.249553	0.216843	-0.0925505	0.594442	-0.345356	0.082462	-0.01631	0.386606	-0.203537	0.428414	0.582514	0.150041	0.309017	
0.686126	6.5918	0	0	0.455128	-0.159302	0.417571	0.872258	0.429148	-0.224886	0.553547	0.02021	0.092497	-0.033258	0.237072	0.43362	0.126175	0.123852	0.641022	-0.378211	0.338052	-0.180244	0.431995	-0.239356	0.210015	-0.088089	0.583697	-0.33998	0.082462	-0.01631	0.386606	-0.203537	0.430978	0.575266	0.152345	0.302505	
0.68537	6.59027	0	0	0.455886	-0.161445	0.416918	0.882946	0.433921	-0.229649	0.556298	0.026742	0.0899322	-0.0315822	0.237072	0.43362	0.116477	0.116864	0.625581	-0.368121	0.32974	-0.176453	0.422362	-0.234701	0.203952	-0.0857777	0.580824	-0.338102	0.0859805	-0.018609	0.39361	-0.208113	0.440304	0.571029	0.155422	0.302163	
0.684739	6.59485	0	0	0.456645	-0.163589	0.416265	0.893634	0.438694	-0.234412	0.559048	0.033274	0.0873675	-0.0299065	0.237072	0.43362	0.106779	0.109876	0.61014	-0.358032	0.321429	-0.172662	0.412728	-0.230046	0.197889	-0.0834665	0.577951	-0.336225	0.089499	-0.020908	0.400613	-0.21269	0.449631	0.566792	0.158499	0.301821	
0.684225	6.59332	0	0	0.457404	-0.165733	0.415611	0.904322	0.443467	-0.239176	0.561798	0.039806	0.0848028	-0.0282307	0.237072	0.43362	0.097081	0.102887	0.594698	-0.347942	0.313117	-0.168871	0.403095	-0.22539	0.191826	-0.0811552	0.575077	-0.334348	0.0930175	-0.023207	0.407616	-0.217266	0.458958	0.562554	0.161576	0.301478	
0.683816	6.5918	0	0	0.458162	-0.167876	0.414958	0.91501	0.44824	-0.243939	0.564549	0.046338	0.082238	-0.026555	0.237072	0.43362	0.087383	0.095899	0.579257	-0.337852	0.304805	-0.16508	0.393462	-0.220735	0.185763	-0.078844	0.572204	-0.33247	0.096536	-0.025506	0.41462	-0.221842	0.468284	0.558317	0.164653	0.301136	
0.683465	6.58874	0	0	0.454609	-0.167202	0.419681	0.901663	0.452258	-0.246564	0.56279	0.0441542	0.082238	-0.026555	0.232534	0.438528	0.0808855	0.0885062	0.567165	-0.331591	0.30103	-0.160973	0.385679	-0.21565	0.185004	-0.0766975	0.572204	-0.33247	0.106347	-0.030282	0.421629	-0.226422	0.472488	0.568582	0.168507	0.306966	
0.68309	6.59485	0	0	0.451056	-0.166528	0.424403	0.888316	0.456276	-0.24919	0.561031	0.0419705	0.082238	-0.026555	0.227996	0.443437	0.074388	0.0811135	0.555073	-0.32533	0.297255	-0.156867	0.377897	-0.210564	0.184244	-0.074551	0.572204	-0.33247	0.116158	-0.035058	0.428639	-0.231002	0.476692	0.578847	0.17236	0.312795	
0.682605	6.59027	0	0	0.447504	-0.165854	0.429126	0.874968	0.460294	-0.251815	0.559273	0.0397867	0.082238	-0.026555	0.223457	0.448346	0.0678905	0.0737208	0.542982	-0.319069	0.29348	-0.15276	0.370115	-0.205479	0.183484	-0.0724045	0.572204	-0.33247	0.12597	-0.039834	0.435648	-0.235583	0.480897	0.589112	0.176213	0.318625	
0.681925	6.5918	0	0	0.443951	-0.16518	0.433849	0.861621	0.464312	-0.25444	0.557514	0.037603	0.082238	-0.026555	0.218919	0.453254	0.061393	0.066328	0.53089	-0.312808	0.289705	-0.148653	0.362332	-0.200394	0.182725	-0.070258	0.572204	-0.33247	0.135781	-0.04461	0.442658	-0.240163	0.485101	0.599377	0.180067	0.324454	
0.680964	6.58722	0	0	0.443951	-0.16518	0.435736	0.856288	0.463555	-0.252301	0.558505	0.0419552	0.0855565	-0.0303615	0.223457	0.448346	0.0533757	0.0632655	0.520627	-0.306102	0.284423	-0.146842	0.357148	-0.197006	0.180075	-0.0701767	0.570088	-0.332732	0.133011	-0.0444347	0.439153	-0.237872	0.485917	0.608153	0.182379	0.326285	
0.67969	6.58874	0	0	0.443951	-0.16518	0.437623	0.850955	0.462798	-0.250163	0.559497	0.0463075	0.088875	-0.034168	0.227996	0.443437	0.0453585	0.060203	0.510363	-0.299395	0.279141	-0.14503	0.351963	-0.193618	0.177426	-0.0700955	0.567973	-0.332995	0.130241	-0.0442595	0.435647	-0.235582	0.486734	0.616929	0.184691	0.328116	
0.678263	6.58722	0	0	0.443951	-0.16518	0.439511	0.845621	0.462041	-0.248024	0.560488	0.0506597	0.0921935	-0.0379745	0.232534	0.438528	0.0373413	0.0571405	0.5001	-0.292689	0.273859	-0.143218	0.346778	-0.190231	0.174776	-0.0700143	0.565858	-0.333257	0.12747	-0.0440842	0.432142	-0.233292	0.48755	0.625705	0.187003	0.329947	
0.676886	6.58264	0	0	0.443951	-0.16518	0.441398	0.840288	0.461284	-0.245885	0.56148	0.055012	0.095512	-0.041781	0.237072	0.43362	0.029324	0.054078	0.489837	-0.285983	0.268577	-0.141407	0.341594	-0.186843	0.172126	-0.069933	0.563742	-0.33352	0.1247	-0.043909	0.428636	-0.231001	0.488366	0.634481	0.189315	0.331778	
0.675761	6.58417	0	0	0.443193	-0.163037	0.448898	0.845642	0.464547	-0.246372	0.565221	0.0659187	0.102457	-0.0446807	0.243539	0.439115	0.0269087	0.0523385	0.492401	-0.287659	0.264805	-0.137302	0.339003	-0.18515	0.171367	-0.0677865	0.562985	-0.331381	0.1247	-0.043909	0.432142	-0.233292	0.484123	0.635391	0.191628	0.33361	
0.675091	6.58874	0	0	0.442434	-0.160894	0.456399	0.850997	0.46781	-0.24686	0.568962	0.0768255	0.109401	-0.0475805	0.250007	0.44461	0.0244935	0.050599	0.494966	-0.289335	0.261034	-0.133198	0.336412	-0.183457	0.170607	-0.06564	0.562228	-0.329241	0.1247	-0.043909	0.435647	-0.235582	0.479879	0.636301	0.193941	0.335442	
0.675061	6.58264	0	0	0.441676	-0.158751	0.463899	0.856351	0.471073	-0.247347	0.572702	0.0877323	0.116346	-0.0504802	0.256474	0.450105	0.0220783	0.0488595	0.49753	-0.291011	0.257262	-0.129093	0.333821	-0.181764	0.169847	-0.0634935	0.561471	-0.327102	0.1247	-0.043909	0.439153	-0.237872	0.475635	0.637211	0.196254	0.337274	
0.675589	6.58111	0	0	0.440918	-0.156608	0.471399	0.861705	0.474336	-0.247835	0.576443	0.098639	0.123291	-0.05338	0.262941	0.4556	0.019663	0.04712	0.500095	-0.292687	0.25349	-0.124989	0.33123	-0.180071	0.169088	-0.061347	0.560714	-0.324963	0.1247	-0.043909	0.442658	-0.240163	0.471392	0.638121	0.198567	0.339106	
0.676413	6.58111	0	0	0.44447	-0.157281	0.46791	0.880425	0.478358	-0.250463	0.576883	0.111729	0.133567	-0.0600943	0.270379	0.466321	0.0188997	0.0492775	0.504472	-0.293907	0.256507	-0.126961	0.335659	-0.181326	0.172497	-0.0635747	0.565702	-0.326578	0.1247	-0.043909	0.442658	-0.240163	0.473963	0.630856	0.200881	0.340939	
0.677262	6.58417	0	0	0.448023	-0.157955	0.464421	0.899145	0.482379	-0.25309	0.577323	0.124818	0.143843	-0.0668085	0.277818	0.477043	0.0181365	0.051435	0.508849	-0.295126	0.259524	-0.128932	0.340087	-0.18258	0.175906	-0.0658025	0.570691	-0.328192	0.1247	-0.043909	0.442658	-0.240163	0.476533	0.62359	0.203196	0.342772	
0.677869	6.58417	0	0	0.451575	-0.158629	0.460931	0.917865	0.486401	-0.255718	0.577763	0.137907	0.154118	-0.0735227	0.285256	0.487764	0.0173732	0.0535925	0.513226	-0.296346	0.262541	-0.130904	0.344515	-0.183835	0.179316	-0.0680303	0.57568	-0.329807	0.1247	-0.043909	0.442658	-0.240163	0.479104	0.616325	0.20551	0.344605	
0.677965	6.58111	0	0	0.455128	-0.159302	0.457442	0.936585	0.490423	-0.258346	0.578203	0.150997	0.164394	-0.080237	0.292695	0.498486	0.01661	0.05575	0.517603	-0.297566	0.265558	-0.132875	0.348944	-0.185089	0.182725	-0.070258	0.580668	-0.331421	0.1247	-0.043909	0.442658	-0.240163	0.481675	0.609059	0.207824	0.346438	
0.677415	6.58417	0	0	0.456645	-0.163588	0.454966	0.925869	0.49118	-0.260486	0.578973	0.14882	0.164394	-0.080237	0.290001	0.506098	0.0173732	0.0535925	0.518358	-0.299699	0.263296	-0.133037	0.355639	-0.192742	0.180075	-0.0701767	0.585056	-0.337578	0.1247	-0.043909	0.442658	-0.240163	0.480818	0.61148	0.208598	0.352628	
0.676372	6.58264	0	0	0.458161	-0.167874	0.45249	0.915153	0.491937	-0.262625	0.579743	0.146643	0.164394	-0.080237	0.287307	0.51371	0.0181365	0.051435	0.519113	-0.301833	0.261034	-0.133198	0.362333	-0.200394	0.177426	-0.0700955	0.589445	-0.343735	0.1247	-0.043909	0.442658	-0.240163	0.479962	0.613901	0.209372	0.358817	
0.675029	6.57959	0	0	0.459678	-0.172161	0.450014	0.904438	0.492694	-0.264764	0.580514	0.144467	0.164394	-0.080237	0.284614	0.521323	0.0188997	0.0492775	0.519867	-0.303966	0.258771	-0.13336	0.369028	-0.208046	0.174776	-0.0700143	0.593834	-0.349893	0.1247	-0.043909	0.442658	-0.240163	0.479105	0.616323	0.210146	0.365007	
0.673577	6.57654	0	0	0.461195	-0.176447	0.447538	0.893722	0.493451	-0.266904	0.581284	0.14229	0.164394	-0.080237	0.28192	0.528935	0.019663	0.04712	0.520622	-0.306099	0.256509	-0.133522	0.375723	-0.215699	0.172126	-0.069933	0.598222	-0.35605	0.1247	-0.043909	0.442658	-0.240163	0.478248	0.618744	0.21092	0.371196	
0.672208	6.58111	0	0	0.4584	-0.177915	0.451317	0.883042	0.493451	-0.266904	0.581284	0.14229	0.168782	-0.0814663	0.284678	0.529085	0.0149593	0.0518523	0.525002	-0.307321	0.26028	-0.137626	0.380912	-0.219089	0.176294	-0.0743068	0.598222	-0.35605	0.114141	-0.0370093	0.432146	-0.233294	0.47148	0.615723	0.204752	0.371878	
0.671089	6.58264	0	0	0.455605	-0.179382	0.455095	0.872363	0.493451	-0.266904	0.581284	0.14229	0.173171	-0.0826955	0.287436	0.529235	0.0102555	0.0565845	0.529382	-0.308543	0.264052	-0.14173	0.386101	-0.22248	0.180463	-0.0786805	0.598222	-0.35605	0.103581	-0.0301095	0.421634	-0.226426	0.464712	0.612703	0.198584	0.37256	
0.670215	6.57501	0	0	0.45281	-0.180849	0.458874	0.861684	0.493451	-0.266904	0.581284	0.14229	0.177559	-0.0839247	0.290195	0.529384	0.00555175	0.0613167	0.533762	-0.309765	0.267823	-0.145834	0.39129	-0.225871	0.184632	-0.0830542	0.598222	-0.35605	0.0930215	-0.0232098	0.411122	-0.219557	0.457945	0.609683	0.192416	0.373242	
0.669512	6.57501	0	0	0.450015	-0.182317	0.462653	0.851004	0.493451	-0.266904	0.581284	0.14229	0.181947	-0.085154	0.292953	0.529534	0.000848	0.066049	0.538142	-0.310987	0.271595	-0.149938	0.396479	-0.229261	0.1888	-0.087428	0.598222	-0.35605	0.082462	-0.01631	0.40061	-0.212688	0.451177	0.606662	0.186248	0.373924	
0.668904	6.57349	0	0	0.453568	-0.182992	0.46419	0.864374	0.493451	-0.266904	0.588325	0.151089	0.187092	-0.088516	0.294875	0.540001	0.00567525	0.069533	0.542525	-0.312211	0.274613	-0.15191	0.401671	-0.232654	0.191451	-0.0875105	0.603973	-0.359808	0.0754297	-0.011715	0.390111	-0.205828	0.437667	0.600629	0.183936	0.372088	
0.668317	6.58264	0	0	0.457121	-0.183667	0.465726	0.877744	0.493451	-0.266904	0.595367	0.159888	0.192238	-0.091878	0.296797	0.550469	0.0105025	0.073017	0.546907	-0.313434	0.277631	-0.153882	0.406864	-0.236046	0.194103	-0.087593	0.609725	-0.363566	0.0683975	-0.00712	0.379612	-0.198967	0.424156	0.594596	0.181624	0.370251	
0.667678	6.57349	0	0	0.460674	-0.184342	0.467263	0.891115	0.493451	-0.266904	0.602408	0.168686	0.197383	-0.09524	0.298719	0.560936	0.0153297	0.076501	0.55129	-0.314658	0.280649	-0.155854	0.412056	-0.239439	0.196754	-0.0876755	0.615476	-0.367324	0.0613652	-0.002525	0.369113	-0.192107	0.410646	0.588563	0.179313	0.368414	
0.666984	6.56738	0	0	0.464227	-0.185017	0.4688	0.904485	0.493451	-0.266904	0.609449	0.177485	0.202529	-0.098602	0.300641	0.571403	0.020157	0.079985	0.555673	-0.315881	0.283667	-0.157826	0.417248	-0.242832	0.199405	-0.087758	0.621227	-0.371082	0.054333	0.00207	0.358614	-0.185247	0.397136	0.58253	0.177001	0.366578	
0.666299	6.56891	0	0	0.459158	-0.180058	0.464353	0.925917	0.489429	-0.264276	0.604043	0.192764	0.207678	-0.101966	0.305379	0.589851	0.0195125	0.090376	0.565958	-0.322601	0.288952	-0.159639	0.429488	-0.249191	0.20623	-0.0922178	0.632741	-0.378606	0.050819	0.00436625	0.362866	-0.189662	0.398844	0.577704	0.177771	0.364402	
0.66569	6.57196	0	0	0.454089	-0.175098	0.459905	0.947348	0.485407	-0.261648	0.598637	0.208043	0.212826	-0.10533	0.310117	0.6083	0.018868	0.100767	0.576243	-0.329322	0.294236	-0.161453	0.441728	-0.255551	0.213056	-0.0966775	0.644256	-0.38613	0.047305	0.0066625	0.367117	-0.194078	0.400552	0.572878	0.178541	0.362227	
0.665227	6.57043	0	0	0.44902	-0.170139	0.455458	0.968779	0.481386	-0.25902	0.59323	0.223323	0.217975	-0.108695	0.314854	0.626749	0.0182235	0.111158	0.586528	-0.336042	0.29952	-0.163267	0.453969	-0.26191	0.219881	-0.101137	0.655771	-0.393653	0.043791	0.00895875	0.371369	-0.198493	0.402259	0.568052	0.179311	0.360051	
0.664976	6.56586	0	0	0.443951	-0.16518	0.451011	0.990211	0.477364	-0.256392	0.587824	0.238602	0.223124	-0.112059	0.319592	0.645197	0.017579	0.121549	0.596813	-0.342762	0.304805	-0.16508	0.466209	-0.268269	0.226706	-0.105597	0.667285	-0.401177	0.040277	0.011255	0.375621	-0.202908	0.403967	0.563226	0.180081	0.357875	
0.664967	6.56891	0	0	0.443951	-0.16518	0.44788	0.990196	0.477364	-0.256392	0.590356	0.238627	0.225699	-0.113742	0.318742	0.655568	0.0208775	0.129378	0.604535	-0.347808	0.310848	-0.169029	0.476619	-0.275071	0.233537	-0.11006	0.678058	-0.406571	0.043791	0.00895875	0.378367	-0.203065	0.412428	0.561407	0.177771	0.364404	
0.665139	6.57043	0	0	0.443951	-0.16518	0.44475	0.99018	0.477364	-0.256392	0.592888	0.238652	0.228275	-0.115425	0.317892	0.665938	0.024176	0.137207	0.612256	-0.352854	0.316891	-0.172978	0.487028	-0.281873	0.240368	-0.114524	0.688831	-0.411966	0.047305	0.0066625	0.381113	-0.203223	0.42089	0.559589	0.17546	0.370933	
0.665414	6.56738	0	0	0.443951	-0.16518	0.441619	0.990165	0.477364	-0.256392	0.595421	0.238677	0.23085	-0.117108	0.317042	0.676309	0.0274745	0.145035	0.619978	-0.357899	0.322935	-0.176926	0.497438	-0.288675	0.247198	-0.118987	0.699603	-0.417361	0.050819	0.00436625	0.38386	-0.20338	0.429351	0.55777	0.17315	0.377462	
0.665716	6.56738	0	0	0.443951	-0.16518	0.438488	0.99015	0.477364	-0.256392	0.597953	0.238702	0.233426	-0.118791	0.316192	0.68668	0.030773	0.152864	0.6277	-0.362945	0.328978	-0.180875	0.507848	-0.295477	0.254029	-0.12345	0.710376	-0.422755	0.054333	0.00207	0.386606	-0.203537	0.437812	0.555951	0.17084	0.383991	
0.665969	6.56891	0	0	0.443951	-0.16518	0.448834	0.987512	0.481386	-0.25902	0.601473	0.243124	0.238579	-0.122158	0.317147	0.691951	0.0372575	0.160294	0.64134	-0.373498	0.335025	-0.184827	0.515664	-0.300584	0.257446	-0.125683	0.719034	-0.428412	0.0473065	0.0066615	0.383106	-0.20125	0.432726	0.559275	0.16776	0.38433	
0.666111	6.57654	0	0	0.443951	-0.16518	0.45918	0.984874	0.485407	-0.261648	0.604993	0.247547	0.243733	-0.125525	0.318102	0.697223	0.043742	0.167723	0.65498	-0.384051	0.341073	-0.188778	0.523479	-0.305691	0.260864	-0.127916	0.727691	-0.434069	0.04028	0.011253	0.379607	-0.198964	0.42764	0.562598	0.16468	0.384669	
0.666182	6.56891	0	0	0.443951	-0.16518	0.469527	0.982236	0.489429	-0.264276	0.608514	0.25197	0.248886	-0.128893	0.319058	0.702495	0.0502265	0.175152	0.66862	-0.394604	0.34712	-0.192729	0.531295	-0.310798	0.264281	-0.130149	0.736349	-0.439726	0.0332535	0.0158445	0.376107	-0.196677	0.422554	0.565921	0.1616	0.385008	
0.666259	6.57043	0	0	0.443951	-0.16518	0.479873	0.979598	0.493451	-0.266904	0.612034	0.256392	0.254039	-0.13226	0.320013	0.707766	0.056711	0.182582	0.68226	-0.405157	0.353168	-0.196681	0.539111	-0.315905	0.267698	-0.132382	0.745007	-0.445383	0.026227	0.020436	0.372607	-0.19439	0.417468	0.569245	0.15852	0.385347	
0.666423	6.57501	0	0	0.455374	-0.169348	0.485769	0.998463	0.5015	-0.272164	0.616543	0.265227	0.261775	-0.137315	0.327457	0.718649	0.0633158	0.198313	0.700332	-0.416965	0.365276	-0.204593	0.549543	-0.322721	0.274537	-0.13685	0.759456	-0.454824	0.0227157	0.0227303	0.372607	-0.19439	0.415799	0.562917	0.15852	0.385347	
0.666752	6.57806	0	0	0.466797	-0.173517	0.491665	1.01733	0.509549	-0.277423	0.621053	0.274062	0.26951	-0.142369	0.3349	0.729533	0.0699205	0.214043	0.718403	-0.428774	0.377384	-0.212504	0.559975	-0.329538	0.281376	-0.141319	0.773904	-0.464265	0.0192045	0.0250245	0.372607	-0.19439	0.414131	0.556588	0.15852	0.385347	
0.66732	6.57349	0	0	0.478219	-0.177685	0.497562	1.03619	0.517599	-0.282682	0.625562	0.282896	0.277246	-0.147423	0.342344	0.740417	0.0765252	0.229773	0.736475	-0.440582	0.389492	-0.220416	0.570407	-0.336355	0.288214	-0.145788	0.788353	-0.473707	0.0156932	0.0273187	0.372607	-0.19439	0.412463	0.55026	0.15852	0.385347	
0.668127	6.56891	0	0	0.489642	-0.181854	0.503458	1.05506	0.525648	-0.287942	0.630071	0.291731	0.284982	-0.152478	0.349788	0.7513	0.08313	0.245504	0.754547	-0.452391	0.4016	-0.228328	0.580839	-0.343171	0.295053	-0.150256	0.802802	-0.483148	0.012182	0.029613	0.372607	-0.19439	0.410794	0.543932	0.15852	0.385347	
0.669093	6.57806	0	0	0.487366	-0.175421	0.505252	1.07668	0.525648	-0.287942	0.628729	0.302722	0.290143	-0.155851	0.354468	0.76205	0.091281	0.256928	0.772657	-0.464224	0.409938	-0.232136	0.587917	-0.346156	0.304562	-0.154819	0.813621	-0.488573	0.0129342	0.0274868	0.380361	-0.201094	0.410794	0.543932	0.1616	0.385008	
0.670134	6.57806	0	0	0.48509	-0.168988	0.507046	1.0983	0.525648	-0.287942	0.627387	0.313713	0.295304	-0.159223	0.359147	0.772801	0.099432	0.268351	0.790767	-0.476058	0.418275	-0.235944	0.594994	-0.349142	0.314071	-0.159382	0.824441	-0.493997	0.0136865	0.0253605	0.388116	-0.207798	0.410794	0.543932	0.16468	0.384669	
0.671169	6.57349	0	0	0.482813	-0.162554	0.50884	1.11992	0.525648	-0.287942	0.626045	0.324704	0.300465	-0.162596	0.363827	0.783551	0.107583	0.279775	0.808877	-0.487891	0.426613	-0.239751	0.602072	-0.352128	0.32358	-0.163946	0.835261	-0.499422	0.0144388	0.0232342	0.39587	-0.214502	0.410794	0.543932	0.16776	0.38433	
0.672113	6.57043	0	0	0.480537	-0.156121	0.510634	1.14154	0.525648	-0.287942	0.624703	0.335695	0.305626	-0.165968	0.368507	0.794302	0.115734	0.291199	0.826987	-0.499724	0.43495	-0.243559	0.60915	-0.355113	0.333089	-0.168509	0.84608	-0.504846	0.015191	0.021108	0.403624	-0.221206	0.410794	0.543932	0.17084	0.383991	
0.6729	6.57043	0	0	0.477739	-0.157591	0.508447	1.13882	0.526405	-0.290081	0.623719	0.33128	0.305626	-0.165968	0.36024	0.801679	0.122241	0.298697	0.83476	-0.504803	0.441017	-0.247523	0.60915	-0.355113	0.333089	-0.168509	0.851874	-0.508632	0.0187023	0.0188137	0.410631	-0.225784	0.420929	0.54844	0.169299	0.388346	
0.673506	6.57349	0	0	0.474942	-0.15906	0.50626	1.1361	0.527162	-0.292219	0.622734	0.326864	0.305626	-0.165968	0.351973	0.809056	0.128748	0.306194	0.842533	-0.509883	0.447083	-0.251487	0.60915	-0.355113	0.333089	-0.168509	0.857668	-0.512418	0.0222135	0.0165195	0.417637	-0.230363	0.431064	0.552949	0.167758	0.392702	
0.673911	6.57501	0	0	0.472145	-0.160529	0.504073	1.13338	0.527918	-0.294358	0.621749	0.322449	0.305626	-0.165968	0.343705	0.816433	0.135254	0.313692	0.850306	-0.514962	0.45315	-0.255452	0.60915	-0.355113	0.333089	-0.168509	0.863462	-0.516204	0.0257248	0.0142253	0.424643	-0.234941	0.441199	0.557457	0.166217	0.397057	
0.6741	6.57196	0	0	0.469347	-0.161999	0.501886	1.13065	0.528675	-0.296497	0.620765	0.318033	0.305626	-0.165968	0.335438	0.82381	0.141761	0.32119	0.858079	-0.520041	0.459217	-0.259416	0.60915	-0.355113	0.333089	-0.168509	0.869256	-0.51999	0.029236	0.011931	0.43165	-0.239519	0.451334	0.561965	0.164676	0.401412	
0.674054	6.57043	0	0	0.470864	-0.166287	0.506937	1.12528	0.528675	-0.296497	0.623867	0.309267	0.303045	-0.164281	0.337256	0.818673	0.143416	0.32515	0.861427	-0.523868	0.458462	-0.257282	0.606538	-0.353407	0.328905	-0.164125	0.868499	-0.51785	0.0284838	0.0140573	0.427392	-0.2351	0.439449	0.573445	0.160826	0.403928	
0.673761	6.57043	0	0	0.472381	-0.170574	0.511988	1.11991	0.528675	-0.296497	0.626969	0.300501	0.300464	-0.162595	0.339074	0.813536	0.145071	0.32911	0.864774	-0.527695	0.457707	-0.255149	0.603927	-0.3517	0.324721	-0.15974	0.867741	-0.51571	0.0277315	0.0161835	0.423135	-0.230681	0.427565	0.584925	0.156975	0.406444	
0.673268	6.56586	0	0	0.473898	-0.174862	0.51704	1.11453	0.528675	-0.296497	0.63007	0.291734	0.297883	-0.160909	0.340891	0.808399	0.146726	0.333071	0.868121	-0.531523	0.456953	-0.253015	0.601316	-0.349994	0.320537	-0.155355	0.866984	-0.513569	0.0269792	0.0183097	0.418878	-0.226261	0.415681	0.596404	0.153125	0.40896	
0.672651	6.56128	0	0	0.475415	-0.179149	0.522091	1.10916	0.528675	-0.296497	0.633172	0.282968	0.295302	-0.159222	0.342709	0.803262	0.148381	0.337031	0.871469	-0.53535	0.456198	-0.250881	0.598704	-0.348287	0.316353	-0.150971	0.866227	-0.511429	0.026227	0.020436	0.41462	-0.221842	0.403796	0.607884	0.149275	0.411476	
0.671987	6.56586	0	0	0.473898	-0.174862	0.524559	1.12	0.529432	-0.298635	0.632397	0.285159	0.295302	-0.159222	0.3418	0.80583	0.150036	0.340995	0.876657	-0.538739	0.459988	-0.254998	0.593483	-0.344876	0.317113	-0.153118	0.864087	-0.511676	0.026227	0.020436	0.418124	-0.224132	0.402085	0.612718	0.150816	0.40712	
0.671352	6.56586	0	0	0.472381	-0.170574	0.527027	1.13084	0.530188	-0.300774	0.631622	0.28735	0.295302	-0.159222	0.340892	0.808399	0.151691	0.344959	0.881844	-0.542129	0.463778	-0.259115	0.588263	-0.341465	0.317873	-0.155265	0.861946	-0.511923	0.026227	0.020436	0.421628	-0.226421	0.400375	0.617552	0.152357	0.402765	
0.670821	6.55975	0	0	0.470864	-0.166287	0.529495	1.14168	0.530945	-0.302912	0.630846	0.28954	0.295302	-0.159222	0.339983	0.810967	0.153345	0.348923	0.887031	-0.545519	0.467568	-0.263232	0.583042	-0.338053	0.318632	-0.157412	0.859806	-0.51217	0.026227	0.020436	0.425132	-0.228711	0.398664	0.622386	0.153898	0.39841	
0.670418	6.55975	0	0	0.469347	-0.161999	0.531963	1.15252	0.531702	-0.30505	0.630071	0.291731	0.295302	-0.159222	0.339074	0.813535	0.155	0.352887	0.892219	-0.548908	0.471358	-0.267349	0.577821	-0.334642	0.319392	-0.159559	0.857666	-0.512417	0.026227	0.020436	0.428636	-0.231001	0.396954	0.62722	0.155439	0.394054	
0.670091	6.56433	0	0	0.46707	-0.155564	0.523346	1.17687	0.531702	-0.30505	0.624433	0.30047	0.295302	-0.159222	0.341885	0.821578	0.151901	0.361645	0.896655	-0.550167	0.474394	-0.269333	0.572604	-0.331233	0.319392	-0.159559	0.863462	-0.516204	0.0332535	0.0158445	0.435648	-0.235583	0.412179	0.628432	0.156977	0.398072	
0.669782	6.56128	0	0	0.464793	-0.149129	0.514729	1.20122	0.531702	-0.30505	0.618795	0.30921	0.295302	-0.159222	0.344696	0.829622	0.148803	0.370402	0.901091	-0.551425	0.47743	-0.271316	0.567386	-0.327823	0.319392	-0.159559	0.869258	-0.519991	0.04028	0.011253	0.442661	-0.240165	0.427405	0.629644	0.158516	0.40209	
0.669435	6.55365	0	0	0.462516	-0.142695	0.506113	1.22558	0.531702	-0.30505	0.613156	0.317949	0.295302	-0.159222	0.347507	0.837666	0.145704	0.379159	0.905527	-0.552684	0.480466	-0.2733	0.562168	-0.324414	0.319392	-0.159559	0.875054	-0.523779	0.0473065	0.0066615	0.449673	-0.244746	0.44263	0.630857	0.160054	0.406108	
0.668992	6.55823	0	0	0.460239	-0.13626	0.497496	1.24993	0.531702	-0.30505	0.607518	0.326688	0.295302	-0.159222	0.350318	0.845709	0.142605	0.387917	0.909963	-0.553943	0.483502	-0.275284	0.556951	-0.321005	0.319392	-0.159559	0.88085	-0.527566	0.054333	0.00207	0.456685	-0.249328	0.457856	0.632069	0.161592	0.410126	
0.668405	6.56128	0	0	0.455926	-0.133441	0.495312	1.24719	0.530945	-0.302912	0.603225	0.324438	0.292722	-0.157536	0.34296	0.850517	0.147359	0.383127	0.904772	-0.550551	0.480466	-0.2733	0.554343	-0.319301	0.315969	-0.157323	0.877951	-0.525672	0.065636	-0.00695	0.463703	-0.253914	0.456897	0.65694	0.163131	0.414148	
0.667659	6.5567	0	0	0.451612	-0.130623	0.493128	1.24445	0.530188	-0.300774	0.598932	0.322188	0.290142	-0.15585	0.335601	0.855325	0.152113	0.378337	0.899582	-0.54716	0.47743	-0.271316	0.551735	-0.317597	0.312547	-0.155086	0.875053	-0.523778	0.076939	-0.01597	0.470721	-0.258499	0.455937	0.681811	0.164669	0.418169	
0.666748	6.5506	0	0	0.447299	-0.127804	0.490944	1.24171	0.529432	-0.298635	0.594639	0.319938	0.287562	-0.154164	0.328242	0.860133	0.156866	0.373547	0.894391	-0.543768	0.474394	-0.269333	0.549128	-0.315893	0.309124	-0.152849	0.872155	-0.521884	0.088242	-0.02499	0.477739	-0.263085	0.454978	0.706682	0.166208	0.422191	
0.665667	6.55823	0	0	0.442986	-0.124986	0.48876	1.23898	0.528675	-0.296497	0.590346	0.317688	0.284982	-0.152478	0.320884	0.864941	0.16162	0.368757	0.8892	-0.540376	0.471358	-0.267349	0.54652	-0.314189	0.305701	-0.150613	0.869256	-0.51999	0.099545	-0.03401	0.484757	-0.267671	0.454019	0.731553	0.167746	0.426213	
0.664408	6.5628	0	0	0.442986	-0.124986	0.489718	1.23627	0.529432	-0.298635	0.592104	0.319909	0.287562	-0.154164	0.320884	0.864941	0.16162	0.368757	0.8892	-0.540376	0.471358	-0.267349	0.538702	-0.309081	0.30228	-0.148377	0.860566	-0.514312	0.103065	-0.03631	0.482001	-0.267507	0.448856	0.746146	0.167746	0.426213	
0.662975	6.56128	0	0	0.442986	-0.124986	0.490676	1.23356	0.530188	-0.300774	0.593862	0.32213	0.290142	-0.15585	0.320884	0.864941	0.16162	0.368757	0.8892	-0.540376	0.471358	-0.267349	0.530884	-0.303972	0.298858	-0.146141	0.851877	-0.508634	0.106584	-0.03861	0.479244	-0.267343	0.443692	0.760738	0.167746	0.426213	
0.661472	6.5628	0	0	0.442986	-0.124986	0.491634	1.23085	0.530945	-0.302912	0.595621	0.324351	0.292722	-0.157536	0.320884	0.864941	0.16162	0.368757	0.8892	-0.540376	0.471358	-0.267349	0.523066	-0.298864	0.295436	-0.143906	0.843187	-0.502956	0.110104	-0.04091	0.476488	-0.26718	0.438528	0.775331	0.167746	0.426213	
0.660061	6.57043	0	0	0.442986	-0.124986	0.492592	1.22815	0.531702	-0.30505	0.597379	0.326572	0.295302	-0.159222	0.320884	0.864941	0.16162	0.368757	0.8892	-0.540376	0.471358	-0.267349	0.515248	-0.293756	0.292015	-0.14167	0.834497	-0.497278	0.113624	-0.04321	0.473732	-0.267016	0.433365	0.789923	0.167746	0.426213	
0.658906	6.57654	0	0	0.452133	-0.12271	0.493123	1.24447	0.543033	-0.31081	0.601103	0.337634	0.302293	-0.162151	0.323688	0.873003	0.160845	0.370947	0.8892	-0.540376	0.472113	-0.269482	0.513398	-0.294186	0.292015	-0.14167	0.835254	-0.499418	0.112872	-0.041084	0.472978	-0.264886	0.435022	0.796329	0.163894	0.42873	
0.658169	6.57349	0	0	0.461281	-0.120434	0.493654	1.26079	0.554365	-0.31657	0.604827	0.348696	0.309284	-0.16508	0.326493	0.881065	0.160071	0.373138	0.8892	-0.540376	0.472867	-0.271615	0.511548	-0.294617	0.292015	-0.14167	0.836012	-0.501557	0.11212	-0.038958	0.472225	-0.262757	0.436679	0.802736	0.160042	0.431247	
0.658009	6.57349	0	0	0.470429	-0.118159	0.494186	1.27711	0.565697	-0.322331	0.608551	0.359758	0.316274	-0.168009	0.329298	0.889127	0.159296	0.375328	0.8892	-0.540376	0.473622	-0.273748	0.509698	-0.295047	0.292015	-0.14167	0.836769	-0.503697	0.111367	-0.036832	0.471472	-0.260628	0.438337	0.809142	0.15619	0.433764	
0.658446	6.57654	0	0	0.479576	-0.115883	0.494717	1.29344	0.577028	-0.328091	0.612275	0.37082	0.323265	-0.170938	0.332102	0.897189	0.158521	0.377518	0.8892	-0.540376	0.474377	-0.275881	0.507848	-0.295477	0.292015	-0.14167	0.837526	-0.505837	0.110615	-0.034706	0.470718	-0.258498	0.439994	0.815548	0.152338	0.436281	
0.659334	6.58111	0	0	0.472216	-0.104464	0.488951	1.30973	0.576271	-0.325952	0.603517	0.388373	0.325848	-0.172626	0.336765	0.908019	0.15697	0.3819	0.89104	-0.539938	0.470587	-0.271765	0.507094	-0.293345	0.287835	-0.137288	0.836012	-0.501557	0.114136	-0.0370067	0.474228	-0.260791	0.439924	0.826843	0.153875	0.440307	
0.66052	6.57349	0	0	0.464857	-0.0930455	0.483184	1.32603	0.575514	-0.323813	0.594759	0.405925	0.328431	-0.174314	0.341427	0.918848	0.155419	0.386282	0.89288	-0.5395	0.466797	-0.267648	0.506339	-0.291212	0.283656	-0.132906	0.834497	-0.497277	0.117657	-0.0393075	0.477738	-0.263084	0.439854	0.838139	0.155411	0.444333	
0.661851	6.57196	0	0	0.457498	-0.0816267	0.477417	1.34233	0.574758	-0.321675	0.586001	0.423478	0.331015	-0.176002	0.34609	0.929677	0.153869	0.390664	0.89472	-0.539061	0.463007	-0.263532	0.505585	-0.28908	0.279476	-0.128525	0.832982	-0.492996	0.121179	-0.0416082	0.481247	-0.265378	0.439783	0.849434	0.156948	0.44836	
0.663174	6.57654	0	0	0.450138	-0.070208	0.471651	1.35862	0.574001	-0.319536	0.577243	0.441031	0.333598	-0.17769	0.350753	0.940507	0.152318	0.395046	0.89656	-0.538623	0.459217	-0.259416	0.504831	-0.286948	0.275296	-0.124143	0.831468	-0.488716	0.1247	-0.043909	0.484757	-0.267671	0.439713	0.860729	0.158485	0.452386	
0.664372	6.57501	0	0	0.447344	-0.071688	0.473315	1.34501	0.574758	-0.321675	0.576266	0.436597	0.333598	-0.17769	0.344298	0.942741	0.150665	0.391074	0.893965	-0.536928	0.458462	-0.257282	0.501473	-0.283114	0.271118	-0.119762	0.828573	-0.486825	0.130994	-0.046387	0.487514	-0.267835	0.449867	0.865362	0.153861	0.457085	
0.665436	6.57959	0	0	0.44455	-0.073168	0.474978	1.33139	0.575514	-0.323813	0.575289	0.432163	0.333598	-0.17769	0.337844	0.944975	0.149012	0.387101	0.89137	-0.535232	0.457707	-0.255149	0.498115	-0.27928	0.266939	-0.11538	0.825678	-0.484934	0.137289	-0.048865	0.490272	-0.268	0.460021	0.869995	0.149236	0.461785	
0.66637	6.57806	0	0	0.441756	-0.074648	0.476642	1.31778	0.576271	-0.325952	0.574312	0.427729	0.333598	-0.17769	0.33139	0.947208	0.147358	0.383128	0.888775	-0.533536	0.456953	-0.253015	0.494756	-0.275447	0.26276	-0.110998	0.822784	-0.483042	0.143583	-0.051343	0.49303	-0.268164	0.470175	0.874628	0.144612	0.466484	
0.667179	6.5918	0	0	0.438962	-0.076128	0.478306	1.30416	0.577028	-0.328091	0.573335	0.423295	0.333598	-0.17769	0.324935	0.949442	0.145705	0.379156	0.88618	-0.531841	0.456198	-0.250881	0.491398	-0.271613	0.258582	-0.106617	0.819889	-0.481151	0.149877	-0.053821	0.495787	-0.268328	0.480329	0.879261	0.139988	0.471183	
0.667871	6.59485	0	0	0.439723	-0.0782772	0.472986	1.30138	0.572997	-0.325457	0.572557	0.425494	0.334352	-0.179822	0.318486	0.951672	0.143278	0.377376	0.884341	-0.53228	0.452409	-0.246765	0.48804	-0.267779	0.255164	-0.104384	0.810453	-0.47334	0.143583	-0.051343	0.48952	-0.265871	0.463259	0.894175	0.137682	0.469335	
0.668446	6.59637	0	0	0.440483	-0.0804265	0.467666	1.2986	0.568966	-0.322823	0.571778	0.427692	0.335106	-0.181953	0.312037	0.953902	0.14085	0.375596	0.882502	-0.532718	0.44862	-0.242648	0.484683	-0.263945	0.251747	-0.102151	0.801018	-0.465529	0.137289	-0.048865	0.483252	-0.263413	0.446188	0.909089	0.135376	0.467487	
0.668889	6.60095	0	0	0.441244	-0.0825758	0.462346	1.29582	0.564934	-0.320189	0.571	0.429891	0.335861	-0.184085	0.305589	0.956132	0.138423	0.373816	0.880662	-0.533157	0.44483	-0.238532	0.481325	-0.260111	0.248329	-0.099918	0.791583	-0.457717	0.130994	-0.046387	0.476985	-0.260956	0.429117	0.924003	0.13307	0.465639	
0.669174	6.60553	0	0	0.442004	-0.084725	0.457026	1.29304	0.560903	-0.317555	0.570222	0.43209	0.336615	-0.186217	0.29914	0.958362	0.135995	0.372036	0.878823	-0.533595	0.441041	-0.234415	0.477967	-0.256277	0.244912	-0.097685	0.782147	-0.449906	0.1247	-0.043909	0.470718	-0.258498	0.412047	0.938917	0.130764	0.463791	
0.669274	6.60705	0	0	0.444798	-0.083246	0.460425	1.30125	0.564934	-0.320189	0.569641	0.440929	0.338445	-0.185774	0.303762	0.961294	0.13047	0.379012	0.881417	-0.53529	0.44483	-0.238532	0.481325	-0.260111	0.245672	-0.0998327	0.782905	-0.452047	0.117659	-0.0393082	0.46721	-0.256205	0.409535	0.934919	0.12384	0.466638	
0.669164	6.60553	0	0	0.447593	-0.081767	0.463824	1.30946	0.568966	-0.322823	0.56906	0.449767	0.340275	-0.185331	0.308384	0.964226	0.124946	0.385988	0.884011	-0.536986	0.44862	-0.242648	0.484683	-0.263945	0.246432	-0.101981	0.783662	-0.454187	0.110618	-0.0347075	0.463701	-0.253913	0.407023	0.930921	0.116917	0.469485	
0.668818	6.604	0	0	0.450387	-0.080288	0.467224	1.31767	0.572997	-0.325457	0.568478	0.458605	0.342104	-0.184887	0.313006	0.967158	0.119421	0.392965	0.886606	-0.538681	0.452409	-0.246765	0.48804	-0.267779	0.247192	-0.104128	0.78442	-0.456328	0.103577	-0.0301068	0.460193	-0.251621	0.404512	0.926923	0.109993	0.472332	
0.668249	6.61621	0	0	0.453181	-0.078809	0.470623	1.32588	0.577028	-0.328091	0.567897	0.467444	0.343934	-0.184444	0.317628	0.97009	0.113896	0.399941	0.8892	-0.540376	0.456198	-0.250881	0.491398	-0.271613	0.247952	-0.106276	0.785177	-0.458469	0.096536	-0.025506	0.456685	-0.249328	0.402	0.922925	0.10307	0.475179	
0.667514	6.61468	0	0	0.443536	-0.0609275	0.462927	1.34762	0.575514	-0.323813	0.564971	0.482911	0.350936	-0.18738	0.320449	0.986134	0.113218	0.410493	0.898829	-0.545028	0.462269	-0.254848	0.504424	-0.280124	0.254788	-0.110743	0.790961	-0.462249	0.103577	-0.0301068	0.455931	-0.247198	0.399405	0.93026	0.104601	0.47921	
0.666671	6.61316	0	0	0.433891	-0.043046	0.455232	1.36937	0.574	-0.319535	0.562045	0.498378	0.357939	-0.190316	0.323271	1.00218	0.112541	0.421044	0.908459	-0.549679	0.46834	-0.258815	0.51745	-0.288636	0.261624	-0.115209	0.796746	-0.466029	0.110618	-0.0347075	0.455178	-0.245068	0.396809	0.937596	0.106132	0.483242	
0.665779	6.62079	0	0	0.424247	-0.0251645	0.447536	1.39112	0.572487	-0.315257	0.55912	0.513845	0.364941	-0.193253	0.326093	1.01822	0.111863	0.431596	0.918089	-0.554331	0.474411	-0.262782	0.530476	-0.297148	0.26846	-0.119676	0.802531	-0.469808	0.117659	-0.0393082	0.454424	-0.242938	0.394213	0.944931	0.107663	0.487274	
0.664897	6.63299	0	0	0.414602	-0.007283	0.43984	1.41287	0.570973	-0.310979	0.556194	0.529312	0.371943	-0.196189	0.328914	1.03427	0.111186	0.442148	0.927718	-0.558983	0.480482	-0.266749	0.543502	-0.305659	0.275296	-0.124143	0.808315	-0.473588	0.1247	-0.043909	0.45367	-0.240808	0.391618	0.952266	0.109194	0.491305	
0.664076	6.63605	0	0	0.41384	-0.00512925	0.437665	1.41011	0.570973	-0.310979	0.547226	0.540262	0.377118	-0.199571	0.319727	1.05222	0.110503	0.452718	0.938115	-0.565777	0.489597	-0.272705	0.556548	-0.314184	0.278716	-0.126378	0.814103	-0.47737	0.131747	-0.0485135	0.464953	-0.249818	0.393169	0.970084	0.112256	0.499379	
0.66335	6.64062	0	0	0.413077	-0.0029755	0.43549	1.40735	0.570973	-0.310979	0.538259	0.551211	0.382293	-0.202952	0.31054	1.07017	0.109821	0.463288	0.948513	-0.57257	0.498711	-0.278661	0.569594	-0.322708	0.282136	-0.128613	0.819891	-0.481152	0.138794	-0.053118	0.476236	-0.258828	0.394719	0.987902	0.115317	0.507452	
0.662747	6.6452	0	0	0.412315	-0.00082175	0.433315	1.40458	0.570973	-0.310979	0.529292	0.562161	0.387468	-0.206334	0.301354	1.08813	0.109138	0.473858	0.95891	-0.579364	0.507826	-0.284617	0.582639	-0.331232	0.285556	-0.130847	0.82568	-0.484934	0.14584	-0.0577225	0.487518	-0.267838	0.396269	1.00572	0.118379	0.515526	
0.662296	6.65283	0	0	0.411553	0.001332	0.43114	1.40182	0.570973	-0.310979	0.520324	0.573111	0.392643	-0.209715	0.292167	1.10608	0.108456	0.484428	0.969307	-0.586158	0.516941	-0.290573	0.595685	-0.339757	0.288976	-0.133082	0.831468	-0.488716	0.152887	-0.062327	0.498801	-0.276848	0.39782	1.02354	0.121441	0.5236	
0.662027	6.65436	0	0	0.408503	0.00995225	0.428251	1.40998	0.569458	-0.306699	0.518945	0.584204	0.400412	-0.214791	0.289424	1.12184	0.112617	0.498616	0.987532	-0.598067	0.529109	-0.298524	0.611367	-0.350003	0.299245	-0.139792	0.834364	-0.490608	0.14584	-0.0577225	0.491026	-0.27013	0.388367	1.03915	0.118346	0.532347	
0.661955	6.64673	0	0	0.405453	0.0185725	0.425362	1.41815	0.567944	-0.302419	0.517566	0.595297	0.40818	-0.219867	0.286681	1.1376	0.116777	0.512804	1.00576	-0.609976	0.541277	-0.306474	0.627048	-0.36025	0.309513	-0.146502	0.837259	-0.4925	0.138794	-0.053118	0.483252	-0.263412	0.378915	1.05476	0.115251	0.541094	
0.662022	6.6513	0	0	0.402403	0.0271927	0.422474	1.42631	0.566429	-0.298138	0.516187	0.606389	0.415948	-0.224943	0.283938	1.15336	0.120938	0.526992	1.02398	-0.621884	0.553446	-0.314425	0.642729	-0.370497	0.319781	-0.153211	0.840154	-0.494392	0.131747	-0.0485135	0.475477	-0.256695	0.369463	1.07037	0.112156	0.549841	
0.662133	6.6513	0	0	0.399353	0.035813	0.419585	1.43448	0.564915	-0.293858	0.514808	0.617482	0.423717	-0.230019	0.281195	1.16913	0.125099	0.54118	1.04221	-0.633793	0.565614	-0.322376	0.658411	-0.380743	0.33005	-0.159921	0.84305	-0.496284	0.1247	-0.043909	0.467703	-0.249977	0.36001	1.08598	0.109061	0.558588	
0.662195	6.64825	0	0	0.401877	0.0474378	0.422244	1.4537	0.56819	-0.294353	0.513602	0.63529	0.433331	-0.234661	0.283978	1.18531	0.127695	0.559827	1.0657	-0.649142	0.580848	-0.33233	0.674121	-0.391008	0.339571	-0.164491	0.854642	-0.503859	0.123948	-0.0417825	0.467703	-0.249977	0.355772	1.08687	0.102888	0.56767	
0.662114	6.64368	0	0	0.4044	0.0590625	0.424903	1.47293	0.571466	-0.294847	0.512396	0.653097	0.442945	-0.239304	0.286761	1.20149	0.130291	0.578473	1.08919	-0.664491	0.596083	-0.342285	0.689831	-0.401274	0.349092	-0.169061	0.866235	-0.511433	0.123195	-0.039656	0.467703	-0.249977	0.351533	1.08775	0.0967145	0.576751	
0.661803	6.63757	0	0	0.406924	0.0706872	0.427562	1.49216	0.574742	-0.295341	0.51119	0.670905	0.45256	-0.243947	0.289544	1.21768	0.132887	0.59712	1.11268	-0.679839	0.611317	-0.35224	0.705541	-0.411539	0.358613	-0.173631	0.877827	-0.519008	0.122443	-0.0375295	0.467703	-0.249977	0.347295	1.08863	0.0905413	0.585832	
0.661292	6.64215	0	0	0.409448	0.082312	0.430221	1.51138	0.578017	-0.295836	0.509984	0.688713	0.462174	-0.248589	0.292327	1.23386	0.135483	0.615767	1.13617	-0.695188	0.626552	-0.362194	0.721251	-0.421804	0.368134	-0.178201	0.889419	-0.526583	0.12169	-0.035403	0.467703	-0.249977	0.343057	1.08951	0.084368	0.594914	
0.66072	6.63452	0	0	0.403327	0.099611	0.425619	1.53332	0.581295	-0.296331	0.50859	0.699856	0.47331	-0.257505	0.2988	1.24768	0.141279	0.634086	1.15972	-0.710579	0.642568	-0.3743	0.735119	-0.432505	0.376514	-0.186978	0.896735	-0.534654	0.115402	-0.0329287	0.467703	-0.249977	0.343057	1.08951	0.0858933	0.598969	
0.660229	6.63147	0	0	0.397205	0.11691	0.421016	1.55525	0.584572	-0.296826	0.507197	0.710999	0.484446	-0.266421	0.305273	1.2615	0.147075	0.652405	1.18328	-0.72597	0.658585	-0.386406	0.748987	-0.443207	0.384895	-0.195756	0.904052	-0.542725	0.109113	-0.0304545	0.467703	-0.249977	0.343057	1.08951	0.0874185	0.603024	
0.659964	6.62994	0	0	0.391084	0.134209	0.416413	1.57718	0.587849	-0.297322	0.505803	0.722142	0.495582	-0.275338	0.311745	1.27532	0.152872	0.670725	1.20683	-0.741361	0.674601	-0.398512	0.762856	-0.453909	0.393275	-0.204534	0.911369	-0.550797	0.102824	-0.0279802	0.467703	-0.249977	0.343057	1.08951	0.0889437	0.607078	
0.660067	6.63452	0	0	0.384963	0.151508	0.411811	1.59911	0.591127	-0.297817	0.504409	0.733285	0.506718	-0.284254	0.318218	1.28914	0.158668	0.689044	1.23039	-0.756752	0.690618	-0.410618	0.776724	-0.46461	0.401655	-0.213311	0.918685	-0.558868	0.096536	-0.025506	0.467703	-0.249977	0.343057	1.08951	0.090469	0.611133	
0.660561	6.62689	0	0	0.377862	0.152821	0.404338	1.59347	0.583059	-0.292545	0.498391	0.728689	0.505964	-0.282121	0.306206	1.299	0.164388	0.698946	1.24012	-0.761472	0.699788	-0.41661	0.784602	-0.469758	0.405087	-0.215554	0.92083	-0.558625	0.096536	-0.025506	0.464948	-0.249815	0.340449	1.09688	0.0912183	0.617385	
0.661239	6.62231	0	0	0.37076	0.154134	0.396866	1.58783	0.57499	-0.287273	0.492373	0.724093	0.505209	-0.279988	0.294195	1.30885	0.170108	0.708848	1.24985	-0.766191	0.708958	-0.422602	0.79248	-0.474905	0.40852	-0.217797	0.922975	-0.558382	0.096536	-0.025506	0.462194	-0.249652	0.337842	1.10425	0.0919675	0.623636	
0.661865	6.62536	0	0	0.363658	0.155447	0.389394	1.5822	0.566922	-0.282001	0.486355	0.719498	0.504455	-0.277856	0.282183	1.31871	0.175829	0.718749	1.25959	-0.770911	0.718128	-0.428594	0.800358	-0.480052	0.411952	-0.220039	0.925121	-0.558138	0.096536	-0.025506	0.45944	-0.24949	0.335234	1.11162	0.0927167	0.629888	
0.662206	6.62384	0	0	0.356557	0.15676	0.381921	1.57656	0.558854	-0.276729	0.480337	0.714902	0.5037	-0.275723	0.270171	1.32857	0.181549	0.728651	1.26932	-0.775631	0.727298	-0.434586	0.808236	-0.4852	0.415385	-0.222282	0.927266	-0.557895	0.096536	-0.025506	0.456685	-0.249328	0.332626	1.11899	0.093466	0.636139	
0.662026	6.61926	0	0	0.349464	0.15807	0.379522	1.56553	0.550793	-0.271462	0.474326	0.710313	0.499262	-0.274463	0.26464	1.32014	0.182409	0.734919	1.2727	-0.77948	0.730357	-0.436585	0.808236	-0.4852	0.411952	-0.220039	0.915662	-0.550313	0.0887483	-0.0187825	0.441912	-0.238038	0.315583	1.1339	0.0849878	0.643365	
0.661169	6.61468	0	0	0.34237	0.159379	0.377122	1.55449	0.542733	-0.266195	0.468314	0.705723	0.494825	-0.273203	0.259109	1.31171	0.183269	0.741187	1.27608	-0.783329	0.733416	-0.438584	0.808236	-0.4852	0.40852	-0.217797	0.904058	-0.542731	0.0809605	-0.012059	0.42714	-0.226747	0.29854	1.14882	0.0765095	0.650591	
0.65984	6.61926	0	0	0.335276	0.160689	0.374723	1.54346	0.534672	-0.260928	0.462303	0.701134	0.490387	-0.271943	0.253578	1.30329	0.184128	0.747456	1.27946	-0.787178	0.736475	-0.440582	0.808236	-0.4852	0.405087	-0.215554	0.892454	-0.535148	0.0731727	-0.0053355	0.412367	-0.215457	0.281497	1.16373	0.0680313	0.657818	
0.65835	6.61774	0	0	0.328183	0.161998	0.372323	1.53242	0.526611	-0.255661	0.456292	0.696545	0.485949	-0.270683	0.248047	1.29486	0.184988	0.753724	1.28284	-0.791027	0.739534	-0.442581	0.808236	-0.4852	0.401655	-0.213311	0.88085	-0.527566	0.065385	0.001388	0.397595	-0.204167	0.264454	1.17865	0.059553	0.665044	
0.657009	6.60858	0	0	0.327418	0.16416	0.371357	1.53515	0.522584	-0.25303	0.455334	0.692066	0.480005	-0.265159	0.24344	1.29186	0.186633	0.757776	1.28471	-0.790608	0.736475	-0.440582	0.800358	-0.480052	0.398224	-0.211069	0.875054	-0.523779	0.0513317	0.0105708	0.390594	-0.199593	0.257745	1.17548	0.052634	0.667879	
0.656127	6.61163	0	0	0.326653	0.166323	0.370391	1.53788	0.518557	-0.250398	0.454375	0.687586	0.474062	-0.259636	0.238833	1.28885	0.188278	0.761827	1.28658	-0.790189	0.733416	-0.438584	0.79248	-0.474905	0.394793	-0.208827	0.869258	-0.519991	0.0372785	0.0197535	0.383593	-0.195018	0.251036	1.1723	0.045715	0.670713	
0.655982	6.61316	0	0	0.325887	0.168486	0.369425	1.54061	0.514529	-0.247767	0.453417	0.683107	0.468118	-0.254113	0.234227	1.28585	0.189923	0.765879	1.28845	-0.78977	0.730357	-0.436585	0.784602	-0.469758	0.391362	-0.206585	0.863462	-0.516204	0.0232253	0.0289363	0.376593	-0.190443	0.244328	1.16913	0.038796	0.673548	
0.656512	6.61163	0	0	0.325122	0.170648	0.368459	1.54334	0.510502	-0.245135	0.452459	0.678628	0.462174	-0.248589	0.22962	1.28285	0.191568	0.769931	1.29032	-0.789351	0.727298	-0.434586	0.776724	-0.46461	0.387931	-0.204343	0.857666	-0.512417	0.009172	0.038119	0.369592	-0.185869	0.237619	1.16596	0.031877	0.676383	
0.657461	6.604	0	0	0.317751	0.182119	0.363625	1.55701	0.507234	-0.244646	0.448369	0.683002	0.454396	-0.243507	0.225935	1.28525	0.189207	0.776605	1.29032	-0.789351	0.727298	-0.434586	0.766231	-0.457754	0.381073	-0.199862	0.855527	-0.512664	0.0099245	0.0359925	0.369592	-0.185869	0.23253	1.16928	0.0311008	0.678576	
0.658566	6.604	0	0	0.310379	0.19359	0.358791	1.57067	0.503966	-0.244157	0.444279	0.687376	0.446618	-0.238424	0.222251	1.28766	0.186845	0.783278	1.29032	-0.789351	0.727298	-0.434586	0.755739	-0.450898	0.374215	-0.195381	0.853387	-0.512911	0.010677	0.033866	0.369592	-0.185869	0.227441	1.17261	0.0303245	0.68077	
0.65957	6.61011	0	0	0.303007	0.205062	0.353957	1.58433	0.500698	-0.243668	0.44019	0.691749	0.438841	-0.233342	0.218566	1.29007	0.184484	0.789952	1.29032	-0.789351	0.727298	-0.434586	0.745247	-0.444041	0.367357	-0.1909	0.851247	-0.513158	0.0114295	0.0317395	0.369592	-0.185869	0.222352	1.17593	0.0295482	0.682963	
0.660216	6.60553	0	0	0.295636	0.216533	0.349123	1.59799	0.49743	-0.243179	0.4361	0.696123	0.431063	-0.22826	0.214882	1.29248	0.182123	0.796626	1.29032	-0.789351	0.727298	-0.434586	0.734754	-0.437185	0.360499	-0.186419	0.849108	-0.513405	0.012182	0.029613	0.369592	-0.185869	0.217263	1.17926	0.028772	0.685156	
0.660411	6.5979	0	0	0.28502	0.218478	0.341673	1.59236	0.489385	-0.237922	0.430883	0.68933	0.423292	-0.223183	0.205681	1.29448	0.177331	0.801469	1.2832	-0.786341	0.72424	-0.432588	0.726893	-0.432049	0.356312	-0.182033	0.845455	-0.509373	0.0149408	0.0294452	0.369592	-0.185869	0.216263	1.19314	0.0295125	0.691422	
0.660262	6.59942	0	0	0.274404	0.220424	0.334222	1.58672	0.481339	-0.232665	0.425666	0.682537	0.415521	-0.218105	0.19648	1.29649	0.172538	0.806311	1.27608	-0.78333	0.721183	-0.43059	0.719032	-0.426912	0.352125	-0.177646	0.841803	-0.505341	0.0176995	0.0292775	0.369592	-0.185869	0.215262	1.20703	0.030253	0.697688	
0.659887	6.60095	0	0	0.263787	0.222369	0.326772	1.58109	0.473293	-0.227408	0.420449	0.675744	0.407751	-0.213027	0.187279	1.2985	0.167745	0.811154	1.26897	-0.78032	0.718125	-0.428592	0.711171	-0.421775	0.347939	-0.17326	0.83815	-0.50131	0.0204583	0.0291098	0.369592	-0.185869	0.214261	1.22091	0.0309935	0.703953	
0.659405	6.59637	0	0	0.253171	0.224315	0.319322	1.57545	0.465248	-0.222151	0.415232	0.668951	0.39998	-0.20795	0.178078	1.3005	0.162953	0.815997	1.26185	-0.77731	0.715067	-0.426594	0.70331	-0.416639	0.343752	-0.168874	0.834497	-0.497278	0.023217	0.028942	0.369592	-0.185869	0.213261	1.2348	0.031734	0.710219	
0.658934	6.59332	0	0	0.246868	0.223445	0.315004	1.56988	0.457968	-0.219039	0.411757	0.664429	0.392971	-0.20501	0.173492	1.2895	0.16374	0.813771	1.25398	-0.77217	0.7059	-0.420604	0.687609	-0.40638	0.334239	-0.164309	0.825816	-0.491606	0.016196	0.0335295	0.369592	-0.185869	0.202943	1.2529	0.023265	0.717441	
0.65857	6.5918	0	0	0.240566	0.222575	0.310686	1.56431	0.450688	-0.215928	0.408281	0.659907	0.385962	-0.20207	0.168905	1.27849	0.164528	0.811546	1.24612	-0.767031	0.696734	-0.414614	0.671909	-0.396121	0.324727	-0.159743	0.817135	-0.485933	0.009175	0.038117	0.369592	-0.185869	0.192625	1.271	0.014796	0.724663	
0.658354	6.5979	0	0	0.234263	0.221706	0.306368	1.55874	0.443407	-0.212816	0.404806	0.655386	0.378952	-0.199129	0.164319	1.26749	0.165316	0.80932	1.23825	-0.761891	0.687567	-0.408625	0.656208	-0.385862	0.315214	-0.155178	0.808454	-0.48026	0.002154	0.0427045	0.369592	-0.185869	0.182307	1.2891	0.006327	0.731885	
0.658321	6.59485	0	0	0.227961	0.220836	0.30205	1.55317	0.436127	-0.209705	0.401331	0.650864	0.371943	-0.196189	0.159733	1.25648	0.166103	0.807094	1.23039	-0.756752	0.6784	-0.402635	0.640508	-0.375603	0.305701	-0.150613	0.799773	-0.474588	-0.004867	0.047292	0.369592	-0.185869	0.171989	1.30721	-0.002142	0.739107	
0.658502	6.58874	0	0	0.226431	0.225161	0.30012	1.55863	0.439387	-0.21019	0.40055	0.653072	0.366771	-0.192809	0.153312	1.2507	0.1621	0.809709	1.22177	-0.749483	0.669243	-0.396652	0.630057	-0.368774	0.29886	-0.146143	0.791101	-0.468921	-0.0111295	0.0497493	0.363351	-0.183428	0.166178	1.30153	-0.00210175	0.730643	
0.65893	6.59332	0	0	0.224901	0.229486	0.298189	1.56408	0.442648	-0.210674	0.399768	0.65528	0.3616	-0.18943	0.146891	1.24491	0.158097	0.812325	1.21316	-0.742213	0.660086	-0.390668	0.619606	-0.361945	0.292018	-0.141672	0.782428	-0.463255	-0.017392	0.0522065	0.357109	-0.180988	0.160367	1.29586	-0.0020615	0.722179	
0.659616	6.59485	0	0	0.22337	0.23381	0.296259	1.56954	0.445908	-0.211159	0.398987	0.657488	0.356428	-0.186051	0.140469	1.23912	0.154094	0.81494	1.20454	-0.734944	0.650929	-0.384684	0.609155	-0.355116	0.285176	-0.137201	0.773756	-0.457589	-0.0236545	0.0546637	0.350868	-0.178548	0.154556	1.29019	-0.00202125	0.713715	
0.660439	6.5918	0	0	0.22184	0.238135	0.294329	1.575	0.449169	-0.211644	0.398206	0.659696	0.351256	-0.182671	0.134048	1.23333	0.150091	0.817556	1.19593	-0.727675	0.641772	-0.378701	0.598704	-0.348287	0.278335	-0.132731	0.765084	-0.451922	-0.029917	0.057121	0.344627	-0.176107	0.148745	1.28452	-0.001981	0.705251	
0.661231	6.58569	0	0	0.218011	0.248956	0.293587	1.58598	0.445151	-0.209018	0.395079	0.668534	0.348671	-0.180982	0.134966	1.23074	0.142878	0.820558	1.18808	-0.722545	0.635673	-0.374716	0.586413	-0.341895	0.271499	-0.128264	0.765841	-0.454062	-0.0334225	0.0594115	0.341132	-0.173823	0.146277	1.28046	-0.0103973	0.704008	
0.661825	6.58874	0	0	0.214182	0.259777	0.292845	1.59696	0.441132	-0.206393	0.391952	0.677372	0.346086	-0.179293	0.135885	1.22814	0.135665	0.823561	1.18023	-0.717414	0.629574	-0.370731	0.574121	-0.335503	0.264663	-0.123797	0.766598	-0.456201	-0.036928	0.061702	0.337636	-0.171539	0.143809	1.27639	-0.0188135	0.702765	
0.662053	6.59027	0	0	0.210353	0.270598	0.292102	1.60794	0.437114	-0.203767	0.388824	0.686209	0.343501	-0.177604	0.136803	1.22555	0.128452	0.826564	1.17238	-0.712284	0.623474	-0.366745	0.561829	-0.32911	0.257826	-0.119331	0.767356	-0.458341	-0.0404335	0.0639925	0.334141	-0.169255	0.141341	1.27233	-0.0272298	0.701521	
0.661762	6.59027	0	0	0.206524	0.281419	0.29136	1.61892	0.433096	-0.201142	0.385697	0.695047	0.340916	-0.175915	0.137721	1.22295	0.121239	0.829566	1.16452	-0.707154	0.617375	-0.36276	0.549538	-0.322718	0.25099	-0.114864	0.768113	-0.460481	-0.043939	0.066283	0.330645	-0.166971	0.138873	1.26827	-0.035646	0.700278	
0.661033	6.58722	0	0	0.200232	0.280537	0.281033	1.62147	0.42908	-0.198518	0.379712	0.690465	0.330585	-0.169164	0.127637	1.22755	0.111613	0.830726	1.1496	-0.699041	0.61128	-0.358778	0.540965	-0.315478	0.247574	-0.112632	0.765224	-0.458593	-0.043939	0.066283	0.326397	-0.162558	0.136261	1.27565	-0.0379318	0.698403	
0.660135	6.58722	0	0	0.193941	0.279656	0.270705	1.62402	0.425064	-0.195893	0.373727	0.685884	0.320253	-0.162413	0.117553	1.23214	0.101988	0.831886	1.13467	-0.690929	0.605185	-0.354795	0.532393	-0.308237	0.244158	-0.110399	0.762336	-0.456706	-0.043939	0.066283	0.322149	-0.158145	0.13365	1.28303	-0.0402175	0.696527	
0.659341	6.59027	0	0	0.187649	0.278774	0.260377	1.62657	0.421048	-0.193269	0.367743	0.681303	0.309922	-0.155663	0.107468	1.23674	0.0923618	0.833047	1.11975	-0.682816	0.599091	-0.350813	0.523821	-0.300997	0.240742	-0.108167	0.759447	-0.454818	-0.043939	0.066283	0.317902	-0.153732	0.131038	1.29042	-0.0425032	0.694652	
0.658924	6.58874	0	0	0.181357	0.277893	0.25005	1.62911	0.417032	-0.190645	0.361758	0.676721	0.299591	-0.148912	0.097384	1.24133	0.082736	0.834207	1.10482	-0.674704	0.592996	-0.34683	0.515248	-0.293756	0.237326	-0.105935	0.756558	-0.452931	-0.043939	0.066283	0.313654	-0.149319	0.128426	1.2978	-0.044789	0.692777	
0.659157	6.58722	0	0	0.178596	0.276371	0.244783	1.62626	0.413018	-0.188022	0.355	0.674351	0.29701	-0.147226	0.0918983	1.23296	0.0746968	0.83092	1.08841	-0.662342	0.581574	-0.341006	0.50559	-0.289084	0.227846	-0.101391	0.745012	-0.445387	-0.0509455	0.0708613	0.30667	-0.144756	0.126684	1.30272	-0.0562445	0.691847	
0.660099	6.58874	0	0	0.175836	0.274848	0.239517	1.6234	0.409004	-0.185399	0.348241	0.671982	0.294429	-0.145539	0.0864125	1.22459	0.0666575	0.827632	1.072	-0.64998	0.570152	-0.335183	0.495931	-0.284412	0.218365	-0.0968465	0.733467	-0.437843	-0.057952	0.0754395	0.299687	-0.140192	0.124941	1.30765	-0.0677	0.690917	
0.661469	6.58569	0	0	0.173075	0.273325	0.234251	1.62055	0.404989	-0.182776	0.341483	0.669612	0.291848	-0.143853	0.0809267	1.21622	0.0586182	0.824345	1.0556	-0.637618	0.55873	-0.32936	0.486272	-0.27974	0.208885	-0.0923023	0.721921	-0.430299	-0.0649585	0.0800177	0.292704	-0.135628	0.123199	1.31257	-0.0791555	0.689988	
0.662952	6.58417	0	0	0.170315	0.271803	0.228984	1.61769	0.400975	-0.180153	0.334724	0.667242	0.289267	-0.142167	0.075441	1.20785	0.050579	0.821057	1.03919	-0.625256	0.547308	-0.323536	0.476614	-0.275068	0.199405	-0.087758	0.710376	-0.422755	-0.071965	0.084596	0.28572	-0.131065	0.121456	1.3175	-0.090611	0.689058	
0.664232	6.58111	0	0	0.164494	0.278933	0.236182	1.61509	0.39772	-0.179672	0.332993	0.664983	0.289267	-0.142167	0.0745287	1.20248	0.0457495	0.817388	1.03213	-0.622283	0.538187	-0.317576	0.466214	-0.268272	0.192585	-0.0833018	0.701727	-0.417104	-0.082464	0.0914563	0.275255	-0.124227	0.116529	1.30936	-0.09513	0.67689	
0.664997	6.58569	0	0	0.158674	0.286062	0.243381	1.61248	0.394465	-0.179191	0.331262	0.662723	0.289267	-0.142167	0.0736165	1.19711	0.04092	0.813719	1.02507	-0.619311	0.529065	-0.311616	0.455813	-0.261477	0.185766	-0.0788455	0.693078	-0.411452	-0.092963	0.0983165	0.26479	-0.117389	0.111603	1.30123	-0.099649	0.664721	
0.665012	6.58874	0	0	0.152854	0.293191	0.25058	1.60988	0.39121	-0.17871	0.329531	0.660463	0.289267	-0.142167	0.0727042	1.19173	0.0360905	0.810049	1.01801	-0.616339	0.519944	-0.305656	0.445413	-0.254681	0.178946	-0.0743892	0.68443	-0.405801	-0.103462	0.105177	0.254325	-0.110552	0.106676	1.2931	-0.104168	0.652553	
0.664376	6.58569	0	0	0.147033	0.300321	0.257778	1.60727	0.387955	-0.178229	0.3278	0.658204	0.289267	-0.142167	0.071792	1.18636	0.031261	0.80638	1.01095	-0.613366	0.510823	-0.299696	0.435013	-0.247885	0.172126	-0.069933	0.675781	-0.40015	-0.113961	0.112037	0.24386	-0.103714	0.10175	1.28496	-0.108687	0.640385	
0.663276	6.58264	0	0	0.151783	0.30554	0.258215	1.62379	0.39121	-0.17871	0.32373	0.662559	0.289267	-0.142167	0.0736202	1.18914	0.0248672	0.807148	1.00314	-0.608264	0.501711	-0.293742	0.432415	-0.246187	0.166071	-0.0676262	0.670777	-0.398525	-0.120953	0.116606	0.241128	-0.103567	0.0976955	1.27439	-0.113977	0.630428	
0.661895	6.59027	0	0	0.156533	0.310759	0.258651	1.64031	0.394465	-0.179191	0.319659	0.666913	0.289267	-0.142167	0.0754485	1.19193	0.0184735	0.807916	0.995329	-0.603161	0.4926	-0.287789	0.429817	-0.244489	0.160016	-0.0653195	0.665773	-0.3969	-0.127945	0.121175	0.238397	-0.103419	0.093641	1.26382	-0.119266	0.620472	
0.660417	6.58722	0	0	0.161284	0.315979	0.259087	1.65684	0.39772	-0.179672	0.315589	0.671267	0.289267	-0.142167	0.0772767	1.19471	0.0120798	0.808684	0.987521	-0.598059	0.483488	-0.281835	0.427219	-0.242792	0.153961	-0.0630128	0.660769	-0.395274	-0.134938	0.125743	0.235665	-0.103271	0.0895865	1.25325	-0.124556	0.610515	
0.659021	6.58111	0	0	0.166034	0.321198	0.259524	1.67336	0.400975	-0.180153	0.311519	0.675622	0.289267	-0.142167	0.079105	1.1975	0.005686	0.809452	0.979712	-0.592957	0.474377	-0.275881	0.424621	-0.241094	0.147906	-0.060706	0.655765	-0.393649	-0.14193	0.130312	0.232933	-0.103124	0.085532	1.24268	-0.129846	0.600558	
0.657813	6.58264	0	0	0.157453	0.326805	0.250384	1.68144	0.392952	-0.174911	0.300711	0.6776	0.284108	-0.138795	0.076356	1.20527	-0.0038925	0.810599	0.971911	-0.587859	0.467553	-0.269782	0.419427	-0.2377	0.143742	-0.056335	0.652129	-0.389629	-0.14193	0.130312	0.229449	-0.100847	0.0864002	1.24023	-0.129041	0.58999	
0.656857	6.58722	0	0	0.148872	0.332412	0.241243	1.68951	0.384929	-0.169668	0.289903	0.679579	0.278948	-0.135424	0.073607	1.21303	-0.013471	0.811746	0.964109	-0.582761	0.46073	-0.263683	0.414233	-0.234307	0.139577	-0.051964	0.648493	-0.385608	-0.14193	0.130312	0.225965	-0.098571	0.0872685	1.23778	-0.128237	0.579422	
0.656217	6.58569	0	0	0.140291	0.338019	0.232103	1.69759	0.376906	-0.164426	0.279095	0.681558	0.273788	-0.132052	0.070858	1.2208	-0.0230495	0.812894	0.956307	-0.577664	0.453906	-0.257585	0.409039	-0.230913	0.135412	-0.047593	0.644856	-0.381587	-0.14193	0.130312	0.222481	-0.0962945	0.0881367	1.23532	-0.127433	0.568853	
0.655959	6.57959	0	0	0.13171	0.343626	0.222963	1.70566	0.368883	-0.159184	0.268287	0.683536	0.268629	-0.128681	0.068109	1.22857	-0.032628	0.814041	0.948506	-0.572566	0.447082	-0.251486	0.403845	-0.227519	0.131248	-0.043222	0.64122	-0.377567	-0.14193	0.130312	0.218997	-0.094018	0.089005	1.23287	-0.126628	0.558285	
0.656143	6.58569	0	0	0.126202	0.340565	0.21867	1.70006	0.361625	-0.156087	0.263892	0.67456	0.266051	-0.126996	0.066287	1.21782	-0.0398425	0.808543	0.934764	-0.561946	0.434957	-0.243563	0.392712	-0.218606	0.120281	-0.034406	0.626839	-0.36817	-0.148917	0.134877	0.212787	-0.0915973	0.08394	1.23618	-0.130411	0.5524	
0.65673	6.59027	0	0	0.120695	0.337505	0.214377	1.69445	0.354368	-0.152991	0.259497	0.665583	0.263472	-0.125311	0.064465	1.20707	-0.047057	0.803045	0.921022	-0.551327	0.422832	-0.23564	0.38158	-0.209692	0.109315	-0.02559	0.612459	-0.358773	-0.155903	0.139443	0.206576	-0.0891765	0.078875	1.23949	-0.134195	0.546515	
0.657573	6.58874	0	0	0.115187	0.334445	0.210084	1.68885	0.34711	-0.149894	0.255103	0.656607	0.260894	-0.123627	0.062643	1.19632	-0.0542715	0.797547	0.907281	-0.540707	0.410706	-0.227718	0.370447	-0.200778	0.0983477	-0.016774	0.598078	-0.349377	-0.162889	0.144008	0.200366	-0.0867557	0.07381	1.2428	-0.137979	0.540629	
0.658519	6.58264	0	0	0.10968	0.331384	0.205791	1.68324	0.339852	-0.146797	0.250708	0.647631	0.258315	-0.121942	0.060821	1.18557	-0.061486	0.792049	0.893539	-0.530087	0.398581	-0.219795	0.359314	-0.191865	0.087381	-0.007958	0.583697	-0.33998	-0.169876	0.148573	0.194156	-0.084335	0.068745	1.24611	-0.141762	0.534744	
0.659414	6.58417	0	0	0.107694	0.327692	0.205578	1.67498	0.335847	-0.14418	0.248815	0.638729	0.252406	-0.116441	0.0553425	1.17723	-0.0710902	0.784733	0.877981	-0.519921	0.386473	-0.211884	0.346359	-0.1834	0.0771857	-0.00129625	0.571453	-0.330334	-0.176857	0.153135	0.179492	-0.073116	0.0613715	1.23397	-0.144008	0.524528	
0.660105	6.58722	0	0	0.105708	0.323999	0.205366	1.66671	0.331842	-0.141564	0.246923	0.629826	0.246496	-0.11094	0.049864	1.16889	-0.0806945	0.777416	0.862423	-0.509755	0.374365	-0.203972	0.333404	-0.174934	0.0669905	0.0053655	0.559208	-0.320688	-0.183837	0.157696	0.164828	-0.061897	0.053998	1.22183	-0.146254	0.514312	
0.660519	6.58874	0	0	0.103721	0.320306	0.205154	1.65845	0.327837	-0.138947	0.24503	0.620923	0.240587	-0.105439	0.0443855	1.16055	-0.0902988	0.770099	0.846865	-0.499589	0.362257	-0.19606	0.320449	-0.166469	0.0567953	0.0120272	0.546964	-0.311042	-0.190818	0.162257	0.150163	-0.050678	0.0466245	1.20969	-0.1485	0.504096	
0.660768	6.58722	0	0	0.101735	0.316614	0.204941	1.65019	0.323832	-0.13633	0.243138	0.612021	0.234677	-0.099938	0.038907	1.15221	-0.099903	0.762783	0.831307	-0.489423	0.350149	-0.188149	0.307494	-0.158004	0.0466	0.018689	0.534719	-0.301396	-0.197799	0.166819	0.135499	-0.039459	0.039251	1.19756	-0.150746	0.49388	
0.660991	6.58417	0	0	0.10097	0.318777	0.202042	1.65839	0.315828	-0.1311	0.241415	0.609771	0.226951	-0.0948895	0.037082	1.14944	-0.109491	0.755482	0.813192	-0.477586	0.338058	-0.180249	0.297144	-0.151241	0.03981	0.0231258	0.526114	-0.295773	-0.204774	0.171377	0.128552	-0.0349197	0.0393898	1.18619	-0.154527	0.488017	
0.661326	6.58874	0	0	0.100204	0.32094	0.199142	1.66658	0.307824	-0.12587	0.239691	0.607521	0.219224	-0.089841	0.035257	1.14666	-0.119078	0.748182	0.795076	-0.465749	0.325967	-0.172348	0.286794	-0.144478	0.03302	0.0275625	0.517508	-0.29015	-0.21175	0.175934	0.121606	-0.0303805	0.0395285	1.17482	-0.158308	0.482154	
0.661913	6.58569	0	0	0.0994385	0.323104	0.196242	1.67477	0.29982	-0.12064	0.237967	0.605271	0.211498	-0.0847925	0.033432	1.14388	-0.128665	0.740881	0.776961	-0.453912	0.313877	-0.164447	0.276443	-0.137715	0.02623	0.0319993	0.508903	-0.284527	-0.218725	0.180492	0.114659	-0.0258413	0.0396673	1.16345	-0.16209	0.476292	
0.662845	6.57806	0	0	0.098673	0.325267	0.193343	1.68297	0.291816	-0.11541	0.236244	0.603021	0.203772	-0.079744	0.031607	1.14111	-0.138253	0.73358	0.758846	-0.442075	0.301786	-0.156547	0.266093	-0.130952	0.01944	0.036436	0.500297	-0.278904	-0.2257	0.18505	0.107712	-0.021302	0.039806	1.15208	-0.165871	0.470429	
0.663971	6.58417	0	0	0.0873675	0.329328	0.18305	1.68549	0.279824	-0.107574	0.223756	0.602747	0.19938	-0.0785135	0.0279568	1.14349	-0.147824	0.726295	0.744104	-0.434083	0.295747	-0.152601	0.259093	-0.128018	0.0168065	0.0365068	0.498188	-0.279171	-0.222213	0.182772	0.10424	-0.0190338	0.0389412	1.15452	-0.164338	0.466097	
0.665049	6.58111	0	0	0.076062	0.33339	0.172758	1.68802	0.267832	-0.099738	0.211269	0.602473	0.194987	-0.077283	0.0243065	1.14588	-0.157394	0.71901	0.729362	-0.426091	0.289708	-0.148655	0.252094	-0.125083	0.014173	0.0365775	0.496078	-0.279438	-0.218726	0.180493	0.100769	-0.0167655	0.0380765	1.15696	-0.162805	0.461765	
0.665843	6.58111	0	0	0.0647565	0.337452	0.162465	1.69054	0.255839	-0.091902	0.198781	0.602199	0.190595	-0.0760525	0.0206563	1.14826	-0.166965	0.711725	0.71462	-0.418099	0.283668	-0.144709	0.245094	-0.122149	0.0115395	0.0366483	0.493968	-0.279704	-0.215239	0.178214	0.0972975	-0.0144972	0.0372118	1.15941	-0.161272	0.457433	
0.66611	6.57349	0	0	0.053451	0.341513	0.152172	1.69307	0.243847	-0.084066	0.186294	0.601925	0.186202	-0.074822	0.017006	1.15065	-0.176536	0.70444	0.699878	-0.410107	0.277629	-0.140763	0.238094	-0.119214	0.008906	0.036719	0.491859	-0.279971	-0.211752	0.175936	0.093826	-0.012229	0.036347	1.16185	-0.159739	0.453101	
0.665632	6.57501	0	0	0.0444572	0.339083	0.153893	1.67936	0.236619	-0.0809882	0.185956	0.588674	0.181058	-0.0714608	0.0106265	1.14491	-0.187643	0.701561	0.681833	-0.398317	0.266319	-0.135012	0.230347	-0.114152	0.002124	0.0411505	0.483265	-0.274356	-0.208264	0.173657	0.093826	-0.012229	0.042129	1.16747	-0.157465	0.454945	
0.664506	6.57654	0	0	0.0354635	0.336653	0.155614	1.66565	0.22939	-0.0779105	0.185617	0.575422	0.175914	-0.0680995	0.004247	1.13916	-0.19875	0.698682	0.663789	-0.386526	0.255008	-0.129262	0.222599	-0.109089	-0.004658	0.045582	0.474672	-0.26874	-0.204775	0.171378	0.093826	-0.012229	0.047911	1.1731	-0.15519	0.456789	
0.66311	6.57349	0	0	0.0264698	0.334222	0.157336	1.65193	0.222162	-0.0748328	0.185279	0.562171	0.17077	-0.0647382	-0.0021325	1.13342	-0.209858	0.695804	0.645745	-0.374735	0.243698	-0.123511	0.214852	-0.104026	-0.01144	0.0500135	0.466078	-0.263124	-0.201287	0.169098	0.093826	-0.012229	0.053693	1.17872	-0.152915	0.458634	
0.661827	6.57043	0	0	0.017476	0.331792	0.159057	1.63822	0.214934	-0.071755	0.184941	0.54892	0.165626	-0.061377	-0.008512	1.12768	-0.220965	0.692925	0.6277	-0.362945	0.232387	-0.11776	0.207104	-0.098964	-0.018222	0.054445	0.457484	-0.257509	-0.197799	0.166819	0.093826	-0.012229	0.059475	1.18434	-0.150641	0.460478	
0.66104	6.56891	0	0	0.020982	0.331162	0.159057	1.63822	0.215691	-0.073895	0.18821	0.546784	0.1623	-0.0575645	-0.00760025	1.1251	-0.222573	0.688913	0.619223	-0.355765	0.226361	-0.113822	0.199364	-0.0939065	-0.021611	0.0566593	0.448898	-0.251899	-0.197799	0.166819	0.0945798	-0.0143585	0.0612065	1.17945	-0.149874	0.458312	
0.661132	6.57501	0	0	0.024488	0.330531	0.159057	1.63822	0.216448	-0.076035	0.191478	0.544648	0.158975	-0.053752	-0.0066885	1.12252	-0.224182	0.684902	0.610746	-0.348585	0.220334	-0.109884	0.191624	-0.088849	-0.025	0.0588735	0.440313	-0.246289	-0.197799	0.166819	0.0953335	-0.016488	0.062938	1.17456	-0.149108	0.456145	
0.662223	6.57043	0	0	0.027994	0.329901	0.159057	1.63822	0.217206	-0.078175	0.194747	0.542513	0.155649	-0.0499395	-0.00577675	1.11995	-0.225791	0.680891	0.602269	-0.341405	0.214308	-0.105947	0.183883	-0.0837915	-0.028389	0.0610877	0.431728	-0.24068	-0.197799	0.166819	0.0960872	-0.0186175	0.0646695	1.16966	-0.148342	0.453979	
0.663956	6.56738	0	0	0.0315	0.329271	0.159057	1.63822	0.217963	-0.080315	0.198016	0.540377	0.152324	-0.046127	-0.004865	1.11737	-0.227399	0.676879	0.593792	-0.334225	0.208282	-0.102009	0.176143	-0.078734	-0.031778	0.063302	0.423142	-0.23507	-0.197799	0.166819	0.096841	-0.020747	0.066401	1.16477	-0.147575	0.451813	
0.665924	6.57196	0	0	0.0331598	0.34315	0.159476	1.65474	0.224434	-0.0812527	0.194309	0.557957	0.154895	-0.0478068	-0.002133	1.12549	-0.229729	0.683464	0.593792	-0.334225	0.208282	-0.102009	0.176143	-0.078734	-0.028389	0.0610877	0.428865	-0.238809	-0.194309	0.164539	0.0995588	-0.0208858	0.0596135	1.17297	-0.143022	0.455502	
0.667721	6.56738	0	0	0.0348195	0.357029	0.159894	1.67125	0.230905	-0.0821905	0.190603	0.575537	0.157466	-0.0494865	0.000599	1.13362	-0.23206	0.690049	0.593792	-0.334225	0.208282	-0.102009	0.176143	-0.078734	-0.025	0.0588735	0.434588	-0.242549	-0.19082	0.162258	0.102276	-0.0210245	0.052826	1.18116	-0.13847	0.459191	
0.66894	6.56586	0	0	0.0364792	0.370908	0.160313	1.68776	0.237376	-0.0831283	0.186896	0.593117	0.160037	-0.0511662	0.003331	1.14174	-0.23439	0.696635	0.593792	-0.334225	0.208282	-0.102009	0.176143	-0.078734	-0.021611	0.0566593	0.44031	-0.246288	-0.18733	0.159978	0.104994	-0.0211633	0.0460385	1.18936	-0.133917	0.462881	
0.66927	6.5628	0	0	0.038139	0.384787	0.160732	1.70428	0.243847	-0.084066	0.18319	0.610697	0.162608	-0.052846	0.006063	1.14986	-0.23672	0.70322	0.593792	-0.334225	0.208282	-0.102009	0.176143	-0.078734	-0.018222	0.054445	0.446033	-0.250027	-0.18384	0.157698	0.107712	-0.021302	0.039251	1.19756	-0.129364	0.46657	
0.668898	6.56433	0	0	0.038583	0.392824	0.158032	1.72076	0.247842	-0.0866767	0.185074	0.61959	0.16518	-0.0545265	0.008788	1.16596	-0.236669	0.711633	0.601514	-0.339271	0.21054	-0.101845	0.181303	-0.0821052	-0.0121995	0.05216	0.454624	-0.25564	-0.174115	0.152978	0.120858	-0.028254	0.0415625	1.213	-0.123296	0.474283	
0.668166	6.5628	0	0	0.039027	0.400861	0.155331	1.73725	0.251838	-0.0892875	0.186958	0.628483	0.167751	-0.056207	0.011513	1.18205	-0.236617	0.720045	0.609236	-0.344317	0.212798	-0.10168	0.186462	-0.0854765	-0.006177	0.049875	0.463215	-0.261254	-0.16439	0.148259	0.134003	-0.035206	0.043874	1.22845	-0.117228	0.481996	
0.667418	6.55975	0	0	0.039471	0.408898	0.152631	1.75374	0.255833	-0.0918983	0.188843	0.637375	0.170322	-0.0578875	0.014238	1.19814	-0.236566	0.728457	0.616957	-0.349362	0.215055	-0.101515	0.191622	-0.0888478	-0.0001545	0.04759	0.471806	-0.266867	-0.154665	0.143539	0.147149	-0.042158	0.0461855	1.24389	-0.11116	0.489709	
0.666997	6.55823	0	0	0.039915	0.416935	0.14993	1.77022	0.259829	-0.094509	0.190727	0.646268	0.172894	-0.059568	0.016963	1.21423	-0.236514	0.73687	0.624679	-0.354408	0.217313	-0.101351	0.196781	-0.092219	0.005868	0.045305	0.480397	-0.272481	-0.14494	0.138819	0.160295	-0.04911	0.048497	1.25934	-0.105092	0.497422	
0.667227	6.5628	0	0	0.0356385	0.419729	0.150899	1.76749	0.259829	-0.094509	0.190891	0.652919	0.175466	-0.0612488	0.0160477	1.21682	-0.232523	0.742719	0.627255	-0.356091	0.220327	-0.10332	0.194201	-0.090533	0.009261	0.0430878	0.483263	-0.274353	-0.137948	0.13425	0.168007	-0.0557867	0.0508012	1.27483	-0.102839	0.507648	
0.668112	6.56128	0	0	0.031362	0.422524	0.151868	1.76475	0.259829	-0.094509	0.191055	0.659569	0.178039	-0.0629295	0.0151325	1.2194	-0.228533	0.748568	0.62983	-0.357773	0.22334	-0.105289	0.19162	-0.088847	0.012654	0.0408705	0.486128	-0.276226	-0.130956	0.129681	0.175718	-0.0624635	0.0531055	1.29032	-0.100586	0.517873	
0.669404	6.55975	0	0	0.0270855	0.425319	0.152837	1.76201	0.259829	-0.094509	0.191218	0.66622	0.180612	-0.0646103	0.0142172	1.22199	-0.224543	0.754416	0.632405	-0.359456	0.226354	-0.107258	0.18904	-0.087161	0.016047	0.0386533	0.488993	-0.278099	-0.123963	0.125112	0.18343	-0.0691403	0.0554098	1.30581	-0.098333	0.528099	
0.670846	6.55975	0	0	0.022809	0.428113	0.153806	1.75927	0.259829	-0.094509	0.191382	0.672871	0.183184	-0.066291	0.013302	1.22458	-0.220552	0.760265	0.634981	-0.361139	0.229368	-0.109227	0.18646	-0.085475	0.01944	0.036436	0.491859	-0.279971	-0.116971	0.120543	0.191142	-0.075817	0.057714	1.3213	-0.09608	0.538325	
0.672181	6.56433	0	0	0.0263185	0.427486	0.162931	1.7512	0.264584	-0.0992612	0.197319	0.677448	0.186512	-0.070105	0.0105655	1.22438	-0.218946	0.764294	0.638313	-0.364957	0.232383	-0.111197	0.183126	-0.0816575	0.01944	0.036436	0.491102	-0.277831	-0.116971	0.120543	0.191142	-0.075817	0.0484573	1.32546	-0.09685	0.540501	
0.673153	6.55823	0	0	0.029828	0.42686	0.172056	1.74314	0.269338	-0.104013	0.203255	0.682025	0.189839	-0.073919	0.007829	1.22418	-0.217339	0.768323	0.641644	-0.368775	0.235397	-0.113167	0.179792	-0.07784	0.01944	0.036436	0.490345	-0.275691	-0.116971	0.120543	0.191142	-0.075817	0.0392005	1.32962	-0.09762	0.542677	
0.67362	6.5567	0	0	0.0333375	0.426234	0.181181	1.73507	0.274093	-0.108766	0.209192	0.686603	0.193167	-0.077733	0.0050925	1.22398	-0.215732	0.772353	0.644975	-0.372592	0.238412	-0.115137	0.176459	-0.0740225	0.01944	0.036436	0.489588	-0.273552	-0.116971	0.120543	0.191142	-0.075817	0.0299437	1.33378	-0.09839	0.544852	
0.673695	6.5567	0	0	0.036847	0.425607	0.190306	1.727	0.278848	-0.113518	0.215129	0.69118	0.196495	-0.081547	0.002356	1.22378	-0.214126	0.776382	0.648307	-0.37641	0.241427	-0.117107	0.173125	-0.070205	0.01944	0.036436	0.488831	-0.271412	-0.116971	0.120543	0.191142	-0.075817	0.020687	1.33793	-0.09916	0.547028	
0.673522	6.5628	0	0	0.0380555	0.431488	0.192654	1.73811	0.28209	-0.113991	0.216231	0.702317	0.201644	-0.0849112	0.0069145	1.22676	-0.209352	0.78004	0.65604	-0.381463	0.244443	-0.119078	0.178285	-0.0735763	0.02623	0.0319992	0.491698	-0.273285	-0.119715	0.120702	0.191142	-0.075817	0.0140503	1.33471	-0.09839	0.544852	
0.67325	6.56128	0	0	0.039264	0.437369	0.195002	1.74921	0.285332	-0.114464	0.217332	0.713453	0.206792	-0.0882755	0.011473	1.22975	-0.204578	0.783698	0.663774	-0.386516	0.247458	-0.121048	0.183444	-0.0769475	0.03302	0.0275625	0.494564	-0.275158	-0.122459	0.12086	0.191142	-0.075817	0.0074135	1.33149	-0.09762	0.542677	
0.673025	6.55212	0	0	0.0404725	0.44325	0.197351	1.76031	0.288574	-0.114937	0.218434	0.724589	0.211941	-0.0916398	0.0160315	1.23274	-0.199803	0.787356	0.671507	-0.391569	0.250474	-0.123019	0.188603	-0.0803187	0.03981	0.0231258	0.49743	-0.277031	-0.125204	0.121019	0.191142	-0.075817	0.00077675	1.32827	-0.09685	0.540501	
0.67297	6.55365	0	0	0.041681	0.449131	0.199699	1.77141	0.291816	-0.11541	0.219536	0.735726	0.217089	-0.095004	0.02059	1.23573	-0.195029	0.791014	0.67924	-0.396622	0.25349	-0.124989	0.193763	-0.08369	0.0466	0.018689	0.500297	-0.278904	-0.127948	0.121177	0.191142	-0.075817	-0.00586	1.32505	-0.09608	0.538325	
0.673055	6.5628	0	0	0.041681	0.449131	0.194645	1.77682	0.287059	-0.110656	0.217975	0.740137	0.216335	-0.0928713	0.020579	1.2437	-0.198152	0.799839	0.678485	-0.394488	0.259525	-0.128933	0.191937	-0.0841362	0.049997	0.0164695	0.506033	-0.282652	-0.127948	0.121177	0.195377	-0.0802212	-0.00167325	1.3242	-0.09608	0.538325	
0.673181	6.55823	0	0	0.041681	0.449131	0.189592	1.78223	0.282303	-0.105902	0.216415	0.744549	0.21558	-0.0907385	0.020568	1.25168	-0.201274	0.808663	0.67773	-0.392354	0.26556	-0.132876	0.190111	-0.0845825	0.053394	0.01425	0.511769	-0.2864	-0.127948	0.121177	0.199611	-0.0846255	0.0025135	1.32336	-0.09608	0.538325	
0.673248	6.5506	0	0	0.041681	0.449131	0.184538	1.78764	0.277546	-0.101147	0.214854	0.74896	0.214826	-0.0886057	0.020557	1.25965	-0.204397	0.817488	0.676975	-0.390219	0.271594	-0.13682	0.188286	-0.0850288	0.056791	0.0120305	0.517505	-0.290148	-0.127948	0.121177	0.203846	-0.0890298	0.00670025	1.32251	-0.09608	0.538325	
0.673159	6.54907	0	0	0.041681	0.449131	0.179485	1.79305	0.272789	-0.096393	0.213293	0.753371	0.214071	-0.086473	0.020546	1.26762	-0.207519	0.826313	0.67622	-0.388085	0.277629	-0.140763	0.18646	-0.085475	0.060188	0.009811	0.523241	-0.293896	-0.127948	0.121177	0.208081	-0.093434	0.010887	1.32166	-0.09608	0.538325	
0.672814	6.5567	0	0	0.0311543	0.451006	0.180253	1.78202	0.264796	-0.0911703	0.212354	0.748898	0.209677	-0.0852415	0.018735	1.25686	-0.210686	0.826685	0.671064	-0.384716	0.278384	-0.142896	0.183881	-0.0837897	0.0609475	0.00766425	0.523998	-0.296036	-0.124451	0.118892	0.207327	-0.0913045	0.003222	1.33234	-0.0998992	0.540821	
0.672168	6.55365	0	0	0.0206275	0.452881	0.181021	1.77098	0.256803	-0.0859475	0.211415	0.744425	0.205283	-0.08401	0.016924	1.2461	-0.213853	0.827058	0.665907	-0.381347	0.279139	-0.145029	0.181302	-0.0821045	0.061707	0.0055175	0.524755	-0.298176	-0.120955	0.116607	0.206574	-0.089175	-0.004443	1.34302	-0.103718	0.543316	
0.671231	6.54755	0	0	0.0101007	0.454755	0.181788	1.75994	0.24881	-0.0807247	0.210476	0.739953	0.200889	-0.0827785	0.015113	1.23534	-0.217019	0.82743	0.660751	-0.377977	0.279894	-0.147162	0.178722	-0.0804192	0.0624665	0.00337075	0.525513	-0.300316	-0.117458	0.114322	0.20582	-0.0870455	-0.012108	1.35369	-0.107538	0.545812	
0.670018	6.5506	0	0	-0.000426	0.45663	0.182556	1.7489	0.240817	-0.075502	0.209537	0.73548	0.196495	-0.081547	0.013302	1.22458	-0.220186	0.827803	0.655594	-0.374608	0.280649	-0.149295	0.176143	-0.078734	0.063226	0.001224	0.52627	-0.302456	-0.113961	0.112037	0.205067	-0.084916	-0.019773	1.36437	-0.111357	0.548307	
0.668545	6.55212	0	0	0.001875	0.450126	0.18235	1.74062	0.236823	-0.0728925	0.210317	0.733276	0.193922	-0.0798657	0.0133097	1.21662	-0.22179	0.823764	0.651196	-0.373375	0.280649	-0.149295	0.176143	-0.078734	0.059829	0.00344375	0.52627	-0.302456	-0.120953	0.116606	0.198106	-0.0803675	-0.0220555	1.34887	-0.115913	0.544597	
0.666825	6.54907	0	0	0.004176	0.443623	0.182145	1.73234	0.232829	-0.070283	0.211097	0.731071	0.191349	-0.0781845	0.0133175	1.20866	-0.223394	0.819724	0.646798	-0.372142	0.280649	-0.149295	0.176143	-0.078734	0.056432	0.0056635	0.52627	-0.302456	-0.127945	0.121175	0.191145	-0.075819	-0.024338	1.33337	-0.120469	0.540887	
0.664914	6.54297	0	0	0.006477	0.437119	0.18194	1.72406	0.228836	-0.0676735	0.211877	0.728867	0.188775	-0.0765032	0.0133253	1.20071	-0.224999	0.815685	0.6424	-0.370909	0.280649	-0.149295	0.176143	-0.078734	0.053035	0.00788325	0.52627	-0.302456	-0.134938	0.125743	0.184184	-0.0712705	-0.0266205	1.31787	-0.125025	0.537177	
0.662985	6.54907	0	0	0.008778	0.430616	0.181734	1.71578	0.224842	-0.065064	0.212657	0.726663	0.186202	-0.074822	0.013333	1.19275	-0.226603	0.811646	0.638002	-0.369676	0.280649	-0.149295	0.176143	-0.078734	0.049638	0.010103	0.52627	-0.302456	-0.14193	0.130312	0.177223	-0.066722	-0.028903	1.30237	-0.129581	0.533467	
0.661237	6.55212	0	0	0.0115185	0.432158	0.18699	1.71865	0.224084	-0.0629227	0.216878	0.72899	0.18363	-0.073141	0.0151555	1.19554	-0.230547	0.814223	0.638002	-0.369676	0.284422	-0.1534	0.176897	-0.0808655	0.0503973	0.007957	0.529896	-0.30647	-0.149669	0.137004	0.173744	-0.0644492	-0.0346578	1.29671	-0.134902	0.531933	
0.659865	6.54602	0	0	0.014259	0.4337	0.192245	1.72153	0.223326	-0.0607815	0.221099	0.731317	0.181058	-0.07146	0.016978	1.19832	-0.234492	0.8168	0.638002	-0.369676	0.288196	-0.157506	0.177652	-0.082997	0.0511565	0.005811	0.533523	-0.310484	-0.157408	0.143696	0.170266	-0.0621765	-0.0404125	1.29104	-0.140222	0.530398	
0.659066	6.54449	0	0	0.0169995	0.435242	0.1975	1.72441	0.222569	-0.0586402	0.225319	0.733644	0.178485	-0.069779	0.0188005	1.2011	-0.238436	0.819377	0.638002	-0.369676	0.291969	-0.161612	0.178406	-0.0851285	0.0519157	0.003665	0.537149	-0.314499	-0.165147	0.150387	0.166788	-0.0599038	-0.0461673	1.28538	-0.145542	0.528864	
0.658987	6.54144	0	0	0.01974	0.436784	0.202756	1.72729	0.221811	-0.056499	0.22954	0.735971	0.175913	-0.068098	0.020623	1.20389	-0.24238	0.821954	0.638002	-0.369676	0.295743	-0.165717	0.17916	-0.08726	0.052675	0.001519	0.540775	-0.318513	-0.172886	0.157079	0.163309	-0.057631	-0.051922	1.27972	-0.150863	0.52733	
0.659423	6.54907	0	0	0.0127273	0.438034	0.194596	1.73262	0.215344	-0.0555657	0.224539	0.735848	0.168955	-0.0651908	0.0187928	1.20906	-0.245542	0.822325	0.633607	-0.368445	0.298763	-0.16769	0.1869	-0.0923178	0.0560723	-0.00070075	0.549389	-0.324141	-0.168641	0.15267	0.166788	-0.0599038	-0.0510553	1.27727	-0.151632	0.529502	
0.660024	6.54907	0	0	0.0057145	0.439283	0.186435	1.73795	0.208878	-0.0546325	0.219538	0.735726	0.161996	-0.0622835	0.0169625	1.21423	-0.248704	0.822696	0.629212	-0.367213	0.301783	-0.169663	0.19464	-0.0973755	0.0594695	-0.0029205	0.558003	-0.32977	-0.164396	0.148262	0.170266	-0.0621765	-0.0501885	1.27482	-0.1524	0.531674	
0.660442	6.54144	0	0	-0.00129825	0.440532	0.178275	1.74328	0.202412	-0.0536993	0.214538	0.735603	0.155038	-0.0593762	0.0151322	1.2194	-0.251866	0.823068	0.624816	-0.365982	0.304803	-0.171637	0.202381	-0.102433	0.0628667	-0.00514025	0.566618	-0.335399	-0.160151	0.143854	0.173744	-0.0644492	-0.0493217	1.27237	-0.153168	0.533846	
0.660326	6.54449	0	0	-0.008311	0.441782	0.170115	1.74861	0.195945	-0.052766	0.209537	0.73548	0.14808	-0.056469	0.013302	1.22458	-0.255028	0.823439	0.620421	-0.36475	0.307823	-0.17361	0.210121	-0.107491	0.066264	-0.00736	0.575232	-0.341027	-0.155906	0.139445	0.177223	-0.066722	-0.048455	1.26992	-0.153937	0.536018	
0.659343	6.54755	0	0	-0.0114862	0.432204	0.169702	1.73207	0.19746	-0.057046	0.211714	0.722204	0.142942	-0.0531117	0.00692525	1.21881	-0.259788	0.819774	0.615274	-0.361387	0.307823	-0.17361	0.210121	-0.107491	0.0628667	-0.00514025	0.575232	-0.341027	-0.156658	0.141572	0.179949	-0.0668655	-0.0536582	1.28463	-0.154706	0.538191	
0.657514	6.54297	0	0	-0.0146615	0.422627	0.16929	1.71552	0.198974	-0.061326	0.21389	0.708928	0.137804	-0.0497545	0.0005485	1.21304	-0.264549	0.816108	0.610127	-0.358024	0.307823	-0.17361	0.210121	-0.107491	0.0594695	-0.0029205	0.575232	-0.341027	-0.157411	0.143698	0.182675	-0.067009	-0.0588615	1.29933	-0.155475	0.540363	
0.655166	6.53381	0	0	-0.0178367	0.41305	0.168878	1.69897	0.200488	-0.065606	0.216067	0.695652	0.132667	-0.0463973	-0.00582825	1.20726	-0.269309	0.812442	0.60498	-0.35466	0.307823	-0.17361	0.210121	-0.107491	0.0560723	-0.00070075	0.575232	-0.341027	-0.158163	0.145824	0.185401	-0.0671525	-0.0640648	1.31404	-0.156243	0.542535	
0.652642	6.53839	0	0	-0.021012	0.403472	0.168465	1.68242	0.202003	-0.069886	0.218244	0.682376	0.127529	-0.04304	-0.012205	1.20149	-0.27407	0.808777	0.599833	-0.351297	0.307823	-0.17361	0.210121	-0.107491	0.052675	0.001519	0.575232	-0.341027	-0.158915	0.147951	0.188127	-0.067296	-0.069268	1.32874	-0.157012	0.544708	
0.650281	6.54449	0	0	-0.0152132	0.396357	0.17855	1.67163	0.198772	-0.0694195	0.224636	0.671435	0.123148	-0.0418165	-0.007638	1.18859	-0.278826	0.805115	0.598015	-0.351749	0.307823	-0.17361	0.210121	-0.107491	0.0500385	0.0015925	0.572359	-0.33915	-0.165146	0.150388	0.178446	-0.0626077	-0.0699725	1.31978	-0.158517	0.540682	
0.648422	6.53992	0	0	-0.0094145	0.389242	0.188634	1.66085	0.195541	-0.068953	0.231028	0.660494	0.118768	-0.040593	-0.003071	1.17568	-0.283582	0.801454	0.596197	-0.352202	0.307823	-0.17361	0.210121	-0.107491	0.047402	0.001666	0.569487	-0.337274	-0.171378	0.152825	0.168764	-0.0579195	-0.070677	1.31082	-0.160023	0.536656	
0.647212	6.53686	0	0	-0.00361575	0.382128	0.198719	1.65006	0.192309	-0.0684865	0.23742	0.649552	0.114388	-0.0393695	0.001496	1.16277	-0.288339	0.797793	0.59438	-0.352654	0.307823	-0.17361	0.210121	-0.107491	0.0447655	0.0017395	0.566615	-0.335397	-0.177609	0.155261	0.159083	-0.0532313	-0.0713815	1.30186	-0.161528	0.53263	
0.646518	6.53839	0	0	0.002183	0.375013	0.208804	1.63927	0.189078	-0.06802	0.243812	0.638611	0.110007	-0.038146	0.006063	1.14986	-0.293095	0.794131	0.592562	-0.353106	0.307823	-0.17361	0.210121	-0.107491	0.042129	0.001813	0.563742	-0.33352	-0.18384	0.157698	0.149402	-0.048543	-0.072086	1.2929	-0.163033	0.528604	
0.646185	6.53839	0	0	0.00645325	0.372223	0.215998	1.63667	0.193066	-0.0706258	0.245367	0.634215	0.107441	-0.0364693	0.007888	1.14471	-0.297028	0.796701	0.592562	-0.353106	0.310844	-0.175584	0.212703	-0.109178	0.04137	0.0039585	0.563742	-0.33352	-0.188082	0.162105	0.145926	-0.046272	-0.0719282	1.2815	-0.168346	0.527069	
0.646058	6.53229	0	0	0.0107235	0.369432	0.223193	1.63407	0.197054	-0.0732315	0.246923	0.629819	0.104874	-0.0347925	0.009713	1.13955	-0.300961	0.799271	0.592562	-0.353106	0.313866	-0.177559	0.215284	-0.110865	0.040611	0.006104	0.563742	-0.33352	-0.192325	0.166512	0.142451	-0.044001	-0.0717705	1.27011	-0.173658	0.525535	
0.645983	6.53229	0	0	0.0149938	0.366642	0.230387	1.63146	0.201043	-0.0758372	0.248478	0.625423	0.102308	-0.0331157	0.011538	1.13439	-0.304895	0.801841	0.592562	-0.353106	0.316887	-0.179533	0.217866	-0.112552	0.039852	0.0082495	0.563742	-0.33352	-0.196567	0.170918	0.138975	-0.04173	-0.0716128	1.25872	-0.178971	0.524	
0.645852	6.53076	0	0	0.019264	0.363852	0.237582	1.62886	0.205031	-0.078443	0.250034	0.621027	0.099742	-0.031439	0.013363	1.12923	-0.308828	0.804411	0.592562	-0.353106	0.319908	-0.181507	0.220448	-0.114239	0.039093	0.010395	0.563742	-0.33352	-0.200809	0.175325	0.135499	-0.039459	-0.071455	1.24733	-0.184283	0.522465	
0.645668	6.53534	0	0	0.013463	0.370968	0.231568	1.63699	0.204274	-0.0763038	0.246586	0.616526	0.094612	-0.0280868	0.009716	1.13162	-0.314354	0.802949	0.58742	-0.349746	0.319908	-0.181507	0.225614	-0.117614	0.039093	0.010395	0.563742	-0.33352	-0.207032	0.177756	0.132025	-0.037189	-0.0688602	1.23999	-0.18198	0.515958	
0.645451	6.52923	0	0	0.007662	0.378084	0.225554	1.64512	0.203517	-0.0741645	0.243139	0.612024	0.089482	-0.0247345	0.006069	1.134	-0.319881	0.801488	0.582278	-0.346386	0.319908	-0.181507	0.230779	-0.120989	0.039093	0.010395	0.563742	-0.33352	-0.213255	0.180188	0.128551	-0.034919	-0.0662655	1.23266	-0.179678	0.509451	
0.64522	6.52618	0	0	0.001861	0.3852	0.219541	1.65325	0.20276	-0.0720252	0.239692	0.607522	0.084352	-0.0213823	0.002422	1.13638	-0.325407	0.800026	0.577135	-0.343026	0.319908	-0.181507	0.235945	-0.124365	0.039093	0.010395	0.563742	-0.33352	-0.219477	0.182619	0.125077	-0.032649	-0.0636707	1.22533	-0.177376	0.502944	
0.644995	6.52923	0	0	-0.00394	0.392316	0.213527	1.66138	0.202003	-0.069886	0.236244	0.603021	0.079222	-0.01803	-0.001225	1.13877	-0.330933	0.798565	0.571993	-0.339666	0.319908	-0.181507	0.241111	-0.12774	0.039093	0.010395	0.563742	-0.33352	-0.2257	0.18505	0.121603	-0.030379	-0.061076	1.21799	-0.175073	0.496437	
0.644781	6.53381	0	0	-0.00788425	0.384921	0.218135	1.63949	0.194786	-0.0668148	0.231679	0.587463	0.074849	-0.016811	-0.00395675	1.13065	-0.339601	0.797471	0.56504	-0.336762	0.319908	-0.181507	0.238528	-0.126052	0.0356985	0.0126127	0.563742	-0.33352	-0.218725	0.180492	0.11813	-0.0281097	-0.0577675	1.21959	-0.182683	0.50141	
0.644538	6.53381	0	0	-0.0118285	0.377526	0.222744	1.6176	0.187568	-0.0637435	0.227114	0.571905	0.070476	-0.015592	-0.0066885	1.12253	-0.348268	0.796377	0.558086	-0.333858	0.319908	-0.181507	0.235945	-0.124364	0.032304	0.0148305	0.563742	-0.33352	-0.21175	0.175934	0.114657	-0.0258405	-0.054459	1.22119	-0.190293	0.506382	
0.644211	6.53229	0	0	-0.0157727	0.370132	0.227353	1.59571	0.18035	-0.0606722	0.22255	0.556348	0.066103	-0.014373	-0.00942025	1.11441	-0.356936	0.795283	0.551133	-0.330954	0.319908	-0.181507	0.233361	-0.122677	0.0289095	0.0170483	0.563742	-0.33352	-0.204774	0.171377	0.111185	-0.0235713	-0.0511505	1.22278	-0.197902	0.511354	
0.643747	6.53534	0	0	-0.019717	0.362737	0.231961	1.57383	0.173133	-0.057601	0.217985	0.54079	0.06173	-0.013154	-0.012152	1.10629	-0.365604	0.794189	0.54418	-0.32805	0.319908	-0.181507	0.230778	-0.120989	0.025515	0.019266	0.563742	-0.33352	-0.197799	0.166819	0.107712	-0.021302	-0.047842	1.22438	-0.205512	0.516327	
0.643094	6.54144	0	0	-0.0174247	0.356258	0.230774	1.56832	0.173133	-0.057601	0.220905	0.525429	0.0558517	-0.00767475	-0.014884	1.09819	-0.371116	0.792727	0.535724	-0.320885	0.316132	-0.1774	0.22486	-0.115483	0.0213627	0.0236292	0.554374	-0.325754	-0.201287	0.169098	0.101524	-0.018896	-0.0587805	1.23341	-0.207014	0.512309	
0.642231	6.53686	0	0	-0.0151325	0.34978	0.229588	1.56282	0.173133	-0.057601	0.223826	0.510069	0.0499735	-0.0021955	-0.017616	1.09009	-0.376629	0.791265	0.527268	-0.313721	0.312357	-0.173293	0.218941	-0.109977	0.0172105	0.0279925	0.545006	-0.317988	-0.204775	0.171378	0.0953365	-0.01649	-0.069719	1.24243	-0.208516	0.508292	
0.641328	6.53076	0	0	-0.0128402	0.343301	0.228402	1.55731	0.173133	-0.057601	0.226746	0.494708	0.0440953	0.00328375	-0.020348	1.08198	-0.382142	0.789804	0.518813	-0.306557	0.308581	-0.169187	0.213023	-0.10447	0.0130583	0.0323558	0.535638	-0.310222	-0.208264	0.173657	0.0891487	-0.014084	-0.0806575	1.25146	-0.210017	0.504274	
0.640624	6.53839	0	0	-0.010548	0.336823	0.227215	1.55181	0.173133	-0.057601	0.229666	0.479348	0.038217	0.008763	-0.02308	1.07388	-0.387654	0.788342	0.510357	-0.299392	0.304805	-0.16508	0.207104	-0.098964	0.008906	0.036719	0.52627	-0.302456	-0.211752	0.175936	0.082961	-0.011678	-0.091596	1.26049	-0.211519	0.500257	
0.640358	6.53992	0	0	-0.0128402	0.343301	0.232481	1.55464	0.176362	-0.0580665	0.229666	0.479348	0.0407788	0.007089	-0.019439	1.0715	-0.388431	0.790537	0.510357	-0.299392	0.30405	-0.162947	0.204523	-0.0972777	0.008906	0.036719	0.523402	-0.300582	-0.214486	0.176088	0.0760252	-0.00714625	-0.093169	1.254	-0.213021	0.496243	
0.640766	6.53534	0	0	-0.0151325	0.34978	0.237746	1.55748	0.179592	-0.058532	0.229666	0.479348	0.0433405	0.005415	-0.015798	1.06912	-0.389208	0.792732	0.510357	-0.299392	0.303295	-0.160813	0.201943	-0.0955915	0.008906	0.036719	0.520533	-0.298707	-0.217221	0.176241	0.0690895	-0.0026145	-0.094742	1.24751	-0.214523	0.492229	
0.642037	6.53381	0	0	-0.0174247	0.356258	0.243012	1.56032	0.182821	-0.0589975	0.229666	0.479348	0.0459022	0.003741	-0.012157	1.06674	-0.389984	0.794927	0.510357	-0.299392	0.302541	-0.15868	0.199362	-0.0939052	0.008906	0.036719	0.517664	-0.296832	-0.219955	0.176393	0.0621538	0.00191725	-0.096315	1.24102	-0.216024	0.488216	
0.643903	6.53839	0	0	-0.019717	0.362737	0.248278	1.56316	0.18605	-0.059463	0.229666	0.479348	0.048464	0.002067	-0.008516	1.06436	-0.390761	0.797122	0.510357	-0.299392	0.301786	-0.156547	0.196781	-0.092219	0.008906	0.036719	0.514796	-0.294958	-0.22269	0.176545	0.055218	0.006449	-0.097888	1.23453	-0.217526	0.484202	
0.64587	6.53992	0	0	-0.017304	0.37446	0.24582	1.58785	0.192514	-0.0603957	0.234067	0.488242	0.0561535	-0.00295725	-0.00395775	1.07523	-0.386804	0.80298	0.523196	-0.307781	0.307074	-0.158362	0.201189	-0.09346	0.014174	0.0365775	0.519777	-0.296567	-0.219955	0.176393	0.0621538	0.00191725	-0.0937203	1.23369	-0.212222	0.485731	
0.647439	6.53534	0	0	-0.014891	0.386182	0.243363	1.61253	0.198978	-0.0613285	0.238467	0.497136	0.063843	-0.0079815	0.0006005	1.0861	-0.382848	0.808839	0.536034	-0.31617	0.312362	-0.160177	0.205597	-0.094701	0.019442	0.036436	0.524757	-0.298177	-0.217221	0.176241	0.0690895	-0.0026145	-0.0895525	1.23284	-0.206918	0.48726	
0.648112	6.53381	0	0	-0.012478	0.397905	0.240905	1.63722	0.205441	-0.0622613	0.242868	0.50603	0.0715325	-0.0130057	0.00515875	1.09697	-0.378891	0.814697	0.548873	-0.324559	0.317651	-0.161992	0.210005	-0.095942	0.02471	0.0362945	0.529738	-0.299787	-0.214486	0.176088	0.0760252	-0.00714625	-0.0853847	1.232	-0.201614	0.48879	
0.647423	6.53839	0	0	-0.010065	0.409628	0.238448	1.6619	0.211905	-0.063194	0.247269	0.514924	0.079222	-0.01803	0.009717	1.10784	-0.374934	0.820556	0.561712	-0.332948	0.322939	-0.163807	0.214413	-0.097183	0.029978	0.036153	0.534719	-0.301396	-0.211752	0.175936	0.082961	-0.011678	-0.081217	1.23115	-0.19631	0.490319	
0.645471	6.53686	0	0	-0.01313	0.41829	0.238662	1.67017	0.211905	-0.063194	0.242446	0.521442	0.0835977	-0.0192505	0.0124493	1.1239	-0.374091	0.835231	0.571242	-0.337535	0.329741	-0.169893	0.225502	-0.106068	0.0375305	0.0295675	0.543333	-0.307025	-0.201283	0.169095	0.0899022	-0.0162135	-0.0679825	1.23755	-0.195574	0.496504	
0.642828	6.52923	0	0	-0.016195	0.426952	0.238875	1.67844	0.211905	-0.063194	0.237623	0.52796	0.0879735	-0.020471	0.0151815	1.13996	-0.373248	0.849905	0.580772	-0.342122	0.336544	-0.175978	0.236591	-0.114953	0.045083	0.022982	0.551947	-0.312654	-0.190814	0.162255	0.0968435	-0.020749	-0.054748	1.24395	-0.194837	0.502688	
0.640078	6.53229	0	0	-0.01926	0.435614	0.239089	1.68672	0.211905	-0.063194	0.2328	0.534478	0.0923493	-0.0216915	0.0179137	1.15603	-0.372406	0.86458	0.590303	-0.34671	0.343346	-0.182064	0.24768	-0.123838	0.0526355	0.0163965	0.560561	-0.318282	-0.180345	0.155414	0.103785	-0.0252845	-0.0415135	1.25034	-0.194101	0.508873	
0.637807	6.53229	0	0	-0.022325	0.444276	0.239303	1.69499	0.211905	-0.063194	0.227977	0.540996	0.096725	-0.022912	0.020646	1.17209	-0.371563	0.879255	0.599833	-0.351297	0.350149	-0.188149	0.258769	-0.132723	0.060188	0.009811	0.569175	-0.323911	-0.169876	0.148573	0.110726	-0.02982	-0.028279	1.25674	-0.193365	0.515058	
0.636583	6.53534	0	0	-0.0203555	0.447988	0.237366	1.70046	0.219133	-0.066271	0.230649	0.547673	0.104426	-0.027944	0.0188178	1.17725	-0.364455	0.884779	0.612706	-0.359709	0.352419	-0.187992	0.258015	-0.130591	0.0628268	0.00973725	0.563431	-0.320158	-0.162889	0.144008	0.117673	-0.0343593	-0.0259897	1.27221	-0.19263	0.52125	
0.636521	6.52923	0	0	-0.018386	0.4517	0.235428	1.70594	0.226361	-0.069348	0.233321	0.55435	0.112127	-0.032976	0.0169895	1.18242	-0.357346	0.890303	0.62558	-0.368121	0.35469	-0.187835	0.25726	-0.128459	0.0654655	0.0096635	0.557688	-0.316404	-0.155903	0.139443	0.12462	-0.0388985	-0.0237005	1.28768	-0.191895	0.527443	
0.637247	6.52771	0	0	-0.0164165	0.455411	0.23349	1.71141	0.233589	-0.072425	0.235993	0.561028	0.119828	-0.038008	0.0151612	1.18759	-0.350237	0.895827	0.638454	-0.376532	0.356961	-0.187678	0.256505	-0.126327	0.0681043	0.00958975	0.551944	-0.312651	-0.148917	0.134877	0.131567	-0.0434377	-0.0214112	1.30315	-0.191161	0.533635	
0.638363	6.53076	0	0	-0.014447	0.459123	0.231553	1.71689	0.240817	-0.075502	0.238665	0.567705	0.127529	-0.04304	0.013333	1.19275	-0.343129	0.901351	0.651327	-0.384944	0.359231	-0.187521	0.255751	-0.124195	0.070743	0.009516	0.5462	-0.308898	-0.14193	0.130312	0.138514	-0.047977	-0.019122	1.31861	-0.190426	0.539827	
0.639472	6.52771	0	0	-0.012477	0.462838	0.240912	1.71709	0.244812	-0.0781127	0.246169	0.56786	0.134483	-0.0459445	0.0178937	1.19573	-0.337575	0.911304	0.668627	-0.394608	0.36604	-0.19361	0.260923	-0.127574	0.0749025	0.0051475	0.5462	-0.308898	-0.145424	0.132595	0.130813	-0.0413082	-0.0182535	1.31616	-0.190426	0.539827	
0.640182	6.52618	0	0	-0.010507	0.466554	0.25027	1.7173	0.248808	-0.0807235	0.253673	0.568016	0.141436	-0.048849	0.0224545	1.19872	-0.332021	0.921258	0.685928	-0.404273	0.372849	-0.1997	0.266095	-0.130954	0.079062	0.000779	0.5462	-0.308898	-0.148918	0.134879	0.123113	-0.0346395	-0.017385	1.31371	-0.190426	0.539827	
0.640379	6.52313	0	0	-0.008537	0.470269	0.259628	1.7175	0.252804	-0.0833342	0.261178	0.568171	0.14839	-0.0517535	0.0270153	1.2017	-0.326467	0.931211	0.703228	-0.413937	0.379658	-0.20579	0.271267	-0.134333	0.0832215	-0.0035895	0.5462	-0.308898	-0.152412	0.137162	0.115413	-0.0279708	-0.0165165	1.31125	-0.190426	0.539827	
0.640364	6.52313	0	0	-0.006567	0.473984	0.268987	1.71771	0.256799	-0.085945	0.268682	0.568326	0.155343	-0.054658	0.031576	1.20468	-0.320913	0.941164	0.720528	-0.423601	0.386467	-0.211879	0.276439	-0.137712	0.087381	-0.007958	0.5462	-0.308898	-0.155906	0.139445	0.107712	-0.021302	-0.015648	1.3088	-0.190426	0.539827	
0.64047	6.52313	0	0	-0.0033945	0.483598	0.270378	1.73156	0.260039	-0.0864157	0.271359	0.575017	0.160486	-0.058018	0.0315682	1.21264	-0.310628	0.94635	0.733448	-0.432043	0.396311	-0.219951	0.280535	-0.143667	0.092301	-0.0144727	0.547714	-0.313177	-0.159398	0.141727	0.10424	-0.0190338	-0.023141	1.30803	-0.185851	0.535168	
0.641029	6.52008	0	0	-0.000222	0.493211	0.271768	1.74542	0.263278	-0.0868865	0.274036	0.581708	0.165628	-0.061378	0.0315605	1.22061	-0.300342	0.951535	0.746368	-0.440485	0.406154	-0.228023	0.284631	-0.149621	0.097221	-0.0209875	0.549229	-0.317457	-0.162891	0.144009	0.100769	-0.0167655	-0.030634	1.30727	-0.181275	0.53051	
0.642372	6.5155	0	0	0.0029505	0.502825	0.273159	1.75928	0.266518	-0.0873572	0.276713	0.588398	0.170771	-0.064738	0.0315527	1.22857	-0.290056	0.956721	0.759289	-0.448928	0.415998	-0.236096	0.288726	-0.155576	0.102141	-0.0275022	0.550743	-0.321736	-0.166383	0.146291	0.0972975	-0.0144972	-0.038127	1.30651	-0.1767	0.525852	
0.644578	6.52313	0	0	0.006123	0.512438	0.27455	1.77314	0.269758	-0.087828	0.27939	0.595089	0.175913	-0.068098	0.031545	1.23653	-0.279771	0.961907	0.772209	-0.45737	0.425842	-0.244168	0.292822	-0.16153	0.107061	-0.034017	0.552257	-0.326015	-0.169876	0.148573	0.093826	-0.012229	-0.04562	1.30575	-0.172124	0.521193	
0.647179	6.52161	0	0	0.0022755	0.523312	0.269686	1.78689	0.269	-0.085686	0.277057	0.601682	0.178485	-0.069779	0.0351925	1.24212	-0.275797	0.967828	0.782559	-0.464133	0.429628	-0.248282	0.292822	-0.16153	0.113867	-0.0384642	0.552257	-0.326015	-0.165631	0.144165	0.0945798	-0.0143585	-0.040573	1.30245	-0.175164	0.521511	
0.649641	6.51398	0	0	-0.001572	0.534185	0.264823	1.80063	0.268242	-0.083544	0.274724	0.608275	0.181058	-0.07146	0.03884	1.2477	-0.271824	0.973748	0.792909	-0.470896	0.433415	-0.252395	0.292822	-0.16153	0.120673	-0.0429115	0.552257	-0.326015	-0.161386	0.139757	0.0953335	-0.016488	-0.035526	1.29915	-0.178204	0.521829	
0.651426	6.51398	0	0	-0.0054195	0.545059	0.259959	1.81438	0.267484	-0.081402	0.272391	0.614869	0.18363	-0.073141	0.0424875	1.25329	-0.26785	0.979669	0.803259	-0.477659	0.437202	-0.256509	0.292822	-0.16153	0.127479	-0.0473587	0.552257	-0.326015	-0.157141	0.135348	0.0960872	-0.0186175	-0.030479	1.29586	-0.181243	0.522147	
0.652	6.5155	0	0	-0.009267	0.555933	0.255095	1.82812	0.266726	-0.07926	0.270058	0.621462	0.186202	-0.074822	0.046135	1.25887	-0.263877	0.98559	0.813609	-0.484422	0.440988	-0.260623	0.292822	-0.16153	0.134285	-0.051806	0.552257	-0.326015	-0.152896	0.13094	0.096841	-0.020747	-0.025432	1.29256	-0.184283	0.522465	
0.651042	6.51703	0	0	-0.0104652	0.550027	0.257808	1.81156	0.259491	-0.0761793	0.262381	0.614657	0.181058	-0.0714608	0.0379162	1.25826	-0.265472	0.981521	0.811775	-0.484864	0.440233	-0.25849	0.289481	-0.157708	0.130122	-0.047436	0.548629	-0.322	-0.150154	0.130783	0.093371	-0.0184797	-0.0238545	1.29907	-0.184283	0.522465	
0.649094	6.50787	0	0	-0.0116635	0.544121	0.26052	1.795	0.252256	-0.0730985	0.254704	0.607851	0.175914	-0.0680995	0.0296975	1.25766	-0.267068	0.977451	0.809942	-0.485306	0.439478	-0.256358	0.286139	-0.153886	0.125959	-0.043066	0.545002	-0.317985	-0.147413	0.130626	0.089901	-0.0162125	-0.022277	1.30559	-0.184283	0.522465	
0.646914	6.51092	0	0	-0.0128617	0.538216	0.263232	1.77844	0.245021	-0.0700177	0.247027	0.601046	0.17077	-0.0647382	0.0214788	1.25705	-0.268663	0.973382	0.808108	-0.485748	0.438724	-0.254225	0.282797	-0.150063	0.121796	-0.038696	0.541374	-0.31397	-0.144672	0.130469	0.086431	-0.0139452	-0.0206995	1.3121	-0.184283	0.522465	
0.64526	6.5155	0	0	-0.01406	0.53231	0.265945	1.76187	0.237786	-0.066937	0.23935	0.594241	0.165626	-0.061377	0.01326	1.25645	-0.270258	0.969313	0.806274	-0.48619	0.437969	-0.252092	0.279456	-0.146241	0.117633	-0.034326	0.537747	-0.309955	-0.14193	0.130312	0.082961	-0.011678	-0.019122	1.31861	-0.184283	0.522465	
0.644889	6.5155	0	0	-0.0144908	0.52424	0.260465	1.7507	0.233792	-0.0643275	0.239006	0.580981	0.157916	-0.056339	0.005065	1.24788	-0.272636	0.967461	0.797758	-0.478985	0.431906	-0.24813	0.271699	-0.141173	0.11423	-0.0321027	0.526275	-0.302459	-0.152408	0.137159	0.0752717	-0.0050165	-0.0199908	1.32107	-0.191893	0.527437	
0.646418	6.50787	0	0	-0.0149215	0.51617	0.254985	1.73952	0.229799	-0.061718	0.238661	0.567721	0.150205	-0.051301	-0.00313	1.23931	-0.275014	0.96561	0.789242	-0.47178	0.425844	-0.244169	0.263943	-0.136104	0.110828	-0.0298795	0.514803	-0.294963	-0.162885	0.144005	0.0675825	0.001645	-0.0208595	1.32352	-0.199502	0.532409	
0.649535	6.50787	0	0	-0.0153522	0.5081	0.249504	1.72834	0.225805	-0.0591085	0.238316	0.55446	0.142495	-0.046263	-0.011325	1.23074	-0.277393	0.963758	0.780725	-0.464575	0.419782	-0.240208	0.256186	-0.131035	0.107426	-0.0276563	0.503331	-0.287467	-0.173363	0.150851	0.0598932	0.0083065	-0.0217282	1.32598	-0.207112	0.537382	
0.653558	6.51245	0	0	-0.015783	0.50003	0.244024	1.71716	0.221811	-0.056499	0.237972	0.5412	0.134785	-0.041225	-0.01952	1.22217	-0.279771	0.961907	0.772209	-0.45737	0.413719	-0.236246	0.24843	-0.125967	0.104023	-0.025433	0.491859	-0.279971	-0.18384	0.157698	0.052204	0.014968	-0.022597	1.32843	-0.214722	0.542354	
0.657803	6.51398	0	0	-0.0208237	0.504993	0.244024	1.71716	0.218577	-0.056032	0.240296	0.534631	0.129649	-0.0378687	-0.0167712	1.20647	-0.2798	0.953419	0.763699	-0.450169	0.410689	-0.234267	0.24068	-0.120903	0.0972223	-0.0209893	0.483265	-0.274356	-0.191571	0.164384	0.041811	0.021759	-0.0375705	1.3269	-0.218489	0.53648	
0.66159	6.50482	0	0	-0.0258645	0.509956	0.244024	1.71716	0.215343	-0.055565	0.24262	0.528062	0.124512	-0.0345125	-0.0140225	1.19078	-0.279829	0.944931	0.755189	-0.442967	0.40766	-0.232287	0.232931	-0.115839	0.0904215	-0.0165455	0.474672	-0.26874	-0.199301	0.17107	0.031418	0.02855	-0.052544	1.32537	-0.222255	0.530606	
0.664257	6.51092	0	0	-0.0309052	0.51492	0.244024	1.71716	0.212109	-0.055098	0.244945	0.521493	0.119376	-0.0311562	-0.0112737	1.17509	-0.279858	0.936443	0.74668	-0.435766	0.40463	-0.230307	0.225181	-0.110776	0.0836207	-0.0121018	0.466078	-0.263124	-0.207032	0.177756	0.021025	0.035341	-0.0675175	1.32384	-0.226022	0.524732	
0.665612	6.51092	0	0	-0.035946	0.519883	0.244024	1.71716	0.208875	-0.054631	0.247269	0.514924	0.11424	-0.0278	-0.008525	1.1594	-0.279887	0.927955	0.73817	-0.428565	0.4016	-0.228328	0.217431	-0.105712	0.07682	-0.007658	0.457484	-0.257509	-0.214762	0.184442	0.010632	0.042132	-0.082491	1.3223	-0.229789	0.518858	
0.665882	6.51245	0	0	-0.0390215	0.528574	0.245204	1.72271	0.204885	-0.0520238	0.248044	0.512735	0.109107	-0.024446	-0.0094335	1.15404	-0.281482	0.923898	0.73376	-0.427324	0.397817	-0.224216	0.214849	-0.104025	0.07682	-0.007658	0.454621	-0.255638	-0.218249	0.186721	0.0071705	0.0443938	-0.0790232	1.3125	-0.232055	0.517007	
0.665312	6.50329	0	0	-0.042097	0.537266	0.246383	1.72826	0.200895	-0.0494165	0.248818	0.510547	0.103973	-0.021092	-0.010342	1.14869	-0.283078	0.919842	0.729349	-0.426083	0.394034	-0.220104	0.212267	-0.102338	0.07682	-0.007658	0.451759	-0.253768	-0.221736	0.188999	0.003709	0.0466555	-0.0755555	1.3027	-0.23432	0.515157	
0.664146	6.50787	0	0	-0.0451725	0.545957	0.247563	1.73381	0.196905	-0.0468092	0.249592	0.508358	0.0988402	-0.017738	-0.0112505	1.14334	-0.284674	0.915786	0.724938	-0.424842	0.39025	-0.215991	0.209686	-0.100651	0.07682	-0.007658	0.448896	-0.251897	-0.225222	0.191277	0.0002475	0.0489173	-0.0720878	1.2929	-0.236586	0.513306	
0.662629	6.51398	0	0	-0.048248	0.554649	0.248743	1.73937	0.192915	-0.044202	0.250367	0.506169	0.093707	-0.014384	-0.012159	1.13798	-0.286269	0.911729	0.720528	-0.423601	0.386467	-0.211879	0.207104	-0.098964	0.07682	-0.007658	0.446033	-0.250027	-0.228709	0.193556	-0.003214	0.051179	-0.06862	1.2831	-0.238852	0.511455	
0.66095	6.51092	0	0	-0.0521742	0.547194	0.239183	1.73087	0.184941	-0.0389915	0.245013	0.492864	0.0842042	-0.00981375	-0.0185298	1.13225	-0.289459	0.903627	0.710206	-0.416856	0.384194	-0.212034	0.207104	-0.098964	0.0734215	-0.0054375	0.446033	-0.250027	-0.228709	0.193556	-0.006674	0.05344	-0.0694865	1.28555	-0.23732	0.507124	
0.659184	6.50635	0	0	-0.0561005	0.539739	0.229623	1.72238	0.176966	-0.033781	0.239659	0.47956	0.0747015	-0.0052435	-0.0249005	1.12651	-0.29265	0.895525	0.699884	-0.410111	0.381922	-0.212189	0.207104	-0.098964	0.070023	-0.003217	0.446033	-0.250027	-0.228709	0.193556	-0.010134	0.055701	-0.070353	1.288	-0.235787	0.502793	
0.657395	6.5094	0	0	-0.0600267	0.532284	0.220063	1.71388	0.168991	-0.0285705	0.234305	0.466255	0.0651987	-0.00067325	-0.0312713	1.12077	-0.295841	0.887424	0.689562	-0.403367	0.379649	-0.212344	0.207104	-0.098964	0.0666245	-0.0009965	0.446033	-0.250027	-0.228709	0.193556	-0.013594	0.057962	-0.0712195	1.29045	-0.234255	0.498462	
0.655646	6.5155	0	0	-0.063953	0.524829	0.210503	1.70539	0.161017	-0.02336	0.228951	0.45295	0.055696	0.003897	-0.037642	1.11503	-0.299031	0.879322	0.67924	-0.396622	0.377376	-0.212499	0.207104	-0.098964	0.063226	0.001224	0.446033	-0.250027	-0.228709	0.193556	-0.017054	0.060223	-0.072086	1.2929	-0.232722	0.494131	
0.654	6.51703	0	0	-0.0636137	0.514601	0.209113	1.69159	0.15779	-0.0228973	0.225322	0.441909	0.043646	0.0101318	-0.0394618	1.09647	-0.304596	0.8694	0.669685	-0.392019	0.3683	-0.206568	0.201943	-0.0955918	0.059829	0.00344375	0.435349	-0.24469	-0.231442	0.193707	-0.0197592	0.0603532	-0.0771243	1.29619	-0.234988	0.492283	
0.652516	6.51245	0	0	-0.0632745	0.504374	0.207722	1.67779	0.154563	-0.0224345	0.221692	0.430867	0.031596	0.0163665	-0.0412815	1.0779	-0.310161	0.859477	0.660131	-0.387416	0.359224	-0.200638	0.196782	-0.0922195	0.056432	0.0056635	0.424664	-0.239353	-0.234175	0.193858	-0.0224645	0.0604835	-0.0821625	1.29948	-0.237253	0.490436	
0.651238	6.52008	0	0	-0.0629352	0.494146	0.206332	1.66399	0.151337	-0.0219717	0.218062	0.419825	0.019546	0.0226012	-0.0431013	1.05933	-0.315725	0.849554	0.650577	-0.382814	0.350147	-0.194708	0.191621	-0.0888472	0.053035	0.00788325	0.41398	-0.234017	-0.236908	0.194008	-0.0251698	0.0606138	-0.0872007	1.30277	-0.239518	0.488588	
0.650205	6.52923	0	0	-0.062596	0.483918	0.204941	1.65019	0.14811	-0.021509	0.214433	0.408784	0.007496	0.028836	-0.044921	1.04076	-0.32129	0.839632	0.641022	-0.378211	0.341071	-0.188777	0.18646	-0.085475	0.049638	0.010103	0.403295	-0.22868	-0.239641	0.194159	-0.027875	0.060744	-0.092239	1.30607	-0.241784	0.48674	
