0.656	2.6886	0	0	-0.035098	-0.109595	-0.138661	0.325592	-0.228394	0.113094	-0.276428	0.294947	-0.234528	0.121578	-0.175542	0.21111	-0.191935	-0.073904	-0.085714	0.143161	-0.204844	-0.24283	0.00064	-0.190229	-0.457019	-0.234515	-0.094482	-0.314708	-0.257932	-0.278148	0.034007	-0.154574	-0.222603	-0.324378	0.226296	-0.406035	
0.657993	2.6886	0	0	-0.0311727	-0.106784	-0.142182	0.335542	-0.222988	0.112475	-0.280079	0.305266	-0.232668	0.126696	-0.171707	0.215409	-0.190748	-0.0772583	-0.0881207	0.149963	-0.213598	-0.242467	0.00064	-0.190229	-0.461205	-0.237784	-0.104395	-0.302018	-0.267104	-0.26906	0.028047	-0.14855	-0.236092	-0.315564	0.226296	-0.406035	
0.658469	2.68402	0	0	-0.0272475	-0.103972	-0.145703	0.345493	-0.217582	0.111855	-0.28373	0.315584	-0.230808	0.131813	-0.167872	0.219708	-0.189561	-0.0806125	-0.0905275	0.156765	-0.222353	-0.242104	0.00064	-0.190229	-0.465392	-0.241053	-0.114307	-0.289327	-0.276276	-0.259972	0.022087	-0.142525	-0.249582	-0.30675	0.226296	-0.406035	
0.657709	2.68249	0	0	-0.0233222	-0.101161	-0.149224	0.355444	-0.212175	0.111236	-0.287381	0.325902	-0.228949	0.136931	-0.164037	0.224006	-0.188375	-0.0839667	-0.0929342	0.163566	-0.231107	-0.241741	0.00064	-0.190229	-0.469578	-0.244321	-0.124219	-0.276637	-0.285447	-0.250885	0.016127	-0.136501	-0.263072	-0.297935	0.226296	-0.406035	
0.655992	2.68402	0	0	-0.019397	-0.098349	-0.152745	0.365394	-0.206769	0.110617	-0.291032	0.336221	-0.227089	0.142048	-0.160202	0.228305	-0.187188	-0.087321	-0.095341	0.170368	-0.239862	-0.241378	0.00064	-0.190229	-0.473764	-0.24759	-0.134132	-0.263947	-0.294619	-0.241797	0.010167	-0.130477	-0.276561	-0.289121	0.226296	-0.406035	
0.6536	2.68097	0	0	-0.0233222	-0.101161	-0.153697	0.355818	-0.208156	0.0998765	-0.297284	0.334356	-0.22992	0.139676	-0.167169	0.232857	-0.18904	-0.093841	-0.101607	0.177078	-0.23863	-0.244861	-0.00052425	-0.186939	-0.479327	-0.246955	-0.135563	-0.259903	-0.298896	-0.22971	0.014166	-0.130959	-0.271037	-0.290083	0.230287	-0.403219	
0.650813	2.68555	0	0	-0.0272475	-0.103972	-0.154648	0.346241	-0.209543	0.089136	-0.303536	0.332491	-0.232751	0.137303	-0.174135	0.237409	-0.190892	-0.100361	-0.107873	0.183789	-0.237398	-0.248343	-0.0016885	-0.183649	-0.484891	-0.24632	-0.136993	-0.25586	-0.303173	-0.217622	0.018165	-0.131441	-0.265514	-0.291045	0.234277	-0.400404	
0.647911	2.67792	0	0	-0.0311727	-0.106784	-0.1556	0.336665	-0.210929	0.0783955	-0.309787	0.330625	-0.235582	0.134931	-0.181102	0.241962	-0.192745	-0.106881	-0.114139	0.190499	-0.236166	-0.251825	-0.00285275	-0.180359	-0.490454	-0.245685	-0.138424	-0.251816	-0.30745	-0.205535	0.022164	-0.131924	-0.25999	-0.292007	0.238268	-0.397589	
0.645176	2.67792	0	0	-0.035098	-0.109595	-0.156552	0.327089	-0.212316	0.067655	-0.316039	0.32876	-0.238413	0.132558	-0.188069	0.246514	-0.194597	-0.113401	-0.120405	0.19721	-0.234934	-0.255308	-0.004017	-0.177069	-0.496017	-0.24505	-0.139855	-0.247772	-0.311727	-0.193447	0.026163	-0.132406	-0.254466	-0.292969	0.242259	-0.394773	
0.642887	2.67334	0	0	-0.0326255	-0.116583	-0.15538	0.323776	-0.215044	0.0607153	-0.316039	0.32876	-0.240272	0.127444	-0.189636	0.250943	-0.203703	-0.122885	-0.120405	0.19721	-0.246263	-0.271954	-0.004579	-0.186813	-0.500239	-0.263255	-0.144041	-0.251253	-0.313154	-0.189414	0.0142445	-0.120355	-0.263646	-0.281673	0.237261	-0.380648	
0.641324	2.67334	0	0	-0.030153	-0.123571	-0.154207	0.320463	-0.217772	0.0537755	-0.316039	0.32876	-0.242131	0.12233	-0.191203	0.255371	-0.212809	-0.13237	-0.120405	0.19721	-0.257592	-0.2886	-0.005141	-0.196558	-0.504462	-0.28146	-0.148226	-0.254734	-0.314581	-0.185382	0.002326	-0.108304	-0.272826	-0.270377	0.232263	-0.366522	
0.640743	2.67029	0	0	-0.0276805	-0.130559	-0.153035	0.31715	-0.220499	0.0468358	-0.316039	0.32876	-0.243989	0.117215	-0.19277	0.2598	-0.221916	-0.141854	-0.120405	0.19721	-0.26892	-0.305245	-0.005703	-0.206302	-0.508684	-0.299665	-0.152412	-0.258215	-0.316008	-0.181349	-0.0095925	-0.0962537	-0.282007	-0.25908	0.227265	-0.352397	
0.641068	2.67029	0	0	-0.025208	-0.137547	-0.151863	0.313837	-0.223227	0.039896	-0.316039	0.32876	-0.245848	0.112101	-0.194337	0.264229	-0.231022	-0.151338	-0.120405	0.19721	-0.280249	-0.321891	-0.006265	-0.216047	-0.512907	-0.31787	-0.156598	-0.261696	-0.317435	-0.177316	-0.021511	-0.084203	-0.291187	-0.247784	0.222267	-0.338272	
0.641999	2.66724	0	0	-0.0289175	-0.127063	-0.154208	0.320464	-0.224565	0.043676	-0.314284	0.333563	-0.245848	0.112101	-0.181966	0.259552	-0.231692	-0.161171	-0.115343	0.193902	-0.284068	-0.335381	-0.0120405	-0.22237	-0.51296	-0.332771	-0.152311	-0.273811	-0.323748	-0.176291	-0.0255035	-0.083726	-0.294267	-0.253717	0.21703	-0.337567	
0.643233	2.66724	0	0	-0.032627	-0.116579	-0.156553	0.327092	-0.225902	0.047456	-0.312528	0.338367	-0.245848	0.112101	-0.169595	0.254875	-0.232361	-0.171004	-0.110281	0.190595	-0.287888	-0.348871	-0.017816	-0.228693	-0.513014	-0.347672	-0.148025	-0.285925	-0.330062	-0.175266	-0.029496	-0.083249	-0.297347	-0.259649	0.211793	-0.336862	
0.644467	2.66266	0	0	-0.0363365	-0.106095	-0.158898	0.33372	-0.22724	0.051236	-0.310773	0.34317	-0.245848	0.112101	-0.157224	0.250197	-0.233031	-0.180836	-0.105219	0.187287	-0.291707	-0.362361	-0.0235915	-0.235016	-0.513067	-0.362572	-0.143738	-0.29804	-0.336375	-0.174242	-0.0334885	-0.082772	-0.300427	-0.265581	0.206557	-0.336156	
0.645406	2.66266	0	0	-0.040046	-0.095611	-0.161243	0.340347	-0.228577	0.055016	-0.309018	0.347973	-0.245848	0.112101	-0.144853	0.24552	-0.233701	-0.190669	-0.100157	0.183979	-0.295526	-0.375851	-0.029367	-0.241339	-0.51312	-0.377473	-0.139451	-0.310155	-0.342688	-0.173217	-0.037481	-0.082295	-0.303507	-0.271514	0.20132	-0.335451	
0.645989	2.66266	0	0	-0.0373602	-0.0892965	-0.15817	0.356202	-0.231254	0.062581	-0.313588	0.360888	-0.243018	0.11447	-0.142583	0.254267	-0.23134	-0.197341	-0.098707	0.190885	-0.294301	-0.379312	-0.0282063	-0.244619	-0.520042	-0.37295	-0.143638	-0.313621	-0.345543	-0.16515	-0.0394437	-0.076748	-0.304726	-0.26807	0.20132	-0.335451	
0.646388	2.65198	0	0	-0.0346745	-0.082982	-0.155097	0.372057	-0.23393	0.070146	-0.318157	0.373803	-0.240188	0.11684	-0.140314	0.263013	-0.228979	-0.204014	-0.097257	0.197792	-0.293077	-0.382772	-0.0270455	-0.247899	-0.526963	-0.368428	-0.147824	-0.317088	-0.348398	-0.157082	-0.0414065	-0.071201	-0.305944	-0.264627	0.20132	-0.335451	
0.64679	2.65961	0	0	-0.0319887	-0.0766675	-0.152024	0.387912	-0.236607	0.077711	-0.322727	0.386718	-0.237358	0.119209	-0.138044	0.271759	-0.226618	-0.210686	-0.095807	0.204699	-0.291853	-0.386233	-0.0258847	-0.25118	-0.533884	-0.363905	-0.15201	-0.320555	-0.351252	-0.149014	-0.0433692	-0.065654	-0.307163	-0.261184	0.20132	-0.335451	
0.64738	2.65655	0	0	-0.029303	-0.070353	-0.148951	0.403767	-0.239284	0.085276	-0.327297	0.399633	-0.234528	0.121578	-0.135774	0.280506	-0.224257	-0.217358	-0.094357	0.211605	-0.290628	-0.389694	-0.024724	-0.25446	-0.540806	-0.359382	-0.156197	-0.324021	-0.354107	-0.140947	-0.045332	-0.060107	-0.308381	-0.25774	0.20132	-0.335451	
0.648342	2.65503	0	0	-0.0369418	-0.0626697	-0.155776	0.410782	-0.244682	0.0858948	-0.328212	0.402218	-0.240271	0.127441	-0.138916	0.289388	-0.22965	-0.213834	-0.096769	0.218422	-0.291853	-0.386233	-0.024724	-0.25446	-0.540806	-0.359382	-0.161806	-0.323455	-0.356964	-0.132872	-0.0442873	-0.0522528	-0.306523	-0.248355	0.197568	-0.324847	
0.64973	2.6474	0	0	-0.0445805	-0.0549865	-0.162602	0.417798	-0.250081	0.0865135	-0.329126	0.404803	-0.246014	0.133303	-0.142059	0.298269	-0.235044	-0.21031	-0.099181	0.225239	-0.293077	-0.382772	-0.024724	-0.25446	-0.540806	-0.359382	-0.167415	-0.322889	-0.359821	-0.124797	-0.0432425	-0.0443985	-0.304665	-0.23897	0.193816	-0.314242	
0.65138	2.6535	0	0	-0.0522193	-0.0473033	-0.169427	0.424814	-0.255479	0.0871322	-0.330041	0.407388	-0.251757	0.139166	-0.145202	0.307151	-0.240437	-0.206786	-0.101593	0.232057	-0.294301	-0.379312	-0.024724	-0.25446	-0.540806	-0.359382	-0.173024	-0.322323	-0.362678	-0.116723	-0.0421977	-0.0365443	-0.302806	-0.229584	0.190064	-0.303638	
0.653109	2.6535	0	0	-0.059858	-0.03962	-0.176252	0.431829	-0.260877	0.087751	-0.330956	0.409973	-0.2575	0.145029	-0.148344	0.316033	-0.24583	-0.203262	-0.104005	0.238874	-0.295526	-0.375851	-0.024724	-0.25446	-0.540806	-0.359382	-0.178633	-0.321757	-0.365535	-0.108648	-0.041153	-0.02869	-0.300948	-0.220199	0.186312	-0.293034	
0.654732	2.66266	0	0	-0.0637755	-0.042443	-0.179545	0.428871	-0.263596	0.080809	-0.330041	0.407388	-0.256446	0.131688	-0.146772	0.311591	-0.247682	-0.209739	-0.101593	0.232057	-0.306688	-0.368557	-0.0368545	-0.254094	-0.551887	-0.358106	-0.186987	-0.32868	-0.368395	-0.100566	-0.0470558	-0.0120077	-0.307057	-0.202935	0.193027	-0.283813	
0.656064	2.66571	0	0	-0.067693	-0.045266	-0.182839	0.425912	-0.266314	0.073867	-0.329126	0.404803	-0.255392	0.118348	-0.145201	0.307149	-0.249533	-0.216216	-0.099181	0.225239	-0.31785	-0.361264	-0.048985	-0.253727	-0.562968	-0.35683	-0.195342	-0.335603	-0.371254	-0.0924845	-0.0529585	0.0046745	-0.313165	-0.185671	0.199742	-0.274591	
0.656935	2.66266	0	0	-0.0716105	-0.048089	-0.186132	0.422953	-0.269033	0.066925	-0.328212	0.402218	-0.254338	0.105008	-0.143629	0.302707	-0.251385	-0.222693	-0.096769	0.218422	-0.329012	-0.353971	-0.0611155	-0.253361	-0.57405	-0.355555	-0.203697	-0.342526	-0.374114	-0.0844027	-0.0588613	0.0213568	-0.319273	-0.168408	0.206457	-0.26537	
0.657224	2.66418	0	0	-0.075528	-0.050912	-0.189425	0.419995	-0.271751	0.059983	-0.327297	0.399633	-0.253284	0.091667	-0.142057	0.298265	-0.253237	-0.22917	-0.094357	0.211605	-0.340174	-0.346677	-0.073246	-0.252995	-0.585131	-0.354279	-0.212051	-0.349449	-0.376974	-0.076321	-0.064764	0.038039	-0.325382	-0.151144	0.213172	-0.256149	
0.656815	2.66571	0	0	-0.075528	-0.050912	-0.184955	0.419629	-0.273088	0.0637615	-0.328212	0.402218	-0.253206	0.0810905	-0.133502	0.289262	-0.249703	-0.239158	-0.0868785	0.201481	-0.342077	-0.353412	-0.077846	-0.262571	-0.596192	-0.353011	-0.218972	-0.360373	-0.386717	-0.0823757	-0.0667853	0.032944	-0.328452	-0.157104	0.197471	-0.254058	
0.655598	2.66266	0	0	-0.075528	-0.050912	-0.180486	0.419264	-0.274425	0.06754	-0.329126	0.404803	-0.253128	0.070514	-0.124948	0.280259	-0.246169	-0.249145	-0.0794	0.191358	-0.343981	-0.360148	-0.082446	-0.272147	-0.607254	-0.351743	-0.225893	-0.371297	-0.39646	-0.0884305	-0.0688065	0.027849	-0.331522	-0.163065	0.18177	-0.251968	
0.653458	2.65503	0	0	-0.075528	-0.050912	-0.176017	0.418898	-0.275762	0.0713185	-0.330041	0.407388	-0.25305	0.0599375	-0.116393	0.271256	-0.242635	-0.259133	-0.0719215	0.181235	-0.345884	-0.366883	-0.087046	-0.281722	-0.618315	-0.350476	-0.232814	-0.38222	-0.406203	-0.0944853	-0.0708277	0.022754	-0.334593	-0.169025	0.166069	-0.249877	
0.650319	2.65655	0	0	-0.075528	-0.050912	-0.171547	0.418532	-0.277099	0.075097	-0.330956	0.409973	-0.252972	0.049361	-0.107839	0.262253	-0.239101	-0.26912	-0.064443	0.171111	-0.347787	-0.373618	-0.091646	-0.291298	-0.629376	-0.349208	-0.239735	-0.393144	-0.415946	-0.10054	-0.072849	0.017659	-0.337663	-0.174985	0.150368	-0.247786	
0.646345	2.65503	0	0	-0.0819182	-0.0467365	-0.170371	0.415209	-0.267645	0.0776417	-0.330956	0.409973	-0.25394	0.0520975	-0.10941	0.266693	-0.23421	-0.259514	-0.0629882	0.178017	-0.349011	-0.37016	-0.0973995	-0.297587	-0.623848	-0.349841	-0.248066	-0.400032	-0.422238	-0.0995305	-0.07782	0.0209073	-0.357841	-0.1618	0.15162	-0.251325	
0.641799	2.6535	0	0	-0.0883085	-0.042561	-0.169195	0.411886	-0.258192	0.0801865	-0.330956	0.409973	-0.254908	0.054834	-0.110981	0.271132	-0.22932	-0.249907	-0.0615335	0.184924	-0.350235	-0.366702	-0.103153	-0.303876	-0.61832	-0.350474	-0.256398	-0.40692	-0.42853	-0.098521	-0.082791	0.0241555	-0.37802	-0.148615	0.152872	-0.254864	
0.636943	2.6535	0	0	-0.0946987	-0.0383855	-0.16802	0.408563	-0.248738	0.0827313	-0.330956	0.409973	-0.255877	0.0575705	-0.112552	0.275572	-0.224429	-0.240301	-0.0600788	0.191831	-0.351458	-0.363243	-0.108907	-0.310166	-0.612791	-0.351107	-0.26473	-0.413808	-0.434821	-0.0975115	-0.087762	0.0274037	-0.398198	-0.13543	0.154125	-0.258403	
0.63204	2.65045	0	0	-0.101089	-0.03421	-0.166844	0.40524	-0.239284	0.085276	-0.330956	0.409973	-0.256845	0.060307	-0.114123	0.280012	-0.219538	-0.230694	-0.058624	0.198737	-0.352682	-0.359785	-0.11466	-0.316455	-0.607263	-0.35174	-0.273061	-0.420696	-0.441113	-0.096502	-0.092733	0.030652	-0.418376	-0.122245	0.155377	-0.261942	
0.627328	2.65045	0	0	-0.117755	-0.0286985	-0.178131	0.412615	-0.251381	0.104828	-0.336365	0.415495	-0.259752	0.0685215	-0.114123	0.280012	-0.215827	-0.217725	-0.0624893	0.198642	-0.347652	-0.349763	-0.11638	-0.322858	-0.61138	-0.340104	-0.270227	-0.428706	-0.442541	-0.0924675	-0.094701	0.0362145	-0.417768	-0.109359	0.151619	-0.251321	
0.622852	2.65198	0	0	-0.134422	-0.023187	-0.189418	0.41999	-0.263479	0.124379	-0.341774	0.421018	-0.262659	0.076736	-0.114123	0.280012	-0.212116	-0.204756	-0.0663545	0.198548	-0.342622	-0.339741	-0.1181	-0.329261	-0.615498	-0.328468	-0.267393	-0.436715	-0.443968	-0.088433	-0.096669	0.041777	-0.417161	-0.096474	0.147861	-0.2407	
0.618567	2.65045	0	0	-0.151088	-0.0176755	-0.200705	0.427366	-0.275576	0.14393	-0.347183	0.42654	-0.265565	0.0849505	-0.114123	0.280012	-0.208404	-0.191787	-0.0702197	0.198454	-0.337593	-0.329719	-0.11982	-0.335664	-0.619615	-0.316832	-0.264559	-0.444725	-0.445396	-0.0843985	-0.098637	0.0473395	-0.416554	-0.0835885	0.144102	-0.230078	
0.614427	2.64892	0	0	-0.167755	-0.012164	-0.211992	0.434741	-0.287673	0.163482	-0.352592	0.432063	-0.268472	0.093165	-0.114123	0.280012	-0.204693	-0.178818	-0.074085	0.198359	-0.332563	-0.319697	-0.12154	-0.342067	-0.623732	-0.305196	-0.261725	-0.452734	-0.446824	-0.080364	-0.100605	0.052902	-0.415946	-0.070703	0.140344	-0.219457	
0.610385	2.6535	0	0	-0.180674	-0.0171502	-0.213873	0.415567	-0.284992	0.155904	-0.353425	0.424659	-0.269361	0.0853267	-0.123374	0.275822	-0.214308	-0.175104	-0.0757898	0.181161	-0.344279	-0.298707	-0.128439	-0.345078	-0.634754	-0.289037	-0.26872	-0.448163	-0.45111	-0.0682493	-0.104545	0.0640373	-0.411067	-0.055252	0.133867	-0.215225	
0.606418	2.65503	0	0	-0.193593	-0.0221365	-0.215755	0.396392	-0.282311	0.148326	-0.354259	0.417254	-0.27025	0.0774885	-0.132625	0.271632	-0.223922	-0.17139	-0.0774945	0.163963	-0.355996	-0.277718	-0.135338	-0.348089	-0.645776	-0.272877	-0.275715	-0.443593	-0.455397	-0.0561345	-0.108485	0.0751725	-0.406188	-0.039801	0.12739	-0.210993	
0.602624	2.66266	0	0	-0.206513	-0.0271227	-0.217637	0.377218	-0.279629	0.140748	-0.355092	0.40985	-0.271138	0.0696502	-0.141876	0.267443	-0.233537	-0.167675	-0.0791992	0.146764	-0.367712	-0.256728	-0.142237	-0.351099	-0.656798	-0.256718	-0.28271	-0.439022	-0.459684	-0.0440198	-0.112426	0.0863078	-0.40131	-0.02435	0.120913	-0.20676	
0.599143	2.66876	0	0	-0.219432	-0.032109	-0.219518	0.358044	-0.276948	0.13317	-0.355925	0.402446	-0.272027	0.061812	-0.151127	0.263253	-0.243151	-0.163961	-0.080904	0.129566	-0.379428	-0.235738	-0.149136	-0.35411	-0.66782	-0.240559	-0.289705	-0.434451	-0.46397	-0.031905	-0.116366	0.097443	-0.396431	-0.008899	0.114436	-0.202528	
0.596113	2.67334	0	0	-0.222086	-0.0384188	-0.221412	0.338939	-0.276948	0.13317	-0.357673	0.397633	-0.270092	0.0563415	-0.146424	0.24996	-0.243151	-0.163961	-0.0888745	0.119117	-0.381886	-0.228791	-0.154875	-0.360372	-0.670571	-0.232783	-0.288289	-0.438453	-0.474544	-0.0187798	-0.12232	0.103475	-0.409304	0.0128573	0.102749	-0.197615	
0.593672	2.67944	0	0	-0.224741	-0.0447285	-0.223306	0.319833	-0.276948	0.13317	-0.359422	0.392819	-0.268156	0.050871	-0.14172	0.236668	-0.243151	-0.163961	-0.096845	0.108668	-0.384344	-0.221843	-0.160614	-0.366634	-0.673323	-0.225007	-0.286873	-0.442455	-0.485117	-0.0056545	-0.128274	0.109508	-0.422177	0.0346135	0.091063	-0.192702	
0.59189	2.6947	0	0	-0.227396	-0.0510383	-0.225201	0.300728	-0.276948	0.13317	-0.361171	0.388006	-0.26622	0.0454005	-0.137016	0.223375	-0.243151	-0.163961	-0.104816	0.0982182	-0.386803	-0.214896	-0.166353	-0.372896	-0.676074	-0.217231	-0.285457	-0.446457	-0.495691	0.00747075	-0.134228	0.11554	-0.435051	0.0563697	0.0793765	-0.187788	
0.590654	2.70386	0	0	-0.23005	-0.057348	-0.227095	0.281623	-0.276948	0.13317	-0.362919	0.383193	-0.264285	0.03993	-0.132313	0.210082	-0.243151	-0.163961	-0.112786	0.087769	-0.389261	-0.207949	-0.172092	-0.379158	-0.678825	-0.209455	-0.284041	-0.450459	-0.506264	0.020596	-0.140182	0.121572	-0.447924	0.078126	0.06769	-0.182875	
0.589822	2.70386	0	0	-0.23887	-0.046223	-0.233666	0.275768	-0.279629	0.140748	-0.362919	0.383193	-0.265253	0.042665	-0.136153	0.205787	-0.244333	-0.16062	-0.115441	0.0842922	-0.388032	-0.211423	-0.170941	-0.382411	-0.678825	-0.209455	-0.286874	-0.442453	-0.506264	0.020596	-0.144161	0.122031	-0.441192	0.0737275	0.052074	-0.180834	
0.589255	2.71301	0	0	-0.24769	-0.035098	-0.240238	0.269913	-0.282311	0.148326	-0.362919	0.383193	-0.26622	0.0454	-0.139994	0.201491	-0.245515	-0.15728	-0.118095	0.0808155	-0.386803	-0.214897	-0.16979	-0.385664	-0.678825	-0.209455	-0.289706	-0.434447	-0.506264	0.020596	-0.148141	0.122489	-0.434461	0.069329	0.036458	-0.178792	
0.588815	2.72064	0	0	-0.256511	-0.023973	-0.24681	0.264058	-0.284992	0.155904	-0.362919	0.383193	-0.267188	0.048135	-0.143835	0.197196	-0.246697	-0.15394	-0.120749	0.0773387	-0.385573	-0.218372	-0.168639	-0.388917	-0.678825	-0.209455	-0.292539	-0.426441	-0.506264	0.020596	-0.15212	0.122948	-0.427729	0.0649305	0.020842	-0.176751	
0.588492	2.71911	0	0	-0.265331	-0.012848	-0.253381	0.258203	-0.287673	0.163482	-0.362919	0.383193	-0.268156	0.05087	-0.147675	0.192901	-0.247879	-0.150599	-0.123404	0.073862	-0.384344	-0.221846	-0.167488	-0.39217	-0.678825	-0.209455	-0.295372	-0.418435	-0.506264	0.020596	-0.156099	0.123406	-0.420998	0.060532	0.005226	-0.174709	
0.588424	2.73285	0	0	-0.272913	-0.00521125	-0.256664	0.255279	-0.289015	0.167273	-0.362919	0.383193	-0.26436	0.0504928	-0.139138	0.183923	-0.249061	-0.147258	-0.122205	0.0704748	-0.384344	-0.221846	-0.168639	-0.388917	-0.680202	-0.205565	-0.289794	-0.419	-0.504833	0.0165522	-0.153143	0.115053	-0.429541	0.0554365	0.00378	-0.184632	
0.588757	2.73743	0	0	-0.280496	0.0024255	-0.259947	0.252355	-0.290356	0.171065	-0.362919	0.383193	-0.260564	0.0501155	-0.130601	0.174945	-0.250244	-0.143916	-0.121007	0.0670875	-0.384344	-0.221846	-0.16979	-0.385664	-0.681579	-0.201675	-0.284216	-0.419566	-0.503402	0.0125085	-0.150188	0.1067	-0.438084	0.050341	0.002334	-0.194555	
0.589636	2.74811	0	0	-0.288078	0.0100623	-0.263229	0.249431	-0.291697	0.174856	-0.362919	0.383193	-0.256768	0.0497382	-0.122064	0.165967	-0.251426	-0.140574	-0.119808	0.0637002	-0.384344	-0.221846	-0.170941	-0.382411	-0.682955	-0.197784	-0.278639	-0.420131	-0.501972	0.00846475	-0.147232	0.098347	-0.446627	0.0452455	0.000888	-0.204478	
0.591194	2.75268	0	0	-0.29566	0.017699	-0.266512	0.246507	-0.293039	0.178647	-0.362919	0.383193	-0.252972	0.049361	-0.113527	0.156989	-0.252609	-0.137233	-0.11861	0.060313	-0.384344	-0.221846	-0.172092	-0.379158	-0.684332	-0.193894	-0.273061	-0.420696	-0.500541	0.004421	-0.144277	0.089994	-0.45517	0.04015	-0.000558	-0.214401	
0.593434	2.75726	0	0	-0.308341	0.0259853	-0.267464	0.237002	-0.291697	0.174856	-0.361093	0.378032	-0.25394	0.0520975	-0.118935	0.157125	-0.253792	-0.13389	-0.11861	0.060313	-0.387462	-0.225147	-0.17611	-0.379034	-0.689849	-0.19328	-0.268897	-0.417254	-0.492829	-0.0006185	-0.144277	0.089994	-0.452716	0.0332138	0.00194	-0.221461	
0.596286	2.76031	0	0	-0.321022	0.0342715	-0.268415	0.227498	-0.290356	0.171065	-0.359266	0.372872	-0.254908	0.054834	-0.124343	0.157261	-0.254974	-0.130547	-0.11861	0.060313	-0.39058	-0.228448	-0.180127	-0.378909	-0.695366	-0.192665	-0.264733	-0.413811	-0.485116	-0.005658	-0.144277	0.089994	-0.450261	0.0262775	0.004438	-0.228521	
0.599679	2.76947	0	0	-0.333703	0.0425577	-0.269367	0.217993	-0.289015	0.167273	-0.35744	0.367711	-0.255877	0.0575705	-0.129752	0.157397	-0.256157	-0.127204	-0.11861	0.060313	-0.393699	-0.23175	-0.184145	-0.378784	-0.700884	-0.192051	-0.260569	-0.410369	-0.477404	-0.0106975	-0.144277	0.089994	-0.447807	0.0193412	0.006936	-0.23558	
0.603541	2.77252	0	0	-0.346384	0.050844	-0.270318	0.208488	-0.287673	0.163482	-0.355614	0.36255	-0.256845	0.060307	-0.13516	0.157533	-0.25734	-0.123861	-0.11861	0.060313	-0.396817	-0.235051	-0.188163	-0.37866	-0.706401	-0.191437	-0.256405	-0.406927	-0.469691	-0.015737	-0.144277	0.089994	-0.445353	0.012405	0.009434	-0.24264	
0.607781	2.76947	0	0	-0.351646	0.0382033	-0.27223	0.189529	-0.287705	0.148947	-0.359114	0.352948	-0.265402	0.0637942	-0.13516	0.157533	-0.26155	-0.12368	-0.122462	0.0602267	-0.406729	-0.231242	-0.188163	-0.37866	-0.711913	-0.190825	-0.259244	-0.398903	-0.477404	-0.0106975	-0.142308	0.0844297	-0.455112	0.01079	0.009434	-0.24264	
0.612178	2.77405	0	0	-0.356908	0.0255625	-0.274143	0.17057	-0.287737	0.134413	-0.362614	0.343346	-0.273958	0.0672815	-0.13516	0.157533	-0.265761	-0.123499	-0.126314	0.0601405	-0.416642	-0.227433	-0.188163	-0.37866	-0.717426	-0.190213	-0.262083	-0.390879	-0.485116	-0.005658	-0.14034	0.0788655	-0.46487	0.009175	0.009434	-0.24264	
0.616473	2.7771	0	0	-0.36217	0.0129218	-0.276055	0.151611	-0.28777	0.119878	-0.366114	0.333745	-0.282515	0.0707688	-0.13516	0.157533	-0.269971	-0.123318	-0.130166	0.0600543	-0.426555	-0.223624	-0.188163	-0.37866	-0.722938	-0.189601	-0.264922	-0.382855	-0.492829	-0.0006185	-0.138371	0.0733013	-0.474629	0.00756	0.009434	-0.24264	
0.620402	2.78015	0	0	-0.367432	0.000281	-0.277967	0.132652	-0.287802	0.105344	-0.369614	0.324143	-0.291072	0.074256	-0.13516	0.157533	-0.274181	-0.123137	-0.134018	0.059968	-0.436467	-0.219815	-0.188163	-0.37866	-0.72845	-0.188989	-0.267761	-0.374831	-0.500541	0.004421	-0.136402	0.067737	-0.484387	0.005945	0.009434	-0.24264	
0.623703	2.78168	0	0	-0.366373	-0.0164525	-0.274294	0.110103	-0.286508	0.0870728	-0.364152	0.308706	-0.290027	0.060964	-0.137439	0.148838	-0.27905	-0.132791	-0.13282	0.0565833	-0.443912	-0.222948	-0.191028	-0.381787	-0.73946	-0.18777	-0.267761	-0.374831	-0.501972	0.00846475	-0.131437	0.0644928	-0.488648	0.00340675	0.013384	-0.239793	
0.626183	2.7832	0	0	-0.365314	-0.033186	-0.270622	0.0875545	-0.285214	0.0688015	-0.358689	0.293268	-0.288982	0.047672	-0.139719	0.140144	-0.283918	-0.142446	-0.131623	0.0531985	-0.451357	-0.226081	-0.193893	-0.384914	-0.75047	-0.186551	-0.267761	-0.374831	-0.503402	0.0125085	-0.126472	0.0612485	-0.492909	0.0008685	0.017334	-0.236947	
0.628017	2.78015	0	0	-0.364255	-0.0499195	-0.26695	0.0650058	-0.28392	0.0505303	-0.353226	0.27783	-0.287937	0.03438	-0.141998	0.131449	-0.288787	-0.1521	-0.130425	0.0498137	-0.458802	-0.229213	-0.196758	-0.38804	-0.761479	-0.185333	-0.267761	-0.374831	-0.504833	0.0165523	-0.121506	0.0580043	-0.497169	-0.00166975	0.021284	-0.2341	
0.629507	2.78473	0	0	-0.363196	-0.066653	-0.263277	0.042457	-0.282626	0.032259	-0.347764	0.262393	-0.286892	0.021088	-0.144278	0.122754	-0.293656	-0.161754	-0.129227	0.046429	-0.466247	-0.232346	-0.199623	-0.391167	-0.772489	-0.184114	-0.267761	-0.374831	-0.506264	0.020596	-0.116541	0.05476	-0.50143	-0.004208	0.025234	-0.231254	
0.630956	2.78473	0	0	-0.365831	-0.0729385	-0.257495	0.0261158	-0.278624	0.0209473	-0.340552	0.251754	-0.28875	0.0160062	-0.141157	0.113934	-0.293142	-0.174901	-0.126833	0.0396635	-0.467564	-0.252767	-0.204201	-0.400657	-0.777991	-0.198414	-0.270504	-0.38229	-0.51397	0.025631	-0.120522	0.0552235	-0.506911	-0.003286	0.0110932	-0.219299	
0.632666	2.78625	0	0	-0.368465	-0.079224	-0.251713	0.0097745	-0.274621	0.0096355	-0.33334	0.241115	-0.290608	0.0109245	-0.138036	0.105113	-0.292628	-0.188049	-0.12444	0.032898	-0.468881	-0.273187	-0.208778	-0.410146	-0.783492	-0.212715	-0.273247	-0.389749	-0.521675	0.030666	-0.124504	0.055687	-0.512392	-0.002364	-0.0030475	-0.207344	
0.634873	2.7832	0	0	-0.3711	-0.0855095	-0.24593	-0.00656675	-0.270618	-0.00167625	-0.326127	0.230475	-0.292467	0.00584275	-0.134915	0.0962932	-0.292115	-0.201196	-0.122046	0.0261325	-0.470197	-0.293607	-0.213356	-0.419636	-0.788993	-0.227016	-0.27599	-0.397207	-0.529381	0.035701	-0.128485	0.0561505	-0.517873	-0.001442	-0.0171883	-0.195388	
0.637378	2.78473	0	0	-0.373734	-0.091795	-0.240148	-0.022908	-0.266616	-0.012988	-0.318915	0.219836	-0.294325	0.000761	-0.131794	0.087473	-0.291601	-0.214343	-0.119652	0.019367	-0.471514	-0.314028	-0.217934	-0.429126	-0.794495	-0.241316	-0.278733	-0.404666	-0.537087	0.040736	-0.132466	0.056614	-0.523354	-0.00052	-0.031329	-0.183433	
0.639801	2.78168	0	0	-0.372507	-0.0952638	-0.230098	-0.0269643	-0.266616	-0.012988	-0.310847	0.216539	-0.289569	-0.00234675	-0.126387	0.0873297	-0.289245	-0.221	-0.116996	0.0228327	-0.47839	-0.33075	-0.217357	-0.441962	-0.794508	-0.256184	-0.273065	-0.420685	-0.541924	0.0376807	-0.127551	0.042723	-0.534882	-0.0115757	-0.026333	-0.197553	
0.641763	2.78168	0	0	-0.371279	-0.0987325	-0.220048	-0.0310205	-0.266616	-0.012988	-0.30278	0.213243	-0.284813	-0.0054545	-0.120981	0.0871865	-0.28689	-0.227658	-0.114339	0.0262985	-0.485266	-0.347473	-0.216779	-0.454797	-0.794522	-0.271052	-0.267397	-0.436704	-0.546762	0.0346255	-0.122636	0.028832	-0.546411	-0.0226315	-0.021337	-0.211672	
0.642883	2.78015	0	0	-0.370051	-0.102201	-0.209997	-0.0350768	-0.266616	-0.012988	-0.294712	0.209947	-0.280057	-0.00856225	-0.115574	0.0870433	-0.284535	-0.234315	-0.111683	0.0297643	-0.492141	-0.364196	-0.216201	-0.467633	-0.794535	-0.285921	-0.261729	-0.452723	-0.5516	0.0315703	-0.11772	0.014941	-0.55794	-0.0336872	-0.016341	-0.225792	
0.642828	2.7832	0	0	-0.368824	-0.10567	-0.199947	-0.039133	-0.266616	-0.012988	-0.286645	0.20665	-0.275301	-0.01167	-0.110168	0.0869	-0.282179	-0.240972	-0.109027	0.03323	-0.499017	-0.380918	-0.215624	-0.480469	-0.794549	-0.300789	-0.256061	-0.468742	-0.556437	0.028515	-0.112805	0.00105	-0.569468	-0.044743	-0.011345	-0.239911	
0.641766	2.77862	0	0	-0.376366	-0.098075	-0.197808	-0.0329928	-0.261223	-0.013614	-0.275891	0.205551	-0.268679	-0.00970075	-0.0993403	0.0866092	-0.277973	-0.241162	-0.0962548	0.0300898	-0.496581	-0.387803	-0.218487	-0.483575	-0.798669	-0.304038	-0.260226	-0.47217	-0.553579	0.0204367	-0.100908	-0.010991	-0.576734	-0.0532417	-0.012795	-0.249801	
0.640169	2.7832	0	0	-0.383909	-0.09048	-0.195669	-0.0268525	-0.255831	-0.01424	-0.265138	0.204453	-0.262057	-0.0077315	-0.0885125	0.0863185	-0.273768	-0.241351	-0.0834825	0.0269495	-0.494144	-0.394689	-0.221349	-0.486682	-0.80279	-0.307287	-0.26439	-0.475598	-0.55072	0.0123585	-0.0890105	-0.023032	-0.584	-0.0617405	-0.014245	-0.259692	
0.638513	2.77862	0	0	-0.391452	-0.082885	-0.19353	-0.0207123	-0.250439	-0.014866	-0.254384	0.203354	-0.255436	-0.00576225	-0.0776847	0.0860278	-0.269563	-0.24154	-0.0707103	0.0238093	-0.491708	-0.401575	-0.224212	-0.489789	-0.80691	-0.310537	-0.268555	-0.479026	-0.547862	0.00428025	-0.0771132	-0.035073	-0.591267	-0.0702393	-0.015695	-0.269582	
0.637275	2.78473	0	0	-0.398994	-0.07529	-0.191391	-0.014572	-0.245046	-0.015492	-0.24363	0.202256	-0.248814	-0.003793	-0.066857	0.085737	-0.265357	-0.24173	-0.057938	0.020669	-0.489272	-0.40846	-0.227074	-0.492895	-0.811031	-0.313786	-0.27272	-0.482454	-0.545004	-0.003798	-0.065216	-0.047114	-0.598533	-0.078738	-0.017145	-0.279472	
0.636903	2.7771	0	0	-0.398994	-0.07529	-0.188094	-0.0116965	-0.24638	-0.0117215	-0.24363	0.202256	-0.251714	0.00440375	-0.062999	0.0900072	-0.268892	-0.231739	-0.0588733	0.0343105	-0.486837	-0.41534	-0.228791	-0.499232	-0.809665	-0.317648	-0.275469	-0.489872	-0.545004	-0.003798	-0.060245	-0.0503623	-0.597315	-0.08218	-0.014654	-0.286513	
0.637402	2.77862	0	0	-0.398994	-0.07529	-0.184797	-0.008821	-0.247714	-0.007951	-0.24363	0.202256	-0.254615	0.0126005	-0.059141	0.0942775	-0.272428	-0.221747	-0.0598085	0.047952	-0.484403	-0.42222	-0.230509	-0.505568	-0.808298	-0.32151	-0.278218	-0.49729	-0.545004	-0.003798	-0.055274	-0.0536105	-0.596097	-0.085622	-0.012163	-0.293553	
0.638428	2.77862	0	0	-0.398994	-0.07529	-0.181499	-0.0059455	-0.249048	-0.0041805	-0.24363	0.202256	-0.257515	0.0207972	-0.055283	0.0985478	-0.275963	-0.211755	-0.0607437	0.0615935	-0.481969	-0.429101	-0.232226	-0.511905	-0.806931	-0.325372	-0.280966	-0.504707	-0.545004	-0.003798	-0.050303	-0.0568587	-0.594879	-0.089064	-0.009672	-0.300594	
0.639628	2.77405	0	0	-0.398994	-0.07529	-0.178202	-0.00307	-0.250382	-0.00041	-0.24363	0.202256	-0.260415	0.028994	-0.051425	0.102818	-0.279498	-0.201764	-0.061679	0.075235	-0.479534	-0.435981	-0.233943	-0.518242	-0.805565	-0.329234	-0.283715	-0.512125	-0.545004	-0.003798	-0.045332	-0.060107	-0.593661	-0.092506	-0.007181	-0.307634	
0.640649	2.77099	0	0	-0.399172	-0.0884975	-0.175887	-0.00961275	-0.245049	-0.0154827	-0.237312	0.194175	-0.260344	0.0184477	-0.0498617	0.0984003	-0.275963	-0.211755	-0.056614	0.0719255	-0.488177	-0.435619	-0.241948	-0.51798	-0.822002	-0.327393	-0.286464	-0.51953	-0.552696	0.001228	-0.0442873	-0.0522528	-0.596097	-0.0856205	-0.00323375	-0.304801	
0.641144	2.76794	0	0	-0.39935	-0.101705	-0.173572	-0.0161555	-0.239715	-0.0305555	-0.230994	0.186094	-0.260273	0.0079015	-0.0482985	0.0939825	-0.272428	-0.221747	-0.051549	0.068616	-0.49682	-0.435257	-0.249952	-0.517718	-0.838439	-0.325552	-0.289212	-0.526936	-0.560388	0.006254	-0.0432425	-0.0443985	-0.598534	-0.078735	0.0007135	-0.301967	
0.640899	2.76947	0	0	-0.399527	-0.114913	-0.171257	-0.0226982	-0.234382	-0.0456283	-0.224676	0.178013	-0.260201	-0.00264475	-0.0467352	0.0895647	-0.268892	-0.231739	-0.046484	0.0653065	-0.505462	-0.434895	-0.257957	-0.517455	-0.854876	-0.323711	-0.291961	-0.534341	-0.568079	0.01128	-0.0421977	-0.0365443	-0.600971	-0.0718495	0.00466075	-0.299133	
0.639855	2.76031	0	0	-0.399705	-0.12812	-0.168942	-0.029241	-0.229049	-0.060701	-0.218358	0.169932	-0.26013	-0.013191	-0.045172	0.085147	-0.265357	-0.24173	-0.041419	0.061997	-0.514105	-0.434533	-0.265961	-0.517193	-0.871313	-0.32187	-0.29471	-0.541746	-0.575771	0.016306	-0.041153	-0.02869	-0.603407	-0.064964	0.008608	-0.2963	
0.637955	2.76184	0	0	-0.402337	-0.134382	-0.166629	-0.0357787	-0.225055	-0.0719888	-0.21113	0.159284	-0.254341	-0.0295525	-0.042048	0.0763178	-0.264857	-0.25484	-0.0351507	0.055293	-0.51788	-0.447898	-0.265393	-0.529969	-0.86997	-0.340511	-0.29605	-0.55312	-0.576321	0.0011635	-0.0351935	-0.0347193	-0.614313	-0.0631312	-0.00426375	-0.28789	
0.635145	2.75421	0	0	-0.404969	-0.140645	-0.164316	-0.0423165	-0.221061	-0.0832765	-0.203902	0.148637	-0.248551	-0.045914	-0.038924	0.0674885	-0.264356	-0.26795	-0.0288825	0.048589	-0.521655	-0.461264	-0.264825	-0.542744	-0.868628	-0.359152	-0.297391	-0.564493	-0.576871	-0.013979	-0.029234	-0.0407485	-0.625219	-0.0612985	-0.0171355	-0.279479	
0.631377	2.76184	0	0	-0.407601	-0.146907	-0.162002	-0.0488543	-0.217067	-0.0945643	-0.196674	0.137989	-0.242762	-0.0622755	-0.0358	0.0586592	-0.263856	-0.28106	-0.0226142	0.041885	-0.525429	-0.47463	-0.264256	-0.555519	-0.867286	-0.377794	-0.298731	-0.575867	-0.577421	-0.0291215	-0.0232745	-0.0467777	-0.636125	-0.0594657	-0.0300072	-0.271068	
0.626835	2.75421	0	0	-0.410233	-0.153169	-0.159689	-0.055392	-0.213073	-0.105852	-0.189446	0.127341	-0.236973	-0.078637	-0.032676	0.04983	-0.263356	-0.29417	-0.016346	0.035181	-0.529204	-0.487995	-0.263688	-0.568295	-0.865943	-0.396435	-0.300071	-0.587241	-0.577971	-0.044264	-0.017315	-0.052807	-0.647031	-0.057633	-0.042879	-0.262658	
0.622005	2.75268	0	0	-0.403927	-0.157289	-0.156386	-0.0525235	-0.206342	-0.110251	-0.185851	0.126967	-0.236009	-0.081361	-0.031115	0.0454188	-0.26218	-0.297492	-0.0124755	0.03526	-0.532981	-0.501323	-0.263127	-0.581044	-0.875513	-0.399046	-0.293038	-0.607117	-0.587624	-0.050333	-0.0163325	-0.0555835	-0.660923	-0.061772	-0.0378988	-0.276733	
0.617392	2.75726	0	0	-0.397622	-0.161409	-0.153084	-0.049655	-0.19961	-0.114649	-0.182256	0.126592	-0.235045	-0.084085	-0.029554	0.0410075	-0.261005	-0.300813	-0.008605	0.035339	-0.536758	-0.51465	-0.262566	-0.593792	-0.885084	-0.401658	-0.286004	-0.626994	-0.597276	-0.056402	-0.01535	-0.05836	-0.674814	-0.065911	-0.0329185	-0.290808	
0.613504	2.76184	0	0	-0.391316	-0.16553	-0.149782	-0.0467865	-0.192879	-0.119048	-0.178662	0.126218	-0.234081	-0.086809	-0.027993	0.0365962	-0.259829	-0.304135	-0.0047345	0.035418	-0.540535	-0.527977	-0.262005	-0.60654	-0.894654	-0.404269	-0.278971	-0.646871	-0.606929	-0.062471	-0.0143675	-0.0611365	-0.688706	-0.07005	-0.0279382	-0.304883	
0.610828	2.76794	0	0	-0.38501	-0.16965	-0.146479	-0.043918	-0.186147	-0.123446	-0.175067	0.125843	-0.233117	-0.089533	-0.026432	0.032185	-0.258654	-0.307457	-0.000864	0.035497	-0.544312	-0.541305	-0.261444	-0.619289	-0.904224	-0.40688	-0.271938	-0.666747	-0.616582	-0.06854	-0.013385	-0.063913	-0.702598	-0.074189	-0.022958	-0.318958	
0.609446	2.77862	0	0	-0.386234	-0.16619	-0.149952	-0.0341025	-0.182072	-0.120324	-0.172379	0.128037	-0.233117	-0.089533	-0.024872	0.027776	-0.256798	-0.301005	0.00421	0.0321815	-0.544312	-0.541305	-0.26544	-0.619151	-0.902865	-0.41072	-0.276101	-0.67013	-0.612317	-0.0805948	-0.013385	-0.063913	-0.692301	-0.0888348	-0.0192277	-0.3295	
0.609038	2.78931	0	0	-0.387459	-0.162731	-0.153425	-0.024287	-0.177998	-0.117203	-0.169691	0.130231	-0.233117	-0.089533	-0.023312	0.023367	-0.254943	-0.294554	0.009284	0.028866	-0.544312	-0.541305	-0.269436	-0.619014	-0.901506	-0.41456	-0.280265	-0.673512	-0.608051	-0.0926495	-0.013385	-0.063913	-0.682004	-0.103481	-0.0154975	-0.340041	
0.609266	2.80456	0	0	-0.388683	-0.159272	-0.156899	-0.0144715	-0.173924	-0.114081	-0.167004	0.132425	-0.233117	-0.089533	-0.021752	0.018958	-0.253088	-0.288102	0.014358	0.0255505	-0.544312	-0.541305	-0.273433	-0.618877	-0.900148	-0.418401	-0.284429	-0.676894	-0.603786	-0.104704	-0.013385	-0.063913	-0.671707	-0.118126	-0.0117672	-0.350583	
0.609794	2.8244	0	0	-0.389907	-0.155812	-0.160372	-0.004656	-0.169849	-0.110959	-0.164316	0.134619	-0.233117	-0.089533	-0.020192	0.014549	-0.251232	-0.28165	0.019432	0.022235	-0.544312	-0.541305	-0.277429	-0.618739	-0.898789	-0.422241	-0.288592	-0.680277	-0.599521	-0.116759	-0.013385	-0.063913	-0.66141	-0.132772	-0.008037	-0.361124	
0.610301	2.83966	0	0	-0.392542	-0.162066	-0.151279	-0.0181435	-0.171264	-0.121598	-0.165186	0.127289	-0.236912	-0.0891467	-0.0186325	0.0101422	-0.253586	-0.274998	0.0206323	0.0188428	-0.546733	-0.534462	-0.277429	-0.618739	-0.901507	-0.414559	-0.28162	-0.684833	-0.599521	-0.116759	-0.009388	-0.0643902	-0.668063	-0.128425	-0.008037	-0.361124	
0.610723	2.85644	0	0	-0.395177	-0.16832	-0.142186	-0.031631	-0.172678	-0.132237	-0.166057	0.11996	-0.240707	-0.0887605	-0.017073	0.0057355	-0.255939	-0.268346	0.0218325	0.0154505	-0.549155	-0.527618	-0.277429	-0.618739	-0.904225	-0.406876	-0.274648	-0.689389	-0.599521	-0.116759	-0.005391	-0.0648675	-0.674716	-0.124078	-0.008037	-0.361124	
0.611179	2.87323	0	0	-0.397811	-0.174574	-0.133094	-0.0451185	-0.174092	-0.142876	-0.166928	0.11263	-0.244502	-0.0883743	-0.0155135	0.00132875	-0.258293	-0.261694	0.0230328	0.0120582	-0.551577	-0.520775	-0.277429	-0.618739	-0.906944	-0.399194	-0.267675	-0.693945	-0.599521	-0.116759	-0.001394	-0.0653448	-0.681369	-0.11973	-0.008037	-0.361124	
0.611792	2.88696	0	0	-0.400446	-0.180828	-0.124001	-0.058606	-0.175507	-0.153515	-0.167798	0.105301	-0.248297	-0.087988	-0.013954	-0.003078	-0.260647	-0.255042	0.024233	0.008666	-0.553998	-0.513932	-0.277429	-0.618739	-0.909662	-0.391512	-0.260703	-0.698501	-0.599521	-0.116759	0.002603	-0.065822	-0.688022	-0.115383	-0.008037	-0.361124	
0.612684	2.90069	0	0	-0.396779	-0.19119	-0.12384	-0.0712695	-0.171521	-0.164779	-0.166857	0.092855	-0.252031	-0.098096	-0.0232422	-0.007163	-0.2625	-0.261501	0.0227575	0.00181175	-0.559516	-0.510326	-0.286551	-0.615251	-0.91512	-0.3909	-0.267675	-0.693945	-0.607185	-0.111751	0.00561975	-0.0635223	-0.692243	-0.117898	-0.00533375	-0.354786	
0.613947	2.91443	0	0	-0.393112	-0.201553	-0.12368	-0.083933	-0.167536	-0.176044	-0.165915	0.080409	-0.255765	-0.108204	-0.0325305	-0.011248	-0.264353	-0.26796	0.021282	-0.0050425	-0.565034	-0.506721	-0.295673	-0.611764	-0.920578	-0.390287	-0.274648	-0.689389	-0.61485	-0.106743	0.0086365	-0.0612225	-0.696464	-0.120414	-0.0026305	-0.348448	
0.615387	2.92663	0	0	-0.389446	-0.211916	-0.12352	-0.0965965	-0.163551	-0.187308	-0.164973	0.067963	-0.259499	-0.118312	-0.0418188	-0.015333	-0.266206	-0.274419	0.0198065	-0.0118968	-0.570552	-0.503115	-0.304796	-0.608276	-0.926035	-0.389675	-0.28162	-0.684833	-0.622514	-0.101735	0.0116533	-0.0589228	-0.700685	-0.122929	7.275E-05	-0.34211	
0.616647	2.93426	0	0	-0.385779	-0.222278	-0.123359	-0.10926	-0.159565	-0.198572	-0.164032	0.055517	-0.263233	-0.12842	-0.051107	-0.019418	-0.268059	-0.280878	0.018331	-0.018751	-0.57607	-0.499509	-0.313918	-0.604788	-0.931493	-0.389062	-0.288592	-0.680277	-0.630178	-0.096727	0.01467	-0.056623	-0.704906	-0.125444	0.002776	-0.335772	
0.617368	2.93884	0	0	-0.384558	-0.225729	-0.125512	-0.115377	-0.150174	-0.210475	-0.165814	0.0507737	-0.263179	-0.138895	-0.0394627	-0.0371657	-0.269912	-0.287328	0.0231225	-0.0322925	-0.585344	-0.50922	-0.310506	-0.61443	-0.941036	-0.39168	-0.285786	-0.688208	-0.627337	-0.104755	0.0106705	-0.0561455	-0.714549	-0.127045	-0.0113303	-0.323851	
0.617191	2.94342	0	0	-0.383337	-0.229181	-0.127665	-0.121495	-0.140783	-0.222379	-0.167596	0.0460305	-0.263125	-0.149369	-0.0278185	-0.0549135	-0.271766	-0.293778	0.027914	-0.045834	-0.594619	-0.518931	-0.307094	-0.624073	-0.950579	-0.394298	-0.282979	-0.69614	-0.624497	-0.112782	0.006671	-0.055668	-0.724193	-0.128646	-0.0254365	-0.31193	
0.615823	2.94952	0	0	-0.382116	-0.232632	-0.129817	-0.127612	-0.131392	-0.234283	-0.169378	0.0412872	-0.263071	-0.159843	-0.0161743	-0.0726612	-0.27362	-0.300228	0.0327055	-0.0593755	-0.603894	-0.528643	-0.303682	-0.633715	-0.960122	-0.396915	-0.280172	-0.704071	-0.621657	-0.12081	0.0026715	-0.0551905	-0.733836	-0.130248	-0.0395428	-0.30001	
0.613479	2.95563	0	0	-0.380895	-0.236083	-0.13197	-0.13373	-0.122001	-0.246186	-0.17116	0.036544	-0.263017	-0.170318	-0.00453	-0.090409	-0.275473	-0.306678	0.037497	-0.072917	-0.613168	-0.538354	-0.30027	-0.643358	-0.969665	-0.399533	-0.277366	-0.712002	-0.618816	-0.128837	-0.001328	-0.054713	-0.743479	-0.131849	-0.053649	-0.288089	
0.610612	2.95563	0	0	-0.382116	-0.232632	-0.13197	-0.13373	-0.122001	-0.246186	-0.165753	0.0310428	-0.257306	-0.176135	-0.002976	-0.0948008	-0.275473	-0.306678	0.0362998	-0.0695335	-0.612636	-0.551817	-0.297997	-0.64978	-0.96424	-0.414865	-0.275964	-0.715965	-0.622218	-0.135861	0.0016195	-0.0630425	-0.749477	-0.143707	-0.0486748	-0.302147	
0.607675	2.9602	0	0	-0.383337	-0.229181	-0.13197	-0.13373	-0.122001	-0.246186	-0.160346	0.0255415	-0.251595	-0.181953	-0.001422	-0.0991925	-0.275473	-0.306678	0.0351025	-0.06615	-0.612104	-0.56528	-0.295725	-0.656203	-0.958816	-0.430196	-0.274562	-0.719928	-0.625619	-0.142885	0.004567	-0.071372	-0.755475	-0.155565	-0.0437005	-0.316206	
0.605122	2.96478	0	0	-0.384558	-0.225729	-0.13197	-0.13373	-0.122001	-0.246186	-0.154939	0.0200402	-0.245885	-0.18777	0.000132	-0.103584	-0.275473	-0.306678	0.0339052	-0.0627665	-0.611571	-0.578743	-0.293453	-0.662625	-0.953391	-0.445528	-0.273159	-0.723891	-0.62902	-0.14991	0.0075145	-0.0797015	-0.761474	-0.167423	-0.0387262	-0.330264	
0.603325	2.96936	0	0	-0.385779	-0.222278	-0.13197	-0.13373	-0.122001	-0.246186	-0.149532	0.014539	-0.240174	-0.193587	0.001686	-0.107976	-0.275473	-0.306678	0.032708	-0.059383	-0.611039	-0.592206	-0.29118	-0.669048	-0.947966	-0.460859	-0.271757	-0.727854	-0.632422	-0.156934	0.010462	-0.088031	-0.767472	-0.179281	-0.033752	-0.344322	
0.602259	2.97546	0	0	-0.389446	-0.211916	-0.125353	-0.12802	-0.124655	-0.238684	-0.147747	0.0192785	-0.237341	-0.191266	0.00711575	-0.108148	-0.270093	-0.310193	0.0392648	-0.0558577	-0.606218	-0.60583	-0.288324	-0.665976	-0.953412	-0.460244	-0.268993	-0.720516	-0.624765	-0.161937	0.010462	-0.088031	-0.763848	-0.189524	-0.0300262	-0.354851	
0.601784	2.98767	0	0	-0.393112	-0.201553	-0.118736	-0.122309	-0.12731	-0.231183	-0.145961	0.024018	-0.234509	-0.188944	0.0125455	-0.108319	-0.264714	-0.313709	0.0458215	-0.0523325	-0.601398	-0.619454	-0.285468	-0.662905	-0.958858	-0.459629	-0.26623	-0.713178	-0.617107	-0.166941	0.010462	-0.088031	-0.760223	-0.199768	-0.0263005	-0.36538	
0.601761	3.00445	0	0	-0.396779	-0.19119	-0.112119	-0.116599	-0.129964	-0.223682	-0.144176	0.0287575	-0.231676	-0.186622	0.0179752	-0.10849	-0.259334	-0.317224	0.0523783	-0.0488073	-0.596577	-0.633078	-0.282612	-0.659833	-0.964304	-0.459014	-0.263467	-0.705839	-0.609449	-0.171945	0.010462	-0.088031	-0.756599	-0.210012	-0.0225748	-0.37591	
0.602049	3.01819	0	0	-0.400446	-0.180828	-0.105502	-0.110889	-0.132618	-0.21618	-0.142391	0.033497	-0.228843	-0.184301	0.023405	-0.108662	-0.253954	-0.320739	0.058935	-0.045282	-0.591756	-0.646702	-0.279756	-0.656762	-0.96975	-0.458399	-0.260703	-0.698501	-0.601792	-0.176948	0.010462	-0.088031	-0.752974	-0.220255	-0.018849	-0.386439	
0.602554	3.03345	0	0	-0.402893	-0.173913	-0.114589	-0.0974157	-0.132618	-0.21618	-0.139699	0.035678	-0.227931	-0.176544	0.0202948	-0.099872	-0.250922	-0.317614	0.0642993	-0.0383607	-0.593646	-0.653312	-0.276898	-0.653688	-0.968396	-0.462226	-0.257939	-0.69115	-0.60321	-0.172941	0.01348	-0.0857345	-0.759596	-0.215928	-0.0213323	-0.379421	
0.603305	3.05023	0	0	-0.40534	-0.166998	-0.123677	-0.0839425	-0.132618	-0.21618	-0.137006	0.037859	-0.227019	-0.168787	0.0171845	-0.091082	-0.247889	-0.314489	0.0696635	-0.0314395	-0.595535	-0.659923	-0.274041	-0.650614	-0.967041	-0.466053	-0.255175	-0.6838	-0.604628	-0.168934	0.016498	-0.083438	-0.766218	-0.2116	-0.0238155	-0.372403	
0.60435	3.06854	0	0	-0.407786	-0.160084	-0.132765	-0.0704692	-0.132618	-0.21618	-0.134314	0.04004	-0.226108	-0.161031	0.0140742	-0.082292	-0.244857	-0.311364	0.0750278	-0.0245183	-0.597425	-0.666534	-0.271184	-0.64754	-0.965687	-0.46988	-0.252412	-0.676449	-0.606046	-0.164926	0.019516	-0.0811415	-0.77284	-0.207273	-0.0262987	-0.365385	
0.605742	3.0838	0	0	-0.410233	-0.153169	-0.141852	-0.056996	-0.132618	-0.21618	-0.131622	0.042221	-0.225196	-0.153274	0.010964	-0.073502	-0.241824	-0.308239	0.080392	-0.017597	-0.599315	-0.673144	-0.268326	-0.644466	-0.964333	-0.473707	-0.249648	-0.669098	-0.607464	-0.160919	0.022534	-0.078845	-0.779462	-0.202946	-0.028782	-0.358367	
0.607527	3.10211	0	0	-0.412865	-0.159422	-0.138384	-0.0667973	-0.134048	-0.226775	-0.134314	0.04004	-0.232783	-0.152495	0.010964	-0.073502	-0.249062	-0.311168	0.076788	-0.007412	-0.605498	-0.67955	-0.268326	-0.644466	-0.968422	-0.476916	-0.251054	-0.665125	-0.602638	-0.157907	0.0215513	-0.0760678	-0.78067	-0.199533	-0.028782	-0.358367	
0.60963	3.11737	0	0	-0.415496	-0.165675	-0.134916	-0.0765985	-0.135479	-0.23737	-0.137006	0.037859	-0.240369	-0.151715	0.010964	-0.073502	-0.2563	-0.314098	0.073184	0.002773	-0.61168	-0.685957	-0.268326	-0.644466	-0.972511	-0.480125	-0.25246	-0.661151	-0.597811	-0.154894	0.0205685	-0.0732905	-0.781878	-0.19612	-0.028782	-0.358367	
0.61175	3.12805	0	0	-0.418127	-0.171928	-0.131447	-0.0863997	-0.136909	-0.247964	-0.139699	0.035678	-0.247955	-0.150936	0.010964	-0.073502	-0.263537	-0.317027	0.06958	0.012958	-0.617862	-0.692364	-0.268326	-0.644466	-0.9766	-0.483335	-0.253866	-0.657177	-0.592985	-0.151882	0.0195857	-0.0705132	-0.783085	-0.192707	-0.028782	-0.358367	
0.61356	3.14026	0	0	-0.420759	-0.178181	-0.127979	-0.096201	-0.138339	-0.258559	-0.142391	0.033497	-0.255542	-0.150156	0.010964	-0.073502	-0.270775	-0.319956	0.065976	0.023143	-0.624045	-0.69877	-0.268326	-0.644466	-0.980689	-0.486544	-0.255272	-0.653204	-0.588159	-0.148869	0.018603	-0.067736	-0.784293	-0.189294	-0.028782	-0.358367	
0.614733	3.15246	0	0	-0.42339	-0.184425	-0.130131	-0.102322	-0.139773	-0.269132	-0.136979	0.0279912	-0.25074	-0.163726	0.0140742	-0.082292	-0.274486	-0.332822	0.073465	0.0130285	-0.62423	-0.722095	-0.274039	-0.650612	-0.98346	-0.508206	-0.258034	-0.66056	-0.597243	-0.139848	0.0195857	-0.0705132	-0.79091	-0.18497	-0.0312672	-0.351343	
0.614951	3.16467	0	0	-0.426021	-0.190669	-0.132282	-0.108443	-0.141207	-0.279705	-0.131567	0.0224855	-0.245939	-0.177297	0.0171845	-0.091082	-0.278197	-0.345689	0.080954	0.002914	-0.624416	-0.74542	-0.279753	-0.656757	-0.986232	-0.529867	-0.260795	-0.667915	-0.606327	-0.130827	0.0205685	-0.0732905	-0.797527	-0.180646	-0.0337525	-0.34432	
0.614289	3.17383	0	0	-0.428653	-0.196914	-0.134434	-0.114565	-0.14264	-0.290279	-0.126154	0.0169797	-0.241137	-0.190867	0.0202948	-0.099872	-0.281909	-0.358555	0.088443	-0.0072005	-0.624601	-0.768745	-0.285467	-0.662902	-0.989003	-0.551529	-0.263557	-0.675271	-0.615411	-0.121807	0.0215513	-0.0760678	-0.804145	-0.176323	-0.0362377	-0.337296	
0.613402	3.18146	0	0	-0.431284	-0.203158	-0.136585	-0.120686	-0.144074	-0.300852	-0.120742	0.011474	-0.236335	-0.204437	0.023405	-0.108662	-0.28562	-0.371421	0.095932	-0.017315	-0.624786	-0.79207	-0.29118	-0.669048	-0.991774	-0.573191	-0.266319	-0.682627	-0.624495	-0.112786	0.022534	-0.078845	-0.810762	-0.171999	-0.038723	-0.330272	
0.612993	3.18756	0	0	-0.436355	-0.202497	-0.130969	-0.124355	-0.142751	-0.304591	-0.120742	0.011474	-0.238208	-0.209465	0.023405	-0.108662	-0.285137	-0.384454	0.0998197	-0.0172453	-0.634749	-0.811517	-0.29462	-0.681592	-0.995905	-0.590965	-0.273243	-0.693343	-0.618819	-0.128827	0.0164995	-0.0834363	-0.819153	-0.177006	-0.0517703	-0.335238	
0.613767	3.19214	0	0	-0.441426	-0.201836	-0.125354	-0.128025	-0.141428	-0.30833	-0.120742	0.011474	-0.240082	-0.214493	0.023405	-0.108662	-0.284654	-0.397486	0.103708	-0.0171755	-0.644713	-0.830965	-0.298061	-0.694136	-1.00004	-0.608739	-0.280168	-0.704058	-0.613144	-0.144867	0.010465	-0.0880275	-0.827543	-0.182013	-0.0648175	-0.340204	
0.616402	3.19519	0	0	-0.446496	-0.201175	-0.119738	-0.131694	-0.140105	-0.312069	-0.120742	0.011474	-0.241955	-0.219521	0.023405	-0.108662	-0.28417	-0.410519	0.107595	-0.0171057	-0.654676	-0.850412	-0.301501	-0.706679	-1.00417	-0.626513	-0.287092	-0.714774	-0.607468	-0.160907	0.0044305	-0.0926187	-0.835934	-0.187021	-0.0778648	-0.34517	
0.620841	3.19214	0	0	-0.451567	-0.200514	-0.114122	-0.135363	-0.138782	-0.315808	-0.120742	0.011474	-0.243828	-0.224549	0.023405	-0.108662	-0.283687	-0.423551	0.111483	-0.017036	-0.664639	-0.869859	-0.304941	-0.719223	-1.0083	-0.644287	-0.294017	-0.72549	-0.601792	-0.176948	-0.001604	-0.09721	-0.844325	-0.192028	-0.090912	-0.350136	
0.626147	3.19214	0	0	-0.446496	-0.201175	-0.111967	-0.129245	-0.132051	-0.320206	-0.118954	0.016215	-0.238119	-0.230362	0.0288397	-0.108835	-0.282518	-0.426855	0.118064	-0.0134997	-0.664859	-0.892993	-0.303267	-0.735076	-1.01243	-0.661996	-0.287018	-0.74527	-0.611434	-0.182957	-0.00265775	-0.105045	-0.846106	-0.201338	-0.0923625	-0.359962	
0.631329	3.18756	0	0	-0.441426	-0.201836	-0.109812	-0.123126	-0.12532	-0.324605	-0.117166	0.020956	-0.232409	-0.236175	0.0342745	-0.109008	-0.281349	-0.43016	0.124644	-0.0099635	-0.66508	-0.916127	-0.301593	-0.75093	-1.01657	-0.679705	-0.280019	-0.76505	-0.621077	-0.188966	-0.0037115	-0.11288	-0.847887	-0.210649	-0.093813	-0.369788	
0.635398	3.17993	0	0	-0.436355	-0.202497	-0.107657	-0.117008	-0.118588	-0.329004	-0.115377	0.025697	-0.2267	-0.241989	0.0397093	-0.109181	-0.280179	-0.433465	0.131225	-0.00642725	-0.665301	-0.939262	-0.299919	-0.766784	-1.02071	-0.697414	-0.273021	-0.78483	-0.630719	-0.194976	-0.00476525	-0.120716	-0.849668	-0.219959	-0.0952635	-0.379615	
0.637376	3.17535	0	0	-0.431284	-0.203158	-0.105502	-0.110889	-0.111857	-0.333402	-0.113589	0.030438	-0.220991	-0.247802	0.045144	-0.109354	-0.27901	-0.436769	0.137805	-0.002891	-0.665521	-0.962396	-0.298245	-0.782637	-1.02485	-0.715123	-0.266022	-0.80461	-0.640362	-0.200985	-0.005819	-0.128551	-0.851449	-0.229269	-0.096714	-0.389441	
0.636951	3.1723	0	0	-0.433727	-0.196254	-0.101192	-0.0986265	-0.109091	-0.326582	-0.10368	0.0318502	-0.219114	-0.242778	0.0490272	-0.105131	-0.272471	-0.443581	0.141984	0.0074585	-0.669319	-0.97539	-0.306213	-0.782343	-1.02625	-0.725844	-0.268791	-0.811908	-0.638947	-0.204983	-0.00679925	-0.12578	-0.846052	-0.230179	-0.103119	-0.385256	
0.634836	3.1662	0	0	-0.43617	-0.18935	-0.096882	-0.086364	-0.106325	-0.319762	-0.093771	0.0332625	-0.217238	-0.237754	0.0529105	-0.100907	-0.265933	-0.450393	0.146164	0.017808	-0.673117	-0.988383	-0.314182	-0.78205	-1.02765	-0.736564	-0.27156	-0.819206	-0.637533	-0.208982	-0.0077795	-0.12301	-0.840655	-0.231089	-0.109523	-0.381072	
0.631833	3.15399	0	0	-0.438613	-0.182445	-0.092572	-0.0741015	-0.103559	-0.312943	-0.083862	0.0346748	-0.215361	-0.23273	0.0567938	-0.0966835	-0.259395	-0.457205	0.150343	0.0281575	-0.676915	-1.00138	-0.322151	-0.781756	-1.02905	-0.747285	-0.274329	-0.826505	-0.636118	-0.212981	-0.00875975	-0.120239	-0.835257	-0.231998	-0.115927	-0.376887	
0.628743	3.14636	0	0	-0.441056	-0.175541	-0.088262	-0.061839	-0.100793	-0.306123	-0.073953	0.036087	-0.213484	-0.227706	0.060677	-0.09246	-0.252856	-0.464017	0.154522	0.038507	-0.680713	-1.01437	-0.330119	-0.781462	-1.03045	-0.758006	-0.277098	-0.833803	-0.634703	-0.216979	-0.00974	-0.117469	-0.82986	-0.232908	-0.122332	-0.372702	
0.62636	3.14178	0	0	-0.447348	-0.17143	-0.0905785	-0.0552918	-0.0994687	-0.309865	-0.080285	0.0441715	-0.216363	-0.219569	0.064563	-0.0882315	-0.255194	-0.457409	0.159909	0.0454693	-0.684982	-1.01416	-0.327859	-0.787848	-1.03587	-0.757374	-0.279867	-0.841089	-0.636118	-0.212981	-0.007706	-0.112404	-0.842491	-0.211555	-0.119646	-0.366378	
0.625109	3.13415	0	0	-0.453639	-0.167319	-0.092895	-0.0487445	-0.0981445	-0.313607	-0.086617	0.052256	-0.219243	-0.211432	0.068449	-0.084003	-0.257533	-0.450801	0.165296	0.0524315	-0.689252	-1.01394	-0.3256	-0.794234	-1.04128	-0.756742	-0.282636	-0.848376	-0.637533	-0.208982	-0.005672	-0.10734	-0.855123	-0.190201	-0.11696	-0.360054	
0.624815	3.12347	0	0	-0.459931	-0.163208	-0.0952115	-0.0421972	-0.0968202	-0.317349	-0.092949	0.0603405	-0.222122	-0.203295	0.072335	-0.0797745	-0.259871	-0.444193	0.170683	0.0593937	-0.693521	-1.01373	-0.323341	-0.800619	-1.0467	-0.75611	-0.285405	-0.855662	-0.638947	-0.204983	-0.003638	-0.102275	-0.867754	-0.168847	-0.114274	-0.353731	
0.625248	3.11737	0	0	-0.466222	-0.159097	-0.097528	-0.03565	-0.095496	-0.321091	-0.099281	0.068425	-0.225001	-0.195158	0.076221	-0.075546	-0.262209	-0.437585	0.17607	0.066356	-0.69779	-1.01351	-0.321081	-0.807005	-1.05211	-0.755478	-0.288174	-0.862949	-0.640362	-0.200985	-0.001604	-0.09721	-0.880385	-0.147494	-0.111588	-0.347407	
0.626179	3.11127	0	0	-0.459931	-0.163208	-0.100838	-0.0385207	-0.0941725	-0.324831	-0.0938573	0.0629072	-0.225916	-0.2029	0.0847853	-0.0845267	-0.262904	-0.447288	0.185086	0.0630875	-0.709396	-1.01622	-0.327912	-0.809899	-1.06699	-0.757366	-0.296495	-0.869621	-0.640362	-0.200985	-0.002518	-0.0838075	-0.884008	-0.137255	-0.117795	-0.329865	
0.627381	3.09601	0	0	-0.453639	-0.167319	-0.104149	-0.0413915	-0.092849	-0.328572	-0.0884335	0.0573895	-0.226831	-0.210642	0.0933495	-0.0935075	-0.263599	-0.45699	0.194103	0.059819	-0.721003	-1.01893	-0.334743	-0.812793	-1.08188	-0.759254	-0.304816	-0.876294	-0.640362	-0.200985	-0.003432	-0.070405	-0.887631	-0.127015	-0.124002	-0.312323	
0.628694	3.09143	0	0	-0.447348	-0.17143	-0.107459	-0.0442623	-0.0915255	-0.332313	-0.0830097	0.0518718	-0.227746	-0.218384	0.101914	-0.102488	-0.264294	-0.466693	0.203119	0.0565505	-0.73261	-1.02164	-0.341575	-0.815687	-1.09676	-0.761143	-0.313136	-0.882966	-0.640362	-0.200985	-0.004346	-0.0570025	-0.891254	-0.116776	-0.130209	-0.294781	
0.630077	3.08227	0	0	-0.441056	-0.175541	-0.110769	-0.047133	-0.090202	-0.336053	-0.077586	0.046354	-0.228661	-0.226126	0.110478	-0.111469	-0.264989	-0.476395	0.212135	0.053282	-0.744216	-1.02435	-0.348406	-0.818581	-1.11164	-0.763031	-0.321457	-0.889638	-0.640362	-0.200985	-0.00526	-0.0436	-0.894877	-0.106536	-0.136416	-0.277239	
0.631496	3.07464	0	0	-0.442278	-0.172087	-0.1063	-0.0475365	-0.0847835	-0.336718	-0.073068	0.043402	-0.227702	-0.228836	0.112035	-0.11587	-0.264989	-0.476395	0.216043	0.053352	-0.754617	-1.0304	-0.351849	-0.831022	-1.11437	-0.769944	-0.321443	-0.904753	-0.64235	-0.211974	-0.0092565	-0.0431245	-0.892461	-0.113364	-0.141578	-0.276566	
0.632922	3.06396	0	0	-0.4435	-0.168633	-0.101832	-0.04794	-0.079365	-0.337383	-0.06855	0.04045	-0.226743	-0.231546	0.113592	-0.12027	-0.264989	-0.476395	0.219952	0.053422	-0.765018	-1.03645	-0.355293	-0.843463	-1.1171	-0.776857	-0.321429	-0.919869	-0.644338	-0.222963	-0.013253	-0.042649	-0.890046	-0.120191	-0.14674	-0.275892	
0.634321	3.05939	0	0	-0.444722	-0.165179	-0.0973627	-0.0483435	-0.0739465	-0.338048	-0.064032	0.037498	-0.225784	-0.234256	0.115149	-0.12467	-0.264989	-0.476395	0.22386	0.053492	-0.775419	-1.0425	-0.358737	-0.855905	-1.11983	-0.783771	-0.321414	-0.934984	-0.646327	-0.233951	-0.0172495	-0.0421735	-0.88763	-0.127019	-0.151902	-0.275218	
0.635679	3.04718	0	0	-0.445944	-0.161725	-0.092894	-0.048747	-0.068528	-0.338713	-0.059514	0.034546	-0.224825	-0.236966	0.116706	-0.129071	-0.264989	-0.476395	0.227769	0.053562	-0.78582	-1.04855	-0.36218	-0.868346	-1.12255	-0.790684	-0.3214	-0.9501	-0.648315	-0.24494	-0.021246	-0.041698	-0.885214	-0.133846	-0.157064	-0.274545	
0.637017	3.04108	0	0	-0.443317	-0.155469	-0.0851063	-0.0462812	-0.057677	-0.340048	-0.0559025	0.0341598	-0.22199	-0.234651	0.1097	-0.124493	-0.257752	-0.473508	0.235594	0.0537	-0.781098	-1.06189	-0.367874	-0.874403	-1.11856	-0.801982	-0.329709	-0.956732	-0.64267	-0.260894	-0.0311968	-0.035196	-0.893576	-0.138868	-0.16098	-0.277381	
0.638358	3.03497	0	0	-0.44069	-0.149212	-0.0773185	-0.0438155	-0.046826	-0.341384	-0.052291	0.0337735	-0.219155	-0.232336	0.102693	-0.119914	-0.250514	-0.470621	0.24342	0.053838	-0.776377	-1.07524	-0.373567	-0.880459	-1.11456	-0.813279	-0.338018	-0.963364	-0.637024	-0.276849	-0.0411475	-0.028694	-0.901938	-0.14389	-0.164897	-0.280218	
0.639728	3.02887	0	0	-0.438064	-0.142956	-0.0695308	-0.0413498	-0.035975	-0.342719	-0.0486795	0.0333873	-0.216319	-0.230021	0.0956865	-0.115336	-0.243277	-0.467734	0.251245	0.053976	-0.771655	-1.08858	-0.379261	-0.886516	-1.11056	-0.824577	-0.346327	-0.969995	-0.631379	-0.292803	-0.0510982	-0.022192	-0.9103	-0.148913	-0.168814	-0.283054	
0.641151	3.01819	0	0	-0.435437	-0.1367	-0.061743	-0.038884	-0.025124	-0.344054	-0.045068	0.033001	-0.213484	-0.227706	0.08868	-0.110758	-0.23604	-0.464847	0.25907	0.054114	-0.766933	-1.10193	-0.384954	-0.892573	-1.10657	-0.835874	-0.354636	-0.976627	-0.625734	-0.308758	-0.061049	-0.01569	-0.918662	-0.153935	-0.17273	-0.28589	
0.642572	3.01208	0	0	-0.439111	-0.126318	-0.059586	-0.0327308	-0.0291013	-0.332814	-0.042363	0.035183	-0.212568	-0.219963	0.0941295	-0.110936	-0.231135	-0.45534	0.260567	0.06102	-0.772364	-1.09838	-0.388922	-0.892422	-1.1079	-0.83211	-0.35325	-0.980545	-0.625734	-0.308758	-0.0630152	-0.0101327	-0.917457	-0.157341	-0.173972	-0.282382	
0.643704	3.00751	0	0	-0.442784	-0.115935	-0.057429	-0.0265775	-0.0330785	-0.321573	-0.039658	0.037365	-0.211651	-0.212219	0.099579	-0.111114	-0.22623	-0.445833	0.262064	0.067926	-0.777794	-1.09483	-0.39289	-0.892271	-1.10923	-0.828345	-0.351863	-0.984463	-0.625734	-0.308758	-0.0649815	-0.0045755	-0.916251	-0.160748	-0.175213	-0.278873	
0.644219	2.99835	0	0	-0.446458	-0.105553	-0.055272	-0.0204242	-0.0370557	-0.310333	-0.036953	0.039547	-0.210735	-0.204475	0.105028	-0.111291	-0.221324	-0.436326	0.26356	0.074832	-0.783225	-1.09128	-0.396858	-0.89212	-1.11056	-0.824581	-0.350477	-0.98838	-0.625734	-0.308758	-0.0669478	0.00098175	-0.915046	-0.164154	-0.176454	-0.275365	
0.643787	2.99072	0	0	-0.450131	-0.095171	-0.053115	-0.014271	-0.041033	-0.299092	-0.034248	0.041729	-0.209819	-0.196732	0.110478	-0.111469	-0.216419	-0.426819	0.265057	0.081738	-0.788656	-1.08773	-0.400826	-0.891969	-1.11189	-0.820817	-0.349091	-0.992298	-0.625734	-0.308758	-0.068914	0.006539	-0.913841	-0.167561	-0.177696	-0.271857	
0.642079	2.98309	0	0	-0.448906	-0.098633	-0.056432	-0.0171463	-0.0397065	-0.30284	-0.036953	0.039547	-0.218419	-0.18276	0.10892	-0.107066	-0.223454	-0.406937	0.267764	0.0852303	-0.793378	-1.07439	-0.408163	-0.88229	-1.11589	-0.809515	-0.351864	-0.984461	-0.628555	-0.300784	-0.066892	0.0116315	-0.907249	-0.171868	-0.173781	-0.269018	
0.638909	2.97851	0	0	-0.447681	-0.102095	-0.059749	-0.0200215	-0.03838	-0.306589	-0.039658	0.037365	-0.227019	-0.168788	0.107362	-0.102664	-0.23049	-0.387054	0.270471	0.0887225	-0.798099	-1.06104	-0.4155	-0.87261	-1.11989	-0.798213	-0.354637	-0.976624	-0.631377	-0.29281	-0.06487	0.016724	-0.900657	-0.176175	-0.169865	-0.266178	
0.634712	2.97241	0	0	-0.446456	-0.105557	-0.063066	-0.0228968	-0.0370535	-0.310337	-0.042363	0.035183	-0.23562	-0.154816	0.105805	-0.0982615	-0.237525	-0.367171	0.273179	0.0922147	-0.802821	-1.0477	-0.422838	-0.862931	-1.12389	-0.786911	-0.35741	-0.968786	-0.634198	-0.284837	-0.062848	0.0218165	-0.894066	-0.180483	-0.165949	-0.263339	
0.630094	2.96936	0	0	-0.445231	-0.109019	-0.066383	-0.025772	-0.035727	-0.314085	-0.045068	0.033001	-0.24422	-0.140844	0.104247	-0.093859	-0.24456	-0.347289	0.275886	0.095707	-0.807543	-1.03435	-0.430175	-0.853252	-1.12789	-0.775609	-0.360183	-0.960949	-0.637019	-0.276863	-0.060826	0.026909	-0.887474	-0.18479	-0.162034	-0.2605	
0.625662	2.96173	0	0	-0.451527	-0.104905	-0.0696978	-0.028645	-0.0330763	-0.321577	-0.0468635	0.0282548	-0.243258	-0.143561	0.105805	-0.0982615	-0.240351	-0.347488	0.274675	0.0991308	-0.811789	-1.03415	-0.434137	-0.853106	-1.14	-0.770591	-0.368492	-0.952505	-0.633612	-0.269884	-0.0617612	0.0403652	-0.889885	-0.177975	-0.156685	-0.247777	
0.622024	2.95257	0	0	-0.457824	-0.100791	-0.0730125	-0.031518	-0.0304255	-0.32907	-0.048659	0.0235085	-0.242297	-0.146278	0.107362	-0.102664	-0.236142	-0.347688	0.273463	0.102554	-0.816036	-1.03394	-0.438098	-0.852961	-1.15212	-0.765574	-0.376802	-0.944061	-0.630205	-0.262904	-0.0626965	0.0538215	-0.892297	-0.17116	-0.151336	-0.235054	
0.619605	2.95105	0	0	-0.46412	-0.0966763	-0.0763272	-0.034391	-0.0277748	-0.336562	-0.0504545	0.0187623	-0.241336	-0.148996	0.10892	-0.107066	-0.231933	-0.347887	0.272251	0.105978	-0.820282	-1.03373	-0.44206	-0.852815	-1.16423	-0.760556	-0.385111	-0.935617	-0.626799	-0.255925	-0.0636318	0.0672777	-0.894708	-0.164346	-0.145986	-0.222331	
0.618084	2.94495	0	0	-0.470417	-0.092562	-0.079642	-0.037264	-0.025124	-0.344054	-0.05225	0.014016	-0.240374	-0.151713	0.110478	-0.111469	-0.227724	-0.348086	0.27104	0.109402	-0.824528	-1.03352	-0.446022	-0.852669	-1.17634	-0.755538	-0.39342	-0.927173	-0.623392	-0.248946	-0.064567	0.080734	-0.897119	-0.157531	-0.140637	-0.209608	
0.616953	2.94189	0	0	-0.466571	-0.0897508	-0.0751673	-0.037669	-0.026449	-0.340309	-0.0441152	0.0106733	-0.241336	-0.148996	0.110478	-0.111469	-0.224687	-0.344966	0.27496	0.109474	-0.831832	-1.03644	-0.446022	-0.852669	-1.17501	-0.759305	-0.394808	-0.92325	-0.615741	-0.253945	-0.063581	0.0779472	-0.892298	-0.171155	-0.138147	-0.216645	
0.615699	2.93579	0	0	-0.462725	-0.0869395	-0.0706925	-0.038074	-0.027774	-0.336564	-0.0359805	0.0073305	-0.242297	-0.146278	0.110478	-0.111469	-0.221651	-0.341846	0.27888	0.109545	-0.839136	-1.03936	-0.446022	-0.852669	-1.17368	-0.763073	-0.396196	-0.919327	-0.60809	-0.258944	-0.062595	0.0751605	-0.887477	-0.184779	-0.135657	-0.223683	
0.613814	2.92816	0	0	-0.458879	-0.0841283	-0.0662178	-0.038479	-0.029099	-0.332818	-0.0278457	0.00398775	-0.243258	-0.143561	0.110478	-0.111469	-0.218614	-0.338725	0.282799	0.109617	-0.846439	-1.04228	-0.446022	-0.852669	-1.17234	-0.766841	-0.397584	-0.915404	-0.60044	-0.263943	-0.061609	0.0723738	-0.882657	-0.198404	-0.133166	-0.23072	
0.610956	2.92663	0	0	-0.455033	-0.081317	-0.061743	-0.038884	-0.030424	-0.329073	-0.019711	0.000645	-0.24422	-0.140844	0.110478	-0.111469	-0.215577	-0.335605	0.286719	0.109689	-0.853743	-1.0452	-0.446022	-0.852669	-1.17101	-0.770608	-0.398972	-0.911481	-0.592789	-0.268942	-0.060623	0.069587	-0.877836	-0.212028	-0.130676	-0.237758	
0.60732	2.92053	0	0	-0.457485	-0.074386	-0.0516232	-0.0429763	-0.0263183	-0.325993	-0.013384	0.00243225	-0.241388	-0.138514	0.10892	-0.107066	-0.214891	-0.325832	0.289428	0.113188	-0.856802	-1.04833	-0.446022	-0.852669	-1.17773	-0.76622	-0.394828	-0.908153	-0.597615	-0.271927	-0.064614	0.0700527	-0.877836	-0.212028	-0.133354	-0.244116	
0.603204	2.9129	0	0	-0.459938	-0.067455	-0.0415035	-0.0470685	-0.0222125	-0.322914	-0.007057	0.0042195	-0.238556	-0.136184	0.107362	-0.102664	-0.214205	-0.316059	0.292138	0.116686	-0.859861	-1.05145	-0.446022	-0.852669	-1.18444	-0.761831	-0.390684	-0.904824	-0.60244	-0.274913	-0.068605	0.0705185	-0.877836	-0.212028	-0.136031	-0.250474	
0.598906	2.9129	0	0	-0.462391	-0.060524	-0.0313838	-0.0511607	-0.0181067	-0.319835	-0.00073	0.00600675	-0.235724	-0.133855	0.105805	-0.0982615	-0.21352	-0.306287	0.294848	0.120185	-0.862919	-1.05458	-0.446022	-0.852669	-1.19116	-0.757443	-0.386541	-0.901496	-0.607266	-0.277898	-0.072596	0.0709842	-0.877836	-0.212028	-0.138709	-0.256831	
0.594726	2.9068	0	0	-0.464843	-0.053593	-0.021264	-0.055253	-0.014001	-0.316755	0.005597	0.007794	-0.232892	-0.131525	0.104247	-0.093859	-0.212834	-0.296514	0.297557	0.123684	-0.865978	-1.0577	-0.446022	-0.852669	-1.19787	-0.753055	-0.382397	-0.898168	-0.612091	-0.280883	-0.076587	0.07145	-0.877836	-0.212028	-0.141387	-0.263189	
0.590891	2.90375	0	0	-0.46607	-0.0501255	-0.028066	-0.0482877	-0.015328	-0.313005	0.005597	0.007794	-0.23578	-0.123363	0.102688	-0.0894542	-0.216367	-0.28653	0.290928	0.120113	-0.863622	-1.06436	-0.451691	-0.858727	-1.19654	-0.756821	-0.382397	-0.898168	-0.612091	-0.280883	-0.0726467	0.0603148	-0.871239	-0.216338	-0.146742	-0.275877	
0.587516	2.89764	0	0	-0.467297	-0.046658	-0.034868	-0.0413225	-0.016655	-0.309255	0.005597	0.007794	-0.238668	-0.115201	0.10113	-0.0850495	-0.219899	-0.276547	0.284299	0.116543	-0.861265	-1.07102	-0.457361	-0.864786	-1.19521	-0.760587	-0.382397	-0.898168	-0.612091	-0.280883	-0.0687065	0.0491795	-0.864642	-0.220648	-0.152096	-0.288565	
0.584706	2.89612	0	0	-0.468524	-0.0431905	-0.04167	-0.0343572	-0.017982	-0.305505	0.005597	0.007794	-0.241556	-0.107039	0.0995707	-0.0806448	-0.223432	-0.266563	0.277669	0.112973	-0.858908	-1.07768	-0.463031	-0.870845	-1.19388	-0.764353	-0.382397	-0.898168	-0.612091	-0.280883	-0.0647662	0.0380443	-0.858046	-0.224959	-0.15745	-0.301253	
0.582564	2.88696	0	0	-0.469751	-0.039723	-0.048472	-0.027392	-0.019309	-0.301755	0.005597	0.007794	-0.244444	-0.098877	0.098012	-0.07624	-0.226965	-0.256579	0.27104	0.109402	-0.856552	-1.08434	-0.4687	-0.876903	-1.19254	-0.768119	-0.382397	-0.898168	-0.612091	-0.280883	-0.060826	0.026909	-0.851449	-0.229269	-0.162805	-0.313941	
0.581184	2.88544	0	0	-0.468524	-0.0431905	-0.0561045	-0.0425465	-0.0220877	-0.308584	0.000178	0.00344075	-0.250163	-0.0930472	0.0925643	-0.0760665	-0.234712	-0.246395	0.259296	0.109183	-0.860088	-1.07435	-0.476607	-0.876613	-1.19254	-0.768119	-0.392099	-0.885787	-0.610093	-0.269906	-0.0667845	0.0329415	-0.855064	-0.219053	-0.15661	-0.331449	
0.580543	2.87933	0	0	-0.467297	-0.046658	-0.063737	-0.057701	-0.0248665	-0.315414	-0.005241	-0.0009125	-0.255883	-0.0872175	0.0871165	-0.075893	-0.242459	-0.236211	0.247553	0.108963	-0.863623	-1.06436	-0.484513	-0.876323	-1.19254	-0.768119	-0.401802	-0.873406	-0.608096	-0.258929	-0.072743	0.038974	-0.858679	-0.208837	-0.150415	-0.348956	
0.580535	2.87933	0	0	-0.46607	-0.0501255	-0.0713695	-0.0728555	-0.0276452	-0.322244	-0.01066	-0.00526575	-0.261602	-0.0813878	0.0816687	-0.0757195	-0.250206	-0.226027	0.235809	0.108743	-0.867158	-1.05437	-0.49242	-0.876032	-1.19254	-0.768119	-0.411504	-0.861026	-0.606098	-0.247952	-0.0787015	0.0450065	-0.862294	-0.198621	-0.14422	-0.366463	
0.581056	2.88544	0	0	-0.464843	-0.053593	-0.079002	-0.08801	-0.030424	-0.329073	-0.016079	-0.009619	-0.267321	-0.075558	0.076221	-0.075546	-0.257953	-0.215843	0.224065	0.108524	-0.870694	-1.04438	-0.500327	-0.875742	-1.19254	-0.768119	-0.421206	-0.848645	-0.6041	-0.236975	-0.08466	0.051039	-0.865909	-0.188405	-0.138025	-0.383971	
0.582	2.87781	0	0	-0.46607	-0.0501255	-0.0776938	-0.103932	-0.0345268	-0.332149	-0.0187865	-0.0117935	-0.270148	-0.0778957	0.070778	-0.075374	-0.257953	-0.215843	0.221365	0.105031	-0.878467	-1.03417	-0.510466	-0.869117	-1.19659	-0.771261	-0.421206	-0.848645	-0.600689	-0.229978	-0.0856447	0.0538225	-0.857527	-0.183396	-0.138025	-0.383971	
0.583272	2.87781	0	0	-0.467297	-0.046658	-0.0763855	-0.119855	-0.0386295	-0.335226	-0.021494	-0.013968	-0.272975	-0.0802335	0.065335	-0.075202	-0.257953	-0.215843	0.218666	0.101538	-0.886239	-1.02397	-0.520604	-0.862492	-1.20064	-0.774403	-0.421206	-0.848645	-0.597278	-0.22298	-0.0866295	0.056606	-0.849144	-0.178387	-0.138025	-0.383971	
0.584814	2.87475	0	0	-0.468524	-0.0431905	-0.0750772	-0.135777	-0.0427322	-0.338303	-0.0242015	-0.0161425	-0.275802	-0.0825712	0.059892	-0.07503	-0.257953	-0.215843	0.215966	0.098045	-0.894011	-1.01376	-0.530743	-0.855867	-1.20468	-0.777545	-0.421206	-0.848645	-0.593867	-0.215983	-0.0876143	0.0593895	-0.840761	-0.173379	-0.138025	-0.383971	
0.58658	2.86865	0	0	-0.469751	-0.039723	-0.073769	-0.151699	-0.046835	-0.341379	-0.026909	-0.018317	-0.278629	-0.084909	0.054449	-0.074858	-0.257953	-0.215843	0.213266	0.094552	-0.901784	-1.00356	-0.540882	-0.849242	-1.20873	-0.780687	-0.421206	-0.848645	-0.590456	-0.208986	-0.088599	0.062173	-0.832379	-0.16837	-0.138025	-0.383971	
0.588521	2.86255	0	0	-0.446802	-0.0360287	-0.0726148	-0.154961	-0.0400825	-0.345791	-0.023294	-0.0187075	-0.27195	-0.0934555	0.0614497	-0.0794325	-0.249529	-0.216222	0.215966	0.098045	-0.902478	-1.01335	-0.543704	-0.852271	-1.21549	-0.790717	-0.425342	-0.851984	-0.598113	-0.203983	-0.0945552	0.0682052	-0.836004	-0.158127	-0.14298	-0.369968	
0.59059	2.86255	0	0	-0.423852	-0.0323345	-0.0714605	-0.158224	-0.03333	-0.350204	-0.019679	-0.019098	-0.265272	-0.102002	0.0684505	-0.084007	-0.241105	-0.216601	0.218666	0.101538	-0.903172	-1.02315	-0.546526	-0.8553	-1.22224	-0.800747	-0.429477	-0.855323	-0.605771	-0.198979	-0.100512	0.0742375	-0.839628	-0.147883	-0.147935	-0.355965	
0.592789	2.86102	0	0	-0.400903	-0.0286402	-0.0703063	-0.161486	-0.0265775	-0.354617	-0.016064	-0.0194885	-0.258594	-0.110549	0.0754512	-0.0885815	-0.232681	-0.216979	0.221365	0.105031	-0.903866	-1.03294	-0.549349	-0.858328	-1.229	-0.810778	-0.433613	-0.858662	-0.613429	-0.193975	-0.106468	0.0802698	-0.843252	-0.137639	-0.15289	-0.341961	
0.595206	2.86255	0	0	-0.377954	-0.024946	-0.069152	-0.164748	-0.019825	-0.359029	-0.012449	-0.019879	-0.251915	-0.119095	0.082452	-0.093156	-0.224257	-0.217358	0.224065	0.108524	-0.90456	-1.04273	-0.552171	-0.861357	-1.23576	-0.820808	-0.437748	-0.862001	-0.621086	-0.188972	-0.112424	0.086302	-0.846877	-0.127396	-0.157845	-0.327958	
0.597938	2.8595	0	0	-0.368995	-0.0227747	-0.0658343	-0.161899	-0.015717	-0.355956	-0.0097395	-0.0177048	-0.248121	-0.119483	0.0808943	-0.0887535	-0.218184	-0.211063	0.234597	0.112169	-0.901027	-1.05272	-0.54993	-0.867691	-1.23582	-0.835183	-0.443269	-0.861412	-0.62449	-0.195974	-0.117434	0.07888	-0.852275	-0.126495	-0.159285	-0.337783	
0.601082	2.86255	0	0	-0.360036	-0.0206035	-0.0625165	-0.15905	-0.011609	-0.352882	-0.00703	-0.0155305	-0.244328	-0.119871	0.0793365	-0.084351	-0.212111	-0.204769	0.245128	0.115813	-0.897495	-1.0627	-0.547689	-0.874024	-1.23588	-0.849559	-0.44879	-0.860823	-0.627895	-0.202976	-0.122445	0.071458	-0.857673	-0.125593	-0.160725	-0.347607	
0.604733	2.8656	0	0	-0.351076	-0.0184323	-0.0591988	-0.1562	-0.007501	-0.349809	-0.0043205	-0.0133563	-0.240535	-0.120258	0.0777787	-0.0799485	-0.206038	-0.198474	0.25566	0.119457	-0.893962	-1.07269	-0.545448	-0.880358	-1.23594	-0.863935	-0.454312	-0.860234	-0.631299	-0.209977	-0.127455	0.064036	-0.863072	-0.124692	-0.162165	-0.357432	
0.608931	2.86865	0	0	-0.342117	-0.016261	-0.055881	-0.153351	-0.003393	-0.346736	-0.001611	-0.011182	-0.236741	-0.120646	0.076221	-0.075546	-0.199965	-0.19218	0.266192	0.123102	-0.890429	-1.08267	-0.543207	-0.886692	-1.236	-0.87831	-0.459833	-0.859645	-0.634703	-0.216979	-0.132466	0.056614	-0.86847	-0.123791	-0.163605	-0.367256	
0.613653	2.87018	0	0	-0.343349	-0.0127788	-0.0560308	-0.140695	-0.006045	-0.339241	-0.00162725	-0.00129975	-0.237704	-0.117925	0.0816687	-0.0757195	-0.193885	-0.185874	0.266471	0.133462	-0.889252	-1.086	-0.542087	-0.889857	-1.24407	-0.884543	-0.455669	-0.871414	-0.636694	-0.227961	-0.128533	0.0454995	-0.873864	-0.122892	-0.163812	-0.380554	
0.618874	2.87475	0	0	-0.344581	-0.0092965	-0.0561805	-0.128038	-0.008697	-0.331746	-0.0016435	0.0085825	-0.238667	-0.115205	0.0871165	-0.075893	-0.187806	-0.179569	0.266751	0.143821	-0.888076	-1.08932	-0.540967	-0.893023	-1.25215	-0.890777	-0.451504	-0.883182	-0.638684	-0.238942	-0.124601	0.034385	-0.879258	-0.121993	-0.16402	-0.393852	
0.624566	2.88238	0	0	-0.345813	-0.00581425	-0.0563302	-0.115382	-0.011349	-0.32425	-0.00165975	0.0184648	-0.239629	-0.112484	0.0925643	-0.0760665	-0.181726	-0.173263	0.267031	0.154181	-0.886899	-1.09265	-0.539847	-0.896188	-1.26023	-0.89701	-0.44734	-0.894951	-0.640675	-0.249923	-0.120668	0.0232705	-0.884651	-0.121093	-0.164227	-0.407149	
0.630698	2.88544	0	0	-0.347045	-0.002332	-0.05648	-0.102726	-0.014001	-0.316755	-0.001676	0.028347	-0.240592	-0.109763	0.098012	-0.07624	-0.175646	-0.166958	0.26731	0.164541	-0.885722	-1.09597	-0.538727	-0.899353	-1.2683	-0.903243	-0.443176	-0.90672	-0.642666	-0.260905	-0.116735	0.012156	-0.890045	-0.120194	-0.164435	-0.420447	
0.637006	2.89307	0	0	-0.354607	0.00528725	-0.052158	-0.0904495	-0.0179832	-0.3055	0.00283575	0.035285	-0.242518	-0.104319	0.0948927	-0.067424	-0.165328	-0.16083	0.273939	0.168127	-0.883843	-1.08953	-0.542669	-0.899209	-1.26698	-0.906982	-0.448694	-0.906128	-0.64748	-0.263892	-0.115753	0.0093795	-0.882235	-0.127921	-0.158045	-0.424623	
0.642956	2.89917	0	0	-0.362169	0.0129065	-0.047836	-0.078173	-0.0219655	-0.294245	0.0073475	0.042223	-0.244445	-0.0988755	0.0917735	-0.058608	-0.155011	-0.154703	0.280567	0.171713	-0.881965	-1.08308	-0.546612	-0.899066	-1.26566	-0.910721	-0.454212	-0.905536	-0.652294	-0.266879	-0.11477	0.006603	-0.874425	-0.135648	-0.151654	-0.428798	
0.647995	2.9068	0	0	-0.36973	0.0205257	-0.043514	-0.0658965	-0.0259477	-0.282991	0.0118592	0.049161	-0.246371	-0.0934317	0.0886543	-0.049792	-0.144694	-0.148575	0.287196	0.1753	-0.880086	-1.07664	-0.550555	-0.898922	-1.26433	-0.91446	-0.45973	-0.904943	-0.657109	-0.269867	-0.113787	0.0038265	-0.866616	-0.143374	-0.145264	-0.432974	
0.65157	2.90985	0	0	-0.377292	0.028145	-0.039192	-0.05362	-0.02993	-0.271736	0.016371	0.056099	-0.248297	-0.087988	0.085535	-0.040976	-0.134376	-0.142448	0.293825	0.178886	-0.878207	-1.07019	-0.554497	-0.898779	-1.26301	-0.918199	-0.465248	-0.904351	-0.661923	-0.272854	-0.112805	0.00105	-0.858806	-0.151101	-0.138874	-0.437149	
0.653134	2.91748	0	0	-0.389936	0.0364068	-0.0483105	-0.0400988	-0.0312588	-0.267981	0.010017	0.064209	-0.250224	-0.0825407	0.083974	-0.0365648	-0.130654	-0.129405	0.299245	0.185916	-0.881742	-1.0602	-0.555616	-0.895615	-1.26169	-0.921936	-0.470761	-0.90376	-0.660513	-0.27684	-0.117767	0.0042925	-0.866616	-0.143374	-0.136187	-0.430848	
0.652506	2.91901	0	0	-0.402579	0.0446685	-0.057429	-0.0265775	-0.0325875	-0.264226	0.003663	0.072319	-0.252152	-0.0770935	0.082413	-0.0321535	-0.126932	-0.116361	0.304664	0.192945	-0.885277	-1.05021	-0.556736	-0.892451	-1.26036	-0.925674	-0.476274	-0.90317	-0.659102	-0.280826	-0.122729	0.007535	-0.874425	-0.135648	-0.1335	-0.424546	
0.650323	2.92053	0	0	-0.415223	0.0529303	-0.0665475	-0.0130562	-0.0339162	-0.260472	-0.002691	0.080429	-0.25408	-0.0716462	0.080852	-0.0277422	-0.12321	-0.103318	0.310083	0.199975	-0.888813	-1.04022	-0.557856	-0.889286	-1.25904	-0.929411	-0.481787	-0.90258	-0.657691	-0.284811	-0.127692	0.0107775	-0.882235	-0.127921	-0.130814	-0.418245	
0.647328	2.92511	0	0	-0.427867	0.061192	-0.075666	0.000465	-0.035245	-0.256717	-0.009045	0.088539	-0.256007	-0.066199	0.079291	-0.023331	-0.119488	-0.090275	0.315503	0.207005	-0.892348	-1.03023	-0.558975	-0.886122	-1.25772	-0.933148	-0.4873	-0.901989	-0.656281	-0.288797	-0.132654	0.01402	-0.890045	-0.120194	-0.128127	-0.411944	
0.644261	2.92663	0	0	-0.430485	0.054871	-0.0688675	-0.00649925	-0.0393462	-0.259809	-0.0126635	0.088924	-0.257872	-0.071261	0.0738455	-0.023164	-0.114061	-0.0938212	0.319433	0.207083	-0.890474	-1.02376	-0.562914	-0.88598	-1.2644	-0.928784	-0.4873	-0.901989	-0.656281	-0.288797	-0.131623	0.0218885	-0.88586	-0.117677	-0.122752	-0.399314	
0.641866	2.92358	0	0	-0.433103	0.04855	-0.062069	-0.0134635	-0.0434475	-0.262902	-0.016282	0.089309	-0.259737	-0.076323	0.0684	-0.022997	-0.108633	-0.0973675	0.323362	0.20716	-0.888599	-1.0173	-0.566854	-0.885839	-1.27108	-0.92442	-0.4873	-0.901989	-0.656281	-0.288797	-0.130593	0.029757	-0.881675	-0.11516	-0.117377	-0.386684	
0.640694	2.93274	0	0	-0.435722	0.042229	-0.0552705	-0.0204278	-0.0475488	-0.265994	-0.0199005	0.089694	-0.261602	-0.081385	0.0629545	-0.02283	-0.103206	-0.100914	0.327291	0.207237	-0.886725	-1.01083	-0.570793	-0.885698	-1.27776	-0.920056	-0.4873	-0.901989	-0.656281	-0.288797	-0.129562	0.0376255	-0.87749	-0.112644	-0.112003	-0.374054	
0.640683	2.92358	0	0	-0.43834	0.035908	-0.048472	-0.027392	-0.05165	-0.269086	-0.023519	0.090079	-0.263467	-0.086447	0.057509	-0.022663	-0.097779	-0.10446	0.331221	0.207315	-0.884851	-1.00436	-0.574732	-0.885556	-1.28444	-0.915692	-0.4873	-0.901989	-0.656281	-0.288797	-0.128531	0.045494	-0.873305	-0.110127	-0.106628	-0.361424	
0.641646	2.92816	0	0	-0.443419	0.0365518	-0.0451523	-0.0245165	-0.05165	-0.269086	-0.0199005	0.089694	-0.266295	-0.0887832	0.0645155	-0.0272412	-0.0989675	-0.101101	0.330003	0.210757	-0.882491	-1.01103	-0.57755	-0.888577	-1.28847	-0.918801	-0.483145	-0.913732	-0.659684	-0.295759	-0.130544	0.040402	-0.87749	-0.112644	-0.114272	-0.353735	
0.643397	2.92663	0	0	-0.448498	0.0371955	-0.0418325	-0.021641	-0.05165	-0.269086	-0.016282	0.089309	-0.269123	-0.0911195	0.071522	-0.0318195	-0.100156	-0.0977415	0.328785	0.214199	-0.880131	-1.0177	-0.580369	-0.891598	-1.2925	-0.92191	-0.47899	-0.925475	-0.663087	-0.302721	-0.132557	0.03531	-0.881675	-0.11516	-0.121917	-0.346046	
0.645749	2.92053	0	0	-0.453577	0.0378393	-0.0385127	-0.0187655	-0.05165	-0.269086	-0.0126635	0.088924	-0.27195	-0.0934558	0.0785285	-0.0363977	-0.101345	-0.0943823	0.327568	0.217641	-0.877771	-1.02437	-0.583187	-0.894619	-1.29653	-0.92502	-0.474835	-0.937218	-0.666489	-0.309682	-0.134571	0.030218	-0.88586	-0.117677	-0.129561	-0.338357	
0.648502	2.91595	0	0	-0.458656	0.038483	-0.035193	-0.01589	-0.05165	-0.269086	-0.009045	0.088539	-0.274778	-0.095792	0.085535	-0.040976	-0.102533	-0.091023	0.32635	0.221083	-0.875411	-1.03104	-0.586005	-0.89764	-1.30056	-0.928129	-0.47068	-0.948961	-0.669892	-0.316644	-0.136584	0.025126	-0.890045	-0.120194	-0.137206	-0.330668	
0.651379	2.91901	0	0	-0.461119	0.0454435	-0.0365233	0.0001355	-0.0488777	-0.262238	-0.00362525	0.0929213	-0.272914	-0.0907335	0.085535	-0.040976	-0.0940467	-0.0914003	0.332997	0.224685	-0.873053	-1.03771	-0.57589	-0.904249	-1.30056	-0.928129	-0.47068	-0.948961	-0.6747	-0.319619	-0.135602	0.0223495	-0.89302	-0.126119	-0.132042	-0.331347	
0.654077	2.90985	0	0	-0.463581	0.052404	-0.0378535	0.016161	-0.0461055	-0.255389	0.0017945	0.0973035	-0.271049	-0.085675	0.085535	-0.040976	-0.0855605	-0.0917775	0.339643	0.228287	-0.870695	-1.04437	-0.565775	-0.910859	-1.30056	-0.928129	-0.47068	-0.948961	-0.679509	-0.322593	-0.134619	0.019573	-0.895995	-0.132044	-0.126878	-0.332026	
0.656296	2.9129	0	0	-0.466044	0.0593645	-0.0391838	0.0321865	-0.0433333	-0.24854	0.00721425	0.101686	-0.269185	-0.0806165	0.085535	-0.040976	-0.0770742	-0.0921548	0.34629	0.231889	-0.868336	-1.05104	-0.55566	-0.917469	-1.30056	-0.928129	-0.47068	-0.948961	-0.684317	-0.325568	-0.133636	0.0167965	-0.898969	-0.137969	-0.121713	-0.332705	
0.657732	2.9068	0	0	-0.468507	0.066325	-0.040514	0.048212	-0.040561	-0.241692	0.012634	0.106068	-0.267321	-0.075558	0.085535	-0.040976	-0.068588	-0.092532	0.352937	0.235491	-0.865978	-1.0577	-0.545545	-0.924078	-1.30056	-0.928129	-0.47068	-0.948961	-0.689125	-0.328543	-0.132654	0.01402	-0.901944	-0.143894	-0.116549	-0.333384	
0.658098	2.89917	0	0	-0.470972	0.0732913	-0.0441897	0.0708745	-0.0445518	-0.230414	0.003535	0.121931	-0.271177	-0.0646603	0.08085	-0.0277357	-0.0721592	-0.082439	0.355653	0.239018	-0.867157	-1.05437	-0.54384	-0.917897	-1.29653	-0.92502	-0.474835	-0.937218	-0.689125	-0.328543	-0.128674	0.013554	-0.887539	-0.155927	-0.120273	-0.322859	
0.657277	2.89917	0	0	-0.473437	0.0802575	-0.0478655	0.093537	-0.0485425	-0.219135	-0.005564	0.137794	-0.275033	-0.0537625	0.076165	-0.0144955	-0.0757305	-0.072346	0.358369	0.242544	-0.868336	-1.05104	-0.542136	-0.911715	-1.2925	-0.92191	-0.47899	-0.925475	-0.689125	-0.328543	-0.124694	0.013088	-0.873134	-0.167961	-0.123998	-0.312334	
0.655272	2.89307	0	0	-0.475902	0.0872237	-0.0515413	0.1162	-0.0525332	-0.207857	-0.014663	0.153656	-0.278888	-0.0428648	0.07148	-0.00125525	-0.0793018	-0.062253	0.361085	0.246071	-0.869515	-1.04771	-0.540431	-0.905534	-1.28847	-0.918801	-0.483145	-0.913732	-0.689125	-0.328543	-0.120715	0.012622	-0.85873	-0.179995	-0.127722	-0.301809	
0.652087	2.88849	0	0	-0.478367	0.09419	-0.055217	0.138862	-0.056524	-0.196579	-0.023762	0.169519	-0.282744	-0.031967	0.066795	0.011985	-0.082873	-0.05216	0.363801	0.249598	-0.870694	-1.04438	-0.538727	-0.899353	-1.28444	-0.915692	-0.4873	-0.901989	-0.689125	-0.328543	-0.116735	0.012156	-0.844325	-0.192028	-0.131446	-0.291284	
0.647729	2.88391	0	0	-0.487277	0.0919802	-0.059699	0.139255	-0.0660437	-0.199029	-0.0219352	0.164357	-0.294178	-0.0203033	0.0652317	0.0164028	-0.0906903	-0.0418743	0.356203	0.259869	-0.869997	-1.03458	-0.538144	-0.889995	-1.28841	-0.904475	-0.48595	-0.890816	-0.684317	-0.325568	-0.114719	0.0172462	-0.845531	-0.188619	-0.12484	-0.282093	
0.642212	2.87781	0	0	-0.496187	0.0897705	-0.064181	0.139648	-0.0755635	-0.20148	-0.0201085	0.159195	-0.305612	-0.0086395	0.0636685	0.0208205	-0.0985075	-0.0315885	0.348604	0.27014	-0.8693	-1.02478	-0.537562	-0.880637	-1.29237	-0.893258	-0.484599	-0.879642	-0.679509	-0.322593	-0.112703	0.0223365	-0.846737	-0.185209	-0.118233	-0.272903	
0.635819	2.87781	0	0	-0.505097	0.0875607	-0.068663	0.14004	-0.0850832	-0.20393	-0.0182817	0.154033	-0.317045	0.00302425	0.0621053	0.0252383	-0.106325	-0.0213027	0.341006	0.280411	-0.868602	-1.01498	-0.536979	-0.871279	-1.29634	-0.882041	-0.483248	-0.868469	-0.6747	-0.319619	-0.110686	0.0274267	-0.847944	-0.1818	-0.111627	-0.263713	
0.629112	2.87323	0	0	-0.514007	0.085351	-0.073145	0.140433	-0.094603	-0.20638	-0.016455	0.148871	-0.328479	0.014688	0.060542	0.029656	-0.114142	-0.011017	0.333408	0.290682	-0.867905	-1.00518	-0.536396	-0.861921	-1.30031	-0.870824	-0.481898	-0.857296	-0.669892	-0.316644	-0.10867	0.032517	-0.84915	-0.178391	-0.10502	-0.254522	
0.622665	2.8717	0	0	-0.519072	0.0859855	-0.073145	0.140433	-0.093274	-0.210136	-0.0155423	0.146291	-0.327514	0.0119607	0.0621053	0.0252382	-0.11719	-0.0142033	0.331917	0.283699	-0.866245	-1.02164	-0.538099	-0.868114	-1.29767	-0.878304	-0.48051	-0.861219	-0.67271	-0.308681	-0.115603	0.041322	-0.851564	-0.171569	-0.108756	-0.243964	
0.617055	2.87323	0	0	-0.524137	0.08662	-0.073145	0.140433	-0.091945	-0.213892	-0.0146295	0.143711	-0.326549	0.0092335	0.0636685	0.0208205	-0.120237	-0.0173895	0.330426	0.276716	-0.864585	-1.0381	-0.539802	-0.874307	-1.29502	-0.885783	-0.479121	-0.865142	-0.675528	-0.300718	-0.122536	0.050127	-0.853978	-0.164746	-0.112491	-0.233406	
0.612842	2.87933	0	0	-0.529202	0.0872545	-0.073145	0.140433	-0.090616	-0.217649	-0.0137167	0.141131	-0.325584	0.00650625	0.0652317	0.0164028	-0.123285	-0.0205757	0.328935	0.269733	-0.862924	-1.05456	-0.541504	-0.880499	-1.29237	-0.893263	-0.477733	-0.869065	-0.678345	-0.292755	-0.129469	0.058932	-0.856392	-0.157923	-0.116227	-0.222847	
0.610318	2.88544	0	0	-0.534267	0.087889	-0.073145	0.140433	-0.089287	-0.221405	-0.012804	0.138551	-0.324619	0.003779	0.066795	0.011985	-0.126333	-0.023762	0.327444	0.26275	-0.861264	-1.07102	-0.543207	-0.886692	-1.28973	-0.900742	-0.476345	-0.872988	-0.681163	-0.284792	-0.136402	0.067737	-0.858806	-0.151101	-0.119963	-0.212289	
0.609547	2.89612	0	0	-0.532899	0.0977018	-0.0766478	0.150332	-0.0919458	-0.213891	-0.011009	0.14333	-0.320833	0.003402	0.0636677	0.0208228	-0.122762	-0.033855	0.323514	0.262668	-0.861968	-1.0808	-0.540968	-0.893021	-1.2884	-0.904479	-0.477733	-0.869065	-0.674943	-0.285793	-0.136402	0.067737	-0.857599	-0.154513	-0.131723	-0.220829	
0.610585	2.91138	0	0	-0.53153	0.107514	-0.0801505	0.160231	-0.0946045	-0.206376	-0.009214	0.14811	-0.317047	0.003025	0.0605405	0.0296605	-0.119191	-0.043948	0.319584	0.262586	-0.862672	-1.09057	-0.538728	-0.89935	-1.28708	-0.908217	-0.479121	-0.865142	-0.668722	-0.286795	-0.136402	0.067737	-0.856391	-0.157925	-0.143484	-0.22937	
0.613487	2.93121	0	0	-0.530161	0.117327	-0.0836532	0.17013	-0.0972632	-0.198862	-0.007419	0.152889	-0.313262	0.002648	0.0574132	0.0384983	-0.115619	-0.054041	0.315653	0.262503	-0.863377	-1.10034	-0.536488	-0.90568	-1.28576	-0.911955	-0.48051	-0.861219	-0.662501	-0.287796	-0.136402	0.067737	-0.855184	-0.161337	-0.155245	-0.23791	
0.618274	2.94647	0	0	-0.528793	0.12714	-0.087156	0.180029	-0.099922	-0.191348	-0.005624	0.157668	-0.309476	0.002271	0.054286	0.047336	-0.112048	-0.064134	0.311723	0.262421	-0.864081	-1.11011	-0.534249	-0.912009	-1.28444	-0.915692	-0.481898	-0.857296	-0.656281	-0.288797	-0.136402	0.067737	-0.853977	-0.164749	-0.167005	-0.24645	
0.624482	2.96326	0	0	-0.519755	0.142698	-0.0861833	0.189553	-0.0917358	-0.185129	-0.0156445	0.176135	-0.304796	0.00970675	0.0511557	0.0561828	-0.116286	-0.0639495	0.306576	0.265784	-0.862905	-1.11344	-0.532544	-0.905823	-1.27908	-0.916319	-0.479161	-0.850028	-0.654289	-0.277833	-0.133406	0.070057	-0.843173	-0.166562	-0.168436	-0.25631	
0.631317	2.97699	0	0	-0.510717	0.158257	-0.0852105	0.199078	-0.0835495	-0.178909	-0.025665	0.194603	-0.300117	0.0171425	0.0480255	0.0650295	-0.120524	-0.063765	0.301429	0.269147	-0.861729	-1.11676	-0.530838	-0.899637	-1.27372	-0.916945	-0.476424	-0.842761	-0.652298	-0.266869	-0.130409	0.072377	-0.832369	-0.168374	-0.169868	-0.26617	
0.637978	2.99225	0	0	-0.501679	0.173815	-0.0842378	0.208602	-0.0753632	-0.17269	-0.0356855	0.21307	-0.295438	0.0245782	0.0448952	0.0738763	-0.124761	-0.0635805	0.296282	0.272511	-0.860552	-1.12008	-0.529133	-0.893451	-1.26837	-0.917572	-0.473687	-0.835494	-0.650307	-0.255904	-0.127412	0.074697	-0.821566	-0.170187	-0.171299	-0.27603	
0.643664	3.00445	0	0	-0.492641	0.189373	-0.083265	0.218127	-0.067177	-0.166471	-0.045706	0.231537	-0.290758	0.032014	0.041765	0.082723	-0.128999	-0.063396	0.291135	0.275874	-0.859376	-1.12341	-0.527428	-0.887265	-1.26301	-0.918199	-0.47095	-0.828226	-0.648315	-0.24494	-0.124416	0.077017	-0.810762	-0.171999	-0.17273	-0.28589	
0.647594	3.01208	0	0	-0.496354	0.199865	-0.0969	0.232122	-0.0752675	-0.158289	-0.0430022	0.233748	-0.295595	0.045684	0.0354952	0.100442	-0.139843	-0.05631	0.289915	0.279321	-0.8582	-1.12673	-0.523481	-0.887409	-1.26433	-0.91446	-0.468213	-0.820947	-0.638676	-0.23895	-0.118418	0.0816615	-0.81197	-0.168585	-0.179125	-0.281712	
0.649567	3.02429	0	0	-0.500066	0.210358	-0.110535	0.246117	-0.083358	-0.150108	-0.0402985	0.235959	-0.300432	0.059354	0.0292255	0.118162	-0.150688	-0.049224	0.288695	0.282768	-0.857025	-1.13006	-0.519534	-0.887553	-1.26566	-0.910721	-0.465476	-0.813667	-0.629037	-0.232961	-0.112421	0.086306	-0.813178	-0.16517	-0.18552	-0.277533	
0.650002	3.03345	0	0	-0.503779	0.22085	-0.12417	0.260113	-0.0914485	-0.141927	-0.0375947	0.238171	-0.305269	0.073024	0.0229557	0.135881	-0.161532	-0.042138	0.287475	0.286216	-0.855849	-1.13338	-0.515587	-0.887697	-1.26698	-0.906982	-0.462739	-0.806388	-0.619399	-0.226971	-0.106423	0.0909505	-0.814386	-0.161755	-0.191915	-0.273355	
0.649347	3.04108	0	0	-0.507491	0.231342	-0.137805	0.274108	-0.099539	-0.133745	-0.034891	0.240382	-0.310106	0.086694	0.016686	0.1536	-0.172376	-0.035052	0.286255	0.289663	-0.854673	-1.1367	-0.51164	-0.887841	-1.2683	-0.903243	-0.460002	-0.799109	-0.60976	-0.220981	-0.100425	0.095595	-0.815594	-0.158341	-0.19831	-0.269176	
0.648052	3.04413	0	0	-0.510089	0.224973	-0.143236	0.26495	-0.102296	-0.140625	-0.0421267	0.241132	-0.31768	0.087437	0.0112482	0.153745	-0.178453	-0.0414095	0.272052	0.296293	-0.860083	-1.13317	-0.517829	-0.881361	-1.27366	-0.902618	-0.461394	-0.795174	-0.611175	-0.216981	-0.0974238	0.0979195	-0.811395	-0.155832	-0.194398	-0.266337	
0.646565	3.04718	0	0	-0.512687	0.218604	-0.148667	0.255791	-0.105052	-0.147506	-0.0493625	0.241883	-0.325253	0.08818	0.0058105	0.15389	-0.18453	-0.047767	0.25785	0.302924	-0.865494	-1.12963	-0.524018	-0.874881	-1.27901	-0.901992	-0.462786	-0.791239	-0.612591	-0.212981	-0.0944225	0.100244	-0.807195	-0.153323	-0.190487	-0.263497	
0.645178	3.0487	0	0	-0.515284	0.212235	-0.154098	0.246633	-0.107809	-0.154386	-0.0565983	0.242633	-0.332826	0.088923	0.00037275	0.154035	-0.190607	-0.0541245	0.243647	0.309554	-0.870904	-1.1261	-0.530207	-0.868401	-1.28437	-0.901367	-0.464179	-0.787304	-0.614006	-0.20898	-0.0914212	0.102569	-0.802996	-0.150813	-0.186575	-0.260657	
0.643915	3.05023	0	0	-0.517882	0.205866	-0.159529	0.237474	-0.110566	-0.161266	-0.063834	0.243383	-0.3404	0.089666	-0.005065	0.15418	-0.196684	-0.060482	0.229444	0.316184	-0.876314	-1.12256	-0.536396	-0.861921	-1.28973	-0.900742	-0.465571	-0.783369	-0.615421	-0.20498	-0.08842	0.104893	-0.798797	-0.148304	-0.182663	-0.257818	
0.642774	3.05481	0	0	-0.519244	0.196016	-0.156025	0.227571	-0.106575	-0.172544	-0.0620043	0.238212	-0.345064	0.0822107	-0.010498	0.154324	-0.203419	-0.076692	0.224052	0.309116	-0.876561	-1.14535	-0.540921	-0.871136	-1.28715	-0.922511	-0.466916	-0.794583	-0.618827	-0.211977	-0.0973785	0.108603	-0.8084	-0.149907	-0.1903	-0.250128	
0.641756	3.05481	0	0	-0.520607	0.186165	-0.152521	0.217668	-0.102584	-0.183823	-0.0601745	0.23304	-0.349729	0.0747555	-0.015931	0.154467	-0.210153	-0.092902	0.218661	0.302048	-0.876809	-1.16814	-0.545446	-0.88035	-1.28458	-0.944279	-0.46826	-0.805797	-0.622233	-0.218973	-0.106337	0.112314	-0.818003	-0.15151	-0.197938	-0.242439	
0.640858	3.05481	0	0	-0.521969	0.176315	-0.149017	0.207766	-0.0985938	-0.195102	-0.0583448	0.227869	-0.354393	0.0673003	-0.021364	0.154611	-0.216887	-0.109112	0.213269	0.294979	-0.877057	-1.19092	-0.549972	-0.889564	-1.28201	-0.966048	-0.469605	-0.817012	-0.62564	-0.225969	-0.115295	0.116025	-0.827607	-0.153114	-0.205576	-0.234749	
0.640112	3.05481	0	0	-0.523332	0.166465	-0.145513	0.197863	-0.094603	-0.20638	-0.056515	0.222698	-0.359058	0.059845	-0.026797	0.154754	-0.223622	-0.125322	0.207877	0.287911	-0.877304	-1.21371	-0.554497	-0.898779	-1.27944	-0.987816	-0.47095	-0.828226	-0.629046	-0.232966	-0.124254	0.119735	-0.83721	-0.154717	-0.213213	-0.227059	
0.639633	3.05481	0	0	-0.522097	0.162976	-0.151147	0.201545	-0.093274	-0.210136	-0.0574298	0.225283	-0.360907	0.0547588	-0.026797	0.154754	-0.227323	-0.138321	0.205183	0.284382	-0.882966	-1.23289	-0.555082	-0.908118	-1.28224	-1.00887	-0.473687	-0.835494	-0.634445	-0.250908	-0.12331	0.106273	-0.834168	-0.177669	-0.213396	-0.240425	
0.639547	3.05023	0	0	-0.520863	0.159487	-0.156782	0.205226	-0.091945	-0.213892	-0.0583445	0.227869	-0.362755	0.0496725	-0.026797	0.154754	-0.231023	-0.15132	0.202489	0.280852	-0.888629	-1.25206	-0.555666	-0.917458	-1.28504	-1.02993	-0.476424	-0.842761	-0.639844	-0.26885	-0.122366	0.092811	-0.831126	-0.20062	-0.213579	-0.253792	
0.639979	3.04718	0	0	-0.519628	0.155997	-0.162416	0.208907	-0.090616	-0.217649	-0.0592592	0.230454	-0.364603	0.0445863	-0.026797	0.154754	-0.234724	-0.164319	0.199794	0.277323	-0.894291	-1.27123	-0.55625	-0.926797	-1.28784	-1.05099	-0.479161	-0.850028	-0.645243	-0.286792	-0.121422	0.079349	-0.828084	-0.223572	-0.213762	-0.267158	
0.641057	3.0426	0	0	-0.518393	0.152508	-0.16805	0.212589	-0.089287	-0.221405	-0.060174	0.233039	-0.366452	0.0395	-0.026797	0.154754	-0.238425	-0.177318	0.1971	0.273794	-0.899953	-1.29041	-0.556835	-0.936136	-1.29063	-1.07204	-0.481898	-0.857296	-0.650642	-0.304734	-0.120478	0.065887	-0.825042	-0.246524	-0.213945	-0.280524	
0.642828	3.03345	0	0	-0.522226	0.149651	-0.159114	0.211824	-0.090616	-0.217649	-0.055642	0.230077	-0.368301	0.0344197	-0.032225	0.154896	-0.236738	-0.193803	0.191715	0.266746	-0.904896	-1.29985	-0.556307	-0.948613	-1.29476	-1.08931	-0.483248	-0.868469	-0.649827	-0.323616	-0.11856	0.0496777	-0.827421	-0.268478	-0.214136	-0.293859	
0.645068	3.02887	0	0	-0.52606	0.146794	-0.150177	0.21106	-0.091945	-0.213892	-0.05111	0.227116	-0.370149	0.0293395	-0.037653	0.155038	-0.235051	-0.210288	0.186331	0.259698	-0.909838	-1.3093	-0.555779	-0.961091	-1.29888	-1.10658	-0.484599	-0.879642	-0.649012	-0.342499	-0.116642	0.0334685	-0.8298	-0.290432	-0.214327	-0.307195	
0.647488	3.02429	0	0	-0.529893	0.143937	-0.14124	0.210295	-0.093274	-0.210136	-0.046578	0.224155	-0.371997	0.0242593	-0.043081	0.15518	-0.233365	-0.226772	0.180947	0.252649	-0.914781	-1.31874	-0.555251	-0.973568	-1.303	-1.12385	-0.48595	-0.890816	-0.648196	-0.361381	-0.114723	0.0172592	-0.832178	-0.312387	-0.214517	-0.32053	
0.649802	3.02276	0	0	-0.533726	0.14108	-0.132304	0.20953	-0.094603	-0.20638	-0.042046	0.221193	-0.373846	0.019179	-0.048509	0.155322	-0.231678	-0.243257	0.175562	0.245601	-0.919724	-1.32818	-0.554723	-0.986046	-1.30713	-1.14112	-0.4873	-0.901989	-0.647381	-0.380263	-0.112805	0.00105	-0.834557	-0.334341	-0.214708	-0.333865	
0.651724	3.01361	0	0	-0.538922	0.128415	-0.142205	0.200787	-0.093384	-0.224485	-0.051064	0.217154	-0.379469	0.0144775	-0.053932	0.155463	-0.240773	-0.252662	0.167755	0.245425	-0.918121	-1.34441	-0.55643	-0.9922	-1.31126	-1.15833	-0.481761	-0.917643	-0.64518	-0.403047	-0.111879	-0.0123485	-0.839345	-0.349441	-0.204612	-0.348526	
0.65302	3.00903	0	0	-0.544118	0.11575	-0.152107	0.192045	-0.092165	-0.242591	-0.060082	0.213115	-0.385092	0.009776	-0.059355	0.155603	-0.249868	-0.262068	0.159948	0.245249	-0.916518	-1.36064	-0.558138	-0.998354	-1.31539	-1.17553	-0.476222	-0.933297	-0.642979	-0.425832	-0.110954	-0.025747	-0.844134	-0.364541	-0.194515	-0.363186	
0.653831	2.99988	5	0	-0.549315	0.103085	-0.162008	0.183302	-0.090946	-0.260696	-0.0691	0.209076	-0.390714	0.0050745	-0.064778	0.155743	-0.258964	-0.271473	0.152141	0.245072	-0.914915	-1.37686	-0.559845	-1.00451	-1.31952	-1.19274	-0.470684	-0.948951	-0.640778	-0.448616	-0.110028	-0.0391455	-0.848923	-0.379642	-0.184419	-0.377846	
0.654452	2.9953	5	0	-0.554511	0.09042	-0.171909	0.174559	-0.089727	-0.278801	-0.078118	0.205037	-0.396337	0.000373	-0.070201	0.155884	-0.268059	-0.280878	0.144334	0.244896	-0.913312	-1.39309	-0.561553	-1.01066	-1.32364	-1.20995	-0.465145	-0.964605	-0.638577	-0.4714	-0.109102	-0.052544	-0.853711	-0.394742	-0.174322	-0.392507	
0.655181	2.9892	5	0	-0.552196	0.0702177	-0.164923	0.154816	-0.0952595	-0.292451	-0.075343	0.187363	-0.400917	-0.0175283	-0.0709272	0.142763	-0.276647	-0.303316	0.1387	0.227509	-0.926679	-1.40202	-0.571126	-1.0165	-1.32517	-1.23445	-0.472017	-0.975129	-0.637797	-0.490154	-0.110142	-0.06038	-0.853119	-0.410715	-0.173086	-0.396	
0.656312	2.98462	5	0	-0.549881	0.0500155	-0.157937	0.135072	-0.100792	-0.306102	-0.072568	0.169688	-0.405498	-0.0354295	-0.0716535	0.129642	-0.285236	-0.325754	0.133067	0.210121	-0.940047	-1.41095	-0.580699	-1.02235	-1.32671	-1.25896	-0.478889	-0.985652	-0.637016	-0.508907	-0.111182	-0.068216	-0.852526	-0.426688	-0.17185	-0.399494	
0.658119	2.97699	5	0	-0.547567	0.0298132	-0.150951	0.115329	-0.106325	-0.319752	-0.069793	0.152014	-0.410078	-0.0533308	-0.0723798	0.116521	-0.293824	-0.348191	0.127433	0.192734	-0.953415	-1.41988	-0.590272	-1.02819	-1.32824	-1.28347	-0.485761	-0.996175	-0.636236	-0.527661	-0.112222	-0.076052	-0.851934	-0.442661	-0.170614	-0.402987	
0.660471	2.97088	5	0	-0.545252	0.009611	-0.143965	0.095586	-0.111857	-0.333402	-0.067018	0.13434	-0.414658	-0.071232	-0.073106	0.1034	-0.302413	-0.370629	0.121799	0.175346	-0.966782	-1.42881	-0.599845	-1.03403	-1.32977	-1.30798	-0.492633	-1.0067	-0.635456	-0.546415	-0.113262	-0.083888	-0.851342	-0.458634	-0.169378	-0.40648	
0.662895	2.96173	5	0	-0.546629	-0.00014575	-0.144943	0.0861245	-0.107891	-0.34461	-0.0678967	0.126997	-0.414522	-0.0921515	-0.073839	0.0903103	-0.304478	-0.399749	0.118847	0.161516	-0.964776	-1.4578	-0.602145	-1.04943	-1.33664	-1.33172	-0.491243	-1.02558	-0.642929	-0.574854	-0.108441	-0.108281	-0.842431	-0.498106	-0.165892	-0.430205	
0.664911	2.95715	5	0	-0.548007	-0.0099025	-0.145921	0.076663	-0.103926	-0.355817	-0.0687755	0.119655	-0.414386	-0.113071	-0.074572	0.0772205	-0.306542	-0.42887	0.115895	0.147685	-0.96277	-1.48678	-0.604445	-1.06483	-1.34351	-1.35546	-0.489854	-1.04446	-0.650402	-0.603293	-0.103621	-0.132674	-0.83352	-0.537578	-0.162407	-0.453929	
0.666036	2.948	5	0	-0.549384	-0.0196592	-0.146899	0.0672015	-0.0999597	-0.367024	-0.0696543	0.112312	-0.41425	-0.133991	-0.075305	0.0641308	-0.308607	-0.45799	0.112942	0.133855	-0.960765	-1.51576	-0.606745	-1.08023	-1.35038	-1.3792	-0.488464	-1.06334	-0.657874	-0.631732	-0.0988005	-0.157067	-0.82461	-0.57705	-0.158921	-0.477654	
0.665792	2.94952	5	0	-0.550762	-0.029416	-0.147877	0.05774	-0.095994	-0.378232	-0.070533	0.10497	-0.414114	-0.15491	-0.076038	0.051041	-0.310672	-0.48711	0.10999	0.120025	-0.958759	-1.54474	-0.609045	-1.09563	-1.35726	-1.40294	-0.487075	-1.08222	-0.665347	-0.660171	-0.09398	-0.18146	-0.815699	-0.616522	-0.155435	-0.501379	
0.66395	2.93884	5	0	-0.543254	-0.0369833	-0.13662	0.0503842	-0.0892572	-0.382634	-0.0605752	0.0964857	-0.415965	-0.159937	-0.0744787	0.046634	-0.314392	-0.499863	0.103417	0.116454	-0.960245	-1.56382	-0.608535	-1.10801	-1.35481	-1.42423	-0.488449	-1.09328	-0.66183	-0.686602	-0.08618	-0.203504	-0.819344	-0.634766	-0.149281	-0.518771	
0.660784	2.93579	5	0	-0.535747	-0.0445505	-0.125362	0.0430285	-0.0825205	-0.387036	-0.0506175	0.0880015	-0.417817	-0.164965	-0.0729195	0.042227	-0.318113	-0.512617	0.0968445	0.112882	-0.961731	-1.5829	-0.608026	-1.12039	-1.35236	-1.44553	-0.489823	-1.10434	-0.658312	-0.713033	-0.07838	-0.225548	-0.822989	-0.65301	-0.143127	-0.536162	
0.656626	2.92206	5	0	-0.528239	-0.0521178	-0.114105	0.0356728	-0.0757837	-0.391438	-0.0406598	0.0795172	-0.419668	-0.169992	-0.0713603	0.03782	-0.321833	-0.52537	0.0902717	0.109311	-0.963217	-1.60198	-0.607517	-1.13277	-1.3499	-1.46682	-0.491198	-1.1154	-0.654794	-0.739465	-0.07058	-0.247592	-0.826634	-0.671255	-0.136974	-0.553554	
0.651809	2.92511	5	0	-0.520732	-0.059685	-0.102848	0.028317	-0.069047	-0.39584	-0.030702	0.071033	-0.42152	-0.175019	-0.069801	0.033413	-0.325553	-0.538123	0.083699	0.10574	-0.964703	-1.62106	-0.607007	-1.14515	-1.34745	-1.48812	-0.492572	-1.12645	-0.651277	-0.765896	-0.06278	-0.269636	-0.830279	-0.689499	-0.13082	-0.570945	
0.646668	2.91901	5	0	-0.527014	-0.05558	-0.0983752	0.0279182	-0.0677263	-0.399573	-0.029792	0.0684613	-0.425283	-0.174638	-0.0767733	0.0379687	-0.333923	-0.537708	0.0822232	0.0988472	-0.967753	-1.62408	-0.600864	-1.15157	-1.34487	-1.49542	-0.491198	-1.13034	-0.648506	-0.773726	-0.060833	-0.275139	-0.826727	-0.699539	-0.118044	-0.579293	
0.641487	2.91138	0	5	-0.533297	-0.051475	-0.0939025	0.0275195	-0.0664055	-0.403305	-0.028882	0.0658895	-0.429045	-0.174257	-0.0837455	0.0425245	-0.342292	-0.537294	0.0807475	0.0919545	-0.970802	-1.62709	-0.594721	-1.15799	-1.34228	-1.50273	-0.489824	-1.13422	-0.645736	-0.781556	-0.058886	-0.280641	-0.823174	-0.709579	-0.105268	-0.587641	
0.636399	2.90832	0	5	-0.539579	-0.04737	-0.0894298	0.0271207	-0.0650847	-0.407038	-0.027972	0.0633178	-0.432808	-0.173876	-0.0907177	0.0470803	-0.350661	-0.536879	0.0792718	0.0850618	-0.973851	-1.6301	-0.588578	-1.16441	-1.3397	-1.51003	-0.48845	-1.13811	-0.642965	-0.789387	-0.056939	-0.286143	-0.819622	-0.719619	-0.0924927	-0.595989	
0.631502	2.90069	0	5	-0.545862	-0.043265	-0.084957	0.026722	-0.063764	-0.410771	-0.027062	0.060746	-0.436571	-0.173495	-0.09769	0.051636	-0.359031	-0.536464	0.077796	0.078169	-0.976901	-1.63311	-0.582435	-1.17083	-1.33711	-1.51734	-0.487076	-1.14199	-0.640194	-0.797217	-0.054992	-0.291646	-0.816069	-0.729659	-0.079717	-0.604337	
0.626896	2.89612	0	5	-0.546022	-0.0564535	-0.0791535	0.0103205	-0.0584865	-0.425686	-0.027041	0.0508548	-0.439316	-0.186228	-0.0999832	0.0429805	-0.358108	-0.562281	0.0760428	0.0610163	-0.978799	-1.63937	-0.586363	-1.17067	-1.34114	-1.52032	-0.487076	-1.14199	-0.635375	-0.794346	-0.0519823	-0.289382	-0.810686	-0.730604	-0.0642087	-0.606451	
0.62268	2.89459	0	5	-0.546181	-0.069642	-0.07335	-0.006081	-0.053209	-0.440601	-0.02702	0.0409635	-0.442061	-0.19896	-0.102276	0.034325	-0.357186	-0.588098	0.0742895	0.0438635	-0.980697	-1.64563	-0.590291	-1.17051	-1.34516	-1.5233	-0.487076	-1.14199	-0.630556	-0.791475	-0.0489725	-0.287118	-0.805303	-0.731549	-0.0487005	-0.608565	
0.618931	2.89459	0	5	-0.546341	-0.0828305	-0.0675465	-0.0224825	-0.0479315	-0.455517	-0.026999	0.0310722	-0.444806	-0.211693	-0.10457	0.0256695	-0.356264	-0.613915	0.0725362	0.0267107	-0.982594	-1.65189	-0.594218	-1.17035	-1.34918	-1.52628	-0.487076	-1.14199	-0.625738	-0.788604	-0.0459627	-0.284855	-0.799921	-0.732495	-0.0331922	-0.61068	
0.615658	2.89307	0	5	-0.546501	-0.096019	-0.061743	-0.038884	-0.042654	-0.470432	-0.026978	0.021181	-0.447551	-0.224426	-0.106863	0.017014	-0.355341	-0.639732	0.070783	0.009558	-0.984492	-1.65815	-0.598146	-1.17019	-1.35321	-1.52927	-0.487076	-1.14199	-0.620919	-0.785733	-0.042953	-0.282591	-0.794538	-0.73344	-0.017684	-0.612794	
0.612857	2.88849	0	5	-0.544057	-0.102926	-0.057108	-0.0519835	-0.0400185	-0.47788	-0.0197285	0.0105245	-0.447495	-0.234819	-0.103751	0.00821975	-0.357912	-0.655647	0.066622	-0.0007635	-0.982946	-1.67413	-0.59372	-1.1827	-1.34805	-1.54385	-0.47608	-1.15812	-0.622969	-0.796428	-0.0380877	-0.296341	-0.796372	-0.742524	-0.013993	-0.623225	
0.610522	2.90069	0	5	-0.541613	-0.109832	-0.052473	-0.065083	-0.037383	-0.485329	-0.012479	-0.000132	-0.44744	-0.245213	-0.100639	-0.0005745	-0.360483	-0.671562	0.062461	-0.011085	-0.9814	-1.69012	-0.589295	-1.19521	-1.34289	-1.55843	-0.465083	-1.17426	-0.62502	-0.807122	-0.0332225	-0.310091	-0.798206	-0.751607	-0.010302	-0.633656	
0.608648	2.88391	0	5	-0.539169	-0.116739	-0.047838	-0.0781825	-0.0347475	-0.492777	-0.0052295	-0.0107885	-0.447384	-0.255607	-0.0975277	-0.00936875	-0.363053	-0.687477	0.0583	-0.0214065	-0.979854	-1.7061	-0.584869	-1.20772	-1.33773	-1.57301	-0.454087	-1.19039	-0.627071	-0.817817	-0.0283573	-0.323841	-0.80004	-0.76069	-0.006611	-0.644087	
0.607234	2.88391	0	5	-0.536725	-0.123646	-0.043203	-0.091282	-0.032112	-0.500226	0.00202	-0.021445	-0.447329	-0.266	-0.094416	-0.018163	-0.365624	-0.703392	0.054139	-0.031728	-0.978308	-1.72209	-0.580443	-1.22022	-1.33257	-1.58759	-0.443091	-1.20653	-0.629121	-0.828512	-0.023492	-0.337591	-0.801874	-0.769774	-0.00292	-0.654518	
0.60628	2.88544	0	5	-0.534283	-0.130548	-0.0319235	-0.0986522	-0.030795	-0.503948	0.012892	-0.0324928	-0.446376	-0.268692	-0.0928613	-0.0225568	-0.367489	-0.7097	0.0499785	-0.0420253	-0.96723	-1.74178	-0.577128	-1.22959	-1.33	-1.59487	-0.448596	-1.20591	-0.624973	-0.840234	-0.024562	-0.345337	-0.794789	-0.789798	0.0007665	-0.664937	
0.605791	2.88849	0	5	-0.531841	-0.13745	-0.020644	-0.106022	-0.029478	-0.507669	0.023764	-0.0435405	-0.445424	-0.271383	-0.0913065	-0.0269505	-0.369355	-0.716009	0.045818	-0.0523225	-0.956152	-1.76147	-0.573813	-1.23896	-1.32742	-1.60215	-0.454102	-1.2053	-0.620826	-0.851957	-0.025632	-0.353083	-0.787704	-0.809821	0.004453	-0.675355	
0.605768	2.88238	0	5	-0.529399	-0.144351	-0.0093645	-0.113393	-0.028161	-0.511391	0.034636	-0.0545882	-0.444472	-0.274075	-0.0897517	-0.0313442	-0.37122	-0.722317	0.0416575	-0.0626198	-0.945075	-1.78116	-0.570497	-1.24833	-1.32484	-1.60943	-0.459607	-1.20468	-0.616678	-0.863679	-0.026702	-0.360829	-0.780619	-0.829845	0.0081395	-0.685774	
0.606214	2.88238	0	5	-0.526957	-0.151253	0.001915	-0.120763	-0.026844	-0.515113	0.045508	-0.065636	-0.443519	-0.276767	-0.088197	-0.035738	-0.373085	-0.728625	0.037497	-0.072917	-0.933997	-1.80086	-0.567182	-1.2577	-1.32227	-1.61671	-0.465112	-1.20406	-0.61253	-0.875401	-0.027772	-0.368575	-0.773534	-0.849869	0.011826	-0.696192	
0.607066	2.87933	0	5	-0.53201	-0.150603	0.00640225	-0.121179	-0.026844	-0.515113	0.045508	-0.065636	-0.43976	-0.277154	-0.0866433	-0.0401297	-0.371931	-0.731886	0.036015	-0.079746	-0.931707	-1.80733	-0.562147	-1.26099	-1.30905	-1.62535	-0.458235	-1.20856	-0.609768	-0.883207	-0.0208737	-0.377301	-0.764609	-0.860824	0.0206905	-0.707319	
0.60817	2.87781	5	0	-0.537063	-0.149952	0.0108895	-0.121594	-0.026844	-0.515113	0.045508	-0.065636	-0.436001	-0.27754	-0.0850895	-0.0445215	-0.370777	-0.735147	0.034533	-0.086575	-0.929417	-1.8138	-0.557111	-1.26428	-1.29583	-1.63399	-0.451358	-1.21305	-0.607006	-0.891014	-0.0139755	-0.386027	-0.755685	-0.871779	0.029555	-0.718446	
0.609365	2.87475	5	0	-0.542116	-0.149302	0.0153767	-0.12201	-0.026844	-0.515113	0.045508	-0.065636	-0.432242	-0.277927	-0.0835357	-0.0489132	-0.369623	-0.738408	0.033051	-0.093404	-0.927127	-1.82027	-0.552076	-1.26757	-1.28261	-1.64263	-0.44448	-1.21754	-0.604243	-0.898821	-0.00707725	-0.394753	-0.74676	-0.882735	0.0384195	-0.729574	
0.610489	2.87628	5	0	-0.547169	-0.148651	0.019864	-0.122426	-0.026844	-0.515113	0.045508	-0.065636	-0.428483	-0.278314	-0.081982	-0.053305	-0.368469	-0.741669	0.031569	-0.100233	-0.924837	-1.82674	-0.547041	-1.27086	-1.26939	-1.65126	-0.437603	-1.22204	-0.601481	-0.906627	-0.000179	-0.403479	-0.737835	-0.89369	0.047284	-0.740701	
0.611383	2.87475	5	0	-0.548561	-0.158337	0.0165345	-0.125282	-0.0296332	-0.521867	0.0482288	-0.0733247	-0.429436	-0.275621	-0.0750153	-0.0578572	-0.372642	-0.741449	0.0250208	-0.103743	-0.91757	-1.82403	-0.540277	-1.26808	-1.26535	-1.64831	-0.433465	-1.21878	-0.596654	-0.90378	0.00877225	-0.407219	-0.74558	-0.886068	0.0524707	-0.741423	
0.611897	2.87018	5	0	-0.549953	-0.168023	0.013205	-0.128138	-0.0324225	-0.528622	0.0509495	-0.0810135	-0.430389	-0.272929	-0.0680485	-0.0624095	-0.376814	-0.741229	0.0184725	-0.107253	-0.910303	-1.82131	-0.533513	-1.26529	-1.26131	-1.64535	-0.429326	-1.21552	-0.591826	-0.900932	0.0177235	-0.410959	-0.753326	-0.878445	0.0576575	-0.742146	
0.611897	2.86255	5	0	-0.551346	-0.177708	0.0098755	-0.130995	-0.0352117	-0.535376	0.0536702	-0.0887023	-0.431341	-0.270236	-0.0610818	-0.0669618	-0.380987	-0.741008	0.0119242	-0.110763	-0.903037	-1.8186	-0.526749	-1.26251	-1.25727	-1.64239	-0.425187	-1.21226	-0.586998	-0.898085	0.0266747	-0.414699	-0.761072	-0.870822	0.0628442	-0.742868	
0.611249	2.87018	5	0	-0.552738	-0.187394	0.006546	-0.133851	-0.038001	-0.54213	0.056391	-0.096391	-0.432294	-0.267543	-0.054115	-0.071514	-0.38516	-0.740788	0.005376	-0.114273	-0.89577	-1.81588	-0.519985	-1.25973	-1.25323	-1.63943	-0.421049	-1.209	-0.582171	-0.895238	0.035626	-0.418439	-0.768817	-0.8632	0.068031	-0.74359	
0.60982	2.85644	5	0	-0.552917	-0.200498	0.005531	-0.14324	-0.0314328	-0.560693	0.055485	-0.103673	-0.434148	-0.27254	-0.0610818	-0.0669618	-0.390041	-0.750116	0.0050875	-0.124456	-0.893853	-1.80966	-0.51826	-1.25364	-1.25047	-1.63283	-0.42517	-1.19736	-0.578723	-0.888479	0.0297957	-0.401962	-0.768151	-0.850814	0.0722685	-0.727662	
0.607501	2.8595	5	0	-0.553096	-0.213603	0.004516	-0.152629	-0.0248645	-0.579256	0.054579	-0.110954	-0.436002	-0.277537	-0.0680485	-0.0624095	-0.394923	-0.759443	0.004799	-0.134638	-0.891936	-1.80344	-0.516535	-1.24756	-1.24772	-1.62622	-0.429291	-1.18571	-0.575274	-0.88172	0.0239655	-0.385485	-0.767486	-0.838427	0.076506	-0.711734	
0.604542	2.8595	5	0	-0.553275	-0.226707	0.003501	-0.162018	-0.0182963	-0.597819	0.053673	-0.118236	-0.437856	-0.282535	-0.0750153	-0.0578572	-0.399804	-0.768771	0.0045105	-0.144821	-0.890019	-1.79722	-0.514809	-1.24148	-1.24497	-1.61961	-0.433412	-1.17407	-0.571825	-0.874962	0.0181352	-0.369007	-0.766821	-0.826041	0.0807435	-0.695805	
0.601473	2.85492	5	0	-0.553454	-0.239811	0.002486	-0.171407	-0.011728	-0.616382	0.052767	-0.125518	-0.43971	-0.287532	-0.081982	-0.053305	-0.404685	-0.778099	0.004222	-0.155004	-0.888102	-1.791	-0.513084	-1.2354	-1.24221	-1.61301	-0.437533	-1.16242	-0.568377	-0.868203	0.012305	-0.35253	-0.766155	-0.813655	0.084981	-0.679877	
0.598832	2.85187	5	0	-0.549809	-0.250113	0.002486	-0.171407	-0.0171472	-0.615692	0.0563913	-0.125918	-0.434047	-0.293301	-0.0873898	-0.0531462	-0.404251	-0.790878	0.001547	-0.158436	-0.884663	-1.80072	-0.509144	-1.23556	-1.23963	-1.6203	-0.436159	-1.1663	-0.580127	-0.851501	0.0124035	-0.34202	-0.776267	-0.799343	0.0827808	-0.659691	
0.597155	2.85492	5	0	-0.546163	-0.260416	0.002486	-0.171407	-0.0225665	-0.615001	0.0600155	-0.126319	-0.428383	-0.29907	-0.0927975	-0.0529875	-0.403816	-0.803656	-0.001128	-0.161868	-0.881223	-1.81044	-0.505204	-1.23573	-1.23706	-1.62759	-0.434785	-1.17019	-0.591877	-0.8348	0.012502	-0.331511	-0.78638	-0.785031	0.0805805	-0.639506	
0.596889	2.85034	5	0	-0.542517	-0.270719	0.002486	-0.171407	-0.0279857	-0.61431	0.0636398	-0.12672	-0.422719	-0.304839	-0.0982052	-0.0528288	-0.403382	-0.816434	-0.003803	-0.1653	-0.877784	-1.82016	-0.501263	-1.2359	-1.23448	-1.63488	-0.43341	-1.17407	-0.603626	-0.818099	0.0126005	-0.321001	-0.796492	-0.770719	0.0783802	-0.61932	
0.597866	2.85187	5	0	-0.538872	-0.281021	0.002486	-0.171407	-0.033405	-0.61362	0.067264	-0.12712	-0.417056	-0.310608	-0.103613	-0.05267	-0.402947	-0.829213	-0.006478	-0.168732	-0.874345	-1.82988	-0.497323	-1.23607	-1.2319	-1.64217	-0.432036	-1.17795	-0.615376	-0.801397	0.012699	-0.310491	-0.806604	-0.756407	0.07618	-0.599134	
0.599659	2.85034	5	0	-0.541302	-0.274154	0.00798875	-0.162435	-0.0292982	-0.610601	0.0627323	-0.114313	-0.415199	-0.305615	-0.0982052	-0.0528288	-0.39878	-0.829439	-0.001419	-0.172038	-0.863623	-1.83689	-0.488328	-1.23954	-1.22269	-1.65378	-0.425148	-1.18246	-0.620196	-0.804265	0.00870775	-0.309999	-0.803058	-0.766428	0.0633278	-0.590736	
0.601841	2.85034	5	0	-0.543732	-0.267287	0.0134915	-0.153463	-0.0251915	-0.607582	0.0582005	-0.101505	-0.413342	-0.300621	-0.0927975	-0.0529875	-0.394613	-0.829665	0.00364	-0.175343	-0.852901	-1.84389	-0.479332	-1.24302	-1.21349	-1.6654	-0.41826	-1.18696	-0.625016	-0.807133	0.0047165	-0.309508	-0.799513	-0.77645	0.0504755	-0.582338	
0.603984	2.85187	5	0	-0.546162	-0.26042	0.0189943	-0.14449	-0.0210847	-0.604563	0.0536688	-0.0886983	-0.411484	-0.295628	-0.0873898	-0.0531462	-0.390446	-0.82989	0.008699	-0.178648	-0.842178	-1.8509	-0.470336	-1.24649	-1.20428	-1.67701	-0.411371	-1.19146	-0.629836	-0.81	0.00072525	-0.309016	-0.795967	-0.786471	0.0376232	-0.57394	
0.60573	2.85034	5	0	-0.548592	-0.253553	0.024497	-0.135518	-0.016978	-0.601544	0.049137	-0.075891	-0.409627	-0.290635	-0.081982	-0.053305	-0.386279	-0.830116	0.013758	-0.181954	-0.831456	-1.8579	-0.461341	-1.24996	-1.19508	-1.68863	-0.404483	-1.19596	-0.634656	-0.812868	-0.003266	-0.308524	-0.792421	-0.796492	0.024771	-0.565542	
0.607004	2.85187	5	0	-0.545976	-0.247335	0.0288435	-0.123246	-0.015497	-0.591093	0.0536652	-0.0689895	-0.404958	-0.283328	-0.0711515	-0.0536275	-0.385561	-0.820588	0.019115	-0.175091	-0.818787	-1.85871	-0.460719	-1.24073	-1.18973	-1.68932	-0.400338	-1.19269	-0.633272	-0.816779	-0.0122143	-0.304793	-0.79124	-0.79983	0.0235363	-0.562053	
0.607801	2.85187	5	0	-0.54336	-0.241118	0.03319	-0.110975	-0.014016	-0.580641	0.0581935	-0.062088	-0.400289	-0.276022	-0.060321	-0.05395	-0.384843	-0.81106	0.024472	-0.168229	-0.806118	-1.85952	-0.460096	-1.23151	-1.18439	-1.69001	-0.396193	-1.18943	-0.631889	-0.82069	-0.0211625	-0.301061	-0.790058	-0.803168	0.0223015	-0.558564	
0.608118	2.85187	5	0	-0.540744	-0.2349	0.0375365	-0.0987035	-0.012535	-0.570189	0.0627218	-0.0551865	-0.39562	-0.268715	-0.0494905	-0.0542725	-0.384125	-0.801531	0.029829	-0.161366	-0.793448	-1.86032	-0.459473	-1.22228	-1.17904	-1.69071	-0.392048	-1.18616	-0.630505	-0.824601	-0.0301108	-0.29733	-0.788877	-0.806506	0.0210667	-0.555075	
0.607952	2.84881	5	0	-0.538128	-0.228683	0.041883	-0.086432	-0.011054	-0.559738	0.06725	-0.048285	-0.390951	-0.261409	-0.03866	-0.054595	-0.383407	-0.792003	0.035186	-0.154503	-0.780779	-1.86113	-0.458851	-1.21305	-1.1737	-1.6914	-0.387903	-1.1829	-0.629121	-0.828512	-0.039059	-0.293598	-0.787696	-0.809844	0.019832	-0.551586	
0.607354	2.84729	5	0	-0.53673	-0.219013	0.037078	-0.060562	-0.0108938	-0.545542	0.0599753	-0.0277252	-0.386279	-0.254089	-0.043329	-0.0414002	-0.376213	-0.789196	0.040548	-0.147627	-0.773466	-1.85843	-0.449216	-1.20729	-1.16706	-1.69573	-0.390655	-1.17512	-0.629121	-0.828512	-0.0429553	-0.282586	-0.782311	-0.810797	0.0213125	-0.541813	
0.606531	2.84576	5	0	-0.535332	-0.209344	0.032273	-0.034692	-0.0107335	-0.531346	0.0527005	-0.0071655	-0.381607	-0.246769	-0.047998	-0.0282055	-0.36902	-0.786388	0.04591	-0.140752	-0.766153	-1.85572	-0.439581	-1.20153	-1.16043	-1.70007	-0.393406	-1.16735	-0.629121	-0.828512	-0.0468515	-0.271574	-0.776925	-0.81175	0.022793	-0.53204	
0.605715	2.84729	5	0	-0.533935	-0.199674	0.027468	-0.008822	-0.0105732	-0.517149	0.0454258	0.0133943	-0.376935	-0.239449	-0.052667	-0.0150107	-0.361826	-0.783581	0.051272	-0.133876	-0.758839	-1.85302	-0.429945	-1.19576	-1.15379	-1.70441	-0.396157	-1.15957	-0.629121	-0.828512	-0.0507478	-0.260563	-0.77154	-0.812702	0.0242735	-0.522267	
0.605138	2.83661	5	0	-0.532537	-0.190004	0.022663	0.017048	-0.010413	-0.502953	0.038151	0.033954	-0.372263	-0.232129	-0.057336	-0.001816	-0.354632	-0.780774	0.056634	-0.127	-0.751526	-1.85032	-0.42031	-1.19	-1.14715	-1.70875	-0.398909	-1.1518	-0.629121	-0.828512	-0.054644	-0.249551	-0.766155	-0.813655	0.025754	-0.512494	
0.60503	2.84271	5	0	-0.533756	-0.186559	0.0123457	0.033916	-0.017155	-0.498548	0.0354187	0.041676	-0.37136	-0.224409	-0.0534743	0.00243175	-0.351608	-0.77774	0.0557265	-0.113411	-0.745353	-1.84437	-0.411771	-1.18108	-1.14973	-1.70146	-0.403041	-1.14012	-0.638088	-0.819646	-0.0595215	-0.235767	-0.769701	-0.803634	0.0235132	-0.492194	
0.605496	2.83813	5	0	-0.534975	-0.183115	0.0020285	0.050784	-0.023897	-0.494142	0.0326865	0.049398	-0.370458	-0.21669	-0.0496125	0.0066795	-0.348584	-0.774706	0.054819	-0.0998225	-0.73918	-1.83841	-0.403232	-1.17216	-1.15231	-1.69417	-0.407172	-1.12844	-0.647055	-0.810781	-0.064399	-0.221983	-0.773246	-0.793613	0.0212725	-0.471893	
0.606423	2.83661	5	0	-0.536193	-0.17967	-0.00828875	0.067652	-0.030639	-0.489737	0.0299542	0.05712	-0.369556	-0.20897	-0.0457507	0.0109272	-0.345561	-0.771672	0.0539115	-0.0862337	-0.733007	-1.83246	-0.394692	-1.16324	-1.15489	-1.68688	-0.411303	-1.11677	-0.656021	-0.801915	-0.0692765	-0.208199	-0.776792	-0.783591	0.0190318	-0.451593	
0.607674	2.83356	5	0	-0.537412	-0.176225	-0.018606	0.08452	-0.037381	-0.485332	0.027222	0.064842	-0.368653	-0.20125	-0.041889	0.015175	-0.342537	-0.768638	0.053004	-0.072645	-0.726834	-1.82651	-0.386153	-1.15432	-1.15746	-1.6796	-0.415435	-1.10509	-0.664988	-0.793049	-0.074154	-0.194415	-0.780338	-0.77357	0.016791	-0.431292	
0.609114	2.83203	5	0	-0.539851	-0.169331	-0.0289265	0.101405	-0.0319572	-0.486012	0.0199527	0.0755337	-0.365784	-0.209358	-0.048867	0.0197345	-0.339079	-0.778411	0.0568833	-0.0725775	-0.726047	-1.81702	-0.387764	-1.13873	-1.15489	-1.68688	-0.418192	-1.0973	-0.662946	-0.782343	-0.0859513	-0.171843	-0.778501	-0.764485	0.010798	-0.400377	
0.610606	2.82593	0	5	-0.542291	-0.162438	-0.039247	0.11829	-0.0265335	-0.486693	0.0126835	0.0862255	-0.362916	-0.217465	-0.055845	0.024294	-0.335622	-0.788184	0.0607625	-0.07251	-0.72526	-1.80753	-0.389375	-1.12315	-1.15231	-1.69417	-0.42095	-1.0895	-0.660905	-0.771637	-0.0977485	-0.149271	-0.776663	-0.7554	0.004805	-0.369463	
0.612007	2.82593	0	5	-0.54473	-0.155545	-0.0495675	0.135175	-0.0211097	-0.487374	0.00541425	0.0969172	-0.360047	-0.225573	-0.062823	0.0288535	-0.332164	-0.797956	0.0646417	-0.0724425	-0.724474	-1.79805	-0.390985	-1.10757	-1.14973	-1.70146	-0.423708	-1.08171	-0.658864	-0.760931	-0.109546	-0.126699	-0.774826	-0.746314	-0.001188	-0.338549	
0.613166	2.8244	0	5	-0.547169	-0.148651	-0.059888	0.15206	-0.015686	-0.488054	-0.001855	0.107609	-0.357178	-0.23368	-0.069801	0.033413	-0.328706	-0.807729	0.068521	-0.072375	-0.723687	-1.78856	-0.392596	-1.09198	-1.14715	-1.70875	-0.426465	-1.07392	-0.656822	-0.750225	-0.121343	-0.104127	-0.772989	-0.737229	-0.007181	-0.307634	
0.61393	2.82287	0	5	-0.552053	-0.134848	-0.0600793	0.164883	-0.0196433	-0.47687	-0.00279725	0.120124	-0.359994	-0.235992	-0.0612645	0.0244487	-0.328706	-0.807729	0.077486	-0.0756297	-0.715992	-1.79859	-0.391481	-1.09514	-1.14992	-1.71533	-0.43198	-1.07331	-0.673368	-0.7364	-0.130213	-0.0898237	-0.788497	-0.721947	-0.0235905	-0.275236	
0.614146	2.82135	0	5	-0.556937	-0.121045	-0.0602705	0.177706	-0.0236005	-0.465685	-0.0037395	0.132638	-0.36281	-0.238305	-0.052728	0.0154845	-0.328706	-0.807729	0.086451	-0.0788845	-0.708296	-1.80862	-0.390365	-1.09829	-1.1527	-1.72191	-0.437495	-1.0727	-0.689914	-0.722576	-0.139082	-0.0755205	-0.804004	-0.706665	-0.04	-0.242838	
0.613682	2.8183	0	5	-0.561821	-0.107242	-0.0604617	0.19053	-0.0275577	-0.454501	-0.00468175	0.145153	-0.365625	-0.240618	-0.0441915	0.00652025	-0.328706	-0.807729	0.095416	-0.0821392	-0.7006	-1.81865	-0.389249	-1.10144	-1.15547	-1.72849	-0.443009	-1.0721	-0.70646	-0.708751	-0.147951	-0.0612173	-0.819511	-0.691384	-0.0564095	-0.210439	
0.612827	2.81525	0	5	-0.566705	-0.093439	-0.060653	0.203353	-0.031515	-0.443317	-0.005624	0.157668	-0.368441	-0.24293	-0.035655	-0.002444	-0.328706	-0.807729	0.104381	-0.085394	-0.692905	-1.82868	-0.388134	-1.10459	-1.15824	-1.73508	-0.448524	-1.07149	-0.723006	-0.694926	-0.156821	-0.046914	-0.835019	-0.676102	-0.072819	-0.178041	
0.612302	2.81525	0	5	-0.562719	-0.0774332	-0.0667175	0.232782	-0.0326975	-0.425315	-0.0138565	0.180935	-0.364669	-0.243318	-0.0387728	0.0063675	-0.321495	-0.804928	0.109759	-0.0784857	-0.691755	-1.83194	-0.379086	-1.10808	-1.14903	-1.74669	-0.448524	-1.07149	-0.721619	-0.698846	-0.16868	-0.0349075	-0.839211	-0.678512	-0.0804967	-0.17031	
0.612847	2.81525	0	5	-0.558733	-0.0614275	-0.072782	0.262212	-0.03388	-0.407313	-0.022089	0.204201	-0.360898	-0.243707	-0.0418905	0.015179	-0.314284	-0.802126	0.115137	-0.0715775	-0.690604	-1.83519	-0.370039	-1.11157	-1.13982	-1.7583	-0.448524	-1.07149	-0.720232	-0.702765	-0.180538	-0.022901	-0.843403	-0.680921	-0.0881745	-0.162579	
0.6152	2.80914	0	5	-0.554748	-0.0454217	-0.0788465	0.291641	-0.0350625	-0.389312	-0.0303215	0.227468	-0.357127	-0.244096	-0.0450082	0.0239905	-0.307073	-0.799324	0.120515	-0.0646692	-0.689453	-1.83844	-0.360991	-1.11506	-1.13061	-1.76991	-0.448524	-1.07149	-0.718845	-0.706685	-0.192397	-0.0108945	-0.847594	-0.683331	-0.0958522	-0.154848	
0.620045	2.80762	0	5	-0.550762	-0.029416	-0.084911	0.32107	-0.036245	-0.37131	-0.038554	0.250735	-0.353355	-0.244484	-0.048126	0.032802	-0.299862	-0.796523	0.125893	-0.057761	-0.688303	-1.84169	-0.351944	-1.11855	-1.1214	-1.78151	-0.448524	-1.07149	-0.717458	-0.710604	-0.204256	0.001112	-0.851786	-0.685741	-0.10353	-0.147117	
0.62706	2.81372	0	5	-0.554297	-0.00577575	-0.0910155	0.35062	-0.0387687	-0.349505	-0.0422715	0.271098	-0.350537	-0.242172	-0.0496863	0.0372113	-0.292641	-0.79372	0.131276	-0.05084	-0.678657	-1.84549	-0.344001	-1.11889	-1.11476	-1.78586	-0.449903	-1.06759	-0.712656	-0.707713	-0.205236	0.0038825	-0.858342	-0.681457	-0.107281	-0.136517	
0.635062	2.79999	0	5	-0.557832	0.0178645	-0.09712	0.38017	-0.0412925	-0.327701	-0.045989	0.291461	-0.347719	-0.23986	-0.0512465	0.0416205	-0.285421	-0.790917	0.136659	-0.043919	-0.669011	-1.8493	-0.336059	-1.11923	-1.10812	-1.7902	-0.451282	-1.0637	-0.707855	-0.704823	-0.206216	0.006653	-0.864899	-0.677173	-0.111032	-0.125916	
0.642843	2.79693	0	5	-0.561367	0.0415047	-0.103224	0.40972	-0.0438163	-0.305897	-0.0497065	0.311824	-0.344901	-0.237547	-0.0528067	0.0460297	-0.278201	-0.788113	0.142042	-0.036998	-0.659365	-1.8531	-0.328117	-1.11956	-1.10147	-1.79454	-0.452661	-1.0598	-0.703053	-0.701933	-0.207197	0.0094235	-0.871455	-0.672889	-0.114782	-0.115316	
0.649193	2.80151	0	5	-0.564902	0.065145	-0.109329	0.43927	-0.04634	-0.284092	-0.053424	0.332187	-0.342083	-0.235235	-0.054367	0.050439	-0.27098	-0.78531	0.147425	-0.030077	-0.649719	-1.8569	-0.320174	-1.1199	-1.09483	-1.79888	-0.45404	-1.0559	-0.698251	-0.699042	-0.208177	0.012194	-0.878011	-0.668605	-0.118533	-0.104716	
0.652917	2.79846	0	5	-0.56723	0.0853852	-0.116657	0.472286	-0.0475553	-0.265975	-0.065316	0.355938	-0.341178	-0.227512	-0.0450788	0.054549	-0.267219	-0.7727	0.152813	-0.0231433	-0.641211	-1.85746	-0.319551	-1.1106	-1.0974	-1.7916	-0.45542	-1.052	-0.702417	-0.687268	-0.21901	0.032066	-0.876196	-0.65949	-0.117113	-0.0947635	
0.653605	2.79846	5	0	-0.569559	0.105626	-0.123985	0.505302	-0.0487705	-0.247858	-0.077208	0.37969	-0.340272	-0.219789	-0.0357905	0.058659	-0.263459	-0.760089	0.1582	-0.0162095	-0.632704	-1.85802	-0.318929	-1.1013	-1.09998	-1.78433	-0.4568	-1.0481	-0.706583	-0.675494	-0.229844	0.051938	-0.874381	-0.650375	-0.115692	-0.084811	
0.652031	2.78931	5	0	-0.571887	0.125866	-0.131313	0.538319	-0.0499858	-0.22974	-0.0891	0.403442	-0.339367	-0.212066	-0.0265022	0.062769	-0.259698	-0.747479	0.163588	-0.00927575	-0.624196	-1.85857	-0.318307	-1.09199	-1.10255	-1.77706	-0.458179	-1.0442	-0.710749	-0.66372	-0.240677	0.07181	-0.872565	-0.641259	-0.114271	-0.0748585	
0.649065	2.79236	5	0	-0.574215	0.146106	-0.138641	0.571335	-0.051201	-0.211623	-0.100992	0.427193	-0.338461	-0.204343	-0.017214	0.066879	-0.255937	-0.734869	0.168976	-0.002342	-0.615688	-1.85913	-0.317684	-1.08269	-1.10512	-1.76979	-0.459559	-1.04031	-0.714915	-0.651946	-0.25151	0.091682	-0.87075	-0.632144	-0.112851	-0.064906	
0.645579	2.79083	5	0	-0.575448	0.14959	-0.148782	0.57539	-0.057959	-0.207207	-0.100992	0.427193	-0.344151	-0.198545	-0.0242035	0.071446	-0.260569	-0.721779	0.165362	0.00787025	-0.609474	-1.85317	-0.317065	-1.07337	-1.10363	-1.75957	-0.463701	-1.0286	-0.717074	-0.629368	-0.253448	0.107905	-0.871314	-0.616295	-0.115201	-0.0442878	
0.642441	2.78778	5	0	-0.57668	0.153074	-0.158922	0.579446	-0.064717	-0.202792	-0.100992	0.427193	-0.34984	-0.192747	-0.031193	0.076013	-0.265201	-0.708689	0.161749	0.0180825	-0.60326	-1.84722	-0.316446	-1.06405	-1.10213	-1.74935	-0.467843	-1.01689	-0.719234	-0.60679	-0.255387	0.124127	-0.871878	-0.600445	-0.11755	-0.0236695	
0.640148	2.78931	5	0	-0.577913	0.156557	-0.169063	0.583501	-0.071475	-0.198376	-0.100992	0.427193	-0.35553	-0.186949	-0.0381825	0.08058	-0.269832	-0.695599	0.158135	0.0282947	-0.597045	-1.84126	-0.315826	-1.05473	-1.10064	-1.73913	-0.471986	-1.00518	-0.721394	-0.584211	-0.257325	0.140349	-0.872441	-0.584596	-0.119899	-0.00305125	
0.63836	2.78473	5	0	-0.579145	0.160041	-0.179204	0.587556	-0.078233	-0.19396	-0.100992	0.427193	-0.36122	-0.181151	-0.045172	0.085147	-0.274464	-0.682509	0.154522	0.038507	-0.590831	-1.83531	-0.315207	-1.0454	-1.09914	-1.72891	-0.476128	-0.993477	-0.723553	-0.561633	-0.259263	0.156572	-0.873005	-0.568747	-0.122249	0.017567	
0.636624	2.78473	5	0	-0.581612	0.167013	-0.177095	0.593894	-0.071475	-0.198376	-0.107368	0.43536	-0.364035	-0.183472	-0.0467352	0.0895647	-0.269111	-0.686007	0.158421	0.0385785	-0.593939	-1.83829	-0.310109	-1.04874	-1.09249	-1.73326	-0.483016	-0.988976	-0.73053	-0.541914	-0.267148	0.178857	-0.87358	-0.552855	-0.133577	0.0495828	
0.634489	2.78625	5	0	-0.584079	0.173984	-0.174986	0.600232	-0.064717	-0.202792	-0.113744	0.443527	-0.36685	-0.185792	-0.0482985	0.0939825	-0.263759	-0.689504	0.16232	0.03865	-0.597047	-1.84127	-0.305011	-1.05207	-1.08584	-1.73761	-0.489905	-0.984475	-0.737507	-0.522196	-0.275034	0.201141	-0.874154	-0.536964	-0.144906	0.0815985	
0.631501	2.78015	5	0	-0.586546	0.180955	-0.172877	0.606569	-0.057959	-0.207207	-0.12012	0.451695	-0.369665	-0.188112	-0.0498617	0.0984003	-0.258406	-0.693002	0.166218	0.0387215	-0.600155	-1.84424	-0.299913	-1.0554	-1.07918	-1.74195	-0.496793	-0.979974	-0.744485	-0.502477	-0.282919	0.223425	-0.874729	-0.521073	-0.156234	0.113614	
0.627479	2.77557	5	0	-0.589013	0.187927	-0.170768	0.612907	-0.051201	-0.211623	-0.126496	0.459862	-0.37248	-0.190433	-0.051425	0.102818	-0.253053	-0.6965	0.170117	0.038793	-0.603263	-1.84722	-0.294815	-1.05873	-1.07253	-1.7463	-0.503681	-0.975473	-0.751462	-0.482758	-0.290804	0.24571	-0.875304	-0.505181	-0.167563	0.14563	
