0.655	2.39715	0	0	0.109554	-1.05839	-0.390866	0.197912	0	0	-0.354661	0.566826	0	0	-0.290435	0.433741	-0.270945	0.087873	-0.268317	0.226135	-0.050771	-0.219145	0.183526	0.309142	0.035334	-0.191827	0.174503	0.162936	-0.145249	-0.19621	0.07788	-0.196364	0.26162	-0.555732	0.333642	0.011555	
0.66049	2.39563	0	0	0.109554	-1.05839	-0.387907	0.201108	0	0	-0.357697	0.575406	0	0	-0.28866	0.443464	-0.268275	0.0901945	-0.263252	0.222826	-0.051826	-0.216164	0.185147	0.317572	0.035334	-0.191827	0.172852	0.167603	-0.145249	-0.19621	0.083356	-0.201946	0.266689	-0.553024	0.338571	0.0112753	
0.664126	2.39563	0	0	0.109554	-1.05839	-0.384949	0.204304	0	0	-0.360733	0.583986	0	0	-0.286884	0.453188	-0.265605	0.092516	-0.258188	0.219516	-0.052881	-0.213182	0.186768	0.326003	0.035334	-0.191827	0.1712	0.17227	-0.145249	-0.19621	0.088832	-0.207528	0.271757	-0.550316	0.3435	0.0109955	
0.666232	2.388	0	0	0.109554	-1.05839	-0.38199	0.2075	0	0	-0.363769	0.592567	0	0	-0.285108	0.462912	-0.262934	0.0948375	-0.253123	0.216206	-0.053936	-0.210201	0.188388	0.334433	0.035334	-0.191827	0.169549	0.176938	-0.145249	-0.19621	0.094308	-0.21311	0.276826	-0.547609	0.348429	0.0107157	
0.667129	2.38342	0	0	0.109554	-1.05839	-0.379031	0.210696	0	0	-0.366805	0.601147	0	0	-0.283333	0.472635	-0.260264	0.097159	-0.248058	0.212897	-0.054991	-0.20722	0.190009	0.342864	0.035334	-0.191827	0.167898	0.181605	-0.145249	-0.19621	0.099784	-0.218692	0.281895	-0.544901	0.353358	0.010436	
0.667139	2.38342	0	0	0.109554	-1.05839	-0.381412	0.194315	0	0	-0.369984	0.590037	0	0	-0.291888	0.467341	-0.266538	0.0951603	-0.254329	0.208617	-0.0528872	-0.201714	0.184176	0.359349	0.0330825	-0.185464	0.166246	0.186274	-0.140628	-0.19369	0.10065	-0.211239	0.284193	-0.534346	0.369042	0.0208098	
0.666585	2.37884	0	0	0.109554	-1.05839	-0.383792	0.177934	0	0	-0.373162	0.578928	0	0	-0.300443	0.462047	-0.272813	0.0931615	-0.260599	0.204336	-0.0507835	-0.196208	0.178343	0.375834	0.030831	-0.1791	0.164594	0.190944	-0.136007	-0.19117	0.101515	-0.203786	0.286491	-0.523792	0.384727	0.0311835	
0.665789	2.37732	0	0	0.109554	-1.05839	-0.386173	0.161554	0	0	-0.37634	0.567818	0	0	-0.308997	0.456754	-0.279087	0.0911627	-0.26687	0.200055	-0.0486798	-0.190702	0.172511	0.392318	0.0285795	-0.172737	0.162941	0.195613	-0.131386	-0.188651	0.10238	-0.196333	0.288789	-0.513238	0.400412	0.0415572	
0.665073	2.37274	0	0	0.109554	-1.05839	-0.388554	0.145173	0	0	-0.379519	0.556708	0	0	-0.317552	0.45146	-0.285361	0.089164	-0.273141	0.195775	-0.046576	-0.185196	0.166678	0.408803	0.026328	-0.166374	0.161289	0.200283	-0.126765	-0.186131	0.103246	-0.18888	0.291087	-0.502683	0.416096	0.051931	
0.664759	2.37121	0	0	0.109554	-1.05839	-0.389159	0.13534	0	0	-0.375479	0.545292	0	0	-0.319325	0.441752	-0.284292	0.0762847	-0.278122	0.187875	-0.0465703	-0.196664	0.171053	0.396437	0.025735	-0.17821	0.151944	0.192041	-0.133935	-0.181446	0.092353	-0.187777	0.280463	-0.489705	0.388203	0.0760605	
0.665169	2.37121	0	0	0.109554	-1.05839	-0.389765	0.125507	0	0	-0.37144	0.533875	0	0	-0.321098	0.432044	-0.283222	0.0634055	-0.283103	0.179974	-0.0465645	-0.208131	0.175429	0.38407	0.025142	-0.190045	0.142599	0.183798	-0.141106	-0.17676	0.08146	-0.186674	0.269838	-0.476727	0.36031	0.10019	
0.666624	2.36816	0	0	0.109554	-1.05839	-0.39037	0.115675	0	0	-0.3674	0.522458	0	0	-0.32287	0.422335	-0.282153	0.0505262	-0.288084	0.172074	-0.0465587	-0.219599	0.179805	0.371704	0.024549	-0.201881	0.133254	0.175556	-0.148277	-0.172075	0.070567	-0.185571	0.259213	-0.463749	0.332416	0.124319	
0.66929	2.36664	0	0	0.109554	-1.05839	-0.390975	0.105842	0	0	-0.36336	0.511042	0	0	-0.324643	0.412627	-0.281084	0.037647	-0.293065	0.164174	-0.046553	-0.231067	0.18418	0.359337	0.023956	-0.213717	0.123909	0.167314	-0.155447	-0.16739	0.059674	-0.184468	0.248589	-0.450771	0.304523	0.148449	
0.673101	2.35901	0	0	0.109554	-1.05839	-0.390975	0.105842	0	0	-0.360757	0.513728	0	0	-0.321203	0.417621	-0.282018	0.0402858	-0.293065	0.164174	-0.0497122	-0.233583	0.190173	0.355421	0.02508	-0.216893	0.127206	0.157997	-0.154172	-0.170993	0.0615182	-0.18968	0.242139	-0.449575	0.296038	0.14514	
0.677973	2.36053	0	0	0.109554	-1.05839	-0.390975	0.105842	0	0	-0.358154	0.516414	0	0	-0.317762	0.422616	-0.282952	0.0429245	-0.293065	0.164174	-0.0528715	-0.236099	0.196165	0.351506	0.026204	-0.22007	0.130503	0.148679	-0.152897	-0.174596	0.0633625	-0.194892	0.235689	-0.448379	0.287552	0.141831	
0.683819	2.35443	0	0	0.109554	-1.05839	-0.390975	0.105842	0	0	-0.35555	0.5191	0	0	-0.314322	0.42761	-0.283885	0.0455632	-0.293065	0.164174	-0.0560307	-0.238615	0.202158	0.34759	0.027328	-0.223247	0.1338	0.139362	-0.151622	-0.178199	0.0652067	-0.200104	0.229238	-0.447182	0.279066	0.138523	
0.690554	2.35901	0	0	0.109554	-1.05839	-0.390975	0.105842	0	0	-0.352947	0.521786	0	0	-0.310881	0.432604	-0.284819	0.048202	-0.293065	0.164174	-0.05919	-0.241131	0.208151	0.343674	0.028452	-0.226423	0.137097	0.130045	-0.150347	-0.181802	0.067051	-0.205316	0.222788	-0.445986	0.270581	0.135214	
0.698034	2.34985	0	0	0.109554	-1.05839	-0.383269	0.118717	0	0	-0.356411	0.541626	0	0	-0.305666	0.447336	-0.282286	0.060764	-0.289369	0.175705	-0.053925	-0.233115	0.211391	0.360584	0.0290468	-0.214593	0.136819	0.148148	-0.143657	-0.169536	0.0751148	-0.188518	0.245844	-0.44292	0.282117	0.157232	
0.705693	2.34985	0	0	0.109554	-1.05839	-0.375564	0.131591	0	0	-0.359876	0.561466	0	0	-0.30045	0.462067	-0.279753	0.073326	-0.285673	0.187237	-0.04866	-0.225099	0.214632	0.377495	0.0296415	-0.202763	0.136541	0.166251	-0.136968	-0.15727	0.0831785	-0.17172	0.2689	-0.439854	0.293654	0.17925	
0.712775	2.35138	0	0	0.109554	-1.05839	-0.367858	0.144466	0	0	-0.363341	0.581307	0	0	-0.295235	0.476799	-0.27722	0.085888	-0.281977	0.198768	-0.043395	-0.217082	0.217872	0.394406	0.0302362	-0.190933	0.136263	0.184354	-0.130278	-0.145003	0.0912422	-0.154922	0.291956	-0.436787	0.30519	0.201267	
0.718523	2.34985	0	0	0.109554	-1.05839	-0.360152	0.15734	0	0	-0.366805	0.601147	0	0	-0.290019	0.491531	-0.274687	0.09845	-0.278281	0.210299	-0.03813	-0.209066	0.221112	0.411316	0.030831	-0.179103	0.135985	0.202457	-0.123588	-0.132737	0.099306	-0.138124	0.315012	-0.433721	0.316726	0.223285	
0.722179	2.34527	0	0	0.109554	-1.05839	-0.360152	0.15734	0	0	-0.36319	0.600985	0	0	-0.2916	0.510751	-0.281244	0.116981	-0.286001	0.232117	-0.032871	-0.189532	0.225959	0.43679	0.0382367	-0.159439	0.137047	0.234141	-0.120738	-0.109567	0.105367	-0.0957143	0.32697	-0.399041	0.346177	0.263537	
0.722987	2.33917	0	0	0.109554	-1.05839	-0.360152	0.15734	0	0	-0.359575	0.600823	0	0	-0.293181	0.529972	-0.287801	0.135512	-0.29372	0.253934	-0.027612	-0.169998	0.230805	0.462263	0.0456425	-0.139774	0.138109	0.265824	-0.117888	-0.086397	0.111427	-0.0533045	0.338929	-0.364361	0.375628	0.303789	
0.720565	2.33765	0	0	0.109554	-1.05839	-0.360152	0.15734	0	0	-0.355961	0.600662	0	0	-0.294761	0.549192	-0.294358	0.154042	-0.30144	0.275751	-0.022353	-0.150465	0.235651	0.487737	0.0530483	-0.12011	0.139171	0.297508	-0.115038	-0.063227	0.117488	-0.0108948	0.350888	-0.329681	0.405079	0.344041	
0.715968	2.33459	0	0	0.109554	-1.05839	-0.360152	0.15734	0	0	-0.352346	0.6005	0	0	-0.296342	0.568412	-0.300915	0.172573	-0.30916	0.297569	-0.017094	-0.130931	0.240498	0.513211	0.060454	-0.100446	0.140233	0.329191	-0.112188	-0.040057	0.123548	0.031515	0.362846	-0.295001	0.43453	0.384293	
0.710592	2.32696	0	0	0.109554	-1.05839	-0.356585	0.170398	0	0	-0.347577	0.617217	0	0	-0.291139	0.583248	-0.302005	0.18552	-0.300413	0.305862	-0.0149893	-0.1254	0.24211	0.521732	0.0621683	-0.0917402	0.14158	0.34275	-0.113983	-0.0193513	0.117866	0.0575165	0.356699	-0.26047	0.436447	0.43402	
0.705834	2.32696	0	0	0.109554	-1.05839	-0.353019	0.183455	0	0	-0.342808	0.633935	0	0	-0.285936	0.598084	-0.303094	0.198466	-0.291666	0.314155	-0.0128845	-0.119869	0.243721	0.530252	0.0638825	-0.0830345	0.142928	0.356309	-0.115779	0.0013545	0.112183	0.083518	0.350552	-0.225938	0.438365	0.483747	
0.70309	2.33002	0	0	0.109554	-1.05839	-0.349453	0.196513	0	0	-0.338039	0.650653	0	0	-0.280732	0.61292	-0.304183	0.211413	-0.282918	0.322449	-0.0107798	-0.114339	0.245333	0.538772	0.0655967	-0.0743287	0.144276	0.369867	-0.117574	0.0220603	0.1065	0.10952	0.344404	-0.191407	0.440283	0.533475	
0.703731	2.33459	0	0	0.109554	-1.05839	-0.345886	0.209571	0	0	-0.33327	0.66737	0	0	-0.275529	0.627756	-0.305273	0.22436	-0.274171	0.330742	-0.008675	-0.108808	0.246945	0.547293	0.067311	-0.065623	0.145623	0.383426	-0.119369	0.042766	0.100818	0.135521	0.338257	-0.156876	0.4422	0.583202	
0.708093	2.33459	0	0	0.109554	-1.05839	-0.344101	0.239285	0	0	-0.332582	0.695671	0	0	-0.26857	0.652487	-0.292878	0.238748	-0.270588	0.353689	-0.00446475	-0.097726	0.256193	0.560437	0.0718685	-0.051372	0.159652	0.395975	-0.125806	0.0609585	0.099685	0.158622	0.357225	-0.141691	0.447401	0.609969	
0.715137	2.33917	0	0	0.109554	-1.05839	-0.342315	0.268999	0	0	-0.331894	0.723972	0	0	-0.26161	0.677218	-0.280483	0.253136	-0.267005	0.376636	-0.0002545	-0.086644	0.265441	0.573581	0.076426	-0.037121	0.173681	0.408523	-0.132243	0.079151	0.098552	0.181723	0.376194	-0.126505	0.452603	0.636737	
0.723731	2.33459	0	0	0.109554	-1.05839	-0.340529	0.298713	0	0	-0.331207	0.752273	0	0	-0.254651	0.701949	-0.268089	0.267525	-0.263422	0.399584	0.00395575	-0.075562	0.274689	0.586725	0.0809835	-0.02287	0.18771	0.421072	-0.13868	0.0973435	0.097419	0.204824	0.395163	-0.11132	0.457804	0.663504	
0.732742	2.3407	0	0	0.109554	-1.05839	-0.338744	0.328427	0	0	-0.330519	0.780574	0	0	-0.247691	0.72668	-0.255694	0.281913	-0.259839	0.422531	0.008166	-0.06448	0.283937	0.599869	0.085541	-0.008619	0.201739	0.433621	-0.145117	0.115536	0.096286	0.227925	0.414131	-0.096135	0.463005	0.690271	
0.741038	2.33765	0	0	0.109554	-1.05839	-0.346489	0.361918	0	0	-0.339712	0.806556	0	0	-0.250966	0.765594	-0.25524	0.310343	-0.257573	0.449258	0.0155467	-0.0508152	0.29172	0.617236	0.0918048	0.01445	0.19471	0.470917	-0.145658	0.132711	0.0959542	0.258752	0.410739	-0.0693098	0.483163	0.716515	
0.747508	2.33765	0	0	0.109554	-1.05839	-0.354235	0.395409	0	0	-0.348905	0.832538	0	0	-0.254242	0.804509	-0.254785	0.338774	-0.255306	0.475985	0.0229275	-0.0371505	0.299504	0.634603	0.0980685	0.037519	0.187682	0.508212	-0.146199	0.149885	0.0956225	0.289578	0.407346	-0.0424845	0.503321	0.742758	
0.751737	2.33765	0	0	0.109554	-1.05839	-0.36198	0.428899	0	0	-0.358099	0.85852	0	0	-0.257517	0.843423	-0.254331	0.367205	-0.25304	0.502712	0.0303083	-0.0234857	0.307287	0.651971	0.104332	0.060588	0.180653	0.545508	-0.146741	0.167059	0.0952908	0.320405	0.403954	-0.0156592	0.523478	0.769002	
0.754147	2.33307	0	0	0.109554	-1.05839	-0.369725	0.46239	0	0	-0.367292	0.884502	0	0	-0.260792	0.882338	-0.253877	0.395635	-0.250774	0.529439	0.037689	-0.009821	0.31507	0.669338	0.110596	0.083657	0.173624	0.582804	-0.147282	0.184234	0.094959	0.351232	0.400561	0.011166	0.543636	0.795246	
0.755206	2.32544	0	0	0.109554	-1.05839	-0.373303	0.472502	0	0	-0.368791	0.89883	0	0	-0.26249	0.887135	-0.251207	0.398004	-0.246986	0.529791	0.0323893	-0.006358	0.310505	0.669109	0.102058	0.094186	0.171947	0.587543	-0.152454	0.19885	0.079055	0.386211	0.405084	0.0329077	0.528974	0.850588	
0.755382	2.32544	0	0	0.109554	-1.05839	-0.376881	0.482614	0	0	-0.370289	0.913158	0	0	-0.264187	0.891933	-0.248537	0.400373	-0.243198	0.530143	0.0270895	-0.002895	0.30594	0.66888	0.0935205	0.104715	0.17027	0.592282	-0.157626	0.213467	0.063151	0.421189	0.409607	0.0546495	0.514312	0.905931	
0.755146	2.31933	0	0	0.109554	-1.05839	-0.380459	0.492726	0	0	-0.371788	0.927487	0	0	-0.265884	0.89673	-0.245867	0.402742	-0.239411	0.530496	0.0217898	0.000568	0.301375	0.66865	0.0849827	0.115244	0.168594	0.597021	-0.162797	0.228083	0.047247	0.456168	0.41413	0.0763912	0.499649	0.961274	
0.754958	2.31476	0	0	0.109554	-1.05839	-0.384037	0.502838	0	0	-0.373287	0.941815	0	0	-0.267582	0.901528	-0.243197	0.405111	-0.235623	0.530848	0.01649	0.004031	0.29681	0.668421	0.076445	0.125773	0.166917	0.60176	-0.167969	0.242699	0.031343	0.491146	0.418653	0.098133	0.484987	1.01662	
0.754934	2.31323	0	0	0.109554	-1.05839	-0.384667	0.516226	0	0	-0.37685	0.961982	0	0	-0.262447	0.901863	-0.244144	0.407788	-0.239411	0.530496	0.014387	-0.0015335	0.293726	0.664017	0.0775842	0.122553	0.160571	0.602263	-0.177193	0.237489	0.0213708	0.489457	0.416393	0.08725	0.492023	0.99673	
0.75474	2.31171	0	0	0.109554	-1.05839	-0.385297	0.529613	0	0	-0.380413	0.982149	0	0	-0.257312	0.902198	-0.245091	0.410465	-0.243198	0.530143	0.012284	-0.007098	0.290641	0.659613	0.0787235	0.119333	0.154224	0.602766	-0.186416	0.232279	0.0113985	0.487768	0.414133	0.076367	0.499059	0.976845	
0.754005	2.31323	0	0	0.109554	-1.05839	-0.385926	0.543001	0	0	-0.383976	1.00232	0	0	-0.252177	0.902533	-0.246038	0.413141	-0.246986	0.529791	0.010181	-0.0126625	0.287557	0.655209	0.0798628	0.116113	0.147878	0.60327	-0.19564	0.227069	0.00142625	0.486079	0.411873	0.065484	0.506096	0.956959	
0.752362	2.31171	0	0	0.109554	-1.05839	-0.386556	0.556389	0	0	-0.387539	1.02248	0	0	-0.247042	0.902868	-0.246985	0.415818	-0.250774	0.529439	0.008078	-0.018227	0.284473	0.650805	0.081002	0.112893	0.141532	0.603773	-0.204864	0.221859	-0.008546	0.48439	0.409613	0.054601	0.513132	0.937074	
0.749442	2.31018	0	0	-1.45339	-0.0371302	-0.397882	0.576791	0	0	-0.399388	1.04587	0	0	-0.253845	0.922094	-0.247159	0.42623	-0.258342	0.528733	0.00488425	-0.0092015	0.275359	0.650346	0.073018	0.135457	0.126804	0.627981	-0.206156	0.225511	-0.008687	0.49474	0.404512	0.0517625	0.511726	0.941048	
0.744889	2.30865	0	0	-3.01633	0.98413	-0.409208	0.597193	0	0	-0.411238	1.06926	0	0	-0.260648	0.941321	-0.247333	0.436642	-0.26591	0.528027	0.0016905	-0.000176	0.266245	0.649887	0.065034	0.158021	0.112076	0.65219	-0.207448	0.229163	-0.008828	0.50509	0.399412	0.048924	0.51032	0.945021	
0.738764	2.31018	0	0	-4.57927	2.00539	-0.420535	0.617595	0	0	-0.423087	1.09265	0	0	-0.267451	0.960547	-0.247506	0.447053	-0.273479	0.527322	-0.00150325	0.0088495	0.257132	0.649429	0.05705	0.180586	0.097348	0.676399	-0.20874	0.232815	-0.008969	0.51544	0.394311	0.0460855	0.508914	0.948994	
0.731644	2.3056	0	0	-6.14222	3.02665	-0.431861	0.637997	0	0	-0.434936	1.11604	0	0	-0.274254	0.979773	-0.24768	0.457465	-0.281047	0.526616	-0.004697	0.017875	0.248018	0.64897	0.049066	0.20315	0.08262	0.700607	-0.210032	0.236467	-0.00911	0.52579	0.38921	0.043247	0.507508	0.952968	
0.724142	2.3056	0	0	-6.14222	3.02665	-0.433609	0.631336	0	0	-0.438551	1.11617	0	0	-0.274284	0.965012	-0.255684	0.450339	-0.294739	0.510192	-0.0120868	0.015765	0.226768	0.64365	0.0450943	0.200785	0.0716475	0.696835	-0.218513	0.244818	-0.0258372	0.553165	0.377015	0.060475	0.496237	0.98482	
0.716869	2.30255	0	0	-6.14222	3.02665	-0.435357	0.624674	0	0	-0.442167	1.11629	0	0	-0.274315	0.95025	-0.263688	0.443213	-0.308432	0.493768	-0.0194765	0.013655	0.205517	0.638331	0.0411225	0.198419	0.060675	0.693063	-0.226995	0.253168	-0.0425645	0.580541	0.364819	0.077703	0.484967	1.01667	
0.710437	2.3056	0	0	-6.14222	3.02665	-0.437105	0.618012	0	0	-0.445782	1.11642	0	0	-0.274346	0.935489	-0.271691	0.436086	-0.322124	0.477343	-0.0268663	0.011545	0.184267	0.633011	0.0371507	0.196053	0.0497025	0.689291	-0.235477	0.261519	-0.0592917	0.607916	0.352623	0.094931	0.473696	1.04852	
0.7054	2.31171	0	0	-6.14222	3.02665	-0.438853	0.611351	0	0	-0.449397	1.11654	0	0	-0.274376	0.920728	-0.279695	0.42896	-0.335817	0.460919	-0.034256	0.009435	0.163017	0.627691	0.033179	0.193688	0.03873	0.685519	-0.243958	0.269869	-0.076019	0.635291	0.340428	0.112159	0.462426	1.08038	
0.701794	2.32391	0	0	-4.57927	2.00539	-0.441797	0.608077	0	0	-0.447842	1.12224	0	0	-0.279506	0.920389	-0.284079	0.421544	-0.34195	0.445258	-0.040573	0.004322	0.152361	0.618691	0.0269285	0.197772	0.0261045	0.686484	-0.254441	0.268296	-0.077599	0.619878	0.3331	0.0984412	0.454512	1.06106	
0.699385	2.33917	0	0	-3.01633	0.984129	-0.444741	0.604804	0	0	-0.446288	1.12794	0	0	-0.284635	0.920051	-0.288462	0.414129	-0.348084	0.429597	-0.04689	-0.000791	0.141705	0.609691	0.020678	0.201856	0.013479	0.68745	-0.264923	0.266723	-0.079179	0.604466	0.325772	0.0847235	0.446597	1.04174	
0.697939	2.35748	0	0	-1.45339	-0.0371303	-0.447685	0.60153	0	0	-0.444733	1.13364	0	0	-0.289764	0.919713	-0.292846	0.406714	-0.354217	0.413936	-0.053207	-0.005904	0.13105	0.60069	0.0144275	0.20594	0.0008535	0.688415	-0.275406	0.26515	-0.080759	0.589053	0.318444	0.0710058	0.438682	1.02243	
0.697217	2.37884	0	0	0.109554	-1.05839	-0.450629	0.598256	0	0	-0.443178	1.13934	0	0	-0.294894	0.919374	-0.297229	0.399298	-0.360351	0.398275	-0.059524	-0.011017	0.120394	0.59169	0.008177	0.210024	-0.011772	0.68938	-0.285889	0.263577	-0.082339	0.57364	0.311116	0.057288	0.430768	1.00311	
0.696985	2.39715	0	0	0.109554	-1.05839	-0.455962	0.601741	0	0	-0.450916	1.15111	0	0	-0.303415	0.928632	-0.303499	0.397234	-0.374107	0.393249	-0.06268	-0.0135705	0.106829	0.590994	0.008177	0.210024	-0.0180753	0.689859	-0.284598	0.259928	-0.0886445	0.571604	0.30887	0.046446	0.428599	0.995368	
0.697033	2.42004	0	0	0.109554	-1.05839	-0.461294	0.605225	0	0	-0.458655	1.16289	0	0	-0.311936	0.93789	-0.309769	0.395171	-0.387862	0.388223	-0.065836	-0.016124	0.0932635	0.590297	0.008177	0.210024	-0.0243785	0.690338	-0.283307	0.256279	-0.09495	0.569567	0.306623	0.035604	0.42643	0.987625	
0.697215	2.43988	0	0	0.109554	-1.05839	-0.466627	0.60871	0	0	-0.466394	1.17467	0	0	-0.320456	0.947148	-0.316038	0.393107	-0.401618	0.383196	-0.068992	-0.0186775	0.0796982	0.5896	0.008177	0.210024	-0.0306818	0.690818	-0.282015	0.252631	-0.101255	0.567531	0.304377	0.024762	0.42426	0.979882	
0.697396	2.45972	0	0	0.109554	-1.05839	-0.47196	0.612194	0	0	-0.474132	1.18645	0	0	-0.328977	0.956406	-0.322308	0.391044	-0.415374	0.37817	-0.072148	-0.021231	0.066133	0.588904	0.008177	0.210024	-0.036985	0.691297	-0.280724	0.248982	-0.107561	0.565494	0.302131	0.01392	0.422091	0.972139	
0.697438	2.47497	0	0	-1.45339	-0.0371302	-0.483708	0.59912	0	0	-0.477231	1.17504	0	0	-0.337542	0.936212	-0.338081	0.366545	-0.431349	0.346735	-0.0910765	-0.024993	0.043594	0.587727	-0.0020285	0.211735	-0.055855	0.69272	-0.289186	0.257316	-0.11134	0.576173	0.294227	0.0190847	0.416468	0.98803	
0.697205	2.48413	0	0	-3.01633	0.98413	-0.495456	0.586045	0	0	-0.480329	1.16363	0	0	-0.346107	0.916018	-0.353853	0.342047	-0.447323	0.3153	-0.110005	-0.028755	0.021055	0.586551	-0.012234	0.213446	-0.074725	0.694144	-0.297647	0.265651	-0.115118	0.586852	0.286322	0.0242495	0.410845	1.00392	
0.696566	2.49023	0	0	-4.57927	2.00539	-0.507203	0.572971	0	0	-0.483428	1.15221	0	0	-0.354672	0.895824	-0.369626	0.317548	-0.463297	0.283864	-0.128933	-0.032517	-0.001484	0.585375	-0.0224395	0.215158	-0.093595	0.695567	-0.306109	0.273985	-0.118897	0.597532	0.278417	0.0294142	0.405223	1.01981	
0.695446	2.49328	0	0	-6.14222	3.02665	-0.518951	0.559897	0	0	-0.486527	1.1408	0	0	-0.363237	0.87563	-0.385399	0.293049	-0.479272	0.252429	-0.147862	-0.036279	-0.024023	0.584198	-0.032645	0.216869	-0.112465	0.69699	-0.314571	0.282319	-0.122676	0.608211	0.270513	0.034579	0.3996	1.0357	
0.693819	2.49786	0	0	-4.57927	2.00539	-0.519503	0.549906	0	0	-0.484468	1.13498	0	0	-0.368382	0.860629	-0.392254	0.273066	-0.492852	0.236301	-0.154115	-0.0528768	-0.033127	0.57111	-0.045645	0.212986	-0.120006	0.683778	-0.316574	0.272414	-0.131487	0.593461	0.272506	0.0117875	0.385981	1.00498	
0.691658	2.49786	0	0	-3.01633	0.984129	-0.520055	0.539915	0	0	-0.482409	1.12917	0	0	-0.373526	0.845629	-0.39911	0.253083	-0.506433	0.220173	-0.160368	-0.0694745	-0.042231	0.558022	-0.058645	0.209103	-0.127547	0.670566	-0.318577	0.262509	-0.140297	0.57871	0.2745	-0.011004	0.372363	0.974249	
0.688936	2.49481	0	0	-1.45339	-0.0371303	-0.520606	0.529924	0	0	-0.480351	1.12335	0	0	-0.378671	0.830628	-0.405965	0.2331	-0.520014	0.204045	-0.166621	-0.0860723	-0.051335	0.544935	-0.071645	0.20522	-0.135087	0.657354	-0.320581	0.252604	-0.149108	0.56396	0.276493	-0.0337955	0.358745	0.943523	
0.685628	2.48718	0	0	0.109554	-1.05839	-0.521158	0.519933	0	0	-0.478292	1.11753	0	0	-0.383816	0.815627	-0.41282	0.213117	-0.533594	0.187917	-0.172874	-0.10267	-0.060439	0.531847	-0.084645	0.201337	-0.142628	0.644142	-0.322584	0.242699	-0.157918	0.54921	0.278486	-0.056587	0.345126	0.912797	
0.681734	2.4826	0	0	0.109554	-1.05839	-0.525281	0.520042	0	0	-0.48138	1.12626	0	0	-0.378709	0.815959	-0.422637	0.211396	-0.539782	0.183646	-0.177042	-0.113701	-0.057524	0.523608	-0.080095	0.188478	-0.140961	0.639431	-0.322584	0.242699	-0.158707	0.54154	0.266943	-0.0582333	0.351333	0.881441	
0.677332	2.47345	0	0	0.109554	-1.05839	-0.529404	0.52015	0	0	-0.484469	1.13499	0	0	-0.373602	0.81629	-0.432453	0.209676	-0.545971	0.179376	-0.181211	-0.124731	-0.054609	0.51537	-0.075545	0.175619	-0.139294	0.634719	-0.322584	0.242699	-0.159496	0.533869	0.255399	-0.0598795	0.357541	0.850086	
0.672514	2.46734	0	0	0.109554	-1.05839	-0.533527	0.520258	0	0	-0.487558	1.14372	0	0	-0.368495	0.816622	-0.442269	0.207955	-0.552159	0.175105	-0.18538	-0.135762	-0.051694	0.507131	-0.070995	0.16276	-0.137627	0.630007	-0.322584	0.242699	-0.160284	0.526199	0.243856	-0.0615258	0.363749	0.818731	
0.667375	2.45819	0	0	0.109554	-1.05839	-0.53765	0.520367	0	0	-0.490646	1.15244	0	0	-0.363388	0.816953	-0.452086	0.206234	-0.558347	0.170835	-0.189548	-0.146793	-0.048779	0.498893	-0.066445	0.149901	-0.13596	0.625296	-0.322584	0.242699	-0.161073	0.518529	0.232312	-0.063172	0.369956	0.787375	
0.662006	2.44903	0	0	0.109554	-1.05839	-0.539949	0.503798	0	0	-0.492717	1.13815	0	0	-0.383758	0.830263	-0.46282	0.207153	-0.572072	0.177034	-0.192685	-0.149322	-0.0502363	0.503011	-0.0726683	0.153968	-0.140964	0.639438	-0.31929	0.248955	-0.156668	0.525884	0.232312	-0.063172	0.367168	0.795254	
0.656522	2.44293	0	0	0.109554	-1.05839	-0.542247	0.487229	0	0	-0.494788	1.12386	0	0	-0.404129	0.843573	-0.473553	0.208072	-0.585798	0.183234	-0.195823	-0.15185	-0.0516935	0.50713	-0.0788915	0.158034	-0.145968	0.653579	-0.315995	0.255211	-0.152263	0.53324	0.232312	-0.063172	0.36438	0.803133	
0.651195	2.43835	0	0	0.109554	-1.05839	-0.544546	0.470659	0	0	-0.496859	1.10956	0	0	-0.424499	0.856884	-0.484287	0.208991	-0.599524	0.189434	-0.19896	-0.154379	-0.0531507	0.511248	-0.0851148	0.162101	-0.150972	0.667721	-0.312701	0.261467	-0.147859	0.540596	0.232312	-0.063172	0.361592	0.811011	
0.646366	2.43225	0	0	0.109554	-1.05839	-0.546845	0.45409	0	0	-0.49893	1.09527	0	0	-0.444869	0.870194	-0.495021	0.20991	-0.613249	0.195633	-0.202097	-0.156908	-0.054608	0.515366	-0.091338	0.166167	-0.155976	0.681863	-0.309407	0.267723	-0.143454	0.547951	0.232312	-0.063172	0.358804	0.81889	
0.642373	2.42309	0	0	0.109554	-1.05839	-0.550336	0.440919	0	0	-0.502033	1.08391	0	0	-0.449989	0.855216	-0.502003	0.200272	-0.61687	0.184171	-0.207296	-0.176359	-0.063703	0.502334	-0.0946905	0.148628	-0.160172	0.659264	-0.319154	0.279704	-0.159008	0.562213	0.230903	-0.0591898	0.329237	0.847306	
0.639558	2.42309	0	0	0.109554	-1.05839	-0.553828	0.427748	0	0	-0.505135	1.07256	0	0	-0.455109	0.840238	-0.508985	0.190634	-0.620491	0.172708	-0.212496	-0.195809	-0.072798	0.489302	-0.098043	0.131089	-0.164369	0.636664	-0.328901	0.291685	-0.174563	0.576474	0.229494	-0.0552075	0.29967	0.875722	
0.638219	2.41852	0	0	0.109554	-1.05839	-0.557319	0.414578	0	0	-0.508238	1.0612	0	0	-0.460229	0.825261	-0.515967	0.180996	-0.624111	0.161246	-0.217695	-0.215259	-0.081893	0.47627	-0.101395	0.113551	-0.168566	0.614065	-0.338649	0.303665	-0.190117	0.590735	0.228085	-0.0512252	0.270102	0.904137	
0.638248	2.41852	0	0	0.109554	-1.05839	-0.56081	0.401407	0	0	-0.511341	1.04984	0	0	-0.465349	0.810283	-0.522949	0.171358	-0.627732	0.149784	-0.222894	-0.23471	-0.090988	0.463238	-0.104748	0.096012	-0.172762	0.591465	-0.348396	0.315646	-0.205672	0.604997	0.226676	-0.047243	0.240535	0.932553	
0.639299	2.41089	0	0	0.109554	-1.05839	-0.55726	0.391375	0	0	-0.50466	1.04102	0	0	-0.458619	0.791261	-0.520152	0.163454	-0.628908	0.142268	-0.229146	-0.251123	-0.0882132	0.442502	-0.109239	0.0817298	-0.170718	0.568482	-0.351681	0.309377	-0.211782	0.592613	0.203663	-0.0505552	0.23826	0.897728	
0.641023	2.40936	0	0	0.109554	-1.05839	-0.55371	0.381342	0	0	-0.49798	1.0322	0	0	-0.451888	0.77224	-0.517356	0.15555	-0.630084	0.134753	-0.235398	-0.267537	-0.0854385	0.421766	-0.113729	0.0674475	-0.168674	0.5455	-0.354966	0.303108	-0.217892	0.580229	0.180649	-0.0538675	0.235986	0.862904	
0.64307	2.40021	0	0	0.109554	-1.05839	-0.55016	0.37131	0	0	-0.491299	1.02338	0	0	-0.445157	0.753219	-0.514559	0.147645	-0.631259	0.127238	-0.241649	-0.28395	-0.0826638	0.401031	-0.11822	0.0531652	-0.16663	0.522517	-0.358252	0.296839	-0.224001	0.567844	0.157636	-0.0571798	0.233712	0.828079	
0.645105	2.40021	0	0	0.109554	-1.05839	-0.54661	0.361277	0	0	-0.484618	1.01456	0	0	-0.438427	0.734197	-0.511762	0.139741	-0.632435	0.119722	-0.247901	-0.300363	-0.079889	0.380295	-0.122711	0.038883	-0.164586	0.499534	-0.361537	0.29057	-0.230111	0.55546	0.134623	-0.060492	0.231437	0.793254	
0.647028	2.39563	0	0	-1.45339	-0.0371302	-0.544246	0.354595	0	0	-0.489248	1.01759	0	0	-0.441836	0.729124	-0.511762	0.139741	-0.631165	0.116133	-0.242672	-0.315141	-0.0874002	0.375761	-0.123264	0.0269728	-0.175432	0.495823	-0.35638	0.275996	-0.227136	0.537179	0.133797	-0.075206	0.234045	0.758433	
0.648948	2.39258	0	0	-3.01633	0.98413	-0.541882	0.347913	0	0	-0.493878	1.02061	0	0	-0.445245	0.724051	-0.511762	0.139741	-0.629895	0.112544	-0.237443	-0.32992	-0.0949115	0.371227	-0.123817	0.0150625	-0.186279	0.492112	-0.351223	0.261421	-0.22416	0.518897	0.132971	-0.08992	0.236652	0.723612	
0.650983	2.38647	0	0	-4.57927	2.00539	-0.539517	0.341231	0	0	-0.498508	1.02364	0	0	-0.448653	0.718978	-0.511762	0.139741	-0.628626	0.108956	-0.232213	-0.344699	-0.102423	0.366694	-0.12437	0.00315225	-0.197126	0.488402	-0.346066	0.246846	-0.221185	0.500615	0.132145	-0.104634	0.23926	0.68879	
0.653248	2.38342	0	0	-6.14222	3.02665	-0.537153	0.334549	0	0	-0.503138	1.02666	0	0	-0.452062	0.713905	-0.511762	0.139741	-0.627356	0.105367	-0.226984	-0.359477	-0.109934	0.36216	-0.124923	-0.008758	-0.207972	0.484691	-0.340909	0.232272	-0.21821	0.482334	0.131319	-0.119348	0.241868	0.653969	
0.655857	2.38037	0	0	-4.57927	2.00539	-0.542415	0.314918	0	0	-0.502158	1.00379	0	0	-0.455469	0.708839	-0.517195	0.145316	-0.634786	0.104707	-0.231161	-0.359017	-0.111517	0.353765	-0.129991	-0.007898	-0.206317	0.480014	-0.337047	0.221357	-0.216333	0.477029	0.135524	-0.131232	0.241082	0.642479	
0.658808	2.3819	0	0	-3.01633	0.984129	-0.547677	0.295287	0	0	-0.501177	0.980913	0	0	-0.458875	0.703773	-0.522628	0.150891	-0.642216	0.104048	-0.235339	-0.358557	-0.113099	0.345371	-0.135058	-0.007038	-0.204662	0.475337	-0.333184	0.210441	-0.214456	0.471724	0.139728	-0.143116	0.240296	0.63099	
0.661903	2.37579	0	0	-1.45339	-0.0371303	-0.552938	0.275655	0	0	-0.500196	0.958039	0	0	-0.462282	0.698707	-0.528061	0.156466	-0.649645	0.103388	-0.239516	-0.358098	-0.114682	0.336976	-0.140126	-0.006178	-0.203008	0.47066	-0.329322	0.199525	-0.212579	0.46642	0.143933	-0.154999	0.239511	0.6195	
0.664928	2.36969	0	0	0.109554	-1.05839	-0.5582	0.256024	0	0	-0.499216	0.935164	0	0	-0.465689	0.693641	-0.533494	0.162041	-0.657075	0.102728	-0.243694	-0.357638	-0.116264	0.328581	-0.145194	-0.005318	-0.201353	0.465983	-0.32546	0.18861	-0.210702	0.461115	0.148138	-0.166883	0.238725	0.60801	
0.667668	2.37274	0	0	0.290173	-1.56885	-0.561122	0.229841	0	0	-0.49724	0.909499	0	0	-0.474228	0.673758	-0.535041	0.146868	-0.661873	0.0838485	-0.248911	-0.365569	-0.122319	0.319986	-0.155317	-0.00360375	-0.212181	0.462283	-0.332613	0.193284	-0.214457	0.471728	0.146737	-0.162923	0.236745	0.627317	
0.669909	2.36664	0	0	0.470793	-2.07931	-0.564043	0.203659	0	0	-0.495264	0.883833	0	0	-0.482766	0.653874	-0.536588	0.131696	-0.666671	0.064969	-0.254127	-0.373499	-0.128375	0.311391	-0.165441	-0.0018895	-0.223008	0.458583	-0.339765	0.197958	-0.218212	0.48234	0.145336	-0.158964	0.234765	0.646623	
0.671479	2.36206	0	0	0.651413	-2.58976	-0.566964	0.177477	0	0	-0.493289	0.858168	0	0	-0.491305	0.633991	-0.538135	0.116524	-0.671469	0.0460895	-0.259344	-0.38143	-0.134431	0.302796	-0.175564	-0.00017525	-0.233836	0.454882	-0.346917	0.202631	-0.221967	0.492953	0.143935	-0.155005	0.232785	0.665929	
0.67241	2.36053	0	0	0.832032	-3.10022	-0.569886	0.151294	0	0	-0.491313	0.832503	0	0	-0.499844	0.614108	-0.539682	0.101351	-0.676267	0.02721	-0.26456	-0.389361	-0.140486	0.294201	-0.185688	0.001539	-0.244664	0.451182	-0.35407	0.207305	-0.225722	0.503566	0.142534	-0.151045	0.230805	0.685236	
0.672793	2.35901	0	0	-0.91153	-1.5685	-0.559917	0.134594	0	0	-0.489278	0.82675	0	0	-0.501577	0.604356	-0.537822	0.0960962	-0.676184	0.016175	-0.269772	-0.397276	-0.145095	0.281556	-0.186239	-0.0103372	-0.245946	0.437679	-0.35479	0.193812	-0.230897	0.488603	0.135259	-0.164535	0.211728	0.6707	
0.672718	2.35748	0	0	-2.65509	-0.0367865	-0.549948	0.117893	0	0	-0.487242	0.820998	0	0	-0.503309	0.594605	-0.535963	0.0908415	-0.676101	0.00514	-0.274985	-0.40519	-0.149705	0.26891	-0.18679	-0.0222135	-0.247228	0.424176	-0.355511	0.180319	-0.236072	0.473641	0.127984	-0.178026	0.19265	0.656165	
0.672276	2.35443	0	0	-4.39865	1.49493	-0.53998	0.101193	0	0	-0.485206	0.815246	0	0	-0.505042	0.584854	-0.534104	0.0855868	-0.676018	-0.005895	-0.280197	-0.413104	-0.154315	0.256265	-0.187341	-0.0340898	-0.248511	0.410672	-0.356231	0.166827	-0.241247	0.458678	0.120709	-0.191516	0.173572	0.64163	
0.671555	2.35748	0	0	-6.14222	3.02665	-0.530011	0.084492	0	0	-0.483171	0.809493	0	0	-0.506775	0.575102	-0.532244	0.080332	-0.675935	-0.01693	-0.285409	-0.421019	-0.158924	0.243619	-0.187892	-0.045966	-0.249793	0.397169	-0.356951	0.153334	-0.246422	0.443715	0.113434	-0.205006	0.154495	0.627094	
0.670596	2.35596	0	0	-4.57927	2.00539	-0.533527	0.0944278	0	0	-0.474394	0.81482	0	0	-0.494886	0.585483	-0.532398	0.0905367	-0.66978	-0.012718	-0.279158	-0.427365	-0.158924	0.243619	-0.183961	-0.043643	-0.253092	0.406491	-0.361525	0.150745	-0.248147	0.438739	0.114831	-0.208955	0.161378	0.607642	
0.669407	2.35138	0	0	-3.01633	0.984129	-0.537042	0.104363	0	0	-0.465618	0.820146	0	0	-0.482997	0.595863	-0.532552	0.100741	-0.663625	-0.008506	-0.272908	-0.433711	-0.158924	0.243619	-0.18003	-0.04132	-0.25639	0.415813	-0.366098	0.148156	-0.249872	0.433762	0.116228	-0.212904	0.168261	0.588189	
0.667993	2.35138	0	0	-1.45339	-0.0371303	-0.540558	0.114299	0	0	-0.456842	0.825472	0	0	-0.471109	0.606244	-0.532706	0.110946	-0.65747	-0.004294	-0.266657	-0.440057	-0.158924	0.243619	-0.176098	-0.038997	-0.259688	0.425135	-0.370672	0.145567	-0.251598	0.428785	0.117626	-0.216853	0.175144	0.568736	
0.666357	2.35138	0	0	0.109554	-1.05839	-0.544074	0.124235	0	0	-0.448065	0.830799	0	0	-0.45922	0.616625	-0.53286	0.121151	-0.651315	-8.2E-05	-0.260406	-0.446403	-0.158924	0.243619	-0.172167	-0.036674	-0.262987	0.434457	-0.375246	0.142978	-0.253323	0.423809	0.119023	-0.220802	0.182027	0.549284	
0.664507	2.35138	0	0	0.109554	-1.05839	-0.54642	0.130865	0	0	-0.453164	0.84521	0	0	-0.45911	0.645691	-0.529612	0.14131	-0.655199	0.0217068	-0.257272	-0.432603	-0.152872	0.252188	-0.167681	-0.022456	-0.244641	0.451212	-0.371957	0.149197	-0.249087	0.441408	0.116228	-0.212902	0.177298	0.576317	
0.662615	2.35138	0	0	0.109554	-1.05839	-0.548766	0.137495	0	0	-0.458263	0.859622	0	0	-0.459	0.674758	-0.526363	0.161469	-0.659082	0.0434955	-0.254137	-0.418802	-0.146819	0.260756	-0.163194	-0.008238	-0.226296	0.467967	-0.368667	0.155415	-0.24485	0.459007	0.113433	-0.205003	0.17257	0.60335	
0.661167	2.3529	0	0	0.109554	-1.05839	-0.551112	0.144125	0	0	-0.463363	0.874033	0	0	-0.45889	0.703824	-0.523115	0.181628	-0.662965	0.0652843	-0.251003	-0.405002	-0.140767	0.269325	-0.158708	0.00598	-0.20795	0.484721	-0.365378	0.161633	-0.240614	0.476606	0.110638	-0.197103	0.167842	0.630383	
0.660687	2.3529	0	0	0.109554	-1.05839	-0.553458	0.150755	0	0	-0.468462	0.888444	0	0	-0.45878	0.732891	-0.519867	0.201787	-0.666849	0.087073	-0.247868	-0.391202	-0.134715	0.277893	-0.154222	0.020198	-0.189604	0.501476	-0.362088	0.167852	-0.236377	0.494205	0.107843	-0.189203	0.163113	0.657416	
0.661699	2.35596	0	0	0.109554	-1.05839	-0.562842	0.154338	0	0	-0.468462	0.888444	0	0	-0.452011	0.728468	-0.520801	0.204427	-0.65562	0.076982	-0.253088	-0.376448	-0.140489	0.294212	-0.164933	0.0370152	-0.205805	0.530087	-0.362658	0.184991	-0.236858	0.525184	0.113712	-0.171739	0.176651	0.687657	
0.664725	2.35443	0	0	0.109554	-1.05839	-0.572226	0.157921	0	0	-0.468462	0.888444	0	0	-0.445242	0.724045	-0.521735	0.207066	-0.64439	0.066891	-0.258309	-0.361694	-0.146263	0.310531	-0.175644	0.0538325	-0.222005	0.558698	-0.363228	0.20213	-0.237339	0.556163	0.119581	-0.154276	0.19019	0.717898	
0.670088	2.3529	0	0	0.109554	-1.05839	-0.58161	0.161503	0	0	-0.468462	0.888444	0	0	-0.438474	0.719623	-0.522669	0.209705	-0.633161	0.0568	-0.263529	-0.34694	-0.152038	0.32685	-0.186355	0.0706497	-0.238206	0.587309	-0.363798	0.219268	-0.23782	0.587141	0.12545	-0.136812	0.203728	0.748139	
0.677131	2.3529	0	0	0.109554	-1.05839	-0.590994	0.165086	0	0	-0.468462	0.888444	0	0	-0.431705	0.7152	-0.523603	0.212345	-0.621931	0.046709	-0.26875	-0.332186	-0.157812	0.343169	-0.197066	0.087467	-0.254406	0.61592	-0.364368	0.236407	-0.238301	0.61812	0.131319	-0.119348	0.217266	0.77838	
0.684903	2.35138	0	0	0.109554	-1.05839	-0.589821	0.161772	0	0	-0.461247	0.888166	0	0	-0.433385	0.719949	-0.520031	0.212041	-0.624466	0.0538735	-0.271877	-0.334682	-0.163722	0.347031	-0.198197	0.090663	-0.256068	0.620617	-0.361793	0.229131	-0.239078	0.610437	0.122652	-0.128905	0.208035	0.763337	
0.692451	2.3529	0	0	0.109554	-1.05839	-0.588649	0.158458	0	0	-0.454031	0.887888	0	0	-0.435066	0.724698	-0.51646	0.211737	-0.627001	0.061038	-0.275003	-0.337178	-0.169632	0.350892	-0.199327	0.093859	-0.25773	0.625313	-0.359219	0.221856	-0.239855	0.602754	0.113985	-0.138462	0.198803	0.748294	
0.698824	2.35443	0	0	0.109554	-1.05839	-0.587476	0.155143	0	0	-0.446815	0.88761	0	0	-0.436747	0.729448	-0.512888	0.211433	-0.629537	0.0682025	-0.27813	-0.339675	-0.175542	0.354754	-0.200458	0.097055	-0.259391	0.63001	-0.356645	0.214581	-0.240631	0.595071	0.105319	-0.14802	0.189572	0.733252	
0.703079	2.36053	0	0	0.109554	-1.05839	-0.586303	0.151829	0	0	-0.4396	0.887332	0	0	-0.438427	0.734197	-0.509316	0.211129	-0.632072	0.075367	-0.281257	-0.342171	-0.181452	0.358616	-0.201589	0.100251	-0.261053	0.634706	-0.35407	0.207305	-0.241408	0.587388	0.096652	-0.157577	0.180341	0.718209	
0.70493	2.37121	0	0	0.109554	-1.05839	-0.584546	0.158328	0	0	-0.43749	0.901504	0	0	-0.4367	0.744033	-0.517562	0.224642	-0.629624	0.0792798	-0.277085	-0.342627	-0.175542	0.354754	-0.195397	0.096205	-0.254811	0.63424	-0.352784	0.20367	-0.238584	0.579406	0.0916245	-0.16037	0.177414	0.699112	
0.70514	2.38647	0	0	0.109554	-1.05839	-0.582788	0.164826	0	0	-0.43538	0.915677	0	0	-0.434972	0.753869	-0.525807	0.238155	-0.627175	0.0831925	-0.272914	-0.343084	-0.169632	0.350892	-0.189205	0.092159	-0.248569	0.633774	-0.351498	0.200034	-0.23576	0.571424	0.086597	-0.163164	0.174486	0.680014	
0.704569	2.40936	0	0	0.109554	-1.05839	-0.581031	0.171324	0	0	-0.433269	0.929849	0	0	-0.433244	0.763705	-0.534052	0.251668	-0.624727	0.0871052	-0.268742	-0.343541	-0.163722	0.347031	-0.183014	0.088113	-0.242328	0.633308	-0.350211	0.196398	-0.232935	0.563442	0.0815695	-0.165958	0.171559	0.660917	
0.704076	2.4292	0	0	0.109554	-1.05839	-0.579273	0.177823	0	0	-0.431159	0.944021	0	0	-0.431517	0.773541	-0.542298	0.265181	-0.622279	0.091018	-0.264571	-0.343997	-0.157812	0.343169	-0.176822	0.084067	-0.236086	0.632842	-0.348925	0.192763	-0.230111	0.55546	0.076542	-0.168751	0.168632	0.64182	
0.70452	2.44903	0	0	0.109554	-1.05839	-0.586898	0.187909	0	0	-0.438866	0.955732	0	0	-0.433167	0.792933	-0.5406	0.270172	-0.626089	0.101784	-0.261442	-0.341501	-0.157683	0.355654	-0.174021	0.0896125	-0.23025	0.650744	-0.354074	0.207314	-0.221335	0.570202	0.0751435	-0.164799	0.169406	0.653312	
0.706686	2.4704	0	0	0.109554	-1.05839	-0.594524	0.197994	0	0	-0.446574	0.967444	0	0	-0.434816	0.812324	-0.538901	0.275162	-0.629898	0.11255	-0.258313	-0.339005	-0.157554	0.368138	-0.171219	0.095158	-0.224413	0.668647	-0.359223	0.221865	-0.212559	0.584944	0.073745	-0.160846	0.170181	0.664804	
0.710546	2.49328	0	0	0.109554	-1.05839	-0.60215	0.20808	0	0	-0.454282	0.979156	0	0	-0.436465	0.831715	-0.537203	0.280152	-0.633707	0.123317	-0.255183	-0.336509	-0.157425	0.380622	-0.168417	0.100704	-0.218577	0.686549	-0.364371	0.236416	-0.203782	0.599686	0.0723465	-0.156893	0.170955	0.676296	
0.715564	2.51007	0	0	0.109554	-1.05839	-0.609775	0.218165	0	0	-0.461989	0.990867	0	0	-0.438115	0.851107	-0.535505	0.285143	-0.637517	0.134083	-0.252054	-0.334013	-0.157296	0.393107	-0.165616	0.106249	-0.212741	0.704451	-0.36952	0.250967	-0.195006	0.614428	0.070948	-0.152941	0.171729	0.687788	
0.721197	2.52838	0	0	-1.45339	-0.0371302	-0.615624	0.211785	0	0	-0.45994	0.985078	0	0	-0.44152	0.846	-0.542468	0.275467	-0.646118	0.125914	-0.265612	-0.329695	-0.16321	0.396971	-0.178004	0.114344	-0.21441	0.709168	-0.361656	0.259837	-0.197416	0.650954	0.081005	-0.147344	0.177557	0.726138	
0.726901	2.53448	0	0	-3.01633	0.98413	-0.621473	0.205405	0	0	-0.457892	0.979288	0	0	-0.444925	0.840894	-0.549432	0.265792	-0.654718	0.117744	-0.27917	-0.325377	-0.169124	0.400836	-0.190392	0.122438	-0.216079	0.713884	-0.353793	0.268708	-0.199827	0.68748	0.091062	-0.141748	0.183385	0.764488	
0.732132	2.54974	0	0	-4.57927	2.00539	-0.627322	0.199025	0	0	-0.455843	0.973499	0	0	-0.448331	0.835788	-0.556395	0.256116	-0.663319	0.109574	-0.292728	-0.321058	-0.175038	0.4047	-0.20278	0.130532	-0.217748	0.7186	-0.345929	0.277579	-0.202237	0.724005	0.101119	-0.136152	0.189214	0.802839	
0.736403	2.55279	0	0	-6.14222	3.02665	-0.633171	0.192645	0	0	-0.453794	0.967709	0	0	-0.451736	0.830681	-0.563358	0.246441	-0.67192	0.101405	-0.306286	-0.31674	-0.180952	0.408564	-0.215168	0.138627	-0.219417	0.723317	-0.338065	0.286449	-0.204647	0.760531	0.111176	-0.130555	0.195042	0.841189	
0.739611	2.56042	0	0	-4.57927	2.00539	-0.635518	0.199277	0	0	-0.449645	0.976131	0	0	-0.451736	0.830681	-0.55869	0.233248	-0.675629	0.101074	-0.308363	-0.322188	-0.1824	0.412656	-0.219092	0.136273	-0.21316	0.722857	-0.339356	0.290098	-0.201981	0.762913	0.113977	-0.138472	0.194283	0.829613	
0.741821	2.56042	0	0	-3.01633	0.984129	-0.637865	0.20591	0	0	-0.445497	0.984554	0	0	-0.451736	0.830681	-0.554021	0.220054	-0.679338	0.100743	-0.310441	-0.327636	-0.183847	0.416748	-0.223016	0.133918	-0.206904	0.722396	-0.340647	0.293747	-0.199316	0.765295	0.116779	-0.14639	0.193524	0.818037	
0.743097	2.56805	0	0	-1.45339	-0.0371303	-0.640211	0.212543	0	0	-0.441348	0.992976	0	0	-0.451736	0.830681	-0.549353	0.206861	-0.683047	0.100412	-0.312518	-0.333085	-0.185295	0.42084	-0.226939	0.131564	-0.200647	0.721935	-0.341938	0.297396	-0.196651	0.767677	0.119581	-0.154307	0.192765	0.806462	
0.743504	2.5711	0	0	0.109554	-1.05839	-0.642558	0.219175	0	0	-0.4372	1.0014	0	0	-0.451736	0.830681	-0.544685	0.193668	-0.686756	0.100081	-0.314595	-0.338533	-0.186743	0.424932	-0.230863	0.12921	-0.19439	0.721475	-0.343229	0.301045	-0.193985	0.770059	0.122382	-0.162224	0.192006	0.794886	
0.743106	2.5711	0	0	-1.27277	-0.547588	-0.640241	0.235538	0	0	-0.433545	1.02133	0	0	-0.446614	0.845677	-0.547485	0.201582	-0.686854	0.11117	-0.310429	-0.338987	-0.180709	0.433587	-0.233127	0.135607	-0.188552	0.739468	-0.345813	0.308347	-0.180456	0.771539	0.113149	-0.153149	0.190618	0.798809	
0.741958	2.57873	0	0	-2.65509	-0.036786	-0.637925	0.2519	0	0	-0.429891	1.04126	0	0	-0.441493	0.860674	-0.550285	0.209496	-0.686951	0.122259	-0.306264	-0.339441	-0.174675	0.442242	-0.23539	0.142004	-0.182714	0.757462	-0.348397	0.31565	-0.166928	0.773019	0.103916	-0.144073	0.18923	0.802731	
0.740063	2.58026	0	0	-4.03742	0.474016	-0.635608	0.268263	0	0	-0.426237	1.0612	0	0	-0.436371	0.875671	-0.553086	0.217409	-0.687049	0.133347	-0.302098	-0.339896	-0.168641	0.450897	-0.237653	0.148402	-0.176876	0.775455	-0.350981	0.322952	-0.153399	0.774499	0.0946837	-0.134997	0.187842	0.806654	
0.737399	2.58179	0	0	-5.41974	0.984818	-0.633291	0.284625	0	0	-0.422582	1.08113	0	0	-0.431249	0.890667	-0.555886	0.225323	-0.687146	0.144436	-0.297932	-0.34035	-0.162607	0.459552	-0.239917	0.154799	-0.171038	0.793448	-0.353565	0.330254	-0.139871	0.775979	0.085451	-0.125922	0.186454	0.810577	
0.733948	2.58636	0	0	-3.8568	-0.036442	-0.642049	0.275022	0	0	-0.428784	1.07848	0	0	-0.439745	0.885207	-0.56471	0.220951	-0.696994	0.139846	-0.310437	-0.327641	-0.16551	0.467757	-0.242182	0.161201	-0.176068	0.807665	-0.35028	0.336537	-0.137565	0.799303	0.0904807	-0.123119	0.191498	0.837514	
0.72969	2.58179	0	0	-2.29385	-1.0577	-0.650807	0.26542	0	0	-0.434986	1.07583	0	0	-0.448241	0.879746	-0.573533	0.21658	-0.706841	0.135255	-0.322941	-0.314933	-0.168413	0.475961	-0.244447	0.167602	-0.181099	0.821882	-0.346995	0.342819	-0.135259	0.822628	0.0955105	-0.120316	0.196543	0.86445	
0.724606	2.58026	0	0	-0.730911	-2.07896	-0.659565	0.255817	0	0	-0.441189	1.07317	0	0	-0.456737	0.874286	-0.582357	0.212208	-0.716688	0.130664	-0.335445	-0.302224	-0.171316	0.484165	-0.246713	0.174004	-0.18613	0.836098	-0.34371	0.349102	-0.132954	0.845952	0.10054	-0.117513	0.201587	0.891386	
0.718812	2.57263	0	0	0.832032	-3.10022	-0.668323	0.246214	0	0	-0.447391	1.07052	0	0	-0.465233	0.868826	-0.591181	0.207837	-0.726536	0.126074	-0.34795	-0.289515	-0.174219	0.49237	-0.248978	0.180406	-0.19116	0.850315	-0.340425	0.355385	-0.130648	0.869277	0.10557	-0.11471	0.206631	0.918323	
0.712859	2.56958	0	0	-0.730911	-2.07896	-0.671239	0.243019	0	0	-0.448948	1.06484	0	0	-0.466947	0.858952	-0.596434	0.203171	-0.727704	0.11858	-0.342731	-0.304264	-0.178799	0.479604	-0.254548	0.169291	-0.198655	0.837006	-0.341126	0.3418	-0.128378	0.842963	0.107536	-0.137284	0.205749	0.879623	
0.707387	2.56042	0	0	-2.29385	-1.0577	-0.674156	0.239823	0	0	-0.450506	1.05917	0	0	-0.468661	0.849077	-0.601688	0.198505	-0.728872	0.111086	-0.337512	-0.319014	-0.183378	0.466838	-0.260118	0.158176	-0.206151	0.823697	-0.341827	0.328215	-0.126108	0.816648	0.109502	-0.159858	0.204868	0.840923	
0.703035	2.55432	0	0	-3.8568	-0.036442	-0.677072	0.236628	0	0	-0.452064	1.05349	0	0	-0.470374	0.839203	-0.606942	0.193839	-0.730039	0.103591	-0.332294	-0.333763	-0.187958	0.454073	-0.265689	0.147062	-0.213646	0.810387	-0.342528	0.31463	-0.123839	0.790334	0.111468	-0.182432	0.203986	0.802223	
0.700442	2.54364	0	0	-5.41974	0.984818	-0.679989	0.233433	0	0	-0.453621	1.04781	0	0	-0.472088	0.829329	-0.612195	0.189173	-0.731207	0.096097	-0.327075	-0.348512	-0.192538	0.441307	-0.271259	0.135947	-0.221141	0.797078	-0.343229	0.301045	-0.121569	0.76402	0.113434	-0.205006	0.203104	0.763523	
0.70022	2.53448	0	0	-5.41974	0.984818	-0.68525	0.236871	0	0	-0.455676	1.05361	0	0	-0.472088	0.829329	-0.608637	0.188872	-0.736172	0.0993415	-0.329151	-0.35395	-0.189641	0.433121	-0.272914	0.12721	-0.216124	0.782899	-0.339357	0.290103	-0.115705	0.737505	0.106165	-0.218452	0.196642	0.740685	
0.702259	2.5238	0	0	-5.41974	0.984818	-0.690511	0.240308	0	0	-0.45773	1.05942	0	0	-0.472088	0.829329	-0.605079	0.188571	-0.741138	0.102586	-0.331228	-0.359387	-0.186745	0.424936	-0.274569	0.118472	-0.211107	0.76872	-0.335485	0.279161	-0.10984	0.71099	0.098897	-0.231898	0.19018	0.717847	
0.705668	2.51617	0	0	-5.41974	0.984818	-0.695771	0.243746	0	0	-0.459785	1.06523	0	0	-0.472088	0.829329	-0.601522	0.18827	-0.746103	0.105831	-0.333304	-0.364825	-0.183848	0.41675	-0.276224	0.109735	-0.206089	0.75454	-0.331614	0.268218	-0.103975	0.684475	0.0916285	-0.245344	0.183717	0.69501	
0.70952	2.5116	0	0	-5.41974	0.984818	-0.701032	0.247183	0	0	-0.46184	1.07103	0	0	-0.472088	0.829329	-0.597964	0.187969	-0.751068	0.109075	-0.33538	-0.370263	-0.180952	0.408564	-0.277879	0.100997	-0.201072	0.740361	-0.327742	0.257276	-0.098111	0.65796	0.08436	-0.25879	0.177255	0.672172	
0.712887	2.50549	0	0	-5.41974	0.984818	-0.702745	0.217777	0	0	-0.463437	1.04533	0	0	-0.485644	0.823555	-0.606771	0.18361	-0.764576	0.104162	-0.34058	-0.366865	-0.189874	0.408107	-0.287956	0.102678	-0.197732	0.730921	-0.322587	0.242708	-0.0960585	0.642223	0.080728	-0.265497	0.189076	0.652455	
0.714841	2.49939	0	0	-5.41974	0.984818	-0.704458	0.18837	0	0	-0.465035	1.01964	0	0	-0.4992	0.817781	-0.615577	0.179252	-0.778084	0.0992485	-0.345781	-0.363467	-0.198796	0.407649	-0.298034	0.104358	-0.194391	0.72148	-0.317433	0.228139	-0.094006	0.626486	0.077096	-0.272204	0.200896	0.632739	
0.714573	2.49634	0	0	-5.41974	0.984818	-0.706172	0.158964	0	0	-0.466632	0.99394	0	0	-0.512755	0.812008	-0.624383	0.174893	-0.791593	0.0943353	-0.350981	-0.36007	-0.207719	0.407192	-0.308111	0.106039	-0.191051	0.71204	-0.312278	0.21357	-0.0919535	0.610749	0.073464	-0.27891	0.212716	0.613023	
0.712289	2.49481	0	0	-5.41974	0.984818	-0.707885	0.129558	0	0	-0.468229	0.968243	0	0	-0.526311	0.806234	-0.63319	0.170534	-0.805101	0.089422	-0.356181	-0.356672	-0.216641	0.406735	-0.318188	0.10772	-0.187711	0.7026	-0.307123	0.199002	-0.089901	0.595012	0.069832	-0.285617	0.224537	0.593306	
0.708717	2.48566	0	0	-5.41974	0.984818	-0.706717	0.10346	0	0	-0.469852	0.942666	0	0	-0.534803	0.786253	-0.631167	0.155079	-0.811113	0.0741607	-0.350976	-0.382672	-0.215451	0.377736	-0.319243	0.0839412	-0.19648	0.675765	-0.31573	0.176705	-0.0946775	0.549003	0.0695073	-0.318595	0.19761	0.560164	
0.704587	2.4826	0	0	-5.41974	0.984818	-0.70555	0.0773615	0	0	-0.471475	0.917088	0	0	-0.543295	0.766271	-0.629144	0.139624	-0.817125	0.0588995	-0.345772	-0.408672	-0.214261	0.348736	-0.320299	0.0601625	-0.20525	0.64893	-0.324338	0.154408	-0.099454	0.502995	0.0691825	-0.351573	0.170683	0.527023	
0.700632	2.47803	0	0	-5.41974	0.984818	-0.704382	0.0512632	0	0	-0.473097	0.891511	0	0	-0.551786	0.746289	-0.627122	0.124169	-0.823137	0.0436383	-0.340567	-0.434673	-0.213072	0.319737	-0.321354	0.0363838	-0.214019	0.622095	-0.332945	0.132111	-0.104231	0.456987	0.0688577	-0.38455	0.143756	0.493881	
0.697581	2.4704	0	0	-5.41974	0.984818	-0.703214	0.025165	0	0	-0.47472	0.865934	0	0	-0.560278	0.726308	-0.625099	0.108714	-0.829149	0.028377	-0.335362	-0.460673	-0.211882	0.290737	-0.322409	0.012605	-0.222788	0.59526	-0.341552	0.109814	-0.109007	0.410978	0.068533	-0.417528	0.116829	0.46074	
0.695857	2.4704	0	0	-5.41974	0.984818	-0.700319	0.00559425	0	0	-0.476833	0.851824	0	0	-0.561992	0.716515	-0.627723	0.106396	-0.829056	0.0173745	-0.335368	-0.471941	-0.213599	0.269989	-0.320701	-0.00558675	-0.219084	0.567618	-0.345585	0.0901935	-0.111177	0.367668	0.0512403	-0.436262	0.112262	0.419266	
0.695122	2.46277	0	0	-5.41974	0.984818	-0.697423	-0.0139765	0	0	-0.478946	0.837713	0	0	-0.563706	0.706723	-0.630347	0.104078	-0.828962	0.006372	-0.335374	-0.48321	-0.215317	0.249241	-0.318994	-0.0237785	-0.21538	0.539975	-0.349617	0.070573	-0.113348	0.324358	0.0339475	-0.454997	0.107694	0.377792	
0.694928	2.45819	0	0	-5.41974	0.984818	-0.694528	-0.0335472	0	0	-0.481058	0.823603	0	0	-0.565421	0.696931	-0.632971	0.101759	-0.828869	-0.0046305	-0.33538	-0.494478	-0.217034	0.228492	-0.317287	-0.0419703	-0.211676	0.512333	-0.35365	0.0509525	-0.115518	0.281048	0.0166547	-0.473732	0.103127	0.336319	
0.694826	2.45361	0	0	-5.41974	0.984818	-0.691633	-0.053118	0	0	-0.483171	0.809493	0	0	-0.567135	0.687138	-0.635595	0.099441	-0.828775	-0.015633	-0.335386	-0.505746	-0.218752	0.207744	-0.315579	-0.060162	-0.207972	0.484691	-0.357682	0.031332	-0.117688	0.237738	-0.000638	-0.492466	0.09856	0.294845	
0.694366	2.44751	0	0	-5.41974	0.984818	-0.700381	-0.0625195	0	0	-0.491469	0.792845	0	0	-0.570522	0.682086	-0.632971	0.101759	-0.8312	-0.019513	-0.330192	-0.50914	-0.212863	0.203896	-0.313337	-0.066498	-0.188847	0.465005	-0.358426	0.017945	-0.112919	0.214387	-0.002887	-0.502973	0.105351	0.275652	
0.693123	2.44293	0	0	-5.41974	0.984818	-0.709128	-0.071921	0	0	-0.499767	0.776198	0	0	-0.57391	0.677034	-0.630347	0.104078	-0.833624	-0.023393	-0.324998	-0.512533	-0.206973	0.200047	-0.311095	-0.072834	-0.169721	0.445318	-0.35917	0.004558	-0.10815	0.191035	-0.005136	-0.513481	0.112143	0.256459	
0.690987	2.43835	0	0	-5.41974	0.984818	-0.717875	-0.0813225	0	0	-0.508064	0.759551	0	0	-0.577298	0.671983	-0.627723	0.106396	-0.836049	-0.027273	-0.319805	-0.515927	-0.201083	0.196199	-0.308853	-0.07917	-0.150596	0.425632	-0.359913	-0.008829	-0.103381	0.167683	-0.007385	-0.523988	0.118934	0.237265	
0.688084	2.43072	0	0	-5.41974	0.984818	-0.726623	-0.090724	0	0	-0.516362	0.742903	0	0	-0.580685	0.666931	-0.625099	0.108714	-0.838474	-0.031153	-0.314611	-0.519321	-0.195194	0.192351	-0.306611	-0.085506	-0.131471	0.405946	-0.360657	-0.022216	-0.098612	0.144332	-0.009634	-0.534496	0.125725	0.218072	
0.684547	2.42615	0	0	-5.41974	0.984818	-0.729583	-0.116419	0	0	-0.521621	0.717755	0	0	-0.5774	0.643035	-0.631114	0.0965278	-0.839558	-0.0495353	-0.319816	-0.527173	-0.199799	0.179781	-0.318324	-0.0924455	-0.145279	0.393446	-0.359382	-0.0258207	-0.112118	0.143062	-0.0187658	-0.525537	0.118934	0.237265	
0.680506	2.42309	0	0	-5.41974	0.984818	-0.732544	-0.142114	0	0	-0.526881	0.692608	0	0	-0.574116	0.619139	-0.637129	0.0843415	-0.840642	-0.0679175	-0.325021	-0.535026	-0.204404	0.16721	-0.330036	-0.099385	-0.159087	0.380945	-0.358106	-0.0294255	-0.125624	0.141792	-0.0278975	-0.516578	0.112143	0.256459	
0.676094	2.41852	0	0	-5.41974	0.984818	-0.735504	-0.167808	0	0	-0.532141	0.66746	0	0	-0.570832	0.595242	-0.643145	0.0721553	-0.841725	-0.0862997	-0.330226	-0.542879	-0.209009	0.154639	-0.341749	-0.106325	-0.172894	0.368444	-0.35683	-0.0330302	-0.13913	0.140521	-0.0370292	-0.507619	0.105351	0.275652	
0.671443	2.41699	0	0	-5.41974	0.984818	-0.738464	-0.193503	0	0	-0.5374	0.642312	0	0	-0.567547	0.571346	-0.64916	0.059969	-0.842809	-0.104682	-0.335431	-0.550731	-0.213614	0.142069	-0.353461	-0.113264	-0.186702	0.355944	-0.355555	-0.036635	-0.152636	0.139251	-0.046161	-0.49866	0.09856	0.294845	
0.666684	2.41394	0	0	-3.8568	-0.036442	-0.733853	-0.206536	0	0	-0.535944	0.628208	0	0	-0.56595	0.55223	-0.646383	0.0521202	-0.84273	-0.115619	-0.331294	-0.562424	-0.215201	0.133775	-0.347875	-0.129051	-0.186361	0.337837	-0.355036	-0.0535783	-0.148724	0.108507	-0.036533	-0.525869	0.097463	0.257263	
0.661952	2.41089	0	0	-2.29385	-1.0577	-0.729241	-0.219568	0	0	-0.534488	0.614104	0	0	-0.564353	0.533114	-0.643606	0.0442715	-0.842651	-0.126555	-0.327156	-0.574117	-0.216788	0.125482	-0.342289	-0.144838	-0.18602	0.319729	-0.354517	-0.0705215	-0.144813	0.077763	-0.026905	-0.553079	0.096366	0.219681	
0.657379	2.40631	0	0	-0.730911	-2.07896	-0.72463	-0.2326	0	0	-0.533033	0.599999	0	0	-0.562756	0.513997	-0.640828	0.0364227	-0.842573	-0.137492	-0.323018	-0.58581	-0.218375	0.117189	-0.336703	-0.160624	-0.185678	0.301622	-0.353997	-0.0874648	-0.140901	0.047019	-0.017277	-0.580288	0.095269	0.182098	
0.653098	2.40173	0	0	0.832032	-3.10022	-0.720018	-0.245633	0	0	-0.531577	0.585895	0	0	-0.561159	0.494881	-0.638051	0.028574	-0.842494	-0.148429	-0.318881	-0.597503	-0.219962	0.108895	-0.331117	-0.176411	-0.185337	0.283515	-0.353478	-0.104408	-0.136989	0.016275	-0.007649	-0.607498	0.094172	0.144516	
0.649251	2.40021	0	0	-0.730911	-2.07896	-0.713644	-0.252301	0	0	-0.531577	0.585895	0	0	-0.562821	0.499578	-0.636353	0.0334985	-0.838815	-0.148114	-0.316793	-0.592126	-0.211057	0.109296	-0.337251	-0.172403	-0.175803	0.273714	-0.346355	-0.109062	-0.134127	-0.00165075	-0.0140235	-0.606316	0.108512	0.117542	
0.646018	2.3941	0	0	-2.29385	-1.0577	-0.70727	-0.258968	0	0	-0.531577	0.585895	0	0	-0.564482	0.504274	-0.634655	0.038423	-0.835136	-0.147798	-0.314705	-0.58675	-0.202152	0.109696	-0.343386	-0.168395	-0.16627	0.263913	-0.339233	-0.113716	-0.131265	-0.0195765	-0.020398	-0.605134	0.122851	0.090568	
0.643591	2.39105	0	0	-3.8568	-0.036442	-0.700896	-0.265636	0	0	-0.531577	0.585895	0	0	-0.566144	0.508971	-0.632957	0.0433475	-0.831456	-0.147482	-0.312617	-0.581373	-0.193247	0.110096	-0.34952	-0.164386	-0.156736	0.254112	-0.33211	-0.118371	-0.128402	-0.0375023	-0.0267725	-0.603952	0.13719	0.063594	
0.64216	2.388	0	0	-5.41974	0.984818	-0.694522	-0.272304	0	0	-0.531577	0.585895	0	0	-0.567806	0.513668	-0.631259	0.048272	-0.827777	-0.147167	-0.310529	-0.575996	-0.184342	0.110497	-0.355654	-0.160378	-0.147202	0.244311	-0.324987	-0.123025	-0.12554	-0.055428	-0.033147	-0.60277	0.15153	0.03662	
0.641916	2.38647	0	0	-5.41974	0.984818	-0.690545	-0.29489	0	0	-0.530701	0.563457	0	0	-0.574522	0.518056	-0.637587	0.0564325	-0.829029	-0.143628	-0.302189	-0.56569	-0.179726	0.123053	-0.351753	-0.158075	-0.145885	0.257746	-0.319131	-0.124087	-0.112874	-0.0616997	-0.021766	-0.601253	0.161319	0.036087	
0.642996	2.37732	0	0	-5.41974	0.984818	-0.686568	-0.317476	0	0	-0.529826	0.541019	0	0	-0.581238	0.522444	-0.643915	0.064593	-0.830282	-0.140089	-0.293849	-0.555385	-0.17511	0.135608	-0.347852	-0.155772	-0.144568	0.271182	-0.313274	-0.125149	-0.100207	-0.0679715	-0.010385	-0.599737	0.171107	0.035554	
0.645179	2.37884	0	0	-5.41974	0.984818	-0.682591	-0.340063	0	0	-0.52895	0.518582	0	0	-0.587953	0.526832	-0.650243	0.0727535	-0.831534	-0.13655	-0.28551	-0.545079	-0.170493	0.148164	-0.343951	-0.153468	-0.14325	0.284618	-0.307418	-0.126212	-0.0875405	-0.0742433	0.000996	-0.59822	0.180895	0.035021	
0.648104	2.37579	0	0	-5.41974	0.984818	-0.678614	-0.362649	0	0	-0.528074	0.496144	0	0	-0.594669	0.53122	-0.656571	0.080914	-0.832786	-0.133011	-0.27717	-0.534774	-0.165877	0.16072	-0.34005	-0.151165	-0.141933	0.298053	-0.301561	-0.127274	-0.074874	-0.080515	0.012377	-0.596703	0.190684	0.034488	
0.651407	2.37274	0	0	-5.41974	0.984818	-0.682167	-0.37528	0	0	-0.525639	0.479288	0	0	-0.596396	0.521522	-0.653792	0.0730608	-0.830282	-0.140087	-0.27406	-0.543562	-0.165877	0.16072	-0.341719	-0.159775	-0.141607	0.279975	-0.304107	-0.120078	-0.0794062	-0.0775535	0.00825075	-0.585042	0.174975	0.0653133	
0.654725	2.37121	0	0	-5.41974	0.984818	-0.68572	-0.387911	0	0	-0.523204	0.462433	0	0	-0.598124	0.511825	-0.651014	0.0652075	-0.827778	-0.147164	-0.27095	-0.552351	-0.165877	0.16072	-0.343388	-0.168385	-0.141282	0.261896	-0.306654	-0.112881	-0.0839385	-0.074592	0.0041245	-0.573381	0.159266	0.0961385	
0.657721	2.36359	0	0	-5.41974	0.984818	-0.689273	-0.400542	0	0	-0.520769	0.445577	0	0	-0.599851	0.502127	-0.648235	0.0573543	-0.825274	-0.154241	-0.267841	-0.56114	-0.165877	0.16072	-0.345058	-0.176996	-0.140957	0.243818	-0.3092	-0.105685	-0.0884708	-0.0716305	-1.75E-06	-0.561719	0.143557	0.126964	
0.660429	2.36664	0	0	-5.41974	0.984818	-0.692826	-0.413173	0	0	-0.518334	0.428721	0	0	-0.601578	0.492429	-0.645456	0.049501	-0.82277	-0.161317	-0.264731	-0.569928	-0.165877	0.16072	-0.346727	-0.185606	-0.140631	0.22574	-0.311746	-0.098489	-0.093003	-0.068669	-0.004128	-0.550058	0.127848	0.157789	
0.663181	2.36206	0	0	-5.41974	0.984818	-0.68761	-0.416581	0	0	-0.516329	0.423056	0	0	-0.59826	0.483053	-0.643605	0.0442693	-0.821519	-0.164853	-0.257456	-0.579182	-0.164442	0.156665	-0.349512	-0.191053	-0.134068	0.207193	-0.3092	-0.105685	-0.091079	-0.0839483	0.0013725	-0.565603	0.127531	0.131572	
0.666315	2.36206	0	0	-5.41974	0.984818	-0.682394	-0.41999	0	0	-0.514325	0.417392	0	0	-0.594943	0.473677	-0.641754	0.0390375	-0.820267	-0.168389	-0.250182	-0.588437	-0.163007	0.15261	-0.352298	-0.196499	-0.127505	0.188645	-0.306654	-0.112881	-0.089155	-0.0992275	0.006873	-0.581148	0.127215	0.105355	
0.67017	2.35901	0	0	-5.41974	0.984818	-0.677178	-0.423398	0	0	-0.51232	0.411727	0	0	-0.591626	0.464301	-0.639902	0.0338057	-0.819016	-0.171925	-0.242907	-0.597691	-0.161573	0.148556	-0.355083	-0.201946	-0.120943	0.170097	-0.304107	-0.120078	-0.087231	-0.114507	0.0123735	-0.596692	0.126898	0.079138	
0.675083	2.35443	0	0	-5.41974	0.984818	-0.671962	-0.426806	0	0	-0.510316	0.406062	0	0	-0.588308	0.454925	-0.638051	0.028574	-0.817765	-0.175461	-0.235632	-0.606945	-0.160138	0.144501	-0.357868	-0.207393	-0.11438	0.15155	-0.301561	-0.127274	-0.085307	-0.129786	0.017874	-0.612237	0.126582	0.052921	
0.681116	2.35901	0	0	-3.8568	-0.036442	-0.674254	-0.420328	0	0	-0.514904	0.40906	0	0	-0.589967	0.459612	-0.633576	0.0256497	-0.816586	-0.168072	-0.23457	-0.598635	-0.152645	0.14896	-0.351738	-0.211398	-0.109762	0.155659	-0.294426	-0.131936	-0.0798565	-0.135348	0.017874	-0.612237	0.140901	0.0260053	
0.687717	2.35443	0	0	-2.29385	-1.0577	-0.676547	-0.413849	0	0	-0.519491	0.412057	0	0	-0.591625	0.464299	-0.629101	0.0227255	-0.815408	-0.160684	-0.233508	-0.590324	-0.145151	0.15342	-0.345608	-0.215403	-0.105145	0.159768	-0.287292	-0.136598	-0.074406	-0.14091	0.017874	-0.612237	0.15522	-0.0009105	
0.694252	2.35443	0	0	-0.730911	-2.07896	-0.678839	-0.407371	0	0	-0.524079	0.415055	0	0	-0.593283	0.468985	-0.624625	0.0198012	-0.814229	-0.153295	-0.232445	-0.582014	-0.137657	0.15788	-0.339479	-0.219409	-0.100527	0.163876	-0.280157	-0.14126	-0.0689555	-0.146473	0.017874	-0.612237	0.169538	-0.0278263	
0.700087	2.3529	0	0	0.832032	-3.10022	-0.681132	-0.400892	0	0	-0.528667	0.418053	0	0	-0.594942	0.473672	-0.62015	0.016877	-0.813051	-0.145906	-0.231383	-0.573704	-0.130164	0.162339	-0.333349	-0.223414	-0.09591	0.167985	-0.273022	-0.145922	-0.063505	-0.152035	0.017874	-0.612237	0.183857	-0.054742	
0.704586	2.34527	0	0	-0.730911	-2.07896	-0.688642	-0.391001	0	0	-0.535832	0.418383	0	0	-0.589821	0.48837	-0.625707	0.0325812	-0.813128	-0.134962	-0.217791	-0.566799	-0.123946	0.183288	-0.333908	-0.208508	-0.0915992	0.190167	-0.263829	-0.140859	-0.0528128	-0.132965	0.032925	-0.604138	0.195368	-0.0329727	
0.707143	2.34833	0	0	-2.29385	-1.0577	-0.696152	-0.381109	0	0	-0.542998	0.418713	0	0	-0.584699	0.503068	-0.631263	0.0482855	-0.813205	-0.124018	-0.204199	-0.559894	-0.117727	0.204237	-0.334466	-0.193602	-0.0872885	0.212349	-0.254636	-0.135796	-0.0421205	-0.113896	0.047976	-0.596039	0.206879	-0.0112035	
0.707674	2.34375	0	0	-3.8568	-0.036442	-0.703661	-0.371218	0	0	-0.550163	0.419042	0	0	-0.579578	0.517766	-0.63682	0.0639897	-0.813282	-0.113073	-0.190607	-0.55299	-0.111509	0.225186	-0.335025	-0.178696	-0.0829778	0.234532	-0.245444	-0.130734	-0.0314283	-0.0948258	0.063027	-0.587939	0.218391	0.0105657	
0.706549	2.3468	0	0	-5.41974	0.984818	-0.711171	-0.361327	0	0	-0.557328	0.419372	0	0	-0.574457	0.532464	-0.642377	0.079694	-0.813359	-0.102129	-0.177015	-0.546085	-0.105291	0.246135	-0.335583	-0.16379	-0.078667	0.256714	-0.236251	-0.125671	-0.020736	-0.075756	0.078078	-0.57984	0.229902	0.032335	
0.704153	2.34833	0	0	-5.41974	0.984818	-0.711171	-0.361327	0	0	-0.555326	0.413714	0	0	-0.572794	0.527765	-0.640524	0.0744563	-0.813359	-0.102129	-0.176992	-0.534802	-0.108034	0.266746	-0.331678	-0.161488	-0.083611	0.270686	-0.238034	-0.105092	-0.024706	-0.0349013	0.082611	-0.558817	0.236834	0.0808463	
0.700873	2.3468	0	0	-5.41974	0.984818	-0.711171	-0.361327	0	0	-0.553324	0.408057	0	0	-0.571132	0.523066	-0.63867	0.0692185	-0.813359	-0.102129	-0.17697	-0.523518	-0.110778	0.287358	-0.327774	-0.159185	-0.088555	0.284659	-0.239816	-0.0845125	-0.028676	0.0059535	0.087144	-0.537793	0.243765	0.129358	
0.697094	2.34985	0	0	-5.41974	0.984818	-0.711171	-0.361327	0	0	-0.551323	0.402399	0	0	-0.569469	0.518367	-0.636817	0.0639808	-0.813359	-0.102129	-0.176948	-0.512235	-0.113521	0.30797	-0.32387	-0.156882	-0.093499	0.298631	-0.241599	-0.0639332	-0.032646	0.0468083	0.091677	-0.516769	0.250697	0.177869	
0.693186	2.35901	0	0	-5.41974	0.984818	-0.711171	-0.361327	0	0	-0.549321	0.396741	0	0	-0.567806	0.513668	-0.634964	0.058743	-0.813359	-0.102129	-0.176925	-0.500952	-0.116264	0.328581	-0.319965	-0.15458	-0.098443	0.312603	-0.243382	-0.043354	-0.036616	0.087663	0.09621	-0.495746	0.257629	0.22638	
0.689458	2.36664	0	0	-5.41974	0.984818	-0.694881	-0.361992	0	0	-0.544157	0.402069	0	0	-0.55935	0.518986	-0.624305	0.057819	-0.803554	-0.097625	-0.175866	-0.492592	-0.110203	0.337195	-0.317176	-0.149115	-0.0954755	0.321423	-0.244661	-0.0397405	-0.0303005	0.089597	0.093444	-0.487929	0.257629	0.22638	
0.686197	2.37427	0	0	-5.41974	0.984818	-0.678592	-0.362656	0	0	-0.538994	0.407397	0	0	-0.550894	0.524304	-0.613645	0.056895	-0.793749	-0.093121	-0.174806	-0.484233	-0.104142	0.345809	-0.314387	-0.143651	-0.092508	0.330242	-0.245939	-0.036127	-0.023985	0.091531	0.090678	-0.480112	0.257629	0.22638	
0.683695	2.37732	0	0	-5.41974	0.984818	-0.662302	-0.363321	0	0	-0.53383	0.412725	0	0	-0.542437	0.529622	-0.602985	0.055971	-0.783944	-0.088617	-0.173746	-0.475873	-0.098081	0.354424	-0.311598	-0.138186	-0.0895405	0.339062	-0.247217	-0.0325135	-0.0176695	0.093465	0.087912	-0.472296	0.257629	0.22638	
0.682241	2.38342	0	0	-5.41974	0.984818	-0.646012	-0.363986	0	0	-0.528667	0.418053	0	0	-0.533981	0.53494	-0.592326	0.055047	-0.774139	-0.084113	-0.172687	-0.467514	-0.09202	0.363038	-0.308809	-0.132721	-0.086573	0.347882	-0.248496	-0.0289	-0.011354	0.095399	0.085146	-0.464479	0.257629	0.22638	
0.682108	2.38953	0	0	-5.41974	0.984818	-0.647063	-0.338287	0	0	-0.524931	0.437415	0	0	-0.5187	0.550323	-0.589851	0.0675468	-0.764397	-0.068604	-0.161147	-0.454644	-0.0858233	0.384208	-0.30435	-0.118601	-0.0743557	0.365068	-0.245176	-0.0227285	-0.0087575	0.107865	0.0901745	-0.46175	0.268311	0.237172	
0.683222	2.39258	0	0	-5.41974	0.984818	-0.648114	-0.312588	0	0	-0.521195	0.456777	0	0	-0.503418	0.565707	-0.587377	0.0800465	-0.754656	-0.053095	-0.149607	-0.441774	-0.0796265	0.405377	-0.299891	-0.104481	-0.0621385	0.382254	-0.241857	-0.016557	-0.006161	0.120331	0.095203	-0.459021	0.278992	0.247964	
0.685181	2.3941	0	0	-5.41974	0.984818	-0.649165	-0.28689	0	0	-0.517459	0.476138	0	0	-0.488137	0.58109	-0.584902	0.0925462	-0.744914	-0.037586	-0.138067	-0.428905	-0.0734298	0.426546	-0.295431	-0.090361	-0.0499213	0.39944	-0.238537	-0.0103855	-0.0035645	0.132797	0.100232	-0.456292	0.289674	0.258756	
0.68757	2.3941	0	0	-5.41974	0.984818	-0.650216	-0.261191	0	0	-0.513723	0.4955	0	0	-0.472855	0.596473	-0.582428	0.105046	-0.735172	-0.022077	-0.126527	-0.416035	-0.067233	0.447716	-0.290972	-0.076241	-0.037704	0.416626	-0.235217	-0.004214	-0.000968	0.145263	0.10526	-0.453563	0.300356	0.269548	
0.689972	2.39258	0	0	-5.41974	0.984818	-0.654295	-0.261031	0	0	-0.516306	0.492822	0	0	-0.477872	0.610652	-0.580727	0.109994	-0.735259	-0.0110572	-0.121263	-0.396725	-0.0655345	0.468749	-0.293799	-0.0548745	-0.035091	0.443797	-0.239061	0.00664825	0.00245225	0.165343	0.113943	-0.444177	0.30832	0.288112	
0.691974	2.39105	0	0	-5.41974	0.984818	-0.658374	-0.260871	0	0	-0.51889	0.490144	0	0	-0.482889	0.624831	-0.579026	0.114942	-0.735345	-3.75E-05	-0.116	-0.377414	-0.063836	0.489781	-0.296627	-0.033508	-0.032478	0.470967	-0.242904	0.0175105	0.0058725	0.185422	0.122626	-0.434791	0.316284	0.306675	
0.693237	2.39105	0	0	-5.41974	0.984818	-0.662453	-0.260711	0	0	-0.521473	0.487466	0	0	-0.487907	0.639011	-0.577326	0.119889	-0.735432	0.0109822	-0.110736	-0.358104	-0.0621375	0.510814	-0.299454	-0.0121415	-0.029865	0.498138	-0.246748	0.0283727	0.00929275	0.205502	0.13131	-0.425405	0.324248	0.325238	
0.693764	2.39563	0	0	-5.41974	0.984818	-0.666532	-0.260551	0	0	-0.524056	0.484788	0	0	-0.492924	0.65319	-0.575625	0.124837	-0.735518	0.022002	-0.105472	-0.338794	-0.060439	0.531847	-0.302281	0.009225	-0.027252	0.525309	-0.250591	0.039235	0.012713	0.225582	0.139993	-0.416019	0.332212	0.343802	
0.693641	2.39258	0	0	-5.41974	0.984818	-0.666532	-0.260551	0	0	-0.523052	0.48195	0	0	-0.492924	0.65319	-0.573766	0.119582	-0.734256	0.0184347	-0.103375	-0.34472	-0.0560672	0.519492	-0.300033	0.002871	-0.0318797	0.521102	-0.255187	0.0366695	7E-05	0.221663	0.119356	-0.408562	0.313309	0.356154	
0.692956	2.38647	0	0	-5.41974	0.984818	-0.666532	-0.260551	0	0	-0.522047	0.479112	0	0	-0.492924	0.65319	-0.571907	0.114327	-0.732994	0.0148675	-0.101278	-0.350646	-0.0516955	0.507137	-0.297785	-0.003483	-0.0365075	0.516895	-0.259783	0.034104	-0.012573	0.217743	0.098719	-0.401106	0.294406	0.368505	
0.691798	2.38037	0	0	-5.41974	0.984818	-0.666532	-0.260551	0	0	-0.521043	0.476273	0	0	-0.492924	0.65319	-0.570047	0.109073	-0.731731	0.0113003	-0.0991817	-0.356573	-0.0473237	0.494782	-0.295536	-0.009837	-0.0411352	0.512688	-0.264378	0.0315385	-0.025216	0.213823	0.078082	-0.393649	0.275503	0.380856	
0.690255	2.37427	0	0	-5.41974	0.984818	-0.666532	-0.260551	0	0	-0.520039	0.473435	0	0	-0.492924	0.65319	-0.568188	0.103818	-0.730469	0.007733	-0.097085	-0.362499	-0.042952	0.482427	-0.293288	-0.016191	-0.045763	0.508481	-0.268974	0.028973	-0.037859	0.209904	0.057445	-0.386192	0.2566	0.393208	
0.688472	2.37121	0	0	-5.41974	0.984818	-0.672914	-0.253876	0	0	-0.525634	0.479272	0	0	-0.492924	0.65319	-0.561838	0.0956313	-0.726686	-0.00296	-0.091849	-0.377297	-0.045988	0.478086	-0.291042	-0.0225405	-0.0424385	0.499085	-0.276875	0.0202347	-0.0467477	0.195459	0.057964	-0.404583	0.233396	0.390537	
0.68665	2.36206	0	0	-5.41974	0.984818	-0.679296	-0.2472	0	0	-0.531228	0.48511	0	0	-0.492924	0.65319	-0.555488	0.0874445	-0.722902	-0.013653	-0.086613	-0.392095	-0.049024	0.473745	-0.288795	-0.02889	-0.039114	0.48969	-0.284776	0.0114965	-0.0556365	0.181014	0.058483	-0.422974	0.210191	0.387867	
0.684994	2.35596	0	0	-5.41974	0.984818	-0.685677	-0.240525	0	0	-0.536822	0.490947	0	0	-0.492924	0.65319	-0.549138	0.0792577	-0.719118	-0.024346	-0.081377	-0.406893	-0.05206	0.469403	-0.286548	-0.0352395	-0.0357895	0.480295	-0.292678	0.00275825	-0.0645252	0.166569	0.059002	-0.441365	0.186986	0.385196	
0.68371	2.34985	0	0	-5.41974	0.984818	-0.692059	-0.23385	0	0	-0.542417	0.496785	0	0	-0.492924	0.65319	-0.542788	0.071071	-0.715335	-0.035039	-0.076141	-0.421691	-0.055096	0.465062	-0.284302	-0.041589	-0.032465	0.470899	-0.300579	-0.00598	-0.073414	0.152124	0.059521	-0.459756	0.163782	0.382525	
0.683003	2.35138	0	0	-5.41974	0.984818	-0.700746	-0.220652	0	0	-0.5536	0.508458	0	0	-0.491196	0.66298	-0.544646	0.0763227	-0.715335	-0.035039	-0.0729832	-0.419206	-0.0536415	0.460951	-0.280388	-0.039265	-0.0278335	0.475096	-0.299301	-0.00959175	-0.0716585	0.157047	0.059521	-0.459756	0.168689	0.382288	
0.682968	2.3407	0	0	-5.41974	0.984818	-0.709434	-0.207454	0	0	-0.564783	0.520131	0	0	-0.489469	0.672769	-0.546504	0.0815745	-0.715335	-0.035039	-0.0698255	-0.41672	-0.052187	0.45684	-0.276474	-0.036941	-0.023202	0.479293	-0.298023	-0.0132035	-0.069903	0.161969	0.059521	-0.459756	0.173596	0.382051	
0.683247	2.33765	0	0	-5.41974	0.984818	-0.718121	-0.194257	0	0	-0.575966	0.531805	0	0	-0.487741	0.682558	-0.548363	0.0868262	-0.715335	-0.035039	-0.0666677	-0.414235	-0.0507325	0.45273	-0.27256	-0.034617	-0.0185705	0.48349	-0.296745	-0.0168153	-0.0681475	0.166892	0.059521	-0.459756	0.178502	0.381813	
0.683364	2.33612	0	0	-5.41974	0.984818	-0.726808	-0.181059	0	0	-0.587149	0.543478	0	0	-0.486014	0.692348	-0.550221	0.092078	-0.715335	-0.035039	-0.06351	-0.41175	-0.049278	0.448619	-0.268646	-0.032293	-0.013939	0.487687	-0.295467	-0.020427	-0.066392	0.171815	0.059521	-0.459756	0.183409	0.381576	
0.682845	2.33307	0	0	-5.41974	0.984818	-0.726263	-0.193946	0	0	-0.586711	0.532282	0	0	-0.487741	0.682558	-0.552703	0.0795787	-0.71644	-0.0534608	-0.0750562	-0.40193	-0.0552207	0.452502	-0.283211	-0.017891	-0.0268883	0.506997	-0.300582	-0.0059705	-0.0766563	0.200823	0.0539842	-0.444109	0.1984	0.407509	
0.681216	2.33307	0	0	-5.41974	0.984818	-0.725718	-0.206834	0	0	-0.586272	0.521085	0	0	-0.489469	0.672769	-0.555184	0.0670795	-0.717545	-0.0718825	-0.0866025	-0.392111	-0.0611635	0.456385	-0.297776	-0.003489	-0.0398375	0.526308	-0.305698	0.008486	-0.0869205	0.229831	0.0484475	-0.428462	0.213392	0.433442	
0.678041	2.32544	0	0	-5.41974	0.984818	-0.725172	-0.219721	0	0	-0.585834	0.509888	0	0	-0.491196	0.66298	-0.557666	0.0545802	-0.71865	-0.0903043	-0.0981488	-0.382291	-0.0671063	0.460269	-0.312341	0.010913	-0.0527868	0.545619	-0.310814	0.0229425	-0.0971848	0.25884	0.0429107	-0.412815	0.228384	0.459374	
0.673617	2.32086	0	0	-5.41974	0.984818	-0.724627	-0.232608	0	0	-0.585395	0.498692	0	0	-0.492924	0.65319	-0.560148	0.042081	-0.719755	-0.108726	-0.109695	-0.372471	-0.073049	0.464152	-0.326906	0.025315	-0.065736	0.564929	-0.315929	0.037399	-0.107449	0.287848	0.037374	-0.397168	0.243375	0.485307	
0.668877	2.32086	0	0	-3.8568	-0.036442	-0.728694	-0.232454	0	0	-0.584392	0.495856	0	0	-0.489578	0.643735	-0.561854	0.0371527	-0.719685	-0.119687	-0.105508	-0.384304	-0.074628	0.455711	-0.323534	0.0157858	-0.0703547	0.560712	-0.31337	0.0301678	-0.110009	0.27532	0.0273527	-0.402649	0.234102	0.470502	
0.664775	2.31476	0	0	-2.29385	-1.0577	-0.732761	-0.2323	0	0	-0.583388	0.49302	0	0	-0.486232	0.634279	-0.563559	0.0322245	-0.719615	-0.130649	-0.101321	-0.396136	-0.076207	0.447271	-0.320163	0.0062565	-0.0749735	0.556496	-0.310812	0.0229365	-0.112569	0.262793	0.0173315	-0.408131	0.22483	0.455696	
0.662266	2.31323	0	0	-0.730911	-2.07896	-0.736828	-0.232146	0	0	-0.582385	0.490185	0	0	-0.482887	0.624823	-0.565265	0.0272963	-0.719545	-0.14161	-0.097134	-0.407968	-0.077786	0.438831	-0.316791	-0.00327275	-0.0795923	0.552279	-0.308253	0.0157053	-0.115128	0.250266	0.00731025	-0.413612	0.215558	0.44089	
0.6623	2.31781	0	0	0.832032	-3.10022	-0.740895	-0.231992	0	0	-0.581382	0.487349	0	0	-0.479541	0.615368	-0.566971	0.022368	-0.719475	-0.152571	-0.092947	-0.419801	-0.079365	0.43039	-0.313419	-0.012802	-0.084211	0.548062	-0.305694	0.008474	-0.117688	0.237738	-0.002711	-0.419093	0.206285	0.426085	
0.665134	2.31171	0	0	-0.730911	-2.07896	-0.730993	-0.225936	0	0	-0.580814	0.495702	0	0	-0.482887	0.624823	-0.559848	0.021742	-0.721986	-0.145475	-0.0939933	-0.416844	-0.077913	0.426287	-0.308386	-0.0136492	-0.0858755	0.552766	-0.314114	0.0167547	-0.116755	0.235102	0.007829	-0.431987	0.209023	0.418346	
0.66971	2.30713	0	0	-2.29385	-1.0577	-0.721091	-0.219879	0	0	-0.580246	0.504055	0	0	-0.486232	0.634279	-0.552726	0.021116	-0.724496	-0.138379	-0.0950395	-0.413887	-0.076461	0.422183	-0.303353	-0.0144965	-0.08754	0.55747	-0.322534	0.0250355	-0.115823	0.232467	0.018369	-0.444881	0.211761	0.410608	
0.674822	2.30865	0	0	-3.8568	-0.036442	-0.71119	-0.213822	0	0	-0.579679	0.512408	0	0	-0.489578	0.643735	-0.545604	0.02049	-0.727007	-0.131282	-0.0960857	-0.410931	-0.075009	0.41808	-0.298321	-0.0153437	-0.0892045	0.562174	-0.330953	0.0333162	-0.114891	0.229831	0.028909	-0.457774	0.2145	0.402869	
0.67926	2.31018	0	0	-5.41974	0.984818	-0.701288	-0.207766	0	0	-0.579111	0.520761	0	0	-0.492924	0.65319	-0.538481	0.019864	-0.729518	-0.124186	-0.097132	-0.407974	-0.073557	0.413977	-0.293288	-0.016191	-0.090869	0.566878	-0.339373	0.041597	-0.113958	0.227195	0.039449	-0.470668	0.217238	0.39513	
0.68182	2.30713	0	0	-5.41974	0.984818	-0.711736	-0.200939	0	0	-0.586266	0.521073	0	0	-0.491196	0.66298	-0.542192	0.030352	-0.728334	-0.116768	-0.0887265	-0.408918	-0.071976	0.422412	-0.291626	-0.007504	-0.0816313	0.575327	-0.334792	0.0441653	-0.110462	0.237077	0.0494895	-0.46521	0.215303	0.414258	
0.681517	2.30408	0	0	-5.41974	0.984818	-0.722184	-0.194112	0	0	-0.593422	0.521386	0	0	-0.489469	0.672769	-0.545903	0.04084	-0.727151	-0.10935	-0.080321	-0.409862	-0.070395	0.430847	-0.289963	0.001183	-0.0723935	0.583776	-0.330211	0.0467335	-0.106966	0.246959	0.05953	-0.459751	0.213368	0.433387	
0.679031	2.30865	0	0	-5.41974	0.984818	-0.732632	-0.187285	0	0	-0.600577	0.521698	0	0	-0.487741	0.682558	-0.549615	0.051328	-0.725967	-0.101932	-0.0719155	-0.410806	-0.068814	0.439281	-0.288301	0.00987	-0.0631558	0.592224	-0.32563	0.0493017	-0.10347	0.256841	0.0695705	-0.454293	0.211434	0.452516	
0.675785	2.30408	0	0	-5.41974	0.984818	-0.74308	-0.180458	0	0	-0.607732	0.52201	0	0	-0.486014	0.692348	-0.553326	0.061816	-0.724784	-0.094514	-0.06351	-0.41175	-0.067233	0.447716	-0.286639	0.018557	-0.053918	0.600673	-0.321049	0.05187	-0.099974	0.266723	0.079611	-0.448835	0.209499	0.471644	
0.673206	2.30255	0	0	-5.41974	0.984818	-0.743686	-0.190085	0	0	-0.610869	0.510986	0	0	-0.484396	0.673103	-0.557664	0.0545733	-0.728407	-0.105793	-0.0708692	-0.413763	-0.068814	0.439281	-0.296706	0.0202465	-0.064821	0.596931	-0.323611	0.05911	-0.103841	0.287539	0.0726828	-0.429255	0.209714	0.498387	
0.67272	2.30102	0	0	-5.41974	0.984818	-0.744292	-0.199713	0	0	-0.614005	0.499961	0	0	-0.482777	0.653858	-0.562002	0.0473305	-0.732031	-0.117072	-0.0782285	-0.415775	-0.070395	0.430847	-0.306773	0.021936	-0.075724	0.593189	-0.326172	0.06635	-0.107707	0.308356	0.0657545	-0.409674	0.209928	0.525131	
0.675722	2.30102	0	0	-5.41974	0.984818	-0.744898	-0.20934	0	0	-0.617142	0.488937	0	0	-0.481159	0.634613	-0.566341	0.0400877	-0.735654	-0.128352	-0.0855878	-0.417788	-0.071976	0.422412	-0.316839	0.0236255	-0.086627	0.589446	-0.328734	0.07359	-0.111573	0.329172	0.0588262	-0.390094	0.210143	0.551874	
0.682403	2.2995	0	0	-5.41974	0.984818	-0.745504	-0.218967	0	0	-0.620278	0.477913	0	0	-0.479541	0.615368	-0.570679	0.032845	-0.739278	-0.139631	-0.092947	-0.419801	-0.073557	0.413977	-0.326906	0.025315	-0.09753	0.585704	-0.331296	0.08083	-0.11544	0.349988	0.051898	-0.370514	0.210358	0.578617	
0.691423	2.2995	0	0	-5.41974	0.984818	-0.752477	-0.221918	0	0	-0.620846	0.469583	0	0	-0.479607	0.600896	-0.565122	0.0171405	-0.734262	-0.153807	-0.0950763	-0.436567	-0.0796213	0.405336	-0.326318	0.0102863	-0.0971532	0.567385	-0.339171	0.072069	-0.119735	0.332476	0.0524205	-0.388916	0.206599	0.54823	
0.701343	2.29034	0	0	-5.41974	0.984818	-0.759451	-0.224869	0	0	-0.621414	0.461252	0	0	-0.479674	0.586425	-0.559565	0.001436	-0.729247	-0.167982	-0.0972055	-0.453334	-0.0856855	0.396695	-0.32573	-0.0047425	-0.0967765	0.549067	-0.347046	0.063308	-0.12403	0.314963	0.052943	-0.407317	0.20284	0.517842	
0.710726	2.29034	0	0	-5.41974	0.984818	-0.766424	-0.22782	0	0	-0.621983	0.452921	0	0	-0.479741	0.571953	-0.554008	-0.0142685	-0.724231	-0.182157	-0.0993347	-0.4701	-0.0917497	0.388054	-0.325141	-0.0197713	-0.0963998	0.530748	-0.354921	0.054547	-0.128325	0.297451	0.0534655	-0.425718	0.199082	0.487455	
0.718132	2.28882	0	0	-5.41974	0.984818	-0.773397	-0.230771	0	0	-0.622551	0.444591	0	0	-0.479807	0.557481	-0.548451	-0.029973	-0.719215	-0.196333	-0.101464	-0.486866	-0.097814	0.379413	-0.324553	-0.0348	-0.096023	0.512429	-0.362796	0.045786	-0.13262	0.279938	0.053988	-0.44412	0.195323	0.457067	
0.722223	2.28577	0	0	-5.41974	0.984818	-0.765271	-0.231076	0	0	-0.618978	0.444431	0	0	-0.481476	0.562197	-0.550302	-0.0247412	-0.716771	-0.192483	-0.104617	-0.489338	-0.097814	0.379413	-0.323431	-0.037971	-0.097685	0.517126	-0.358962	0.03495	-0.130753	0.274661	0.0517348	-0.454661	0.197255	0.437956	
0.722913	2.28577	0	0	-5.41974	0.984818	-0.757146	-0.231382	0	0	-0.615406	0.444272	0	0	-0.483145	0.566914	-0.552153	-0.0195095	-0.714327	-0.188633	-0.107769	-0.49181	-0.097814	0.379413	-0.322309	-0.041142	-0.099347	0.521822	-0.355128	0.024114	-0.128886	0.269385	0.0494815	-0.465203	0.199188	0.418845	
0.720962	2.28119	0	0	-5.41974	0.984818	-0.74902	-0.231687	0	0	-0.611834	0.444112	0	0	-0.484814	0.57163	-0.554005	-0.0142777	-0.711883	-0.184783	-0.110921	-0.494281	-0.097814	0.379413	-0.321187	-0.044313	-0.101009	0.526519	-0.351293	0.013278	-0.127019	0.264108	0.0472282	-0.475744	0.20112	0.399733	
0.717148	2.27814	0	0	-5.41974	0.984818	-0.740895	-0.231992	0	0	-0.608261	0.443952	0	0	-0.486483	0.576346	-0.555856	-0.009046	-0.709439	-0.180933	-0.114074	-0.496753	-0.097814	0.379413	-0.320065	-0.047484	-0.102671	0.531215	-0.347459	0.002442	-0.125152	0.258831	0.044975	-0.486285	0.203052	0.380622	
0.712249	2.27661	0	0	-5.41974	0.984818	-0.753079	-0.231536	0	0	-0.615973	0.435955	0	0	-0.494841	0.599966	-0.555075	-0.00150525	-0.714459	-0.166746	-0.107767	-0.491807	-0.0976845	0.391932	-0.312247	-0.0428362	-0.0967708	0.549064	-0.348737	0.0060525	-0.115362	0.270707	0.0486115	-0.479653	0.206036	0.399501	
0.707041	2.27203	0	0	-5.41974	0.984818	-0.765263	-0.231079	0	0	-0.623686	0.427958	0	0	-0.503198	0.623586	-0.554293	0.0060355	-0.719479	-0.15256	-0.10146	-0.486862	-0.097555	0.40445	-0.30443	-0.0381885	-0.0908705	0.566913	-0.350014	0.009663	-0.105572	0.282584	0.052248	-0.473021	0.209019	0.418379	
0.702162	2.26898	0	0	-5.41974	0.984818	-0.777448	-0.230623	0	0	-0.631398	0.419961	0	0	-0.511555	0.647205	-0.553512	0.0135763	-0.724498	-0.138373	-0.0951537	-0.481916	-0.0974255	0.416969	-0.296612	-0.0335407	-0.0849702	0.584762	-0.351292	0.0132735	-0.095782	0.294461	0.0558845	-0.466388	0.212003	0.437257	
0.697678	2.26745	0	0	-5.41974	0.984818	-0.789632	-0.230166	0	0	-0.63911	0.411964	0	0	-0.519913	0.670825	-0.552731	0.021117	-0.729518	-0.124186	-0.088847	-0.47697	-0.097296	0.429488	-0.288794	-0.028893	-0.07907	0.602611	-0.352569	0.016884	-0.085992	0.306337	0.059521	-0.459756	0.214986	0.456136	
0.693509	2.27051	0	0	-5.41974	0.984818	-0.790239	-0.239764	0	0	-0.642251	0.401004	0	0	-0.523309	0.665775	-0.556291	0.0214298	-0.724564	-0.127423	-0.087831	-0.491229	-0.0929442	0.41719	-0.294369	-0.039879	-0.0820198	0.593678	-0.359698	0.0215422	-0.103391	0.325843	0.0503552	-0.450762	0.191425	0.495412	
0.689572	2.26593	0	0	-5.41974	0.984818	-0.790845	-0.249361	0	0	-0.645391	0.390045	0	0	-0.526706	0.660725	-0.559851	0.0217425	-0.71961	-0.13066	-0.086815	-0.505489	-0.0885925	0.404891	-0.299944	-0.050865	-0.0849695	0.584745	-0.366827	0.0262005	-0.12079	0.345349	0.0411895	-0.441767	0.167864	0.534689	
0.685787	2.2644	0	0	-5.41974	0.984818	-0.791452	-0.258959	0	0	-0.648532	0.379086	0	0	-0.530102	0.655675	-0.563411	0.0220552	-0.714657	-0.133897	-0.085799	-0.519749	-0.0842408	0.392593	-0.305519	-0.061851	-0.0879193	0.575811	-0.373956	0.0308588	-0.138189	0.364856	0.0320237	-0.432773	0.144304	0.573965	
0.682086	2.26135	0	0	-5.41974	0.984818	-0.792059	-0.268556	0	0	-0.651673	0.368126	0	0	-0.533498	0.650625	-0.566971	0.022368	-0.709703	-0.137134	-0.084783	-0.534008	-0.079889	0.380295	-0.311094	-0.072837	-0.090869	0.566878	-0.381085	0.035517	-0.155588	0.384362	0.022858	-0.423779	0.120743	0.613241	
0.678696	2.26135	0	0	-5.41974	0.984818	-0.797262	-0.265156	0	0	-0.65267	0.370945	0	0	-0.528428	0.650946	-0.562484	0.019436	-0.708516	-0.129718	-0.0868972	-0.539414	-0.079889	0.380295	-0.309973	-0.0760042	-0.081256	0.55698	-0.377254	0.0246897	-0.155454	0.374104	0.0270057	-0.435501	0.127617	0.593814	
0.676119	2.25983	0	0	-5.41974	0.984818	-0.802466	-0.261756	0	0	-0.653667	0.373764	0	0	-0.523359	0.651267	-0.557997	0.016504	-0.70733	-0.122302	-0.0890115	-0.544821	-0.079889	0.380295	-0.308852	-0.0791715	-0.071643	0.547082	-0.373423	0.0138625	-0.155319	0.363846	0.0311535	-0.447223	0.134491	0.574387	
0.674868	2.2644	0	0	-5.41974	0.984818	-0.807669	-0.258356	0	0	-0.654665	0.376582	0	0	-0.51829	0.651588	-0.55351	0.013572	-0.706143	-0.114885	-0.0911258	-0.550227	-0.079889	0.380295	-0.307732	-0.0823388	-0.06203	0.537185	-0.369592	0.00303525	-0.155185	0.353589	0.0353012	-0.458946	0.141365	0.55496	
0.675457	2.2644	0	0	-5.41974	0.984818	-0.812872	-0.254956	0	0	-0.655662	0.379401	0	0	-0.51322	0.651909	-0.549023	0.01064	-0.704957	-0.107469	-0.09324	-0.555633	-0.079889	0.380295	-0.306611	-0.085506	-0.052417	0.527287	-0.365761	-0.007792	-0.155051	0.343331	0.039449	-0.470668	0.148239	0.535533	
0.678399	2.26593	0	0	-5.41974	0.984818	-0.815171	-0.248459	0	0	-0.666777	0.391	0	0	-0.508095	0.666758	-0.545607	0.020499	-0.701329	-0.0961657	-0.0900843	-0.553171	-0.076855	0.384614	-0.296545	-0.0872122	-0.057413	0.541406	-0.357356	-0.0160563	-0.15144	0.343004	0.0472315	-0.475753	0.159435	0.531202	
0.684002	2.26288	0	0	-5.41974	0.984818	-0.81747	-0.241961	0	0	-0.677893	0.402598	0	0	-0.50297	0.681607	-0.542191	0.030358	-0.6977	-0.0848625	-0.0869285	-0.550709	-0.073821	0.388933	-0.286479	-0.0889185	-0.062409	0.555526	-0.348951	-0.0243205	-0.14783	0.342678	0.055014	-0.480839	0.170631	0.526871	
0.691956	2.27051	0	0	-5.41974	0.984818	-0.819769	-0.235464	0	0	-0.689008	0.414197	0	0	-0.497846	0.696455	-0.538775	0.040217	-0.694072	-0.0735592	-0.0837727	-0.548246	-0.070787	0.393253	-0.276413	-0.0906248	-0.067405	0.569646	-0.340546	-0.0325848	-0.144219	0.342352	0.0627965	-0.485924	0.181827	0.522539	
0.701834	2.27051	0	0	-5.41974	0.984818	-0.822068	-0.228967	0	0	-0.700123	0.425796	0	0	-0.492721	0.711304	-0.535359	0.050076	-0.690444	-0.062256	-0.080617	-0.545784	-0.067753	0.397572	-0.266347	-0.092331	-0.072401	0.583765	-0.332141	-0.040849	-0.140608	0.342025	0.070579	-0.49101	0.193023	0.518208	
0.713211	2.27356	0	0	-5.41974	0.984818	-0.825573	-0.241651	0	0	-0.701258	0.409211	0	0	-0.491098	0.692047	-0.535213	0.0399028	-0.691629	-0.0696895	-0.0858552	-0.542361	-0.0751387	0.405551	-0.278655	-0.0842887	-0.0740683	0.588476	-0.333417	-0.0372428	-0.139804	0.349637	0.069197	-0.487104	0.208586	0.528967	
0.725661	2.27508	0	5	-5.41974	0.984818	-0.829079	-0.254335	0	0	-0.702394	0.392626	0	0	-0.489476	0.672789	-0.535066	0.0297295	-0.692813	-0.077123	-0.0910935	-0.538938	-0.0825245	0.41353	-0.290963	-0.0762465	-0.0757355	0.593188	-0.334693	-0.0336365	-0.139	0.357249	0.067815	-0.483198	0.224148	0.539726	
0.738756	2.27661	0	5	-5.41974	0.984818	-0.832584	-0.267019	0	0	-0.703529	0.37604	0	0	-0.487854	0.653532	-0.534919	0.0195563	-0.693998	-0.0845565	-0.0963317	-0.535516	-0.0899102	0.421509	-0.303271	-0.0682042	-0.0774027	0.5979	-0.335969	-0.0300303	-0.138197	0.364861	0.066433	-0.479292	0.239711	0.550484	
0.75201	2.27508	0	5	-5.41974	0.984818	-0.836089	-0.279703	0	0	-0.704664	0.359455	0	0	-0.486231	0.634274	-0.534773	0.009383	-0.695183	-0.09199	-0.10157	-0.532093	-0.097296	0.429488	-0.315579	-0.060162	-0.07907	0.602611	-0.337245	-0.026424	-0.137393	0.372473	0.065051	-0.475386	0.255273	0.561243	
0.7648	2.27661	0	5	-5.41974	0.984818	-0.835551	-0.292508	0	0	-0.70879	0.351344	0	0	-0.494706	0.628916	-0.533706	-0.00338775	-0.695113	-0.102965	-0.104755	-0.545835	-0.101903	0.416748	-0.317244	-0.0688128	-0.0866328	0.589461	-0.336726	-0.043381	-0.137944	0.344395	0.0605322	-0.496419	0.249313	0.523346	
0.776488	2.27203	0	5	-5.41974	0.984818	-0.835013	-0.305314	0	0	-0.712916	0.343233	0	0	-0.503181	0.623559	-0.532638	-0.0161585	-0.695043	-0.113939	-0.107939	-0.559576	-0.10651	0.404007	-0.318909	-0.0774635	-0.0941955	0.576311	-0.336207	-0.060338	-0.138494	0.316317	0.0560135	-0.517451	0.243354	0.485448	
0.786434	2.27051	0	5	-5.41974	0.984818	-0.834475	-0.318119	0	0	-0.717043	0.335122	0	0	-0.511655	0.618202	-0.53157	-0.0289293	-0.694972	-0.124914	-0.111124	-0.573318	-0.111118	0.391267	-0.320574	-0.0861143	-0.101758	0.563162	-0.335687	-0.077295	-0.139045	0.288238	0.0514947	-0.538484	0.237394	0.447551	
0.793999	2.27203	0	5	-5.41974	0.984818	-0.833937	-0.330924	0	0	-0.721169	0.327011	0	0	-0.52013	0.612844	-0.530503	-0.0417	-0.694902	-0.135888	-0.114309	-0.587059	-0.115725	0.378527	-0.322239	-0.094765	-0.109321	0.550012	-0.335168	-0.094252	-0.139596	0.26016	0.046976	-0.559517	0.231434	0.409653	
0.798543	2.2644	0	5	-5.41974	0.984818	-0.831647	-0.337396	0	0	-0.715626	0.32123	0	0	-0.52013	0.612844	-0.526804	-0.0521545	-0.696091	-0.143296	-0.114346	-0.598314	-0.114415	0.361956	-0.317763	-0.107414	-0.105996	0.540616	-0.338474	-0.100386	-0.138431	0.237137	0.0488355	-0.581651	0.22489	0.387196	
0.799563	2.26288	0	5	-5.41974	0.984818	-0.829357	-0.343867	0	0	-0.710083	0.315449	0	0	-0.52013	0.612844	-0.523105	-0.062609	-0.697281	-0.150703	-0.114383	-0.609569	-0.113104	0.345385	-0.313287	-0.120064	-0.102672	0.53122	-0.34178	-0.106519	-0.137266	0.214114	0.050695	-0.603784	0.218346	0.364739	
0.797489	2.2644	0	5	-5.41974	0.984818	-0.827067	-0.350338	0	0	-0.704541	0.309667	0	0	-0.52013	0.612844	-0.519406	-0.0730635	-0.69847	-0.15811	-0.114421	-0.620824	-0.111794	0.328814	-0.308811	-0.132713	-0.0993475	0.521825	-0.345085	-0.112653	-0.136101	0.19109	0.0525545	-0.625918	0.211802	0.342283	
0.79316	2.25983	0	5	-5.41974	0.984818	-0.824777	-0.35681	0	0	-0.698998	0.303886	0	0	-0.52013	0.612844	-0.515707	-0.083518	-0.69966	-0.165518	-0.114458	-0.632079	-0.110484	0.312243	-0.304335	-0.145363	-0.096023	0.512429	-0.348391	-0.118786	-0.134936	0.168067	0.054414	-0.648051	0.205258	0.319826	
0.787411	2.25372	0	5	-5.24889	0.501966	-0.834623	-0.362799	0	0	-0.710231	0.296129	0	0	-0.526867	0.617246	-0.528237	-0.0773385	-0.707056	-0.166137	-0.117572	-0.623279	-0.114957	0.312028	-0.302664	-0.13673	-0.09307	0.521337	-0.343812	-0.11625	-0.125964	0.172315	0.0502912	-0.6364	0.212356	0.327056	
0.78108	2.25677	0	5	-5.07804	0.0191145	-0.844468	-0.368789	0	0	-0.721464	0.288373	0	0	-0.533604	0.621648	-0.540767	-0.071159	-0.714452	-0.166756	-0.120686	-0.614479	-0.119431	0.311812	-0.300992	-0.128098	-0.090117	0.530246	-0.339233	-0.113713	-0.116992	0.176563	0.0461685	-0.624749	0.219454	0.334286	
0.775005	2.25372	0	5	-4.90719	-0.463737	-0.854313	-0.374778	0	0	-0.732697	0.280616	0	0	-0.54034	0.626049	-0.553296	-0.0649795	-0.721847	-0.167374	-0.123799	-0.605679	-0.123905	0.311596	-0.299321	-0.119465	-0.087164	0.539154	-0.334655	-0.111177	-0.10802	0.18081	0.0420457	-0.613098	0.226552	0.341517	
0.769969	2.26288	0	5	-4.73633	-0.946589	-0.864159	-0.380767	0	0	-0.74393	0.272859	0	0	-0.547077	0.630451	-0.565826	-0.0588	-0.729243	-0.167993	-0.126913	-0.596879	-0.128378	0.311381	-0.29765	-0.110832	-0.084211	0.548062	-0.330076	-0.108641	-0.099048	0.185058	0.037923	-0.601447	0.23365	0.348747	
0.766043	2.28271	0	5	-4.73633	-0.946589	-0.868198	-0.38061	0	0	-0.742938	0.270057	0	0	-0.55047	0.625414	-0.564767	-0.0715265	-0.727927	-0.182462	-0.125914	-0.611056	-0.132989	0.298722	-0.298204	-0.122624	-0.085503	0.53446	-0.334655	-0.111177	-0.0988342	0.164713	0.046163	-0.624734	0.227094	0.326356	
0.762797	2.30713	0	5	-4.73633	-0.946589	-0.872237	-0.380452	0	0	-0.741947	0.267255	0	0	-0.553863	0.620378	-0.563708	-0.084253	-0.726611	-0.196931	-0.124915	-0.625233	-0.1376	0.286064	-0.298757	-0.134417	-0.086795	0.520857	-0.339233	-0.113713	-0.0986205	0.144368	0.054403	-0.648021	0.220537	0.303966	
0.759787	2.35138	0	5	-4.73633	-0.946589	-0.876276	-0.380294	0	0	-0.740955	0.264454	0	0	-0.557255	0.615341	-0.562649	-0.0969795	-0.725296	-0.211399	-0.123916	-0.639409	-0.142211	0.273405	-0.299311	-0.146209	-0.088087	0.507255	-0.343812	-0.11625	-0.0984068	0.124022	0.062643	-0.671308	0.21398	0.281575	
0.756573	2.40784	0	5	-4.73633	-0.946589	-0.880315	-0.380137	0	0	-0.739964	0.261652	0	0	-0.560648	0.610304	-0.56159	-0.109706	-0.72398	-0.225868	-0.122917	-0.653586	-0.146822	0.260746	-0.299864	-0.158002	-0.089379	0.493653	-0.348391	-0.118786	-0.098193	0.103677	0.070883	-0.694595	0.207424	0.259185	
0.75271	2.47345	0	5	-4.73633	-0.946589	-0.874521	-0.373991	0	0	-0.740382	0.272702	0	0	-0.553917	0.605905	-0.560668	-0.112312	-0.725173	-0.233241	-0.121881	-0.656515	-0.143942	0.252605	-0.299864	-0.158002	-0.0860598	0.484272	-0.34254	-0.119846	-0.0991218	0.106302	0.069511	-0.690718	0.210146	0.251493	
0.747797	2.54211	0	5	-4.73633	-0.946589	-0.868726	-0.367845	0	0	-0.7408	0.283752	0	0	-0.547185	0.601507	-0.559746	-0.114919	-0.726366	-0.240614	-0.120844	-0.659444	-0.141061	0.244464	-0.299864	-0.158002	-0.0827405	0.474891	-0.336689	-0.120905	-0.100051	0.108927	0.068139	-0.686841	0.212867	0.243801	
0.741955	2.62146	0	5	-4.73633	-0.946589	-0.862932	-0.361698	0	0	-0.741219	0.294802	0	0	-0.540454	0.597108	-0.558824	-0.117526	-0.727559	-0.247987	-0.119808	-0.662372	-0.138181	0.236324	-0.299864	-0.158002	-0.0794212	0.46551	-0.330838	-0.121965	-0.100979	0.111551	0.066767	-0.682964	0.215589	0.236109	
0.735689	2.70538	0	5	-4.73633	-0.946589	-0.857138	-0.355552	0	0	-0.741637	0.305852	0	0	-0.533722	0.59271	-0.557902	-0.120132	-0.728752	-0.25536	-0.118772	-0.665301	-0.1353	0.228183	-0.299864	-0.158002	-0.076102	0.456129	-0.324987	-0.123025	-0.101908	0.114176	0.065395	-0.679087	0.218311	0.228417	
0.72951	2.77557	0	5	-4.73633	-0.946589	-0.86179	-0.364925	0	0	-0.740228	0.292001	0	0	-0.538849	0.577958	-0.56488	-0.129582	-0.736079	-0.266848	-0.119808	-0.662372	-0.141206	0.232042	-0.299864	-0.158002	-0.0873552	0.470694	-0.3255	-0.106086	-0.0985098	0.134191	0.0571517	-0.65579	0.2298	0.25053	
0.723932	2.82745	0	5	-4.73633	-0.946589	-0.866443	-0.374298	0	0	-0.738819	0.27815	0	0	-0.543975	0.563207	-0.571858	-0.139033	-0.743407	-0.278336	-0.120844	-0.659444	-0.147112	0.235901	-0.299864	-0.158002	-0.0986085	0.485259	-0.326013	-0.0891465	-0.0951115	0.154206	0.0489085	-0.632493	0.241288	0.272642	
0.719465	2.86407	0	5	-4.73633	-0.946589	-0.871096	-0.383672	0	0	-0.737409	0.264299	0	0	-0.549102	0.548455	-0.578835	-0.148483	-0.750734	-0.289825	-0.121881	-0.656515	-0.153018	0.23976	-0.299864	-0.158002	-0.109862	0.499824	-0.326526	-0.0722073	-0.0917132	0.174222	0.0406653	-0.609196	0.252777	0.294755	
0.716522	2.89764	0	5	-4.73633	-0.946589	-0.875748	-0.393045	0	0	-0.736	0.250448	0	0	-0.554228	0.533704	-0.585813	-0.157933	-0.758062	-0.301313	-0.122917	-0.653586	-0.158924	0.243619	-0.299864	-0.158002	-0.121115	0.514389	-0.327039	-0.055268	-0.088315	0.194237	0.032422	-0.585899	0.264265	0.316867	
0.714919	2.92053	0	5	-4.90719	-0.463737	-0.868284	-0.402881	0	0	-0.738558	0.247815	0	0	-0.561015	0.523692	-0.584767	-0.170602	-0.762943	-0.308953	-0.127146	-0.66432	-0.159073	0.231216	-0.307677	-0.162604	-0.122406	0.500816	-0.32449	-0.0624727	-0.0918193	0.184389	0.0365463	-0.597555	0.251416	0.2986	
0.714258	2.93732	0	5	-5.07804	0.0191145	-0.86082	-0.412716	0	0	-0.741116	0.245182	0	0	-0.567802	0.51368	-0.583722	-0.183271	-0.767823	-0.316593	-0.131376	-0.675055	-0.159221	0.218813	-0.315491	-0.167207	-0.123698	0.487244	-0.321941	-0.0696775	-0.0953235	0.174542	0.0406705	-0.609211	0.238567	0.280332	
0.714139	2.95105	0	5	-5.24889	0.501966	-0.853357	-0.422552	0	0	-0.743675	0.242549	0	0	-0.57459	0.503669	-0.582676	-0.19594	-0.772703	-0.324234	-0.135605	-0.685789	-0.159369	0.206409	-0.323304	-0.171809	-0.124989	0.473671	-0.319391	-0.0768822	-0.0988278	0.164694	0.0447947	-0.620867	0.225718	0.262065	
0.714163	2.9602	0	5	-5.41974	0.984818	-0.845893	-0.432388	0	0	-0.746233	0.239916	0	0	-0.581377	0.493657	-0.58163	-0.208609	-0.777584	-0.331874	-0.139834	-0.696523	-0.159518	0.194006	-0.331117	-0.176411	-0.12628	0.460099	-0.316842	-0.084087	-0.102332	0.154846	0.048919	-0.632523	0.212869	0.243798	
0.713929	2.95715	0	5	-5.24889	0.501966	-0.844133	-0.426098	0	0	-0.747223	0.242715	0	0	-0.579717	0.488965	-0.580712	-0.211204	-0.771408	-0.338614	-0.136733	-0.705288	-0.158081	0.189946	-0.32777	-0.18587	-0.122968	0.450738	-0.323971	-0.079429	-0.105944	0.155185	0.034777	-0.626267	0.212039	0.232523	
0.7132	2.97241	0	5	-5.07804	0.0191145	-0.842372	-0.419809	0	0	-0.748214	0.245514	0	0	-0.578057	0.484274	-0.579793	-0.2138	-0.765232	-0.345354	-0.133631	-0.714054	-0.156645	0.185886	-0.324423	-0.195329	-0.119655	0.441376	-0.331099	-0.074771	-0.109556	0.155525	0.020635	-0.620011	0.211209	0.221248	
0.712136	2.96478	0	5	-4.90719	-0.463737	-0.840612	-0.413519	0	0	-0.749204	0.248314	0	0	-0.576397	0.479582	-0.578874	-0.216395	-0.759057	-0.352094	-0.13053	-0.72282	-0.155208	0.181825	-0.321077	-0.204787	-0.116343	0.432015	-0.338228	-0.070113	-0.113167	0.155864	0.006493	-0.613754	0.210379	0.209973	
0.710962	2.95868	0	5	-4.73633	-0.946589	-0.838852	-0.40723	0	0	-0.750194	0.251113	0	0	-0.574737	0.47489	-0.577956	-0.218991	-0.752881	-0.358834	-0.127428	-0.731585	-0.153772	0.177765	-0.31773	-0.214246	-0.11303	0.422654	-0.345357	-0.065455	-0.116779	0.156203	-0.007649	-0.607498	0.209549	0.198698	
0.709899	2.93884	0	5	-4.90719	-0.463737	-0.842373	-0.419801	0	0	-0.751351	0.234672	0	0	-0.57316	0.455853	-0.585849	-0.225795	-0.763934	-0.359719	-0.132644	-0.728177	-0.155208	0.181825	-0.322749	-0.213388	-0.122605	0.432508	-0.347907	-0.05825	-0.111415	0.160785	-0.00126825	-0.608683	0.205471	0.210224	
0.709171	2.92206	0	5	-5.07804	0.0191145	-0.845894	-0.432372	0	0	-0.752507	0.218231	0	0	-0.571583	0.436817	-0.593742	-0.232599	-0.774987	-0.360605	-0.13786	-0.724769	-0.156645	0.185886	-0.327769	-0.212531	-0.13218	0.442361	-0.350456	-0.051045	-0.106051	0.165367	0.0051125	-0.609868	0.201393	0.221749	
0.708988	2.90527	0	5	-5.24889	0.501966	-0.849415	-0.444943	0	0	-0.753664	0.20179	0	0	-0.570006	0.41778	-0.601634	-0.239403	-0.786039	-0.36149	-0.143075	-0.72136	-0.158081	0.189946	-0.332788	-0.211674	-0.141755	0.452215	-0.353006	-0.04384	-0.100687	0.169949	0.0114932	-0.611052	0.197314	0.233275	
0.709237	2.88391	0	5	-5.41974	0.984818	-0.852936	-0.457514	0	0	-0.754821	0.185349	0	0	-0.568429	0.398744	-0.609527	-0.246207	-0.797092	-0.362376	-0.148291	-0.717952	-0.159518	0.194006	-0.337807	-0.210816	-0.15133	0.462069	-0.355555	-0.036635	-0.095323	0.174531	0.017874	-0.612237	0.193236	0.244801	
0.709476	2.86255	0	5	-5.24889	0.501966	-0.854697	-0.463787	0	0	-0.756973	0.171743	0	0	-0.581914	0.393184	-0.612037	-0.258496	-0.800725	-0.373494	-0.145248	-0.737878	-0.164133	0.181428	-0.336144	-0.228834	-0.14932	0.439199	-0.355036	-0.0535783	-0.107795	0.160464	0.0028645	-0.620317	0.179596	0.215398	
0.709245	2.84729	0	5	-5.07804	0.0191145	-0.856459	-0.470059	0	0	-0.759126	0.158138	0	0	-0.595399	0.387624	-0.614546	-0.270784	-0.804358	-0.384611	-0.142205	-0.757805	-0.168747	0.16885	-0.334481	-0.246853	-0.147311	0.41633	-0.354517	-0.0705215	-0.120266	0.146397	-0.012145	-0.628397	0.165955	0.185996	
0.708085	2.82745	0	5	-4.90719	-0.463737	-0.858221	-0.476332	0	0	-0.761278	0.144533	0	0	-0.608885	0.382065	-0.617056	-0.283073	-0.80799	-0.395729	-0.139162	-0.777732	-0.173362	0.156272	-0.332818	-0.264871	-0.145301	0.39346	-0.353997	-0.0874648	-0.132738	0.13233	-0.0271545	-0.636477	0.152315	0.156593	
0.705538	2.81067	0	5	-4.73633	-0.946589	-0.859982	-0.482605	0	0	-0.763431	0.130927	0	0	-0.62237	0.376505	-0.619566	-0.295362	-0.811623	-0.406847	-0.136119	-0.797658	-0.177977	0.143694	-0.331155	-0.282889	-0.143291	0.37059	-0.353478	-0.104408	-0.145209	0.118263	-0.042164	-0.644557	0.138675	0.127191	
0.701263	2.79236	0	5	-4.73633	-0.946589	-0.857081	-0.479552	0	0	-0.766972	0.131099	0	0	-0.615675	0.372131	-0.618651	-0.297947	-0.807944	-0.406555	-0.13618	-0.808806	-0.166185	0.135989	-0.332836	-0.291447	-0.139991	0.361263	-0.365163	-0.102299	-0.145104	0.10812	-0.0380557	-0.656168	0.120493	0.124392	
0.695682	2.7771	0	5	-4.73633	-0.946589	-0.854181	-0.476499	0	0	-0.770514	0.131271	0	0	-0.60898	0.367756	-0.617736	-0.300532	-0.804265	-0.406262	-0.13624	-0.819954	-0.154394	0.128284	-0.334517	-0.300005	-0.13669	0.351936	-0.376848	-0.10019	-0.145	0.097977	-0.0339475	-0.667779	0.102311	0.121592	
0.689511	2.76184	0	5	-4.73633	-0.946589	-0.85128	-0.473447	0	0	-0.774056	0.131444	0	0	-0.602286	0.363382	-0.616822	-0.303118	-0.800587	-0.405969	-0.1363	-0.831102	-0.142603	0.120579	-0.336198	-0.308563	-0.13339	0.342609	-0.388533	-0.0980803	-0.144895	0.087834	-0.0298393	-0.679389	0.0841298	0.118792	
0.683468	2.74811	0	5	-4.73633	-0.946589	-0.848379	-0.470394	0	0	-0.777597	0.131616	0	0	-0.595591	0.359008	-0.615907	-0.305703	-0.796908	-0.405677	-0.136361	-0.84225	-0.130811	0.112874	-0.337879	-0.317121	-0.13009	0.333282	-0.400218	-0.095971	-0.14479	0.077691	-0.025731	-0.691	0.065948	0.115993	
0.678272	2.73132	0	5	-4.73633	-0.946589	-0.861011	-0.457188	0	0	-0.789194	0.134912	0	0	-0.602205	0.377701	-0.618652	-0.297945	-0.796954	-0.394852	-0.129027	-0.840332	-0.129213	0.121182	-0.326734	-0.32199	-0.128782	0.346776	-0.401489	-0.0923778	-0.145823	0.0904573	-0.0270997	-0.687132	0.0640665	0.134842	
0.674622	2.72522	0	0	-4.73633	-0.946589	-0.873644	-0.443982	0	0	-0.800791	0.138208	0	0	-0.60882	0.396394	-0.621397	-0.290187	-0.797	-0.384026	-0.121693	-0.838414	-0.127615	0.12949	-0.315589	-0.326859	-0.127474	0.36027	-0.402761	-0.0887845	-0.146856	0.103223	-0.0284685	-0.683263	0.062185	0.153692	
0.672619	2.70843	0	0	-4.73633	-0.946589	-0.886276	-0.430775	0	0	-0.812388	0.141504	0	0	-0.615434	0.415087	-0.624142	-0.282429	-0.797046	-0.373201	-0.114359	-0.836496	-0.126018	0.137798	-0.304445	-0.331729	-0.126167	0.373764	-0.404032	-0.0851912	-0.147889	0.11599	-0.0298373	-0.679394	0.0603035	0.172541	
0.671671	2.69623	0	0	-4.73633	-0.946589	-0.898908	-0.417569	0	0	-0.823985	0.1448	0	0	-0.622049	0.43378	-0.626887	-0.274671	-0.797092	-0.362376	-0.107025	-0.834578	-0.12442	0.146106	-0.2933	-0.336598	-0.124859	0.387258	-0.405303	-0.081598	-0.148922	0.128756	-0.031206	-0.675526	0.058422	0.19139	
0.671142	2.68707	0	0	-4.73633	-0.946589	-0.90408	-0.414189	0	0	-0.830064	0.142355	0	0	-0.61874	0.424428	-0.625057	-0.279844	-0.797092	-0.362376	-0.10812	-0.842808	-0.127452	0.141851	-0.301115	-0.341138	-0.127816	0.378426	-0.40912	-0.0708103	-0.167156	0.150763	-0.0457925	-0.651105	0.0483725	0.233332	
0.6704	2.67792	0	0	-4.73633	-0.946589	-0.909252	-0.41081	0	0	-0.836143	0.13991	0	0	-0.615431	0.415077	-0.623226	-0.285017	-0.797092	-0.362376	-0.109216	-0.851038	-0.130484	0.137596	-0.308931	-0.345677	-0.130774	0.369594	-0.412938	-0.0600225	-0.18539	0.17277	-0.060379	-0.626683	0.038323	0.275274	
0.66881	2.66724	0	0	-4.73633	-0.946589	-0.914424	-0.407431	0	0	-0.842223	0.137464	0	0	-0.612122	0.405726	-0.621396	-0.290189	-0.797092	-0.362376	-0.110312	-0.859267	-0.133515	0.133341	-0.316747	-0.350217	-0.133732	0.360763	-0.416755	-0.0492348	-0.203624	0.194776	-0.0749655	-0.602262	0.0282735	0.317216	
0.666092	2.65961	0	0	-4.73633	-0.946589	-0.919596	-0.404051	0	0	-0.848302	0.135019	0	0	-0.608813	0.396374	-0.619566	-0.295362	-0.797092	-0.362376	-0.111407	-0.867497	-0.136547	0.129086	-0.324562	-0.354757	-0.136689	0.351931	-0.420572	-0.038447	-0.221858	0.216783	-0.089552	-0.577841	0.018224	0.359158	
0.663049	2.64892	0	0	-4.73633	-0.946589	-0.917846	-0.39776	0	0	-0.845755	0.137633	0	0	-0.602113	0.391996	-0.615107	-0.298276	-0.794654	-0.358565	-0.107223	-0.867995	-0.133515	0.133341	-0.322345	-0.361024	-0.136689	0.351931	-0.418027	-0.0456403	-0.227189	0.212191	-0.0840683	-0.593339	0.00984225	0.355774	
0.660695	2.64435	0	0	-4.73633	-0.946589	-0.916095	-0.39147	0	0	-0.843209	0.140246	0	0	-0.595414	0.387618	-0.610648	-0.301189	-0.792216	-0.354754	-0.103039	-0.868494	-0.130484	0.137596	-0.320127	-0.367291	-0.136689	0.351931	-0.415482	-0.0528335	-0.23252	0.207599	-0.0785845	-0.608837	0.0014605	0.35239	
0.660042	2.63519	0	0	-4.73633	-0.946589	-0.914345	-0.385179	0	0	-0.840662	0.14286	0	0	-0.588714	0.383241	-0.606189	-0.304103	-0.789778	-0.350943	-0.098855	-0.868993	-0.127452	0.141851	-0.317909	-0.373558	-0.136689	0.351931	-0.412936	-0.0600268	-0.237851	0.203008	-0.0731007	-0.624334	-0.00692125	0.349005	
0.662101	2.62909	0	0	-4.73633	-0.946589	-0.912595	-0.378888	0	0	-0.838116	0.145474	0	0	-0.582014	0.378863	-0.60173	-0.307017	-0.78734	-0.347132	-0.094671	-0.869491	-0.12442	0.146106	-0.315692	-0.379825	-0.136689	0.351931	-0.410391	-0.06722	-0.243182	0.198416	-0.067617	-0.639832	-0.015303	0.345621	
0.667712	2.62298	0	0	-4.73633	-0.946589	-0.909096	-0.366281	0	0	-0.838526	0.156448	0	0	-0.576877	0.393494	-0.598299	-0.297322	-0.780021	-0.335677	-0.0883545	-0.86467	-0.12123	0.162764	-0.307873	-0.375294	-0.135385	0.365435	-0.411663	-0.063624	-0.244111	0.201041	-0.067617	-0.639832	-0.002843	0.337479	
0.67636	2.61688	0	0	-4.73633	-0.946589	-0.905598	-0.353673	0	0	-0.838936	0.167422	0	0	-0.57174	0.408125	-0.594868	-0.287627	-0.772701	-0.324222	-0.082038	-0.859849	-0.11804	0.179421	-0.300055	-0.370764	-0.13408	0.378938	-0.412936	-0.060028	-0.24504	0.203665	-0.067617	-0.639832	0.009617	0.329338	
0.686897	2.61383	0	0	-4.73633	-0.946589	-0.9021	-0.341066	0	0	-0.839345	0.178395	0	0	-0.566604	0.422756	-0.591437	-0.277931	-0.765382	-0.312768	-0.0757215	-0.855027	-0.11485	0.196079	-0.292237	-0.366233	-0.132775	0.392442	-0.414208	-0.056432	-0.245968	0.20629	-0.067617	-0.639832	0.022077	0.321196	
0.698172	2.6062	0	0	-4.73633	-0.946589	-0.898601	-0.328459	0	0	-0.839755	0.189369	0	0	-0.561467	0.437387	-0.588006	-0.268236	-0.758062	-0.301313	-0.069405	-0.850206	-0.11166	0.212736	-0.284418	-0.361702	-0.131471	0.405946	-0.41548	-0.052836	-0.246897	0.208915	-0.067617	-0.639832	0.034537	0.313054	
0.709033	2.6001	0	0	-4.73633	-0.946589	-0.902635	-0.328307	0	0	-0.84033	0.181179	0	0	-0.568106	0.456149	-0.588126	-0.258194	-0.755677	-0.286595	-0.0640485	-0.831284	-0.107034	0.225371	-0.28495	-0.346869	-0.119288	0.423181	-0.412189	-0.046686	-0.242497	0.216138	-0.0562552	-0.638322	0.0388532	0.327967	
0.718328	2.6001	0	5	-4.73633	-0.946589	-0.90667	-0.328155	0	0	-0.840906	0.172988	0	0	-0.574744	0.474911	-0.588245	-0.248152	-0.753292	-0.271877	-0.058692	-0.812361	-0.102408	0.238005	-0.285483	-0.332037	-0.107105	0.440416	-0.408898	-0.040536	-0.238098	0.223361	-0.0448935	-0.636813	0.0431695	0.342881	
0.725219	2.59857	0	5	-4.73633	-0.946589	-0.910705	-0.328003	0	0	-0.841481	0.164798	0	0	-0.581383	0.493672	-0.588365	-0.238111	-0.750907	-0.25716	-0.0533355	-0.793438	-0.0977828	0.25064	-0.286016	-0.317204	-0.094922	0.457651	-0.405608	-0.034386	-0.233698	0.230585	-0.0335317	-0.635303	0.0474858	0.357794	
0.729982	2.59704	0	5	-4.73633	-0.946589	-0.914739	-0.327851	0	0	-0.842056	0.156608	0	0	-0.588021	0.512434	-0.588485	-0.228069	-0.748522	-0.242442	-0.047979	-0.774516	-0.093157	0.263275	-0.286548	-0.302371	-0.082739	0.474886	-0.402317	-0.028236	-0.229298	0.237808	-0.02217	-0.633793	0.051802	0.372707	
0.733141	2.6001	0	5	-4.73633	-0.946589	-0.921058	-0.321238	0	0	-0.844602	0.153993	0	0	-0.588021	0.512434	-0.584017	-0.230989	-0.74358	-0.245671	-0.0469455	-0.777437	-0.0872347	0.259405	-0.284324	-0.308656	-0.0890135	0.475381	-0.406142	-0.0174263	-0.244864	0.262141	-0.0249142	-0.626037	0.0402913	0.418809	
0.735218	2.59857	0	5	-4.73633	-0.946589	-0.927377	-0.314625	0	0	-0.847147	0.151377	0	0	-0.588021	0.512434	-0.579549	-0.233908	-0.738637	-0.248901	-0.045912	-0.780358	-0.0813125	0.255535	-0.2821	-0.314941	-0.095288	0.475876	-0.409967	-0.0066165	-0.260429	0.286475	-0.0276585	-0.618282	0.0287805	0.46491	
0.736736	2.60162	0	5	-4.73633	-0.946589	-0.933695	-0.308012	0	0	-0.849693	0.148761	0	0	-0.588021	0.512434	-0.57508	-0.236828	-0.733694	-0.25213	-0.0448785	-0.783279	-0.0753903	0.251666	-0.279877	-0.321225	-0.101562	0.47637	-0.413791	0.00419325	-0.275995	0.310808	-0.0304028	-0.610526	0.0172698	0.511011	
0.738218	2.60162	0	5	-4.73633	-0.946589	-0.940014	-0.301399	0	0	-0.852239	0.146146	0	0	-0.588021	0.512434	-0.570612	-0.239748	-0.728752	-0.25536	-0.043845	-0.7862	-0.069468	0.247796	-0.277653	-0.32751	-0.107837	0.476865	-0.417616	0.015003	-0.291561	0.335142	-0.033147	-0.60277	0.005759	0.557113	
0.74004	2.6001	0	5	-4.73633	-0.946589	-0.940562	-0.288605	0	0	-0.85265	0.157117	0	0	-0.571183	0.508655	-0.563505	-0.240403	-0.722611	-0.25122	-0.0354452	-0.787197	-0.0649848	0.248002	-0.278764	-0.324368	-0.109496	0.481554	-0.426003	0.0232555	-0.296081	0.338096	-0.0422602	-0.593832	0.00986575	0.545507	
0.742182	2.59857	0	5	-4.73633	-0.946589	-0.941111	-0.27581	0	0	-0.85306	0.168088	0	0	-0.554345	0.504876	-0.556397	-0.241057	-0.71647	-0.24708	-0.0270455	-0.788193	-0.0605015	0.248209	-0.279876	-0.321226	-0.111156	0.486243	-0.434391	0.031508	-0.300601	0.34105	-0.0513735	-0.584894	0.0139725	0.533902	
0.744564	2.59552	0	5	-4.73633	-0.946589	-0.94166	-0.263016	0	0	-0.853471	0.179059	0	0	-0.537507	0.501097	-0.549289	-0.241712	-0.710329	-0.242941	-0.0186457	-0.789189	-0.0560182	0.248416	-0.280988	-0.318085	-0.112815	0.490933	-0.442778	0.0397605	-0.305122	0.344003	-0.0604867	-0.575956	0.0180793	0.522296	
0.7471	2.59247	0	5	-4.73633	-0.946589	-0.942208	-0.250222	0	0	-0.853882	0.19003	0	0	-0.520669	0.497318	-0.542182	-0.242367	-0.704188	-0.238801	-0.010246	-0.790186	-0.051535	0.248622	-0.282099	-0.314943	-0.114474	0.495622	-0.451165	0.048013	-0.309642	0.346957	-0.0696	-0.567018	0.022186	0.51069	
0.74971	2.58942	0	5	-4.73633	-0.946589	-0.942177	-0.227801	0	0	-0.859239	0.214986	0	0	-0.515463	0.526516	-0.538867	-0.22255	-0.699354	-0.220172	0.000369	-0.774619	-0.0483435	0.265381	-0.27761	-0.300944	-0.110238	0.518142	-0.444603	0.0603835	-0.302752	0.366802	-0.0546085	-0.558887	0.0237287	0.533501	
0.752309	2.58331	0	5	-4.73633	-0.946589	-0.942146	-0.20538	0	0	-0.864596	0.239942	0	0	-0.510257	0.555713	-0.535552	-0.202733	-0.694521	-0.201543	0.010984	-0.759051	-0.045152	0.282141	-0.273122	-0.286945	-0.106002	0.540663	-0.438042	0.072754	-0.295863	0.386647	-0.039617	-0.550757	0.0252715	0.556312	
0.754776	2.58179	0	5	-4.73633	-0.946589	-0.942115	-0.182959	0	0	-0.869953	0.264898	0	0	-0.50505	0.58491	-0.532237	-0.182916	-0.689688	-0.182913	0.021599	-0.743484	-0.0419605	0.2989	-0.268634	-0.272947	-0.101766	0.563184	-0.43148	0.0851245	-0.288973	0.406492	-0.0246255	-0.542627	0.0268143	0.579122	
0.756886	2.57416	0	5	-4.73633	-0.946589	-0.942084	-0.160538	0	0	-0.87531	0.289854	0	0	-0.499844	0.614108	-0.528922	-0.163099	-0.684854	-0.164284	0.032214	-0.727917	-0.038769	0.315659	-0.264145	-0.258948	-0.09753	0.585704	-0.424919	0.097495	-0.282084	0.426337	-0.009634	-0.534496	0.028357	0.601933	
0.758393	2.56805	0	5	-4.90719	-0.463737	-0.945535	-0.150786	0	0	-0.878278	0.298243	0	0	-0.499844	0.614108	-0.521798	-0.163749	-0.68115	-0.163976	0.029155	-0.707862	-0.0445645	0.332038	-0.271957	-0.23687	-0.112142	0.609744	-0.430615	0.12907	-0.287253	0.470485	-0.001511	-0.506817	0.047464	0.643344	
0.759051	2.5711	0	5	-5.07804	0.0191145	-0.948985	-0.141035	0	0	-0.881247	0.306633	0	0	-0.499844	0.614108	-0.514674	-0.164399	-0.677447	-0.163668	0.026096	-0.687808	-0.05036	0.348417	-0.279769	-0.214792	-0.126753	0.633784	-0.436312	0.160645	-0.292421	0.514633	0.006612	-0.479137	0.066571	0.684756	
0.758616	2.57721	0	5	-5.24889	0.501966	-0.952435	-0.131283	0	0	-0.884216	0.315022	0	0	-0.499844	0.614108	-0.50755	-0.16505	-0.673743	-0.163359	0.023037	-0.667753	-0.0561555	0.364795	-0.287581	-0.192714	-0.141365	0.657823	-0.442009	0.192221	-0.29759	0.558781	0.014735	-0.451458	0.085678	0.726168	
0.756842	2.58484	0	5	-5.41974	0.984818	-0.955886	-0.121532	0	0	-0.887184	0.323412	0	0	-0.499844	0.614108	-0.500426	-0.1657	-0.670039	-0.163051	0.019978	-0.647698	-0.061951	0.381174	-0.295393	-0.170636	-0.155976	0.681863	-0.447705	0.223796	-0.302758	0.602929	0.022858	-0.423779	0.104785	0.767579	
0.753654	2.6001	0	5	-5.24889	0.501966	-0.948389	-0.108907	0	0	-0.880554	0.334153	0	0	-0.498114	0.623879	-0.495139	-0.161138	-0.665139	-0.155329	0.0252847	-0.639857	-0.058914	0.385494	-0.2926	-0.165174	-0.151375	0.686114	-0.445719	0.233671	-0.298391	0.610306	0.0379145	-0.415557	0.098498	0.771687	
0.749537	2.6123	0	5	-5.07804	0.0191145	-0.940891	-0.096281	0	0	-0.873924	0.344893	0	0	-0.496384	0.633649	-0.489852	-0.156577	-0.66024	-0.147606	0.0305915	-0.632015	-0.055877	0.389815	-0.289806	-0.159712	-0.146774	0.690366	-0.443732	0.243546	-0.294023	0.617683	0.052971	-0.407336	0.092211	0.775796	
0.745094	2.62451	0	5	-4.90719	-0.463737	-0.933394	-0.0836555	0	0	-0.867294	0.355634	0	0	-0.494654	0.64342	-0.484565	-0.152015	-0.65534	-0.139883	0.0358982	-0.624173	-0.05284	0.394135	-0.287013	-0.15425	-0.142173	0.694617	-0.441746	0.253421	-0.289656	0.62506	0.0680275	-0.399114	0.085924	0.779904	
0.740925	2.63519	0	5	-4.73633	-0.946589	-0.925897	-0.07103	0	0	-0.860664	0.366375	0	0	-0.492924	0.65319	-0.479278	-0.147454	-0.65044	-0.132161	0.041205	-0.616332	-0.049803	0.398455	-0.28422	-0.148788	-0.137572	0.698869	-0.439759	0.263296	-0.285288	0.632437	0.083084	-0.390892	0.079637	0.784012	
0.737631	2.64892	0	5	-4.73633	-0.946589	-0.927064	-0.0451547	0	0	-0.858007	0.388393	0	0	-0.477619	0.668693	-0.475038	-0.130143	-0.643084	-0.120549	0.0444283	-0.602574	-0.0451793	0.411221	-0.278631	-0.137843	-0.134641	0.707854	-0.434503	0.279458	-0.282985	0.655548	0.0861895	-0.365742	0.096501	0.791053	
0.735813	2.66113	0	5	-4.73633	-0.946589	-0.928231	-0.0192795	0	0	-0.855351	0.41041	0	0	-0.462314	0.684195	-0.470799	-0.112833	-0.635728	-0.108937	0.0476515	-0.588816	-0.0405555	0.423987	-0.273041	-0.126897	-0.131709	0.71684	-0.429246	0.29562	-0.280683	0.678659	0.089295	-0.340592	0.113365	0.798093	
0.735798	2.66571	0	5	-4.73633	-0.946589	-0.929399	0.00659575	0	0	-0.852694	0.432427	0	0	-0.44701	0.699697	-0.466559	-0.0955218	-0.628371	-0.097325	0.0508747	-0.575058	-0.0359317	0.436753	-0.267451	-0.115951	-0.128778	0.725826	-0.42399	0.311782	-0.27838	0.701771	0.0924005	-0.315442	0.130229	0.805133	
0.737264	2.67029	0	5	-4.73633	-0.946589	-0.930566	0.032471	0	0	-0.850037	0.454445	0	0	-0.431705	0.7152	-0.462319	-0.078211	-0.621015	-0.085713	0.054098	-0.5613	-0.031308	0.449519	-0.261862	-0.105006	-0.125847	0.734811	-0.418734	0.327944	-0.276077	0.724882	0.095506	-0.290292	0.147093	0.812174	
0.73979	2.67029	0	5	-4.73633	-0.946589	-0.927683	0.0356205	0	0	-0.852029	0.460074	0	0	-0.435115	0.710132	-0.460468	-0.083441	-0.619754	-0.089276	0.057276	-0.558837	-0.037255	0.453405	-0.268018	-0.100983	-0.141737	0.745194	-0.41348	0.344164	-0.280246	0.756436	0.103625	-0.262231	0.143019	0.851099	
0.74296	2.66724	0	5	-4.73633	-0.946589	-0.924799	0.03877	0	0	-0.854021	0.465703	0	0	-0.438526	0.705064	-0.458618	-0.088671	-0.618494	-0.092839	0.060454	-0.556374	-0.043202	0.45729	-0.274174	-0.0969605	-0.157627	0.755576	-0.408226	0.360383	-0.284415	0.787991	0.111743	-0.23417	0.138944	0.890024	
0.746355	2.66876	0	5	-4.73633	-0.946589	-0.921916	0.0419195	0	0	-0.856012	0.471332	0	0	-0.441937	0.699997	-0.456767	-0.093901	-0.617233	-0.096402	0.063632	-0.553912	-0.049149	0.461176	-0.280331	-0.0929377	-0.173516	0.765959	-0.402972	0.376603	-0.288584	0.819546	0.119862	-0.206109	0.13487	0.92895	
0.749556	2.66266	0	5	-4.73633	-0.946589	-0.919033	0.045069	0	0	-0.858004	0.476961	0	0	-0.445347	0.694929	-0.454916	-0.099131	-0.615973	-0.099965	0.06681	-0.551449	-0.055096	0.465062	-0.286487	-0.088915	-0.189406	0.776342	-0.397718	0.392822	-0.292753	0.8511	0.127981	-0.178048	0.130796	0.967875	
0.752312	2.65655	0	5	-4.73633	-0.946589	-0.923671	0.0581783	0	0	-0.860994	0.485411	0	0	-0.443669	0.690187	-0.453991	-0.101745	-0.619687	-0.100276	0.0615427	-0.548007	-0.049149	0.461176	-0.285366	-0.0920825	-0.187733	0.771613	-0.396424	0.389166	-0.295405	0.848707	0.125181	-0.170134	0.134232	0.944453	
0.754757	2.6535	0	5	-4.73633	-0.946589	-0.92831	0.0712875	0	0	-0.863984	0.493862	0	0	-0.441991	0.685446	-0.453066	-0.104359	-0.6234	-0.100588	0.0562755	-0.544566	-0.043202	0.45729	-0.284245	-0.09525	-0.186059	0.766884	-0.39513	0.38551	-0.298057	0.846314	0.122381	-0.16222	0.137668	0.921031	
0.75708	2.64435	0	5	-4.73633	-0.946589	-0.932948	0.0843967	0	0	-0.866974	0.502312	0	0	-0.440314	0.680705	-0.452141	-0.106973	-0.627113	-0.1009	0.0510082	-0.541124	-0.037255	0.453405	-0.283125	-0.0984175	-0.184386	0.762155	-0.393837	0.381853	-0.30071	0.843921	0.11958	-0.154307	0.141105	0.897609	
0.759471	2.63824	0	5	-4.73633	-0.946589	-0.937587	0.097506	0	0	-0.869964	0.510763	0	0	-0.438636	0.675963	-0.451216	-0.109587	-0.630827	-0.101211	0.045741	-0.537682	-0.031308	0.449519	-0.282004	-0.101585	-0.182713	0.757426	-0.392543	0.378197	-0.303362	0.841528	0.11678	-0.146393	0.144541	0.874187	
0.76212	2.63672	0	5	-4.73633	-0.946589	-0.927775	0.103713	0	0	-0.865882	0.518937	0	0	-0.436903	0.685772	-0.447642	-0.109913	-0.632087	-0.0976495	0.0510082	-0.541124	-0.028268	0.453858	-0.275848	-0.105607	-0.184386	0.762155	-0.400989	0.386527	-0.29976	0.841237	0.123218	-0.147556	0.14732	0.866333	
0.765215	2.63824	0	5	-4.73633	-0.946589	-0.917963	0.109921	0	0	-0.861801	0.527111	0	0	-0.435171	0.695581	-0.444068	-0.110239	-0.633347	-0.094088	0.0562755	-0.544566	-0.025228	0.458196	-0.269691	-0.10963	-0.186059	0.766884	-0.409435	0.394857	-0.296158	0.840947	0.129657	-0.148719	0.150099	0.858478	
0.768805	2.63519	0	5	-4.73633	-0.946589	-0.908152	0.116128	0	0	-0.857719	0.535285	0	0	-0.433438	0.705391	-0.440495	-0.110564	-0.634608	-0.0905265	0.0615427	-0.548007	-0.022188	0.462534	-0.263535	-0.113653	-0.187733	0.771613	-0.417882	0.403187	-0.292557	0.840656	0.136095	-0.149882	0.152879	0.850623	
0.772465	2.63061	0	5	-4.73633	-0.946589	-0.89834	0.122335	0	0	-0.853638	0.543459	0	0	-0.431705	0.7152	-0.436921	-0.11089	-0.635868	-0.086965	0.06681	-0.551449	-0.019148	0.466873	-0.257379	-0.117675	-0.189406	0.776342	-0.426328	0.411517	-0.288955	0.840365	0.142534	-0.151045	0.155658	0.842769	
0.775675	2.62298	0	5	-4.73633	-0.946589	-0.898903	0.112606	0	0	-0.852188	0.529504	0	0	-0.438524	0.705071	-0.443018	-0.122966	-0.639511	-0.098264	0.0541882	-0.538659	-0.0265557	0.474878	-0.270808	-0.106466	-0.19734	0.781526	-0.431508	0.426157	-0.292007	0.858883	0.154865	-0.134702	0.154362	0.873861	
0.777915	2.61536	0	5	-4.73633	-0.946589	-0.899465	0.102877	0	0	-0.850739	0.515549	0	0	-0.445344	0.694943	-0.449116	-0.135042	-0.643154	-0.109563	0.0415665	-0.525869	-0.0339635	0.482883	-0.284237	-0.095256	-0.205273	0.78671	-0.436688	0.440798	-0.295058	0.877401	0.167196	-0.118358	0.153067	0.904953	
0.778663	2.6062	0	5	-4.73633	-0.946589	-0.900027	0.093148	0	0	-0.849289	0.501595	0	0	-0.452163	0.684814	-0.455214	-0.147118	-0.646797	-0.120862	0.0289448	-0.513079	-0.0413712	0.490888	-0.297665	-0.0840465	-0.213207	0.791894	-0.441869	0.455438	-0.29811	0.895919	0.179527	-0.102015	0.151772	0.936046	
0.777401	2.59857	0	5	-4.73633	-0.946589	-0.90059	0.083419	0	0	-0.847839	0.48764	0	0	-0.458982	0.674685	-0.461311	-0.159194	-0.65044	-0.132161	0.016323	-0.500289	-0.048779	0.498893	-0.311094	-0.072837	-0.221141	0.797078	-0.447049	0.470078	-0.301161	0.914437	0.191858	-0.085671	0.150476	0.967138	
0.773715	2.59094	0	5	-4.73633	-0.946589	-0.90059	0.083419	0	0	-0.85337	0.493421	0	0	-0.464064	0.674364	-0.463958	-0.161474	-0.654147	-0.132471	0.0173685	-0.503244	-0.044285	0.499123	-0.315	-0.0751537	-0.221141	0.797078	-0.45031	0.463765	-0.303611	0.901577	0.188213	-0.0924497	0.147602	0.94783	
0.767887	2.58636	0	5	-4.73633	-0.946589	-0.90059	0.083419	0	0	-0.858901	0.499201	0	0	-0.469146	0.674044	-0.466604	-0.163754	-0.657855	-0.132781	0.018414	-0.506198	-0.039791	0.499352	-0.318906	-0.0774705	-0.221141	0.797078	-0.45357	0.457452	-0.30606	0.888717	0.184568	-0.0992285	0.144728	0.928522	
0.76047	2.57873	0	5	-4.73633	-0.946589	-0.90059	0.083419	0	0	-0.864433	0.504982	0	0	-0.474228	0.673723	-0.469251	-0.166034	-0.661563	-0.133091	0.0194595	-0.509153	-0.035297	0.499582	-0.322813	-0.0797873	-0.221141	0.797078	-0.456831	0.45114	-0.308509	0.875856	0.180924	-0.106007	0.141853	0.909214	
0.752016	2.565	0	5	-4.73633	-0.946589	-0.90059	0.083419	0	0	-0.869964	0.510763	0	0	-0.47931	0.673402	-0.471897	-0.168314	-0.66527	-0.133401	0.020505	-0.512108	-0.030803	0.499812	-0.326719	-0.082104	-0.221141	0.797078	-0.460092	0.444827	-0.310959	0.862996	0.177279	-0.112786	0.138979	0.889906	
0.743077	2.565	0	5	-4.73633	-0.946589	-0.90119	0.0964345	0	0	-0.870419	0.521902	0	0	-0.472498	0.683528	-0.472944	-0.155595	-0.665339	-0.122419	0.0278987	-0.510123	-0.0247242	0.508519	-0.317782	-0.0806382	-0.210291	0.800907	-0.460092	0.444827	-0.310959	0.862996	0.163802	-0.0917635	0.143898	0.889714	
0.734207	2.55737	0	0	-4.73633	-0.946589	-0.90179	0.10945	0	0	-0.870874	0.53304	0	0	-0.465686	0.693653	-0.473992	-0.142876	-0.665408	-0.111437	0.0352925	-0.508137	-0.0186455	0.517227	-0.308845	-0.0791725	-0.199441	0.804736	-0.460092	0.444827	-0.310959	0.862996	0.150326	-0.070741	0.148817	0.889523	
0.725874	2.55737	0	0	-4.73633	-0.946589	-0.902391	0.122465	0	0	-0.87133	0.544178	0	0	-0.458874	0.703779	-0.475039	-0.130157	-0.665476	-0.100456	0.0426862	-0.506151	-0.0125668	0.525934	-0.299909	-0.0777068	-0.188592	0.808565	-0.460092	0.444827	-0.310959	0.862996	0.136849	-0.0497185	0.153737	0.889332	
0.718183	2.54974	0	0	-4.73633	-0.946589	-0.902991	0.135481	0	0	-0.871785	0.555317	0	0	-0.452062	0.713905	-0.476086	-0.117438	-0.665545	-0.089474	0.05008	-0.504166	-0.006488	0.534641	-0.290972	-0.076241	-0.177742	0.812394	-0.460092	0.444827	-0.310959	0.862996	0.123372	-0.028696	0.158656	0.88914	
0.711145	2.54669	0	0	-4.73633	-0.946589	-0.902391	0.122465	0	0	-0.875862	0.54714	0	0	-0.462227	0.713255	-0.475961	-0.12755	-0.671696	-0.093659	0.0469048	-0.506636	-0.0109875	0.534409	-0.293762	-0.0817237	-0.180658	0.803381	-0.468527	0.453152	-0.325548	0.874593	0.127002	-0.0218913	0.152423	0.920476	
0.704767	2.54364	0	0	-4.73633	-0.946589	-0.90179	0.10945	0	0	-0.879939	0.538963	0	0	-0.472392	0.712605	-0.475836	-0.137662	-0.677848	-0.097844	0.0437295	-0.509107	-0.015487	0.534177	-0.296551	-0.0872065	-0.183574	0.794368	-0.476963	0.461477	-0.340137	0.88619	0.130632	-0.0150865	0.14619	0.951812	
0.699059	2.54211	0	0	-4.73633	-0.946589	-0.90119	0.0964345	0	0	-0.884016	0.530785	0	0	-0.482556	0.711954	-0.475712	-0.147774	-0.683999	-0.102029	0.0405543	-0.511578	-0.0199865	0.533945	-0.299341	-0.0926893	-0.18649	0.785355	-0.485399	0.469803	-0.354727	0.897787	0.134263	-0.00828175	0.139957	0.983148	
0.694032	2.54211	0	0	-4.73633	-0.946589	-0.90059	0.083419	0	0	-0.888093	0.522608	0	0	-0.492721	0.711304	-0.475587	-0.157886	-0.69015	-0.106214	0.037379	-0.514048	-0.024486	0.533713	-0.30213	-0.098172	-0.189406	0.776342	-0.493834	0.478128	-0.369316	0.909384	0.137893	-0.001477	0.133724	1.01448	
0.689769	2.54364	0	0	-4.73633	-0.946589	-0.899429	0.0801387	0	0	-0.890629	0.519933	0	0	-0.492721	0.711304	-0.480076	-0.154952	-0.69015	-0.106214	0.0384245	-0.517003	-0.0185265	0.529819	-0.30101	-0.101337	-0.189406	0.776342	-0.497086	0.471816	-0.3725	0.888795	0.135669	-0.012257	0.130862	0.995139	
0.686445	2.53906	0	0	-4.73633	-0.946589	-0.898269	0.0768585	0	0	-0.893165	0.517258	0	0	-0.492721	0.711304	-0.484565	-0.152019	-0.69015	-0.106214	0.03947	-0.519957	-0.012567	0.525925	-0.29989	-0.104502	-0.189406	0.776342	-0.500338	0.465505	-0.375684	0.868206	0.133446	-0.023037	0.128001	0.975795	
0.684239	2.53601	0	0	-4.73633	-0.946589	-0.897108	0.0735782	0	0	-0.895701	0.514584	0	0	-0.492721	0.711304	-0.489055	-0.149086	-0.69015	-0.106214	0.0405155	-0.522912	-0.0066075	0.522031	-0.29877	-0.107667	-0.189406	0.776342	-0.50359	0.459194	-0.378869	0.847617	0.131222	-0.033817	0.12514	0.95645	
0.683334	2.53448	0	0	-4.73633	-0.946589	-0.895947	0.070298	0	0	-0.898237	0.511909	0	0	-0.492721	0.711304	-0.493544	-0.146152	-0.69015	-0.106214	0.041561	-0.525867	-0.000648	0.518137	-0.29765	-0.110832	-0.189406	0.776342	-0.506842	0.452882	-0.382053	0.827028	0.128999	-0.044597	0.122278	0.937106	
0.683909	2.53143	0	0	-4.73633	-0.946589	-0.908679	0.0836618	0	0	-0.907289	0.517824	0	0	-0.492679	0.725869	-0.491824	-0.14126	-0.692667	-0.0991008	0.0457827	-0.526354	-0.002108	0.522263	-0.292618	-0.111686	-0.19108	0.781073	-0.510093	0.44658	-0.379021	0.808607	0.123964	-0.0474152	0.121538	0.925496	
0.686047	2.52533	0	0	-4.73633	-0.946589	-0.921411	0.0970255	0	0	-0.916341	0.523739	0	0	-0.492638	0.740435	-0.490104	-0.136367	-0.695184	-0.0919875	0.0500045	-0.526841	-0.003568	0.526389	-0.287587	-0.112541	-0.192754	0.785805	-0.513343	0.440279	-0.375989	0.790185	0.118928	-0.0502335	0.120799	0.913887	
0.68936	2.52228	0	0	-4.73633	-0.946589	-0.934142	0.110389	0	0	-0.925394	0.529654	0	0	-0.492596	0.755	-0.488383	-0.131474	-0.697701	-0.0848742	0.0542263	-0.527328	-0.005028	0.530515	-0.282555	-0.113396	-0.194428	0.790536	-0.516594	0.433977	-0.372957	0.771764	0.113893	-0.0530518	0.120059	0.902278	
0.693315	2.52533	0	0	-4.73633	-0.946589	-0.946874	0.123753	0	0	-0.934446	0.535569	0	0	-0.492554	0.769565	-0.486663	-0.126582	-0.700218	-0.077761	0.058448	-0.527815	-0.006488	0.534641	-0.277523	-0.11425	-0.196102	0.795268	-0.519845	0.427675	-0.369925	0.753343	0.108858	-0.05587	0.119319	0.890668	
0.697378	2.51922	0	0	-4.73633	-0.946589	-0.942797	0.100933	0	0	-0.934532	0.516167	0	0	-0.504419	0.759082	-0.489182	-0.138966	-0.702589	-0.0926042	0.0510888	-0.518461	-0.0079485	0.538769	-0.283675	-0.110231	-0.197777	0.800002	-0.519845	0.427675	-0.372568	0.750966	0.102423	-0.0547175	0.121451	0.898343	
0.701019	2.51617	0	5	-4.73633	-0.946589	-0.93872	0.078112	0	0	-0.934619	0.496764	0	0	-0.516284	0.748598	-0.491701	-0.15135	-0.70496	-0.107448	0.0437295	-0.509107	-0.009409	0.542897	-0.289826	-0.106211	-0.199453	0.804736	-0.519845	0.427675	-0.375212	0.74859	0.0959885	-0.053565	0.123583	0.906017	
0.703707	2.5116	0	5	-4.73633	-0.946589	-0.934643	0.0552915	0	0	-0.934705	0.477362	0	0	-0.528149	0.738115	-0.49422	-0.163735	-0.707332	-0.122291	0.0363702	-0.499753	-0.0108695	0.547024	-0.295978	-0.102191	-0.201128	0.809469	-0.519845	0.427675	-0.377855	0.746213	0.0895538	-0.0524125	0.125716	0.913691	
0.705201	2.50854	0	5	-4.73633	-0.946589	-0.930566	0.032471	0	0	-0.934792	0.45796	0	0	-0.540014	0.727632	-0.496739	-0.176119	-0.709703	-0.137134	0.029011	-0.490399	-0.01233	0.551152	-0.30213	-0.098172	-0.202803	0.814203	-0.519845	0.427675	-0.380498	0.743836	0.083119	-0.05126	0.127848	0.921366	
0.705729	2.50397	0	5	-4.73633	-0.946589	-0.935172	0.0229132	0	0	-0.936877	0.444225	0	0	-0.534989	0.71343	-0.504661	-0.182945	-0.714588	-0.144849	0.0300188	-0.504684	-0.012451	0.538546	-0.308824	-0.105956	-0.20237	0.795743	-0.525055	0.411459	-0.388053	0.71603	0.0851025	-0.0738832	0.117178	0.883118	
0.705561	2.50091	0	5	-4.73633	-0.946589	-0.939779	0.0133555	0	0	-0.938962	0.430491	0	0	-0.529964	0.699229	-0.512584	-0.189772	-0.719473	-0.152564	0.0310265	-0.51897	-0.012572	0.52594	-0.315519	-0.11374	-0.201937	0.777282	-0.530265	0.395242	-0.395608	0.688223	0.087086	-0.0965065	0.106509	0.844871	
