1.87683	0	0	0.236523	-0.112026	0.084453	0.158331	0.17602	-0.095674	0.060707	0.228911	0.153763	0.04743	0.06655	0.252377	0.1224	0.081169	0.059193	0.214819	0.085756	-0.176092	0.103495	-0.009919	0.063593	-0.119896	0.045748	0.048024	0.116185	-0.096487	0.042821	0.039031	0.342032	-0.213698	0.17306	-0.106937	
1.87378	0	0	0.235384	-0.108807	0.0707788	0.172421	0.174748	-0.092078	0.0588905	0.234045	0.158471	0.0639985	0.0687825	0.260997	0.126081	0.0913692	0.0579965	0.229956	0.087711	-0.171255	0.100224	-0.00067575	0.0701545	-0.124183	0.0510873	0.0474912	0.114906	-0.092872	0.046914	0.0385933	0.339885	-0.207629	0.178212	-0.10751	
1.87225	0	0	0.234245	-0.105589	0.0571045	0.18651	0.173475	-0.088482	0.057074	0.239179	0.163178	0.080567	0.071015	0.269618	0.129763	0.10157	0.0568	0.245092	0.089666	-0.166417	0.0969535	0.0085675	0.076716	-0.12847	0.0564265	0.0469585	0.113627	-0.089257	0.051007	0.0381555	0.337737	-0.20156	0.183365	-0.108082	
1.87378	0	0	0.233106	-0.10237	0.0434303	0.200599	0.172203	-0.084886	0.0552575	0.244313	0.167885	0.0971355	0.0732475	0.278238	0.133444	0.11177	0.0556035	0.260229	0.091621	-0.161579	0.0936828	0.0178108	0.0832775	-0.132758	0.0617657	0.0464258	0.112348	-0.085642	0.0551	0.0377178	0.335589	-0.19549	0.188518	-0.108655	
1.87073	0	0	0.231967	-0.099151	0.029756	0.214689	0.17093	-0.08129	0.053441	0.249447	0.172593	0.113704	0.07548	0.286859	0.137125	0.12197	0.054407	0.275365	0.093576	-0.156742	0.090412	0.027054	0.089839	-0.137045	0.067105	0.045893	0.111069	-0.082027	0.059193	0.03728	0.333442	-0.189421	0.19367	-0.109228	
1.87225	0	0	0.228184	-0.101628	0.0196555	0.218711	0.165676	-0.0806215	0.0462905	0.250172	0.171687	0.116263	0.0770273	0.282487	0.14187	0.118869	0.054407	0.275365	0.0906833	-0.158929	0.0915028	0.0239718	0.0856455	-0.13945	0.0644852	0.0387403	0.111069	-0.082027	0.057133	0.0431018	0.330218	-0.18031	0.189809	-0.0983173	
1.87225	0	0	0.224401	-0.104104	0.009555	0.222734	0.160422	-0.079953	0.03914	0.250897	0.170782	0.118823	0.0785745	0.278114	0.146616	0.115768	0.054407	0.275365	0.0877905	-0.161116	0.0925935	0.0208895	0.081452	-0.141854	0.0618655	0.0315875	0.111069	-0.082027	0.055073	0.0489235	0.326994	-0.171199	0.185949	-0.0874065	
1.87073	0	0	0.220618	-0.10658	-0.0005455	0.226756	0.155168	-0.0792845	0.0319895	0.251623	0.169877	0.121383	0.0801218	0.273742	0.151361	0.112668	0.054407	0.275365	0.0848977	-0.163303	0.0936842	0.0178073	0.0772585	-0.144259	0.0592457	0.0244347	0.111069	-0.082027	0.053013	0.0547453	0.32377	-0.162087	0.182088	-0.0764958	
1.8692	0	0	0.216835	-0.109057	-0.010646	0.230778	0.149914	-0.078616	0.024839	0.252348	0.168971	0.123942	0.081669	0.26937	0.156106	0.109567	0.054407	0.275365	0.082005	-0.16549	0.094775	0.014725	0.073065	-0.146664	0.056626	0.017282	0.111069	-0.082027	0.050953	0.060567	0.320546	-0.152976	0.178227	-0.065585	
1.87378	0	0	0.222895	-0.113017	-0.00619075	0.230444	0.15644	-0.0828805	0.0275048	0.254553	0.168065	0.126502	0.0801218	0.273742	0.155138	0.112303	0.0584975	0.275567	0.087712	-0.171257	0.096955	0.008564	0.0754313	-0.153351	0.0579848	0.0134415	0.112348	-0.085642	0.04892	0.055183	0.320567	-0.166992	0.176935	-0.075923	
1.8692	0	0	0.228956	-0.116977	-0.0017355	0.230111	0.162967	-0.087145	0.0301705	0.256759	0.167159	0.129062	0.0785745	0.278114	0.15417	0.115039	0.062588	0.275768	0.093419	-0.177024	0.099135	0.002403	0.0777975	-0.160038	0.0593435	0.009601	0.113627	-0.089257	0.046887	0.049799	0.320588	-0.181008	0.175644	-0.086261	
1.8692	0	0	0.235017	-0.120937	0.00271975	0.229778	0.169494	-0.0914095	0.0328362	0.258964	0.166253	0.131622	0.0770273	0.282487	0.153202	0.117774	0.0666785	0.275969	0.099126	-0.18279	0.101315	-0.003758	0.0801638	-0.166725	0.0607022	0.0057605	0.114906	-0.092872	0.044854	0.044415	0.320609	-0.195024	0.174352	-0.096599	
1.86767	0	0	0.241077	-0.124897	0.007175	0.229444	0.17602	-0.095674	0.035502	0.261169	0.165347	0.134182	0.07548	0.286859	0.152234	0.12051	0.070769	0.276171	0.104833	-0.188557	0.103495	-0.009919	0.08253	-0.173412	0.062061	0.00192	0.116185	-0.096487	0.042821	0.039031	0.32063	-0.20904	0.17306	-0.106937	
1.86767	0	0	0.239938	-0.121679	0.00480075	0.236154	0.181279	-0.0963457	0.032775	0.268875	0.168123	0.136306	0.0739323	0.291233	0.152234	0.12051	0.070769	0.276171	0.103895	-0.185907	0.103495	-0.009919	0.0902737	-0.181041	0.0607022	0.0057605	0.117464	-0.100101	0.042821	0.039031	0.328126	-0.216269	0.178198	-0.121458	
1.86615	0	0	0.2388	-0.118461	0.0024265	0.242864	0.186538	-0.0970175	0.030048	0.276582	0.170898	0.138431	0.0723845	0.295608	0.152234	0.12051	0.070769	0.276171	0.102957	-0.183256	0.103495	-0.009919	0.0980175	-0.18867	0.0593435	0.009601	0.118743	-0.103714	0.042821	0.039031	0.335623	-0.223498	0.183337	-0.13598	
1.86767	0	0	0.237662	-0.115244	5.225E-05	0.249573	0.191797	-0.0976893	0.027321	0.284288	0.173673	0.140555	0.0708368	0.299982	0.152234	0.12051	0.070769	0.276171	0.102019	-0.180606	0.103495	-0.009919	0.105761	-0.196299	0.0579848	0.0134415	0.120021	-0.107327	0.042821	0.039031	0.34312	-0.230728	0.188475	-0.150501	
1.86615	0	0	0.236523	-0.112026	-0.002322	0.256283	0.197056	-0.098361	0.024594	0.291995	0.176449	0.142679	0.069289	0.304357	0.152234	0.12051	0.070769	0.276171	0.101081	-0.177955	0.103495	-0.009919	0.113505	-0.203928	0.056626	0.017282	0.1213	-0.110941	0.042821	0.039031	0.350616	-0.237957	0.193613	-0.165022	
1.87073	0	0	0.236151	-0.124143	-0.003217	0.246555	0.195611	-0.108468	0.0228388	0.287217	0.173673	0.140555	0.0708368	0.299982	0.144682	0.121239	0.0666785	0.275969	0.103976	-0.17577	0.101315	-0.003758	0.104578	-0.192956	0.0592457	0.0244347	0.125967	-0.108434	0.045884	0.0415038	0.353825	-0.233059	0.197483	-0.161971	
1.8692	0	0	0.235779	-0.13626	-0.004112	0.236827	0.194166	-0.118576	0.0210835	0.28244	0.170898	0.138431	0.0723845	0.295608	0.13713	0.121969	0.062588	0.275768	0.106872	-0.173585	0.099135	0.002403	0.0956515	-0.181984	0.0618655	0.0315875	0.130635	-0.105926	0.048947	0.0439765	0.357034	-0.22816	0.201354	-0.158921	
1.86615	0	0	0.235407	-0.148376	-0.005007	0.227099	0.192721	-0.128684	0.0193282	0.277662	0.168123	0.136306	0.0739323	0.291233	0.129577	0.122698	0.0584975	0.275567	0.109768	-0.171399	0.096955	0.008564	0.0867248	-0.171013	0.0644852	0.0387403	0.135302	-0.103418	0.05201	0.0464492	0.360243	-0.223262	0.205224	-0.15587	
1.86767	0	0	0.235035	-0.160493	-0.005902	0.217371	0.191276	-0.138791	0.017573	0.272884	0.165347	0.134182	0.07548	0.286859	0.122025	0.123427	0.054407	0.275365	0.112663	-0.169214	0.094775	0.014725	0.077798	-0.160041	0.067105	0.045893	0.139969	-0.100911	0.055073	0.048922	0.363452	-0.218364	0.209094	-0.152819	
1.86615	0	0	0.231251	-0.162958	-0.01154	0.221055	0.193816	-0.14597	0.013093	0.275811	0.164383	0.126942	0.07548	0.286859	0.124926	0.115227	0.051641	0.271427	0.104998	-0.168283	0.0980445	0.005485	0.0801633	-0.166725	0.0684655	0.0420478	0.141248	-0.104526	0.05201	0.0464492	0.368816	-0.233524	0.202638	-0.162542	
1.8631	0	0	0.227468	-0.165424	-0.017178	0.224739	0.196356	-0.153148	0.008613	0.278739	0.16342	0.119703	0.07548	0.286859	0.127827	0.107028	0.048875	0.267489	0.097334	-0.167352	0.101314	-0.003755	0.0825285	-0.17341	0.069826	0.0382025	0.142527	-0.108141	0.048947	0.0439765	0.37418	-0.248684	0.196183	-0.172264	
1.86462	0	0	0.223685	-0.167889	-0.022816	0.228423	0.198897	-0.160327	0.004133	0.281667	0.162457	0.112463	0.07548	0.286859	0.130729	0.0988285	0.046109	0.26355	0.0896695	-0.166421	0.104583	-0.012995	0.0848938	-0.180094	0.0711865	0.0343573	0.143806	-0.111756	0.045884	0.0415038	0.379544	-0.263843	0.189727	-0.181986	
1.86157	0	0	0.219901	-0.170354	-0.028454	0.232107	0.201437	-0.167506	-0.000347	0.284594	0.161493	0.105224	0.07548	0.286859	0.13363	0.090629	0.043343	0.259612	0.082005	-0.16549	0.107853	-0.022235	0.087259	-0.186779	0.072547	0.030512	0.145085	-0.115371	0.042821	0.039031	0.384908	-0.279003	0.183272	-0.191709	
1.86157	0	0	0.222548	-0.164676	-0.024297	0.244866	0.198897	-0.160327	0.002249	0.29673	0.166983	0.0996708	0.0723835	0.29561	0.135563	0.0851667	0.043343	0.259612	0.0915457	-0.171724	0.110574	-0.0192777	0.0938205	-0.191066	0.0765305	0.033823	0.152316	-0.120096	0.0510097	0.0381545	0.38598	-0.282032	0.190987	-0.199535	
1.8631	0	0	0.225195	-0.158998	-0.02014	0.257625	0.196356	-0.153148	0.004845	0.308866	0.172473	0.0941175	0.069287	0.304361	0.137495	0.0797045	0.043343	0.259612	0.101086	-0.177959	0.113294	-0.0163205	0.100382	-0.195354	0.080514	0.037134	0.159548	-0.124821	0.0591985	0.037278	0.387051	-0.28506	0.198702	-0.207361	
1.86157	0	0	0.227841	-0.153319	-0.015983	0.270383	0.193816	-0.14597	0.007441	0.321002	0.177963	0.0885642	0.0661905	0.313113	0.139428	0.0742422	0.043343	0.259612	0.110627	-0.184193	0.116014	-0.0133633	0.106943	-0.199641	0.0844975	0.040445	0.166779	-0.129546	0.0673873	0.0364015	0.388123	-0.288089	0.206417	-0.215187	
1.85699	0	0	0.230488	-0.147641	-0.011826	0.283142	0.191276	-0.138791	0.010037	0.333138	0.183453	0.083011	0.063094	0.321864	0.141361	0.06878	0.043343	0.259612	0.120168	-0.190427	0.118735	-0.010406	0.113505	-0.203928	0.088481	0.043756	0.17401	-0.134271	0.075576	0.035525	0.389195	-0.291118	0.214132	-0.223013	
1.86157	0	0	0.237685	-0.154814	-0.0174675	0.286828	0.191276	-0.138791	0.00912625	0.335711	0.176094	0.0838897	0.063094	0.321864	0.136621	0.0718773	0.0379362	0.263145	0.116414	-0.179818	0.117091	0.004893	0.109956	-0.193899	0.0883765	0.0586308	0.183371	-0.129265	0.0817135	0.0404718	0.397778	-0.287407	0.228331	-0.221145	
1.85852	0	0	0.244883	-0.161987	-0.023109	0.290515	0.191276	-0.138791	0.0082155	0.338284	0.168734	0.0847685	0.063094	0.321864	0.13188	0.0749745	0.0325295	0.266678	0.11266	-0.169208	0.115447	0.020192	0.106408	-0.18387	0.088272	0.0735055	0.192732	-0.124258	0.087851	0.0454185	0.40636	-0.283696	0.24253	-0.219278	
1.86005	0	0	0.25208	-0.16916	-0.0287505	0.294201	0.191276	-0.138791	0.00730475	0.340858	0.161375	0.0856473	0.063094	0.321864	0.12714	0.0780717	0.0271228	0.270211	0.108906	-0.158599	0.113803	0.035491	0.102859	-0.173842	0.0881675	0.0883802	0.202093	-0.119251	0.0939885	0.0503653	0.414942	-0.279985	0.25673	-0.21741	
1.85852	0	0	0.259277	-0.176333	-0.034392	0.297887	0.191276	-0.138791	0.006394	0.343431	0.154015	0.086526	0.063094	0.321864	0.1224	0.081169	0.021716	0.273744	0.105152	-0.147989	0.112159	0.05079	0.099311	-0.163813	0.088063	0.103255	0.211454	-0.114245	0.100126	0.055312	0.423525	-0.276274	0.270929	-0.215542	
1.85394	0	0	0.25814	-0.17312	-0.031128	0.300921	0.197807	-0.143059	0.007234	0.350801	0.15763	0.076311	0.0699712	0.31737	0.124331	0.0757103	0.0284442	0.266477	0.107968	-0.155947	0.117065	0.0475848	0.108243	-0.174791	0.088063	0.103255	0.219984	-0.122601	0.0970563	0.0528378	0.426742	-0.285367	0.268329	-0.222204	
1.85699	0	0	0.257003	-0.169907	-0.027864	0.303954	0.204339	-0.147326	0.008074	0.358171	0.161244	0.066096	0.0768485	0.312877	0.126263	0.0702515	0.0351725	0.259209	0.110784	-0.163906	0.12197	0.0443795	0.117176	-0.185769	0.088063	0.103255	0.228514	-0.130958	0.0939865	0.0503635	0.429959	-0.294459	0.26573	-0.228867	
1.85547	0	0	0.255866	-0.166694	-0.0246	0.306987	0.210871	-0.151594	0.008914	0.365542	0.164859	0.055881	0.0837258	0.308383	0.128194	0.0647927	0.0419008	0.251942	0.1136	-0.171864	0.126876	0.0411743	0.126108	-0.196746	0.088063	0.103255	0.237044	-0.139314	0.0909167	0.0478892	0.433177	-0.303552	0.26313	-0.235529	
1.84936	0	0	0.254729	-0.163481	-0.021336	0.310021	0.217402	-0.155862	0.009754	0.372912	0.168473	0.045666	0.090603	0.303889	0.130126	0.059334	0.048629	0.244675	0.116416	-0.179822	0.131781	0.037969	0.135041	-0.207724	0.088063	0.103255	0.245574	-0.14767	0.087847	0.045415	0.436394	-0.312645	0.260531	-0.242191	
1.85089	0	0	0.256242	-0.15458	-0.021643	0.323154	0.227938	-0.157222	0.0141685	0.379939	0.175764	0.0350178	0.0837258	0.308383	0.132056	0.0538785	0.048629	0.244675	0.122129	-0.185593	0.136689	0.0347618	0.136223	-0.211066	0.093414	0.102724	0.252829	-0.152411	0.0940092	0.0391495	0.438537	-0.318701	0.263094	-0.249434	
1.85089	0	0	0.257755	-0.145679	-0.02195	0.336286	0.238473	-0.158583	0.018583	0.386966	0.183056	0.0243695	0.0768485	0.312877	0.133987	0.048423	0.048629	0.244675	0.127841	-0.191364	0.141597	0.0315545	0.137406	-0.214408	0.098765	0.102192	0.260085	-0.157151	0.100171	0.032884	0.440681	-0.324758	0.265657	-0.256677	
1.85242	0	0	0.259268	-0.136779	-0.022257	0.349419	0.249008	-0.159944	0.0229975	0.393993	0.190347	0.0137212	0.0699712	0.31737	0.135917	0.0429675	0.048629	0.244675	0.133553	-0.197135	0.146506	0.0283473	0.138588	-0.217749	0.104116	0.101661	0.26734	-0.161892	0.106334	0.0266185	0.442824	-0.330815	0.268219	-0.26392	
1.84936	0	0	0.260781	-0.127878	-0.022564	0.362552	0.259544	-0.161304	0.027412	0.40102	0.197638	0.003073	0.063094	0.321864	0.137848	0.037512	0.048629	0.244675	0.139266	-0.202906	0.151414	0.02514	0.13977	-0.221091	0.109467	0.10113	0.274596	-0.166633	0.112496	0.020353	0.444967	-0.336871	0.270782	-0.271163	
1.84936	0	0	0.260781	-0.127878	-0.0237557	0.36592	0.254274	-0.160623	0.0220095	0.406534	0.193957	0.00351775	0.068422	0.321749	0.142588	0.0344147	0.048629	0.244675	0.138328	-0.200255	0.153047	0.0311965	0.145159	-0.222043	0.114822	0.100597	0.275876	-0.170251	0.1166	0.0199103	0.443895	-0.333843	0.270782	-0.271163	
1.85089	0	0	0.260781	-0.127878	-0.0249475	0.369289	0.249004	-0.159942	0.016607	0.412048	0.190277	0.0039625	0.07375	0.321634	0.147328	0.0313175	0.048629	0.244675	0.13739	-0.197603	0.154679	0.037253	0.150549	-0.222996	0.120178	0.100064	0.277157	-0.173869	0.120704	0.0194675	0.442824	-0.330815	0.270782	-0.271163	
1.84631	0	0	0.260781	-0.127878	-0.0261393	0.372657	0.243734	-0.15926	0.0112045	0.417563	0.186596	0.00440725	0.079078	0.321519	0.152068	0.0282202	0.048629	0.244675	0.136452	-0.194952	0.156312	0.0433095	0.155938	-0.223948	0.125533	0.099531	0.278437	-0.177487	0.124809	0.0190247	0.441752	-0.327788	0.270782	-0.271163	
1.84784	0	0	0.260781	-0.127878	-0.027331	0.376025	0.238464	-0.158579	0.005802	0.423077	0.182915	0.004852	0.084406	0.321404	0.156808	0.025123	0.048629	0.244675	0.135514	-0.192301	0.157945	0.049366	0.161327	-0.2249	0.130889	0.098998	0.279717	-0.181105	0.128913	0.018582	0.440681	-0.32476	0.270782	-0.271163	
1.84631	0	0	0.256993	-0.130349	-0.0249478	0.36929	0.239735	-0.162171	0.003141	0.420848	0.188323	-0.0104315	0.0806267	0.317142	0.154961	0.0200435	0.0458633	0.240744	0.135427	-0.202429	0.156312	0.0433095	0.159482	-0.233965	0.129626	0.0879652	0.280996	-0.184721	0.128913	0.018582	0.440681	-0.32476	0.259211	-0.252461	
1.84631	0	0	0.253205	-0.132821	-0.0225645	0.362555	0.241006	-0.165762	0.00048	0.418619	0.19373	-0.025715	0.0768475	0.312881	0.153114	0.014964	0.0430975	0.236813	0.135341	-0.212558	0.154679	0.037253	0.157638	-0.24303	0.128362	0.0769325	0.282276	-0.188337	0.128913	0.018582	0.440681	-0.32476	0.247641	-0.23376	
1.84479	0	0	0.249417	-0.135292	-0.0201813	0.35582	0.242276	-0.169354	-0.002181	0.416391	0.199138	-0.0409985	0.0730683	0.308619	0.151268	0.0098845	0.0403317	0.232882	0.135254	-0.222687	0.153047	0.0311965	0.155794	-0.252096	0.127099	0.0658998	0.283556	-0.191954	0.128913	0.018582	0.440681	-0.32476	0.23607	-0.215058	
1.84631	0	0	0.245629	-0.137763	-0.017798	0.349085	0.243547	-0.172946	-0.004842	0.414162	0.204546	-0.056282	0.069289	0.304357	0.149421	0.004805	0.037566	0.228951	0.135167	-0.232815	0.151414	0.02514	0.153949	-0.261161	0.125836	0.054867	0.284835	-0.19557	0.128913	0.018582	0.440681	-0.32476	0.224499	-0.196356	
1.84479	0	0	0.250555	-0.138509	-0.0270188	0.362878	0.248818	-0.173628	-0.002181	0.416391	0.21003	-0.0618212	0.077714	0.295489	0.150385	0.002081	0.037566	0.228951	0.136104	-0.235462	0.14869	0.0221755	0.15749	-0.271167	0.129923	0.0433165	0.289948	-0.210021	0.1392	0.00067275	0.433163	-0.331479	0.224469	-0.21026	
1.84479	0	0	0.255482	-0.139256	-0.0362395	0.376671	0.254088	-0.174311	0.00048	0.418619	0.215513	-0.0673605	0.086139	0.286621	0.151348	-0.000643	0.037566	0.228951	0.137041	-0.23811	0.145965	0.019211	0.16103	-0.281173	0.13401	0.031766	0.295061	-0.224471	0.149487	-0.0172365	0.425644	-0.338197	0.22444	-0.224164	
1.84021	0	0	0.260408	-0.140002	-0.0454603	0.390464	0.259358	-0.174993	0.003141	0.420848	0.220996	-0.0728997	0.094564	0.277752	0.152312	-0.003367	0.037566	0.228951	0.137977	-0.240757	0.14324	0.0162465	0.164571	-0.29118	0.138097	0.0202155	0.300175	-0.238922	0.159774	-0.0351458	0.418126	-0.344915	0.22441	-0.238069	
1.84631	0	0	0.265335	-0.140748	-0.054681	0.404257	0.264629	-0.175676	0.005802	0.423077	0.22648	-0.078439	0.102989	0.268884	0.153276	-0.006091	0.037566	0.228951	0.138914	-0.243404	0.140516	0.013282	0.168111	-0.301186	0.142184	0.008665	0.305288	-0.253373	0.170061	-0.053055	0.410608	-0.351634	0.22438	-0.251973	
1.84021	0	0	0.259638	-0.124648	-0.04816	0.410367	0.260814	-0.164892	0.0075505	0.42789	0.231148	-0.0717022	0.105226	0.277517	0.157937	0.001341	0.0430985	0.236817	0.145655	-0.241701	0.144873	0.022303	0.177718	-0.299771	0.146181	0.0119723	0.305288	-0.253373	0.170061	-0.053055	0.417041	-0.355838	0.228256	-0.24894	
1.83868	0	0	0.253942	-0.108549	-0.041639	0.416478	0.256998	-0.154109	0.009299	0.432704	0.235817	-0.0649655	0.107463	0.28615	0.162598	0.008773	0.048631	0.244683	0.152395	-0.239998	0.14923	0.031324	0.187326	-0.298355	0.150178	0.0152795	0.305288	-0.253373	0.170061	-0.053055	0.423474	-0.360041	0.232132	-0.245907	
1.84173	0	0	0.248245	-0.0924487	-0.035118	0.422588	0.253182	-0.143325	0.0110475	0.437517	0.240486	-0.0582288	0.1097	0.294782	0.167258	0.016205	0.0541635	0.252549	0.159135	-0.238295	0.153588	0.040345	0.196933	-0.29694	0.154174	0.0185867	0.305288	-0.253373	0.170061	-0.053055	0.429908	-0.364244	0.236009	-0.242873	
1.83563	0	0	0.242549	-0.076349	-0.028597	0.428699	0.249367	-0.132542	0.012796	0.44233	0.245154	-0.051492	0.111937	0.303415	0.171919	0.023637	0.059696	0.260415	0.165876	-0.236592	0.157945	0.049366	0.20654	-0.295525	0.158171	0.021894	0.305288	-0.253373	0.170061	-0.053055	0.436341	-0.368448	0.239885	-0.23984	
1.83716	0	0	0.238764	-0.0788295	-0.027403	0.425324	0.250639	-0.136138	0.015537	0.434583	0.248843	-0.0519433	0.113486	0.299036	0.174733	0.0259932	0.0583738	0.264153	0.166904	-0.229112	0.158482	0.0585245	0.201813	-0.282166	0.156808	0.0257458	0.31854	-0.259257	0.178287	-0.0539572	0.430988	-0.353319	0.245078	-0.226508	
1.83868	0	0	0.234979	-0.08131	-0.026209	0.42195	0.251912	-0.139734	0.018278	0.426837	0.252532	-0.0523945	0.115035	0.294658	0.177547	0.0283495	0.0570515	0.26789	0.167932	-0.221631	0.159019	0.067683	0.197086	-0.268807	0.155445	0.0295975	0.331792	-0.26514	0.186513	-0.0548595	0.425635	-0.338191	0.250271	-0.213176	
1.83716	0	0	0.231194	-0.0837905	-0.025015	0.418575	0.253184	-0.14333	0.021019	0.41909	0.25622	-0.0528457	0.116585	0.290279	0.180362	0.0307058	0.0557292	0.271628	0.168959	-0.214151	0.159557	0.0768415	0.19236	-0.255448	0.154082	0.0334492	0.345045	-0.271024	0.19474	-0.0557617	0.420281	-0.323062	0.255464	-0.199843	
1.83868	0	0	0.227409	-0.086271	-0.023821	0.415201	0.254456	-0.146926	0.02376	0.411343	0.259909	-0.053297	0.118134	0.2859	0.183176	0.033062	0.054407	0.275365	0.169987	-0.206671	0.160094	0.086	0.187633	-0.242089	0.152719	0.037301	0.358297	-0.276907	0.202966	-0.056664	0.414928	-0.307933	0.260657	-0.186511	
1.83411	0	0	0.226269	-0.08305	-0.030664	0.422266	0.25973	-0.147608	0.0201838	0.411696	0.26639	-0.0516512	0.116585	0.290279	0.184059	0.040884	0.05585	0.283049	0.172892	-0.20449	0.160094	0.086	0.187633	-0.242089	0.155444	0.029599	0.35486	-0.282985	0.20811	-0.071202	0.413848	-0.318858	0.259343	-0.196808	
1.83563	0	0	0.225129	-0.079829	-0.037507	0.429332	0.265004	-0.148289	0.0166075	0.412049	0.272872	-0.0500055	0.115035	0.294658	0.184942	0.048706	0.057293	0.290733	0.175797	-0.202309	0.160094	0.086	0.187633	-0.242089	0.15817	0.021897	0.351423	-0.289063	0.213254	-0.08574	0.412768	-0.329784	0.25803	-0.207104	
1.83716	0	0	0.22399	-0.076608	-0.04435	0.436397	0.270278	-0.148971	0.0130312	0.412401	0.279354	-0.0483597	0.113486	0.299036	0.185824	0.056528	0.058736	0.298418	0.178702	-0.200127	0.160094	0.086	0.187633	-0.242089	0.160895	0.014195	0.347986	-0.295141	0.218398	-0.100278	0.411688	-0.340709	0.256716	-0.2174	
1.83258	0	0	0.22285	-0.073387	-0.051193	0.443463	0.275552	-0.149652	0.009455	0.412754	0.285835	-0.046714	0.111937	0.303415	0.186707	0.06435	0.060179	0.306102	0.181607	-0.197946	0.160094	0.086	0.187633	-0.242089	0.163621	0.006493	0.344549	-0.301219	0.223542	-0.114816	0.410608	-0.351634	0.255402	-0.227697	
1.83716	0	0	0.225493	-0.0676792	-0.0479333	0.446525	0.273006	-0.142456	0.00854175	0.415335	0.287804	-0.0322937	0.115724	0.307678	0.189435	0.0772895	0.0670407	0.310256	0.182634	-0.190451	0.163916	0.0858822	0.191848	-0.239702	0.17307	-0.0055975	0.3471	-0.30843	0.222507	-0.123068	0.407387	-0.356498	0.256684	-0.231321	
1.83411	0	0	0.228136	-0.0619715	-0.0446735	0.449587	0.27046	-0.13526	0.0076285	0.417915	0.289772	-0.0178735	0.119511	0.311941	0.192163	0.090229	0.0739025	0.31441	0.18366	-0.182955	0.167737	0.0857645	0.196064	-0.237316	0.182519	-0.017688	0.349652	-0.315641	0.221472	-0.13132	0.404166	-0.361363	0.257966	-0.234944	
1.82953	0	0	0.230779	-0.0562637	-0.0414137	0.452648	0.267913	-0.128063	0.00671525	0.420496	0.291741	-0.00345325	0.123299	0.316204	0.19489	0.103168	0.0807642	0.318565	0.184686	-0.175459	0.171559	0.0856467	0.200279	-0.23493	0.191968	-0.0297785	0.352204	-0.322852	0.220438	-0.139572	0.400945	-0.366227	0.259249	-0.238567	
1.83411	0	0	0.233422	-0.050556	-0.038154	0.45571	0.265367	-0.120867	0.005802	0.423077	0.29371	0.010967	0.127086	0.320467	0.197618	0.116108	0.087626	0.322719	0.185713	-0.167964	0.175381	0.085529	0.204494	-0.232543	0.201417	-0.041869	0.354755	-0.330063	0.219403	-0.147824	0.397724	-0.371092	0.260531	-0.242191	
1.83411	0	0	0.229639	-0.0530415	-0.0414137	0.452648	0.261367	-0.123786	0.004966	0.41569	0.291974	0.0258745	0.123982	0.32924	0.197525	0.126704	0.0836453	0.333969	0.194438	-0.161397	0.172093	0.0948202	0.212935	-0.227765	0.198694	-0.0341735	0.360747	-0.331207	0.225573	-0.154086	0.403084	-0.372272	0.264414	-0.239155	
1.83258	0	0	0.225856	-0.055527	-0.0446735	0.449587	0.257367	-0.126704	0.00413	0.408304	0.290238	0.040782	0.120877	0.338012	0.197432	0.1373	0.0796645	0.345219	0.203163	-0.154831	0.168805	0.104111	0.221376	-0.222987	0.195971	-0.026478	0.36674	-0.332352	0.231744	-0.160348	0.408444	-0.373451	0.268296	-0.23612	
1.83105	0	0	0.222073	-0.0580125	-0.0479333	0.446525	0.253367	-0.129623	0.003294	0.400918	0.288501	0.0556895	0.117773	0.346785	0.197339	0.147896	0.0756837	0.356469	0.211888	-0.148264	0.165518	0.113403	0.229816	-0.218208	0.193248	-0.0187825	0.372732	-0.333496	0.237915	-0.16661	0.413803	-0.374631	0.272179	-0.233085	
1.83105	0	0	0.21829	-0.060498	-0.051193	0.443463	0.249367	-0.132542	0.002458	0.393531	0.286765	0.070597	0.114669	0.355558	0.197246	0.158492	0.071703	0.367719	0.220613	-0.141698	0.16223	0.122694	0.238257	-0.21343	0.190525	-0.011087	0.378725	-0.33464	0.244085	-0.172872	0.419163	-0.375811	0.276062	-0.230049	
1.83105	0	0	0.21451	-0.0629813	-0.0532577	0.437032	0.251911	-0.139732	0.007016	0.38065	0.29137	0.0675878	0.114669	0.355558	0.200063	0.16087	0.075799	0.367928	0.221555	-0.14436	0.166613	0.110308	0.234035	-0.21582	0.195968	-0.0264712	0.38	-0.338245	0.240993	-0.17531	0.40738	-0.370434	0.268331	-0.222209	
1.82648	0	0	0.210729	-0.0654645	-0.0553225	0.430601	0.254456	-0.146923	0.011574	0.367768	0.295975	0.0645785	0.114669	0.355558	0.20288	0.163248	0.079895	0.368137	0.222496	-0.147021	0.170996	0.0979215	0.229813	-0.21821	0.201412	-0.0418555	0.381276	-0.34185	0.237901	-0.177748	0.395596	-0.365057	0.2606	-0.214369	
1.82953	0	0	0.206948	-0.0679478	-0.0573873	0.424171	0.257	-0.154114	0.016132	0.354887	0.30058	0.0615692	0.114669	0.355558	0.205697	0.165626	0.083991	0.368346	0.223438	-0.149682	0.175378	0.0855353	0.225591	-0.2206	0.206855	-0.0572397	0.382551	-0.345454	0.234808	-0.180186	0.383813	-0.359679	0.252869	-0.206529	
1.82648	0	0	0.203168	-0.070431	-0.059452	0.41774	0.259544	-0.161304	0.02069	0.342006	0.305185	0.05856	0.114669	0.355558	0.208514	0.168004	0.088087	0.368555	0.22438	-0.152344	0.179761	0.073149	0.221369	-0.22299	0.212299	-0.072624	0.383827	-0.349059	0.231716	-0.182624	0.372029	-0.354302	0.245138	-0.198689	
1.82495	0	0	0.202028	-0.06721	-0.0549998	0.417423	0.258272	-0.15771	0.017116	0.342362	0.306165	0.0658025	0.12001	0.355443	0.211332	0.170384	0.0867585	0.37231	0.222496	-0.14702	0.180856	0.070055	0.226776	-0.223949	0.21903	-0.0770225	0.383827	-0.349059	0.233767	-0.188419	0.380589	-0.364538	0.239978	-0.198106	
1.82495	0	0	0.200888	-0.063989	-0.0505475	0.417106	0.257	-0.154115	0.013542	0.342718	0.307144	0.073045	0.12535	0.355328	0.214151	0.172763	0.08543	0.376065	0.220612	-0.141697	0.181951	0.066961	0.232183	-0.224908	0.225762	-0.081421	0.383827	-0.349059	0.235818	-0.194215	0.38915	-0.374773	0.234818	-0.197522	
1.82342	0	0	0.199749	-0.060768	-0.0460952	0.41679	0.255728	-0.150521	0.009968	0.343075	0.308124	0.0802875	0.130691	0.355213	0.216969	0.175143	0.0841015	0.379819	0.218729	-0.136373	0.183045	0.063867	0.23759	-0.225867	0.232493	-0.0858195	0.383827	-0.349059	0.237868	-0.20001	0.39771	-0.385009	0.229659	-0.196939	
1.8219	0	0	0.198609	-0.057547	-0.041643	0.416473	0.254456	-0.146926	0.006394	0.343431	0.309104	0.08753	0.136032	0.355098	0.219787	0.177523	0.082773	0.383574	0.216845	-0.131049	0.18414	0.060773	0.242997	-0.226826	0.239225	-0.090218	0.383827	-0.349059	0.239919	-0.205805	0.40627	-0.395245	0.224499	-0.196356	
1.82342	0	0	0.18799	-0.0406935	-0.045225	0.426596	0.245369	-0.135458	0.00457225	0.34858	0.312877	0.0969057	0.131368	0.36828	0.215898	0.188514	0.080114	0.391088	0.220781	-0.121328	0.185774	0.0668433	0.243664	-0.214378	0.240518	-0.0792355	0.381275	-0.341848	0.248159	-0.206734	0.408424	-0.387365	0.228375	-0.193311	
1.8219	0	0	0.17737	-0.02384	-0.048807	0.436719	0.236283	-0.123991	0.0027505	0.353729	0.31665	0.106282	0.126703	0.381462	0.212009	0.199506	0.077455	0.398603	0.224718	-0.111606	0.187409	0.0729135	0.244331	-0.20193	0.241812	-0.068253	0.378724	-0.334637	0.2564	-0.207664	0.410578	-0.379485	0.232251	-0.190267	
1.82342	0	0	0.166751	-0.0069865	-0.052389	0.446843	0.227196	-0.112523	0.00092875	0.358877	0.320422	0.115657	0.122039	0.394643	0.20812	0.210497	0.074796	0.406117	0.228654	-0.101885	0.189043	0.0789838	0.244998	-0.189482	0.243105	-0.0572705	0.376172	-0.327426	0.264641	-0.208593	0.412732	-0.371604	0.236127	-0.187222	
1.82037	0	0	0.156132	0.009867	-0.055971	0.456966	0.218109	-0.101055	-0.000893	0.364026	0.324195	0.125033	0.117375	0.407825	0.204231	0.221488	0.072137	0.413631	0.23259	-0.092164	0.190677	0.085054	0.245665	-0.177034	0.244398	-0.046288	0.373621	-0.320215	0.272881	-0.209522	0.414886	-0.363724	0.240003	-0.184177	
1.82037	0	0	0.152363	0.007371	-0.0547765	0.45359	0.219382	-0.104653	1.8E-05	0.361451	0.3214	0.12291	0.113591	0.403539	0.205204	0.218739	0.069372	0.409661	0.231646	-0.089496	0.185758	0.0882688	0.244478	-0.173679	0.244398	-0.046288	0.368512	-0.305776	0.269803	-0.200822	0.409534	-0.3486	0.240024	-0.170228	
1.82037	0	0	0.148593	0.004875	-0.053582	0.450214	0.220655	-0.10825	0.000929	0.358877	0.318605	0.120787	0.109808	0.399254	0.206176	0.21599	0.066607	0.405691	0.230702	-0.086828	0.180838	0.0914835	0.24329	-0.170323	0.244398	-0.046288	0.363402	-0.291337	0.266724	-0.192122	0.404183	-0.333477	0.240045	-0.156278	
1.81885	0	0	0.144823	0.002379	-0.0523875	0.446839	0.221928	-0.111848	0.00184	0.356302	0.315811	0.118664	0.106024	0.394969	0.207149	0.213241	0.063842	0.401721	0.229758	-0.08416	0.175919	0.0946982	0.242103	-0.166967	0.244398	-0.046288	0.358293	-0.276898	0.263645	-0.183422	0.398832	-0.318353	0.240067	-0.142328	
1.82037	0	0	0.141054	-0.000117	-0.051193	0.443463	0.223201	-0.115445	0.002751	0.353727	0.313016	0.116541	0.10224	0.390683	0.208122	0.210492	0.061077	0.397751	0.228814	-0.081492	0.170999	0.097913	0.240916	-0.163612	0.244398	-0.046288	0.353184	-0.262459	0.260567	-0.174722	0.39348	-0.303229	0.240088	-0.128379	
1.82037	0	0	0.139913	0.0031075	-0.0467385	0.443148	0.221928	-0.111848	0.002751	0.353727	0.313924	0.113974	0.107579	0.390572	0.205305	0.208107	0.0624055	0.393996	0.230782	-0.076621	0.168807	0.104108	0.23854	-0.156897	0.247051	-0.0391377	0.351905	-0.258846	0.25542	-0.171359	0.407423	-0.314667	0.249113	-0.139865	
1.81732	0	0	0.138772	0.006332	-0.042284	0.442832	0.220655	-0.10825	0.002751	0.353727	0.314833	0.111407	0.112919	0.390462	0.202489	0.205723	0.063734	0.390242	0.232749	-0.07175	0.166614	0.110303	0.236164	-0.150183	0.249704	-0.0319875	0.350627	-0.255232	0.250273	-0.167995	0.421366	-0.326104	0.258138	-0.15135	
1.81885	0	0	0.137631	0.0095565	-0.0378295	0.442517	0.219382	-0.104653	0.002751	0.353727	0.315741	0.108839	0.118258	0.390352	0.199672	0.203338	0.0650625	0.386487	0.234716	-0.066879	0.164422	0.116499	0.233788	-0.143468	0.252357	-0.0248373	0.349349	-0.251619	0.245126	-0.164632	0.435308	-0.337541	0.267163	-0.162836	
1.81732	0	0	0.13649	0.012781	-0.033375	0.442202	0.218109	-0.101055	0.002751	0.353727	0.316649	0.106272	0.123597	0.390241	0.196855	0.200953	0.066391	0.382732	0.236684	-0.062008	0.16223	0.122694	0.231412	-0.136754	0.25501	-0.017687	0.34807	-0.248005	0.239979	-0.161269	0.449251	-0.348979	0.276188	-0.174322	
1.81885	0	0	0.140259	0.0152795	-0.0381573	0.455718	0.210299	-0.0931852	0.00092875	0.358877	0.316649	0.106272	0.122041	0.394637	0.196855	0.200953	0.0568815	0.38606	0.233848	-0.0539925	0.158939	0.131995	0.234447	-0.130986	0.257663	-0.0105253	0.355344	-0.252758	0.243072	-0.158828	0.455694	-0.353189	0.283931	-0.182174	
1.81885	0	0	0.144027	0.017778	-0.0429395	0.469233	0.202489	-0.0853155	-0.0008935	0.364028	0.316649	0.106272	0.120486	0.399033	0.196855	0.200953	0.047372	0.389389	0.231012	-0.045977	0.155648	0.141296	0.237481	-0.125218	0.260317	-0.0033635	0.362618	-0.257511	0.246165	-0.156386	0.462137	-0.357399	0.291674	-0.190026	
1.82037	0	0	0.147795	0.0202765	-0.0477218	0.482749	0.19468	-0.0774458	-0.00271575	0.369178	0.316649	0.106272	0.11893	0.403429	0.196855	0.200953	0.0378625	0.392717	0.228175	-0.0379615	0.152357	0.150598	0.240515	-0.11945	0.26297	0.00379825	0.369892	-0.262264	0.249258	-0.153944	0.46858	-0.361609	0.299416	-0.197879	
1.81732	0	0	0.151564	0.022775	-0.052504	0.496265	0.18687	-0.069576	-0.004538	0.374328	0.316649	0.106272	0.117375	0.407825	0.196855	0.200953	0.028353	0.396045	0.225339	-0.029946	0.149066	0.159899	0.24355	-0.113682	0.265623	0.01096	0.377166	-0.267017	0.252351	-0.151503	0.475023	-0.365819	0.307159	-0.205731	
1.8219	0	0	0.148936	0.017052	-0.042069	0.479056	0.190689	-0.0803683	-0.00271575	0.369178	0.31469	0.0917825	0.115145	0.399148	0.193167	0.190703	0.028246	0.384585	0.218646	-0.0214613	0.144149	0.163112	0.24236	-0.110319	0.254776	0.0269545	0.374607	-0.259786	0.250296	-0.145695	0.465366	-0.352525	0.316231	-0.203277	
1.81885	0	0	0.146309	0.011329	-0.031634	0.461846	0.194507	-0.0911605	-0.0008935	0.364028	0.31273	0.077293	0.112916	0.39047	0.189479	0.180453	0.028139	0.373126	0.211952	-0.0129765	0.139232	0.166324	0.24117	-0.106956	0.243929	0.042949	0.372049	-0.252555	0.248241	-0.139886	0.455708	-0.339232	0.325303	-0.200824	
1.81732	0	0	0.143682	0.005606	-0.021199	0.444636	0.198326	-0.101953	0.00092875	0.358877	0.310771	0.0628035	0.110686	0.381793	0.185792	0.170203	0.028032	0.361667	0.205259	-0.00449175	0.134315	0.169537	0.23998	-0.103593	0.233083	0.0589435	0.36949	-0.245323	0.246185	-0.134077	0.446051	-0.325939	0.334376	-0.198371	
1.81885	0	0	0.141054	-0.000117	-0.010764	0.427427	0.202145	-0.112745	0.002751	0.353727	0.308811	0.048314	0.108456	0.373116	0.182104	0.159953	0.027925	0.350207	0.198566	0.003993	0.129398	0.172749	0.23879	-0.10023	0.222236	0.074938	0.366931	-0.238092	0.24413	-0.128269	0.436394	-0.312645	0.343448	-0.195917	
1.81427	0	0	0.143335	-0.00656275	-0.0164168	0.431121	0.196885	-0.112072	0.00184	0.356302	0.305036	0.0389773	0.103121	0.373227	0.177448	0.152464	0.0156785	0.349575	0.194714	0.00445425	0.129398	0.172749	0.232188	-0.0959162	0.222236	0.074938	0.36949	-0.245323	0.242065	-0.133617	0.441749	-0.327779	0.343407	-0.209854	
1.81274	0	0	0.145616	-0.0130085	-0.0220695	0.434814	0.191626	-0.111398	0.000929	0.358877	0.301261	0.0296405	0.097786	0.373339	0.172791	0.144975	0.003432	0.348942	0.190861	0.0049155	0.129398	0.172749	0.225586	-0.0916025	0.222236	0.074938	0.372049	-0.252555	0.240001	-0.138965	0.447104	-0.342913	0.343367	-0.223791	
1.81579	0	0	0.147896	-0.0194542	-0.0277223	0.438508	0.186366	-0.110725	1.8E-05	0.361451	0.297485	0.0203037	0.092451	0.373451	0.168135	0.137485	-0.0088145	0.34831	0.187009	0.00537675	0.129398	0.172749	0.218985	-0.0872887	0.222236	0.074938	0.374607	-0.259786	0.237936	-0.144313	0.452459	-0.358047	0.343326	-0.237727	
1.81579	0	0	0.150177	-0.0259	-0.033375	0.442202	0.181107	-0.110052	-0.000893	0.364026	0.29371	0.010967	0.087116	0.373562	0.163479	0.129996	-0.021061	0.347678	0.183157	0.005838	0.129398	0.172749	0.212383	-0.082975	0.222236	0.074938	0.377166	-0.267017	0.235871	-0.149661	0.457814	-0.373181	0.343286	-0.251664	
1.81427	0	0	0.146755	-0.0162298	-0.0256518	0.444947	0.185094	-0.107129	-5.525E-05	0.371402	0.294615	0.0084105	0.0855627	0.377951	0.161636	0.124889	-0.0197375	0.343938	0.182211	0.00851225	0.134841	0.178738	0.217795	-0.0839245	0.226247	0.0782613	0.377166	-0.267017	0.234844	-0.146758	0.458884	-0.376205	0.35232	-0.263145	
1.81427	0	0	0.143334	-0.0065595	-0.0179285	0.447692	0.189082	-0.104207	0.0007825	0.378779	0.295519	0.005854	0.0840095	0.382341	0.159793	0.119781	-0.018414	0.340197	0.181264	0.0111865	0.140284	0.184727	0.223206	-0.084874	0.230259	0.0815845	0.377166	-0.267017	0.233817	-0.143855	0.459954	-0.379228	0.361355	-0.274625	
1.81579	0	0	0.139912	0.00311075	-0.0102052	0.450437	0.193069	-0.101284	0.00162025	0.386155	0.296424	0.0032975	0.0824563	0.386731	0.157949	0.114674	-0.0170905	0.336456	0.180318	0.0138608	0.145727	0.190717	0.228617	-0.0858235	0.23427	0.0849078	0.377166	-0.267017	0.23279	-0.140953	0.461024	-0.382252	0.370389	-0.286106	
1.81122	0	0	0.13649	0.012781	-0.002482	0.453182	0.197056	-0.098361	0.002458	0.393531	0.297328	0.000741	0.080903	0.39112	0.156106	0.109567	-0.015767	0.332716	0.179372	0.016535	0.15117	0.196706	0.234029	-0.086773	0.238282	0.088231	0.377166	-0.267017	0.231763	-0.13805	0.462094	-0.385276	0.379423	-0.297587	
1.81274	0	0	0.133864	0.00706225	-0.0114	0.453814	0.19434	-0.104877	-0.0011145	0.393883	0.292649	-0.0060195	0.0755735	0.391228	0.150487	0.104832	-0.0279893	0.332082	0.174637	0.0299183	0.14567	0.212251	0.229263	-0.073303	0.238184	0.103178	0.375887	-0.263402	0.233827	-0.132699	0.470703	-0.381598	0.387236	-0.291533	
1.81427	0	0	0.131238	0.0013435	-0.020318	0.454446	0.191625	-0.111393	-0.004687	0.394236	0.28797	-0.01278	0.070244	0.391336	0.144868	0.100098	-0.0402115	0.331449	0.169901	0.0433015	0.14017	0.227796	0.224496	-0.059833	0.238086	0.118126	0.374608	-0.259788	0.235891	-0.127348	0.479312	-0.37792	0.395049	-0.285479	
1.80969	0	0	0.128612	-0.00437525	-0.029236	0.455078	0.188909	-0.117908	-0.0082595	0.394589	0.283291	-0.0195405	0.0649145	0.391443	0.139249	0.0953635	-0.0524338	0.330815	0.165165	0.0566848	0.134669	0.243341	0.21973	-0.046363	0.237989	0.133073	0.373329	-0.256173	0.237954	-0.121997	0.487921	-0.374242	0.402863	-0.279425	
1.80969	0	0	0.125986	-0.010094	-0.038154	0.45571	0.186193	-0.124424	-0.011832	0.394941	0.278612	-0.026301	0.059585	0.391551	0.13363	0.090629	-0.064656	0.330181	0.16043	0.070068	0.129169	0.258886	0.214964	-0.032893	0.237891	0.14802	0.37205	-0.252558	0.240018	-0.116646	0.49653	-0.370564	0.410676	-0.273371	
1.81122	0	0	0.127126	-0.013315	-0.0268448	0.44832	0.186193	-0.124424	-0.00734725	0.392011	0.275823	-0.0284015	0.059585	0.391551	0.126085	0.0913598	-0.064656	0.330181	0.162325	0.0647122	0.128068	0.261998	0.216156	-0.0362625	0.239262	0.144145	0.369889	-0.262256	0.243101	-0.12536	0.501881	-0.385688	0.409335	-0.283654	
1.81122	0	0	0.128266	-0.016536	-0.0155355	0.440931	0.186193	-0.124424	-0.0028625	0.38908	0.273033	-0.030502	0.059585	0.391551	0.11854	0.0920905	-0.064656	0.330181	0.16422	0.0593565	0.126967	0.265111	0.217349	-0.039632	0.240634	0.140269	0.367729	-0.271954	0.246185	-0.134074	0.507233	-0.400811	0.407994	-0.293937	
1.80969	0	0	0.129406	-0.019757	-0.00422625	0.433541	0.186193	-0.124424	0.00162225	0.38615	0.270244	-0.0326025	0.059585	0.391551	0.110995	0.0928212	-0.064656	0.330181	0.166115	0.0540008	0.125865	0.268223	0.218541	-0.0430015	0.242005	0.136394	0.365568	-0.281651	0.249268	-0.142789	0.512584	-0.415935	0.406653	-0.30422	
1.81122	0	0	0.130546	-0.022978	0.007083	0.426151	0.186193	-0.124424	0.006107	0.38322	0.267454	-0.034703	0.059585	0.391551	0.10345	0.093552	-0.064656	0.330181	0.16801	0.048645	0.124764	0.271335	0.219733	-0.046371	0.243376	0.132519	0.363407	-0.291349	0.252351	-0.151503	0.517936	-0.431059	0.405312	-0.314503	
1.81122	0	0	0.135454	-0.0237085	0.0058875	0.429529	0.18365	-0.117237	0.002457	0.393536	0.266551	-0.0321517	0.0580318	0.395941	0.104416	0.090822	-0.0713678	0.337439	0.16801	0.048645	0.126381	0.277462	0.219733	-0.046371	0.250134	0.128103	0.359968	-0.297423	0.254405	-0.157308	0.501813	-0.427491	0.414354	-0.325984	
1.80817	0	0	0.140362	-0.024439	0.004692	0.432908	0.181107	-0.110049	-0.001193	0.403851	0.265649	-0.0296005	0.0564785	0.40033	0.105382	0.088092	-0.0780795	0.344696	0.16801	0.048645	0.127997	0.283589	0.219733	-0.046371	0.256892	0.123688	0.35653	-0.303497	0.256459	-0.163112	0.48569	-0.423923	0.423396	-0.337465	
1.80969	0	0	0.145269	-0.0251695	0.0034965	0.436286	0.178563	-0.102861	-0.004843	0.414166	0.264746	-0.0270492	0.0549253	0.40472	0.106348	0.085362	-0.0847912	0.351954	0.16801	0.048645	0.129614	0.289715	0.219733	-0.046371	0.26365	0.119272	0.353092	-0.30957	0.258513	-0.168917	0.469568	-0.420355	0.432438	-0.348946	
1.80969	0	0	0.150177	-0.0259	0.002301	0.439664	0.17602	-0.095674	-0.008493	0.424482	0.263843	-0.024498	0.053372	0.40911	0.107314	0.082632	-0.091503	0.359212	0.16801	0.048645	0.13123	0.295842	0.219733	-0.046371	0.270408	0.114856	0.349653	-0.315644	0.260567	-0.174722	0.453445	-0.416787	0.44148	-0.360427	
1.80664	0	0	0.142989	-0.0187262	0.002301	0.439664	0.17602	-0.095674	-0.0120648	0.424832	0.26023	-0.014286	0.051818	0.413501	0.105382	0.0880925	-0.0887587	0.363167	0.166115	0.0540008	0.131742	0.305097	0.217348	-0.0396307	0.267665	0.122608	0.352204	-0.322852	0.265717	-0.178087	0.451308	-0.410747	0.440198	-0.356803	
1.81122	0	0	0.135802	-0.0115525	0.002301	0.439664	0.17602	-0.095674	-0.0156365	0.425183	0.256616	-0.004074	0.050264	0.417893	0.103449	0.093553	-0.0860145	0.367121	0.16422	0.0593565	0.132254	0.314352	0.214963	-0.0328905	0.264922	0.13036	0.354754	-0.33006	0.270867	-0.181452	0.449171	-0.404706	0.438916	-0.35318	
1.81122	0	0	0.128614	-0.00437875	0.002301	0.439664	0.17602	-0.095674	-0.0192083	0.425533	0.253003	0.006138	0.04871	0.422285	0.101517	0.0990135	-0.0832703	0.371076	0.162325	0.0647122	0.132765	0.323606	0.212578	-0.0261502	0.262179	0.138113	0.357304	-0.337268	0.276018	-0.184817	0.447033	-0.398666	0.437633	-0.349556	
1.81122	0	0	0.121426	0.002795	0.002301	0.439664	0.17602	-0.095674	-0.02278	0.425883	0.249389	0.01635	0.047156	0.426676	0.099585	0.104474	-0.080526	0.375031	0.16043	0.070068	0.133277	0.332861	0.210193	-0.01941	0.259436	0.145865	0.359855	-0.344476	0.281168	-0.188182	0.444896	-0.392626	0.436351	-0.345933	
1.80969	0	0	0.124845	-0.00686825	-0.0054235	0.436923	0.178563	-0.102861	-0.020043	0.418148	0.256695	0.00568725	0.0418328	0.426778	0.100551	0.101744	-0.080526	0.375031	0.16043	0.070068	0.128352	0.336079	0.211386	-0.0227807	0.25405	0.146404	0.359855	-0.344476	0.274991	-0.181915	0.448126	-0.387765	0.437699	-0.335659	
1.80664	0	0	0.128265	-0.0165315	-0.013148	0.434181	0.181107	-0.110049	-0.017306	0.410412	0.264001	-0.0049755	0.0365095	0.42688	0.101518	0.099013	-0.080526	0.375031	0.16043	0.070068	0.123426	0.339298	0.212579	-0.0261515	0.248663	0.146943	0.359855	-0.344476	0.268814	-0.175648	0.451355	-0.382903	0.439047	-0.325385	
1.80511	0	0	0.131684	-0.0261948	-0.0208725	0.43144	0.18365	-0.117237	-0.014569	0.402676	0.271306	-0.0156383	0.0311863	0.426982	0.102484	0.0962825	-0.080526	0.375031	0.16043	0.070068	0.118501	0.342516	0.213771	-0.0295222	0.243277	0.147481	0.359855	-0.344476	0.262637	-0.169381	0.454585	-0.378042	0.440395	-0.315111	
1.80817	0	0	0.135103	-0.035858	-0.028597	0.428699	0.186193	-0.124424	-0.011832	0.394941	0.278612	-0.026301	0.025863	0.427084	0.10345	0.093552	-0.080526	0.375031	0.16043	0.070068	0.113576	0.345734	0.214964	-0.032893	0.237891	0.14802	0.359855	-0.344476	0.25646	-0.163114	0.457814	-0.373181	0.441743	-0.304837	
1.80664	0	0	0.135103	-0.035858	-0.0217502	0.421631	0.186193	-0.124424	-0.0064355	0.389434	0.276805	-0.021195	0.025863	0.427084	0.107221	0.093187	-0.0818495	0.378771	0.155634	0.0732015	0.11468	0.342614	0.210746	-0.0353168	0.23388	0.144684	0.357688	-0.354129	0.259539	-0.171817	0.454585	-0.378042	0.440395	-0.315111	
1.80817	0	0	0.135103	-0.035858	-0.0149035	0.414563	0.186193	-0.124424	-0.001039	0.383927	0.274999	-0.016089	0.025863	0.427084	0.110992	0.092822	-0.083173	0.382512	0.150838	0.076335	0.115784	0.339494	0.206529	-0.0377405	0.22987	0.141347	0.355521	-0.363783	0.262618	-0.180519	0.451355	-0.382903	0.439047	-0.325385	
1.80664	0	0	0.135103	-0.035858	-0.00805675	0.407494	0.186193	-0.124424	0.0043575	0.378419	0.273192	-0.010983	0.025863	0.427084	0.114764	0.092457	-0.0844965	0.386252	0.146043	0.0794685	0.116888	0.336374	0.202311	-0.0401642	0.225859	0.13801	0.353354	-0.373436	0.265698	-0.189222	0.448126	-0.387765	0.437699	-0.335659	
1.80664	0	0	0.135103	-0.035858	-0.00121	0.400426	0.186193	-0.124424	0.009754	0.372912	0.271385	-0.005877	0.025863	0.427084	0.118535	0.092092	-0.08582	0.389993	0.141247	0.082602	0.117992	0.333254	0.198093	-0.042588	0.221848	0.134674	0.351187	-0.383089	0.268777	-0.197925	0.444896	-0.392626	0.436351	-0.345933	
1.80664	0	0	0.131684	-0.0261948	0.00086325	0.406857	0.190181	-0.121504	0.00793	0.378067	0.274251	0.00600725	0.0311863	0.426982	0.1137	0.105758	-0.0844007	0.3977	0.147997	0.0843725	0.116888	0.336374	0.194516	-0.0324798	0.225859	0.13801	0.345204	-0.381944	0.273927	-0.20129	0.450265	-0.393811	0.435068	-0.342308	
1.80969	0	0	0.128265	-0.0165315	0.0029365	0.413289	0.194169	-0.118585	0.006106	0.383221	0.277118	0.0178915	0.0365095	0.42688	0.108864	0.119423	-0.0829815	0.405407	0.154746	0.086143	0.115784	0.339494	0.190939	-0.0223715	0.22987	0.141347	0.339221	-0.380799	0.279077	-0.204655	0.455634	-0.394996	0.433785	-0.338682	
1.80817	0	0	0.124845	-0.00686825	0.00500975	0.41972	0.198157	-0.115665	0.004282	0.388376	0.279984	0.0297758	0.0418328	0.426778	0.104028	0.133089	-0.0815623	0.413114	0.161496	0.0879135	0.11468	0.342614	0.187363	-0.0122632	0.23388	0.144684	0.333237	-0.379654	0.284228	-0.208021	0.461003	-0.396182	0.432503	-0.335057	
1.80511	0	0	0.121426	0.002795	0.007083	0.426151	0.202145	-0.112745	0.002458	0.393531	0.28285	0.04166	0.047156	0.426676	0.099193	0.146755	-0.080143	0.420821	0.168245	0.089684	0.113576	0.345734	0.183786	-0.002155	0.237891	0.14802	0.327254	-0.378509	0.289378	-0.211386	0.466372	-0.397367	0.43122	-0.331432	
1.80511	0	0	0.123706	-0.00364825	0.0106665	0.416024	0.203417	-0.116339	0.00162025	0.386155	0.275598	0.0621548	0.0424897	0.439864	0.101894	0.159726	-0.0813808	0.436045	0.167349	0.102648	0.109156	0.358224	0.185613	0.0070265	0.239158	0.159122	0.330691	-0.372458	0.28837	-0.197339	0.456733	-0.370126	0.435195	-0.314489	
1.80054	0	0	0.125986	-0.0100915	0.01425	0.405896	0.204689	-0.119934	0.0007825	0.378779	0.268346	0.0826495	0.0378235	0.453052	0.104595	0.172697	-0.0826185	0.451268	0.166454	0.115612	0.104737	0.370715	0.187439	0.016208	0.240426	0.170225	0.334128	-0.366406	0.287361	-0.183292	0.447094	-0.342885	0.439171	-0.297546	
1.80206	0	0	0.128266	-0.0165348	0.0178335	0.395769	0.205961	-0.123529	-5.525E-05	0.371402	0.261094	0.103144	0.0331572	0.466241	0.107295	0.185668	-0.0838563	0.466492	0.165558	0.128575	0.100318	0.383205	0.189266	0.0253895	0.241693	0.181327	0.337565	-0.360355	0.286353	-0.169245	0.437455	-0.315643	0.443146	-0.280602	
1.80359	0	0	0.130546	-0.022978	0.021417	0.385642	0.207233	-0.127123	-0.000893	0.364026	0.253842	0.123639	0.028491	0.479429	0.109996	0.198639	-0.085094	0.481716	0.164662	0.141539	0.095898	0.395695	0.191092	0.034571	0.24296	0.192429	0.341002	-0.354304	0.285344	-0.155198	0.427816	-0.288402	0.447121	-0.263659	
1.80359	0	0	0.124502	-0.0190292	0.0157602	0.389338	0.200702	-0.122855	1.8E-05	0.361451	0.256629	0.125763	0.0353738	0.474932	0.11183	0.203766	-0.0769485	0.482168	0.164662	0.141539	0.0942908	0.389542	0.192286	0.0311952	0.244334	0.188547	0.341002	-0.354304	0.284316	-0.152292	0.426743	-0.28537	0.439347	-0.255783	
1.80511	0	0	0.118459	-0.0150805	0.0101035	0.393034	0.19417	-0.118588	0.000929	0.358877	0.259416	0.127887	0.0422565	0.470434	0.113665	0.208892	-0.068803	0.482619	0.164662	0.141539	0.0926835	0.383389	0.193481	0.0278195	0.245707	0.184665	0.341002	-0.354304	0.283288	-0.149387	0.42567	-0.282338	0.431573	-0.247908	
1.80359	0	0	0.112416	-0.0111318	0.00444675	0.39673	0.187638	-0.11432	0.00184	0.356302	0.262204	0.13001	0.0491393	0.465937	0.115499	0.214019	-0.0606575	0.483071	0.164662	0.141539	0.0910762	0.377236	0.194676	0.0244438	0.247081	0.180782	0.341002	-0.354304	0.282259	-0.146482	0.424598	-0.279306	0.4238	-0.240032	
1.80664	0	0	0.106372	-0.007183	-0.00121	0.400426	0.181107	-0.110052	0.002751	0.353727	0.264991	0.132134	0.056022	0.46144	0.117333	0.219145	-0.052512	0.483523	0.164662	0.141539	0.089469	0.371083	0.19587	0.021068	0.248454	0.1769	0.341002	-0.354304	0.281231	-0.143576	0.423525	-0.276274	0.416026	-0.232156	
1.80206	0	0	0.108995	-0.001465	0.00205825	0.40348	0.186366	-0.110725	0.00632475	0.353372	0.265962	0.139396	0.0513485	0.474647	0.122946	0.22392	-0.051096	0.491268	0.170416	0.135714	0.0867575	0.368057	0.194676	0.0244438	0.255217	0.172481	0.338454	-0.347102	0.278145	-0.134853	0.41494	-0.266	0.413451	-0.224878	
1.80359	0	0	0.111617	0.004253	0.0053265	0.406535	0.191626	-0.111398	0.0098985	0.353016	0.266933	0.146657	0.046675	0.487855	0.128559	0.228695	-0.04968	0.499014	0.17617	0.12989	0.084046	0.365031	0.193481	0.0278195	0.261981	0.168062	0.335905	-0.3399	0.275058	-0.126131	0.406355	-0.255727	0.410876	-0.2176	
1.80359	0	0	0.11424	0.009971	0.00859475	0.409589	0.196885	-0.112072	0.0134722	0.35266	0.267903	0.153919	0.0420015	0.501062	0.134172	0.233469	-0.048264	0.50676	0.181924	0.124065	0.0813345	0.362005	0.192286	0.0311952	0.268744	0.163642	0.333357	-0.332698	0.271972	-0.117408	0.39777	-0.245453	0.4083	-0.210321	
1.80206	0	0	0.116863	0.015689	0.011863	0.412643	0.202145	-0.112745	0.017046	0.352305	0.268874	0.161181	0.037328	0.51427	0.139785	0.238244	-0.046848	0.514505	0.187678	0.118241	0.078623	0.358979	0.191092	0.034571	0.275507	0.159223	0.330808	-0.325496	0.268886	-0.108685	0.389185	-0.235179	0.405725	-0.203043	
1.80206	0	0	0.11196	0.0164145	0.00859475	0.409589	0.19163	-0.1114	0.0188677	0.347156	0.265236	0.171464	0.0357688	0.518677	0.135895	0.249239	-0.044101	0.518497	0.181924	0.124065	0.075913	0.355955	0.195309	0.0370093	0.271385	0.170874	0.332967	-0.315819	0.26786	-0.0945833	0.394541	-0.222329	0.407055	-0.192707	
1.80206	0	0	0.107058	0.01714	0.0053265	0.406535	0.181116	-0.110056	0.0206895	0.342008	0.261597	0.181746	0.0342095	0.523084	0.132004	0.260234	-0.041354	0.522489	0.17617	0.12989	0.073203	0.352932	0.199526	0.0394475	0.267262	0.182526	0.335125	-0.306142	0.266834	-0.0804815	0.399898	-0.209479	0.408385	-0.182371	
1.80206	0	0	0.102156	0.0178655	0.00205825	0.40348	0.170602	-0.108711	0.0225113	0.336859	0.257958	0.192029	0.0326502	0.527491	0.128113	0.271229	-0.038607	0.52648	0.170416	0.135714	0.070493	0.349908	0.203742	0.0418857	0.263139	0.194177	0.337284	-0.296466	0.265809	-0.0663798	0.405254	-0.196628	0.409714	-0.172035	
1.80511	0	0	0.097253	0.018591	-0.00121	0.400426	0.160087	-0.107366	0.024333	0.33171	0.25432	0.202312	0.031091	0.531898	0.124223	0.282224	-0.03586	0.530472	0.164662	0.141539	0.067783	0.346884	0.207959	0.044324	0.259017	0.205828	0.339443	-0.286789	0.264783	-0.052278	0.41061	-0.183778	0.411044	-0.161699	
1.80206	0	0	0.0934938	0.0160935	-0.00893225	0.397695	0.161358	-0.110958	0.023489	0.324352	0.253354	0.195038	0.0326502	0.527491	0.129949	0.276368	-0.0291145	0.52317	0.165558	0.128575	0.0656692	0.331511	0.206131	0.0351355	0.256376	0.198596	0.336888	-0.27957	0.261687	-0.0435297	0.394498	-0.166231	0.394202	-0.142278	
1.80359	0	0	0.0897345	0.013596	-0.0166545	0.394964	0.162629	-0.114549	0.022645	0.316993	0.252387	0.187765	0.0342095	0.523084	0.135676	0.270512	-0.022369	0.515869	0.166454	0.115612	0.0635555	0.316137	0.204302	0.025947	0.253736	0.191364	0.334334	-0.27235	0.258592	-0.0347815	0.378386	-0.148684	0.37736	-0.122858	
1.80054	0	0	0.0859753	0.0110985	-0.0243768	0.392233	0.163899	-0.118141	0.021801	0.309634	0.25142	0.180491	0.0357688	0.518677	0.141402	0.264656	-0.0156235	0.508568	0.167349	0.102648	0.0614417	0.300763	0.202474	0.0167585	0.251095	0.184132	0.33178	-0.26513	0.255497	-0.0260333	0.362275	-0.131138	0.360517	-0.103437	
1.80206	0	0	0.082216	0.008601	-0.032099	0.389502	0.16517	-0.121733	0.020957	0.302276	0.250454	0.173217	0.037328	0.51427	0.147128	0.2588	-0.008878	0.501266	0.168245	0.089684	0.059328	0.28539	0.200646	0.00757	0.248454	0.1769	0.329225	-0.257911	0.252401	-0.017285	0.346163	-0.113591	0.343675	-0.084016	
1.80054	0	0	0.0810763	0.0118222	-0.02645	0.385811	0.16517	-0.121733	0.0227115	0.307061	0.249485	0.165954	0.0388865	0.509865	0.14432	0.256408	-0.008878	0.501266	0.164338	0.0798813	0.0561087	0.273165	0.198816	-0.0016015	0.2512	0.169141	0.333936	-0.255435	0.251368	-0.014367	0.34724	-0.116636	0.338489	-0.0834342	
1.80054	0	0	0.0799365	0.0150435	-0.020801	0.38212	0.16517	-0.121733	0.024466	0.311846	0.248517	0.158691	0.040445	0.505461	0.141512	0.254017	-0.008878	0.501266	0.160431	0.0700785	0.0528895	0.26094	0.196985	-0.010773	0.253945	0.161382	0.338647	-0.252958	0.250336	-0.011449	0.348318	-0.11968	0.333304	-0.0828525	
1.79901	0	0	0.0787967	0.0182648	-0.015152	0.378428	0.16517	-0.121733	0.0262205	0.316631	0.247549	0.151427	0.0420035	0.501057	0.138704	0.251626	-0.008878	0.501266	0.156523	0.0602757	0.0496702	0.248715	0.195155	-0.0199445	0.25669	0.153624	0.343359	-0.250482	0.249303	-0.008531	0.349395	-0.122724	0.328119	-0.0822708	
1.79901	0	0	0.077657	0.021486	-0.009503	0.374737	0.16517	-0.121733	0.027975	0.321416	0.24658	0.144164	0.043562	0.496652	0.135896	0.249234	-0.008878	0.501266	0.152616	0.050473	0.046451	0.23649	0.193325	-0.029116	0.259436	0.145865	0.34807	-0.248005	0.248271	-0.005613	0.350472	-0.125769	0.322933	-0.081689	
1.79901	0	0	0.070482	0.0286515	-0.0118888	0.38148	0.157378	-0.11388	0.0225797	0.32692	0.247488	0.141598	0.0488917	0.496556	0.132118	0.249591	-0.00479275	0.501491	0.145872	0.04871	0.0448405	0.230389	0.194517	-0.032484	0.258064	0.149744	0.345511	-0.240774	0.249297	0.00269725	0.346161	-0.113585	0.325534	-0.0749657	
1.79748	0	0	0.063307	0.035817	-0.0142745	0.388223	0.149586	-0.106027	0.0171845	0.332423	0.248396	0.139032	0.0542215	0.496459	0.128339	0.249948	-0.0007075	0.501715	0.139128	0.046947	0.04323	0.224289	0.195709	-0.035852	0.256691	0.153622	0.342952	-0.233542	0.250323	0.0110075	0.34185	-0.101402	0.328134	-0.0682425	
1.79748	0	0	0.056132	0.0429825	-0.0166603	0.394965	0.141793	-0.098174	0.0117893	0.337927	0.249304	0.136466	0.0595512	0.496363	0.124561	0.250304	0.00337775	0.501939	0.132384	0.045184	0.0416195	0.218188	0.196901	-0.03922	0.255319	0.1575	0.340394	-0.226311	0.25135	0.0193178	0.337539	-0.0892177	0.330735	-0.0615192	
1.80054	0	0	0.048957	0.050148	-0.019046	0.401708	0.134001	-0.090321	0.006394	0.343431	0.250212	0.1339	0.064881	0.496267	0.120783	0.250661	0.007463	0.502164	0.12564	0.043421	0.040009	0.212087	0.198093	-0.042588	0.253946	0.161379	0.337835	-0.21908	0.252376	0.027628	0.333228	-0.077034	0.333336	-0.054796	
1.80054	0	0	0.0500973	0.0469258	-0.0223093	0.398657	0.134001	-0.090321	0.009968	0.343075	0.248268	0.11941	0.0626662	0.48756	0.121862	0.237296	0.0101262	0.494637	0.121675	0.0234372	0.032986	0.200014	0.192046	-0.0541525	0.247291	0.150831	0.342548	-0.216596	0.243078	0.0426963	0.318208	-0.0625317	0.330749	-0.0474847	
1.79901	0	0	0.0512375	0.0437035	-0.0255725	0.395605	0.134001	-0.090321	0.013542	0.342718	0.246324	0.104919	0.0604515	0.478854	0.12294	0.223932	0.0127895	0.487111	0.117709	0.0034535	0.025963	0.187941	0.185999	-0.065717	0.240637	0.140283	0.347262	-0.214112	0.23378	0.0577645	0.303188	-0.0480295	0.328162	-0.0401735	
1.80054	0	0	0.0523778	0.0404812	-0.0288358	0.392553	0.134001	-0.090321	0.017116	0.342362	0.24438	0.0904285	0.0582368	0.470147	0.124019	0.210567	0.0154528	0.479584	0.113744	-0.0165303	0.01894	0.175869	0.179951	-0.0772815	0.233983	0.129734	0.351975	-0.211628	0.224481	0.0728328	0.288169	-0.0335273	0.325575	-0.0328622	
1.80054	0	0	0.053518	0.037259	-0.032099	0.389502	0.134001	-0.090321	0.02069	0.342006	0.242436	0.075938	0.056022	0.46144	0.125097	0.197202	0.018116	0.472057	0.109779	-0.036514	0.011917	0.163796	0.173904	-0.088846	0.227328	0.119186	0.356688	-0.209144	0.215183	0.087901	0.273149	-0.019025	0.322988	-0.025551	
1.80206	0	0	0.053518	0.037259	-0.023183	0.38886	0.139251	-0.0909892	0.0260205	0.346444	0.24327	0.063596	0.0575782	0.457042	0.125199	0.186603	0.018116	0.472057	0.107757	-0.0515645	0.007603	0.154739	0.174443	-0.104679	0.224687	0.111989	0.350695	-0.20801	0.220342	0.0845298	0.281735	-0.0293235	0.313918	-0.028054	
1.80054	0	0	0.053518	0.037259	-0.014267	0.388217	0.144501	-0.0916575	0.031351	0.350882	0.244105	0.051254	0.0591345	0.452643	0.125301	0.176005	0.018116	0.472057	0.105736	-0.066615	0.003289	0.145681	0.174981	-0.120511	0.222047	0.104792	0.344701	-0.206877	0.225502	0.0811585	0.290322	-0.039622	0.304848	-0.030557	
1.79748	0	0	0.053518	0.037259	-0.005351	0.387575	0.149751	-0.0923257	0.0366815	0.35532	0.244939	0.038912	0.0606908	0.448245	0.125403	0.165407	0.018116	0.472057	0.103714	-0.0816655	-0.001025	0.136624	0.175519	-0.136344	0.219406	0.097595	0.338708	-0.205743	0.230661	0.0777873	0.298908	-0.0499205	0.295779	-0.03306	
1.79901	0	0	0.053518	0.037259	0.003565	0.386933	0.155001	-0.092994	0.042012	0.359758	0.245773	0.02657	0.062247	0.443847	0.125505	0.154808	0.018116	0.472057	0.101692	-0.096716	-0.005339	0.127566	0.176058	-0.152177	0.216765	0.090398	0.332715	-0.204609	0.23582	0.074416	0.307494	-0.060219	0.286709	-0.035563	
1.79901	0	0	0.0523778	0.0404812	0.00237125	0.390306	0.152457	-0.0858035	0.0482607	0.361622	0.243891	0.0219085	0.0691352	0.439346	0.119895	0.15006	0.0248673	0.464754	0.0930163	-0.1033	-0.00804125	0.124587	0.173033	-0.157928	0.220866	0.0788075	0.341269	-0.21298	0.23789	0.0685657	0.304299	-0.0651578	0.295765	-0.0470945	
1.80054	0	0	0.0512375	0.0437035	0.0011775	0.39368	0.149913	-0.078613	0.0545095	0.363486	0.24201	0.017247	0.0760235	0.434845	0.114285	0.145312	0.0316185	0.457451	0.0843405	-0.109884	-0.0107435	0.121608	0.170008	-0.163679	0.224967	0.067217	0.349823	-0.221351	0.239961	0.0627155	0.301104	-0.0700965	0.304821	-0.058626	
1.79901	0	0	0.0500973	0.0469258	-1.625E-05	0.397053	0.147368	-0.0714225	0.0607582	0.36535	0.240128	0.0125855	0.0829118	0.430344	0.108674	0.140564	0.0383698	0.450148	0.0756648	-0.116468	-0.0134457	0.118628	0.166983	-0.16943	0.229069	0.0556265	0.358377	-0.229721	0.242031	0.0568652	0.29791	-0.0750352	0.313877	-0.0701575	
1.79901	0	0	0.048957	0.050148	-0.00121	0.400426	0.144824	-0.064232	0.067007	0.367214	0.238247	0.007924	0.0898	0.425843	0.103064	0.135816	0.045121	0.442845	0.066989	-0.123052	-0.016148	0.115649	0.163958	-0.175181	0.23317	0.044036	0.366931	-0.238092	0.244101	0.051015	0.294715	-0.079974	0.322933	-0.081689	
1.80054	0	0	0.0486232	0.0379888	-0.002091	0.390634	0.147368	-0.0714225	0.072416	0.361697	0.238089	-0.0115727	0.089129	0.412773	0.101323	0.120157	0.0423605	0.43887	0.0592643	-0.132272	-0.0204587	0.106618	0.150162	-0.179026	0.225151	0.0374125	0.360937	-0.236955	0.242031	0.0568652	0.294715	-0.079974	0.322933	-0.081689	
1.80054	0	0	0.0482895	0.0258295	-0.002972	0.380843	0.149913	-0.078613	0.077825	0.356179	0.237932	-0.0310695	0.088458	0.399703	0.099581	0.104497	0.0396	0.434894	0.0515395	-0.141492	-0.0247695	0.097587	0.136367	-0.182872	0.217133	0.030789	0.354942	-0.235819	0.239961	0.0627155	0.294715	-0.079974	0.322933	-0.081689	
1.79596	0	0	0.0479557	0.0136702	-0.003853	0.371052	0.152457	-0.0858035	0.083234	0.350662	0.237774	-0.0505663	0.087787	0.386632	0.0978395	0.0888382	0.0368395	0.430918	0.0438147	-0.150712	-0.0290802	0.088556	0.122571	-0.186717	0.209114	0.0241655	0.348948	-0.234683	0.23789	0.0685657	0.294715	-0.079974	0.322933	-0.081689	
1.79901	0	0	0.047622	0.001511	-0.004734	0.36126	0.155001	-0.092994	0.088643	0.345145	0.237617	-0.070063	0.087116	0.373562	0.096098	0.073179	0.034079	0.426943	0.03609	-0.159932	-0.033391	0.079525	0.108775	-0.190562	0.201095	0.017542	0.342954	-0.233546	0.23582	0.074416	0.294715	-0.079974	0.322933	-0.081689	
1.79901	0	0	0.0498977	-0.004921	-0.00116	0.351159	0.156273	-0.096587	0.093142	0.342205	0.234748	-0.081875	0.0864385	0.360523	0.0933853	0.060288	0.0326475	0.419218	0.0302452	-0.174414	-0.0377	0.0705132	0.11166	-0.212973	0.19581	0.003239	0.336091	-0.24572	0.233776	0.057778	0.291554	-0.0989442	0.326775	-0.106609	
1.80054	0	0	0.0521735	-0.011353	0.002414	0.341059	0.157544	-0.10018	0.097641	0.339266	0.231878	-0.093687	0.085761	0.347483	0.0906725	0.047397	0.031216	0.411494	0.0244005	-0.188895	-0.042009	0.0615015	0.114546	-0.235384	0.190525	-0.011064	0.329228	-0.257893	0.231733	0.04114	0.288393	-0.117915	0.330617	-0.131529	
1.79901	0	0	0.0544492	-0.017785	0.005988	0.330958	0.158815	-0.103773	0.10214	0.336326	0.229009	-0.105499	0.0850835	0.334444	0.0879598	0.034506	0.0297845	0.40377	0.0185557	-0.203377	-0.046318	0.0524898	0.117431	-0.257795	0.18524	-0.025367	0.322365	-0.270066	0.229689	0.024502	0.285232	-0.136885	0.334459	-0.156449	
1.80054	0	0	0.056725	-0.024217	0.009562	0.320857	0.160087	-0.107366	0.106639	0.333387	0.22614	-0.117311	0.084406	0.321404	0.085247	0.021615	0.028353	0.396045	0.012711	-0.217859	-0.050627	0.043478	0.120317	-0.280206	0.179955	-0.03967	0.315502	-0.28224	0.227646	0.007864	0.282071	-0.155855	0.338301	-0.181369	
1.79748	0	0	0.0638927	-0.0313715	0.017595	0.310436	0.165342	-0.108038	0.110228	0.333025	0.227938	-0.122391	0.0859552	0.317025	0.0796458	0.0169098	0.03377	0.392505	0.014496	-0.233226	-0.051151	0.034373	0.111922	-0.28496	0.186749	-0.0588715	0.314621	-0.295515	0.231774	-0.00380225	0.274614	-0.162641	0.333085	-0.19472	
1.79901	0	0	0.0710605	-0.038526	0.025628	0.300015	0.170597	-0.108709	0.113816	0.332663	0.229735	-0.127471	0.0875045	0.312647	0.0740445	0.0122045	0.039187	0.388966	0.016281	-0.248592	-0.051675	0.025268	0.103527	-0.289714	0.193544	-0.078073	0.31374	-0.30879	0.235902	-0.0154685	0.267156	-0.169426	0.327869	-0.208071	
1.79291	0	0	0.0782282	-0.0456805	0.033661	0.289594	0.175852	-0.10938	0.117404	0.332301	0.231533	-0.132551	0.0890538	0.308268	0.0684432	0.00749925	0.044604	0.385427	0.018066	-0.263958	-0.052199	0.016163	0.0951327	-0.294469	0.200338	-0.0972745	0.31286	-0.322065	0.24003	-0.0271347	0.259698	-0.176212	0.322652	-0.221422	
1.79901	0	0	0.085396	-0.052835	0.041694	0.279173	0.181107	-0.110052	0.120993	0.331939	0.23333	-0.137631	0.090603	0.303889	0.062842	0.002794	0.050021	0.381887	0.019851	-0.279325	-0.052723	0.007058	0.086738	-0.299223	0.207132	-0.116476	0.311979	-0.33534	0.244158	-0.038801	0.252241	-0.182998	0.317436	-0.234773	
1.79291	0	0	0.0801545	-0.0642178	0.039896	0.259699	0.180932	-0.123738	0.121052	0.321991	0.225968	-0.136723	0.0868223	0.299631	0.0610045	-0.00227275	0.0472585	0.377925	0.0122225	-0.278392	-0.050551	0.00092025	0.0825455	-0.301598	0.203125	-0.119753	0.320508	-0.34368	0.244158	-0.038801	0.260794	-0.193245	0.330366	-0.243222	
1.79291	0	0	0.074913	-0.0756005	0.038098	0.240225	0.180758	-0.137425	0.121112	0.312044	0.218606	-0.135816	0.0830415	0.295374	0.059167	-0.0073395	0.044496	0.373963	0.004594	-0.277459	-0.048379	-0.0052175	0.078353	-0.303972	0.199118	-0.123031	0.329037	-0.35202	0.244158	-0.038801	0.269347	-0.203491	0.343295	-0.251671	
1.79596	0	0	0.0696715	-0.0869832	0.0363	0.220751	0.180583	-0.151111	0.121171	0.302096	0.211244	-0.134909	0.0792608	0.291117	0.0573295	-0.0124063	0.0417335	0.370001	-0.0030345	-0.276527	-0.046207	-0.0113553	0.0741605	-0.306347	0.19511	-0.126308	0.337566	-0.36036	0.244158	-0.038801	0.277901	-0.213738	0.356225	-0.260119	
1.79291	0	0	0.06443	-0.098366	0.034502	0.201277	0.180408	-0.164797	0.12123	0.292149	0.203882	-0.134001	0.07548	0.286859	0.055492	-0.017473	0.038971	0.366039	-0.010663	-0.275594	-0.044035	-0.017493	0.069968	-0.308722	0.191103	-0.129586	0.346095	-0.3687	0.244158	-0.038801	0.286454	-0.223985	0.369155	-0.268568	
1.79443	0	0	0.0689653	-0.111183	0.0335977	0.191567	0.182945	-0.171967	0.123963	0.284424	0.200204	-0.133549	0.0785735	0.278116	0.0536548	-0.022534	0.038971	0.366039	-0.0145578	-0.28519	-0.048348	-0.0264575	0.0704775	-0.324375	0.191161	-0.144342	0.338839	-0.363959	0.240036	-0.038348	0.277901	-0.213738	0.361403	-0.260712	
1.79291	0	0	0.0735005	-0.124	0.0326935	0.181856	0.185482	-0.179138	0.126696	0.2767	0.196526	-0.133097	0.081667	0.269374	0.0518175	-0.027595	0.038971	0.366039	-0.0184525	-0.294786	-0.052661	-0.035422	0.070987	-0.340028	0.191219	-0.159097	0.331584	-0.359218	0.235914	-0.037895	0.269347	-0.203491	0.353652	-0.252857	
1.79138	0	0	0.0780358	-0.136818	0.0317892	0.172146	0.18802	-0.186309	0.12943	0.268976	0.192849	-0.132644	0.0847605	0.260631	0.0499802	-0.032656	0.038971	0.366039	-0.0223472	-0.304382	-0.056974	-0.0443865	0.0714965	-0.35568	0.191277	-0.173852	0.324329	-0.354477	0.231792	-0.037442	0.260794	-0.193245	0.3459	-0.245001	
1.79291	0	0	0.082571	-0.149635	0.030885	0.162435	0.190557	-0.193479	0.132163	0.261251	0.189171	-0.132192	0.087854	0.251889	0.048143	-0.037717	0.038971	0.366039	-0.026242	-0.313978	-0.061287	-0.053351	0.072006	-0.371333	0.191335	-0.188608	0.317073	-0.349736	0.22767	-0.036989	0.252241	-0.182998	0.338148	-0.237146	
1.79138	0	0	0.0837038	-0.152836	0.0320693	0.159088	0.190557	-0.193479	0.136664	0.25831	0.197427	-0.135636	0.0893998	0.247521	0.048143	-0.037717	0.0498085	0.358957	-0.0225223	-0.324491	-0.0580377	-0.0625342	0.0701615	-0.380322	0.190033	-0.199509	0.313641	-0.355787	0.229731	-0.0428145	0.251193	-0.193952	0.33682	-0.247433	
1.78833	0	0	0.0848365	-0.156038	0.0332535	0.155742	0.190557	-0.193479	0.141165	0.255369	0.205682	-0.13908	0.0909455	0.243152	0.048143	-0.037717	0.060646	0.351876	-0.0188025	-0.335004	-0.0547885	-0.0717175	0.068317	-0.389311	0.188732	-0.21041	0.310208	-0.361838	0.231793	-0.04864	0.250146	-0.204906	0.335491	-0.257719	
1.79138	0	0	0.0859692	-0.15924	0.0344378	0.152395	0.190557	-0.193479	0.145666	0.252428	0.213938	-0.142523	0.0924912	0.238784	0.048143	-0.037717	0.0714835	0.344795	-0.0150828	-0.345516	-0.0515393	-0.0809007	0.0664725	-0.398299	0.18743	-0.221311	0.306776	-0.367889	0.233854	-0.0544655	0.249098	-0.215861	0.334163	-0.268006	
1.79138	0	0	0.087102	-0.162441	0.035622	0.149049	0.190557	-0.193479	0.150167	0.249487	0.222194	-0.145967	0.094037	0.234416	0.048143	-0.037717	0.082321	0.337713	-0.011363	-0.356029	-0.04829	-0.090084	0.064628	-0.407288	0.186129	-0.232212	0.303344	-0.37394	0.235915	-0.060291	0.24805	-0.226815	0.332835	-0.278293	
1.79138	0	0	0.084836	-0.156037	0.0276115	0.15943	0.189289	-0.189895	0.143844	0.257577	0.223181	-0.138803	0.0978222	0.238661	0.0547023	-0.0357413	0.0837625	0.345423	-0.011363	-0.356029	-0.0520712	-0.0899647	0.0657998	-0.4106	0.19419	-0.240414	0.310594	-0.378677	0.237975	-0.0661127	0.238465	-0.227526	0.335399	-0.285539	
1.78833	0	0	0.08257	-0.149633	0.019601	0.169811	0.188021	-0.18631	0.137521	0.265667	0.224167	-0.131639	0.101607	0.242905	0.0612615	-0.0337655	0.085204	0.353134	-0.011363	-0.356029	-0.0558525	-0.0898455	0.0669715	-0.413912	0.202251	-0.248616	0.317843	-0.383413	0.240035	-0.0719345	0.22888	-0.228237	0.337962	-0.292785	
1.78985	0	0	0.080304	-0.143229	0.0115905	0.180192	0.186752	-0.182725	0.131198	0.273757	0.225154	-0.124475	0.105393	0.24715	0.0678207	-0.0317897	0.0866455	0.360845	-0.011363	-0.356029	-0.0596337	-0.0897263	0.0681433	-0.417224	0.210312	-0.256818	0.325093	-0.38815	0.242095	-0.0777562	0.219296	-0.228948	0.340526	-0.30003	
1.78833	0	0	0.078038	-0.136825	0.00358	0.190573	0.185484	-0.179141	0.124875	0.281847	0.22614	-0.117311	0.109178	0.251395	0.07438	-0.029814	0.088087	0.368555	-0.011363	-0.356029	-0.063415	-0.089607	0.069315	-0.420536	0.218373	-0.26502	0.332342	-0.392887	0.244155	-0.083578	0.209711	-0.229659	0.34309	-0.307276	
1.78528	0	0	0.0765462	-0.145694	-0.0050395	0.178208	0.190554	-0.19347	0.124929	0.27192	0.222542	-0.107142	0.100753	0.260261	0.0714955	-0.021662	0.0908565	0.37252	-0.0179598	-0.347679	-0.062333	-0.092665	0.0669707	-0.413911	0.210312	-0.256818	0.332342	-0.392887	0.243125	-0.0806677	0.209711	-0.229659	0.341808	-0.303654	
1.7868	0	0	0.0750545	-0.154562	-0.013659	0.165843	0.195624	-0.207799	0.124983	0.261993	0.218944	-0.0969735	0.092329	0.269127	0.068611	-0.01351	0.093626	0.376484	-0.0245565	-0.339329	-0.061251	-0.095723	0.0646265	-0.407286	0.202251	-0.248616	0.332342	-0.392887	0.242095	-0.0777575	0.209711	-0.229659	0.340527	-0.300032	
1.78528	0	0	0.0735627	-0.163431	-0.0222785	0.153479	0.200694	-0.222128	0.125037	0.252066	0.215346	-0.0868047	0.0839045	0.277993	0.0657265	-0.005358	0.0963955	0.380449	-0.0311533	-0.330978	-0.060169	-0.098781	0.0622822	-0.400661	0.19419	-0.240414	0.332342	-0.392887	0.241065	-0.0748473	0.209711	-0.229659	0.339245	-0.29641	
1.78833	0	0	0.072071	-0.1723	-0.030898	0.141114	0.205764	-0.236457	0.125091	0.242139	0.211748	-0.076636	0.07548	0.286859	0.062842	0.002794	0.099165	0.384414	-0.03775	-0.322628	-0.059087	-0.101839	0.059938	-0.394036	0.186129	-0.232212	0.332342	-0.392887	0.240035	-0.071937	0.209711	-0.229659	0.337963	-0.292788	
1.78528	0	0	0.0754647	-0.181891	-0.024995	0.124431	0.204305	-0.246502	0.124232	0.234797	0.214447	-0.0842635	0.0869965	0.269254	0.0638037	7.575E-05	0.105925	0.377109	-0.043415	-0.316906	-0.0607043	-0.10783	0.054579	-0.393081	0.186129	-0.232212	0.33578	-0.38684	0.242097	-0.0665672	0.219296	-0.228948	0.340577	-0.286135	
1.7868	0	0	0.0788585	-0.191481	-0.019092	0.107747	0.202846	-0.256547	0.123373	0.227455	0.217146	-0.091891	0.098513	0.25165	0.0647655	-0.0026425	0.112685	0.369804	-0.04908	-0.311183	-0.0623215	-0.113821	0.04922	-0.392126	0.186129	-0.232212	0.339218	-0.380794	0.244159	-0.0611975	0.22888	-0.228237	0.343192	-0.279482	
1.78833	0	0	0.0822522	-0.201072	-0.013189	0.0910642	0.201386	-0.266592	0.122514	0.220114	0.219845	-0.0995185	0.11003	0.234045	0.0657273	-0.00536075	0.119445	0.3625	-0.054745	-0.305461	-0.0639388	-0.119812	0.043861	-0.391172	0.186129	-0.232212	0.342657	-0.374747	0.246221	-0.0558278	0.238465	-0.227526	0.345807	-0.272829	
1.79138	0	0	0.085646	-0.210663	-0.007286	0.074381	0.199927	-0.276637	0.121655	0.212772	0.222544	-0.107146	0.121546	0.216441	0.066689	-0.008079	0.126205	0.355195	-0.06041	-0.299738	-0.065556	-0.125803	0.038502	-0.390217	0.186129	-0.232212	0.346095	-0.3687	0.248283	-0.050458	0.24805	-0.226815	0.348421	-0.266176	
1.79291	0	0	0.0867762	-0.213857	-0.0061065	0.071048	0.201191	-0.28021	0.12706	0.207266	0.223443	-0.109687	0.114669	0.220935	0.0714132	-0.011166	0.13031	0.355401	-0.0576205	-0.307621	-0.0623158	-0.134961	0.034319	-0.392575	0.18883	-0.239845	0.338839	-0.363959	0.24313	-0.0470908	0.237395	-0.224503	0.344525	-0.269205	
1.79901	0	0	0.0879065	-0.217052	-0.004927	0.067715	0.202456	-0.283783	0.132465	0.20176	0.224342	-0.112229	0.107791	0.225429	0.0761375	-0.014253	0.134415	0.355606	-0.054831	-0.315505	-0.0590755	-0.144119	0.030136	-0.394933	0.19153	-0.247478	0.331584	-0.359218	0.237977	-0.0437235	0.226741	-0.222191	0.340628	-0.272235	
1.80206	0	0	0.0890367	-0.220247	-0.0037475	0.064382	0.20372	-0.287355	0.13787	0.196254	0.225241	-0.11477	0.100914	0.229922	0.0808617	-0.01734	0.13852	0.355811	-0.0520415	-0.323389	-0.0558353	-0.153277	0.025953	-0.397292	0.194231	-0.255111	0.324329	-0.354477	0.232823	-0.0403563	0.216087	-0.21988	0.336731	-0.275264	
1.79901	0	0	0.090167	-0.223441	-0.002568	0.061049	0.204984	-0.290928	0.143275	0.190748	0.22614	-0.117311	0.094037	0.234416	0.085586	-0.020427	0.142625	0.356017	-0.049252	-0.331272	-0.052595	-0.162435	0.02177	-0.39965	0.196932	-0.262744	0.317073	-0.349736	0.22767	-0.036989	0.205432	-0.217568	0.332835	-0.278293	
1.80206	0	0	0.0950587	-0.224182	-0.00610725	0.0710515	0.211505	-0.295189	0.145047	0.195515	0.228025	-0.11268	0.0993685	0.234291	0.0874267	-0.0153588	0.146733	0.356222	-0.0539842	-0.32818	-0.0504365	-0.168535	0.025953	-0.397292	0.195582	-0.258928	0.317073	-0.349736	0.232823	-0.0403563	0.202249	-0.222458	0.327659	-0.277697	
1.80511	0	0	0.0999505	-0.224922	-0.0096465	0.081054	0.218027	-0.299451	0.146819	0.200282	0.22991	-0.108049	0.1047	0.234165	0.0892675	-0.0102905	0.150841	0.356426	-0.0587165	-0.325087	-0.048278	-0.174635	0.030136	-0.394933	0.194232	-0.255112	0.317073	-0.349736	0.237977	-0.0437235	0.199067	-0.227347	0.322484	-0.277101	
1.80817	0	0	0.104842	-0.225662	-0.0131857	0.0910565	0.224548	-0.303712	0.148591	0.205048	0.231795	-0.103419	0.110031	0.23404	0.0911083	-0.00522225	0.154949	0.356631	-0.0634487	-0.321995	-0.0461195	-0.180736	0.034319	-0.392575	0.192881	-0.251297	0.317073	-0.349736	0.24313	-0.0470908	0.195885	-0.232237	0.317308	-0.276505	
1.80664	0	0	0.109734	-0.226403	-0.016725	0.101059	0.231069	-0.307973	0.150363	0.209815	0.23368	-0.098788	0.115363	0.233914	0.092949	-0.000154	0.159057	0.356836	-0.068181	-0.318903	-0.043961	-0.186836	0.038502	-0.390217	0.191531	-0.247481	0.317073	-0.349736	0.248283	-0.050458	0.192702	-0.237126	0.312133	-0.275909	
1.81122	0	0	0.111235	-0.217551	-0.018185	0.117419	0.227275	-0.29725	0.149403	0.222307	0.234664	-0.0916068	0.117605	0.242534	0.0938262	0.00764325	0.163168	0.35704	-0.0671685	-0.311482	-0.0412582	-0.183912	0.0403415	-0.381225	0.192835	-0.236587	0.327769	-0.348421	0.249312	-0.0421648	0.195885	-0.232237	0.314742	-0.269253	
1.81122	0	0	0.112736	-0.208699	-0.019645	0.133778	0.22348	-0.286527	0.148444	0.234799	0.235648	-0.0844255	0.119846	0.251154	0.0947035	0.0154405	0.167278	0.357244	-0.066156	-0.304062	-0.0385555	-0.180988	0.042181	-0.372233	0.19414	-0.225693	0.338464	-0.347106	0.250342	-0.0338715	0.199067	-0.227347	0.317352	-0.262598	
1.81274	0	0	0.114236	-0.199846	-0.021105	0.150138	0.219686	-0.275804	0.147484	0.247291	0.236633	-0.0772443	0.122087	0.259773	0.0955808	0.0232378	0.171389	0.357448	-0.0651435	-0.296642	-0.0358528	-0.178065	0.0440205	-0.363241	0.195444	-0.214798	0.349159	-0.345791	0.251371	-0.0255782	0.202249	-0.222458	0.319962	-0.255942	
1.81274	0	0	0.115737	-0.190994	-0.022565	0.166498	0.215892	-0.265081	0.146524	0.259783	0.237617	-0.070063	0.124329	0.268393	0.096458	0.031035	0.1755	0.357652	-0.064131	-0.289221	-0.03315	-0.175141	0.04586	-0.354249	0.196748	-0.203904	0.359855	-0.344476	0.252401	-0.017285	0.205432	-0.217568	0.322571	-0.249286	
1.81122	0	0	0.118001	-0.197391	-0.022565	0.166498	0.223684	-0.272921	0.145613	0.262358	0.235733	-0.074701	0.125877	0.264018	0.096458	0.031035	0.1755	0.357652	-0.069794	-0.283498	-0.039091	-0.168913	0.0465218	-0.341917	0.199403	-0.196816	0.354752	-0.330054	0.252395	-0.00605675	0.20433	-0.200559	0.32779	-0.235944	
1.81885	0	0	0.120264	-0.203788	-0.022565	0.166498	0.231476	-0.280761	0.144702	0.264933	0.233849	-0.079339	0.127424	0.259644	0.096458	0.031035	0.1755	0.357652	-0.075457	-0.277776	-0.045032	-0.162685	0.0471835	-0.329585	0.202058	-0.189727	0.349649	-0.315632	0.252389	0.0051715	0.203228	-0.18355	0.333009	-0.222602	
1.81732	0	0	0.122528	-0.210186	-0.022565	0.166498	0.239267	-0.288602	0.143791	0.267507	0.231964	-0.083977	0.128972	0.255269	0.096458	0.031035	0.1755	0.357652	-0.08112	-0.272054	-0.050973	-0.156457	0.0478452	-0.317254	0.204712	-0.182639	0.344546	-0.301211	0.252382	0.0163998	0.202126	-0.166541	0.338229	-0.209259	
1.82037	0	0	0.124792	-0.216583	-0.022565	0.166498	0.247059	-0.296442	0.14288	0.270082	0.23008	-0.088615	0.13052	0.250895	0.096458	0.031035	0.1755	0.357652	-0.086783	-0.266331	-0.056914	-0.150229	0.048507	-0.304922	0.207367	-0.17555	0.339443	-0.286789	0.252376	0.027628	0.201024	-0.149532	0.343448	-0.195917	
1.82037	0	0	0.12366	-0.213385	-0.020482	0.172853	0.245794	-0.292866	0.144649	0.274868	0.228196	-0.0932478	0.132067	0.246522	0.0917285	0.0341255	0.180945	0.354095	-0.0925187	-0.270668	-0.0536758	-0.159381	0.0419708	-0.300651	0.200651	-0.171162	0.336009	-0.292863	0.244127	0.028526	0.204239	-0.158618	0.334376	-0.198371	
1.82037	0	0	0.122528	-0.210187	-0.018399	0.179208	0.244528	-0.289291	0.146418	0.279654	0.226312	-0.0978805	0.133614	0.24215	0.086999	0.037216	0.186389	0.350537	-0.0982545	-0.275004	-0.0504375	-0.168533	0.0354345	-0.29638	0.193935	-0.166774	0.332576	-0.298936	0.235879	0.029424	0.207454	-0.167705	0.325303	-0.200824	
1.81732	0	0	0.121397	-0.206989	-0.016316	0.185562	0.243263	-0.285715	0.148186	0.28444	0.224428	-0.102513	0.135162	0.237778	0.0822695	0.0403065	0.191834	0.346979	-0.10399	-0.279341	-0.0471992	-0.177684	0.0288983	-0.292109	0.18722	-0.162386	0.329142	-0.305009	0.22763	0.030322	0.21067	-0.176791	0.316231	-0.203277	
1.81885	0	0	0.120265	-0.203791	-0.014233	0.191917	0.241998	-0.282139	0.149955	0.289226	0.222544	-0.107146	0.136709	0.233405	0.07754	0.043397	0.197279	0.343422	-0.109726	-0.283678	-0.043961	-0.186836	0.022362	-0.287838	0.180504	-0.157998	0.325708	-0.311083	0.219382	0.03122	0.213885	-0.185878	0.307159	-0.205731	
1.82037	0	0	0.119133	-0.200592	-0.0133363	0.201632	0.245997	-0.279251	0.153493	0.298814	0.224342	-0.112228	0.136709	0.233405	0.0794668	0.0379515	0.202727	0.339862	-0.114527	-0.290633	-0.0466623	-0.189757	0.0235377	-0.291161	0.181858	-0.161825	0.321002	-0.313547	0.217327	0.0258302	0.210702	-0.190777	0.299385	-0.211811	
1.82037	0	0	0.118001	-0.197392	-0.0124395	0.211348	0.249996	-0.276362	0.157031	0.308401	0.22614	-0.117309	0.136709	0.233405	0.0813935	0.032506	0.208175	0.336303	-0.119329	-0.297588	-0.0493635	-0.192679	0.0247135	-0.294484	0.183213	-0.165652	0.316296	-0.316011	0.215272	0.0204405	0.207519	-0.195676	0.29161	-0.21789	
1.81885	0	0	0.116869	-0.194193	-0.0115427	0.221063	0.253996	-0.273474	0.160568	0.317989	0.227938	-0.12239	0.136709	0.233405	0.0833202	0.0270605	0.213623	0.332743	-0.12413	-0.304543	-0.0520647	-0.195601	0.0258892	-0.297807	0.184567	-0.169479	0.31159	-0.318475	0.213218	0.0150507	0.204336	-0.200574	0.283836	-0.223969	
1.8219	0	0	0.115737	-0.190994	-0.010646	0.230778	0.257995	-0.270586	0.164106	0.327577	0.229736	-0.127472	0.136709	0.233405	0.085247	0.021615	0.219071	0.329183	-0.128931	-0.311498	-0.054766	-0.198522	0.027065	-0.30113	0.185921	-0.173306	0.306884	-0.320939	0.211163	0.009661	0.201153	-0.205473	0.276062	-0.230049	
1.81579	0	0	0.115737	-0.190994	-0.0198445	0.244525	0.256728	-0.267006	0.156856	0.338272	0.226953	-0.129557	0.138255	0.229035	0.083408	0.0165418	0.214953	0.328983	-0.133729	-0.318441	-0.0563888	-0.204485	0.027065	-0.30113	0.187275	-0.177131	0.302182	-0.323401	0.207045	0.0101093	0.189447	-0.200149	0.277345	-0.233674	
1.81579	0	0	0.115737	-0.190994	-0.029043	0.258271	0.255462	-0.263426	0.149606	0.348966	0.224169	-0.131643	0.139801	0.224665	0.081569	0.0114685	0.210836	0.328784	-0.138526	-0.325383	-0.0580115	-0.210448	0.027065	-0.30113	0.188628	-0.180957	0.29748	-0.325863	0.202927	0.0105575	0.177741	-0.194825	0.278628	-0.237299	
1.81732	0	0	0.115737	-0.190994	-0.0382415	0.272018	0.254195	-0.259846	0.142355	0.35966	0.221385	-0.133729	0.141348	0.220295	0.07973	0.00639525	0.206718	0.328584	-0.143323	-0.332326	-0.0596342	-0.216412	0.027065	-0.30113	0.189981	-0.184782	0.292777	-0.328326	0.198809	0.0110057	0.166036	-0.1895	0.27991	-0.240924	
1.81427	0	0	0.115737	-0.190994	-0.04744	0.285764	0.252928	-0.256266	0.135105	0.370355	0.218602	-0.135814	0.142894	0.215925	0.077891	0.001322	0.2026	0.328384	-0.148121	-0.339269	-0.061257	-0.222375	0.027065	-0.30113	0.191335	-0.188608	0.288075	-0.330788	0.194691	0.011454	0.15433	-0.184176	0.281193	-0.244549	
1.81427	0	0	0.115367	-0.203041	-0.0450658	0.279054	0.254195	-0.259846	0.135105	0.370355	0.213844	-0.152194	0.136854	0.203097	0.071414	-0.011151	0.202471	0.31692	-0.156782	-0.355729	-0.0645042	-0.234279	0.0133582	-0.304933	0.184679	-0.198945	0.283377	-0.333249	0.186463	0.012347	0.15219	-0.178127	0.272179	-0.233084	
1.81427	0	0	0.114997	-0.215087	-0.0426915	0.272344	0.255462	-0.263426	0.135105	0.370355	0.209087	-0.168574	0.130815	0.190269	0.064937	-0.023624	0.202342	0.305455	-0.165442	-0.372188	-0.0677515	-0.246183	-0.0003485	-0.308736	0.178023	-0.209282	0.278679	-0.335709	0.178235	0.01324	0.15005	-0.172079	0.263165	-0.221619	
1.81274	0	0	0.114626	-0.227134	-0.0403172	0.265635	0.256728	-0.267006	0.135105	0.370355	0.204329	-0.184954	0.124775	0.17744	0.05846	-0.036097	0.202212	0.29399	-0.174102	-0.388647	-0.0709987	-0.258088	-0.0140552	-0.312539	0.171367	-0.219619	0.273981	-0.33817	0.170008	0.014133	0.147909	-0.166031	0.254152	-0.210154	
1.81427	0	0	0.114256	-0.239181	-0.037943	0.258925	0.257995	-0.270586	0.135105	0.370355	0.199572	-0.201334	0.118736	0.164612	0.051983	-0.04857	0.202083	0.282526	-0.182763	-0.405107	-0.074246	-0.269992	-0.027762	-0.316342	0.164711	-0.229956	0.269283	-0.34063	0.16178	0.015026	0.145769	-0.159982	0.245138	-0.198689	
1.81122	0	0	0.109364	-0.238439	-0.037943	0.258925	0.256728	-0.267006	0.136869	0.375165	0.200371	-0.213523	0.123359	0.151546	0.0492645	-0.0613773	0.200623	0.274832	-0.197029	-0.415831	-0.0823375	-0.278703	-0.0349285	-0.324395	0.158061	-0.240266	0.26713	-0.35027	0.156654	0.007181	0.145805	-0.173946	0.239949	-0.21201	
1.81274	0	0	0.104471	-0.237698	-0.037943	0.258925	0.255462	-0.263426	0.138633	0.379974	0.20117	-0.225711	0.127982	0.13848	0.046546	-0.0741845	0.199162	0.267137	-0.211296	-0.426555	-0.090429	-0.287413	-0.042095	-0.332448	0.151412	-0.250576	0.264977	-0.359911	0.151528	-0.000664	0.14584	-0.18791	0.234759	-0.225331	
1.80969	0	0	0.0995792	-0.236957	-0.037943	0.258925	0.254195	-0.259846	0.140397	0.384784	0.201969	-0.237899	0.132606	0.125414	0.0438275	-0.0869918	0.197702	0.259443	-0.225562	-0.437279	-0.0985205	-0.296123	-0.0492615	-0.340501	0.144763	-0.260886	0.262825	-0.369551	0.146401	-0.008509	0.145876	-0.201874	0.229569	-0.238652	
1.80969	0	0	0.094687	-0.236215	-0.037943	0.258925	0.252928	-0.256266	0.142161	0.389594	0.202768	-0.250088	0.137229	0.112348	0.041109	-0.099799	0.196241	0.251748	-0.239829	-0.448003	-0.106612	-0.304834	-0.056428	-0.348554	0.138113	-0.271196	0.260672	-0.379192	0.141275	-0.016354	0.145911	-0.215838	0.22438	-0.251973	
1.80511	0	0	0.105605	-0.240894	-0.0302255	0.261621	0.263471	-0.257647	0.147522	0.394049	0.204556	-0.255141	0.137229	0.112348	0.0374307	-0.109871	0.196241	0.251748	-0.240927	-0.465277	-0.107163	-0.313789	-0.057084	-0.360837	0.136809	-0.282045	0.26448	-0.389954	0.145391	-0.0279862	0.141671	-0.217708	0.216635	-0.258031	
1.80817	0	0	0.116524	-0.245574	-0.022508	0.264317	0.274014	-0.259027	0.152883	0.398505	0.206344	-0.260193	0.137229	0.112348	0.0337525	-0.119943	0.196241	0.251748	-0.242026	-0.482551	-0.107715	-0.322745	-0.05774	-0.373121	0.135505	-0.292895	0.268288	-0.400716	0.149506	-0.0396185	0.137431	-0.219578	0.208891	-0.264089	
1.80664	0	0	0.127443	-0.250253	-0.0147905	0.267014	0.284556	-0.260408	0.158244	0.40296	0.208131	-0.265246	0.137229	0.112348	0.0300743	-0.130016	0.196241	0.251748	-0.243124	-0.499825	-0.108267	-0.331701	-0.058396	-0.385404	0.134201	-0.303744	0.272096	-0.411477	0.153622	-0.0512507	0.133191	-0.221448	0.201147	-0.270148	
1.80511	0	0	0.138361	-0.254932	-0.007073	0.26971	0.295099	-0.261789	0.163605	0.407415	0.209919	-0.270299	0.137229	0.112348	0.026396	-0.140088	0.196241	0.251748	-0.244223	-0.517099	-0.108818	-0.340656	-0.059052	-0.397688	0.132897	-0.314593	0.275904	-0.422239	0.157738	-0.062883	0.128951	-0.223318	0.193402	-0.276206	
1.80206	0	0	0.136852	-0.263761	-0.00796625	0.259977	0.296367	-0.265372	0.169952	0.399287	0.203464	-0.271904	0.12657	0.112625	0.0208083	-0.144741	0.193455	0.247809	-0.256525	-0.523022	-0.115276	-0.343415	-0.0620482	-0.403346	0.128902	-0.317826	0.275904	-0.422239	0.15671	-0.0599762	0.127883	-0.2203	0.204985	-0.280997	
1.80511	0	0	0.135344	-0.272591	-0.0088595	0.250244	0.297635	-0.268955	0.176299	0.391159	0.19701	-0.273509	0.11591	0.112902	0.0152205	-0.149395	0.190668	0.24387	-0.268827	-0.528944	-0.121734	-0.346174	-0.0650445	-0.409004	0.124907	-0.321059	0.275904	-0.422239	0.155682	-0.0570695	0.126815	-0.217283	0.216568	-0.285787	
1.80054	0	0	0.133835	-0.281421	-0.00975275	0.240511	0.298902	-0.272538	0.182647	0.383032	0.190555	-0.275114	0.10525	0.113178	0.00963275	-0.154049	0.187882	0.239931	-0.281128	-0.534866	-0.128192	-0.348932	-0.0680407	-0.414662	0.120913	-0.324292	0.275904	-0.422239	0.154653	-0.0541628	0.125748	-0.214265	0.228152	-0.290578	
1.80359	0	0	0.132326	-0.29025	-0.010646	0.230778	0.30017	-0.276121	0.188994	0.374904	0.184101	-0.276719	0.094591	0.113455	0.004045	-0.158702	0.185095	0.235992	-0.29343	-0.540789	-0.13465	-0.351691	-0.071037	-0.42032	0.116918	-0.327525	0.275904	-0.422239	0.153625	-0.051256	0.12468	-0.211248	0.239735	-0.295369	
1.80206	0	0	0.13571	-0.299813	-0.00472075	0.214032	0.301437	-0.279703	0.187224	0.370094	0.183107	-0.283826	0.0976665	0.104763	0.004115	-0.169114	0.180985	0.235799	-0.297378	-0.560091	-0.13576	-0.369541	-0.0811842	-0.433958	0.11162	-0.341563	0.268673	-0.417514	0.149518	-0.0508075	0.11301	-0.205943	0.228152	-0.290578	
1.80359	0	0	0.139093	-0.309376	0.0012045	0.197286	0.302704	-0.283284	0.185455	0.365285	0.182113	-0.290932	0.100742	0.0960715	0.004185	-0.179527	0.176876	0.235606	-0.301326	-0.579393	-0.13687	-0.38739	-0.0913315	-0.447596	0.106321	-0.3556	0.261442	-0.412789	0.145412	-0.050359	0.10134	-0.200637	0.216568	-0.285787	
1.80054	0	0	0.142477	-0.31894	0.00712975	0.18054	0.303972	-0.286865	0.183686	0.360476	0.18112	-0.298038	0.103818	0.0873797	0.004255	-0.189939	0.172766	0.235413	-0.305273	-0.598695	-0.13798	-0.40524	-0.101479	-0.461233	0.101023	-0.369638	0.254211	-0.408065	0.141306	-0.0499105	0.08967	-0.195331	0.204985	-0.280997	
1.80359	0	0	0.145861	-0.328503	0.013055	0.163794	0.305239	-0.290447	0.181916	0.355666	0.180126	-0.305145	0.106893	0.078688	0.004325	-0.200351	0.168656	0.23522	-0.309221	-0.617997	-0.13909	-0.42309	-0.111626	-0.474871	0.095725	-0.383676	0.24698	-0.40334	0.137199	-0.049462	0.078	-0.190026	0.193402	-0.276206	
1.80054	0	0	0.145861	-0.328503	0.013055	0.163794	0.311785	-0.294725	0.186431	0.352715	0.185581	-0.310647	0.108429	0.0743455	0.00248575	-0.205362	0.16998	0.231478	-0.315913	-0.629495	-0.136454	-0.441025	-0.116445	-0.489407	0.0970903	-0.402023	0.243558	-0.409368	0.135151	-0.0548232	0.0780373	-0.203953	0.194639	-0.293658	
1.80359	0	0	0.145861	-0.328503	0.013055	0.163794	0.318332	-0.299002	0.190946	0.349765	0.191036	-0.316149	0.109966	0.070003	0.0006465	-0.210373	0.171304	0.227736	-0.322605	-0.640992	-0.133817	-0.458959	-0.121264	-0.503944	0.0984555	-0.420371	0.240137	-0.415396	0.133103	-0.0601845	0.0780745	-0.217881	0.195875	-0.311111	
1.80054	0	0	0.145861	-0.328503	0.013055	0.163794	0.324879	-0.30328	0.195462	0.346815	0.196492	-0.321651	0.111503	0.0656605	-0.00119275	-0.215383	0.172629	0.223994	-0.329296	-0.652489	-0.131181	-0.476893	-0.126084	-0.518481	0.0998207	-0.438719	0.236715	-0.421423	0.131054	-0.0655457	0.0781117	-0.231808	0.197112	-0.328564	
1.80511	0	0	0.145861	-0.328503	0.013055	0.163794	0.331425	-0.307557	0.199977	0.343864	0.201947	-0.327153	0.113039	0.061318	-0.003032	-0.220394	0.173953	0.220252	-0.335988	-0.663987	-0.128545	-0.494828	-0.130903	-0.533017	0.101186	-0.457066	0.233293	-0.427451	0.129006	-0.070907	0.078149	-0.245735	0.198349	-0.346016	
1.80664	0	0	0.144733	-0.325316	0.0186968	0.160108	0.331425	-0.307557	0.204495	0.340912	0.206513	-0.330137	0.119905	0.0568315	-0.0020795	-0.223086	0.180711	0.21296	-0.340749	-0.670776	-0.131806	-0.506563	-0.132733	-0.541906	0.105195	-0.468397	0.241785	-0.435752	0.137218	-0.0829658	0.0749865	-0.250609	0.197027	-0.356226	
1.80511	0	0	0.143606	-0.322129	0.0243385	0.156421	0.331425	-0.307557	0.209012	0.33796	0.211079	-0.33312	0.126771	0.052345	-0.001127	-0.225778	0.187468	0.205669	-0.34551	-0.677565	-0.135068	-0.518297	-0.134564	-0.550796	0.109204	-0.479727	0.250277	-0.444053	0.145431	-0.0950245	0.071824	-0.255484	0.195705	-0.366436	
1.80206	0	0	0.142479	-0.318943	0.0299802	0.152735	0.331425	-0.307557	0.21353	0.335008	0.215644	-0.336103	0.133638	0.0478585	-0.0001745	-0.22847	0.194226	0.198378	-0.350272	-0.684354	-0.138329	-0.530032	-0.136394	-0.559686	0.113214	-0.491058	0.258768	-0.452355	0.153643	-0.107083	0.0686615	-0.260358	0.194382	-0.376646	
1.81122	0	0	0.141351	-0.315756	0.035622	0.149049	0.331425	-0.307557	0.218048	0.332056	0.22021	-0.339087	0.140504	0.043372	0.000778	-0.231162	0.200984	0.191086	-0.355033	-0.691143	-0.14159	-0.541767	-0.138224	-0.568575	0.117223	-0.502389	0.26726	-0.460656	0.161855	-0.119142	0.065499	-0.265233	0.19306	-0.386856	
1.80969	0	0	0.140963	-0.327743	0.0382572	0.129344	0.336489	-0.321869	0.218102	0.32209	0.215644	-0.336103	0.140504	0.043372	-0.0029655	-0.230785	0.196873	0.190898	-0.357867	-0.693247	-0.143221	-0.547624	-0.142373	-0.570901	0.118558	-0.506163	0.273224	-0.461801	0.164936	-0.116694	0.066563	-0.26824	0.198206	-0.387451	
1.80206	0	0	0.140574	-0.33973	0.0408925	0.109638	0.341553	-0.33618	0.218155	0.312123	0.211079	-0.33312	0.140504	0.043372	-0.006709	-0.230407	0.192762	0.19071	-0.360702	-0.695351	-0.144852	-0.55348	-0.146522	-0.573228	0.119894	-0.509937	0.279189	-0.462946	0.168018	-0.114247	0.067627	-0.271248	0.203351	-0.388046	
1.80206	0	0	0.140186	-0.351717	0.0435278	0.0899332	0.346617	-0.350492	0.218208	0.302156	0.206513	-0.330137	0.140504	0.043372	-0.0104525	-0.23003	0.18865	0.190522	-0.363536	-0.697456	-0.146484	-0.559336	-0.150671	-0.575554	0.121229	-0.51371	0.285154	-0.46409	0.1711	-0.111799	0.068691	-0.274255	0.208497	-0.388642	
1.80511	0	0	0.139798	-0.363704	0.046163	0.070228	0.351681	-0.364804	0.218262	0.29219	0.201947	-0.327153	0.140504	0.043372	-0.014196	-0.229653	0.184539	0.190334	-0.36637	-0.69956	-0.148115	-0.565193	-0.15482	-0.57788	0.122564	-0.517484	0.291118	-0.465235	0.174181	-0.109351	0.069755	-0.277263	0.213642	-0.389237	
1.80664	0	0	0.13828	-0.372489	0.0464237	0.057241	0.356737	-0.379093	0.223739	0.276712	0.20373	-0.332192	0.143575	0.034693	-0.0132443	-0.232343	0.188505	0.179126	-0.372943	-0.701194	-0.151379	-0.576884	-0.163108	-0.582528	0.11857	-0.520673	0.287314	-0.454486	0.176236	-0.103997	0.0665615	-0.268238	0.218792	-0.389834	
1.80359	0	0	0.136762	-0.381274	0.0466845	0.044254	0.361793	-0.393382	0.229215	0.261235	0.205512	-0.33723	0.146646	0.026014	-0.0122925	-0.235034	0.19247	0.167918	-0.379517	-0.702829	-0.154643	-0.588575	-0.171397	-0.587175	0.114575	-0.523861	0.283511	-0.443737	0.178291	-0.0986425	0.063368	-0.259212	0.223942	-0.390431	
1.80511	0	0	0.135243	-0.390059	0.0469453	0.031267	0.366849	-0.407671	0.234691	0.245757	0.207295	-0.342268	0.149717	0.017335	-0.0113408	-0.237724	0.196436	0.156711	-0.386091	-0.704464	-0.157908	-0.600265	-0.179685	-0.591823	0.11058	-0.52705	0.279707	-0.432988	0.180347	-0.0932883	0.0601745	-0.250187	0.229091	-0.391028	
1.80359	0	0	0.133725	-0.398844	0.047206	0.01828	0.371905	-0.42196	0.240168	0.230279	0.209078	-0.347307	0.152788	0.008656	-0.010389	-0.240414	0.200402	0.145503	-0.392664	-0.706098	-0.161172	-0.611956	-0.187973	-0.596471	0.106586	-0.530239	0.275904	-0.422239	0.182402	-0.087934	0.056981	-0.241162	0.234241	-0.391625	
1.80511	0	0	0.139743	-0.402776	0.0483845	0.0149495	0.371905	-0.42196	0.235652	0.23323	0.213644	-0.35029	0.152788	0.008656	-0.006645	-0.240792	0.201723	0.14177	-0.390846	-0.711237	-0.162805	-0.617791	-0.184504	-0.606276	0.102595	-0.533425	0.284409	-0.430553	0.188571	-0.094198	0.054886	-0.249043	0.23291	-0.40182	
1.80359	0	0	0.145761	-0.406708	0.049563	0.011619	0.371905	-0.42196	0.231137	0.23618	0.21821	-0.353274	0.152788	0.008656	-0.002901	-0.24117	0.203043	0.138037	-0.389028	-0.716375	-0.164438	-0.623625	-0.181034	-0.616081	0.098603	-0.53661	0.292915	-0.438866	0.19474	-0.100462	0.052791	-0.256924	0.231579	-0.412015	
1.80359	0	0	0.151779	-0.41064	0.0507415	0.0082885	0.371905	-0.42196	0.226622	0.23913	0.222776	-0.356258	0.152788	0.008656	0.000843	-0.241548	0.204364	0.134305	-0.38721	-0.721513	-0.16607	-0.62946	-0.177565	-0.625885	0.0946115	-0.539796	0.30142	-0.447179	0.200908	-0.106726	0.050696	-0.264805	0.230248	-0.422211	
1.80359	0	0	0.157797	-0.414572	0.05192	0.004958	0.371905	-0.42196	0.222106	0.242081	0.227342	-0.359241	0.152788	0.008656	0.004587	-0.241926	0.205685	0.130572	-0.385392	-0.726652	-0.167703	-0.635294	-0.174096	-0.63569	0.09062	-0.542982	0.309926	-0.455493	0.207077	-0.11299	0.048601	-0.272686	0.228917	-0.432406	
1.80054	0	0	0.16157	-0.412151	0.0596628	0.00758275	0.377193	-0.422671	0.229315	0.241335	0.231129	-0.350089	0.163466	0.008351	0.00922275	-0.234604	0.215236	0.127201	-0.384379	-0.71941	-0.162894	-0.638437	-0.169951	-0.633374	0.0946115	-0.539796	0.308658	-0.451908	0.211193	-0.113446	0.05708	-0.282847	0.232731	-0.443185	
1.80206	0	0	0.165343	-0.409729	0.0674055	0.0102075	0.382481	-0.423381	0.236523	0.240588	0.234917	-0.340936	0.174144	0.008046	0.0138585	-0.227282	0.224787	0.12383	-0.383366	-0.712169	-0.158084	-0.641579	-0.165806	-0.631058	0.098603	-0.53661	0.307389	-0.448324	0.215309	-0.113903	0.065559	-0.293007	0.236546	-0.453964	
1.79901	0	0	0.169116	-0.407308	0.0751482	0.0128322	0.387769	-0.424092	0.243732	0.239842	0.238705	-0.331784	0.184822	0.007741	0.0184943	-0.21996	0.234338	0.120459	-0.382354	-0.704928	-0.153275	-0.644721	-0.161661	-0.628743	0.102595	-0.533425	0.306121	-0.44474	0.219426	-0.11436	0.074038	-0.303167	0.24036	-0.464744	
1.80054	0	0	0.172889	-0.404887	0.082891	0.015457	0.393057	-0.424803	0.250941	0.239096	0.242492	-0.322632	0.1955	0.007436	0.02313	-0.212638	0.243889	0.117088	-0.381341	-0.697686	-0.148466	-0.647864	-0.157516	-0.626427	0.106586	-0.530239	0.304853	-0.441155	0.223542	-0.114816	0.082517	-0.313328	0.244174	-0.475523	
1.79596	0	0	0.166867	-0.400952	0.0760698	0.0224775	0.39432	-0.428373	0.250941	0.239096	0.248068	-0.318513	0.199309	0.0116262	0.0240173	-0.204926	0.242568	0.120822	-0.381241	-0.68786	-0.145771	-0.645025	-0.155683	-0.617564	0.11058	-0.52705	0.302315	-0.433982	0.227661	-0.115274	0.0803905	-0.307318	0.249327	-0.476129	
1.79901	0	0	0.160845	-0.397017	0.0692485	0.029498	0.395583	-0.431943	0.250941	0.239096	0.253644	-0.314395	0.203118	0.0158165	0.0249045	-0.197213	0.241247	0.124557	-0.381141	-0.678033	-0.143077	-0.642185	-0.153851	-0.608702	0.114575	-0.523861	0.299777	-0.426809	0.23178	-0.115731	0.078264	-0.301308	0.254479	-0.476734	
1.79748	0	0	0.154822	-0.393082	0.0624273	0.0365185	0.396847	-0.435513	0.250941	0.239096	0.259221	-0.310276	0.206926	0.0200067	0.0257918	-0.189501	0.239925	0.128291	-0.381041	-0.668207	-0.140382	-0.639346	-0.152019	-0.599839	0.11857	-0.520673	0.297238	-0.419635	0.235899	-0.116189	0.0761375	-0.295299	0.259632	-0.47734	
1.80054	0	0	0.1488	-0.389147	0.055606	0.043539	0.39811	-0.439083	0.250941	0.239096	0.264797	-0.306157	0.210735	0.024197	0.026679	-0.181789	0.238604	0.132025	-0.380941	-0.658381	-0.137688	-0.636506	-0.150186	-0.590977	0.122564	-0.517484	0.2947	-0.412462	0.240018	-0.116646	0.074011	-0.289289	0.264785	-0.477946	
1.79748	0	0	0.152173	-0.39868	0.059144	0.0335403	0.395346	-0.445504	0.253677	0.231363	0.263794	-0.313264	0.206926	0.0200068	0.026679	-0.181789	0.241246	0.124558	-0.383676	-0.650652	-0.138747	-0.633513	-0.158966	-0.580205	0.122564	-0.517484	0.300674	-0.413606	0.243111	-0.114197	0.0708185	-0.280267	0.262242	-0.470758	
1.79901	0	0	0.155546	-0.408212	0.062682	0.0235415	0.392581	-0.451925	0.256414	0.223629	0.262791	-0.320371	0.203118	0.0158165	0.026679	-0.181789	0.243888	0.117091	-0.38641	-0.642923	-0.139806	-0.63052	-0.167746	-0.569432	0.122564	-0.517484	0.306647	-0.414751	0.246203	-0.111748	0.067626	-0.271244	0.259698	-0.463571	
1.79138	0	0	0.15892	-0.417745	0.06622	0.0135427	0.389817	-0.458346	0.25915	0.215896	0.261788	-0.327478	0.199309	0.0116263	0.026679	-0.181789	0.24653	0.109624	-0.389145	-0.635195	-0.140865	-0.627526	-0.176526	-0.558659	0.122564	-0.517484	0.31262	-0.415895	0.249296	-0.109299	0.0644335	-0.262221	0.257155	-0.456383	
1.79291	0	0	0.162293	-0.427278	0.069758	0.003544	0.387052	-0.464767	0.261886	0.208163	0.260785	-0.334585	0.1955	0.007436	0.026679	-0.181789	0.249172	0.102157	-0.39188	-0.627466	-0.141924	-0.624533	-0.185306	-0.547887	0.122564	-0.517484	0.318594	-0.417039	0.252389	-0.10685	0.061241	-0.253199	0.254612	-0.449196	
1.79138	0	0	0.16454	-0.433627	0.073292	-0.0064435	0.394865	-0.472612	0.262798	0.205587	0.258889	-0.339162	0.198571	-0.00124275	0.0285878	-0.187184	0.246374	0.0982492	-0.395621	-0.627003	-0.134991	-0.633664	-0.184147	-0.551162	0.125233	-0.525027	0.315159	-0.423068	0.246205	-0.111746	0.052797	-0.256929	0.253273	-0.459368	
1.79138	0	0	0.166786	-0.439977	0.076826	-0.016431	0.402677	-0.480457	0.26371	0.20301	0.256992	-0.343739	0.201642	-0.0099215	0.0304965	-0.192578	0.243577	0.0943415	-0.399362	-0.62654	-0.128059	-0.642796	-0.182988	-0.554438	0.127902	-0.53257	0.311723	-0.429097	0.240021	-0.116642	0.044353	-0.260658	0.251934	-0.46954	
1.79138	0	0	0.169032	-0.446327	0.08036	-0.0264185	0.41049	-0.488303	0.264621	0.200434	0.255096	-0.348315	0.204712	-0.0186003	0.0324052	-0.197972	0.240779	0.0904338	-0.403102	-0.626077	-0.121126	-0.651927	-0.181829	-0.557713	0.130571	-0.540112	0.308288	-0.435126	0.233837	-0.121539	0.035909	-0.264387	0.250594	-0.479712	
1.79291	0	0	0.171279	-0.452676	0.083894	-0.036406	0.418302	-0.496148	0.265533	0.197858	0.2532	-0.352892	0.207783	-0.027279	0.034314	-0.203367	0.237981	0.086526	-0.406843	-0.625614	-0.114194	-0.661059	-0.18067	-0.560989	0.13324	-0.547655	0.304853	-0.441155	0.227653	-0.126435	0.027465	-0.268117	0.249255	-0.489884	
1.7868	0	0	0.176178	-0.453437	0.0860015	-0.0301047	0.417041	-0.492583	0.27184	0.199681	0.257773	-0.35588	0.207783	-0.027279	0.0333598	-0.20067	0.2393	0.082798	-0.407755	-0.623037	-0.112554	-0.655227	-0.182988	-0.554437	0.13324	-0.547655	0.307389	-0.448323	0.226617	-0.134683	0.0243102	-0.272983	0.246644	-0.496451	
1.79138	0	0	0.181077	-0.454198	0.088109	-0.0238035	0.415779	-0.489019	0.278147	0.201503	0.262346	-0.358868	0.207783	-0.027279	0.0324055	-0.197973	0.240619	0.07907	-0.408667	-0.62046	-0.110914	-0.649395	-0.185306	-0.547885	0.13324	-0.547655	0.309925	-0.45549	0.225581	-0.142931	0.0211555	-0.277848	0.244033	-0.503019	
1.78833	0	0	0.185976	-0.454958	0.0902165	-0.0175023	0.414518	-0.485455	0.284454	0.203325	0.266919	-0.361857	0.207783	-0.027279	0.0314513	-0.195277	0.241939	0.075342	-0.409578	-0.617883	-0.109274	-0.643563	-0.187625	-0.541333	0.13324	-0.547655	0.312461	-0.462657	0.224545	-0.15118	0.0180007	-0.282713	0.241422	-0.509586	
1.78985	0	0	0.190875	-0.455719	0.092324	-0.011201	0.413257	-0.48189	0.290761	0.205148	0.271492	-0.364845	0.207783	-0.027279	0.030497	-0.19258	0.243258	0.071614	-0.41049	-0.615306	-0.107634	-0.637731	-0.189943	-0.534781	0.13324	-0.547655	0.314997	-0.469825	0.223509	-0.159428	0.014846	-0.287579	0.238811	-0.516154	
1.78375	0	0	0.186379	-0.443011	0.0864253	0.00546975	0.40947	-0.471188	0.285283	0.22063	0.273391	-0.36027	0.211595	-0.0230975	0.0295425	-0.189882	0.246057	0.0755185	-0.408575	-0.610611	-0.104356	-0.626045	-0.186962	-0.529166	0.138574	-0.548242	0.309027	-0.468677	0.224535	-0.162328	0.0190638	-0.285718	0.237542	-0.512568	
1.78833	0	0	0.181882	-0.430303	0.0805265	0.0221405	0.405683	-0.460487	0.279805	0.236112	0.27529	-0.355695	0.215407	-0.018916	0.028588	-0.187185	0.248856	0.079423	-0.406659	-0.605915	-0.101077	-0.614358	-0.18398	-0.523552	0.143908	-0.548829	0.303057	-0.46753	0.225561	-0.165228	0.0232815	-0.283856	0.236273	-0.508983	
1.7868	0	0	0.177385	-0.417595	0.0746277	0.0388112	0.401897	-0.449785	0.274327	0.251594	0.277189	-0.351119	0.219219	-0.0147345	0.0276335	-0.184487	0.251654	0.0833275	-0.404744	-0.60122	-0.0977992	-0.602672	-0.180999	-0.517937	0.149243	-0.549416	0.297088	-0.466383	0.226587	-0.168128	0.0274993	-0.281995	0.235005	-0.505397	
1.78528	0	0	0.172889	-0.404887	0.068729	0.055482	0.39811	-0.439083	0.268849	0.267076	0.279088	-0.346544	0.223031	-0.010553	0.026679	-0.181789	0.254453	0.087232	-0.402828	-0.596524	-0.094521	-0.590985	-0.178017	-0.512323	0.154577	-0.550003	0.291118	-0.465235	0.227613	-0.171028	0.031717	-0.280134	0.233736	-0.501811	
1.78223	0	0	0.174014	-0.408066	0.0710898	0.04881	0.404667	-0.443367	0.268849	0.267076	0.274399	-0.353171	0.212342	-0.0102407	0.0257918	-0.189501	0.250335	0.0870555	-0.41022	-0.585742	-0.0950092	-0.579121	-0.182664	-0.49919	0.145238	-0.538099	0.289851	-0.461653	0.226587	-0.168128	0.0338103	-0.272258	0.240227	-0.492252	
1.78528	0	0	0.175138	-0.411245	0.0734505	0.042138	0.411223	-0.447651	0.268849	0.267076	0.26971	-0.359798	0.201653	-0.0099285	0.0249045	-0.197213	0.246217	0.086879	-0.417612	-0.57496	-0.0954975	-0.567257	-0.187311	-0.486057	0.1359	-0.526196	0.288583	-0.458072	0.225561	-0.165228	0.0359035	-0.264382	0.246718	-0.482692	
1.7807	0	0	0.176263	-0.414423	0.0758112	0.035466	0.417779	-0.451935	0.268849	0.267076	0.265022	-0.366425	0.190963	-0.00961625	0.0240173	-0.204926	0.242099	0.0867025	-0.425005	-0.564177	-0.0959858	-0.555394	-0.191958	-0.472923	0.126561	-0.514293	0.287316	-0.454491	0.224535	-0.162328	0.0379968	-0.256506	0.253209	-0.473133	
1.78375	0	0	0.177388	-0.417602	0.078172	0.028794	0.424336	-0.456219	0.268849	0.267076	0.260333	-0.373052	0.180274	-0.009304	0.02313	-0.212638	0.237981	0.086526	-0.432397	-0.553395	-0.096474	-0.54353	-0.196605	-0.45979	0.117223	-0.502389	0.286048	-0.450909	0.223509	-0.159428	0.04009	-0.24863	0.2597	-0.463574	
1.77917	0	0	0.176263	-0.414423	0.0871058	0.028086	0.421809	-0.449078	0.271546	0.269286	0.260216	-0.382653	0.184875	-0.0223065	0.017542	-0.217269	0.244738	0.0792448	-0.434307	-0.558099	-0.0986018	-0.537516	-0.201905	-0.458852	0.118558	-0.506163	0.285149	-0.464078	0.219382	-0.170097	0.0379968	-0.256506	0.254478	-0.476719	
1.77765	0	0	0.175138	-0.411245	0.0960395	0.027378	0.419282	-0.441936	0.274243	0.271496	0.260099	-0.392253	0.189476	-0.035309	0.011954	-0.2219	0.251495	0.0719635	-0.436218	-0.562802	-0.100729	-0.531502	-0.207205	-0.457915	0.119894	-0.509937	0.284249	-0.477246	0.215255	-0.180767	0.0359035	-0.264382	0.249255	-0.489864	
1.77917	0	0	0.174014	-0.408066	0.104973	0.02667	0.416755	-0.434794	0.276939	0.273706	0.259982	-0.401853	0.194077	-0.0483115	0.006366	-0.226531	0.258251	0.0646822	-0.438129	-0.567506	-0.102857	-0.525488	-0.212505	-0.456977	0.121229	-0.51371	0.283349	-0.490414	0.211128	-0.191437	0.0338103	-0.272258	0.244033	-0.503009	
1.77612	0	0	0.172889	-0.404887	0.113907	0.025962	0.414228	-0.427653	0.279636	0.275916	0.259865	-0.411454	0.198678	-0.061314	0.000778	-0.231162	0.265008	0.057401	-0.440039	-0.57221	-0.104985	-0.519474	-0.217805	-0.456039	0.122564	-0.517484	0.28245	-0.503583	0.207001	-0.202106	0.031717	-0.280134	0.238811	-0.516154	
1.77612	0	0	0.181569	-0.403222	0.114833	0.0356275	0.424827	-0.429084	0.279588	0.285888	0.261645	-0.416484	0.20021	-0.065644	-0.00011075	-0.238853	0.259571	0.0609543	-0.445683	-0.57645	-0.104985	-0.519474	-0.216643	-0.459323	0.11857	-0.520673	0.273062	-0.508434	0.202874	-0.21275	0.0243458	-0.286855	0.225919	-0.521498	
1.77612	0	0	0.190249	-0.401558	0.115759	0.045293	0.435426	-0.430515	0.27954	0.295859	0.263425	-0.421513	0.201742	-0.069974	-0.0009995	-0.246544	0.254133	0.0645075	-0.451327	-0.580691	-0.104985	-0.519474	-0.215481	-0.462607	0.114575	-0.523861	0.263674	-0.513285	0.198748	-0.223394	0.0169745	-0.293575	0.213028	-0.526842	
1.7746	0	0	0.19893	-0.399893	0.116684	0.0549585	0.446024	-0.431945	0.279493	0.305831	0.265204	-0.426543	0.203274	-0.074304	-0.00188825	-0.254236	0.248696	0.0680608	-0.45697	-0.584932	-0.104985	-0.519474	-0.214319	-0.465891	0.11058	-0.52705	0.254286	-0.518136	0.194622	-0.234038	0.00960325	-0.300296	0.200136	-0.532186	
1.7807	0	0	0.20761	-0.398228	0.11761	0.064624	0.456623	-0.433376	0.279445	0.315802	0.266984	-0.431573	0.204806	-0.078634	-0.002777	-0.261927	0.243258	0.071614	-0.462614	-0.589172	-0.104985	-0.519474	-0.213157	-0.469175	0.106586	-0.530239	0.244898	-0.522987	0.190495	-0.244682	0.002232	-0.307017	0.187245	-0.53753	
1.77612	0	0	0.195553	-0.39035	0.111957	0.0683177	0.456623	-0.433376	0.280361	0.313215	0.259628	-0.430632	0.199466	-0.0784717	-0.0083585	-0.266542	0.239142	0.0714382	-0.464523	-0.593865	-0.100157	-0.522629	-0.224906	-0.464022	0.109253	-0.537775	0.247423	-0.530123	0.188432	-0.249994	0.0106917	-0.317154	0.188511	-0.541107	
1.7746	0	0	0.183496	-0.382472	0.106304	0.0720115	0.456623	-0.433376	0.281276	0.310627	0.252273	-0.42969	0.194126	-0.0783095	-0.01394	-0.271157	0.235026	0.0712625	-0.466431	-0.598558	-0.095329	-0.525784	-0.236654	-0.458869	0.11192	-0.545312	0.249948	-0.537258	0.186368	-0.255306	0.0191515	-0.327291	0.189777	-0.544684	
1.77307	0	0	0.171439	-0.374594	0.100652	0.0757053	0.456623	-0.433376	0.282191	0.30804	0.244918	-0.428749	0.188785	-0.0781473	-0.0195215	-0.275772	0.230911	0.0710868	-0.46834	-0.603251	-0.090501	-0.528939	-0.248403	-0.453715	0.114586	-0.552849	0.252473	-0.544394	0.184305	-0.260619	0.0276113	-0.337429	0.191042	-0.548261	
1.77002	0	0	0.159382	-0.366716	0.094999	0.079399	0.456623	-0.433376	0.283107	0.305452	0.237562	-0.427808	0.183445	-0.077985	-0.025103	-0.280387	0.226795	0.070911	-0.470248	-0.607944	-0.085673	-0.532094	-0.260152	-0.448562	0.117253	-0.560385	0.254998	-0.55153	0.182242	-0.265931	0.036071	-0.347566	0.192308	-0.551838	
1.77154	0	0	0.157861	-0.375502	0.0940768	0.069731	0.452585	-0.436232	0.284937	0.30028	0.23643	-0.444433	0.184225	-0.0951065	-0.0306208	-0.295335	0.223837	0.0556795	-0.479609	-0.611716	-0.0931987	-0.5318	-0.261958	-0.457468	0.105274	-0.555453	0.247785	-0.546817	0.182242	-0.265931	0.0413535	-0.348713	0.189776	-0.544682	
1.76849	0	0	0.15634	-0.384289	0.0931545	0.060063	0.448548	-0.439089	0.286768	0.295107	0.235297	-0.461058	0.185004	-0.112228	-0.0361385	-0.310283	0.220879	0.040448	-0.48897	-0.615488	-0.100724	-0.531506	-0.263764	-0.466373	0.0932955	-0.55052	0.240572	-0.542104	0.182242	-0.265931	0.046636	-0.349861	0.187244	-0.537527	
1.76849	0	0	0.15482	-0.393076	0.0922323	0.050395	0.444511	-0.441945	0.288598	0.289934	0.234165	-0.477682	0.185783	-0.12935	-0.0416562	-0.32523	0.217921	0.0252165	-0.498332	-0.61926	-0.10825	-0.531212	-0.26557	-0.475279	0.0813167	-0.545588	0.233359	-0.537391	0.182242	-0.265931	0.0519185	-0.351008	0.184712	-0.530371	
1.76849	0	0	0.153299	-0.401862	0.09131	0.040727	0.440473	-0.444802	0.290428	0.284762	0.233033	-0.494307	0.186563	-0.146471	-0.047174	-0.340178	0.214963	0.009985	-0.507693	-0.623032	-0.115776	-0.530918	-0.267376	-0.484185	0.069338	-0.540656	0.226146	-0.532678	0.182242	-0.265931	0.057201	-0.352155	0.18218	-0.523215	
1.76697	0	0	0.149529	-0.404284	0.0948507	0.0307207	0.441737	-0.448373	0.292257	0.279592	0.233791	-0.506355	0.184281	-0.154928	-0.0489615	-0.35546	0.209374	0.0022175	-0.514315	-0.634498	-0.120105	-0.539634	-0.273307	-0.49541	0.0746622	-0.555704	0.223983	-0.542224	0.184258	-0.282764	0.0519363	-0.364829	0.18977	-0.544666	
1.77002	0	0	0.14576	-0.406705	0.0983915	0.0207145	0.443001	-0.451945	0.294087	0.274423	0.234549	-0.518402	0.181999	-0.163385	-0.050749	-0.370742	0.203786	-0.00555	-0.520936	-0.645964	-0.124434	-0.54835	-0.279239	-0.506635	0.0799865	-0.570751	0.221821	-0.55177	0.186273	-0.299597	0.0466715	-0.377503	0.19736	-0.566116	
1.76391	0	0	0.141991	-0.409127	0.101932	0.0107083	0.444264	-0.455516	0.295916	0.269253	0.235308	-0.53045	0.179716	-0.171842	-0.0525365	-0.386024	0.198197	-0.0133175	-0.527557	-0.657429	-0.128763	-0.557066	-0.28517	-0.51786	0.0853107	-0.585798	0.219658	-0.561315	0.188289	-0.31643	0.0414067	-0.390178	0.20495	-0.587566	
1.76239	0	0	0.138221	-0.411549	0.105473	0.000702	0.445528	-0.459088	0.297745	0.264083	0.236066	-0.542497	0.177434	-0.180299	-0.054324	-0.401306	0.192608	-0.021085	-0.534179	-0.668895	-0.133092	-0.565782	-0.291101	-0.529085	0.090635	-0.600846	0.217495	-0.570861	0.190305	-0.333263	0.036142	-0.402852	0.21254	-0.609017	
1.76697	0	0	0.144239	-0.415481	0.108762	0.0036805	0.450831	-0.459807	0.295916	0.269253	0.24151	-0.547978	0.178959	-0.184608	-0.060838	-0.403208	0.192438	-0.0323743	-0.539798	-0.673106	-0.128848	-0.577778	-0.294065	-0.534686	0.0932937	-0.60836	0.22722	-0.582689	0.192342	-0.339021	0.0340387	-0.410669	0.215066	-0.616156	
1.76086	0	0	0.150257	-0.419413	0.112051	0.006659	0.456133	-0.460527	0.294087	0.274423	0.246953	-0.553458	0.180484	-0.188917	-0.067352	-0.40511	0.192268	-0.0436635	-0.545418	-0.677316	-0.124603	-0.589773	-0.297029	-0.540288	0.0959525	-0.615874	0.236946	-0.594517	0.194379	-0.344779	0.0319355	-0.418485	0.217592	-0.623295	
1.76086	0	0	0.156275	-0.423346	0.11534	0.0096375	0.461436	-0.461246	0.292257	0.279592	0.252397	-0.558939	0.182008	-0.193226	-0.073866	-0.407013	0.192098	-0.0549527	-0.551037	-0.681527	-0.120359	-0.601768	-0.299993	-0.545889	0.0986112	-0.623388	0.246671	-0.606344	0.196417	-0.350537	0.0298323	-0.426302	0.220118	-0.630433	
1.76697	0	0	0.162293	-0.427278	0.118629	0.012616	0.466739	-0.461965	0.290428	0.284762	0.257841	-0.564419	0.183533	-0.197535	-0.08038	-0.408915	0.191928	-0.066242	-0.556657	-0.685738	-0.116115	-0.613764	-0.302957	-0.55149	0.10127	-0.630902	0.256397	-0.618172	0.198454	-0.356295	0.027729	-0.434119	0.222644	-0.637572	
1.76391	0	0	0.157398	-0.426521	0.11416	0.0129718	0.461436	-0.461246	0.28773	0.282551	0.250626	-0.553932	0.180483	-0.188915	-0.0794357	-0.411584	0.183724	-0.0665745	-0.556657	-0.685738	-0.119872	-0.613613	-0.304113	-0.548223	0.105264	-0.627735	0.261091	-0.615766	0.200523	-0.351006	0.0361705	-0.430444	0.227786	-0.638188	
1.76391	0	0	0.152504	-0.425764	0.109691	0.0133275	0.456133	-0.460527	0.285032	0.280339	0.243411	-0.543446	0.177432	-0.180294	-0.0784915	-0.414253	0.175521	-0.066907	-0.556657	-0.685738	-0.123629	-0.613461	-0.305269	-0.544956	0.109259	-0.624568	0.265785	-0.61336	0.202592	-0.345716	0.044612	-0.426768	0.232928	-0.638804	
1.76086	0	0	0.14761	-0.425008	0.105223	0.0136832	0.450831	-0.459807	0.282334	0.278127	0.236196	-0.53296	0.174382	-0.171674	-0.0775472	-0.416921	0.167318	-0.0672395	-0.556657	-0.685738	-0.127386	-0.613309	-0.306425	-0.541689	0.113253	-0.621402	0.270479	-0.610955	0.204661	-0.340427	0.0530535	-0.423093	0.238069	-0.639421	
1.76391	0	0	0.142715	-0.424251	0.100754	0.014039	0.445528	-0.459088	0.279636	0.275916	0.228981	-0.522473	0.171332	-0.163054	-0.076603	-0.41959	0.159114	-0.067572	-0.556657	-0.685738	-0.131143	-0.613158	-0.307581	-0.538422	0.117247	-0.618235	0.275173	-0.608549	0.20673	-0.335138	0.061495	-0.419418	0.243211	-0.640037	
1.75781	0	0	0.14007	-0.429841	0.104292	0.00404025	0.448054	-0.466227	0.28055	0.273332	0.230752	-0.527479	0.181243	-0.176157	-0.0784423	-0.424539	0.154845	-0.0789945	-0.555843	-0.698077	-0.132301	-0.630802	-0.308234	-0.550545	0.114581	-0.625157	0.271391	-0.59786	0.206758	-0.324073	0.0572592	-0.407447	0.242033	-0.622783	
1.76086	0	0	0.137425	-0.43543	0.10783	-0.0059585	0.45058	-0.473365	0.281464	0.270749	0.232523	-0.532485	0.191154	-0.18926	-0.0802815	-0.429489	0.150576	-0.090417	-0.555029	-0.710416	-0.133459	-0.648447	-0.308887	-0.562667	0.111916	-0.632078	0.267609	-0.587171	0.206786	-0.313009	0.0530235	-0.395475	0.240856	-0.605529	
1.75781	0	0	0.134779	-0.44102	0.111368	-0.0159573	0.453106	-0.480504	0.282378	0.268165	0.234295	-0.537491	0.201065	-0.202364	-0.0821208	-0.434438	0.146306	-0.101839	-0.554215	-0.722755	-0.134616	-0.666092	-0.309539	-0.57479	0.10925	-0.638999	0.263827	-0.576482	0.206813	-0.301944	0.0487878	-0.383504	0.239678	-0.588275	
1.75934	0	0	0.132134	-0.44661	0.114906	-0.025956	0.455632	-0.487643	0.283292	0.265581	0.236066	-0.542497	0.210976	-0.215467	-0.08396	-0.439387	0.142037	-0.113262	-0.553401	-0.735094	-0.135774	-0.683736	-0.310192	-0.586913	0.106584	-0.645921	0.260045	-0.565793	0.206841	-0.290879	0.044552	-0.371533	0.2385	-0.571021	
1.75781	0	0	0.140391	-0.45688	0.114906	-0.025956	0.463461	-0.495501	0.284206	0.262998	0.239739	-0.542973	0.204115	-0.210984	-0.0876845	-0.439003	0.14186	-0.124495	-0.557114	-0.734634	-0.136357	-0.692537	-0.313155	-0.592496	0.106584	-0.645921	0.252832	-0.56108	0.212994	-0.297117	0.0413913	-0.376371	0.235886	-0.577561	
1.75934	0	0	0.148648	-0.467149	0.114906	-0.025956	0.47129	-0.503359	0.28512	0.260415	0.243412	-0.543449	0.197254	-0.206501	-0.091409	-0.438618	0.141684	-0.135728	-0.560827	-0.734174	-0.136941	-0.701337	-0.316119	-0.598078	0.106584	-0.645921	0.245619	-0.556367	0.219146	-0.303356	0.0382305	-0.38121	0.233273	-0.5841	
1.75781	0	0	0.156905	-0.477419	0.114906	-0.025956	0.479118	-0.511217	0.286034	0.257832	0.247085	-0.543925	0.190394	-0.202018	-0.0951335	-0.438233	0.141507	-0.14696	-0.564539	-0.733713	-0.137524	-0.710138	-0.319082	-0.60366	0.106584	-0.645921	0.238406	-0.551654	0.225298	-0.309594	0.0350697	-0.386049	0.230659	-0.590639	
1.75781	0	0	0.165162	-0.487689	0.114906	-0.025956	0.486947	-0.519075	0.286948	0.255249	0.250758	-0.544401	0.183533	-0.197535	-0.098858	-0.437849	0.14133	-0.158193	-0.568252	-0.733253	-0.138107	-0.718939	-0.322045	-0.609243	0.106584	-0.645921	0.231193	-0.546941	0.231451	-0.315832	0.031909	-0.390887	0.228046	-0.597179	
1.75781	0	0	0.165162	-0.487689	0.113727	-0.0226245	0.485685	-0.515508	0.286948	0.255249	0.252661	-0.539869	0.188869	-0.197709	-0.0951335	-0.438233	0.133149	-0.158514	-0.567348	-0.73581	-0.138693	-0.727726	-0.327311	-0.608306	0.106584	-0.645921	0.238406	-0.551654	0.235565	-0.316302	0.0414212	-0.403999	0.22931	-0.600752	
1.75629	0	0	0.165162	-0.487689	0.112548	-0.019293	0.484422	-0.51194	0.286948	0.255249	0.254564	-0.535338	0.194205	-0.197882	-0.091409	-0.438618	0.124967	-0.158836	-0.566443	-0.738366	-0.139279	-0.736513	-0.332578	-0.60737	0.106584	-0.645921	0.245619	-0.556367	0.239679	-0.316773	0.0509335	-0.417112	0.230575	-0.604324	
1.75476	0	0	0.165162	-0.487689	0.111369	-0.0159615	0.48316	-0.508373	0.286948	0.255249	0.256467	-0.530806	0.199541	-0.198056	-0.0876845	-0.439003	0.116786	-0.159157	-0.565538	-0.740923	-0.139865	-0.745299	-0.337844	-0.606433	0.106584	-0.645921	0.252832	-0.56108	0.243793	-0.317243	0.0604458	-0.430225	0.231839	-0.607897	
1.75629	0	0	0.165162	-0.487689	0.11019	-0.01263	0.481898	-0.504806	0.286948	0.255249	0.25837	-0.526274	0.204877	-0.19823	-0.08396	-0.439387	0.108604	-0.159478	-0.564634	-0.743479	-0.140451	-0.754086	-0.34311	-0.605496	0.106584	-0.645921	0.260045	-0.565793	0.247907	-0.317713	0.069958	-0.443337	0.233103	-0.61147	
1.75476	0	0	0.15986	-0.498827	0.111611	-0.0289125	0.481638	-0.518337	0.287901	0.242724	0.253809	-0.523294	0.199541	-0.198056	-0.0895713	-0.433671	0.101736	-0.163483	-0.567348	-0.735808	-0.142093	-0.759882	-0.345416	-0.59898	0.106584	-0.645921	0.258783	-0.562227	0.245864	-0.31194	0.06362	-0.439195	0.238248	-0.612085	
1.75629	0	0	0.154558	-0.509966	0.113033	-0.045195	0.481378	-0.531868	0.288855	0.230199	0.249248	-0.520313	0.194205	-0.197882	-0.0951825	-0.427955	0.0948685	-0.167487	-0.570062	-0.728136	-0.143736	-0.765678	-0.347722	-0.592464	0.106584	-0.645921	0.257522	-0.558661	0.243821	-0.306167	0.057282	-0.435053	0.243394	-0.6127	
1.75476	0	0	0.149256	-0.521104	0.114454	-0.0614775	0.481117	-0.5454	0.289808	0.217673	0.244687	-0.517333	0.188869	-0.197709	-0.100794	-0.422238	0.0880008	-0.171492	-0.572777	-0.720465	-0.145378	-0.771474	-0.350027	-0.585947	0.106584	-0.645921	0.25626	-0.555096	0.241779	-0.300394	0.050944	-0.430912	0.248539	-0.613316	
1.75629	0	0	0.143954	-0.532243	0.115875	-0.07776	0.480857	-0.558931	0.290761	0.205148	0.240126	-0.514353	0.183533	-0.197535	-0.106405	-0.416522	0.081133	-0.175496	-0.575491	-0.712794	-0.14702	-0.77727	-0.352333	-0.579431	0.106584	-0.645921	0.254998	-0.55153	0.239736	-0.294621	0.044606	-0.42677	0.253684	-0.613931	
1.75323	0	0	0.148427	-0.544884	0.117284	-0.0940007	0.479331	-0.568876	0.287187	0.195601	0.241898	-0.519362	0.185057	-0.201842	-0.110127	-0.41614	0.0809537	-0.186685	-0.571873	-0.723021	-0.150306	-0.788841	-0.348875	-0.589204	0.105245	-0.65658	0.246523	-0.54325	0.235623	-0.294153	0.0372145	-0.419642	0.24601	-0.606168	
1.75476	0	0	0.152899	-0.557524	0.118694	-0.110241	0.477805	-0.57882	0.283613	0.186055	0.243671	-0.52437	0.186581	-0.206149	-0.113848	-0.415758	0.0807745	-0.197875	-0.568254	-0.733248	-0.153592	-0.800412	-0.345417	-0.598977	0.103905	-0.667239	0.238047	-0.534969	0.23151	-0.293685	0.029823	-0.412515	0.238336	-0.598406	
1.75323	0	0	0.157372	-0.570164	0.120104	-0.126482	0.47628	-0.588765	0.280039	0.176508	0.245443	-0.529379	0.188105	-0.210456	-0.11757	-0.415376	0.0805953	-0.209064	-0.564635	-0.743474	-0.156878	-0.811982	-0.341959	-0.608749	0.102566	-0.677899	0.229572	-0.526689	0.227396	-0.293216	0.0224315	-0.405387	0.230661	-0.590643	
1.75323	0	0	0.161845	-0.582805	0.121513	-0.142723	0.474754	-0.59871	0.276465	0.166961	0.247215	-0.534388	0.189629	-0.214763	-0.121292	-0.414994	0.080416	-0.220253	-0.561017	-0.753701	-0.160164	-0.823553	-0.338501	-0.618522	0.101227	-0.688558	0.221097	-0.518409	0.223283	-0.292748	0.01504	-0.398259	0.222987	-0.582881	
1.75018	0	0	0.162962	-0.585963	0.120339	-0.139405	0.469456	-0.597981	0.278286	0.161815	0.245443	-0.529379	0.191152	-0.219068	-0.122235	-0.412328	0.0789335	-0.227752	-0.561017	-0.753701	-0.158062	-0.829493	-0.342612	-0.62084	0.09856	-0.695453	0.216414	-0.520833	0.221214	-0.29805	0.0118835	-0.403088	0.220375	-0.589415	
1.75171	0	0	0.164079	-0.58912	0.119165	-0.136086	0.464157	-0.597251	0.280107	0.15667	0.243671	-0.52437	0.192675	-0.223373	-0.123179	-0.409662	0.077451	-0.235251	-0.561017	-0.753701	-0.155961	-0.835433	-0.346722	-0.623158	0.095893	-0.702349	0.211731	-0.523257	0.219145	-0.303352	0.008727	-0.407918	0.217763	-0.595949	
1.75323	0	0	0.165197	-0.592278	0.11799	-0.132768	0.458859	-0.596521	0.281927	0.151524	0.241898	-0.519362	0.194199	-0.227678	-0.124123	-0.406995	0.0759685	-0.24275	-0.561017	-0.753701	-0.153859	-0.841372	-0.350833	-0.625476	0.093226	-0.709244	0.207049	-0.525681	0.217076	-0.308654	0.0055705	-0.412747	0.215152	-0.602483	
1.75018	0	0	0.166314	-0.595435	0.116816	-0.12945	0.45356	-0.595792	0.283748	0.146378	0.240126	-0.514353	0.195722	-0.231983	-0.125066	-0.404329	0.074486	-0.250249	-0.561017	-0.753701	-0.151757	-0.847312	-0.354944	-0.627794	0.090559	-0.716139	0.202366	-0.528105	0.215007	-0.313956	0.002414	-0.417577	0.21254	-0.609017	
1.75323	0	0	0.167852	-0.586726	0.124578	-0.126864	0.457601	-0.592966	0.286447	0.14857	0.243928	-0.505272	0.199536	-0.227854	-0.124177	-0.396705	0.077268	-0.246423	-0.561829	-0.741373	-0.151164	-0.838564	-0.359552	-0.614771	0.095877	-0.716736	0.202366	-0.528105	0.217047	-0.319721	0.00874275	-0.421712	0.211276	-0.605446	
1.75171	0	0	0.16939	-0.578016	0.13234	-0.124278	0.461641	-0.590139	0.289147	0.150763	0.247729	-0.496191	0.203349	-0.223725	-0.123288	-0.38908	0.08005	-0.242596	-0.562641	-0.729046	-0.15057	-0.829816	-0.36416	-0.601748	0.101195	-0.717332	0.202366	-0.528105	0.219087	-0.325487	0.0150715	-0.425848	0.210012	-0.601874	
1.75171	0	0	0.170929	-0.569307	0.140103	-0.121691	0.465681	-0.587312	0.291847	0.152955	0.251531	-0.48711	0.207162	-0.219596	-0.1224	-0.381456	0.082832	-0.23877	-0.563453	-0.716719	-0.149976	-0.821067	-0.368769	-0.588725	0.106513	-0.717929	0.202366	-0.528105	0.221127	-0.331252	0.0214002	-0.429983	0.208749	-0.598302	
1.74713	0	0	0.172467	-0.560597	0.147865	-0.119105	0.469722	-0.584486	0.294546	0.155147	0.255333	-0.478029	0.210976	-0.215467	-0.121511	-0.373831	0.085614	-0.234944	-0.564265	-0.704391	-0.149383	-0.812319	-0.373377	-0.575702	0.111831	-0.718526	0.202366	-0.528105	0.223167	-0.337017	0.027729	-0.434119	0.207485	-0.594731	
1.75018	0	0	0.16422	-0.550346	0.147865	-0.119105	0.464424	-0.583758	0.295457	0.152574	0.251779	-0.467986	0.207926	-0.206847	-0.124346	-0.365818	0.0843145	-0.231271	-0.559467	-0.687819	-0.148205	-0.79478	-0.36978	-0.557984	0.107854	-0.707286	0.207049	-0.525681	0.221127	-0.331252	0.027715	-0.420318	0.215239	-0.588804	
1.74866	0	0	0.155972	-0.540094	0.147865	-0.119105	0.459125	-0.58303	0.296367	0.150001	0.248225	-0.457944	0.204875	-0.198226	-0.127182	-0.357805	0.083015	-0.227598	-0.554669	-0.671247	-0.147027	-0.777242	-0.366183	-0.540266	0.103876	-0.696045	0.211731	-0.523257	0.219087	-0.325487	0.027701	-0.406518	0.222992	-0.582876	
1.74866	0	0	0.147724	-0.529842	0.147865	-0.119105	0.453827	-0.582302	0.297277	0.147427	0.244672	-0.447901	0.201825	-0.189606	-0.130017	-0.349791	0.0817155	-0.223926	-0.549872	-0.654676	-0.145848	-0.759703	-0.362587	-0.522548	0.0998992	-0.684805	0.216414	-0.520833	0.217047	-0.319721	0.027687	-0.392717	0.230746	-0.576948	
1.74866	0	0	0.139477	-0.519591	0.147865	-0.119105	0.448529	-0.581574	0.298188	0.144854	0.241118	-0.437858	0.198775	-0.180986	-0.132852	-0.341778	0.080416	-0.220253	-0.545074	-0.638104	-0.14467	-0.742164	-0.35899	-0.50483	0.095922	-0.673564	0.221097	-0.518409	0.215007	-0.313956	0.027673	-0.378917	0.2385	-0.571021	
1.74713	0	0	0.137237	-0.513262	0.146689	-0.115782	0.453827	-0.582302	0.298188	0.144854	0.244795	-0.438329	0.198775	-0.180986	-0.133798	-0.339106	0.079116	-0.216579	-0.5478	-0.6304	-0.13822	-0.7395	-0.366565	-0.497368	0.095922	-0.673564	0.210101	-0.50299	0.208858	-0.307721	0.027651	-0.365084	0.237309	-0.553719	
1.74713	0	0	0.134998	-0.506933	0.145514	-0.112459	0.459125	-0.58303	0.298188	0.144854	0.248472	-0.4388	0.198775	-0.180986	-0.134744	-0.336433	0.077816	-0.212904	-0.550526	-0.622696	-0.13177	-0.736837	-0.37414	-0.489905	0.095922	-0.673564	0.199104	-0.487571	0.202709	-0.301486	0.027629	-0.35125	0.236118	-0.536416	
1.74866	0	0	0.132759	-0.500603	0.144338	-0.109136	0.464424	-0.583758	0.298188	0.144854	0.252149	-0.439271	0.198775	-0.180986	-0.135689	-0.333761	0.076516	-0.209229	-0.553253	-0.614991	-0.12532	-0.734173	-0.381716	-0.482442	0.095922	-0.673564	0.188108	-0.472151	0.196559	-0.29525	0.027607	-0.337417	0.234927	-0.519114	
1.74713	0	0	0.130519	-0.494274	0.143162	-0.105813	0.469722	-0.584486	0.298188	0.144854	0.255826	-0.439742	0.198775	-0.180986	-0.136635	-0.331088	0.075216	-0.205555	-0.555979	-0.607287	-0.11887	-0.731509	-0.389291	-0.47498	0.095922	-0.673564	0.177112	-0.456732	0.19041	-0.289015	0.027585	-0.323583	0.233736	-0.501811	
1.74866	0	0	0.138058	-0.489458	0.144103	-0.0961998	0.464684	-0.570248	0.300889	0.147046	0.254937	-0.437229	0.205641	-0.185473	-0.132913	-0.331464	0.0820818	-0.20156	-0.55127	-0.600481	-0.115585	-0.719878	-0.385186	-0.472634	0.0906055	-0.672972	0.173701	-0.462737	0.190384	-0.300077	0.0170347	-0.321299	0.236273	-0.508981	
1.7456	0	0	0.145597	-0.484642	0.145045	-0.0865865	0.459646	-0.556011	0.30359	0.149238	0.254047	-0.434716	0.212508	-0.189959	-0.129191	-0.331841	0.0889475	-0.197564	-0.546561	-0.593674	-0.112299	-0.708247	-0.381081	-0.470288	0.085289	-0.67238	0.17029	-0.468743	0.190358	-0.311139	0.0064845	-0.319014	0.23881	-0.516151	
1.74713	0	0	0.153137	-0.479827	0.145987	-0.0769733	0.454608	-0.541774	0.306292	0.151431	0.253158	-0.432202	0.219374	-0.194445	-0.125469	-0.332217	0.0958133	-0.193569	-0.541852	-0.586868	-0.109013	-0.696617	-0.376977	-0.467942	0.0799725	-0.671788	0.166879	-0.474748	0.190331	-0.322201	-0.00406575	-0.31673	0.241347	-0.523322	
1.75171	0	0	0.160676	-0.475011	0.146928	-0.06736	0.44957	-0.527536	0.308993	0.153623	0.252269	-0.429689	0.22624	-0.198932	-0.121747	-0.332594	0.102679	-0.189574	-0.537143	-0.580062	-0.105728	-0.684986	-0.372872	-0.465596	0.074656	-0.671196	0.163468	-0.480753	0.190305	-0.333263	-0.014616	-0.314446	0.243884	-0.530492	
1.75018	0	0	0.164854	-0.460659	0.151163	-0.0547558	0.451086	-0.517563	0.315311	0.155435	0.253278	-0.422614	0.221659	-0.185986	-0.117138	-0.32532	0.101552	-0.174678	-0.534255	-0.568089	-0.103505	-0.67033	-0.377505	-0.452501	0.0812988	-0.675536	0.157535	-0.479619	0.189256	-0.341428	-0.0082825	-0.318584	0.242616	-0.526907	
1.75171	0	0	0.169032	-0.446306	0.155397	-0.0421515	0.452601	-0.50759	0.32163	0.157246	0.254286	-0.41554	0.217079	-0.17304	-0.112529	-0.318046	0.100425	-0.159783	-0.531367	-0.556116	-0.101281	-0.655674	-0.382139	-0.439407	0.0879415	-0.679877	0.151603	-0.478485	0.188207	-0.349593	-0.001949	-0.322723	0.241347	-0.523323	
1.75323	0	0	0.17321	-0.431954	0.159632	-0.0295472	0.454116	-0.497616	0.327948	0.159058	0.255295	-0.408465	0.212498	-0.160094	-0.107919	-0.310772	0.099298	-0.144888	-0.528478	-0.544143	-0.0990583	-0.641018	-0.386772	-0.426312	0.0945842	-0.684218	0.145671	-0.477351	0.187158	-0.357758	0.0043845	-0.326862	0.240079	-0.519738	
