0.606	2.565	5	0	-0.199135	-0.48014	0.116619	-0.466861	0	0	0.149197	-0.313615	-0.980605	0.245588	0.126881	-0.331488	0.070666	-0.464534	0.187388	-0.393602	-0.09375	-0.62085	-0.00261	-0.655467	-0.10042	-0.623663	0.0181	-0.660607	0.01749	-0.527429	0.055931	-0.53332	-0.0103	-0.285623	0.083261	-0.402077	
0.60682	2.5711	5	0	-0.242363	-0.493037	0.114616	-0.473443	0	0	0.145747	-0.323512	-3.40348	-2.42144	0.14346	-0.318018	0.0885613	-0.424079	0.220312	-0.36687	-0.080534	-0.597233	0.007673	-0.652257	-0.0969802	-0.605438	0.0246893	-0.649453	0.0229412	-0.51187	0.068161	-0.523003	-0.0083855	-0.250023	0.1067	-0.367524	
0.60736	2.5711	5	0	-0.285591	-0.505934	0.112614	-0.480025	0	0	0.142297	-0.33341	-5.82636	-5.08847	0.16004	-0.304547	0.106457	-0.383624	0.253236	-0.340139	-0.067318	-0.573616	0.017956	-0.649047	-0.0935405	-0.587214	0.0312785	-0.638299	0.0283925	-0.496311	0.080391	-0.512685	-0.006471	-0.214423	0.13014	-0.33297	
0.60769	2.57416	5	0	-0.32882	-0.518831	0.110611	-0.486606	0	0	0.138848	-0.343307	-8.24923	-7.7555	0.176619	-0.291077	0.124352	-0.343169	0.28616	-0.313408	-0.054102	-0.549999	0.028239	-0.645838	-0.0901008	-0.568989	0.0378678	-0.627144	0.0338437	-0.480752	0.092621	-0.502367	-0.0045565	-0.178822	0.153579	-0.298417	
0.607885	2.58484	5	0	-0.372048	-0.531728	0.108608	-0.493188	0	0	0.135398	-0.353205	-10.6721	-10.4225	0.193198	-0.277606	0.142247	-0.302714	0.319084	-0.286676	-0.040886	-0.526382	0.038522	-0.642628	-0.086661	-0.550765	0.044457	-0.61599	0.039295	-0.465193	0.104851	-0.49205	-0.002642	-0.143222	0.177018	-0.263863	
0.608017	2.59399	5	0	-0.39882	-0.550034	0.113444	-0.506854	0	0	0.139121	-0.363727	-10.4379	-11.0844	0.207671	-0.273137	0.164204	-0.283477	0.346687	-0.268305	-0.0370422	-0.496489	0.044241	-0.626464	-0.0832303	-0.532473	0.0481953	-0.59673	0.053991	-0.44464	0.114881	-0.464143	0.0139038	-0.10769	0.187338	-0.235185	
0.608158	2.6062	5	0	-0.425592	-0.56834	0.118279	-0.52052	0	0	0.142844	-0.374249	-10.2037	-11.7462	0.222145	-0.268668	0.186161	-0.26424	0.37429	-0.249934	-0.0331985	-0.466595	0.04996	-0.6103	-0.0797995	-0.514182	0.0519335	-0.57747	0.068687	-0.424088	0.124911	-0.436235	0.0304495	-0.0721575	0.197657	-0.206508	
0.60838	2.61536	5	0	-0.452364	-0.586647	0.123115	-0.534185	0	0	0.146567	-0.384771	-9.96957	-12.408	0.236618	-0.264198	0.208118	-0.245004	0.401893	-0.231563	-0.0293547	-0.436702	0.055679	-0.594137	-0.0763687	-0.495891	0.0556717	-0.55821	0.083383	-0.403536	0.134942	-0.408328	0.0469953	-0.0366252	0.207977	-0.17783	
0.608757	2.63672	5	0	-0.479136	-0.604953	0.12795	-0.547851	0	0	0.15029	-0.395293	-9.73539	-13.0698	0.251091	-0.259729	0.230075	-0.225767	0.429496	-0.213192	-0.025511	-0.406809	0.061398	-0.577973	-0.072938	-0.477599	0.05941	-0.53895	0.098079	-0.382983	0.144972	-0.380421	0.063541	-0.001093	0.218297	-0.149152	
0.609361	2.65045	5	0	-0.508112	-0.616556	0.131572	-0.558086	0	0	0.15574	-0.400875	-9.96957	-12.408	0.263995	-0.250712	0.242871	-0.210944	0.45724	-0.194719	-0.0141755	-0.387774	0.0785947	-0.561751	-0.0630585	-0.46346	0.0714547	-0.528163	0.114079	-0.365909	0.152995	-0.357969	0.0791397	0.0236785	0.211315	-0.114932	
0.610263	2.66724	5	0	-0.537089	-0.628159	0.135194	-0.568322	0	0	0.161191	-0.406458	-10.2037	-11.7462	0.276898	-0.241696	0.255667	-0.196121	0.484985	-0.176247	-0.00284	-0.368738	0.0957915	-0.54553	-0.053179	-0.449321	0.0834995	-0.517377	0.130079	-0.348834	0.161017	-0.335518	0.0947385	0.04845	0.204334	-0.0807125	
0.611446	2.67639	5	0	-0.566065	-0.639763	0.138815	-0.578558	0	0	0.166641	-0.41204	-10.4379	-11.0844	0.289801	-0.232679	0.268464	-0.181297	0.51273	-0.157775	0.0084955	-0.349703	0.112988	-0.529308	-0.0432995	-0.435181	0.0955442	-0.50659	0.146079	-0.331759	0.16904	-0.313067	0.110337	0.0732215	0.197353	-0.0464927	
0.612722	2.69012	5	0	-0.595042	-0.651366	0.142437	-0.588793	0	0	0.172091	-0.417622	-10.6721	-10.4225	0.302705	-0.223662	0.28126	-0.166474	0.540474	-0.139302	0.019831	-0.330668	0.130185	-0.513087	-0.03342	-0.421042	0.107589	-0.495803	0.162079	-0.314685	0.177063	-0.290615	0.125936	0.097993	0.190371	-0.012273	
0.613884	2.68097	5	0	-0.612818	-0.667624	0.143644	-0.592202	0	0	0.174753	-0.415319	-9.01215	-10.9576	0.313472	-0.223706	0.284989	-0.166799	0.558593	-0.1297	0.0264528	-0.318672	0.149746	-0.503321	-0.0146688	-0.417808	0.121097	-0.489043	0.176018	-0.307223	0.19149	-0.286153	0.13434	0.101856	0.20219	-0.002139	
0.614723	2.68707	5	0	-0.630594	-0.683882	0.14485	-0.595611	0	0	0.177416	-0.413017	-7.3522	-11.4927	0.324238	-0.223749	0.288718	-0.167125	0.576712	-0.120098	0.0330745	-0.306675	0.169307	-0.493555	0.0040825	-0.414574	0.134605	-0.482283	0.189958	-0.29976	0.205918	-0.281691	0.142744	0.105718	0.214008	0.007995	
0.615034	2.69165	5	0	-0.648371	-0.700141	0.146057	-0.599021	0	0	0.180078	-0.410714	-5.69225	-12.0278	0.335005	-0.223793	0.292448	-0.16745	0.59483	-0.110496	0.0396963	-0.294679	0.188869	-0.483789	0.0228337	-0.411339	0.148113	-0.475523	0.203897	-0.292297	0.220345	-0.277229	0.151149	0.10958	0.225826	0.018129	
0.614726	2.71149	5	0	-0.666147	-0.716399	0.147263	-0.60243	0	0	0.18274	-0.408411	-4.03229	-12.5629	0.345772	-0.223836	0.296177	-0.167775	0.612949	-0.100894	0.046318	-0.282683	0.20843	-0.474023	0.041585	-0.408105	0.161621	-0.468763	0.217836	-0.284835	0.234772	-0.272767	0.159553	0.113443	0.237645	0.028263	
0.613882	2.7008	5	0	-0.683866	-0.732582	0.142838	-0.602159	0	0	0.191792	-0.414326	-4.30725	-11.7858	0.345209	-0.237445	0.290967	-0.193874	0.59905	-0.122422	0.0519748	-0.288422	0.212275	-0.474025	0.0521745	-0.409855	0.171124	-0.465604	0.230971	-0.290652	0.239985	-0.276173	0.161706	0.107357	0.249657	0.0233945	
0.612603	2.78473	5	0	-0.701585	-0.748765	0.138414	-0.601888	0	0	0.200844	-0.420241	-4.5822	-11.0088	0.344647	-0.251053	0.285757	-0.219973	0.585151	-0.14395	0.0576315	-0.294161	0.21612	-0.474028	0.062764	-0.411604	0.180627	-0.462444	0.244105	-0.296469	0.245198	-0.279579	0.163859	0.101272	0.261669	0.018526	
0.610986	2.75879	5	0	-0.719304	-0.764948	0.133989	-0.601617	0	0	0.209896	-0.426155	-4.85716	-10.2317	0.344084	-0.264661	0.280546	-0.246071	0.571252	-0.165478	0.0632883	-0.299899	0.219964	-0.47403	0.0733535	-0.413353	0.190131	-0.459285	0.25724	-0.302285	0.25041	-0.282985	0.166013	0.0951857	0.273682	0.0136575	
0.60913	2.75879	5	0	-0.737023	-0.781131	0.129564	-0.601346	0	0	0.218948	-0.43207	-5.13211	-9.45466	0.343521	-0.27827	0.275336	-0.27217	0.557353	-0.187006	0.068945	-0.305638	0.223809	-0.474032	0.083943	-0.415103	0.199634	-0.456126	0.270375	-0.308102	0.255623	-0.286391	0.168166	0.0891	0.285694	0.008789	
0.607117	2.77557	5	0	-0.762196	-0.802358	0.119112	-0.620662	0	0	0.21188	-0.441589	-5.13211	-9.45466	0.328424	-0.296272	0.257315	-0.312765	0.521329	-0.230332	0.0594793	-0.319844	0.218811	-0.503324	0.0822133	-0.424309	0.209426	-0.468771	0.280133	-0.320008	0.257867	-0.304058	0.161908	0.0791728	0.288437	0.00103675	
0.605004	2.77862	5	0	-0.787368	-0.823586	0.108661	-0.639978	0	0	0.204813	-0.451109	-5.13211	-9.45466	0.313327	-0.314275	0.239293	-0.353361	0.485306	-0.273659	0.0500135	-0.334051	0.213813	-0.532615	0.0804835	-0.433515	0.219217	-0.481417	0.289891	-0.331915	0.260111	-0.321725	0.155649	0.0692455	0.29118	-0.0067155	
0.602852	2.77557	5	0	-0.812541	-0.844813	0.0982088	-0.659294	0	0	0.197745	-0.460628	-5.13211	-9.45466	0.298229	-0.332277	0.221272	-0.393956	0.449282	-0.316986	0.0405478	-0.348257	0.208815	-0.561906	0.0787537	-0.44272	0.229009	-0.494062	0.299649	-0.343822	0.262354	-0.339393	0.149391	0.0593182	0.293923	-0.0144677	
0.600719	2.77252	5	0	-0.837714	-0.866041	0.087757	-0.67861	0	0	0.190677	-0.470147	-5.13211	-9.45466	0.283132	-0.350279	0.20325	-0.434551	0.413258	-0.360312	0.031082	-0.362463	0.203817	-0.591198	0.077024	-0.451926	0.2388	-0.506707	0.309407	-0.355728	0.264598	-0.35706	0.143133	0.049391	0.296666	-0.02222	
0.598657	2.77252	5	0	-0.851013	-0.907266	0.0812787	-0.721189	0	0	0.186509	-0.497621	-5.43329	-8.60348	0.265326	-0.390593	0.170619	-0.483819	0.362376	-0.432117	0.0178415	-0.386312	0.185765	-0.62671	0.080035	-0.474519	0.226679	-0.517495	0.321711	-0.374814	0.25546	-0.376471	0.145367	0.0292872	0.306248	-0.0492997	
0.596643	2.77405	5	0	-0.864313	-0.948491	0.0748005	-0.763769	0	0	0.182341	-0.525094	-5.73447	-7.75231	0.24752	-0.430906	0.137989	-0.533087	0.311495	-0.503922	0.004601	-0.410161	0.167712	-0.662222	0.083046	-0.497112	0.214558	-0.528282	0.334014	-0.3939	0.246323	-0.395883	0.1476	0.0091835	0.31583	-0.0763795	
0.594604	2.77405	5	0	-0.877613	-0.989716	0.0683223	-0.806348	0	0	0.178172	-0.552567	-6.03565	-6.90113	0.229714	-0.47122	0.105359	-0.582354	0.260613	-0.575727	-0.0086395	-0.434011	0.14966	-0.697733	0.086057	-0.519706	0.202436	-0.53907	0.346318	-0.412987	0.237185	-0.415294	0.149834	-0.0109202	0.325412	-0.103459	
0.592467	2.76642	5	0	-0.890912	-1.03094	0.061844	-0.848927	0	0	0.174004	-0.580041	-6.33682	-6.04996	0.211908	-0.511533	0.072728	-0.631622	0.209731	-0.647532	-0.02188	-0.45786	0.131608	-0.733245	0.089068	-0.542299	0.190315	-0.549858	0.358621	-0.432073	0.228048	-0.434705	0.152067	-0.031024	0.334994	-0.130539	
0.590156	2.76642	5	0	0.112422	-0.609084	0.0544712	-0.900894	0	0	0.175237	-0.612911	-6.66976	-5.10903	0.1957	-0.555924	0.0413012	-0.693215	0.147064	-0.71885	-0.037029	-0.496426	0.109375	-0.778012	0.0861957	-0.576369	0.190821	-0.581255	0.350533	-0.440572	0.222085	-0.462978	0.143746	-0.0488212	0.310156	-0.17639	
0.58764	2.75879	5	0	1.11576	-0.187227	0.0470985	-0.952862	0	0	0.17647	-0.645781	-7.0027	-4.1681	0.179492	-0.600315	0.0098745	-0.754807	0.084397	-0.790168	-0.052178	-0.534992	0.087142	-0.822779	0.0833235	-0.610438	0.191326	-0.612652	0.342446	-0.449071	0.216121	-0.49125	0.135425	-0.0666185	0.285317	-0.222241	
0.585099	2.74963	5	0	2.11909	0.23463	0.0397258	-1.00483	0	0	0.177703	-0.678651	-7.33564	-3.22716	0.163284	-0.644706	-0.0215523	-0.816399	0.02173	-0.861486	-0.067327	-0.573558	0.064909	-0.867546	0.0804513	-0.644508	0.191832	-0.644049	0.334358	-0.457571	0.210158	-0.519522	0.127104	-0.0844157	0.260479	-0.268092	
0.582774	2.71149	5	0	3.12242	0.656487	0.032353	-1.0568	0	0	0.178936	-0.711521	-7.66857	-2.28623	0.147076	-0.689097	-0.052979	-0.877992	-0.040937	-0.932804	-0.082476	-0.612124	0.042676	-0.912313	0.077579	-0.678578	0.192337	-0.675446	0.32627	-0.46607	0.204195	-0.547795	0.118783	-0.102213	0.23564	-0.313943	
0.580908	2.73743	5	0	4.46552	1.30003	0.0201995	-1.09497	0	0	0.175539	-0.731259	-5.57462	-2.84579	0.129304	-0.728633	-0.0825232	-0.93379	-0.0855367	-1.00547	-0.0957795	-0.655551	0.0325635	-0.969369	0.0641178	-0.710635	0.190181	-0.714215	0.331713	-0.497112	0.197239	-0.58439	0.103158	-0.126709	0.208378	-0.380947	
0.57974	2.78625	5	0	5.80863	1.94357	0.008046	-1.13314	0	0	0.172141	-0.750996	-3.48068	-3.40535	0.111532	-0.768169	-0.112068	-0.989589	-0.130136	-1.07813	-0.109083	-0.698978	0.022451	-1.02642	0.0506565	-0.742692	0.188024	-0.752984	0.337156	-0.528154	0.190282	-0.620985	0.0875335	-0.151204	0.181117	-0.447952	
0.57935	2.74048	5	0	7.15173	2.58712	-0.0041075	-1.17131	0	0	0.168743	-0.770734	-1.38673	-3.96491	0.09376	-0.807704	-0.141612	-1.04539	-0.174736	-1.15079	-0.122387	-0.742406	0.0123385	-1.08348	0.0371952	-0.774749	0.185868	-0.791754	0.3426	-0.559196	0.183326	-0.657579	0.0719087	-0.1757	0.153855	-0.514957	
0.57954	2.73132	5	0	8.49483	3.23066	-0.016261	-1.20949	0	0	0.165346	-0.790472	0.707221	-4.52446	0.075988	-0.84724	-0.171156	-1.10119	-0.219336	-1.22345	-0.13569	-0.785833	0.002226	-1.14054	0.023734	-0.806806	0.183712	-0.830523	0.348043	-0.590238	0.17637	-0.694174	0.056284	-0.200195	0.126593	-0.581961	
0.580088	2.72674	5	0	9.77877	3.83269	-0.0196942	-1.24797	0	0	0.170009	-0.81342	0.707221	-4.52446	0.0604193	-0.877713	-0.187064	-1.15509	-0.258301	-1.28691	-0.14438	-0.831882	-0.0150908	-1.18747	0.0242898	-0.85031	0.181498	-0.86902	0.350017	-0.627095	0.16631	-0.733024	0.0512068	-0.240587	0.105867	-0.637828	
0.58077	2.72064	5	0	11.0627	4.43472	-0.0231275	-1.28646	0	0	0.174672	-0.836367	0.707221	-4.52446	0.0448505	-0.908186	-0.202973	-1.20899	-0.297266	-1.35038	-0.15307	-0.877931	-0.0324075	-1.2344	0.0248455	-0.893814	0.179283	-0.907517	0.351992	-0.663952	0.156251	-0.771875	0.0461295	-0.280979	0.08514	-0.693696	
0.581382	2.71759	5	0	12.3467	5.03675	-0.0265608	-1.32495	0	0	0.179335	-0.859315	0.707221	-4.52446	0.0292818	-0.938659	-0.218881	-1.2629	-0.336231	-1.41384	-0.161761	-0.92398	-0.0497243	-1.28133	0.0254013	-0.937319	0.177069	-0.946015	0.353967	-0.700809	0.146191	-0.810725	0.0410522	-0.32137	0.0644135	-0.749563	
0.581977	2.70996	5	0	13.6306	5.63879	-0.029994	-1.36344	0	0	0.183998	-0.882263	0.707221	-4.52446	0.013713	-0.969132	-0.234789	-1.3168	-0.375196	-1.47731	-0.170451	-0.970029	-0.067041	-1.32826	0.025957	-0.980823	0.174855	-0.984512	0.355941	-0.737666	0.136131	-0.849576	0.035975	-0.361762	0.043687	-0.80543	
0.582778	2.70691	5	0	14.8044	6.26751	-0.038129	-1.38851	0	0	0.177831	-0.894113	0.285265	-3.33195	0.0102647	-1.00393	-0.258036	-1.34944	-0.40069	-1.53153	-0.18282	-1.00541	-0.0794907	-1.37788	0.029373	-1.01838	0.171182	-1.01878	0.359104	-0.777831	0.128073	-0.882686	0.0235265	-0.394782	0.0399332	-0.865993	
0.584012	2.7008	5	0	15.9782	6.89624	-0.046264	-1.41359	0	0	0.171664	-0.905963	-0.136692	-2.13944	0.0068165	-1.03872	-0.281282	-1.38208	-0.426184	-1.58576	-0.19519	-1.0408	-0.0919405	-1.4275	0.032789	-1.05594	0.167508	-1.05304	0.362267	-0.817996	0.120015	-0.915797	0.011078	-0.427801	0.0361795	-0.926556	
0.585907	2.69775	5	0	17.1519	7.52497	-0.054399	-1.43866	0	0	0.165498	-0.917812	-0.558648	-0.946925	0.00336825	-1.07352	-0.304529	-1.41472	-0.451678	-1.63998	-0.20756	-1.07618	-0.10439	-1.47713	0.036205	-1.0935	0.163834	-1.08731	0.365431	-0.858161	0.111958	-0.948907	-0.0013705	-0.46082	0.0324258	-0.987118	
0.588597	2.69012	5	0	18.3257	8.15369	-0.062534	-1.46374	0	0	0.159331	-0.929662	-0.980605	0.245588	-8E-05	-1.10831	-0.327776	-1.44737	-0.477172	-1.69421	-0.219929	-1.11157	-0.11684	-1.52675	0.039621	-1.13105	0.160161	-1.12158	0.368594	-0.898326	0.1039	-0.982017	-0.013819	-0.49384	0.028672	-1.04768	
0.59179	2.6886	5	0	19.4876	8.67594	-0.0674793	-1.48573	0	0	0.162135	-0.947337	-0.980605	0.245588	-0.0081875	-1.12984	-0.337499	-1.47864	-0.495911	-1.73255	-0.227702	-1.14968	-0.127771	-1.56975	0.0388725	-1.17072	0.156447	-1.15562	0.363278	-0.930041	0.0999133	-1.01534	-0.0168997	-0.525934	0.016967	-1.0855	
0.595077	2.68097	5	0	20.6496	9.1982	-0.0724245	-1.50772	0	0	0.16494	-0.965012	-0.980605	0.245588	-0.016295	-1.15136	-0.347221	-1.50992	-0.514651	-1.77089	-0.235476	-1.1878	-0.138701	-1.61275	0.038124	-1.21038	0.152733	-1.18967	0.357961	-0.961755	0.0959265	-1.04865	-0.0199805	-0.558029	0.005262	-1.12332	
0.598048	2.68249	5	0	21.8115	9.72045	-0.0773698	-1.52972	0	0	0.167745	-0.982688	-0.980605	0.245588	-0.0244025	-1.17288	-0.356943	-1.5412	-0.53339	-1.80924	-0.243249	-1.22591	-0.149632	-1.65575	0.0373755	-1.25004	0.149019	-1.22371	0.352645	-0.99347	0.0919398	-1.08197	-0.0230612	-0.590123	-0.006443	-1.16114	
0.600294	2.67486	5	0	22.9734	10.2427	-0.082315	-1.55171	0	0	0.170549	-1.00036	-0.980605	0.245588	-0.03251	-1.1944	-0.366666	-1.57248	-0.552129	-1.84758	-0.251022	-1.26402	-0.160562	-1.69875	0.036627	-1.2897	0.145305	-1.25776	0.347329	-1.02519	0.087953	-1.11529	-0.026142	-0.622217	-0.018148	-1.19896	
0.60161	2.66876	5	0	24.0305	10.7721	-0.087271	-1.5736	0	0	0.170673	-1.0202	-0.980605	0.245588	-0.0399632	-1.2029	-0.372851	-1.59407	-0.566801	-1.8743	-0.259618	-1.28965	-0.171046	-1.73222	0.0312313	-1.31614	0.152403	-1.29264	0.352572	-1.05556	0.089028	-1.14058	-0.026136	-0.649385	-0.0181567	-1.22722	
0.6023	2.66418	5	0	25.0876	11.3014	-0.092227	-1.59549	0	0	0.170797	-1.04003	-0.980605	0.245588	-0.0474165	-1.2114	-0.379036	-1.61566	-0.581474	-1.90102	-0.268215	-1.31528	-0.181529	-1.76569	0.0258355	-1.34257	0.159501	-1.32752	0.357815	-1.08593	0.090103	-1.16587	-0.02613	-0.676554	-0.0181655	-1.25548	
0.602748	2.66266	5	0	26.1447	11.8308	-0.097183	-1.61739	0	0	0.170921	-1.05986	-0.980605	0.245588	-0.0548698	-1.2199	-0.385221	-1.63725	-0.596147	-1.92773	-0.276811	-1.3409	-0.192013	-1.79917	0.0204397	-1.369	0.1666	-1.36241	0.363058	-1.1163	0.091178	-1.19116	-0.026124	-0.703722	-0.0181743	-1.28374	
0.603335	2.65808	5	0	27.2018	12.3602	-0.102139	-1.63928	0	0	0.171045	-1.0797	-0.980605	0.245588	-0.062323	-1.2284	-0.391406	-1.65883	-0.610819	-1.95445	-0.285407	-1.36653	-0.202496	-1.83264	0.015044	-1.39544	0.173698	-1.39729	0.368301	-1.14667	0.092253	-1.21645	-0.026118	-0.73089	-0.018183	-1.312	
0.604441	2.6535	5	0	28.2405	12.757	-0.0885637	-1.66569	0	0	0.180063	-1.09544	-0.980605	0.245588	-0.064511	-1.23698	-0.396726	-1.67305	-0.61495	-1.97677	-0.293002	-1.38491	-0.208768	-1.85687	0.0125803	-1.41621	0.161586	-1.40746	0.369801	-1.16645	0.0912417	-1.22471	-0.0344395	-0.734484	-0.0155875	-1.31934	
0.606145	2.6474	5	0	29.2791	13.1538	-0.0749885	-1.69209	0	0	0.18908	-1.11119	-0.980605	0.245588	-0.066699	-1.24557	-0.402046	-1.68726	-0.619082	-1.9991	-0.300597	-1.40329	-0.215039	-1.88109	0.0101165	-1.43699	0.149474	-1.41763	0.371301	-1.18623	0.0902305	-1.23297	-0.042761	-0.738077	-0.012992	-1.32667	
0.608064	2.64587	5	0	30.3178	13.5507	-0.0614132	-1.7185	0	0	0.198098	-1.12694	-0.980605	0.245588	-0.068887	-1.25415	-0.407367	-1.70147	-0.623214	-2.02142	-0.308191	-1.42166	-0.221311	-1.90531	0.00765275	-1.45776	0.137362	-1.4278	0.372801	-1.20601	0.0892192	-1.24123	-0.0510825	-0.741671	-0.0103965	-1.33401	
0.609771	2.64587	5	0	31.3564	13.9475	-0.047838	-1.74491	0	0	0.207116	-1.14268	-0.980605	0.245588	-0.071075	-1.26273	-0.412687	-1.71568	-0.627345	-2.04374	-0.315786	-1.44004	-0.227583	-1.92954	0.005189	-1.47854	0.12525	-1.43797	0.374301	-1.22579	0.088208	-1.24949	-0.059404	-0.745264	-0.007801	-1.34135	
0.61084	2.64282	5	0	32.2789	14.2208	-0.0368192	-1.75211	0	0	0.21967	-1.14892	-0.980605	0.245588	-0.0695407	-1.26706	-0.413558	-1.72296	-0.617027	-2.06157	-0.318807	-1.46133	-0.224239	-1.95993	0.010221	-1.50661	0.134933	-1.46533	0.37332	-1.23854	0.08617	-1.25484	-0.0490162	-0.761071	-0.0090985	-1.33768	
0.610856	2.63977	5	0	33.2013	14.494	-0.0258005	-1.75931	0	0	0.232225	-1.15515	-0.980605	0.245588	-0.0680065	-1.2714	-0.414428	-1.73023	-0.606709	-2.07941	-0.321828	-1.48261	-0.220894	-1.99032	0.015253	-1.53468	0.144616	-1.4927	0.372339	-1.2513	0.084132	-1.26019	-0.0386285	-0.776877	-0.010396	-1.33401	
0.609792	2.63824	5	0	34.1238	14.7673	-0.0147818	-1.76651	0	0	0.24478	-1.16138	-0.980605	0.245588	-0.0664722	-1.27574	-0.415299	-1.73751	-0.596391	-2.09724	-0.324849	-1.5039	-0.21755	-2.02071	0.020285	-1.56276	0.154298	-1.52006	0.371358	-1.26406	0.082094	-1.26554	-0.0282408	-0.792684	-0.0116935	-1.33034	
0.608076	2.63672	5	0	35.0462	15.0405	-0.003763	-1.77371	0	0	0.257334	-1.16762	-0.980605	0.245588	-0.064938	-1.28007	-0.41617	-1.74479	-0.586073	-2.11507	-0.32787	-1.52519	-0.214206	-2.0511	0.025317	-1.59083	0.163981	-1.54743	0.370377	-1.27681	0.080056	-1.27089	-0.017853	-0.808491	-0.012991	-1.32668	
0.606157	2.63824	5	0	35.7627	15.3849	0.003813	-1.77115	0	0	0.263599	-1.1658	-0.980605	0.245588	-0.055947	-1.27594	-0.409911	-1.74299	-0.578189	-2.11468	-0.321642	-1.54279	-0.208813	-2.06635	0.0257707	-1.60596	0.1695	-1.56303	0.381217	-1.29192	0.0821048	-1.27668	-0.0126718	-0.823134	-0.0078045	-1.34134	
0.604488	2.63519	5	0	36.4793	15.7293	0.011389	-1.76859	0	0	0.269863	-1.16398	-0.980605	0.245588	-0.046956	-1.27181	-0.403652	-1.7412	-0.570306	-2.11429	-0.315414	-1.56039	-0.203419	-2.08159	0.0262245	-1.62108	0.17502	-1.57863	0.392058	-1.30703	0.0841535	-1.28247	-0.0074905	-0.837776	-0.002618	-1.35599	
0.603495	2.63214	5	0	37.1958	16.0738	0.018965	-1.76603	0	0	0.276127	-1.16216	-0.980605	0.245588	-0.037965	-1.26768	-0.397394	-1.73941	-0.562423	-2.1139	-0.309185	-1.57799	-0.198025	-2.09683	0.0266783	-1.63621	0.180539	-1.59423	0.402899	-1.32214	0.0862022	-1.28826	-0.00230925	-0.852419	0.0025685	-1.37065	
0.603243	2.63061	5	0	37.9123	16.4182	0.026541	-1.76347	0	0	0.282392	-1.16034	-0.980605	0.245588	-0.028974	-1.26355	-0.391135	-1.73761	-0.554539	-2.1135	-0.302957	-1.5956	-0.192632	-2.11207	0.027132	-1.65133	0.186059	-1.60983	0.413739	-1.33725	0.088251	-1.29405	0.002872	-0.867062	0.007755	-1.38531	
0.603526	2.62604	5	0	38.5517	16.6702	0.0306632	-1.75112	0	0	0.291347	-1.15633	-0.980605	0.245588	-0.0162295	-1.25517	-0.38309	-1.73108	-0.540018	-2.10911	-0.30118	-1.60062	-0.18566	-2.12131	0.030539	-1.66096	0.192865	-1.61427	0.414969	-1.34072	0.0974565	-1.29784	0.0059765	-0.875836	0.0168517	-1.39688	
0.60413	2.62604	5	0	39.191	16.9222	0.0347855	-1.73876	0	0	0.300303	-1.15231	-0.980605	0.245588	-0.003485	-1.24679	-0.375046	-1.72456	-0.525497	-2.10472	-0.299403	-1.60564	-0.178688	-2.13055	0.033946	-1.67059	0.199672	-1.61872	0.4162	-1.3442	0.106662	-1.30163	0.009081	-0.88461	0.0259485	-1.40845	
0.604842	2.62146	5	0	39.8304	17.1741	0.0389077	-1.72641	0	0	0.309258	-1.1483	-0.980605	0.245588	0.0092595	-1.2384	-0.367001	-1.71803	-0.510977	-2.10033	-0.297625	-1.61066	-0.171716	-2.13979	0.037353	-1.68022	0.206478	-1.62317	0.41743	-1.34768	0.115867	-1.30542	0.0121855	-0.893384	0.0350453	-1.42003	
0.605482	2.62604	5	0	40.4697	17.4261	0.04303	-1.71406	0	0	0.318214	-1.14428	-0.980605	0.245588	0.022004	-1.23002	-0.358956	-1.71151	-0.496456	-2.09594	-0.295848	-1.61569	-0.164744	-2.14902	0.04076	-1.68985	0.213284	-1.62762	0.41866	-1.35116	0.125073	-1.30921	0.01529	-0.902158	0.044142	-1.4316	
0.60615	2.61993	5	0	41.0587	17.6257	0.0515292	-1.70202	0	0	0.327184	-1.14026	-0.980605	0.245588	0.0347787	-1.22162	-0.352712	-1.69984	-0.481779	-2.08048	-0.287588	-1.61915	-0.149759	-2.14945	0.045996	-1.6908	0.215957	-1.62037	0.429279	-1.35007	0.127118	-1.30386	0.0257078	-0.904469	0.0572122	-1.42606	
0.607081	2.61993	5	0	41.6477	17.8252	0.0600285	-1.68998	0	0	0.336155	-1.13624	-0.980605	0.245588	0.0475535	-1.21322	-0.346468	-1.68818	-0.467102	-2.06502	-0.279328	-1.62262	-0.134773	-2.14987	0.051232	-1.69176	0.21863	-1.61312	0.439898	-1.34899	0.129163	-1.29852	0.0361255	-0.90678	0.0702825	-1.42052	
0.608512	2.61536	5	0	42.2367	18.0247	0.0685277	-1.67794	0	0	0.345125	-1.13223	-0.980605	0.245588	0.0603282	-1.20481	-0.340225	-1.67652	-0.452425	-2.04956	-0.271067	-1.62609	-0.119788	-2.1503	0.056468	-1.69271	0.221302	-1.60588	0.450517	-1.3479	0.131208	-1.29318	0.0465432	-0.909091	0.0833528	-1.41498	
0.610679	2.61536	5	0	42.8257	18.2242	0.077027	-1.66589	0	0	0.354095	-1.12821	-0.980605	0.245588	0.073103	-1.19641	-0.333981	-1.66485	-0.437748	-2.03409	-0.262807	-1.62955	-0.104802	-2.15072	0.061704	-1.69367	0.223975	-1.59863	0.461136	-1.34682	0.133253	-1.28783	0.056961	-0.911402	0.096423	-1.40945	
0.613748	2.6123	5	0	43.2713	18.4485	0.0814078	-1.66624	0	0	0.362208	-1.13153	-0.980605	0.245588	0.079058	-1.18351	-0.326824	-1.65572	-0.420458	-2.02584	-0.255426	-1.63051	-0.0919395	-2.14505	0.0721887	-1.69558	0.238916	-1.59638	0.463371	-1.33757	0.14863	-1.28673	0.0736553	-0.917811	0.104288	-1.4033	
0.617469	2.61078	5	0	43.7168	18.6727	0.0857885	-1.66658	0	0	0.370322	-1.13485	-0.980605	0.245588	0.085013	-1.17061	-0.319667	-1.6466	-0.403167	-2.01759	-0.248045	-1.63147	-0.079077	-2.13938	0.0826735	-1.6975	0.253856	-1.59414	0.465606	-1.32832	0.164008	-1.28563	0.0903495	-0.924221	0.112152	-1.39716	
0.621445	2.60925	5	0	44.1624	18.8969	0.0901692	-1.66693	0	0	0.378435	-1.13818	-0.980605	0.245588	0.090968	-1.15771	-0.31251	-1.63747	-0.385877	-2.00934	-0.240664	-1.63243	-0.0662145	-2.13372	0.0931582	-1.69941	0.268797	-1.59189	0.46784	-1.31907	0.179386	-1.28453	0.107044	-0.93063	0.120017	-1.39101	
0.625278	2.60315	5	0	44.6079	19.1211	0.09455	-1.66728	0	0	0.386549	-1.1415	-0.980605	0.245588	0.096923	-1.14481	-0.305353	-1.62834	-0.368586	-2.00109	-0.233283	-1.63339	-0.053352	-2.12805	0.103643	-1.70133	0.283738	-1.58965	0.470075	-1.30982	0.194763	-1.28344	0.123738	-0.937039	0.127882	-1.38487	
0.628572	2.60315	5	0	45.0097	19.2844	0.10241	-1.67745	0	0	0.396492	-1.14998	-0.980605	0.245588	0.103773	-1.14929	-0.293639	-1.63205	-0.35265	-2.00031	-0.227673	-1.62933	-0.0442265	-2.12226	0.106618	-1.69586	0.28642	-1.58238	0.48072	-1.30873	0.195787	-1.27517	0.119593	-0.925323	0.137094	-1.36827	
0.630996	2.59857	5	0	45.4116	19.4476	0.11027	-1.68761	0	0	0.406435	-1.15845	-0.980605	0.245588	0.110622	-1.15376	-0.281925	-1.63575	-0.336715	-1.99953	-0.222063	-1.62526	-0.035101	-2.11647	0.109593	-1.6904	0.289102	-1.57511	0.491365	-1.30764	0.196812	-1.26691	0.115447	-0.913606	0.146307	-1.35167	
0.632653	2.59857	0	0	45.8134	19.6109	0.11813	-1.69778	0	0	0.416379	-1.16693	-0.980605	0.245588	0.117472	-1.15824	-0.27021	-1.63946	-0.320779	-1.99874	-0.216454	-1.6212	-0.0259755	-2.11068	0.112568	-1.68493	0.291783	-1.56784	0.502009	-1.30655	0.197836	-1.25865	0.111301	-0.90189	0.155519	-1.33506	
0.633813	2.59552	0	0	46.2152	19.7741	0.12599	-1.70795	0	0	0.426322	-1.1754	-0.980605	0.245588	0.124322	-1.16272	-0.258496	-1.64316	-0.304843	-1.99796	-0.210844	-1.61713	-0.01685	-2.1049	0.115543	-1.67946	0.294465	-1.56058	0.512654	-1.30546	0.19886	-1.25039	0.107156	-0.890174	0.164731	-1.31846	
0.634748	2.59552	0	0	46.4936	19.9427	0.130379	-1.7083	0	0	0.430842	-1.17835	-0.558648	-0.946925	0.125869	-1.16709	-0.25489	-1.64354	-0.294154	-1.99373	-0.210844	-1.61713	-0.0114805	-2.09899	0.115543	-1.67946	0.299919	-1.56113	0.51613	-1.29968	0.191668	-1.24122	0.111345	-0.888403	0.152966	-1.29943	
0.635728	2.58789	0	0	46.772	20.1112	0.134767	-1.70866	0	0	0.435362	-1.18131	-0.136692	-2.13944	0.127416	-1.17146	-0.251283	-1.64392	-0.283465	-1.9895	-0.210844	-1.61713	-0.006111	-2.09308	0.115543	-1.67946	0.305372	-1.56168	0.519606	-1.2939	0.184476	-1.23205	0.115534	-0.886632	0.141201	-1.28041	
0.636982	2.58636	0	0	47.0504	20.2797	0.139155	-1.70901	0	0	0.439883	-1.18426	0.285265	-3.33195	0.128964	-1.17583	-0.247677	-1.6443	-0.272775	-1.98527	-0.210844	-1.61713	-0.0007415	-2.08718	0.115543	-1.67946	0.310826	-1.56224	0.523082	-1.28812	0.177284	-1.22288	0.119724	-0.884862	0.129436	-1.26138	
0.638377	2.58636	0	0	47.3288	20.4483	0.143544	-1.70936	0	0	0.444403	-1.18722	0.707221	-4.52446	0.130511	-1.18021	-0.244071	-1.64468	-0.262086	-1.98104	-0.210844	-1.61713	0.004628	-2.08127	0.115543	-1.67946	0.31628	-1.56279	0.526558	-1.28233	0.170092	-1.21371	0.123913	-0.883091	0.117671	-1.24235	
0.639601	2.58942	5	0	47.6027	20.5667	0.144458	-1.69988	0	0	0.445283	-1.17988	0.285265	-3.33195	0.137366	-1.18469	-0.236853	-1.64545	-0.251376	-1.97681	-0.205228	-1.61306	0.0116055	-2.06932	0.124914	-1.67817	0.318966	-1.55551	0.525321	-1.27884	0.171121	-1.21662	0.122875	-0.880158	0.115058	-1.23497	
0.640339	2.58179	5	0	47.8765	20.6852	0.145371	-1.6904	0	0	0.446163	-1.17254	-0.136692	-2.13944	0.144221	-1.18916	-0.229634	-1.64621	-0.240666	-1.97257	-0.199612	-1.60899	0.018583	-2.05737	0.134285	-1.67687	0.321651	-1.54823	0.524085	-1.27534	0.17215	-1.21953	0.121837	-0.877224	0.112446	-1.22759	
0.640278	2.58026	5	0	48.1504	20.8037	0.146284	-1.68093	0	0	0.447042	-1.1652	-0.558648	-0.946925	0.151076	-1.19364	-0.222415	-1.64698	-0.229956	-1.96834	-0.193997	-1.60492	0.0255605	-2.04543	0.143655	-1.67558	0.324336	-1.54095	0.522848	-1.27185	0.173178	-1.22243	0.120799	-0.874291	0.109833	-1.2202	
0.639132	2.58026	5	0	48.4242	20.9222	0.147198	-1.67145	0	0	0.447922	-1.15786	-0.980605	0.245588	0.157931	-1.19812	-0.215197	-1.64774	-0.219246	-1.9641	-0.188381	-1.60085	0.032538	-2.03348	0.153026	-1.67428	0.327022	-1.53367	0.521612	-1.26835	0.174207	-1.22534	0.119761	-0.871358	0.10722	-1.21282	
0.63699	2.57568	5	0	48.6454	20.9956	0.149015	-1.65244	0	0	0.450589	-1.14573	-0.980605	0.245588	0.161697	-1.19386	-0.209791	-1.64336	-0.208392	-1.94868	-0.184545	-1.59173	0.038943	-2.00927	0.160131	-1.66654	0.326928	-1.51852	0.527563	-1.26956	0.172149	-1.21952	0.121874	-0.863711	0.122951	-1.21457	
0.634196	2.57263	5	0	48.8666	21.0691	0.150833	-1.63344	0	0	0.453257	-1.1336	-0.980605	0.245588	0.165463	-1.1896	-0.204385	-1.63898	-0.197538	-1.93325	-0.180708	-1.58261	0.045348	-1.98507	0.167237	-1.6588	0.326835	-1.50337	0.533515	-1.27076	0.170092	-1.21371	0.123988	-0.856064	0.138682	-1.21633	
0.631102	2.565	5	0	49.0878	21.1426	0.15265	-1.61443	0	0	0.455925	-1.12147	-0.980605	0.245588	0.169228	-1.18533	-0.198979	-1.6346	-0.186684	-1.91782	-0.176871	-1.57349	0.051753	-1.96086	0.174343	-1.65106	0.326741	-1.48823	0.539466	-1.27196	0.168034	-1.20789	0.126102	-0.848417	0.154413	-1.21809	
0.628059	2.56195	5	0	49.3089	21.216	0.154468	-1.59542	0	0	0.458592	-1.10934	-0.980605	0.245588	0.172994	-1.18107	-0.193573	-1.63022	-0.17583	-1.90239	-0.173035	-1.56437	0.058158	-1.93666	0.181448	-1.64332	0.326647	-1.47308	0.545418	-1.27316	0.165976	-1.20208	0.128215	-0.84077	0.170144	-1.21984	
0.625401	2.55737	5	0	49.4528	21.2902	0.157701	-1.59248	0	0	0.461295	-1.10714	-0.980605	0.245588	0.164585	-1.17221	-0.19178	-1.62545	-0.167677	-1.89078	-0.169198	-1.55523	0.0667438	-1.91852	0.170477	-1.62623	0.327937	-1.46183	0.525107	-1.26258	0.159815	-1.19581	0.112562	-0.823763	0.153108	-1.20018	
0.623241	2.56653	5	0	49.5966	21.3643	0.160934	-1.58953	0	0	0.463998	-1.10494	-0.980605	0.245588	0.156176	-1.16335	-0.189987	-1.62069	-0.159525	-1.87917	-0.16536	-1.54609	0.0753295	-1.90038	0.159506	-1.60914	0.329226	-1.45058	0.504796	-1.25199	0.153653	-1.18955	0.0969095	-0.806757	0.136073	-1.18051	
0.621531	2.56195	5	0	49.7405	21.4385	0.164168	-1.58659	0	0	0.466702	-1.10273	-0.980605	0.245588	0.147766	-1.15449	-0.188193	-1.61592	-0.151372	-1.86756	-0.161522	-1.53695	0.0839152	-1.88224	0.148535	-1.59205	0.330516	-1.43933	0.484486	-1.24141	0.147492	-1.18329	0.0812567	-0.789751	0.119037	-1.16084	
0.620218	2.57263	5	0	49.8843	21.5126	0.167401	-1.58364	0	0	0.469405	-1.10053	-0.980605	0.245588	0.139357	-1.14563	-0.1864	-1.61115	-0.143219	-1.85595	-0.157685	-1.52781	0.092501	-1.8641	0.137564	-1.57496	0.331805	-1.42808	0.464175	-1.23082	0.141331	-1.17703	0.065604	-0.772744	0.102002	-1.14118	
0.619251	2.57263	5	0	50.0102	21.5256	0.160675	-1.57672	0	0	0.462134	-1.08982	-0.558648	-0.946925	0.144001	-1.15875	-0.185488	-1.61373	-0.140499	-1.85207	-0.164074	-1.51975	0.079944	-1.83922	0.127053	-1.57306	0.311256	-1.41465	0.443918	-1.22027	0.123895	-1.16116	0.0551797	-0.756884	0.0875853	-1.11466	
0.618578	2.565	5	0	50.1362	21.5385	0.15395	-1.56979	0	0	0.454862	-1.07911	-0.136692	-2.13944	0.148644	-1.17188	-0.184577	-1.6163	-0.137779	-1.84819	-0.170463	-1.51169	0.067387	-1.81435	0.116542	-1.57115	0.290706	-1.40122	0.42366	-1.20972	0.106458	-1.14529	0.0447555	-0.741024	0.0731685	-1.08814	
0.618154	2.56958	5	0	50.2621	21.5515	0.147224	-1.56287	0	0	0.447591	-1.0684	0.285265	-3.33195	0.153287	-1.185	-0.183665	-1.61888	-0.135059	-1.84431	-0.176852	-1.50362	0.05483	-1.78947	0.106032	-1.56925	0.270157	-1.3878	0.403403	-1.19917	0.0890215	-1.12942	0.0343312	-0.725163	0.0587517	-1.06162	
0.617938	2.56805	5	0	50.388	21.5644	0.140498	-1.55594	0	0	0.440319	-1.0577	0.707221	-4.52446	0.157931	-1.19812	-0.182753	-1.62145	-0.132339	-1.84044	-0.183241	-1.49556	0.042273	-1.76459	0.095521	-1.56734	0.249608	-1.37437	0.383146	-1.18862	0.071585	-1.11355	0.023907	-0.709303	0.044335	-1.0351	
0.617888	2.56958	5	0	50.4587	21.6148	0.142563	-1.5497	0	0	0.440273	-1.04773	0.707221	-4.52446	0.159477	-1.20249	-0.173691	-1.62738	-0.122867	-1.83246	-0.18605	-1.49761	0.0438615	-1.75847	0.078647	-1.56128	0.240111	-1.37723	0.360746	-1.18741	0.0624117	-1.12097	0.0134848	-0.707019	0.018238	-1.0323	
0.617963	2.54364	5	0	50.5293	21.6653	0.144628	-1.54345	0	0	0.440228	-1.03776	0.707221	-4.52446	0.161024	-1.20686	-0.164629	-1.6333	-0.113396	-1.82449	-0.188858	-1.49967	0.04545	-1.75235	0.061773	-1.55521	0.230614	-1.3801	0.338347	-1.18619	0.0532385	-1.1284	0.0030625	-0.704735	-0.007859	-1.0295	
0.618126	2.55737	5	0	50.5999	21.7157	0.146693	-1.5372	0	0	0.440183	-1.02779	0.707221	-4.52446	0.162571	-1.21123	-0.155568	-1.63922	-0.103924	-1.81652	-0.191667	-1.50172	0.0470385	-1.74623	0.044899	-1.54914	0.221117	-1.38297	0.315947	-1.18497	0.0440653	-1.13582	-0.00735975	-0.70245	-0.033956	-1.0267	
0.618375	2.55737	5	0	50.6705	21.7661	0.148758	-1.53096	0	0	0.440137	-1.01782	0.707221	-4.52446	0.164117	-1.2156	-0.146506	-1.64514	-0.094452	-1.80855	-0.194476	-1.50377	0.048627	-1.74011	0.028025	-1.54307	0.21162	-1.38583	0.293548	-1.18375	0.034892	-1.14325	-0.017782	-0.700166	-0.060053	-1.0239	
0.61873	2.54974	5	0	50.6926	21.8299	0.155224	-1.52504	0	0	0.444622	-1.01079	0.285265	-3.33195	0.164117	-1.2156	-0.143795	-1.64295	-0.083657	-1.80426	-0.195497	-1.51087	0.0475282	-1.737	0.0209768	-1.55085	0.196711	-1.38817	0.279574	-1.19069	0.023681	-1.14485	-0.032344	-0.699694	-0.0704265	-1.03703	
0.61921	2.54516	5	0	50.7147	21.8937	0.161689	-1.51912	0	0	0.449107	-1.00377	-0.136692	-2.13944	0.164117	-1.2156	-0.141084	-1.64076	-0.072862	-1.79996	-0.196518	-1.51797	0.0464295	-1.7339	0.0139285	-1.55863	0.181802	-1.3905	0.2656	-1.19762	0.01247	-1.14646	-0.046906	-0.699221	-0.0808	-1.05015	
0.619833	2.54364	5	0	50.7368	21.9575	0.168154	-1.51321	0	0	0.453592	-0.996744	-0.558648	-0.946925	0.164117	-1.2156	-0.138373	-1.63857	-0.062067	-1.79567	-0.197538	-1.52507	0.0453308	-1.73079	0.00688025	-1.5664	0.166893	-1.39284	0.251626	-1.20456	0.001259	-1.14806	-0.061468	-0.698749	-0.0911735	-1.06328	
0.620625	2.54059	5	0	50.759	22.0213	0.17462	-1.50729	0	0	0.458077	-0.98972	-0.980605	0.245588	0.164117	-1.2156	-0.135662	-1.63638	-0.051272	-1.79137	-0.198559	-1.53217	0.044232	-1.72769	-0.000168	-1.57418	0.151984	-1.39517	0.237652	-1.21149	-0.009952	-1.14967	-0.07603	-0.698277	-0.101547	-1.07641	
0.621664	2.53601	5	0	50.84	22.0475	0.173177	-1.49111	0	0	0.457107	-0.977121	-0.980605	0.245588	0.166336	-1.20697	-0.133862	-1.63161	-0.0471175	-1.77988	-0.199581	-1.53926	0.0453308	-1.73079	-0.00948175	-1.57551	0.147948	-1.39857	0.225897	-1.20916	-0.0160805	-1.14343	-0.0781102	-0.692398	-0.114545	-1.06791	
0.623052	2.54516	5	0	50.921	22.0737	0.171735	-1.47492	0	0	0.456137	-0.964523	-0.980605	0.245588	0.168556	-1.19834	-0.132062	-1.62684	-0.042963	-1.76838	-0.200603	-1.54635	0.0464295	-1.7339	-0.0187955	-1.57685	0.143912	-1.40196	0.214141	-1.20682	-0.022209	-1.1372	-0.0801905	-0.686519	-0.127544	-1.05942	
0.624891	2.54669	5	0	51.002	22.0999	0.170293	-1.45874	0	0	0.455167	-0.951925	-0.980605	0.245588	0.170775	-1.1897	-0.130263	-1.62206	-0.0388085	-1.75688	-0.201626	-1.55344	0.0475282	-1.737	-0.0281092	-1.57818	0.139876	-1.40535	0.202385	-1.20449	-0.0283375	-1.13096	-0.0822708	-0.680639	-0.140542	-1.05093	
0.627286	2.54059	5	0	51.083	22.1261	0.16885	-1.44256	0	0	0.454197	-0.939326	-0.980605	0.245588	0.172994	-1.18107	-0.128463	-1.61729	-0.034654	-1.74539	-0.202648	-1.56053	0.048627	-1.74011	-0.037423	-1.57951	0.13584	-1.40875	0.19063	-1.20216	-0.034466	-1.12472	-0.084351	-0.67476	-0.15354	-1.04243	
0.630285	2.54211	5	0	51.1744	22.1263	0.165337	-1.43263	0	0	0.449601	-0.926336	-0.980605	0.245588	0.173661	-1.16803	-0.123949	-1.61032	-0.0251402	-1.73736	-0.198947	-1.56101	0.0475282	-1.737	-0.0437802	-1.57536	0.134452	-1.40482	0.18107	-1.19056	-0.0416653	-1.10438	-0.0906002	-0.657099	-0.149703	-1.02504	
0.633475	2.54059	5	0	51.2659	22.1265	0.161824	-1.4227	0	0	0.445005	-0.913346	-0.980605	0.245588	0.174328	-1.155	-0.119435	-1.60335	-0.0156265	-1.72934	-0.195246	-1.56149	0.0464295	-1.7339	-0.0501375	-1.5712	0.133065	-1.4009	0.171509	-1.17897	-0.0488645	-1.08403	-0.0968495	-0.639437	-0.145866	-1.00764	
0.6362	2.54211	5	0	51.3574	22.1267	0.158311	-1.41277	0	0	0.440408	-0.900356	-0.980605	0.245588	0.174996	-1.14197	-0.114921	-1.59637	-0.00611275	-1.72131	-0.191546	-1.56197	0.0453308	-1.73079	-0.0564948	-1.56705	0.131678	-1.39698	0.161949	-1.16737	-0.0560637	-1.06369	-0.103099	-0.621776	-0.142029	-0.99024	
0.637799	2.54516	5	0	51.4488	22.1269	0.154798	-1.40284	0	0	0.435812	-0.887366	-0.980605	0.245588	0.175663	-1.12894	-0.110407	-1.5894	0.003401	-1.71329	-0.187845	-1.56245	0.044232	-1.72769	-0.062852	-1.5629	0.13029	-1.39306	0.152389	-1.15578	-0.063263	-1.04334	-0.109348	-0.604115	-0.138192	-0.972842	
0.637613	2.54516	5	0	51.4488	22.1269	0.156857	-1.39655	0	0	0.43759	-0.882529	-0.980605	0.245588	0.179431	-1.12465	-0.10589	-1.58241	0.0048245	-1.70566	-0.196136	-1.55897	0.037764	-1.73062	-0.0744145	-1.55781	0.116683	-1.38417	0.1416	-1.1407	-0.0613055	-1.0267	-0.108359	-0.579799	-0.139624	-0.94051	
0.635055	2.54516	5	0	51.4488	22.1269	0.158915	-1.39025	0	0	0.439368	-0.877692	-0.980605	0.245588	0.183198	-1.12037	-0.101374	-1.57543	0.006248	-1.69803	-0.204427	-1.55549	0.031296	-1.73355	-0.085977	-1.55273	0.103076	-1.37528	0.130811	-1.12562	-0.059348	-1.01006	-0.10737	-0.555483	-0.141056	-0.908178	
0.630423	2.54669	5	0	51.4488	22.1269	0.160973	-1.38396	0	0	0.441147	-0.872855	-0.980605	0.245588	0.186966	-1.11609	-0.0968568	-1.56844	0.0076715	-1.6904	-0.212718	-1.55201	0.024828	-1.73649	-0.0975395	-1.54764	0.089469	-1.36639	0.120023	-1.11054	-0.0573905	-0.993416	-0.10638	-0.531167	-0.142488	-0.875846	
0.624618	2.55127	5	0	51.4488	22.1269	0.163032	-1.37766	0	0	0.442925	-0.868018	-0.980605	0.245588	0.190733	-1.1118	-0.09234	-1.56146	0.009095	-1.68277	-0.221009	-1.54853	0.01836	-1.73942	-0.109102	-1.54256	0.075862	-1.3575	0.109234	-1.09547	-0.055433	-0.976774	-0.105391	-0.506851	-0.14392	-0.843514	
0.618552	2.55432	5	0	45.7996	20.5376	0.171559	-1.36537	0	0	0.444703	-0.863176	-0.980605	0.245588	0.194503	-1.10752	-0.08782	-1.55446	0.009095	-1.68277	-0.221139	-1.55813	0.0109208	-1.76075	-0.116103	-1.55033	0.0692077	-1.36821	0.100914	-1.08735	-0.0626025	-0.967602	-0.109579	-0.495015	-0.15051	-0.824889	
0.613137	2.55127	5	0	40.1504	18.9482	0.180086	-1.35308	0	0	0.446481	-0.858333	-0.980605	0.245588	0.198273	-1.10323	-0.0833	-1.54746	0.009095	-1.68277	-0.22127	-1.56773	0.0034815	-1.78208	-0.123104	-1.55809	0.0625535	-1.37892	0.0925935	-1.07924	-0.069772	-0.95843	-0.113767	-0.483179	-0.1571	-0.806264	
0.609186	2.55737	5	0	34.5011	17.3588	0.188613	-1.34078	0	0	0.44826	-0.853491	-0.980605	0.245588	0.202043	-1.09894	-0.07878	-1.54046	0.009095	-1.68277	-0.2214	-1.57733	-0.00395775	-1.80342	-0.130104	-1.56586	0.0558992	-1.38963	0.0842733	-1.07112	-0.0769415	-0.949257	-0.117956	-0.471342	-0.16369	-0.78764	
0.60667	2.55585	5	0	28.8519	15.7695	0.19714	-1.32849	0	0	0.450038	-0.848649	-0.980605	0.245588	0.205813	-1.09465	-0.07426	-1.53346	0.009095	-1.68277	-0.22153	-1.58693	-0.011397	-1.82475	-0.137105	-1.57363	0.049245	-1.40034	0.075953	-1.06301	-0.084111	-0.940085	-0.122144	-0.459506	-0.17028	-0.769015	
0.605125	2.55737	5	0	25.9586	14.3913	0.194487	-1.30885	0	0	0.445427	-0.835617	-0.980605	0.245588	0.213361	-1.08606	-0.0715738	-1.52126	0.0118323	-1.67885	-0.226247	-1.59352	-0.01725	-1.83991	-0.133702	-1.58325	0.0452285	-1.40373	0.0639357	-1.04443	-0.0872118	-0.931322	-0.121141	-0.44877	-0.184444	-0.785512	
0.604085	2.55585	5	0	23.0653	13.0132	0.191835	-1.28921	0	0	0.440816	-0.822585	-0.980605	0.245588	0.220908	-1.07747	-0.0688875	-1.50906	0.0145695	-1.67492	-0.230964	-1.60011	-0.023103	-1.85507	-0.130299	-1.59286	0.041212	-1.40713	0.0519185	-1.02585	-0.0903125	-0.92256	-0.120139	-0.438033	-0.198608	-0.802009	
0.603083	2.55737	5	0	20.172	11.635	0.189182	-1.26956	0	0	0.436205	-0.809554	-0.980605	0.245588	0.228455	-1.06888	-0.0662013	-1.49686	0.0173067	-1.671	-0.235681	-1.6067	-0.028956	-1.87023	-0.126895	-1.60248	0.0371955	-1.41052	0.0399012	-1.00728	-0.0934133	-0.913798	-0.119136	-0.427296	-0.212773	-0.818506	
0.601743	2.55737	5	0	17.2788	10.2569	0.186529	-1.24992	0	0	0.431594	-0.796522	-0.980605	0.245588	0.236003	-1.06029	-0.063515	-1.48466	0.020044	-1.66708	-0.240398	-1.61329	-0.034809	-1.88539	-0.123492	-1.6121	0.033179	-1.41391	0.027884	-0.988703	-0.096514	-0.905035	-0.118133	-0.41656	-0.226937	-0.835003	
0.600138	2.55737	5	0	15.7917	9.5005	0.186222	-1.2369	0	0	0.432444	-0.789052	-1.46772	1.62224	0.231327	-1.04708	-0.062633	-1.47724	0.020044	-1.66708	-0.247778	-1.61233	-0.0358088	-1.90367	-0.135021	-1.60703	0.035945	-1.42172	0.0346355	-0.976998	-0.096584	-0.893747	-0.125488	-0.395774	-0.232039	-0.848784	
0.59848	2.56195	5	0	14.3046	8.74414	0.185914	-1.22388	0	0	0.433295	-0.781582	-1.95483	2.9989	0.226652	-1.03387	-0.061751	-1.46983	0.020044	-1.66708	-0.255158	-1.61137	-0.0368085	-1.92195	-0.146549	-1.60196	0.038711	-1.42954	0.041387	-0.965292	-0.096654	-0.882459	-0.132843	-0.374988	-0.237141	-0.862564	
0.596981	2.56195	5	0	12.8176	7.98777	0.185607	-1.21086	0	0	0.434145	-0.774113	-2.44194	4.37555	0.221976	-1.02065	-0.060869	-1.46242	0.020044	-1.66708	-0.262538	-1.61041	-0.0378083	-1.94023	-0.158078	-1.59689	0.041477	-1.43736	0.0481385	-0.953587	-0.096724	-0.87117	-0.140197	-0.354201	-0.242242	-0.876345	
0.595853	2.5589	5	0	11.3305	7.23141	0.1853	-1.19783	0	0	0.434995	-0.766643	-2.92906	5.75221	0.217301	-1.00744	-0.059987	-1.45501	0.020044	-1.66708	-0.269918	-1.60946	-0.038808	-1.95851	-0.169607	-1.59182	0.044243	-1.44517	0.05489	-0.941882	-0.096794	-0.859882	-0.147552	-0.333415	-0.247344	-0.890126	
0.595215	2.5589	5	0	10.4059	6.72221	0.183248	-1.20419	0	0	0.427757	-0.765927	0.546772	3.48103	0.219512	-0.998708	-0.062747	-1.44721	0.0065845	-1.66399	-0.277289	-1.6085	-0.047924	-1.96436	-0.175931	-1.58769	0.044243	-1.44517	0.0499353	-0.927879	-0.0999028	-0.851096	-0.145512	-0.3256	-0.258992	-0.885363	
0.594956	2.5589	5	0	9.48136	6.21301	0.181196	-1.21054	0	0	0.420519	-0.765211	4.0226	1.20985	0.221724	-0.989978	-0.065507	-1.43941	-0.006875	-1.66091	-0.28466	-1.60755	-0.05704	-1.97021	-0.182256	-1.58356	0.044243	-1.44517	0.0449805	-0.913876	-0.103012	-0.84231	-0.143473	-0.317785	-0.270641	-0.880601	
0.594929	2.56195	5	0	8.55677	5.7038	0.179145	-1.2169	0	0	0.41328	-0.764496	7.49843	-1.06133	0.223935	-0.981249	-0.068267	-1.43161	-0.0203345	-1.65783	-0.292031	-1.6066	-0.066156	-1.97606	-0.18858	-1.57942	0.044243	-1.44517	0.0400257	-0.899872	-0.10612	-0.833525	-0.141433	-0.309969	-0.282289	-0.875838	
0.594986	2.5589	5	0	7.63218	5.1946	0.177093	-1.22325	0	0	0.406042	-0.76378	10.9743	-3.33251	0.226146	-0.97252	-0.071027	-1.4238	-0.033794	-1.65475	-0.299402	-1.60564	-0.075272	-1.98192	-0.194904	-1.57529	0.044243	-1.44517	0.035071	-0.885869	-0.109229	-0.824739	-0.139393	-0.302154	-0.293937	-0.871075	
0.594985	2.56042	5	0	7.04815	4.81398	0.167405	-1.23229	0	0	0.406116	-0.773853	10.9743	-3.33251	0.215486	-0.972339	-0.0728255	-1.42863	-0.0392515	-1.66259	-0.304988	-1.60971	-0.0795335	-1.99092	-0.198958	-1.57757	0.033453	-1.44413	0.0325905	-0.878859	-0.110266	-0.821808	-0.142555	-0.293219	-0.291317	-0.87848	
0.59493	2.5589	5	0	6.46412	4.43335	0.157718	-1.24132	0	0	0.406191	-0.783926	10.9743	-3.33251	0.204827	-0.972159	-0.074624	-1.43345	-0.044709	-1.67043	-0.310575	-1.61378	-0.083795	-1.99992	-0.203011	-1.57984	0.022663	-1.44308	0.03011	-0.871849	-0.111303	-0.818878	-0.145716	-0.284284	-0.288697	-0.885885	
0.595015	2.55585	5	0	5.88008	4.05273	0.148031	-1.25036	0	0	0.406266	-0.794	10.9743	-3.33251	0.194167	-0.971978	-0.0764225	-1.43827	-0.0501665	-1.67828	-0.316161	-1.61785	-0.0880565	-2.00892	-0.207064	-1.58212	0.011873	-1.44203	0.0276295	-0.86484	-0.11234	-0.815948	-0.148877	-0.275349	-0.286076	-0.89329	
0.595449	2.55585	5	0	5.29605	3.67211	0.138343	-1.2594	0	0	0.40634	-0.804073	10.9743	-3.33251	0.183507	-0.971797	-0.078221	-1.44309	-0.055624	-1.68612	-0.321748	-1.62192	-0.092318	-2.01792	-0.211118	-1.58439	0.001083	-1.44099	0.025149	-0.85783	-0.113377	-0.813017	-0.152039	-0.266414	-0.283456	-0.900695	
0.596441	2.55432	5	0	4.88253	3.38119	0.143342	-1.28565	0	0	0.407331	-0.816731	10.9743	-3.33251	0.1913	-0.99382	-0.0854513	-1.45234	-0.0544215	-1.70114	-0.329231	-1.63051	-0.0992477	-2.02986	-0.216955	-1.59533	-0.000166	-1.45216	0.0180615	-0.853199	-0.111303	-0.818877	-0.150985	-0.269393	-0.308006	-0.887498	
0.59819	2.55585	5	0	4.46901	3.09027	0.148341	-1.3119	0	0	0.408322	-0.829388	10.9743	-3.33251	0.199093	-1.01584	-0.0926815	-1.46159	-0.053219	-1.71616	-0.336714	-1.63911	-0.106178	-2.0418	-0.222792	-1.60626	-0.001415	-1.46334	0.010974	-0.848567	-0.10923	-0.824737	-0.149931	-0.272373	-0.332557	-0.874302	
0.600802	2.55432	5	0	4.05549	2.79935	0.15334	-1.33815	0	0	0.409312	-0.842046	10.9743	-3.33251	0.206885	-1.03787	-0.0999117	-1.47084	-0.0520165	-1.73118	-0.344197	-1.64771	-0.113107	-2.05374	-0.228628	-1.6172	-0.002664	-1.47452	0.0038865	-0.843936	-0.107157	-0.830597	-0.148876	-0.275352	-0.357107	-0.861105	
0.604312	2.54974	5	0	3.64197	2.50844	0.158339	-1.3644	0	0	0.410303	-0.854703	10.9743	-3.33251	0.214678	-1.05989	-0.107142	-1.48009	-0.050814	-1.74621	-0.35168	-1.6563	-0.120037	-2.06568	-0.234465	-1.62813	-0.003913	-1.48569	-0.003201	-0.839305	-0.105083	-0.836457	-0.147822	-0.278331	-0.381657	-0.847908	
0.608754	2.54516	5	0	3.35425	2.28967	0.154224	-1.37699	0	0	0.410367	-0.864737	10.9743	-3.33251	0.205585	-1.06409	-0.106189	-1.49267	-0.060304	-1.75421	-0.359154	-1.66488	-0.114635	-2.08095	-0.236253	-1.63678	-0.00379025	-1.50074	-0.0111615	-0.847568	-0.105974	-0.856111	-0.151897	-0.293965	-0.381495	-0.876397	
0.61416	2.54516	5	0	3.06652	2.0709	0.15011	-1.38958	0	0	0.410432	-0.874772	10.9743	-3.33251	0.196491	-1.06829	-0.105236	-1.50524	-0.069794	-1.76222	-0.366627	-1.67346	-0.109232	-2.09622	-0.238041	-1.64543	-0.0036675	-1.51578	-0.019122	-0.855832	-0.106866	-0.875765	-0.155973	-0.309598	-0.381332	-0.904886	
0.620521	2.54822	5	0	2.77879	1.85213	0.145995	-1.40217	0	0	0.410496	-0.884807	10.9743	-3.33251	0.187398	-1.07248	-0.104282	-1.51782	-0.079284	-1.77022	-0.374101	-1.68204	-0.10383	-2.11149	-0.239829	-1.65407	-0.00354475	-1.53082	-0.0270825	-0.864096	-0.107757	-0.895419	-0.160048	-0.325232	-0.381169	-0.933375	
0.627356	2.54669	5	0	2.49106	1.63336	0.14188	-1.41476	0	0	0.410561	-0.894841	10.9743	-3.33251	0.178305	-1.07668	-0.103329	-1.5304	-0.088774	-1.77823	-0.381574	-1.69061	-0.098427	-2.12676	-0.241617	-1.66272	-0.003422	-1.54586	-0.035043	-0.872359	-0.108649	-0.915073	-0.164123	-0.340866	-0.381007	-0.961864	
0.633908	2.54669	5	0	2.28447	1.46057	0.136596	-1.42402	0	0	0.404255	-0.896709	10.3981	-1.70428	0.184516	-1.09423	-0.112384	-1.53443	-0.0848575	-1.78929	-0.379806	-1.69561	-0.104338	-2.12055	-0.245662	-1.66498	-0.00067175	-1.55363	-0.035928	-0.885219	-0.107553	-0.929247	-0.165112	-0.35163	-0.38991	-0.978669	
0.639417	2.54822	5	0	2.07789	1.28778	0.131311	-1.43327	0	0	0.39795	-0.898578	9.822	-0.0760395	0.190727	-1.11179	-0.121439	-1.53846	-0.080941	-1.80036	-0.378038	-1.70061	-0.110248	-2.11434	-0.249706	-1.66724	0.0020785	-1.56141	-0.036813	-0.898079	-0.106457	-0.943421	-0.166102	-0.362394	-0.398813	-0.995474	
0.643118	2.54974	5	0	1.87131	1.11499	0.126027	-1.44252	0	0	0.391645	-0.900446	9.24586	1.5522	0.196939	-1.12934	-0.130493	-1.54249	-0.0770245	-1.81143	-0.37627	-1.7056	-0.116159	-2.10813	-0.253751	-1.6695	0.00482875	-1.56918	-0.037698	-0.91094	-0.105361	-0.957595	-0.167092	-0.373158	-0.407715	-1.01228	
0.644301	2.55432	5	0	1.66472	0.942197	0.120742	-1.45178	0	0	0.385339	-0.902314	8.66973	3.18044	0.20315	-1.1469	-0.139548	-1.54652	-0.073108	-1.8225	-0.374502	-1.7106	-0.12207	-2.10192	-0.257796	-1.67176	0.007579	-1.57695	-0.038583	-0.9238	-0.104265	-0.971769	-0.168081	-0.383922	-0.416618	-1.02908	
0.643172	2.5589	5	0	1.50418	0.826369	0.120742	-1.45178	0	0	0.389869	-0.905274	9.24586	1.5522	0.197829	-1.14679	-0.136804	-1.55427	-0.0771398	-1.8227	-0.37627	-1.7056	-0.114056	-2.09307	-0.260052	-1.66538	0.0129675	-1.57748	-0.0348775	-0.934272	-0.0950442	-0.986751	-0.168081	-0.383922	-0.407587	-1.04063	
0.640755	2.56348	5	0	1.34364	0.710541	0.120742	-1.45178	0	0	0.394398	-0.908233	9.822	-0.0760395	0.192508	-1.14668	-0.134061	-1.56202	-0.0811715	-1.8229	-0.378038	-1.70061	-0.106041	-2.08421	-0.262308	-1.65901	0.018356	-1.57802	-0.031172	-0.944743	-0.0858235	-1.00173	-0.168081	-0.383922	-0.398556	-1.05217	
0.638104	2.57263	5	0	1.1831	0.594714	0.120742	-1.45178	0	0	0.398927	-0.911193	10.3981	-1.70428	0.187187	-1.14657	-0.131318	-1.56977	-0.0852032	-1.8231	-0.379806	-1.69561	-0.0980265	-2.07535	-0.264565	-1.65263	0.0237445	-1.57855	-0.0274665	-0.955215	-0.0766027	-1.01672	-0.168081	-0.383922	-0.389525	-1.06372	
0.636275	2.58179	5	0	1.02255	0.478886	0.120742	-1.45178	0	0	0.403457	-0.914153	10.9743	-3.33251	0.181866	-1.14647	-0.128574	-1.57753	-0.089235	-1.8233	-0.381574	-1.69061	-0.090012	-2.0665	-0.266821	-1.64625	0.029133	-1.57909	-0.023761	-0.965687	-0.067382	-1.0317	-0.168081	-0.383922	-0.380494	-1.07526	
0.636291	2.59247	5	0	0.902497	0.391623	0.11196	-1.45112	0	0	0.400763	-0.916382	10.9743	-3.33251	0.181866	-1.14647	-0.128574	-1.57753	-0.0865082	-1.81941	-0.385113	-1.68061	-0.0852412	-2.04842	-0.263907	-1.6408	0.0331502	-1.57573	-0.022527	-0.969175	-0.067382	-1.0317	-0.16289	-0.385034	-0.37281	-1.06899	
0.638322	2.60315	5	0	0.782441	0.30436	0.103178	-1.45045	0	0	0.39807	-0.918612	10.9743	-3.33251	0.181866	-1.14647	-0.128574	-1.57753	-0.0837815	-1.81552	-0.388651	-1.67061	-0.0804705	-2.03034	-0.260994	-1.63534	0.0371675	-1.57238	-0.021293	-0.972662	-0.067382	-1.0317	-0.157698	-0.386146	-0.365126	-1.06272	
0.641579	2.61078	5	0	0.662385	0.217096	0.0943952	-1.44979	0	0	0.395377	-0.920841	10.9743	-3.33251	0.181866	-1.14647	-0.128574	-1.57753	-0.0810547	-1.81164	-0.39219	-1.66061	-0.0756998	-2.01227	-0.25808	-1.62988	0.0411847	-1.56903	-0.020059	-0.97615	-0.067382	-1.0317	-0.152506	-0.387257	-0.357442	-1.05645	
0.645223	2.61993	5	0	0.542329	0.129833	0.085613	-1.44913	0	0	0.392683	-0.923071	10.9743	-3.33251	0.181866	-1.14647	-0.128574	-1.57753	-0.078328	-1.80775	-0.395728	-1.65061	-0.070929	-1.99419	-0.255167	-1.62443	0.045202	-1.56567	-0.018825	-0.979638	-0.067382	-1.0317	-0.147315	-0.388369	-0.349758	-1.05018	
0.648416	2.62604	5	0	0.459909	0.0560475	0.0823937	-1.4521	0	0	0.392683	-0.923071	10.3981	-1.70428	0.181196	-1.15949	-0.130372	-1.58231	-0.074294	-1.80755	-0.398385	-1.6431	-0.0736895	-1.97586	-0.257427	-1.61804	0.0370567	-1.55736	-0.0258893	-0.975022	-0.0602682	-1.02963	-0.146322	-0.377603	-0.353731	-1.02494	
0.650321	2.63824	5	0	0.377489	-0.017738	0.0791745	-1.45507	0	0	0.392683	-0.923071	9.822	-0.0760395	0.180526	-1.17252	-0.13217	-1.58709	-0.07026	-1.80735	-0.401041	-1.6356	-0.07645	-1.95752	-0.259688	-1.61165	0.0289115	-1.54905	-0.0329535	-0.970406	-0.0531545	-1.02756	-0.14533	-0.366837	-0.357704	-0.999703	
0.650564	2.6413	5	0	0.29507	-0.0915235	0.0759553	-1.45804	0	0	0.392683	-0.923071	9.24586	1.5522	0.179856	-1.18554	-0.133969	-1.59187	-0.066226	-1.80715	-0.403697	-1.62809	-0.0792105	-1.93919	-0.261949	-1.60526	0.0207662	-1.54073	-0.0400177	-0.965791	-0.0460408	-1.02549	-0.144338	-0.356071	-0.361676	-0.974467	
0.649648	2.64435	5	0	0.21265	-0.165309	0.072736	-1.46101	0	0	0.392683	-0.923071	8.66973	3.18044	0.179186	-1.19857	-0.135767	-1.59665	-0.062192	-1.80695	-0.406354	-1.62058	-0.081971	-1.92085	-0.264209	-1.59887	0.012621	-1.53242	-0.047082	-0.961175	-0.038927	-1.02342	-0.143345	-0.345305	-0.365649	-0.94923	
0.648176	2.65045	5	0	0.148491	-0.217583	0.0759553	-1.45804	0	0	0.393539	-0.915649	9.24586	1.5522	0.180733	-1.20294	-0.137594	-1.59149	-0.055423	-1.80285	-0.405468	-1.62308	-0.0777135	-1.9118	-0.26825	-1.60114	0.0153735	-1.5402	-0.0421503	-0.975113	-0.0419698	-1.02591	-0.142294	-0.348276	-0.360434	-0.963967	
0.64675	2.65198	5	0	0.0843325	-0.269857	0.0791745	-1.45507	0	0	0.394396	-0.908227	9.822	-0.0760395	0.18228	-1.20731	-0.139421	-1.58632	-0.048654	-1.79876	-0.404582	-1.62559	-0.073456	-1.90275	-0.27229	-1.60342	0.018126	-1.54798	-0.0372185	-0.989051	-0.0450125	-1.0284	-0.141242	-0.351248	-0.35522	-0.978704	
0.645973	2.6535	5	0	0.0201737	-0.322131	0.0823937	-1.4521	0	0	0.395253	-0.900806	10.3981	-1.70428	0.183827	-1.21168	-0.141248	-1.58116	-0.041885	-1.79467	-0.403697	-1.62809	-0.0691985	-1.89371	-0.27633	-1.60569	0.0208785	-1.55576	-0.0322868	-1.00299	-0.0480553	-1.0309	-0.140191	-0.354219	-0.350006	-0.993441	
0.646224	2.65655	5	0	-0.043985	-0.374405	0.085613	-1.44913	0	0	0.396109	-0.893384	10.9743	-3.33251	0.185374	-1.21606	-0.143075	-1.576	-0.035116	-1.79057	-0.402811	-1.63059	-0.064941	-1.88466	-0.280371	-1.60796	0.023631	-1.56354	-0.027355	-1.01693	-0.051098	-1.03339	-0.13914	-0.357191	-0.344791	-1.00818	
0.647193	2.6535	5	0	-0.0893117	-0.40945	0.086496	-1.43955	0	0	0.399657	-0.883714	10.9743	-3.33251	0.183827	-1.21168	-0.136737	-1.57418	-0.0296478	-1.78277	-0.406477	-1.63012	-0.0633573	-1.87858	-0.27294	-1.61527	0.023631	-1.56354	-0.024892	-1.02389	-0.0459937	-1.03672	-0.143284	-0.359049	-0.348635	-1.01132	
0.64844	2.65503	5	0	-0.134638	-0.444495	0.087379	-1.42997	0	0	0.403206	-0.874043	10.9743	-3.33251	0.18228	-1.20731	-0.130399	-1.57236	-0.0241795	-1.77497	-0.410143	-1.62965	-0.0617735	-1.87251	-0.26551	-1.62258	0.023631	-1.56354	-0.022429	-1.03085	-0.0408895	-1.04006	-0.147428	-0.360908	-0.352479	-1.01447	
0.649523	2.65961	5	0	-0.179965	-0.479539	0.088262	-1.42039	0	0	0.406754	-0.864373	10.9743	-3.33251	0.180733	-1.20294	-0.12406	-1.57054	-0.0187112	-1.76717	-0.413809	-1.62918	-0.0601898	-1.86643	-0.25808	-1.62989	0.023631	-1.56354	-0.019966	-1.03781	-0.0357852	-1.04339	-0.151572	-0.362766	-0.356322	-1.01762	
0.650003	2.65655	5	0	-0.225292	-0.514584	0.089145	-1.41081	0	0	0.410303	-0.854703	10.9743	-3.33251	0.179186	-1.19857	-0.117722	-1.56873	-0.013243	-1.75938	-0.417475	-1.62871	-0.058606	-1.86036	-0.250649	-1.63719	0.023631	-1.56354	-0.017503	-1.04477	-0.030681	-1.04673	-0.155716	-0.364625	-0.360166	-1.02076	
0.649514	2.65655	5	0	-0.261101	-0.534811	0.086509	-1.39128	0	0	0.407467	-0.836832	10.9743	-3.33251	0.181406	-1.18992	-0.11504	-1.55655	-0.00634475	-1.74394	-0.414695	-1.62668	-0.0581155	-1.85119	-0.259209	-1.62669	0.0290238	-1.56407	-0.0187343	-1.04129	-0.0245875	-1.04175	-0.147425	-0.360907	-0.352475	-1.01447	
0.648122	2.65655	5	0	-0.296909	-0.555038	0.083873	-1.37175	0	0	0.404632	-0.818961	10.9743	-3.33251	0.183627	-1.18128	-0.112359	-1.54438	0.0005535	-1.7285	-0.411914	-1.62464	-0.057625	-1.84202	-0.26777	-1.61619	0.0344165	-1.56461	-0.0199655	-1.03781	-0.018494	-1.03677	-0.139133	-0.357189	-0.344785	-1.00817	
0.64604	2.65198	5	0	-0.332718	-0.575264	0.081237	-1.35221	0	0	0.401797	-0.80109	10.9743	-3.33251	0.185847	-1.17263	-0.109677	-1.53221	0.00745175	-1.71306	-0.409134	-1.62261	-0.0571345	-1.83285	-0.276331	-1.60569	0.0398092	-1.56514	-0.0211968	-1.03433	-0.0124005	-1.03179	-0.130842	-0.35347	-0.337094	-1.00188	
0.643484	2.6474	5	0	-0.368527	-0.595491	0.078601	-1.33268	0	0	0.398961	-0.783219	10.9743	-3.33251	0.188067	-1.16399	-0.106995	-1.52004	0.01435	-1.69762	-0.406354	-1.62058	-0.056644	-1.82369	-0.284891	-1.59518	0.045202	-1.56567	-0.022428	-1.03085	-0.006307	-1.02681	-0.122551	-0.349752	-0.329404	-0.995582	
0.640668	2.64282	5	0	-0.397949	-0.619616	0.082993	-1.333	0	0	0.400731	-0.778359	10.9743	-3.33251	0.184966	-1.15523	-0.107032	-1.51005	0.018512	-1.68606	-0.413564	-1.61009	-0.0550625	-1.81759	-0.293449	-1.58468	0.049222	-1.56232	-0.0273578	-1.01692	-0.009458	-1.0068	-0.117408	-0.337095	-0.320463	-0.978727	
0.637806	2.64435	5	0	-0.427371	-0.643741	0.087385	-1.33333	0	0	0.402502	-0.7735	10.9743	-3.33251	0.181865	-1.14646	-0.107069	-1.50006	0.022674	-1.67449	-0.420774	-1.5996	-0.053481	-1.8115	-0.302006	-1.57417	0.053242	-1.55896	-0.0322875	-1.00299	-0.012609	-0.986783	-0.112266	-0.324438	-0.311522	-0.961873	
0.635108	2.6413	5	0	-0.456793	-0.667865	0.091777	-1.33365	0	0	0.404272	-0.76864	10.9743	-3.33251	0.178764	-1.1377	-0.107105	-1.49008	0.026836	-1.66293	-0.427985	-1.58912	-0.0518995	-1.80541	-0.310563	-1.56367	0.057262	-1.5556	-0.0372172	-0.989053	-0.01576	-0.966769	-0.107123	-0.31178	-0.302581	-0.945018	
0.632785	2.63672	5	0	-0.486215	-0.69199	0.096169	-1.33397	0	0	0.406042	-0.76378	10.9743	-3.33251	0.175663	-1.12894	-0.107142	-1.48009	0.030998	-1.65137	-0.435195	-1.57863	-0.050318	-1.79931	-0.319121	-1.55316	0.061282	-1.55225	-0.042147	-0.975121	-0.018911	-0.946754	-0.101981	-0.299123	-0.29364	-0.928164	
0.631044	2.63214	5	0	-0.501757	-0.7148	0.0982165	-1.32766	0	0	0.411432	-0.759272	10.9743	-3.33251	0.186308	-1.12915	-0.0999117	-1.47084	0.0405392	-1.64329	-0.440746	-1.5827	-0.050807	-1.80849	-0.31573	-1.56275	0.0558853	-1.55171	-0.0458495	-0.964657	-0.0138513	-0.938814	-0.106201	-0.287196	-0.306654	-0.905437	
0.630094	2.62146	5	0	-0.517299	-0.73761	0.100264	-1.32134	0	0	0.416822	-0.754764	10.9743	-3.33251	0.196953	-1.12936	-0.0926815	-1.46159	0.0500805	-1.63521	-0.446297	-1.58678	-0.051296	-1.81767	-0.312339	-1.57233	0.0504885	-1.55118	-0.049552	-0.954194	-0.0087915	-0.930874	-0.110422	-0.275269	-0.319667	-0.88271	
0.630106	2.62298	5	0	-0.532841	-0.760421	0.102311	-1.31503	0	0	0.422211	-0.750255	10.9743	-3.33251	0.207597	-1.12957	-0.0854513	-1.45234	0.0596218	-1.62713	-0.451848	-1.59085	-0.051785	-1.82685	-0.308948	-1.58192	0.0450917	-1.55065	-0.0532545	-0.943731	-0.00373175	-0.922934	-0.114642	-0.263341	-0.332681	-0.859982	
0.630886	2.61993	5	0	-0.548383	-0.783231	0.104359	-1.30872	0	0	0.427601	-0.745747	10.9743	-3.33251	0.218242	-1.12978	-0.078221	-1.44309	0.069163	-1.61905	-0.457399	-1.59492	-0.052274	-1.83604	-0.305557	-1.5915	0.039695	-1.55011	-0.056957	-0.933267	0.001328	-0.914994	-0.118862	-0.251414	-0.345695	-0.837255	
0.632043	2.61383	5	0	-0.562414	-0.796793	0.104054	-1.29575	0	0	0.427522	-0.735644	10.9743	-3.33251	0.212025	-1.11221	-0.0764673	-1.42823	0.0733313	-1.60744	-0.458402	-1.60196	-0.0527663	-1.8452	-0.302169	-1.60107	0.0410718	-1.554	-0.0523635	-0.9309	-0.00178175	-0.906205	-0.118862	-0.251414	-0.337917	-0.845184	
0.633184	2.60925	5	0	-0.576445	-0.810355	0.103749	-1.28278	0	0	0.427443	-0.725542	10.9743	-3.33251	0.205807	-1.09464	-0.0747135	-1.41338	0.0774995	-1.59582	-0.459406	-1.609	-0.0532585	-1.85436	-0.298782	-1.61065	0.0424485	-1.55789	-0.04777	-0.928533	-0.0048915	-0.897417	-0.118862	-0.251414	-0.330139	-0.853113	
0.633915	2.6062	5	0	-0.590477	-0.823917	0.103444	-1.26982	0	0	0.427363	-0.715439	10.9743	-3.33251	0.19959	-1.07707	-0.0729598	-1.39852	0.0816677	-1.5842	-0.46041	-1.61604	-0.0537507	-1.86353	-0.295394	-1.62022	0.0438252	-1.56178	-0.0431765	-0.926167	-0.00800125	-0.888628	-0.118862	-0.251414	-0.322362	-0.861043	
0.633872	2.60315	5	0	-0.604508	-0.837479	0.103139	-1.25685	0	0	0.427284	-0.705336	10.9743	-3.33251	0.193373	-1.0595	-0.071206	-1.38366	0.085836	-1.57258	-0.461413	-1.62307	-0.054243	-1.87269	-0.292006	-1.6298	0.045202	-1.56567	-0.038583	-0.9238	-0.011111	-0.87984	-0.118862	-0.251414	-0.314584	-0.868972	
0.633061	2.6001	5	0	-0.614719	-0.848434	0.11194	-1.25748	0	0	0.429054	-0.700455	10.9743	-3.33251	0.204031	-1.05969	-0.0676125	-1.37398	0.091328	-1.56467	-0.465954	-1.62011	-0.0558277	-1.87876	-0.305714	-1.61839	0.0438252	-1.56178	-0.0422925	-0.913316	-0.00190025	-0.883605	-0.112598	-0.255507	-0.306802	-0.876903	
0.631733	2.59247	5	0	-0.62493	-0.85939	0.120741	-1.25812	0	0	0.430824	-0.695574	10.9743	-3.33251	0.214688	-1.05989	-0.064019	-1.3643	0.09682	-1.55676	-0.470496	-1.61714	-0.0574125	-1.88484	-0.319422	-1.60698	0.0424485	-1.55789	-0.046002	-0.902832	0.0073105	-0.887369	-0.106334	-0.2596	-0.29902	-0.884834	
0.630141	2.58942	5	0	-0.63514	-0.870345	0.129542	-1.25876	0	0	0.432594	-0.690693	10.9743	-3.33251	0.225345	-1.06009	-0.0604255	-1.35462	0.102312	-1.54886	-0.475038	-1.61417	-0.0589973	-1.89091	-0.333129	-1.59557	0.0410718	-1.554	-0.0497115	-0.892349	0.0165213	-0.891134	-0.10007	-0.263693	-0.291238	-0.892764	
0.628541	2.58789	5	0	-0.645351	-0.8813	0.138343	-1.2594	0	0	0.434364	-0.685812	10.9743	-3.33251	0.236003	-1.06029	-0.056832	-1.34494	0.107804	-1.54095	-0.479579	-1.6112	-0.060582	-1.89698	-0.346837	-1.58416	0.039695	-1.55011	-0.053421	-0.881865	0.025732	-0.894899	-0.093806	-0.267786	-0.283456	-0.900695	
0.62717	2.58484	5	0	-0.66425	-0.894054	0.128365	-1.25543	0	0	0.427121	-0.685105	10.9743	-3.33251	0.231327	-1.04708	-0.057809	-1.33225	0.109227	-1.53325	-0.478694	-1.6137	-0.0659292	-1.90295	-0.34055	-1.58827	0.046469	-1.55454	-0.050065	-0.875988	0.027747	-0.88945	-0.0948617	-0.264802	-0.271807	-0.905461	
0.62607	2.58179	5	0	-0.683149	-0.906809	0.118388	-1.25147	0	0	0.419879	-0.684398	10.9743	-3.33251	0.226652	-1.03387	-0.058786	-1.31957	0.110649	-1.52554	-0.47781	-1.6162	-0.0712765	-1.90891	-0.334263	-1.59237	0.053243	-1.55896	-0.046709	-0.870111	0.029762	-0.884001	-0.0959175	-0.261818	-0.260157	-0.910227	
0.625137	2.57873	5	0	-0.702048	-0.919563	0.10841	-1.24751	0	0	0.412636	-0.683691	10.9743	-3.33251	0.221976	-1.02065	-0.059763	-1.30688	0.112072	-1.51784	-0.476926	-1.6187	-0.0766238	-1.91488	-0.327975	-1.59648	0.060017	-1.56339	-0.043353	-0.864235	0.031777	-0.878553	-0.0969733	-0.258833	-0.248508	-0.914993	
0.624266	2.57873	5	0	-0.720947	-0.932318	0.098432	-1.24355	0	0	0.405394	-0.682984	10.9743	-3.33251	0.217301	-1.00744	-0.06074	-1.29419	0.113495	-1.51013	-0.476041	-1.6212	-0.081971	-1.92085	-0.321688	-1.60059	0.066791	-1.56782	-0.039997	-0.858358	0.033792	-0.873104	-0.098029	-0.255849	-0.236859	-0.919759	
0.623352	2.5711	5	0	-0.726506	-0.956194	0.0999137	-1.25984	0	0	0.405477	-0.693092	10.9743	-3.33251	0.220419	-1.01625	-0.0598153	-1.29681	0.11482	-1.51388	-0.483349	-1.62027	-0.0910688	-1.92672	-0.329104	-1.59329	0.0532485	-1.55897	-0.0366395	-0.852473	0.0419807	-0.873941	-0.0928168	-0.25696	-0.229125	-0.913417	
0.622295	2.5711	5	0	-0.732065	-0.98007	0.101395	-1.27613	0	0	0.40556	-0.703201	10.9743	-3.33251	0.223536	-1.02506	-0.0588905	-1.29942	0.116145	-1.51762	-0.490657	-1.61933	-0.100166	-1.93259	-0.336521	-1.58599	0.039706	-1.55012	-0.033282	-0.846588	0.0501695	-0.874777	-0.0876045	-0.25807	-0.221391	-0.907075	
0.621064	2.565	5	0	-0.737624	-1.00395	0.102877	-1.29243	0	0	0.405643	-0.713309	10.9743	-3.33251	0.226654	-1.03387	-0.0579658	-1.30204	0.11747	-1.52137	-0.497965	-1.6184	-0.109264	-1.93845	-0.343937	-1.57869	0.0261635	-1.54127	-0.0299245	-0.840703	0.0583583	-0.875614	-0.0823923	-0.259181	-0.213657	-0.900733	
0.619675	2.56195	5	0	-0.743183	-1.02782	0.104359	-1.30872	0	0	0.405726	-0.723417	10.9743	-3.33251	0.229772	-1.04268	-0.057041	-1.30465	0.118795	-1.52511	-0.505273	-1.61747	-0.118362	-1.94432	-0.351353	-1.57139	0.012621	-1.53242	-0.026567	-0.834818	0.066547	-0.876451	-0.07718	-0.260292	-0.205923	-0.894391	
0.618143	2.56195	5	0	-0.738927	-1.05303	0.103484	-1.31835	0	0	0.409423	-0.733865	10.9743	-3.33251	0.225998	-1.04699	-0.0579658	-1.30204	0.118795	-1.52511	-0.510806	-1.62153	-0.118859	-1.95343	-0.356507	-1.57048	0.0153735	-1.5402	-0.025327	-0.838322	0.0686245	-0.882323	-0.0813365	-0.262166	-0.205923	-0.894391	
0.616485	2.5589	5	0	-0.734671	-1.07823	0.102609	-1.32797	0	0	0.41312	-0.744313	10.9743	-3.33251	0.222225	-1.05129	-0.0588905	-1.29942	0.118795	-1.52511	-0.516339	-1.62559	-0.119356	-1.96254	-0.36166	-1.56956	0.018126	-1.54798	-0.024087	-0.841827	0.070702	-0.888194	-0.085493	-0.264039	-0.205923	-0.894391	
0.61472	2.55432	5	0	-0.730414	-1.10344	0.101735	-1.3376	0	0	0.416817	-0.754762	10.9743	-3.33251	0.218452	-1.05559	-0.0598153	-1.29681	0.118795	-1.52511	-0.521871	-1.62966	-0.119852	-1.97165	-0.366814	-1.56865	0.0208785	-1.55576	-0.022847	-0.845331	0.0727795	-0.894065	-0.0896495	-0.265912	-0.205923	-0.894391	
0.612916	2.55279	5	0	-0.726158	-1.12865	0.10086	-1.34723	0	0	0.420514	-0.76521	10.9743	-3.33251	0.214678	-1.05989	-0.06074	-1.29419	0.118795	-1.52511	-0.527404	-1.63372	-0.120349	-1.98076	-0.371967	-1.56774	0.023631	-1.56354	-0.021607	-0.848835	0.074857	-0.899937	-0.093806	-0.267786	-0.205923	-0.894391	
0.611163	2.55127	5	0	-0.726499	-1.14085	0.109944	-1.3608	0	0	0.417819	-0.767462	10.9743	-3.33251	0.214678	-1.05989	-0.05802	-1.29195	0.11747	-1.52137	-0.525639	-1.63871	-0.114425	-1.98699	-0.365684	-1.57184	0.0263813	-1.57131	-0.0274435	-0.847714	0.0779708	-0.908737	-0.0822627	-0.286789	-0.199368	-0.912915	
0.609551	2.54822	5	0	-0.72684	-1.15305	0.119028	-1.37437	0	0	0.415125	-0.769713	10.9743	-3.33251	0.214678	-1.05989	-0.0553	-1.28971	0.116145	-1.51762	-0.523873	-1.6437	-0.108502	-1.99321	-0.359402	-1.57595	0.0291315	-1.57908	-0.03328	-0.846593	0.0810845	-0.917537	-0.0707195	-0.305791	-0.192813	-0.93144	
0.608174	2.54211	5	0	-0.727181	-1.16526	0.128112	-1.38795	0	0	0.41243	-0.771965	10.9743	-3.33251	0.214678	-1.05989	-0.05258	-1.28746	0.11482	-1.51388	-0.522108	-1.64869	-0.102579	-1.99944	-0.35312	-1.58005	0.0318818	-1.58685	-0.0391165	-0.845473	0.0841983	-0.926337	-0.0591762	-0.324794	-0.186259	-0.949965	
0.607104	2.54364	5	0	-0.727522	-1.17746	0.137196	-1.40152	0	0	0.409735	-0.774217	10.9743	-3.33251	0.214678	-1.05989	-0.04986	-1.28522	0.113495	-1.51013	-0.520343	-1.65368	-0.096655	-2.00567	-0.346837	-1.58416	0.034632	-1.59463	-0.044953	-0.844352	0.087312	-0.935137	-0.047633	-0.343797	-0.179704	-0.968489	
0.606317	2.54059	5	0	-0.730151	-1.18319	0.136024	-1.39821	0	0	0.414277	-0.777185	10.3981	-1.70428	0.214678	-1.05989	-0.04986	-1.28522	0.116243	-1.50616	-0.521226	-1.65118	-0.095068	-1.99963	-0.347966	-1.58097	0.0400257	-1.59516	-0.037877	-0.848976	0.094524	-0.944356	-0.0455255	-0.349753	-0.164088	-0.984382	
0.605746	2.54059	5	0	-0.732781	-1.18892	0.134853	-1.3949	0	0	0.418818	-0.780153	9.822	-0.0760395	0.214678	-1.05989	-0.04986	-1.28522	0.11899	-1.5022	-0.522108	-1.64869	-0.093481	-1.9936	-0.349095	-1.57778	0.0454195	-1.5957	-0.030801	-0.8536	0.101736	-0.953575	-0.043418	-0.355708	-0.148472	-1.00027	
0.605327	2.54059	5	0	-0.73541	-1.19464	0.133682	-1.39159	0	0	0.42336	-0.78312	9.24586	1.5522	0.214678	-1.05989	-0.04986	-1.28522	0.121738	-1.49823	-0.522991	-1.64619	-0.091894	-1.98756	-0.350224	-1.57458	0.0508133	-1.59624	-0.023725	-0.858223	0.108948	-0.962794	-0.0413105	-0.361664	-0.132855	-1.01617	
0.604995	2.53754	5	0	-0.738039	-1.20037	0.13251	-1.38828	0	0	0.427902	-0.786088	8.66973	3.18044	0.214678	-1.05989	-0.04986	-1.28522	0.124486	-1.49426	-0.523873	-1.6437	-0.090307	-1.98153	-0.351353	-1.57139	0.056207	-1.59678	-0.016649	-0.862847	0.11616	-0.972013	-0.039203	-0.36762	-0.117239	-1.03206	
0.604725	2.54364	5	0	-0.738388	-1.21253	0.132794	-1.40118	0	0	0.423434	-0.79319	8.66973	3.18044	0.216234	-1.06429	-0.0544307	-1.28223	0.128562	-1.49404	-0.525639	-1.63871	-0.0860475	-1.97251	-0.354743	-1.56181	0.062981	-1.6012	-0.01541	-0.866348	0.121301	-0.975372	-0.0308238	-0.377671	-0.105529	-1.03687	
0.604651	2.53906	5	0	-0.738737	-1.2247	0.133079	-1.41409	0	0	0.418965	-0.800291	8.66973	3.18044	0.217791	-1.06869	-0.0590015	-1.27924	0.132639	-1.49383	-0.527405	-1.63372	-0.081788	-1.96349	-0.358133	-1.55223	0.069755	-1.60563	-0.014171	-0.86985	0.126442	-0.978732	-0.0224445	-0.387721	-0.09382	-1.04167	
0.604941	2.53754	5	0	-0.739086	-1.23686	0.133363	-1.42699	0	0	0.414496	-0.807393	8.66973	3.18044	0.219348	-1.07309	-0.0635722	-1.27626	0.136715	-1.49361	-0.529171	-1.62873	-0.0775285	-1.95447	-0.361523	-1.54265	0.076529	-1.61006	-0.012932	-0.873352	0.131583	-0.982091	-0.0140652	-0.397772	-0.0821105	-1.04648	
0.605768	2.53448	5	0	-0.739435	-1.24902	0.133648	-1.43989	0	0	0.410028	-0.814495	8.66973	3.18044	0.220904	-1.07748	-0.068143	-1.27327	0.140792	-1.49339	-0.530937	-1.62374	-0.073269	-1.94545	-0.364913	-1.53307	0.083303	-1.61448	-0.011693	-0.876853	0.136724	-0.98545	-0.005686	-0.407823	-0.070401	-1.05129	
0.607299	2.53448	5	0	-0.73979	-1.26116	0.135093	-1.45606	0	0	0.405562	-0.821584	9.24586	1.5522	0.218685	-1.08617	-0.0726525	-1.28037	0.142119	-1.49714	-0.532704	-1.61874	-0.0727715	-1.93632	-0.368306	-1.52348	0.076529	-1.61006	-0.0092165	-0.883852	0.141868	-0.988811	-0.005686	-0.407823	-0.0626035	-1.045	
0.609606	2.53296	5	0	-0.740145	-1.2733	0.136537	-1.47224	0	0	0.401096	-0.828673	9.822	-0.0760395	0.216467	-1.09485	-0.077162	-1.28747	0.143446	-1.50089	-0.534471	-1.61375	-0.072274	-1.92718	-0.3717	-1.51389	0.069755	-1.60563	-0.00674	-0.89085	0.147012	-0.992173	-0.005686	-0.407823	-0.054806	-1.03871	
0.612509	2.53296	5	0	-0.7405	-1.28543	0.137981	-1.48841	0	0	0.396631	-0.835762	10.3981	-1.70428	0.214248	-1.10354	-0.0816715	-1.29458	0.144773	-1.50464	-0.536237	-1.60876	-0.0717765	-1.91805	-0.375094	-1.5043	0.062981	-1.6012	-0.0042635	-0.897849	0.152156	-0.995534	-0.005686	-0.407823	-0.0470085	-1.03242	
0.615788	2.52838	5	0	-0.740855	-1.29757	0.139426	-1.50458	0	0	0.392165	-0.842851	10.9743	-3.33251	0.212029	-1.11222	-0.086181	-1.30168	0.1461	-1.50839	-0.538004	-1.60376	-0.071279	-1.90892	-0.378487	-1.49471	0.056207	-1.59678	-0.001787	-0.904848	0.1573	-0.998895	-0.005686	-0.407823	-0.039211	-1.02612	
0.619227	2.52991	5	0	-0.738581	-1.304	0.148489	-1.51811	0	0	0.39854	-0.851015	10.9743	-3.33251	0.209809	-1.12089	-0.0824862	-1.31212	0.147426	-1.51214	-0.536237	-1.60876	-0.0637492	-1.90911	-0.376224	-1.5011	0.0521875	-1.60012	-0.008863	-0.900224	0.159335	-0.993464	0.00371475	-0.407101	-0.0366205	-1.01927	
0.622608	2.52533	5	0	-0.736306	-1.31042	0.157553	-1.53163	0	0	0.404914	-0.859179	10.9743	-3.33251	0.207589	-1.12956	-0.0787915	-1.32256	0.148753	-1.51588	-0.534471	-1.61375	-0.0562195	-1.90929	-0.373962	-1.5075	0.048168	-1.60347	-0.015939	-0.895601	0.161371	-0.988033	0.0131155	-0.40638	-0.03403	-1.01241	
0.625749	2.52838	5	0	-0.734032	-1.31685	0.166617	-1.54516	0	0	0.411289	-0.867344	10.9743	-3.33251	0.20537	-1.13823	-0.0750967	-1.333	0.150079	-1.51963	-0.532704	-1.61874	-0.0486898	-1.90948	-0.371699	-1.51389	0.0441485	-1.60682	-0.023015	-0.890977	0.163406	-0.982602	0.0225162	-0.405658	-0.0314395	-1.00555	
0.628553	2.52838	5	0	-0.731758	-1.32328	0.17568	-1.55868	0	0	0.417664	-0.875508	10.9743	-3.33251	0.20315	-1.1469	-0.071402	-1.34345	0.151405	-1.52338	-0.530937	-1.62374	-0.04116	-1.90967	-0.369436	-1.52029	0.040129	-1.61016	-0.030091	-0.886354	0.165441	-0.977171	0.031917	-0.404936	-0.028849	-0.998688	
0.630938	2.52075	5	0	-0.729123	-1.31759	0.172181	-1.54879	0	0	0.423059	-0.871033	10.3981	-1.70428	0.204701	-1.15128	-0.0750425	-1.34307	0.154159	-1.51942	-0.535466	-1.62078	-0.0406632	-1.90051	-0.369436	-1.52029	0.0428755	-1.61792	-0.0276165	-0.893347	0.165441	-0.977171	0.0298465	-0.412734	-0.0196932	-1.01037	
0.632819	2.51922	5	0	-0.726487	-1.3119	0.168683	-1.5389	0	0	0.428453	-0.866558	9.822	-0.0760395	0.206252	-1.15566	-0.078683	-1.3427	0.156912	-1.51545	-0.539996	-1.61782	-0.0401665	-1.89136	-0.369436	-1.52029	0.045622	-1.62569	-0.025142	-0.900341	0.165441	-0.977171	0.027776	-0.420532	-0.0105375	-1.02206	
0.634113	2.52075	5	0	-0.723851	-1.3062	0.165184	-1.52902	0	0	0.433847	-0.862083	9.24586	1.5522	0.207802	-1.16004	-0.0823235	-1.34233	0.159666	-1.51148	-0.544525	-1.61486	-0.0396698	-1.88221	-0.369436	-1.52029	0.0483685	-1.63345	-0.0226675	-0.907335	0.165441	-0.977171	0.0257055	-0.428331	-0.00138175	-1.03374	
0.634809	2.51922	5	0	-0.721216	-1.30051	0.161685	-1.51913	0	0	0.439242	-0.857608	8.66973	3.18044	0.209353	-1.16443	-0.085964	-1.34195	0.162419	-1.50752	-0.549055	-1.6119	-0.039173	-1.87306	-0.369436	-1.52029	0.051115	-1.64121	-0.020193	-0.914328	0.165441	-0.977171	0.023635	-0.436129	0.007774	-1.04543	
0.635109	2.52075	5	0	-0.719719	-1.29159	0.167881	-1.50032	0	0	0.444574	-0.843059	8.66973	3.18044	0.206251	-1.15566	-0.0841705	-1.33711	0.16793	-1.49958	-0.54176	-1.61282	-0.0370955	-1.8578	-0.370567	-1.51709	0.055137	-1.63787	-0.0189563	-0.917822	0.169553	-0.977603	0.028865	-0.43726	0.015622	-1.05341	
0.635251	2.51465	5	0	-0.718222	-1.28268	0.174077	-1.48151	0	0	0.449906	-0.828509	8.66973	3.18044	0.203148	-1.14689	-0.082377	-1.33226	0.17344	-1.49163	-0.534465	-1.61375	-0.035018	-1.84254	-0.371698	-1.51389	0.059159	-1.63453	-0.0177195	-0.921317	0.173666	-0.978035	0.034095	-0.438391	0.02347	-1.06138	
0.635475	2.51617	5	0	-0.716725	-1.27376	0.180274	-1.4627	0	0	0.455239	-0.813959	8.66973	3.18044	0.200046	-1.13812	-0.0805835	-1.32741	0.178951	-1.48369	-0.52717	-1.61468	-0.0329405	-1.82729	-0.37283	-1.5107	0.063181	-1.63119	-0.0164827	-0.924812	0.177778	-0.978466	0.039325	-0.439521	0.031318	-1.06936	
0.636019	2.51007	5	0	-0.715228	-1.26484	0.18647	-1.4439	0	0	0.460571	-0.79941	8.66973	3.18044	0.196943	-1.12936	-0.07879	-1.32257	0.184462	-1.47575	-0.519875	-1.61561	-0.030863	-1.81203	-0.373961	-1.5075	0.067203	-1.62785	-0.015246	-0.928306	0.18189	-0.978898	0.044555	-0.440652	0.039166	-1.07734	
0.637053	2.51312	5	0	-0.708814	-1.25664	0.182669	-1.42103	0	0	0.46135	-0.781838	8.66973	3.18044	0.204489	-1.12078	-0.077921	-1.3151	0.189977	-1.46779	-0.523412	-1.60561	-0.0266007	-1.80292	-0.37107	-1.50201	0.071228	-1.62451	-0.0118812	-0.922441	0.191125	-0.971386	0.0529205	-0.436964	0.0443767	-1.06363	
0.638492	2.5116	5	0	-0.7024	-1.24844	0.178868	-1.39817	0	0	0.462128	-0.764266	8.66973	3.18044	0.212034	-1.11221	-0.077052	-1.30764	0.195493	-1.45983	-0.526949	-1.59562	-0.0223385	-1.79381	-0.368179	-1.49652	0.075253	-1.62117	-0.0085165	-0.916577	0.200359	-0.963873	0.061286	-0.433276	0.0495875	-1.04992	
0.64019	2.51007	5	0	-0.695987	-1.24024	0.175067	-1.3753	0	0	0.462906	-0.746693	8.66973	3.18044	0.219579	-1.10364	-0.076183	-1.30017	0.201009	-1.45187	-0.530485	-1.58562	-0.0180763	-1.7847	-0.365288	-1.49103	0.079278	-1.61782	-0.00515175	-0.910713	0.209593	-0.956361	0.0696515	-0.429587	0.0547982	-1.03621	
0.642002	2.50854	5	0	-0.689573	-1.23204	0.171266	-1.35244	0	0	0.463685	-0.729121	8.66973	3.18044	0.227125	-1.09507	-0.075314	-1.29271	0.206524	-1.44391	-0.534022	-1.57563	-0.013814	-1.7756	-0.362397	-1.48554	0.083303	-1.61448	-0.001787	-0.904848	0.218828	-0.948848	0.078017	-0.425899	0.060009	-1.0225	
0.643782	2.50702	5	0	-0.690715	-1.22881	0.173324	-1.34613	0	0	0.464533	-0.721624	8.66973	3.18044	0.222456	-1.08187	-0.075373	-1.28262	0.206617	-1.43239	-0.531257	-1.57359	-0.0122308	-1.76948	-0.37095	-1.47503	0.0777977	-1.59892	0.00157925	-0.898975	0.225993	-0.935426	0.0800945	-0.41809	0.0730988	-1.01676	
0.645401	2.50549	5	0	-0.691857	-1.22559	0.175382	-1.33981	0	0	0.465381	-0.714126	8.66973	3.18044	0.217787	-1.06868	-0.075432	-1.27252	0.206709	-1.42086	-0.528493	-1.57155	-0.0106475	-1.76337	-0.379503	-1.46452	0.0722925	-1.58337	0.0049455	-0.893102	0.233158	-0.922004	0.082172	-0.410281	0.0861885	-1.01102	
0.646818	2.50244	5	0	-0.692999	-1.22236	0.17744	-1.3335	0	0	0.466229	-0.706629	8.66973	3.18044	0.213119	-1.05548	-0.075491	-1.26243	0.206802	-1.40934	-0.525728	-1.56951	-0.00906425	-1.75726	-0.388056	-1.45401	0.0667873	-1.56781	0.00831175	-0.887229	0.240322	-0.908582	0.0842495	-0.402472	0.0992782	-1.00527	
0.648028	2.50091	5	0	-0.694141	-1.21913	0.179498	-1.32718	0	0	0.467077	-0.699132	8.66973	3.18044	0.20845	-1.04229	-0.07555	-1.25234	0.206895	-1.39782	-0.522963	-1.56747	-0.007481	-1.75115	-0.396609	-1.44349	0.061282	-1.55225	0.011678	-0.881356	0.247487	-0.89516	0.086327	-0.394663	0.112368	-0.999533	
0.649023	2.50397	5	0	-0.689218	-1.21987	0.181556	-1.32086	0	0	0.466995	-0.689001	8.66973	3.18044	0.21378	-1.04239	-0.0737588	-1.24747	0.213749	-1.3936	-0.522078	-1.56997	-0.0112565	-1.75107	-0.394343	-1.4499	0.0694385	-1.56057	0.0125635	-0.868459	0.240178	-0.874505	0.0821025	-0.382724	0.114951	-0.978287	
0.649796	2.50244	5	0	-0.684296	-1.2206	0.183613	-1.31454	0	0	0.466913	-0.67887	8.66973	3.18044	0.219111	-1.04249	-0.0719675	-1.2426	0.220602	-1.38938	-0.521193	-1.57248	-0.015032	-1.75098	-0.392077	-1.4563	0.077595	-1.56889	0.013449	-0.855562	0.23287	-0.853849	0.077878	-0.370784	0.117533	-0.95704	
0.65035	2.49786	5	0	-0.679374	-1.22134	0.185671	-1.30822	0	0	0.466831	-0.668739	8.66973	3.18044	0.224442	-1.04258	-0.0701762	-1.23773	0.227456	-1.38515	-0.520308	-1.57498	-0.0188075	-1.7509	-0.389811	-1.46271	0.0857515	-1.57721	0.0143345	-0.842665	0.225561	-0.833193	0.0736535	-0.358845	0.120116	-0.935794	
0.650789	2.49939	5	0	-0.674451	-1.22207	0.187729	-1.3019	0	0	0.466749	-0.658608	8.66973	3.18044	0.229772	-1.04268	-0.068385	-1.23286	0.23431	-1.38093	-0.519423	-1.57748	-0.022583	-1.75081	-0.387545	-1.46911	0.093908	-1.58553	0.01522	-0.829768	0.218252	-0.812538	0.069429	-0.346906	0.122699	-0.914548	
0.651285	2.49939	5	0	-0.675593	-1.21884	0.18625	-1.28557	0	0	0.464803	-0.643203	8.66973	3.18044	0.226654	-1.03387	-0.0583682	-1.23135	0.243938	-1.3727	-0.515885	-1.58748	-0.0182003	-1.7632	-0.38528	-1.47551	0.0885055	-1.585	0.013978	-0.826258	0.223424	-0.815917	0.0641893	-0.345778	0.12009	-0.921452	
0.652009	2.49634	5	0	-0.676736	-1.21561	0.184771	-1.26924	0	0	0.462857	-0.627798	8.66973	3.18044	0.223536	-1.02506	-0.0483515	-1.22983	0.253566	-1.36447	-0.512348	-1.59747	-0.0138175	-1.77559	-0.383016	-1.48191	0.083103	-1.58446	0.012736	-0.822748	0.228596	-0.819297	0.0589495	-0.34465	0.117481	-0.928357	
0.653133	2.49634	5	0	-0.677879	-1.21238	0.183291	-1.25292	0	0	0.46091	-0.612392	8.66973	3.18044	0.220419	-1.01625	-0.0383348	-1.22832	0.263194	-1.35623	-0.50881	-1.60747	-0.00943475	-1.78797	-0.380752	-1.48831	0.0777005	-1.58392	0.011494	-0.819239	0.233768	-0.822677	0.0537098	-0.343522	0.114871	-0.935261	
0.65482	2.49481	5	0	-0.679021	-1.20915	0.181812	-1.23659	0	0	0.458964	-0.596987	8.66973	3.18044	0.217301	-1.00744	-0.028318	-1.2268	0.272822	-1.348	-0.505273	-1.61747	-0.005052	-1.80036	-0.378487	-1.49471	0.072298	-1.58338	0.010252	-0.815729	0.23894	-0.826056	0.04847	-0.342394	0.112262	-0.942165	
0.657007	2.48871	5	0	-0.682451	-1.19946	0.174727	-1.21657	0	0	0.460638	-0.581893	8.66973	3.18044	0.221722	-0.989962	-0.0229325	-1.21215	0.275674	-1.33239	-0.507041	-1.61247	-0.006147	-1.79726	-0.380752	-1.48831	0.066788	-1.56781	0.0169833	-0.803915	0.241968	-0.812118	0.0568385	-0.338674	0.112262	-0.942165	
0.659367	2.49328	5	0	-0.685882	-1.18976	0.167641	-1.19654	0	0	0.462312	-0.566798	8.66973	3.18044	0.226143	-0.972488	-0.017547	-1.1975	0.278526	-1.31679	-0.508809	-1.60747	-0.007242	-1.79417	-0.383016	-1.48191	0.061278	-1.55223	0.0237145	-0.792102	0.244995	-0.798179	0.065207	-0.334954	0.112262	-0.942165	
0.661555	2.49023	5	0	-0.689312	-1.18007	0.160556	-1.17652	0	0	0.463986	-0.551704	8.66973	3.18044	0.230564	-0.955013	-0.0121615	-1.18284	0.281378	-1.30118	-0.510578	-1.60248	-0.008337	-1.79107	-0.38528	-1.47551	0.055768	-1.53666	0.0304458	-0.780288	0.248023	-0.784241	0.0735755	-0.331234	0.112262	-0.942165	
0.663229	2.48566	5	0	-0.692743	-1.17037	0.153471	-1.1565	0	0	0.46566	-0.53661	8.66973	3.18044	0.234985	-0.937539	-0.006776	-1.16819	0.28423	-1.28557	-0.512346	-1.59748	-0.009432	-1.78798	-0.387545	-1.46911	0.050258	-1.52109	0.037177	-0.768474	0.25105	-0.770302	0.081944	-0.327514	0.112262	-0.942165	
0.664045	2.48566	5	0	0.410626	-0.694029	0.139595	-1.12942	0	0	0.459952	-0.51056	6.6791	1.25421	0.236888	-0.897874	-0.00784975	-1.14521	0.300921	-1.24967	-0.503927	-1.58181	0.00068475	-1.76358	-0.380016	-1.44938	0.0622052	-1.49587	0.0364172	-0.735438	0.260179	-0.739747	0.0955358	-0.311065	0.105696	-0.937875	
0.663807	2.48566	5	0	1.514	-0.217685	0.125719	-1.10235	0	0	0.454245	-0.484509	4.68848	-0.672014	0.238791	-0.85821	-0.0089235	-1.12224	0.317612	-1.21377	-0.495509	-1.56614	0.0108015	-1.73918	-0.372487	-1.42964	0.0741525	-1.47064	0.0356575	-0.702403	0.269309	-0.709192	0.109127	-0.294615	0.0991295	-0.933584	
0.662727	2.48108	5	0	2.61737	0.25866	0.111842	-1.07528	0	0	0.448538	-0.458458	2.69785	-2.59824	0.240695	-0.818545	-0.00999725	-1.09926	0.334303	-1.17787	-0.48709	-1.55047	0.0209183	-1.71479	-0.364959	-1.40991	0.0860998	-1.44542	0.0348978	-0.669367	0.278438	-0.678637	0.122719	-0.278166	0.0925632	-0.929293	
0.661085	2.48566	5	0	3.72073	0.735004	0.097966	-1.04821	0	0	0.44283	-0.432408	0.707221	-4.52446	0.242598	-0.77888	-0.011071	-1.07628	0.350994	-1.14197	-0.478672	-1.5348	0.031035	-1.69039	-0.35743	-1.39018	0.098047	-1.4202	0.034138	-0.636331	0.287567	-0.648082	0.136311	-0.261716	0.085997	-0.925003	
0.65916	2.48108	5	0	5.19557	1.41525	0.0955945	-1.04151	0	0	0.449987	-0.422843	3.76109	-5.60313	0.253924	-0.765734	-0.00382675	-1.0668	0.369006	-1.12138	-0.475793	-1.52318	0.0384695	-1.6689	-0.356211	-1.36623	0.0991612	-1.39378	0.041716	-0.611319	0.292535	-0.616913	0.14253	-0.238039	0.0793902	-0.906332	
0.657232	2.48108	5	0	6.67041	2.0955	0.093223	-1.03481	0	0	0.457145	-0.413277	6.81497	-6.6818	0.265249	-0.752588	0.0034175	-1.05733	0.387018	-1.10078	-0.472913	-1.51155	0.045904	-1.64741	-0.354992	-1.34229	0.100275	-1.36736	0.049294	-0.586307	0.297502	-0.585744	0.148749	-0.214362	0.0727835	-0.88766	
0.655508	2.48108	5	0	8.14525	2.77575	0.0908515	-1.02811	0	0	0.464302	-0.403712	9.86884	-7.76047	0.276575	-0.739443	0.0106617	-1.04785	0.405029	-1.08019	-0.470033	-1.49993	0.0533385	-1.62592	-0.353772	-1.31834	0.10139	-1.34095	0.056872	-0.561294	0.30247	-0.554575	0.154968	-0.190685	0.0661768	-0.868988	
0.653754	2.47497	5	0	9.62009	3.456	0.08848	-1.0214	0	0	0.471459	-0.394146	12.9227	-8.83914	0.2879	-0.726297	0.017906	-1.03837	0.423041	-1.05959	-0.467154	-1.4883	0.060773	-1.60444	-0.352553	-1.2944	0.102504	-1.31453	0.06445	-0.536282	0.307437	-0.523406	0.161187	-0.167008	0.05957	-0.850317	
0.651579	2.47803	5	0	11.0549	4.12042	0.0905097	-1.01499	0	0	0.468527	-0.375917	12.4356	-7.46248	0.283161	-0.712904	0.0206348	-1.03608	0.421744	-1.04398	-0.468043	-1.48579	0.0672548	-1.60147	-0.350809	-1.28561	0.10514	-1.30718	0.061936	-0.529178	0.30426	-0.514426	0.160121	-0.163994	0.0373773	-0.858769	
0.648592	2.47955	5	0	12.4897	4.78485	0.0925395	-1.00858	0	0	0.465594	-0.357687	11.9485	-6.08583	0.278422	-0.699512	0.0233635	-1.0338	0.420447	-1.02837	-0.468932	-1.48328	0.0737365	-1.5985	-0.349066	-1.27683	0.107776	-1.29984	0.059422	-0.522073	0.301082	-0.505446	0.159054	-0.160981	0.0151845	-0.86722	
0.6444	2.48108	5	0	13.9246	5.44928	0.0945693	-1.00217	0	0	0.462662	-0.339458	11.4614	-4.70917	0.273683	-0.686119	0.0260922	-1.03152	0.419149	-1.01276	-0.469821	-1.48077	0.0802182	-1.59553	-0.347322	-1.26805	0.110413	-1.29249	0.056908	-0.514968	0.297905	-0.496466	0.157988	-0.157968	-0.00700825	-0.875671	
0.638688	2.48108	5	0	15.3594	6.11371	0.096599	-0.995764	0	0	0.459729	-0.321229	10.9743	-3.33251	0.268944	-0.672727	0.028821	-1.02923	0.417852	-0.997152	-0.47071	-1.47826	0.0867	-1.59256	-0.345578	-1.25927	0.113049	-1.28514	0.054394	-0.507864	0.294727	-0.487486	0.156922	-0.154954	-0.029201	-0.884123	
0.631862	2.48413	5	0	14.6143	5.9574	0.0862553	-0.978677	0	0	0.454086	-0.305281	10.3981	-1.70428	0.267363	-0.668258	0.0131553	-1.01493	0.413715	-0.997404	-0.47071	-1.47826	0.0878055	-1.59569	-0.353031	-1.25192	0.111656	-1.2812	0.054394	-0.507864	0.29058	-0.487078	0.151655	-0.153829	-0.042161	-0.904238	
0.624722	2.48871	5	0	13.8693	5.80108	0.0759115	-0.961589	0	0	0.448443	-0.289334	9.822	-0.0760395	0.265782	-0.66379	-0.0025105	-1.00062	0.409578	-0.997656	-0.47071	-1.47826	0.088911	-1.59881	-0.360484	-1.24456	0.110263	-1.27726	0.054394	-0.507864	0.286433	-0.486671	0.146388	-0.152704	-0.055121	-0.924354	
0.618072	2.49786	5	0	13.1242	5.64477	0.0655678	-0.944502	0	0	0.442801	-0.273386	9.24586	1.5522	0.264201	-0.659321	-0.0181762	-0.986319	0.405441	-0.997908	-0.47071	-1.47826	0.0900165	-1.60194	-0.367937	-1.23721	0.10887	-1.27333	0.054394	-0.507864	0.282286	-0.486263	0.14112	-0.151579	-0.068081	-0.94447	
0.612716	2.50702	5	0	12.3792	5.48846	0.055224	-0.927415	0	0	0.437158	-0.257439	8.66973	3.18044	0.26262	-0.654852	-0.033842	-0.972014	0.401304	-0.99816	-0.47071	-1.47826	0.091122	-1.60506	-0.37539	-1.22986	0.107477	-1.26939	0.054394	-0.507864	0.278139	-0.485855	0.135853	-0.150454	-0.081041	-0.964585	
0.609312	2.51312	5	0	11.3554	5.11267	0.041675	-0.913392	0	0	0.429757	-0.246465	6.5023	2.38533	0.261038	-0.650381	-0.0347787	-0.969367	0.390321	-0.990983	-0.469821	-1.48077	0.0862223	-1.60186	-0.371366	-1.22752	0.0992718	-1.261	0.047265	-0.503206	0.272936	-0.482455	0.129524	-0.146319	-0.0914445	-0.963489	
0.60755	2.5238	5	0	10.3316	4.73687	0.028126	-0.899369	0	0	0.422356	-0.23549	4.33487	1.59022	0.259456	-0.645911	-0.0357155	-0.966719	0.379337	-0.983807	-0.468932	-1.48328	0.0813225	-1.59866	-0.367343	-1.22518	0.0910665	-1.25261	0.040136	-0.498548	0.267733	-0.479055	0.123195	-0.142184	-0.101848	-0.962394	
0.606719	2.53143	5	0	9.30776	4.36108	0.014577	-0.885346	0	0	0.414955	-0.224516	2.16743	0.795109	0.257874	-0.64144	-0.0366522	-0.964072	0.368354	-0.97663	-0.468043	-1.48579	0.0764227	-1.59546	-0.363319	-1.22284	0.0828612	-1.24422	0.033007	-0.493889	0.262529	-0.475655	0.116866	-0.138048	-0.112252	-0.961299	
0.60611	2.54211	5	0	8.28396	3.98529	0.001028	-0.871323	0	0	0.407554	-0.213542	0	0	0.256292	-0.636969	-0.037589	-0.961425	0.357371	-0.969453	-0.467154	-1.4883	0.071523	-1.59225	-0.359295	-1.2205	0.074656	-1.23583	0.025878	-0.489231	0.257326	-0.472255	0.110537	-0.133913	-0.122655	-0.960203	
0.605013	2.54974	5	0	9.18263	4.33986	-0.00180625	-0.887549	-34.315	-1.51781	0.401235	-0.215552	0	0	0.252522	-0.641379	-0.041156	-0.971297	0.358731	-0.973295	-0.477139	-1.47985	0.0719988	-1.58295	-0.367893	-1.20991	0.0760497	-1.23977	0.0246205	-0.485677	0.255207	-0.466265	0.109471	-0.130899	-0.125187	-0.981312	
0.602906	2.55585	5	0	10.0813	4.69442	-0.0046405	-0.903775	-68.6301	-3.03562	0.394917	-0.217561	0	0	0.248753	-0.645788	-0.044723	-0.981168	0.36009	-0.977137	-0.487123	-1.47139	0.0724745	-1.57365	-0.376492	-1.19932	0.0774435	-1.24371	0.023363	-0.482122	0.253088	-0.460275	0.108405	-0.127885	-0.127719	-1.00242	
0.600044	2.56195	5	0	10.98	5.04899	-0.00747475	-0.920001	-102.945	-4.55344	0.388598	-0.219571	0	0	0.244983	-0.650197	-0.04829	-0.99104	0.361449	-0.980979	-0.497107	-1.46294	0.0729503	-1.56435	-0.385091	-1.18873	0.0788372	-1.24765	0.0221055	-0.478568	0.250968	-0.454286	0.107338	-0.124872	-0.13025	-1.02353	
0.596881	2.56805	5	0	11.8786	5.40356	-0.010309	-0.936227	-137.26	-6.07125	0.382279	-0.22158	0	0	0.241213	-0.654607	-0.051857	-1.00091	0.362809	-0.984821	-0.507092	-1.45448	0.073426	-1.55505	-0.393689	-1.17814	0.080231	-1.25159	0.020848	-0.475013	0.248849	-0.448296	0.106272	-0.121858	-0.132782	-1.04464	
0.593871	2.57416	5	0	13.3536	6.0824	-0.00995125	-0.949345	-139.481	-2.74673	0.385908	-0.221906	0	0	0.244373	-0.663538	-0.0535578	-1.01604	0.369658	-0.992248	-0.498991	-1.4675	0.0783288	-1.55825	-0.385091	-1.18873	0.084408	-1.26339	0.0187527	-0.484568	0.247886	-0.456873	0.100021	-0.131662	-0.154775	-1.05295	
0.591465	2.57721	5	0	14.8285	6.76125	-0.0095935	-0.962462	-141.702	0.577794	0.389538	-0.222232	0	0	0.247533	-0.672468	-0.0552585	-1.03116	0.376506	-0.999675	-0.49089	-1.48052	0.0832315	-1.56145	-0.376492	-1.19932	0.088585	-1.2752	0.0166575	-0.494123	0.246923	-0.465451	0.0937695	-0.141466	-0.176768	-1.06127	
0.589895	2.58179	5	0	16.3035	7.44009	-0.00923575	-0.97558	-143.922	3.90231	0.393168	-0.222558	0	0	0.250693	-0.681399	-0.0569592	-1.04629	0.383355	-1.0071	-0.482789	-1.49353	0.0881342	-1.56466	-0.367893	-1.20991	0.092762	-1.287	0.0145623	-0.503678	0.24596	-0.474028	0.0875183	-0.151271	-0.19876	-1.06959	
0.588975	2.58484	5	0	17.7785	8.11893	-0.008878	-0.988697	-146.143	7.22683	0.396797	-0.222884	0	0	0.253853	-0.690329	-0.05866	-1.06141	0.390204	-1.01453	-0.474688	-1.50655	0.093037	-1.56786	-0.359295	-1.2205	0.096939	-1.29881	0.012467	-0.513233	0.244997	-0.482606	0.081267	-0.161075	-0.220753	-1.0779	
0.588471	2.58942	5	0	19.1985	8.76518	-0.01291	-1.00149	-144.671	8.10691	0.400561	-0.233522	0	0	0.249465	-0.708018	-0.0621555	-1.08139	0.38324	-1.03061	-0.476681	-1.52067	0.094768	-1.58341	-0.365056	-1.23163	0.0916697	-1.31348	0.0082705	-0.532287	0.244119	-0.502702	0.0750823	-0.184728	-0.228422	-1.11242	
0.588148	2.58942	5	0	20.6185	9.41144	-0.016942	-1.01429	-143.199	8.98699	0.404325	-0.24416	0	0	0.245078	-0.725707	-0.065651	-1.10137	0.376277	-1.04669	-0.478675	-1.53478	0.096499	-1.59895	-0.370818	-1.24276	0.0864005	-1.32815	0.004074	-0.551342	0.243242	-0.522798	0.0688975	-0.208381	-0.23609	-1.14693	
0.587776	2.59552	5	0	22.0385	10.0577	-0.020974	-1.02708	-141.727	9.86707	0.408089	-0.254798	0	0	0.24069	-0.743397	-0.0691465	-1.12134	0.369313	-1.06277	-0.480668	-1.5489	0.09823	-1.6145	-0.376579	-1.25389	0.0811313	-1.34282	-0.0001225	-0.570396	0.242365	-0.542895	0.0627128	-0.232034	-0.243759	-1.18144	
0.587197	2.59552	5	0	23.4585	10.7039	-0.025006	-1.03987	-140.255	10.7471	0.411853	-0.265436	0	0	0.236302	-0.761086	-0.072642	-1.14132	0.362349	-1.07885	-0.482662	-1.56302	0.099961	-1.63004	-0.38234	-1.26502	0.075862	-1.3575	-0.004319	-0.58945	0.241487	-0.562991	0.056528	-0.255687	-0.251428	-1.21595	
0.586311	2.59704	5	0	24.84	11.3265	-0.0234817	-1.05626	-138.762	11.5729	0.409291	-0.27805	0	0	0.235046	-0.787578	-0.0825033	-1.16311	0.342973	-1.10727	-0.488315	-1.57663	0.100089	-1.65169	-0.380663	-1.28345	0.0705922	-1.37212	0.00231775	-0.623644	0.2448	-0.594903	0.071334	-0.297531	-0.274546	-1.24854	
0.585023	2.60162	5	0	26.2216	11.949	-0.0219575	-1.07265	-137.269	12.3987	0.406728	-0.290664	0	0	0.233791	-0.814071	-0.0923645	-1.18489	0.323596	-1.13569	-0.493968	-1.59024	0.100217	-1.67334	-0.378985	-1.30188	0.0653225	-1.38675	0.0089545	-0.657838	0.248113	-0.626814	0.08614	-0.339374	-0.297665	-1.28112	
0.583235	2.60162	5	0	27.6031	12.5715	-0.0204333	-1.08904	-135.776	13.2245	0.404166	-0.303279	0	0	0.232535	-0.840563	-0.102226	-1.20668	0.30422	-1.1641	-0.49962	-1.60386	0.100345	-1.69498	-0.377308	-1.32031	0.0600528	-1.40137	0.0155913	-0.692031	0.251425	-0.658725	0.100946	-0.381217	-0.320783	-1.3137	
0.580902	2.60315	5	0	28.9846	13.1941	-0.018909	-1.10543	-134.283	14.0503	0.401603	-0.315893	0	0	0.231279	-0.867055	-0.112087	-1.22846	0.284844	-1.19252	-0.505273	-1.61747	0.100473	-1.71663	-0.37563	-1.33874	0.054783	-1.41599	0.022228	-0.726225	0.254738	-0.690637	0.115752	-0.423061	-0.343902	-1.34629	
0.578246	2.60162	5	0	30.2695	13.7436	-0.0141945	-1.11876	-132.669	14.5276	0.396348	-0.330787	0	0	0.220896	-0.897649	-0.123726	-1.25498	0.253178	-1.23299	-0.510042	-1.63353	0.0849335	-1.74703	-0.383142	-1.35852	0.048256	-1.44174	0.0133885	-0.74748	0.242479	-0.712245	0.095878	-0.435245	-0.352867	-1.37667	
0.575591	2.60162	5	0	31.5544	14.2931	-0.00948	-1.13208	-131.055	15.005	0.391093	-0.345681	0	0	0.210514	-0.928244	-0.135365	-1.2815	0.221513	-1.27346	-0.514812	-1.64959	0.069394	-1.77742	-0.390655	-1.3783	0.041729	-1.46748	0.004549	-0.768734	0.23022	-0.733853	0.076004	-0.44743	-0.361831	-1.40706	
0.573255	2.59857	5	0	32.8393	14.8426	-0.0047655	-1.14541	-129.441	15.4824	0.385838	-0.360575	0	0	0.200131	-0.958839	-0.147004	-1.30802	0.189847	-1.31393	-0.519582	-1.66565	0.0538545	-1.80782	-0.398168	-1.39808	0.035202	-1.49322	-0.0042905	-0.789989	0.217961	-0.755462	0.05613	-0.459614	-0.370796	-1.43745	
0.571556	2.59704	5	0	34.1242	15.3921	-5.1E-05	-1.15873	-127.827	15.9597	0.380583	-0.375469	0	0	0.189748	-0.989433	-0.158643	-1.33454	0.158181	-1.35439	-0.524351	-1.68172	0.038315	-1.83821	-0.40568	-1.41786	0.028675	-1.51897	-0.01313	-0.811244	0.205702	-0.77707	0.036256	-0.471798	-0.379761	-1.46784	
0.570611	2.59094	5	0	31.2217	14.5049	-0.00292875	-1.17474	-126.353	16.9716	0.372642	-0.392615	0	0	0.181569	-1.01115	-0.164867	-1.35645	0.138869	-1.39377	-0.52548	-1.69819	0.0319395	-1.86252	-0.408049	-1.43845	0.0261487	-1.54123	-0.0102942	-0.834645	0.203727	-0.793943	0.039425	-0.494394	-0.383609	-1.48476	
0.570206	2.59552	5	0	28.3192	13.6176	-0.0058065	-1.19075	-124.879	17.9834	0.364702	-0.409761	0	0	0.173391	-1.03286	-0.171091	-1.37836	0.119558	-1.43314	-0.526609	-1.71467	0.025564	-1.88684	-0.410417	-1.45905	0.0236225	-1.56349	-0.0074585	-0.858046	0.201753	-0.810816	0.042594	-0.516991	-0.387458	-1.50169	
0.570096	2.58942	5	0	25.4166	12.7304	-0.00868425	-1.20676	-123.404	18.9953	0.356762	-0.426907	0	0	0.165213	-1.05457	-0.177314	-1.40028	0.100247	-1.47251	-0.527738	-1.73115	0.0191885	-1.91115	-0.412786	-1.47965	0.0210963	-1.58575	-0.00462275	-0.881447	0.199778	-0.827689	0.045763	-0.539587	-0.391306	-1.51861	
0.570035	2.58789	5	0	22.5141	11.8431	-0.011562	-1.22277	-121.93	20.0072	0.348821	-0.444053	0	0	0.157034	-1.07629	-0.183538	-1.42219	0.080935	-1.51189	-0.528867	-1.74762	0.012813	-1.93546	-0.415155	-1.50024	0.01857	-1.60801	-0.001787	-0.904848	0.197803	-0.844562	0.048932	-0.562183	-0.395154	-1.53553	
0.569805	2.58789	5	0	20.4317	10.8443	-0.0132752	-1.24204	-120.475	20.7819	0.348111	-0.461809	0	0	0.152615	-1.09362	-0.193384	-1.44363	0.0684508	-1.54676	-0.532639	-1.75661	0.006938	-1.95054	-0.41578	-1.5121	0.0173005	-1.61911	-0.0063885	-0.907218	0.200932	-0.853406	0.0478947	-0.572882	-0.391328	-1.54635	
0.569388	2.58331	5	0	18.3493	9.84549	-0.0149885	-1.26131	-119.02	21.5567	0.347401	-0.479564	0	0	0.148196	-1.11096	-0.20323	-1.46506	0.0559665	-1.58163	-0.536411	-1.7656	0.001063	-1.96563	-0.416405	-1.52397	0.016031	-1.6302	-0.01099	-0.909588	0.204062	-0.86225	0.0468575	-0.583581	-0.387501	-1.55716	
0.568875	2.58179	5	0	16.2669	8.84667	-0.0167018	-1.28058	-117.565	22.3315	0.346691	-0.49732	0	0	0.143776	-1.12829	-0.213075	-1.4865	0.0434823	-1.6165	-0.540182	-1.77459	-0.004812	-1.98071	-0.417031	-1.53583	0.0147615	-1.6413	-0.0155915	-0.911958	0.207191	-0.871093	0.0458203	-0.59428	-0.383675	-1.56797	
0.568355	2.57568	5	0	14.1845	7.84786	-0.018415	-1.29984	-116.11	23.1062	0.345981	-0.515076	0	0	0.139357	-1.14563	-0.222921	-1.50794	0.030998	-1.65137	-0.543954	-1.78358	-0.010687	-1.99579	-0.417656	-1.54769	0.013492	-1.6524	-0.020193	-0.914328	0.21032	-0.879937	0.044783	-0.604979	-0.379849	-1.57879	
0.567921	2.56805	5	0	13.0174	7.22148	-0.0169385	-1.31606	-118.184	0.884413	0.353318	-0.525933	-25.2958	-16.3494	0.140237	-1.16301	-0.225543	-1.53002	0.025294	-1.68187	-0.544086	-1.79302	-0.0079425	-2.0141	-0.417161	-1.56271	0.0122185	-1.66347	-0.0177202	-0.921316	0.211362	-0.882883	0.046875	-0.610891	-0.378574	-1.58239	
0.56762	2.56958	5	0	11.8504	6.59511	-0.015462	-1.33228	-120.258	-21.3374	0.360655	-0.53679	-50.5915	-32.6988	0.141118	-1.18039	-0.228164	-1.55211	0.01959	-1.71237	-0.544218	-1.80246	-0.005198	-2.0324	-0.416666	-1.57773	0.010945	-1.67454	-0.0152475	-0.928303	0.212404	-0.885828	0.048967	-0.616804	-0.3773	-1.58599	
0.567413	2.56348	5	0	10.6834	5.96873	-0.0139855	-1.34849	-122.332	-43.5592	0.367992	-0.547646	-75.8873	-49.0481	0.141998	-1.19778	-0.230786	-1.57419	0.013886	-1.74287	-0.54435	-1.8119	-0.0024535	-2.05071	-0.41617	-1.59275	0.0096715	-1.68561	-0.0127747	-0.935291	0.213447	-0.888774	0.051059	-0.622716	-0.376026	-1.58959	
0.567247	2.56195	5	0	9.51638	5.34236	-0.012509	-1.36471	-124.406	-65.7811	0.375329	-0.558503	-101.183	-65.3975	0.142878	-1.21516	-0.233407	-1.59628	0.008182	-1.77338	-0.544482	-1.82135	0.000291	-2.06901	-0.415675	-1.60777	0.008398	-1.69668	-0.010302	-0.942279	0.214489	-0.89172	0.053151	-0.628628	-0.374751	-1.59319	
0.567069	2.5589	5	0	8.77109	4.91656	-0.009005	-1.37461	-124.449	-66.4019	0.378117	-0.566382	-100.632	-69.4287	0.154365	-1.23273	-0.23877	-1.61057	0.00793225	-1.79594	-0.542867	-1.83572	0.00085575	-2.08115	-0.421449	-1.61867	0.0111337	-1.70442	-0.0090665	-0.945771	0.216573	-0.897609	0.0562865	-0.637489	-0.388801	-1.58125	
0.566834	2.55432	5	0	8.02581	4.49077	-0.005501	-1.38451	-124.491	-67.0227	0.380904	-0.574261	-100.08	-73.46	0.165853	-1.2503	-0.244134	-1.62486	0.0076825	-1.8185	-0.541253	-1.85009	0.0014205	-2.09329	-0.427223	-1.62956	0.0138695	-1.71215	-0.007831	-0.949263	0.218657	-0.903498	0.059422	-0.646351	-0.402851	-1.5693	
0.566555	2.54822	5	0	7.28053	4.06497	-0.001997	-1.39442	-124.534	-67.6435	0.383692	-0.582139	-99.5287	-77.4912	0.177341	-1.26787	-0.249497	-1.63915	0.00743275	-1.84106	-0.539638	-1.86447	0.00198525	-2.10543	-0.432996	-1.64045	0.0166053	-1.71988	-0.0065955	-0.952755	0.22074	-0.909387	0.0625575	-0.655212	-0.416901	-1.55735	
0.566287	2.55279	5	0	6.53524	3.63918	0.001507	-1.40432	-124.576	-68.2643	0.38648	-0.590018	-98.9772	-81.5224	0.188828	-1.28544	-0.25486	-1.65344	0.007183	-1.86362	-0.538023	-1.87884	0.00255	-2.11757	-0.43877	-1.65134	0.019341	-1.72761	-0.00536	-0.956247	0.222824	-0.915276	0.065693	-0.664073	-0.430951	-1.5454	
0.566083	2.54211	5	0	6.03853	3.3132	0.001507	-1.40432	-126.835	-70.2527	0.392886	-0.598239	-102.287	-81.4193	0.195689	-1.28993	-0.251227	-1.6637	0.00430925	-1.87874	-0.529137	-1.89415	0.00903875	-2.13591	-0.426897	-1.6713	0.0288272	-1.73975	0.00081075	-0.973686	0.218745	-0.926175	0.0615062	-0.67947	-0.432237	-1.55563	
0.565997	2.54211	5	0	5.54183	2.98721	0.001507	-1.40432	-129.093	-72.241	0.399292	-0.60646	-105.597	-81.3162	0.202549	-1.29441	-0.247593	-1.67397	0.0014355	-1.89386	-0.52025	-1.90945	0.0155275	-2.15425	-0.415023	-1.69125	0.0383135	-1.75189	0.0069815	-0.991125	0.214666	-0.937074	0.0573195	-0.694868	-0.433523	-1.56585	
0.566029	2.53906	5	0	5.04512	2.66123	0.001507	-1.40432	-131.351	-74.2293	0.405698	-0.614681	-108.907	-81.213	0.20941	-1.29889	-0.24396	-1.68424	-0.00143825	-1.90897	-0.511363	-1.92475	0.0220162	-2.17259	-0.40315	-1.71121	0.0477997	-1.76402	0.0131523	-1.00856	0.210587	-0.947973	0.0531328	-0.710265	-0.434809	-1.57608	
0.566038	2.53448	5	0	4.54841	2.33525	0.001507	-1.40432	-133.609	-76.2177	0.412104	-0.622902	-112.216	-81.1099	0.216271	-1.30337	-0.240327	-1.69451	-0.004312	-1.92409	-0.502477	-1.94006	0.028505	-2.19092	-0.391277	-1.73117	0.057286	-1.77616	0.019323	-1.026	0.206508	-0.958872	0.048946	-0.725663	-0.436095	-1.58631	
0.565859	2.52991	5	0	4.17719	2.11394	0.0125967	-1.41157	-133.249	-76.1509	0.415815	-0.63339	-112.219	-80.2556	0.210953	-1.30325	-0.240327	-1.69451	-0.0112295	-1.93934	-0.5035	-1.94698	0.0285157	-2.21202	-0.393053	-1.73975	0.0532645	-1.77947	0.0171808	-1.03531	0.203466	-0.972676	0.043716	-0.738073	-0.451406	-1.59839	
0.565326	2.53143	5	0	3.80598	1.89263	0.0236865	-1.41881	-132.889	-76.0842	0.419527	-0.643878	-112.222	-79.4013	0.205635	-1.30313	-0.240327	-1.69451	-0.018147	-1.9546	-0.504522	-1.9539	0.0285265	-2.23312	-0.394829	-1.74833	0.049243	-1.78277	0.0150385	-1.04462	0.200425	-0.986479	0.038486	-0.750483	-0.466716	-1.61048	
0.564292	2.52838	5	0	3.43476	1.67132	0.0347763	-1.42606	-132.529	-76.0175	0.423238	-0.654366	-112.225	-78.547	0.200317	-1.303	-0.240327	-1.69451	-0.0250645	-1.96985	-0.505545	-1.96082	0.0285373	-2.25422	-0.396604	-1.75691	0.0452215	-1.78608	0.0128962	-1.05393	0.197383	-1.00028	0.033256	-0.762894	-0.482026	-1.62256	
0.562856	2.52228	5	0	3.06355	1.45	0.045866	-1.43331	-132.169	-75.9507	0.426949	-0.664854	-112.228	-77.6927	0.194999	-1.30288	-0.240327	-1.69451	-0.031982	-1.98511	-0.506568	-1.96774	0.028548	-2.27532	-0.39838	-1.76549	0.0412	-1.78939	0.010754	-1.06323	0.194341	-1.01409	0.028026	-0.775304	-0.497337	-1.63464	
0.561292	2.52075	5	0	2.80339	1.27875	0.0379837	-1.42308	-130.677	-75.1765	0.428803	-0.670093	-110.768	-76.8946	0.200317	-1.303	-0.238536	-1.68976	-0.0347192	-1.98896	-0.502053	-1.97069	0.0307012	-2.28141	-0.39212	-1.76958	0.0412	-1.78939	0.0049205	-1.06209	0.186117	-1.01322	0.0290653	-0.778241	-0.503694	-1.63048	
0.559876	2.5177	5	0	2.54323	1.1075	0.0301015	-1.41286	-129.186	-74.4023	0.430656	-0.675333	-109.307	-76.0966	0.205635	-1.30313	-0.236745	-1.68501	-0.0374565	-1.99281	-0.497537	-1.97364	0.0328545	-2.2875	-0.385861	-1.77367	0.0412	-1.78939	-0.000913	-1.06096	0.177894	-1.01235	0.0301045	-0.781178	-0.510051	-1.62633	
0.558888	2.51617	5	0	2.28307	0.936247	0.0222193	-1.40263	-127.694	-73.6281	0.43251	-0.680573	-107.847	-75.2985	0.210953	-1.30325	-0.234955	-1.68026	-0.0401938	-1.99666	-0.493022	-1.97659	0.0350077	-2.29358	-0.379602	-1.77776	0.0412	-1.78939	-0.0067465	-1.05982	0.16967	-1.01148	0.0311438	-0.784116	-0.516409	-1.62218	
0.558482	2.51312	5	0	2.02292	0.764994	0.014337	-1.39241	-126.202	-72.8538	0.434364	-0.685812	-106.387	-74.5005	0.216271	-1.30337	-0.233164	-1.67551	-0.042931	-2.00051	-0.488506	-1.97954	0.037161	-2.29967	-0.373342	-1.78185	0.0412	-1.78939	-0.01258	-1.05868	0.161446	-1.01061	0.032183	-0.787053	-0.522766	-1.61802	
0.558498	2.51312	5	0	1.83101	0.644462	0.0242658	-1.39635	-124.669	-72.1185	0.431668	-0.688076	-104.981	-73.6895	0.22005	-1.29914	-0.227763	-1.67114	-0.042931	-2.00051	-0.481214	-1.98051	0.0436277	-2.29687	-0.369319	-1.77961	0.0492458	-1.78277	-0.0067465	-1.05982	0.159373	-1.00475	0.036359	-0.785265	-0.521487	-1.60782	
0.558726	2.51312	5	0	1.63909	0.523929	0.0341945	-1.4003	-123.136	-71.3832	0.428972	-0.690339	-103.576	-72.8786	0.223828	-1.2949	-0.222361	-1.66677	-0.042931	-2.00051	-0.473922	-1.98149	0.0500945	-2.29408	-0.365296	-1.77737	0.0572915	-1.77616	-0.000913	-1.06096	0.157299	-0.998893	0.040535	-0.783477	-0.520208	-1.59763	
0.558959	2.5116	5	0	1.44718	0.403397	0.0441233	-1.40425	-121.603	-70.6479	0.426276	-0.692603	-102.171	-72.0676	0.227607	-1.29066	-0.216959	-1.6624	-0.042931	-2.00051	-0.46663	-1.98246	0.0565613	-2.29129	-0.361273	-1.77513	0.0653372	-1.76954	0.0049205	-1.06209	0.155226	-0.993033	0.044711	-0.781688	-0.51893	-1.58743	
0.559019	2.50854	5	0	1.25527	0.282865	0.054052	-1.4082	-120.069	-69.9125	0.42358	-0.694867	-100.765	-71.2566	0.231386	-1.28642	-0.211558	-1.65803	-0.042931	-2.00051	-0.459338	-1.98343	0.063028	-2.28849	-0.35725	-1.77289	0.073383	-1.76292	0.010754	-1.06323	0.153152	-0.987173	0.048887	-0.7799	-0.517651	-1.57723	
0.559094	2.50549	5	0	1.12669	0.174685	0.0385803	-1.40063	-122.975	-71.6707	0.429055	-0.700457	-104.287	-71.0427	0.240498	-1.2823	-0.209765	-1.65327	-0.0348575	-2.00014	-0.446477	-1.98044	0.0711237	-2.27972	-0.350318	-1.76523	0.0733022	-1.748	0.00705875	-1.05279	0.155187	-0.981739	0.0447253	-0.768138	-0.517648	-1.56341	
0.559599	2.50702	5	0	0.998115	0.066506	0.0231085	-1.39306	-125.88	-73.4288	0.43453	-0.706046	-107.809	-70.8288	0.249611	-1.27818	-0.207973	-1.64851	-0.026784	-1.99978	-0.433616	-1.97745	0.0792195	-2.27095	-0.343386	-1.75757	0.0732215	-1.73308	0.0033635	-1.04235	0.157221	-0.976305	0.0405635	-0.756376	-0.517646	-1.5496	
0.560952	2.51007	5	0	0.869538	-0.0416735	0.00763675	-1.38549	-128.785	-75.187	0.440004	-0.711635	-111.331	-70.6149	0.258723	-1.27406	-0.20618	-1.64374	-0.0187105	-1.99942	-0.420755	-1.97446	0.0873152	-2.26218	-0.336453	-1.74991	0.0731408	-1.71815	-0.00033175	-1.0319	0.159255	-0.970871	0.0364017	-0.744613	-0.517644	-1.53578	
0.563571	2.50702	5	0	0.74096	-0.149853	-0.007835	-1.37792	-131.69	-76.9451	0.445479	-0.717225	-114.854	-70.4009	0.267835	-1.26994	-0.204388	-1.63898	-0.010637	-1.99905	-0.407894	-1.97147	0.095411	-2.25341	-0.329521	-1.74226	0.07306	-1.70323	-0.004027	-1.02146	0.16129	-0.965437	0.03224	-0.732851	-0.517641	-1.52197	
0.56763	2.51007	5	0	0.636649	-0.23219	-0.013075	-1.38717	-133.795	-78.4449	0.440085	-0.721742	-117.415	-70.8212	0.26474	-1.26119	-0.200773	-1.63937	-0.0172718	-1.9919	-0.399542	-1.96552	0.101354	-2.23851	-0.317418	-1.73551	0.0797435	-1.69269	0.003043	-1.02608	0.158174	-0.956631	0.034332	-0.725163	-0.525289	-1.50035	
0.572733	2.50854	5	0	0.532339	-0.314528	-0.018315	-1.39643	-135.899	-79.9446	0.434691	-0.72626	-119.976	-71.2415	0.261645	-1.25244	-0.197159	-1.63975	-0.0239065	-1.98474	-0.391191	-1.95957	0.107296	-2.2236	-0.305316	-1.72876	0.086427	-1.68216	0.010113	-1.0307	0.155058	-0.947825	0.036424	-0.717475	-0.532938	-1.47874	
0.578398	2.51007	5	0	0.428028	-0.396865	-0.023555	-1.40568	-138.003	-81.4443	0.429297	-0.730777	-122.537	-71.6619	0.25855	-1.2437	-0.193544	-1.64013	-0.0305412	-1.97758	-0.382839	-1.95361	0.113239	-2.20869	-0.293214	-1.72202	0.0931105	-1.67162	0.017183	-1.03532	0.151942	-0.93902	0.038516	-0.709788	-0.540586	-1.45712	
0.584142	2.51007	5	0	0.323718	-0.479203	-0.028795	-1.41494	-140.108	-82.944	0.423903	-0.735294	-125.098	-72.0822	0.255455	-1.23495	-0.18993	-1.64052	-0.037176	-1.97043	-0.374488	-1.94766	0.119182	-2.19378	-0.281111	-1.71527	0.099794	-1.66109	0.024253	-1.03994	0.148826	-0.930214	0.040608	-0.7021	-0.548234	-1.43551	
0.589501	2.51007	5	0	0.253365	-0.554892	-0.0308313	-1.4212	-141.31	-83.8036	0.422132	-0.740162	-126.528	-72.4254	0.260789	-1.23507	-0.190841	-1.63794	-0.033139	-1.97024	-0.367879	-1.93673	0.12404	-2.17575	-0.282706	-1.69709	0.0996992	-1.64609	0.0217873	-1.03297	0.148776	-0.918883	0.0468792	-0.692593	-0.544443	-1.41855	
0.594462	2.50702	5	0	0.183012	-0.630581	-0.0328675	-1.42747	-142.513	-84.6632	0.420361	-0.74503	-127.957	-72.7686	0.266123	-1.23519	-0.191751	-1.63537	-0.029102	-1.97006	-0.36127	-1.9258	0.128898	-2.15773	-0.284302	-1.67891	0.0996045	-1.63109	0.0193215	-1.026	0.148727	-0.907553	0.0531505	-0.683086	-0.540652	-1.40159	
0.599485	2.50549	5	0	0.112659	-0.70627	-0.0349037	-1.43374	-143.715	-85.5227	0.41859	-0.749898	-129.387	-73.1119	0.271457	-1.23531	-0.192662	-1.6328	-0.025065	-1.96987	-0.354662	-1.91488	0.133757	-2.1397	-0.285898	-1.66073	0.0995098	-1.61609	0.0168557	-1.01903	0.148677	-0.896223	0.0594218	-0.67358	-0.53686	-1.38462	
0.605052	2.50549	5	0	0.042306	-0.781959	-0.03694	-1.44	-144.918	-86.3823	0.416819	-0.754766	-130.817	-73.4551	0.276791	-1.23543	-0.193573	-1.63022	-0.021028	-1.96969	-0.348053	-1.90395	0.138615	-2.12167	-0.287493	-1.64255	0.099415	-1.6011	0.01439	-1.01206	0.148627	-0.884892	0.065693	-0.664073	-0.533069	-1.36766	
0.611648	2.50702	5	0	0.00027475	-0.825961	-0.03694	-1.44	-144.13	-85.9915	0.422287	-0.760346	-130.094	-72.9306	0.279888	-1.24418	-0.192662	-1.6328	-0.0143895	-1.97685	-0.348779	-1.89202	0.141851	-2.10962	-0.285712	-1.6339	0.102068	-1.59385	0.0131562	-1.00858	0.139311	-0.869753	0.0646455	-0.647482	-0.538233	-1.33922	
0.619717	2.50549	5	0	-0.0417565	-0.869962	-0.03694	-1.44	-143.342	-85.6006	0.427755	-0.765926	-129.372	-72.4061	0.282984	-1.25293	-0.191751	-1.63537	-0.007751	-1.98401	-0.349505	-1.88009	0.145087	-2.09756	-0.283932	-1.62525	0.104721	-1.58661	0.0119225	-1.00509	0.129995	-0.854614	0.063598	-0.630891	-0.543397	-1.31077	
0.629029	2.50397	5	0	-0.0837877	-0.913964	-0.03694	-1.44	-142.554	-85.2098	0.433223	-0.771507	-128.65	-71.8815	0.286081	-1.26168	-0.190841	-1.63794	-0.0011125	-1.99117	-0.350231	-1.86816	0.148323	-2.0855	-0.282151	-1.61661	0.107374	-1.57937	0.0106888	-1.0016	0.120678	-0.839474	0.0625505	-0.614301	-0.54856	-1.28232	
0.638779	2.50702	5	0	-0.125819	-0.957966	-0.03694	-1.44	-141.767	-84.8189	0.438691	-0.777087	-127.927	-71.357	0.289177	-1.27044	-0.18993	-1.64052	0.005526	-1.99833	-0.350957	-1.85623	0.151559	-2.07345	-0.280371	-1.60796	0.110027	-1.57212	0.009455	-0.998117	0.111362	-0.824335	0.061503	-0.59771	-0.553724	-1.25388	
0.648144	2.50244	5	0	-0.162153	-0.989859	-0.0273282	-1.43108	-140.351	-83.968	0.439615	-0.779697	-126.564	-70.4556	0.281601	-1.27892	-0.18993	-1.64052	-0.006733	-2.01004	-0.345529	-1.86169	0.151028	-2.08255	-0.279241	-1.61115	0.100595	-1.57494	0.00361875	-0.996984	0.100029	-0.814665	0.0510388	-0.581766	-0.576694	-1.23049	
0.656297	2.51007	5	0	-0.198487	-1.02175	-0.0177165	-1.42216	-138.936	-83.1171	0.440538	-0.782307	-125.202	-69.5541	0.274025	-1.28741	-0.18993	-1.64052	-0.018992	-2.02176	-0.340101	-1.86715	0.150497	-2.09166	-0.278112	-1.61434	0.0911625	-1.57775	-0.0022175	-0.99585	0.088695	-0.804995	0.0405745	-0.565823	-0.599664	-1.2071	
0.66242	2.51465	5	0	-0.234821	-1.05365	-0.00810475	-1.41324	-137.52	-82.2661	0.441461	-0.784917	-123.839	-68.6527	0.266449	-1.29589	-0.18993	-1.64052	-0.031251	-2.03347	-0.334672	-1.8726	0.149966	-2.10076	-0.276983	-1.61753	0.0817303	-1.58056	-0.00805375	-0.994717	0.0773615	-0.795324	0.0301102	-0.549879	-0.622633	-1.18372	
0.666076	2.5238	5	0	-0.271155	-1.08554	0.001507	-1.40432	-136.105	-81.4152	0.442385	-0.787527	-122.476	-67.7513	0.258873	-1.30438	-0.18993	-1.64052	-0.04351	-2.04519	-0.329244	-1.87806	0.149435	-2.10986	-0.275853	-1.62073	0.072298	-1.58338	-0.01389	-0.993584	0.066028	-0.785654	0.019646	-0.533936	-0.645603	-1.16033	
0.66753	2.53296	5	0	-0.304199	-1.09912	0.00090175	-1.37851	-134.657	-80.5842	0.438689	-0.777082	-121.087	-66.9226	0.274177	-1.31773	-0.184518	-1.63614	-0.04351	-2.04519	-0.327331	-1.87358	0.153229	-2.10998	-0.276983	-1.61753	0.0804533	-1.5917	-0.0151238	-0.990098	0.0536635	-0.773043	0.0217227	-0.526175	-0.65204	-1.14214	
0.667122	2.54516	5	0	-0.337244	-1.1127	0.0002965	-1.35271	-133.21	-79.7532	0.434993	-0.766637	-119.698	-66.0939	0.289481	-1.33109	-0.179105	-1.63175	-0.04351	-2.04519	-0.325419	-1.86909	0.157023	-2.1101	-0.278112	-1.61434	0.0886085	-1.60001	-0.0163575	-0.986611	0.041299	-0.760431	0.0237995	-0.518415	-0.658477	-1.12394	
0.665194	2.5589	5	0	-0.370289	-1.12628	-0.00030875	-1.3269	-131.762	-78.9222	0.431297	-0.756192	-118.308	-65.2652	0.304785	-1.34444	-0.173693	-1.62737	-0.04351	-2.04519	-0.323506	-1.86461	0.160816	-2.11021	-0.279241	-1.61115	0.0967637	-1.60833	-0.0175913	-0.983124	0.0289345	-0.74782	0.0258762	-0.510654	-0.664914	-1.10575	
0.662086	2.57721	5	0	-0.403333	-1.13985	-0.000914	-1.3011	-130.314	-78.0912	0.427601	-0.745747	-116.919	-64.4365	0.320089	-1.3578	-0.168281	-1.62299	-0.04351	-2.04519	-0.321594	-1.86013	0.16461	-2.11033	-0.280371	-1.60796	0.104919	-1.61665	-0.018825	-0.979638	0.01657	-0.735209	0.027953	-0.502893	-0.671351	-1.08756	
0.658178	2.59399	5	0	-0.424747	-1.14588	0.0016565	-1.27216	-128.872	-77.2372	0.428365	-0.728144	-115.475	-63.6745	0.322343	-1.3492	-0.155613	-1.61937	-0.0313993	-2.04465	-0.312328	-1.85662	0.168939	-2.10134	-0.272287	-1.60341	0.103543	-1.61276	-0.0250005	-0.962185	0.0154423	-0.720859	0.0310507	-0.484357	-0.671527	-1.05939	
0.654021	2.60773	5	0	-0.446161	-1.1519	0.004227	-1.24322	-127.431	-76.3832	0.429129	-0.710541	-114.031	-62.9125	0.324597	-1.3406	-0.142946	-1.61575	-0.0192885	-2.04412	-0.303063	-1.8531	0.173268	-2.09235	-0.264203	-1.59887	0.102167	-1.60887	-0.031176	-0.944732	0.0143145	-0.706508	0.0341485	-0.465822	-0.671703	-1.03121	
0.650212	2.62298	5	0	-0.467575	-1.15793	0.0067975	-1.21429	-125.989	-75.5292	0.429893	-0.692937	-112.588	-62.1505	0.32685	-1.33201	-0.130278	-1.61213	-0.00717775	-2.04359	-0.293797	-1.84959	0.177598	-2.08336	-0.256118	-1.59433	0.100791	-1.60499	-0.0373515	-0.92728	0.0131868	-0.692157	0.0372462	-0.447287	-0.671879	-1.00304	
0.647348	2.63367	5	0	-0.488989	-1.16395	0.009368	-1.18535	-124.547	-74.6752	0.430657	-0.675334	-111.144	-61.3886	0.329104	-1.32341	-0.11761	-1.60851	0.004933	-2.04305	-0.284531	-1.84608	0.181927	-2.07437	-0.248034	-1.58978	0.099415	-1.6011	-0.043527	-0.909827	0.012059	-0.677807	0.040344	-0.428751	-0.672055	-0.974867	
0.646027	2.64435	5	0	-0.510321	-1.16997	0.00111875	-1.16204	-128.434	-70.4359	0.426855	-0.654699	-109.645	-60.6499	0.335158	-1.31055	-0.114924	-1.59637	0.0172207	-2.03133	-0.273178	-1.82856	0.184601	-2.05004	-0.245608	-1.56921	0.10196	-1.5788	-0.0346865	-0.88869	0.021025	-0.64723	0.0570495	-0.407562	-0.660789	-0.951232	
0.646722	2.6474	5	0	-0.531653	-1.17599	-0.0071305	-1.13872	-132.321	-66.1965	0.423052	-0.634065	-108.147	-59.9113	0.341212	-1.29769	-0.112238	-1.58422	0.0295085	-2.01961	-0.261825	-1.81105	0.187275	-2.02572	-0.243182	-1.54863	0.104505	-1.55649	-0.025846	-0.867552	0.029991	-0.616653	0.073755	-0.386373	-0.649523	-0.927596	
0.649019	2.6535	5	0	-0.552985	-1.18201	-0.0153797	-1.11541	-136.208	-61.9572	0.41925	-0.61343	-106.648	-59.1727	0.347265	-1.28483	-0.109551	-1.57207	0.0417963	-2.00789	-0.250472	-1.79353	0.189949	-2.00139	-0.240756	-1.52806	0.10705	-1.53419	-0.0170055	-0.846415	0.038957	-0.586077	0.0904605	-0.365184	-0.638257	-0.903961	
0.652111	2.66113	5	0	-0.574317	-1.18803	-0.023629	-1.0921	-140.096	-57.7178	0.415448	-0.592796	-105.149	-58.4341	0.353319	-1.27197	-0.106865	-1.55992	0.054084	-1.99617	-0.239119	-1.77601	0.192623	-1.97706	-0.23833	-1.50749	0.109595	-1.51189	-0.008165	-0.825277	0.047923	-0.5555	0.107166	-0.343995	-0.626991	-0.880325	
0.655193	2.66876	5	0	-0.611518	-1.09613	-0.0251555	-1.0757	-139.92	-56.1155	0.423535	-0.585954	-103.697	-57.7336	0.351769	-1.26759	-0.0977695	-1.56586	0.0581363	-1.996	-0.23543	-1.7765	0.19153	-1.97397	-0.23833	-1.50749	0.115009	-1.51243	-0.0097775	-0.80532	0.0436073	-0.5321	0.101818	-0.31517	-0.622123	-0.852369	
0.657458	2.67029	5	0	-0.648718	-1.00423	-0.026682	-1.0593	-139.744	-54.5132	0.431623	-0.579111	-102.244	-57.033	0.350219	-1.26321	-0.088674	-1.5718	0.0621885	-1.99582	-0.231741	-1.77699	0.190437	-1.97088	-0.23833	-1.50749	0.120424	-1.51296	-0.01139	-0.785364	0.0392915	-0.508699	0.0964695	-0.286345	-0.617255	-0.824412	
0.658134	2.67029	5	0	-0.685919	-0.912324	-0.0282085	-1.0429	-139.568	-52.9109	0.43971	-0.572268	-100.792	-56.3325	0.348669	-1.25883	-0.0795785	-1.57775	0.0662408	-1.99564	-0.228053	-1.77748	0.189343	-1.96779	-0.23833	-1.50749	0.125838	-1.5135	-0.0130025	-0.765408	0.0349757	-0.485299	0.0911213	-0.257519	-0.612387	-0.796456	
0.657117	2.67181	5	0	-0.72312	-0.820422	-0.029735	-1.02651	-139.393	-51.3087	0.447797	-0.565426	-99.3394	-55.632	0.347119	-1.25445	-0.070483	-1.58369	0.070293	-1.99546	-0.224364	-1.77797	0.18825	-1.9647	-0.23833	-1.50749	0.131252	-1.51404	-0.014615	-0.745451	0.03066	-0.461899	0.085773	-0.228694	-0.607519	-0.7685	
0.654891	2.67029	5	0	-0.762514	-0.695855	-0.031274	-1.01007	-137.988	-50.5089	0.450397	-0.55295	-97.9342	-54.9124	0.362484	-1.26786	-0.066847	-1.58408	0.0782497	-2.00631	-0.221711	-1.78546	0.194804	-1.98323	-0.228607	-1.52123	0.131252	-1.51404	-0.014615	-0.745451	0.0203505	-0.455163	0.0794627	-0.224571	-0.609894	-0.789607	
0.651964	2.67029	5	0	-0.801909	-0.571287	-0.032813	-0.993627	-136.584	-49.7092	0.452997	-0.540474	-96.529	-54.1927	0.37785	-1.28126	-0.063211	-1.58447	0.0862065	-2.01716	-0.219058	-1.79296	0.201357	-2.00175	-0.218884	-1.53498	0.131252	-1.51404	-0.014615	-0.745451	0.010041	-0.448426	0.0731525	-0.220448	-0.61227	-0.810715	
0.648843	2.67181	5	0	-0.841303	-0.446719	-0.034352	-0.977187	-135.179	-48.9094	0.455598	-0.527998	-95.1238	-53.4731	0.393216	-1.29467	-0.059575	-1.58485	0.0941633	-2.02801	-0.216406	-1.80046	0.207911	-2.02027	-0.209161	-1.54873	0.131252	-1.51404	-0.014615	-0.745451	-0.0002685	-0.441689	0.0668423	-0.216324	-0.614645	-0.831822	
0.646029	2.67029	5	0	-0.880698	-0.322152	-0.035891	-0.960747	-133.775	-48.1097	0.458198	-0.515522	-93.7186	-52.7534	0.408581	-1.30808	-0.055939	-1.58524	0.10212	-2.03886	-0.213753	-1.80795	0.214465	-2.03879	-0.199438	-1.56248	0.131252	-1.51404	-0.014615	-0.745451	-0.010578	-0.434953	0.060532	-0.212201	-0.61702	-0.852929	
0.643749	2.66571	5	0	-0.866881	-0.374433	-0.021904	-0.951836	-132.343	-47.2988	0.454464	-0.504969	-92.3341	-51.9594	0.411679	-1.31684	-0.0486603	-1.58602	0.0992008	-2.05388	-0.21391	-1.81745	0.21177	-2.06306	-0.206408	-1.57023	0.129978	-1.5252	-0.0204583	-0.744336	-0.0104625	-0.446469	0.060591	-0.226068	-0.624499	-0.873445	
0.641841	2.67029	5	0	-0.853065	-0.426715	-0.007917	-0.942924	-130.912	-46.488	0.45073	-0.494416	-90.9497	-51.1654	0.414777	-1.32559	-0.0413815	-1.58679	0.0962815	-2.0689	-0.214066	-1.82694	0.209075	-2.08733	-0.213379	-1.57798	0.128705	-1.53637	-0.0263015	-0.743222	-0.010347	-0.457986	0.06065	-0.239934	-0.631978	-0.893961	
0.640115	2.66113	5	0	-0.839248	-0.478997	0.00607	-0.934012	-129.481	-45.6771	0.446996	-0.483863	-89.5652	-50.3714	0.417875	-1.33435	-0.0341028	-1.58757	0.0933622	-2.08391	-0.214223	-1.83643	0.206381	-2.1116	-0.22035	-1.58573	0.127432	-1.54753	-0.0321447	-0.742108	-0.0102315	-0.469502	0.060709	-0.253801	-0.639457	-0.914476	
0.638379	2.65961	5	0	-0.825431	-0.531278	0.020057	-0.925101	-128.049	-44.8663	0.443262	-0.47331	-88.1807	-49.5774	0.420973	-1.3431	-0.026824	-1.58835	0.090443	-2.09893	-0.21438	-1.84593	0.203686	-2.13586	-0.22732	-1.59348	0.126158	-1.5587	-0.037988	-0.740993	-0.010116	-0.481019	0.060768	-0.267668	-0.646936	-0.934992	
0.636443	2.6535	5	0	-0.806526	-0.571474	0.0132892	-0.918096	-126.669	-44.0072	0.436005	-0.472626	-86.8468	-48.7493	0.414062	-1.33859	-0.0250145	-1.58356	0.087686	-2.10276	-0.211733	-1.85341	0.192843	-2.14765	-0.229106	-1.60215	0.120747	-1.55816	-0.0333895	-0.73859	-0.019355	-0.477268	0.0660138	-0.268793	-0.648233	-0.931327	
0.6342	2.65198	5	0	-0.787621	-0.61167	0.0065215	-0.911091	-125.288	-43.1481	0.428748	-0.471942	-85.5129	-47.9212	0.407152	-1.33407	-0.023205	-1.57877	0.084929	-2.10659	-0.209086	-1.86089	0.182	-2.15943	-0.230893	-1.61081	0.115336	-1.55762	-0.028791	-0.736186	-0.028594	-0.473517	0.0712595	-0.269918	-0.649529	-0.927662	
0.631693	2.64587	5	0	-0.768715	-0.651865	-0.00024625	-0.904087	-123.908	-42.289	0.421491	-0.471258	-84.179	-47.0931	0.400241	-1.32956	-0.0213955	-1.57398	0.082172	-2.11042	-0.206439	-1.86837	0.171157	-2.17122	-0.232679	-1.61947	0.109925	-1.55708	-0.0241925	-0.733783	-0.037833	-0.469766	0.0765052	-0.271043	-0.650826	-0.923996	
0.628979	2.64282	5	0	-0.74981	-0.692061	-0.007014	-0.897082	-122.528	-41.4299	0.414234	-0.470574	-82.8451	-46.265	0.393331	-1.32504	-0.019586	-1.56919	0.079415	-2.11425	-0.203792	-1.87585	0.160314	-2.183	-0.234465	-1.62813	0.104514	-1.55654	-0.019594	-0.731379	-0.047072	-0.466015	0.081751	-0.272168	-0.652123	-0.920331	
0.626118	2.63672	5	0	-0.733838	-0.697443	-0.009025	-0.903513	-121.096	-40.5878	0.408851	-0.475165	-81.533	-45.4408	0.391068	-1.33365	-0.015025	-1.57217	0.076659	-2.11808	-0.211168	-1.87486	0.157065	-2.19499	-0.236253	-1.63678	0.0991075	-1.556	-0.027927	-0.723228	-0.048124	-0.463042	0.0838183	-0.2643	-0.654831	-0.898804	
0.623169	2.63061	5	0	-0.717867	-0.702825	-0.011036	-0.909944	-119.665	-39.7456	0.403469	-0.479756	-80.2208	-44.6167	0.388804	-1.34225	-0.010464	-1.57515	0.073903	-2.12191	-0.218544	-1.87387	0.153815	-2.20699	-0.238041	-1.64543	0.093701	-1.55547	-0.03626	-0.715078	-0.049176	-0.460068	0.0858855	-0.256432	-0.657539	-0.877277	
0.620205	2.62756	5	0	-0.701896	-0.708208	-0.013047	-0.916374	-118.234	-38.9034	0.398086	-0.484347	-78.9087	-43.7925	0.38654	-1.35086	-0.005903	-1.57813	0.071147	-2.12573	-0.225919	-1.87289	0.150566	-2.21898	-0.239829	-1.65407	0.0882945	-1.55493	-0.044593	-0.706927	-0.050228	-0.457095	0.0879527	-0.248563	-0.660248	-0.855749	
0.617329	2.62298	5	0	-0.685924	-0.71359	-0.015058	-0.922805	-116.803	-38.0613	0.392703	-0.488938	-77.5965	-42.9684	0.384277	-1.35946	-0.001342	-1.58111	0.068391	-2.12956	-0.233295	-1.8719	0.147317	-2.23098	-0.241617	-1.66272	0.082888	-1.55439	-0.052926	-0.698776	-0.05128	-0.454122	0.09002	-0.240695	-0.662956	-0.834222	
0.614646	2.61383	5	0	-0.680414	-0.742423	-0.009126	-0.93957	-115.507	-37.4024	0.394567	-0.494207	-71.5686	-55.7527	0.384277	-1.35946	0.0059535	-1.58189	0.0777917	-2.13289	-0.230652	-1.87937	0.148398	-2.23403	-0.245662	-1.66498	0.0910505	-1.56272	-0.0458382	-0.703407	-0.0491762	-0.460068	0.0910813	-0.243694	-0.671821	-0.836904	
0.61226	2.61536	5	0	-0.674904	-0.771255	-0.003194	-0.956334	-114.21	-36.7435	0.396432	-0.499476	-65.5407	-68.537	0.384277	-1.35946	0.013249	-1.58267	0.0871925	-2.13622	-0.228009	-1.88684	0.14948	-2.23709	-0.249706	-1.66724	0.099213	-1.57105	-0.0387505	-0.708039	-0.0470725	-0.466014	0.0921425	-0.246694	-0.680687	-0.839585	
0.610274	2.60467	5	0	-0.669394	-0.800088	0.002738	-0.973099	-112.913	-36.0846	0.398296	-0.504744	-59.5128	-81.3212	0.384277	-1.35946	0.0205445	-1.58345	0.0965933	-2.13955	-0.225365	-1.89431	0.150562	-2.24015	-0.253751	-1.6695	0.107375	-1.57937	-0.0316628	-0.71267	-0.0449688	-0.471959	0.0932038	-0.249693	-0.689553	-0.842267	
0.608681	2.60467	5	0	-0.663884	-0.828921	0.00867	-0.989864	-111.617	-35.4257	0.40016	-0.510013	-53.4849	-94.1055	0.384277	-1.35946	0.02784	-1.58424	0.105994	-2.14288	-0.222722	-1.90178	0.151643	-2.2432	-0.257796	-1.67176	0.115538	-1.5877	-0.024575	-0.717301	-0.042865	-0.477905	0.094265	-0.252692	-0.698418	-0.844948	
0.607325	2.59857	5	0	-0.669762	-0.86526	0.0010835	-0.992629	-115.558	-43.5959	0.410207	-0.518602	-65.1945	-90.652	0.389635	-1.3596	0.035144	-1.58502	0.114282	-2.13139	-0.216393	-1.90974	0.155434	-2.24333	-0.248114	-1.68543	0.122328	-1.59214	-0.0233297	-0.72082	-0.0418135	-0.480876	0.0921963	-0.260556	-0.695712	-0.86645	
0.606044	2.59552	5	0	-0.67564	-0.9016	-0.006503	-0.995393	-119.499	-51.7661	0.420253	-0.527192	-76.904	-87.1984	0.394994	-1.35974	0.042448	-1.58581	0.12257	-2.1199	-0.210064	-1.9177	0.159224	-2.24346	-0.238431	-1.69911	0.129118	-1.59657	-0.0220845	-0.72434	-0.040762	-0.483847	0.0901275	-0.268421	-0.693005	-0.887952	
0.604673	2.59247	5	0	-0.681518	-0.93794	-0.0140895	-0.998158	-123.441	-59.9362	0.4303	-0.535781	-88.6136	-83.7449	0.400353	-1.35989	0.049752	-1.58659	0.130859	-2.10841	-0.203734	-1.92566	0.163015	-2.24358	-0.228749	-1.71278	0.135909	-1.60101	-0.0208393	-0.727859	-0.0397105	-0.486819	0.0880587	-0.276285	-0.690299	-0.909453	
0.603059	2.59094	5	0	-0.687396	-0.974279	-0.021676	-1.00092	-127.382	-68.1064	0.440346	-0.54437	-100.323	-80.2914	0.405711	-1.36003	0.057056	-1.58738	0.139147	-2.09693	-0.197405	-1.93362	0.166805	-2.24371	-0.219066	-1.72645	0.142699	-1.60545	-0.019594	-0.731379	-0.038659	-0.48979	0.08599	-0.284149	-0.687593	-0.930955	
0.601194	2.59247	5	0	-0.684609	-1.00857	-0.018126	-1.01095	-130.048	-70.8329	0.439414	-0.541737	-104.899	-79.3729	0.411075	-1.36017	0.0607113	-1.58777	0.147278	-2.09659	-0.191954	-1.9391	0.174393	-2.24397	-0.219066	-1.72645	0.148116	-1.60599	-0.0100112	-0.743049	-0.035507	-0.498698	0.091284	-0.299111	-0.688606	-0.969591	
0.599203	2.58942	5	0	-0.681822	-1.04287	-0.014576	-1.02099	-132.714	-73.5595	0.438482	-0.539103	-109.475	-78.4545	0.416438	-1.36031	0.0643665	-1.58817	0.15541	-2.09626	-0.186503	-1.94457	0.181982	-2.24422	-0.219066	-1.72645	0.153534	-1.60654	-0.0004285	-0.754719	-0.032355	-0.507607	0.096578	-0.314072	-0.689619	-1.00823	
