3.10821	0	0	-1.14495	-2.28543	-0.054798	-0.261402	0.338117	-0.898923	0.020376	-0.059499	0.154993	-0.460116	-0.040613	0.065135	0.033354	-0.345029	-0.006668	-0.06208	0.057989	-0.488751	0.028675	-0.324573	0.003675	-0.510134	0.105624	-0.546219	0.078556	-0.372775	0.005868	-0.34695	0.009705	-0.271261	0.098276	-0.510741	
3.10516	0	0	-1.34225	-2.25254	-0.0539905	-0.277245	0.342598	-0.911587	0.0163545	-0.0672568	0.156608	-0.474713	-0.0351758	0.0497685	0.032978	-0.35648	-0.00391775	-0.0698523	0.0500167	-0.493214	0.0208652	-0.324794	-0.00309125	-0.520812	0.09785	-0.555526	0.0708572	-0.367745	0.0067	-0.337772	0.00625575	-0.261513	0.102198	-0.491977	
3.09906	0	0	-1.53954	-2.21965	-0.053183	-0.293088	0.347079	-0.924252	0.012333	-0.0750145	0.158223	-0.48931	-0.0297385	0.034402	0.032602	-0.36793	-0.0011675	-0.0776245	0.0420445	-0.497677	0.0130555	-0.325016	-0.0098575	-0.53149	0.090076	-0.564832	0.0631585	-0.362714	0.007532	-0.328595	0.0028065	-0.251765	0.10612	-0.473213	
3.09601	0	0	-1.73684	-2.18676	-0.0523755	-0.30893	0.35156	-0.936917	0.0083115	-0.0827722	0.159839	-0.503908	-0.0243012	0.0190355	0.032226	-0.379381	0.00158275	-0.0853967	0.0340722	-0.502141	0.00524575	-0.325237	-0.0166237	-0.542169	0.082302	-0.574138	0.0554598	-0.357683	0.008364	-0.319417	-0.00064275	-0.242018	0.110042	-0.454448	
3.09143	0	0	-1.93414	-2.15387	-0.051568	-0.324773	0.356041	-0.949581	0.00429	-0.09053	0.161454	-0.518505	-0.018864	0.003669	0.03185	-0.390832	0.004333	-0.093169	0.0261	-0.506604	-0.002564	-0.325458	-0.02339	-0.552847	0.074528	-0.583445	0.047761	-0.352653	0.009196	-0.310239	-0.004092	-0.23227	0.113964	-0.435684	
3.09143	0	0	-1.91227	-2.21567	-0.0509645	-0.312918	0.361414	-0.949848	0.0058225	-0.085302	0.163529	-0.524369	-0.018864	0.003669	0.028783	-0.394668	0.00570725	-0.0970527	0.022579	-0.523607	-0.0015715	-0.3394	-0.0273803	-0.571323	0.0739468	-0.597421	0.0443755	-0.359797	0.00194275	-0.312792	-0.00945325	-0.231266	0.1099	-0.439129	
3.09296	0	0	-1.8904	-2.27747	-0.050361	-0.301063	0.366787	-0.950115	0.007355	-0.080074	0.165603	-0.530233	-0.018864	0.003669	0.025716	-0.398505	0.0070815	-0.100936	0.019058	-0.540611	-0.000579	-0.353341	-0.0313705	-0.5898	0.0733655	-0.611398	0.04099	-0.366941	-0.0053105	-0.315345	-0.0148145	-0.230262	0.105836	-0.442573	
3.08227	0	0	-1.86853	-2.33928	-0.0497575	-0.289208	0.372161	-0.950382	0.0088875	-0.074846	0.167678	-0.536097	-0.018864	0.003669	0.022649	-0.402342	0.00845575	-0.10482	0.015537	-0.557614	0.0004135	-0.367283	-0.0353607	-0.608276	0.0727842	-0.625374	0.0376045	-0.374084	-0.0125638	-0.317898	-0.0201757	-0.229257	0.101772	-0.446017	
3.08227	0	0	-1.84666	-2.40108	-0.049154	-0.277353	0.377534	-0.950649	0.01042	-0.069618	0.169753	-0.541961	-0.018864	0.003669	0.019582	-0.406178	0.00983	-0.108704	0.012016	-0.574617	0.001406	-0.381224	-0.039351	-0.626753	0.072203	-0.63935	0.034219	-0.381228	-0.019817	-0.320451	-0.025537	-0.228253	0.097708	-0.449462	
3.08075	0	0	-1.84666	-2.40108	-0.043719	-0.265562	0.379922	-0.942469	0.018848	-0.06473	0.175878	-0.5392	-0.015347	0.0092445	0.0284082	-0.406104	0.011025	-0.100524	0.011729	-0.587269	0.005071	-0.391582	-0.0392767	-0.641822	0.0755015	-0.648672	0.0385192	-0.393381	-0.0164642	-0.329927	-0.0285957	-0.233745	0.093647	-0.452903	
3.0777	0	0	-1.84666	-2.40108	-0.038284	-0.253771	0.382311	-0.934288	0.027276	-0.059842	0.182003	-0.536439	-0.01183	0.01482	0.0372345	-0.406031	0.01222	-0.0923435	0.011442	-0.599921	0.008736	-0.401941	-0.0392025	-0.656891	0.0788	-0.657994	0.0428195	-0.405535	-0.0131115	-0.339402	-0.0316545	-0.239238	0.089586	-0.456344	
3.07617	0	0	-1.84666	-2.40108	-0.032849	-0.241979	0.384699	-0.926108	0.035704	-0.054954	0.188128	-0.533677	-0.008313	0.0203955	0.0460607	-0.405958	0.013415	-0.0841632	0.011155	-0.612572	0.012401	-0.412299	-0.0391282	-0.671959	0.0820985	-0.667316	0.0471198	-0.417688	-0.00975875	-0.348877	-0.0347133	-0.24473	0.085525	-0.459786	
3.07007	0	0	-1.84666	-2.40108	-0.027414	-0.230188	0.387088	-0.917928	0.044132	-0.050066	0.194253	-0.530916	-0.004796	0.025971	0.054887	-0.405884	0.01461	-0.075983	0.010868	-0.625224	0.016066	-0.422657	-0.039054	-0.687028	0.085397	-0.676638	0.05142	-0.429841	-0.006406	-0.358353	-0.037772	-0.250223	0.081464	-0.463227	
3.05633	0	0	-1.94319	-2.3852	-0.0296537	-0.210268	0.384095	-0.909471	0.0383812	-0.033814	0.199345	-0.525216	-0.003093	0.0366855	0.0552667	-0.394436	0.0211293	-0.07127	0.0138185	-0.633563	0.017287	-0.426107	-0.0376732	-0.690931	0.0942335	-0.685993	0.0625103	-0.427744	-0.00975875	-0.348877	-0.0347133	-0.24473	0.0978705	-0.464803	
3.04718	0	0	-2.03971	-2.36931	-0.0318935	-0.190349	0.381103	-0.901014	0.0326305	-0.017562	0.204437	-0.519515	-0.00139	0.0474	0.0556465	-0.382988	0.0276485	-0.066557	0.016769	-0.641901	0.018508	-0.429558	-0.0362925	-0.694833	0.10307	-0.695348	0.0736005	-0.425647	-0.0131115	-0.339402	-0.0316545	-0.239238	0.114277	-0.466379	
3.02582	0	0	-2.13624	-2.35343	-0.0341333	-0.170429	0.378111	-0.892557	0.0268797	-0.00131	0.20953	-0.513814	0.000313	0.0581145	0.0560262	-0.371539	0.0341678	-0.061844	0.0197195	-0.650239	0.019729	-0.433008	-0.0349117	-0.698735	0.111907	-0.704702	0.0846908	-0.423551	-0.0164642	-0.329927	-0.0285957	-0.233745	0.130684	-0.467955	
3.05939	0	0	-2.23276	-2.33755	-0.036373	-0.150509	0.375118	-0.8841	0.021129	0.014942	0.214622	-0.508114	0.002016	0.068829	0.056406	-0.360091	0.040687	-0.057131	0.02267	-0.658578	0.02095	-0.436458	-0.033531	-0.702638	0.120743	-0.714057	0.095781	-0.421454	-0.019817	-0.320451	-0.025537	-0.228253	0.14709	-0.469531	
3.02887	0	0	-2.23276	-2.33755	-0.0355475	-0.166432	0.3811	-0.901006	0.025922	0.0013965	0.208958	-0.502154	0.007352	0.0692892	0.0537108	-0.352474	0.0326048	-0.0458612	0.0321162	-0.65834	0.0236335	-0.432905	-0.0157602	-0.708248	0.121341	-0.700114	0.106893	-0.419359	-0.0125638	-0.317898	-0.0159608	-0.227011	0.155241	-0.462646	
3.05481	0	0	-2.23276	-2.33755	-0.034722	-0.182355	0.387082	-0.917912	0.030715	-0.012149	0.203293	-0.496193	0.012688	0.0697495	0.0510155	-0.344857	0.0245225	-0.0345915	0.0415625	-0.658102	0.026317	-0.429353	0.0020105	-0.713858	0.121939	-0.686171	0.118004	-0.417264	-0.0053105	-0.315345	-0.0063845	-0.225769	0.163391	-0.455761	
3.05176	0	0	-2.23276	-2.33755	-0.0338965	-0.198278	0.393064	-0.934818	0.035508	-0.0256945	0.197628	-0.490233	0.018024	0.0702098	0.0483202	-0.337241	0.0164403	-0.0233218	0.0510087	-0.657863	0.0290005	-0.425801	0.0197813	-0.719468	0.122536	-0.672227	0.129116	-0.415168	0.00194275	-0.312792	0.00319175	-0.224526	0.171542	-0.448875	
3.08533	0	0	-2.23276	-2.33755	-0.033071	-0.214201	0.399046	-0.951724	0.040301	-0.03924	0.191964	-0.484273	0.02336	0.07067	0.045625	-0.329624	0.008358	-0.012052	0.060455	-0.657625	0.031684	-0.422248	0.037552	-0.725078	0.123134	-0.658284	0.140228	-0.413073	0.009196	-0.310239	0.012768	-0.223284	0.179693	-0.44199	
3.09296	0	0	-2.21119	-2.39851	-0.0370918	-0.229989	0.406508	-0.972811	0.0416365	-0.0525882	0.196121	-0.49602	0.0216542	0.0599505	0.054087	-0.341009	0.008545	-0.024146	0.05573	-0.657744	0.023878	-0.422453	0.0444073	-0.729557	0.123134	-0.658284	0.151362	-0.410979	0.0080765	-0.307075	0.00931275	-0.213518	0.191942	-0.431636	
3.10211	5	0	-2.18962	-2.45947	-0.0411125	-0.245777	0.413969	-0.993899	0.042972	-0.0659365	0.200277	-0.507767	0.0199485	0.049231	0.062549	-0.352394	0.008732	-0.03624	0.051005	-0.657863	0.016072	-0.422658	0.0512625	-0.734037	0.123134	-0.658284	0.162496	-0.408886	0.006957	-0.303911	0.0058575	-0.203753	0.204191	-0.421282	
3.10669	0	0	-2.16805	-2.52043	-0.0451332	-0.261565	0.42143	-1.01499	0.0443075	-0.0792847	0.204433	-0.519513	0.0182427	0.0385115	0.071011	-0.363779	0.008919	-0.048334	0.04628	-0.657981	0.008266	-0.422864	0.0581178	-0.738517	0.123134	-0.658284	0.17363	-0.406792	0.0058375	-0.300747	0.00240225	-0.193988	0.21644	-0.410928	
3.07922	0	0	-2.14648	-2.58139	-0.049154	-0.277353	0.428892	-1.03607	0.045643	-0.092633	0.20859	-0.53126	0.016537	0.027792	0.079473	-0.375164	0.009106	-0.060428	0.041555	-0.6581	0.00046	-0.423069	0.064973	-0.742996	0.123134	-0.658284	0.184764	-0.404698	0.004718	-0.297583	-0.001053	-0.184222	0.228689	-0.400574	
3.10821	0	0	-2.10378	-2.70207	-0.051166	-0.285228	0.431872	-1.04449	0.038749	-0.0922817	0.215291	-0.54015	0.0183502	0.022667	0.0804337	-0.390409	0.00791275	-0.0686133	0.044198	-0.679032	0.000219	-0.433511	0.0663973	-0.761915	0.119239	-0.66291	0.172193	-0.402732	-0.00895275	-0.293515	-0.0052655	-0.186475	0.201103	-0.382548	
3.11584	0	0	-2.06107	-2.82276	-0.053178	-0.293102	0.434852	-1.05292	0.031855	-0.0919305	0.221992	-0.549039	0.0201635	0.017542	0.0813945	-0.405655	0.0067195	-0.0767985	0.046841	-0.699963	-2.2E-05	-0.443953	0.0678215	-0.780835	0.115345	-0.667536	0.159623	-0.400765	-0.0226235	-0.289446	-0.009478	-0.188729	0.173516	-0.364523	
3.08838	0	0	-2.01837	-2.94344	-0.05519	-0.300976	0.437831	-1.06134	0.024961	-0.0915793	0.228693	-0.557929	0.0219767	0.012417	0.0823553	-0.4209	0.00552625	-0.0849837	0.049484	-0.720895	-0.000263	-0.454395	0.0692457	-0.799755	0.11145	-0.672162	0.147053	-0.398799	-0.0362943	-0.285377	-0.0136905	-0.190982	0.145929	-0.346498	
3.08685	0	0	-1.97567	-3.06413	-0.057202	-0.308851	0.440811	-1.06976	0.018067	-0.091228	0.235394	-0.566819	0.02379	0.007292	0.083316	-0.436145	0.004333	-0.093169	0.052127	-0.741827	-0.000504	-0.464837	0.07067	-0.818674	0.107556	-0.676788	0.134482	-0.396832	-0.049965	-0.281309	-0.017903	-0.193236	0.118343	-0.328472	
3.10364	0	0	-2.05017	-3.10699	-0.0537795	-0.304962	0.440811	-1.06976	0.020557	-0.0887017	0.242575	-0.567001	0.0219767	0.012417	0.0815828	-0.443768	0.00827775	-0.0927598	0.0503455	-0.750246	-0.000504	-0.464837	0.0597307	-0.817512	0.109205	-0.681448	0.123372	-0.398933	-0.059138	-0.289887	-0.0351205	-0.186988	0.110218	-0.335407	
3.11432	0	0	-2.12467	-3.14986	-0.050357	-0.301074	0.440811	-1.06976	0.023047	-0.0861755	0.249757	-0.567182	0.0201635	0.017542	0.0798495	-0.451391	0.0122225	-0.0923505	0.048564	-0.758664	-0.000504	-0.464837	0.0487915	-0.81635	0.110853	-0.686107	0.112262	-0.401034	-0.068311	-0.298465	-0.052338	-0.18074	0.102094	-0.342342	
3.07922	0	0	-2.19917	-3.19272	-0.0469345	-0.297185	0.440811	-1.06976	0.025537	-0.0836493	0.256939	-0.567363	0.0183502	0.022667	0.0781162	-0.459014	0.0161673	-0.0919413	0.0467825	-0.767083	-0.000504	-0.464837	0.0378522	-0.815188	0.112502	-0.690767	0.101152	-0.403134	-0.077484	-0.307043	-0.0695555	-0.174493	0.0939695	-0.349277	
3.0899	0	0	-2.27367	-3.23559	-0.043512	-0.293297	0.440811	-1.06976	0.028027	-0.081123	0.26412	-0.567545	0.016537	0.027792	0.076383	-0.466637	0.020112	-0.091532	0.045001	-0.775501	-0.000504	-0.464837	0.026913	-0.814026	0.114151	-0.695427	0.090042	-0.405235	-0.086657	-0.315621	-0.086773	-0.168245	0.085845	-0.356212	
3.09296	0	0	-2.38874	-3.1604	-0.0409018	-0.273523	0.444709	-1.06583	0.027647	-0.0704798	0.26611	-0.553033	0.0129067	0.0380513	0.0750405	-0.462842	0.0226835	-0.087234	0.045311	-0.762924	-0.00148375	-0.450945	0.028245	-0.80292	0.118047	-0.690806	0.080908	-0.396148	-0.0938792	-0.318176	-0.090969	-0.170502	0.0749208	-0.355188	
3.08075	0	0	-2.5038	-3.08521	-0.0382915	-0.253749	0.448606	-1.0619	0.027267	-0.0598365	0.2681	-0.538521	0.0092765	0.0483105	0.073698	-0.459048	0.025255	-0.082936	0.045621	-0.750347	-0.0024635	-0.437053	0.029577	-0.791813	0.121943	-0.686185	0.071774	-0.387061	-0.101101	-0.320732	-0.095165	-0.172759	0.0639965	-0.354163	
3.06702	0	0	-2.61887	-3.01002	-0.0356813	-0.233975	0.452504	-1.05798	0.026887	-0.0491933	0.27009	-0.52401	0.00564625	0.0585698	0.0723555	-0.455253	0.0278265	-0.078638	0.045931	-0.73777	-0.00344325	-0.423161	0.030909	-0.780706	0.12584	-0.681564	0.06264	-0.377974	-0.108324	-0.323287	-0.099361	-0.175016	0.0530723	-0.353139	
3.07312	0	0	-2.73394	-2.93484	-0.033071	-0.214201	0.456401	-1.05405	0.026507	-0.03855	0.27208	-0.509498	0.002016	0.068829	0.071013	-0.451458	0.030398	-0.07434	0.046241	-0.725193	-0.004423	-0.409269	0.032241	-0.7696	0.129736	-0.676943	0.053506	-0.368887	-0.115546	-0.325842	-0.103557	-0.177273	0.042148	-0.352115	
3.05328	0	0	-2.73394	-2.93484	-0.0338965	-0.198278	0.451926	-1.0414	0.0261217	-0.0278878	0.282307	-0.498065	0.001896	0.084709	0.0744748	-0.436191	0.032785	-0.0579345	0.0545235	-0.708183	0.00117025	-0.391668	0.0348922	-0.747316	0.128675	-0.6583	0.0463192	-0.348576	-0.113611	-0.319832	-0.103967	-0.161997	0.0310657	-0.335701	
3.06091	0	0	-2.73394	-2.93484	-0.034722	-0.182355	0.447452	-1.02876	0.0257365	-0.0172255	0.292535	-0.486633	0.001776	0.100589	0.0779365	-0.420923	0.035172	-0.041529	0.062806	-0.691174	0.0067635	-0.374066	0.0375435	-0.725031	0.127614	-0.639657	0.0391325	-0.328265	-0.111675	-0.313823	-0.104378	-0.146722	0.0199835	-0.319287	
3.06549	0	0	-2.73394	-2.93484	-0.0355475	-0.166432	0.442977	-1.01611	0.0253512	-0.00656325	0.302762	-0.475201	0.001656	0.116469	0.0813983	-0.405656	0.037559	-0.0251235	0.0710885	-0.674165	0.0123567	-0.356465	0.0401948	-0.702746	0.126554	-0.621015	0.0319457	-0.307955	-0.109739	-0.307813	-0.104789	-0.131446	0.00890125	-0.302872	
3.06244	0	0	-2.73394	-2.93484	-0.036373	-0.150509	0.438502	-1.00346	0.024966	0.004099	0.31299	-0.463768	0.001536	0.132349	0.08486	-0.390388	0.039946	-0.008718	0.079371	-0.657155	0.01795	-0.338863	0.042846	-0.680462	0.125493	-0.602372	0.024759	-0.287644	-0.107804	-0.301803	-0.105199	-0.116171	-0.002181	-0.286458	
3.05939	0	0	-2.71308	-2.99378	-0.0460443	-0.150347	0.433117	-1.00319	0.0234355	-0.001149	0.31137	-0.449091	0.005052	0.137966	0.092745	-0.375032	0.0437078	0.00383125	0.090919	-0.635765	0.0274527	-0.32108	0.0400028	-0.65752	0.126075	-0.588359	0.0189978	-0.271362	-0.115321	-0.292037	-0.115155	-0.10215	-0.0064085	-0.274511	
3.06702	0	0	-2.69223	-3.05273	-0.0557155	-0.150185	0.427732	-1.00291	0.021905	-0.006397	0.30975	-0.434415	0.008568	0.143583	0.10063	-0.359677	0.0474695	0.0163805	0.102467	-0.614375	0.0369555	-0.303297	0.0371595	-0.634579	0.126657	-0.574345	0.0132365	-0.25508	-0.122839	-0.282272	-0.125111	-0.0881285	-0.010636	-0.262564	
3.06549	0	0	-2.67137	-3.11168	-0.0653867	-0.150024	0.422347	-1.00263	0.0203745	-0.011645	0.308129	-0.419738	0.012084	0.1492	0.108515	-0.344321	0.0512312	0.0289298	0.114015	-0.592985	0.0464582	-0.285514	0.0343162	-0.611638	0.127239	-0.560331	0.00747525	-0.238799	-0.130356	-0.272506	-0.135066	-0.0741072	-0.0148635	-0.250616	
3.07159	0	0	-2.65051	-3.17063	-0.075058	-0.149862	0.416962	-1.00236	0.018844	-0.016893	0.306509	-0.405061	0.0156	0.154817	0.1164	-0.328965	0.054993	0.041479	0.125563	-0.571595	0.055961	-0.267731	0.031473	-0.588696	0.127821	-0.546318	0.001714	-0.222517	-0.137874	-0.26274	-0.145022	-0.060086	-0.019091	-0.238669	
3.07159	0	0	-2.72275	-3.21318	-0.072817	-0.169766	0.419944	-1.01079	0.019227	-0.0275445	0.3086	-0.410969	0.0031105	0.15902	0.115049	-0.325148	0.0536097	0.0453883	0.121394	-0.54628	0.0537217	-0.250226	0.0245235	-0.569055	0.124503	-0.536942	-0.00261375	-0.210286	-0.138991	-0.259581	-0.153822	-0.0493207	-0.023324	-0.226706	
3.07007	0	0	-2.79498	-3.25573	-0.070576	-0.18967	0.422927	-1.01922	0.01961	-0.038196	0.31069	-0.416878	-0.009379	0.163222	0.113699	-0.32133	0.0522265	0.0492975	0.117225	-0.520966	0.0514825	-0.232721	0.017574	-0.549415	0.121186	-0.527567	-0.0069415	-0.198055	-0.140109	-0.256423	-0.162623	-0.0385555	-0.027557	-0.214743	
3.07464	0	0	-2.86722	-3.29828	-0.068335	-0.209575	0.425909	-1.02764	0.019993	-0.0488475	0.312781	-0.422786	-0.0218685	0.167425	0.112348	-0.317513	0.0508432	0.0532067	0.113055	-0.495652	0.0492432	-0.215217	0.0106245	-0.529775	0.117869	-0.518191	-0.0112692	-0.185825	-0.141227	-0.253265	-0.171423	-0.0277903	-0.03179	-0.202779	
3.07922	0	0	-2.93946	-3.34083	-0.066094	-0.229479	0.428892	-1.03607	0.020376	-0.059499	0.314872	-0.428694	-0.034358	0.171627	0.110997	-0.313696	0.04946	0.057116	0.108886	-0.470337	0.047004	-0.197712	0.003675	-0.510134	0.114551	-0.508815	-0.015597	-0.173594	-0.142344	-0.250106	-0.180223	-0.017025	-0.036023	-0.190816	
3.0899	0	0	-2.93946	-3.34083	-0.0590388	-0.249418	0.43336	-1.0487	0.022664	-0.0755292	0.315445	-0.440411	-0.027081	0.151062	0.112348	-0.317513	0.0482717	0.0488803	0.102929	-0.453503	0.0393952	-0.187385	-0.00318575	-0.505651	0.109004	-0.508795	-0.0199308	-0.161346	-0.149861	-0.240335	-0.187864	-0.00952275	-0.0402617	-0.178837	
3.1189	0	0	-2.93946	-3.34083	-0.0519835	-0.269356	0.437829	-1.06133	0.024952	-0.0915595	0.316017	-0.452129	-0.019804	0.130496	0.113699	-0.32133	0.0470835	0.0406445	0.0969725	-0.436669	0.0317865	-0.177057	-0.0100465	-0.501168	0.103456	-0.508775	-0.0242645	-0.149098	-0.157378	-0.230565	-0.195506	-0.0020205	-0.0445005	-0.166857	
3.10821	0	0	-2.93946	-3.34083	-0.0449282	-0.289295	0.442298	-1.07396	0.02724	-0.10759	0.31659	-0.463846	-0.012527	0.109931	0.115049	-0.325148	0.0458952	0.0324088	0.0910157	-0.419834	0.0241777	-0.16673	-0.0169073	-0.496685	0.0979085	-0.508755	-0.0285983	-0.136851	-0.164894	-0.220795	-0.203148	0.00548175	-0.0487392	-0.154878	
3.11584	0	0	-2.93946	-3.34083	-0.037873	-0.309234	0.446766	-1.08659	0.029528	-0.12362	0.317163	-0.475563	-0.00525	0.089365	0.1164	-0.328965	0.044707	0.024173	0.085059	-0.403	0.016569	-0.156403	-0.023768	-0.492202	0.092361	-0.508735	-0.032932	-0.124603	-0.172411	-0.211024	-0.210789	0.012984	-0.052978	-0.142899	
3.12195	0	0	-2.93946	-3.34083	-0.0336475	-0.321176	0.446766	-1.08659	0.0358385	-0.131891	0.321333	-0.487349	-0.0034335	0.084231	0.122182	-0.332743	0.0553825	0.0171973	0.081811	-0.407352	0.013893	-0.16001	-0.0264515	-0.499512	0.0757495	-0.508684	-0.0497542	-0.110469	-0.1852	-0.197805	-0.2131	0.0195145	-0.0777718	-0.117476	
3.14178	0	0	-2.93946	-3.34083	-0.029422	-0.333118	0.446766	-1.08659	0.042149	-0.140161	0.325503	-0.499135	-0.001617	0.079097	0.127965	-0.336522	0.066058	0.0102215	0.078563	-0.411704	0.011217	-0.163617	-0.029135	-0.506822	0.059138	-0.508634	-0.0665765	-0.0963355	-0.197988	-0.184586	-0.215411	0.026045	-0.102566	-0.0920535	
3.16009	0	0	-2.93946	-3.34083	-0.0251965	-0.34506	0.446766	-1.08659	0.0484595	-0.148432	0.329674	-0.51092	0.0001995	0.073963	0.133747	-0.3403	0.0767335	0.00324575	0.075315	-0.416055	0.008541	-0.167224	-0.0318185	-0.514133	0.0425265	-0.508584	-0.0833988	-0.0822018	-0.210777	-0.171367	-0.217721	0.0325755	-0.127359	-0.0666307	
3.19214	0	0	-2.93946	-3.34083	-0.020971	-0.357002	0.446766	-1.08659	0.05477	-0.156703	0.333844	-0.522706	0.002016	0.068829	0.13953	-0.344078	0.087409	-0.00373	0.072067	-0.420407	0.005865	-0.170831	-0.034502	-0.521443	0.025915	-0.508533	-0.100221	-0.068068	-0.223565	-0.158148	-0.220032	0.039106	-0.152153	-0.041208	
3.22113	0	0	-2.96004	-3.28265	-0.0147253	-0.361083	0.452155	-1.08688	0.05477	-0.156703	0.340575	-0.53163	0.002016	0.068829	0.149756	-0.347825	0.09395	0.00100825	0.0812718	-0.432889	0.00832775	-0.177791	-0.0357982	-0.532662	0.02535	-0.522543	-0.103564	-0.0753043	-0.230747	-0.160748	-0.237153	0.0452722	-0.156162	-0.0447383	
3.2608	0	0	-2.98063	-3.22447	-0.0084795	-0.365164	0.457543	-1.08716	0.05477	-0.156703	0.347305	-0.540554	0.002016	0.068829	0.159981	-0.351572	0.100491	0.0057465	0.0904765	-0.445372	0.0107905	-0.184752	-0.0370945	-0.543882	0.024785	-0.536552	-0.106906	-0.0825405	-0.237928	-0.163348	-0.254274	0.0514385	-0.16017	-0.0482685	
3.29895	0	0	-3.00121	-3.16629	-0.00223375	-0.369245	0.462931	-1.08745	0.05477	-0.156703	0.354036	-0.549477	0.002016	0.068829	0.170207	-0.355319	0.107032	0.0104848	0.0996812	-0.457854	0.0132533	-0.191713	-0.0383908	-0.555101	0.02422	-0.550562	-0.110248	-0.0897768	-0.245109	-0.165948	-0.271394	0.0576047	-0.164179	-0.0517988	
3.34625	0	0	-3.0218	-3.10811	0.004012	-0.373326	0.46832	-1.08773	0.05477	-0.156703	0.360767	-0.558401	0.002016	0.068829	0.180433	-0.359066	0.113573	0.015223	0.108886	-0.470337	0.015716	-0.198673	-0.039687	-0.56632	0.023655	-0.564571	-0.113591	-0.097013	-0.252291	-0.168548	-0.288515	0.063771	-0.168187	-0.055329	
3.39813	0	0	-3.0218	-3.10811	0.012292	-0.369555	0.466831	-1.08352	0.0607167	-0.154367	0.362849	-0.564284	0.007352	0.0692892	0.179082	-0.355247	0.114769	0.0234655	0.11186	-0.478742	0.016947	-0.202151	-0.0409875	-0.577516	0.0269588	-0.573908	-0.123155	-0.103304	-0.259463	-0.171146	-0.280888	0.0562785	-0.17078	-0.0628485	
3.44543	0	0	-3.0218	-3.10811	0.020572	-0.365785	0.465341	-1.07931	0.0666635	-0.152031	0.36493	-0.570167	0.012688	0.0697495	0.177731	-0.351429	0.115965	0.031708	0.114834	-0.487148	0.018178	-0.20563	-0.042288	-0.588711	0.0302625	-0.583244	-0.132718	-0.109595	-0.266635	-0.173744	-0.273261	0.048786	-0.173372	-0.070368	
3.50036	0	0	-3.0218	-3.10811	0.028852	-0.362015	0.463851	-1.0751	0.0726103	-0.149694	0.367011	-0.57605	0.018024	0.0702098	0.176379	-0.34761	0.117162	0.0399505	0.117808	-0.495553	0.019409	-0.209109	-0.0435885	-0.599907	0.0335662	-0.592581	-0.142282	-0.115887	-0.273807	-0.176343	-0.265634	0.0412935	-0.175965	-0.0778875	
3.57208	0	0	-3.0218	-3.10811	0.037132	-0.358244	0.462362	-1.07089	0.078557	-0.147358	0.369093	-0.581933	0.02336	0.07067	0.175028	-0.343791	0.118358	0.048193	0.120782	-0.503958	0.02064	-0.212587	-0.044889	-0.611102	0.03687	-0.601918	-0.151845	-0.122178	-0.280979	-0.178941	-0.258007	0.033801	-0.178558	-0.085407	
3.63464	0	0	-3.0218	-3.10811	0.0440128	-0.35048	0.466264	-1.06697	0.0791435	-0.139437	0.372213	-0.59075	0.028701	0.0711295	0.17773	-0.351427	0.120939	0.0525292	0.112787	-0.508416	0.0257807	-0.215946	-0.0475763	-0.618366	0.0329935	-0.606556	-0.158061	-0.121248	-0.275718	-0.182378	-0.265634	0.0412935	-0.183974	-0.0849368	
3.69568	0	0	-3.0218	-3.10811	0.0508935	-0.342716	0.470166	-1.06304	0.07973	-0.131516	0.375333	-0.599568	0.034042	0.071589	0.180432	-0.359063	0.12352	0.0568655	0.104792	-0.512873	0.0309215	-0.219305	-0.0502635	-0.62563	0.029117	-0.611193	-0.164278	-0.120317	-0.270458	-0.185816	-0.273261	0.048786	-0.189389	-0.0844665	
3.75671	0	0	-3.0218	-3.10811	0.0577742	-0.334951	0.474067	-1.05911	0.0803165	-0.123594	0.378453	-0.608386	0.039383	0.0720485	0.183134	-0.3667	0.1261	0.0612017	0.096797	-0.517331	0.0360622	-0.222664	-0.0529507	-0.632895	0.0252405	-0.61583	-0.170494	-0.119387	-0.265197	-0.189253	-0.280888	0.0562785	-0.194805	-0.0839962	
3.8147	0	0	-3.0218	-3.10811	0.064655	-0.327187	0.477969	-1.05518	0.080903	-0.115673	0.381573	-0.617203	0.044724	0.072508	0.185836	-0.374336	0.128681	0.065538	0.088802	-0.521788	0.041203	-0.226023	-0.055638	-0.640159	0.021364	-0.620468	-0.17671	-0.118457	-0.259936	-0.192691	-0.288515	0.063771	-0.200221	-0.083526	
3.87115	0	0	-3.00121	-3.16629	0.047288	-0.318906	0.477046	-1.06753	0.0759102	-0.120715	0.376435	-0.622874	0.039383	0.0720485	0.176959	-0.374401	0.124714	0.0651178	0.0947335	-0.538551	0.0360622	-0.222664	-0.0555643	-0.655214	0.0158423	-0.620443	-0.175269	-0.122528	-0.266314	-0.186096	-0.283198	0.0628067	-0.208456	-0.0750767	
3.93677	0	0	-2.98063	-3.22447	0.029921	-0.310625	0.476122	-1.07987	0.0709175	-0.125757	0.371298	-0.628545	0.034042	0.071589	0.168082	-0.374467	0.120748	0.0646975	0.100665	-0.555314	0.0309215	-0.219305	-0.0554905	-0.67027	0.0103205	-0.620417	-0.173828	-0.1266	-0.272692	-0.179501	-0.277881	0.0618425	-0.216691	-0.0666275	
4.0039	0	0	-2.96004	-3.28265	0.012554	-0.302345	0.475198	-1.09222	0.0659248	-0.1308	0.36616	-0.634216	0.028701	0.0711295	0.159206	-0.374532	0.116781	0.0642772	0.106597	-0.572077	0.0257807	-0.215946	-0.0554168	-0.685325	0.00479875	-0.620391	-0.172388	-0.130671	-0.27907	-0.172907	-0.272564	0.0608783	-0.224925	-0.0581783	
4.06189	0	0	-2.93946	-3.34083	-0.004813	-0.294064	0.474275	-1.10456	0.060932	-0.135842	0.361023	-0.639887	0.02336	0.07067	0.150329	-0.374597	0.112815	0.063857	0.112528	-0.58884	0.02064	-0.212587	-0.055343	-0.70038	-0.000723	-0.620366	-0.170947	-0.134742	-0.285448	-0.166312	-0.267247	0.059914	-0.23316	-0.049729	
4.12445	0	0	-3.03106	-3.32541	-0.00603875	-0.317751	0.469444	-1.12078	0.0597567	-0.151653	0.358501	-0.663006	0.016321	0.0594952	0.14203	-0.401346	0.105081	0.050866	0.0965565	-0.59769	0.010154	-0.216421	-0.066166	-0.714263	-0.0101047	-0.624972	-0.177158	-0.133813	-0.294059	-0.153398	-0.268402	0.0631798	-0.231993	-0.0382038	
4.17328	0	0	-3.12267	-3.30999	-0.0072645	-0.341438	0.464614	-1.137	0.0585815	-0.167464	0.35598	-0.686124	0.009282	0.0483205	0.133731	-0.428096	0.097348	0.037875	0.080585	-0.60654	-0.000332	-0.220255	-0.076989	-0.728147	-0.0194865	-0.629578	-0.183368	-0.132883	-0.302671	-0.140483	-0.269558	0.0664455	-0.230826	-0.0266785	
4.22363	0	0	-3.21428	-3.29457	-0.00849025	-0.365124	0.459783	-1.15322	0.0574063	-0.183275	0.353459	-0.709242	0.002243	0.0371457	0.125431	-0.454845	0.0896145	0.024884	0.0646135	-0.61539	-0.010818	-0.22409	-0.087812	-0.74203	-0.0288682	-0.634183	-0.189579	-0.131954	-0.311283	-0.127569	-0.270714	0.0697113	-0.229659	-0.0151533	
4.26178	0	0	-3.30588	-3.27915	-0.009716	-0.388811	0.454952	-1.16944	0.056231	-0.199086	0.350937	-0.732361	-0.004796	0.025971	0.117132	-0.481594	0.081881	0.011893	0.048642	-0.62424	-0.021304	-0.227924	-0.098635	-0.755913	-0.03825	-0.638789	-0.19579	-0.131024	-0.319894	-0.114655	-0.271869	0.072977	-0.228492	-0.003628	
4.2984	0	0	-3.26537	-3.39365	-0.00549975	-0.400726	0.452536	-1.17753	0.0590878	-0.207159	0.347366	-0.752465	-0.00469325	0.0101658	0.101737	-0.500652	0.0674473	0.00632375	0.038605	-0.649705	-0.026867	-0.245611	-0.105327	-0.781366	-0.044331	-0.652672	-0.202445	-0.145418	-0.328943	-0.123309	-0.282498	0.0749015	-0.240464	-0.014229	
4.32434	0	0	-3.22486	-3.50814	-0.0012835	-0.412642	0.450119	-1.18562	0.0619445	-0.215233	0.343796	-0.772569	-0.0045905	-0.0056395	0.086343	-0.51971	0.0530135	0.0007545	0.028568	-0.675169	-0.03243	-0.263298	-0.112018	-0.806819	-0.050412	-0.666555	-0.209099	-0.159811	-0.337992	-0.131963	-0.293127	0.076826	-0.252435	-0.02483	
4.34265	0	0	-3.18434	-3.62264	0.00293275	-0.424558	0.447703	-1.19371	0.0648013	-0.223307	0.340225	-0.792673	-0.00448775	-0.0214447	0.0709485	-0.538767	0.0385797	-0.00481475	0.018531	-0.700634	-0.037993	-0.280986	-0.11871	-0.832272	-0.056493	-0.680438	-0.215754	-0.174205	-0.347041	-0.140617	-0.303755	0.0787505	-0.264407	-0.035431	
4.36249	0	0	-3.14383	-3.73713	0.007149	-0.436473	0.445286	-1.2018	0.067658	-0.23138	0.336654	-0.812777	-0.004385	-0.03725	0.055554	-0.557825	0.024146	-0.010384	0.008494	-0.726099	-0.043556	-0.298673	-0.125401	-0.857725	-0.062574	-0.694321	-0.222409	-0.188599	-0.35609	-0.149271	-0.314384	0.080675	-0.276379	-0.046032	
4.36706	0	0	-3.23438	-3.72156	0.00371525	-0.440329	0.449729	-1.21436	0.06421	-0.231195	0.336148	-0.8214	-0.0097115	-0.0376985	0.0503355	-0.580515	0.022955	-0.0185905	0.00316525	-0.751311	-0.0425575	-0.312619	-0.128048	-0.879763	-0.0576533	-0.708228	-0.22906	-0.202944	-0.361	-0.158178	-0.322688	0.0760702	-0.281529	-0.0610405	
4.37775	0	0	-3.32493	-3.70598	0.0002815	-0.444186	0.454172	-1.22691	0.060762	-0.23101	0.335642	-0.830024	-0.015038	-0.038147	0.045117	-0.603206	0.021764	-0.026797	-0.0021635	-0.776523	-0.041559	-0.326564	-0.130694	-0.901801	-0.0527325	-0.722135	-0.235711	-0.217289	-0.36591	-0.167085	-0.330991	0.0714655	-0.286679	-0.076049	
4.38385	0	0	-3.41548	-3.69041	-0.00315225	-0.448043	0.458616	-1.23947	0.057314	-0.230824	0.335135	-0.838647	-0.0203645	-0.0385955	0.0398985	-0.625897	0.020573	-0.0350035	-0.00749225	-0.801735	-0.0405605	-0.34051	-0.133341	-0.923839	-0.0478118	-0.736042	-0.242362	-0.231634	-0.37082	-0.175992	-0.339294	0.0668607	-0.29183	-0.0910575	
4.38232	0	0	-3.50603	-3.67483	-0.006586	-0.451899	0.463059	-1.25203	0.053866	-0.230639	0.334629	-0.847271	-0.025691	-0.039044	0.03468	-0.648587	0.019382	-0.04321	-0.012821	-0.826947	-0.039562	-0.354455	-0.135987	-0.945877	-0.042891	-0.749949	-0.249013	-0.245979	-0.37573	-0.184899	-0.347598	0.062256	-0.29698	-0.106066	
4.37622	0	0	-3.48609	-3.73118	-0.0107983	-0.439994	0.457678	-1.25173	0.0510103	-0.222568	0.340286	-0.853204	-0.0274992	-0.0339335	0.0254668	-0.659912	0.0154365	-0.043624	-0.0102168	-0.847711	-0.0383397	-0.357909	-0.144096	-0.952431	-0.0500317	-0.745283	-0.252337	-0.253133	-0.374616	-0.188048	-0.351745	0.0599563	-0.302368	-0.105603	
4.37469	0	0	-3.46616	-3.78752	-0.0150105	-0.42809	0.452297	-1.25143	0.0481545	-0.214497	0.345943	-0.859137	-0.0293075	-0.028823	0.0162535	-0.671237	0.011491	-0.044038	-0.0076125	-0.868476	-0.0371175	-0.361364	-0.152204	-0.958986	-0.0571725	-0.740617	-0.255661	-0.260288	-0.373502	-0.191196	-0.355892	0.0576565	-0.307756	-0.10514	
4.36096	0	0	-3.44622	-3.84387	-0.0192228	-0.416185	0.446916	-1.25113	0.0452987	-0.206426	0.3516	-0.865071	-0.0311158	-0.0237125	0.00704025	-0.682561	0.0075455	-0.044452	-0.00500825	-0.88924	-0.0358953	-0.364818	-0.160313	-0.965541	-0.0643133	-0.735952	-0.258985	-0.267442	-0.372388	-0.194345	-0.360039	0.0553567	-0.313145	-0.104677	
4.34418	0	0	-3.42628	-3.90021	-0.023435	-0.40428	0.441535	-1.25083	0.042443	-0.198355	0.357257	-0.871004	-0.032924	-0.018602	-0.002173	-0.693886	0.0036	-0.044866	-0.002404	-0.910005	-0.034673	-0.368272	-0.168422	-0.972095	-0.071454	-0.731286	-0.262309	-0.274596	-0.371274	-0.197493	-0.364186	0.053057	-0.318533	-0.104214	
4.32434	0	0	-3.51568	-3.88485	-0.0323118	-0.419816	0.436694	-1.26692	0.034967	-0.205874	0.344411	-0.864846	-0.040053	-0.013944	-0.0201445	-0.705202	-0.0109722	-0.0383353	-0.007109	-0.910102	-0.0371178	-0.361362	-0.168422	-0.972095	-0.0675928	-0.726683	-0.26088	-0.278636	-0.378741	-0.187772	-0.364186	0.053057	-0.311738	-0.108654	
4.29687	0	0	-3.60507	-3.86948	-0.0411885	-0.435353	0.431853	-1.28302	0.027491	-0.213394	0.331565	-0.858688	-0.047182	-0.009286	-0.038116	-0.716518	-0.0255445	-0.0318045	-0.011814	-0.9102	-0.0395625	-0.354453	-0.168422	-0.972095	-0.0637315	-0.72208	-0.25945	-0.282676	-0.386208	-0.178051	-0.364186	0.053057	-0.304942	-0.113095	
4.26636	0	0	-3.69446	-3.85412	-0.0500652	-0.450889	0.427012	-1.29911	0.020015	-0.220913	0.318719	-0.852531	-0.054311	-0.004628	-0.0560875	-0.727834	-0.0401167	-0.0252738	-0.016519	-0.910297	-0.0420072	-0.347543	-0.168422	-0.972095	-0.0598702	-0.717477	-0.25802	-0.286717	-0.393674	-0.16833	-0.364186	0.053057	-0.298147	-0.117535	
4.23889	0	0	-3.78385	-3.83875	-0.058942	-0.466426	0.422171	-1.31521	0.012539	-0.228432	0.305873	-0.846373	-0.06144	3E-05	-0.074059	-0.73915	-0.054689	-0.018743	-0.021224	-0.910395	-0.044452	-0.340633	-0.168422	-0.972095	-0.056009	-0.712874	-0.256591	-0.290757	-0.401141	-0.158609	-0.364186	0.053057	-0.291351	-0.121975	
4.21448	0	0	-3.76417	-3.89439	-0.0629907	-0.482016	0.415856	-1.32709	0.009459	-0.238801	0.307421	-0.860785	-0.0720642	-0.00088325	-0.0823235	-0.76533	-0.0662885	-0.032064	-0.0338598	-0.914812	-0.0546818	-0.333949	-0.171111	-0.979214	-0.0631498	-0.708208	-0.26563	-0.281745	-0.405603	-0.146	-0.371787	0.0605275	-0.290183	-0.1105	
4.18548	0	0	-3.74448	-3.95004	-0.0670395	-0.497606	0.40954	-1.33897	0.006379	-0.249171	0.308968	-0.875198	-0.0826885	-0.0017965	-0.090588	-0.79151	-0.077888	-0.045385	-0.0464955	-0.919229	-0.0649115	-0.327265	-0.173799	-0.986334	-0.0702905	-0.703542	-0.27467	-0.272732	-0.410065	-0.13339	-0.379387	0.067998	-0.289015	-0.0990245	
4.1626	0	0	-3.72479	-4.00568	-0.0710882	-0.513196	0.403224	-1.35085	0.003299	-0.259541	0.310516	-0.88961	-0.0933127	-0.00270975	-0.0988525	-0.81769	-0.0894875	-0.058706	-0.0591312	-0.923646	-0.0751412	-0.32058	-0.176488	-0.993453	-0.0774312	-0.698876	-0.283709	-0.263719	-0.414526	-0.120781	-0.386987	0.0754685	-0.287847	-0.0875492	
4.12903	0	0	-3.7051	-4.06132	-0.075137	-0.528786	0.396909	-1.36273	0.000219	-0.26991	0.312064	-0.904022	-0.103937	-0.003623	-0.107117	-0.84387	-0.101087	-0.072027	-0.071767	-0.928063	-0.085371	-0.313896	-0.179177	-1.00057	-0.084572	-0.69421	-0.292748	-0.254707	-0.418988	-0.108172	-0.394588	0.082939	-0.286679	-0.076074	
4.10766	0	0	-3.79337	-4.04616	-0.077163	-0.536562	0.398381	-1.36689	0.00555625	-0.275459	0.311552	-0.912607	-0.0985215	-0.0189283	-0.119327	-0.858768	-0.104824	-0.0844755	-0.075328	-0.944703	-0.0894797	-0.324484	-0.180507	-1.01152	-0.0867887	-0.703448	-0.296065	-0.261854	-0.427223	-0.107639	-0.386987	0.0754685	-0.304248	-0.0707163	
4.0863	0	0	-3.88163	-4.031	-0.079189	-0.544338	0.399852	-1.37105	0.0108935	-0.281007	0.31104	-0.921191	-0.093106	-0.0342335	-0.131537	-0.873667	-0.108561	-0.096924	-0.078889	-0.961342	-0.0935885	-0.335071	-0.181837	-1.02247	-0.0890055	-0.712685	-0.299381	-0.269	-0.435459	-0.107107	-0.379387	0.067998	-0.321817	-0.0653585	
4.06036	0	0	-3.9699	-4.01584	-0.081215	-0.552114	0.401323	-1.37521	0.0162307	-0.286556	0.310527	-0.929776	-0.0876905	-0.0495387	-0.143746	-0.888565	-0.112297	-0.109372	-0.08245	-0.977981	-0.0976972	-0.345658	-0.183166	-1.03342	-0.0912222	-0.721923	-0.302698	-0.276147	-0.443694	-0.106575	-0.371787	0.0605275	-0.339385	-0.0600007	
4.03747	0	0	-4.05816	-4.00068	-0.083241	-0.55989	0.402795	-1.37937	0.021568	-0.292105	0.310015	-0.938361	-0.082275	-0.064844	-0.155956	-0.903463	-0.116034	-0.121821	-0.086011	-0.994621	-0.101806	-0.356246	-0.184496	-1.04437	-0.093439	-0.731161	-0.306014	-0.283294	-0.451929	-0.106042	-0.364186	0.053057	-0.356954	-0.054643	
4.01153	0	0	-4.05816	-4.00068	-0.0846365	-0.555946	0.409634	-1.38384	0.0152818	-0.283874	0.313607	-0.938479	-0.0893863	-0.0601975	-0.155068	-0.918302	-0.119955	-0.122233	-0.087794	-1.00292	-0.10447	-0.359807	-0.177727	-1.04879	-0.095657	-0.740381	-0.301733	-0.295392	-0.459039	-0.108663	-0.375925	0.0582237	-0.355301	-0.0740562	
3.99017	0	0	-4.05816	-4.00068	-0.086032	-0.552002	0.416473	-1.3883	0.0089955	-0.275643	0.317198	-0.938597	-0.0964975	-0.055551	-0.15418	-0.933142	-0.123876	-0.122645	-0.089577	-1.01122	-0.107134	-0.363368	-0.170959	-1.05321	-0.097875	-0.749601	-0.297452	-0.30749	-0.466149	-0.111284	-0.387663	0.0633905	-0.353648	-0.0934695	
3.97644	0	0	-4.05816	-4.00068	-0.0874275	-0.548059	0.423312	-1.39277	0.00270925	-0.267412	0.32079	-0.938716	-0.103609	-0.0509045	-0.153293	-0.947981	-0.127797	-0.123057	-0.09136	-1.01952	-0.109799	-0.36693	-0.16419	-1.05763	-0.100093	-0.758821	-0.293171	-0.319589	-0.473258	-0.113905	-0.399402	0.0685573	-0.351994	-0.112883	
3.95203	0	0	-4.05816	-4.00068	-0.088823	-0.544115	0.430151	-1.39724	-0.003577	-0.259181	0.324382	-0.938834	-0.11072	-0.046258	-0.152405	-0.96282	-0.131718	-0.123469	-0.093143	-1.02781	-0.112463	-0.370491	-0.157421	-1.06206	-0.102311	-0.768041	-0.28889	-0.331687	-0.480368	-0.116526	-0.411141	0.073724	-0.350341	-0.132296	
3.93066	0	0	-4.05816	-4.00068	-0.0867988	-0.536334	0.432579	-1.38923	0.000452	-0.251494	0.324896	-0.930247	-0.103609	-0.0509045	-0.159388	-0.955408	-0.135636	-0.123881	-0.0884555	-1.02772	-0.107359	-0.373826	-0.160139	-1.05437	-0.0968182	-0.768075	-0.28889	-0.331687	-0.474029	-0.123089	-0.404698	0.069514	-0.346131	-0.144196	
3.91388	0	0	-4.05816	-4.00068	-0.0847745	-0.528553	0.435006	-1.38122	0.004481	-0.243806	0.325409	-0.92166	-0.0964975	-0.055551	-0.166371	-0.947995	-0.139555	-0.124294	-0.083768	-1.02763	-0.102254	-0.377161	-0.162857	-1.04669	-0.0913255	-0.76811	-0.28889	-0.331687	-0.467689	-0.129652	-0.398255	0.065304	-0.34192	-0.156095	
3.90015	0	0	-4.05816	-4.00068	-0.0827502	-0.520772	0.437434	-1.37321	0.00851	-0.236119	0.325923	-0.913073	-0.0893863	-0.0601975	-0.173354	-0.940583	-0.143474	-0.124706	-0.0790805	-1.02754	-0.0971502	-0.380496	-0.165576	-1.03901	-0.0858327	-0.768145	-0.28889	-0.331687	-0.46135	-0.136215	-0.391812	0.061094	-0.337709	-0.167995	
3.87878	0	0	-4.05816	-4.00068	-0.080726	-0.512991	0.439862	-1.3652	0.012539	-0.228432	0.326436	-0.904486	-0.082275	-0.064844	-0.180337	-0.933171	-0.147392	-0.125118	-0.074393	-1.02745	-0.092046	-0.383831	-0.168294	-1.03133	-0.08034	-0.768179	-0.28889	-0.331687	-0.45501	-0.142778	-0.385369	0.056884	-0.333499	-0.179895	
3.86658	0	0	-4.05816	-4.00068	-0.0843058	-0.489362	0.440813	-1.35301	0.00778225	-0.214988	0.323859	-0.88716	-0.0948018	-0.0448922	-0.17687	-0.918314	-0.151498	-0.113513	-0.070824	-1.01084	-0.091821	-0.37337	-0.161547	-1.02095	-0.081977	-0.763553	-0.286996	-0.32052	-0.45424	-0.133594	-0.389981	0.0699165	-0.334902	-0.17593	
3.85284	0	0	-4.05816	-4.00068	-0.0878855	-0.465734	0.441765	-1.34082	0.0030255	-0.201545	0.321283	-0.869835	-0.107328	-0.0249405	-0.173404	-0.903458	-0.155605	-0.101907	-0.067255	-0.994221	-0.091596	-0.36291	-0.154799	-1.01057	-0.083614	-0.758927	-0.285102	-0.309354	-0.45347	-0.12441	-0.394592	0.082949	-0.336305	-0.171965	
3.83758	0	0	-4.05816	-4.00068	-0.0914652	-0.442105	0.442717	-1.32862	-0.00173125	-0.188102	0.318706	-0.852509	-0.119855	-0.00498875	-0.169938	-0.888601	-0.159712	-0.0903015	-0.063686	-0.977604	-0.091371	-0.352449	-0.148052	-1.00019	-0.085251	-0.754301	-0.283208	-0.298187	-0.452699	-0.115226	-0.399203	0.0959815	-0.337708	-0.168001	
3.82843	0	0	-4.05816	-4.00068	-0.095045	-0.418477	0.443668	-1.31643	-0.006488	-0.174658	0.316129	-0.835183	-0.132382	0.014963	-0.166471	-0.873744	-0.163818	-0.078696	-0.060117	-0.960987	-0.091146	-0.341989	-0.141305	-0.989814	-0.086888	-0.749675	-0.281314	-0.28702	-0.451929	-0.106042	-0.403815	0.109014	-0.339111	-0.164036	
3.81775	0	0	-4.05816	-4.00068	-0.102666	-0.410451	0.442192	-1.31226	-0.0118307	-0.169098	0.310976	-0.820622	-0.135997	0.025181	-0.17133	-0.847674	-0.169302	-0.0631982	-0.065631	-0.932037	-0.0894843	-0.324472	-0.14544	-0.963386	-0.0791683	-0.740475	-0.267047	-0.277693	-0.448162	-0.0939472	-0.403141	0.121118	-0.327171	-0.153521	
3.81012	0	0	-4.05816	-4.00068	-0.110287	-0.402424	0.440716	-1.30809	-0.0171735	-0.163538	0.305824	-0.80606	-0.139613	0.035399	-0.176188	-0.821603	-0.174785	-0.0477005	-0.071145	-0.903088	-0.0878225	-0.306955	-0.149575	-0.936957	-0.0714485	-0.731275	-0.252781	-0.268367	-0.444395	-0.0818525	-0.402466	0.133223	-0.315231	-0.143006	
3.80096	0	0	-4.05816	-4.00068	-0.117908	-0.394398	0.439239	-1.30391	-0.0225162	-0.157978	0.300671	-0.791498	-0.143229	0.045617	-0.181047	-0.795533	-0.180269	-0.0322028	-0.076659	-0.874138	-0.0861608	-0.289437	-0.153711	-0.910528	-0.0637288	-0.722074	-0.238515	-0.259041	-0.440627	-0.0697578	-0.401792	0.145327	-0.303291	-0.13249	
3.79333	0	0	-4.05816	-4.00068	-0.125529	-0.386372	0.437763	-1.29974	-0.027859	-0.152418	0.295519	-0.776937	-0.146844	0.055835	-0.185906	-0.769463	-0.185753	-0.016705	-0.082173	-0.845188	-0.084499	-0.27192	-0.157846	-0.8841	-0.056009	-0.712874	-0.224248	-0.249714	-0.43686	-0.057663	-0.401118	0.157432	-0.291351	-0.121975	
3.78723	0	0	-4.07773	-3.94538	-0.128335	-0.378441	0.440185	-1.29169	-0.0272802	-0.144514	0.296016	-0.768293	-0.155758	0.0655913	-0.183786	-0.750752	-0.183212	-0.0124005	-0.0909507	-0.820381	-0.090629	-0.254596	-0.159271	-0.86532	-0.066433	-0.698929	-0.221899	-0.223181	-0.436456	-0.036034	-0.391005	0.170943	-0.282208	-0.103451	
3.78113	0	0	-4.09729	-3.89008	-0.131141	-0.370509	0.442608	-1.28364	-0.0267015	-0.13661	0.296513	-0.759648	-0.164673	0.0753475	-0.181666	-0.73204	-0.180671	-0.008096	-0.0997285	-0.795574	-0.096759	-0.237272	-0.160695	-0.846541	-0.076857	-0.684985	-0.21955	-0.196647	-0.436053	-0.014405	-0.380892	0.184455	-0.273065	-0.084926	
3.77502	0	0	-4.11686	-3.83478	-0.133948	-0.362578	0.44503	-1.2756	-0.0261228	-0.128706	0.29701	-0.751003	-0.173588	0.0851038	-0.179546	-0.713329	-0.178129	-0.0037915	-0.108506	-0.770766	-0.102889	-0.219948	-0.16212	-0.827762	-0.087281	-0.671041	-0.217202	-0.170114	-0.435649	0.007224	-0.37078	0.197966	-0.263922	-0.0664015	
3.7735	0	0	-4.13643	-3.77948	-0.136754	-0.354647	0.447452	-1.26755	-0.025544	-0.120802	0.297507	-0.742359	-0.182502	0.09486	-0.177426	-0.694618	-0.175588	0.000513	-0.117284	-0.745959	-0.109019	-0.202624	-0.163545	-0.808982	-0.097705	-0.657096	-0.214853	-0.14358	-0.435245	0.028853	-0.360667	0.211478	-0.254779	-0.047877	
3.77045	0	0	-4.15611	-3.72384	-0.136972	-0.326999	0.452294	-1.25141	-0.0297448	-0.0993863	0.296967	-0.730778	-0.177207	0.0953335	-0.169232	-0.668273	-0.166582	0.009564	-0.115526	-0.737552	-0.110246	-0.199155	-0.160865	-0.801791	-0.10484	-0.652434	-0.219171	-0.131377	-0.432244	0.0317665	-0.352368	0.216137	-0.247962	-0.0523313	
3.76739	0	0	-4.1758	-3.6682	-0.137189	-0.29935	0.457137	-1.23527	-0.0339455	-0.0779705	0.296427	-0.719198	-0.171912	0.095807	-0.161038	-0.641928	-0.157577	0.018615	-0.113768	-0.729146	-0.111474	-0.195686	-0.158185	-0.794601	-0.111975	-0.647772	-0.223489	-0.119174	-0.429242	0.03468	-0.344068	0.220796	-0.241145	-0.0567855	
3.76282	0	0	-4.19549	-3.61256	-0.137407	-0.271702	0.461979	-1.21913	-0.0381463	-0.0565548	0.295887	-0.707618	-0.166618	0.0962805	-0.152843	-0.615583	-0.148571	0.027666	-0.11201	-0.720739	-0.112702	-0.192217	-0.155505	-0.78741	-0.119109	-0.64311	-0.227807	-0.106971	-0.426241	0.0375935	-0.335769	0.225455	-0.234328	-0.0612398	
3.76129	0	0	-4.21518	-3.55691	-0.137625	-0.244054	0.466821	-1.20299	-0.042347	-0.035139	0.295347	-0.696037	-0.161323	0.096754	-0.144649	-0.589238	-0.139565	0.036717	-0.110252	-0.712332	-0.113929	-0.188748	-0.152825	-0.780219	-0.126244	-0.638448	-0.232125	-0.094768	-0.42324	0.040507	-0.32747	0.230114	-0.227511	-0.065694	
3.75213	0	0	-4.10735	-3.62737	-0.139291	-0.212273	0.463295	-1.17809	-0.045049	-0.00839925	0.299922	-0.67877	-0.161464	0.112602	-0.13475	-0.555149	-0.130757	0.0579275	-0.108495	-0.70391	-0.102256	-0.188369	-0.150145	-0.773017	-0.119109	-0.64311	-0.221155	-0.092542	-0.424362	0.0436788	-0.329793	0.236678	-0.217866	-0.0781292	
3.74603	0	0	-3.99952	-3.69783	-0.140958	-0.180493	0.45977	-1.1532	-0.047751	0.0183405	0.304496	-0.661502	-0.161604	0.128451	-0.124852	-0.521059	-0.121949	0.079138	-0.106739	-0.695489	-0.0905825	-0.18799	-0.147465	-0.765815	-0.111975	-0.647772	-0.210184	-0.090316	-0.425485	0.0468505	-0.332116	0.243243	-0.20822	-0.0905645	
3.74298	0	0	-3.89169	-3.76829	-0.142624	-0.148712	0.456244	-1.1283	-0.050453	0.0450802	0.309071	-0.644235	-0.161745	0.144299	-0.114953	-0.486969	-0.113141	0.100349	-0.104983	-0.687067	-0.0789093	-0.18761	-0.144785	-0.758612	-0.10484	-0.652434	-0.199213	-0.08809	-0.426608	0.0500222	-0.334438	0.249807	-0.198575	-0.103	
3.7384	0	0	-3.78385	-3.83875	-0.14429	-0.116931	0.452719	-1.10341	-0.053155	0.07182	0.313645	-0.626968	-0.161886	0.160147	-0.105054	-0.45288	-0.104333	0.121559	-0.103226	-0.678646	-0.067236	-0.187231	-0.142105	-0.75141	-0.097705	-0.657096	-0.188243	-0.085864	-0.42773	0.053194	-0.336761	0.256371	-0.18893	-0.115435	
3.73382	0	0	-3.80367	-3.78276	-0.152243	-0.0809047	0.449165	-1.07842	-0.0583663	0.0961065	0.313572	-0.606604	-0.162038	0.176039	-0.0978625	-0.410933	-0.0929707	0.147237	-0.105888	-0.657729	-0.0670308	-0.176675	-0.142179	-0.736414	-0.0938507	-0.652474	-0.187805	-0.070464	-0.418354	0.049507	-0.333771	0.261994	-0.183513	-0.115909	
3.72467	0	0	-3.82348	-3.72677	-0.160195	-0.0448785	0.445611	-1.05344	-0.0635775	0.120393	0.313499	-0.58624	-0.162189	0.19193	-0.090671	-0.368985	-0.0816085	0.172915	-0.108549	-0.636811	-0.0668255	-0.166119	-0.142253	-0.721417	-0.0899965	-0.647852	-0.187367	-0.055064	-0.408977	0.04582	-0.330781	0.267617	-0.178096	-0.116382	
3.71704	0	0	-3.84329	-3.67078	-0.168148	-0.00885225	0.442056	-1.02845	-0.0687887	0.14468	0.313426	-0.565875	-0.16234	0.207821	-0.0834795	-0.327037	-0.0702462	0.198594	-0.111211	-0.615894	-0.0666203	-0.155563	-0.142326	-0.706421	-0.0861423	-0.643229	-0.186929	-0.039664	-0.399601	0.042133	-0.327791	0.27324	-0.172679	-0.116856	
3.70941	0	0	-3.8631	-3.61478	-0.1761	0.027174	0.438502	-1.00346	-0.074	0.168966	0.313353	-0.545511	-0.162492	0.223713	-0.076288	-0.28509	-0.058884	0.224272	-0.113873	-0.594977	-0.066415	-0.145007	-0.1424	-0.691424	-0.082288	-0.638607	-0.186491	-0.024264	-0.390225	0.038446	-0.324801	0.278863	-0.167262	-0.11733	
3.70636	0	0	-3.8631	-3.61478	-0.182337	0.0312492	0.431625	-0.998969	-0.0783995	0.171841	0.308713	-0.542479	-0.162492	0.223713	-0.0698348	-0.265864	-0.0658335	0.243913	-0.121248	-0.574136	-0.0662143	-0.134431	-0.146535	-0.679737	-0.085578	-0.629309	-0.183167	-0.0170075	-0.387217	0.041362	-0.312995	0.273676	-0.15359	-0.126264	
3.6972	0	0	-3.8631	-3.61478	-0.188574	0.0353245	0.424748	-0.994475	-0.082799	0.174715	0.304073	-0.539447	-0.162492	0.223713	-0.0633815	-0.246638	-0.072783	0.263553	-0.128622	-0.553294	-0.0660135	-0.123856	-0.15067	-0.66805	-0.088868	-0.620011	-0.179842	-0.009751	-0.384209	0.044278	-0.301189	0.26849	-0.139918	-0.135197	
3.685	0	0	-3.8631	-3.61478	-0.19481	0.0393997	0.41787	-0.989982	-0.0871985	0.17759	0.299433	-0.536416	-0.162492	0.223713	-0.0569282	-0.227412	-0.0797325	0.283194	-0.135996	-0.532452	-0.0658128	-0.11328	-0.154806	-0.656364	-0.092158	-0.610713	-0.176517	-0.0024945	-0.381202	0.047194	-0.289384	0.263303	-0.126246	-0.144131	
3.67889	0	0	-3.8631	-3.61478	-0.201047	0.043475	0.410993	-0.985488	-0.091598	0.180465	0.294793	-0.533384	-0.162492	0.223713	-0.050475	-0.208186	-0.086682	0.302835	-0.143371	-0.511611	-0.065612	-0.102704	-0.158941	-0.644677	-0.095448	-0.601415	-0.173193	0.004762	-0.378194	0.05011	-0.277578	0.258116	-0.112574	-0.153065	
3.66669	0	0	-3.97093	-3.54433	-0.195364	0.0274127	0.413977	-0.993921	-0.0940707	0.177899	0.291196	-0.533294	-0.16779	0.223223	-0.051482	-0.192835	-0.0790435	0.316007	-0.136558	-0.557644	-0.0877218	-0.029069	-0.158785	-0.674682	-0.103688	-0.578128	-0.188823	-0.0507567	-0.348402	0.0919565	-0.29393	0.205892	-0.107359	-0.138049	
3.66363	0	0	-4.07876	-3.47387	-0.189681	0.0113505	0.416961	-1.00235	-0.0965435	0.175333	0.287598	-0.533203	-0.173088	0.222734	-0.052489	-0.177485	-0.071405	0.329179	-0.129746	-0.603678	-0.109831	0.044566	-0.158629	-0.704687	-0.111927	-0.554841	-0.204453	-0.106275	-0.31861	0.133803	-0.310282	0.153669	-0.102144	-0.123033	
3.65448	0	0	-4.1866	-3.40341	-0.183997	-0.00471175	0.419945	-1.01079	-0.0990163	0.172768	0.284001	-0.533113	-0.178387	0.222245	-0.053496	-0.162135	-0.0637665	0.342351	-0.122934	-0.649711	-0.131941	0.118201	-0.158474	-0.734693	-0.120167	-0.531554	-0.220082	-0.161794	-0.288818	0.175649	-0.326634	0.101445	-0.0969298	-0.108017	
3.64838	0	0	-4.29443	-3.33295	-0.178314	-0.020774	0.422929	-1.01922	-0.101489	0.170202	0.280404	-0.533023	-0.183685	0.221755	-0.054503	-0.146784	-0.056128	0.355523	-0.116121	-0.695744	-0.154051	0.191836	-0.158318	-0.764698	-0.128407	-0.508267	-0.235712	-0.217313	-0.259026	0.217496	-0.342986	0.049221	-0.091715	-0.093001	
3.64075	0	0	-3.42853	-3.02499	-0.19471	-0.028542	1.44627	-0.440645	-0.0533467	0.216515	1.30264	0.0444813	-0.144669	0.220005	0.0360235	-0.0872505	0.231281	0.592869	-0.00567925	-0.629397	0.0926935	0.526335	-0.0915835	-0.745356	-0.0204917	-0.341692	-0.284025	-0.278568	-0.2089	0.249094	-0.36877	-0.00371075	-0.0767985	-0.090438	
3.63617	0	0	-2.56264	-2.71703	-0.211106	-0.03631	2.46961	0.13793	-0.0052045	0.262829	2.32488	0.621986	-0.105653	0.218255	0.12655	-0.027717	0.518691	0.830216	0.104763	-0.563049	0.339438	0.860835	-0.024849	-0.726013	0.0874235	-0.175117	-0.332339	-0.339823	-0.158773	0.280692	-0.394555	-0.0566425	-0.061882	-0.087875	
3.63006	0	0	-1.69675	-2.40907	-0.227501	-0.044078	3.49294	0.716504	0.0429377	0.309142	3.34711	1.19949	-0.0666377	0.216504	0.217077	0.0318165	0.8061	1.06756	0.215204	-0.496702	0.586183	1.19533	0.0418855	-0.70667	0.195339	-0.008542	-0.380653	-0.401078	-0.108647	0.31229	-0.420339	-0.109574	-0.0469655	-0.085312	
3.61938	0	0	-0.830853	-2.10111	-0.243897	-0.051846	4.51628	1.29508	0.09108	0.355455	4.36935	1.77699	-0.027622	0.214754	0.307603	0.09135	1.09351	1.30491	0.325646	-0.430355	0.832927	1.52983	0.10862	-0.687328	0.303254	0.158033	-0.428966	-0.462333	-0.058521	0.343888	-0.446123	-0.162506	-0.032049	-0.082749	
3.61328	0	0	-0.197012	-1.90002	-0.244223	-0.0238925	4.587	1.422	0.0540385	0.354339	4.45409	1.85569	0.0255143	0.267802	0.332117	0.111342	1.28909	1.49052	0.341525	-0.434219	0.969067	1.68326	0.105903	-0.694581	0.367893	0.231819	-0.43698	-0.472446	-0.0722485	0.313186	-0.44085	-0.163471	-0.0183	-0.0917328	
3.60565	0	0	0.436828	-1.69893	-0.244549	0.004061	4.65771	1.54892	0.016997	0.353224	4.53883	1.93438	0.0786505	0.32085	0.35663	0.131333	1.48468	1.67613	0.357403	-0.438084	1.10521	1.83668	0.103187	-0.701834	0.432533	0.305605	-0.444995	-0.482559	-0.085976	0.282483	-0.435578	-0.164437	-0.004551	-0.100717	
3.6026	0	0	1.07067	-1.49784	-0.244874	0.0320145	4.72843	1.67585	-0.0200445	0.352108	4.62358	2.01307	0.131787	0.373898	0.381143	0.151325	1.68027	1.86174	0.373281	-0.441949	1.24135	1.99011	0.10047	-0.709087	0.497173	0.379392	-0.45301	-0.492671	-0.0997035	0.251781	-0.430305	-0.165403	0.009198	-0.1097	
3.59192	0	0	1.70451	-1.29674	-0.2452	0.059968	4.79914	1.80277	-0.057086	0.350992	4.70832	2.09176	0.184923	0.426946	0.405657	0.171317	1.87585	2.04735	0.38916	-0.445813	1.37749	2.14353	0.097754	-0.71634	0.561812	0.453178	-0.461024	-0.502784	-0.113431	0.221078	-0.425032	-0.166368	0.022947	-0.118684	
3.58734	0	0	2.02935	-1.29102	-0.209498	0.0675945	4.50994	1.6044	-0.106382	0.299473	4.38444	1.89317	0.204323	0.466665	0.367032	0.127702	1.92658	2.10937	0.329784	-0.468621	1.39431	2.14459	0.0677482	-0.735718	0.574944	0.448373	-0.44215	-0.490541	-0.150219	0.1983	-0.412357	-0.132353	0.0434148	-0.11664	
3.58276	0	0	2.35419	-1.2853	-0.173796	0.075221	4.22073	1.40603	-0.155678	0.247955	4.06056	1.69458	0.223723	0.506384	0.328407	0.0840875	1.9773	2.1714	0.270408	-0.49143	1.41114	2.14564	0.0377425	-0.755097	0.588076	0.443568	-0.423276	-0.478298	-0.187006	0.175523	-0.399681	-0.0983385	0.0638825	-0.114596	
3.57513	0	0	2.67904	-1.27958	-0.138094	0.0828475	3.93153	1.20766	-0.204975	0.196436	3.73669	1.49599	0.243123	0.546103	0.289783	0.0404728	2.02803	2.23343	0.211031	-0.514238	1.42796	2.14669	0.00773675	-0.774475	0.601208	0.438762	-0.404403	-0.466055	-0.223794	0.152746	-0.387006	-0.0643237	0.0843503	-0.112552	
3.57208	0	0	3.00388	-1.27386	-0.102392	0.090474	3.64232	1.00928	-0.254271	0.144917	3.41281	1.2974	0.262523	0.585822	0.251158	-0.003142	2.07876	2.29545	0.151655	-0.537046	1.44478	2.14774	-0.022269	-0.793854	0.61434	0.433957	-0.385529	-0.453812	-0.260581	0.129968	-0.37433	-0.030309	0.104818	-0.110508	
3.5675	0	0	3.07303	-1.15089	-0.0595982	0.106084	3.43218	0.855333	-0.276996	0.0955702	3.17934	1.14951	0.28571	0.61532	0.1968	-0.0387415	2.10148	2.3218	0.114394	-0.580153	1.43757	2.10739	-0.0371855	-0.810967	0.611614	0.409353	-0.377487	-0.443663	-0.289625	0.0975715	-0.357034	-0.00908875	0.110496	-0.126556	
3.5614	0	0	3.14218	-1.02793	-0.0168045	0.121694	3.22204	0.70138	-0.299721	0.0462235	2.94587	1.00162	0.308898	0.644818	0.142443	-0.074341	2.12421	2.34814	0.077133	-0.62326	1.43036	2.06704	-0.052102	-0.82808	0.608888	0.384749	-0.369444	-0.433513	-0.318669	0.065175	-0.339739	0.0121315	0.116175	-0.142603	
3.55682	0	0	3.21133	-0.904961	0.0259893	0.137305	3.0119	0.547427	-0.322447	-0.00312325	2.7124	0.853736	0.332086	0.674315	0.0880855	-0.10994	2.14693	2.37449	0.039872	-0.666366	1.42315	2.02669	-0.0670185	-0.845194	0.606162	0.360145	-0.361401	-0.423364	-0.347713	0.0327785	-0.322443	0.0333517	0.121854	-0.158651	
3.54767	0	0	3.28048	-0.781995	0.068783	0.152915	2.80175	0.393475	-0.345172	-0.05247	2.47892	0.705849	0.355273	0.703813	0.033728	-0.14554	2.16966	2.40083	0.002611	-0.709473	1.41594	1.98635	-0.081935	-0.862307	0.603436	0.335541	-0.353359	-0.413214	-0.376757	0.000382	-0.305148	0.054572	0.127532	-0.174699	
3.54767	0	0	3.35023	-0.655203	0.102667	0.180913	2.64408	0.297275	-0.359431	-0.078104	2.30866	0.606131	0.371208	0.738343	-0.0039055	-0.176733	2.17768	2.43011	-0.0247368	-0.739382	1.4003	1.94585	-0.091432	-0.865032	0.609832	0.301331	-0.348153	-0.394992	-0.383193	-0.0270242	-0.291282	0.085751	0.12895	-0.178706	
3.54156	0	0	3.41999	-0.528411	0.136551	0.208911	2.4864	0.201076	-0.37369	-0.103738	2.1384	0.506413	0.387142	0.772872	-0.041539	-0.207927	2.18571	2.45938	-0.0520845	-0.769291	1.38466	1.90535	-0.100929	-0.867757	0.616229	0.26712	-0.342946	-0.376769	-0.389629	-0.0544305	-0.277417	0.11693	0.130367	-0.182714	
3.53851	0	0	3.48975	-0.401619	0.170434	0.236909	2.32873	0.104876	-0.387948	-0.129372	1.96814	0.406695	0.403077	0.807401	-0.0791725	-0.23912	2.19373	2.48866	-0.0794322	-0.7992	1.36903	1.86486	-0.110426	-0.870481	0.622625	0.23291	-0.33774	-0.358546	-0.396064	-0.0818368	-0.263551	0.148109	0.131785	-0.186721	
3.53393	0	0	3.5595	-0.274827	0.204318	0.264907	2.17105	0.008676	-0.402207	-0.155006	1.79788	0.306977	0.419011	0.841931	-0.116806	-0.270313	2.20176	2.51793	-0.10678	-0.829109	1.35339	1.82436	-0.119923	-0.873206	0.629022	0.1987	-0.332534	-0.340324	-0.4025	-0.109243	-0.249686	0.179288	0.133203	-0.190728	
3.5263	0	0	3.68434	-0.297964	0.225084	0.289183	2.04979	-0.0646667	-0.418319	-0.17517	1.65998	0.248917	0.436865	0.871378	-0.156509	-0.282279	2.21017	2.53323	-0.130477	-0.842133	1.34057	1.78829	-0.126719	-0.868766	0.617112	0.184045	-0.321158	-0.32296	-0.412627	-0.114745	-0.243486	0.218251	0.135852	-0.183212	
3.52325	0	0	3.80917	-0.321102	0.24585	0.31346	1.92853	-0.13801	-0.434431	-0.195334	1.52207	0.190857	0.454719	0.900824	-0.196211	-0.294245	2.21857	2.54854	-0.154174	-0.855158	1.32776	1.75223	-0.133514	-0.864326	0.605201	0.16939	-0.309782	-0.305596	-0.422755	-0.120248	-0.237287	0.257215	0.138501	-0.175697	
3.52325	0	0	3.93401	-0.34424	0.266617	0.337736	1.80726	-0.211352	-0.450543	-0.215498	1.38417	0.132797	0.472572	0.930271	-0.235914	-0.306211	2.22698	2.56384	-0.177871	-0.868182	1.31494	1.71617	-0.14031	-0.859885	0.59329	0.154736	-0.298406	-0.288231	-0.432882	-0.12575	-0.231087	0.296178	0.141151	-0.168181	
3.5202	0	0	4.05884	-0.367377	0.287383	0.362012	1.686	-0.284695	-0.466655	-0.235662	1.24626	0.074737	0.490426	0.959717	-0.275617	-0.318177	2.23539	2.57914	-0.201568	-0.881207	1.30212	1.6801	-0.147105	-0.855445	0.58138	0.140081	-0.28703	-0.270867	-0.443009	-0.131252	-0.224887	0.335141	0.1438	-0.160665	
3.51562	0	0	4.03172	-0.290719	0.314964	0.353484	1.59632	-0.345093	-0.475061	-0.258692	1.14595	0.0137852	0.506869	0.961355	-0.306716	-0.341338	2.22819	2.57344	-0.228061	-0.885988	1.27964	1.64771	-0.155265	-0.847138	0.572917	0.115808	-0.27707	-0.249371	-0.451235	-0.130719	-0.211027	0.366816	0.153365	-0.157656	
3.51105	0	0	4.00459	-0.214062	0.342546	0.344955	1.50665	-0.405492	-0.483467	-0.281722	1.04564	-0.0471665	0.523312	0.962993	-0.337814	-0.3645	2.22099	2.56774	-0.254554	-0.890768	1.25715	1.61532	-0.163424	-0.838831	0.564454	0.0915355	-0.267109	-0.227875	-0.45946	-0.130186	-0.197166	0.39849	0.16293	-0.154646	
3.50647	0	0	3.97747	-0.137404	0.370127	0.336427	1.41697	-0.46589	-0.491872	-0.304752	0.945326	-0.108118	0.539754	0.964631	-0.368912	-0.387661	2.21379	2.56204	-0.281047	-0.895549	1.23466	1.58292	-0.171583	-0.830524	0.555991	0.0672628	-0.257149	-0.206378	-0.467686	-0.129653	-0.183306	0.430165	0.172494	-0.151637	
3.50799	0	0	3.95034	-0.060746	0.397709	0.327899	1.32729	-0.526288	-0.500278	-0.327782	0.845015	-0.16907	0.556197	0.966269	-0.400011	-0.410823	2.20659	2.55634	-0.30754	-0.90033	1.21217	1.55053	-0.179743	-0.822217	0.547528	0.04299	-0.247188	-0.184882	-0.475912	-0.12912	-0.169445	0.461839	0.182059	-0.148627	
3.50342	0	0	3.92298	0.0165758	0.425404	0.31931	1.26521	-0.582776	-0.495803	-0.35911	0.777139	-0.223807	0.565281	0.972738	-0.422312	-0.433714	2.20538	2.54674	-0.329575	-0.917368	1.18965	1.50684	-0.185158	-0.821654	0.542468	0.009224	-0.254371	-0.164581	-0.486005	-0.134615	-0.174682	0.490841	0.165388	-0.131554	
3.49731	0	0	3.89562	0.0938975	0.453099	0.310721	1.20312	-0.639263	-0.491328	-0.390439	0.709263	-0.278543	0.574364	0.979207	-0.444613	-0.456605	2.20417	2.53713	-0.351611	-0.934406	1.16712	1.46316	-0.190574	-0.821091	0.537408	-0.024542	-0.261555	-0.14428	-0.496098	-0.140109	-0.179919	0.519844	0.148718	-0.114482	
3.49731	0	0	3.86827	0.171219	0.480793	0.302131	1.14104	-0.695751	-0.486853	-0.421768	0.641387	-0.33328	0.583448	0.985675	-0.466914	-0.479496	2.20297	2.52753	-0.373646	-0.951445	1.14459	1.41947	-0.195989	-0.820528	0.532348	-0.058308	-0.268738	-0.123978	-0.506191	-0.145604	-0.185156	0.548847	0.132047	-0.0974088	
3.49121	0	0	3.84091	0.248541	0.508488	0.293542	1.07895	-0.752239	-0.482378	-0.453096	0.573511	-0.388017	0.592532	0.992144	-0.489215	-0.502387	2.20176	2.51793	-0.395682	-0.968483	1.12207	1.37578	-0.201404	-0.819965	0.527288	-0.092074	-0.275921	-0.103677	-0.516284	-0.151099	-0.190393	0.577849	0.115376	-0.080336	
3.48511	0	0	3.86827	0.171219	0.530446	0.30143	1.03194	-0.787667	-0.482018	-0.463448	0.517678	-0.41303	0.599722	1.00402	-0.4995	-0.510021	2.19577	2.52184	-0.408405	-0.985216	1.1065	1.33669	-0.200035	-0.823834	0.520501	-0.120834	-0.280239	-0.091474	-0.517824	-0.169392	-0.182027	0.582641	0.107258	-0.0873852	
3.48511	0	0	3.89562	0.0938975	0.552403	0.309317	0.984932	-0.823096	-0.481658	-0.473799	0.461846	-0.438043	0.606912	1.0159	-0.509785	-0.517656	2.18979	2.52575	-0.421127	-1.00195	1.09094	1.2976	-0.198666	-0.827702	0.513713	-0.149593	-0.284557	-0.079271	-0.519364	-0.187686	-0.173661	0.587434	0.0991395	-0.0944345	
3.48511	0	0	3.92298	0.0165758	0.574361	0.317205	0.937924	-0.858525	-0.481298	-0.48415	0.406013	-0.463056	0.614103	1.02777	-0.52007	-0.52529	2.18381	2.52966	-0.43385	-1.01868	1.07538	1.25851	-0.197298	-0.83157	0.506925	-0.178353	-0.288875	-0.067068	-0.520904	-0.205979	-0.165295	0.592226	0.0910212	-0.101484	
3.48358	0	0	3.95034	-0.060746	0.596318	0.325092	0.890915	-0.893953	-0.480938	-0.494502	0.35018	-0.488069	0.621293	1.03965	-0.530355	-0.532924	2.17782	2.53357	-0.446573	-1.03541	1.05982	1.21942	-0.195929	-0.835439	0.500138	-0.207113	-0.293193	-0.054865	-0.522444	-0.224272	-0.156929	0.597019	0.082903	-0.108533	
3.48511	0	0	3.79861	0.038397	0.608952	0.34553	0.847694	-0.908366	-0.481869	-0.491872	0.308654	-0.501628	0.634008	1.05211	-0.547213	-0.521908	2.18661	2.53476	-0.457234	-1.03157	1.0541	1.2001	-0.201408	-0.819955	0.497872	-0.216662	-0.28225	-0.052621	-0.524326	-0.230266	-0.162841	0.613727	0.084323	-0.112546	
3.48816	0	0	3.64689	0.13754	0.621586	0.365969	0.804472	-0.922779	-0.482799	-0.489241	0.267127	-0.515186	0.646722	1.06458	-0.564072	-0.510893	2.19539	2.53594	-0.467896	-1.02773	1.04838	1.18078	-0.206887	-0.804471	0.495605	-0.22621	-0.271307	-0.050377	-0.526208	-0.23626	-0.168753	0.630435	0.085743	-0.116559	
3.48968	0	0	3.49516	0.236683	0.634219	0.386408	0.761251	-0.937192	-0.48373	-0.486611	0.225601	-0.528745	0.659436	1.07705	-0.58093	-0.499877	2.20418	2.53713	-0.478558	-1.02389	1.04265	1.16145	-0.212365	-0.788986	0.493339	-0.235758	-0.260363	-0.048133	-0.52809	-0.242253	-0.174665	0.647144	0.087163	-0.120572	
3.49884	0	0	3.34343	0.335826	0.646853	0.406846	0.71803	-0.951605	-0.484661	-0.483981	0.184075	-0.542304	0.672151	1.08951	-0.597788	-0.488862	2.21297	2.53831	-0.489219	-1.02005	1.03693	1.14213	-0.217844	-0.773502	0.491073	-0.245307	-0.24942	-0.045889	-0.529972	-0.248247	-0.180577	0.663852	0.088583	-0.124585	
3.50647	0	0	3.34343	0.335826	0.64654	0.435864	0.68448	-0.962315	-0.493246	-0.478371	0.147334	-0.538553	0.668078	1.11718	-0.604395	-0.47019	2.20938	2.56147	-0.488927	-1.00773	1.03136	1.13428	-0.215256	-0.751323	0.494452	-0.254858	-0.251888	-0.0223057	-0.526981	-0.245386	-0.173393	0.672027	0.0843213	-0.112541	
3.51715	0	0	3.34343	0.335826	0.646228	0.464883	0.650929	-0.973024	-0.501831	-0.472762	0.110593	-0.534802	0.664004	1.14486	-0.611001	-0.451519	2.20579	2.58463	-0.488636	-0.995416	1.02578	1.12642	-0.212668	-0.729143	0.497832	-0.26441	-0.254356	0.0012775	-0.523991	-0.242526	-0.166208	0.680202	0.0800595	-0.100497	
3.52478	0	0	3.34343	0.335826	0.645916	0.493902	0.617379	-0.983734	-0.510417	-0.467152	0.073852	-0.531051	0.65993	1.17253	-0.617608	-0.432847	2.2022	2.60779	-0.488344	-0.9831	1.0202	1.11857	-0.210079	-0.706963	0.501212	-0.273962	-0.256825	0.0248608	-0.521	-0.239665	-0.159023	0.688376	0.0757977	-0.088453	
3.54004	0	0	3.34343	0.335826	0.645603	0.52292	0.583829	-0.994444	-0.519002	-0.461542	0.037111	-0.5273	0.655857	1.20021	-0.624215	-0.414175	2.19861	2.63095	-0.488052	-0.970785	1.01462	1.11071	-0.207491	-0.684784	0.504591	-0.283513	-0.259293	0.048444	-0.51801	-0.236804	-0.151839	0.696551	0.071536	-0.076409	
3.55224	0	0	3.34343	0.335826	0.649131	0.527035	0.56276	-1.00991	-0.51957	-0.469255	0.0107642	-0.532522	0.664981	1.20678	-0.632161	-0.391718	2.19701	2.63547	-0.49815	-0.942246	0.998337	1.12135	-0.211721	-0.658066	0.495565	-0.273945	-0.257034	0.0753195	-0.524667	-0.21799	-0.165518	0.720964	0.0739478	-0.0532323	
3.56445	0	0	3.34343	0.335826	0.652658	0.53115	0.541692	-1.02538	-0.520139	-0.476968	-0.0155825	-0.537743	0.674105	1.21336	-0.640108	-0.36926	2.19541	2.63999	-0.508248	-0.913708	0.982055	1.13199	-0.21595	-0.631349	0.48654	-0.264377	-0.254775	0.102195	-0.531324	-0.199175	-0.179196	0.745377	0.0763595	-0.0300555	
3.57818	0	0	3.34343	0.335826	0.656185	0.535264	0.520624	-1.04086	-0.520707	-0.484681	-0.0419293	-0.542965	0.683229	1.21994	-0.648054	-0.346803	2.19381	2.64451	-0.518347	-0.885169	0.965773	1.14263	-0.22018	-0.604631	0.477515	-0.254808	-0.252515	0.129071	-0.537982	-0.18036	-0.192875	0.76979	0.0787713	-0.00687875	
3.58581	0	0	3.34343	0.335826	0.659713	0.539379	0.499555	-1.05633	-0.521276	-0.492394	-0.068276	-0.548187	0.692353	1.22652	-0.656	-0.324346	2.19222	2.64903	-0.528445	-0.85663	0.949491	1.15327	-0.224409	-0.577914	0.468489	-0.24524	-0.250256	0.155946	-0.544639	-0.161546	-0.206554	0.794203	0.081183	0.016298	
3.59192	0	0	3.34343	0.335826	0.658801	0.55605	0.479486	-1.0594	-0.525563	-0.489592	-0.0890563	-0.539087	0.694028	1.23799	-0.651099	-0.301569	2.18741	2.66261	-0.532783	-0.844371	0.942481	1.13777	-0.219096	-0.563365	0.457213	-0.245211	-0.257529	0.1765	-0.555049	-0.154744	-0.215483	0.805204	0.063096	0.0374217	
3.5965	0	0	3.34343	0.335826	0.65789	0.572722	0.459418	-1.06248	-0.529851	-0.486791	-0.109837	-0.529988	0.695704	1.24946	-0.646197	-0.278792	2.18261	2.67618	-0.53712	-0.832112	0.935472	1.12227	-0.213782	-0.548817	0.445937	-0.245183	-0.264802	0.197053	-0.565458	-0.147942	-0.224412	0.816204	0.045009	0.0585455	
3.5965	0	0	3.34343	0.335826	0.656978	0.589393	0.439349	-1.06555	-0.534138	-0.48399	-0.130617	-0.520888	0.697379	1.26093	-0.641296	-0.256015	2.1778	2.68976	-0.541458	-0.819853	0.928462	1.10677	-0.208469	-0.534268	0.434661	-0.245154	-0.272074	0.217607	-0.575868	-0.14114	-0.233341	0.827205	0.026922	0.0796692	
3.59802	0	0	3.34343	0.335826	0.656066	0.606064	0.41928	-1.06863	-0.538426	-0.481188	-0.151397	-0.511788	0.699054	1.27239	-0.636395	-0.233238	2.173	2.70334	-0.545795	-0.807594	0.921453	1.09127	-0.203156	-0.519719	0.423385	-0.245125	-0.279347	0.23816	-0.586278	-0.134338	-0.24227	0.838206	0.008835	0.100793	
3.59497	0	0	3.22146	0.356587	0.665725	0.635252	0.398698	-1.05518	-0.539721	-0.468211	-0.160082	-0.497153	0.700455	1.30088	-0.629879	-0.202703	2.18417	2.72395	-0.53948	-0.799134	0.918678	1.08736	-0.206048	-0.496746	0.423385	-0.245125	-0.277513	0.249629	-0.595564	-0.130683	-0.255358	0.846758	0.00051225	0.109336	
3.59039	0	0	3.0995	0.377347	0.675383	0.66444	0.378115	-1.04173	-0.541017	-0.455234	-0.168767	-0.482518	0.701857	1.32937	-0.623363	-0.172168	2.19533	2.74456	-0.533165	-0.790674	0.915903	1.08345	-0.208941	-0.473772	0.423385	-0.245125	-0.275679	0.261099	-0.604851	-0.127028	-0.268446	0.855309	-0.0078105	0.117879	
3.59192	0	0	2.97753	0.398108	0.685041	0.693627	0.357533	-1.02828	-0.542312	-0.442257	-0.177452	-0.467882	0.703259	1.35786	-0.616847	-0.141632	2.2065	2.76518	-0.52685	-0.782215	0.913129	1.07953	-0.211833	-0.450798	0.423385	-0.245125	-0.273845	0.272568	-0.614138	-0.123372	-0.281533	0.863861	-0.0161333	0.126422	
3.58734	0	0	2.85557	0.418868	0.6947	0.722815	0.336951	-1.01483	-0.543608	-0.42928	-0.186137	-0.453247	0.70466	1.38635	-0.610331	-0.111097	2.21767	2.78579	-0.520535	-0.773755	0.910354	1.07562	-0.214725	-0.427825	0.423385	-0.245125	-0.272011	0.284037	-0.623424	-0.119717	-0.294621	0.872413	-0.024456	0.134965	
3.58124	0	0	2.85557	0.418868	0.689808	0.764948	0.320279	-0.997468	-0.552001	-0.40556	-0.193367	-0.432814	0.706029	1.41498	-0.600871	-0.0764625	2.22562	2.81564	-0.517119	-0.757064	0.910491	1.08699	-0.212212	-0.405292	0.423949	-0.230808	-0.288441	0.313818	-0.627868	-0.107157	-0.303537	0.883409	-0.030178	0.151136	
3.57361	0	0	2.85557	0.418868	0.684915	0.807082	0.303607	-0.980103	-0.560395	-0.38184	-0.200597	-0.412382	0.707399	1.44362	-0.591411	-0.041828	2.23357	2.84549	-0.513703	-0.740374	0.910628	1.09835	-0.209699	-0.382758	0.424514	-0.216491	-0.30487	0.343599	-0.632313	-0.094596	-0.312453	0.894405	-0.0359	0.167307	
3.56445	0	0	2.85557	0.418868	0.680022	0.849215	0.286934	-0.962737	-0.568788	-0.35812	-0.207827	-0.391949	0.708768	1.47225	-0.581952	-0.0071935	2.24152	2.87535	-0.510287	-0.723683	0.910765	1.10972	-0.207187	-0.360225	0.425079	-0.202173	-0.3213	0.373379	-0.636758	-0.0820355	-0.321368	0.9054	-0.041622	0.183479	
3.56445	0	0	2.85557	0.418868	0.67513	0.891348	0.270262	-0.945372	-0.577181	-0.3344	-0.215057	-0.371516	0.710137	1.50089	-0.572492	0.027441	2.24946	2.9052	-0.506871	-0.706992	0.910902	1.12109	-0.204674	-0.337691	0.425643	-0.187856	-0.33773	0.40316	-0.641202	-0.069475	-0.330284	0.916396	-0.047344	0.19965	
3.55224	0	0	2.88246	0.342863	0.660604	0.904094	0.261056	-0.949061	-0.588169	-0.331276	-0.230794	-0.356738	0.709834	1.51802	-0.574655	0.0581575	2.24416	2.93331	-0.50492	-0.686125	0.904298	1.13975	-0.210411	-0.306643	0.411545	-0.163927	-0.335923	0.414706	-0.64454	-0.060043	-0.333857	0.926493	-0.0476172	0.215401	
3.54614	0	0	2.90935	0.266858	0.646078	0.91684	0.25185	-0.952751	-0.599158	-0.328153	-0.246531	-0.341961	0.709531	1.53515	-0.576817	0.088874	2.23884	2.96142	-0.502968	-0.665257	0.897694	1.15842	-0.216147	-0.275595	0.397448	-0.139997	-0.334116	0.426251	-0.647877	-0.050611	-0.33743	0.936589	-0.0478905	0.231152	
3.53851	0	0	2.93625	0.190852	0.631552	0.929587	0.242645	-0.95644	-0.610146	-0.32503	-0.262269	-0.327183	0.709229	1.55228	-0.578979	0.11959	2.23353	2.98953	-0.501017	-0.644389	0.89109	1.17708	-0.221883	-0.244548	0.38335	-0.116068	-0.332309	0.437797	-0.651215	-0.041179	-0.341002	0.946686	-0.0481637	0.246902	
3.52783	0	0	2.96314	0.114847	0.617026	0.942333	0.233439	-0.960129	-0.621134	-0.321906	-0.278006	-0.312405	0.708926	1.56941	-0.581142	0.150307	2.22823	3.01764	-0.499066	-0.623522	0.884486	1.19575	-0.22762	-0.2135	0.369252	-0.092139	-0.330502	0.449342	-0.654552	-0.031747	-0.344575	0.956783	-0.048437	0.262653	
3.52173	0	0	2.8166	0.2106	0.622039	0.942314	0.224249	-0.963814	-0.623549	-0.324382	-0.286072	-0.309383	0.705022	1.58044	-0.580885	0.161896	2.22939	3.02747	-0.506598	-0.615431	0.880273	1.18415	-0.229019	-0.209546	0.370947	-0.0969287	-0.344034	0.470934	-0.668278	-0.0155195	-0.358824	0.968684	-0.0625143	0.287459	
3.5141	0	0	2.67006	0.306353	0.627051	0.942295	0.215058	-0.967499	-0.625964	-0.326859	-0.294137	-0.30636	0.701119	1.59147	-0.580628	0.173484	2.23055	3.0373	-0.51413	-0.607341	0.87606	1.17255	-0.230418	-0.205591	0.372642	-0.101718	-0.357567	0.492526	-0.682003	0.000708	-0.373074	0.980584	-0.0765915	0.312265	
3.50494	0	0	2.52352	0.402106	0.632064	0.942275	0.205868	-0.971185	-0.628379	-0.329335	-0.302203	-0.303337	0.697215	1.6025	-0.580372	0.185073	2.23171	3.04712	-0.521662	-0.59925	0.871847	1.16096	-0.231818	-0.201637	0.374337	-0.106508	-0.371099	0.514118	-0.695728	0.0169355	-0.387324	0.992485	-0.0906688	0.337071	
3.49884	0	0	2.37698	0.497859	0.637077	0.942256	0.196678	-0.97487	-0.630794	-0.331811	-0.310269	-0.300315	0.693312	1.61353	-0.580115	0.196662	2.23287	3.05695	-0.529194	-0.591159	0.867634	1.14936	-0.233217	-0.197683	0.376032	-0.111298	-0.384631	0.53571	-0.709454	0.033163	-0.401573	1.00439	-0.104746	0.361877	
3.48968	0	0	2.40364	0.422495	0.624564	0.963473	0.183049	-0.965965	-0.636006	-0.326379	-0.311304	-0.297391	0.6969	1.61968	-0.572833	0.200734	2.23566	3.0622	-0.526278	-0.599402	0.867504	1.13799	-0.238646	-0.197176	0.372101	-0.116088	-0.390821	0.536565	-0.715372	0.0273532	-0.412228	1.00617	-0.114205	0.358689	
3.48663	0	0	2.43031	0.347131	0.61205	0.98469	0.169421	-0.957059	-0.641217	-0.320947	-0.312338	-0.294467	0.700489	1.62583	-0.56555	0.204806	2.23845	3.06744	-0.523361	-0.607644	0.867374	1.12662	-0.244074	-0.196668	0.36817	-0.120879	-0.39701	0.537419	-0.72129	0.0215435	-0.422883	1.00795	-0.123664	0.3555	
3.48205	0	0	2.45698	0.271767	0.599536	1.00591	0.155792	-0.948154	-0.646428	-0.315515	-0.313372	-0.291544	0.704077	1.63198	-0.558267	0.208878	2.24123	3.07269	-0.520444	-0.615887	0.867244	1.11525	-0.249503	-0.196161	0.36424	-0.125669	-0.403199	0.538274	-0.727208	0.0157338	-0.433538	1.00974	-0.133123	0.352312	
3.47137	0	0	2.48364	0.196403	0.587023	1.02712	0.142163	-0.939249	-0.65164	-0.310083	-0.314407	-0.28862	0.707665	1.63813	-0.550985	0.21295	2.24402	3.07794	-0.517528	-0.624129	0.867114	1.10387	-0.254932	-0.195654	0.360309	-0.13046	-0.409389	0.539129	-0.733126	0.009924	-0.444193	1.01152	-0.142582	0.349124	
3.4729	0	0	2.48364	0.196403	0.591027	1.04411	0.13919	-0.930848	-0.655374	-0.29953	-0.315036	-0.276959	0.711255	1.64428	-0.546409	0.224703	2.24959	3.08845	-0.520444	-0.615887	0.867114	1.10387	-0.259131	-0.183786	0.356922	-0.120888	-0.415572	0.539981	-0.737195	0.0101655	-0.444193	1.01152	-0.148023	0.349559	
3.4668	0	0	2.48364	0.196403	0.595031	1.06111	0.136217	-0.922446	-0.659108	-0.288976	-0.315665	-0.265298	0.714845	1.65044	-0.541832	0.236455	2.25517	3.09896	-0.523361	-0.607644	0.867114	1.10387	-0.263331	-0.171918	0.353536	-0.111316	-0.421756	0.540833	-0.741264	0.010407	-0.444193	1.01152	-0.153465	0.349994	
3.46222	0	0	2.48364	0.196403	0.599035	1.0781	0.133245	-0.914045	-0.662843	-0.278423	-0.316293	-0.253638	0.718435	1.6566	-0.537256	0.248208	2.26075	3.10948	-0.526278	-0.599402	0.867114	1.10387	-0.26753	-0.16005	0.350149	-0.101744	-0.427939	0.541685	-0.745333	0.0106485	-0.444193	1.01152	-0.158906	0.35043	
3.45306	0	0	2.48364	0.196403	0.603039	1.09509	0.130272	-0.905644	-0.666577	-0.26787	-0.316922	-0.241977	0.722025	1.66275	-0.53268	0.259961	2.26632	3.11999	-0.529194	-0.591159	0.867114	1.10387	-0.271729	-0.148182	0.346762	-0.092172	-0.434122	0.542537	-0.749402	0.01089	-0.444193	1.01152	-0.164347	0.350865	
3.45306	0	0	2.33956	0.290547	0.588982	1.12066	0.112201	-0.884136	-0.678867	-0.251717	-0.325224	-0.218514	0.71973	1.68555	-0.530827	0.279444	2.26257	3.14373	-0.524346	-0.57846	0.865924	1.11898	-0.269106	-0.14076	0.341675	-0.077795	-0.439995	0.559137	-0.753854	0.0234728	-0.448961	1.025	-0.164656	0.366682	
3.44849	0	0	2.19549	0.38469	0.574926	1.14622	0.094129	-0.862628	-0.691156	-0.235564	-0.333527	-0.195051	0.717436	1.70836	-0.528975	0.298926	2.25883	3.16746	-0.519498	-0.56576	0.864734	1.13408	-0.266483	-0.133338	0.336588	-0.063418	-0.445869	0.575736	-0.758306	0.0360555	-0.453729	1.03847	-0.164965	0.382499	
3.44543	0	0	2.05141	0.478834	0.56087	1.17179	0.0760575	-0.84112	-0.703445	-0.219411	-0.341829	-0.171588	0.715141	1.73116	-0.527122	0.318409	2.25508	3.1912	-0.51465	-0.55306	0.863545	1.14918	-0.26386	-0.125916	0.3315	-0.049041	-0.451743	0.592336	-0.762759	0.0486382	-0.458497	1.05195	-0.165275	0.398316	
3.44238	0	0	1.90733	0.572978	0.546813	1.19736	0.057986	-0.819612	-0.715735	-0.203258	-0.350131	-0.148125	0.712846	1.75396	-0.525269	0.337892	2.25134	3.21494	-0.509802	-0.540361	0.862355	1.16428	-0.261237	-0.118494	0.326413	-0.034664	-0.457616	0.608935	-0.767211	0.061221	-0.463265	1.06542	-0.165584	0.414133	
3.43628	0	0	1.90733	0.572978	0.540301	1.20161	0.0526795	-0.81938	-0.719072	-0.203109	-0.35988	-0.130457	0.706949	1.77063	-0.530725	0.353309	2.24201	3.22814	-0.503263	-0.519169	0.858509	1.1869	-0.27107	-0.0907037	0.326935	-0.0202398	-0.460271	0.63306	-0.766886	0.0828238	-0.471626	1.08905	-0.164791	0.441811	
3.43475	0	0	1.90733	0.572978	0.53379	1.20587	0.047373	-0.819147	-0.722409	-0.20296	-0.369629	-0.112789	0.701051	1.78729	-0.53618	0.368727	2.23269	3.24135	-0.496725	-0.497978	0.854662	1.20952	-0.280903	-0.0629135	0.327457	-0.0058155	-0.462925	0.657185	-0.76656	0.104427	-0.479988	1.11268	-0.163997	0.469488	
3.43475	0	0	1.90733	0.572978	0.527278	1.21012	0.0420665	-0.818914	-0.725747	-0.202811	-0.379377	-0.095121	0.695154	1.80396	-0.541635	0.384144	2.22336	3.25455	-0.490186	-0.476787	0.850816	1.23213	-0.290737	-0.0351233	0.327978	0.00860875	-0.465579	0.681309	-0.766235	0.126029	-0.488349	1.13631	-0.163204	0.497166	
3.43017	0	0	1.90733	0.572978	0.520767	1.21437	0.03676	-0.818682	-0.729084	-0.202662	-0.389126	-0.077453	0.689257	1.82063	-0.547091	0.399562	2.21404	3.26776	-0.483647	-0.455595	0.84697	1.25475	-0.30057	-0.007333	0.3285	0.023033	-0.468234	0.705434	-0.76591	0.147632	-0.49671	1.15994	-0.16241	0.524844	
3.43017	0	0	1.90733	0.572978	0.522746	1.22293	0.0269915	-0.805828	-0.730954	-0.197376	-0.390828	-0.0627585	0.692836	1.82684	-0.545494	0.407422	2.2124	3.27238	-0.488053	-0.443142	0.842887	1.25455	-0.304793	0.00460375	0.321183	0.0278145	-0.475615	0.726295	-0.773741	0.169765	-0.498577	1.17938	-0.176892	0.565773	
3.4256	0	0	1.90733	0.572978	0.524725	1.23149	0.017223	-0.792974	-0.732825	-0.19209	-0.392531	-0.048064	0.696414	1.83306	-0.543898	0.415282	2.21076	3.27701	-0.49246	-0.43069	0.838804	1.25434	-0.309017	0.0165405	0.313865	0.032596	-0.482997	0.747156	-0.781573	0.191898	-0.500444	1.19881	-0.191374	0.606701	
3.42407	0	0	1.90733	0.572978	0.526704	1.24004	0.0074545	-0.78012	-0.734696	-0.186804	-0.394233	-0.0333695	0.699993	1.83928	-0.542301	0.423142	2.20912	3.28164	-0.496866	-0.418237	0.83472	1.25413	-0.313241	0.0284773	0.306547	0.0373775	-0.490378	0.768017	-0.789404	0.214031	-0.502311	1.21825	-0.205856	0.647629	
3.42255	0	0	1.90733	0.572978	0.528683	1.2486	-0.002314	-0.767266	-0.736566	-0.181518	-0.395935	-0.018675	0.703572	1.84549	-0.540705	0.431002	2.20749	3.28627	-0.501272	-0.405784	0.830637	1.25392	-0.317464	0.040414	0.29923	0.042159	-0.49776	0.788878	-0.797236	0.236164	-0.504178	1.23768	-0.220338	0.688558	
3.42407	0	0	1.90733	0.572978	0.526565	1.28291	-0.0112658	-0.741967	-0.739786	-0.163135	-0.393767	0.00487875	0.705179	1.8573	-0.531811	0.443032	2.21139	3.30154	-0.502535	-0.388973	0.827989	1.26141	-0.309432	0.0474205	0.297529	0.0469668	-0.509848	0.806417	-0.803541	0.242718	-0.513094	1.24872	-0.22179	0.692661	
3.42712	0	0	1.90733	0.572978	0.524447	1.31722	-0.0202175	-0.716668	-0.743006	-0.144751	-0.391598	0.0284325	0.706786	1.8691	-0.522917	0.455062	2.2153	3.3168	-0.503797	-0.372163	0.825341	1.26889	-0.301401	0.054427	0.295828	0.0517745	-0.521935	0.823956	-0.809845	0.249271	-0.52201	1.25976	-0.223242	0.696765	
3.43017	0	0	1.90733	0.572978	0.522329	1.35154	-0.0291693	-0.691368	-0.746226	-0.126367	-0.389429	0.0519862	0.708394	1.8809	-0.514024	0.467091	2.2192	3.33207	-0.505059	-0.355353	0.822694	1.27637	-0.293369	0.0614335	0.294127	0.0565823	-0.534022	0.841495	-0.81615	0.255825	-0.530925	1.2708	-0.224694	0.700868	
3.43323	0	0	1.90733	0.572978	0.520211	1.38585	-0.038121	-0.666069	-0.749446	-0.107984	-0.387261	0.07554	0.710001	1.89271	-0.50513	0.479121	2.22311	3.34734	-0.506322	-0.338542	0.820046	1.28385	-0.285337	0.06844	0.292426	0.06139	-0.54611	0.859034	-0.822455	0.262379	-0.539841	1.28184	-0.226146	0.704971	
3.43475	0	0	1.90733	0.572978	0.516513	1.42467	-0.0350113	-0.64534	-0.754563	-0.0842375	-0.3837	0.105126	0.709237	1.9276	-0.5031	0.510624	2.22537	3.36731	-0.501298	-0.312957	0.821579	1.30302	-0.29122	0.099938	0.291224	0.0806868	-0.545869	0.874974	-0.816569	0.268278	-0.549955	1.29628	-0.223612	0.712787	
3.44238	0	0	1.90733	0.572978	0.512815	1.46349	-0.0319015	-0.62461	-0.759679	-0.060491	-0.380139	0.134711	0.708473	1.96249	-0.501071	0.542127	2.22762	3.38728	-0.496274	-0.287372	0.823111	1.3222	-0.297103	0.131436	0.290022	0.0999835	-0.545627	0.890915	-0.810682	0.274177	-0.560069	1.31071	-0.221078	0.720603	
3.44849	0	0	1.90733	0.572978	0.509117	1.50232	-0.0287918	-0.603881	-0.764795	-0.0367445	-0.376578	0.164297	0.707709	1.99738	-0.499042	0.57363	2.22988	3.40725	-0.491249	-0.261787	0.824644	1.34137	-0.302987	0.162934	0.288819	0.11928	-0.545386	0.906855	-0.804795	0.280077	-0.570184	1.32515	-0.218543	0.72842	
3.46374	0	0	1.90733	0.572978	0.505419	1.54114	-0.025682	-0.583152	-0.769912	-0.012998	-0.373017	0.193883	0.706945	2.03228	-0.497012	0.605133	2.23213	3.42722	-0.486225	-0.236202	0.826177	1.36054	-0.30887	0.194432	0.287617	0.138577	-0.545145	0.922795	-0.798909	0.285976	-0.580298	1.33958	-0.216009	0.736236	
3.4729	0	0	1.79208	0.590832	0.497773	1.56275	-0.0369778	-0.565993	-0.78034	-0.002096	-0.377578	0.22663	0.697011	2.06035	-0.493638	0.63291	2.23272	3.45194	-0.476579	-0.210286	0.826364	1.38354	-0.309367	0.225614	0.279074	0.16272	-0.538737	0.937976	-0.804525	0.301847	-0.582702	1.34638	-0.2124	0.756031	
3.48663	0	0	1.67682	0.608687	0.490127	1.58435	-0.0482735	-0.548834	-0.790768	0.008806	-0.382139	0.259377	0.687078	2.08843	-0.490263	0.660686	2.23331	3.47666	-0.466932	-0.184371	0.82655	1.40655	-0.309864	0.256797	0.270531	0.186864	-0.53233	0.953156	-0.81014	0.317718	-0.585106	1.35317	-0.208792	0.775826	
3.49884	0	0	1.56157	0.626541	0.482482	1.60596	-0.0595693	-0.531675	-0.801197	0.019708	-0.3867	0.292124	0.677144	2.1165	-0.486889	0.688463	2.2339	3.50138	-0.457286	-0.158455	0.826736	1.42955	-0.310362	0.287979	0.261988	0.211007	-0.525922	0.968336	-0.815756	0.333589	-0.587509	1.35997	-0.205184	0.795621	
3.51715	0	0	1.44632	0.644395	0.474836	1.62757	-0.070865	-0.514516	-0.811625	0.03061	-0.391261	0.324871	0.66721	2.14458	-0.483514	0.71624	2.23449	3.5261	-0.447639	-0.13254	0.826923	1.45256	-0.310859	0.319162	0.253445	0.23515	-0.519514	0.983517	-0.821372	0.34946	-0.589913	1.36676	-0.201575	0.815416	
3.5263	0	0	1.47254	0.570282	0.458715	1.64476	-0.0723667	-0.510273	-0.816836	0.0360603	-0.395488	0.336818	0.665219	2.1502	-0.481934	0.724227	2.22841	3.53006	-0.458226	-0.115927	0.820173	1.45986	-0.315132	0.331238	0.247838	0.235098	-0.534626	1.00957	-0.826998	0.365359	-0.59642	1.37101	-0.211804	0.844324	
3.54004	0	0	1.49877	0.496169	0.442593	1.66195	-0.0738685	-0.506029	-0.822048	0.0415105	-0.399716	0.348766	0.663229	2.15583	-0.480353	0.732214	2.22234	3.53403	-0.468814	-0.0993135	0.813422	1.46717	-0.319406	0.343315	0.242231	0.235045	-0.549737	1.03563	-0.832623	0.381259	-0.602927	1.37526	-0.222033	0.873233	
3.55377	0	0	1.52499	0.422055	0.426472	1.67914	-0.0753702	-0.501785	-0.827259	0.0469607	-0.403943	0.360713	0.661238	2.16145	-0.478772	0.740202	2.21627	3.538	-0.479402	-0.0827003	0.806672	1.47448	-0.323679	0.355392	0.236624	0.234992	-0.564849	1.06168	-0.838249	0.397158	-0.609433	1.37951	-0.232261	0.902141	
3.56293	0	0	1.55121	0.347942	0.410351	1.69633	-0.076872	-0.497542	-0.83247	0.052411	-0.40817	0.37266	0.659248	2.16708	-0.477192	0.748189	2.21019	3.54197	-0.489989	-0.066087	0.799922	1.48178	-0.327952	0.367468	0.231017	0.23494	-0.579961	1.08774	-0.843875	0.413057	-0.61594	1.38376	-0.24249	0.931049	
3.56903	0	0	1.55121	0.347942	0.40575	1.70933	-0.0851642	-0.48886	-0.835295	0.0603955	-0.405713	0.375652	0.657256	2.17271	-0.474226	0.752271	2.21019	3.54197	-0.492967	-0.0576698	0.791764	1.48132	-0.332231	0.379561	0.223706	0.239717	-0.586127	1.08853	-0.85087	0.410291	-0.622932	1.37528	-0.236641	0.914519	
3.57361	0	0	1.55121	0.347942	0.40115	1.72233	-0.0934565	-0.480177	-0.838121	0.06838	-0.403255	0.378643	0.655264	2.17834	-0.471261	0.756354	2.21019	3.54197	-0.495945	-0.0492525	0.783605	1.48086	-0.33651	0.391653	0.216394	0.244495	-0.592294	1.08932	-0.857865	0.407525	-0.629924	1.3668	-0.230792	0.897988	
3.57818	0	0	1.55121	0.347942	0.396549	1.73534	-0.101749	-0.471494	-0.840946	0.0763645	-0.400798	0.381634	0.653272	2.18397	-0.468296	0.760436	2.21019	3.54197	-0.498924	-0.0408353	0.775447	1.4804	-0.340788	0.403746	0.209083	0.249272	-0.598461	1.09011	-0.864861	0.40476	-0.636916	1.35832	-0.224943	0.881458	
3.58124	0	0	1.55121	0.347942	0.391948	1.74834	-0.110041	-0.462812	-0.843771	0.084349	-0.398341	0.384626	0.65128	2.18959	-0.46533	0.764519	2.21019	3.54197	-0.501902	-0.032418	0.767289	1.47994	-0.345067	0.415839	0.201772	0.254049	-0.604627	1.0909	-0.871856	0.401994	-0.643908	1.34984	-0.219094	0.864927	
3.58276	0	0	1.43783	0.365521	0.384265	1.77005	-0.113047	-0.454315	-0.846599	0.0923405	-0.402577	0.396597	0.649287	2.19523	-0.458007	0.768774	2.20688	3.55132	-0.497267	-0.032209	0.761882	1.48348	-0.347923	0.42391	0.201772	0.254049	-0.603137	1.08669	-0.876596	0.392881	-0.648497	1.33461	-0.22706	0.857447	
3.58887	0	0	1.32445	0.3831	0.376582	1.79177	-0.116054	-0.445818	-0.849427	0.100332	-0.406813	0.408569	0.647294	2.20086	-0.450685	0.773028	2.20357	3.56067	-0.492631	-0.032	0.756476	1.48701	-0.350779	0.431981	0.201772	0.254049	-0.601646	1.08248	-0.881336	0.383768	-0.653085	1.31938	-0.235026	0.849967	
3.58887	0	0	1.21106	0.400679	0.368899	1.81348	-0.11906	-0.437321	-0.852254	0.108324	-0.411048	0.42054	0.645301	2.20649	-0.443362	0.777283	2.20027	3.57002	-0.487996	-0.031791	0.751069	1.49054	-0.353635	0.440052	0.201772	0.254049	-0.600156	1.07827	-0.886075	0.374655	-0.657674	1.30415	-0.242992	0.842487	
3.58887	0	0	1.09768	0.418258	0.361216	1.83519	-0.122067	-0.428824	-0.855082	0.116315	-0.415284	0.432511	0.643308	2.21212	-0.436039	0.781538	2.19696	3.57937	-0.483361	-0.031582	0.745662	1.49407	-0.356491	0.448123	0.201772	0.254049	-0.598666	1.07405	-0.890815	0.365542	-0.662263	1.28892	-0.250958	0.835007	
3.6026	0	0	1.12347	0.345355	0.353514	1.85696	-0.131861	-0.415885	-0.86739	0.132558	-0.41495	0.441508	0.644864	2.22412	-0.442986	0.80117	2.19972	3.58477	-0.481706	-0.0229407	0.751069	1.49054	-0.35535	0.459804	0.200062	0.258883	-0.598666	1.07405	-0.897113	0.372097	-0.663961	1.27963	-0.2495	0.830887	
3.60412	0	0	1.14927	0.272452	0.345813	1.87872	-0.141655	-0.402946	-0.879698	0.148801	-0.414616	0.450506	0.646421	2.23611	-0.449932	0.820802	2.20248	3.59016	-0.480051	-0.0142995	0.756476	1.48701	-0.354209	0.471486	0.198351	0.263717	-0.598666	1.07405	-0.903412	0.378653	-0.665659	1.27035	-0.248042	0.826766	
3.61023	0	0	1.17506	0.199549	0.338112	1.90049	-0.15145	-0.390008	-0.892007	0.165044	-0.414282	0.459504	0.647977	2.2481	-0.456878	0.840434	2.20524	3.59555	-0.478397	-0.00565825	0.761882	1.48348	-0.353067	0.483167	0.19664	0.268551	-0.598666	1.07405	-0.90971	0.385209	-0.667356	1.26106	-0.246584	0.822646	
3.61328	0	0	1.20086	0.126646	0.33041	1.92226	-0.161244	-0.377069	-0.904315	0.181287	-0.413948	0.468501	0.649533	2.26009	-0.463825	0.860066	2.208	3.60094	-0.476742	0.002983	0.767289	1.47994	-0.351926	0.494848	0.19493	0.273385	-0.598666	1.07405	-0.916008	0.391764	-0.669054	1.25178	-0.245126	0.818526	
3.62701	0	0	1.08929	0.143958	0.317023	1.91761	-0.16351	-0.385394	-0.913326	0.178975	-0.426607	0.474467	0.634454	2.26994	-0.466608	0.867931	2.18814	3.61753	-0.47808	0.0200922	0.757883	1.49478	-0.357656	0.511041	0.191506	0.28306	-0.610789	1.09169	-0.914205	0.397912	-0.658989	1.23741	-0.234238	0.817748	
3.62396	0	0	0.97771	0.16127	0.303636	1.91297	-0.165776	-0.39372	-0.922337	0.176662	-0.439265	0.480434	0.619374	2.27979	-0.46939	0.875796	2.16827	3.63411	-0.479418	0.0372015	0.748477	1.50961	-0.363386	0.527235	0.188083	0.292736	-0.622912	1.10933	-0.912402	0.40406	-0.648923	1.22305	-0.223351	0.816971	
3.62854	0	0	0.866135	0.178581	0.29025	1.90833	-0.168043	-0.402045	-0.931348	0.174349	-0.451924	0.4864	0.604295	2.28965	-0.472173	0.883661	2.14841	3.65069	-0.480756	0.0543107	0.739071	1.52445	-0.369115	0.543428	0.18466	0.302411	-0.635036	1.12697	-0.910598	0.410208	-0.638858	1.20869	-0.212463	0.816194	
3.63159	0	0	0.75456	0.195893	0.276863	1.90368	-0.170309	-0.41037	-0.940359	0.172037	-0.464583	0.492366	0.589216	2.2995	-0.474956	0.891526	2.12854	3.66727	-0.482094	0.07142	0.729665	1.53928	-0.374845	0.559621	0.181236	0.312087	-0.647159	1.14461	-0.908795	0.416356	-0.628793	1.19432	-0.201575	0.815416	
3.63159	0	0	0.75456	0.195893	0.278402	1.89933	-0.170309	-0.41037	-0.937531	0.164045	-0.468091	0.492354	0.591213	2.29386	-0.476349	0.895461	2.1214	3.66114	-0.477608	0.0587435	0.726855	1.52375	-0.371979	0.551521	0.170056	0.311954	-0.647159	1.14461	-0.918471	0.432459	-0.630503	1.18507	-0.214321	0.836435	
3.62701	0	0	0.75456	0.195893	0.279941	1.89499	-0.170309	-0.41037	-0.934703	0.156054	-0.471599	0.492341	0.59321	2.28821	-0.477741	0.899396	2.11425	3.65501	-0.473123	0.046067	0.724045	1.50822	-0.369112	0.54342	0.158876	0.311821	-0.647159	1.14461	-0.928148	0.448562	-0.632213	1.17582	-0.227067	0.857455	
3.62701	5	0	0.75456	0.195893	0.281479	1.89064	-0.170309	-0.41037	-0.931876	0.148062	-0.475106	0.492329	0.595207	2.28257	-0.479133	0.903331	2.1071	3.64889	-0.468638	0.0333905	0.721235	1.49269	-0.366246	0.535319	0.147695	0.311688	-0.647159	1.14461	-0.937825	0.464665	-0.633924	1.16657	-0.239813	0.878474	
3.61786	5	0	0.75456	0.195893	0.283018	1.88629	-0.170309	-0.41037	-0.929048	0.14007	-0.478614	0.492317	0.597204	2.27693	-0.480526	0.907266	2.09996	3.64276	-0.464152	0.020714	0.718425	1.47716	-0.36338	0.527219	0.136515	0.311555	-0.647159	1.14461	-0.947501	0.480768	-0.635634	1.15732	-0.252559	0.899493	
3.61633	5	0	0.75456	0.195893	0.281828	1.9038	-0.174822	-0.397615	-0.93802	0.156175	-0.476167	0.495328	0.593209	2.28822	-0.474603	0.91551	2.10436	3.64348	-0.462658	0.0164925	0.717017	1.46941	-0.370241	0.531702	0.138226	0.306721	-0.645668	1.1404	-0.951547	0.480965	-0.633251	1.15059	-0.249637	0.891235	
3.61175	5	0	0.75456	0.195893	0.280638	1.92131	-0.179335	-0.38486	-0.946991	0.172281	-0.47372	0.498339	0.589214	2.29951	-0.46868	0.923754	2.10876	3.6442	-0.461164	0.012271	0.71561	1.46166	-0.377101	0.536185	0.139936	0.301887	-0.644176	1.13618	-0.955593	0.481163	-0.630868	1.14385	-0.246715	0.882978	
3.6026	5	0	0.75456	0.195893	0.279448	1.93882	-0.183849	-0.372105	-0.955963	0.188386	-0.471274	0.501349	0.585219	2.3108	-0.462756	0.931998	2.11316	3.64492	-0.459671	0.0080495	0.714202	1.45392	-0.383962	0.540668	0.141647	0.297053	-0.642684	1.13197	-0.959638	0.48136	-0.628485	1.13712	-0.243793	0.874721	
3.59497	5	0	0.75456	0.195893	0.278258	1.95633	-0.188362	-0.35935	-0.964935	0.204491	-0.468827	0.50436	0.581224	2.32209	-0.456833	0.940242	2.11756	3.64565	-0.458177	0.003828	0.712795	1.44617	-0.390823	0.545151	0.143357	0.292219	-0.641193	1.12775	-0.963684	0.481558	-0.626102	1.13038	-0.240871	0.866463	
3.58887	5	0	0.75456	0.195893	0.267444	1.98689	-0.189119	-0.342481	-0.96303	0.217612	-0.464993	0.513392	0.592303	2.32354	-0.450904	0.948504	2.12471	3.65178	-0.455027	0.008262	0.716862	1.4464	-0.390823	0.545151	0.147234	0.29712	-0.642684	1.13197	-0.96481	0.48474	-0.626102	1.13038	-0.233966	0.861951	
3.58124	5	0	0.75456	0.195893	0.25663	2.01746	-0.189876	-0.325612	-0.961124	0.230733	-0.461159	0.522424	0.603382	2.32499	-0.444975	0.956765	2.13186	3.65791	-0.451877	0.012696	0.72093	1.44663	-0.390823	0.545151	0.151111	0.302021	-0.644176	1.13618	-0.965936	0.487922	-0.626102	1.13038	-0.227061	0.857439	
3.56903	5	0	0.75456	0.195893	0.245816	2.04802	-0.190633	-0.308743	-0.959219	0.243853	-0.457325	0.531456	0.614462	2.32644	-0.439046	0.965027	2.13902	3.66404	-0.448726	0.01713	0.724997	1.44686	-0.390823	0.545151	0.154988	0.306923	-0.645668	1.1404	-0.967062	0.491104	-0.626102	1.13038	-0.220157	0.852928	
3.56598	5	0	0.75456	0.195893	0.235002	2.07858	-0.19139	-0.291874	-0.957314	0.256974	-0.453491	0.540488	0.625541	2.32789	-0.433117	0.973288	2.14617	3.67017	-0.445576	0.021564	0.729065	1.44709	-0.390823	0.545151	0.158865	0.311824	-0.647159	1.14461	-0.968188	0.494286	-0.626102	1.13038	-0.213252	0.848416	
3.55377	5	0	0.75456	0.195893	0.228168	2.06961	-0.195153	-0.29597	-0.967251	0.257307	-0.462635	0.546463	0.615996	2.33848	-0.438876	0.977051	2.13844	3.67882	-0.443921	0.0302325	0.723743	1.46213	-0.393689	0.553251	0.15544	0.321505	-0.642494	1.14805	-0.964605	0.506641	-0.617901	1.13539	-0.205272	0.855904	
3.54309	5	0	0.75456	0.195893	0.221333	2.06064	-0.198915	-0.300065	-0.977189	0.25764	-0.471779	0.552437	0.606452	2.34907	-0.444635	0.980815	2.13072	3.68747	-0.442265	0.038901	0.71842	1.47717	-0.396555	0.561352	0.152014	0.331186	-0.637829	1.15149	-0.961023	0.518997	-0.6097	1.14039	-0.197292	0.863393	
3.53546	5	0	0.75456	0.195893	0.214499	2.05167	-0.202678	-0.304161	-0.987126	0.257972	-0.480923	0.558412	0.596907	2.35965	-0.450395	0.984578	2.123	3.69612	-0.440609	0.0475695	0.713098	1.49221	-0.399422	0.569452	0.148588	0.340866	-0.633163	1.15493	-0.95744	0.531353	-0.601499	1.14539	-0.189311	0.870881	
3.52325	5	0	0.75456	0.195893	0.207665	2.0427	-0.20644	-0.308257	-0.997063	0.258305	-0.490067	0.564387	0.587362	2.37024	-0.456154	0.988341	2.11527	3.70477	-0.438954	0.056238	0.707776	1.50725	-0.402288	0.577552	0.145163	0.350547	-0.628498	1.15837	-0.953857	0.543708	-0.593298	1.15039	-0.181331	0.878369	
3.5141	5	0	0.644939	0.212374	0.205793	2.03386	-0.211707	-0.308091	-0.995174	0.252967	-0.49251	0.561366	0.581828	2.36951	-0.45336	0.980445	2.10813	3.69863	-0.436128	0.034905	0.704966	1.49175	-0.401982	0.561794	0.14129	0.345635	-0.633163	1.15493	-0.959032	0.54709	-0.595685	1.15713	-0.18971	0.887023	
3.50799	5	0	0.535319	0.228855	0.203922	2.02503	-0.216973	-0.307924	-0.993285	0.247629	-0.494953	0.558345	0.576293	2.36877	-0.450566	0.972549	2.10099	3.69249	-0.433303	0.013572	0.702156	1.47625	-0.401677	0.546037	0.137416	0.340724	-0.637829	1.15149	-0.964207	0.550471	-0.598071	1.16388	-0.19809	0.895678	
3.49731	5	0	0.425698	0.245337	0.20205	2.01619	-0.22224	-0.307758	-0.991396	0.242291	-0.497397	0.555325	0.570758	2.36804	-0.447772	0.964652	2.09385	3.68634	-0.430477	-0.007761	0.699346	1.46075	-0.401371	0.53028	0.133543	0.335813	-0.642494	1.14805	-0.969382	0.553852	-0.600458	1.17062	-0.206469	0.904332	
3.48968	5	0	0.316077	0.261818	0.200179	2.00735	-0.227507	-0.307592	-0.989507	0.236953	-0.49984	0.552304	0.565224	2.36731	-0.444978	0.956756	2.08671	3.6802	-0.427651	-0.029094	0.696536	1.44525	-0.401066	0.514522	0.12967	0.330901	-0.647159	1.14461	-0.974557	0.557234	-0.602845	1.17737	-0.214848	0.912987	
3.48663	5	0	0.341256	0.190657	0.197093	2.01607	-0.229014	-0.303332	-0.986196	0.236841	-0.498778	0.549303	0.565224	2.36731	-0.446547	0.948686	2.08836	3.67552	-0.427824	-0.041941	0.697781	1.43002	-0.402199	0.502841	0.127508	0.321165	-0.65182	1.14118	-0.976345	0.55105	-0.609332	1.18161	-0.218833	0.909234	
3.48205	5	0	0.366436	0.119497	0.194007	2.02479	-0.230521	-0.299072	-0.982885	0.236729	-0.497716	0.546301	0.565224	2.36731	-0.448115	0.940615	2.09002	3.67084	-0.427998	-0.054788	0.699026	1.41479	-0.403332	0.49116	0.125347	0.311428	-0.656481	1.13774	-0.978133	0.544866	-0.615819	1.18585	-0.222818	0.90548	
3.479	5	0	0.391615	0.0483365	0.190921	2.03352	-0.232029	-0.294812	-0.979574	0.236617	-0.496654	0.5433	0.565224	2.36731	-0.449684	0.932544	2.09168	3.66616	-0.428171	-0.067635	0.70027	1.39956	-0.404465	0.479479	0.123186	0.301692	-0.661143	1.13431	-0.979921	0.538683	-0.622306	1.19009	-0.226802	0.901726	
3.47748	5	0	0.416794	-0.022824	0.187835	2.04224	-0.233536	-0.290552	-0.976263	0.236505	-0.495592	0.540299	0.565224	2.36731	-0.451253	0.924474	2.09333	3.66147	-0.428345	-0.080482	0.701515	1.38433	-0.405598	0.467798	0.121024	0.291955	-0.665804	1.13088	-0.981709	0.532499	-0.628793	1.19432	-0.230787	0.897973	
3.47748	5	0	0.441774	-0.0934217	0.178249	2.05521	-0.235044	-0.28629	-0.982408	0.244625	-0.496654	0.5433	0.565224	2.36731	-0.452824	0.916416	2.09499	3.65679	-0.426855	-0.0846915	0.704165	1.37684	-0.409588	0.464203	0.121024	0.291955	-0.665804	1.13088	-0.981709	0.532499	-0.629987	1.1977	-0.223876	0.893458	
3.47442	5	0	0.466755	-0.16402	0.168664	2.06819	-0.236552	-0.282029	-0.988552	0.252746	-0.497716	0.546301	0.565224	2.36731	-0.454395	0.908359	2.09665	3.65212	-0.425366	-0.088901	0.706815	1.36936	-0.413578	0.460608	0.121024	0.291955	-0.665804	1.13088	-0.981709	0.532499	-0.631181	1.20107	-0.216966	0.888942	
3.47748	5	0	0.491735	-0.234617	0.159078	2.08116	-0.23806	-0.277767	-0.994697	0.260866	-0.498778	0.549303	0.565224	2.36731	-0.455965	0.900302	2.0983	3.64744	-0.423876	-0.0931105	0.709464	1.36187	-0.417567	0.457013	0.121024	0.291955	-0.665804	1.13088	-0.981709	0.532499	-0.632375	1.20445	-0.210056	0.884427	
3.47137	5	0	0.516715	-0.305215	0.149492	2.09414	-0.239568	-0.273505	-1.00084	0.268986	-0.49984	0.552304	0.565224	2.36731	-0.457536	0.892244	2.09996	3.64276	-0.422387	-0.09732	0.712114	1.35438	-0.421557	0.453418	0.121024	0.291955	-0.665804	1.13088	-0.981709	0.532499	-0.633569	1.20782	-0.203145	0.879911	
3.47595	5	0	0.408591	-0.288414	0.140829	2.07634	-0.245567	-0.285952	-1.00368	0.258533	-0.507163	0.543257	0.561694	2.36092	-0.460682	0.876168	2.09173	3.62659	-0.41476	-0.105539	0.704078	1.36539	-0.420131	0.449387	0.115446	0.291887	-0.667295	1.13509	-0.976537	0.529119	-0.634764	1.2112	-0.203145	0.879911	
3.47137	5	0	0.300466	-0.271613	0.132167	2.05854	-0.251566	-0.298399	-1.00652	0.248081	-0.514487	0.534209	0.558165	2.35454	-0.463828	0.860093	2.0835	3.61042	-0.407133	-0.113758	0.696041	1.3764	-0.418704	0.445356	0.109869	0.29182	-0.668786	1.1393	-0.971366	0.52574	-0.635958	1.21457	-0.203145	0.879911	
3.46832	5	0	0.192341	-0.254811	0.123505	2.04073	-0.257565	-0.310845	-1.00936	0.237628	-0.52181	0.525161	0.554635	2.34815	-0.466975	0.844017	2.07528	3.59425	-0.399505	-0.121976	0.688005	1.3874	-0.417278	0.441325	0.104291	0.291752	-0.670276	1.14352	-0.966194	0.522361	-0.637153	1.21795	-0.203145	0.879911	
3.46832	5	0	0.084217	-0.23801	0.114842	2.02293	-0.263564	-0.323292	-1.0122	0.227176	-0.529134	0.516114	0.551106	2.34177	-0.470121	0.827941	2.06705	3.57808	-0.391878	-0.130195	0.679969	1.39841	-0.415851	0.437294	0.098713	0.291684	-0.671767	1.14773	-0.961022	0.518981	-0.638347	1.22132	-0.203145	0.879911	
3.46527	5	0	-0.0220713	-0.22199	0.112654	2.00098	-0.271062	-0.331458	-1.00985	0.211311	-0.535391	0.504099	0.551568	2.32412	-0.480581	0.807668	2.05883	3.56197	-0.396717	-0.143184	0.674416	1.37904	-0.423825	0.430122	0.0982578	0.277153	-0.687034	1.1577	-0.971363	0.525738	-0.648918	1.22304	-0.214445	0.896833	
3.46069	5	0	-0.12836	-0.205969	0.110466	1.97903	-0.278559	-0.339624	-1.00751	0.195446	-0.541648	0.492084	0.552029	2.30647	-0.49104	0.787395	2.05061	3.54586	-0.401556	-0.156173	0.668864	1.35967	-0.431798	0.42295	0.0978025	0.262622	-0.702302	1.16768	-0.981703	0.532495	-0.659488	1.22476	-0.225745	0.913755	
3.45764	5	0	-0.234648	-0.189948	0.108278	1.95708	-0.286056	-0.347791	-1.00516	0.179581	-0.547905	0.480069	0.552491	2.28882	-0.5015	0.767122	2.04239	3.52975	-0.406395	-0.169162	0.663312	1.34029	-0.439771	0.415778	0.0973472	0.24809	-0.717569	1.17766	-0.992043	0.539251	-0.670059	1.22648	-0.237046	0.930676	
3.45459	5	0	-0.340936	-0.173928	0.10609	1.93513	-0.293554	-0.355957	-1.00281	0.163716	-0.554162	0.468054	0.552953	2.27116	-0.51196	0.746849	2.03417	3.51365	-0.411234	-0.182151	0.657759	1.32092	-0.447745	0.408606	0.096892	0.233559	-0.732836	1.18763	-1.00238	0.546008	-0.680629	1.22819	-0.248346	0.947598	
3.44696	5	0	-0.316534	-0.24289	0.107624	1.93079	-0.292052	-0.360201	-1.00706	0.166491	-0.552048	0.462079	0.554946	2.26553	-0.509394	0.72716	2.03636	3.49437	-0.41143	-0.194917	0.658984	1.30578	-0.448884	0.396991	0.094727	0.223873	-0.737478	1.18419	-1.00079	0.530287	-0.673474	1.20797	-0.256298	0.94008	
3.44696	5	0	-0.292133	-0.311852	0.109158	1.92645	-0.29055	-0.364445	-1.01131	0.169266	-0.549934	0.456103	0.556939	2.2599	-0.506828	0.707471	2.03855	3.47509	-0.411625	-0.207682	0.66021	1.29065	-0.450024	0.385375	0.092562	0.214187	-0.74212	1.18074	-0.999202	0.514567	-0.666319	1.18775	-0.264251	0.932562	
3.44086	5	0	-0.267732	-0.380815	0.110693	1.92212	-0.289049	-0.368688	-1.01555	0.172041	-0.547819	0.450128	0.558932	2.25427	-0.504263	0.687782	2.04074	3.45582	-0.41182	-0.220448	0.661435	1.27551	-0.451163	0.37376	0.090397	0.2045	-0.746763	1.1773	-0.997611	0.498846	-0.659165	1.16753	-0.272204	0.925044	
3.43628	5	0	-0.24333	-0.449777	0.112227	1.91778	-0.287547	-0.372932	-1.0198	0.174816	-0.545705	0.444152	0.560925	2.24864	-0.501697	0.668093	2.04292	3.43654	-0.412016	-0.233214	0.662661	1.26037	-0.452302	0.362145	0.088232	0.194814	-0.751405	1.17386	-0.99602	0.483125	-0.65201	1.14731	-0.280156	0.917526	
3.43323	5	0	-0.219115	-0.518211	0.114094	1.92657	-0.282296	-0.373101	-1.01838	0.180026	-0.546762	0.447139	0.556938	2.2599	-0.504659	0.664035	2.04292	3.43654	-0.405886	-0.237219	0.662661	1.26037	-0.448317	0.365718	0.088232	0.194814	-0.748426	1.16544	-0.998933	0.480142	-0.661378	1.14568	-0.274315	0.901018	
3.4256	5	0	-0.194901	-0.586645	0.115961	1.93535	-0.277045	-0.373269	-1.01696	0.185235	-0.547819	0.450126	0.552951	2.27117	-0.507621	0.659976	2.04292	3.43654	-0.399756	-0.241225	0.662661	1.26037	-0.444333	0.369291	0.088232	0.194814	-0.745448	1.15702	-1.00185	0.47716	-0.670747	1.14404	-0.268474	0.884511	
3.42865	5	0	-0.170686	-0.655079	0.117828	1.94414	-0.271794	-0.373437	-1.01553	0.190444	-0.548876	0.453114	0.548963	2.28244	-0.510584	0.655918	2.04292	3.43654	-0.393627	-0.24523	0.662661	1.26037	-0.440348	0.372865	0.088232	0.194814	-0.74247	1.14861	-1.00476	0.474177	-0.680115	1.1424	-0.262633	0.868004	
3.42255	5	0	-0.146472	-0.723513	0.119695	1.95293	-0.266543	-0.373606	-1.01411	0.195654	-0.549933	0.456101	0.544976	2.29371	-0.513546	0.65186	2.04292	3.43654	-0.387497	-0.249235	0.662661	1.26037	-0.436363	0.376438	0.088232	0.194814	-0.739491	1.14019	-1.00767	0.471194	-0.689484	1.14076	-0.256792	0.851496	
3.42407	5	0	-0.275384	-0.63928	0.112004	1.97466	-0.274798	-0.364948	-1.02213	0.209086	-0.548552	0.462093	0.546509	2.30572	-0.514925	0.655757	2.04128	3.44118	-0.37819	-0.248872	0.664076	1.26805	-0.42696	0.37957	0.084827	0.204437	-0.74247	1.14861	-1.0088	0.474372	-0.693568	1.13826	-0.265145	0.860124	
3.42102	5	0	-0.404295	-0.555046	0.104314	1.99639	-0.283053	-0.356291	-1.03015	0.222518	-0.547172	0.468086	0.548041	2.31774	-0.516304	0.659655	2.03964	3.44582	-0.368884	-0.24851	0.665492	1.27572	-0.417557	0.382702	0.081422	0.214061	-0.745448	1.15702	-1.00992	0.477549	-0.697651	1.13576	-0.273498	0.868753	
3.42102	5	0	-0.533207	-0.470812	0.0966235	2.01813	-0.291308	-0.347633	-1.03817	0.23595	-0.545791	0.474079	0.549573	2.32975	-0.517683	0.663552	2.038	3.45045	-0.359577	-0.248148	0.666907	1.28339	-0.408154	0.385834	0.078017	0.223684	-0.748426	1.16544	-1.01105	0.480727	-0.701735	1.13326	-0.281851	0.877382	
3.42102	5	0	-0.662118	-0.386579	0.088933	2.03986	-0.299563	-0.338975	-1.04618	0.249382	-0.544411	0.480071	0.551106	2.34177	-0.519062	0.667449	2.03636	3.45509	-0.35027	-0.247785	0.668323	1.29107	-0.398751	0.388966	0.074612	0.233308	-0.751405	1.17386	-1.01217	0.483904	-0.705819	1.13076	-0.290204	0.88601	
3.41949	5	0	-0.638088	-0.454492	0.0772215	2.03081	-0.301806	-0.347297	-1.04854	0.246826	-0.553516	0.486021	0.543583	2.34668	-0.530492	0.674917	2.02432	3.46296	-0.34392	-0.239029	0.668415	1.30249	-0.397608	0.400607	0.071203	0.242942	-0.746763	1.1773	-1.01555	0.493444	-0.70463	1.1274	-0.294586	0.898393	
3.41644	5	0	-0.614057	-0.522406	0.06551	2.02175	-0.304048	-0.355619	-1.0509	0.244269	-0.562621	0.49197	0.53606	2.3516	-0.541921	0.682386	2.01228	3.47083	-0.337569	-0.230273	0.668507	1.31391	-0.396465	0.412247	0.067794	0.252576	-0.74212	1.18074	-1.01892	0.502983	-0.703442	1.12405	-0.298967	0.910777	
3.41186	0	0	-0.590027	-0.590319	0.0537985	2.01269	-0.306291	-0.36394	-1.05326	0.241712	-0.571726	0.49792	0.528537	2.35651	-0.553351	0.689855	2.00024	3.47869	-0.331218	-0.221517	0.668599	1.32533	-0.395322	0.423888	0.064385	0.26221	-0.737478	1.18419	-1.0223	0.512522	-0.702253	1.12069	-0.303349	0.923161	
3.41492	0	0	-0.565996	-0.658233	0.042087	2.00364	-0.308533	-0.372262	-1.05562	0.239156	-0.580831	0.503869	0.521014	2.36143	-0.564781	0.697323	1.9882	3.48656	-0.324868	-0.212761	0.668691	1.33675	-0.394179	0.435529	0.060976	0.271844	-0.732836	1.18763	-1.02567	0.522062	-0.701064	1.11733	-0.307731	0.935544	
3.41492	0	0	-0.542147	-0.725634	0.0353155	1.99472	-0.312275	-0.376334	-1.06128	0.23671	-0.58115	0.494886	0.517493	2.35505	-0.562024	0.68953	1.98274	3.47588	-0.329529	-0.212944	0.660585	1.3363	-0.394179	0.435529	0.062681	0.267026	-0.743443	1.20105	-1.03018	0.534797	-0.712786	1.12241	-0.315047	0.956222	
3.40576	0	0	-0.518298	-0.793035	0.028544	1.98581	-0.316018	-0.380405	-1.06693	0.234264	-0.581468	0.485903	0.513971	2.34867	-0.559266	0.681737	1.97727	3.4652	-0.334191	-0.213127	0.652479	1.33586	-0.394179	0.435529	0.064386	0.262207	-0.75405	1.21446	-1.03469	0.547532	-0.724508	1.12748	-0.322364	0.976899	
3.40729	0	0	-0.494449	-0.860436	0.0217725	1.9769	-0.319761	-0.384477	-1.07259	0.231819	-0.581787	0.47692	0.51045	2.34229	-0.556509	0.673945	1.97181	3.45452	-0.338852	-0.21331	0.644373	1.33541	-0.394179	0.435529	0.066091	0.257389	-0.764658	1.22787	-1.03919	0.560268	-0.736231	1.13256	-0.32968	0.997576	
3.40118	0	0	-0.4706	-0.927837	0.015001	1.96798	-0.323503	-0.388549	-1.07825	0.229373	-0.582106	0.467937	0.506928	2.33591	-0.553752	0.666152	1.96635	3.44383	-0.343513	-0.213493	0.636267	1.33496	-0.394179	0.435529	0.067796	0.252571	-0.775265	1.24129	-1.0437	0.573003	-0.747953	1.13764	-0.336997	1.01825	
3.39661	0	0	-0.4706	-0.927837	0.011933	1.97665	-0.325002	-0.384311	-1.08013	0.234698	-0.578937	0.458981	0.508924	2.33028	-0.550997	0.658366	1.97126	3.42996	-0.342028	-0.21769	0.63213	1.32333	-0.401023	0.440001	0.063935	0.247691	-0.779898	1.23783	-1.05063	0.570191	-0.748466	1.12508	-0.358662	1.01969	
3.39355	0	0	-0.4706	-0.927837	0.008865	1.98532	-0.326502	-0.380074	-1.08201	0.240024	-0.575768	0.450025	0.510919	2.32464	-0.548242	0.65058	1.97617	3.41608	-0.340542	-0.221888	0.627992	1.3117	-0.407868	0.444473	0.060074	0.242812	-0.78453	1.23438	-1.05757	0.567378	-0.74898	1.11252	-0.380328	1.02113	
3.3905	0	0	-0.4706	-0.927837	0.005797	1.99399	-0.328002	-0.375837	-1.0839	0.245349	-0.572599	0.441069	0.512914	2.319	-0.545487	0.642794	1.98108	3.4022	-0.339057	-0.226085	0.623855	1.30007	-0.414713	0.448946	0.056213	0.237932	-0.789162	1.23092	-1.0645	0.564565	-0.749494	1.09997	-0.401994	1.02256	
3.38745	0	0	-0.4706	-0.927837	0.002729	2.00266	-0.329501	-0.371599	-1.08578	0.250674	-0.56943	0.432113	0.51491	2.31336	-0.542732	0.635008	1.98599	3.38832	-0.337572	-0.230283	0.619718	1.28843	-0.421557	0.453418	0.052352	0.233052	-0.793795	1.22747	-1.07144	0.561753	-0.750007	1.08741	-0.423659	1.024	
3.3844	0	0	-0.494449	-0.860436	0.00457425	2.01147	-0.32576	-0.367523	-1.08437	0.255897	-0.572599	0.441069	0.51491	2.31336	-0.538194	0.647017	1.98872	3.39365	-0.325273	-0.238319	0.618308	1.28077	-0.40929	0.448503	0.052352	0.233052	-0.798424	1.22401	-1.07837	0.558942	-0.765767	1.08998	-0.427602	1.02022	
3.37677	0	0	-0.518298	-0.793035	0.0064195	2.02027	-0.322019	-0.363448	-1.08296	0.26112	-0.575768	0.450025	0.51491	2.31336	-0.533656	0.659026	1.99146	3.39897	-0.312974	-0.246356	0.616897	1.2731	-0.397023	0.443588	0.052352	0.233052	-0.803052	1.22056	-1.08529	0.556132	-0.781526	1.09255	-0.431545	1.01645	
3.37372	0	0	-0.542147	-0.725634	0.00826475	2.02908	-0.318278	-0.359372	-1.08155	0.266343	-0.578937	0.458981	0.51491	2.31336	-0.529118	0.671036	1.9942	3.40429	-0.300675	-0.254393	0.615486	1.26543	-0.384755	0.438672	0.052352	0.233052	-0.807681	1.21711	-1.09222	0.553322	-0.797285	1.09513	-0.435488	1.01267	
3.37067	0	0	-0.565996	-0.658233	0.01011	2.03788	-0.314537	-0.355296	-1.08014	0.271566	-0.582106	0.467937	0.51491	2.31336	-0.52458	0.683045	1.99693	3.40961	-0.288376	-0.262429	0.614076	1.25777	-0.372488	0.433757	0.052352	0.233052	-0.81231	1.21365	-1.09915	0.550511	-0.813045	1.0977	-0.439431	1.0089	
3.36609	0	0	-0.565996	-0.658233	0.004248	2.06848	-0.315304	-0.338467	-1.08769	0.292918	-0.574799	0.476954	0.514436	2.33103	-0.511348	0.695419	2.00405	3.41565	-0.288165	-0.249649	0.616804	1.26171	-0.369918	0.441387	0.048945	0.242681	-0.807681	1.21711	-1.10252	0.560054	-0.807796	1.09684	-0.440892	1.01303	
3.35998	0	0	-0.565996	-0.658233	-0.001614	2.09908	-0.316072	-0.321638	-1.09525	0.314271	-0.567492	0.485971	0.513963	2.34869	-0.498117	0.707792	2.01117	3.42168	-0.287955	-0.236869	0.619533	1.26565	-0.367347	0.449017	0.045538	0.25231	-0.803052	1.22056	-1.1059	0.569597	-0.802547	1.09599	-0.442354	1.01716	
3.35998	5	0	-0.565996	-0.658233	-0.007476	2.12968	-0.316839	-0.304808	-1.1028	0.335623	-0.560186	0.494988	0.51349	2.36636	-0.484886	0.720166	2.01828	3.42771	-0.287744	-0.224089	0.622262	1.26959	-0.364776	0.456646	0.042131	0.261938	-0.798424	1.22401	-1.10928	0.57914	-0.797299	1.09513	-0.443815	1.02129	
3.35388	5	0	-0.565996	-0.658233	-0.013338	2.16027	-0.317607	-0.287979	-1.11036	0.356975	-0.552879	0.504005	0.513016	2.38403	-0.471654	0.732539	2.0254	3.43374	-0.287533	-0.211309	0.62499	1.27353	-0.362206	0.464276	0.038724	0.271567	-0.793795	1.22747	-1.11265	0.588683	-0.79205	1.09428	-0.445276	1.02542	
3.3493	5	0	-0.542147	-0.725634	-0.0262482	2.16871	-0.31236	-0.288138	-1.11554	0.362418	-0.558179	0.518982	0.509014	2.39534	-0.469882	0.752465	2.02321	3.45301	-0.276485	-0.202346	0.627809	1.28889	-0.354201	0.471478	0.0408745	0.28128	-0.792149	1.23936	-1.11427	0.604434	-0.790355	1.10347	-0.438855	1.03712	
3.34778	5	0	-0.518298	-0.793035	-0.0391585	2.17715	-0.307112	-0.288296	-1.12073	0.367862	-0.563478	0.533959	0.505011	2.40666	-0.46811	0.77239	2.02102	3.47227	-0.265438	-0.193383	0.630629	1.30425	-0.346197	0.47868	0.043025	0.290994	-0.790504	1.25126	-1.11588	0.620186	-0.78866	1.11267	-0.432433	1.04882	
3.34778	5	0	-0.494449	-0.860436	-0.0520687	2.18558	-0.301864	-0.288455	-1.12591	0.373306	-0.568777	0.548935	0.501008	2.41797	-0.466338	0.792316	2.01883	3.49154	-0.254391	-0.184421	0.633448	1.31961	-0.338192	0.485882	0.0451755	0.300708	-0.788858	1.26316	-1.11749	0.635937	-0.786964	1.12187	-0.426011	1.06052	
3.34625	5	0	-0.4706	-0.927837	-0.064979	2.19402	-0.296617	-0.288614	-1.1311	0.378749	-0.574077	0.563912	0.497006	2.42928	-0.464566	0.812242	2.01665	3.51081	-0.243343	-0.175458	0.636267	1.33496	-0.330187	0.493084	0.047326	0.310421	-0.787212	1.27505	-1.11911	0.651688	-0.785269	1.13107	-0.41959	1.07222	
3.34473	5	0	-0.4706	-0.927837	-0.064979	2.19402	-0.298123	-0.284358	-1.13958	0.384287	-0.573016	0.560915	0.501008	2.41797	-0.4616	0.81634	2.01993	3.50152	-0.237169	-0.179492	0.633539	1.33101	-0.334191	0.489481	0.041765	0.310346	-0.794691	1.29619	-1.12589	0.670845	-0.785954	1.147	-0.429862	1.10125	
3.34167	5	0	-0.4706	-0.927837	-0.064979	2.19402	-0.299629	-0.280103	-1.14805	0.389825	-0.571955	0.557918	0.505011	2.40666	-0.458635	0.820438	2.02322	3.49223	-0.230995	-0.183526	0.63081	1.32705	-0.338195	0.485878	0.036204	0.310272	-0.802171	1.31733	-1.13267	0.690003	-0.786639	1.16293	-0.440133	1.13028	
3.34625	5	0	-0.4706	-0.927837	-0.064979	2.19402	-0.301134	-0.275847	-1.15653	0.395362	-0.570895	0.55492	0.509014	2.39534	-0.455669	0.824536	2.02651	3.48294	-0.224821	-0.187561	0.628082	1.3231	-0.342198	0.482276	0.030643	0.310198	-0.80965	1.33847	-1.13945	0.709161	-0.787323	1.17887	-0.450404	1.15931	
3.34473	5	0	-0.4706	-0.927837	-0.064979	2.19402	-0.30264	-0.271591	-1.165	0.4009	-0.569834	0.551923	0.513016	2.38403	-0.452703	0.828634	2.02979	3.47365	-0.218647	-0.191595	0.625353	1.31914	-0.346202	0.478673	0.025082	0.310123	-0.817129	1.3596	-1.14622	0.728318	-0.788008	1.1948	-0.460676	1.18834	
3.3432	5	0	-0.597602	-0.844851	-0.0616137	2.19853	-0.308671	-0.254548	-1.16455	0.40883	-0.563158	0.542954	0.507499	2.38329	-0.442594	0.825048	2.03746	3.46508	-0.215666	-0.20002	0.625262	1.30774	-0.343342	0.470591	0.0212307	0.305229	-0.814135	1.35114	-1.14798	0.722099	-0.78156	1.19059	-0.457738	1.18003	
3.3432	5	0	-0.724603	-0.761866	-0.0582485	2.20304	-0.314701	-0.237505	-1.1641	0.416761	-0.556481	0.533986	0.501982	2.38255	-0.432485	0.821463	2.04513	3.4565	-0.212685	-0.208445	0.625171	1.29634	-0.340483	0.462509	0.0173795	0.300335	-0.811141	1.34268	-1.14974	0.715881	-0.775113	1.18638	-0.4548	1.17173	
3.3432	5	0	-0.851605	-0.67888	-0.0548833	2.20755	-0.320732	-0.220462	-1.16365	0.424691	-0.549805	0.525017	0.496465	2.38182	-0.422376	0.817878	2.0528	3.44792	-0.209704	-0.21687	0.625081	1.28493	-0.337624	0.454427	0.0135283	0.29544	-0.808148	1.33422	-1.1515	0.709662	-0.768665	1.18216	-0.451862	1.16343	
3.34625	5	0	-0.978607	-0.595894	-0.051518	2.21205	-0.326762	-0.203419	-1.1632	0.432622	-0.543129	0.516048	0.490948	2.38108	-0.412267	0.814292	2.06047	3.43934	-0.206723	-0.225295	0.62499	1.27353	-0.334764	0.446345	0.009677	0.290546	-0.805154	1.32576	-1.15326	0.703443	-0.762217	1.17795	-0.448924	1.15512	
3.34167	5	0	-0.954936	-0.66279	-0.0527922	2.22969	-0.324535	-0.195031	-1.15851	0.437793	-0.53857	0.513069	0.498464	2.37616	-0.407902	0.814461	2.06047	3.43934	-0.200544	-0.229332	0.632991	1.26258	-0.326469	0.43782	0.011381	0.28573	-0.805154	1.32576	-1.15615	0.700423	-0.754575	1.17037	-0.451394	1.14717	
3.34167	5	0	-0.931266	-0.729687	-0.0540665	2.24732	-0.322307	-0.186643	-1.15382	0.442964	-0.534012	0.510091	0.505981	2.37125	-0.403537	0.814631	2.06047	3.43934	-0.194366	-0.233369	0.640991	1.25163	-0.318173	0.429295	0.013085	0.280915	-0.805154	1.32576	-1.15904	0.697403	-0.746933	1.1628	-0.453863	1.13922	
3.33404	5	0	-0.907595	-0.796583	-0.0553408	2.26495	-0.32008	-0.178255	-1.14913	0.448134	-0.529454	0.507112	0.513497	2.36634	-0.399173	0.8148	2.06047	3.43934	-0.188188	-0.237406	0.648992	1.24068	-0.309878	0.420771	0.014789	0.2761	-0.805154	1.32576	-1.16192	0.694382	-0.739291	1.15522	-0.456332	1.13127	
3.33557	5	0	-0.883925	-0.863479	-0.056615	2.28258	-0.317852	-0.169867	-1.14444	0.453305	-0.524895	0.504133	0.521014	2.36143	-0.394808	0.814969	2.06047	3.43934	-0.182009	-0.241443	0.656992	1.22972	-0.301583	0.412246	0.016493	0.271284	-0.805154	1.32576	-1.16481	0.691362	-0.731649	1.14764	-0.458802	1.12332	
3.3371	5	0	-0.860431	-0.929878	-0.0615248	2.28243	-0.317852	-0.169867	-1.15621	0.458935	-0.529454	0.507112	0.519014	2.36708	-0.391832	0.819071	2.06047	3.43934	-0.177316	-0.241271	0.663678	1.2225	-0.303012	0.416284	0.0254578	0.261726	-0.800524	1.32924	-1.16594	0.694553	-0.74048	1.15858	-0.460269	1.12746	
3.32947	5	0	-0.836936	-0.996276	-0.0664345	2.28227	-0.317852	-0.169867	-1.16798	0.464564	-0.534012	0.510091	0.517015	2.37273	-0.388856	0.823173	2.06047	3.43934	-0.172624	-0.2411	0.670364	1.21527	-0.304441	0.420322	0.0344225	0.252168	-0.795894	1.33272	-1.16707	0.697744	-0.749312	1.16952	-0.461735	1.13161	
3.32794	5	0	-0.813442	-1.06267	-0.0713442	2.28212	-0.317852	-0.169867	-1.17974	0.470193	-0.53857	0.513069	0.515016	2.37838	-0.385879	0.827274	2.06047	3.43934	-0.167932	-0.240928	0.67705	1.20804	-0.30587	0.424361	0.0433873	0.24261	-0.791265	1.3362	-1.1682	0.700935	-0.758143	1.18046	-0.463202	1.13576	
3.33099	5	0	-0.789948	-1.12907	-0.076254	2.28196	-0.317852	-0.169867	-1.19151	0.475823	-0.543129	0.516048	0.513016	2.38403	-0.382903	0.831376	2.06047	3.43934	-0.163239	-0.240757	0.683736	1.20081	-0.307299	0.428399	0.052352	0.233052	-0.786635	1.33968	-1.16933	0.704126	-0.766975	1.1914	-0.464669	1.1399	
3.33252	5	0	-0.766627	-1.19498	-0.0814265	2.26855	-0.32008	-0.178255	-1.19101	0.465207	-0.542716	0.495088	0.51349	2.36636	-0.386076	0.815326	2.05223	3.42335	-0.166221	-0.232328	0.679682	1.2006	-0.307299	0.428399	0.039537	0.237728	-0.785001	1.35164	-1.16644	0.707149	-0.757636	1.19305	-0.465141	1.15616	
3.33252	5	0	-0.743306	-1.26089	-0.086599	2.25514	-0.322307	-0.186643	-1.19051	0.454591	-0.542304	0.474127	0.513963	2.34869	-0.389249	0.799276	2.044	3.40737	-0.169204	-0.223899	0.675628	1.20039	-0.307299	0.428399	0.026722	0.242403	-0.783367	1.3636	-1.16356	0.710171	-0.748296	1.19471	-0.465613	1.17243	
3.3371	5	0	-0.719985	-1.3268	-0.0917715	2.24173	-0.324535	-0.195031	-1.19001	0.443974	-0.541891	0.453167	0.514436	2.33103	-0.392422	0.783226	2.03577	3.39138	-0.172186	-0.21547	0.671575	1.20018	-0.307299	0.428399	0.013907	0.247078	-0.781734	1.37556	-1.16067	0.713194	-0.738957	1.19637	-0.466085	1.18869	
3.3432	5	0	-0.696664	-1.39271	-0.096944	2.22832	-0.326762	-0.203419	-1.18951	0.433358	-0.541478	0.432207	0.51491	2.31336	-0.395595	0.767176	2.02754	3.37539	-0.175169	-0.207041	0.667521	1.19997	-0.307299	0.428399	0.001092	0.251754	-0.7801	1.38752	-1.15778	0.716217	-0.729618	1.19802	-0.466557	1.20496	
3.34778	5	0	-0.798661	-1.37636	-0.0987593	2.21945	-0.323745	-0.211944	-1.18996	0.425431	-0.539697	0.417284	0.513379	2.30137	-0.387276	0.743664	2.02532	3.35554	-0.172186	-0.21547	0.659316	1.1882	-0.309881	0.420776	-0.00105675	0.242075	-0.78623	1.38827	-1.16468	0.713364	-0.738957	1.19637	-0.480295	1.21393	
3.35235	5	0	-0.900659	-1.36001	-0.100575	2.21058	-0.320728	-0.22047	-1.19041	0.417505	-0.537915	0.402361	0.511848	2.28937	-0.378956	0.720152	2.0231	3.33569	-0.169204	-0.223899	0.651112	1.17643	-0.312462	0.413153	-0.0032055	0.232396	-0.79236	1.38901	-1.17158	0.710511	-0.748296	1.19471	-0.494032	1.22291	
3.35541	5	0	-1.00266	-1.34366	-0.10239	2.20171	-0.317712	-0.228996	-1.19085	0.409578	-0.536134	0.387438	0.510318	2.27738	-0.370637	0.69664	2.02088	3.31584	-0.166221	-0.232328	0.642907	1.16467	-0.315043	0.405531	-0.00535425	0.222717	-0.79849	1.38976	-1.17849	0.707659	-0.757636	1.19305	-0.50777	1.23189	
3.35388	5	0	-1.10465	-1.32732	-0.104205	2.19284	-0.314695	-0.237521	-1.1913	0.401651	-0.534353	0.372515	0.508787	2.26539	-0.362318	0.673128	2.01866	3.29599	-0.163239	-0.240757	0.634702	1.1529	-0.317625	0.397908	-0.007503	0.213038	-0.80462	1.39051	-1.18539	0.704806	-0.766975	1.1914	-0.521508	1.24086	
3.36304	5	0	-1.20502	-1.31167	-0.100847	2.19735	-0.310954	-0.233411	-1.18896	0.40423	-0.534353	0.372515	0.514305	2.26611	-0.365301	0.669062	2.0263	3.28746	-0.160259	-0.249178	0.641373	1.14569	-0.305314	0.392966	0.001445	0.203501	-0.79549	1.38128	-1.18827	0.701786	-0.765786	1.18804	-0.518568	1.23256	
3.36304	5	0	-1.30538	-1.29602	-0.097488	2.20186	-0.307212	-0.229301	-1.18662	0.406809	-0.534353	0.372515	0.519823	2.26684	-0.368284	0.664997	2.03394	3.27892	-0.15728	-0.257599	0.648044	1.13848	-0.293004	0.388024	0.010393	0.193964	-0.786361	1.37206	-1.19116	0.698767	-0.764596	1.18467	-0.515629	1.22425	
3.36456	5	0	-1.40575	-1.28037	-0.0941295	2.20636	-0.303471	-0.225192	-1.18428	0.409388	-0.534353	0.372515	0.525342	2.26756	-0.371267	0.660932	2.04158	3.27038	-0.1543	-0.26602	0.654716	1.13127	-0.280693	0.383082	0.019341	0.184427	-0.777231	1.36284	-1.19404	0.695747	-0.763406	1.18131	-0.51269	1.21594	
3.36609	5	0	-1.50611	-1.26473	-0.090771	2.21087	-0.29973	-0.221082	-1.18194	0.411967	-0.534353	0.372515	0.53086	2.26828	-0.37425	0.656866	2.04922	3.26185	-0.15132	-0.274441	0.661387	1.12406	-0.268383	0.37814	0.028289	0.17489	-0.768102	1.35361	-1.19692	0.692727	-0.762217	1.17795	-0.50975	1.20763	
3.36609	5	0	-1.50611	-1.26473	-0.0855945	2.22427	-0.30426	-0.208278	-1.17915	0.422485	-0.529468	0.378493	0.532393	2.28028	-0.368499	0.653108	2.05034	3.27175	-0.143412	-0.269895	0.666865	1.13189	-0.267223	0.389803	0.0304465	0.184557	-0.774104	1.37057	-1.1889	0.692386	-0.762217	1.17795	-0.514161	1.2201	
3.36761	5	0	-1.50611	-1.26473	-0.080418	2.23767	-0.308791	-0.195474	-1.17636	0.433003	-0.524583	0.38447	0.533926	2.29227	-0.362748	0.64935	2.05146	3.28166	-0.135503	-0.26535	0.672342	1.13972	-0.266062	0.401465	0.032604	0.194224	-0.780105	1.38754	-1.18087	0.692044	-0.762217	1.17795	-0.518571	1.23256	
3.36609	5	0	-1.50611	-1.26473	-0.0752415	2.25107	-0.313322	-0.182671	-1.17357	0.44352	-0.519699	0.390448	0.53546	2.30427	-0.356996	0.645592	2.05257	3.29157	-0.127595	-0.260804	0.67782	1.14755	-0.264902	0.413128	0.0347615	0.203892	-0.786107	1.4045	-1.17284	0.691703	-0.762217	1.17795	-0.522981	1.24503	
3.36609	5	0	-1.50611	-1.26473	-0.070065	2.26447	-0.317852	-0.169867	-1.17077	0.454038	-0.514814	0.396426	0.536993	2.31627	-0.351245	0.641834	2.05369	3.30147	-0.119687	-0.256258	0.683298	1.15538	-0.263742	0.424791	0.036919	0.213559	-0.792109	1.42146	-1.16481	0.691362	-0.762217	1.17795	-0.527392	1.25749	
3.37219	5	0	-1.58224	-1.31377	-0.070337	2.25122	-0.313322	-0.182671	-1.16793	0.446008	-0.514814	0.396426	0.542519	2.317	-0.36136	0.645439	2.05206	3.30609	-0.119461	-0.243432	0.684829	1.17439	-0.258566	0.440083	0.0390742	0.223245	-0.788981	1.42921	-1.16532	0.703966	-0.750496	1.17288	-0.521018	1.26933	
3.37067	5	0	-1.65837	-1.36282	-0.070609	2.23797	-0.308791	-0.195474	-1.16509	0.437978	-0.514814	0.396426	0.548045	2.31772	-0.371476	0.649043	2.05043	3.3107	-0.119235	-0.230607	0.686361	1.19341	-0.253389	0.455375	0.0412295	0.232931	-0.785853	1.43697	-1.16582	0.71657	-0.738775	1.1678	-0.514644	1.28116	
3.37219	5	0	-1.7345	-1.41186	-0.070881	2.22472	-0.30426	-0.208278	-1.16225	0.429948	-0.514814	0.396426	0.553572	2.31845	-0.381592	0.652647	2.04879	3.31532	-0.11901	-0.217781	0.687893	1.21242	-0.248213	0.470666	0.0433847	0.242618	-0.782725	1.44472	-1.16632	0.729175	-0.727054	1.16273	-0.508271	1.293	
3.37677	5	0	-1.81063	-1.46091	-0.071153	2.21147	-0.29973	-0.221082	-1.15941	0.421918	-0.514814	0.396426	0.559098	2.31918	-0.391707	0.656252	2.04716	3.31994	-0.118784	-0.204956	0.689424	1.23143	-0.243037	0.485958	0.04554	0.252304	-0.779597	1.45247	-1.16683	0.741779	-0.715333	1.15765	-0.501897	1.30483	
3.3844	5	0	-1.81063	-1.46091	-0.074515	2.20696	-0.296713	-0.229608	-1.16175	0.419337	-0.515147	0.387474	0.559098	2.31918	-0.393305	0.648287	2.04604	3.31002	-0.115797	-0.213397	0.689318	1.22006	-0.243037	0.485958	0.047243	0.247491	-0.782606	1.46098	-1.1765	0.757937	-0.729433	1.16945	-0.514673	1.32601	
3.3844	5	0	-1.81063	-1.46091	-0.077877	2.20245	-0.293697	-0.238133	-1.1641	0.416756	-0.515481	0.378522	0.559098	2.31918	-0.394903	0.640323	2.04493	3.30011	-0.112811	-0.221838	0.689212	1.20868	-0.243037	0.485958	0.048946	0.242678	-0.785616	1.46948	-1.18617	0.774094	-0.743534	1.18125	-0.527448	1.34718	
3.3844	5	0	-1.81063	-1.46091	-0.081239	2.19794	-0.29068	-0.246659	-1.16644	0.414175	-0.515814	0.369571	0.559098	2.31918	-0.3965	0.632359	2.04381	3.2902	-0.109824	-0.230279	0.689105	1.19731	-0.243037	0.485958	0.050649	0.237865	-0.788625	1.47799	-1.19585	0.790252	-0.757634	1.19305	-0.540223	1.36836	
3.3844	5	0	-1.81063	-1.46091	-0.084601	2.19343	-0.287663	-0.255184	-1.16878	0.411594	-0.516147	0.360619	0.559098	2.31918	-0.398098	0.624394	2.0427	3.28029	-0.106837	-0.23872	0.688999	1.18593	-0.243037	0.485958	0.052352	0.233052	-0.791635	1.48649	-1.20552	0.80641	-0.771735	1.20485	-0.552999	1.38953	
3.38592	5	0	-1.90803	-1.44613	-0.084601	2.19343	-0.289171	-0.250922	-1.16031	0.406056	-0.515093	0.357639	0.561095	2.31354	-0.395337	0.616591	2.03995	3.275	-0.11326	-0.247484	0.684834	1.17438	-0.241603	0.481905	0.0557552	0.223434	-0.794759	1.47873	-1.20614	0.796976	-0.775803	1.20234	-0.553961	1.37733	
3.38745	5	0	-2.00544	-1.43135	-0.084601	2.19343	-0.290679	-0.246661	-1.15183	0.400518	-0.514039	0.35466	0.563091	2.30789	-0.392576	0.608788	2.0372	3.26971	-0.119683	-0.256247	0.68067	1.16282	-0.240169	0.477852	0.0591585	0.213815	-0.797883	1.47096	-1.20676	0.787543	-0.779872	1.19983	-0.554924	1.36514	
3.3844	0	0	-2.10284	-1.41657	-0.084601	2.19343	-0.292187	-0.242399	-1.14336	0.394981	-0.512985	0.351681	0.565088	2.30225	-0.389815	0.600985	2.03445	3.26442	-0.126106	-0.265011	0.676505	1.15127	-0.238734	0.473799	0.0625617	0.204197	-0.801006	1.4632	-1.20737	0.77811	-0.78394	1.19731	-0.555886	1.35294	
3.38135	0	0	-2.20025	-1.40179	-0.084601	2.19343	-0.293695	-0.238137	-1.13488	0.389443	-0.511931	0.348701	0.567085	2.29661	-0.387054	0.593182	2.0317	3.25913	-0.132529	-0.273775	0.67234	1.13971	-0.2373	0.469746	0.065965	0.194579	-0.80413	1.45543	-1.20799	0.768676	-0.788008	1.1948	-0.556848	1.34074	
3.37677	0	0	-2.20025	-1.40179	-0.081239	2.19794	-0.28844	-0.238292	-1.13772	0.397468	-0.507377	0.345726	0.567085	2.29661	-0.387054	0.593182	2.03333	3.25452	-0.13104	-0.277984	0.674965	1.13229	-0.238734	0.473799	0.065965	0.194579	-0.799623	1.4427	-1.21375	0.762616	-0.777994	1.18051	-0.5632	1.32889	
3.37524	0	0	-2.20025	-1.40179	-0.077877	2.20245	-0.283186	-0.238448	-1.14056	0.405493	-0.502823	0.34275	0.567085	2.29661	-0.387054	0.593182	2.03496	3.24992	-0.12955	-0.282194	0.67759	1.12488	-0.240169	0.477852	0.065965	0.194579	-0.795117	1.42996	-1.2195	0.756557	-0.76798	1.16622	-0.569551	1.31704	
3.37372	0	0	-2.20025	-1.40179	-0.074515	2.20696	-0.277931	-0.238603	-1.1434	0.413518	-0.49827	0.339774	0.567085	2.29661	-0.387054	0.593182	2.03659	3.24531	-0.12806	-0.286404	0.680214	1.11746	-0.241603	0.481905	0.065965	0.194579	-0.79061	1.41722	-1.22526	0.750497	-0.757967	1.15193	-0.575903	1.30519	
3.36761	0	0	-2.20025	-1.40179	-0.071153	2.21147	-0.272677	-0.238759	-1.14624	0.421543	-0.493716	0.336799	0.567085	2.29661	-0.387054	0.593182	2.03822	3.24071	-0.126571	-0.290613	0.682839	1.11004	-0.243037	0.485958	0.065965	0.194579	-0.786103	1.40449	-1.23102	0.744437	-0.747953	1.13764	-0.582255	1.29334	
3.36609	0	0	-2.17792	-1.4649	-0.0757875	2.22456	-0.274186	-0.234493	-1.15238	0.429667	-0.495825	0.342759	0.572618	2.29733	-0.384071	0.597232	2.03496	3.24992	-0.114183	-0.298708	0.678787	1.10984	-0.232114	0.485057	0.065965	0.194579	-0.786103	1.40449	-1.23215	0.747629	-0.749141	1.141	-0.590576	1.30197	
3.35998	0	0	-2.15559	-1.52802	-0.080422	2.23766	-0.275696	-0.230228	-1.15851	0.43779	-0.497934	0.348719	0.578151	2.29805	-0.381088	0.601282	2.0317	3.25913	-0.101795	-0.306802	0.674736	1.10964	-0.221191	0.484155	0.065965	0.194579	-0.786103	1.40449	-1.23328	0.750822	-0.750329	1.14435	-0.598897	1.31061	
