2.034	0	0	0.311614	-0.267218	0.114702	-0.597235	0.14642	-0.377959	0.121989	-0.408664	0.242499	-0.55555	0.129744	-0.34314	0.195724	-0.273749	0.002646	-0.298828	-0.039976	-0.331091	0.059977	-0.393627	-0.092507	-0.382673	-0.017029	-0.24929	0.0511	-0.244189	0.046444	-0.117096	0.023115	-0.330141	-0.112325	-0.175992	
2.03247	0	0	0.313553	-0.262254	0.118038	-0.594041	0.141988	-0.384295	0.121187	-0.406397	0.242067	-0.56388	0.131406	-0.347836	0.196822	-0.27685	-0.001943	-0.298952	-0.0426457	-0.333606	0.0619925	-0.399323	-0.0942778	-0.387267	-0.0215023	-0.249011	0.0511	-0.244189	0.0443672	-0.111227	0.0257738	-0.337655	-0.11063	-0.180782	
2.03094	0	0	0.315491	-0.257289	0.121374	-0.590847	0.137556	-0.390631	0.120384	-0.404129	0.241636	-0.57221	0.133068	-0.352533	0.197919	-0.279952	-0.006532	-0.299076	-0.0453155	-0.336121	0.064008	-0.405018	-0.0960485	-0.391861	-0.0259755	-0.248733	0.0511	-0.244189	0.0422905	-0.105357	0.0284325	-0.34517	-0.108935	-0.185572	
2.034	0	0	0.317429	-0.252325	0.124711	-0.587652	0.133124	-0.396967	0.119581	-0.401861	0.241204	-0.580539	0.134729	-0.35723	0.199016	-0.283054	-0.011121	-0.299201	-0.0479853	-0.338635	0.0660235	-0.410713	-0.0978192	-0.396455	-0.0304488	-0.248454	0.0511	-0.244189	0.0402137	-0.0994875	0.0310913	-0.352684	-0.107241	-0.190361	
2.03094	0	0	0.319368	-0.24736	0.128047	-0.584458	0.128692	-0.403303	0.118779	-0.399594	0.240773	-0.588869	0.136391	-0.361926	0.200114	-0.286155	-0.01571	-0.299325	-0.050655	-0.34115	0.068039	-0.416409	-0.09959	-0.401049	-0.034922	-0.248175	0.0511	-0.244189	0.038137	-0.093618	0.03375	-0.360198	-0.105546	-0.195151	
2.03094	0	0	0.317455	-0.241952	0.125572	-0.577462	0.122566	-0.404834	0.117976	-0.397326	0.23397	-0.588726	0.134729	-0.35723	0.200114	-0.286155	-0.01571	-0.299325	-0.0496752	-0.343919	0.0634828	-0.413432	-0.100472	-0.398556	-0.0304488	-0.248454	0.0548698	-0.24099	0.0479597	-0.0910025	0.0407453	-0.364768	-0.101286	-0.190568	
2.034	0	0	0.315542	-0.236545	0.123096	-0.570466	0.116441	-0.406365	0.117174	-0.395058	0.227166	-0.588582	0.133068	-0.352533	0.200114	-0.286155	-0.01571	-0.299325	-0.0486955	-0.346688	0.0589265	-0.410454	-0.101354	-0.396064	-0.0259755	-0.248733	0.0586395	-0.23779	0.0577825	-0.088387	0.0477405	-0.369339	-0.097026	-0.185984	
2.03247	0	0	0.313628	-0.231137	0.12062	-0.563469	0.110316	-0.407895	0.116372	-0.39279	0.220363	-0.588438	0.131406	-0.347836	0.200114	-0.286155	-0.01571	-0.299325	-0.0477158	-0.349456	0.0543702	-0.407477	-0.102236	-0.393571	-0.0215023	-0.249011	0.0624092	-0.234591	0.0676053	-0.0857715	0.0547357	-0.37391	-0.092766	-0.181401	
2.03247	0	0	0.311715	-0.22573	0.118145	-0.556473	0.10419	-0.409426	0.115569	-0.390522	0.21356	-0.588295	0.129744	-0.34314	0.200114	-0.286155	-0.01571	-0.299325	-0.046736	-0.352225	0.049814	-0.4045	-0.103118	-0.391078	-0.017029	-0.24929	0.066179	-0.231392	0.077428	-0.083156	0.061731	-0.37848	-0.088506	-0.176818	
2.02789	0	0	0.317506	-0.221192	0.114428	-0.545968	0.10325	-0.416182	0.114766	-0.388253	0.213128	-0.596608	0.122975	-0.338717	0.206168	-0.292494	-0.021732	-0.29539	-0.0477158	-0.349456	0.0488065	-0.401653	-0.103118	-0.391078	-0.0206827	-0.238963	0.0761968	-0.218082	0.086729	-0.0688635	0.059072	-0.370966	-0.091042	-0.153013	
2.03247	0	0	0.323296	-0.216653	0.110711	-0.535464	0.102309	-0.422938	0.113963	-0.385984	0.212696	-0.604922	0.116206	-0.334294	0.212222	-0.298833	-0.027754	-0.291455	-0.0486955	-0.346688	0.047799	-0.398806	-0.103118	-0.391078	-0.0243365	-0.228637	0.0862145	-0.204772	0.09603	-0.054571	0.056413	-0.363452	-0.093578	-0.129209	
2.03094	0	0	0.329087	-0.212115	0.106995	-0.52496	0.101369	-0.429694	0.113161	-0.383716	0.212264	-0.613235	0.109438	-0.329872	0.218275	-0.305172	-0.033776	-0.287521	-0.0496752	-0.343919	0.0467915	-0.395958	-0.103118	-0.391078	-0.0279902	-0.218311	0.0962322	-0.191463	0.105331	-0.0402785	0.053754	-0.355938	-0.096114	-0.105404	
2.02942	0	0	0.334878	-0.207577	0.103278	-0.514455	0.100428	-0.43645	0.112358	-0.381447	0.211832	-0.621548	0.102669	-0.325449	0.224329	-0.311511	-0.039798	-0.283586	-0.050655	-0.34115	0.045784	-0.393111	-0.103118	-0.391078	-0.031644	-0.207984	0.10625	-0.178153	0.114632	-0.025986	0.051095	-0.348424	-0.09865	-0.081599	
2.03094	0	0	0.338756	-0.197609	0.109947	-0.50803	0.096945	-0.436016	0.111555	-0.379178	0.208434	-0.621475	0.1111	-0.334568	0.218275	-0.305172	-0.0383612	-0.287646	-0.0533235	-0.343663	0.0422377	-0.392983	-0.10577	-0.393178	-0.0304255	-0.211427	0.101016	-0.163361	0.114087	-0.0142872	0.0497648	-0.344665	-0.094391	-0.0769835	
2.03247	0	0	0.342634	-0.18764	0.116616	-0.501605	0.093462	-0.435581	0.110752	-0.376908	0.205037	-0.621402	0.11953	-0.343688	0.212222	-0.298833	-0.0369245	-0.291706	-0.055992	-0.346175	0.0386915	-0.392854	-0.108421	-0.395278	-0.029207	-0.214871	0.095782	-0.148569	0.113542	-0.0025885	0.0484345	-0.340905	-0.090132	-0.072368	
2.03247	0	0	0.346512	-0.177672	0.123284	-0.49518	0.089979	-0.435146	0.109949	-0.374639	0.201639	-0.62133	0.127961	-0.352807	0.206168	-0.292494	-0.0354877	-0.295767	-0.0586605	-0.348688	0.0351453	-0.392726	-0.111073	-0.397377	-0.0279885	-0.218315	0.090548	-0.133777	0.112997	0.00911025	0.0471043	-0.337145	-0.085873	-0.0677525	
2.02942	0	0	0.35039	-0.167704	0.129953	-0.488755	0.086496	-0.434712	0.109146	-0.37237	0.198241	-0.621257	0.136391	-0.361926	0.200114	-0.286155	-0.034051	-0.299827	-0.061329	-0.351201	0.031599	-0.392598	-0.113724	-0.399477	-0.02677	-0.221758	0.085314	-0.118985	0.112452	0.020809	0.045774	-0.333386	-0.081614	-0.063137	
2.03094	0	0	0.352329	-0.162711	0.129561	-0.474996	0.086496	-0.434712	0.110605	-0.368087	0.198241	-0.621257	0.133067	-0.35253	0.203973	-0.286292	-0.036925	-0.291705	-0.061329	-0.351201	0.0305915	-0.389751	-0.114606	-0.396985	-0.0279885	-0.218315	0.087778	-0.112054	0.115534	0.032431	0.043112	-0.325862	-0.0850228	-0.0535033	
2.03094	0	0	0.354268	-0.157718	0.129168	-0.461238	0.086496	-0.434712	0.112065	-0.363804	0.198241	-0.621257	0.129742	-0.343135	0.207832	-0.28643	-0.039799	-0.283582	-0.061329	-0.351201	0.029584	-0.386904	-0.115487	-0.394493	-0.029207	-0.214871	0.090242	-0.105122	0.118617	0.044053	0.04045	-0.318338	-0.0884315	-0.0438695	
2.02942	0	0	0.356207	-0.152726	0.128775	-0.44748	0.086496	-0.434712	0.113524	-0.359522	0.198241	-0.621257	0.126417	-0.333739	0.211692	-0.286567	-0.042673	-0.275459	-0.061329	-0.351201	0.0285765	-0.384056	-0.116369	-0.392001	-0.0304255	-0.211427	0.092706	-0.0981912	0.1217	0.055675	0.037788	-0.310815	-0.0918402	-0.0342357	
2.03094	0	0	0.358146	-0.147733	0.128383	-0.433721	0.086496	-0.434712	0.114983	-0.355239	0.198241	-0.621257	0.123093	-0.324343	0.215551	-0.286704	-0.045547	-0.267337	-0.061329	-0.351201	0.027569	-0.381209	-0.117251	-0.389509	-0.031644	-0.207984	0.09517	-0.09126	0.124782	0.067297	0.035126	-0.303291	-0.095249	-0.024602	
2.03094	0	0	0.356207	-0.152726	0.129228	-0.423453	0.0830147	-0.434279	0.113376	-0.350695	0.191451	-0.621113	0.116324	-0.31992	0.211692	-0.286567	-0.045547	-0.267337	-0.061329	-0.351201	0.031115	-0.381336	-0.119015	-0.384522	-0.029608	-0.201367	0.101412	-0.081079	0.130452	0.081816	0.0381292	-0.296568	-0.0850203	-0.020161	
2.03247	0	0	0.354268	-0.157718	0.130074	-0.413184	0.0795335	-0.433845	0.111768	-0.346152	0.184662	-0.620969	0.109556	-0.315497	0.207832	-0.28643	-0.045547	-0.267337	-0.061329	-0.351201	0.034661	-0.381464	-0.12078	-0.379536	-0.027572	-0.194749	0.107653	-0.070898	0.136122	0.096335	0.0411325	-0.289845	-0.0747915	-0.01572	
2.02942	0	0	0.352329	-0.162711	0.130919	-0.402916	0.0760523	-0.433411	0.11016	-0.341608	0.177872	-0.620824	0.102787	-0.311075	0.203973	-0.286292	-0.045547	-0.267337	-0.061329	-0.351201	0.038207	-0.381591	-0.122545	-0.374549	-0.025536	-0.188132	0.113895	-0.060717	0.141791	0.110854	0.0441358	-0.283123	-0.0645628	-0.011279	
2.03094	0	0	0.35039	-0.167704	0.131764	-0.392647	0.072571	-0.432978	0.108553	-0.337064	0.171082	-0.62068	0.096018	-0.306652	0.200114	-0.286155	-0.045547	-0.267337	-0.061329	-0.351201	0.041753	-0.381718	-0.124309	-0.369563	-0.0235	-0.181514	0.120136	-0.050536	0.147461	0.125373	0.047139	-0.2764	-0.054334	-0.006838	
2.03094	0	0	0.345554	-0.174964	0.123445	-0.381795	0.0734182	-0.435372	0.106944	-0.332518	0.169664	-0.626187	0.0976808	-0.311351	0.192403	-0.285883	-0.048691	-0.271527	-0.063996	-0.353712	0.038207	-0.381591	-0.131368	-0.368784	-0.0304145	-0.174345	0.123749	-0.032884	0.153131	0.13994	0.0388047	-0.268056	-0.0534888	0.00747075	
2.02942	0	0	0.340718	-0.182224	0.115126	-0.370942	0.0742655	-0.437765	0.105335	-0.327972	0.168245	-0.631694	0.0993435	-0.316051	0.184692	-0.28561	-0.051835	-0.275718	-0.066663	-0.356224	0.034661	-0.381464	-0.138428	-0.368004	-0.037329	-0.167175	0.127361	-0.015232	0.158801	0.154508	0.0304705	-0.259713	-0.0526435	0.0217795	
2.03094	0	0	0.335881	-0.189484	0.106808	-0.36009	0.0751128	-0.440159	0.103727	-0.323426	0.166827	-0.637201	0.101006	-0.32075	0.176981	-0.285338	-0.054979	-0.279908	-0.06933	-0.358735	0.031115	-0.381336	-0.145487	-0.367225	-0.0442435	-0.160005	0.130974	0.00242	0.164472	0.169075	0.0221363	-0.251369	-0.0517982	0.0360883	
2.02942	0	0	0.331045	-0.196744	0.098489	-0.349237	0.07596	-0.442553	0.102118	-0.31888	0.165409	-0.642708	0.102669	-0.325449	0.16927	-0.285066	-0.058123	-0.284098	-0.071997	-0.361246	0.027569	-0.381209	-0.152547	-0.366446	-0.051158	-0.152836	0.134586	0.020072	0.170142	0.183642	0.013802	-0.243026	-0.050953	0.050397	
2.03094	0	0	0.317559	-0.200415	0.0993227	-0.338935	0.0751128	-0.440159	0.0988985	-0.309781	0.161032	-0.639848	0.0975677	-0.325726	0.170366	-0.288164	-0.058123	-0.284098	-0.071997	-0.361246	0.0265613	-0.378361	-0.152547	-0.366446	-0.051158	-0.152836	0.13573	0.030787	0.171109	0.201331	0.0181338	-0.240058	-0.0449735	0.0502102	
2.02942	0	0	0.304073	-0.204086	0.100156	-0.328634	0.0742655	-0.437765	0.095679	-0.300682	0.156655	-0.636988	0.0924665	-0.326004	0.171463	-0.291262	-0.058123	-0.284098	-0.071997	-0.361246	0.0255535	-0.375513	-0.152547	-0.366446	-0.051158	-0.152836	0.136873	0.041502	0.172076	0.219019	0.0224655	-0.23709	-0.038994	0.0500235	
2.02942	0	0	0.290587	-0.207757	0.10099	-0.318332	0.0734182	-0.435372	0.0924595	-0.291583	0.152278	-0.634128	0.0873653	-0.326281	0.172559	-0.29436	-0.058123	-0.284098	-0.071997	-0.361246	0.0245457	-0.372664	-0.152547	-0.366446	-0.051158	-0.152836	0.138017	0.052217	0.173044	0.236708	0.0267973	-0.234121	-0.0330145	0.0498367	
2.02942	0	0	0.277101	-0.211428	0.101824	-0.30803	0.072571	-0.432978	0.08924	-0.282484	0.147901	-0.631268	0.082264	-0.326558	0.173655	-0.297458	-0.058123	-0.284098	-0.071997	-0.361246	0.023538	-0.369816	-0.152547	-0.366446	-0.051158	-0.152836	0.13916	0.062932	0.174011	0.254397	0.031129	-0.231153	-0.027035	0.04965	
2.02942	0	0	0.264602	-0.217797	0.103904	-0.301243	0.0673975	-0.427756	0.0898883	-0.275905	0.146914	-0.62848	0.080602	-0.321862	0.167611	-0.291127	-0.058123	-0.284098	-0.0703093	-0.355967	0.0250662	-0.364241	-0.147253	-0.362236	-0.0503497	-0.142748	0.145406	0.0732055	0.182269	0.271971	0.0424765	-0.232764	-0.0244788	0.0591525	
2.02789	0	0	0.252103	-0.224165	0.105985	-0.294457	0.062224	-0.422535	0.0905365	-0.269327	0.145927	-0.625691	0.07894	-0.317165	0.161567	-0.284795	-0.058123	-0.284098	-0.0686215	-0.350688	0.0265945	-0.358667	-0.141958	-0.358027	-0.0495415	-0.132661	0.151651	0.083479	0.190528	0.289546	0.053824	-0.234375	-0.0219225	0.068655	
2.02942	0	0	0.239605	-0.230534	0.108065	-0.287671	0.0570505	-0.417314	0.0911847	-0.262748	0.144941	-0.622903	0.077278	-0.312468	0.155522	-0.278464	-0.058123	-0.284098	-0.0669338	-0.345409	0.0281228	-0.353092	-0.136664	-0.353817	-0.0487333	-0.122573	0.157896	0.0937525	0.198786	0.30712	0.0651715	-0.235986	-0.0193662	0.0781575	
2.02942	0	0	0.227106	-0.236902	0.110145	-0.280884	0.051877	-0.412092	0.091833	-0.256169	0.143954	-0.620114	0.075616	-0.307772	0.149478	-0.272133	-0.058123	-0.284098	-0.065246	-0.34013	0.029651	-0.347518	-0.13137	-0.349607	-0.047925	-0.112485	0.164142	0.104026	0.207044	0.324694	0.076519	-0.237597	-0.01681	0.08766	
2.02942	0	0	0.222298	-0.244123	0.106391	-0.270276	0.0553558	-0.412524	0.0894138	-0.249332	0.136193	-0.617187	0.077278	-0.312468	0.149478	-0.272133	-0.0655732	-0.276108	-0.0672057	-0.334592	0.0266228	-0.33896	-0.134904	-0.33962	-0.0458965	-0.105838	0.17665	0.124653	0.22157	0.345179	0.0768493	-0.223282	-0.005704	0.106544	
2.02942	0	0	0.217489	-0.251345	0.102638	-0.259667	0.0588345	-0.412955	0.0869945	-0.242495	0.128433	-0.614259	0.07894	-0.317165	0.149478	-0.272133	-0.0730235	-0.268119	-0.0691655	-0.329053	0.0235945	-0.330402	-0.138437	-0.329634	-0.043868	-0.0991905	0.189157	0.14528	0.236097	0.365664	0.0771795	-0.208967	0.005402	0.125428	
2.02789	0	0	0.21268	-0.258567	0.0988838	-0.249059	0.0623133	-0.413386	0.0845753	-0.235657	0.120672	-0.611332	0.080602	-0.321862	0.149478	-0.272133	-0.0804738	-0.260129	-0.0711253	-0.323515	0.0205663	-0.321843	-0.141971	-0.319647	-0.0418395	-0.0925432	0.201664	0.165907	0.250623	0.386148	0.0775098	-0.194652	0.016508	0.144313	
2.02789	0	0	0.207872	-0.265788	0.09513	-0.23845	0.065792	-0.413818	0.082156	-0.22882	0.112911	-0.608405	0.082264	-0.326558	0.149478	-0.272133	-0.087924	-0.252139	-0.073085	-0.317977	0.017538	-0.313285	-0.145505	-0.30966	-0.039811	-0.085896	0.214172	0.186534	0.265149	0.406633	0.07784	-0.180337	0.027614	0.163197	
2.02942	0	0	0.202115	-0.270306	0.091372	-0.227829	0.0640963	-0.409026	0.0836078	-0.224508	0.111924	-0.605617	0.073844	-0.317445	0.149478	-0.272133	-0.087924	-0.252139	-0.0694377	-0.31823	0.0210843	-0.313408	-0.145505	-0.30966	-0.045509	-0.082173	0.212645	0.20487	0.265024	0.427545	0.0694828	-0.171966	0.03017	0.172761	
2.03094	0	0	0.196358	-0.274823	0.087614	-0.217207	0.0624005	-0.404234	0.0850595	-0.220197	0.110937	-0.602828	0.065424	-0.308333	0.149478	-0.272133	-0.087924	-0.252139	-0.0657905	-0.318484	0.0246305	-0.31353	-0.145505	-0.30966	-0.051207	-0.07845	0.211118	0.223205	0.264899	0.448457	0.0611255	-0.163596	0.032726	0.182325	
2.02789	0	0	0.190602	-0.279341	0.083856	-0.206586	0.0607048	-0.399441	0.0865112	-0.215885	0.109951	-0.600039	0.057004	-0.299221	0.149478	-0.272133	-0.087924	-0.252139	-0.0621432	-0.318737	0.0281768	-0.313653	-0.145505	-0.30966	-0.056905	-0.074727	0.209591	0.24154	0.264774	0.469368	0.0527683	-0.155225	0.035282	0.191888	
2.02484	0	0	0.184845	-0.283859	0.080098	-0.195965	0.059009	-0.394649	0.087963	-0.211573	0.108964	-0.597251	0.048584	-0.290108	0.149478	-0.272133	-0.087924	-0.252139	-0.058496	-0.31899	0.031723	-0.313775	-0.145505	-0.30966	-0.062603	-0.071004	0.208064	0.259876	0.264649	0.49028	0.044411	-0.146854	0.037838	0.201452	
2.02942	0	0	0.178143	-0.285683	0.0809138	-0.185596	0.0564638	-0.387456	0.0839235	-0.200157	0.101632	-0.586024	0.048584	-0.290108	0.143436	-0.265802	-0.0893613	-0.248077	-0.0604575	-0.313447	0.0261565	-0.307942	-0.147273	-0.304663	-0.056905	-0.074727	0.209191	0.270723	0.271385	0.502123	0.0430712	-0.143068	0.037838	0.201452	
2.02942	0	0	0.171442	-0.287507	0.0817295	-0.175227	0.0539185	-0.380262	0.079884	-0.188741	0.0942995	-0.574797	0.048584	-0.290108	0.137395	-0.259472	-0.0907985	-0.244014	-0.062419	-0.307903	0.02059	-0.30211	-0.149041	-0.299665	-0.051207	-0.07845	0.210317	0.28157	0.27812	0.513967	0.0417315	-0.139281	0.037838	0.201452	
2.02484	0	0	0.16474	-0.289331	0.0825453	-0.164857	0.0513733	-0.373069	0.0758445	-0.177325	0.0869672	-0.56357	0.048584	-0.290108	0.131353	-0.253142	-0.0922358	-0.239952	-0.0643805	-0.30236	0.0150235	-0.296277	-0.15081	-0.294667	-0.045509	-0.082173	0.211444	0.292416	0.284856	0.52581	0.0403918	-0.135494	0.037838	0.201452	
2.02942	0	0	0.158038	-0.291155	0.083361	-0.154488	0.048828	-0.365875	0.071805	-0.165909	0.079635	-0.552343	0.048584	-0.290108	0.125311	-0.246811	-0.093673	-0.23589	-0.066342	-0.296816	0.009457	-0.290444	-0.152578	-0.28967	-0.039811	-0.085896	0.21257	0.303263	0.291592	0.537654	0.039052	-0.131708	0.037838	0.201452	
2.02789	0	0	0.156116	-0.296097	0.0750155	-0.143577	0.0479793	-0.363476	0.0655062	-0.156522	0.0752667	-0.549489	0.0385053	-0.276295	0.124214	-0.24371	-0.095111	-0.231826	-0.0683047	-0.291269	0.01098	-0.284849	-0.150817	-0.285053	-0.0422597	-0.0789757	0.225296	0.309454	0.30094	0.552489	0.0433885	-0.128716	0.0343863	0.211207	
2.02789	0	0	0.154194	-0.301038	0.06667	-0.132666	0.0471305	-0.361077	0.0592075	-0.147135	0.0708985	-0.546635	0.0284265	-0.262483	0.123117	-0.24061	-0.096549	-0.227762	-0.0702675	-0.285722	0.012503	-0.279254	-0.149056	-0.280437	-0.0447085	-0.0720555	0.238021	0.315646	0.310287	0.567324	0.047725	-0.125723	0.0309345	0.220962	
2.02789	0	0	0.152272	-0.30598	0.0583245	-0.121755	0.0462818	-0.358678	0.0529087	-0.137748	0.0665302	-0.543781	0.0183477	-0.24867	0.12202	-0.23751	-0.097987	-0.223699	-0.0722302	-0.280175	0.014026	-0.27366	-0.147295	-0.275821	-0.0471572	-0.0651353	0.250746	0.321837	0.319634	0.582159	0.0520615	-0.122731	0.0274828	0.230717	
2.02789	0	0	0.15035	-0.310922	0.049979	-0.110844	0.045433	-0.356279	0.04661	-0.128361	0.062162	-0.540927	0.008269	-0.234857	0.120923	-0.234409	-0.099425	-0.219635	-0.074193	-0.274628	0.015549	-0.268065	-0.145534	-0.271204	-0.049606	-0.058215	0.263472	0.328028	0.328982	0.596994	0.056398	-0.119739	0.024031	0.240472	
2.02789	0	0	0.143659	-0.312742	0.0545558	-0.111104	0.0411067	-0.353452	0.0449915	-0.123787	0.0587838	-0.540865	0.008269	-0.234857	0.117078	-0.23428	-0.106873	-0.211642	-0.0751747	-0.271853	0.009981	-0.262229	-0.14995	-0.268319	-0.0577545	-0.0475663	0.261919	0.346491	0.329898	0.615065	0.0537145	-0.112155	0.0386065	0.249733	
2.02637	0	0	0.136968	-0.314561	0.0591325	-0.111365	0.0367805	-0.350626	0.043373	-0.119213	0.0554055	-0.540803	0.008269	-0.234857	0.113232	-0.234151	-0.114321	-0.203649	-0.0761565	-0.269078	0.004413	-0.256393	-0.154365	-0.265434	-0.065903	-0.0369175	0.260366	0.364954	0.330815	0.633136	0.051031	-0.10457	0.053182	0.258993	
2.02637	0	0	0.130277	-0.316381	0.0637092	-0.111625	0.0324543	-0.347799	0.0417545	-0.114639	0.0520272	-0.540742	0.008269	-0.234857	0.109387	-0.234022	-0.12177	-0.195657	-0.0771382	-0.266304	-0.001155	-0.250556	-0.15878	-0.262549	-0.0740515	-0.0262688	0.258812	0.383417	0.331732	0.651207	0.0483475	-0.0969862	0.0677575	0.268254	
2.02789	0	0	0.123586	-0.318201	0.068286	-0.111885	0.028128	-0.344972	0.040136	-0.110065	0.048649	-0.54068	0.008269	-0.234857	0.105542	-0.233893	-0.129218	-0.187664	-0.07812	-0.263529	-0.006723	-0.24472	-0.163196	-0.259664	-0.0822	-0.01562	0.257259	0.40188	0.332648	0.669278	0.045664	-0.089402	0.082333	0.277515	
2.02942	0	0	0.122636	-0.315517	0.0586793	-0.0974098	0.0264295	-0.340172	0.0377067	-0.1032	0.048649	-0.54068	0.00152175	-0.230448	0.105542	-0.233893	-0.130657	-0.183596	-0.07812	-0.263529	-0.007735	-0.24186	-0.167609	-0.25678	-0.0809745	-0.0190835	0.263741	0.397645	0.335255	0.67225	0.0483475	-0.0969862	0.0780467	0.272796	
2.02942	0	0	0.121687	-0.312833	0.0490725	-0.0829345	0.024731	-0.335371	0.0352775	-0.0963345	0.048649	-0.54068	-0.0052255	-0.226039	0.105542	-0.233893	-0.132097	-0.179529	-0.07812	-0.263529	-0.008747	-0.238999	-0.172022	-0.253896	-0.079749	-0.022547	0.270223	0.393409	0.337861	0.675223	0.051031	-0.10457	0.0737605	0.268076	
2.02789	0	0	0.120737	-0.310149	0.0394657	-0.0684592	0.0230325	-0.330571	0.0328483	-0.0894693	0.048649	-0.54068	-0.0119727	-0.22163	0.105542	-0.233893	-0.133536	-0.175461	-0.07812	-0.263529	-0.009759	-0.236139	-0.176435	-0.251013	-0.0785235	-0.0260105	0.276705	0.389174	0.340467	0.678195	0.0537145	-0.112155	0.0694743	0.263357	
2.02484	0	0	0.119787	-0.307465	0.029859	-0.053984	0.021334	-0.325771	0.030419	-0.082604	0.048649	-0.54068	-0.01872	-0.217221	0.105542	-0.233893	-0.134975	-0.171394	-0.07812	-0.263529	-0.010771	-0.233279	-0.180848	-0.248129	-0.077298	-0.029474	0.283187	0.384938	0.343074	0.681167	0.056398	-0.119739	0.065188	0.258638	
2.02789	0	0	0.116936	-0.299409	0.031915	-0.0471197	0.0196345	-0.320968	0.03105	-0.0759727	0.0423098	-0.532246	-0.0203845	-0.212517	0.0995055	-0.227565	-0.130406	-0.171251	-0.0791022	-0.260753	-0.012796	-0.227556	-0.178206	-0.246008	-0.077298	-0.029474	0.281846	0.388726	0.345682	0.684141	0.050721	-0.118943	0.0669172	0.253751	
2.02637	0	0	0.114086	-0.291353	0.033971	-0.0402555	0.017935	-0.316166	0.031681	-0.0693415	0.0359705	-0.523811	-0.022049	-0.207813	0.093469	-0.221237	-0.125836	-0.171108	-0.0800845	-0.257977	-0.014821	-0.221833	-0.175564	-0.243887	-0.077298	-0.029474	0.280506	0.392514	0.34829	0.687116	0.045044	-0.118148	0.0686465	0.248864	
2.02942	0	0	0.111235	-0.283296	0.036027	-0.0333912	0.0162355	-0.311363	0.032312	-0.0627102	0.0296312	-0.515377	-0.0237135	-0.203109	0.0874325	-0.214909	-0.121266	-0.170965	-0.0810667	-0.255202	-0.016846	-0.216111	-0.172921	-0.241767	-0.077298	-0.029474	0.279166	0.396302	0.350898	0.690091	0.039367	-0.117352	0.0703758	0.243978	
2.02789	0	0	0.108384	-0.27524	0.038083	-0.026527	0.014536	-0.306561	0.032943	-0.056079	0.023292	-0.506942	-0.025378	-0.198405	0.081396	-0.208581	-0.116697	-0.170822	-0.082049	-0.252426	-0.018871	-0.210388	-0.170279	-0.239646	-0.077298	-0.029474	0.277825	0.40009	0.353506	0.693065	0.03369	-0.116556	0.072105	0.239091	
2.02484	0	0	0.115072	-0.27341	0.0297285	-0.0155907	0.010212	-0.303735	0.0251992	-0.051019	0.0209063	-0.509675	-0.0270435	-0.193698	0.0775562	-0.208456	-0.122706	-0.166896	-0.0830313	-0.249649	-0.025451	-0.201686	-0.176464	-0.231755	-0.0842175	-0.02229	0.281629	0.403432	0.358725	0.699021	0.032349	-0.112766	0.0781233	0.238916	
2.02942	0	0	0.121759	-0.271581	0.021374	-0.0046545	0.005888	-0.30091	0.0174555	-0.045959	0.0185205	-0.512409	-0.028709	-0.188992	0.0737165	-0.20833	-0.128716	-0.162969	-0.0840135	-0.246873	-0.032031	-0.192984	-0.182648	-0.223864	-0.091137	-0.015106	0.285434	0.406775	0.363944	0.704978	0.031008	-0.108976	0.0841415	0.23874	
2.02484	0	0	0.128447	-0.269751	0.0130195	0.00628175	0.001564	-0.298084	0.00971175	-0.040899	0.0161347	-0.515143	-0.0303745	-0.184285	0.0698768	-0.208205	-0.134725	-0.159043	-0.0849957	-0.244096	-0.038611	-0.184282	-0.188833	-0.215973	-0.0980565	-0.007922	0.289239	0.410118	0.369163	0.710934	0.029667	-0.105186	0.0901597	0.238564	
2.02637	0	0	0.135135	-0.267921	0.004665	0.017218	-0.00276	-0.295259	0.001968	-0.035839	0.013749	-0.517876	-0.03204	-0.179579	0.066037	-0.20808	-0.140735	-0.155116	-0.085978	-0.24132	-0.045191	-0.17558	-0.195018	-0.208082	-0.104976	-0.000738	0.293043	0.41346	0.374382	0.71689	0.028326	-0.101396	0.096178	0.238389	
2.02789	0	0	0.132279	-0.25985	-0.0011645	0.0210273	-0.007932	-0.290033	-0.0019015	-0.0333108	0.010377	-0.517818	-0.0303745	-0.184285	0.0671337	-0.211179	-0.140735	-0.155116	-0.093266	-0.240826	-0.0431648	-0.181307	-0.195886	-0.215212	-0.102525	-0.0076635	0.290579	0.40633	0.37285	0.710865	0.0196678	-0.107385	0.093615	0.228799	
2.02789	0	0	0.129423	-0.251779	-0.006994	0.0248365	-0.013104	-0.284806	-0.005771	-0.0307825	0.007005	-0.517759	-0.028709	-0.188992	0.0682305	-0.214278	-0.140735	-0.155116	-0.100554	-0.240333	-0.0411385	-0.187033	-0.196754	-0.222341	-0.100075	-0.014589	0.288115	0.399199	0.371317	0.70484	0.0110095	-0.113375	0.091052	0.219209	
2.02484	0	0	0.126567	-0.243708	-0.0128235	0.0286457	-0.018276	-0.27958	-0.0096405	-0.0282543	0.003633	-0.517701	-0.0270435	-0.193698	0.0693273	-0.217378	-0.140735	-0.155116	-0.107842	-0.23984	-0.0391123	-0.19276	-0.197623	-0.229471	-0.0976245	-0.0215145	0.285651	0.392068	0.369785	0.698816	0.00235125	-0.119364	0.088489	0.209618	
2.02637	0	0	0.123711	-0.235637	-0.018653	0.032455	-0.023448	-0.274354	-0.01351	-0.025726	0.000261	-0.517643	-0.025378	-0.198405	0.070424	-0.220477	-0.140735	-0.155116	-0.11513	-0.239346	-0.037086	-0.198486	-0.198491	-0.236601	-0.095174	-0.02844	0.283187	0.384938	0.368252	0.692791	-0.006307	-0.125354	0.085926	0.200028	
2.02942	0	0	0.121806	-0.230252	-0.0153462	0.035776	-0.0277675	-0.271531	-0.0181885	-0.0209067	-0.004096	-0.514796	-0.0337855	-0.189293	0.0676822	-0.223448	-0.142176	-0.151044	-0.113167	-0.244895	-0.0416373	-0.195512	-0.195837	-0.244103	-0.0984155	-0.031642	0.282061	0.374037	0.36887	0.680693	-0.0009555	-0.140478	0.0850853	0.185587	
2.02942	0	0	0.1199	-0.224867	-0.0120395	0.039097	-0.032087	-0.268709	-0.022867	-0.0160875	-0.008453	-0.51195	-0.042193	-0.180181	0.0649405	-0.22642	-0.143616	-0.146973	-0.111203	-0.250443	-0.0461885	-0.192538	-0.193183	-0.251604	-0.101657	-0.034844	0.280934	0.363135	0.369489	0.668594	0.004396	-0.155602	0.0842445	0.171146	
2.02789	0	0	0.117995	-0.219483	-0.00873275	0.042418	-0.0364065	-0.265886	-0.0275455	-0.0112683	-0.01281	-0.509103	-0.0506005	-0.17107	0.0621988	-0.229391	-0.145056	-0.142902	-0.10924	-0.255991	-0.0507398	-0.189564	-0.190528	-0.259105	-0.104899	-0.038046	0.279808	0.352234	0.370108	0.656496	0.0097475	-0.170725	0.0834037	0.156704	
2.02484	0	0	0.11609	-0.214098	-0.005426	0.045739	-0.040726	-0.263063	-0.032224	-0.006449	-0.017167	-0.506256	-0.059008	-0.161958	0.059457	-0.232363	-0.146497	-0.13883	-0.107277	-0.26154	-0.055291	-0.18659	-0.187874	-0.266607	-0.10814	-0.041248	0.278682	0.341333	0.370726	0.644397	0.015099	-0.185849	0.082563	0.142263	
2.02026	0	0	0.11609	-0.214098	-0.0170815	0.0533548	-0.0450435	-0.260242	-0.0391428	-0.00369025	-0.0272645	-0.50609	-0.059008	-0.161958	0.0567168	-0.235332	-0.145056	-0.142902	-0.110918	-0.261293	-0.056304	-0.183727	-0.188758	-0.264107	-0.109364	-0.0377888	0.281357	0.333774	0.373951	0.635282	0.0247778	-0.197979	0.0765523	0.142448	
2.02789	0	0	0.11609	-0.214098	-0.028737	0.0609705	-0.049361	-0.257421	-0.0460615	-0.0009315	-0.037362	-0.505923	-0.059008	-0.161958	0.0539765	-0.238301	-0.143616	-0.146973	-0.11456	-0.261045	-0.057317	-0.180864	-0.189643	-0.261607	-0.110589	-0.0343295	0.284031	0.326216	0.377176	0.626168	0.0344565	-0.21011	0.0705415	0.142633	
2.02484	0	0	0.11609	-0.214098	-0.0403925	0.0685863	-0.0536785	-0.2546	-0.0529802	0.00182725	-0.0474595	-0.505756	-0.059008	-0.161958	0.0512362	-0.24127	-0.142176	-0.151044	-0.118201	-0.260798	-0.05833	-0.178002	-0.190528	-0.259108	-0.111813	-0.0308703	0.286706	0.318658	0.380401	0.617054	0.0441353	-0.222241	0.0645307	0.142818	
2.02637	0	0	0.11609	-0.214098	-0.052048	0.076202	-0.057996	-0.251779	-0.059899	0.004586	-0.057557	-0.50559	-0.059008	-0.161958	0.048496	-0.244239	-0.140735	-0.155116	-0.121842	-0.260551	-0.059343	-0.175139	-0.191412	-0.256608	-0.113037	-0.027411	0.289381	0.311099	0.383626	0.607939	0.053814	-0.234371	0.05852	0.143003	
2.02484	0	0	0.109407	-0.21594	-0.049525	0.0690718	-0.057146	-0.254181	-0.0590883	0.00229475	-0.0545997	-0.513948	-0.0640793	-0.162262	0.045757	-0.247206	-0.1453	-0.155261	-0.1189	-0.268865	-0.060854	-0.180752	-0.193168	-0.261225	-0.111813	-0.0308703	0.285576	0.307779	0.378401	0.602021	0.0468075	-0.229793	0.052515	0.143186	
2.02789	0	0	0.102723	-0.217782	-0.047002	0.0619415	-0.056296	-0.256583	-0.0582775	3.5E-06	-0.0516425	-0.522306	-0.0691505	-0.162567	0.043018	-0.250173	-0.149865	-0.155407	-0.115959	-0.277178	-0.062365	-0.186365	-0.194923	-0.265842	-0.110589	-0.0343295	0.281771	0.304459	0.373177	0.596104	0.039801	-0.225214	0.04651	0.143369	
2.02637	0	0	0.0960403	-0.219623	-0.044479	0.0548113	-0.055446	-0.258986	-0.0574667	-0.00228775	-0.0486852	-0.530664	-0.0742218	-0.162872	0.040279	-0.253139	-0.154431	-0.155553	-0.113017	-0.285492	-0.063876	-0.191979	-0.196679	-0.270458	-0.109364	-0.0377887	0.277966	0.301139	0.367952	0.590186	0.0327945	-0.220636	0.040505	0.143553	
2.02179	0	0	0.089357	-0.221465	-0.041956	0.047681	-0.054596	-0.261388	-0.056656	-0.004579	-0.045728	-0.539022	-0.079293	-0.163176	0.03754	-0.256106	-0.158996	-0.155698	-0.110075	-0.293806	-0.065387	-0.197592	-0.198435	-0.275075	-0.10814	-0.041248	0.274161	0.297819	0.362727	0.584268	0.025788	-0.216058	0.0345	0.143736	
2.02331	0	0	0.0855425	-0.221041	-0.0477778	0.051485	-0.0597615	-0.256166	-0.056656	-0.004579	-0.053437	-0.536126	-0.0776285	-0.16788	0.0337087	-0.25598	-0.163558	-0.155844	-0.112735	-0.296326	-0.064375	-0.200452	-0.201958	-0.274694	-0.112603	-0.0409905	0.27436	0.283195	0.35965	0.572305	0.01713	-0.221998	0.0336578	0.129345	
2.02484	0	0	0.081728	-0.220617	-0.0535995	0.055289	-0.064927	-0.250944	-0.056656	-0.004579	-0.061146	-0.533229	-0.075964	-0.172584	0.0298775	-0.255853	-0.16812	-0.155991	-0.115396	-0.298845	-0.063363	-0.203312	-0.20548	-0.274312	-0.117066	-0.040733	0.274558	0.268572	0.356572	0.560342	0.008472	-0.227938	0.0328155	0.114953	
2.02484	0	0	0.0779135	-0.220193	-0.0594212	0.059093	-0.0700925	-0.245722	-0.056656	-0.004579	-0.068855	-0.530332	-0.0742995	-0.177288	0.0260462	-0.255726	-0.172681	-0.156138	-0.118056	-0.301365	-0.062351	-0.206172	-0.209002	-0.27393	-0.121529	-0.0404755	0.274757	0.253948	0.353494	0.54838	-0.000186	-0.233879	0.0319733	0.100561	
2.02484	0	0	0.074099	-0.219769	-0.065243	0.062897	-0.075258	-0.2405	-0.056656	-0.004579	-0.076564	-0.527436	-0.072635	-0.181992	0.022215	-0.2556	-0.177243	-0.156284	-0.120716	-0.303885	-0.061339	-0.209032	-0.212525	-0.273549	-0.125992	-0.040218	0.274956	0.239324	0.350417	0.536417	-0.008844	-0.239819	0.031131	0.08617	
2.02637	0	0	0.0693353	-0.216656	-0.0710607	0.0666985	-0.075258	-0.2405	-0.0605185	-0.00205525	-0.0809078	-0.524598	-0.0742995	-0.177288	0.0194793	-0.258564	-0.175804	-0.16035	-0.118758	-0.30942	-0.061339	-0.209032	-0.211641	-0.276046	-0.119082	-0.0473905	0.268683	0.22896	0.353153	0.518362	-0.0105045	-0.250312	0.0302805	0.0718162	
2.02484	0	0	0.0645715	-0.213543	-0.0768785	0.0705	-0.075258	-0.2405	-0.064381	0.0004685	-0.0852515	-0.521759	-0.075964	-0.172584	0.0167435	-0.261528	-0.174366	-0.164415	-0.116799	-0.314955	-0.061339	-0.209032	-0.210758	-0.278543	-0.112172	-0.054563	0.26241	0.218595	0.355889	0.500308	-0.012165	-0.260805	0.02943	0.0574625	
2.02637	0	0	0.0598077	-0.210431	-0.0826962	0.0743015	-0.075258	-0.2405	-0.0682435	0.00299225	-0.0895952	-0.518921	-0.0776285	-0.16788	0.0140077	-0.264491	-0.172927	-0.168481	-0.11484	-0.320489	-0.061339	-0.209032	-0.209875	-0.28104	-0.105263	-0.0617355	0.256137	0.20823	0.358626	0.482253	-0.0138255	-0.271298	0.0285795	0.0431088	
2.02484	0	0	0.055044	-0.207318	-0.088514	0.078103	-0.075258	-0.2405	-0.072106	0.005516	-0.093939	-0.516082	-0.079293	-0.163176	0.011272	-0.267455	-0.171488	-0.172547	-0.112882	-0.326024	-0.061339	-0.209032	-0.208991	-0.283537	-0.098353	-0.068908	0.249864	0.197866	0.361362	0.464198	-0.015486	-0.281791	0.027729	0.028755	
2.02789	0	0	0.054092	-0.204628	-0.0976168	0.0785737	-0.0778713	-0.242485	-0.075156	0.00574775	-0.0953267	-0.521593	-0.08436	-0.163482	0.004713	-0.27029	-0.168613	-0.180673	-0.114564	-0.331303	-0.0557783	-0.214864	-0.207225	-0.288529	-0.10404	-0.0651922	0.247394	0.190817	0.360884	0.455232	-0.0114955	-0.293069	0.0217365	0.0289482	
2.02484	0	0	0.05314	-0.201937	-0.106719	0.0790445	-0.0804845	-0.244471	-0.078206	0.0059795	-0.0967145	-0.527103	-0.089427	-0.163787	-0.001846	-0.273126	-0.165737	-0.1888	-0.116247	-0.336581	-0.0502175	-0.220695	-0.205458	-0.293521	-0.109727	-0.0614765	0.244924	0.183767	0.360407	0.446266	-0.007505	-0.304347	0.015744	0.0291415	
2.02484	0	0	0.052188	-0.199246	-0.115822	0.0795153	-0.0830977	-0.246456	-0.081256	0.00621125	-0.0981023	-0.532614	-0.094494	-0.164093	-0.008405	-0.275961	-0.162862	-0.196926	-0.117929	-0.34186	-0.0446567	-0.226527	-0.203692	-0.298513	-0.115413	-0.0577607	0.242453	0.176717	0.359929	0.4373	-0.0035145	-0.315626	0.0097515	0.0293347	
2.02331	0	0	0.051236	-0.196556	-0.124925	0.079986	-0.085711	-0.248442	-0.084306	0.006443	-0.09949	-0.538125	-0.099561	-0.164399	-0.014964	-0.278796	-0.159987	-0.205052	-0.119611	-0.347139	-0.039096	-0.232359	-0.201926	-0.303505	-0.1211	-0.054045	0.239983	0.169668	0.359451	0.428334	0.000476	-0.326904	0.003759	0.029528	
2.02331	0	0	0.0483785	-0.198825	-0.123665	0.0764258	-0.0891725	-0.248026	-0.0881648	0.0089645	-0.100878	-0.543629	-0.0978975	-0.1691	-0.0176947	-0.281755	-0.163111	-0.209252	-0.120316	-0.355173	-0.036063	-0.240931	-0.207202	-0.307727	-0.117433	-0.0644072	0.236367	0.151859	0.353746	0.413543	-0.0151447	-0.328241	0.0046125	0.010389	
2.02331	0	0	0.045521	-0.201094	-0.122406	0.0728655	-0.092634	-0.247611	-0.0920235	0.011486	-0.102267	-0.549134	-0.096234	-0.173802	-0.0204255	-0.284713	-0.166235	-0.213452	-0.121022	-0.363206	-0.03303	-0.249503	-0.212478	-0.311948	-0.113766	-0.0747695	0.23275	0.13405	0.348041	0.398753	-0.0307655	-0.329578	0.005466	-0.00875	
2.02331	0	0	0.0426635	-0.203363	-0.121146	0.0693052	-0.0960955	-0.247195	-0.0958823	0.0140075	-0.103655	-0.554638	-0.0945705	-0.178504	-0.0231562	-0.287672	-0.169359	-0.217653	-0.121727	-0.37124	-0.029997	-0.258074	-0.217754	-0.316169	-0.1101	-0.0851318	0.229134	0.11624	0.342336	0.383962	-0.0463862	-0.330915	0.0063195	-0.027889	
2.02179	0	0	0.039806	-0.205632	-0.119886	0.065745	-0.099557	-0.246779	-0.099741	0.016529	-0.105044	-0.560143	-0.092907	-0.183205	-0.025887	-0.290631	-0.172483	-0.221853	-0.122432	-0.379274	-0.026964	-0.266646	-0.22303	-0.320391	-0.106433	-0.095494	0.225518	0.098431	0.336631	0.369171	-0.062007	-0.332252	0.007173	-0.047028	
2.02484	0	0	0.03695	-0.207899	-0.117368	0.058629	-0.099557	-0.246779	-0.099741	0.016529	-0.109381	-0.557309	-0.092907	-0.183205	-0.0286167	-0.293587	-0.171048	-0.225909	-0.125092	-0.381779	-0.0284827	-0.272238	-0.220385	-0.327865	-0.102771	-0.105844	0.220573	0.0844185	0.334598	0.354337	-0.0636695	-0.342691	-0.00137875	-0.056269	
2.02331	0	0	0.034094	-0.210167	-0.11485	0.051513	-0.099557	-0.246779	-0.099741	0.016529	-0.113719	-0.554475	-0.092907	-0.183205	-0.0313465	-0.296543	-0.169612	-0.229966	-0.127751	-0.384285	-0.0300015	-0.277829	-0.217741	-0.33534	-0.0991085	-0.116195	0.215628	0.070406	0.332565	0.339502	-0.065332	-0.353129	-0.0099305	-0.06551	
2.02179	0	0	0.031238	-0.212434	-0.112332	0.044397	-0.099557	-0.246779	-0.099741	0.016529	-0.118056	-0.551641	-0.092907	-0.183205	-0.0340763	-0.2995	-0.168177	-0.234023	-0.130411	-0.38679	-0.0315202	-0.28342	-0.215096	-0.342814	-0.0954463	-0.126545	0.210683	0.0563935	0.330531	0.324667	-0.0669945	-0.363567	-0.0184823	-0.074751	
2.02331	0	0	0.028382	-0.214701	-0.109814	0.037281	-0.099557	-0.246779	-0.099741	0.016529	-0.122393	-0.548807	-0.092907	-0.183205	-0.036806	-0.302456	-0.166742	-0.238079	-0.133071	-0.389296	-0.033039	-0.289012	-0.212451	-0.350288	-0.091784	-0.136896	0.205738	0.042381	0.328498	0.309833	-0.068657	-0.374006	-0.027034	-0.083992	
2.02484	0	0	0.023624	-0.221915	-0.11562	0.0410748	-0.103017	-0.246364	-0.0989307	0.0142387	-0.129095	-0.548699	-0.0979703	-0.183509	-0.040624	-0.30233	-0.169866	-0.242271	-0.130144	-0.397569	-0.033039	-0.289012	-0.212451	-0.350288	-0.0930043	-0.133447	0.203265	0.0353912	0.329068	0.297938	-0.0660082	-0.381492	-0.023627	-0.0936208	
2.02179	0	0	0.018866	-0.229129	-0.121426	0.0448685	-0.106476	-0.245949	-0.0981205	0.0119485	-0.135797	-0.54859	-0.103034	-0.183813	-0.044442	-0.302204	-0.17299	-0.246463	-0.127217	-0.405842	-0.033039	-0.289012	-0.212451	-0.350288	-0.0942245	-0.129998	0.200793	0.0284015	0.329639	0.286044	-0.0633595	-0.388977	-0.02022	-0.103249	
2.02331	0	0	0.014108	-0.236343	-0.127232	0.0486623	-0.109935	-0.245533	-0.0973103	0.00965825	-0.142499	-0.548482	-0.108097	-0.184117	-0.04826	-0.302078	-0.176113	-0.250655	-0.124289	-0.414115	-0.033039	-0.289012	-0.212451	-0.350288	-0.0954447	-0.12655	0.198321	0.0214118	0.33021	0.27415	-0.0607108	-0.396463	-0.016813	-0.112878	
2.02026	0	0	0.00935	-0.243557	-0.133038	0.052456	-0.113395	-0.245118	-0.0965	0.007368	-0.149201	-0.548374	-0.11316	-0.184421	-0.052078	-0.301952	-0.179237	-0.254847	-0.121362	-0.422388	-0.033039	-0.289012	-0.212451	-0.350288	-0.096665	-0.123101	0.195848	0.014422	0.33078	0.262255	-0.058062	-0.403949	-0.013406	-0.122507	
2.02179	0	0	0.00364975	-0.237769	-0.14338	0.05648	-0.116004	-0.247103	-0.100357	0.00988825	-0.151567	-0.551096	-0.111498	-0.189117	-0.0537152	-0.307983	-0.183792	-0.254985	-0.127655	-0.42463	-0.0345582	-0.294597	-0.218605	-0.352008	-0.0999078	-0.126284	0.186951	0.0116403	0.325559	0.256463	-0.0636992	-0.403141	-0.0270528	-0.117288	
2.02331	0	0	-0.0020505	-0.231981	-0.153722	0.060504	-0.118612	-0.249087	-0.104214	0.0124085	-0.153933	-0.553819	-0.109837	-0.193814	-0.0553525	-0.314015	-0.188347	-0.255123	-0.133948	-0.426872	-0.0360775	-0.300181	-0.22476	-0.353729	-0.103151	-0.129467	0.178055	0.0088585	0.320338	0.250671	-0.0693365	-0.402333	-0.0406995	-0.112069	
2.02179	0	0	-0.00775075	-0.226193	-0.164063	0.064528	-0.121221	-0.251072	-0.108071	0.0149288	-0.156299	-0.556542	-0.108175	-0.198511	-0.0569897	-0.320047	-0.192902	-0.255261	-0.140241	-0.429115	-0.0375967	-0.305766	-0.230914	-0.355449	-0.106393	-0.132649	0.169158	0.00607675	0.315118	0.244879	-0.0749738	-0.401525	-0.0543462	-0.10685	
2.02179	0	0	-0.013451	-0.220405	-0.174405	0.068552	-0.12383	-0.253057	-0.111928	0.017449	-0.158665	-0.559264	-0.106513	-0.203207	-0.058627	-0.326078	-0.197457	-0.255399	-0.146534	-0.431357	-0.039116	-0.311351	-0.237068	-0.357169	-0.109636	-0.135832	0.160262	0.003295	0.309897	0.239087	-0.080611	-0.400717	-0.067993	-0.101631	
2.02331	0	0	-0.0115512	-0.215452	-0.174405	0.068552	-0.127286	-0.252643	-0.111118	0.0151595	-0.162994	-0.556436	-0.106513	-0.203207	-0.062441	-0.325951	-0.194592	-0.263496	-0.143612	-0.439615	-0.0406357	-0.316929	-0.233548	-0.367117	-0.111658	-0.142456	0.15023	-0.0101627	0.30785	0.224348	-0.0822777	-0.411119	-0.0654638	-0.125431	
2.02331	0	0	-0.0096515	-0.2105	-0.174405	0.068552	-0.130742	-0.252228	-0.110308	0.01287	-0.167322	-0.553608	-0.106513	-0.203207	-0.066255	-0.325824	-0.191727	-0.271593	-0.14069	-0.447872	-0.0421555	-0.322508	-0.230028	-0.377065	-0.11368	-0.14908	0.140199	-0.0236205	0.305803	0.209609	-0.0839445	-0.421521	-0.0629345	-0.149232	
2.02179	0	0	-0.00775175	-0.205547	-0.174405	0.068552	-0.134197	-0.251814	-0.109498	0.0105805	-0.17165	-0.550779	-0.106513	-0.203207	-0.070069	-0.325698	-0.188862	-0.279689	-0.137769	-0.456129	-0.0436752	-0.328086	-0.226509	-0.387012	-0.115703	-0.155703	0.130167	-0.0370783	0.303756	0.19487	-0.0856112	-0.431923	-0.0604052	-0.173032	
2.02179	0	0	-0.005852	-0.200595	-0.174405	0.068552	-0.137653	-0.2514	-0.108688	0.008291	-0.175979	-0.547951	-0.106513	-0.203207	-0.073883	-0.325571	-0.185997	-0.287786	-0.134847	-0.464387	-0.045195	-0.333664	-0.222989	-0.39696	-0.117725	-0.162327	0.120136	-0.050536	0.301709	0.180131	-0.087278	-0.442325	-0.057876	-0.196832	
2.02179	0	0	-0.00014775	-0.196055	-0.175663	0.0721077	-0.140259	-0.253384	-0.113353	0.0130998	-0.179323	-0.547899	-0.106513	-0.203207	-0.0766068	-0.32852	-0.183135	-0.295875	-0.137506	-0.466879	-0.048729	-0.333544	-0.225625	-0.399058	-0.116507	-0.165769	0.121605	-0.0686035	0.303318	0.16533	-0.095892	-0.448168	-0.060449	-0.206198	
2.02179	0	0	0.0055565	-0.191516	-0.176922	0.0756635	-0.142865	-0.255367	-0.118019	0.0179085	-0.182668	-0.547846	-0.106513	-0.203207	-0.0793305	-0.331469	-0.180273	-0.303964	-0.140164	-0.469371	-0.052263	-0.333423	-0.228262	-0.401155	-0.115289	-0.169211	0.123074	-0.086671	0.304928	0.150529	-0.104506	-0.454011	-0.063022	-0.215564	
2.02331	0	0	0.0112607	-0.186976	-0.17818	0.0792193	-0.14547	-0.257351	-0.122685	0.0227172	-0.186012	-0.547794	-0.106513	-0.203207	-0.0820543	-0.334418	-0.17741	-0.312054	-0.142823	-0.471862	-0.055797	-0.333303	-0.230899	-0.403253	-0.114071	-0.172653	0.124543	-0.104738	0.306537	0.135727	-0.11312	-0.459854	-0.065595	-0.22493	
2.02026	0	0	0.016965	-0.182436	-0.179438	0.082775	-0.148076	-0.259335	-0.12735	0.027526	-0.189357	-0.547742	-0.106513	-0.203207	-0.084778	-0.337367	-0.174548	-0.320143	-0.145482	-0.474354	-0.059331	-0.333183	-0.233535	-0.405351	-0.112853	-0.176095	0.126012	-0.122806	0.308146	0.120926	-0.121734	-0.465697	-0.068168	-0.234296	
2.02331	0	0	0.0198193	-0.180164	-0.176922	0.0756648	-0.149833	-0.263713	-0.132626	0.025694	-0.191718	-0.550463	-0.111573	-0.20351	-0.0885875	-0.337241	-0.179102	-0.320275	-0.149112	-0.474096	-0.0537823	-0.338997	-0.232656	-0.407835	-0.118528	-0.172387	0.122233	-0.126029	0.306589	0.115079	-0.121734	-0.465697	-0.068168	-0.234296	
2.02179	0	0	0.0226735	-0.177891	-0.174406	0.0685545	-0.15159	-0.268091	-0.137902	0.023862	-0.19408	-0.553185	-0.116633	-0.203813	-0.092397	-0.337114	-0.183657	-0.320407	-0.152742	-0.473838	-0.0482335	-0.344811	-0.231777	-0.410319	-0.124203	-0.168679	0.118453	-0.129253	0.305032	0.109232	-0.121734	-0.465697	-0.068168	-0.234296	
2.02331	0	0	0.0255278	-0.175619	-0.17189	0.0614442	-0.153347	-0.272468	-0.143177	0.02203	-0.196441	-0.555906	-0.121692	-0.204115	-0.0962065	-0.336988	-0.188211	-0.320538	-0.156371	-0.473579	-0.0426848	-0.350625	-0.230898	-0.412803	-0.129879	-0.16497	0.114674	-0.132476	0.303474	0.103384	-0.121734	-0.465697	-0.068168	-0.234296	
2.02179	0	0	0.028382	-0.173347	-0.169374	0.054334	-0.155104	-0.276846	-0.148453	0.020198	-0.198802	-0.558628	-0.126752	-0.204418	-0.100016	-0.336862	-0.192765	-0.32067	-0.160001	-0.473321	-0.037136	-0.356439	-0.230019	-0.415287	-0.135554	-0.161262	0.110894	-0.1357	0.301917	0.097537	-0.121734	-0.465697	-0.068168	-0.234296	
2.02179	0	0	0.0264768	-0.167962	-0.169374	0.054334	-0.158555	-0.276432	-0.144601	0.017681	-0.202143	-0.558576	-0.126752	-0.204418	-0.100016	-0.336862	-0.192765	-0.32067	-0.157085	-0.481563	-0.0431975	-0.359039	-0.231777	-0.419864	-0.13312	-0.168142	0.109733	-0.146313	0.294092	0.0889412	-0.131651	-0.467808	-0.0724335	-0.238864	
2.02026	0	0	0.0245715	-0.162577	-0.169374	0.054334	-0.162005	-0.276018	-0.140749	0.015164	-0.205484	-0.558524	-0.126752	-0.204418	-0.100016	-0.336862	-0.192765	-0.32067	-0.154168	-0.489806	-0.049259	-0.361639	-0.233535	-0.424441	-0.130685	-0.175022	0.108572	-0.156926	0.286268	0.0803455	-0.141568	-0.46992	-0.076699	-0.243431	
2.02331	0	0	0.0226663	-0.157193	-0.169374	0.054334	-0.165456	-0.275604	-0.136897	0.012647	-0.208825	-0.558473	-0.126752	-0.204418	-0.100016	-0.336862	-0.192765	-0.32067	-0.151252	-0.498048	-0.0553205	-0.364239	-0.235292	-0.429018	-0.128251	-0.181903	0.107411	-0.16754	0.278443	0.0717498	-0.151485	-0.472031	-0.0809645	-0.247999	
2.01721	0	0	0.020761	-0.151808	-0.169374	0.054334	-0.168907	-0.27519	-0.133045	0.01013	-0.212166	-0.558421	-0.126752	-0.204418	-0.100016	-0.336862	-0.192765	-0.32067	-0.148336	-0.50629	-0.061382	-0.366839	-0.23705	-0.433595	-0.125816	-0.188783	0.10625	-0.178153	0.270618	0.063154	-0.161402	-0.474142	-0.08523	-0.252567	
2.02179	0	0	0.0179078	-0.154083	-0.177684	0.0652303	-0.172356	-0.274777	-0.137707	0.0149355	-0.216486	-0.555598	-0.126752	-0.204418	-0.103823	-0.336736	-0.189906	-0.328748	-0.150993	-0.508775	-0.0558367	-0.372648	-0.236172	-0.436076	-0.1246	-0.192221	0.0986998	-0.184573	0.270111	0.0543612	-0.167013	-0.473337	-0.087803	-0.261903	
2.02026	0	0	0.0150545	-0.156359	-0.185995	0.0761265	-0.175805	-0.274364	-0.142369	0.019741	-0.220805	-0.552776	-0.126752	-0.204418	-0.10763	-0.336611	-0.187048	-0.336827	-0.15365	-0.511259	-0.0502915	-0.378456	-0.235294	-0.438557	-0.123383	-0.195659	0.0911495	-0.190992	0.269604	0.0455685	-0.172623	-0.472533	-0.090376	-0.271239	
2.02179	0	0	0.0122013	-0.158635	-0.194305	0.0870228	-0.179253	-0.273951	-0.14703	0.0245465	-0.225125	-0.549953	-0.126752	-0.204418	-0.111438	-0.336485	-0.18419	-0.344905	-0.156308	-0.513744	-0.0447463	-0.384265	-0.234416	-0.441038	-0.122167	-0.199097	0.0835992	-0.197412	0.269097	0.0367758	-0.178233	-0.471728	-0.092949	-0.280576	
2.02179	0	0	0.009348	-0.16091	-0.202615	0.097919	-0.182702	-0.273538	-0.151692	0.029352	-0.229445	-0.547131	-0.126752	-0.204418	-0.115245	-0.33636	-0.181331	-0.352983	-0.158965	-0.516229	-0.039201	-0.390074	-0.233538	-0.443519	-0.12095	-0.202535	0.076049	-0.203831	0.26859	0.027983	-0.183844	-0.470923	-0.095522	-0.289912	
2.02026	0	0	0.0007975	-0.167727	-0.208405	0.101703	-0.185302	-0.275518	-0.153923	0.0272915	-0.233763	-0.54431	-0.125092	-0.20911	-0.115245	-0.33636	-0.181331	-0.352983	-0.158965	-0.516229	-0.040207	-0.387231	-0.230023	-0.443908	-0.12095	-0.202535	0.0722778	-0.207036	0.26808	0.0192042	-0.181212	-0.478362	-0.10147	-0.289694	
2.02179	0	0	-0.007753	-0.174544	-0.214195	0.105486	-0.187903	-0.277498	-0.156154	0.025231	-0.23808	-0.541489	-0.123432	-0.213801	-0.115245	-0.33636	-0.181331	-0.352983	-0.158965	-0.516229	-0.041213	-0.384389	-0.226509	-0.444298	-0.12095	-0.202535	0.0685065	-0.210242	0.26757	0.0104255	-0.17858	-0.485801	-0.107419	-0.289475	
2.02026	0	0	-0.0163035	-0.181362	-0.219986	0.10927	-0.190503	-0.279479	-0.158384	0.0231705	-0.242397	-0.538667	-0.121772	-0.218492	-0.115245	-0.33636	-0.181331	-0.352983	-0.158965	-0.516229	-0.042219	-0.381546	-0.222994	-0.444687	-0.12095	-0.202535	0.0647352	-0.213447	0.26706	0.00164675	-0.175947	-0.493241	-0.113367	-0.289257	
2.02179	0	0	-0.024854	-0.188179	-0.225776	0.113053	-0.193103	-0.281459	-0.160615	0.02111	-0.246715	-0.535846	-0.120112	-0.223184	-0.115245	-0.33636	-0.181331	-0.352983	-0.158965	-0.516229	-0.043225	-0.378703	-0.219479	-0.445076	-0.12095	-0.202535	0.060964	-0.216652	0.26655	-0.007132	-0.173315	-0.50068	-0.119315	-0.289039	
2.02179	0	0	-0.0390753	-0.199511	-0.222003	0.102389	-0.195702	-0.283438	-0.162845	0.0190508	-0.248089	-0.541338	-0.12351	-0.228172	-0.116877	-0.342375	-0.183028	-0.361179	-0.162592	-0.515969	-0.0457528	-0.381422	-0.222116	-0.447167	-0.12095	-0.202535	0.0558917	-0.216171	0.264991	-0.012939	-0.180236	-0.496157	-0.119315	-0.289039	
2.02331	0	0	-0.0532965	-0.210842	-0.21823	0.091726	-0.198301	-0.285417	-0.165075	0.0169915	-0.249464	-0.54683	-0.126908	-0.23316	-0.118509	-0.34839	-0.184725	-0.369375	-0.166218	-0.515709	-0.0482805	-0.38414	-0.224753	-0.449258	-0.12095	-0.202535	0.0508195	-0.21569	0.263432	-0.018746	-0.187158	-0.491634	-0.119315	-0.289039	
2.02026	0	0	-0.0675178	-0.222174	-0.214456	0.0810625	-0.200901	-0.287397	-0.167306	0.0149323	-0.250839	-0.552321	-0.130306	-0.238148	-0.120141	-0.354406	-0.186423	-0.377572	-0.169845	-0.515449	-0.0508082	-0.386858	-0.22739	-0.451349	-0.12095	-0.202535	0.0457473	-0.215208	0.261872	-0.024553	-0.19408	-0.487112	-0.119315	-0.289039	
2.02026	0	0	-0.081739	-0.233506	-0.210683	0.070399	-0.2035	-0.289376	-0.169536	0.012873	-0.252213	-0.557813	-0.133704	-0.243136	-0.121773	-0.360421	-0.18812	-0.385768	-0.173472	-0.515189	-0.053336	-0.389577	-0.230027	-0.45344	-0.12095	-0.202535	0.040675	-0.214727	0.260313	-0.03036	-0.201001	-0.482589	-0.119315	-0.289039	
2.02179	0	0	-0.089308	-0.24296	-0.215213	0.0706285	-0.206944	-0.288964	-0.168727	0.0105868	-0.250254	-0.563349	-0.13039	-0.252502	-0.124491	-0.363362	-0.185268	-0.393828	-0.171531	-0.520675	-0.0523308	-0.392418	-0.232663	-0.45553	-0.12419	-0.205701	0.0408153	-0.228966	0.256148	-0.0389997	-0.212198	-0.480987	-0.129508	-0.293372	
2.02179	0	0	-0.096877	-0.252414	-0.219743	0.070858	-0.210387	-0.288552	-0.167918	0.0083005	-0.248295	-0.568886	-0.127076	-0.261868	-0.127209	-0.366304	-0.182416	-0.401888	-0.16959	-0.52616	-0.0513255	-0.395259	-0.235299	-0.45762	-0.12743	-0.208868	0.0409555	-0.243205	0.251982	-0.0476395	-0.223394	-0.479386	-0.139702	-0.297706	
2.02179	0	0	-0.104446	-0.261869	-0.224272	0.0710875	-0.21383	-0.28814	-0.167109	0.00601425	-0.246335	-0.574423	-0.123762	-0.271234	-0.129926	-0.369245	-0.179564	-0.409948	-0.167649	-0.531645	-0.0503202	-0.3981	-0.237935	-0.45971	-0.130669	-0.212035	0.0410958	-0.257445	0.247816	-0.0562793	-0.234591	-0.477784	-0.149896	-0.30204	
2.02179	0	0	-0.112015	-0.271323	-0.228802	0.071317	-0.217274	-0.287728	-0.1663	0.003728	-0.244376	-0.579959	-0.120448	-0.2806	-0.132644	-0.372186	-0.176712	-0.418008	-0.165708	-0.537131	-0.049315	-0.400941	-0.240571	-0.4618	-0.133909	-0.215201	0.041236	-0.271684	0.243651	-0.064919	-0.245787	-0.476182	-0.160089	-0.306373	
2.02026	0	0	-0.121463	-0.275417	-0.228802	0.071317	-0.216428	-0.290118	-0.167109	0.00601425	-0.248689	-0.577141	-0.120448	-0.2806	-0.13753	-0.368994	-0.182688	-0.414103	-0.171273	-0.531386	-0.049315	-0.400941	-0.236181	-0.464669	-0.128238	-0.218907	0.0451365	-0.282707	0.246785	-0.0737742	-0.237563	-0.484411	-0.164337	-0.310917	
2.02026	0	0	-0.13091	-0.279511	-0.228802	0.071317	-0.215583	-0.292508	-0.167918	0.0083005	-0.253003	-0.574323	-0.120448	-0.2806	-0.142416	-0.365801	-0.188664	-0.410199	-0.176839	-0.525641	-0.049315	-0.400941	-0.23179	-0.467537	-0.122566	-0.222613	0.049037	-0.29373	0.249918	-0.0826295	-0.229338	-0.492641	-0.168584	-0.315461	
2.01721	0	0	-0.140358	-0.283605	-0.228802	0.071317	-0.214737	-0.294898	-0.168727	0.0105868	-0.257316	-0.571504	-0.120448	-0.2806	-0.147302	-0.362609	-0.19464	-0.406294	-0.182404	-0.519896	-0.049315	-0.400941	-0.2274	-0.470406	-0.116894	-0.226319	0.0529375	-0.304753	0.253051	-0.0914848	-0.221113	-0.50087	-0.172832	-0.320005	
2.02026	0	0	-0.149806	-0.287699	-0.228802	0.071317	-0.213891	-0.297288	-0.169536	0.012873	-0.261629	-0.568686	-0.120448	-0.2806	-0.152188	-0.359416	-0.200616	-0.402389	-0.18797	-0.514151	-0.049315	-0.400941	-0.223009	-0.473275	-0.111223	-0.230025	0.056838	-0.315776	0.256185	-0.10034	-0.212889	-0.5091	-0.17708	-0.324549	
2.02179	0	0	-0.155467	-0.292203	-0.233328	0.071545	-0.216487	-0.299265	-0.172574	0.0131005	-0.264961	-0.568636	-0.127158	-0.276215	-0.151103	-0.362482	-0.199191	-0.406416	-0.188941	-0.511408	-0.0513257	-0.395258	-0.229154	-0.465448	-0.113655	-0.223153	0.0555382	-0.312103	0.252535	-0.100223	-0.214203	-0.505386	-0.163524	-0.329748	
2.02179	0	0	-0.161127	-0.296708	-0.237854	0.071773	-0.219084	-0.301242	-0.175611	0.013328	-0.268293	-0.568586	-0.133869	-0.27183	-0.150018	-0.365548	-0.197766	-0.410443	-0.189912	-0.508665	-0.0533365	-0.389575	-0.235299	-0.45762	-0.116087	-0.21628	0.0542385	-0.30843	0.248885	-0.100107	-0.215517	-0.501672	-0.149968	-0.334947	
2.02179	0	0	-0.166787	-0.301212	-0.242381	0.072001	-0.221681	-0.303219	-0.178649	0.0135555	-0.271625	-0.568536	-0.140579	-0.267446	-0.148933	-0.368615	-0.196341	-0.414471	-0.190882	-0.505921	-0.0553473	-0.383893	-0.241444	-0.449792	-0.118518	-0.209407	0.0529387	-0.304758	0.245236	-0.0999898	-0.216831	-0.497958	-0.136412	-0.340146	
2.01874	0	0	-0.172448	-0.305716	-0.246907	0.072229	-0.224277	-0.305196	-0.181687	0.013783	-0.274957	-0.568486	-0.147289	-0.263061	-0.147848	-0.371681	-0.194916	-0.418498	-0.191853	-0.503178	-0.057358	-0.37821	-0.247589	-0.441965	-0.12095	-0.202535	0.051639	-0.301085	0.241586	-0.099873	-0.218145	-0.494244	-0.122856	-0.345345	
2.02026	0	0	-0.175276	-0.307966	-0.25143	0.072456	-0.220835	-0.305609	-0.181687	0.013783	-0.271625	-0.568536	-0.138923	-0.272125	-0.153816	-0.365424	-0.194916	-0.418498	-0.192824	-0.500434	-0.0563525	-0.381052	-0.246712	-0.444445	-0.126621	-0.198829	0.0529387	-0.304758	0.240025	-0.105652	-0.218145	-0.494244	-0.132164	-0.335602	
2.02179	0	0	-0.178104	-0.310215	-0.255953	0.072683	-0.217393	-0.306021	-0.181687	0.013783	-0.268293	-0.568586	-0.130557	-0.281189	-0.159784	-0.359167	-0.194916	-0.418498	-0.193795	-0.49769	-0.055347	-0.383893	-0.245835	-0.446925	-0.132293	-0.195124	0.0542385	-0.30843	0.238463	-0.11143	-0.218145	-0.494244	-0.141473	-0.325859	
2.02026	0	0	-0.180932	-0.312465	-0.260475	0.07291	-0.213951	-0.306434	-0.181687	0.013783	-0.264961	-0.568636	-0.122191	-0.290254	-0.165753	-0.35291	-0.194916	-0.418498	-0.194766	-0.494946	-0.0543415	-0.386735	-0.244957	-0.449404	-0.137965	-0.191418	0.0555382	-0.312103	0.236901	-0.117208	-0.218145	-0.494244	-0.150781	-0.316116	
2.02026	0	0	-0.18376	-0.314715	-0.264998	0.073137	-0.210509	-0.306846	-0.181687	0.013783	-0.261629	-0.568686	-0.113825	-0.299318	-0.171721	-0.346653	-0.194916	-0.418498	-0.195737	-0.492202	-0.053336	-0.389577	-0.24408	-0.451884	-0.143636	-0.187712	0.056838	-0.315776	0.23534	-0.122987	-0.218145	-0.494244	-0.160089	-0.306373	
2.02637	0	0	-0.188472	-0.311636	-0.264998	0.073137	-0.214796	-0.304044	-0.178649	0.0135555	-0.260255	-0.563198	-0.117137	-0.289957	-0.164123	-0.346901	-0.190365	-0.418376	-0.191142	-0.495204	-0.053336	-0.389577	-0.239689	-0.454753	-0.141204	-0.194584	0.054367	-0.322626	0.230133	-0.12864	-0.222428	-0.497155	-0.15672	-0.315894	
2.02026	0	0	-0.193183	-0.308558	-0.264998	0.073137	-0.219083	-0.301243	-0.175611	0.013328	-0.258881	-0.55771	-0.120449	-0.280595	-0.156525	-0.347148	-0.185814	-0.418253	-0.186547	-0.498207	-0.053336	-0.389577	-0.235299	-0.457622	-0.138773	-0.201456	0.051896	-0.329476	0.224927	-0.134293	-0.226711	-0.500066	-0.153352	-0.325415	
2.01568	0	0	-0.197895	-0.30548	-0.264998	0.073137	-0.223371	-0.298442	-0.172574	0.0131005	-0.257507	-0.552222	-0.123762	-0.271234	-0.148926	-0.347395	-0.181263	-0.41813	-0.181951	-0.501209	-0.053336	-0.389577	-0.230908	-0.46049	-0.136341	-0.208329	0.049425	-0.336325	0.219721	-0.139945	-0.230993	-0.502978	-0.149983	-0.334936	
2.01874	0	0	-0.202606	-0.302401	-0.264998	0.073137	-0.227658	-0.29564	-0.169536	0.012873	-0.256133	-0.546734	-0.127074	-0.261873	-0.141328	-0.347643	-0.176712	-0.418008	-0.177356	-0.504212	-0.053336	-0.389577	-0.226518	-0.463359	-0.133909	-0.215201	0.046954	-0.343175	0.214514	-0.145598	-0.235276	-0.505889	-0.146614	-0.344457	
2.02179	0	0	-0.192249	-0.280433	-0.256451	0.0866732	-0.217266	-0.28772	-0.136405	0.0282372	-0.216367	-0.508531	-0.0812077	-0.230364	-0.101546	-0.300105	-0.143921	-0.38034	-0.161408	-0.489267	-0.0452345	-0.372991	-0.222125	-0.466229	-0.13432	-0.201716	0.0470742	-0.357337	0.215555	-0.14854	-0.216808	-0.497952	-0.146614	-0.344457	
2.01874	0	0	-0.181891	-0.258465	-0.247904	0.10021	-0.206875	-0.279801	-0.103275	0.0436015	-0.176601	-0.470329	-0.0353415	-0.198854	-0.0617635	-0.252566	-0.11113	-0.342672	-0.145459	-0.474322	-0.037133	-0.356406	-0.217732	-0.4691	-0.134732	-0.188231	0.0471945	-0.371499	0.216596	-0.151482	-0.198339	-0.490016	-0.146614	-0.344457	
2.01721	0	0	-0.171534	-0.236497	-0.239357	0.113746	-0.196483	-0.271881	-0.0701445	0.0589657	-0.136836	-0.432126	0.0105247	-0.167345	-0.0219812	-0.205028	-0.0783382	-0.305005	-0.129511	-0.459377	-0.0290315	-0.33982	-0.21334	-0.47197	-0.135143	-0.174747	0.0473148	-0.385662	0.217637	-0.154424	-0.17987	-0.482079	-0.146614	-0.344457	
2.02026	0	0	-0.161176	-0.214529	-0.23081	0.127282	-0.186091	-0.263962	-0.037014	0.07433	-0.09707	-0.393923	0.056391	-0.135835	0.017801	-0.15749	-0.045547	-0.267337	-0.113562	-0.444432	-0.02093	-0.323234	-0.208947	-0.47484	-0.135554	-0.161262	0.047435	-0.399824	0.218678	-0.157366	-0.161402	-0.474142	-0.146614	-0.344457	
2.01568	0	0	-0.127128	-0.176868	-0.212666	0.126376	-0.178284	-0.25801	-0.0196555	0.0842275	-0.0607935	-0.363676	0.0889985	-0.0951063	0.0528835	-0.106084	-0.00016825	-0.224766	-0.0982815	-0.437453	-0.014344	-0.31218	-0.207193	-0.479797	-0.127855	-0.158351	0.0436672	-0.402987	0.215036	-0.157247	-0.13292	-0.464073	-0.149983	-0.334936	
2.01568	0	0	-0.09308	-0.139206	-0.194521	0.125471	-0.170477	-0.252058	-0.002297	0.094125	-0.024517	-0.333428	0.121606	-0.0543775	0.087966	-0.054679	0.0452105	-0.182195	-0.083001	-0.430475	-0.007758	-0.301127	-0.205438	-0.484755	-0.120156	-0.15544	0.0398995	-0.40615	0.211393	-0.157128	-0.104438	-0.454005	-0.153352	-0.325415	
2.01874	0	0	-0.059032	-0.101544	-0.176376	0.124565	-0.16267	-0.246107	0.0150615	0.104022	0.0117595	-0.30318	0.154214	-0.0136488	0.123048	-0.0032735	0.0905893	-0.139624	-0.0677205	-0.423496	-0.001172	-0.290073	-0.203684	-0.489712	-0.112457	-0.152528	0.0361317	-0.409314	0.207751	-0.157009	-0.0759568	-0.443936	-0.15672	-0.315894	
2.01874	0	0	-0.024984	-0.063883	-0.158232	0.123659	-0.154863	-0.240155	0.03242	0.11392	0.048036	-0.272933	0.186821	0.02708	0.158131	0.048132	0.135968	-0.097053	-0.05244	-0.416518	0.005414	-0.279019	-0.20193	-0.49467	-0.104758	-0.149617	0.032364	-0.412477	0.204108	-0.15689	-0.047475	-0.433867	-0.160089	-0.306373	
2.02026	0	0	0.0150005	-0.0211947	-0.158737	0.137702	-0.153107	-0.235769	0.0361062	0.120381	0.0623703	-0.256251	0.207462	0.042981	0.179061	0.0755612	0.15527	-0.0589718	-0.0470983	-0.411511	0.006936	-0.273421	-0.201053	-0.497148	-0.105978	-0.146171	0.032475	-0.426593	0.200986	-0.168401	-0.0318535	-0.432569	-0.171947	-0.305945	
2.01874	0	0	0.054985	0.0214935	-0.159243	0.151744	-0.151351	-0.231383	0.0397925	0.126841	0.0767045	-0.23957	0.228103	0.058882	0.199991	0.10299	0.174572	-0.0208905	-0.0417565	-0.406504	0.008458	-0.267823	-0.200177	-0.499625	-0.107197	-0.142725	0.032586	-0.440709	0.197864	-0.179912	-0.016232	-0.431272	-0.183804	-0.305516	
2.02179	0	0	0.0949695	0.0641818	-0.159748	0.165787	-0.149596	-0.226997	0.0434787	0.133302	0.0910388	-0.222888	0.248744	0.074783	0.220921	0.13042	0.193874	0.0171907	-0.0364147	-0.401497	0.00998	-0.262226	-0.1993	-0.502103	-0.108416	-0.139278	0.032697	-0.454825	0.194743	-0.191423	-0.0006105	-0.429974	-0.195662	-0.305088	
2.01874	0	0	0.134954	0.10687	-0.160253	0.179829	-0.14784	-0.222611	0.047165	0.139763	0.105373	-0.206207	0.269385	0.090684	0.241851	0.157849	0.213176	0.055272	-0.031073	-0.39649	0.011502	-0.256628	-0.198424	-0.50458	-0.109636	-0.135832	0.032808	-0.468941	0.191621	-0.202934	0.015011	-0.428676	-0.207519	-0.30466	
2.02026	0	0	0.163643	0.151287	-0.143314	0.1825	-0.146084	-0.218221	0.0494175	0.141842	0.105761	-0.197756	0.274607	0.105704	0.2479	0.173326	0.219782	0.0764433	-0.0293795	-0.391217	0.0130238	-0.251024	-0.195782	-0.502496	-0.110856	-0.132385	0.041742	-0.480388	0.187461	-0.211487	0.0320018	-0.431137	-0.194863	-0.323895	
2.01874	0	0	0.192331	0.195705	-0.126374	0.185171	-0.144328	-0.213831	0.05167	0.143921	0.10615	-0.189306	0.279828	0.120723	0.253949	0.188802	0.226388	0.0976145	-0.027686	-0.385944	0.0145455	-0.24542	-0.193141	-0.500412	-0.112075	-0.128938	0.050676	-0.491835	0.183301	-0.220041	0.0489925	-0.433597	-0.182206	-0.343129	
2.02026	0	0	0.22102	0.240122	-0.109434	0.187843	-0.142573	-0.20944	0.0539225	0.146	0.106538	-0.180855	0.28505	0.135742	0.259998	0.204279	0.232994	0.118786	-0.0259925	-0.380671	0.0160672	-0.239815	-0.190499	-0.498328	-0.113295	-0.12549	0.05961	-0.503282	0.17914	-0.228595	0.0659833	-0.436057	-0.16955	-0.362364	
2.01721	0	0	0.249709	0.284539	-0.092495	0.190514	-0.140817	-0.20505	0.056175	0.148079	0.106927	-0.172404	0.290272	0.150762	0.266047	0.219756	0.2396	0.139957	-0.024299	-0.375398	0.017589	-0.234211	-0.187858	-0.496244	-0.114515	-0.122043	0.068544	-0.514729	0.17498	-0.237148	0.082974	-0.438518	-0.156894	-0.381599	
2.01874	0	0	0.247761	0.290043	-0.094521	0.18359	-0.141667	-0.202648	0.0508543	0.14623	0.098756	-0.177944	0.286813	0.145644	0.254412	0.220066	0.241069	0.135806	-0.0279498	-0.37514	0.014043	-0.234094	-0.19049	-0.488805	-0.110052	-0.122307	0.0659623	-0.507433	0.177053	-0.243006	0.082974	-0.438518	-0.164504	-0.376627	
2.01874	0	0	0.245813	0.295547	-0.096547	0.176667	-0.142517	-0.200245	0.0455335	0.144381	0.090585	-0.183484	0.283354	0.140525	0.242777	0.220376	0.242538	0.131656	-0.0316005	-0.374881	0.010497	-0.233978	-0.193123	-0.481366	-0.10559	-0.122572	0.0633805	-0.500136	0.179125	-0.248864	0.082974	-0.438518	-0.172114	-0.371654	
2.01721	0	0	0.243866	0.301052	-0.098573	0.169743	-0.143367	-0.197843	0.0402127	0.142532	0.082414	-0.189024	0.279895	0.135407	0.231143	0.220686	0.244006	0.127505	-0.0352512	-0.374622	0.006951	-0.233861	-0.195755	-0.473926	-0.101128	-0.122837	0.0607987	-0.49284	0.181198	-0.254723	0.082974	-0.438518	-0.179723	-0.366681	
2.01568	0	0	0.241918	0.306556	-0.100599	0.16282	-0.144217	-0.19544	0.034892	0.140683	0.074243	-0.194564	0.276436	0.130289	0.219508	0.220996	0.245475	0.123354	-0.038902	-0.374364	0.003405	-0.233744	-0.198387	-0.466487	-0.096665	-0.123101	0.058217	-0.485544	0.183271	-0.260581	0.082974	-0.438518	-0.187333	-0.361709	
2.01568	0	0	0.223759	0.27412	-0.102131	0.141877	-0.13906	-0.200657	0.0289592	0.132149	0.0623145	-0.208476	0.267761	0.110195	0.207971	0.199442	0.235936	0.110471	-0.0478862	-0.37912	0.000364	-0.244944	-0.198387	-0.466487	-0.0974695	-0.133175	0.0595082	-0.489193	0.178074	-0.266184	0.0756158	-0.448107	-0.191576	-0.366237	
2.01721	0	0	0.205599	0.241683	-0.103662	0.120933	-0.133904	-0.205873	0.0230265	0.123615	0.050386	-0.222388	0.259085	0.090101	0.196433	0.177889	0.226398	0.0975875	-0.0568705	-0.383876	-0.002677	-0.256143	-0.198387	-0.466487	-0.098274	-0.143249	0.0607995	-0.492841	0.172877	-0.271787	0.0682575	-0.457695	-0.195819	-0.370764	
2.01568	0	0	0.18744	0.209247	-0.105194	0.0999903	-0.128747	-0.211089	0.0170938	0.11508	0.0384575	-0.236301	0.25041	0.070007	0.184896	0.156336	0.216859	0.0847042	-0.0658548	-0.388633	-0.005718	-0.267343	-0.198387	-0.466487	-0.0990785	-0.153322	0.0620907	-0.49649	0.167681	-0.277389	0.0608993	-0.467284	-0.200063	-0.375292	
2.01874	0	0	0.169281	0.17681	-0.106726	0.079047	-0.12359	-0.216306	0.011161	0.106546	0.026529	-0.250213	0.241734	0.049913	0.173358	0.134782	0.20732	0.071821	-0.074839	-0.393389	-0.008759	-0.278542	-0.198387	-0.466487	-0.099883	-0.163396	0.063382	-0.500139	0.162484	-0.282992	0.053541	-0.476872	-0.204306	-0.379819	
2.01416	0	0	0.142558	0.148164	-0.118618	0.0622138	-0.12274	-0.218708	0.00442	0.100331	0.014625	-0.264073	0.22793	0.0296073	0.156874	0.116583	0.189997	0.054566	-0.077242	-0.406668	-0.0163482	-0.286744	-0.196632	-0.471447	-0.100691	-0.173451	0.067252	-0.511077	0.162988	-0.294553	0.0518482	-0.487262	-0.20776	-0.403052	
2.01874	0	0	0.115834	0.119518	-0.13051	0.0453805	-0.121891	-0.22111	-0.002321	0.094116	0.002721	-0.277933	0.214126	0.0093015	0.14039	0.0983845	0.172674	0.037311	-0.079645	-0.419948	-0.0239375	-0.294947	-0.194877	-0.476407	-0.101499	-0.183506	0.071122	-0.522015	0.163492	-0.306114	0.0501555	-0.497652	-0.211214	-0.426284	
2.01721	0	0	0.0891105	0.0908728	-0.142402	0.0285473	-0.121041	-0.223511	-0.009062	0.087901	-0.009183	-0.291792	0.200322	-0.0110042	0.123906	0.0801858	0.155351	0.020056	-0.082048	-0.433227	-0.0315267	-0.303149	-0.193122	-0.481368	-0.102307	-0.193561	0.074992	-0.532952	0.163996	-0.317674	0.0484627	-0.508041	-0.214669	-0.449516	
2.01721	0	0	0.062387	0.062227	-0.154294	0.011714	-0.120191	-0.225913	-0.015803	0.081686	-0.021087	-0.305652	0.186518	-0.03131	0.107422	0.061987	0.138028	0.002801	-0.084451	-0.446506	-0.039116	-0.311351	-0.191367	-0.486328	-0.103115	-0.203616	0.078862	-0.54389	0.1645	-0.329235	0.04677	-0.518431	-0.218123	-0.472749	
2.01874	0	0	0.038652	0.0257143	-0.154595	-0.0126053	-0.126254	-0.227487	-0.022536	0.0754818	-0.033958	-0.316658	0.176184	-0.0464697	0.0948263	0.043769	0.117853	-0.00615875	-0.0953642	-0.44573	-0.0406357	-0.316929	-0.191367	-0.486328	-0.100682	-0.210491	0.080151	-0.547533	0.166565	-0.335072	0.045074	-0.528799	-0.214779	-0.482199	
2.01874	0	0	0.014917	-0.0107985	-0.154896	-0.0369245	-0.132317	-0.229062	-0.029269	0.0692775	-0.046829	-0.327665	0.165851	-0.0616295	0.0822305	0.025551	0.0976775	-0.0151185	-0.106277	-0.444953	-0.0421555	-0.322508	-0.191367	-0.486328	-0.09825	-0.217366	0.08144	-0.551176	0.168631	-0.340909	0.043378	-0.539168	-0.211435	-0.491649	
2.01874	0	0	-0.008818	-0.0473112	-0.155197	-0.0612437	-0.13838	-0.230636	-0.036002	0.0630732	-0.0597	-0.338671	0.155518	-0.0767893	0.0696347	0.007333	0.0775023	-0.0240782	-0.117191	-0.444177	-0.0436752	-0.328086	-0.191367	-0.486328	-0.0958175	-0.224241	0.082729	-0.554818	0.170696	-0.346746	0.041682	-0.549536	-0.208092	-0.5011	
2.01721	0	0	-0.032553	-0.083824	-0.155498	-0.085563	-0.144443	-0.23221	-0.042735	0.056869	-0.072571	-0.349677	0.145184	-0.091949	0.057039	-0.010885	0.057327	-0.033038	-0.128104	-0.4434	-0.045195	-0.333664	-0.191367	-0.486328	-0.093385	-0.231116	0.084018	-0.558461	0.172761	-0.352583	0.039986	-0.559904	-0.204748	-0.51055	
2.01874	0	0	-0.0580985	-0.114646	-0.162849	-0.102478	-0.144503	-0.241388	-0.0486483	0.0483828	-0.0810657	-0.363488	0.134867	-0.10705	0.0483013	-0.0291317	0.0507655	-0.0539692	-0.132448	-0.451138	-0.0492418	-0.341958	-0.194008	-0.488414	-0.0966295	-0.234277	0.082729	-0.554818	0.168098	-0.349536	0.0300028	-0.561975	-0.20642	-0.505826	
2.01721	0	0	-0.083644	-0.145469	-0.170201	-0.119393	-0.144564	-0.250565	-0.0545615	0.0398965	-0.0895605	-0.377298	0.12455	-0.122151	0.0395635	-0.0473785	0.044204	-0.0749005	-0.136793	-0.458877	-0.0532885	-0.350252	-0.196649	-0.490499	-0.099874	-0.237438	0.08144	-0.551176	0.163436	-0.34649	0.0200195	-0.564047	-0.208091	-0.501103	
2.01568	0	0	-0.109189	-0.176291	-0.177552	-0.136308	-0.144624	-0.259743	-0.0604748	0.0314103	-0.0980553	-0.391108	0.114232	-0.137252	0.0308258	-0.0656252	0.0376425	-0.0958318	-0.141137	-0.466616	-0.0573352	-0.358545	-0.199289	-0.492584	-0.103119	-0.2406	0.080151	-0.547533	0.158773	-0.343443	0.0100362	-0.566118	-0.209763	-0.496379	
2.01874	0	0	-0.134735	-0.207113	-0.184903	-0.153223	-0.144684	-0.268921	-0.066388	0.022924	-0.10655	-0.404919	0.103915	-0.152353	0.022088	-0.083872	0.031081	-0.116763	-0.145482	-0.474354	-0.061382	-0.366839	-0.20193	-0.49467	-0.106363	-0.243761	0.078862	-0.54389	0.15411	-0.340396	5.3E-05	-0.56819	-0.211434	-0.491655	
2.01568	0	0	-0.149818	-0.236262	-0.190217	-0.16329	-0.145595	-0.275691	-0.0623343	0.0114673	-0.111682	-0.418731	0.0987147	-0.167104	0.0133573	-0.10204	0.0155935	-0.125497	-0.149824	-0.482078	-0.0664317	-0.372277	-0.202818	-0.501706	-0.107178	-0.253779	0.0776628	-0.554302	0.152546	-0.346099	-0.000326	-0.582243	-0.218244	-0.505344	
2.01568	0	0	-0.164901	-0.265411	-0.195531	-0.173357	-0.146506	-0.282461	-0.0582805	1.05E-05	-0.116813	-0.432542	0.0935145	-0.181856	0.0046265	-0.120207	0.000106	-0.13423	-0.154166	-0.489802	-0.0714815	-0.377715	-0.203705	-0.508742	-0.107994	-0.263796	0.0764635	-0.564714	0.150981	-0.351803	-0.000705	-0.596296	-0.225054	-0.519034	
2.01874	0	0	-0.179983	-0.29456	-0.200845	-0.183424	-0.147416	-0.28923	-0.0542268	-0.0114462	-0.121944	-0.446353	0.0883142	-0.196607	-0.00410425	-0.138375	-0.0153815	-0.142963	-0.158508	-0.497526	-0.0765312	-0.383154	-0.204593	-0.515778	-0.10881	-0.273814	0.0752643	-0.575126	0.149417	-0.357506	-0.001084	-0.610349	-0.231865	-0.532723	
2.01568	0	0	-0.195066	-0.323709	-0.206159	-0.193491	-0.148327	-0.296	-0.050173	-0.022903	-0.127076	-0.460165	0.083114	-0.211358	-0.012835	-0.156543	-0.030869	-0.151697	-0.16285	-0.50525	-0.081581	-0.388592	-0.205481	-0.522814	-0.109625	-0.283832	0.074065	-0.585538	0.147852	-0.363209	-0.001463	-0.624402	-0.238675	-0.546412	
2.01263	0	0	-0.21106	-0.350006	-0.19994	-0.211067	-0.149239	-0.302761	-0.0538472	-0.0292987	-0.134176	-0.468371	0.0779132	-0.226061	-0.0199255	-0.168572	-0.041735	-0.160269	-0.165505	-0.507735	-0.0831003	-0.394145	-0.204605	-0.525289	-0.112867	-0.286982	0.0766383	-0.59281	0.154574	-0.372082	-0.0101125	-0.63017	-0.232012	-0.565243	
2.01721	0	0	-0.227055	-0.376304	-0.193721	-0.228644	-0.150151	-0.309522	-0.0575215	-0.0356945	-0.141275	-0.476578	0.0727125	-0.240763	-0.027016	-0.1806	-0.052601	-0.16884	-0.168161	-0.51022	-0.0846195	-0.399699	-0.20373	-0.527764	-0.11611	-0.290133	0.0792115	-0.600083	0.161296	-0.380954	-0.018762	-0.635937	-0.225349	-0.584074	
2.01263	0	0	-0.24305	-0.402601	-0.187501	-0.246221	-0.151063	-0.316283	-0.0611958	-0.0420903	-0.148374	-0.484785	0.0675117	-0.255466	-0.0341065	-0.192629	-0.063467	-0.177411	-0.170816	-0.512704	-0.0861388	-0.405253	-0.202854	-0.530238	-0.119353	-0.293283	0.0817848	-0.607355	0.168018	-0.389827	-0.0274115	-0.641705	-0.218686	-0.602905	
2.01721	0	0	-0.259044	-0.428898	-0.181282	-0.263797	-0.151975	-0.323044	-0.06487	-0.048486	-0.155474	-0.492991	0.062311	-0.270169	-0.041197	-0.204658	-0.074333	-0.185983	-0.173472	-0.515189	-0.087658	-0.410806	-0.201978	-0.532713	-0.122595	-0.296434	0.084358	-0.614627	0.17474	-0.398699	-0.036061	-0.647472	-0.212023	-0.621736	
2.01568	0	0	-0.268447	-0.453228	-0.182082	-0.274065	-0.152888	-0.329796	-0.0693508	-0.0525875	-0.159219	-0.50123	0.0487023	-0.275724	-0.043372	-0.219858	-0.079168	-0.19846	-0.175156	-0.520413	-0.0901808	-0.413518	-0.204618	-0.534792	-0.121383	-0.299859	0.084358	-0.614627	0.173709	-0.395786	-0.0334363	-0.65489	-0.212023	-0.621736	
2.01721	0	0	-0.277849	-0.477558	-0.182883	-0.284333	-0.153802	-0.336548	-0.0738315	-0.056689	-0.162964	-0.509468	0.0350935	-0.281278	-0.045547	-0.235058	-0.084003	-0.210936	-0.176841	-0.525638	-0.0927035	-0.41623	-0.207257	-0.536871	-0.120172	-0.303284	0.084358	-0.614627	0.172679	-0.392873	-0.0308115	-0.662307	-0.212023	-0.621736	
2.01568	0	0	-0.287252	-0.501888	-0.183683	-0.294601	-0.154716	-0.3433	-0.0783122	-0.0607905	-0.166709	-0.517707	0.0214848	-0.286832	-0.047722	-0.250258	-0.088838	-0.223413	-0.178525	-0.530863	-0.0952262	-0.418942	-0.209897	-0.53895	-0.11896	-0.306709	0.084358	-0.614627	0.171648	-0.389959	-0.0281868	-0.669725	-0.212023	-0.621736	
2.01721	0	0	-0.296655	-0.526218	-0.184483	-0.304869	-0.155629	-0.350052	-0.082793	-0.064892	-0.170454	-0.525946	0.007876	-0.292387	-0.049897	-0.265458	-0.093673	-0.23589	-0.180209	-0.536087	-0.097749	-0.421654	-0.212537	-0.541029	-0.117748	-0.310134	0.084358	-0.614627	0.170617	-0.387046	-0.025562	-0.677142	-0.212023	-0.621736	
2.01721	0	0	-0.304176	-0.545586	-0.186526	-0.311616	-0.157388	-0.354409	-0.0765115	-0.0742635	-0.170853	-0.534222	0.00611175	-0.302049	-0.0591607	-0.271253	-0.0999423	-0.244277	-0.179956	-0.546781	-0.098266	-0.430029	-0.216939	-0.547653	-0.118569	-0.32012	0.0856438	-0.618261	0.171648	-0.389959	-0.0272635	-0.687421	-0.219592	-0.61679	
2.01721	0	0	-0.311696	-0.564954	-0.18857	-0.318364	-0.159147	-0.358766	-0.07023	-0.083635	-0.171253	-0.542498	0.0043475	-0.311712	-0.0684245	-0.277047	-0.106212	-0.252664	-0.179703	-0.557475	-0.098783	-0.438404	-0.22134	-0.554277	-0.11939	-0.330106	0.0869295	-0.621895	0.172679	-0.392873	-0.028965	-0.6977	-0.227162	-0.611844	
2.01568	0	0	-0.319217	-0.584322	-0.190613	-0.325111	-0.160907	-0.363123	-0.0639485	-0.0930065	-0.171653	-0.550774	0.00258325	-0.321374	-0.0776883	-0.282842	-0.112481	-0.261051	-0.17945	-0.568169	-0.0993	-0.446779	-0.225742	-0.560901	-0.120211	-0.340091	0.0882152	-0.625529	0.173709	-0.395786	-0.0306665	-0.707979	-0.234731	-0.606898	
2.01568	0	0	-0.326738	-0.60369	-0.192656	-0.331858	-0.162666	-0.36748	-0.057667	-0.102378	-0.172052	-0.55905	0.000819	-0.331036	-0.086952	-0.288636	-0.11875	-0.269438	-0.179197	-0.578863	-0.099817	-0.455154	-0.230144	-0.567525	-0.121032	-0.350077	0.089501	-0.629163	0.17474	-0.398699	-0.032368	-0.718258	-0.242301	-0.601952	
2.01721	0	0	-0.327715	-0.621207	-0.198415	-0.328095	-0.164425	-0.371833	-0.0607165	-0.10214	-0.174416	-0.56177	-0.00426025	-0.331318	-0.0864085	-0.300819	-0.121882	-0.273624	-0.17726	-0.584335	-0.097814	-0.460815	-0.227523	-0.574931	-0.124274	-0.353214	0.0870077	-0.635908	0.17577	-0.401611	-0.0410055	-0.723986	-0.244875	-0.611108	
2.01416	0	0	-0.328692	-0.638724	-0.204174	-0.324331	-0.166185	-0.376185	-0.063766	-0.101903	-0.176779	-0.56449	-0.0093395	-0.3316	-0.085865	-0.313001	-0.125015	-0.277811	-0.175324	-0.589808	-0.095811	-0.466476	-0.224903	-0.582337	-0.127515	-0.356351	0.0845145	-0.642654	0.176801	-0.404524	-0.049643	-0.729714	-0.24745	-0.620263	
2.01568	0	0	-0.329669	-0.656241	-0.209933	-0.320568	-0.167944	-0.380537	-0.0668155	-0.101665	-0.179143	-0.56721	-0.0144188	-0.331883	-0.0853215	-0.325184	-0.128147	-0.281997	-0.173387	-0.59528	-0.093808	-0.472138	-0.222282	-0.589743	-0.130756	-0.359488	0.0820213	-0.6494	0.177832	-0.407436	-0.0582805	-0.735442	-0.250024	-0.629418	
2.01416	0	0	-0.330646	-0.673758	-0.215692	-0.316805	-0.169703	-0.38489	-0.069865	-0.101427	-0.181506	-0.56993	-0.019498	-0.332165	-0.084778	-0.337367	-0.131279	-0.286183	-0.171451	-0.600752	-0.091805	-0.477799	-0.219662	-0.597149	-0.133998	-0.362625	0.079528	-0.656145	0.178862	-0.410348	-0.066918	-0.74117	-0.252599	-0.638574	
2.01568	0	0	-0.338143	-0.682947	-0.208694	-0.32407	-0.170619	-0.391621	-0.0690575	-0.103709	-0.183868	-0.572648	-0.0178415	-0.336847	-0.0826033	-0.343513	-0.135843	-0.286316	-0.171451	-0.600752	-0.091805	-0.477799	-0.219662	-0.597149	-0.129547	-0.362906	0.0845915	-0.656663	0.181463	-0.407569	-0.0656108	-0.744864	-0.248361	-0.63412	
2.01568	0	0	-0.345639	-0.692136	-0.201696	-0.331334	-0.171535	-0.398351	-0.06825	-0.105991	-0.186231	-0.575366	-0.016185	-0.341529	-0.0804285	-0.34966	-0.140406	-0.286448	-0.171451	-0.600752	-0.091805	-0.477799	-0.219662	-0.597149	-0.125096	-0.363187	0.089655	-0.657181	0.184065	-0.40479	-0.0643035	-0.748559	-0.244123	-0.629666	
2.01263	0	0	-0.353136	-0.701326	-0.194698	-0.338599	-0.172451	-0.405082	-0.0674425	-0.108273	-0.188593	-0.578084	-0.0145285	-0.346211	-0.0782537	-0.355806	-0.14497	-0.286581	-0.171451	-0.600752	-0.091805	-0.477799	-0.219662	-0.597149	-0.120645	-0.363469	0.0947185	-0.6577	0.186666	-0.402012	-0.0629963	-0.752253	-0.239884	-0.625212	
2.01568	0	0	-0.360633	-0.710515	-0.1877	-0.345864	-0.173367	-0.411813	-0.066635	-0.110555	-0.190956	-0.580802	-0.012872	-0.350893	-0.076079	-0.361952	-0.149533	-0.286714	-0.171451	-0.600752	-0.091805	-0.477799	-0.219662	-0.597149	-0.116194	-0.36375	0.099782	-0.658218	0.189268	-0.399233	-0.061689	-0.755947	-0.235646	-0.620758	
2.01721	0	0	-0.361589	-0.717928	-0.1877	-0.345864	-0.171682	-0.416576	-0.0619707	-0.115357	-0.188016	-0.589111	-0.012872	-0.350893	-0.0777168	-0.367963	-0.146668	-0.294811	-0.175074	-0.600487	-0.0872775	-0.480757	-0.223173	-0.596752	-0.117404	-0.360332	0.100992	-0.647836	0.189807	-0.390619	-0.061689	-0.755947	-0.23307	-0.611592	
2.01263	0	0	-0.362545	-0.72534	-0.1877	-0.345864	-0.169996	-0.421339	-0.0573065	-0.120159	-0.185076	-0.59742	-0.012872	-0.350893	-0.0793545	-0.373975	-0.143803	-0.302907	-0.178696	-0.600222	-0.08275	-0.483715	-0.226683	-0.596355	-0.118613	-0.356913	0.102202	-0.637453	0.190346	-0.382004	-0.061689	-0.755947	-0.230494	-0.602426	
2.01568	0	0	-0.363501	-0.732752	-0.1877	-0.345864	-0.168311	-0.426102	-0.0526423	-0.12496	-0.182136	-0.605729	-0.012872	-0.350893	-0.0809922	-0.379987	-0.140938	-0.311003	-0.182319	-0.599958	-0.0782225	-0.486674	-0.230194	-0.595958	-0.119822	-0.353495	0.103411	-0.62707	0.190884	-0.37339	-0.061689	-0.755947	-0.227918	-0.59326	
2.01568	0	0	-0.364457	-0.740165	-0.1877	-0.345864	-0.166626	-0.430865	-0.047978	-0.129762	-0.179196	-0.614038	-0.012872	-0.350893	-0.08263	-0.385998	-0.138073	-0.3191	-0.185942	-0.599693	-0.073695	-0.489632	-0.233705	-0.595561	-0.121032	-0.350077	0.104621	-0.616688	0.191423	-0.364776	-0.061689	-0.755947	-0.225342	-0.584094	
2.01874	0	0	-0.367262	-0.742347	-0.184416	-0.342625	-0.165784	-0.433246	-0.0487853	-0.12748	-0.177237	-0.619573	-0.0179477	-0.351174	-0.079374	-0.3952	-0.144066	-0.315184	-0.184975	-0.602427	-0.072694	-0.492461	-0.231087	-0.602959	-0.125483	-0.349797	0.0995553	-0.616173	0.194025	-0.361989	-0.0673098	-0.755113	-0.225342	-0.584094	
2.01721	0	0	-0.370066	-0.74453	-0.181131	-0.339387	-0.164942	-0.435627	-0.0495925	-0.125199	-0.175279	-0.625107	-0.0230235	-0.351455	-0.076118	-0.404402	-0.150058	-0.311269	-0.184007	-0.605161	-0.071693	-0.49529	-0.228469	-0.610357	-0.129933	-0.349517	0.0944895	-0.615657	0.196628	-0.359202	-0.0729305	-0.754279	-0.225342	-0.584094	
2.00958	0	0	-0.372871	-0.746713	-0.177846	-0.336148	-0.164099	-0.438007	-0.0503998	-0.122917	-0.17332	-0.630642	-0.0280992	-0.351735	-0.072862	-0.413605	-0.156051	-0.307354	-0.18304	-0.607895	-0.070692	-0.49812	-0.225852	-0.617755	-0.134384	-0.349236	0.0894237	-0.615142	0.19923	-0.356416	-0.0785512	-0.753446	-0.225342	-0.584094	
2.01263	0	0	-0.375676	-0.748895	-0.174562	-0.332909	-0.163257	-0.440388	-0.051207	-0.120636	-0.171362	-0.636177	-0.033175	-0.352016	-0.069606	-0.422807	-0.162044	-0.303438	-0.182073	-0.610629	-0.069691	-0.500949	-0.223234	-0.625153	-0.138835	-0.348956	0.084358	-0.614627	0.201832	-0.353629	-0.084172	-0.752612	-0.225342	-0.584094	
2.01416	0	0	-0.373829	-0.754115	-0.178283	-0.322392	-0.162415	-0.442768	-0.052822	-0.116071	-0.167038	-0.639003	-0.0348308	-0.347337	-0.0723315	-0.425738	-0.162044	-0.303438	-0.177483	-0.613629	-0.0651613	-0.503909	-0.223234	-0.625153	-0.133175	-0.352654	0.084358	-0.614627	0.205469	-0.353761	-0.084172	-0.752612	-0.225342	-0.584094	
2.01568	0	0	-0.371982	-0.759334	-0.182005	-0.311875	-0.161573	-0.445148	-0.054437	-0.111507	-0.162714	-0.641828	-0.0364865	-0.342658	-0.075057	-0.428669	-0.162044	-0.303438	-0.172892	-0.616628	-0.0606315	-0.506868	-0.223234	-0.625153	-0.127515	-0.356353	0.084358	-0.614627	0.209107	-0.353893	-0.084172	-0.752612	-0.225342	-0.584094	
2.01568	0	0	-0.370135	-0.764553	-0.185726	-0.301358	-0.16073	-0.447527	-0.056052	-0.106942	-0.15839	-0.644653	-0.0381423	-0.337978	-0.0777825	-0.431601	-0.162044	-0.303438	-0.168301	-0.619627	-0.0561017	-0.509828	-0.223234	-0.625153	-0.121854	-0.360052	0.084358	-0.614627	0.212744	-0.354024	-0.084172	-0.752612	-0.225342	-0.584094	
2.01263	0	0	-0.368288	-0.769773	-0.189447	-0.290841	-0.159888	-0.449907	-0.057667	-0.102378	-0.154066	-0.647479	-0.039798	-0.333299	-0.080508	-0.434532	-0.162044	-0.303438	-0.163711	-0.622627	-0.051572	-0.512788	-0.223234	-0.625153	-0.116194	-0.36375	0.084358	-0.614627	0.216381	-0.354156	-0.084172	-0.752612	-0.225342	-0.584094	
2.01568	0	0	-0.366442	-0.774989	-0.179151	-0.294872	-0.158204	-0.454665	-0.0538083	-0.104899	-0.153087	-0.650245	-0.039798	-0.333299	-0.0783405	-0.440657	-0.162044	-0.303438	-0.169269	-0.616893	-0.0535745	-0.507129	-0.224106	-0.622687	-0.118614	-0.356912	0.094494	-0.615659	0.216918	-0.34552	-0.084172	-0.752612	-0.222767	-0.57491	
2.01111	0	0	-0.364596	-0.780206	-0.168855	-0.298902	-0.156521	-0.459423	-0.0499495	-0.107421	-0.152109	-0.653012	-0.039798	-0.333299	-0.076173	-0.446782	-0.162044	-0.303438	-0.174826	-0.61116	-0.055577	-0.50147	-0.224978	-0.620222	-0.121033	-0.350074	0.10463	-0.616691	0.217454	-0.336884	-0.084172	-0.752612	-0.220192	-0.565726	
2.01568	0	0	-0.362751	-0.785423	-0.158558	-0.302932	-0.154838	-0.464181	-0.0460907	-0.109942	-0.15113	-0.655778	-0.039798	-0.333299	-0.0740055	-0.452908	-0.162044	-0.303438	-0.180384	-0.605427	-0.0575795	-0.49581	-0.225851	-0.617757	-0.123453	-0.343236	0.114766	-0.617724	0.217991	-0.328248	-0.084172	-0.752612	-0.217617	-0.556542	
2.01416	0	0	-0.360905	-0.790639	-0.148262	-0.306963	-0.153154	-0.468939	-0.042232	-0.112464	-0.150151	-0.658544	-0.039798	-0.333299	-0.071838	-0.459033	-0.162044	-0.303438	-0.185942	-0.599693	-0.059582	-0.490151	-0.226723	-0.615291	-0.125872	-0.336398	0.124902	-0.618756	0.218528	-0.319612	-0.084172	-0.752612	-0.215042	-0.547358	
2.01416	0	0	-0.356252	-0.793679	-0.151989	-0.29643	-0.151472	-0.473694	-0.0430398	-0.110181	-0.144846	-0.664136	-0.039798	-0.333299	-0.0734815	-0.465017	-0.168032	-0.299525	-0.181352	-0.602693	-0.0631103	-0.490021	-0.228488	-0.619822	-0.130322	-0.336119	0.121038	-0.607836	0.218026	-0.308034	-0.084172	-0.752612	-0.223395	-0.523751	
2.01568	0	0	-0.3516	-0.796719	-0.155716	-0.285896	-0.149789	-0.478449	-0.0438475	-0.107898	-0.139541	-0.669728	-0.039798	-0.333299	-0.075125	-0.471001	-0.17402	-0.295612	-0.176762	-0.605692	-0.0666385	-0.489892	-0.230253	-0.624353	-0.134773	-0.33584	0.117175	-0.596916	0.217523	-0.296456	-0.084172	-0.752612	-0.231749	-0.500144	
2.01568	0	0	-0.346948	-0.799759	-0.159443	-0.275363	-0.148107	-0.483205	-0.0446553	-0.105614	-0.134237	-0.67532	-0.039798	-0.333299	-0.0767685	-0.476984	-0.180009	-0.291699	-0.172171	-0.608691	-0.0701667	-0.489762	-0.232019	-0.628884	-0.139223	-0.335562	0.113311	-0.585997	0.217021	-0.284878	-0.084172	-0.752612	-0.240102	-0.476537	
2.01263	0	0	-0.342295	-0.802799	-0.16317	-0.26483	-0.146424	-0.48796	-0.045463	-0.103331	-0.128932	-0.680912	-0.039798	-0.333299	-0.078412	-0.482968	-0.185997	-0.287786	-0.167581	-0.611691	-0.073695	-0.489632	-0.233784	-0.633415	-0.143673	-0.335283	0.109447	-0.575077	0.216519	-0.2733	-0.084172	-0.752612	-0.248455	-0.45293	
2.01568	0	0	-0.336675	-0.798448	-0.152056	-0.258574	-0.141293	-0.49314	-0.040165	-0.101525	-0.128932	-0.680912	-0.034723	-0.333016	-0.07733	-0.486026	-0.181441	-0.287652	-0.168548	-0.608956	-0.0746965	-0.486802	-0.237292	-0.633017	-0.143673	-0.335283	0.108158	-0.571434	0.214445	-0.26744	-0.0910935	-0.748089	-0.234956	-0.458115	
2.01263	0	0	-0.331055	-0.794098	-0.140942	-0.252318	-0.136163	-0.498319	-0.034867	-0.099718	-0.128932	-0.680912	-0.029648	-0.332732	-0.076248	-0.489084	-0.176885	-0.287517	-0.169516	-0.606221	-0.075698	-0.483972	-0.240799	-0.632618	-0.143673	-0.335283	0.106869	-0.567791	0.212372	-0.26158	-0.098015	-0.743567	-0.221457	-0.4633	
2.01721	0	0	-0.325434	-0.789747	-0.129829	-0.246062	-0.131032	-0.503498	-0.029569	-0.0979115	-0.128932	-0.680912	-0.024573	-0.332448	-0.075166	-0.492141	-0.172328	-0.287382	-0.170484	-0.603487	-0.0766995	-0.481142	-0.244307	-0.63222	-0.143673	-0.335283	0.10558	-0.564148	0.210298	-0.25572	-0.104937	-0.739044	-0.207957	-0.468485	
2.01111	0	0	-0.319814	-0.785396	-0.118715	-0.239806	-0.125902	-0.508678	-0.024271	-0.096105	-0.128932	-0.680912	-0.019498	-0.332165	-0.074084	-0.495199	-0.167772	-0.287248	-0.171451	-0.600752	-0.077701	-0.478312	-0.247815	-0.631822	-0.143673	-0.335283	0.104291	-0.560505	0.208225	-0.24986	-0.111858	-0.734521	-0.194458	-0.47367	
2.01263	0	0	-0.316964	-0.773195	-0.120411	-0.222441	-0.125902	-0.508678	-0.0228337	-0.0917715	-0.125582	-0.680975	-0.0160773	-0.327196	-0.075166	-0.492141	-0.169205	-0.283199	-0.169763	-0.595544	-0.0771803	-0.469942	-0.248687	-0.629359	-0.140433	-0.332141	0.114439	-0.561532	0.210316	-0.235435	-0.114472	-0.727134	-0.195241	-0.454951	
2.01263	0	0	-0.314113	-0.760995	-0.122107	-0.205076	-0.125902	-0.508678	-0.0213965	-0.087438	-0.122232	-0.681038	-0.0126565	-0.322227	-0.076248	-0.489084	-0.170637	-0.279149	-0.168075	-0.590335	-0.0766595	-0.461572	-0.249559	-0.626896	-0.137193	-0.328998	0.124588	-0.562558	0.212406	-0.22101	-0.117086	-0.719747	-0.196024	-0.436233	
2.00806	0	0	-0.311262	-0.748795	-0.123802	-0.187712	-0.125902	-0.508678	-0.0199593	-0.0831045	-0.118882	-0.681101	-0.00923575	-0.317258	-0.07733	-0.486026	-0.17207	-0.2751	-0.166388	-0.585126	-0.0761388	-0.453202	-0.25043	-0.624432	-0.133954	-0.325856	0.134737	-0.563584	0.214497	-0.206585	-0.119699	-0.712361	-0.196808	-0.417514	
2.01568	0	0	-0.308412	-0.736594	-0.125498	-0.170347	-0.125902	-0.508678	-0.018522	-0.078771	-0.115532	-0.681164	-0.005815	-0.312289	-0.078412	-0.482968	-0.173503	-0.271051	-0.1647	-0.579918	-0.075618	-0.444832	-0.251302	-0.621969	-0.130714	-0.322714	0.144885	-0.564611	0.216588	-0.19216	-0.122313	-0.704974	-0.197591	-0.398795	
2.01416	0	0	-0.299005	-0.7226	-0.122665	-0.153183	-0.125061	-0.511054	-0.0178945	-0.0721445	-0.110223	-0.686759	-0.0125518	-0.307887	-0.0724382	-0.489222	-0.168944	-0.270916	-0.167608	-0.571701	-0.0776243	-0.439162	-0.252174	-0.619505	-0.133136	-0.315868	0.148587	-0.547377	0.221276	-0.174867	-0.113698	-0.699231	-0.186531	-0.380451	
2.01568	0	0	-0.289598	-0.708607	-0.119833	-0.136018	-0.12422	-0.51343	-0.017267	-0.065518	-0.104914	-0.692354	-0.0192885	-0.303485	-0.0664645	-0.495476	-0.164384	-0.27078	-0.170515	-0.563484	-0.0796305	-0.433492	-0.253046	-0.617041	-0.135559	-0.309022	0.152289	-0.530144	0.225964	-0.157574	-0.105083	-0.693488	-0.17547	-0.362108	
2.01416	0	0	-0.280192	-0.694613	-0.117	-0.118854	-0.12338	-0.515807	-0.0166395	-0.0588915	-0.099605	-0.697949	-0.0260252	-0.299083	-0.0604908	-0.50173	-0.159825	-0.270645	-0.173422	-0.555266	-0.0816367	-0.427821	-0.253917	-0.614577	-0.137982	-0.302176	0.155991	-0.51291	0.230652	-0.14028	-0.096468	-0.687746	-0.16441	-0.343764	
2.01568	0	0	-0.270785	-0.68062	-0.114167	-0.10169	-0.122539	-0.518183	-0.016012	-0.052265	-0.094296	-0.703544	-0.032762	-0.294681	-0.054517	-0.507984	-0.155266	-0.27051	-0.17633	-0.547049	-0.083643	-0.422151	-0.254789	-0.612113	-0.140404	-0.29533	0.159693	-0.495677	0.23534	-0.122987	-0.087853	-0.682003	-0.15335	-0.32542	
2.01721	0	0	-0.265117	-0.666147	-0.111343	-0.0844675	-0.12338	-0.515807	-0.019254	-0.043103	-0.0919205	-0.700844	-0.0293445	-0.289702	-0.0496228	-0.511182	-0.153573	-0.262264	-0.173674	-0.54457	-0.0901802	-0.413517	-0.254789	-0.612113	-0.146064	-0.291631	0.162189	-0.488868	0.234814	-0.111308	-0.089163	-0.678301	-0.161783	-0.301586	
2.01263	0	0	-0.259448	-0.651674	-0.108519	-0.067245	-0.12422	-0.51343	-0.022496	-0.033941	-0.089545	-0.698144	-0.025927	-0.284723	-0.0447285	-0.514381	-0.151881	-0.254018	-0.171019	-0.54209	-0.0967175	-0.404884	-0.254789	-0.612113	-0.151724	-0.287933	0.164685	-0.482059	0.234287	-0.0996285	-0.090473	-0.6746	-0.170216	-0.277752	
2.01111	0	0	-0.25378	-0.6372	-0.105695	-0.0500225	-0.125061	-0.511054	-0.025738	-0.024779	-0.0871695	-0.695443	-0.0225095	-0.279744	-0.0398343	-0.517579	-0.150189	-0.245772	-0.168363	-0.53961	-0.103255	-0.396251	-0.254789	-0.612113	-0.157385	-0.284235	0.167182	-0.475251	0.233761	-0.0879493	-0.091783	-0.670898	-0.17865	-0.253918	
2.00958	0	0	-0.248112	-0.622727	-0.102871	-0.0328	-0.125902	-0.508678	-0.02898	-0.015617	-0.084794	-0.692743	-0.019092	-0.274765	-0.03494	-0.520777	-0.148496	-0.237526	-0.165708	-0.537131	-0.109792	-0.387617	-0.254789	-0.612113	-0.163045	-0.280536	0.169678	-0.468442	0.233235	-0.07627	-0.093093	-0.667196	-0.187083	-0.230084	
2.01568	0	0	-0.24151	-0.610843	-0.101315	-0.01196	-0.122451	-0.509105	-0.0253	-0.00920675	-0.0824175	-0.690041	-0.0240775	-0.260675	-0.036022	-0.517719	-0.151369	-0.229407	-0.167649	-0.531645	-0.108276	-0.382059	-0.258294	-0.611717	-0.163045	-0.280536	0.167086	-0.461116	0.237399	-0.0676365	-0.0944032	-0.663493	-0.182839	-0.225514	
2.00806	0	0	-0.234908	-0.59896	-0.0997585	0.00888	-0.119001	-0.509533	-0.02162	-0.0027965	-0.080041	-0.687339	-0.029063	-0.246585	-0.037104	-0.514661	-0.154241	-0.221289	-0.16959	-0.52616	-0.106761	-0.376501	-0.261799	-0.611321	-0.163045	-0.280536	0.164494	-0.45379	0.241562	-0.059003	-0.0957135	-0.659789	-0.178596	-0.220944	
2.01111	0	0	-0.228306	-0.587076	-0.0982022	0.02972	-0.115551	-0.50996	-0.01794	0.00361375	-0.0776645	-0.684636	-0.0340485	-0.232496	-0.038186	-0.511603	-0.157114	-0.213171	-0.171531	-0.520675	-0.105245	-0.370944	-0.265305	-0.610925	-0.163045	-0.280536	0.161901	-0.446463	0.245725	-0.0503695	-0.0970238	-0.656085	-0.174352	-0.216373	
2.01111	0	0	-0.221704	-0.575192	-0.096646	0.05056	-0.1121	-0.510388	-0.01426	0.010024	-0.075288	-0.681934	-0.039034	-0.218406	-0.039268	-0.508545	-0.159987	-0.205052	-0.173472	-0.515189	-0.103729	-0.365386	-0.26881	-0.610529	-0.163045	-0.280536	0.159309	-0.439137	0.249889	-0.041736	-0.098334	-0.652382	-0.170108	-0.211803	
2.01263	0	0	-0.217923	-0.565489	-0.098398	0.0681433	-0.1121	-0.510388	-0.0166967	0.0169103	-0.0762675	-0.679165	-0.0406975	-0.213704	-0.0403502	-0.505486	-0.156861	-0.200847	-0.171788	-0.509958	-0.10574	-0.359703	-0.266177	-0.60846	-0.164257	-0.277111	0.165595	-0.429143	0.25091	-0.0241973	-0.0953355	-0.645793	-0.157358	-0.198058	
2.01263	0	0	-0.214142	-0.555787	-0.10015	0.0857265	-0.1121	-0.510388	-0.0191335	0.0237965	-0.077247	-0.676397	-0.042361	-0.209003	-0.0414325	-0.502427	-0.153735	-0.196642	-0.170104	-0.504728	-0.10775	-0.35402	-0.263543	-0.606392	-0.165469	-0.273686	0.17188	-0.41915	0.25193	-0.0066585	-0.092337	-0.639204	-0.144608	-0.184312	
2.00806	0	0	-0.21036	-0.546085	-0.101902	0.10331	-0.1121	-0.510388	-0.0215702	0.0306828	-0.0782265	-0.673628	-0.0440245	-0.204301	-0.0425147	-0.499368	-0.15061	-0.192437	-0.16842	-0.499498	-0.109761	-0.348338	-0.26091	-0.604324	-0.16668	-0.270261	0.178166	-0.409156	0.252951	0.0108802	-0.0893385	-0.632615	-0.131858	-0.170567	
2.01111	0	0	-0.206579	-0.536382	-0.103654	0.120893	-0.1121	-0.510388	-0.024007	0.037569	-0.079206	-0.670859	-0.045688	-0.1996	-0.043597	-0.496309	-0.147484	-0.188232	-0.166736	-0.494267	-0.111772	-0.342655	-0.258277	-0.602255	-0.167892	-0.266836	0.184452	-0.399162	0.253971	0.028419	-0.08634	-0.626026	-0.119108	-0.156822	
2.01263	0	0	-0.202781	-0.51649	-0.0983332	0.131145	-0.107806	-0.513194	-0.0264455	0.0444608	-0.0715095	-0.673759	-0.0355285	-0.199004	-0.0446797	-0.493249	-0.148923	-0.184166	-0.16868	-0.488773	-0.118314	-0.334009	-0.26091	-0.604324	-0.174761	-0.259714	0.183041	-0.381281	0.247672	0.0462208	-0.0773405	-0.606197	-0.121651	-0.133013	
2.00958	0	0	-0.198983	-0.496597	-0.0930125	0.141398	-0.103513	-0.515999	-0.028884	0.0513525	-0.063813	-0.676659	-0.025369	-0.198408	-0.0457625	-0.490189	-0.150361	-0.1801	-0.170624	-0.483278	-0.124856	-0.325362	-0.263543	-0.606392	-0.18163	-0.252591	0.181631	-0.363399	0.241373	0.0640225	-0.068341	-0.586368	-0.124194	-0.109203	
2.01111	0	0	-0.195185	-0.476704	-0.0876917	0.15165	-0.0992187	-0.518805	-0.0313225	0.0582442	-0.0561165	-0.679558	-0.0152095	-0.197811	-0.0468452	-0.487129	-0.1518	-0.176035	-0.172568	-0.477784	-0.131397	-0.316716	-0.266177	-0.60846	-0.188499	-0.245469	0.18022	-0.345518	0.235074	0.0818243	-0.0593415	-0.56654	-0.126737	-0.0853943	
2.01416	0	0	-0.191387	-0.456812	-0.082371	0.161902	-0.094925	-0.521611	-0.033761	0.065136	-0.04842	-0.682458	-0.00505	-0.197215	-0.047928	-0.484069	-0.153238	-0.171969	-0.174512	-0.47229	-0.137939	-0.30807	-0.26881	-0.610529	-0.195368	-0.238346	0.178809	-0.327637	0.228775	0.099626	-0.050342	-0.546711	-0.12928	-0.061585	
2.01568	0	0	-0.15829	-0.406759	-0.0833913	0.190109	-0.101743	-0.511671	-0.0317145	0.0761775	-0.0446392	-0.674272	-0.0066375	-0.178058	-0.0359122	-0.47543	-0.151312	-0.151307	-0.173803	-0.464298	-0.137437	-0.299646	-0.273185	-0.60767	-0.195368	-0.238346	0.182603	-0.324453	0.221971	0.10864	-0.034364	-0.531345	-0.126732	-0.0521495	
2.01111	0	0	-0.125193	-0.356707	-0.0844115	0.218315	-0.108561	-0.501731	-0.029668	0.087219	-0.0408585	-0.666087	-0.008225	-0.1589	-0.0238965	-0.466792	-0.149387	-0.130644	-0.173095	-0.456306	-0.136935	-0.291222	-0.277559	-0.604812	-0.195368	-0.238346	0.186396	-0.321269	0.215168	0.117653	-0.018386	-0.51598	-0.124184	-0.042714	
2.01111	0	0	-0.092096	-0.306654	-0.0854318	0.246522	-0.115379	-0.491792	-0.0276215	0.0982605	-0.0370777	-0.657901	-0.0098125	-0.139742	-0.0118807	-0.458153	-0.147461	-0.109982	-0.172386	-0.448313	-0.136434	-0.282798	-0.281934	-0.601953	-0.195368	-0.238346	0.190189	-0.318086	0.208365	0.126667	-0.002408	-0.500614	-0.121635	-0.0332785	
2.01263	0	0	-0.058999	-0.256601	-0.086452	0.274729	-0.122197	-0.481852	-0.025575	0.109302	-0.033297	-0.649715	-0.0114	-0.120585	0.000135	-0.449514	-0.145535	-0.08932	-0.171678	-0.440321	-0.135932	-0.274374	-0.286309	-0.599094	-0.195368	-0.238346	0.193983	-0.314902	0.201561	0.135681	0.01357	-0.485249	-0.119087	-0.023843	
2.01111	0	0	-0.0181073	-0.196306	-0.0770958	0.299038	-0.121272	-0.475137	-0.024348	0.122675	-0.0281155	-0.636016	-0.0095915	-0.0963175	0.00617225	-0.434565	-0.133025	-0.0723565	-0.168317	-0.429815	-0.136442	-0.263085	-0.28455	-0.594559	-0.192138	-0.235186	0.195169	-0.304338	0.203596	0.150363	0.036595	-0.474391	-0.112285	-0.00974625	
2.01111	0	0	0.0227845	-0.136011	-0.0677395	0.323347	-0.120347	-0.468421	-0.023121	0.136048	-0.022934	-0.622318	-0.007783	-0.07205	0.0122095	-0.419615	-0.120515	-0.055393	-0.164955	-0.419308	-0.136953	-0.251796	-0.282792	-0.590024	-0.188907	-0.232025	0.196354	-0.293774	0.205631	0.165046	0.05962	-0.463533	-0.105484	0.0043505	
2.01416	0	0	0.0636762	-0.0757153	-0.0583832	0.347656	-0.119422	-0.461706	-0.021894	0.149421	-0.0177525	-0.60862	-0.0059745	-0.0477825	0.0182467	-0.404666	-0.108005	-0.0384295	-0.161594	-0.408802	-0.137463	-0.240508	-0.281033	-0.585488	-0.185676	-0.228865	0.19754	-0.283209	0.207667	0.179728	0.082645	-0.452674	-0.0986817	0.0184472	
2.00806	0	0	0.104568	-0.01542	-0.049027	0.371965	-0.118497	-0.454991	-0.020667	0.162794	-0.012571	-0.594921	-0.004166	-0.023515	0.024284	-0.389716	-0.095495	-0.021466	-0.158232	-0.398296	-0.137973	-0.229219	-0.279275	-0.580953	-0.182446	-0.225705	0.198726	-0.272645	0.209702	0.19441	0.10567	-0.441816	-0.09188	0.032544	
2.01111	0	0	0.138978	0.0438947	-0.0488265	0.396826	-0.117573	-0.448267	-0.0216908	0.174113	-0.008788	-0.586693	0.00434325	-0.0181395	0.032505	-0.380883	-0.0892302	-0.012956	-0.158505	-0.387514	-0.146545	-0.214841	-0.281893	-0.573553	-0.186088	-0.21541	0.208815	-0.259349	0.209616	0.215108	0.114739	-0.421741	-0.0790963	0.0465065	
2.01721	0	0	0.173388	0.103209	-0.048626	0.421686	-0.11665	-0.441543	-0.0227145	0.185432	-0.005005	-0.578466	0.0128525	-0.012764	0.040726	-0.37205	-0.0829655	-0.004446	-0.158778	-0.376733	-0.155116	-0.200463	-0.284512	-0.566153	-0.189731	-0.205116	0.218904	-0.246052	0.209531	0.235806	0.123809	-0.401666	-0.0663125	0.060469	
2.00958	0	0	0.207798	0.162524	-0.0484255	0.446547	-0.115727	-0.434819	-0.0237382	0.196751	-0.001222	-0.570239	0.0213618	-0.0073885	0.048947	-0.363216	-0.0767007	0.004064	-0.15905	-0.365951	-0.163688	-0.186085	-0.28713	-0.558753	-0.193374	-0.194821	0.228992	-0.232756	0.209446	0.256504	0.132878	-0.381591	-0.0535287	0.0744315	
2.00806	0	0	0.242208	0.221839	-0.048225	0.471408	-0.114803	-0.428095	-0.024762	0.20807	0.002561	-0.562011	0.029871	-0.002013	0.057168	-0.354383	-0.070436	0.012574	-0.159323	-0.355169	-0.17226	-0.171707	-0.289748	-0.551353	-0.197016	-0.184526	0.239081	-0.219459	0.20936	0.277202	0.141948	-0.361516	-0.040745	0.088394	
2.01111	0	0	0.27584	0.274111	-0.0480505	0.496377	-0.113881	-0.421362	-0.0257915	0.219409	0.0107068	-0.556617	0.038394	0.003371	0.0615627	-0.345394	-0.0656198	0.025214	-0.1603	-0.352408	-0.168739	-0.171812	-0.288002	-0.556287	-0.201458	-0.184263	0.23515	-0.208349	0.20301	0.295147	0.149333	-0.351854	-0.044176	0.0980908	
2.00958	0	0	0.309472	0.326383	-0.047876	0.521346	-0.112959	-0.414629	-0.026821	0.230749	0.0188525	-0.551224	0.046917	0.008755	0.0659575	-0.336406	-0.0608035	0.037854	-0.161277	-0.349647	-0.165217	-0.171917	-0.286257	-0.561221	-0.2059	-0.183999	0.231218	-0.197239	0.196661	0.313091	0.156718	-0.342191	-0.047607	0.107787	
2.01263	0	0	0.343105	0.378656	-0.0477015	0.546315	-0.112037	-0.407897	-0.0278505	0.242088	0.0269983	-0.54583	0.05544	0.014139	0.0703522	-0.327418	-0.0559873	0.050494	-0.162254	-0.346886	-0.161695	-0.172022	-0.284511	-0.566155	-0.210342	-0.183736	0.227287	-0.186129	0.190311	0.331036	0.164104	-0.332529	-0.051038	0.117484	
2.01111	0	0	0.376737	0.430928	-0.047527	0.571284	-0.111115	-0.401164	-0.02888	0.253427	0.035144	-0.540437	0.063963	0.019523	0.074747	-0.318429	-0.051171	0.063134	-0.163231	-0.344125	-0.158174	-0.172127	-0.282765	-0.571089	-0.214784	-0.183473	0.223356	-0.175019	0.183962	0.348981	0.171489	-0.322867	-0.054469	0.127181	
2.01263	0	0	0.397893	0.477087	-0.0473787	0.596362	-0.112732	-0.387252	-0.0299153	0.264787	0.0389338	-0.53218	0.0657038	0.0293563	0.0791437	-0.309421	-0.043439	0.0675715	-0.160576	-0.341613	-0.164728	-0.16345	-0.28714	-0.56823	-0.214784	-0.183473	0.228468	-0.17551	0.190208	0.351808	0.182894	-0.324516	-0.0561857	0.132033	
2.01111	0	0	0.419048	0.523246	-0.0472305	0.62144	-0.114349	-0.373341	-0.0309505	0.276147	0.0427235	-0.523924	0.0674445	0.0391895	0.0835405	-0.300413	-0.035707	0.072009	-0.15792	-0.339101	-0.171283	-0.154773	-0.291515	-0.565372	-0.214784	-0.183473	0.23358	-0.176001	0.196454	0.354635	0.194299	-0.326164	-0.0579025	0.136885	
2.01111	0	0	0.440204	0.569404	-0.0470822	0.646518	-0.115965	-0.359429	-0.0319858	0.287506	0.0465132	-0.515667	0.0691853	0.0490227	0.0879372	-0.291406	-0.027975	0.0764465	-0.155265	-0.336588	-0.177838	-0.146096	-0.295889	-0.562513	-0.214784	-0.183473	0.238693	-0.176492	0.202699	0.357463	0.205704	-0.327813	-0.0596192	0.141738	
2.00958	0	0	0.46136	0.615563	-0.046934	0.671596	-0.117582	-0.345517	-0.033021	0.298866	0.050303	-0.507411	0.070926	0.058856	0.092334	-0.282398	-0.020243	0.080884	-0.15261	-0.334076	-0.184392	-0.137419	-0.300264	-0.559655	-0.214784	-0.183473	0.243805	-0.176983	0.208945	0.36029	0.217109	-0.329461	-0.061336	0.14659	
2.00806	0	0	0.474795	0.652117	-0.0488087	0.689656	-0.115819	-0.341152	-0.03242	0.305605	0.0517035	-0.501878	0.0675552	0.068382	0.0989248	-0.279566	-0.0185608	0.0892875	-0.15261	-0.334076	-0.190945	-0.12874	-0.299391	-0.562121	-0.215999	-0.18004	0.246296	-0.170055	0.207293	0.375207	0.218807	-0.318948	-0.0587937	0.156132	
2.00806	0	0	0.48823	0.688671	-0.0506835	0.707715	-0.114056	-0.336788	-0.031819	0.312343	0.053104	-0.496345	0.0641845	0.077908	0.105515	-0.276735	-0.0168785	0.097691	-0.15261	-0.334076	-0.197499	-0.120061	-0.298519	-0.564587	-0.217213	-0.176608	0.248787	-0.163127	0.205641	0.390124	0.220504	-0.308435	-0.0562515	0.165674	
2.00806	0	0	0.501665	0.725226	-0.0525583	0.725775	-0.112292	-0.332423	-0.031218	0.319082	0.0545045	-0.490813	0.0608137	0.087434	0.112106	-0.273903	-0.0151962	0.106095	-0.15261	-0.334076	-0.204052	-0.111382	-0.297646	-0.567053	-0.218427	-0.173175	0.251278	-0.1562	0.203989	0.405042	0.222202	-0.297923	-0.0537093	0.175216	
2.00958	0	0	0.5151	0.76178	-0.054433	0.743835	-0.110529	-0.328058	-0.030617	0.325821	0.055905	-0.48528	0.057443	0.09696	0.118697	-0.271072	-0.013514	0.114498	-0.15261	-0.334076	-0.210606	-0.102703	-0.296774	-0.569519	-0.219642	-0.169742	0.253769	-0.149272	0.202337	0.419959	0.2239	-0.28741	-0.051167	0.184758	
2.01111	0	0	0.533548	0.784467	-0.0478498	0.75078	-0.109613	-0.321294	-0.0322595	0.330463	0.0592858	-0.485339	0.057443	0.09696	0.116505	-0.264876	-0.0149733	0.118622	-0.156243	-0.333826	-0.215133	-0.0997448	-0.300274	-0.569127	-0.219642	-0.169742	0.253629	-0.134897	0.199609	0.43792	0.224253	-0.273085	-0.0486262	0.19432	
2.00806	0	0	0.551995	0.807155	-0.0412665	0.757725	-0.108698	-0.314529	-0.033902	0.335105	0.0626665	-0.485397	0.057443	0.09696	0.114312	-0.258681	-0.0164325	0.122746	-0.159875	-0.333576	-0.21966	-0.0967865	-0.303775	-0.568735	-0.219642	-0.169742	0.253488	-0.120522	0.196882	0.455882	0.224607	-0.258761	-0.0460855	0.203881	
2.01263	0	0	0.570442	0.829843	-0.0346832	0.764669	-0.107782	-0.307764	-0.0355445	0.339746	0.0660473	-0.485455	0.057443	0.09696	0.11212	-0.252486	-0.0178917	0.12687	-0.163508	-0.333327	-0.224188	-0.0938283	-0.307275	-0.568343	-0.219642	-0.169742	0.253348	-0.106148	0.194155	0.473843	0.22496	-0.244437	-0.0435448	0.213443	
2.01263	0	0	0.58889	0.85253	-0.0281	0.771614	-0.106866	-0.301	-0.037187	0.344388	0.069428	-0.485514	0.057443	0.09696	0.109928	-0.24629	-0.019351	0.130994	-0.16714	-0.333077	-0.228715	-0.09087	-0.310775	-0.567951	-0.219642	-0.169742	0.253207	-0.091773	0.191427	0.491804	0.225314	-0.230112	-0.041004	0.223004	
2.00806	0	0	0.598509	0.878976	-0.0215093	0.778572	-0.107649	-0.289429	-0.0396522	0.351355	0.0664565	-0.477116	0.057443	0.09696	0.113774	-0.24642	-0.0132905	0.127034	-0.17077	-0.332828	-0.228715	-0.09087	-0.31253	-0.572487	-0.225295	-0.166048	0.254523	-0.0954918	0.189296	0.497826	0.225314	-0.230112	-0.03756	0.213271	
2.01263	0	0	0.608128	0.905421	-0.0149185	0.78553	-0.108433	-0.277859	-0.0421175	0.358322	0.063485	-0.468719	0.057443	0.09696	0.11762	-0.246551	-0.00723	0.123074	-0.174401	-0.33258	-0.228715	-0.09087	-0.314285	-0.577023	-0.230948	-0.162355	0.255839	-0.0992105	0.187166	0.503848	0.225314	-0.230112	-0.034116	0.203537	
2.01263	0	0	0.617747	0.931867	-0.00832775	0.792488	-0.109216	-0.266288	-0.0445827	0.365289	0.0605135	-0.460321	0.057443	0.09696	0.121465	-0.246681	-0.0011695	0.119114	-0.178031	-0.332331	-0.228715	-0.09087	-0.316039	-0.58156	-0.236601	-0.158661	0.257155	-0.102929	0.185035	0.50987	0.225314	-0.230112	-0.030672	0.193804	
2.00958	0	0	0.627366	0.958312	-0.001737	0.799446	-0.109999	-0.254717	-0.047048	0.372256	0.057542	-0.451924	0.057443	0.09696	0.125311	-0.246811	0.004891	0.115154	-0.181661	-0.332082	-0.228715	-0.09087	-0.317794	-0.586096	-0.242254	-0.154967	0.258471	-0.106648	0.182904	0.515892	0.225314	-0.230112	-0.027228	0.18407	
2.00806	0	0	0.635061	0.979582	-0.00693	0.814122	-0.109938	-0.245528	-0.0448072	0.374365	0.0599322	-0.449178	0.0557565	0.101727	0.126964	-0.240738	0.003431	0.11928	-0.181661	-0.332082	-0.235265	-0.0821905	-0.318666	-0.583633	-0.242254	-0.154967	0.258471	-0.106648	0.184427	0.521847	0.232372	-0.234724	-0.027228	0.18407	
2.00958	0	0	0.642755	1.00085	-0.012123	0.828798	-0.109877	-0.236338	-0.0425665	0.376474	0.0623225	-0.446433	0.05407	0.106494	0.128617	-0.234665	0.001971	0.123406	-0.181661	-0.332082	-0.241815	-0.073511	-0.319538	-0.581169	-0.242254	-0.154967	0.258471	-0.106648	0.18595	0.527802	0.239431	-0.239337	-0.027228	0.18407	
2.01111	0	0	0.650449	1.02212	-0.017316	0.843475	-0.109816	-0.227149	-0.0403258	0.378583	0.0647127	-0.443688	0.0523835	0.11126	0.13027	-0.228592	0.000511	0.127532	-0.181661	-0.332082	-0.248365	-0.0648315	-0.320409	-0.578706	-0.242254	-0.154967	0.258471	-0.106648	0.187473	0.533758	0.24649	-0.243949	-0.027228	0.18407	
2.01111	0	0	0.658144	1.04339	-0.022509	0.858151	-0.109755	-0.217959	-0.038085	0.380692	0.067103	-0.440942	0.050697	0.116027	0.131923	-0.222519	-0.000949	0.131658	-0.181661	-0.332082	-0.254915	-0.056152	-0.321281	-0.576243	-0.242254	-0.154967	0.258471	-0.106648	0.188996	0.539713	0.253548	-0.248561	-0.027228	0.18407	
2.01263	0	0	0.663914	1.05941	-0.022509	0.858151	-0.107995	-0.213565	-0.0419703	0.383231	0.0714777	-0.443801	0.0574923	0.111587	0.135773	-0.222648	-0.000949	0.131658	-0.181661	-0.332082	-0.255928	-0.053289	-0.325649	-0.573389	-0.243469	-0.151533	0.262277	-0.103416	0.190518	0.545676	0.257929	-0.245592	-0.0289495	0.188936	
2.00958	0	0	0.669685	1.07543	-0.022509	0.858151	-0.106236	-0.209171	-0.0458555	0.385769	0.0758525	-0.446659	0.0642875	0.107147	0.139623	-0.222778	-0.000949	0.131658	-0.181661	-0.332082	-0.256941	-0.050426	-0.330017	-0.570534	-0.244684	-0.148099	0.266082	-0.100184	0.192041	0.551638	0.262309	-0.242624	-0.030671	0.193801	
2.01111	0	0	0.675455	1.09145	-0.022509	0.858151	-0.104476	-0.204777	-0.0497408	0.388308	0.0802272	-0.449518	0.0710828	0.102706	0.143472	-0.222908	-0.000949	0.131658	-0.181661	-0.332082	-0.257954	-0.047563	-0.334385	-0.56768	-0.245899	-0.144665	0.269888	-0.096952	0.193563	0.557601	0.266689	-0.239656	-0.0323925	0.198666	
2.00958	0	0	0.681225	1.10747	-0.022509	0.858151	-0.102716	-0.200383	-0.053626	0.390847	0.084602	-0.452377	0.077878	0.098266	0.147322	-0.223037	-0.000949	0.131658	-0.181661	-0.332082	-0.258967	-0.0447	-0.338753	-0.564826	-0.247114	-0.141231	0.273694	-0.09372	0.195085	0.563564	0.27107	-0.236687	-0.034114	0.203532	
2.00806	0	0	0.694001	1.11455	-0.022509	0.858151	-0.100957	-0.195985	-0.056687	0.39106	0.0826185	-0.446771	0.0795648	0.0934993	0.150076	-0.220062	-0.000949	0.131658	-0.183336	-0.337353	-0.261464	-0.0474697	-0.340505	-0.569361	-0.24347	-0.151529	0.268572	-0.0932332	0.191428	0.563633	0.272412	-0.24048	-0.040098	0.203701	
2.00958	0	0	0.706777	1.12163	-0.022509	0.858151	-0.099197	-0.191586	-0.059748	0.391273	0.080635	-0.441164	0.0812515	0.0887325	0.152829	-0.217086	-0.000949	0.131658	-0.185011	-0.342625	-0.263961	-0.0502395	-0.342257	-0.573896	-0.239826	-0.161828	0.263451	-0.0927465	0.187772	0.563703	0.273754	-0.244273	-0.046082	0.203871	
2.00958	0	0	0.719553	1.12872	-0.022509	0.858151	-0.0974375	-0.187188	-0.062809	0.391487	0.0786515	-0.435558	0.0829383	0.0839658	0.155583	-0.21411	-0.000949	0.131658	-0.186687	-0.347896	-0.266457	-0.0530093	-0.344009	-0.578431	-0.236182	-0.172127	0.258329	-0.0922598	0.184115	0.563773	0.275096	-0.248066	-0.052066	0.204041	
2.01263	0	0	0.732329	1.1358	-0.022509	0.858151	-0.095678	-0.18279	-0.06587	0.3917	0.076668	-0.429952	0.084625	0.079199	0.158336	-0.211135	-0.000949	0.131658	-0.188362	-0.353168	-0.268954	-0.055779	-0.345761	-0.582966	-0.232538	-0.182425	0.253207	-0.091773	0.180458	0.563842	0.276438	-0.251859	-0.05805	0.20421	
2.01111	0	0	0.732223	1.14691	-0.0283988	0.862	-0.0947705	-0.175979	-0.06587	0.3917	0.07906	-0.427202	0.0829383	0.0839658	0.156137	-0.20492	-0.000949	0.131658	-0.18641	-0.358684	-0.268954	-0.055779	-0.348383	-0.585036	-0.236973	-0.182164	0.250719	-0.098721	0.177871	0.560895	0.272056	-0.254824	-0.0623082	0.199518	
2.00958	0	0	0.732117	1.15802	-0.0342885	0.865848	-0.093863	-0.169167	-0.06587	0.3917	0.081452	-0.424453	0.0812515	0.0887325	0.153938	-0.198705	-0.000949	0.131658	-0.184458	-0.3642	-0.268954	-0.055779	-0.351005	-0.587107	-0.241408	-0.181903	0.248232	-0.105669	0.175283	0.557948	0.267675	-0.25779	-0.0665665	0.194825	
2.00958	0	0	0.732011	1.16914	-0.0401782	0.869696	-0.0929555	-0.162355	-0.06587	0.3917	0.083844	-0.421704	0.0795648	0.0934993	0.151739	-0.192491	-0.000949	0.131658	-0.182507	-0.369716	-0.268954	-0.055779	-0.353627	-0.589178	-0.245844	-0.181642	0.245745	-0.112617	0.172696	0.555002	0.263293	-0.260755	-0.0708247	0.190132	
2.01111	0	0	0.731905	1.18025	-0.046068	0.873545	-0.092048	-0.155544	-0.06587	0.3917	0.086236	-0.418954	0.077878	0.098266	0.14954	-0.186276	-0.000949	0.131658	-0.180555	-0.375232	-0.268954	-0.055779	-0.356249	-0.591248	-0.250279	-0.181381	0.243257	-0.119565	0.170108	0.552055	0.258911	-0.26372	-0.075083	0.18544	
2.01416	0	0	0.738814	1.18237	-0.046068	0.873545	-0.0937533	-0.150724	-0.06587	0.3917	0.0896225	-0.419009	0.0829913	0.0985915	0.156149	-0.183422	-0.0024095	0.135786	-0.186133	-0.369467	-0.27098	-0.0500543	-0.353627	-0.589178	-0.251493	-0.177951	0.244571	-0.123279	0.169041	0.555071	0.258911	-0.26372	-0.0656655	0.175552	
2.00806	0	0	0.745722	1.18449	-0.046068	0.873545	-0.0954585	-0.145905	-0.06587	0.3917	0.093009	-0.419065	0.0881045	0.098917	0.162758	-0.180567	-0.00387	0.139913	-0.191711	-0.363702	-0.273006	-0.0443295	-0.351005	-0.587107	-0.252707	-0.17452	0.245886	-0.126994	0.167974	0.558086	0.258911	-0.26372	-0.056248	0.165664	
2.00806	0	0	0.75263	1.18661	-0.046068	0.873545	-0.0971637	-0.141086	-0.06587	0.3917	0.0963955	-0.41912	0.0932178	0.0992425	0.169367	-0.177712	-0.0053305	0.144041	-0.19729	-0.357937	-0.275031	-0.0386048	-0.348383	-0.585036	-0.25392	-0.17109	0.2472	-0.130708	0.166907	0.561101	0.258911	-0.26372	-0.0468305	0.155776	
2.00653	0	0	0.759539	1.18873	-0.046068	0.873545	-0.098869	-0.136266	-0.06587	0.3917	0.099782	-0.419175	0.098331	0.099568	0.175976	-0.174858	-0.006791	0.148169	-0.202868	-0.352172	-0.277057	-0.03288	-0.345761	-0.582966	-0.255134	-0.16766	0.248514	-0.134422	0.16584	0.564117	0.258911	-0.26372	-0.037413	0.145888	
2.00958	0	0	0.762487	1.19123	-0.049356	0.87005	-0.0962578	-0.134265	-0.0689292	0.391913	0.10317	-0.419231	0.098331	0.099568	0.174875	-0.171746	-0.00072625	0.144206	-0.201892	-0.35493	-0.283604	-0.024198	-0.349254	-0.582576	-0.256348	-0.164228	0.2472	-0.130708	0.161121	0.5672	0.250512	-0.255318	-0.0408515	0.155606	
2.00958	0	0	0.765435	1.19373	-0.052644	0.866555	-0.0936465	-0.132264	-0.0719885	0.392126	0.106559	-0.419287	0.098331	0.099568	0.173773	-0.168633	0.0053385	0.140243	-0.200916	-0.357687	-0.290151	-0.015516	-0.352746	-0.582186	-0.257563	-0.160797	0.245886	-0.126994	0.156402	0.570284	0.242113	-0.246916	-0.04429	0.165323	
2.00653	0	0	0.768383	1.19623	-0.055932	0.863059	-0.0910352	-0.130263	-0.0750477	0.392338	0.109947	-0.419343	0.098331	0.099568	0.172672	-0.165521	0.0114033	0.136281	-0.199941	-0.360445	-0.296698	-0.006834	-0.356239	-0.581796	-0.258777	-0.157365	0.244571	-0.123279	0.151683	0.573368	0.233713	-0.238514	-0.0477285	0.17504	
2.00958	0	0	0.771331	1.19873	-0.05922	0.859564	-0.088424	-0.128262	-0.078107	0.392551	0.113335	-0.419399	0.098331	0.099568	0.171571	-0.162409	0.017468	0.132318	-0.198965	-0.363202	-0.303245	0.001848	-0.359732	-0.581406	-0.259991	-0.153934	0.243257	-0.119565	0.146964	0.576451	0.225314	-0.230112	-0.051167	0.184758	
2.00806	0	0	0.774281	1.20124	-0.0625062	0.856072	-0.0866655	-0.123846	-0.0742255	0.390015	0.115731	-0.416647	0.098331	0.099568	0.178187	-0.159549	0.017468	0.132318	-0.198965	-0.363202	-0.303245	0.001848	-0.359732	-0.581406	-0.258777	-0.157365	0.242082	-0.130212	0.145447	0.57049	0.220943	-0.233082	-0.0537093	0.175216	
2.01111	0	0	0.77723	1.20374	-0.0657925	0.85258	-0.084907	-0.119431	-0.070344	0.387479	0.118127	-0.413894	0.098331	0.099568	0.184802	-0.156689	0.017468	0.132318	-0.198965	-0.363202	-0.303245	0.001848	-0.359732	-0.581406	-0.257563	-0.160797	0.240907	-0.140858	0.143931	0.564528	0.216572	-0.236052	-0.0562515	0.165674	
2.01111	0	0	0.78018	1.20624	-0.0690787	0.849088	-0.0831485	-0.115015	-0.0664625	0.384942	0.120524	-0.411142	0.098331	0.099568	0.191418	-0.153828	0.017468	0.132318	-0.198965	-0.363202	-0.303245	0.001848	-0.359732	-0.581406	-0.256348	-0.164228	0.239732	-0.151505	0.142414	0.558566	0.2122	-0.239021	-0.0587937	0.156132	
2.00806	0	0	0.78313	1.20874	-0.072365	0.845596	-0.08139	-0.1106	-0.062581	0.382406	0.12292	-0.40839	0.098331	0.099568	0.198034	-0.150968	0.017468	0.132318	-0.198965	-0.363202	-0.303245	0.001848	-0.359732	-0.581406	-0.255134	-0.16766	0.238557	-0.162152	0.140897	0.552605	0.207829	-0.241991	-0.061336	0.14659	
2.00806	0	0	0.78109	1.21451	-0.0769455	0.845771	-0.0830985	-0.105771	-0.0703422	0.387478	0.118942	-0.397146	0.10176	0.104667	0.19969	-0.14486	0.0160068	0.136448	-0.198965	-0.363202	-0.299739	0.00176	-0.359732	-0.581406	-0.25392	-0.17109	0.236068	-0.169074	0.136798	0.543711	0.213185	-0.257128	-0.065595	0.141914	
2.00806	0	0	0.77905	1.22027	-0.081526	0.845946	-0.084807	-0.100943	-0.0781035	0.392549	0.114963	-0.385902	0.105188	0.109766	0.201346	-0.138751	0.0145455	0.140577	-0.198965	-0.363202	-0.296233	0.001672	-0.359732	-0.581406	-0.252707	-0.17452	0.233578	-0.175995	0.132698	0.534817	0.218541	-0.272264	-0.069854	0.137238	
2.00958	0	0	0.77701	1.22604	-0.0861065	0.846121	-0.0865155	-0.0961137	-0.0858648	0.39762	0.110984	-0.374658	0.108617	0.114865	0.203001	-0.132642	0.0130843	0.144707	-0.198965	-0.363202	-0.292726	0.001584	-0.359732	-0.581406	-0.251493	-0.177951	0.231089	-0.182917	0.128599	0.525924	0.223897	-0.287401	-0.074113	0.132562	
2.00958	0	0	0.77497	1.2318	-0.090687	0.846296	-0.088224	-0.091285	-0.093626	0.402692	0.107006	-0.363414	0.112045	0.119964	0.204657	-0.126534	0.011623	0.148837	-0.198965	-0.363202	-0.28922	0.001496	-0.359732	-0.581406	-0.250279	-0.181381	0.2286	-0.189839	0.1245	0.51703	0.229253	-0.302537	-0.078372	0.127886	
2.005	0	0	0.772022	1.2293	-0.103113	0.843156	-0.0916892	-0.0908773	-0.0958605	0.400581	0.106011	-0.360601	0.112045	0.119964	0.201344	-0.117171	0.01623	0.149003	-0.199941	-0.360445	-0.291249	0.00723	-0.361474	-0.576483	-0.250279	-0.181381	0.224801	-0.19305	0.122982	0.511088	0.230591	-0.306317	-0.0826277	0.123216	
2.00806	0	0	0.769073	1.22679	-0.115539	0.840016	-0.0951545	-0.0904695	-0.098095	0.398469	0.105015	-0.357788	0.112045	0.119964	0.198031	-0.107808	0.020837	0.149169	-0.200916	-0.357687	-0.293278	0.012964	-0.363216	-0.571559	-0.250279	-0.181381	0.221002	-0.196261	0.121465	0.505146	0.231928	-0.310098	-0.0868835	0.118546	
2.00653	0	0	0.766124	1.22429	-0.127966	0.836875	-0.0986197	-0.0900617	-0.10033	0.396357	0.10402	-0.354974	0.112045	0.119964	0.194718	-0.098445	0.025444	0.149335	-0.201892	-0.35493	-0.295307	0.018698	-0.364958	-0.566636	-0.250279	-0.181381	0.217204	-0.199471	0.119947	0.499203	0.233266	-0.313878	-0.0911392	0.113877	
2.00653	0	0	0.763176	1.22178	-0.140392	0.833735	-0.102085	-0.089654	-0.102564	0.394246	0.103024	-0.352161	0.112045	0.119964	0.191405	-0.089082	0.030051	0.149501	-0.202868	-0.352172	-0.297336	0.024432	-0.3667	-0.561713	-0.250279	-0.181381	0.213405	-0.202682	0.11843	0.493261	0.234603	-0.317658	-0.095395	0.109207	
2.00806	0	0	0.75921	1.22216	-0.141079	0.822943	-0.102085	-0.089654	-0.1001	0.387283	0.105418	-0.349398	0.112045	0.119964	0.195268	-0.0892052	0.023982	0.153467	-0.206492	-0.351924	-0.296321	0.0215645	-0.36932	-0.563786	-0.253498	-0.184549	0.213532	-0.216977	0.110692	0.48447	0.218825	-0.31896	-0.0996475	0.104543	
2.00958	0	0	0.755244	1.22253	-0.141767	0.81215	-0.102085	-0.089654	-0.097636	0.38032	0.107813	-0.346635	0.112045	0.119964	0.199131	-0.0893285	0.017913	0.157432	-0.210117	-0.351676	-0.295307	0.018697	-0.371939	-0.565859	-0.256717	-0.187717	0.213659	-0.231272	0.102954	0.475679	0.203046	-0.320263	-0.1039	0.099879	
2.005	0	0	0.751279	1.22291	-0.142454	0.801357	-0.102085	-0.089654	-0.095172	0.373356	0.110207	-0.343871	0.112045	0.119964	0.202994	-0.0894517	0.011844	0.161397	-0.213742	-0.351427	-0.294292	0.0158295	-0.374559	-0.567933	-0.259937	-0.190884	0.213786	-0.245567	0.095216	0.466888	0.187268	-0.321565	-0.108152	0.095215	
2.00958	0	0	0.747313	1.22328	-0.143142	0.790565	-0.102085	-0.089654	-0.092708	0.366393	0.112601	-0.341108	0.112045	0.119964	0.206857	-0.089575	0.005775	0.165363	-0.217366	-0.351179	-0.293277	0.012962	-0.377178	-0.570006	-0.263156	-0.194052	0.213913	-0.259862	0.087478	0.458097	0.171489	-0.322867	-0.112405	0.090551	
2.00806	0	0	0.749351	1.21753	-0.152269	0.790915	-0.102085	-0.089654	-0.0988175	0.366818	0.110608	-0.335475	0.112045	0.119964	0.205752	-0.0864507	0.005775	0.165363	-0.217366	-0.351179	-0.292263	0.0100955	-0.376307	-0.572467	-0.260732	-0.200903	0.20893	-0.273622	0.086561	0.440277	0.176824	-0.337946	-0.117486	0.0715918	
2.00806	0	0	0.751389	1.21177	-0.161396	0.791265	-0.102085	-0.089654	-0.104927	0.367244	0.108615	-0.329843	0.112045	0.119964	0.204646	-0.0833265	0.005775	0.165363	-0.217366	-0.351179	-0.291249	0.007229	-0.375437	-0.574928	-0.258308	-0.207755	0.203948	-0.287382	0.085644	0.422457	0.18216	-0.353025	-0.122567	0.0526325	
2.00958	0	0	0.753427	1.20601	-0.170524	0.791616	-0.102085	-0.089654	-0.111036	0.367669	0.106622	-0.32421	0.112045	0.119964	0.203541	-0.0802023	0.005775	0.165363	-0.217366	-0.351179	-0.290234	0.0043625	-0.374566	-0.577388	-0.255883	-0.214606	0.198965	-0.301142	0.084727	0.404637	0.187496	-0.368104	-0.127648	0.0336733	
2.00806	0	0	0.755465	1.20025	-0.179651	0.791966	-0.102085	-0.089654	-0.117146	0.368094	0.104629	-0.318577	0.112045	0.119964	0.202435	-0.077078	0.005775	0.165363	-0.217366	-0.351179	-0.28922	0.001496	-0.373695	-0.579849	-0.253459	-0.221457	0.193983	-0.314902	0.08381	0.386817	0.192831	-0.383183	-0.132729	0.014714	
2.01111	0	0	0.748557	1.19812	-0.193316	0.792482	-0.104694	-0.09166	-0.118558	0.36367	0.103632	-0.315759	0.110355	0.124741	0.200223	-0.0708262	0.005775	0.165363	-0.214718	-0.348669	-0.291249	0.00723	-0.371075	-0.577777	-0.252248	-0.22488	0.191492	-0.321766	0.0781922	0.372118	0.196827	-0.394476	-0.135272	0.00526275	
2.00958	0	0	0.74165	1.196	-0.206981	0.792999	-0.107304	-0.093666	-0.11997	0.359247	0.102635	-0.312942	0.108664	0.129518	0.198011	-0.0645745	0.005775	0.165363	-0.21207	-0.346159	-0.293278	0.012964	-0.368455	-0.575705	-0.251036	-0.228304	0.189	-0.32863	0.0725745	0.357418	0.200823	-0.405768	-0.137815	-0.0041885	
2.00958	0	0	0.734743	1.19388	-0.220645	0.793515	-0.109913	-0.095672	-0.121382	0.354823	0.101638	-0.310125	0.106974	0.134295	0.195799	-0.0583227	0.005775	0.165363	-0.209421	-0.343648	-0.295307	0.018698	-0.365835	-0.573633	-0.249825	-0.231728	0.186509	-0.335494	0.0669567	0.342719	0.204818	-0.417061	-0.140358	-0.0136397	
2.00958	0	0	0.727835	1.19175	-0.23431	0.794032	-0.112523	-0.097678	-0.122794	0.350399	0.100641	-0.307307	0.105284	0.139072	0.193587	-0.052071	0.005775	0.165363	-0.206773	-0.341138	-0.297336	0.024432	-0.363215	-0.571561	-0.248614	-0.235151	0.184018	-0.342358	0.061339	0.32802	0.208814	-0.428354	-0.142901	-0.023091	
2.00653	0	0	0.72591	1.18638	-0.227868	0.775825	-0.115131	-0.099683	-0.122568	0.34135	0.0952578	-0.301623	0.108663	0.129521	0.19248	-0.0489435	0.007237	0.161231	-0.206773	-0.341138	-0.297336	0.024432	-0.363215	-0.571561	-0.247403	-0.238573	0.175137	-0.345036	0.0582965	0.316263	0.210145	-0.432115	-0.139496	-0.0327145	
2.00958	0	0	0.723985	1.18101	-0.221425	0.757618	-0.117739	-0.101688	-0.122342	0.3323	0.0898745	-0.295938	0.112043	0.119969	0.191374	-0.045816	0.008699	0.1571	-0.206773	-0.341138	-0.297336	0.024432	-0.363215	-0.571561	-0.246192	-0.241996	0.166255	-0.347715	0.055254	0.304505	0.211475	-0.435876	-0.136091	-0.042338	
2.00653	0	0	0.722059	1.17564	-0.214983	0.739411	-0.120348	-0.103693	-0.122116	0.323251	0.0844912	-0.290253	0.115423	0.110418	0.190268	-0.0426885	0.010161	0.152969	-0.206773	-0.341138	-0.297336	0.024432	-0.363215	-0.571561	-0.244981	-0.245419	0.157373	-0.350393	0.0522115	0.292747	0.212806	-0.439637	-0.132685	-0.0519615	
2.01111	0	0	0.720134	1.17026	-0.208541	0.721204	-0.122956	-0.105698	-0.12189	0.314202	0.079108	-0.284569	0.118802	0.100866	0.189161	-0.039561	0.011623	0.148837	-0.206773	-0.341138	-0.297336	0.024432	-0.363215	-0.571561	-0.24377	-0.248841	0.148492	-0.353071	0.049169	0.28099	0.214137	-0.443398	-0.12928	-0.061585	
2.00653	0	0	0.718209	1.1649	-0.220897	0.7181	-0.126416	-0.105291	-0.127171	0.312317	0.0781102	-0.281749	0.118802	0.100866	0.189161	-0.039561	0.010161	0.152969	-0.201194	-0.346904	-0.296321	0.0215645	-0.361474	-0.576483	-0.24014	-0.2591	0.143519	-0.366753	0.0456507	0.260441	0.213753	-0.457586	-0.132685	-0.085192	
2.005	0	0	0.716284	1.15953	-0.233254	0.714997	-0.129876	-0.104884	-0.132453	0.310433	0.0771125	-0.27893	0.118802	0.100866	0.189161	-0.039561	0.008699	0.1571	-0.195615	-0.35267	-0.295307	0.018697	-0.359732	-0.581404	-0.23651	-0.269359	0.138545	-0.380435	0.0421325	0.239893	0.213369	-0.471774	-0.13609	-0.108799	
2.00653	0	0	0.714359	1.15416	-0.24561	0.711893	-0.133336	-0.104477	-0.137734	0.308549	0.0761148	-0.276111	0.118802	0.100866	0.189161	-0.039561	0.007237	0.161231	-0.190037	-0.358436	-0.294292	0.0158295	-0.35799	-0.586326	-0.23288	-0.279618	0.133572	-0.394117	0.0386143	0.219344	0.212986	-0.485963	-0.139495	-0.132406	
2.005	0	0	0.712434	1.1488	-0.257966	0.708789	-0.136796	-0.10407	-0.143015	0.306664	0.075117	-0.273291	0.118802	0.100866	0.189161	-0.039561	0.005775	0.165363	-0.184458	-0.364202	-0.293277	0.012962	-0.356249	-0.591248	-0.22925	-0.289877	0.128599	-0.407799	0.035096	0.198795	0.212602	-0.500151	-0.1429	-0.156013	
2.005	0	0	0.706555	1.14382	-0.261222	0.705335	-0.139401	-0.106074	-0.14361	0.299945	0.075117	-0.273291	0.113684	0.100542	0.190268	-0.0426885	0.007237	0.161231	-0.184458	-0.364202	-0.28423	0.00705025	-0.351015	-0.596559	-0.228041	-0.293294	0.13129	-0.429258	0.0315658	0.17833	0.203867	-0.505973	-0.138692	-0.184498	
2.00653	0	0	0.700676	1.13884	-0.264479	0.701881	-0.142006	-0.108078	-0.144205	0.293226	0.075117	-0.273291	0.108567	0.100217	0.191374	-0.045816	0.008699	0.1571	-0.184458	-0.364202	-0.275182	0.0011385	-0.345781	-0.60187	-0.226832	-0.296712	0.133981	-0.450718	0.0280355	0.157864	0.195132	-0.511794	-0.134485	-0.212983	
2.00653	0	0	0.694798	1.13386	-0.267736	0.698427	-0.144611	-0.110082	-0.144799	0.286507	0.075117	-0.273291	0.103449	0.0998925	0.19248	-0.0489435	0.010161	0.152969	-0.184458	-0.364202	-0.266134	-0.00477325	-0.340547	-0.607182	-0.225622	-0.300129	0.136673	-0.472178	0.0245052	0.137398	0.186396	-0.517616	-0.130277	-0.241467	
2.00653	0	0	0.688919	1.12888	-0.270992	0.694973	-0.147216	-0.112086	-0.145394	0.279788	0.075117	-0.273291	0.098331	0.099568	0.193587	-0.052071	0.011623	0.148837	-0.184458	-0.364202	-0.257087	-0.010685	-0.335313	-0.612493	-0.224413	-0.303546	0.139364	-0.493637	0.020975	0.116933	0.177661	-0.523437	-0.126069	-0.269952	
2.00806	0	0	0.688009	1.12066	-0.274937	0.680832	-0.148968	-0.116497	-0.145174	0.27077	0.0693438	-0.276019	0.0949045	0.0944757	0.190831	-0.0550765	0.0070195	0.14867	-0.179853	-0.367211	-0.251545	-0.0165098	-0.335313	-0.612493	-0.221996	-0.310376	0.139454	-0.507733	0.0236258	0.0993052	0.182959	-0.538409	-0.11932	-0.289024	
2.00653	0	0	0.687099	1.11244	-0.278882	0.666691	-0.15072	-0.120908	-0.144954	0.261752	0.0635705	-0.278748	0.091478	0.0893835	0.188075	-0.058082	0.002416	0.148503	-0.175248	-0.37022	-0.246004	-0.0223345	-0.335313	-0.612493	-0.219579	-0.317207	0.139543	-0.521829	0.0262765	0.0816775	0.188256	-0.553381	-0.112572	-0.308096	
2.00806	0	0	0.686189	1.10423	-0.282826	0.65255	-0.152472	-0.125319	-0.144733	0.252735	0.0577973	-0.281476	0.0880515	0.0842913	0.185319	-0.0610875	-0.0021875	0.148336	-0.170642	-0.373229	-0.240462	-0.0281593	-0.335313	-0.612493	-0.217163	-0.324037	0.139633	-0.535926	0.0289273	0.0640498	0.193553	-0.568352	-0.105823	-0.327169	
2.005	0	0	0.685279	1.09601	-0.286771	0.638409	-0.154224	-0.12973	-0.144513	0.243717	0.052024	-0.284204	0.084625	0.079199	0.182563	-0.064093	-0.006791	0.148169	-0.166037	-0.376238	-0.234921	-0.033984	-0.335313	-0.612493	-0.214746	-0.330867	0.139723	-0.550022	0.031578	0.046422	0.198851	-0.583324	-0.099075	-0.346241	
2.00806	0	0	0.680419	1.08819	-0.293275	0.631536	-0.154274	-0.138947	-0.148157	0.237235	0.0506337	-0.28979	0.0828843	0.069354	0.182017	-0.073339	-0.00241125	0.135791	-0.166741	-0.384254	-0.23188	-0.042578	-0.334459	-0.624387	-0.208712	-0.34792	0.130948	-0.566689	0.0280195	0.0261028	0.197128	-0.593688	-0.11017	-0.364576	
2.00806	0	0	0.675558	1.08037	-0.299779	0.624663	-0.154324	-0.148164	-0.151801	0.230754	0.0492435	-0.295376	0.0811435	0.059509	0.181472	-0.082585	0.0019685	0.123413	-0.167445	-0.392271	-0.22884	-0.051172	-0.333605	-0.636281	-0.202678	-0.364973	0.122172	-0.583355	0.024461	0.0057835	0.195404	-0.604053	-0.121264	-0.382911	
2.01111	0	0	0.670698	1.07255	-0.306284	0.617789	-0.154373	-0.15738	-0.155445	0.224273	0.0478532	-0.300962	0.0794027	0.049664	0.180926	-0.091831	0.00634825	0.111036	-0.168149	-0.400287	-0.225799	-0.059766	-0.332752	-0.648174	-0.196644	-0.382025	0.113397	-0.600021	0.0209025	-0.0145357	0.19368	-0.614417	-0.132359	-0.401246	
2.00958	0	0	0.665838	1.06472	-0.312788	0.610916	-0.154423	-0.166597	-0.159089	0.217791	0.046463	-0.306548	0.077662	0.039819	0.18038	-0.101077	0.010728	0.098658	-0.168853	-0.408303	-0.222758	-0.06836	-0.331898	-0.660068	-0.19061	-0.399078	0.104621	-0.616688	0.017344	-0.034855	0.191957	-0.624782	-0.143454	-0.419581	
