0.798	2.02179	0	0	0.09612	1.6563	0.276122	1.78036	0.225986	1.51235	0.048757	0.919677	0.253997	0.525823	-0.0455	0.561528	-0.029237	0.393722	-0.056855	0.666928	-0.051574	-0.064292	0.188291	0.272021	-0.060641	-0.141706	-0.056867	-0.011082	-0.022159	0.296194	-0.065477	0.332274	0.21569	-0.132392	-0.052846	0.456901	
0.728004	2.02026	0	0	0.095867	1.67478	0.273054	1.81515	0.218362	1.53389	0.0430437	0.960044	0.251269	0.541276	-0.048445	0.614823	-0.0334345	0.416884	-0.0597012	0.685692	-0.0508463	-0.0461695	0.187968	0.29775	-0.0582835	-0.120618	-0.0534732	0.0151107	-0.0275195	0.311343	-0.0654665	0.350008	0.21569	-0.132392	-0.050223	0.473963	
0.686274	2.01721	0	0	0.095614	1.69326	0.269985	1.84995	0.210738	1.55544	0.0373305	1.00041	0.248541	0.556728	-0.05139	0.668117	-0.037632	0.440045	-0.0625475	0.704455	-0.0501185	-0.028047	0.187646	0.323479	-0.055926	-0.099529	-0.0500795	0.0413035	-0.03288	0.326493	-0.065456	0.367742	0.21569	-0.132392	-0.0476	0.491026	
0.667072	2.01721	0	0	0.095361	1.71174	0.266917	1.88474	0.203115	1.57698	0.0316172	1.04078	0.245813	0.57218	-0.054335	0.721411	-0.0418295	0.463207	-0.0653938	0.723219	-0.0493907	-0.0099245	0.187324	0.349208	-0.0535685	-0.0784405	-0.0466857	0.0674962	-0.0382405	0.341643	-0.0654455	0.385476	0.21569	-0.132392	-0.044977	0.508088	
0.664658	2.02026	0	0	0.095108	1.73022	0.263849	1.91954	0.195491	1.59853	0.025904	1.08115	0.243085	0.587633	-0.05728	0.774706	-0.046027	0.486368	-0.06824	0.741983	-0.048663	0.008198	0.187001	0.374937	-0.051211	-0.057352	-0.043292	0.093689	-0.043601	0.356792	-0.065435	0.40321	0.21569	-0.132392	-0.042354	0.52515	
0.673292	2.02179	0	0	0.0917302	1.73977	0.261451	1.93939	0.190398	1.61292	0.0201925	1.10941	0.240723	0.59431	-0.0595105	0.796024	-0.0495585	0.496348	-0.0721372	0.752997	-0.0487807	0.018629	0.188793	0.382293	-0.0559565	-0.0439408	-0.0476625	0.106041	-0.0482415	0.352058	-0.0746315	0.402561	0.212687	-0.132073	-0.0549218	0.523968	
0.687235	2.01721	0	0	0.0883525	1.74931	0.259053	1.95924	0.185306	1.62731	0.014481	1.13767	0.23836	0.600987	-0.061741	0.817342	-0.05309	0.506328	-0.0760345	0.764011	-0.0488985	0.02906	0.190586	0.389649	-0.060702	-0.0305295	-0.052033	0.118393	-0.052882	0.347323	-0.083828	0.401912	0.209684	-0.131754	-0.0674895	0.522785	
0.700748	2.01721	0	0	0.0849748	1.75886	0.256656	1.97909	0.180213	1.64171	0.0087695	1.16594	0.235997	0.607664	-0.0639715	0.83866	-0.0566215	0.516309	-0.0799317	0.775025	-0.0490162	0.039491	0.192378	0.397005	-0.0654475	-0.0171183	-0.0564035	0.130745	-0.0575225	0.342588	-0.0930245	0.401263	0.206682	-0.131436	-0.0800572	0.521602	
0.708092	2.02026	0	0	0.081597	1.76841	0.254258	1.99894	0.175121	1.6561	0.003058	1.1942	0.233635	0.614341	-0.066202	0.859978	-0.060153	0.526289	-0.083829	0.786039	-0.049134	0.049922	0.19417	0.404361	-0.070193	-0.003707	-0.060774	0.143097	-0.062163	0.337854	-0.102221	0.400614	0.203679	-0.131117	-0.092625	0.52042	
0.703527	2.01874	0	0	0.080173	1.75467	0.254974	1.98384	0.174328	1.64555	-0.005197	1.18119	0.227672	0.607975	-0.0719168	0.816143	-0.0658425	0.519778	-0.087201	0.774136	-0.052828	0.0502638	0.186665	0.400738	-0.076811	-0.00350875	-0.072873	0.141507	-0.074107	0.335962	-0.113441	0.38801	0.181159	-0.116402	-0.103728	0.515169	
0.681315	2.02026	0	0	0.078749	1.74093	0.25569	1.96874	0.173535	1.63501	-0.013452	1.16817	0.221709	0.601608	-0.0776315	0.772308	-0.071532	0.513267	-0.090573	0.762233	-0.056522	0.0506055	0.179159	0.397115	-0.083429	-0.0033105	-0.084972	0.139916	-0.086051	0.33407	-0.124662	0.375405	0.158639	-0.101687	-0.11483	0.509917	
0.635879	2.01874	0	0	0.077325	1.72718	0.256407	1.95364	0.172742	1.62446	-0.021707	1.15516	0.215745	0.595242	-0.0833462	0.728473	-0.0772215	0.506757	-0.093945	0.750329	-0.060216	0.0509472	0.171654	0.393492	-0.090047	-0.00311225	-0.097071	0.138325	-0.097995	0.332179	-0.135882	0.362801	0.13612	-0.086972	-0.125933	0.504665	
0.571346	2.01721	0	0	0.075901	1.71345	0.257123	1.93854	0.171949	1.61391	-0.029962	1.14215	0.209782	0.588876	-0.089061	0.684638	-0.082911	0.500246	-0.097317	0.738426	-0.06391	0.051289	0.164149	0.389869	-0.096665	-0.002914	-0.10917	0.136735	-0.109939	0.330287	-0.147102	0.350196	0.1136	-0.072257	-0.137035	0.499414	
0.506767	2.02026	0	0	0.0792718	1.70392	0.256151	1.92823	0.165274	1.60723	-0.0341205	1.1418	0.202254	0.586962	-0.0941318	0.684002	-0.086929	0.500317	-0.110533	0.732984	-0.0731975	0.0573575	0.157959	0.38256	-0.10092	-0.0001335	-0.123425	0.141306	-0.116876	0.323203	-0.157286	0.334767	0.102363	-0.0649143	-0.14668	0.490116	
0.462466	2.01874	0	0	0.0826425	1.69439	0.255178	1.91791	0.1586	1.60054	-0.038279	1.14146	0.194725	0.585047	-0.0992025	0.683366	-0.090947	0.500387	-0.12375	0.727542	-0.082485	0.063426	0.15177	0.375252	-0.105176	0.002647	-0.13768	0.145877	-0.123814	0.316119	-0.167469	0.319337	0.091125	-0.0575715	-0.156325	0.480818	
0.456937	2.02179	0	0	0.0860132	1.68487	0.254206	1.90759	0.151925	1.59385	-0.0424375	1.14111	0.187197	0.583133	-0.104273	0.68273	-0.094965	0.500458	-0.136966	0.722099	-0.0917725	0.0694945	0.145581	0.367943	-0.109431	0.0054275	-0.151935	0.150449	-0.130751	0.309035	-0.177653	0.303907	0.0798875	-0.0502288	-0.16597	0.471519	
0.488978	2.01874	0	0	0.089384	1.67534	0.253234	1.89727	0.14525	1.58717	-0.046596	1.14077	0.179669	0.581219	-0.109344	0.682094	-0.098983	0.500529	-0.150182	0.716657	-0.10106	0.075563	0.139391	0.360634	-0.113686	0.008208	-0.16619	0.15502	-0.137689	0.301951	-0.187837	0.288478	0.06865	-0.042886	-0.175615	0.462221	
0.545379	2.01416	0	0	0.0828998	1.67592	0.253234	1.89727	0.141915	1.58383	-0.0452588	1.14908	0.169795	0.585964	-0.099584	0.699446	-0.116898	0.517345	-0.164658	0.714874	-0.102014	0.0782583	0.133689	0.36436	-0.11794	0.0109873	-0.172216	0.154218	-0.13911	0.297078	-0.196985	0.279039	0.0649072	-0.0404405	-0.183946	0.461434	
0.612764	2.01416	0	0	0.0764155	1.6765	0.253234	1.89727	0.138581	1.58049	-0.0439215	1.1574	0.15992	0.590709	-0.089824	0.716799	-0.134813	0.534161	-0.179135	0.713092	-0.102967	0.0809535	0.127988	0.368085	-0.122193	0.0137665	-0.178241	0.153415	-0.140531	0.292206	-0.206133	0.269601	0.0611645	-0.037995	-0.192277	0.460648	
0.677755	2.01568	0	0	0.0699313	1.67708	0.253234	1.89727	0.135246	1.57716	-0.0425842	1.16572	0.150046	0.595453	-0.080064	0.734151	-0.152727	0.550978	-0.193611	0.71131	-0.103921	0.0836488	0.122286	0.37181	-0.126447	0.0165457	-0.184267	0.152612	-0.141951	0.287333	-0.215281	0.260162	0.0574218	-0.0355495	-0.200608	0.459862	
0.726974	2.01111	0	0	0.063447	1.67765	0.253234	1.89727	0.131912	1.57382	-0.041247	1.17404	0.140172	0.600198	-0.070304	0.751504	-0.170642	0.567794	-0.208087	0.709527	-0.104875	0.086344	0.116585	0.375536	-0.1307	0.019325	-0.190293	0.15181	-0.143372	0.28246	-0.224429	0.250723	0.053679	-0.033104	-0.208939	0.459075	
0.749159	2.01111	0	0	0.0636933	1.65923	0.251277	1.8767	0.136984	1.55948	-0.041175	1.16174	0.130311	0.604935	-0.075779	0.766977	-0.178177	0.577832	-0.220212	0.711836	-0.110469	0.092072	0.118368	0.382884	-0.14015	0.0275622	-0.194658	0.164145	-0.145152	0.28749	-0.227473	0.250512	0.0491817	-0.0285222	-0.192265	0.460646	
0.747528	2.00348	0	0	0.0639395	1.6408	0.249321	1.85612	0.142057	1.54515	-0.041103	1.14944	0.120449	0.609671	-0.081254	0.78245	-0.185712	0.58787	-0.232336	0.714144	-0.116063	0.0978	0.120152	0.390231	-0.149599	0.0357995	-0.199022	0.17648	-0.146931	0.292519	-0.230517	0.250301	0.0446845	-0.0239405	-0.175591	0.462217	
0.731368	1.9638	0	0	0.0641857	1.62238	0.247364	1.83555	0.147129	1.53081	-0.041031	1.13714	0.110588	0.614408	-0.086729	0.797923	-0.193247	0.597907	-0.24446	0.716452	-0.121657	0.103528	0.121936	0.397579	-0.159049	0.0440367	-0.203387	0.188815	-0.148711	0.297549	-0.23356	0.250091	0.0401873	-0.0193588	-0.158917	0.463788	
0.709985	1.96838	0	0	0.064432	1.60395	0.245408	1.81497	0.152201	1.51648	-0.040959	1.12484	0.100727	0.619145	-0.092204	0.813396	-0.200782	0.607945	-0.256585	0.718761	-0.127251	0.109256	0.123719	0.404927	-0.168498	0.052274	-0.207752	0.20115	-0.150491	0.302579	-0.236604	0.24988	0.03569	-0.014777	-0.142243	0.465359	
0.692684	1.98517	0	0	0.0565185	1.5909	0.237444	1.79839	0.14553	1.50983	-0.0325742	1.11324	0.092449	0.619436	-0.088553	0.803078	-0.208781	0.608058	-0.257611	0.711019	-0.129981	0.106895	0.126809	0.408589	-0.171795	0.052366	-0.207752	0.20115	-0.149601	0.300064	-0.236612	0.241094	0.0401873	-0.0193588	-0.133888	0.466141	
0.688665	2.01568	0	0	0.048605	1.57786	0.22948	1.78181	0.138859	1.50319	-0.0241895	1.10164	0.084171	0.619727	-0.084902	0.79276	-0.216781	0.60817	-0.258636	0.703276	-0.132711	0.104534	0.1299	0.41225	-0.175093	0.052458	-0.207752	0.20115	-0.148711	0.297548	-0.23662	0.232309	0.0446845	-0.0239405	-0.125533	0.466924	
0.700088	2.01721	0	0	0.0406915	1.56481	0.221516	1.76523	0.132188	1.49655	-0.0158048	1.09004	0.075893	0.620018	-0.081251	0.782441	-0.22478	0.608283	-0.259661	0.695534	-0.135441	0.102173	0.132991	0.415912	-0.178391	0.05255	-0.207752	0.20115	-0.147821	0.295033	-0.236628	0.223523	0.0491817	-0.0285223	-0.117178	0.467706	
0.717802	2.01874	0	0	0.032778	1.55177	0.213552	1.74865	0.125517	1.4899	-0.00742	1.07844	0.067615	0.620309	-0.0776	0.772123	-0.23278	0.608396	-0.260687	0.687792	-0.138171	0.099812	0.136081	0.419574	-0.181688	0.052642	-0.207752	0.20115	-0.146931	0.292518	-0.236636	0.214737	0.053679	-0.033104	-0.108823	0.468488	
0.731637	2.01416	0	0	0.0315472	1.5199	0.206263	1.71725	0.123902	1.469	-0.0114263	1.04142	0.055411	0.616356	-0.0884117	0.727847	-0.242409	0.60192	-0.268919	0.679174	-0.147304	0.095429	0.140003	0.408492	-0.188726	0.0448775	-0.209406	0.188011	-0.155635	0.290475	-0.244757	0.202495	0.042461	-0.0257738	-0.10595	0.460369	
0.731422	2.01721	0	0	0.0303165	1.48804	0.198975	1.68586	0.122287	1.44811	-0.0154325	1.00439	0.043207	0.612403	-0.0992235	0.683571	-0.252039	0.595443	-0.277151	0.670555	-0.156438	0.091046	0.143924	0.397409	-0.195764	0.037113	-0.211061	0.174873	-0.164338	0.288433	-0.252877	0.190253	0.031243	-0.0184435	-0.103078	0.45225	
0.706987	2.02637	0	0	0.0290858	1.45617	0.191687	1.65447	0.120672	1.42721	-0.0194388	0.967368	0.031003	0.608451	-0.110035	0.639295	-0.261668	0.588966	-0.285384	0.661937	-0.165571	0.086663	0.147846	0.386327	-0.202802	0.0293485	-0.212716	0.161735	-0.173041	0.28639	-0.260998	0.178011	0.020025	-0.0111133	-0.100205	0.444132	
0.650583	2.034	0	0	0.027855	1.42431	0.184398	1.62308	0.119057	1.40631	-0.023445	0.930343	0.018799	0.604498	-0.120847	0.595019	-0.271298	0.58249	-0.293616	0.653319	-0.174704	0.08228	0.151767	0.375244	-0.20984	0.021584	-0.21437	0.148596	-0.181745	0.284348	-0.269119	0.165769	0.008807	-0.003783	-0.097332	0.436013	
0.575395	2.03094	0	0	0.0199415	1.4114	0.185708	1.59343	0.116168	1.38905	-0.0261635	0.9139	0.0121157	0.600358	-0.125544	0.578443	-0.278099	0.579284	-0.301836	0.644721	-0.174575	0.0718603	0.144276	0.371629	-0.210291	0.0136485	-0.22639	0.146986	-0.184051	0.281993	-0.283279	0.161889	0.00805075	-0.00164575	-0.114035	0.434461	
0.505331	1.99432	0	0	0.012028	1.39849	0.187018	1.56379	0.11328	1.37178	-0.028882	0.897456	0.0054325	0.596218	-0.13024	0.561867	-0.284901	0.576078	-0.310056	0.636124	-0.174446	0.0614405	0.136786	0.368014	-0.210741	0.005713	-0.238409	0.145377	-0.186356	0.279638	-0.297438	0.158009	0.0072945	0.0004915	-0.130739	0.43291	
0.464384	2.02637	0	0	0.0041145	1.38558	0.188328	1.53415	0.110391	1.35452	-0.0316005	0.881013	-0.00125075	0.592079	-0.134937	0.545292	-0.291702	0.572872	-0.318277	0.627526	-0.174316	0.0510208	0.129295	0.364399	-0.211192	-0.0022225	-0.250429	0.143767	-0.188662	0.277283	-0.311598	0.15413	0.00653825	0.00262875	-0.147442	0.431358	
0.469518	2.02331	0	0	-0.003799	1.37267	0.189638	1.5045	0.107502	1.33726	-0.034319	0.86457	-0.007934	0.587939	-0.139633	0.528716	-0.298503	0.569666	-0.326497	0.618928	-0.174187	0.040601	0.121804	0.360784	-0.211643	-0.010158	-0.262449	0.142157	-0.190968	0.274928	-0.325758	0.15025	0.005782	0.004766	-0.164145	0.429806	
0.512146	2.03705	0	0	-0.010046	1.35511	0.17571	1.49209	0.106682	1.32687	-0.042585	0.8518	-0.0161727	0.588223	-0.13638	0.534442	-0.303659	0.573035	-0.338553	0.621227	-0.177736	0.0305377	0.127627	0.39393	-0.219127	-0.0257997	-0.262449	0.142157	-0.191498	0.267558	-0.34191	0.134615	-0.0016885	0.00964725	-0.164145	0.429806	
0.577878	2.04925	0	0	-0.016293	1.33756	0.161782	1.47968	0.105863	1.31649	-0.050851	0.839029	-0.0244115	0.588507	-0.133128	0.540167	-0.308816	0.576404	-0.35061	0.623525	-0.181285	0.0204745	0.133449	0.427077	-0.22661	-0.0414415	-0.262449	0.142157	-0.192028	0.260188	-0.358063	0.118981	-0.009159	0.0145285	-0.164145	0.429806	
0.652324	2.04468	0	0	-0.02254	1.32	0.147854	1.46727	0.105043	1.3061	-0.059117	0.826259	-0.0326502	0.588792	-0.129875	0.545893	-0.313972	0.579774	-0.362667	0.625823	-0.184833	0.0104113	0.139272	0.460224	-0.234093	-0.0570833	-0.262449	0.142157	-0.192557	0.252817	-0.374215	0.103346	-0.0166295	0.0194097	-0.164145	0.429806	
0.721097	2.00348	0	0	-0.028787	1.30245	0.133926	1.45486	0.104224	1.29572	-0.067383	0.813489	-0.040889	0.589076	-0.126622	0.551619	-0.319128	0.583143	-0.374723	0.628122	-0.188382	0.000348	0.145095	0.49337	-0.241577	-0.072725	-0.262449	0.142157	-0.193087	0.245447	-0.390367	0.087712	-0.0241	0.024291	-0.164145	0.429806	
0.769806	2.02026	0	0	-0.03651	1.27159	0.141132	1.42157	0.086335	1.2829	-0.0687045	0.781162	-0.0631972	0.583295	-0.145028	0.544035	-0.332693	0.576732	-0.399779	0.625	-0.199389	0.00135775	0.144705	0.519324	-0.261258	-0.0721545	-0.272802	0.153652	-0.194862	0.250464	-0.405436	0.104096	-0.0270765	0.024593	-0.165714	0.446418	
0.786492	2.02942	0	0	-0.044233	1.24073	0.148338	1.38829	0.068446	1.27008	-0.070026	0.748836	-0.0855055	0.577514	-0.163434	0.53645	-0.346257	0.570321	-0.424835	0.621879	-0.210396	0.0023675	0.144315	0.545277	-0.280939	-0.071584	-0.283155	0.165147	-0.196638	0.255481	-0.420505	0.12048	-0.030053	0.024895	-0.167283	0.463029	
0.775426	2.02484	0	0	-0.051956	1.20986	0.155544	1.355	0.050557	1.25727	-0.0713475	0.71651	-0.107814	0.571732	-0.18184	0.528866	-0.359822	0.563911	-0.44989	0.618757	-0.221403	0.00337725	0.143924	0.57123	-0.30062	-0.0710135	-0.293508	0.176642	-0.198413	0.260498	-0.435573	0.136865	-0.0330295	0.025197	-0.168852	0.479641	
0.747522	2.01721	0	0	-0.059679	1.179	0.16275	1.32172	0.032668	1.24445	-0.072669	0.684183	-0.130122	0.565951	-0.200246	0.521282	-0.373386	0.5575	-0.474946	0.615636	-0.23241	0.004387	0.143534	0.597184	-0.320301	-0.070443	-0.303861	0.188137	-0.200188	0.265515	-0.450642	0.153249	-0.036006	0.025499	-0.170421	0.496252	
0.713714	2.01416	0	0	-0.0611605	1.16566	0.159061	1.30633	0.0297733	1.22734	-0.0767967	0.671847	-0.134029	0.561731	-0.215359	0.519417	-0.378987	0.550995	-0.482084	0.614741	-0.233358	0.00706675	0.146624	0.600889	-0.330615	-0.05961	-0.308219	0.200455	-0.201076	0.268025	-0.444609	0.162401	-0.0285388	0.0206197	-0.166249	0.496648	
0.684937	2.02026	0	0	-0.062642	1.15231	0.155372	1.29093	0.0268785	1.21023	-0.0809245	0.65951	-0.137935	0.557511	-0.230473	0.517553	-0.384587	0.544491	-0.489223	0.613846	-0.234307	0.0097465	0.149715	0.604594	-0.340928	-0.048777	-0.312578	0.212774	-0.201964	0.270535	-0.438576	0.171553	-0.0210715	0.0157405	-0.162077	0.497043	
0.671834	2.01568	0	0	-0.0641235	1.13897	0.151684	1.27554	0.0239838	1.19313	-0.0850522	0.647174	-0.141842	0.553291	-0.245586	0.515688	-0.390188	0.537987	-0.496361	0.612952	-0.235255	0.0124262	0.152805	0.608298	-0.351241	-0.037944	-0.316937	0.225092	-0.202852	0.273044	-0.432542	0.180705	-0.0136043	0.0108613	-0.157906	0.497439	
0.675611	2.01874	0	0	-0.065605	1.12563	0.147995	1.26015	0.021089	1.17602	-0.08918	0.634838	-0.145749	0.549071	-0.260699	0.513824	-0.395789	0.531482	-0.5035	0.612057	-0.236203	0.015106	0.155895	0.612003	-0.361555	-0.027111	-0.321295	0.23741	-0.20374	0.275554	-0.426509	0.189857	-0.006137	0.005982	-0.153734	0.497834	
0.686198	2.01874	0	0	-0.0542487	1.11106	0.135716	1.24333	0.0252398	1.15165	-0.104319	0.617753	-0.135211	0.542185	-0.27863	0.490441	-0.392285	0.521579	-0.498653	0.60889	-0.235255	0.0124262	0.149716	0.604597	-0.357341	-0.0298642	-0.325105	0.230429	-0.205685	0.263331	-0.424499	0.184176	-0.0136043	0.0108612	-0.153472	0.47273	
0.692865	2.01416	0	0	-0.0428925	1.0965	0.123437	1.22651	0.0293905	1.12729	-0.119458	0.600667	-0.124673	0.5353	-0.296561	0.467058	-0.388781	0.511676	-0.493806	0.605722	-0.234307	0.0097465	0.143537	0.597191	-0.353128	-0.0326175	-0.328914	0.223448	-0.207631	0.251108	-0.422489	0.178495	-0.0210715	0.0157405	-0.15321	0.447627	
0.68488	2.01263	0	0	-0.0315363	1.08193	0.111158	1.20969	0.0335413	1.10293	-0.134597	0.583581	-0.114136	0.528414	-0.314492	0.443676	-0.385277	0.501774	-0.488958	0.602555	-0.233358	0.00706675	0.137359	0.589785	-0.348915	-0.0353707	-0.332724	0.216467	-0.209576	0.238884	-0.420479	0.172814	-0.0285388	0.0206197	-0.152948	0.422523	
0.651536	2.00958	0	0	-0.02018	1.06737	0.098879	1.19287	0.037692	1.07857	-0.149736	0.566496	-0.103598	0.521528	-0.332423	0.420293	-0.381773	0.491871	-0.484111	0.599388	-0.23241	0.004387	0.13118	0.582379	-0.344701	-0.038124	-0.336534	0.209486	-0.211522	0.226661	-0.418469	0.167133	-0.036006	0.025499	-0.152686	0.397419	
0.590668	2.005	0	0	-0.0104613	1.05745	0.09844	1.1684	0.0393348	1.0613	-0.15111	0.546484	-0.0895013	0.527565	-0.330633	0.415235	-0.367045	0.494941	-0.492797	0.613404	-0.220454	0.00069575	0.128093	0.578682	-0.340983	-0.0303073	-0.336534	0.209486	-0.207445	0.223997	-0.416455	0.170185	-0.0248028	0.0181785	-0.149824	0.38933	
0.521452	2.00958	0	0	-0.0007425	1.04753	0.098001	1.14394	0.0409775	1.04404	-0.152483	0.526472	-0.0754045	0.533602	-0.328843	0.410177	-0.352318	0.498011	-0.501483	0.62742	-0.208499	-0.0029955	0.125006	0.574985	-0.337265	-0.0224905	-0.336534	0.209486	-0.203367	0.221333	-0.414442	0.173237	-0.0135995	0.010858	-0.146961	0.38124	
0.466344	2.00806	0	0	0.00897625	1.03761	0.097562	1.11947	0.0426202	1.02677	-0.153857	0.50646	-0.0613078	0.539639	-0.327053	0.405118	-0.337591	0.501081	-0.51017	0.641437	-0.196543	-0.00668675	0.12192	0.571287	-0.333548	-0.0146737	-0.336534	0.209486	-0.19929	0.218669	-0.412428	0.176289	-0.00239625	0.0035375	-0.144099	0.373151	
0.446836	2.00653	0	0	0.018695	1.02769	0.097123	1.095	0.044263	1.0095	-0.155231	0.486448	-0.047211	0.545676	-0.325263	0.40006	-0.322863	0.504151	-0.518856	0.655453	-0.184587	-0.010378	0.118833	0.56759	-0.32983	-0.006857	-0.336534	0.209486	-0.195213	0.216005	-0.410415	0.179341	0.008807	-0.003783	-0.141237	0.365062	
0.466281	2.00806	0	0	0.021978	1.01841	0.0891383	1.07907	0.042565	0.98908	-0.163486	0.462081	-0.0295453	0.549415	-0.325622	0.415863	-0.318412	0.51396	-0.50971	0.671768	-0.179136	-0.00568975	0.12192	0.571287	-0.325166	-0.00169675	-0.332724	0.216467	-0.192376	0.225716	-0.39933	0.191786	0.0237678	-0.0135587	-0.141359	0.377586	
0.511856	2.00806	0	0	0.025261	1.00913	0.0811535	1.06314	0.040867	0.968658	-0.171741	0.437715	-0.0118795	0.553153	-0.325982	0.431667	-0.313962	0.523769	-0.500564	0.688084	-0.173685	-0.0010015	0.125006	0.574985	-0.320502	0.0034635	-0.328914	0.223448	-0.189538	0.235427	-0.388244	0.204231	0.0387285	-0.0233345	-0.141481	0.390109	
0.570173	2.00806	0	0	0.028544	0.999852	0.0731688	1.04721	0.039169	0.948237	-0.179996	0.413349	0.00578625	0.556891	-0.326341	0.44747	-0.309511	0.533577	-0.491418	0.704399	-0.168235	0.00368675	0.128093	0.578682	-0.315838	0.00862375	-0.325105	0.230429	-0.1867	0.245137	-0.377159	0.216676	0.0536893	-0.0331103	-0.141604	0.402633	
0.627842	2.00806	0	0	0.031827	0.990574	0.065184	1.03128	0.037471	0.927815	-0.188251	0.388982	0.023452	0.56063	-0.3267	0.463273	-0.30506	0.543386	-0.482272	0.720715	-0.162784	0.008375	0.13118	0.582379	-0.311174	0.013784	-0.321295	0.23741	-0.183863	0.254848	-0.366074	0.229121	0.06865	-0.042886	-0.141726	0.415157	
0.67152	2.00958	0	0	0.0286695	0.981951	0.0555908	1.01998	0.0390848	0.910656	-0.191016	0.372994	0.033277	0.55591	-0.319889	0.458822	-0.297088	0.54327	-0.461809	0.715722	-0.166585	0.0191185	0.13381	0.574946	-0.315902	0.0271473	-0.329463	0.242747	-0.182806	0.269608	-0.364062	0.249749	0.07614	-0.0477802	-0.137679	0.428099	
0.693747	2.01263	0	0	0.025512	0.973329	0.0459975	1.00867	0.0406985	0.893498	-0.193781	0.357007	0.043102	0.55119	-0.313077	0.454371	-0.289117	0.543155	-0.441346	0.710729	-0.170387	0.029862	0.13644	0.567514	-0.320631	0.0405105	-0.337631	0.248084	-0.181749	0.284367	-0.36205	0.270377	0.08363	-0.0526745	-0.133632	0.441041	
0.698817	2.01111	0	0	0.0223545	0.964706	0.0364042	0.997369	0.0423122	0.876339	-0.196547	0.341019	0.052927	0.546471	-0.306265	0.449921	-0.281145	0.54304	-0.420882	0.705736	-0.174189	0.0406055	0.139071	0.560081	-0.32536	0.0538738	-0.3458	0.253421	-0.180692	0.299127	-0.360039	0.291005	0.09112	-0.0575688	-0.129586	0.453983	
0.692419	2.00806	0	0	0.019197	0.956083	0.026811	0.986064	0.043926	0.85918	-0.199312	0.325031	0.062752	0.541751	-0.299454	0.44547	-0.273174	0.542924	-0.400419	0.700743	-0.17799	0.051349	0.141701	0.552648	-0.330088	0.067237	-0.353968	0.258758	-0.179635	0.313887	-0.358027	0.311633	0.09861	-0.062463	-0.125539	0.466925	
0.680241	2.00806	0	0	0.0320782	0.954788	0.0294678	0.991352	0.0476255	0.848725	-0.193836	0.321453	0.0702405	0.543662	-0.291199	0.451776	-0.261196	0.542744	-0.390943	0.705738	-0.171587	0.053366	0.128044	0.541609	-0.325426	0.0724205	-0.351788	0.252597	-0.177328	0.316248	-0.350961	0.318013	0.106107	-0.0673615	-0.124103	0.462866	
0.667973	2.01568	0	0	0.0449595	0.953493	0.0321245	0.99664	0.051325	0.83827	-0.18836	0.317875	0.077729	0.545574	-0.282944	0.458082	-0.249219	0.542565	-0.381468	0.710732	-0.165184	0.055383	0.114388	0.53057	-0.320763	0.077604	-0.349608	0.246436	-0.175021	0.318609	-0.343894	0.324394	0.113603	-0.07226	-0.122667	0.458808	
0.660414	2.00958	0	0	0.0578407	0.952199	0.0347812	1.00193	0.0550245	0.827814	-0.182885	0.314296	0.0852175	0.547486	-0.27469	0.464388	-0.237241	0.542385	-0.371992	0.715727	-0.15878	0.0574	0.100731	0.51953	-0.316101	0.0827875	-0.347428	0.240275	-0.172715	0.320969	-0.336828	0.330774	0.1211	-0.0771585	-0.121231	0.45475	
0.657611	2.00958	0	0	0.070722	0.950904	0.037438	1.00721	0.058724	0.817359	-0.177409	0.310718	0.092706	0.549397	-0.266435	0.470694	-0.225264	0.542206	-0.362516	0.720722	-0.152377	0.059417	0.087074	0.508491	-0.311439	0.087971	-0.345248	0.234114	-0.170408	0.32333	-0.329761	0.337154	0.128597	-0.082057	-0.119795	0.450691	
0.65803	2.00958	0	0	0.0804525	0.940984	0.042286	0.993514	0.0590862	0.803746	-0.178829	0.290944	0.100989	0.549093	-0.26608	0.454867	-0.214917	0.535445	-0.351464	0.710702	-0.146793	0.0537005	0.0817543	0.486386	-0.307211	0.0852082	-0.344703	0.214844	-0.1768	0.323638	-0.328744	0.325492	0.1211	-0.0771585	-0.125278	0.441808	
0.660137	2.00806	0	0	0.090183	0.931064	0.047134	0.979814	0.0594485	0.790134	-0.180249	0.271169	0.109271	0.548789	-0.265725	0.439039	-0.20457	0.528685	-0.340413	0.700682	-0.141209	0.047984	0.0764345	0.46428	-0.302983	0.0824455	-0.344158	0.195574	-0.183192	0.323947	-0.327727	0.313829	0.113603	-0.07226	-0.130761	0.432924	
0.662397	2.01111	0	0	0.0999135	0.921144	0.051982	0.966113	0.0598107	0.776521	-0.181669	0.251394	0.117554	0.548484	-0.265369	0.423212	-0.194223	0.521924	-0.329361	0.690663	-0.135624	0.0422675	0.0711148	0.442175	-0.298755	0.0796827	-0.343613	0.176304	-0.189583	0.324256	-0.32671	0.302167	0.106107	-0.0673615	-0.136243	0.42404	
0.663349	2.01111	0	0	0.109644	0.911224	0.05683	0.952412	0.060173	0.762909	-0.183089	0.23162	0.125837	0.54818	-0.265014	0.407384	-0.183876	0.515163	-0.318309	0.680643	-0.13004	0.036551	0.065795	0.420069	-0.294527	0.07692	-0.343068	0.157034	-0.195975	0.324564	-0.325693	0.290505	0.09861	-0.062463	-0.141726	0.415157	
0.662637	2.00653	0	0	0.119381	0.901301	0.0573925	0.938026	0.0580705	0.75627	-0.188591	0.223413	0.1357	0.543439	-0.263222	0.40232	-0.170681	0.511644	-0.315735	0.673368	-0.124453	0.0308338	0.0635452	0.401708	-0.294527	0.07692	-0.344708	0.143954	-0.196501	0.317178	-0.324682	0.278865	0.0948643	-0.0600152	-0.147205	0.406293	
0.660753	2.00958	0	0	0.129118	0.891379	0.057955	0.923639	0.055968	0.74963	-0.194094	0.215207	0.145562	0.538698	-0.26143	0.397256	-0.157486	0.508124	-0.313161	0.666092	-0.118867	0.0251165	0.0612955	0.383347	-0.294527	0.07692	-0.346347	0.130874	-0.197026	0.309792	-0.323672	0.267224	0.0911185	-0.0575675	-0.152683	0.397429	
0.658214	2.01111	0	0	0.138856	0.881456	0.0585175	0.909253	0.0538655	0.742991	-0.199596	0.207001	0.155425	0.533956	-0.259638	0.392192	-0.14429	0.504605	-0.310586	0.658817	-0.11328	0.0193992	0.0590458	0.364986	-0.294527	0.07692	-0.347986	0.117793	-0.197551	0.302406	-0.322661	0.255584	0.0873727	-0.0551197	-0.158162	0.388565	
0.655533	2.00806	0	0	0.148593	0.871533	0.05908	0.894866	0.051763	0.736352	-0.205098	0.198794	0.165288	0.529215	-0.257846	0.387128	-0.131095	0.501085	-0.308012	0.651542	-0.107694	0.013682	0.056796	0.346625	-0.294527	0.07692	-0.349626	0.104713	-0.198077	0.29502	-0.32165	0.243943	0.083627	-0.052672	-0.163641	0.379701	
0.653223	2.00806	0	0	0.140494	0.876825	0.0574682	0.899421	0.0496605	0.729722	-0.203741	0.19496	0.17281	0.531118	-0.243088	0.404784	-0.126596	0.510919	-0.303126	0.648349	-0.10496	0.01603	0.050638	0.339342	-0.286571	0.082023	-0.343643	0.105518	-0.192577	0.297222	-0.317607	0.241302	0.0948695	-0.0600182	-0.155298	0.380468	
0.651559	2.01111	0	0	0.132395	0.882116	0.0558565	0.903976	0.047558	0.723093	-0.202385	0.191127	0.180332	0.533021	-0.22833	0.42244	-0.122096	0.520752	-0.29824	0.645156	-0.102225	0.018378	0.04448	0.33206	-0.278616	0.087126	-0.33766	0.106322	-0.187077	0.299424	-0.313565	0.23866	0.106112	-0.0673645	-0.146954	0.381236	
0.650488	2.01263	0	0	0.124297	0.887408	0.0542448	0.908532	0.0454555	0.716463	-0.201028	0.187293	0.187854	0.534924	-0.213572	0.440096	-0.117597	0.530586	-0.293354	0.641964	-0.0994913	0.020726	0.038322	0.324777	-0.270661	0.092229	-0.331677	0.107126	-0.181576	0.301627	-0.309522	0.236018	0.117355	-0.0747108	-0.13861	0.382003	
0.649934	2.00653	0	0	0.116198	0.8927	0.052633	0.913087	0.043353	0.709833	-0.199672	0.183459	0.195376	0.536827	-0.198814	0.457752	-0.113098	0.54042	-0.288468	0.638771	-0.096757	0.023074	0.032164	0.317494	-0.262705	0.097332	-0.325694	0.107931	-0.176076	0.303829	-0.305479	0.233377	0.128597	-0.082057	-0.130267	0.38277	
0.649818	2.01111	0	0	0.125935	0.88278	0.0558557	0.903979	0.0424755	0.69975	-0.196961	0.175797	0.204479	0.534291	-0.199172	0.473635	-0.0998617	0.536887	-0.28461	0.627869	-0.0959262	0.0308083	0.0347627	0.31015	-0.262267	0.105298	-0.330037	0.120207	-0.169152	0.310912	-0.307499	0.239087	0.142854	-0.0897295	-0.128957	0.391253	
0.650063	2.00958	0	0	0.135671	0.87286	0.0590785	0.894871	0.041598	0.689666	-0.194249	0.168134	0.213583	0.531754	-0.19953	0.489517	-0.0866255	0.533354	-0.280753	0.616967	-0.0950955	0.0385425	0.0373615	0.302806	-0.261828	0.113263	-0.334381	0.132483	-0.162227	0.317995	-0.30952	0.244797	0.15711	-0.097402	-0.127646	0.399736	
0.650568	2.00806	0	0	0.145407	0.862939	0.0623013	0.885762	0.0407205	0.679582	-0.191538	0.160471	0.222686	0.529218	-0.199888	0.5054	-0.0733893	0.529822	-0.276896	0.606065	-0.0942648	0.0462768	0.0399603	0.295462	-0.261389	0.121229	-0.338724	0.144758	-0.155303	0.325077	-0.31154	0.250507	0.171367	-0.105075	-0.126336	0.408219	
0.651179	2.00958	0	0	0.155144	0.853019	0.065524	0.876654	0.039843	0.669499	-0.188827	0.152809	0.231789	0.526681	-0.200246	0.521282	-0.060153	0.526289	-0.273038	0.595163	-0.093434	0.054011	0.042559	0.288118	-0.260951	0.129194	-0.343068	0.157034	-0.148378	0.33216	-0.313561	0.256217	0.185624	-0.112747	-0.125026	0.416702	
0.651733	2.01568	0	0	0.169727	0.847049	0.0687435	0.867555	0.0468505	0.662258	-0.176488	0.153585	0.239333	0.52858	-0.188706	0.533353	-0.057306	0.529548	-0.268149	0.591969	-0.0878388	0.0482848	0.0407778	0.280821	-0.257663	0.12911	-0.337082	0.157846	-0.15336	0.337352	-0.314572	0.259073	0.189382	-0.115202	-0.12646	0.420755	
0.652066	2.01263	0	0	0.184309	0.841079	0.071963	0.858456	0.053858	0.655018	-0.16415	0.154361	0.246877	0.530478	-0.177167	0.545424	-0.054459	0.532808	-0.263261	0.588774	-0.0822435	0.0425585	0.0389965	0.273525	-0.254375	0.129026	-0.331095	0.158658	-0.158342	0.342544	-0.315582	0.26193	0.193139	-0.117657	-0.127894	0.424808	
0.652015	2.01568	0	0	0.198891	0.835108	0.0751825	0.849358	0.0608655	0.647778	-0.151811	0.155136	0.254421	0.532377	-0.165627	0.557494	-0.051612	0.536068	-0.258372	0.58558	-0.0766483	0.0368323	0.0372152	0.266228	-0.251086	0.128942	-0.325109	0.15947	-0.163324	0.347736	-0.316593	0.264787	0.196897	-0.120113	-0.129329	0.428861	
0.651473	2.01263	0	0	0.213474	0.829138	0.078402	0.840259	0.067873	0.640537	-0.139472	0.155912	0.261965	0.534276	-0.154087	0.569565	-0.048765	0.539327	-0.253483	0.582385	-0.071053	0.031106	0.035434	0.258931	-0.247798	0.128858	-0.319123	0.160282	-0.168306	0.352928	-0.317604	0.267643	0.200654	-0.122568	-0.130763	0.432914	
0.650586	2.01568	0	0	0.216677	0.837731	0.0810722	0.84551	0.0666478	0.643999	-0.128421	0.172315	0.272302	0.536067	-0.13783	0.598333	-0.036674	0.539114	-0.244983	0.579623	-0.071053	0.031106	0.036731	0.255266	-0.249699	0.134232	-0.315307	0.167246	-0.169198	0.355448	-0.316593	0.273575	0.208174	-0.127481	-0.132198	0.436969	
0.649576	2.00958	0	0	0.219881	0.846324	0.0837425	0.85076	0.0654225	0.647461	-0.117369	0.188718	0.282639	0.537857	-0.121574	0.627101	-0.024583	0.538901	-0.236482	0.576862	-0.071053	0.031106	0.038028	0.2516	-0.251601	0.139605	-0.311492	0.17421	-0.17009	0.357967	-0.315583	0.279507	0.215693	-0.132395	-0.133632	0.441024	
0.648663	2.01568	0	0	0.223084	0.854916	0.0864127	0.856011	0.0641972	0.650923	-0.106318	0.205121	0.292975	0.539647	-0.105318	0.65587	-0.012492	0.538687	-0.227982	0.5741	-0.071053	0.031106	0.039325	0.247935	-0.253502	0.144979	-0.307677	0.181173	-0.170981	0.360486	-0.314573	0.285439	0.223213	-0.137308	-0.135067	0.445078	
0.648069	2.01568	0	0	0.226288	0.863509	0.089083	0.861261	0.062972	0.654385	-0.095266	0.221524	0.303312	0.541438	-0.089061	0.684638	-0.000401	0.538474	-0.219481	0.571338	-0.071053	0.031106	0.040622	0.244269	-0.255403	0.150352	-0.303861	0.188137	-0.171873	0.363006	-0.313562	0.291371	0.230733	-0.142222	-0.136502	0.449133	
0.647985	2.01568	0	0	0.223005	0.872787	0.0933657	0.861963	0.0617465	0.657849	-0.0951933	0.245182	0.309304	0.547791	-0.0727705	0.713611	0.0117145	0.538253	-0.209928	0.576278	-0.0692673	0.0361518	0.0424047	0.251561	-0.257826	0.166413	-0.298409	0.208275	-0.167258	0.367744	-0.307494	0.300609	0.242025	-0.1496	-0.129582	0.453972	
0.648366	2.01721	0	0	0.219722	0.882066	0.0976485	0.862664	0.060521	0.661312	-0.0951205	0.268841	0.315296	0.554144	-0.05648	0.742585	0.02383	0.538032	-0.200374	0.581217	-0.0674815	0.0411975	0.0441875	0.258854	-0.260249	0.182475	-0.292957	0.228412	-0.162642	0.372482	-0.301426	0.309847	0.253317	-0.156978	-0.122663	0.458811	
0.649052	2.01568	0	0	0.216439	0.891344	0.101931	0.863366	0.0592955	0.664775	-0.0950478	0.2925	0.321288	0.560496	-0.0401895	0.771559	0.0359455	0.537811	-0.190821	0.586157	-0.0656957	0.0462432	0.0459702	0.266146	-0.262672	0.198536	-0.287506	0.24855	-0.158027	0.37722	-0.295357	0.319086	0.264608	-0.164357	-0.115743	0.463649	
0.649881	2.01874	0	0	0.213156	0.900623	0.106214	0.864068	0.05807	0.668239	-0.094975	0.316158	0.32728	0.566849	-0.023899	0.800532	0.048061	0.53759	-0.181267	0.591097	-0.06391	0.051289	0.047753	0.273438	-0.265095	0.214597	-0.282054	0.268687	-0.153412	0.381958	-0.289289	0.328324	0.2759	-0.171735	-0.108823	0.468488	
0.650691	2.01263	0	0	0.214798	0.895983	0.0976518	0.862664	0.0617453	0.657852	-0.0935795	0.324157	0.333278	0.573213	-0.0210415	0.822546	0.0485577	0.54754	-0.17765	0.591531	-0.0630787	0.0590377	0.0438557	0.284452	-0.26424	0.230623	-0.282616	0.288073	-0.147376	0.391604	-0.283223	0.346423	0.287207	-0.179123	-0.106214	0.485542	
0.651329	2.01416	0	0	0.21644	0.891342	0.0890895	0.86126	0.0654205	0.647466	-0.092184	0.332155	0.339276	0.579577	-0.018184	0.84456	0.0490545	0.557489	-0.174032	0.591966	-0.0622475	0.0667865	0.0399585	0.295466	-0.263386	0.246648	-0.283178	0.307458	-0.141341	0.40125	-0.277157	0.364521	0.298514	-0.186511	-0.103606	0.502597	
0.651792	2.01568	0	0	0.218081	0.886702	0.0805272	0.859856	0.0690957	0.63708	-0.0907885	0.340154	0.345275	0.58594	-0.0153265	0.866573	0.0495513	0.567439	-0.170414	0.5924	-0.0614162	0.0745352	0.0360612	0.30648	-0.262531	0.262674	-0.283739	0.326844	-0.135305	0.410896	-0.27109	0.38262	0.309821	-0.1939	-0.100997	0.519652	
0.6522	2.02026	0	0	0.219723	0.882062	0.071965	0.858452	0.072771	0.626693	-0.089393	0.348153	0.351273	0.592304	-0.012469	0.888587	0.050048	0.577389	-0.166797	0.592835	-0.060585	0.082284	0.032164	0.317494	-0.261676	0.278699	-0.284301	0.34623	-0.12927	0.420542	-0.265024	0.400718	0.321128	-0.201288	-0.098388	0.536706	
0.652682	2.01874	0	0	0.231061	0.885362	0.0778548	0.854603	0.0706593	0.620097	-0.0783575	0.352841	0.360438	0.589746	-0.00268325	0.906157	0.0564595	0.57063	-0.166797	0.592835	-0.06154	0.0849825	0.0290875	0.313858	-0.266456	0.292208	-0.290882	0.364829	-0.13285	0.430659	-0.260985	0.41578	0.321128	-0.201288	-0.099974	0.553414	
0.653365	2.02026	0	0	0.242399	0.888661	0.0837445	0.850755	0.0685475	0.613501	-0.067322	0.35753	0.369604	0.587189	0.0071025	0.923728	0.062871	0.56387	-0.166797	0.592835	-0.062495	0.087681	0.026011	0.310223	-0.271236	0.305716	-0.297463	0.383428	-0.136429	0.440775	-0.256947	0.430843	0.321128	-0.201288	-0.10156	0.570122	
0.654373	2.01721	0	0	0.253738	0.891961	0.0896342	0.846907	0.0664358	0.606905	-0.0562865	0.362218	0.378769	0.584631	0.0168883	0.941298	0.0692825	0.557111	-0.166797	0.592835	-0.06345	0.0903795	0.0229345	0.306587	-0.276015	0.319225	-0.304044	0.402027	-0.140009	0.450892	-0.252908	0.445905	0.321128	-0.201288	-0.103146	0.58683	
0.655704	2.02026	0	0	0.265076	0.895261	0.095524	0.843058	0.064324	0.600309	-0.045251	0.366906	0.387935	0.582073	0.026674	0.958868	0.075694	0.550351	-0.166797	0.592835	-0.064405	0.093078	0.019858	0.302951	-0.280795	0.332734	-0.310625	0.420626	-0.143589	0.461009	-0.24887	0.460967	0.321128	-0.201288	-0.104732	0.603538	
0.657153	2.02026	0	0	0.27479	0.903217	0.0998075	0.843757	0.0597683	0.600629	-0.0493468	0.390456	0.389939	0.584196	0.044862	0.983088	0.075694	0.550351	-0.163177	0.593269	-0.0700075	0.098814	0.016783	0.299319	-0.284624	0.343556	-0.304622	0.421477	-0.143589	0.461009	-0.248886	0.469845	0.3249	-0.203753	-0.104732	0.603538	
0.658501	2.01721	0	0	0.284504	0.911173	0.104091	0.844457	0.0552125	0.60095	-0.0534425	0.414005	0.391944	0.586319	0.06305	1.00731	0.075694	0.550351	-0.159557	0.593703	-0.07561	0.10455	0.013708	0.295687	-0.288454	0.354378	-0.298619	0.422327	-0.143589	0.461009	-0.248901	0.478722	0.328673	-0.206217	-0.104732	0.603538	
0.659526	2.01874	0	0	0.294218	0.91913	0.108374	0.845157	0.0506568	0.601271	-0.0575382	0.437555	0.393948	0.588442	0.081238	1.03153	0.075694	0.550351	-0.155937	0.594138	-0.0812125	0.110286	0.010633	0.292054	-0.292283	0.365199	-0.292617	0.423177	-0.143589	0.461009	-0.248917	0.4876	0.332445	-0.208682	-0.104732	0.603538	
0.660007	2.02331	0	0	0.303932	0.927086	0.112658	0.845856	0.046101	0.601591	-0.061634	0.461104	0.395953	0.590565	0.099426	1.05575	0.075694	0.550351	-0.152317	0.594572	-0.086815	0.116022	0.007558	0.288422	-0.296112	0.376021	-0.286614	0.424028	-0.143589	0.461009	-0.248933	0.496478	0.336217	-0.211147	-0.104732	0.603538	
0.65981	2.01721	0	0	0.31036	0.944398	0.112107	0.860228	0.046101	0.601591	-0.0629963	0.488924	0.397168	0.594924	0.11208	1.09591	0.0785597	0.55362	-0.146361	0.599085	-0.0850345	0.121088	-0.00117925	0.288494	-0.297617	0.389503	-0.295416	0.448905	-0.14538	0.466072	-0.244883	0.50271	0.343766	-0.21608	-0.101991	0.608026	
0.659096	2.02331	0	0	0.316787	0.961709	0.111556	0.8746	0.046101	0.601591	-0.0643585	0.516745	0.398382	0.599283	0.124734	1.13608	0.0814255	0.556888	-0.140404	0.603598	-0.083254	0.126154	-0.0099165	0.288566	-0.299123	0.402985	-0.304219	0.473781	-0.147172	0.471135	-0.240832	0.508943	0.351316	-0.221013	-0.0992505	0.612514	
0.658095	2.02026	0	0	0.323215	0.97902	0.111004	0.888972	0.046101	0.601591	-0.0657208	0.544565	0.399597	0.603642	0.137389	1.17625	0.0842912	0.560156	-0.134447	0.608112	-0.0814735	0.13122	-0.0186538	0.288638	-0.300629	0.416467	-0.313021	0.498658	-0.148963	0.476197	-0.236781	0.515176	0.358866	-0.225946	-0.0965098	0.617002	
0.657033	2.02026	0	0	0.329643	0.996332	0.110453	0.903344	0.046101	0.601591	-0.067083	0.572386	0.400812	0.608001	0.150043	1.21642	0.087157	0.563425	-0.128491	0.612625	-0.079693	0.136286	-0.027391	0.28871	-0.302134	0.429949	-0.321823	0.523534	-0.150754	0.48126	-0.232731	0.521408	0.366415	-0.230879	-0.093769	0.62149	
0.656139	2.02179	0	0	0.331295	0.991663	0.0976097	0.901225	0.0448783	0.605047	-0.0670857	0.584391	0.396435	0.612579	0.15613	1.24492	0.0795572	0.573535	-0.124865	0.613059	-0.0825628	0.144396	-0.0243215	0.292341	-0.307897	0.446236	-0.326233	0.535998	-0.150239	0.488715	-0.230726	0.533438	0.369436	-0.231209	-0.089733	0.634575	
0.655618	2.01721	0	0	0.332948	0.986993	0.0847665	0.899105	0.0436555	0.608502	-0.0670885	0.596396	0.392058	0.617158	0.162217	1.27343	0.0719575	0.583646	-0.121238	0.613494	-0.0854325	0.152506	-0.021252	0.295972	-0.313659	0.462523	-0.330643	0.548462	-0.149724	0.496169	-0.228721	0.545468	0.372456	-0.23154	-0.085697	0.647659	
0.655515	2.01874	0	0	0.3346	0.982324	0.0719232	0.896985	0.0424327	0.611957	-0.0670913	0.608401	0.387681	0.621736	0.168304	1.30193	0.0643578	0.593757	-0.117612	0.613928	-0.0883022	0.160617	-0.0181825	0.299604	-0.319422	0.478809	-0.335054	0.560926	-0.14921	0.503624	-0.226716	0.557499	0.375477	-0.23187	-0.081661	0.660743	
0.655803	2.02179	0	0	0.336252	0.977654	0.05908	0.894866	0.04121	0.615413	-0.067094	0.620406	0.383304	0.626314	0.174391	1.33043	0.056758	0.603867	-0.113986	0.614363	-0.091172	0.168727	-0.015113	0.303235	-0.325185	0.495096	-0.339464	0.57339	-0.148695	0.511078	-0.224711	0.569529	0.378498	-0.2322	-0.077625	0.673828	
0.656453	2.02179	0	0	0.331386	0.973659	0.058025	0.88506	0.04121	0.615413	-0.0671028	0.632436	0.381301	0.624186	0.170643	1.34103	0.0579423	0.600521	-0.120194	0.621225	-0.0967767	0.174469	-0.0251397	0.306968	-0.332317	0.506026	-0.349871	0.584986	-0.150489	0.51615	-0.22166	0.569761	0.378498	-0.2322	-0.080524	0.682021	
0.657438	2.02026	0	0	0.32652	0.969664	0.05697	0.875254	0.04121	0.615413	-0.0671115	0.644466	0.379298	0.622059	0.166894	1.35162	0.0591265	0.597174	-0.126402	0.628086	-0.102382	0.18021	-0.0351665	0.3107	-0.33945	0.516956	-0.360278	0.596583	-0.152284	0.521221	-0.218609	0.569994	0.378498	-0.2322	-0.083423	0.690214	
0.658725	2.02026	0	0	0.321654	0.96567	0.055915	0.865448	0.04121	0.615413	-0.0671202	0.656496	0.377295	0.619932	0.163145	1.36222	0.0603108	0.593828	-0.13261	0.634948	-0.107986	0.185952	-0.0451932	0.314433	-0.346583	0.527885	-0.370685	0.608179	-0.154078	0.526292	-0.215558	0.570226	0.378498	-0.2322	-0.086322	0.698408	
0.660219	2.01874	0	0	0.316788	0.961675	0.05486	0.855642	0.04121	0.615413	-0.067129	0.668526	0.375292	0.617804	0.159397	1.37281	0.061495	0.590481	-0.138818	0.64181	-0.113591	0.191694	-0.05522	0.318166	-0.353715	0.538815	-0.381092	0.619775	-0.155872	0.531364	-0.212507	0.570458	0.378498	-0.2322	-0.089221	0.706601	
0.661763	2.02026	0	0	0.318438	0.957013	0.0580762	0.846552	0.04121	0.615413	-0.065757	0.676662	0.369708	0.618018	0.164545	1.37352	0.0562663	0.593897	-0.138818	0.64181	-0.117279	0.192024	-0.053923	0.314501	-0.360279	0.538924	-0.38487	0.612655	-0.162277	0.53165	-0.215537	0.561316	0.371702	-0.229403	-0.0990432	0.709869	
0.663199	2.01874	0	0	0.320087	0.95235	0.0612925	0.837462	0.04121	0.615413	-0.064385	0.684797	0.364125	0.618232	0.169693	1.37423	0.0510375	0.597314	-0.138818	0.64181	-0.120967	0.192354	-0.052626	0.310836	-0.366842	0.539033	-0.388648	0.605534	-0.168682	0.531937	-0.218566	0.552173	0.364905	-0.226606	-0.108866	0.713137	
0.66437	2.01874	0	0	0.321736	0.947688	0.0645087	0.828373	0.04121	0.615413	-0.063013	0.692932	0.358541	0.618446	0.17484	1.37495	0.0458087	0.600731	-0.138818	0.64181	-0.124654	0.192685	-0.051329	0.30717	-0.373406	0.539141	-0.392426	0.598414	-0.175087	0.532223	-0.221596	0.54303	0.358108	-0.223808	-0.118688	0.716405	
0.665118	2.02179	0	0	0.323386	0.943026	0.067725	0.819283	0.04121	0.615413	-0.061641	0.701068	0.352957	0.61866	0.179988	1.37566	0.04058	0.604147	-0.138818	0.64181	-0.128342	0.193015	-0.050032	0.303505	-0.379969	0.53925	-0.396204	0.591294	-0.181492	0.532509	-0.224626	0.533888	0.351312	-0.221011	-0.12851	0.719673	
0.665384	2.02179	0	0	0.318522	0.939041	0.0650562	0.814046	0.0387632	0.622328	-0.0575133	0.71345	0.345798	0.623338	0.192176	1.37177	0.0382113	0.610842	-0.135193	0.642247	-0.132028	0.193344	-0.0543923	0.303537	-0.385564	0.536641	-0.404388	0.596642	-0.182003	0.525052	-0.226635	0.521878	0.347538	-0.218545	-0.129795	0.711071	
0.665323	2.01874	0	0	0.313659	0.935056	0.0623875	0.808809	0.0363165	0.629242	-0.0533855	0.725833	0.338639	0.628016	0.204364	1.36789	0.0358425	0.617536	-0.131568	0.642685	-0.135713	0.193673	-0.0587525	0.30357	-0.39116	0.534031	-0.412571	0.601989	-0.182514	0.517594	-0.228644	0.509868	0.343765	-0.216079	-0.13108	0.702468	
0.665113	2.02026	0	0	0.308796	0.931071	0.0597187	0.803571	0.0338697	0.636157	-0.0492578	0.738216	0.331481	0.632693	0.216551	1.364	0.0334737	0.62423	-0.127942	0.643123	-0.139399	0.194003	-0.0631128	0.303602	-0.396756	0.531422	-0.420755	0.607336	-0.183025	0.510137	-0.230653	0.497857	0.339991	-0.213613	-0.132365	0.693866	
0.664938	2.01721	0	0	0.303932	0.927086	0.05705	0.798334	0.031423	0.643072	-0.04513	0.750598	0.324322	0.637371	0.228739	1.36012	0.031105	0.630925	-0.124317	0.64356	-0.143085	0.194332	-0.067473	0.303634	-0.402351	0.528813	-0.428939	0.612684	-0.183536	0.50268	-0.232662	0.485847	0.336217	-0.211147	-0.13365	0.685264	
0.664976	2.01874	0	0	0.287724	0.919801	0.051715	0.787879	0.0280952	0.63993	-0.0395905	0.746978	0.31796	0.639812	0.219826	1.37002	0.0299198	0.634274	-0.130526	0.650425	-0.147725	0.197364	-0.0718297	0.303665	-0.407548	0.534297	-0.443079	0.617134	-0.186735	0.502824	-0.232648	0.47697	0.328674	-0.206218	-0.13365	0.685264	
0.665364	2.02026	0	0	0.271517	0.912516	0.04638	0.777424	0.0247675	0.636789	-0.034051	0.743359	0.311597	0.642253	0.210912	1.37993	0.0287345	0.637623	-0.136735	0.65729	-0.152365	0.200396	-0.0761865	0.303697	-0.412746	0.539781	-0.457218	0.621583	-0.189934	0.502968	-0.232635	0.468093	0.321131	-0.20129	-0.13365	0.685264	
0.66598	2.01568	0	0	0.25531	0.905232	0.041045	0.76697	0.0214398	0.633648	-0.0285115	0.739739	0.305235	0.644693	0.201998	1.38983	0.0275492	0.640973	-0.142944	0.664154	-0.157005	0.203428	-0.0805433	0.303728	-0.417944	0.545265	-0.471358	0.626032	-0.193133	0.503112	-0.232621	0.459217	0.313588	-0.196361	-0.13365	0.685264	
0.66662	2.01568	0	0	0.239102	0.897947	0.03571	0.756515	0.018112	0.630506	-0.022972	0.736119	0.298872	0.647134	0.193085	1.39974	0.026364	0.644322	-0.149153	0.671019	-0.161645	0.20646	-0.0849	0.303759	-0.423141	0.550749	-0.485498	0.630482	-0.196332	0.503256	-0.232607	0.45034	0.306045	-0.191432	-0.13365	0.685264	
0.667077	2.01874	0	0	0.235899	0.889338	0.0229173	0.754437	0.0160078	0.623914	-0.0243452	0.727965	0.294095	0.645108	0.188412	1.38241	0.0223237	0.644387	-0.149153	0.671019	-0.166282	0.20949	-0.0948993	0.307478	-0.430647	0.553566	-0.499608	0.634916	-0.199529	0.503399	-0.240722	0.446787	0.303032	-0.191107	-0.140725	0.693032	
0.667146	2.02331	0	0	0.232695	0.880728	0.0101245	0.75236	0.0139035	0.617322	-0.0257185	0.71981	0.289317	0.643083	0.183738	1.36509	0.0182835	0.644452	-0.149153	0.671019	-0.17092	0.212521	-0.104899	0.311198	-0.438153	0.556382	-0.513718	0.63935	-0.202727	0.503543	-0.248838	0.443233	0.300019	-0.190781	-0.1478	0.700801	
0.666633	2.01568	0	0	0.229491	0.872119	-0.00266825	0.750282	0.0117993	0.610731	-0.0270918	0.711656	0.28454	0.641057	0.179064	1.34776	0.0142432	0.644518	-0.149153	0.671019	-0.175558	0.215551	-0.114898	0.314917	-0.445658	0.559199	-0.527828	0.643783	-0.205924	0.503687	-0.256953	0.43968	0.297007	-0.190456	-0.154874	0.70857	
0.665556	2.02179	0	0	0.226288	0.863509	-0.015461	0.748204	0.009695	0.604139	-0.028465	0.703502	0.279762	0.639031	0.174391	1.33043	0.010203	0.644583	-0.149153	0.671019	-0.180195	0.218581	-0.124897	0.318636	-0.453164	0.562015	-0.541938	0.648217	-0.209121	0.50383	-0.265068	0.436126	0.293994	-0.190131	-0.161949	0.716338	
0.664116	2.01568	0	0	0.229568	0.85424	-0.0165223	0.738476	0.0075905	0.597557	-0.0312268	0.699278	0.277769	0.636904	0.165975	1.32373	0.00616525	0.644648	-0.158978	0.677439	-0.185638	0.213828	-0.126656	0.311349	-0.457782	0.556687	-0.543484	0.634888	-0.209632	0.496386	-0.266065	0.421307	0.282697	-0.182749	-0.165959	0.703243	
0.662518	2.01568	0	0	0.232847	0.844971	-0.0175835	0.728749	0.005486	0.590975	-0.0339885	0.695055	0.275776	0.634777	0.157559	1.31703	0.0021275	0.644712	-0.168803	0.683859	-0.191081	0.209075	-0.128414	0.304061	-0.462399	0.55136	-0.545029	0.62156	-0.210143	0.488943	-0.267062	0.406488	0.2714	-0.175368	-0.169969	0.690149	
0.660969	2.01874	0	0	0.236127	0.835703	-0.0186448	0.719021	0.0033815	0.584393	-0.0367502	0.690832	0.273784	0.632649	0.149144	1.31034	-0.00191025	0.644776	-0.178629	0.690278	-0.196524	0.204322	-0.130173	0.296774	-0.467017	0.546032	-0.546575	0.608231	-0.210655	0.481499	-0.26806	0.391668	0.260104	-0.167986	-0.173978	0.677054	
0.659674	2.01721	0	0	0.239407	0.826434	-0.019706	0.709293	0.001277	0.577811	-0.039512	0.686608	0.271791	0.630522	0.140728	1.30364	-0.005948	0.644841	-0.188454	0.696698	-0.201967	0.199569	-0.131932	0.289487	-0.471634	0.540704	-0.54812	0.594902	-0.211166	0.474055	-0.269057	0.376849	0.248807	-0.160604	-0.177988	0.663959	
0.658738	2.01874	0	0	0.241046	0.821803	-0.019706	0.709293	0.00371625	0.570917	-0.0408987	0.690527	0.267432	0.635085	0.151477	1.28849	-0.00713275	0.648189	-0.184836	0.697142	-0.201012	0.196869	-0.136277	0.289516	-0.474901	0.540754	-0.554061	0.594011	-0.211679	0.466622	-0.269051	0.36802	0.241284	-0.155688	-0.183442	0.654976	
0.658091	2.01721	0	0	0.242684	0.817172	-0.019706	0.709293	0.0061555	0.564024	-0.0422855	0.694447	0.263074	0.639647	0.162227	1.27335	-0.0083175	0.651537	-0.181217	0.697587	-0.200056	0.194168	-0.140622	0.289546	-0.478167	0.540803	-0.560001	0.59312	-0.212193	0.459188	-0.269046	0.359192	0.233761	-0.150773	-0.188895	0.645994	
0.657644	2.01721	0	0	0.244322	0.812541	-0.019706	0.709293	0.00859475	0.55713	-0.0436723	0.698367	0.258715	0.644209	0.172977	1.2582	-0.00950225	0.654885	-0.177598	0.698032	-0.199101	0.191468	-0.144966	0.289575	-0.481434	0.540853	-0.565941	0.592228	-0.212706	0.451755	-0.269041	0.350363	0.226238	-0.145857	-0.194349	0.637011	
0.657307	2.01721	0	0	0.245961	0.80791	-0.019706	0.709293	0.011034	0.550237	-0.045059	0.702286	0.254356	0.648772	0.183726	1.24306	-0.010687	0.658233	-0.17398	0.698476	-0.198146	0.188768	-0.149311	0.289604	-0.4847	0.540903	-0.571882	0.591337	-0.213219	0.444321	-0.269035	0.341535	0.218715	-0.140941	-0.199802	0.628029	
0.656992	2.01721	0	0	0.247599	0.803282	-0.0239623	0.708604	0.0101437	0.540231	-0.0505765	0.693846	0.254356	0.648772	0.171574	1.24694	-0.011872	0.661582	-0.175273	0.702131	-0.198146	0.188768	-0.156238	0.29694	-0.477205	0.538091	-0.571882	0.591337	-0.211433	0.439273	-0.26802	0.338668	0.214956	-0.138485	-0.202527	0.623545	
0.656622	2.01874	0	0	0.249237	0.798654	-0.0282185	0.707915	0.0092535	0.530226	-0.056094	0.685406	0.254356	0.648772	0.159422	1.25082	-0.013057	0.664931	-0.176567	0.705785	-0.198146	0.188768	-0.163166	0.304276	-0.469711	0.535278	-0.571882	0.591337	-0.209647	0.434224	-0.267006	0.3358	0.211197	-0.136029	-0.205253	0.619062	
0.656172	2.01568	0	0	0.250874	0.794025	-0.0324747	0.707226	0.00836325	0.52022	-0.0616115	0.676966	0.254356	0.648772	0.147271	1.25471	-0.014242	0.66828	-0.17786	0.70944	-0.198146	0.188768	-0.170093	0.311613	-0.462216	0.532466	-0.571882	0.591337	-0.20786	0.429175	-0.265991	0.332932	0.207438	-0.133573	-0.207978	0.614579	
0.655625	2.01874	0	0	0.252512	0.789397	-0.036731	0.706537	0.007473	0.510215	-0.067129	0.668526	0.254356	0.648772	0.135119	1.25859	-0.015427	0.671629	-0.179153	0.713095	-0.198146	0.188768	-0.17702	0.318949	-0.454721	0.529653	-0.571882	0.591337	-0.206074	0.424127	-0.264976	0.330065	0.203679	-0.131117	-0.210703	0.610095	
0.654966	2.01568	0	0	0.249298	0.780833	-0.0362	0.692327	0.006579	0.500228	-0.0726355	0.648097	0.2476	0.644618	0.132302	1.23614	-0.0159085	0.66165	-0.180186	0.705344	-0.199911	0.183698	-0.18265	0.322628	-0.45799	0.529704	-0.580012	0.596649	-0.206074	0.424127	-0.265991	0.332932	0.196166	-0.126208	-0.210703	0.610095	
0.654181	2.01568	0	0	0.246085	0.772269	-0.035669	0.678117	0.005685	0.490241	-0.078142	0.627668	0.240843	0.640465	0.129486	1.21369	-0.01639	0.651671	-0.181219	0.697593	-0.201677	0.178628	-0.188281	0.326307	-0.461259	0.529756	-0.588141	0.601961	-0.206074	0.424127	-0.267006	0.3358	0.188653	-0.121299	-0.210703	0.610095	
0.65326	2.01721	0	0	0.242871	0.763704	-0.035138	0.663906	0.004791	0.480255	-0.0836485	0.607238	0.234087	0.636312	0.126669	1.19125	-0.0168715	0.641693	-0.182252	0.689842	-0.203442	0.173558	-0.193912	0.329986	-0.464527	0.529807	-0.596271	0.607273	-0.206074	0.424127	-0.26802	0.338668	0.181139	-0.116389	-0.210703	0.610095	
0.652246	2.01568	0	0	0.239657	0.75514	-0.034607	0.649696	0.003897	0.470268	-0.089155	0.586809	0.22733	0.632158	0.123853	1.1688	-0.017353	0.631714	-0.183285	0.682091	-0.205208	0.168488	-0.199542	0.333665	-0.467796	0.529858	-0.6044	0.612585	-0.206074	0.424127	-0.269035	0.341535	0.173626	-0.11148	-0.210703	0.610095	
0.651206	2.01568	0	0	0.239706	0.737372	-0.0383365	0.634843	0.007541	0.459969	-0.0836402	0.571223	0.22493	0.623458	0.117746	1.14053	-0.0230513	0.625159	-0.185611	0.677999	-0.20602	0.160729	-0.198249	0.33001	-0.467229	0.519074	-0.608133	0.605488	-0.206591	0.416709	-0.273085	0.335367	0.169872	-0.109027	-0.213275	0.593017	
0.650207	2.01416	0	0	0.239756	0.719603	-0.042066	0.61999	0.011185	0.44967	-0.0781255	0.555638	0.22253	0.614758	0.11164	1.11227	-0.0287495	0.618605	-0.187936	0.673907	-0.206833	0.152971	-0.196956	0.326356	-0.466662	0.50829	-0.611865	0.598391	-0.207109	0.409291	-0.277135	0.3292	0.166118	-0.106574	-0.215847	0.575938	
0.649313	2.01568	0	0	0.239805	0.701834	-0.0457955	0.605137	0.014829	0.439372	-0.0726108	0.540052	0.22013	0.606059	0.105533	1.08401	-0.0344477	0.61205	-0.190262	0.669815	-0.207645	0.145212	-0.195662	0.322701	-0.466095	0.497505	-0.615598	0.591295	-0.207626	0.401874	-0.281184	0.323033	0.162364	-0.104121	-0.218419	0.558859	
0.648588	2.01416	0	0	0.239854	0.684066	-0.049525	0.590284	0.018473	0.429073	-0.067096	0.524466	0.21773	0.597359	0.099426	1.05575	-0.040146	0.605495	-0.192587	0.665723	-0.208457	0.137453	-0.194369	0.319046	-0.465528	0.486721	-0.619331	0.584198	-0.208143	0.394456	-0.285234	0.316865	0.15861	-0.101668	-0.220991	0.541781	
0.64804	2.01263	0	0	0.231791	0.671643	-0.0490107	0.576148	0.022113	0.418787	-0.0698567	0.520287	0.211771	0.591	0.101696	1.03418	-0.0394525	0.592216	-0.193623	0.657991	-0.208319	0.127015	-0.188738	0.315367	-0.468232	0.476012	-0.614948	0.571812	-0.204577	0.384379	-0.286245	0.310923	0.154858	-0.099216	-0.220846	0.529208	
0.647635	2.01263	0	0	0.223728	0.659221	-0.0484965	0.562011	0.025753	0.4085	-0.0726175	0.516107	0.205812	0.584642	0.103967	1.01262	-0.038759	0.578936	-0.194658	0.650258	-0.208182	0.116578	-0.183108	0.311688	-0.470936	0.465303	-0.610565	0.559425	-0.201012	0.374302	-0.287257	0.304982	0.151105	-0.096764	-0.2207	0.516636	
0.647337	2.01263	0	0	0.215666	0.646799	-0.0479823	0.547875	0.029393	0.398213	-0.0753783	0.511928	0.199853	0.578283	0.106237	0.991053	-0.0380655	0.565657	-0.195693	0.642526	-0.208045	0.10614	-0.177478	0.308009	-0.47364	0.454594	-0.606183	0.547038	-0.197446	0.364226	-0.288268	0.29904	0.147352	-0.094312	-0.220554	0.504063	
0.647111	2.01721	0	0	0.207603	0.634376	-0.047468	0.533738	0.033033	0.387927	-0.078139	0.507749	0.193894	0.571924	0.108507	0.969488	-0.037372	0.552378	-0.196729	0.634794	-0.207907	0.095702	-0.171847	0.30433	-0.476344	0.443885	-0.6018	0.534652	-0.193881	0.354149	-0.289279	0.293098	0.1436	-0.09186	-0.220409	0.491491	
0.646922	2.00958	0	0	0.193096	0.622687	-0.0602015	0.531726	0.0309132	0.381413	-0.0781498	0.495805	0.191495	0.563255	0.101954	0.957747	-0.0454235	0.552515	-0.203954	0.633915	-0.206004	0.0903237	-0.17314	0.307985	-0.471166	0.438425	-0.599611	0.528465	-0.189794	0.351479	-0.282189	0.290666	0.1436	-0.09186	-0.223135	0.487042	
0.646745	2.01874	0	0	0.178589	0.610997	-0.072935	0.529714	0.0287935	0.374899	-0.0781605	0.483861	0.189095	0.554585	0.0954005	0.946006	-0.053475	0.552652	-0.211179	0.633036	-0.204101	0.0849455	-0.174434	0.311639	-0.465988	0.432964	-0.597422	0.522279	-0.185707	0.348808	-0.275099	0.288233	0.1436	-0.09186	-0.225861	0.482593	
0.646569	2.01721	0	0	0.164081	0.599307	-0.0856685	0.527702	0.0266737	0.368384	-0.0781712	0.471918	0.186695	0.545916	0.0888473	0.934266	-0.0615265	0.55279	-0.218405	0.632157	-0.202198	0.0795673	-0.175727	0.315294	-0.46081	0.427504	-0.595232	0.516092	-0.18162	0.346137	-0.26801	0.285801	0.1436	-0.09186	-0.228588	0.478144	
0.646383	2.01263	0	0	0.149574	0.587618	-0.098402	0.52569	0.024554	0.36187	-0.078182	0.459974	0.184296	0.537247	0.082294	0.922525	-0.069578	0.552927	-0.22563	0.631278	-0.200295	0.074189	-0.17702	0.318949	-0.455632	0.422044	-0.593043	0.509905	-0.177533	0.343467	-0.26092	0.283368	0.1436	-0.09186	-0.231314	0.473695	
0.646175	2.01721	0	0	0.154434	0.573882	-0.0947343	0.502676	0.0260615	0.345114	-0.0837217	0.439754	0.179128	0.528699	0.074309	0.899792	-0.0729112	0.539757	-0.238767	0.625882	-0.204918	0.0772095	-0.184399	0.315345	-0.457943	0.419401	-0.598969	0.509024	-0.174335	0.343313	-0.261933	0.286231	0.147352	-0.094312	-0.228588	0.478144	
0.645935	2.01568	0	0	0.159295	0.560146	-0.0910665	0.479661	0.027569	0.328357	-0.0892615	0.419535	0.173961	0.520151	0.066324	0.87706	-0.0762445	0.526586	-0.251904	0.620486	-0.20954	0.08023	-0.191779	0.31174	-0.460253	0.416759	-0.604896	0.508144	-0.171137	0.34316	-0.262946	0.289094	0.151105	-0.096764	-0.225861	0.482593	
0.645638	2.01416	0	0	0.164155	0.546411	-0.0873987	0.456647	0.0290765	0.311601	-0.0948013	0.399315	0.168793	0.511604	0.058339	0.854327	-0.0795778	0.513416	-0.265042	0.615089	-0.214163	0.0832505	-0.199158	0.308136	-0.462564	0.414116	-0.610823	0.507264	-0.167939	0.343006	-0.263959	0.291956	0.154858	-0.099216	-0.223135	0.487042	
0.645236	2.01568	0	0	0.169015	0.532675	-0.083731	0.433632	0.030584	0.294844	-0.100341	0.379095	0.163626	0.503056	0.050354	0.831594	-0.082911	0.500246	-0.278179	0.609693	-0.218785	0.086271	-0.206537	0.304532	-0.464875	0.411474	-0.616749	0.506383	-0.164741	0.342852	-0.264972	0.294819	0.15861	-0.101668	-0.220409	0.491491	
0.644675	2.01568	0	0	0.177091	0.527398	-0.0863918	0.428512	0.025129	0.285293	-0.107252	0.362819	0.165556	0.489891	0.0474678	0.809613	-0.0798833	0.480405	-0.278962	0.59068	-0.21131	0.0751892	-0.217402	0.286415	-0.461056	0.400682	-0.61612	0.486993	-0.167048	0.340488	-0.265986	0.288881	0.154858	-0.099216	-0.230159	0.494746	
0.643904	2.01568	0	0	0.185167	0.522121	-0.0890525	0.423392	0.019674	0.275743	-0.114163	0.346542	0.167486	0.476727	0.0445815	0.787632	-0.0768555	0.460564	-0.279745	0.571667	-0.203835	0.0641075	-0.228266	0.268298	-0.457237	0.389889	-0.615491	0.467602	-0.169355	0.338124	-0.267	0.282943	0.151105	-0.096764	-0.239909	0.498001	
0.642869	2.01416	0	0	0.193242	0.516844	-0.0917132	0.418271	0.014219	0.266192	-0.121073	0.330265	0.169415	0.463562	0.0416953	0.76565	-0.0738277	0.440722	-0.280528	0.552653	-0.19636	0.0530258	-0.239131	0.250181	-0.453419	0.379097	-0.614862	0.448211	-0.171663	0.335761	-0.268015	0.277005	0.147352	-0.094312	-0.249659	0.501255	
0.641551	2.01874	0	0	0.201318	0.511567	-0.094374	0.413151	0.008764	0.256641	-0.127984	0.313989	0.171345	0.450398	0.038809	0.743669	-0.0708	0.420881	-0.281311	0.53364	-0.188885	0.041944	-0.249996	0.232064	-0.4496	0.368305	-0.614233	0.428821	-0.17397	0.333397	-0.269029	0.271067	0.1436	-0.09186	-0.259409	0.50451	
0.640016	2.01263	0	0	0.206162	0.51544	-0.100188	0.41695	0.00784475	0.246768	-0.133498	0.305739	0.174471	0.441563	0.0391838	0.727558	-0.0713025	0.411023	-0.285945	0.525536	-0.186985	0.0365738	-0.259562	0.210405	-0.446739	0.36022	-0.613621	0.409494	-0.178582	0.328674	-0.272071	0.262068	0.132353	-0.0845107	-0.257835	0.487924	
0.638348	2.01416	0	0	0.211006	0.519313	-0.106002	0.420749	0.0069255	0.236894	-0.139012	0.29749	0.177598	0.432727	0.0395585	0.711448	-0.071805	0.401164	-0.290579	0.517432	-0.185084	0.0312035	-0.269128	0.188746	-0.443878	0.352134	-0.613008	0.390166	-0.183193	0.323952	-0.275113	0.253069	0.121105	-0.0771615	-0.256261	0.471337	
0.636631	2.01568	0	0	0.21585	0.523186	-0.111816	0.424548	0.00600625	0.227021	-0.144526	0.28924	0.180724	0.423891	0.0399332	0.695338	-0.0723075	0.391305	-0.295214	0.509328	-0.183184	0.0258332	-0.278695	0.167087	-0.441017	0.344048	-0.612395	0.370839	-0.187805	0.319229	-0.278155	0.244069	0.109857	-0.0698122	-0.254686	0.454751	
0.634947	2.01568	0	0	0.220694	0.527059	-0.11763	0.428347	0.005087	0.217147	-0.15004	0.28099	0.18385	0.415056	0.040308	0.679227	-0.07281	0.381447	-0.299848	0.501224	-0.181284	0.020463	-0.288261	0.145428	-0.438156	0.335963	-0.611783	0.351512	-0.192416	0.314506	-0.281197	0.23507	0.09861	-0.062463	-0.253112	0.438164	
0.633391	2.01568	0	0	0.219073	0.53164	-0.111816	0.424548	-0.00277025	0.214436	-0.161022	0.276333	0.186974	0.406229	0.0352092	0.678598	-0.0704682	0.374829	-0.30448	0.493136	-0.180335	0.0177792	-0.294792	0.127449	-0.435298	0.327885	-0.605266	0.333092	-0.190637	0.309479	-0.280195	0.223446	0.094108	-0.057878	-0.254406	0.429692	
0.632085	2.01568	0	0	0.217452	0.536221	-0.106002	0.420749	-0.0106275	0.211726	-0.172003	0.271676	0.190097	0.397402	0.0301105	0.677969	-0.0681265	0.368212	-0.309111	0.485048	-0.179385	0.0150955	-0.301323	0.109471	-0.432439	0.319806	-0.598748	0.314673	-0.188858	0.304452	-0.279192	0.211821	0.089606	-0.053293	-0.2557	0.421219	
0.631162	2.01568	0	0	0.215832	0.540802	-0.100188	0.41695	-0.0184847	0.209015	-0.182984	0.267019	0.19322	0.388575	0.0250117	0.67734	-0.0657848	0.361594	-0.313743	0.476961	-0.178435	0.0124117	-0.307855	0.0914925	-0.429581	0.311728	-0.59223	0.296253	-0.18708	0.299425	-0.27819	0.200197	0.085104	-0.048708	-0.256995	0.412747	
0.630753	2.01568	0	0	0.214211	0.545383	-0.094374	0.413151	-0.026342	0.206304	-0.193966	0.262362	0.196344	0.379748	0.019913	0.676711	-0.063443	0.354976	-0.318375	0.468873	-0.177486	0.009728	-0.314386	0.073514	-0.426723	0.30365	-0.585713	0.277833	-0.185301	0.294398	-0.277188	0.188573	0.080602	-0.044123	-0.258289	0.404275	
0.63099	2.01874	0	0	0.227162	0.52636	-0.101268	0.40738	-0.0260618	0.193065	-0.206313	0.249772	0.198684	0.373134	0.0115487	0.670308	-0.0611032	0.348363	-0.319413	0.461228	-0.173811	0.00938975	-0.323466	0.0628095	-0.420597	0.29551	-0.59755	0.276143	-0.185301	0.294398	-0.275171	0.182872	0.0768578	-0.0416765	-0.259586	0.395817	
0.631939	2.01568	0	0	0.240113	0.507337	-0.108163	0.40161	-0.0257815	0.179827	-0.21866	0.237181	0.201024	0.366519	0.0031845	0.663905	-0.0587635	0.341751	-0.320452	0.453582	-0.170135	0.0090515	-0.332546	0.052105	-0.414471	0.287369	-0.609387	0.274452	-0.185301	0.294398	-0.273153	0.177171	0.0731135	-0.03923	-0.260882	0.387358	
0.633387	2.01568	0	0	0.253065	0.488315	-0.115058	0.39584	-0.0255012	0.166588	-0.231006	0.224591	0.203365	0.359905	-0.00517975	0.657502	-0.0564238	0.335138	-0.32149	0.445936	-0.16646	0.00871325	-0.341627	0.0414005	-0.408345	0.279229	-0.621223	0.272762	-0.185301	0.294398	-0.271136	0.17147	0.0693692	-0.0367835	-0.262178	0.3789	
0.63505	2.01111	0	0	0.266016	0.469292	-0.121952	0.390069	-0.025221	0.153349	-0.243353	0.212001	0.205705	0.353291	-0.013544	0.651099	-0.054084	0.328525	-0.322528	0.438291	-0.162784	0.008375	-0.350707	0.030696	-0.402219	0.271089	-0.63306	0.271072	-0.185301	0.294398	-0.269119	0.165769	0.065625	-0.034337	-0.263475	0.370442	
0.636646	2.01721	0	0	0.262778	0.460864	-0.123036	0.380517	-0.0249482	0.14014	-0.240681	0.192598	0.211593	0.344363	-0.00955225	0.624816	-0.0505775	0.318615	-0.318701	0.427477	-0.160885	0.003008	-0.355961	0.00924775	-0.402636	0.263094	-0.632478	0.251881	-0.187606	0.292042	-0.271162	0.153972	0.065625	-0.034337	-0.270346	0.365638	
0.637888	2.01263	0	0	0.259539	0.452437	-0.124119	0.370965	-0.0246755	0.126932	-0.23801	0.173195	0.21748	0.335434	-0.0055605	0.598532	-0.047071	0.308705	-0.314875	0.416663	-0.158986	-0.002359	-0.361214	-0.0122005	-0.403053	0.2551	-0.631896	0.232691	-0.189912	0.289685	-0.273205	0.142176	0.065625	-0.034337	-0.277216	0.360835	
0.638542	2.01874	0	0	0.256301	0.444009	-0.125202	0.361412	-0.0244028	0.113723	-0.235338	0.153791	0.223368	0.326506	-0.00156875	0.572249	-0.0435645	0.298795	-0.311049	0.405849	-0.157087	-0.007726	-0.366468	-0.0336488	-0.403469	0.247105	-0.631315	0.213501	-0.192217	0.287329	-0.275249	0.130379	0.065625	-0.034337	-0.284087	0.356032	
0.638651	2.01721	0	0	0.253063	0.435581	-0.126286	0.35186	-0.02413	0.100514	-0.232666	0.134388	0.229256	0.317577	0.002423	0.545966	-0.040058	0.288885	-0.307222	0.395035	-0.155188	-0.013093	-0.371721	-0.055097	-0.403886	0.23911	-0.630733	0.19431	-0.194522	0.284973	-0.277292	0.118582	0.065625	-0.034337	-0.290957	0.351228	
0.638359	2.00806	0	0	0.256294	0.426449	-0.127373	0.342325	-0.0226687	0.0839553	-0.23546	0.118601	0.235922	0.306452	0.0045755	0.524892	-0.0353885	0.275689	-0.3034	0.384234	-0.155071	-0.0234743	-0.382534	-0.072823	-0.404728	0.223156	-0.636073	0.174359	-0.196468	0.272742	-0.283396	0.10074	0.0588975	-0.0315843	-0.303252	0.337627	
0.637809	2.01111	0	0	0.259525	0.417318	-0.12846	0.33279	-0.0212075	0.0673965	-0.238253	0.102815	0.242588	0.295327	0.006728	0.503819	-0.030719	0.262493	-0.299578	0.373433	-0.154953	-0.0338555	-0.393347	-0.090549	-0.405569	0.207201	-0.641413	0.154408	-0.198414	0.260512	-0.2895	0.082897	0.05217	-0.0288315	-0.315546	0.324026	
0.637145	2.01263	0	0	0.262756	0.408187	-0.129547	0.323256	-0.0197462	0.0508377	-0.241046	0.0870278	0.249254	0.284202	0.0088805	0.482745	-0.0260495	0.249296	-0.295757	0.362632	-0.154835	-0.0442367	-0.404159	-0.108275	-0.406411	0.191246	-0.646754	0.134456	-0.20036	0.248281	-0.295604	0.0650545	0.0454425	-0.0260787	-0.327841	0.310426	
0.636503	2.01568	0	0	0.265987	0.399055	-0.130634	0.313721	-0.018285	0.034279	-0.24384	0.071241	0.25592	0.273077	0.011033	0.461672	-0.02138	0.2361	-0.291935	0.351831	-0.154718	-0.054618	-0.414972	-0.126001	-0.407252	0.175292	-0.652094	0.114505	-0.202306	0.236051	-0.301708	0.047212	0.038715	-0.023326	-0.340135	0.296825	
0.635979	2.01568	0	0	0.257891	0.386826	-0.134383	0.29913	-0.0228065	0.0346362	-0.238448	0.0560013	0.255482	0.266601	0.0164515	0.446358	-0.0138572	0.226117	-0.285793	0.345052	-0.154605	-0.0649805	-0.406892	-0.136778	-0.411369	0.159462	-0.645639	0.0962608	-0.204257	0.22385	-0.306813	0.0266142	0.027502	-0.015999	-0.341313	0.276029	
0.635645	2.01263	0	0	0.249795	0.374596	-0.138132	0.284539	-0.027328	0.0349935	-0.233055	0.0407615	0.255044	0.260124	0.02187	0.431044	-0.0063345	0.216135	-0.279651	0.338273	-0.154492	-0.075343	-0.398811	-0.147555	-0.415486	0.143632	-0.639183	0.0780165	-0.206207	0.211649	-0.311919	0.0060165	0.016289	-0.008672	-0.342492	0.255232	
0.635575	2.00958	0	0	0.241699	0.362367	-0.141881	0.269947	-0.0318495	0.0353508	-0.227662	0.0255217	0.254606	0.253648	0.0272885	0.41573	0.00118825	0.206153	-0.273508	0.331494	-0.154379	-0.0857055	-0.39073	-0.158332	-0.419602	0.127802	-0.632727	0.0597723	-0.208157	0.199448	-0.317025	-0.0145812	0.005076	-0.001345	-0.34367	0.234435	
0.635841	2.01263	0	0	0.233603	0.350138	-0.14563	0.255356	-0.036371	0.035708	-0.22227	0.010282	0.254168	0.247171	0.032707	0.400416	0.008711	0.19617	-0.267366	0.324715	-0.154266	-0.096068	-0.38265	-0.169109	-0.423719	0.111972	-0.626272	0.041528	-0.210108	0.187247	-0.32213	-0.035179	-0.006137	0.005982	-0.344848	0.213639	
0.636488	2.01263	0	0	0.217464	0.343209	-0.15251	0.249648	-0.0351762	0.032331	-0.230463	0.00978475	0.256501	0.240579	0.0258132	0.404921	0.008711	0.19617	-0.266094	0.321119	-0.156994	-0.098397	-0.380892	-0.162011	-0.423203	0.101367	-0.621976	0.0293858	-0.208338	0.182245	-0.321161	-0.0466638	-0.006137	0.005982	-0.342018	0.205641	
0.637261	2.01263	0	0	0.201325	0.33628	-0.15939	0.243939	-0.0339815	0.028954	-0.238656	0.0092875	0.258833	0.233988	0.0189195	0.409425	0.008711	0.19617	-0.264821	0.317523	-0.159721	-0.100726	-0.379134	-0.154912	-0.422686	0.090763	-0.617679	0.0172435	-0.206568	0.177243	-0.320192	-0.0581485	-0.006137	0.005982	-0.339187	0.197642	
0.637724	2.01111	0	0	0.185186	0.329351	-0.16627	0.238231	-0.0327868	0.025577	-0.246849	0.00879025	0.261165	0.227396	0.0120258	0.413929	0.008711	0.19617	-0.263549	0.313927	-0.162449	-0.103055	-0.377376	-0.147814	-0.42217	0.0801585	-0.613383	0.00510125	-0.204799	0.172242	-0.319223	-0.0696332	-0.006137	0.005982	-0.336357	0.189643	
0.63744	2.01263	0	0	0.169047	0.322422	-0.17315	0.232522	-0.031592	0.0222	-0.255042	0.008293	0.263498	0.220804	0.005132	0.418434	0.008711	0.19617	-0.262277	0.310331	-0.165177	-0.105384	-0.375618	-0.140715	-0.421654	0.069554	-0.609086	-0.007041	-0.203029	0.16724	-0.318254	-0.081118	-0.006137	0.005982	-0.333527	0.181645	
0.635971	2.00958	0	0	0.162588	0.305731	-0.184234	0.226183	-0.0325298	0.0124378	-0.24832	-0.0107043	0.265052	0.216412	0.001851	0.41274	0.00585075	0.192976	-0.259734	0.303143	-0.169794	-0.102367	-0.3683	-0.13724	-0.42071	0.0668853	-0.619287	0.00429	-0.203914	0.169741	-0.323276	-0.0756675	-0.0136043	0.0108612	-0.323838	0.178388	
0.632968	2.00958	0	0	0.156129	0.289041	-0.195319	0.219843	-0.0334675	0.0026755	-0.241598	-0.0297015	0.266606	0.212021	-0.00143	0.407046	0.0029905	0.189781	-0.25719	0.295956	-0.174412	-0.0993495	-0.360982	-0.133765	-0.419766	0.0642165	-0.629487	0.015621	-0.204798	0.172241	-0.328298	-0.070217	-0.0210715	0.0157405	-0.314148	0.17513	
0.629309	2.00958	0	0	0.14967	0.27235	-0.206403	0.213503	-0.0344052	-0.00708675	-0.234876	-0.0486987	0.26816	0.207629	-0.004711	0.401353	0.00013025	0.186586	-0.254647	0.288768	-0.17903	-0.0963322	-0.353663	-0.130289	-0.418821	0.0615477	-0.639687	0.026952	-0.205683	0.174741	-0.33332	-0.0647665	-0.0285388	0.0206197	-0.304459	0.171873	
0.626778	2.00958	0	0	0.143211	0.25566	-0.217488	0.207164	-0.035343	-0.016849	-0.228154	-0.067696	0.269714	0.203237	-0.007992	0.395659	-0.00273	0.183392	-0.252104	0.28158	-0.183647	-0.093315	-0.346345	-0.126814	-0.417877	0.058879	-0.649888	0.038283	-0.206568	0.177242	-0.338342	-0.059316	-0.036006	0.025499	-0.294769	0.168616	
0.627179	2.01416	0	0	0.138382	0.251859	-0.220138	0.202114	-0.032958	-0.0235892	-0.230907	-0.0717305	0.271267	0.198848	-0.0094715	0.384886	-0.0015655	0.180101	-0.254432	0.27758	-0.181756	-0.0986595	-0.343316	-0.123283	-0.422515	0.0537095	-0.639687	0.026952	-0.206568	0.177242	-0.335317	-0.0591233	-0.036006	0.025499	-0.300323	0.172245	
0.63232	2.01263	0	0	0.133553	0.248058	-0.222787	0.197065	-0.030573	-0.0303295	-0.233659	-0.075765	0.27282	0.194458	-0.010951	0.374113	-0.000401	0.17681	-0.25676	0.27358	-0.179865	-0.104004	-0.340288	-0.119752	-0.427154	0.04854	-0.629487	0.015621	-0.206568	0.177242	-0.332292	-0.0589305	-0.036006	0.025499	-0.305877	0.175874	
0.643801	2.01721	0	0	0.128724	0.244257	-0.225437	0.192016	-0.028188	-0.0370697	-0.236412	-0.0797995	0.274373	0.190069	-0.0124305	0.36334	0.0007635	0.173519	-0.259088	0.26958	-0.177974	-0.109349	-0.337259	-0.11622	-0.431793	0.0433705	-0.619287	0.00429	-0.206568	0.177242	-0.329267	-0.0587377	-0.036006	0.025499	-0.311431	0.179503	
0.658982	2.01111	0	0	0.123895	0.240456	-0.228087	0.186966	-0.025803	-0.04381	-0.239165	-0.083834	0.275926	0.185679	-0.01391	0.352567	0.001928	0.170228	-0.261416	0.26558	-0.176083	-0.114693	-0.33423	-0.112689	-0.436431	0.038201	-0.609086	-0.007041	-0.206568	0.177242	-0.326242	-0.058545	-0.036006	0.025499	-0.316985	0.183132	
0.67119	2.01111	0	0	0.131926	0.235209	-0.223876	0.187604	-0.0315122	-0.0400795	-0.236412	-0.0797995	0.279477	0.183359	-0.00374	0.353746	0.0002315	0.163751	-0.261416	0.26558	-0.174193	-0.120034	-0.3312	-0.109154	-0.434546	0.0328725	-0.609086	-0.007041	-0.204799	0.172241	-0.326242	-0.058545	-0.0434668	0.030374	-0.314156	0.175137	
0.673594	2.01263	0	0	0.139956	0.229961	-0.219666	0.188242	-0.0372215	-0.036349	-0.233659	-0.075765	0.283027	0.181039	0.00643	0.354925	-0.001465	0.157275	-0.261416	0.26558	-0.172303	-0.125376	-0.32817	-0.10562	-0.43266	0.027544	-0.609086	-0.007041	-0.20303	0.167241	-0.326242	-0.058545	-0.0509275	0.035249	-0.311327	0.167141	
0.659363	2.01111	0	0	0.147986	0.224714	-0.215455	0.188881	-0.0429308	-0.0326185	-0.230907	-0.0717305	0.286577	0.178719	0.0166	0.356104	-0.0031615	0.150799	-0.261416	0.26558	-0.170413	-0.130717	-0.325139	-0.102085	-0.430775	0.0222155	-0.609086	-0.007041	-0.20126	0.162241	-0.326242	-0.058545	-0.0583883	0.040124	-0.308498	0.159146	
0.62194	2.01111	0	0	0.156017	0.219467	-0.211244	0.189519	-0.04864	-0.028888	-0.228154	-0.067696	0.290128	0.176399	0.02677	0.357283	-0.004858	0.144322	-0.261416	0.26558	-0.168523	-0.136058	-0.322109	-0.09855	-0.428889	0.016887	-0.609086	-0.007041	-0.199491	0.15724	-0.326242	-0.058545	-0.065849	0.044999	-0.305669	0.151151	
0.565359	2.01263	0	0	0.154416	0.22399	-0.210154	0.198986	-0.0429308	-0.0326185	-0.226744	-0.059858	0.292127	0.178468	0.0420585	0.359046	-0.00083375	0.14422	-0.260146	0.261991	-0.163906	-0.139075	-0.323379	-0.0949612	-0.423741	0.011476	-0.603173	-0.006239	-0.197723	0.152243	-0.318189	-0.063807	-0.0583883	0.040124	-0.304256	0.147156	
0.507416	2.01263	0	0	0.152816	0.228513	-0.209065	0.208453	-0.0372215	-0.036349	-0.225334	-0.05202	0.294126	0.180536	0.057347	0.36081	0.0031905	0.144118	-0.258876	0.258402	-0.159288	-0.142093	-0.324649	-0.0913725	-0.418594	0.006065	-0.59726	-0.005437	-0.195955	0.147245	-0.310136	-0.069069	-0.0509275	0.035249	-0.302842	0.143161	
0.466824	2.01263	0	0	0.151216	0.233036	-0.207975	0.21792	-0.0315122	-0.0400795	-0.223925	-0.044182	0.296124	0.182605	0.0726355	0.362573	0.00721475	0.144015	-0.257607	0.254814	-0.15467	-0.14511	-0.325919	-0.0877838	-0.413447	0.000654	-0.591347	-0.004635	-0.194186	0.142247	-0.302083	-0.074331	-0.0434668	0.030374	-0.301428	0.139167	
0.46042	2.00958	0	0	0.149615	0.237559	-0.206886	0.227387	-0.025803	-0.04381	-0.222515	-0.036344	0.298123	0.184674	0.087924	0.364336	0.011239	0.143913	-0.256337	0.251225	-0.150053	-0.148127	-0.327189	-0.084195	-0.408299	-0.004757	-0.585434	-0.003833	-0.192418	0.13725	-0.29403	-0.079593	-0.036006	0.025499	-0.300015	0.135172	
0.486422	2.00958	0	0	0.149615	0.237559	-0.208449	0.231805	-0.025803	-0.04381	-0.227956	-0.0327885	0.295792	0.191263	0.0876075	0.380245	0.011239	0.143913	-0.256337	0.251225	-0.151943	-0.142786	-0.317312	-0.087889	-0.405977	-0.00217925	-0.579515	-0.00303175	-0.189227	0.137085	-0.293998	-0.0709285	-0.0285388	0.0206197	-0.291731	0.135903	
0.53242	2.01111	0	0	0.149615	0.237559	-0.210012	0.236223	-0.025803	-0.04381	-0.233397	-0.029233	0.293461	0.197851	0.087291	0.396154	0.011239	0.143913	-0.256337	0.251225	-0.153833	-0.137445	-0.307434	-0.091583	-0.403654	0.0003985	-0.573595	-0.0022305	-0.186035	0.136921	-0.293966	-0.062264	-0.0210715	0.0157405	-0.283447	0.136634	
0.585877	2.00806	0	0	0.149615	0.237559	-0.211575	0.24064	-0.025803	-0.04381	-0.238839	-0.0256775	0.291129	0.204439	0.0869745	0.412063	0.011239	0.143913	-0.256337	0.251225	-0.155723	-0.132103	-0.297557	-0.095277	-0.401332	0.00297625	-0.567675	-0.00142925	-0.182843	0.136757	-0.293934	-0.0535995	-0.0136043	0.0108613	-0.275164	0.137365	
0.634257	2.01568	0	0	0.149615	0.237559	-0.213138	0.245058	-0.025803	-0.04381	-0.24428	-0.022122	0.288798	0.211028	0.086658	0.427972	0.011239	0.143913	-0.256337	0.251225	-0.157613	-0.126762	-0.28768	-0.098971	-0.399009	0.005554	-0.561756	-0.000628	-0.179652	0.136592	-0.293902	-0.044935	-0.006137	0.005982	-0.26688	0.138096	
0.665409	2.01568	0	0	0.151216	0.233036	-0.215787	0.239998	-0.0324535	-0.0498163	-0.247029	-0.0261662	0.290352	0.206635	0.0797478	0.432488	0.00954	0.137444	-0.257397	0.243647	-0.157613	-0.126762	-0.290716	-0.102507	-0.398066	0.00289025	-0.559607	-0.00670125	-0.175575	0.133928	-0.290871	-0.0447425	-0.0098715	0.008422	-0.264149	0.142461	
0.676479	2.01111	0	0	0.152816	0.228513	-0.218436	0.234938	-0.039104	-0.0558225	-0.249778	-0.0302105	0.291907	0.202242	0.0728375	0.437003	0.007841	0.130974	-0.258457	0.23607	-0.157613	-0.126762	-0.293751	-0.106043	-0.397123	0.0002265	-0.557459	-0.0127745	-0.171497	0.131264	-0.28784	-0.04455	-0.013606	0.010862	-0.261418	0.146826	
0.674213	2.01111	0	0	0.154416	0.22399	-0.221085	0.229878	-0.0457545	-0.0618288	-0.252528	-0.0342548	0.293461	0.197849	0.0659272	0.441518	0.006142	0.124505	-0.259517	0.228492	-0.157613	-0.126762	-0.296786	-0.109578	-0.396181	-0.00243725	-0.55531	-0.0188477	-0.16742	0.1286	-0.284809	-0.0443575	-0.0173405	0.013302	-0.258688	0.151191	
0.6658	2.01263	0	0	0.156017	0.219467	-0.223734	0.224818	-0.052405	-0.067835	-0.255277	-0.038299	0.295015	0.193456	0.059017	0.446034	0.004443	0.118036	-0.260577	0.220915	-0.157613	-0.126762	-0.299822	-0.113114	-0.395238	-0.005101	-0.553161	-0.024921	-0.163343	0.125936	-0.281778	-0.044165	-0.021075	0.015742	-0.255957	0.155556	
0.658425	2.00958	0	0	0.157616	0.214946	-0.216398	0.216631	-0.0533495	-0.077554	-0.256683	-0.046132	0.293793	0.189192	0.0608252	0.440924	-0.0012775	0.111681	-0.260373	0.20977	-0.159396	-0.131756	-0.299052	-0.127395	-0.395678	-0.0129995	-0.551014	-0.03099	-0.164769	0.121107	-0.278778	-0.052642	-0.0136045	0.0108607	-0.260103	0.15519	
0.659246	2.01111	0	0	0.159216	0.210426	-0.209062	0.208444	-0.054294	-0.087273	-0.258089	-0.053965	0.292571	0.184927	0.0626335	0.435813	-0.006998	0.105326	-0.260169	0.198624	-0.161179	-0.136749	-0.298283	-0.141677	-0.396118	-0.020898	-0.548866	-0.037059	-0.166195	0.116278	-0.275779	-0.061119	-0.006134	0.0059795	-0.264248	0.154823	
0.670767	2.01111	0	0	0.160816	0.205906	-0.201725	0.200258	-0.0552385	-0.096992	-0.259496	-0.061798	0.29135	0.180663	0.0644418	0.430702	-0.0127185	0.0989703	-0.259964	0.187479	-0.162962	-0.141742	-0.297513	-0.155958	-0.396558	-0.0287965	-0.546718	-0.043128	-0.167621	0.111449	-0.27278	-0.069596	0.0013365	0.00109825	-0.268393	0.154456	
0.68578	2.01568	0	0	0.162415	0.201385	-0.194389	0.192071	-0.056183	-0.106711	-0.260902	-0.069631	0.290128	0.176399	0.06625	0.425592	-0.018439	0.092615	-0.25976	0.176334	-0.164745	-0.146736	-0.296743	-0.170239	-0.396998	-0.036695	-0.544571	-0.049197	-0.169047	0.10662	-0.26978	-0.078073	0.008807	-0.003783	-0.272539	0.15409	
0.69586	2.01263	0	0	0.165612	0.192351	-0.203905	0.181349	-0.0604525	-0.119396	-0.266468	-0.089278	0.287684	0.167882	0.071974	0.394412	-0.0206792	0.0764517	-0.264223	0.157279	-0.162756	-0.162384	-0.314429	-0.180671	-0.396946	-0.0551113	-0.558037	-0.0636795	-0.172782	0.0994698	-0.278906	-0.0872925	-0.00239625	0.0035375	-0.265471	0.134115	
0.692583	2.00806	0	0	0.168809	0.183316	-0.213421	0.170627	-0.064722	-0.132082	-0.272034	-0.108925	0.285239	0.159365	0.077698	0.363232	-0.0229195	0.0602885	-0.268686	0.138225	-0.160768	-0.178032	-0.332114	-0.191103	-0.396894	-0.0735275	-0.571503	-0.078162	-0.176517	0.0923195	-0.288031	-0.096512	-0.0135995	0.010858	-0.258404	0.114141	
0.667527	2.01111	0	0	0.172005	0.174282	-0.222936	0.159904	-0.0689915	-0.144767	-0.277599	-0.128572	0.282795	0.150849	0.083422	0.332052	-0.0251598	0.0441253	-0.273149	0.11917	-0.158779	-0.19368	-0.3498	-0.201535	-0.396842	-0.0919438	-0.58497	-0.0926445	-0.180251	0.0851693	-0.297157	-0.105732	-0.0248028	0.0181785	-0.251336	0.0941665	
0.615924	2.00958	0	0	0.175202	0.165247	-0.232452	0.149182	-0.073261	-0.157452	-0.283165	-0.148219	0.280351	0.142332	0.089146	0.300872	-0.0274	0.027962	-0.277612	0.100116	-0.15679	-0.209328	-0.367486	-0.211967	-0.39679	-0.11036	-0.598436	-0.107127	-0.183986	0.078019	-0.306283	-0.114951	-0.036006	0.025499	-0.244268	0.074192	
0.552082	2.00958	0	0	0.18324	0.159995	-0.223572	0.136615	-0.0742118	-0.167128	-0.284576	-0.156008	0.281452	0.131513	0.0927453	0.2907	-0.0319585	0.0183773	-0.279752	0.0850825	-0.159423	-0.221926	-0.370264	-0.240271	-0.397689	-0.126071	-0.595802	-0.132051	-0.182769	0.065733	-0.308393	-0.135204	-0.0397373	0.027937	-0.249737	0.065505	
0.496503	2.01263	0	0	0.191278	0.154743	-0.214691	0.124049	-0.0751625	-0.176804	-0.285987	-0.163797	0.282552	0.120695	0.0963445	0.280529	-0.036517	0.0087925	-0.281892	0.070049	-0.162055	-0.234525	-0.373042	-0.268575	-0.398587	-0.141783	-0.593168	-0.156975	-0.181552	0.053447	-0.310502	-0.155457	-0.0434685	0.030375	-0.255206	0.056818	
0.469677	2.01568	0	0	0.199316	0.14949	-0.205811	0.111482	-0.0761132	-0.18648	-0.287398	-0.171586	0.283653	0.109876	0.0999437	0.270357	-0.0410755	-0.00079225	-0.284032	0.0550155	-0.164687	-0.247123	-0.375819	-0.296879	-0.399486	-0.157494	-0.590535	-0.181899	-0.180334	0.041161	-0.312611	-0.17571	-0.0471997	0.032813	-0.260674	0.048131	
0.483606	2.01416	0	0	0.207354	0.144238	-0.196931	0.098915	-0.077064	-0.196156	-0.288809	-0.179375	0.284754	0.099058	0.103543	0.260186	-0.045634	-0.010377	-0.286172	0.039982	-0.16732	-0.259722	-0.378597	-0.325183	-0.400385	-0.173205	-0.587901	-0.206823	-0.179117	0.028875	-0.314721	-0.195963	-0.050931	0.035251	-0.266143	0.039444	
0.528099	2.01263	0	0	0.204157	0.153273	-0.205811	0.111482	-0.074697	-0.202846	-0.290145	-0.1756	0.279985	0.09713	0.111958	0.26642	-0.0484897	-0.0135298	-0.284731	0.025377	-0.169107	-0.264682	-0.379629	-0.346331	-0.398968	-0.18633	-0.581511	-0.224883	-0.175596	0.0189245	-0.31278	-0.210177	-0.0471997	0.032813	-0.261918	0.027502	
0.589381	2.00958	0	0	0.20096	0.162307	-0.214691	0.124049	-0.07233	-0.209535	-0.291481	-0.171824	0.275216	0.095202	0.120373	0.272655	-0.0513455	-0.0166825	-0.283289	0.010772	-0.170895	-0.269641	-0.380661	-0.367479	-0.397551	-0.199454	-0.57512	-0.242943	-0.172075	0.008974	-0.31084	-0.224391	-0.0434685	0.030375	-0.257692	0.01556	
0.653677	2.01111	0	0	0.197764	0.171342	-0.223572	0.136615	-0.069963	-0.216224	-0.292817	-0.168049	0.270446	0.093274	0.128789	0.278889	-0.0542012	-0.0198353	-0.281848	-0.003833	-0.172682	-0.2746	-0.381692	-0.388627	-0.396133	-0.212579	-0.56873	-0.261002	-0.168555	-0.0009765	-0.308899	-0.238605	-0.0397373	0.027937	-0.253466	0.003618	
0.707213	2.00958	0	0	0.194567	0.180376	-0.232452	0.149182	-0.067596	-0.222914	-0.294153	-0.164274	0.265677	0.091346	0.137204	0.285123	-0.057057	-0.022988	-0.280407	-0.018438	-0.174469	-0.27956	-0.382724	-0.409775	-0.394716	-0.225704	-0.56234	-0.279062	-0.165034	-0.010927	-0.306959	-0.252819	-0.036006	0.025499	-0.249241	-0.008324	
0.736321	2.00958	0	0	0.194567	0.180376	-0.235102	0.144149	-0.0697355	-0.229223	-0.305054	-0.168754	0.265999	0.082737	0.133599	0.295312	-0.0627642	-0.0292855	-0.285072	-0.026301	-0.172591	-0.284869	-0.390549	-0.4237	-0.391912	-0.233627	-0.566125	-0.285829	-0.161842	-0.011101	-0.308991	-0.255801	-0.036006	0.025499	-0.24228	-0.01593	
0.735986	2.00806	0	0	0.194567	0.180376	-0.237752	0.139116	-0.071875	-0.235533	-0.315955	-0.173233	0.266322	0.074128	0.129993	0.305501	-0.0684715	-0.035583	-0.289736	-0.034164	-0.170712	-0.290179	-0.398373	-0.437625	-0.389109	-0.24155	-0.56991	-0.292597	-0.15865	-0.011275	-0.311024	-0.258783	-0.036006	0.025499	-0.235318	-0.023536	
0.716011	2.01111	0	0	0.194567	0.180376	-0.240401	0.134083	-0.0740145	-0.241843	-0.326855	-0.177713	0.266645	0.065519	0.126388	0.31569	-0.0741788	-0.0418805	-0.294401	-0.042027	-0.168833	-0.295488	-0.406197	-0.45155	-0.386306	-0.249473	-0.573695	-0.299365	-0.155459	-0.011449	-0.313057	-0.261765	-0.036006	0.025499	-0.228357	-0.031142	
0.687658	2.01416	0	0	0.194567	0.180376	-0.243051	0.12905	-0.076154	-0.248152	-0.337756	-0.182193	0.266967	0.05691	0.122783	0.325879	-0.079886	-0.048178	-0.299065	-0.04989	-0.166955	-0.300798	-0.414022	-0.465475	-0.383502	-0.257396	-0.57748	-0.306132	-0.152267	-0.011623	-0.315089	-0.264747	-0.036006	0.025499	-0.221396	-0.038748	
0.662187	2.01111	0	0	0.196166	0.175857	-0.2457	0.124023	-0.076154	-0.248152	-0.336422	-0.185962	0.262974	0.0528075	0.117676	0.325298	-0.0838897	-0.0480662	-0.295304	-0.0605195	-0.167806	-0.308399	-0.407778	-0.483121	-0.378835	-0.270586	-0.565195	-0.323388	-0.149628	-0.0190805	-0.31514	-0.273326	-0.036006	0.025499	-0.214432	-0.0463548	
0.650855	2.01111	0	0	0.197765	0.171339	-0.248348	0.118997	-0.076154	-0.248152	-0.335089	-0.189731	0.258981	0.048705	0.112568	0.324718	-0.0878935	-0.0479545	-0.291543	-0.071149	-0.168657	-0.315999	-0.401535	-0.500767	-0.374168	-0.283775	-0.552909	-0.340643	-0.146989	-0.026538	-0.315191	-0.281905	-0.036006	0.025499	-0.207468	-0.0539615	
0.659176	2.00958	0	0	0.199363	0.166821	-0.250997	0.11397	-0.076154	-0.248152	-0.333755	-0.1935	0.254989	0.0446025	0.107461	0.324137	-0.0918972	-0.0478428	-0.287782	-0.0817785	-0.169508	-0.323599	-0.395291	-0.518412	-0.369501	-0.296964	-0.540624	-0.357899	-0.144351	-0.0339955	-0.315241	-0.290483	-0.036006	0.025499	-0.200504	-0.0615682	
0.674986	2.01263	0	0	0.200962	0.162302	-0.253646	0.108943	-0.076154	-0.248152	-0.332421	-0.197269	0.250996	0.0405	0.102353	0.323557	-0.095901	-0.047731	-0.284021	-0.092408	-0.170359	-0.3312	-0.389047	-0.536058	-0.364834	-0.310154	-0.528339	-0.375155	-0.141712	-0.041453	-0.315292	-0.299062	-0.036006	0.025499	-0.19354	-0.069175	
0.682731	2.00958	0	0	0.199311	0.149504	-0.258941	0.0989078	-0.0726108	-0.258166	-0.328508	-0.220074	0.248548	0.0320447	0.104731	0.286844	-0.090144	-0.064001	-0.280264	-0.103025	-0.167467	-0.349374	-0.391366	-0.55349	-0.358786	-0.336361	-0.533814	-0.394594	-0.142269	-0.0487265	-0.316391	-0.313389	-0.0397373	0.027937	-0.199031	-0.0777982	
0.666857	2.00958	0	0	0.197661	0.136705	-0.264237	0.0888725	-0.0690675	-0.26818	-0.324596	-0.24288	0.246099	0.0235895	0.107108	0.250132	-0.084387	-0.080271	-0.276508	-0.113642	-0.164575	-0.367548	-0.393686	-0.570922	-0.352738	-0.362568	-0.539289	-0.414033	-0.142825	-0.056	-0.317489	-0.327716	-0.0434685	0.030375	-0.204522	-0.0864215	
0.611828	2.00653	0	0	0.19601	0.123907	-0.269533	0.0788372	-0.0655243	-0.278193	-0.320683	-0.265685	0.243651	0.0151342	0.109486	0.213419	-0.07863	-0.096541	-0.272751	-0.124259	-0.161682	-0.385721	-0.396005	-0.588355	-0.34669	-0.388776	-0.544764	-0.433471	-0.143381	-0.0632735	-0.318588	-0.342043	-0.0471997	0.032813	-0.210013	-0.0950447	
0.515964	2.00958	0	0	0.194359	0.111108	-0.274828	0.068802	-0.061981	-0.288207	-0.31677	-0.28849	0.241203	0.006679	0.111864	0.176706	-0.072873	-0.112811	-0.268994	-0.134876	-0.15879	-0.403895	-0.398324	-0.605787	-0.340642	-0.414983	-0.550239	-0.45291	-0.143938	-0.070547	-0.319686	-0.35637	-0.050931	0.035251	-0.215504	-0.103668	
0.41643	2.00958	0	0	0.200801	0.110365	-0.277932	0.0775745	-0.0608008	-0.291542	-0.324916	-0.288942	0.240749	0.000281	0.11724	0.161514	-0.0757265	-0.115944	-0.265242	-0.14548	-0.160584	-0.408819	-0.40562	-0.609124	-0.339262	-0.427994	-0.546012	-0.464857	-0.144496	-0.0778107	-0.320732	-0.362125	-0.050931	0.035251	-0.216846	-0.111935	
0.357044	2.00806	0	0	0.207243	0.109622	-0.281036	0.086347	-0.0596205	-0.294878	-0.333062	-0.289394	0.240294	-0.006117	0.122616	0.146321	-0.07858	-0.119076	-0.26149	-0.156085	-0.162378	-0.413744	-0.412915	-0.612461	-0.337882	-0.441005	-0.541785	-0.476804	-0.145055	-0.0850745	-0.321778	-0.367879	-0.050931	0.035251	-0.218188	-0.120203	
0.362315	2.01111	0	0	0.213686	0.10888	-0.28414	0.0951195	-0.0584402	-0.298213	-0.341207	-0.289846	0.23984	-0.012515	0.127991	0.131128	-0.0814335	-0.122208	-0.257737	-0.166689	-0.164173	-0.418668	-0.42021	-0.615799	-0.336501	-0.454015	-0.537557	-0.488752	-0.145613	-0.0923382	-0.322823	-0.373634	-0.050931	0.035251	-0.219529	-0.12847	
0.41463	2.00806	0	0	0.220128	0.108137	-0.287244	0.103892	-0.05726	-0.301548	-0.349353	-0.290298	0.239386	-0.018913	0.133367	0.115936	-0.084287	-0.125341	-0.253985	-0.177293	-0.165967	-0.423592	-0.427506	-0.619136	-0.335121	-0.467026	-0.53333	-0.500699	-0.146171	-0.099602	-0.323869	-0.379388	-0.050931	0.035251	-0.220871	-0.136738	
0.49082	2.00806	0	0	0.221783	0.12094	-0.280399	0.109548	-0.05726	-0.301548	-0.346611	-0.286316	0.243692	-0.0233992	0.141796	0.122108	-0.0854368	-0.122092	-0.255235	-0.17376	-0.159498	-0.431881	-0.418967	-0.619314	-0.333265	-0.47227	-0.5253	-0.505946	-0.144417	-0.104559	-0.316837	-0.381837	-0.0471997	0.032813	-0.216723	-0.136402	
0.567715	2.01263	0	0	0.223438	0.133742	-0.273555	0.115205	-0.05726	-0.301548	-0.343869	-0.282333	0.247997	-0.0278855	0.150225	0.128281	-0.0865865	-0.118843	-0.256486	-0.170227	-0.153029	-0.440169	-0.410427	-0.619492	-0.33141	-0.477515	-0.517269	-0.511194	-0.142663	-0.109517	-0.309805	-0.384287	-0.0434685	0.030375	-0.212575	-0.136066	
0.622396	2.00806	0	0	0.225094	0.146545	-0.26671	0.120861	-0.05726	-0.301548	-0.341126	-0.278351	0.252302	-0.0323718	0.158653	0.134454	-0.0877363	-0.115593	-0.257736	-0.166693	-0.146559	-0.448458	-0.401887	-0.61967	-0.329555	-0.482759	-0.509238	-0.516441	-0.140909	-0.114474	-0.302773	-0.386736	-0.0397373	0.027937	-0.208427	-0.135729	
0.645017	2.00653	0	0	0.226749	0.159348	-0.259865	0.126518	-0.05726	-0.301548	-0.338384	-0.274368	0.256608	-0.036858	0.167082	0.140626	-0.088886	-0.112344	-0.258986	-0.16316	-0.14009	-0.456747	-0.393348	-0.619848	-0.327699	-0.488003	-0.501208	-0.521688	-0.139155	-0.119432	-0.295741	-0.389186	-0.036006	0.025499	-0.204279	-0.135393	
0.645017	2.00806	0	0	0.217104	0.169126	-0.267176	0.134675	-0.0596208	-0.294876	-0.346444	-0.263322	0.259375	-0.0369935	0.166811	0.156407	-0.0860333	-0.109209	-0.255558	-0.151802	-0.139227	-0.449186	-0.381219	-0.606123	-0.323023	-0.482993	-0.491468	-0.514271	-0.13045	-0.117496	-0.289571	-0.371728	-0.0285388	0.0206197	-0.191875	-0.122133	
0.633383	2.00958	0	0	0.207459	0.178903	-0.274486	0.142832	-0.0619815	-0.288204	-0.354503	-0.252277	0.262143	-0.037129	0.166539	0.172188	-0.0831805	-0.106074	-0.25213	-0.140443	-0.138364	-0.441624	-0.369089	-0.592399	-0.318348	-0.477982	-0.481727	-0.506853	-0.121745	-0.115559	-0.2834	-0.354271	-0.0210715	0.0157405	-0.179471	-0.108873	
0.621102	2.00958	0	0	0.197814	0.188681	-0.281797	0.150988	-0.0643423	-0.281532	-0.362563	-0.241231	0.264911	-0.0372645	0.166268	0.18797	-0.0803278	-0.102939	-0.248703	-0.129084	-0.1375	-0.434063	-0.356959	-0.578674	-0.313672	-0.472971	-0.471987	-0.499436	-0.113039	-0.113623	-0.27723	-0.336813	-0.0136043	0.0108613	-0.167067	-0.095613	
0.618931	2.01263	0	0	0.188169	0.198459	-0.289108	0.159145	-0.066703	-0.27486	-0.370623	-0.230185	0.267678	-0.0374	0.165996	0.203751	-0.077475	-0.099804	-0.245275	-0.117726	-0.136637	-0.426502	-0.34483	-0.56495	-0.308996	-0.467961	-0.462247	-0.492018	-0.104334	-0.111687	-0.27106	-0.319356	-0.006137	0.005982	-0.154663	-0.082353	
0.629103	2.00958	0	0	0.184967	0.207507	-0.295338	0.176751	-0.0600533	-0.268935	-0.365146	-0.22219	0.273217	-0.0376723	0.169315	0.209398	-0.0734698	-0.0999205	-0.234652	-0.105584	-0.137573	-0.423858	-0.32838	-0.55126	-0.30387	-0.473328	-0.452489	-0.484584	-0.105212	-0.109206	-0.265936	-0.307621	-0.002401	0.00354075	-0.14493	-0.0856552	
0.643008	2.00958	0	0	0.181765	0.216555	-0.301567	0.194356	-0.0534035	-0.26301	-0.359669	-0.214195	0.278755	-0.0379445	0.172634	0.215044	-0.0694645	-0.100037	-0.224029	-0.093442	-0.138509	-0.421214	-0.31193	-0.537571	-0.298745	-0.478694	-0.442732	-0.47715	-0.10609	-0.106725	-0.260813	-0.295887	0.001335	0.0010995	-0.135197	-0.0889575	
0.651334	2.00653	0	0	0.178564	0.225603	-0.307797	0.211962	-0.0467537	-0.257084	-0.354193	-0.206201	0.284293	-0.0382168	0.175953	0.220691	-0.0654592	-0.100154	-0.213407	-0.0813	-0.139444	-0.418569	-0.29548	-0.523881	-0.293619	-0.484061	-0.432975	-0.469716	-0.106968	-0.104244	-0.255689	-0.284152	0.005071	-0.00134175	-0.125464	-0.0922598	
0.644769	2.00958	0	0	0.175362	0.234651	-0.314027	0.229568	-0.040104	-0.251159	-0.348716	-0.198206	0.289832	-0.038489	0.179272	0.226338	-0.061454	-0.10027	-0.202784	-0.069158	-0.14038	-0.415925	-0.27903	-0.510192	-0.288494	-0.489427	-0.423217	-0.462282	-0.107846	-0.101763	-0.250565	-0.272418	0.008807	-0.003783	-0.115731	-0.095562	
0.614254	2.01416	0	0	0.162516	0.253493	-0.316076	0.247864	-0.0436537	-0.241127	-0.352717	-0.186899	0.291832	-0.0364478	0.185915	0.237655	-0.066062	-0.087247	-0.190882	-0.0605357	-0.134912	-0.411361	-0.269352	-0.48926	-0.284739	-0.481789	-0.415567	-0.448824	-0.106406	-0.0969785	-0.242403	-0.260473	0.0237678	-0.0135587	-0.114445	-0.0749615	
0.562154	2.00653	0	5	0.14967	0.272335	-0.318125	0.266159	-0.0472035	-0.231094	-0.356718	-0.175592	0.293833	-0.0344065	0.192557	0.248972	-0.07067	-0.074224	-0.17898	-0.0519135	-0.129445	-0.406796	-0.259674	-0.468328	-0.280983	-0.47415	-0.407918	-0.435366	-0.104965	-0.092194	-0.234242	-0.248528	0.0387285	-0.0233345	-0.113158	-0.054361	
0.50664	2.01111	0	5	0.136823	0.291176	-0.320174	0.284455	-0.0507532	-0.221061	-0.360719	-0.164286	0.295833	-0.0323652	0.1992	0.260289	-0.075278	-0.061201	-0.167079	-0.0432912	-0.123978	-0.402231	-0.249995	-0.447396	-0.277228	-0.466511	-0.400269	-0.421907	-0.103525	-0.0874095	-0.22608	-0.236583	0.0536893	-0.0331103	-0.111871	-0.0337605	
0.467046	2.01263	0	5	0.123977	0.310018	-0.322223	0.302751	-0.054303	-0.211029	-0.36472	-0.152979	0.297834	-0.030324	0.205843	0.271606	-0.079886	-0.048178	-0.155177	-0.034669	-0.11851	-0.397667	-0.240317	-0.426464	-0.273473	-0.458873	-0.392619	-0.408449	-0.102085	-0.082625	-0.217919	-0.224638	0.06865	-0.042886	-0.110585	-0.01316	
0.46108	2.00958	0	5	0.138474	0.321488	-0.317461	0.326858	-0.0476505	-0.205078	-0.36192	-0.13739	0.295521	-0.0237872	0.208874	0.293179	-0.078187	-0.0417695	-0.150652	-0.0156987	-0.119526	-0.384779	-0.224521	-0.398444	-0.271579	-0.445956	-0.378996	-0.39421	-0.094564	-0.06842	-0.209656	-0.195351	0.0836367	-0.0526788	-0.0996235	0.0165905	
0.488989	2.00958	0	5	0.152971	0.332958	-0.3127	0.350965	-0.040998	-0.199128	-0.35912	-0.121801	0.293208	-0.0172505	0.211904	0.314752	-0.076488	-0.035361	-0.146128	0.0032715	-0.120542	-0.371891	-0.208725	-0.370425	-0.269685	-0.43304	-0.365374	-0.379971	-0.087043	-0.054215	-0.201394	-0.166063	0.0986235	-0.0624715	-0.088662	0.046341	
0.540378	2.01263	0	5	0.167469	0.344428	-0.307938	0.375071	-0.0343455	-0.193178	-0.356319	-0.106212	0.290895	-0.0107138	0.214935	0.336325	-0.074789	-0.0289525	-0.141603	0.0222418	-0.121558	-0.359004	-0.192929	-0.342406	-0.267791	-0.420123	-0.351751	-0.365732	-0.079522	-0.04001	-0.193131	-0.136775	0.11361	-0.0722643	-0.0777005	0.0760915	
0.604701	2.00958	0	5	0.181966	0.355898	-0.303176	0.399178	-0.027693	-0.187227	-0.353519	-0.090623	0.288582	-0.004177	0.217966	0.357898	-0.07309	-0.022544	-0.137078	0.041212	-0.122574	-0.346116	-0.177133	-0.314386	-0.265897	-0.407207	-0.338128	-0.351493	-0.072001	-0.025805	-0.184868	-0.107488	0.128597	-0.082057	-0.066739	0.105842	
0.671412	2.00958	0	5	0.193268	0.39411	-0.294747	0.438131	-0.0281655	-0.161107	-0.346595	-0.0630985	0.289038	0.0022315	0.226121	0.380151	-0.0713918	-0.0161268	-0.132561	0.0602572	-0.121718	-0.338514	-0.165639	-0.286101	-0.261209	-0.402169	-0.332594	-0.33189	-0.0685642	-0.00887775	-0.182714	-0.0784003	0.14361	-0.0918667	-0.055778	0.135792	
0.729965	2.00806	0	5	0.20457	0.432322	-0.286317	0.477084	-0.028638	-0.134987	-0.33967	-0.035574	0.289494	0.00864	0.234275	0.402404	-0.0696935	-0.0097095	-0.128044	0.0793025	-0.120861	-0.330912	-0.154145	-0.257817	-0.25652	-0.397131	-0.32706	-0.312287	-0.0651275	0.0080495	-0.180559	-0.0493125	0.158623	-0.101677	-0.044817	0.165743	
0.770861	2.00653	0	5	0.215873	0.470533	-0.277887	0.516037	-0.0291105	-0.108867	-0.332746	-0.0080495	0.289951	0.0150485	0.24243	0.424656	-0.0679952	-0.00329225	-0.123527	0.0983477	-0.120005	-0.32331	-0.14265	-0.229532	-0.251832	-0.392093	-0.321527	-0.292684	-0.0616908	0.0249767	-0.178405	-0.0202247	0.173636	-0.111486	-0.033856	0.195693	
0.793654	2.00958	0	5	0.227175	0.508745	-0.269458	0.55499	-0.029583	-0.082747	-0.325822	0.019475	0.290407	0.021457	0.250585	0.446909	-0.066297	0.003125	-0.11901	0.117393	-0.119148	-0.315708	-0.131156	-0.201247	-0.247144	-0.387055	-0.315993	-0.273081	-0.058254	0.041904	-0.176251	0.008863	0.188649	-0.121296	-0.022895	0.225643	
0.802537	2.00806	0	5	0.235196	0.556495	-0.25158	0.605349	-0.0246268	-0.0470858	-0.317493	0.0668017	0.288543	0.0344272	0.260239	0.480196	-0.0680712	0.019363	-0.113423	0.144104	-0.119235	-0.305436	-0.108407	-0.180129	-0.246666	-0.379257	-0.310465	-0.253396	-0.0580335	0.0590612	-0.17312	0.0352558	0.206696	-0.131445	-0.0203307	0.255049	
0.801737	2.00806	0	5	0.243217	0.604244	-0.233703	0.655708	-0.0196705	-0.0114245	-0.309165	0.114128	0.286678	0.0473975	0.269894	0.513483	-0.0698455	0.035601	-0.107836	0.170814	-0.119321	-0.295164	-0.0856575	-0.159011	-0.246187	-0.371459	-0.304936	-0.233711	-0.057813	0.0762185	-0.169988	0.0616485	0.224744	-0.141595	-0.0177665	0.284454	
0.795484	2.00806	0	5	0.251238	0.651994	-0.215826	0.706067	-0.0147142	0.0242367	-0.300836	0.161455	0.284813	0.0603677	0.279548	0.54677	-0.0716197	0.051839	-0.102249	0.197525	-0.119408	-0.284892	-0.0629082	-0.137893	-0.245708	-0.36366	-0.299407	-0.214026	-0.0575925	0.0933758	-0.166857	0.0880413	0.242791	-0.151744	-0.0152023	0.313859	
0.788005	2.00806	0	5	0.259259	0.699743	-0.197948	0.756426	-0.009758	0.059898	-0.292507	0.208782	0.282949	0.073338	0.289202	0.580057	-0.073394	0.068077	-0.096662	0.224236	-0.119495	-0.27462	-0.040159	-0.116775	-0.24523	-0.355862	-0.293879	-0.194341	-0.057372	0.110533	-0.163726	0.114434	0.260838	-0.161893	-0.012638	0.343265	
0.78344	2.00806	0	5	0.264	0.739334	-0.185347	0.796837	-0.005767	0.0859575	-0.284252	0.244713	0.288173	0.0816967	0.301019	0.592219	-0.0728603	0.077799	-0.0872585	0.240257	-0.117702	-0.269655	-0.0334913	-0.0988945	-0.241951	-0.355976	-0.287891	-0.193585	-0.058258	0.113037	-0.162694	0.12034	0.275154	-0.169604	-0.0084415	0.343639	
0.783537	2.00958	0	5	0.268741	0.778925	-0.172746	0.837248	-0.001776	0.112017	-0.275997	0.280643	0.293397	0.0900555	0.312836	0.604382	-0.0723265	0.087521	-0.077855	0.256278	-0.115908	-0.26469	-0.0268235	-0.081014	-0.238671	-0.35609	-0.281903	-0.192829	-0.059144	0.115541	-0.161662	0.126245	0.28947	-0.177314	-0.004245	0.344012	
0.787482	2.00806	0	5	0.273481	0.818517	-0.160145	0.877658	0.002215	0.138076	-0.267742	0.316574	0.298622	0.0984143	0.324652	0.616544	-0.0717928	0.097243	-0.0684515	0.272299	-0.114115	-0.259726	-0.0201558	-0.0631335	-0.235392	-0.356203	-0.275915	-0.192072	-0.06003	0.118045	-0.160631	0.132151	0.303786	-0.185025	-4.85E-05	0.344386	
0.79433	2.00653	0	5	0.278222	0.858108	-0.147544	0.918069	0.006206	0.164136	-0.259487	0.352505	0.303846	0.106773	0.336469	0.628706	-0.071259	0.106965	-0.059048	0.28832	-0.112322	-0.254761	-0.013488	-0.045253	-0.232112	-0.356317	-0.269927	-0.191316	-0.060916	0.120549	-0.159599	0.138056	0.318102	-0.192736	0.004148	0.34476	
0.803136	2.00958	0	5	0.281256	0.902673	-0.142441	0.967239	0.003225	0.197494	-0.264947	0.391693	0.301969	0.119792	0.349809	0.651923	-0.070729	0.116704	-0.050914	0.308027	-0.110529	-0.249791	0.00268725	-0.0418873	-0.229765	-0.353791	-0.266084	-0.184479	-0.058594	0.122884	-0.159579	0.146826	0.33018	-0.202272	0.00967725	0.353625	
0.812959	2.01111	0	5	0.28429	0.947239	-0.137339	1.01641	0.000244	0.230852	-0.270407	0.43088	0.300092	0.132811	0.363148	0.67514	-0.070199	0.126443	-0.04278	0.327735	-0.108736	-0.24482	0.0188625	-0.0385215	-0.227418	-0.351264	-0.262242	-0.177643	-0.056272	0.125218	-0.15956	0.155595	0.342259	-0.211807	0.0152065	0.36249	
0.822853	2.00653	0	5	0.287324	0.991804	-0.132237	1.06558	-0.002737	0.26421	-0.275867	0.470068	0.298215	0.145831	0.376488	0.698358	-0.069669	0.136183	-0.034646	0.347442	-0.106943	-0.239849	0.0350378	-0.0351557	-0.225071	-0.348737	-0.258399	-0.170806	-0.05395	0.127553	-0.159541	0.164365	0.354337	-0.221343	0.0207358	0.371354	
0.83195	2.00958	0	5	0.290358	1.03637	-0.127134	1.11475	-0.005718	0.297568	-0.281327	0.509256	0.296338	0.15885	0.389828	0.721575	-0.069139	0.145922	-0.026512	0.367149	-0.10515	-0.234879	0.051213	-0.03179	-0.222724	-0.346211	-0.254556	-0.163969	-0.051628	0.129887	-0.159521	0.173135	0.366415	-0.230879	0.026265	0.380219	
0.839813	2.005	0	5	0.298307	1.0672	-0.115605	1.14598	-0.00390125	0.317402	-0.281356	0.533125	0.296784	0.165306	0.394661	0.738452	-0.0714625	0.152489	-0.0194458	0.379264	-0.107036	-0.229549	0.0473585	-0.0208967	-0.22694	-0.343456	-0.252404	-0.17005	-0.0574965	0.137576	-0.163568	0.184574	0.369436	-0.231209	0.0205118	0.396478	
0.846159	2.00653	0	5	0.306256	1.09803	-0.104077	1.1772	-0.0020845	0.337235	-0.281385	0.556994	0.297231	0.171762	0.399493	0.755329	-0.073786	0.159056	-0.0123795	0.391379	-0.108922	-0.224219	0.043504	-0.0100035	-0.231155	-0.340701	-0.250252	-0.176132	-0.063365	0.145265	-0.167616	0.196012	0.372456	-0.23154	0.0147585	0.412738	
0.850706	2.00958	0	5	0.314204	1.12885	-0.0925485	1.20843	-0.00026775	0.357069	-0.281413	0.580862	0.297677	0.178218	0.404326	0.772206	-0.0761095	0.165622	-0.00531325	0.403494	-0.110808	-0.218889	0.0396495	0.00088975	-0.23537	-0.337947	-0.248101	-0.182214	-0.0692335	0.152953	-0.171663	0.207451	0.375477	-0.23187	0.00900525	0.428998	
0.853171	2.00653	0	5	0.322153	1.15968	-0.08102	1.23966	0.001549	0.376902	-0.281442	0.604731	0.298123	0.184674	0.409158	0.789083	-0.078433	0.172189	0.001753	0.415609	-0.112694	-0.213559	0.035795	0.011783	-0.239586	-0.335192	-0.245949	-0.188295	-0.075102	0.160642	-0.17571	0.218889	0.378498	-0.2322	0.003252	0.445257	
0.85327	2.00653	0	5	0.336628	1.19007	-0.0694917	1.27111	-0.0002955	0.407116	-0.274659	0.633228	0.301345	0.191013	0.41918	0.806653	-0.0819215	0.182048	0.0075375	0.431402	-0.113637	-0.210893	0.0401658	0.011721	-0.241931	-0.33772	-0.254094	-0.182973	-0.0783078	0.160809	-0.180785	0.224405	0.370945	-0.227265	0.00889375	0.441571	
0.850722	2.00806	0	5	0.351103	1.22045	-0.0579635	1.30255	-0.00214	0.43733	-0.267877	0.661726	0.304567	0.197352	0.429203	0.824222	-0.08541	0.191907	0.013322	0.447194	-0.114581	-0.208226	0.0445365	0.011659	-0.244276	-0.340248	-0.262238	-0.177651	-0.0815135	0.160977	-0.185859	0.229921	0.363393	-0.22233	0.0145355	0.437885	
0.845648	2.00806	0	5	0.365578	1.25084	-0.0464352	1.334	-0.0039845	0.467543	-0.261094	0.690224	0.307788	0.20369	0.439225	0.841792	-0.0888985	0.201765	0.0191065	0.462987	-0.115524	-0.20556	0.0489072	0.011597	-0.246621	-0.342777	-0.270383	-0.172329	-0.0847192	0.161145	-0.190933	0.235437	0.35584	-0.217395	0.0201773	0.434198	
0.83947	2.00806	0	5	0.380053	1.28122	-0.034907	1.36545	-0.005829	0.497757	-0.254311	0.718721	0.31101	0.210029	0.449247	0.859362	-0.092387	0.211624	0.024891	0.47878	-0.116467	-0.202894	0.053278	0.011535	-0.248966	-0.345305	-0.278528	-0.167007	-0.087925	0.161312	-0.196008	0.240953	0.348287	-0.21246	0.025819	0.430512	
0.833873	2.00653	0	5	0.378228	1.30425	-0.028647	1.38628	-0.00283275	0.514323	-0.257074	0.726531	0.307119	0.221026	0.44516	0.886236	-0.0998867	0.221582	0.0306755	0.494629	-0.118355	-0.197559	0.053278	0.011535	-0.254112	-0.339913	-0.278528	-0.167007	-0.087925	0.161312	-0.191936	0.2471	0.359619	-0.219864	0.0187375	0.438268	
0.830543	2.005	0	5	0.376404	1.32727	-0.022387	1.40711	0.0001635	0.530889	-0.259838	0.734341	0.303228	0.232023	0.441073	0.91311	-0.107386	0.23154	0.03646	0.510478	-0.120243	-0.192224	0.053278	0.011535	-0.259257	-0.33452	-0.278528	-0.167007	-0.087925	0.161312	-0.187864	0.253248	0.37095	-0.227268	0.011656	0.446024	
0.831165	2.00806	0	5	0.374579	1.35029	-0.016127	1.42794	0.00315975	0.547455	-0.262602	0.742151	0.299337	0.24302	0.436986	0.939985	-0.114886	0.241499	0.0422445	0.526327	-0.12213	-0.186889	0.053278	0.011535	-0.264403	-0.329128	-0.278528	-0.167007	-0.087925	0.161312	-0.183793	0.259395	0.382281	-0.234673	0.0045745	0.453779	
0.837423	2.00806	0	5	0.372754	1.37332	-0.009867	1.44877	0.006156	0.564021	-0.265365	0.749961	0.295446	0.254017	0.432899	0.966859	-0.122386	0.251457	0.048029	0.542176	-0.124018	-0.181554	0.053278	0.011535	-0.269549	-0.323736	-0.278528	-0.167007	-0.087925	0.161312	-0.179721	0.265542	0.393613	-0.242077	-0.002507	0.461535	
0.850963	2.005	0	5	0.377461	1.3958	-0.00526	1.47435	0.00792175	0.584099	-0.268228	0.781932	0.303626	0.292803	0.453992	1.03029	-0.111008	0.26429	0.0792335	0.572519	-0.122568	-0.2458	-0.15656	-0.516647	-0.238083	-0.293355	-0.233427	-0.205818	-0.103585	0.152302	-0.253768	0.124858	0.31536	-0.192588	-0.187966	0.252803	
0.870396	2.00958	0	5	0.382168	1.41828	-0.000653	1.49994	0.0096875	0.604177	-0.271091	0.813902	0.311806	0.331589	0.475086	1.09372	-0.09963	0.277123	0.110438	0.602861	-0.121118	-0.310046	-0.366398	-1.04483	-0.206618	-0.262975	-0.188326	-0.244629	-0.119245	0.143291	-0.327815	-0.015827	0.237107	-0.1431	-0.373425	0.044072	
0.889246	2.00348	0	5	0.386875	1.44076	0.003954	1.52552	0.0114532	0.624255	-0.273954	0.845873	0.319987	0.370375	0.496179	1.15715	-0.088252	0.289957	0.141643	0.633204	-0.119667	-0.374292	-0.576235	-1.57301	-0.175152	-0.232595	-0.143224	-0.283441	-0.134904	0.13428	-0.401861	-0.156511	0.158855	-0.0936115	-0.558884	-0.16466	
0.900552	2.00653	0	5	0.391582	1.46324	0.008561	1.5511	0.013219	0.644333	-0.276817	0.877844	0.328167	0.409161	0.517273	1.22058	-0.076874	0.30279	0.172847	0.663547	-0.118217	-0.438538	-0.786073	-2.10119	-0.143686	-0.202214	-0.098123	-0.322252	-0.150564	0.12527	-0.475908	-0.297196	0.080602	-0.044123	-0.744343	-0.373391	
0.897354	2.00806	0	5	0.363721	1.47048	0.0190925	1.57293	0.0337295	0.686979	-0.235728	0.917683	0.34061	0.42833	0.58282	1.26825	-0.0585917	0.318811	0.236499	0.690187	-0.112674	-0.444192	-0.845135	-2.17579	-0.124816	-0.181743	-0.0843078	-0.307902	-0.17343	0.119106	-0.480968	-0.308878	0.043233	-0.0197053	-0.784429	-0.424309	
0.87269	2.00653	0	5	0.335859	1.47772	0.029624	1.59476	0.05424	0.729624	-0.194638	0.957523	0.353054	0.447498	0.648368	1.31593	-0.0403095	0.334832	0.300152	0.716827	-0.107131	-0.449846	-0.904196	-2.2504	-0.105945	-0.161271	-0.0704925	-0.293552	-0.196296	0.112943	-0.486028	-0.320559	0.005864	0.0047125	-0.824515	-0.475228	
0.819598	2.00806	0	5	0.307998	1.48496	0.0401555	1.61659	0.0747505	0.772269	-0.153549	0.997362	0.365498	0.466666	0.713916	1.3636	-0.0220272	0.350852	0.363804	0.743468	-0.101588	-0.4555	-0.963258	-2.325	-0.0870753	-0.1408	-0.0566772	-0.279203	-0.219161	0.106779	-0.491089	-0.332241	-0.031505	0.0291303	-0.8646	-0.526146	
0.734206	2.005	0	5	0.280137	1.4922	0.050687	1.63842	0.095261	0.814915	-0.11246	1.0372	0.377941	0.485835	0.779463	1.41127	-0.003745	0.366873	0.427456	0.770108	-0.096045	-0.461154	-1.02232	-2.3996	-0.068205	-0.120328	-0.042862	-0.264853	-0.242027	0.100615	-0.496149	-0.343923	-0.068874	0.053548	-0.904686	-0.577064	
0.63274	2.00806	0	5	0.246103	1.48165	0.0500058	1.65327	0.102433	0.845155	-0.0806283	1.04387	0.376724	0.481504	0.804464	1.40322	0.00314525	0.370018	0.455711	0.78889	-0.0943128	-0.446012	-0.974314	-2.28218	-0.0639497	-0.123109	-0.049335	-0.246559	-0.258456	0.0941302	-0.486945	-0.300566	-0.0941798	0.06844	-0.888774	-0.540111	
0.539476	2.005	0	5	0.212068	1.4711	0.0493245	1.66812	0.109605	0.875395	-0.0487965	1.05054	0.375507	0.477172	0.829465	1.39517	0.0100355	0.373163	0.483967	0.807671	-0.0925805	-0.430869	-0.926307	-2.16475	-0.0596945	-0.125889	-0.055808	-0.228265	-0.274884	0.0876455	-0.477741	-0.257209	-0.119485	0.083332	-0.872862	-0.503157	
0.478707	2.00348	0	5	0.178034	1.46055	0.0486432	1.68296	0.116778	0.905636	-0.0169648	1.05721	0.374289	0.47284	0.854466	1.38712	0.0169258	0.376307	0.512223	0.826453	-0.0908483	-0.415726	-0.878301	-2.04732	-0.0554393	-0.12867	-0.062281	-0.209971	-0.291312	0.0811608	-0.468537	-0.213852	-0.144791	0.098224	-0.856951	-0.466203	
0.468469	2.005	0	5	0.143999	1.45	0.047962	1.69781	0.12395	0.935876	0.014867	1.06388	0.373072	0.468509	0.879467	1.37907	0.023816	0.379452	0.540478	0.845234	-0.089116	-0.400584	-0.830295	-1.92989	-0.051184	-0.13145	-0.068754	-0.191677	-0.307741	0.074676	-0.459333	-0.170495	-0.170097	0.113116	-0.841039	-0.42925	
0.502352	2.005	0	5	0.124556	1.45181	0.054888	1.7041	0.116503	0.956922	0.0357357	1.06555	0.377868	0.470502	0.902649	1.37638	0.0278515	0.379366	0.557627	0.862816	-0.084574	-0.393361	-0.793049	-1.8489	-0.051184	-0.13145	-0.0752405	-0.173345	-0.32412	0.068202	-0.45221	-0.138428	-0.181242	0.120398	-0.833116	-0.404667	
0.567978	2.00653	0	0	0.105112	1.45362	0.061814	1.7104	0.109057	0.977969	0.0566045	1.06723	0.382664	0.472495	0.925831	1.37368	0.031887	0.37928	0.574777	0.880397	-0.080032	-0.386138	-0.755804	-1.7679	-0.051184	-0.13145	-0.081727	-0.155013	-0.340499	0.061728	-0.445087	-0.106361	-0.192387	0.127681	-0.825193	-0.380083	
0.652972	2.00653	0	0	0.0856692	1.45543	0.06874	1.71669	0.10161	0.999015	0.0774733	1.0689	0.38746	0.474488	0.949014	1.37098	0.0359225	0.379194	0.591926	0.897979	-0.07549	-0.378914	-0.718558	-1.68691	-0.051184	-0.13145	-0.0882135	-0.136682	-0.356878	0.055254	-0.437965	-0.074294	-0.203532	0.134964	-0.817271	-0.355499	
0.744955	2.005	0	0	0.066226	1.45724	0.075666	1.72299	0.094163	1.02006	0.098342	1.07057	0.392256	0.476481	0.972196	1.36828	0.039958	0.379108	0.609075	0.91556	-0.070948	-0.371691	-0.681313	-1.60591	-0.051184	-0.13145	-0.0947	-0.11835	-0.373257	0.04878	-0.430842	-0.042227	-0.214677	0.142246	-0.809348	-0.330916	
0.831551	2.00806	0	0	0.0630955	1.44841	0.074691	1.71281	0.09292	1.02357	0.0913945	1.06592	0.399064	0.480586	0.961133	1.38382	0.0451708	0.375702	0.60726	0.942759	-0.0710252	-0.361434	-0.661443	-1.53292	-0.0488188	-0.128884	-0.1012	-0.0999805	-0.382743	0.0492622	-0.425759	-0.0129835	-0.229515	0.151941	-0.785138	-0.316845	
0.900383	2.00348	0	0	0.059965	1.43957	0.073716	1.70262	0.091677	1.02709	0.084447	1.06127	0.405872	0.484691	0.950071	1.39936	0.0503835	0.372296	0.605444	0.969957	-0.0711025	-0.351178	-0.641574	-1.45994	-0.0464535	-0.126319	-0.1077	-0.081611	-0.392228	0.0497445	-0.420675	0.01626	-0.244353	0.161637	-0.760927	-0.302774	
0.940051	2.00195	0	0	0.0568345	1.43074	0.072741	1.69244	0.090434	1.0306	0.0774995	1.05662	0.41268	0.488796	0.939008	1.4149	0.0555962	0.36889	0.603629	0.997155	-0.0711797	-0.340921	-0.621704	-1.38695	-0.0440883	-0.123753	-0.114199	-0.0632415	-0.401714	0.0502268	-0.415592	0.0455035	-0.25919	0.171332	-0.736717	-0.288703	
0.950284	2.005	0	0	0.053704	1.42191	0.071766	1.68225	0.089191	1.03411	0.070552	1.05197	0.419488	0.492901	0.927945	1.43044	0.060809	0.365484	0.601814	1.02435	-0.071257	-0.330664	-0.601834	-1.31396	-0.041723	-0.121187	-0.120699	-0.044872	-0.4112	0.050709	-0.410509	0.074747	-0.274028	0.181027	-0.712507	-0.274632	
0.93789	2.005	0	0	0.048908	1.4178	0.0674732	1.68145	0.0796418	1.04846	0.0663777	1.05164	0.427093	0.494782	0.929435	1.44196	0.0584595	0.372124	0.605054	1.04835	-0.0694565	-0.325709	-0.577167	-1.25363	-0.0426695	-0.118512	-0.12504	-0.0326048	-0.422949	0.0488702	-0.412504	0.0891202	-0.274028	0.181027	-0.712677	-0.250515	
0.909793	2.00806	0	0	0.044112	1.41369	0.0631805	1.68066	0.0700925	1.06281	0.0622035	1.05131	0.434698	0.496663	0.930925	1.45347	0.05611	0.378763	0.608294	1.07234	-0.067656	-0.320755	-0.552501	-1.1933	-0.043616	-0.115837	-0.129381	-0.0203375	-0.434698	0.0470315	-0.4145	0.103493	-0.274028	0.181027	-0.712847	-0.226397	
0.872914	2.00348	0	0	0.039316	1.40958	0.0588877	1.67986	0.0605432	1.07715	0.0580293	1.05097	0.442304	0.498544	0.932415	1.46498	0.0537605	0.385403	0.611535	1.09634	-0.0658555	-0.315801	-0.527834	-1.13297	-0.0445625	-0.113162	-0.133721	-0.00807025	-0.446447	0.0451927	-0.416495	0.117867	-0.274028	0.181027	-0.713017	-0.20228	
0.834177	2.00348	0	0	0.03452	1.40548	0.054595	1.67906	0.050994	1.0915	0.053855	1.05064	0.449909	0.500425	0.933905	1.4765	0.051411	0.392043	0.614775	1.12033	-0.064055	-0.310846	-0.503167	-1.07264	-0.045509	-0.110487	-0.138062	0.004197	-0.458196	0.043354	-0.41849	0.13224	-0.274028	0.181027	-0.713187	-0.178163	
0.800491	2.00348	0	0	0.041176	1.38666	0.0526372	1.65876	0.055567	1.09122	0.0567138	1.03044	0.461469	0.491158	0.925605	1.45282	0.0601505	0.378677	0.615583	1.14018	-0.061233	-0.318821	-0.47838	-1.03561	-0.0464575	-0.126302	-0.141921	-0.00271275	-0.465553	0.0291687	-0.422516	0.126155	-0.292539	0.193123	-0.704977	-0.189537	
0.776554	2.00195	0	0	0.047832	1.36785	0.0506795	1.63846	0.06014	1.09093	0.0595725	1.01024	0.473029	0.481891	0.917306	1.42914	0.06889	0.365311	0.616392	1.16003	-0.058411	-0.326796	-0.453593	-0.998587	-0.047406	-0.142118	-0.14578	-0.0096225	-0.472911	0.0149835	-0.426543	0.12007	-0.31105	0.205218	-0.696767	-0.200911	
0.762341	2.00348	0	0	0.054488	1.34904	0.0487218	1.61816	0.064713	1.09065	0.0624313	0.990037	0.484589	0.472624	0.909007	1.40546	0.0776295	0.351945	0.617201	1.17988	-0.055589	-0.33477	-0.428807	-0.961559	-0.0483545	-0.157933	-0.149638	-0.0165323	-0.480268	0.00079825	-0.430569	0.113986	-0.329561	0.217313	-0.688556	-0.212286	
0.757225	2.00348	0	0	0.061144	1.33023	0.046764	1.59786	0.069286	1.09037	0.06529	0.969836	0.496149	0.463357	0.900707	1.38178	0.086369	0.338579	0.618009	1.19973	-0.052767	-0.342745	-0.40402	-0.924532	-0.049303	-0.173748	-0.153497	-0.023442	-0.487625	-0.013387	-0.434596	0.107901	-0.348072	0.229409	-0.680346	-0.22366	
0.760576	2.00653	0	0	0.0613227	1.31208	0.0457795	1.58774	0.064713	1.09065	0.0528253	0.956654	0.500531	0.458781	0.893903	1.36966	0.0875428	0.335262	0.621492	1.21204	-0.0508873	-0.348058	-0.386464	-0.890437	-0.046471	-0.181752	-0.151329	-0.0295693	-0.493574	-0.022763	-0.439621	0.104655	-0.358403	0.234517	-0.670829	-0.226875	
0.771763	2.00348	0	5	0.0615015	1.29393	0.044795	1.57762	0.06014	1.09093	0.0403605	0.943472	0.504913	0.454205	0.8871	1.35753	0.0887165	0.331945	0.624975	1.22436	-0.0490075	-0.353371	-0.368908	-0.856342	-0.043639	-0.189755	-0.149161	-0.0356965	-0.499524	-0.032139	-0.444647	0.101409	-0.368734	0.239625	-0.661312	-0.230089	
0.790158	2.005	0	5	0.0616802	1.27578	0.0438105	1.5675	0.055567	1.09122	0.0278957	0.930289	0.509295	0.449629	0.880297	1.3454	0.0898903	0.328628	0.628458	1.23668	-0.0471277	-0.358683	-0.351352	-0.822246	-0.040807	-0.197759	-0.146993	-0.0418237	-0.505473	-0.041515	-0.449672	0.0981637	-0.379066	0.244733	-0.651795	-0.233303	
0.814438	2.00348	0	5	0.061859	1.25762	0.042826	1.55738	0.050994	1.0915	0.015431	0.917107	0.513677	0.445053	0.873493	1.33327	0.091064	0.325311	0.631941	1.24899	-0.045248	-0.363996	-0.333796	-0.788151	-0.037975	-0.205762	-0.144825	-0.047951	-0.511423	-0.050891	-0.454697	0.094918	-0.389397	0.249841	-0.642278	-0.236518	
0.839203	2.00348	0	5	0.0651733	1.24826	0.039201	1.54184	0.0476685	1.08827	0.004389	0.900029	0.51806	0.440476	0.870494	1.31044	0.0934097	0.318681	0.633008	1.25707	-0.0451758	-0.374244	-0.332674	-0.767336	-0.0408233	-0.216191	-0.154705	-0.055608	-0.519977	-0.0528692	-0.463726	0.0942945	-0.397537	0.256802	-0.643661	-0.232609	
0.857563	2.00653	0	5	0.0684875	1.23889	0.035576	1.52631	0.044343	1.08503	-0.006653	0.882951	0.522444	0.4359	0.867494	1.28762	0.0957555	0.312051	0.634076	1.26514	-0.0451035	-0.384491	-0.331551	-0.746522	-0.0436715	-0.22662	-0.164585	-0.063265	-0.528531	-0.0548475	-0.472755	0.093671	-0.405676	0.263764	-0.645045	-0.2287	
0.862625	2.005	0	5	0.0718017	1.22953	0.031951	1.51077	0.0410175	1.0818	-0.017695	0.865873	0.526827	0.431323	0.864494	1.26479	0.0981013	0.305421	0.635143	1.27321	-0.0450312	-0.394738	-0.330429	-0.725707	-0.0465197	-0.237048	-0.174464	-0.070922	-0.537086	-0.0568258	-0.481784	0.0930475	-0.413816	0.270726	-0.646428	-0.22479	
0.847498	2.005	0	5	0.075116	1.22016	0.028326	1.49524	0.037692	1.07857	-0.028737	0.848795	0.53121	0.426747	0.861495	1.24196	0.100447	0.298791	0.636211	1.28129	-0.044959	-0.404986	-0.329307	-0.704892	-0.049368	-0.247477	-0.184344	-0.078579	-0.54564	-0.058804	-0.490813	0.092424	-0.421956	0.277687	-0.647811	-0.220881	
0.805287	2.00195	0	5	0.0897103	1.21422	0.0375463	1.48207	0.0422618	1.07828	-0.0301012	0.840599	0.534018	0.426624	0.866797	1.24263	0.10801	0.288756	0.635928	1.29318	-0.0412083	-0.415586	-0.325712	-0.691036	-0.0522178	-0.257883	-0.188197	-0.0854535	-0.546169	-0.0660175	-0.49182	0.086565	-0.42489	0.277961	-0.646428	-0.22479	
0.730385	2.005	0	5	0.104304	1.20829	0.0467665	1.46889	0.0468315	1.078	-0.0314655	0.832402	0.536827	0.426501	0.8721	1.24329	0.115574	0.27872	0.635645	1.30508	-0.0374575	-0.426186	-0.322116	-0.67718	-0.0550675	-0.268288	-0.192051	-0.092328	-0.546698	-0.073231	-0.492827	0.080706	-0.427823	0.278235	-0.645045	-0.2287	
0.634649	2.00653	0	5	0.118899	1.20235	0.0559868	1.45572	0.0514013	1.07772	-0.0328298	0.824206	0.539636	0.426379	0.877402	1.24395	0.123138	0.268685	0.635362	1.31697	-0.0337068	-0.436786	-0.31852	-0.663323	-0.0579173	-0.278693	-0.195904	-0.0992025	-0.547228	-0.0804445	-0.493835	0.074847	-0.430756	0.278509	-0.643661	-0.232609	
0.542565	2.00348	0	5	0.133493	1.19641	0.065207	1.44255	0.055971	1.07743	-0.034194	0.81601	0.542444	0.426256	0.882704	1.24461	0.130701	0.25865	0.635079	1.32887	-0.029956	-0.447386	-0.314925	-0.649467	-0.060767	-0.289099	-0.199757	-0.106077	-0.547757	-0.087658	-0.494842	0.068988	-0.43369	0.278783	-0.642278	-0.236518	
0.478895	2.00043	0	5	0.130331	1.18769	0.05992	1.43173	0.055971	1.07743	-0.042464	0.803274	0.549642	0.421553	0.872104	1.24328	0.133044	0.25203	0.633439	1.34461	-0.0327025	-0.449663	-0.313829	-0.628516	-0.0621925	-0.294293	-0.197598	-0.112179	-0.549496	-0.082743	-0.495842	0.0718127	-0.43369	0.278783	-0.640975	-0.22835	
0.464631	2.00653	0	5	0.127169	1.17896	0.054633	1.42091	0.055971	1.07743	-0.050734	0.790539	0.556839	0.41685	0.861505	1.24196	0.135386	0.24541	0.631798	1.36035	-0.035449	-0.451939	-0.312733	-0.607565	-0.063618	-0.299487	-0.195439	-0.118281	-0.551235	-0.077828	-0.496841	0.0746375	-0.43369	0.278783	-0.639671	-0.220181	
0.49621	2.005	0	5	0.124007	1.17023	0.049346	1.41009	0.055971	1.07743	-0.059004	0.777803	0.564037	0.412147	0.850905	1.24064	0.137729	0.238789	0.630158	1.37609	-0.0381955	-0.454215	-0.311637	-0.586614	-0.0650435	-0.304681	-0.193279	-0.124384	-0.552975	-0.072913	-0.497841	0.0774622	-0.43369	0.278783	-0.638367	-0.212012	
0.56024	2.005	0	5	0.120845	1.16151	0.044059	1.39927	0.055971	1.07743	-0.067274	0.765067	0.571234	0.407444	0.840305	1.23932	0.140071	0.232169	0.628518	1.39183	-0.040942	-0.456492	-0.310541	-0.565663	-0.066469	-0.309875	-0.19112	-0.130486	-0.554714	-0.067998	-0.498841	0.080287	-0.43369	0.278783	-0.637064	-0.203844	
0.643301	2.00653	0	5	0.12732	1.16087	0.044059	1.39927	0.0547267	1.08095	-0.067274	0.765067	0.58621	0.419958	0.847104	1.25138	0.153405	0.228546	0.644341	1.41387	-0.0325778	-0.470092	-0.385295	-0.581615	-0.0551605	-0.323385	-0.20098	-0.138098	-0.554714	-0.067998	-0.490816	0.0837372	-0.43369	0.278783	-0.641134	-0.204192	
0.731977	2.00195	0	5	0.133794	1.16024	0.044059	1.39927	0.0534825	1.08447	-0.067274	0.765067	0.601187	0.432472	0.853903	1.26344	0.166739	0.224922	0.660165	1.43591	-0.0242135	-0.483692	-0.460048	-0.597567	-0.043852	-0.336894	-0.21084	-0.14571	-0.554714	-0.067998	-0.482791	0.0871875	-0.43369	0.278783	-0.645205	-0.204541	
0.81285	2.00348	0	5	0.140269	1.1596	0.044059	1.39927	0.0522382	1.08798	-0.067274	0.765067	0.616163	0.444986	0.860703	1.27551	0.180073	0.221299	0.675988	1.45795	-0.0158492	-0.497292	-0.534802	-0.613518	-0.0325435	-0.350403	-0.220699	-0.153323	-0.554714	-0.067998	-0.474767	0.0906378	-0.43369	0.278783	-0.649276	-0.204889	
0.8725	2.005	0	5	0.146743	1.15897	0.044059	1.39927	0.050994	1.0915	-0.067274	0.765067	0.631139	0.4575	0.867502	1.28757	0.193407	0.217676	0.691811	1.47999	-0.007485	-0.510892	-0.609556	-0.62947	-0.021235	-0.363913	-0.230559	-0.160935	-0.554714	-0.067998	-0.466742	0.094088	-0.43369	0.278783	-0.653346	-0.205237	
0.899431	2.00195	0	5	0.153224	1.15833	0.0467023	1.40468	0.0609828	1.10122	-0.059004	0.777803	0.640055	0.463712	0.865188	1.30977	0.206768	0.214039	0.706617	1.49396	-5.75E-05	-0.52184	-0.62348	-0.625744	-0.0202965	-0.366565	-0.228406	-0.16702	-0.553316	-0.0632397	-0.462717	0.108878	-0.42631	0.27396	-0.65066	-0.200975	
0.896697	2.00195	0	5	0.159706	1.15769	0.0493455	1.41008	0.0709715	1.11093	-0.050734	0.790539	0.648971	0.469924	0.862874	1.33196	0.220129	0.210402	0.721424	1.50792	0.00737	-0.532788	-0.637404	-0.622019	-0.019358	-0.369217	-0.226252	-0.173106	-0.551918	-0.0584815	-0.458692	0.123669	-0.418929	0.269138	-0.647975	-0.196712	
0.874029	2.00348	0	5	0.166187	1.15705	0.0519888	1.41549	0.0809602	1.12065	-0.042464	0.803274	0.657886	0.476136	0.86056	1.35416	0.23349	0.206765	0.736231	1.52189	0.0147975	-0.543737	-0.651327	-0.618293	-0.0184195	-0.371869	-0.224099	-0.179192	-0.550519	-0.0537233	-0.454667	0.138459	-0.411549	0.264315	-0.645289	-0.192449	
0.841187	2.00348	0	5	0.172668	1.15642	0.054632	1.4209	0.090949	1.13037	-0.034194	0.81601	0.666802	0.482348	0.858246	1.37636	0.246851	0.203128	0.751037	1.53586	0.022225	-0.554685	-0.665251	-0.614567	-0.017481	-0.374521	-0.221946	-0.185277	-0.549121	-0.048965	-0.450642	0.153249	-0.404168	0.259492	-0.642604	-0.188187	
0.807936	2.005	0	5	0.171011	1.1611	0.0572758	1.42631	0.0942827	1.13361	-0.0342252	0.82815	0.682639	0.492685	0.861642	1.38243	0.254991	0.202906	0.74453	1.54308	0.0259613	-0.565244	-0.679994	-0.655762	-0.0104185	-0.385249	-0.225796	-0.192109	-0.545981	-0.049125	-0.440585	0.159772	-0.396781	0.254665	-0.642604	-0.188187	
0.784037	2.00348	0	5	0.169355	1.16578	0.0599195	1.43172	0.0976165	1.13686	-0.0342565	0.84029	0.698475	0.503023	0.865039	1.38851	0.263131	0.202684	0.738023	1.55029	0.0296975	-0.575804	-0.694736	-0.696957	-0.003356	-0.395977	-0.229647	-0.19894	-0.542841	-0.049285	-0.430528	0.166295	-0.389394	0.249839	-0.642604	-0.188187	
0.778653	2.00195	0	5	0.167699	1.17046	0.0625633	1.43714	0.10095	1.1401	-0.0342878	0.85243	0.714311	0.51336	0.868436	1.39458	0.271272	0.202462	0.731517	1.5575	0.0334337	-0.586364	-0.709479	-0.738152	0.0037065	-0.406704	-0.233497	-0.205772	-0.539702	-0.049445	-0.420472	0.172818	-0.382007	0.245012	-0.642604	-0.188187	
0.790372	1.9989	0	5	0.166042	1.17514	0.065207	1.44255	0.104284	1.14335	-0.034319	0.86457	0.730148	0.523698	0.871832	1.40065	0.279412	0.20224	0.72501	1.56472	0.03717	-0.596923	-0.724221	-0.779347	0.010769	-0.417432	-0.237347	-0.212604	-0.536562	-0.049605	-0.410415	0.179341	-0.37462	0.240185	-0.642604	-0.188187	
0.808742	2.00195	0	5	0.187307	1.15046	0.073417	1.41935	0.10678	1.13629	-0.0439475	0.843622	0.736612	0.521201	0.865041	1.38852	0.288178	0.188868	0.716094	1.56758	0.0325918	-0.604065	-0.747502	-0.796044	0.00933075	-0.4226	-0.239049	-0.225489	-0.538304	-0.0446818	-0.404371	0.188511	-0.367227	0.235354	-0.64399	-0.184271	
0.823021	2.005	0	5	0.208572	1.12577	0.081627	1.39614	0.109276	1.12924	-0.053576	0.822674	0.743076	0.518703	0.858249	1.37638	0.296945	0.175495	0.707179	1.57044	0.0280135	-0.611208	-0.770783	-0.812741	0.0078925	-0.427768	-0.240752	-0.238374	-0.540046	-0.0397585	-0.398327	0.19768	-0.359834	0.230523	-0.645375	-0.180355	
0.822463	2.00043	0	5	0.229836	1.10108	0.089837	1.37294	0.111772	1.12219	-0.0632045	0.801727	0.74954	0.516206	0.851457	1.36424	0.305711	0.162123	0.698263	1.57331	0.0234352	-0.61835	-0.794064	-0.829438	0.00645425	-0.432935	-0.242455	-0.251259	-0.541788	-0.0348352	-0.392282	0.20685	-0.35244	0.225693	-0.646761	-0.176439	
0.796328	2.00043	0	5	0.251101	1.0764	0.098047	1.34974	0.114268	1.11513	-0.072833	0.780779	0.756004	0.513709	0.844666	1.35211	0.314477	0.148751	0.689347	1.57617	0.018857	-0.625492	-0.817345	-0.846135	0.005016	-0.438103	-0.244157	-0.264144	-0.54353	-0.029912	-0.386238	0.21602	-0.345047	0.220862	-0.648147	-0.172523	
0.734382	2.00043	0	5	0.262462	1.07976	0.1007	1.35513	0.117606	1.11837	-0.0756147	0.78864	0.768155	0.510952	0.854855	1.37032	0.326154	0.138575	0.69417	1.58488	0.0253407	-0.633778	-0.820314	-0.849499	0.0035775	-0.443265	-0.252294	-0.258827	-0.545273	-0.0249863	-0.383214	0.224996	-0.341348	0.218445	-0.645462	-0.168252	
0.642948	2.005	0	5	0.273823	1.08313	0.103354	1.36053	0.120943	1.12162	-0.0783965	0.796502	0.780305	0.508195	0.865044	1.38854	0.337832	0.128398	0.698994	1.59358	0.0318245	-0.642064	-0.823283	-0.852862	0.002139	-0.448427	-0.260432	-0.25351	-0.547016	-0.0200605	-0.38019	0.233972	-0.337649	0.216028	-0.642777	-0.163982	
0.548121	2.005	0	5	0.285185	1.0865	0.106007	1.36593	0.124281	1.12486	-0.0811783	0.804364	0.792455	0.505438	0.875234	1.40676	0.349509	0.118222	0.703817	1.60228	0.0383083	-0.65035	-0.826252	-0.856226	0.0007005	-0.453589	-0.268569	-0.248193	-0.548759	-0.0151347	-0.377167	0.242949	-0.33395	0.213611	-0.640091	-0.159711	
0.477156	2.00195	0	5	0.296546	1.08987	0.10866	1.37132	0.127618	1.1281	-0.08396	0.812225	0.804606	0.502681	0.885423	1.42498	0.361186	0.108046	0.70864	1.61098	0.044792	-0.658636	-0.829221	-0.85959	-0.000738	-0.458751	-0.276706	-0.242876	-0.550502	-0.010209	-0.374143	0.251925	-0.330251	0.211194	-0.637406	-0.15544	
0.454821	1.9989	0	5	0.299747	1.09859	0.10903	1.39609	0.127207	1.14195	-0.0895753	0.840123	0.809155	0.513548	0.898586	1.4664	0.3641	0.111236	0.710731	1.62743	0.0475508	-0.656389	-0.817864	-0.856399	-0.00167375	-0.456106	-0.26257	-0.24745	-0.54771	-0.00065975	-0.369103	0.263994	-0.319144	0.203937	-0.633422	-0.142957	
