0.685	2.08282	0	0	-0.223295	-0.518011	-0.214529	-0.435581	-0.027647	-0.237667	-0.0757	-0.169609	0.088689	-0.078068	-0.106731	-0.028206	-0.013265	-0.066942	-0.155832	0.16262	-0.10708	-0.115235	-0.227771	-0.083124	-0.129747	-0.086328	-0.083255	-0.221082	-0.125619	-0.415089	-0.148608	-0.327983	-0.138954	-0.238082	-0.211867	-0.36786	
0.691841	2.09045	0	0	-0.216703	-0.506183	-0.217013	-0.42856	-0.0251353	-0.235655	-0.0781267	-0.162751	0.0940243	-0.0758605	-0.108398	-0.0234945	-0.0104403	-0.0635785	-0.158691	0.170702	-0.106108	-0.117982	-0.225754	-0.0888233	-0.128037	-0.0911607	-0.0874957	-0.220941	-0.134431	-0.403718	-0.150692	-0.322094	-0.140221	-0.234502	-0.220991	-0.358236	
0.694317	2.08282	0	0	-0.21011	-0.494355	-0.219498	-0.42154	-0.0226235	-0.233644	-0.0805535	-0.155892	0.0993595	-0.073653	-0.110066	-0.018783	-0.0076155	-0.060215	-0.161551	0.178784	-0.105136	-0.120728	-0.223738	-0.0945225	-0.126328	-0.0959935	-0.0917365	-0.2208	-0.143242	-0.392346	-0.152776	-0.316205	-0.141487	-0.230922	-0.230114	-0.348611	
0.693487	2.08588	0	0	-0.203518	-0.482526	-0.221982	-0.414519	-0.0201118	-0.231632	-0.0829803	-0.149034	0.104695	-0.0714455	-0.111733	-0.0140715	-0.00479075	-0.0568515	-0.164411	0.186866	-0.104165	-0.123475	-0.221722	-0.100222	-0.124618	-0.100826	-0.0959773	-0.220659	-0.152054	-0.380974	-0.154859	-0.310316	-0.142754	-0.227341	-0.239238	-0.338986	
0.690406	2.08588	0	0	-0.196926	-0.470698	-0.224466	-0.407498	-0.0176	-0.22962	-0.085407	-0.142176	0.11003	-0.069238	-0.1134	-0.00936	-0.001966	-0.053488	-0.16727	0.194948	-0.103193	-0.126221	-0.219705	-0.105921	-0.122908	-0.105659	-0.100218	-0.220518	-0.160865	-0.369603	-0.156943	-0.304427	-0.144021	-0.223761	-0.248362	-0.329362	
0.686131	2.08588	0	0	-0.186574	-0.459264	-0.21942	-0.397282	-0.0134153	-0.223214	-0.0849142	-0.135462	0.11187	-0.0571362	-0.115068	-0.00464625	-0.001541	-0.0433352	-0.164222	0.199176	-0.0997242	-0.126376	-0.221722	-0.100222	-0.115444	-0.108678	-0.100218	-0.220518	-0.15593	-0.370019	-0.154448	-0.301527	-0.145288	-0.22018	-0.246676	-0.334126	
0.681717	2.08588	0	0	-0.176223	-0.447829	-0.214375	-0.387066	-0.0092305	-0.216807	-0.0844215	-0.128747	0.11371	-0.0450345	-0.116736	6.75E-05	-0.001116	-0.0331825	-0.161175	0.203403	-0.0962555	-0.126531	-0.223738	-0.0945225	-0.10798	-0.111698	-0.100218	-0.220518	-0.150995	-0.370435	-0.151952	-0.298627	-0.146556	-0.216598	-0.24499	-0.33889	
0.678223	2.08435	0	0	-0.165872	-0.436395	-0.20933	-0.37685	-0.00504575	-0.2104	-0.0839287	-0.122033	0.11555	-0.0329327	-0.118404	0.00478125	-0.000691	-0.0230298	-0.158128	0.20763	-0.0927868	-0.126686	-0.225754	-0.0888233	-0.100516	-0.114718	-0.100218	-0.220518	-0.14606	-0.370851	-0.149456	-0.295728	-0.147823	-0.213016	-0.243305	-0.343655	
0.676703	2.08588	0	0	-0.15552	-0.424961	-0.204284	-0.366634	-0.000861	-0.203994	-0.083436	-0.115318	0.11739	-0.020831	-0.120072	0.009495	-0.000266	-0.012877	-0.15508	0.211858	-0.089318	-0.126841	-0.227771	-0.083124	-0.093052	-0.117737	-0.100218	-0.220518	-0.141125	-0.371267	-0.146961	-0.292828	-0.14909	-0.209435	-0.241619	-0.348419	
0.678215	2.08435	0	0	-0.15078	-0.407781	-0.199236	-0.356393	-0.00423075	-0.19447	-0.0792105	-0.111035	0.119226	-0.00870075	-0.126752	0.0283757	0.0013575	-0.0061045	-0.159378	0.224006	-0.0887655	-0.118749	-0.227345	-0.0746315	-0.0940237	-0.105948	-0.0983995	-0.213813	-0.136423	-0.357463	-0.139468	-0.284115	-0.152895	-0.198682	-0.233485	-0.339071	
0.683815	2.08435	0	0	-0.14604	-0.390601	-0.194188	-0.346152	-0.0076005	-0.184947	-0.074985	-0.106753	0.121061	0.0034295	-0.133433	0.0472565	0.002981	0.000668	-0.163677	0.236153	-0.088213	-0.110658	-0.226918	-0.066139	-0.0949955	-0.094158	-0.096581	-0.207108	-0.131721	-0.343659	-0.131975	-0.275401	-0.1567	-0.187928	-0.225351	-0.329724	
0.694559	2.08435	0	0	-0.1413	-0.373422	-0.189139	-0.335912	-0.0109703	-0.175424	-0.0707595	-0.10247	0.122897	0.0155598	-0.140114	0.0661372	0.0046045	0.0074405	-0.167975	0.248301	-0.0876605	-0.102566	-0.226491	-0.0576465	-0.0959673	-0.0823685	-0.0947625	-0.200403	-0.12702	-0.329855	-0.124483	-0.266688	-0.160505	-0.177175	-0.217216	-0.320377	
0.710444	2.08435	0	0	-0.13656	-0.356242	-0.184091	-0.325671	-0.01434	-0.1659	-0.066534	-0.098187	0.124733	0.02769	-0.146794	0.085018	0.006228	0.014213	-0.172273	0.260449	-0.087108	-0.094474	-0.226065	-0.049154	-0.096939	-0.070579	-0.092944	-0.193698	-0.122318	-0.316051	-0.11699	-0.257975	-0.16431	-0.166422	-0.209082	-0.311029	
0.726793	2.08435	0	0	-0.130887	-0.341648	-0.18344	-0.315246	-0.0126705	-0.161495	-0.0652315	-0.0937507	0.12521	0.035007	-0.141762	0.0853633	-0.0014065	0.0244285	-0.175142	0.268556	-0.089055	-0.0889715	-0.22463	-0.0435055	-0.0962018	-0.063614	-0.0953683	-0.186847	-0.118917	-0.298532	-0.11513	-0.243279	-0.158539	-0.153629	-0.208394	-0.296785	
0.737644	2.08893	0	0	-0.125215	-0.327054	-0.182789	-0.304821	-0.011001	-0.157089	-0.063929	-0.0893145	0.125687	0.042324	-0.136729	0.0857085	-0.009041	0.034644	-0.178011	0.276664	-0.091002	-0.083469	-0.223195	-0.037857	-0.0954645	-0.056649	-0.0977925	-0.179996	-0.115515	-0.281013	-0.11327	-0.228583	-0.152769	-0.140836	-0.207706	-0.28254	
0.737037	2.08282	0	0	-0.119542	-0.31246	-0.182137	-0.294396	-0.0093315	-0.152684	-0.0626265	-0.0848783	0.126164	0.049641	-0.131696	0.0860537	-0.0166755	0.0448595	-0.180879	0.284772	-0.092949	-0.0779665	-0.221761	-0.0322085	-0.0947272	-0.049684	-0.100217	-0.173144	-0.112114	-0.263494	-0.111411	-0.213886	-0.146998	-0.128042	-0.207018	-0.268296	
0.719009	2.08282	0	0	-0.113869	-0.297866	-0.181486	-0.283971	-0.007662	-0.148279	-0.061324	-0.080442	0.126641	0.056958	-0.126664	0.086399	-0.02431	0.055075	-0.183748	0.292879	-0.094896	-0.072464	-0.220326	-0.02656	-0.09399	-0.042719	-0.102641	-0.166293	-0.108713	-0.245975	-0.109551	-0.19919	-0.141227	-0.115249	-0.20633	-0.254051	
0.677843	2.08588	0	0	-0.109135	-0.280568	-0.178943	-0.266603	-0.00683675	-0.141483	-0.0616465	-0.0714097	0.130228	0.0641615	-0.128337	0.091128	-0.021489	0.0584628	-0.180705	0.29713	-0.09587	-0.0697113	-0.225803	-0.0207845	-0.09399	-0.042719	-0.101429	-0.169719	-0.108713	-0.245975	-0.110598	-0.19623	-0.134522	-0.11963	-0.20633	-0.254051	
0.617712	2.0874	0	0	-0.104402	-0.263269	-0.176399	-0.249234	-0.0060115	-0.134686	-0.061969	-0.0623775	0.133816	0.071365	-0.130011	0.095857	-0.018668	0.0618505	-0.177663	0.30138	-0.096844	-0.0669585	-0.23128	-0.015009	-0.09399	-0.042719	-0.100217	-0.173146	-0.108713	-0.245975	-0.111646	-0.193269	-0.127816	-0.124011	-0.20633	-0.254051	
0.555913	2.08282	0	0	-0.0996685	-0.24597	-0.173856	-0.231866	-0.00518625	-0.12789	-0.0622915	-0.0533452	0.137404	0.0785685	-0.131684	0.100586	-0.015847	0.0652382	-0.17462	0.305631	-0.097818	-0.0642058	-0.236757	-0.0092335	-0.09399	-0.042719	-0.0990043	-0.176572	-0.108713	-0.245975	-0.112694	-0.190308	-0.121111	-0.128393	-0.20633	-0.254051	
0.510649	2.08282	0	0	-0.094935	-0.228672	-0.171313	-0.214498	-0.004361	-0.121094	-0.062614	-0.044313	0.140991	0.085772	-0.133357	0.105315	-0.013026	0.068626	-0.171577	0.309882	-0.098792	-0.061453	-0.242234	-0.003458	-0.09399	-0.042719	-0.097792	-0.179998	-0.108713	-0.245975	-0.113741	-0.187348	-0.114406	-0.132774	-0.20633	-0.254051	
0.499802	2.07672	0	0	-0.0892635	-0.213974	-0.167523	-0.200621	-0.004383	-0.1119	-0.06294	-0.0352672	0.139703	0.0980883	-0.129996	0.110396	-0.0166407	0.078842	-0.168533	0.314137	-0.0997663	-0.0586998	-0.239791	-0.00065875	-0.0915388	-0.0405945	-0.092337	-0.183562	-0.10011	-0.243119	-0.105596	-0.190393	-0.106073	-0.127154	-0.19649	-0.24944	
0.528769	2.07825	0	0	-0.083592	-0.199275	-0.163733	-0.186744	-0.004405	-0.102706	-0.063266	-0.0262215	0.138415	0.110404	-0.126635	0.115477	-0.0202555	0.089058	-0.165489	0.318392	-0.100741	-0.0559465	-0.237348	0.0021405	-0.0890875	-0.03847	-0.086882	-0.187127	-0.0915065	-0.240262	-0.097451	-0.193439	-0.0977395	-0.121535	-0.18665	-0.244828	
0.58673	2.07825	0	0	-0.0779205	-0.184577	-0.159943	-0.172866	-0.004427	-0.0935113	-0.063592	-0.0171757	0.137128	0.122721	-0.123273	0.120557	-0.0238702	0.099274	-0.162445	0.322648	-0.101715	-0.0531932	-0.234905	0.00493975	-0.0866362	-0.0363455	-0.081427	-0.190692	-0.0829033	-0.237405	-0.089306	-0.196484	-0.0894063	-0.115915	-0.17681	-0.240216	
0.661781	2.07672	0	0	-0.072249	-0.169879	-0.156153	-0.158989	-0.004449	-0.084317	-0.063918	-0.00813	0.13584	0.135037	-0.119912	0.125638	-0.027485	0.10949	-0.159401	0.326903	-0.102689	-0.05044	-0.232462	0.007739	-0.084185	-0.034221	-0.075972	-0.194256	-0.0743	-0.234549	-0.081161	-0.199529	-0.081073	-0.110295	-0.16697	-0.235605	
0.742017	2.0813	0	0	-0.0779085	-0.153884	-0.158034	-0.141367	-0.00698675	-0.0771447	-0.067174	0.00107225	0.128321	0.147611	-0.124942	0.139855	-0.031104	0.119718	-0.159235	0.339301	-0.0976965	-0.0452285	-0.228586	0.0162075	-0.078543	-0.0229818	-0.0699038	-0.187679	-0.063326	-0.224732	-0.0736477	-0.190762	-0.0740035	-0.101058	-0.145537	-0.231168	
0.815535	2.08435	0	0	-0.083568	-0.137889	-0.159914	-0.123746	-0.0095245	-0.0699725	-0.07043	0.0102745	0.120801	0.160185	-0.129973	0.154072	-0.034723	0.129946	-0.159068	0.351698	-0.092704	-0.040017	-0.224711	0.024676	-0.072901	-0.0117425	-0.0638355	-0.181101	-0.052352	-0.214915	-0.0661345	-0.181994	-0.066934	-0.0918215	-0.124103	-0.226732	
0.87043	2.08588	0	0	-0.0892275	-0.121894	-0.161795	-0.106124	-0.0120623	-0.0628003	-0.073686	0.0194768	0.113281	0.172759	-0.135003	0.168288	-0.038342	0.140174	-0.158901	0.364096	-0.0877115	-0.0348055	-0.220835	0.0331445	-0.067259	-0.00050325	-0.0577672	-0.174523	-0.041378	-0.205098	-0.0586212	-0.173227	-0.0598645	-0.0825847	-0.102669	-0.222296	
0.894868	2.0935	5	0	-0.094887	-0.105899	-0.163676	-0.088503	-0.0146	-0.055628	-0.076942	0.028679	0.105762	0.185333	-0.140034	0.182505	-0.041961	0.150402	-0.158735	0.376493	-0.082719	-0.029594	-0.216959	0.041613	-0.061617	0.010736	-0.051699	-0.167946	-0.030404	-0.195281	-0.051108	-0.164459	-0.052795	-0.073348	-0.081236	-0.217859	
0.884448	2.09656	5	0	-0.0892247	-0.101388	-0.164309	-0.0743987	-0.016293	-0.0508432	-0.0785712	0.0332835	0.10488	0.187826	-0.140034	0.182505	-0.041961	0.150402	-0.154249	0.376692	-0.088142	-0.0239305	-0.222443	0.047399	-0.0624767	0.0131658	-0.057161	-0.164377	-0.0280472	-0.188312	-0.0588653	-0.152541	-0.0620755	-0.0617335	-0.078843	-0.208334	
0.848657	2.09198	5	0	-0.0835625	-0.096878	-0.164942	-0.0602945	-0.017986	-0.0460585	-0.0802005	0.037888	0.103998	0.190319	-0.140034	0.182505	-0.041961	0.150402	-0.149763	0.376891	-0.093565	-0.018267	-0.227928	0.053185	-0.0633365	0.0155955	-0.062623	-0.160808	-0.0256905	-0.181342	-0.0666225	-0.140624	-0.071356	-0.050119	-0.07645	-0.198809	
0.798507	2.09503	5	0	-0.0779003	-0.0923675	-0.165576	-0.0461903	-0.019679	-0.0412737	-0.0818298	0.0424925	0.103116	0.192811	-0.140034	0.182505	-0.041961	0.150402	-0.145278	0.37709	-0.098988	-0.0126035	-0.233412	0.058971	-0.0641962	0.0180252	-0.068085	-0.157239	-0.0233338	-0.174372	-0.0743797	-0.128707	-0.0806365	-0.0385045	-0.074057	-0.189284	
0.745008	2.08588	5	0	-0.072238	-0.087857	-0.166209	-0.032086	-0.021372	-0.036489	-0.083459	0.047097	0.102234	0.195304	-0.140034	0.182505	-0.041961	0.150402	-0.140792	0.377289	-0.104411	-0.00694	-0.238896	0.064757	-0.065056	0.020455	-0.073547	-0.15367	-0.020977	-0.167403	-0.082137	-0.116789	-0.089917	-0.02689	-0.071664	-0.179759	
0.699171	2.08588	5	0	-0.0779148	-0.0718142	-0.161176	-0.0216568	-0.0205555	-0.0296597	-0.0837948	0.0561745	0.0955945	0.205395	-0.141713	0.187249	-0.0471898	0.153818	-0.142234	0.381362	-0.104411	-0.00694	-0.237882	0.0618922	-0.0600217	0.0152975	-0.0753655	-0.16039	-0.0259442	-0.166995	-0.084638	-0.119722	-0.091195	-0.023278	-0.0757572	-0.184479	
0.670908	2.09198	5	0	-0.0835915	-0.0557715	-0.156143	-0.0112275	-0.019739	-0.0228305	-0.0841305	0.065252	0.088955	0.215486	-0.143392	0.191993	-0.0524185	0.157235	-0.143675	0.385435	-0.104411	-0.00694	-0.236869	0.0590275	-0.0549875	0.01014	-0.077184	-0.16711	-0.0309115	-0.166587	-0.087139	-0.122654	-0.092473	-0.019666	-0.0798505	-0.189198	
0.660364	2.0874	5	0	-0.0892682	-0.0397288	-0.15111	-0.00079825	-0.0189225	-0.0160013	-0.0844663	0.0743295	0.0823155	0.225577	-0.14507	0.196737	-0.0576472	0.160652	-0.145116	0.389508	-0.104411	-0.00694	-0.235855	0.0561627	-0.0499533	0.0049825	-0.0790025	-0.173831	-0.0358788	-0.166179	-0.08964	-0.125586	-0.093751	-0.016054	-0.0839438	-0.193918	
0.662571	2.08282	5	0	-0.094945	-0.023686	-0.146077	0.009631	-0.018106	-0.009172	-0.084802	0.083407	0.075676	0.235668	-0.146749	0.201481	-0.062876	0.164068	-0.146558	0.393581	-0.104411	-0.00694	-0.234842	0.053298	-0.044919	-0.000175	-0.080821	-0.180551	-0.040846	-0.165771	-0.092141	-0.128519	-0.095029	-0.012442	-0.088037	-0.198638	
0.672518	2.0813	5	0	-0.092115	-0.0214188	-0.147991	0.0273795	-0.0248552	0.00076525	-0.0872508	0.0903272	0.070803	0.240771	-0.150109	0.210977	-0.0640833	0.16748	-0.149442	0.401733	-0.10094	-0.0070875	-0.23687	0.0590282	-0.0466385	0.004685	-0.0796088	-0.183977	-0.0345727	-0.16987	-0.085438	-0.137462	-0.10175	-0.00805025	-0.10131	-0.193659	
0.685193	2.08435	5	0	-0.089285	-0.0191515	-0.149905	0.045128	-0.0316045	0.0107025	-0.0896995	0.0972475	0.06593	0.245873	-0.153469	0.220472	-0.0652905	0.170892	-0.152327	0.409886	-0.0974685	-0.007235	-0.238897	0.0647585	-0.048358	0.009545	-0.0783965	-0.187404	-0.0282995	-0.173969	-0.078735	-0.146406	-0.108471	-0.0036585	-0.114584	-0.188681	
0.695591	2.08893	5	0	-0.086455	-0.0168842	-0.151819	0.0628765	-0.0383537	0.0206397	-0.0921483	0.104168	0.061057	0.250976	-0.156828	0.229967	-0.0664977	0.174303	-0.155212	0.418038	-0.0939973	-0.0073825	-0.240924	0.0704887	-0.0500775	0.014405	-0.0771842	-0.19083	-0.0220263	-0.178068	-0.072032	-0.15535	-0.115192	0.00073325	-0.127858	-0.183702	
0.70051	2.08435	5	0	-0.083625	-0.014617	-0.153733	0.080625	-0.045103	0.030577	-0.094597	0.111088	0.056184	0.256079	-0.160188	0.239463	-0.067705	0.177715	-0.158096	0.42619	-0.090526	-0.00753	-0.242952	0.076219	-0.051797	0.019265	-0.075972	-0.194256	-0.015753	-0.182167	-0.065329	-0.164293	-0.121913	0.005125	-0.141131	-0.178723	
0.700854	2.09045	5	0	-0.087402	-0.0142075	-0.156268	0.0877895	-0.048458	0.0309263	-0.0991547	0.11584	0.050858	0.253805	-0.170243	0.238734	-0.0705165	0.174307	-0.16258	0.425985	-0.0984425	-0.00447775	-0.243966	0.0790855	-0.0592843	0.0222887	-0.075972	-0.194256	-0.0196727	-0.171089	-0.072032	-0.15535	-0.12447	0.0123532	-0.142831	-0.173918	
0.698101	2.08282	5	0	-0.091179	-0.013798	-0.158803	0.094954	-0.051813	0.0312755	-0.103712	0.120592	0.045532	0.251531	-0.180299	0.238004	-0.073328	0.170899	-0.167063	0.425781	-0.106359	-0.0014255	-0.24498	0.081952	-0.0667715	0.0253125	-0.075972	-0.194256	-0.0235925	-0.160012	-0.078735	-0.146406	-0.127028	0.0195815	-0.144532	-0.169112	
0.693727	2.0874	5	0	-0.094956	-0.0133885	-0.161339	0.102119	-0.055168	0.0316248	-0.10827	0.125345	0.040206	0.249257	-0.190355	0.237274	-0.0761395	0.167491	-0.171547	0.425576	-0.114276	0.00162675	-0.245995	0.0848185	-0.0742587	0.0283363	-0.075972	-0.194256	-0.0275123	-0.148934	-0.085438	-0.137462	-0.129586	0.0268098	-0.146232	-0.164307	
0.689207	2.08435	5	0	-0.098733	-0.012979	-0.163874	0.109283	-0.058523	0.031974	-0.112828	0.130097	0.03488	0.246983	-0.20041	0.236545	-0.078951	0.164083	-0.176031	0.425371	-0.122192	0.004679	-0.247009	0.087685	-0.081746	0.03136	-0.075972	-0.194256	-0.031432	-0.137856	-0.092141	-0.128519	-0.132143	0.034038	-0.147932	-0.159502	
0.685922	2.08588	5	0	-0.106267	-0.0224478	-0.163874	0.109283	-0.057675	0.0295775	-0.117856	0.128061	0.0264603	0.24482	-0.198732	0.231801	-0.0817612	0.160678	-0.174589	0.421296	-0.120241	-0.0008355	-0.252902	0.084926	-0.082479	0.02437	-0.0777927	-0.200963	-0.0350915	-0.141144	-0.0971395	-0.134377	-0.135023	0.0275857	-0.153709	-0.159421	
0.684217	2.08435	5	0	-0.113801	-0.0319165	-0.163874	0.109283	-0.056827	0.027181	-0.122884	0.126024	0.0180405	0.242656	-0.197053	0.227057	-0.0845715	0.157274	-0.173147	0.417221	-0.118289	-0.00635	-0.258794	0.082167	-0.083212	0.01738	-0.0796135	-0.207669	-0.038751	-0.144431	-0.102138	-0.140234	-0.137903	0.0211335	-0.159486	-0.159341	
0.683802	2.0874	5	0	-0.121335	-0.0413853	-0.163874	0.109283	-0.055979	0.0247845	-0.127911	0.123988	0.00962075	0.240493	-0.195375	0.222313	-0.0873817	0.153869	-0.171705	0.413146	-0.116338	-0.0118645	-0.264686	0.079408	-0.083945	0.01039	-0.0814342	-0.214375	-0.0424105	-0.147719	-0.107136	-0.146092	-0.140783	0.0146812	-0.165262	-0.15926	
0.684382	2.08282	5	0	-0.128869	-0.050854	-0.163874	0.109283	-0.055131	0.022388	-0.132939	0.121952	0.001201	0.23833	-0.193696	0.217569	-0.090192	0.150464	-0.170263	0.409071	-0.114387	-0.017379	-0.270579	0.076649	-0.084678	0.0034	-0.083255	-0.221082	-0.04607	-0.151007	-0.112135	-0.15195	-0.143663	0.008229	-0.171039	-0.15918	
0.68566	2.08893	5	0	-0.136394	-0.0602988	-0.17209	0.120164	-0.0601803	0.0275298	-0.140409	0.126833	-0.00411175	0.236059	-0.193696	0.217569	-0.0942057	0.150467	-0.174744	0.408867	-0.12132	-0.0170855	-0.272004	0.0709772	-0.087129	0.00127025	-0.0850762	-0.227779	-0.0484223	-0.157979	-0.114633	-0.154875	-0.157079	0.016995	-0.173414	-0.168699	
0.68734	2.08588	5	0	-0.143918	-0.0697435	-0.180306	0.131045	-0.0652295	0.0326715	-0.14788	0.131715	-0.0094245	0.233787	-0.193696	0.217569	-0.0982195	0.150471	-0.179225	0.408664	-0.128254	-0.016792	-0.273429	0.0653055	-0.08958	-0.0008595	-0.0868975	-0.234476	-0.0507745	-0.164952	-0.11713	-0.157801	-0.170494	0.025761	-0.175789	-0.178218	
0.689166	2.08893	5	0	-0.151443	-0.0791883	-0.188522	0.141926	-0.0702788	0.0378132	-0.155351	0.136596	-0.0147373	0.231515	-0.193696	0.217569	-0.102233	0.150475	-0.183706	0.408461	-0.135187	-0.0164985	-0.274853	0.0596337	-0.092031	-0.00298925	-0.0887187	-0.241173	-0.0531268	-0.171925	-0.119628	-0.160726	-0.18391	0.034527	-0.178165	-0.187737	
0.690976	2.08893	5	0	-0.158967	-0.088633	-0.196738	0.152807	-0.075328	0.042955	-0.162821	0.141477	-0.02005	0.229244	-0.193696	0.217569	-0.106247	0.150478	-0.188187	0.408257	-0.142121	-0.016205	-0.276278	0.053962	-0.094482	-0.005119	-0.09054	-0.24787	-0.055479	-0.178897	-0.122126	-0.163652	-0.197325	0.043293	-0.18054	-0.197256	
0.692622	2.09045	5	0	-0.165541	-0.100714	-0.194201	0.145637	-0.0761365	0.0361165	-0.161189	0.136865	-0.0275695	0.224596	-0.205413	0.22158	-0.114266	0.150483	-0.192664	0.408053	-0.141146	-0.0189593	-0.27729	0.056824	-0.094482	-0.005119	-0.089331	-0.251287	-0.056784	-0.175209	-0.117531	-0.166654	-0.19062	0.0389117	-0.18054	-0.197256	
0.693955	2.09198	5	0	-0.172115	-0.112795	-0.191664	0.138466	-0.076945	0.029278	-0.159557	0.132253	-0.035089	0.219948	-0.21713	0.22559	-0.122285	0.150488	-0.197142	0.407849	-0.140172	-0.0217135	-0.278303	0.059686	-0.094482	-0.005119	-0.088122	-0.254705	-0.058089	-0.171521	-0.112935	-0.169657	-0.183914	0.0345305	-0.18054	-0.197256	
0.694825	2.09198	5	0	-0.178688	-0.124876	-0.189127	0.131296	-0.0777535	0.0224395	-0.157926	0.127642	-0.0426085	0.215301	-0.228846	0.229601	-0.130305	0.150493	-0.20162	0.407644	-0.139197	-0.0244677	-0.279316	0.062548	-0.094482	-0.005119	-0.086913	-0.258122	-0.059394	-0.167833	-0.10834	-0.17266	-0.177209	0.0301492	-0.18054	-0.197256	
0.695104	2.09503	5	0	-0.185262	-0.136957	-0.18659	0.124126	-0.078562	0.015601	-0.156294	0.12303	-0.050128	0.210653	-0.240563	0.233612	-0.138324	0.150498	-0.206097	0.40744	-0.138222	-0.027222	-0.280328	0.06541	-0.094482	-0.005119	-0.085704	-0.261539	-0.060699	-0.164145	-0.103745	-0.175662	-0.170504	0.025768	-0.18054	-0.197256	
0.694903	2.09808	5	0	-0.193706	-0.153893	-0.194135	0.120796	-0.083567	0.0115128	-0.162597	0.116524	-0.056759	0.20353	-0.233861	0.214671	-0.139923	0.143698	-0.209132	0.403167	-0.140712	-0.0298278	-0.286212	0.0626557	-0.096932	-0.0072475	-0.0899433	-0.261395	-0.0620045	-0.160456	-0.10834	-0.17266	-0.171782	0.02938	-0.176465	-0.19254	
0.694511	2.09808	5	0	-0.202151	-0.170829	-0.20168	0.117465	-0.088572	0.0074245	-0.168901	0.110017	-0.06339	0.196408	-0.227159	0.19573	-0.141522	0.136898	-0.212167	0.398894	-0.143202	-0.0324335	-0.292095	0.0599015	-0.099382	-0.009376	-0.0941825	-0.261251	-0.06331	-0.156766	-0.112935	-0.169657	-0.173061	0.032992	-0.172391	-0.187823	
0.694217	2.09808	5	0	-0.210595	-0.187766	-0.209224	0.114134	-0.093577	0.00333625	-0.175204	0.103511	-0.070021	0.189285	-0.220457	0.17679	-0.143121	0.130097	-0.215201	0.394621	-0.145692	-0.0350392	-0.297979	0.0571472	-0.101832	-0.0115045	-0.0984218	-0.261106	-0.0646155	-0.153077	-0.117531	-0.166654	-0.174339	0.036604	-0.168316	-0.183107	
0.694311	2.09808	5	0	-0.219039	-0.204702	-0.216769	0.110804	-0.098582	-0.000752	-0.181507	0.097004	-0.076652	0.182162	-0.213755	0.157849	-0.14472	0.123297	-0.218236	0.390348	-0.148182	-0.037645	-0.303862	0.054393	-0.104282	-0.013633	-0.102661	-0.260962	-0.065921	-0.149387	-0.122126	-0.163652	-0.175617	0.040216	-0.164241	-0.178391	
0.695085	2.10266	5	0	-0.224666	-0.219342	-0.218639	0.103776	-0.0993918	-0.007574	-0.181979	0.0902378	-0.0823987	0.172576	-0.223783	0.157132	-0.145118	0.113111	-0.219832	0.382018	-0.148725	-0.045748	-0.303264	0.0430185	-0.103303	-0.0254487	-0.104483	-0.267644	-0.0719225	-0.159636	-0.122528	-0.172495	-0.183913	0.034536	-0.172387	-0.187817	
0.696675	2.10266	5	0	-0.230293	-0.233983	-0.22051	0.0967475	-0.100201	-0.014396	-0.182451	0.0834715	-0.0881455	0.16299	-0.233811	0.156415	-0.145517	0.102926	-0.221428	0.373688	-0.149268	-0.053851	-0.302665	0.031644	-0.102323	-0.0372645	-0.106304	-0.274326	-0.077924	-0.169885	-0.122929	-0.181339	-0.192209	0.028856	-0.180534	-0.197244	
0.698728	2.10266	5	0	-0.235919	-0.248623	-0.222381	0.0897193	-0.101011	-0.021218	-0.182922	0.0767053	-0.0938923	0.153404	-0.243839	0.155699	-0.145916	0.0927398	-0.223024	0.365358	-0.149812	-0.061954	-0.302067	0.0202695	-0.101344	-0.0490802	-0.108125	-0.281008	-0.0839255	-0.180135	-0.123331	-0.190182	-0.200504	0.023176	-0.18868	-0.20667	
0.700792	2.11029	5	0	-0.241546	-0.263263	-0.224251	0.082691	-0.101821	-0.02804	-0.183394	0.069939	-0.099639	0.143818	-0.253867	0.154982	-0.146314	0.082554	-0.22462	0.357028	-0.150355	-0.070057	-0.301468	0.008895	-0.100365	-0.060896	-0.109947	-0.28769	-0.089927	-0.190384	-0.123733	-0.199025	-0.2088	0.017496	-0.196826	-0.216096	
0.702415	2.11029	5	0	-0.252778	-0.272165	-0.231783	0.0793715	-0.107665	-0.029729	-0.189219	0.0702103	-0.104051	0.139089	-0.250525	0.145537	-0.150316	0.0825603	-0.229089	0.356827	-0.149383	-0.0728055	-0.300458	0.00604025	-0.0995085	-0.0633168	-0.109947	-0.28769	-0.0922753	-0.197338	-0.12623	-0.201942	-0.207524	0.0138898	-0.187667	-0.225763	
0.703145	2.11182	5	0	-0.26401	-0.281066	-0.239314	0.076052	-0.11351	-0.031418	-0.195043	0.0704815	-0.108464	0.13436	-0.247182	0.136091	-0.154319	0.0825665	-0.233559	0.356626	-0.14841	-0.075554	-0.299448	0.0031855	-0.098652	-0.0657375	-0.109947	-0.28769	-0.0946235	-0.204292	-0.128727	-0.204858	-0.206248	0.0102835	-0.178509	-0.23543	
0.702543	2.10724	5	0	-0.275242	-0.289967	-0.246846	0.0727325	-0.119355	-0.033107	-0.200867	0.0707528	-0.112876	0.129632	-0.24384	0.126645	-0.158322	0.0825728	-0.238028	0.356424	-0.147437	-0.0783025	-0.298438	0.00033075	-0.0977955	-0.0681583	-0.109947	-0.28769	-0.0969718	-0.211247	-0.131224	-0.207775	-0.204972	0.00667725	-0.16935	-0.245097	
0.700615	2.11334	5	0	-0.286474	-0.298869	-0.254377	0.069413	-0.125199	-0.034796	-0.206692	0.071024	-0.117288	0.124903	-0.240498	0.1172	-0.162324	0.082579	-0.242497	0.356223	-0.146465	-0.081051	-0.297428	-0.002524	-0.096939	-0.070579	-0.109947	-0.28769	-0.09932	-0.218201	-0.133721	-0.210692	-0.203696	0.003071	-0.160191	-0.254764	
0.697869	2.11029	5	0	-0.295822	-0.313008	-0.252462	0.05171	-0.124322	-0.046372	-0.20554	0.0596785	-0.127849	0.120402	-0.243838	0.112129	-0.163924	0.0758033	-0.245527	0.351964	-0.149927	-0.0809012	-0.297428	-0.002524	-0.101101	-0.067859	-0.10571	-0.287836	-0.093065	-0.222288	-0.131224	-0.207775	-0.203696	0.003071	-0.154415	-0.254856	
0.694842	2.11029	5	0	-0.305169	-0.327148	-0.250547	0.034007	-0.123445	-0.057948	-0.204387	0.048333	-0.13841	0.115901	-0.247178	0.107057	-0.165525	0.0690275	-0.248558	0.347706	-0.153388	-0.0807515	-0.297428	-0.002524	-0.105263	-0.065139	-0.101472	-0.287982	-0.08681	-0.226375	-0.128727	-0.204858	-0.203696	0.003071	-0.148639	-0.254947	
0.692073	2.11639	5	0	-0.314516	-0.341287	-0.248631	0.016304	-0.122567	-0.069524	-0.203235	0.0369875	-0.148972	0.111401	-0.250519	0.101986	-0.167125	0.0622517	-0.251588	0.343447	-0.15685	-0.0806017	-0.297428	-0.002524	-0.109426	-0.062419	-0.0972352	-0.288127	-0.080555	-0.230462	-0.12623	-0.201942	-0.203696	0.003071	-0.142864	-0.255039	
0.690097	2.11029	5	0	-0.323864	-0.355426	-0.246716	-0.001399	-0.12169	-0.0811	-0.202083	0.025642	-0.159533	0.1069	-0.253859	0.096915	-0.168725	0.055476	-0.254619	0.339188	-0.160311	-0.080452	-0.297428	-0.002524	-0.113588	-0.059699	-0.092998	-0.288273	-0.0743	-0.234549	-0.123733	-0.199025	-0.203696	0.003071	-0.137088	-0.255131	
0.689345	2.11182	5	0	-0.325746	-0.370351	-0.247331	-0.011943	-0.125844	-0.0875418	-0.201748	0.016608	-0.161315	0.0947865	-0.257198	0.0918505	-0.170327	0.04871	-0.256215	0.330883	-0.156425	-0.0914335	-0.302297	-0.0081135	-0.11347	-0.0690735	-0.0960285	-0.291538	-0.0842035	-0.233731	-0.127276	-0.198984	-0.209115	0.00384075	-0.144558	-0.25025	
0.689705	2.11182	5	0	-0.327629	-0.385275	-0.247946	-0.022487	-0.129998	-0.0939835	-0.201412	0.007574	-0.163098	0.082673	-0.260537	0.086786	-0.171928	0.041944	-0.25781	0.322578	-0.15254	-0.102415	-0.307167	-0.013703	-0.113351	-0.078448	-0.099059	-0.294802	-0.094107	-0.232913	-0.13082	-0.198943	-0.214534	0.0046105	-0.152029	-0.245368	
0.690899	2.11182	5	0	-0.329512	-0.400199	-0.248561	-0.033031	-0.134151	-0.100425	-0.201076	-0.00146	-0.16488	0.0705595	-0.263875	0.0817215	-0.17353	0.035178	-0.259406	0.314273	-0.148655	-0.113396	-0.312036	-0.0192925	-0.113232	-0.0878225	-0.102089	-0.298067	-0.104011	-0.232095	-0.134363	-0.198902	-0.219953	0.00538025	-0.1595	-0.240486	
0.692651	2.11334	5	0	-0.331394	-0.415124	-0.249176	-0.043575	-0.138305	-0.106867	-0.200741	-0.010494	-0.166662	0.058446	-0.267214	0.076657	-0.175131	0.028412	-0.261002	0.305968	-0.144769	-0.124378	-0.316905	-0.024882	-0.113114	-0.097197	-0.10512	-0.301332	-0.113914	-0.231277	-0.137907	-0.198861	-0.225372	0.00615	-0.16697	-0.235605	
0.694682	2.11334	5	0	-0.336991	-0.41953	-0.255441	-0.05041	-0.13996	-0.111273	-0.20365	-0.0103545	-0.171933	0.0562073	-0.265548	0.071948	-0.179127	0.028421	-0.259569	0.301919	-0.146289	-0.12971	-0.31833	-0.0305218	-0.113853	-0.104142	-0.109355	-0.301186	-0.119906	-0.241475	-0.142896	-0.204692	-0.236196	0.0076835	-0.163581	-0.245182	
0.696716	2.11182	5	0	-0.342588	-0.423936	-0.261705	-0.057245	-0.141615	-0.115679	-0.20656	-0.010215	-0.177204	0.0539685	-0.263881	0.067239	-0.183123	0.02843	-0.258136	0.29787	-0.14781	-0.135041	-0.319756	-0.0361615	-0.114593	-0.111088	-0.11359	-0.30104	-0.125897	-0.251672	-0.147886	-0.210523	-0.24702	0.009217	-0.160193	-0.254759	
0.698579	2.11182	5	0	-0.348184	-0.428343	-0.267969	-0.06408	-0.14327	-0.120085	-0.209469	-0.0100755	-0.182475	0.0517297	-0.262215	0.06253	-0.18712	0.028439	-0.256703	0.29382	-0.14933	-0.140373	-0.321182	-0.0418012	-0.115333	-0.118033	-0.117824	-0.300894	-0.131889	-0.261869	-0.152875	-0.216353	-0.257845	0.0107505	-0.156804	-0.264336	
0.700238	2.11487	5	0	-0.353781	-0.432749	-0.274234	-0.070915	-0.144925	-0.124491	-0.212378	-0.009936	-0.187746	0.049491	-0.260549	0.057821	-0.191116	0.028448	-0.25527	0.289771	-0.15085	-0.145704	-0.322607	-0.047441	-0.116072	-0.124978	-0.122059	-0.300748	-0.137881	-0.272067	-0.157864	-0.222184	-0.268669	0.012284	-0.153415	-0.273913	
0.701674	2.11182	5	0	-0.359372	-0.437149	-0.270467	-0.0815615	-0.149075	-0.130915	-0.212855	-0.016666	-0.189073	0.04468	-0.258884	0.0531145	-0.189919	0.0250648	-0.253838	0.285724	-0.14988	-0.148445	-0.321599	-0.0502882	-0.115218	-0.127392	-0.116618	-0.304303	-0.140227	-0.278988	-0.155774	-0.228091	-0.258165	-0.00288	-0.151722	-0.278698	
0.702867	2.11182	5	0	-0.364963	-0.44155	-0.266699	-0.092208	-0.153226	-0.13734	-0.213333	-0.023396	-0.1904	0.039869	-0.257219	0.048408	-0.188721	0.0216815	-0.252406	0.281676	-0.148911	-0.151186	-0.320592	-0.0531355	-0.114364	-0.129806	-0.111176	-0.307859	-0.142573	-0.285909	-0.153684	-0.233997	-0.24766	-0.018044	-0.150029	-0.283482	
0.703796	2.11182	5	0	-0.370554	-0.445951	-0.262932	-0.102855	-0.157376	-0.143764	-0.21381	-0.030126	-0.191727	0.035058	-0.255553	0.0437015	-0.187524	0.0182983	-0.250974	0.277629	-0.147941	-0.153926	-0.319584	-0.0559827	-0.113509	-0.13222	-0.105735	-0.311414	-0.144919	-0.292829	-0.151594	-0.239903	-0.237155	-0.033208	-0.148336	-0.288267	
0.704439	2.11334	5	0	-0.376145	-0.450351	-0.259165	-0.113501	-0.161526	-0.150188	-0.214287	-0.036856	-0.193054	0.030247	-0.253888	0.038995	-0.186327	0.014915	-0.249542	0.273582	-0.146971	-0.156667	-0.318577	-0.05883	-0.112655	-0.134634	-0.100294	-0.314969	-0.147265	-0.29975	-0.149504	-0.24581	-0.226651	-0.048372	-0.146643	-0.293052	
0.704758	2.11029	5	0	-0.380805	-0.45736	-0.264176	-0.123846	-0.162341	-0.156956	-0.214766	-0.0435777	-0.19484	0.0181832	-0.263892	0.0383008	-0.186733	0.00478575	-0.252574	0.269344	-0.149461	-0.159252	-0.32101	-0.061616	-0.119258	-0.13403	-0.100294	-0.314969	-0.152201	-0.29934	-0.153042	-0.245767	-0.226651	-0.048372	-0.148336	-0.288267	
0.704703	2.10876	5	0	-0.385466	-0.464368	-0.269187	-0.134192	-0.163156	-0.163723	-0.215245	-0.0502995	-0.196626	0.0061195	-0.273896	0.0376065	-0.18714	-0.0053435	-0.255605	0.265105	-0.151951	-0.161836	-0.323444	-0.064402	-0.125861	-0.133426	-0.100294	-0.314969	-0.157138	-0.29893	-0.156581	-0.245725	-0.226651	-0.048372	-0.150029	-0.283482	
0.704226	2.11029	5	0	-0.390126	-0.471377	-0.274198	-0.144537	-0.16397	-0.170491	-0.215723	-0.0570212	-0.198412	-0.00594425	-0.2839	0.0369123	-0.187547	-0.0154727	-0.258636	0.260867	-0.154442	-0.164421	-0.325878	-0.067188	-0.132464	-0.132821	-0.100294	-0.314969	-0.162075	-0.29852	-0.160119	-0.245682	-0.226651	-0.048372	-0.151722	-0.278698	
0.703277	2.10876	5	0	-0.394786	-0.478386	-0.279209	-0.154883	-0.164785	-0.177259	-0.216202	-0.063743	-0.200198	-0.018008	-0.293904	0.036218	-0.187953	-0.025602	-0.261668	0.256629	-0.156932	-0.167006	-0.328311	-0.069974	-0.139067	-0.132217	-0.100294	-0.314969	-0.167011	-0.29811	-0.163658	-0.245639	-0.226651	-0.048372	-0.153415	-0.273913	
0.701808	2.10724	5	0	-0.396653	-0.483191	-0.279837	-0.165349	-0.165601	-0.184018	-0.215393	-0.066029	-0.201527	-0.022802	-0.290579	0.0268222	-0.189557	-0.0323398	-0.264698	0.252395	-0.158453	-0.172325	-0.333175	-0.0755393	-0.139807	-0.139148	-0.107557	-0.318081	-0.165474	-0.315983	-0.164064	-0.254443	-0.233657	-0.0576057	-0.148339	-0.288259	
0.699837	2.10724	5	0	-0.39852	-0.487996	-0.280466	-0.175815	-0.166417	-0.190777	-0.214585	-0.068315	-0.202855	-0.027596	-0.287255	0.0174265	-0.191161	-0.0390775	-0.267728	0.248162	-0.159974	-0.177645	-0.338039	-0.0811045	-0.140547	-0.146079	-0.114819	-0.321192	-0.163938	-0.333857	-0.164471	-0.263247	-0.240664	-0.0668395	-0.143263	-0.302605	
0.697576	2.10724	5	0	-0.400387	-0.492802	-0.281095	-0.186281	-0.167234	-0.197536	-0.213776	-0.070601	-0.204184	-0.03239	-0.283931	0.00803075	-0.192765	-0.0458153	-0.270758	0.243928	-0.161496	-0.182965	-0.342902	-0.0866697	-0.141286	-0.15301	-0.122082	-0.324304	-0.162402	-0.35173	-0.164877	-0.272052	-0.24767	-0.0760732	-0.138186	-0.316952	
0.695269	2.10724	5	0	-0.402254	-0.497607	-0.281723	-0.196747	-0.16805	-0.204295	-0.212967	-0.072887	-0.205513	-0.037184	-0.280606	-0.001365	-0.194369	-0.052553	-0.273788	0.239695	-0.163017	-0.188284	-0.347766	-0.092235	-0.142026	-0.159941	-0.129345	-0.327416	-0.160865	-0.369603	-0.165283	-0.280856	-0.254677	-0.085307	-0.13311	-0.331298	
0.693162	2.10419	5	0	-0.403178	-0.494996	-0.29048	-0.196457	-0.170544	-0.206309	-0.212158	-0.0751725	-0.208578	-0.0370678	-0.282268	0.00333175	-0.194369	-0.052553	-0.273788	0.239695	-0.166473	-0.188129	-0.347766	-0.092235	-0.141174	-0.162351	-0.122703	-0.334373	-0.161923	-0.380135	-0.166734	-0.286702	-0.245459	-0.0968472	-0.12973	-0.340849	
0.691501	2.10419	5	0	-0.404102	-0.492384	-0.299237	-0.196166	-0.173037	-0.208323	-0.211349	-0.077458	-0.211643	-0.0369515	-0.28393	0.0080285	-0.194369	-0.052553	-0.273788	0.239695	-0.16993	-0.187974	-0.347766	-0.092235	-0.140321	-0.16476	-0.11606	-0.34133	-0.162981	-0.390667	-0.168185	-0.292548	-0.23624	-0.108387	-0.126351	-0.350401	
0.690513	2.10266	5	0	-0.405026	-0.489772	-0.307995	-0.195876	-0.17553	-0.210337	-0.210541	-0.0797435	-0.214708	-0.0368352	-0.285591	0.0127252	-0.194369	-0.052553	-0.273788	0.239695	-0.173386	-0.187818	-0.347766	-0.092235	-0.139468	-0.167169	-0.109418	-0.348287	-0.164038	-0.401199	-0.169636	-0.298395	-0.227022	-0.119928	-0.122972	-0.359953	
0.690116	2.09961	5	0	-0.40595	-0.487161	-0.316752	-0.195585	-0.178024	-0.212351	-0.209732	-0.082029	-0.217773	-0.036719	-0.287253	0.017422	-0.194369	-0.052553	-0.273788	0.239695	-0.176843	-0.187663	-0.347766	-0.092235	-0.138616	-0.169579	-0.102776	-0.355244	-0.165096	-0.411731	-0.171087	-0.304241	-0.217804	-0.131468	-0.119592	-0.369504	
0.689985	2.10419	5	0	-0.406893	-0.494573	-0.313006	-0.206173	-0.179679	-0.216731	-0.211022	-0.0864545	-0.219969	-0.0390558	-0.287253	0.017422	-0.197167	-0.0559105	-0.278245	0.239503	-0.176843	-0.187663	-0.352207	-0.0893335	-0.138616	-0.169579	-0.102776	-0.355244	-0.166386	-0.408084	-0.171087	-0.304241	-0.217804	-0.131468	-0.115501	-0.364834	
0.689787	2.10266	5	0	-0.407836	-0.501985	-0.30926	-0.21676	-0.181334	-0.221111	-0.212313	-0.09088	-0.222164	-0.0413925	-0.287253	0.017422	-0.199964	-0.059268	-0.282701	0.23931	-0.176843	-0.187663	-0.356647	-0.086432	-0.138616	-0.169579	-0.102776	-0.355244	-0.167677	-0.404436	-0.171087	-0.304241	-0.217804	-0.131468	-0.11141	-0.360164	
0.689189	2.10266	5	0	-0.408778	-0.509396	-0.305513	-0.227348	-0.182989	-0.225491	-0.213603	-0.0953055	-0.22436	-0.0437293	-0.287253	0.017422	-0.202762	-0.0626255	-0.287158	0.239117	-0.176843	-0.187663	-0.361088	-0.0835305	-0.138616	-0.169579	-0.102776	-0.355244	-0.168967	-0.400788	-0.171087	-0.304241	-0.217804	-0.131468	-0.107319	-0.355494	
0.687859	2.10113	5	0	-0.409721	-0.516808	-0.301767	-0.237935	-0.184644	-0.229871	-0.214893	-0.099731	-0.226556	-0.046066	-0.287253	0.017422	-0.20556	-0.065983	-0.291615	0.238925	-0.176843	-0.187663	-0.365528	-0.080629	-0.138616	-0.169579	-0.102776	-0.355244	-0.170258	-0.397141	-0.171087	-0.304241	-0.217804	-0.131468	-0.103228	-0.350824	
0.685608	2.10266	5	0	-0.409721	-0.516808	-0.310515	-0.23764	-0.186299	-0.234246	-0.217799	-0.0995878	-0.224821	-0.050969	-0.287253	0.017422	-0.209549	-0.065968	-0.290187	0.234889	-0.178363	-0.192975	-0.366951	-0.0862492	-0.14021	-0.174092	-0.10701	-0.355094	-0.175186	-0.396725	-0.174621	-0.304195	-0.216535	-0.135054	-0.11239	-0.341163	
0.682706	2.10113	5	0	-0.409721	-0.516808	-0.319262	-0.237345	-0.187953	-0.238622	-0.220704	-0.0994445	-0.223087	-0.055872	-0.287253	0.017422	-0.213537	-0.065953	-0.288759	0.230852	-0.179883	-0.198288	-0.368375	-0.0918695	-0.141804	-0.178604	-0.111243	-0.354943	-0.180115	-0.396309	-0.178155	-0.304149	-0.215266	-0.138639	-0.121552	-0.331502	
0.679512	2.10419	5	0	-0.409721	-0.516808	-0.328009	-0.237051	-0.189608	-0.242998	-0.223609	-0.0993012	-0.221352	-0.060775	-0.287253	0.017422	-0.217526	-0.065938	-0.28733	0.226816	-0.181403	-0.2036	-0.369799	-0.0974898	-0.143398	-0.183116	-0.115476	-0.354793	-0.185043	-0.395893	-0.181689	-0.304104	-0.213998	-0.142225	-0.130713	-0.321841	
0.676384	2.10113	5	0	-0.409721	-0.516808	-0.336757	-0.236756	-0.191263	-0.247373	-0.226515	-0.099158	-0.219617	-0.065678	-0.287253	0.017422	-0.221515	-0.065923	-0.285902	0.222779	-0.182923	-0.208912	-0.371222	-0.10311	-0.144992	-0.187629	-0.11971	-0.354643	-0.189971	-0.395477	-0.185223	-0.304058	-0.212729	-0.145811	-0.139875	-0.31218	
0.673682	2.09808	5	0	-0.411568	-0.511589	-0.336757	-0.236756	-0.190426	-0.249738	-0.223609	-0.0993012	-0.223547	-0.0631103	-0.282252	0.017767	-0.220323	-0.0692925	-0.285902	0.222779	-0.180024	-0.217106	-0.37708	-0.105826	-0.145735	-0.194542	-0.117304	-0.361445	-0.191028	-0.405991	-0.187714	-0.306955	-0.223546	-0.144254	-0.129023	-0.326618	
0.671742	2.10113	5	0	-0.413415	-0.506369	-0.336757	-0.236756	-0.189589	-0.252103	-0.220704	-0.0994445	-0.227476	-0.0605425	-0.277251	0.018112	-0.219131	-0.072662	-0.285902	0.222779	-0.177124	-0.225301	-0.382937	-0.108543	-0.146479	-0.201455	-0.114897	-0.368247	-0.192085	-0.416505	-0.190204	-0.309852	-0.234362	-0.142696	-0.118171	-0.341056	
0.670651	2.09808	5	0	-0.415261	-0.50115	-0.336757	-0.236756	-0.188753	-0.254467	-0.217799	-0.0995878	-0.231405	-0.0579747	-0.272251	0.018457	-0.217938	-0.0760315	-0.285902	0.222779	-0.174225	-0.233495	-0.388795	-0.111259	-0.147222	-0.208368	-0.11249	-0.375048	-0.193142	-0.42702	-0.192695	-0.312748	-0.245178	-0.141139	-0.107319	-0.355494	
0.670351	2.09808	5	0	-0.417108	-0.49593	-0.336757	-0.236756	-0.187916	-0.256832	-0.214893	-0.099731	-0.235335	-0.055407	-0.26725	0.018802	-0.216746	-0.079401	-0.285902	0.222779	-0.171325	-0.24169	-0.394653	-0.113976	-0.147965	-0.215281	-0.110084	-0.38185	-0.194199	-0.437534	-0.195186	-0.315645	-0.255995	-0.139581	-0.096467	-0.369932	
0.670783	2.09808	5	0	-0.417108	-0.49593	-0.336757	-0.236756	-0.191244	-0.256475	-0.218607	-0.0973047	-0.237529	-0.0577407	-0.268913	0.0235035	-0.216746	-0.079401	-0.291783	0.226622	-0.170359	-0.24442	-0.394653	-0.113976	-0.147114	-0.217685	-0.110084	-0.38185	-0.191624	-0.444812	-0.194145	-0.318586	-0.241375	-0.151888	-0.103937	-0.36505	
0.671884	2.09961	5	0	-0.417108	-0.49593	-0.336757	-0.236756	-0.194572	-0.256119	-0.22232	-0.0948785	-0.239723	-0.0600745	-0.270577	0.028205	-0.216746	-0.079401	-0.297665	0.230465	-0.169393	-0.247149	-0.394653	-0.113976	-0.146263	-0.220089	-0.110084	-0.38185	-0.189049	-0.45209	-0.193105	-0.321527	-0.226755	-0.164194	-0.111408	-0.360169	
0.673595	2.09656	5	0	-0.417108	-0.49593	-0.336757	-0.236756	-0.1979	-0.255762	-0.226033	-0.0924522	-0.241917	-0.0624082	-0.27224	0.0329065	-0.216746	-0.079401	-0.303546	0.234309	-0.168427	-0.249879	-0.394653	-0.113976	-0.145413	-0.222494	-0.110084	-0.38185	-0.186473	-0.459369	-0.192064	-0.324469	-0.212135	-0.176501	-0.118878	-0.355287	
0.675763	2.09808	5	0	-0.417108	-0.49593	-0.336757	-0.236756	-0.201228	-0.255405	-0.229747	-0.090026	-0.244111	-0.064742	-0.273904	0.037608	-0.216746	-0.079401	-0.309428	0.238152	-0.167461	-0.252609	-0.394653	-0.113976	-0.144562	-0.224898	-0.110084	-0.38185	-0.183898	-0.466647	-0.191023	-0.32741	-0.197515	-0.188807	-0.126349	-0.350406	
0.678092	2.09503	5	0	-0.416184	-0.49854	-0.33551	-0.24028	-0.205371	-0.261778	-0.227324	-0.0968737	-0.247631	-0.071851	-0.278904	0.0372605	-0.219541	-0.0827525	-0.311025	0.229894	-0.175333	-0.249563	-0.397078	-0.11675	-0.147858	-0.224592	-0.115518	-0.378299	-0.186473	-0.459369	-0.187491	-0.327457	-0.198783	-0.185225	-0.123952	-0.340949	
0.680272	2.09961	5	0	-0.415261	-0.50115	-0.334263	-0.243804	-0.209515	-0.268151	-0.224901	-0.103721	-0.25115	-0.07896	-0.283904	0.036913	-0.222336	-0.086104	-0.312621	0.221637	-0.183205	-0.246518	-0.399503	-0.119525	-0.151153	-0.224286	-0.120952	-0.374749	-0.189049	-0.45209	-0.183958	-0.327504	-0.20005	-0.181644	-0.121555	-0.331491	
0.681992	2.09961	5	0	-0.414338	-0.50376	-0.333017	-0.247327	-0.213659	-0.274524	-0.222478	-0.110569	-0.25467	-0.086069	-0.288904	0.0365655	-0.225131	-0.0894555	-0.314218	0.213379	-0.191077	-0.243472	-0.401928	-0.122299	-0.154449	-0.223981	-0.126386	-0.371198	-0.191624	-0.444812	-0.180425	-0.327551	-0.201317	-0.178063	-0.119158	-0.322034	
0.682943	2.09503	5	0	-0.413414	-0.50637	-0.33177	-0.250851	-0.217802	-0.280897	-0.220055	-0.117417	-0.25819	-0.093178	-0.293904	0.036218	-0.227926	-0.092807	-0.315815	0.205121	-0.198949	-0.240427	-0.404353	-0.125074	-0.157745	-0.223675	-0.13182	-0.367647	-0.194199	-0.437534	-0.176893	-0.327598	-0.202585	-0.174481	-0.116761	-0.312577	
0.682874	2.09961	5	0	-0.415262	-0.501149	-0.33614	-0.250704	-0.216132	-0.285617	-0.224574	-0.112709	-0.260382	-0.095506	-0.287241	0.031864	-0.23072	-0.0961552	-0.309937	0.201281	-0.197984	-0.243155	-0.411204	-0.124954	-0.159339	-0.228174	-0.130617	-0.371046	-0.191624	-0.444812	-0.182507	-0.321668	-0.210532	-0.166534	-0.118454	-0.307793	
0.681933	2.09808	5	0	-0.417109	-0.495928	-0.340509	-0.250556	-0.214461	-0.290338	-0.229094	-0.108002	-0.262574	-0.097834	-0.280577	0.02751	-0.233513	-0.0995035	-0.30406	0.19744	-0.197018	-0.245883	-0.418054	-0.124834	-0.160934	-0.232673	-0.129415	-0.374445	-0.189049	-0.45209	-0.188121	-0.315738	-0.218478	-0.158587	-0.120147	-0.303008	
0.680418	2.09961	5	0	-0.418957	-0.490707	-0.344878	-0.250409	-0.212791	-0.295058	-0.233613	-0.103294	-0.264765	-0.100162	-0.273913	0.023156	-0.236307	-0.102852	-0.298183	0.1936	-0.196053	-0.248611	-0.424905	-0.124714	-0.162528	-0.237172	-0.128213	-0.377843	-0.186473	-0.459369	-0.193736	-0.309807	-0.226425	-0.150639	-0.12184	-0.298223	
0.678629	2.10113	5	0	-0.420804	-0.485486	-0.349248	-0.250262	-0.211121	-0.299778	-0.238132	-0.098587	-0.266957	-0.10249	-0.26725	0.018802	-0.239101	-0.1062	-0.292305	0.189759	-0.195088	-0.251339	-0.431756	-0.124594	-0.164122	-0.241671	-0.12701	-0.381242	-0.183898	-0.466647	-0.19935	-0.303877	-0.234372	-0.142692	-0.123533	-0.293439	
0.676865	2.09808	5	0	-0.418001	-0.47325	-0.34862	-0.239834	-0.216114	-0.294701	-0.237652	-0.0918785	-0.267822	-0.100045	-0.265575	0.0285567	-0.236307	-0.102852	-0.295158	0.197823	-0.195088	-0.251339	-0.426327	-0.130319	-0.164122	-0.241671	-0.128213	-0.377843	-0.190108	-0.462589	-0.195818	-0.303922	-0.234372	-0.142692	-0.11775	-0.293537	
0.675421	2.09961	5	0	-0.415197	-0.461015	-0.347993	-0.229406	-0.221108	-0.289624	-0.237172	-0.08517	-0.268687	-0.0975995	-0.263899	0.0383115	-0.233513	-0.0995035	-0.298011	0.205887	-0.195088	-0.251339	-0.420898	-0.136043	-0.164122	-0.241671	-0.129415	-0.374445	-0.196318	-0.458532	-0.192286	-0.303968	-0.234372	-0.142692	-0.111966	-0.293635	
0.674435	2.09808	5	0	-0.412394	-0.448779	-0.347365	-0.218979	-0.226101	-0.284547	-0.236692	-0.0784615	-0.269553	-0.0951542	-0.262224	0.0480662	-0.23072	-0.0961552	-0.300865	0.21395	-0.195088	-0.251339	-0.415469	-0.141768	-0.164122	-0.241671	-0.130617	-0.371046	-0.202527	-0.454475	-0.188755	-0.304013	-0.234372	-0.142692	-0.106183	-0.293734	
0.673859	2.09808	5	0	-0.409591	-0.436544	-0.346737	-0.208551	-0.231094	-0.27947	-0.236212	-0.071753	-0.270418	-0.092709	-0.260549	0.057821	-0.227926	-0.092807	-0.303718	0.222014	-0.195088	-0.251339	-0.41004	-0.147492	-0.164122	-0.241671	-0.13182	-0.367647	-0.208737	-0.450417	-0.185223	-0.304058	-0.234372	-0.142692	-0.1004	-0.293832	
0.673636	2.09961	5	0	-0.404936	-0.42952	-0.351733	-0.194431	-0.231094	-0.27947	-0.234925	-0.067323	-0.273015	-0.0853697	-0.258876	0.0675945	-0.231501	-0.0827025	-0.302121	0.23028	-0.197019	-0.245882	-0.41405	-0.136159	-0.159232	-0.237478	-0.129997	-0.360993	-0.201466	-0.443972	-0.185859	-0.292318	-0.232769	-0.13271	-0.1014	-0.274747	
0.673709	2.10266	5	0	-0.400281	-0.422496	-0.356729	-0.180312	-0.231094	-0.27947	-0.233637	-0.062893	-0.275612	-0.0780305	-0.257204	0.077368	-0.235076	-0.072598	-0.300524	0.238546	-0.19895	-0.240425	-0.418061	-0.124826	-0.154342	-0.233285	-0.128173	-0.35434	-0.194195	-0.437528	-0.186495	-0.280579	-0.231166	-0.122728	-0.1024	-0.255663	
0.67402	2.09808	5	0	-0.395627	-0.415472	-0.361725	-0.166193	-0.231094	-0.27947	-0.23235	-0.058463	-0.278208	-0.0706913	-0.255532	0.0871415	-0.238652	-0.0624935	-0.298927	0.246812	-0.20088	-0.234968	-0.422071	-0.113492	-0.149452	-0.229091	-0.12635	-0.347686	-0.186924	-0.431083	-0.187132	-0.268839	-0.229564	-0.112746	-0.103399	-0.236578	
0.674509	2.10266	5	0	-0.390972	-0.408448	-0.366721	-0.152073	-0.231094	-0.27947	-0.231063	-0.054033	-0.280805	-0.063352	-0.253859	0.096915	-0.242227	-0.052389	-0.29733	0.255078	-0.202811	-0.229511	-0.426081	-0.102159	-0.144562	-0.224898	-0.124527	-0.341032	-0.179653	-0.424638	-0.187768	-0.257099	-0.227961	-0.102764	-0.104399	-0.217493	
0.675107	2.10113	5	0	-0.390035	-0.400997	-0.367971	-0.14854	-0.231094	-0.27947	-0.232681	-0.049459	-0.279939	-0.0657993	-0.257198	0.106351	-0.238241	-0.052402	-0.298759	0.259118	-0.204743	-0.22405	-0.427084	-0.0993235	-0.145413	-0.222494	-0.122704	-0.334369	-0.186106	-0.406401	-0.18841	-0.245336	-0.226361	-0.092762	-0.099622	-0.198431	
0.675745	2.09961	5	0	-0.389099	-0.393545	-0.369221	-0.145006	-0.231094	-0.27947	-0.234299	-0.044885	-0.279073	-0.0682465	-0.260537	0.115786	-0.234256	-0.052415	-0.300189	0.263158	-0.206676	-0.21859	-0.428087	-0.096488	-0.146263	-0.220089	-0.120881	-0.327706	-0.192559	-0.388165	-0.189053	-0.233574	-0.224762	-0.08276	-0.094845	-0.179369	
0.676351	2.09808	5	0	-0.388163	-0.386094	-0.370472	-0.141473	-0.231094	-0.27947	-0.235918	-0.040311	-0.278208	-0.0706937	-0.263875	0.125221	-0.23027	-0.052428	-0.301619	0.267198	-0.208608	-0.213129	-0.429091	-0.0936525	-0.147114	-0.217685	-0.119058	-0.321043	-0.199011	-0.369928	-0.189696	-0.221811	-0.223162	-0.072758	-0.090068	-0.160307	
0.676854	2.09808	5	0	-0.387226	-0.378643	-0.371722	-0.137939	-0.231094	-0.27947	-0.237536	-0.035737	-0.277342	-0.073141	-0.267214	0.134657	-0.226285	-0.052441	-0.303048	0.271238	-0.21054	-0.207669	-0.430094	-0.090817	-0.147965	-0.215281	-0.117235	-0.31438	-0.205464	-0.351691	-0.190338	-0.210048	-0.221562	-0.062756	-0.085291	-0.141245	
0.677196	2.10266	5	0	-0.387221	-0.368554	-0.371109	-0.127464	-0.227771	-0.279827	-0.23625	-0.0312993	-0.27994	-0.0657978	-0.257193	0.135371	-0.22349	-0.0490812	-0.300023	0.275478	-0.211507	-0.204937	-0.438945	-0.0850335	-0.152111	-0.212572	-0.118441	-0.310972	-0.200538	-0.352102	-0.191383	-0.207095	-0.222834	-0.05916	-0.0887017	-0.131606	
0.677458	2.10571	5	0	-0.387216	-0.358465	-0.370495	-0.116988	-0.224448	-0.280184	-0.234964	-0.0268615	-0.282539	-0.0584545	-0.247172	0.136084	-0.220696	-0.0457215	-0.296999	0.279718	-0.212473	-0.202206	-0.447796	-0.07925	-0.156257	-0.209863	-0.119647	-0.307564	-0.195611	-0.352514	-0.192428	-0.204141	-0.224106	-0.055564	-0.0921125	-0.121967	
0.677822	2.09808	5	0	-0.38721	-0.348376	-0.369881	-0.106512	-0.221125	-0.28054	-0.233679	-0.0224237	-0.285137	-0.0511112	-0.237151	0.136797	-0.217901	-0.0423618	-0.293974	0.283958	-0.21344	-0.199474	-0.456648	-0.0734665	-0.160404	-0.207153	-0.120853	-0.304156	-0.190685	-0.352926	-0.193473	-0.201187	-0.225379	-0.051968	-0.0955233	-0.112327	
0.678475	2.09961	5	0	-0.387205	-0.338287	-0.369268	-0.096037	-0.217802	-0.280897	-0.232393	-0.017986	-0.287735	-0.043768	-0.22713	0.137511	-0.215107	-0.039002	-0.29095	0.288198	-0.214406	-0.196743	-0.465499	-0.067683	-0.16455	-0.204444	-0.122059	-0.300748	-0.185758	-0.353337	-0.194518	-0.198234	-0.226651	-0.048372	-0.098934	-0.102688	
0.679602	2.10113	5	0	-0.396503	-0.332212	-0.371774	-0.0889547	-0.219473	-0.276174	-0.234824	-0.0111155	-0.286413	-0.0389818	-0.23215	0.151698	-0.213506	-0.0322625	-0.293814	0.296291	-0.21634	-0.191277	-0.470925	-0.061957	-0.161254	-0.204748	-0.124472	-0.293928	-0.179535	-0.357403	-0.195564	-0.195279	-0.225379	-0.051968	-0.108137	-0.0929663	
0.681386	2.09961	5	0	-0.405801	-0.326136	-0.37428	-0.0818725	-0.221144	-0.271452	-0.237255	-0.004245	-0.285091	-0.0341955	-0.23717	0.165884	-0.211905	-0.025523	-0.296677	0.304384	-0.218274	-0.185812	-0.476351	-0.056231	-0.157959	-0.205052	-0.126885	-0.287108	-0.173312	-0.36147	-0.196609	-0.192325	-0.224106	-0.055564	-0.117341	-0.0832445	
0.68384	2.10266	5	0	-0.415098	-0.320061	-0.376786	-0.0747903	-0.222815	-0.266729	-0.239686	0.0026255	-0.283769	-0.0294092	-0.242189	0.180071	-0.210304	-0.0187835	-0.29954	0.312477	-0.220208	-0.180347	-0.481777	-0.050505	-0.154664	-0.205357	-0.129298	-0.280289	-0.167088	-0.365537	-0.197654	-0.18937	-0.222834	-0.05916	-0.126545	-0.0735227	
0.686575	2.10266	5	0	-0.424396	-0.313986	-0.379292	-0.067708	-0.224486	-0.262006	-0.242117	0.009496	-0.282447	-0.024623	-0.247209	0.194258	-0.208703	-0.012044	-0.302404	0.32057	-0.222142	-0.174881	-0.487203	-0.044779	-0.151368	-0.205661	-0.131711	-0.273469	-0.160865	-0.369603	-0.1987	-0.186415	-0.221562	-0.062756	-0.135748	-0.063801	
0.689147	2.09808	5	0	-0.429967	-0.318421	-0.3818	-0.0606203	-0.225322	-0.259644	-0.246643	0.0142147	-0.28505	-0.0172677	-0.245548	0.204096	-0.217475	0.0014825	-0.300814	0.328875	-0.226013	-0.16394	-0.491221	-0.033424	-0.155626	-0.193627	-0.131102	-0.263369	-0.159811	-0.35905	-0.199352	-0.17462	-0.219965	-0.0527345	-0.125874	-0.0591162	
0.691109	2.10113	5	0	-0.435538	-0.322855	-0.384308	-0.0535325	-0.226158	-0.257281	-0.251169	0.0189335	-0.287652	-0.0099125	-0.243886	0.213935	-0.226247	0.015009	-0.299225	0.33718	-0.229884	-0.152999	-0.495239	-0.022069	-0.159884	-0.181592	-0.130493	-0.253269	-0.158757	-0.348497	-0.200004	-0.162824	-0.218369	-0.042713	-0.116	-0.0544315	
0.692015	2.10113	5	0	-0.441109	-0.32729	-0.386815	-0.0464448	-0.226993	-0.254919	-0.255694	0.0236522	-0.290255	-0.00255725	-0.242225	0.223773	-0.235019	0.0285355	-0.297635	0.345484	-0.233756	-0.142058	-0.499256	-0.010714	-0.164143	-0.169558	-0.129883	-0.243169	-0.157704	-0.337944	-0.200656	-0.151029	-0.216772	-0.0326915	-0.106125	-0.0497467	
0.69147	2.09808	5	0	-0.44668	-0.331725	-0.389323	-0.039357	-0.227829	-0.252557	-0.26022	0.028371	-0.292858	0.004798	-0.240563	0.233612	-0.243791	0.042062	-0.296046	0.353789	-0.237627	-0.131117	-0.503274	0.000641	-0.168401	-0.157524	-0.129274	-0.233069	-0.15665	-0.327391	-0.201308	-0.139234	-0.215175	-0.02267	-0.096251	-0.045062	
0.689692	2.09656	5	0	-0.455029	-0.328287	-0.391833	-0.0322638	-0.229501	-0.24783	-0.262654	0.0352488	-0.294594	0.009705	-0.242241	0.238353	-0.239803	0.0420565	-0.297481	0.357844	-0.239565	-0.125642	-0.509705	0.00921175	-0.1734	-0.152406	-0.138344	-0.219258	-0.159493	-0.305816	-0.206549	-0.124421	-0.213581	-0.0126285	-0.0990175	-0.0209265	
0.687319	2.10266	5	0	-0.463379	-0.324848	-0.394343	-0.0251705	-0.231174	-0.243104	-0.265088	0.0421265	-0.29633	0.014612	-0.243918	0.243095	-0.235816	0.042051	-0.298916	0.361899	-0.241502	-0.120166	-0.516136	0.0177825	-0.178399	-0.147288	-0.147414	-0.205448	-0.162335	-0.284242	-0.211791	-0.109608	-0.211987	-0.002587	-0.101784	0.003209	
0.684996	2.09656	5	0	-0.471728	-0.32141	-0.396853	-0.0180773	-0.232847	-0.238377	-0.267521	0.0490042	-0.298067	0.019519	-0.245596	0.247837	-0.231828	0.0420455	-0.30035	0.365953	-0.24344	-0.114691	-0.522566	0.0263532	-0.183397	-0.14217	-0.156483	-0.191638	-0.165178	-0.262667	-0.217032	-0.0947957	-0.210394	0.0074545	-0.10455	0.0273445	
0.683367	2.09808	5	0	-0.480077	-0.317972	-0.399363	-0.010984	-0.234519	-0.233651	-0.269955	0.055882	-0.299803	0.024426	-0.247274	0.252578	-0.22784	0.04204	-0.301785	0.370008	-0.245377	-0.109215	-0.528997	0.034924	-0.188396	-0.137052	-0.165553	-0.177827	-0.16802	-0.241093	-0.222274	-0.079983	-0.2088	0.017496	-0.107317	0.05148	
0.683075	2.09961	5	0	-0.487498	-0.307069	-0.408751	0.0033385	-0.229544	-0.229629	-0.271113	0.0672258	-0.299354	0.0316837	-0.245618	0.262443	-0.231433	0.0521942	-0.306093	0.382183	-0.250762	-0.103591	-0.534421	0.0406535	-0.188396	-0.137052	-0.166764	-0.174406	-0.16802	-0.241093	-0.21874	-0.0800123	-0.212943	0.0146595	-0.109033	0.0563297	
0.684357	2.10113	5	0	-0.494919	-0.296166	-0.418139	0.017661	-0.224569	-0.225607	-0.27227	0.0785695	-0.298905	0.0389415	-0.243961	0.272308	-0.235026	0.0623485	-0.310401	0.394359	-0.256146	-0.097967	-0.539844	0.046383	-0.188396	-0.137052	-0.167974	-0.170985	-0.16802	-0.241093	-0.215206	-0.0800415	-0.217086	0.011823	-0.110749	0.0611795	
0.686501	2.09961	5	0	-0.50234	-0.285264	-0.427527	0.0319835	-0.219593	-0.221585	-0.273428	0.0899133	-0.298456	0.0461992	-0.242305	0.282173	-0.238619	0.0725028	-0.31471	0.406534	-0.26153	-0.092343	-0.545268	0.0521125	-0.188396	-0.137052	-0.169184	-0.167564	-0.16802	-0.241093	-0.211673	-0.0800707	-0.221229	0.0089865	-0.112465	0.0660292	
0.688659	2.09808	5	0	-0.509761	-0.274361	-0.436915	0.046306	-0.214618	-0.217563	-0.274586	0.101257	-0.298007	0.053457	-0.240649	0.292038	-0.242212	0.082657	-0.319018	0.418709	-0.266915	-0.086719	-0.550691	0.057842	-0.188396	-0.137052	-0.170395	-0.164143	-0.16802	-0.241093	-0.208139	-0.0801	-0.225372	0.00615	-0.114181	0.070879	
0.689983	2.09656	5	0	-0.511637	-0.25899	-0.444466	0.0676455	-0.219646	-0.203354	-0.272845	0.112492	-0.297116	0.0680015	-0.245696	0.306301	-0.241821	0.0928242	-0.318878	0.431117	-0.266379	-0.0786395	-0.55371	0.0663757	-0.190101	-0.132233	-0.167376	-0.160852	-0.164381	-0.237827	-0.209189	-0.0771335	-0.227924	0.0133608	-0.115898	0.0757312	
0.689626	2.09961	5	0	-0.513513	-0.243618	-0.452016	0.088985	-0.224673	-0.189144	-0.271104	0.123727	-0.296224	0.082546	-0.250742	0.320563	-0.24143	0.102991	-0.318737	0.443526	-0.265844	-0.07056	-0.55673	0.0749095	-0.191806	-0.127413	-0.164357	-0.157562	-0.160742	-0.234561	-0.210238	-0.074167	-0.230475	0.0205715	-0.117615	0.0805835	
0.686889	2.09808	5	0	-0.515388	-0.228247	-0.459567	0.110325	-0.229701	-0.174935	-0.269364	0.134962	-0.295332	0.0970905	-0.255788	0.334825	-0.24104	0.113159	-0.318597	0.455935	-0.265308	-0.0624805	-0.55975	0.0834432	-0.193512	-0.122594	-0.161339	-0.154271	-0.157103	-0.231295	-0.211288	-0.0712005	-0.233026	0.0277823	-0.119332	0.0854357	
0.682766	2.09656	5	0	-0.517264	-0.212875	-0.467118	0.131664	-0.234729	-0.160726	-0.267623	0.146197	-0.294441	0.111635	-0.260835	0.349088	-0.240649	0.123326	-0.318456	0.468343	-0.264772	-0.054401	-0.562769	0.091977	-0.195217	-0.117774	-0.15832	-0.15098	-0.153464	-0.228029	-0.212338	-0.068234	-0.235578	0.034993	-0.121049	0.090288	
0.679327	2.09656	5	0	-0.517285	-0.202739	-0.465281	0.138681	-0.233921	-0.153962	-0.267977	0.155279	-0.295743	0.123853	-0.260876	0.363762	-0.239061	0.130115	-0.315439	0.47263	-0.267685	-0.0461687	-0.567808	0.106218	-0.194484	-0.110837	-0.161957	-0.140701	-0.151123	-0.221084	-0.208418	-0.0593808	-0.244821	0.0465808	-0.111166	0.0950335	
0.678661	2.10113	5	0	-0.517306	-0.192604	-0.463444	0.145699	-0.233113	-0.147197	-0.268331	0.164361	-0.297045	0.136071	-0.260918	0.378436	-0.237473	0.136905	-0.312422	0.476917	-0.270597	-0.0379365	-0.572847	0.120459	-0.193751	-0.103899	-0.165594	-0.130422	-0.148782	-0.214139	-0.204498	-0.0505275	-0.254064	0.0581685	-0.101282	0.099779	
0.682856	2.09808	5	0	-0.517328	-0.182468	-0.461606	0.152716	-0.232304	-0.140433	-0.268685	0.173444	-0.298347	0.148289	-0.26096	0.39311	-0.235884	0.143694	-0.309404	0.481204	-0.27351	-0.0297042	-0.577886	0.1347	-0.193018	-0.0969615	-0.169231	-0.120144	-0.146441	-0.207194	-0.200578	-0.0416743	-0.263307	0.0697562	-0.0913993	0.104525	
0.693996	2.09961	5	0	-0.517349	-0.172332	-0.459769	0.159733	-0.231496	-0.133668	-0.269039	0.182526	-0.299649	0.160507	-0.261001	0.407784	-0.234296	0.150483	-0.306387	0.485491	-0.276423	-0.021472	-0.582925	0.148941	-0.192285	-0.090024	-0.172868	-0.109865	-0.1441	-0.200249	-0.196658	-0.032821	-0.27255	0.081344	-0.081516	0.10927	
0.711967	2.09961	5	0	-0.515535	-0.157291	-0.463556	0.170435	-0.230689	-0.126895	-0.273934	0.196361	-0.296151	0.167708	-0.264377	0.417325	-0.2367	0.157277	-0.30927	0.49364	-0.280838	-0.018587	-0.587341	0.151826	-0.194724	-0.0921393	-0.178309	-0.10631	-0.143062	-0.189612	-0.205455	-0.0179278	-0.260443	0.076209	-0.0924813	0.123914	
0.730769	2.09808	5	0	-0.51372	-0.142251	-0.467342	0.181136	-0.229883	-0.120122	-0.278829	0.210197	-0.292653	0.174909	-0.267753	0.426866	-0.239104	0.164071	-0.312153	0.501788	-0.285254	-0.015702	-0.591756	0.154712	-0.197163	-0.0942545	-0.18375	-0.102754	-0.142024	-0.178974	-0.214252	-0.0030345	-0.248337	0.071074	-0.103446	0.138558	
0.743428	2.10113	5	0	-0.511905	-0.12721	-0.471129	0.191837	-0.229077	-0.113349	-0.283725	0.224032	-0.289155	0.182111	-0.271129	0.436408	-0.241508	0.170865	-0.315037	0.509937	-0.289669	-0.012817	-0.596171	0.157597	-0.199603	-0.0963698	-0.189192	-0.0991985	-0.140987	-0.168337	-0.223049	0.0118588	-0.236231	0.065939	-0.114412	0.153202	
0.74297	2.09808	5	0	-0.510091	-0.112169	-0.474916	0.202539	-0.22827	-0.106576	-0.28862	0.237867	-0.285657	0.189312	-0.274505	0.445949	-0.243912	0.177659	-0.31792	0.518085	-0.294085	-0.009932	-0.600587	0.160482	-0.202042	-0.098485	-0.194633	-0.095643	-0.139949	-0.157699	-0.231846	0.026752	-0.224124	0.060804	-0.125377	0.167846	
0.722421	2.09808	5	0	-0.504571	-0.097475	-0.47688	0.220307	-0.227465	-0.099794	-0.288984	0.246981	-0.283033	0.198999	-0.277885	0.4555	-0.241124	0.181064	-0.316348	0.526465	-0.295056	-0.00718625	-0.599579	0.157632	-0.20448	-0.100599	-0.198858	-0.0955175	-0.138646	-0.161381	-0.227258	0.0237543	-0.228264	0.0579587	-0.120215	0.153257	
0.675419	2.09656	5	0	-0.499051	-0.082781	-0.478843	0.238075	-0.22666	-0.093012	-0.289348	0.256095	-0.280409	0.208686	-0.281265	0.465052	-0.238336	0.18447	-0.314775	0.534845	-0.296028	-0.0044405	-0.59857	0.154782	-0.206918	-0.102713	-0.203082	-0.095392	-0.137344	-0.165063	-0.22267	0.0207565	-0.232404	0.0551135	-0.115053	0.138669	
0.608885	2.09961	5	0	-0.493532	-0.068087	-0.480807	0.255842	-0.225855	-0.08623	-0.289712	0.265208	-0.277784	0.218374	-0.284644	0.474604	-0.235548	0.187875	-0.313203	0.543225	-0.296999	-0.00169475	-0.597561	0.151931	-0.209356	-0.104828	-0.207307	-0.0952665	-0.136041	-0.168745	-0.218083	0.0177588	-0.236544	0.0522683	-0.109891	0.124081	
0.54262	2.10113	5	0	-0.488012	-0.053393	-0.482771	0.27361	-0.22505	-0.079448	-0.290076	0.274322	-0.27516	0.228061	-0.288024	0.484155	-0.23276	0.19128	-0.311631	0.551605	-0.297971	0.001051	-0.596553	0.149081	-0.211794	-0.106942	-0.211532	-0.095141	-0.134738	-0.172427	-0.213495	0.014761	-0.240684	0.049423	-0.104729	0.109492	
0.496949	2.09503	5	0	-0.48715	-0.035607	-0.484749	0.291427	-0.225932	-0.0678955	-0.291262	0.285764	-0.278232	0.2453	-0.279685	0.489735	-0.23238	0.201498	-0.314521	0.559772	-0.298943	0.00379775	-0.599579	0.157634	-0.214354	-0.0997077	-0.20852	-0.0918377	-0.123535	-0.176916	-0.213119	0.023673	-0.240684	0.049423	-0.0896765	0.0996563	
0.491005	2.09656	5	0	-0.486287	-0.017821	-0.486728	0.309244	-0.226813	-0.056343	-0.292449	0.297206	-0.281304	0.262539	-0.271346	0.495316	-0.232	0.211716	-0.31741	0.567939	-0.299915	0.0065445	-0.602606	0.166187	-0.216914	-0.0924735	-0.205509	-0.0885345	-0.112333	-0.181405	-0.212744	0.032585	-0.240684	0.049423	-0.074624	0.0898205	
0.526068	2.09808	5	0	-0.485424	-3.5E-05	-0.488706	0.327061	-0.227694	-0.0447905	-0.293635	0.308648	-0.284375	0.279778	-0.263007	0.500896	-0.23162	0.221934	-0.3203	0.576106	-0.300887	0.00929125	-0.605632	0.17474	-0.219473	-0.0852393	-0.202497	-0.0852313	-0.10113	-0.185895	-0.212368	0.041497	-0.240684	0.049423	-0.0595715	0.0799848	
0.58967	2.09656	5	0	-0.484562	0.017751	-0.490685	0.344878	-0.228576	-0.033238	-0.294821	0.32009	-0.287447	0.297017	-0.254668	0.506476	-0.23124	0.232152	-0.32319	0.584273	-0.301859	0.012038	-0.608658	0.183293	-0.222033	-0.078005	-0.199486	-0.081928	-0.089927	-0.190384	-0.211992	0.050409	-0.240684	0.049423	-0.044519	0.070149	
0.66899	2.09656	5	0	-0.481828	0.0302707	-0.491406	0.35915	-0.226933	-0.0288172	-0.294373	0.326918	-0.287896	0.306847	-0.264767	0.520438	-0.234857	0.242376	-0.333431	0.600394	-0.303804	0.0175338	-0.612698	0.19471	-0.224595	-0.070765	-0.201914	-0.0750663	-0.0865383	-0.172751	-0.205596	0.0622842	-0.231122	0.0515025	-0.0421448	0.0798133	
0.751208	2.09656	5	0	-0.479095	0.0427905	-0.492127	0.373422	-0.225289	-0.0243965	-0.293926	0.333746	-0.288345	0.316678	-0.274866	0.5344	-0.238475	0.252599	-0.343673	0.616515	-0.305748	0.0230295	-0.616737	0.206126	-0.227156	-0.063525	-0.204342	-0.0682045	-0.0831495	-0.155118	-0.199199	0.0741595	-0.22156	0.053582	-0.0397705	0.0894775	
0.823504	2.09656	5	0	-0.476361	0.0553103	-0.492849	0.387693	-0.223645	-0.0199758	-0.293478	0.340573	-0.288794	0.326508	-0.284965	0.548361	-0.242093	0.262823	-0.353914	0.632635	-0.307692	0.0285253	-0.620777	0.217542	-0.229718	-0.056285	-0.20677	-0.0613428	-0.0797607	-0.137485	-0.192802	0.0860347	-0.211999	0.0556615	-0.0373962	0.0991418	
0.873057	2.09808	5	0	-0.473628	0.06783	-0.49357	0.401965	-0.222002	-0.015555	-0.29303	0.347401	-0.289243	0.336339	-0.295064	0.562323	-0.24571	0.273047	-0.364156	0.648756	-0.309637	0.034021	-0.624817	0.228959	-0.23228	-0.049045	-0.209198	-0.054481	-0.076372	-0.119852	-0.186406	0.09791	-0.202437	0.057741	-0.035022	0.108806	
0.88763	2.09961	5	0	-0.472785	0.0857168	-0.4943	0.41627	-0.221202	-0.008744	-0.293405	0.356557	-0.286632	0.346095	-0.300154	0.576708	-0.242924	0.276472	-0.359702	0.648991	-0.308665	0.0312728	-0.623806	0.226104	-0.230572	-0.0538725	-0.213421	-0.0543592	-0.0714102	-0.120254	-0.180375	0.100862	-0.202437	0.057741	-0.0408367	0.108865	
0.86719	2.09503	5	0	-0.471943	0.103604	-0.495031	0.430576	-0.220403	-0.001933	-0.29378	0.365712	-0.284021	0.355851	-0.305244	0.591093	-0.240138	0.279896	-0.355248	0.649227	-0.307692	0.0285245	-0.622796	0.223248	-0.228864	-0.0587	-0.217644	-0.0542375	-0.0664485	-0.120656	-0.174345	0.103814	-0.202437	0.057741	-0.0466515	0.108924	
0.823294	2.09656	5	0	-0.471101	0.12149	-0.495761	0.444882	-0.219604	0.004878	-0.294155	0.374868	-0.281411	0.365608	-0.310333	0.605477	-0.237352	0.283321	-0.350794	0.649463	-0.306719	0.0257763	-0.621785	0.220392	-0.227156	-0.0635275	-0.221868	-0.0541158	-0.0614867	-0.121058	-0.168315	0.106765	-0.202437	0.057741	-0.0524662	0.108982	
0.767954	2.0935	5	0	-0.470258	0.139377	-0.496491	0.459187	-0.218804	0.011689	-0.29453	0.384024	-0.2788	0.375364	-0.315423	0.619862	-0.234566	0.286746	-0.34634	0.649698	-0.305747	0.023028	-0.620775	0.217537	-0.225448	-0.068355	-0.226091	-0.053994	-0.056525	-0.12146	-0.162284	0.109717	-0.202437	0.057741	-0.058281	0.109041	
0.713185	2.09198	5	0	-0.468482	0.154646	-0.492866	0.473449	-0.219697	0.023287	-0.296553	0.39784	-0.277072	0.387631	-0.320521	0.63427	-0.239399	0.300407	-0.350688	0.661985	-0.305747	0.023028	-0.620775	0.217537	-0.223741	-0.0731798	-0.224877	-0.0574242	-0.0578328	-0.117764	-0.155188	0.109679	-0.207859	0.0585067	-0.0548405	0.099318	
0.670994	2.09656	5	0	-0.466706	0.169916	-0.48924	0.487712	-0.22059	0.034885	-0.298575	0.411656	-0.275344	0.399899	-0.32562	0.648678	-0.244233	0.314067	-0.355036	0.674272	-0.305747	0.023028	-0.620775	0.217537	-0.222033	-0.0780045	-0.223663	-0.0608545	-0.0591405	-0.114068	-0.148091	0.109641	-0.21328	0.0592725	-0.0514	0.089595	
0.649283	2.09198	5	0	-0.46493	0.185186	-0.485615	0.501974	-0.221483	0.046483	-0.300598	0.425473	-0.273617	0.412166	-0.330718	0.663087	-0.249067	0.327728	-0.359383	0.686559	-0.305747	0.023028	-0.620775	0.217537	-0.220326	-0.0828292	-0.22245	-0.0642848	-0.0604482	-0.110373	-0.140995	0.109602	-0.218702	0.0600383	-0.0479595	0.079872	
0.644448	2.0935	5	0	-0.463154	0.200455	-0.48199	0.516236	-0.222376	0.058081	-0.302621	0.439289	-0.271889	0.424434	-0.335816	0.677495	-0.2539	0.341388	-0.363731	0.698846	-0.305747	0.023028	-0.620775	0.217537	-0.218619	-0.087654	-0.221236	-0.067715	-0.061756	-0.106677	-0.133899	0.109564	-0.224124	0.060804	-0.044519	0.070149	
0.650884	2.0935	5	0	-0.459489	0.210409	-0.482737	0.530614	-0.22576	0.0676453	-0.303005	0.448479	-0.276301	0.436902	-0.339219	0.687113	-0.25632	0.348226	-0.366633	0.707047	-0.305747	0.023028	-0.618381	0.220364	-0.215328	-0.0879497	-0.217012	-0.067838	-0.0518217	-0.107482	-0.129974	0.118509	-0.218702	0.0600383	-0.035264	0.0603673	
0.662985	2.0935	5	0	-0.455824	0.220363	-0.483485	0.544992	-0.229145	0.0772095	-0.303389	0.457669	-0.280712	0.449369	-0.342622	0.696732	-0.25874	0.355064	-0.369534	0.715248	-0.305747	0.023028	-0.615986	0.223191	-0.212037	-0.0882455	-0.212788	-0.067961	-0.0418875	-0.108287	-0.126049	0.127455	-0.21328	0.0592725	-0.026009	0.0505855	
0.675145	2.0935	5	0	-0.452159	0.230316	-0.484233	0.559371	-0.232529	0.0867737	-0.303774	0.466859	-0.285123	0.461837	-0.346026	0.70635	-0.261159	0.361902	-0.372436	0.723448	-0.305747	0.023028	-0.613592	0.226017	-0.208747	-0.0885413	-0.208565	-0.068084	-0.0319533	-0.109093	-0.122123	0.136401	-0.207859	0.0585067	-0.016754	0.0408037	
0.682175	2.09503	5	0	-0.448494	0.24027	-0.48498	0.573749	-0.235913	0.096338	-0.304158	0.476049	-0.289535	0.474305	-0.349429	0.715968	-0.263579	0.36874	-0.375338	0.731649	-0.305747	0.023028	-0.611198	0.228844	-0.205456	-0.088837	-0.204341	-0.068207	-0.022019	-0.109898	-0.118198	0.145346	-0.202437	0.057741	-0.007499	0.031022	
0.683239	2.09198	5	0	-0.44856	0.250621	-0.488822	0.584607	-0.233428	0.0983935	-0.310359	0.485469	-0.286469	0.47422	-0.349429	0.715968	-0.26479	0.372161	-0.375338	0.731649	-0.304775	0.0202805	-0.613592	0.226017	-0.207894	-0.0909525	-0.208565	-0.068084	-0.0236005	-0.0917785	-0.118889	0.157327	-0.19829	0.060588	-0.0109375	0.0407397	
0.680097	2.0935	5	0	-0.448626	0.260972	-0.492664	0.595465	-0.230942	0.100449	-0.316559	0.494889	-0.283402	0.474135	-0.349429	0.715968	-0.266	0.375582	-0.375338	0.731649	-0.303803	0.017533	-0.615986	0.223191	-0.210331	-0.093068	-0.212788	-0.067961	-0.025182	-0.073659	-0.119581	0.169309	-0.194142	0.063435	-0.014376	0.0504575	
0.674542	2.09045	5	0	-0.448692	0.271322	-0.496506	0.606323	-0.228457	0.102504	-0.32276	0.50431	-0.280335	0.47405	-0.349429	0.715968	-0.267211	0.379003	-0.375338	0.731649	-0.302831	0.0147855	-0.618381	0.220364	-0.212768	-0.0951835	-0.217012	-0.067838	-0.0267635	-0.0555395	-0.120273	0.18129	-0.189995	0.066282	-0.0178145	0.0601752	
0.668369	2.09198	5	0	-0.448758	0.281673	-0.500348	0.617181	-0.225972	0.10456	-0.328961	0.51373	-0.277269	0.473965	-0.349429	0.715968	-0.268421	0.382424	-0.375338	0.731649	-0.301859	0.012038	-0.620775	0.217537	-0.215206	-0.097299	-0.221236	-0.067715	-0.028345	-0.03742	-0.120964	0.193271	-0.185847	0.069129	-0.021253	0.069893	
0.663353	2.0935	5	0	-0.444145	0.288982	-0.49546	0.627922	-0.225181	0.111408	-0.328529	0.520613	-0.280803	0.483954	-0.357837	0.725162	-0.268421	0.382424	-0.37679	0.735752	-0.304329	0.00942925	-0.615349	0.211797	-0.2135	-0.10212	-0.220023	-0.071144	-0.0296575	-0.0337105	-0.116347	0.190254	-0.189995	0.066282	-0.0178145	0.0601752	
0.660363	2.09045	5	0	-0.439533	0.296291	-0.490571	0.638663	-0.22439	0.118256	-0.328097	0.527496	-0.284338	0.493943	-0.366246	0.734357	-0.268421	0.382424	-0.378242	0.739855	-0.306798	0.0068205	-0.609924	0.206058	-0.211794	-0.10694	-0.218809	-0.074573	-0.03097	-0.030001	-0.111729	0.187237	-0.194142	0.063435	-0.014376	0.0504575	
0.659015	2.08893	5	0	-0.434921	0.3036	-0.485683	0.649404	-0.223599	0.125104	-0.327665	0.534378	-0.287873	0.503933	-0.374654	0.743551	-0.268421	0.382424	-0.379693	0.743959	-0.309267	0.00421175	-0.604498	0.200318	-0.210089	-0.111761	-0.217596	-0.078002	-0.0322825	-0.0262915	-0.107111	0.184219	-0.19829	0.060588	-0.0109375	0.0407397	
0.658833	2.08893	5	0	-0.430308	0.310909	-0.480795	0.660145	-0.222808	0.131952	-0.327233	0.541261	-0.291407	0.513922	-0.383062	0.752745	-0.268421	0.382424	-0.381145	0.748062	-0.311737	0.001603	-0.599073	0.194578	-0.208383	-0.116582	-0.216383	-0.081431	-0.033595	-0.022582	-0.102494	0.181202	-0.202437	0.057741	-0.007499	0.031022	
0.659342	2.08893	5	0	-0.428713	0.347158	-0.481565	0.674611	-0.225353	0.139144	-0.333041	0.541473	-0.293589	0.511507	-0.378061	0.753179	-0.27241	0.382401	-0.388591	0.743468	-0.3187	-0.0170252	-0.602229	0.174733	-0.203628	-0.102996	-0.222399	-0.088034	-0.018939	-0.00930125	-0.0964395	0.184173	-0.221545	0.0535817	-0.015699	0.0214625	
0.660066	2.08588	5	0	-0.427119	0.383408	-0.482335	0.689078	-0.227897	0.146335	-0.33885	0.541685	-0.295771	0.509092	-0.373059	0.753613	-0.2764	0.382378	-0.396037	0.738874	-0.325662	-0.0356535	-0.605386	0.154888	-0.198872	-0.0894095	-0.228416	-0.094637	-0.004283	0.0039795	-0.090385	0.187144	-0.240652	0.0494225	-0.023899	0.011903	
0.660637	2.09045	5	0	-0.425524	0.419658	-0.483106	0.703545	-0.230441	0.153527	-0.344658	0.541896	-0.297952	0.506676	-0.368058	0.754048	-0.28039	0.382355	-0.403483	0.734281	-0.332624	-0.0542817	-0.608542	0.135043	-0.194116	-0.0758233	-0.234432	-0.10124	0.010373	0.0172603	-0.0843305	0.190114	-0.259759	0.0452633	-0.032099	0.0023435	
0.661008	2.0874	5	0	-0.423929	0.455907	-0.483876	0.718011	-0.232986	0.160718	-0.350466	0.542108	-0.300134	0.504261	-0.363057	0.754482	-0.284379	0.382332	-0.410929	0.729687	-0.339587	-0.07291	-0.611699	0.115198	-0.189361	-0.062237	-0.240449	-0.107843	0.025029	0.030541	-0.078276	0.193085	-0.278867	0.041104	-0.040299	-0.007216	
0.661191	2.09045	5	0	-0.402876	0.508952	-0.489027	0.732568	-0.247028	0.145967	-0.363744	0.531109	-0.318438	0.487482	-0.366355	0.749235	-0.286309	0.365211	-0.442054	0.715452	-0.370504	-0.0904667	-0.635613	0.0872177	-0.178135	-0.039794	-0.242245	-0.11456	0.027807	0.077552	-0.0757782	0.196075	-0.300754	0.0305142	-0.038585	-0.0120605	
0.6612	2.09198	5	0	-0.381824	0.561996	-0.494177	0.747124	-0.26107	0.131217	-0.377023	0.52011	-0.336742	0.470702	-0.369653	0.743988	-0.28824	0.34809	-0.473179	0.701217	-0.401421	-0.108023	-0.659528	0.0592375	-0.166908	-0.017351	-0.244041	-0.121276	0.030585	0.124563	-0.0732805	0.199065	-0.32264	0.0199245	-0.036871	-0.016905	
0.661047	2.08893	5	0	-0.360772	0.615041	-0.499328	0.761681	-0.275111	0.116466	-0.390301	0.509111	-0.355045	0.453923	-0.372951	0.73874	-0.29017	0.330969	-0.504304	0.686982	-0.432338	-0.12558	-0.683442	0.0312573	-0.155682	0.005092	-0.245837	-0.127993	0.033363	0.171574	-0.0707828	0.202054	-0.344527	0.00933475	-0.035157	-0.0217495	
0.660756	2.09045	5	0	-0.339719	0.668085	-0.504479	0.776238	-0.289153	0.101715	-0.403579	0.498112	-0.373349	0.437144	-0.376249	0.733493	-0.292101	0.313848	-0.535429	0.672747	-0.463255	-0.143137	-0.707356	0.003277	-0.144455	0.027535	-0.247633	-0.13471	0.036141	0.218585	-0.068285	0.205044	-0.366414	-0.001255	-0.033443	-0.026594	
0.660431	2.08893	5	0	-0.301694	0.72554	-0.499605	0.787068	-0.305631	0.0849787	-0.413548	0.477886	-0.38984	0.415493	-0.377748	0.708626	-0.293212	0.283176	-0.575251	0.645678	-0.499396	-0.173698	-0.744035	-0.0354973	-0.146447	0.051255	-0.248814	-0.154935	0.0374963	0.269779	-0.0754053	0.205075	-0.396107	-0.00390325	-0.046111	-0.00713725	
0.66021	2.08893	5	0	-0.263668	0.782995	-0.494731	0.797898	-0.322109	0.0682425	-0.423517	0.457661	-0.406331	0.393842	-0.379247	0.683759	-0.294324	0.252503	-0.615074	0.618608	-0.535538	-0.204259	-0.780714	-0.0742715	-0.148438	0.074975	-0.249995	-0.175159	0.0388515	0.320973	-0.0825255	0.205105	-0.425799	-0.0065515	-0.058779	0.0123195	
0.660231	2.09198	5	0	-0.225643	0.84045	-0.489857	0.808728	-0.338588	0.0515062	-0.433486	0.437436	-0.422822	0.372192	-0.380746	0.658893	-0.295436	0.221831	-0.654896	0.591538	-0.571679	-0.234819	-0.817393	-0.113046	-0.150429	0.098695	-0.251175	-0.195384	0.0402067	0.372167	-0.0896457	0.205136	-0.455491	-0.00919975	-0.071447	0.0317763	
0.660632	2.09198	5	0	-0.187618	0.897905	-0.484983	0.819558	-0.355066	0.03477	-0.443455	0.41721	-0.439313	0.350541	-0.382245	0.634026	-0.296547	0.191159	-0.694718	0.564469	-0.607821	-0.26538	-0.854072	-0.15182	-0.152421	0.122415	-0.252356	-0.215609	0.041562	0.423361	-0.096766	0.205167	-0.485184	-0.011848	-0.084115	0.051233	
0.661537	2.09045	5	0	-0.147138	0.929016	-0.473138	0.823051	-0.376475	0.0231883	-0.464071	0.411139	-0.45447	0.333855	-0.400502	0.627553	-0.301672	0.160654	-0.726954	0.542118	-0.63456	-0.293418	-0.8858	-0.184719	-0.145231	0.138332	-0.266168	-0.23535	0.040857	0.452926	-0.106369	0.202207	-0.511918	-0.00812475	-0.085832	0.0560853	
0.662764	2.09045	5	0	-0.106658	0.960128	-0.461294	0.826543	-0.397884	0.0116065	-0.484688	0.405067	-0.469626	0.317169	-0.418759	0.621081	-0.306798	0.13015	-0.75919	0.519767	-0.661299	-0.321457	-0.917529	-0.217617	-0.138041	0.154249	-0.27998	-0.25509	0.040152	0.482492	-0.115971	0.199247	-0.538651	-0.0044015	-0.087549	0.0609375	
0.66384	2.08893	5	0	-0.066178	0.991239	-0.449449	0.830036	-0.419294	2.475E-05	-0.505304	0.398996	-0.484783	0.300483	-0.437015	0.614609	-0.311923	0.0996447	-0.791427	0.497415	-0.688038	-0.349495	-0.949258	-0.250516	-0.130852	0.170167	-0.293791	-0.274831	0.039447	0.512057	-0.125574	0.196287	-0.565385	-0.00067825	-0.089266	0.0657897	
0.664281	2.09045	5	0	-0.025698	1.02235	-0.437604	0.833529	-0.440703	-0.011557	-0.525921	0.392924	-0.499939	0.283797	-0.455272	0.608136	-0.317048	0.06914	-0.823663	0.475064	-0.714777	-0.377533	-0.980986	-0.283415	-0.123662	0.186084	-0.307603	-0.294572	0.038742	0.541622	-0.135176	0.193327	-0.592119	0.003045	-0.090983	0.070642	
0.663604	2.09198	5	0	-0.0316157	1.03907	-0.440693	0.829929	-0.460413	-0.018703	-0.532492	0.395443	-0.509908	0.286521	-0.463633	0.617275	-0.324187	0.0556447	-0.848356	0.469593	-0.732672	-0.392591	-0.999039	-0.288692	-0.115753	0.209128	-0.311802	-0.294437	0.0430123	0.57099	-0.133748	0.199319	-0.609367	0.00882475	-0.090337	0.0851617	
0.661329	2.09503	5	0	-0.0375335	1.0558	-0.443782	0.826329	-0.480123	-0.025849	-0.539062	0.397962	-0.519877	0.289245	-0.471994	0.626415	-0.331325	0.0421495	-0.873048	0.464123	-0.750568	-0.407649	-1.01709	-0.293969	-0.107844	0.232172	-0.316001	-0.294303	0.0472825	0.600358	-0.13232	0.205311	-0.626615	0.0146045	-0.089691	0.0996815	
0.657632	2.09808	5	0	-0.0434513	1.07252	-0.446872	0.822729	-0.499832	-0.032995	-0.545632	0.400482	-0.529847	0.291969	-0.480354	0.635555	-0.338464	0.0286542	-0.89774	0.458652	-0.768463	-0.422707	-1.03515	-0.299247	-0.0999357	0.255216	-0.3202	-0.294168	0.0515527	0.629726	-0.130892	0.211302	-0.643863	0.0203842	-0.089045	0.114201	
0.654059	2.09808	5	0	-0.049369	1.08925	-0.449961	0.819129	-0.519542	-0.040141	-0.552203	0.403001	-0.539816	0.294693	-0.488715	0.644694	-0.345603	0.015159	-0.922433	0.453182	-0.786358	-0.437765	-1.0532	-0.304524	-0.092027	0.27826	-0.324399	-0.294033	0.055823	0.659094	-0.129464	0.217294	-0.661111	0.026164	-0.088399	0.128721	
0.652324	2.10571	5	0	-0.049369	1.08925	-0.461799	0.815641	-0.539181	-0.047275	-0.553446	0.398494	-0.548899	0.294947	-0.497071	0.653833	-0.351153	0.0084295	-0.926774	0.452938	-0.797905	-0.442531	-1.04948	-0.296288	-0.079926	0.298681	-0.329205	-0.28045	0.0650915	0.688292	-0.133361	0.23834	-0.672748	0.0447535	-0.0785008	0.133481	
0.654146	2.11334	5	0	-0.049369	1.08925	-0.473637	0.812153	-0.55882	-0.054409	-0.554689	0.393988	-0.557982	0.2952	-0.505428	0.662971	-0.356703	0.0017	-0.931115	0.452693	-0.809453	-0.447298	-1.04576	-0.288053	-0.067825	0.319102	-0.334011	-0.266867	0.07436	0.717491	-0.137258	0.259386	-0.684386	0.063343	-0.0686025	0.138241	
0.66124	2.11487	5	0	-0.049369	1.08925	-0.485474	0.808665	-0.578459	-0.061543	-0.555932	0.389482	-0.567065	0.295454	-0.513784	0.672109	-0.362252	-0.0050295	-0.935457	0.452449	-0.821001	-0.452064	-1.04204	-0.279817	-0.055724	0.339523	-0.338817	-0.253285	0.0836285	0.746689	-0.141155	0.280433	-0.696024	0.0819325	-0.0587042	0.143001	
0.674243	2.11944	5	0	-0.049369	1.08925	-0.497312	0.805177	-0.598098	-0.068677	-0.557175	0.384975	-0.576148	0.295708	-0.52214	0.681248	-0.367802	-0.011759	-0.939798	0.452205	-0.832548	-0.45683	-1.03832	-0.271581	-0.043623	0.359944	-0.343623	-0.239702	0.092897	0.775887	-0.145052	0.301479	-0.707661	0.100522	-0.048806	0.147761	
0.688422	2.12707	5	0	-0.0551573	1.09517	-0.501682	0.80523	-0.603757	-0.079464	-0.558418	0.380472	-0.580454	0.290955	-0.527105	0.680814	-0.372158	-0.0218353	-0.942719	0.447956	-0.844071	-0.46159	-1.04029	-0.266026	-0.045696	0.384046	-0.340043	-0.226349	0.0930315	0.81716	-0.147901	0.319569	-0.721837	0.126296	-0.0591665	0.177042	
0.697384	2.12707	5	0	-0.0609455	1.1011	-0.506053	0.805282	-0.609416	-0.090251	-0.559662	0.37597	-0.584761	0.286201	-0.532071	0.68038	-0.376514	-0.0319115	-0.94564	0.443707	-0.855594	-0.466351	-1.04225	-0.26047	-0.047769	0.408147	-0.336462	-0.212995	0.093166	0.858432	-0.150751	0.33766	-0.736012	0.152069	-0.069527	0.206323	
0.694733	2.13165	5	0	-0.0667338	1.10703	-0.510423	0.805334	-0.615075	-0.101038	-0.560905	0.371468	-0.589067	0.281448	-0.537036	0.679946	-0.380869	-0.0419877	-0.948561	0.439458	-0.867117	-0.471111	-1.04422	-0.254914	-0.049842	0.432249	-0.332881	-0.199641	0.0933005	0.899704	-0.1536	0.35575	-0.750188	0.177842	-0.0798875	0.235603	
0.674075	2.14538	5	0	-0.072522	1.11296	-0.514793	0.805387	-0.620734	-0.111825	-0.562148	0.366965	-0.593374	0.276694	-0.542001	0.679512	-0.385225	-0.052064	-0.951482	0.435209	-0.87864	-0.475871	-1.04618	-0.249359	-0.051915	0.456351	-0.329301	-0.186288	0.093435	0.940977	-0.156449	0.37384	-0.764364	0.203616	-0.090248	0.264884	
0.630111	2.14844	5	0	-0.083104	1.12202	-0.514793	0.805387	-0.630488	-0.119906	-0.565449	0.360273	-0.591634	0.271776	-0.542001	0.679512	-0.382064	-0.0721805	-0.963154	0.41826	-0.892124	-0.493613	-1.06261	-0.268467	-0.0529615	0.468436	-0.335874	-0.202909	0.0902735	0.963817	-0.160702	0.355761	-0.777729	0.198587	-0.0937092	0.274666	
0.571603	2.14996	5	0	-0.093686	1.13108	-0.514793	0.805387	-0.640242	-0.127987	-0.568751	0.353582	-0.589894	0.266858	-0.542001	0.679512	-0.378904	-0.092297	-0.974826	0.401311	-0.905608	-0.511355	-1.07904	-0.287575	-0.054008	0.480522	-0.342448	-0.219531	0.087112	0.986656	-0.164955	0.337681	-0.791095	0.193558	-0.0971705	0.284447	
0.517049	2.15912	5	0	-0.104268	1.14014	-0.514793	0.805387	-0.649996	-0.136068	-0.572053	0.34689	-0.588154	0.261941	-0.542001	0.679512	-0.375743	-0.112413	-0.986497	0.384362	-0.919091	-0.529096	-1.09547	-0.306683	-0.0550545	0.492607	-0.349021	-0.236152	0.0839505	1.0095	-0.169207	0.319601	-0.80446	0.18853	-0.100632	0.294229	
0.485142	2.16827	5	0	-0.11485	1.1492	-0.514793	0.805387	-0.65975	-0.144149	-0.575354	0.340199	-0.586414	0.257023	-0.542001	0.679512	-0.372582	-0.13253	-0.998169	0.367413	-0.932575	-0.546838	-1.11189	-0.325791	-0.056101	0.504693	-0.355594	-0.252773	0.080789	1.03234	-0.17346	0.301522	-0.817825	0.183501	-0.104093	0.30401	
0.492142	2.1698	5	0	-0.107527	1.17022	-0.52174	0.812729	-0.677606	-0.155905	-0.585632	0.329251	-0.58513	0.261856	-0.540424	0.689523	-0.380128	-0.155869	-1.03136	0.349353	-0.954555	-0.558926	-1.14811	-0.344534	-0.0540067	0.526185	-0.372321	-0.275697	0.0776032	1.05525	-0.189404	0.286533	-0.84698	0.18059	-0.09767	0.318649	
0.534846	2.18048	5	0	-0.100204	1.19123	-0.528686	0.820071	-0.695461	-0.167662	-0.59591	0.318304	-0.583847	0.26669	-0.538848	0.699534	-0.387674	-0.179208	-1.06455	0.331292	-0.976535	-0.571014	-1.18433	-0.363277	-0.0519125	0.547678	-0.389048	-0.298621	0.0744175	1.07817	-0.205348	0.271544	-0.876135	0.177679	-0.091247	0.333288	
0.600729	2.18658	5	0	-0.0928802	1.21225	-0.535632	0.827413	-0.713317	-0.179418	-0.606188	0.307356	-0.582564	0.271523	-0.537272	0.709546	-0.39522	-0.202548	-1.09774	0.313232	-0.998514	-0.583102	-1.22054	-0.382019	-0.0498183	0.56917	-0.405775	-0.321545	0.0712317	1.10109	-0.221293	0.256555	-0.905291	0.174768	-0.084824	0.347928	
0.677207	2.18963	5	0	-0.085557	1.23327	-0.542579	0.834755	-0.731173	-0.191174	-0.616466	0.296409	-0.58128	0.276356	-0.535695	0.719557	-0.402766	-0.225887	-1.13094	0.295172	-1.02049	-0.59519	-1.25676	-0.400762	-0.047724	0.590662	-0.422502	-0.344469	0.068046	1.12401	-0.237237	0.241566	-0.934446	0.171857	-0.078401	0.362567	
0.751697	2.19574	5	0	-0.0727452	1.27029	-0.542088	0.845657	-0.749795	-0.200557	-0.625485	0.289965	-0.579126	0.278732	-0.53582	0.734388	-0.412668	-0.242461	-1.16393	0.277208	-1.03762	-0.602252	-1.28214	-0.40318	-0.0449575	0.619454	-0.431445	-0.354194	0.0721587	1.15419	-0.247841	0.241582	-0.952749	0.181077	-0.0678897	0.382157	
0.811613	2.19574	5	0	-0.0599335	1.30731	-0.541597	0.85656	-0.768417	-0.20994	-0.634505	0.283521	-0.576971	0.281108	-0.535945	0.749219	-0.422571	-0.259034	-1.19692	0.259245	-1.05474	-0.609314	-1.30751	-0.405597	-0.042191	0.648246	-0.440388	-0.363919	0.0762715	1.18438	-0.258445	0.241598	-0.971053	0.190296	-0.0573785	0.401746	
0.844372	2.19879	5	0	-0.0471217	1.34433	-0.541106	0.867462	-0.787039	-0.219323	-0.643525	0.277077	-0.574817	0.283485	-0.53607	0.764049	-0.432473	-0.275608	-1.22991	0.241281	-1.07187	-0.616375	-1.33289	-0.408015	-0.0394245	0.677038	-0.449332	-0.373644	0.0803843	1.21456	-0.269049	0.241614	-0.989356	0.199516	-0.0468672	0.421335	
0.841714	2.20489	5	0	-0.03431	1.38134	-0.540615	0.878364	-0.805661	-0.228706	-0.652544	0.270633	-0.572663	0.285861	-0.536195	0.77888	-0.442375	-0.292181	-1.2629	0.223318	-1.08899	-0.623437	-1.35826	-0.410433	-0.036658	0.70583	-0.458275	-0.383369	0.084497	1.24475	-0.279653	0.24163	-1.00766	0.208735	-0.036356	0.440925	
0.811476	2.20795	5	0	-0.0203235	1.40481	-0.527998	0.867313	-0.819339	-0.243039	-0.656265	0.257235	-0.571792	0.2834	-0.531226	0.779326	-0.44992	-0.315311	-1.28728	0.193929	-1.10369	-0.627997	-1.38717	-0.420995	-0.04039	0.725541	-0.470776	-0.382971	0.079872	1.27178	-0.292704	0.238651	-1.03765	0.222852	-0.0375065	0.460638	
0.765237	2.20642	5	0	-0.006337	1.42828	-0.515382	0.856262	-0.833017	-0.257373	-0.659986	0.243836	-0.570922	0.280938	-0.526257	0.779771	-0.457464	-0.338442	-1.31166	0.16454	-1.11839	-0.632557	-1.41607	-0.431557	-0.044122	0.745251	-0.483278	-0.382574	0.075247	1.29881	-0.305755	0.235673	-1.06763	0.236969	-0.038657	0.480351	
0.714577	2.211	5	0	0.0076495	1.45175	-0.502765	0.84521	-0.846694	-0.271707	-0.663707	0.230438	-0.570051	0.278477	-0.521287	0.780216	-0.465009	-0.361572	-1.33603	0.135151	-1.13308	-0.637118	-1.44498	-0.442118	-0.047854	0.764962	-0.495779	-0.382176	0.070622	1.32583	-0.318806	0.232694	-1.09762	0.251086	-0.0398075	0.500064	
0.671076	2.2171	5	0	0.021636	1.47521	-0.490149	0.834159	-0.860372	-0.28604	-0.667428	0.217039	-0.56918	0.276016	-0.516318	0.780662	-0.472554	-0.384702	-1.36041	0.105762	-1.14778	-0.641678	-1.47388	-0.45268	-0.051586	0.784673	-0.508281	-0.381778	0.065997	1.35286	-0.331857	0.229715	-1.12761	0.265203	-0.040958	0.519777	
0.645216	2.21557	5	0	0.043171	1.50925	-0.482191	0.848636	-0.869199	-0.296337	-0.668296	0.203566	-0.568309	0.273555	-0.513046	0.785914	-0.477339	-0.404448	-1.38607	0.0804967	-1.16058	-0.65148	-1.50818	-0.465862	-0.0542403	0.792175	-0.515999	-0.394833	0.0581892	1.36097	-0.343469	0.202899	-1.14868	0.254374	-0.0561038	0.529674	
0.637192	2.2171	5	0	0.064706	1.54328	-0.474233	0.863112	-0.878026	-0.306634	-0.669164	0.190092	-0.567438	0.271095	-0.509774	0.791166	-0.482124	-0.424195	-1.41173	0.0552315	-1.17338	-0.661282	-1.54247	-0.479044	-0.0568945	0.799676	-0.523718	-0.407888	0.0503815	1.36908	-0.355081	0.176084	-1.16974	0.243546	-0.0712495	0.53957	
0.64157	2.2171	5	0	0.086241	1.57731	-0.466274	0.877589	-0.886852	-0.31693	-0.670032	0.176619	-0.566568	0.268634	-0.506501	0.796419	-0.486909	-0.443941	-1.43738	0.0299662	-1.18618	-0.671084	-1.57677	-0.492225	-0.0595487	0.807178	-0.531437	-0.420943	0.0425738	1.37719	-0.366694	0.149268	-1.19081	0.232717	-0.0863953	0.549467	
0.652864	2.22778	5	0	0.107776	1.61135	-0.458316	0.892066	-0.895679	-0.327227	-0.6709	0.163146	-0.565697	0.266173	-0.503229	0.801671	-0.491694	-0.463688	-1.46304	0.004701	-1.19898	-0.680886	-1.61106	-0.505407	-0.062203	0.81468	-0.539155	-0.433998	0.034766	1.3853	-0.378306	0.122452	-1.21187	0.221888	-0.101541	0.559363	
0.665583	2.22473	5	0	0.132854	1.66775	-0.439771	0.913812	-0.902904	-0.333195	-0.675873	0.145388	-0.568268	0.256514	-0.484879	0.793379	-0.507093	-0.486532	-1.49426	-0.0285607	-1.21453	-0.682811	-1.64455	-0.529311	-0.0681915	0.82244	-0.550424	-0.46012	0.023317	1.38977	-0.401461	0.098799	-1.24698	0.223041	-0.101541	0.559363	
0.674295	2.22168	5	0	0.157933	1.72416	-0.421227	0.935558	-0.91013	-0.339162	-0.680845	0.127631	-0.570839	0.246855	-0.466528	0.785087	-0.522491	-0.509375	-1.52548	-0.0618225	-1.23007	-0.684736	-1.67804	-0.553214	-0.07418	0.8302	-0.561693	-0.486243	0.011868	1.39425	-0.424617	0.075146	-1.28209	0.224193	-0.101541	0.559363	
0.67646	2.22778	5	0	0.183011	1.78057	-0.402682	0.957303	-0.917355	-0.345129	-0.685818	0.109873	-0.57341	0.237196	-0.448178	0.776794	-0.53789	-0.532219	-1.5567	-0.0950842	-1.24562	-0.686662	-1.71153	-0.577118	-0.0801685	0.837961	-0.572962	-0.512365	0.000419	1.39872	-0.447773	0.051493	-1.3172	0.225346	-0.101541	0.559363	
0.673809	2.22931	5	0	0.208089	1.83698	-0.384137	0.979049	-0.924581	-0.351097	-0.690791	0.092115	-0.575981	0.227537	-0.429827	0.768502	-0.553289	-0.555062	-1.58792	-0.128346	-1.26117	-0.688587	-1.74501	-0.601021	-0.086157	0.845721	-0.584231	-0.538487	-0.01103	1.40319	-0.470928	0.02784	-1.3523	0.226498	-0.101541	0.559363	
0.668416	2.22778	5	0	0.228726	1.82127	-0.375832	0.967967	-0.934307	-0.341181	-0.691964	0.103377	-0.586372	0.239994	-0.436783	0.802705	-0.559105	-0.538624	-1.56801	-0.099656	-1.22653	-0.648558	-1.70647	-0.536428	-0.0873053	0.821501	-0.568804	-0.512499	-0.0136848	1.36895	-0.450933	0.060425	-1.30496	0.261135	-0.111421	0.554436	
0.662355	2.22473	5	0	0.249364	1.80557	-0.367528	0.956885	-0.944033	-0.331264	-0.693136	0.114639	-0.596762	0.252451	-0.443738	0.836907	-0.564922	-0.522186	-1.5481	-0.070966	-1.19188	-0.60853	-1.66793	-0.471834	-0.0884535	0.797281	-0.553378	-0.486511	-0.0163395	1.33471	-0.430938	0.09301	-1.25762	0.295772	-0.121301	0.549508	
0.657699	2.22931	5	0	0.270001	1.78987	-0.359223	0.945803	-0.95376	-0.321348	-0.694308	0.1259	-0.607153	0.264907	-0.450693	0.871109	-0.570738	-0.505749	-1.52819	-0.042276	-1.15724	-0.568501	-1.62939	-0.407241	-0.0896017	0.773062	-0.537952	-0.460522	-0.0189943	1.30046	-0.410943	0.125595	-1.21028	0.330409	-0.131181	0.544581	
0.655841	2.22778	5	0	0.290638	1.77417	-0.350918	0.934721	-0.963486	-0.311432	-0.695481	0.137162	-0.617544	0.277364	-0.457649	0.905312	-0.576554	-0.489311	-1.50827	-0.013586	-1.1226	-0.528473	-1.59085	-0.342647	-0.09075	0.748842	-0.522525	-0.434534	-0.021649	1.26622	-0.390948	0.15818	-1.16294	0.365046	-0.141061	0.539654	
0.656073	2.22931	5	0	0.277867	1.72511	-0.357118	0.927475	-0.922435	-0.286411	-0.638428	0.159661	-0.576958	0.315401	-0.419617	0.943913	-0.542596	-0.430066	-1.44972	0.0535293	-1.06769	-0.488798	-1.52677	-0.274359	-0.084895	0.704871	-0.496343	-0.391973	-0.0279905	1.22863	-0.36915	0.20605	-1.10718	0.405911	-0.14338	0.529805	
0.657289	2.22778	5	0	0.265097	1.67606	-0.363318	0.92023	-0.881384	-0.26139	-0.581374	0.182161	-0.536372	0.353438	-0.381586	0.982514	-0.508638	-0.370822	-1.39117	0.120645	-1.01279	-0.449123	-1.46269	-0.206072	-0.07904	0.6609	-0.47016	-0.349413	-0.034332	1.19103	-0.347352	0.25392	-1.05142	0.446777	-0.145699	0.519957	
0.658379	2.2232	5	0	0.252327	1.627	-0.369518	0.912984	-0.840333	-0.236369	-0.52432	0.20466	-0.495786	0.391476	-0.343554	1.02111	-0.474681	-0.311577	-1.33262	0.18776	-0.957887	-0.409448	-1.3986	-0.137784	-0.073185	0.616929	-0.443978	-0.306852	-0.0406735	1.15344	-0.325553	0.30179	-0.995661	0.487642	-0.148019	0.510109	
0.658236	2.22626	5	0	0.239556	1.57795	-0.375718	0.905738	-0.799282	-0.211348	-0.467267	0.227159	-0.4552	0.429513	-0.305522	1.05972	-0.440723	-0.252332	-1.27406	0.254875	-0.902984	-0.369773	-1.33452	-0.069497	-0.06733	0.572958	-0.417796	-0.264291	-0.047015	1.11585	-0.303755	0.34966	-0.939902	0.528508	-0.150338	0.50026	
0.656021	2.2232	5	0	0.221031	1.52442	-0.376221	0.894788	-0.748874	-0.193855	-0.40424	0.242718	-0.41561	0.463039	-0.263911	1.10414	-0.403039	-0.202312	-1.21074	0.298978	-0.856882	-0.369031	-1.29079	-0.0530778	-0.0582373	0.529	-0.393303	-0.227984	-0.0474745	1.08945	-0.288936	0.367764	-0.907954	0.53824	-0.178124	0.480671	
0.652741	2.22168	5	0	0.202507	1.47088	-0.376725	0.883838	-0.698466	-0.176362	-0.341214	0.258277	-0.37602	0.496564	-0.2223	1.14857	-0.365356	-0.152292	-1.14742	0.343082	-0.810779	-0.368289	-1.24706	-0.0366585	-0.0491445	0.485042	-0.36881	-0.191678	-0.047934	1.06305	-0.274116	0.385869	-0.876005	0.547972	-0.20591	0.461082	
0.650176	2.22015	5	0	0.183982	1.41735	-0.377228	0.872889	-0.648058	-0.158868	-0.278187	0.273837	-0.33643	0.53009	-0.180689	1.193	-0.327672	-0.102273	-1.08409	0.387185	-0.764676	-0.367546	-1.20333	-0.0202393	-0.0400517	0.441084	-0.344317	-0.155371	-0.0483935	1.03665	-0.259296	0.403973	-0.844056	0.557703	-0.233695	0.441492	
0.650111	2.21863	5	0	0.165458	1.36381	-0.377731	0.861939	-0.59765	-0.141375	-0.21516	0.289396	-0.29684	0.563616	-0.139078	1.23743	-0.289989	-0.052253	-1.02077	0.431288	-0.718574	-0.366804	-1.1596	-0.00382	-0.030959	0.397126	-0.319824	-0.119064	-0.048853	1.01025	-0.244477	0.422077	-0.812108	0.567435	-0.261481	0.421903	
0.654328	2.2171	5	0	0.15975	1.35884	-0.358824	0.858042	-0.581992	-0.158833	-0.185126	0.285815	-0.277998	0.570574	-0.12228	1.24922	-0.26448	-0.0455902	-1.00486	0.436272	-0.722055	-0.385123	-1.16426	-0.00936475	-0.034125	0.38783	-0.293964	-0.109656	-0.0497737	0.999024	-0.237732	0.41303	-0.816134	0.56449	-0.267831	0.407257	
0.664382	2.2171	5	0	0.154043	1.35386	-0.339917	0.854145	-0.566334	-0.176291	-0.155092	0.282234	-0.259157	0.577532	-0.105482	1.26102	-0.238971	-0.0389275	-0.988959	0.441256	-0.725536	-0.403441	-1.16893	-0.0149095	-0.037291	0.378535	-0.268103	-0.100248	-0.0506945	0.987793	-0.230987	0.403984	-0.82016	0.561546	-0.27418	0.392611	
0.677802	2.2171	5	0	0.148336	1.34889	-0.321011	0.850248	-0.550677	-0.19375	-0.125059	0.278652	-0.240315	0.58449	-0.0886833	1.27281	-0.213462	-0.0322648	-0.973054	0.44624	-0.729017	-0.42176	-1.1736	-0.0204543	-0.040457	0.369239	-0.242243	-0.0908393	-0.0516153	0.976562	-0.224242	0.394937	-0.824185	0.558601	-0.280529	0.377965	
0.688673	2.21252	5	0	0.142628	1.34391	-0.302104	0.846351	-0.535019	-0.211208	-0.095025	0.275071	-0.221473	0.591448	-0.071885	1.28461	-0.187953	-0.025602	-0.957149	0.451224	-0.732498	-0.440078	-1.17826	-0.025999	-0.043623	0.359944	-0.216383	-0.081431	-0.052536	0.965331	-0.217497	0.385891	-0.828211	0.555656	-0.286879	0.363319	
0.690971	2.21405	5	0	0.144629	1.33825	-0.294324	0.824364	-0.548013	-0.236943	-0.0863495	0.258703	-0.216619	0.586347	-0.059807	1.26532	-0.183957	-0.0256155	-0.965815	0.450732	-0.747021	-0.455219	-1.18193	-0.034324	-0.04204	0.36459	-0.201898	-0.0750637	-0.0516153	0.976562	-0.222107	0.388903	-0.832061	0.566536	-0.28284	0.368192	
0.678672	2.21252	5	0	0.14663	1.3326	-0.286544	0.802376	-0.561006	-0.262678	-0.077674	0.242334	-0.211765	0.581246	-0.047729	1.24604	-0.179962	-0.025629	-0.974482	0.45024	-0.761545	-0.47036	-1.18561	-0.042649	-0.040457	0.369235	-0.187414	-0.0686965	-0.0506945	0.987793	-0.226717	0.391915	-0.835911	0.577416	-0.278801	0.373064	
0.645843	2.20795	5	0	0.148632	1.32694	-0.278764	0.780388	-0.574	-0.288413	-0.0689985	0.225966	-0.206911	0.576145	-0.035651	1.22675	-0.175967	-0.0256425	-0.983148	0.449747	-0.776068	-0.485501	-1.18928	-0.050974	-0.038874	0.37388	-0.17293	-0.0623293	-0.0497737	0.999024	-0.231327	0.394928	-0.83976	0.588296	-0.274761	0.377937	
0.593946	2.20795	5	0	0.150633	1.32129	-0.270984	0.758401	-0.586994	-0.314148	-0.060323	0.209597	-0.202057	0.571044	-0.023573	1.20746	-0.171971	-0.025656	-0.991814	0.449255	-0.790591	-0.500642	-1.19296	-0.059299	-0.037291	0.378526	-0.158445	-0.055962	-0.048853	1.01025	-0.235937	0.39794	-0.84361	0.599176	-0.270722	0.382809	
0.537115	2.20642	5	0	0.163206	1.31742	-0.25935	0.725521	-0.594237	-0.347046	-0.0555448	0.179798	-0.198928	0.553584	-0.0182022	1.17743	-0.174409	-0.0525782	-1.00496	0.424091	-0.81606	-0.512624	-1.21389	-0.0840955	-0.0383265	0.390576	-0.163855	-0.0761612	-0.0433813	1.03635	-0.245827	0.385877	-0.856778	0.60778	-0.264369	0.397473	
0.490726	2.20642	5	0	0.17578	1.31355	-0.247716	0.692641	-0.601481	-0.379943	-0.0507665	0.149999	-0.195799	0.536123	-0.0128315	1.14741	-0.176848	-0.0795005	-1.0181	0.398927	-0.84153	-0.524606	-1.23483	-0.108892	-0.039362	0.402626	-0.169265	-0.0963605	-0.0379095	1.06245	-0.255716	0.373814	-0.869946	0.616385	-0.258016	0.412138	
0.46972	2.20337	5	0	0.188354	1.30968	-0.236081	0.659761	-0.608724	-0.412841	-0.0459882	0.120199	-0.19267	0.518663	-0.00746075	1.11738	-0.179287	-0.106423	-1.03125	0.373762	-0.866999	-0.536589	-1.25576	-0.133688	-0.0403975	0.414676	-0.174675	-0.11656	-0.0324378	1.08854	-0.265605	0.361751	-0.883114	0.624989	-0.251662	0.426802	
0.478406	2.20337	5	0	0.200927	1.30582	-0.224447	0.626881	-0.615967	-0.445739	-0.04121	0.0904	-0.189541	0.501202	-0.00209	1.08736	-0.181725	-0.133345	-1.04439	0.348598	-0.892468	-0.548571	-1.2767	-0.158485	-0.041433	0.426726	-0.180085	-0.136759	-0.026966	1.11464	-0.275495	0.349688	-0.896282	0.633593	-0.245309	0.441466	
0.510122	2.20184	5	0	0.234499	1.32751	-0.201587	0.611944	-0.619171	-0.472179	-0.0377765	0.0562802	-0.187738	0.478884	0.00670425	1.04767	-0.183004	-0.163483	-1.05181	0.319855	-0.91022	-0.563445	-1.29232	-0.18866	-0.0407265	0.433857	-0.190929	-0.153326	-0.035188	1.13787	-0.285368	0.337664	-0.910714	0.645814	-0.239527	0.441458	
0.557704	2.20032	5	0	0.26807	1.34921	-0.178727	0.597007	-0.622375	-0.498618	-0.034343	0.0221605	-0.185934	0.456565	0.0154985	1.00798	-0.184283	-0.193621	-1.05923	0.291112	-0.927972	-0.578319	-1.30794	-0.218835	-0.04002	0.440989	-0.201772	-0.169893	-0.04341	1.16111	-0.295241	0.32564	-0.925147	0.658034	-0.233745	0.441449	
0.613984	2.19879	5	0	0.301642	1.37091	-0.155868	0.58207	-0.625579	-0.525057	-0.0309095	-0.0119592	-0.18413	0.434247	0.0242928	0.968292	-0.185562	-0.223759	-1.06664	0.26237	-0.945724	-0.593193	-1.32356	-0.24901	-0.0393135	0.44812	-0.212616	-0.186459	-0.051632	1.18435	-0.305114	0.313617	-0.939579	0.670255	-0.227964	0.441441	
0.671805	2.19879	5	0	0.335214	1.39261	-0.133008	0.567133	-0.628783	-0.551497	-0.027476	-0.046079	-0.182327	0.411928	0.033087	0.928603	-0.186841	-0.253897	-1.07406	0.233627	-0.963476	-0.608067	-1.33918	-0.279185	-0.038607	0.455251	-0.22346	-0.203026	-0.059854	1.20758	-0.314987	0.301593	-0.954011	0.682476	-0.222182	0.441432	
0.725479	2.19574	5	0	0.358289	1.41264	-0.121555	0.559649	-0.632018	-0.568932	-0.0310727	-0.0684195	-0.174389	0.389492	0.0382772	0.913935	-0.187714	-0.273898	-1.07998	0.21317	-0.972128	-0.620682	-1.34454	-0.301059	-0.0312403	0.461842	-0.214412	-0.216804	-0.0525715	1.21476	-0.320263	0.286615	-0.960578	0.686766	-0.229698	0.446343	
0.772526	2.19574	5	0	0.381363	1.43267	-0.110102	0.552165	-0.635252	-0.586366	-0.0346695	-0.09076	-0.16645	0.367057	0.0434675	0.899266	-0.188586	-0.2939	-1.0859	0.192714	-0.980779	-0.633297	-1.34991	-0.322932	-0.0238735	0.468434	-0.205365	-0.230582	-0.045289	1.22194	-0.325539	0.271637	-0.967144	0.691057	-0.237215	0.451255	
0.810887	2.19269	5	0	0.404438	1.4527	-0.098649	0.544682	-0.638487	-0.6038	-0.0382663	-0.1131	-0.158511	0.344621	0.0486577	0.884598	-0.189459	-0.313901	-1.09182	0.172258	-0.98943	-0.645912	-1.35528	-0.344805	-0.0165068	0.475025	-0.196317	-0.24436	-0.0380065	1.22911	-0.330815	0.256659	-0.97371	0.695348	-0.244732	0.456166	
0.838505	2.19269	5	0	0.427513	1.47273	-0.087196	0.537198	-0.641722	-0.621235	-0.041863	-0.135441	-0.150573	0.322185	0.053848	0.86993	-0.190331	-0.333903	-1.09774	0.151801	-0.998082	-0.658527	-1.36065	-0.366679	-0.00914	0.481616	-0.187269	-0.258138	-0.030724	1.23629	-0.336091	0.241681	-0.980277	0.699638	-0.252248	0.461077	
0.853322	2.19116	5	0	0.454607	1.49252	-0.0610785	0.525742	-0.64171	-0.638965	-0.0417432	-0.160122	-0.146171	0.309745	0.0726907	0.846359	-0.186057	-0.357206	-1.10088	0.123569	-1.00713	-0.660722	-1.3614	-0.383059	-0.001058	0.495385	-0.176404	-0.265238	-0.021161	1.25098	-0.341018	0.235706	-0.984133	0.710536	-0.248204	0.465979	
0.853281	2.19421	5	0	0.4817	1.51232	-0.034961	0.514285	-0.641698	-0.656696	-0.0416235	-0.184803	-0.141769	0.297306	0.0915335	0.822788	-0.181783	-0.380509	-1.10403	0.095337	-1.01617	-0.662917	-1.36215	-0.399439	0.007024	0.509155	-0.165539	-0.272337	-0.011598	1.26567	-0.345944	0.229731	-0.987989	0.721434	-0.24416	0.470882	
0.836444	2.18963	5	0	0.508794	1.53212	-0.0088435	0.502829	-0.641686	-0.674427	-0.0415037	-0.209483	-0.137368	0.284866	0.110376	0.799217	-0.177508	-0.403812	-1.10717	0.067105	-1.02521	-0.665112	-1.3629	-0.415819	0.015106	0.522925	-0.154674	-0.279436	-0.002035	1.28035	-0.350871	0.223756	-0.991845	0.732331	-0.240116	0.475784	
0.804603	2.18811	5	0	0.535888	1.55191	0.017274	0.491373	-0.641674	-0.692157	-0.041384	-0.234164	-0.132966	0.272426	0.129219	0.775646	-0.173234	-0.427115	-1.11031	0.038873	-1.03425	-0.667307	-1.36365	-0.432199	0.023188	0.536694	-0.143809	-0.286536	0.007528	1.29504	-0.355798	0.217781	-0.995701	0.743229	-0.236072	0.480687	
0.763912	2.18353	5	0	0.569109	1.56569	0.031956	0.487393	-0.639233	-0.707897	-0.0396815	-0.263286	-0.125058	0.250078	0.134392	0.761026	-0.176952	-0.450237	-1.11348	0.0107917	-1.03571	-0.672425	-1.37	-0.451174	0.0288155	0.548296	-0.144423	-0.296609	0.0143375	1.31761	-0.365292	0.214803	-1.00085	0.75778	-0.233204	0.505285	
0.720774	2.18658	5	0	0.60233	1.57946	0.046638	0.483413	-0.636792	-0.723637	-0.037979	-0.292407	-0.11715	0.22773	0.139566	0.746406	-0.180671	-0.473359	-1.11665	-0.0172895	-1.03717	-0.677543	-1.37636	-0.470149	0.034443	0.559897	-0.145036	-0.306682	0.021147	1.34017	-0.374785	0.211824	-1.006	0.772331	-0.230335	0.529883	
0.681592	2.18201	5	0	0.635552	1.59324	0.06132	0.479434	-0.634351	-0.739378	-0.0362765	-0.321529	-0.109243	0.205381	0.144739	0.731785	-0.184389	-0.496482	-1.11982	-0.0453708	-1.03863	-0.682661	-1.38271	-0.489123	0.0400705	0.571498	-0.145649	-0.316756	0.0279565	1.36273	-0.384279	0.208845	-1.01115	0.786881	-0.227466	0.554481	
0.652755	2.18353	5	0	0.668773	1.60701	0.076002	0.475454	-0.63191	-0.755118	-0.034574	-0.350651	-0.101335	0.183033	0.149912	0.717165	-0.188107	-0.519604	-1.12299	-0.073452	-1.04009	-0.687779	-1.38907	-0.508098	0.045698	0.5831	-0.146263	-0.326829	0.034766	1.3853	-0.393773	0.205867	-1.01629	0.801432	-0.224598	0.579079	
0.637906	2.18353	5	0	0.70514	1.62339	0.10227	0.463909	-0.626224	-0.771186	-0.029987	-0.379804	-0.092112	0.165576	0.17048	0.688767	-0.193011	-0.539316	-1.12619	-0.101384	-1.04155	-0.692892	-1.39447	-0.529714	0.055735	0.58228	-0.140247	-0.34383	0.04069	1.39648	-0.40536	0.208852	-1.03725	0.817926	-0.225793	0.598831	
0.634267	2.18353	5	0	0.741506	1.63976	0.128537	0.452363	-0.620539	-0.787255	-0.0254	-0.408957	-0.082889	0.14812	0.191047	0.66037	-0.197914	-0.559028	-1.12939	-0.129315	-1.04301	-0.698005	-1.39986	-0.55133	0.065772	0.58146	-0.134232	-0.360831	0.046614	1.40766	-0.416946	0.211836	-1.05821	0.83442	-0.226988	0.618584	
0.638145	2.18201	5	0	0.777872	1.65614	0.154805	0.440817	-0.614854	-0.803323	-0.020813	-0.438109	-0.073666	0.130663	0.211615	0.631973	-0.202817	-0.578739	-1.13259	-0.157247	-1.04447	-0.703117	-1.40526	-0.572947	0.075809	0.580639	-0.128217	-0.377832	0.052538	1.41884	-0.428533	0.214821	-1.07917	0.850913	-0.228184	0.638337	
0.645848	2.18048	5	0	0.814239	1.67251	0.181073	0.429272	-0.609168	-0.819392	-0.016226	-0.467262	-0.064443	0.113206	0.232183	0.603575	-0.207721	-0.598451	-1.13578	-0.185179	-1.04593	-0.70823	-1.41065	-0.594563	0.085846	0.579819	-0.122201	-0.394833	0.058462	1.43003	-0.44012	0.217806	-1.10013	0.867407	-0.229379	0.658089	
0.653684	2.18201	5	0	0.849667	1.70325	0.20355	0.428651	-0.596954	-0.827373	-0.006899	-0.485528	-0.0485755	0.102838	0.251029	0.594997	-0.209357	-0.605004	-1.13456	-0.200939	-1.04686	-0.705601	-1.40488	-0.61087	0.093254	0.586469	-0.109496	-0.395296	0.06578	1.43731	-0.438011	0.211844	-1.09615	0.870414	-0.232878	0.667979	
0.658624	2.17895	5	0	0.885095	1.73398	0.226027	0.42803	-0.584739	-0.835354	0.002428	-0.503794	-0.032708	0.0924695	0.269875	0.586419	-0.210994	-0.611556	-1.13334	-0.216699	-1.04779	-0.702971	-1.39911	-0.627177	0.100662	0.59312	-0.096791	-0.395758	0.073098	1.44459	-0.435901	0.205882	-1.09218	0.87342	-0.236378	0.677869	
0.660711	2.17743	5	0	0.920522	1.76472	0.248505	0.42741	-0.572525	-0.843335	0.011755	-0.52206	-0.0168405	0.0821013	0.288721	0.577842	-0.21263	-0.618108	-1.13212	-0.232459	-1.04872	-0.700341	-1.39334	-0.643483	0.10807	0.59977	-0.084086	-0.39622	0.080416	1.45188	-0.433791	0.199921	-1.08821	0.876426	-0.239878	0.687759	
0.660875	2.17743	5	0	0.95595	1.79546	0.270982	0.426789	-0.560311	-0.851316	0.021082	-0.540326	-0.000973	0.071733	0.307567	0.569264	-0.214266	-0.624661	-1.1309	-0.248219	-1.04965	-0.697712	-1.38757	-0.65979	0.115478	0.60642	-0.071381	-0.396683	0.087734	1.45916	-0.431682	0.193959	-1.08423	0.879433	-0.243377	0.697649	
0.660044	2.17743	5	0	0.993848	1.80912	0.290945	0.433486	-0.549702	-0.85472	0.0367965	-0.552331	0.0131715	0.0662988	0.328176	0.570763	-0.205144	-0.628082	-1.12523	-0.25192	-1.0458	-0.690111	-1.37773	-0.659953	0.136343	0.611981	-0.0483032	-0.390814	0.103793	1.46984	-0.426773	0.199921	-1.07618	0.899438	-0.242845	0.712533	
0.659149	2.17743	5	0	1.03175	1.82278	0.310909	0.440183	-0.539094	-0.858125	0.052511	-0.564337	0.027316	0.0608645	0.348786	0.572263	-0.196022	-0.631503	-1.11957	-0.255621	-1.04195	-0.682509	-1.36789	-0.660116	0.157208	0.617541	-0.0252255	-0.384945	0.119852	1.48051	-0.421864	0.205883	-1.06812	0.919442	-0.242312	0.727417	
0.659037	2.17743	5	0	1.06964	1.83644	0.330872	0.44688	-0.528486	-0.861529	0.0682255	-0.576342	0.0414605	0.0554303	0.369395	0.573763	-0.186899	-0.634924	-1.1139	-0.259322	-1.0381	-0.674908	-1.35806	-0.66028	0.178073	0.623102	-0.00214775	-0.379077	0.135911	1.49119	-0.416955	0.211845	-1.06007	0.939447	-0.24178	0.742301	
0.659672	2.1759	5	0	1.10754	1.85011	0.350835	0.453577	-0.517877	-0.864934	0.08394	-0.588348	0.055605	0.049996	0.390005	0.575262	-0.177777	-0.638345	-1.10824	-0.263023	-1.03425	-0.667307	-1.34822	-0.660443	0.198938	0.628663	0.02093	-0.373208	0.15197	1.50186	-0.412046	0.217807	-1.05201	0.959451	-0.241248	0.757185	
0.660465	2.17743	5	0	1.13565	1.85899	0.368942	0.453052	-0.509713	-0.870269	0.101278	-0.604886	0.0706548	0.0420667	0.408962	0.566622	-0.174966	-0.6351	-1.0969	-0.270432	-1.02801	-0.657198	-1.33796	-0.652501	0.209581	0.644813	0.0331415	-0.360175	0.166158	1.53207	-0.40785	0.235742	-1.04518	0.997304	-0.24021	0.787073	
0.660819	2.17438	5	0	1.16376	1.86788	0.387049	0.452527	-0.501548	-0.875603	0.118617	-0.621424	0.0857045	0.0341375	0.427919	0.557982	-0.172154	-0.631854	-1.08556	-0.277841	-1.02177	-0.647089	-1.32771	-0.644559	0.220224	0.660963	0.045353	-0.347142	0.180346	1.56229	-0.403655	0.253677	-1.03834	1.03516	-0.239172	0.81696	
0.660136	2.1759	5	0	1.19187	1.87677	0.405156	0.452002	-0.493384	-0.880938	0.135955	-0.637961	0.100754	0.0262083	0.446876	0.549341	-0.169343	-0.628609	-1.07422	-0.285251	-1.01553	-0.636981	-1.31746	-0.636618	0.230868	0.677112	0.0575645	-0.334109	0.194535	1.5925	-0.399459	0.271612	-1.0315	1.07301	-0.238134	0.846847	
0.657836	2.17285	5	0	1.21997	1.88566	0.423263	0.451477	-0.48522	-0.886273	0.153293	-0.654499	0.115804	0.018279	0.465833	0.540701	-0.166532	-0.625364	-1.06288	-0.29266	-1.00928	-0.626872	-1.3072	-0.628676	0.241511	0.693262	0.069776	-0.321076	0.208723	1.62272	-0.395263	0.289547	-1.02466	1.11086	-0.237096	0.876735	
0.653938	2.17285	5	0	1.24443	1.87195	0.443391	0.43267	-0.473771	-0.89199	0.165315	-0.664089	0.126014	0.0154188	0.479648	0.531674	-0.16489	-0.618807	-1.04273	-0.287868	-1.00397	-0.614093	-1.28567	-0.615471	0.248972	0.699968	0.0887215	-0.315016	0.224338	1.64916	-0.391806	0.319576	-0.991386	1.1317	-0.230289	0.906837	
0.64923	2.17285	5	0	1.26889	1.85825	0.463518	0.413863	-0.462322	-0.897706	0.177337	-0.67368	0.136224	0.0125585	0.493464	0.522647	-0.163249	-0.612249	-1.02259	-0.283076	-0.998658	-0.601314	-1.26414	-0.602267	0.256433	0.706674	0.107667	-0.308957	0.239954	1.67561	-0.38835	0.349606	-0.95811	1.15254	-0.223483	0.936939	
0.644547	2.17132	5	0	1.29335	1.84454	0.483646	0.395055	-0.450873	-0.903423	0.189358	-0.683271	0.146435	0.00969825	0.507279	0.513619	-0.161608	-0.605692	-1.00244	-0.278284	-0.993346	-0.588535	-1.24261	-0.589062	0.263895	0.71338	0.126612	-0.302897	0.25557	1.70206	-0.384893	0.379635	-0.924833	1.17338	-0.216676	0.96704	
0.640724	2.17285	5	0	1.31781	1.83083	0.503773	0.376248	-0.439424	-0.90914	0.20138	-0.692861	0.156645	0.006838	0.521095	0.504592	-0.159966	-0.599134	-0.982288	-0.273492	-0.988034	-0.575756	-1.22108	-0.575857	0.271356	0.720086	0.145558	-0.296838	0.271185	1.7285	-0.381436	0.409664	-0.891556	1.19422	-0.209869	0.997142	
0.63859	2.1698	5	0	1.32513	1.81013	0.506374	0.368898	-0.427925	-0.906058	0.215323	-0.691553	0.175842	0.0133818	0.541902	0.521043	-0.14988	-0.582783	-0.96189	-0.256787	-0.975108	-0.565875	-1.19809	-0.557161	0.285596	0.726253	0.164569	-0.290772	0.28455	1.74739	-0.376941	0.436845	-0.898057	1.227	-0.201302	1.0224	
0.638482	2.16827	5	0	1.33246	1.78943	0.508974	0.361548	-0.416426	-0.902976	0.229265	-0.690244	0.195039	0.0199255	0.562709	0.537495	-0.139795	-0.566432	-0.941492	-0.240081	-0.962182	-0.555993	-1.1751	-0.538466	0.299837	0.73242	0.18358	-0.284706	0.297915	1.76627	-0.372447	0.464027	-0.904559	1.25979	-0.192736	1.04766	
0.639889	2.16827	5	0	1.33978	1.76872	0.511575	0.354197	-0.404928	-0.899894	0.243207	-0.688936	0.214236	0.0264692	0.583516	0.553947	-0.12971	-0.550081	-0.921093	-0.223376	-0.949255	-0.546111	-1.15211	-0.51977	0.314078	0.738587	0.20259	-0.278639	0.311281	1.78515	-0.367953	0.491208	-0.91106	1.29257	-0.184169	1.07292	
0.642215	2.1698	5	0	1.34711	1.74802	0.514176	0.346847	-0.393429	-0.896812	0.25715	-0.687628	0.233433	0.033013	0.604323	0.570398	-0.119624	-0.53373	-0.900695	-0.20667	-0.936329	-0.53623	-1.12912	-0.501074	0.328318	0.744754	0.221601	-0.272573	0.324646	1.80404	-0.363458	0.51839	-0.917561	1.32536	-0.175602	1.09818	
0.644868	2.16827	5	0	1.36746	1.74609	0.514822	0.357731	-0.37943	-0.891807	0.270325	-0.684062	0.249563	0.0396978	0.626949	0.582013	-0.101518	-0.517417	-0.870129	-0.193453	-0.920965	-0.523802	-1.10408	-0.487797	0.340809	0.755982	0.235148	-0.262887	0.34317	1.82275	-0.356839	0.539653	-0.904168	1.34526	-0.171083	1.11846	
0.647253	2.16675	5	0	1.38781	1.74416	0.515467	0.368615	-0.36543	-0.886802	0.2835	-0.680496	0.265692	0.0463825	0.649576	0.593629	-0.0834115	-0.501105	-0.839562	-0.180235	-0.905601	-0.511373	-1.07903	-0.474519	0.353301	0.767209	0.248696	-0.2532	0.361694	1.84146	-0.35022	0.560917	-0.890775	1.36516	-0.166564	1.13875	
0.648988	2.16675	5	0	1.40816	1.74222	0.516113	0.3795	-0.351431	-0.881797	0.296675	-0.67693	0.281822	0.0530672	0.672202	0.605244	-0.0653053	-0.484792	-0.808995	-0.167018	-0.890237	-0.498945	-1.05399	-0.461242	0.365792	0.778436	0.262244	-0.243514	0.380217	1.86017	-0.343602	0.58218	-0.877383	1.38507	-0.162044	1.15903	
0.650287	2.16675	5	0	1.42851	1.74029	0.516759	0.390384	-0.337432	-0.876792	0.30985	-0.673364	0.297952	0.059752	0.694828	0.616859	-0.047199	-0.468479	-0.778429	-0.153801	-0.874873	-0.486517	-1.02895	-0.447965	0.378283	0.789664	0.275791	-0.233828	0.398741	1.87888	-0.336983	0.603443	-0.86399	1.40497	-0.157525	1.17931	
0.651465	2.16522	5	0	1.45092	1.74387	0.518704	0.397605	-0.329995	-0.871018	0.309049	-0.671099	0.308732	0.064215	0.698326	0.637282	-0.0387145	-0.458623	-0.77669	-0.133733	-0.868068	-0.468422	-1.02148	-0.431595	0.394206	0.800651	0.292467	-0.220816	0.419621	1.90551	-0.330368	0.624805	-0.851897	1.42873	-0.1566	1.20981	
0.652839	2.16675	5	0	1.47334	1.74745	0.520649	0.404826	-0.322557	-0.865244	0.308248	-0.668835	0.319512	0.068678	0.701825	0.657706	-0.03023	-0.448767	-0.774951	-0.113665	-0.861263	-0.450328	-1.01402	-0.415225	0.410129	0.811638	0.309142	-0.207804	0.440501	1.93214	-0.323754	0.646167	-0.839805	1.45249	-0.155675	1.2403	
0.654724	2.16217	5	0	1.49575	1.75103	0.522594	0.412048	-0.315119	-0.85947	0.307446	-0.66657	0.330292	0.073141	0.705323	0.678129	-0.0217455	-0.438911	-0.773211	-0.093597	-0.854459	-0.432233	-1.00655	-0.398855	0.426053	0.822625	0.325818	-0.194791	0.461381	1.95876	-0.31714	0.667529	-0.827713	1.47625	-0.15475	1.2708	
0.65734	2.1637	5	0	1.51816	1.75461	0.524539	0.419269	-0.307682	-0.853696	0.306645	-0.664306	0.341072	0.077604	0.708821	0.698552	-0.013261	-0.429055	-0.771472	-0.073529	-0.847654	-0.414139	-0.99908	-0.382485	0.441976	0.833612	0.342494	-0.181779	0.482261	1.98539	-0.310525	0.688891	-0.81562	1.5	-0.153825	1.3013	
0.660339	2.1637	5	0	1.54761	1.78343	0.539494	0.440724	-0.294446	-0.846364	0.312565	-0.66469	0.350497	0.077206	0.729803	0.700024	-0.011614	-0.422418	-0.762752	-0.0731565	-0.847565	-0.395699	-0.993967	-0.368779	0.450221	0.84773	0.348102	-0.161451	0.492284	2.02872	-0.308241	0.722578	-0.812875	1.53581	-0.156543	1.34215	
0.663175	2.1637	5	0	1.57707	1.81225	0.55445	0.46218	-0.281209	-0.839031	0.318485	-0.665075	0.359923	0.076808	0.750784	0.701496	-0.009967	-0.415782	-0.754031	-0.072784	-0.847476	-0.377259	-0.988854	-0.355073	0.458466	0.861847	0.353711	-0.141124	0.502307	2.07206	-0.305957	0.756265	-0.810131	1.57163	-0.159261	1.383	
0.6653	2.16217	5	0	1.60653	1.84107	0.569405	0.483635	-0.267973	-0.831699	0.324404	-0.665459	0.369348	0.07641	0.771765	0.702967	-0.00832	-0.409145	-0.74531	-0.0724115	-0.847387	-0.35882	-0.98374	-0.341366	0.466712	0.875965	0.35932	-0.120796	0.51233	2.1154	-0.303674	0.789952	-0.807386	1.60744	-0.161979	1.42386	
0.666165	2.1637	5	0	1.63598	1.8699	0.58436	0.505091	-0.254736	-0.824367	0.330324	-0.665844	0.378773	0.076012	0.792747	0.704439	-0.006673	-0.402508	-0.73659	-0.072039	-0.847298	-0.34038	-0.978627	-0.32766	0.474957	0.890082	0.364928	-0.100468	0.522353	2.15874	-0.30139	0.823639	-0.804641	1.64325	-0.164697	1.46471	
0.665282	2.16217	5	0	1.66867	1.90157	0.601299	0.533973	-0.244749	-0.807743	0.3352	-0.655079	0.388707	0.0829817	0.810298	0.715806	-0.001009	-0.395912	-0.733457	-0.0558423	-0.837654	-0.330197	-0.967805	-0.311222	0.486629	0.903975	0.379796	-0.094142	0.538133	2.18609	-0.299434	0.848274	-0.792551	1.66733	-0.169704	1.49547	
0.663211	2.1637	5	0	1.70136	1.93325	0.618237	0.562856	-0.234763	-0.791118	0.340075	-0.644313	0.39864	0.0899515	0.827848	0.727174	0.004655	-0.389315	-0.730324	-0.0396455	-0.82801	-0.320014	-0.956983	-0.294784	0.498302	0.917868	0.394665	-0.087816	0.553913	2.21343	-0.297478	0.872909	-0.78046	1.69141	-0.174711	1.52623	
0.661431	2.15912	5	0	1.73405	1.96493	0.635176	0.591738	-0.224776	-0.774493	0.344951	-0.633548	0.408574	0.0969213	0.845398	0.738541	0.010319	-0.382719	-0.727191	-0.0234487	-0.818366	-0.309831	-0.946161	-0.278346	0.509974	0.931761	0.409533	-0.08149	0.569694	2.24077	-0.295522	0.897544	-0.76837	1.71549	-0.179718	1.55699	
0.661451	2.16064	5	0	1.76673	1.9966	0.652115	0.620621	-0.214789	-0.757869	0.349827	-0.622783	0.418507	0.103891	0.862949	0.749908	0.015983	-0.376123	-0.724058	-0.007252	-0.808722	-0.299648	-0.935339	-0.261908	0.521646	0.945654	0.424402	-0.075164	0.585474	2.26812	-0.293566	0.922179	-0.756279	1.73957	-0.184725	1.58774	
0.664781	2.15912	5	0	1.79652	2.02592	0.660519	0.661074	-0.203941	-0.734566	0.359032	-0.607818	0.432109	0.11814	0.875271	0.776253	0.022112	-0.359486	-0.706396	0.005608	-0.801918	-0.281363	-0.918773	-0.242695	0.539294	0.961609	0.434368	-0.0548565	0.611705	2.29517	-0.285623	0.950111	-0.740133	1.76701	-0.174455	1.60863	
0.672922	2.15607	5	0	1.82631	2.05524	0.668923	0.701526	-0.193093	-0.711263	0.368237	-0.592852	0.445711	0.132389	0.887593	0.802597	0.028241	-0.34285	-0.688733	0.018468	-0.795114	-0.263078	-0.902207	-0.223482	0.556943	0.977564	0.444334	-0.034549	0.637937	2.32222	-0.27768	0.978044	-0.723987	1.79445	-0.164184	1.62952	
0.68544	2.15912	5	0	1.85609	2.08457	0.677327	0.741979	-0.182245	-0.687959	0.377443	-0.577886	0.459312	0.146638	0.899915	0.828941	0.03437	-0.326213	-0.671071	0.031328	-0.788311	-0.244792	-0.885641	-0.204269	0.574591	0.993519	0.4543	-0.0142415	0.664168	2.34928	-0.269737	1.00598	-0.70784	1.82189	-0.153913	1.6504	
0.69738	2.15759	5	0	1.88588	2.11389	0.685731	0.782432	-0.171397	-0.664656	0.386648	-0.562921	0.472914	0.160887	0.912237	0.855286	0.040499	-0.309577	-0.653409	0.044188	-0.781507	-0.226507	-0.869075	-0.185056	0.592239	1.00947	0.464266	0.006066	0.690399	2.37633	-0.261794	1.03391	-0.691694	1.84933	-0.143643	1.67129	
0.703141	2.15454	5	0	1.91366	2.14956	0.69543	0.819449	-0.163039	-0.643189	0.392081	-0.545427	0.481598	0.180365	0.922799	0.886805	0.0454345	-0.289506	-0.650121	0.072663	-0.775659	-0.205445	-0.863175	-0.15442	0.607215	1.03321	0.471757	0.0334933	0.710879	2.42019	-0.248935	1.06833	-0.679584	1.88846	-0.135188	1.69744	
0.697125	2.15759	5	0	1.94145	2.18524	0.705129	0.856465	-0.154681	-0.621722	0.397514	-0.527933	0.490282	0.199844	0.933361	0.918324	0.05037	-0.269435	-0.646833	0.101138	-0.769811	-0.184383	-0.857276	-0.123784	0.622192	1.05695	0.479249	0.0609205	0.731359	2.46405	-0.236075	1.10275	-0.667474	1.9276	-0.126733	1.72359	
0.673731	2.15759	5	0	1.96923	2.22092	0.714827	0.893482	-0.146324	-0.600255	0.402947	-0.510438	0.498967	0.219322	0.943923	0.949844	0.0553055	-0.249365	-0.643545	0.129613	-0.763963	-0.16332	-0.851376	-0.0931488	0.637169	1.08069	0.486741	0.0883478	0.75184	2.50791	-0.223216	1.13717	-0.655364	1.96673	-0.118278	1.74974	
0.629532	2.15759	5	0	1.99702	2.25659	0.724526	0.930499	-0.137966	-0.578788	0.40838	-0.492944	0.507651	0.2388	0.954485	0.981363	0.060241	-0.229294	-0.640257	0.158088	-0.758115	-0.142258	-0.845476	-0.062513	0.652145	1.10443	0.494232	0.115775	0.77232	2.55177	-0.210356	1.17159	-0.643254	2.00586	-0.109823	1.7759	
0.575239	2.16064	5	0	2.02805	2.29531	0.729584	0.967906	-0.129607	-0.557216	0.412453	-0.479779	0.516749	0.24838	0.965073	0.997601	0.0606895	-0.219208	-0.634304	0.166486	-0.754692	-0.123689	-0.844343	-0.037271	0.661166	1.12627	0.504208	0.136309	0.791354	2.60028	-0.197496	1.20627	-0.628426	2.0376	-0.105046	1.81258	
0.527224	2.16064	5	0	2.05909	2.33402	0.734642	1.00531	-0.121247	-0.535644	0.416526	-0.466614	0.525848	0.25796	0.975661	1.01384	0.061138	-0.209122	-0.628352	0.174884	-0.75127	-0.10512	-0.843211	-0.012029	0.670187	1.14811	0.514183	0.156842	0.810387	2.64878	-0.184636	1.24096	-0.613598	2.06935	-0.100269	1.84926	
0.501873	2.15759	5	0	2.09013	2.37274	0.7397	1.04272	-0.112888	-0.514072	0.420599	-0.45345	0.534946	0.267539	0.986248	1.03008	0.0615865	-0.199035	-0.622399	0.183283	-0.747847	-0.086551	-0.842078	0.013213	0.679209	1.16995	0.524158	0.177376	0.829421	2.69729	-0.171776	1.27565	-0.598771	2.10109	-0.0954912	1.88594	
0.512906	2.16064	5	0	2.12117	2.41145	0.744758	1.08013	-0.104528	-0.4925	0.424672	-0.440285	0.544044	0.277119	0.996836	1.04632	0.062035	-0.188949	-0.616447	0.191681	-0.744424	-0.067982	-0.840945	0.038455	0.68823	1.19178	0.534134	0.19791	0.848454	2.7458	-0.158916	1.31034	-0.583943	2.13283	-0.090714	1.92262	
0.556232	2.16217	5	0	2.14922	2.44784	0.757097	1.11009	-0.095333	-0.47318	0.427119	-0.422491	0.554053	0.284192	1.00033	1.06726	0.0636763	-0.182227	-0.616303	0.203896	-0.744885	-0.057254	-0.834831	0.0496615	0.694011	1.2039	0.534756	0.208354	0.862908	2.77837	-0.160625	1.33551	-0.577232	2.1582	-0.092201	1.94358	
0.620464	2.16522	5	0	2.17728	2.48424	0.769435	1.14005	-0.086138	-0.453859	0.429565	-0.404697	0.564062	0.291265	1.00383	1.08821	0.0653175	-0.175505	-0.616159	0.216112	-0.745347	-0.046526	-0.828716	0.060868	0.699792	1.21602	0.535378	0.218799	0.877361	2.81093	-0.162333	1.36068	-0.57052	2.18356	-0.093688	1.96453	
0.694196	2.16217	5	0	2.20534	2.52063	0.781774	1.17	-0.076943	-0.434539	0.432011	-0.386904	0.574071	0.298338	1.00733	1.10916	0.0669587	-0.168782	-0.616014	0.228328	-0.745808	-0.035798	-0.822601	0.0720745	0.705572	1.22814	0.535999	0.229244	0.891814	2.8435	-0.164042	1.38586	-0.563809	2.20892	-0.095175	1.98549	
0.766022	2.16522	5	0	2.2334	2.55702	0.794112	1.19996	-0.067748	-0.415219	0.434458	-0.36911	0.58408	0.305411	1.01083	1.13011	0.0686	-0.16206	-0.61587	0.240543	-0.74627	-0.02507	-0.816487	0.083281	0.711353	1.24026	0.536621	0.239688	0.906268	2.87607	-0.16575	1.41103	-0.557098	2.23428	-0.096662	2.00645	
0.824533	2.1637	5	0	2.24676	2.58903	0.797182	1.2303	-0.0618928	-0.395442	0.437709	-0.353557	0.595494	0.317447	1.02144	1.14649	0.0742772	-0.155363	-0.606934	0.253211	-0.739976	-0.0145592	-0.804613	0.0972975	0.720596	1.25215	0.54161	0.250016	0.925237	2.89617	-0.148709	1.42403	-0.535359	2.24696	-0.0867485	2.012	
0.858323	2.16675	5	0	2.26011	2.62103	0.800252	1.26063	-0.0560375	-0.375665	0.44096	-0.338004	0.606908	0.329483	1.03204	1.16288	0.0799545	-0.148667	-0.597998	0.265878	-0.733681	-0.0040485	-0.792739	0.111314	0.729839	1.26404	0.546598	0.260344	0.944205	2.91627	-0.131667	1.43704	-0.51362	2.25964	-0.076835	2.01754	
0.859168	2.16675	5	0	2.27347	2.65303	0.803321	1.29096	-0.0501822	-0.355888	0.444211	-0.322452	0.618322	0.341518	1.04264	1.17926	0.0856318	-0.14197	-0.589063	0.278546	-0.727387	0.00646225	-0.780864	0.125331	0.739082	1.27593	0.551587	0.270671	0.963173	2.93637	-0.114626	1.45005	-0.49188	2.27232	-0.0669215	2.02308	
0.833199	2.16522	0	5	2.28683	2.68504	0.806391	1.32129	-0.044327	-0.336111	0.447462	-0.306899	0.629736	0.353554	1.05325	1.19565	0.091309	-0.135273	-0.580127	0.291213	-0.721093	0.016973	-0.76899	0.139347	0.748325	1.28782	0.556576	0.280999	0.982142	2.95647	-0.097584	1.46305	-0.470141	2.285	-0.057008	2.02862	
0.790595	2.16827	0	5	2.30576	2.70157	0.806151	1.34802	-0.0460165	-0.313147	0.44989	-0.288988	0.632993	0.370975	1.05673	1.21676	0.089349	-0.118353	-0.575457	0.316015	-0.716723	0.0329653	-0.763139	0.170509	0.755741	1.30495	0.559057	0.298446	1.00268	2.97242	-0.08496	1.48875	-0.46203	2.30669	-0.0411788	2.03434	
0.741534	2.16522	0	5	2.32469	2.7181	0.80591	1.37475	-0.047706	-0.290183	0.452319	-0.271077	0.636251	0.388396	1.06022	1.23788	0.087389	-0.101433	-0.570788	0.340817	-0.712353	0.0489575	-0.757289	0.201671	0.763157	1.32208	0.561539	0.315892	1.02322	2.98838	-0.072336	1.51444	-0.453919	2.32838	-0.0253495	2.04006	
0.696195	2.16827	0	5	2.34361	2.73463	0.80567	1.40148	-0.0493955	-0.26722	0.454747	-0.253167	0.639508	0.405817	1.0637	1.25899	0.085429	-0.0845122	-0.566118	0.365619	-0.707984	0.0649498	-0.751438	0.232833	0.770572	1.33922	0.56402	0.333338	1.04376	3.00433	-0.059712	1.54013	-0.445809	2.35007	-0.00952025	2.04578	
0.664403	2.16675	0	5	2.36254	2.75116	0.80543	1.4282	-0.051085	-0.244256	0.457175	-0.235256	0.642766	0.423238	1.06719	1.28011	0.083469	-0.067592	-0.561449	0.390421	-0.703614	0.080942	-0.745587	0.263995	0.777988	1.35635	0.566502	0.350785	1.06429	3.02029	-0.047088	1.56582	-0.437698	2.37176	0.006309	2.05149	
0.648825	2.16827	0	5	2.36254	2.75116	0.797522	1.4245	-0.0502568	-0.237495	0.459879	-0.226364	0.649143	0.422988	1.06898	1.27503	0.0851052	-0.060828	-0.5525	0.403205	-0.699736	0.0889015	-0.735709	0.283896	0.779612	1.36129	0.562733	0.361436	1.07424	3.03673	-0.028592	1.5854	-0.422652	2.37396	0.020329	2.06246	
0.645475	2.1637	0	5	2.36254	2.75116	0.789614	1.4208	-0.0494285	-0.230734	0.462584	-0.217473	0.65552	0.422737	1.07078	1.26995	0.0867415	-0.054064	-0.543551	0.415989	-0.695858	0.096861	-0.725831	0.303798	0.781236	1.36624	0.558964	0.372086	1.08418	3.05316	-0.010096	1.60499	-0.407606	2.37615	0.034349	2.07343	
0.650113	2.16522	0	5	2.36254	2.75116	0.781707	1.4171	-0.0486002	-0.223973	0.465288	-0.208582	0.661898	0.422487	1.07258	1.26487	0.0883778	-0.0473	-0.534601	0.428773	-0.69198	0.104821	-0.715952	0.323699	0.78286	1.37118	0.555196	0.382736	1.09413	3.0696	0.0084	1.62457	-0.392561	2.37835	0.048369	2.0844	
0.658499	2.16217	0	5	2.36254	2.75116	0.773799	1.4134	-0.047772	-0.217212	0.467992	-0.19969	0.668275	0.422237	1.07438	1.25979	0.090014	-0.040536	-0.525652	0.441557	-0.688102	0.11278	-0.706074	0.343601	0.784484	1.37613	0.551427	0.393387	1.10407	3.08604	0.026896	1.64415	-0.377515	2.38055	0.062389	2.09536	
0.6664	2.16675	0	5	2.36365	2.74802	0.764545	1.41354	-0.0469455	-0.210442	0.469876	-0.188465	0.669662	0.42721	1.07084	1.2543	0.0904455	-0.0303595	-0.509271	0.458896	-0.683255	0.118019	-0.68836	0.360694	0.780315	1.36884	0.552684	0.389836	1.10327	3.07345	0.03412	1.64432	-0.371978	2.3649	0.0720195	2.08504	
0.671042	2.16522	0	5	2.36476	2.74489	0.755291	1.41368	-0.046119	-0.203672	0.47176	-0.177241	0.671049	0.432183	1.0673	1.24881	0.090877	-0.020183	-0.49289	0.476235	-0.678408	0.123258	-0.670646	0.377787	0.776147	1.36156	0.55394	0.386284	1.10247	3.06086	0.041344	1.64448	-0.366442	2.34926	0.08165	2.07472	
0.672826	2.1637	0	5	2.36587	2.74175	0.746036	1.41382	-0.0452925	-0.196903	0.473644	-0.166016	0.672436	0.437155	1.06376	1.24332	0.0913085	-0.0100065	-0.476509	0.493574	-0.67356	0.128497	-0.652933	0.394879	0.771979	1.35428	0.555197	0.382732	1.10166	3.04827	0.048568	1.64464	-0.360905	2.33361	0.0912805	2.06439	
0.672575	2.16217	0	5	2.36698	2.73861	0.736782	1.41396	-0.044466	-0.190133	0.475528	-0.154791	0.673823	0.442128	1.06022	1.23783	0.09174	0.00017	-0.460128	0.510913	-0.668713	0.133736	-0.635219	0.411972	0.76781	1.34699	0.556454	0.379181	1.10086	3.03568	0.055792	1.64481	-0.355369	2.31796	0.100911	2.05407	
0.67111	2.16827	0	5	2.35435	2.72759	0.720213	1.42184	-0.043661	-0.174183	0.474417	-0.143371	0.67292	0.444679	1.06022	1.23783	0.096212	0.010343	-0.439253	0.528566	-0.657066	0.138754	-0.613008	0.426246	0.77149	1.33659	0.555197	0.382732	1.10306	3.01461	0.0677703	1.64187	-0.353948	2.29903	0.106469	2.03836	
0.669252	2.16217	0	5	2.34173	2.71657	0.703643	1.42971	-0.042856	-0.158233	0.473305	-0.13195	0.672018	0.447229	1.06022	1.23783	0.100684	0.020516	-0.418378	0.54622	-0.64542	0.143772	-0.590798	0.440521	0.77517	1.3262	0.55394	0.386284	1.10526	2.99355	0.0797485	1.63893	-0.352528	2.2801	0.112028	2.02265	
