2.7771	0	0	-0.062121	-0.019491	-0.08636	-0.375748	0.001423	0.137071	0.097866	0.013169	0.114943	-0.065537	0.058312	-0.137413	0.137586	-0.058926	0.072818	-0.041422	0.091536	-0.087315	0.1759	-0.046883	0.12344	-0.069571	0.112946	0.05836	0.022667	-0.03248	0.101385	-0.0633	-0.113056	-0.216909	-0.218041	-0.303307	
2.77862	0	0	-0.0600138	-0.0425268	-0.0944415	-0.379962	-0.00152825	0.133839	0.098316	0.002827	0.111659	-0.0633915	0.0569035	-0.133433	0.135064	-0.0625287	0.0668982	-0.0452492	0.08715	-0.084449	0.182374	-0.0537133	0.122666	-0.067385	0.118337	0.05815	0.0207307	-0.027008	0.101385	-0.0633	-0.119439	-0.210537	-0.215714	-0.295373	
2.7771	0	0	-0.0579065	-0.0655625	-0.102523	-0.384175	-0.0044795	0.130607	0.098766	-0.007515	0.108375	-0.061246	0.055495	-0.129452	0.132541	-0.0661315	0.0609785	-0.0490765	0.082764	-0.081583	0.188848	-0.0605435	0.121893	-0.065199	0.123728	0.05794	0.0187945	-0.021536	0.101385	-0.0633	-0.125822	-0.204164	-0.213387	-0.287439	
2.77405	0	0	-0.0557992	-0.0885983	-0.110604	-0.388389	-0.00743075	0.127375	0.099216	-0.017857	0.105091	-0.0591005	0.0540865	-0.125472	0.130019	-0.0697342	0.0550588	-0.0529037	0.078378	-0.078717	0.195321	-0.0673738	0.121119	-0.063013	0.12912	0.05773	0.0168582	-0.016064	0.101385	-0.0633	-0.132204	-0.197792	-0.211059	-0.279505	
2.7771	0	0	-0.053692	-0.111634	-0.118686	-0.392602	-0.010382	0.124143	0.099666	-0.028199	0.101807	-0.056955	0.052678	-0.121491	0.127496	-0.073337	0.049139	-0.056731	0.073992	-0.075851	0.201795	-0.074204	0.120346	-0.060827	0.134511	0.05752	0.014922	-0.010592	0.101385	-0.0633	-0.138587	-0.19142	-0.208732	-0.271571	
2.77862	0	0	-0.0706037	-0.114985	-0.119088	-0.404978	-0.009775	0.110863	0.0936175	-0.0382892	0.0992838	-0.056956	0.0554945	-0.12945	0.126181	-0.080347	0.0491282	-0.0669715	0.0736223	-0.0843305	0.194832	-0.0774488	0.113426	-0.064704	0.123733	0.0579385	0.0142515	-0.0185653	0.0948337	-0.0590192	-0.136561	-0.197147	-0.21396	-0.271308	
2.77557	0	0	-0.0875155	-0.118336	-0.119489	-0.417354	-0.009168	0.0975825	0.087569	-0.0483795	0.0967605	-0.056957	0.058311	-0.13741	0.124866	-0.087357	0.0491175	-0.077212	0.0732525	-0.09281	0.187868	-0.0806935	0.106507	-0.068581	0.112955	0.058357	0.013581	-0.0265385	0.0882825	-0.0547385	-0.134535	-0.202873	-0.219188	-0.271045	
2.77405	0	0	-0.104427	-0.121686	-0.119891	-0.429729	-0.008561	0.0843022	0.0815205	-0.0584697	0.0942372	-0.056958	0.0611275	-0.145369	0.123551	-0.094367	0.0491068	-0.0874525	0.0728827	-0.10129	0.180905	-0.0839382	0.0995868	-0.072458	0.102178	0.0587755	0.0129105	-0.0345118	0.0817313	-0.0504578	-0.132508	-0.208599	-0.224415	-0.270782	
2.77862	0	0	-0.121339	-0.125037	-0.120293	-0.442105	-0.007954	0.071022	0.075472	-0.06856	0.091714	-0.056959	0.063944	-0.153329	0.122236	-0.101377	0.049096	-0.097693	0.072513	-0.109769	0.173942	-0.087183	0.092667	-0.076335	0.0914	0.059194	0.01224	-0.042485	0.07518	-0.046177	-0.130482	-0.214326	-0.229643	-0.270519	
2.77405	0	0	-0.11803	-0.134388	-0.118841	-0.44621	-0.016221	0.071277	0.0800805	-0.0815842	0.0851527	-0.0526718	0.063944	-0.153329	0.119715	-0.10497	0.0455495	-0.0979353	0.0701365	-0.112573	0.173449	-0.0972397	0.094212	-0.080701	0.0998337	0.0503737	0.00963475	-0.0449845	0.07518	-0.046177	-0.139186	-0.213038	-0.220064	-0.28308	
2.77405	0	0	-0.114721	-0.14374	-0.117388	-0.450315	-0.024488	0.071532	0.084689	-0.0946085	0.0785915	-0.0483845	0.063944	-0.153329	0.117193	-0.108564	0.042003	-0.0981775	0.06776	-0.115376	0.172955	-0.107296	0.095757	-0.085067	0.108267	0.0415535	0.0070295	-0.047484	0.07518	-0.046177	-0.14789	-0.211751	-0.210485	-0.295642	
2.77405	0	0	-0.111412	-0.153091	-0.115935	-0.45442	-0.032755	0.071787	0.0892975	-0.107633	0.0720303	-0.0440972	0.063944	-0.153329	0.114671	-0.112157	0.0384565	-0.0984198	0.0653835	-0.11818	0.172462	-0.117353	0.097302	-0.089433	0.116701	0.0327333	0.00442425	-0.0499835	0.07518	-0.046177	-0.156594	-0.210463	-0.200905	-0.308203	
2.77405	0	0	-0.108103	-0.162442	-0.114483	-0.458525	-0.041022	0.072042	0.093906	-0.120657	0.065469	-0.03981	0.063944	-0.153329	0.11215	-0.11575	0.03491	-0.098662	0.063007	-0.120984	0.171968	-0.12741	0.098847	-0.093799	0.125135	0.023913	0.001819	-0.052483	0.07518	-0.046177	-0.165298	-0.209175	-0.191326	-0.320764	
2.77405	0	0	-0.113854	-0.180207	-0.108679	-0.474927	-0.0498553	0.0623965	0.089691	-0.135889	0.0556362	-0.033385	0.0568078	-0.145607	0.105906	-0.119524	0.0372647	-0.105317	0.0606315	-0.123785	0.169087	-0.130711	0.0944825	-0.089269	0.125135	0.023913	0.0053915	-0.0527167	0.071906	-0.0440378	-0.158923	-0.215539	-0.194226	-0.312567	
2.77557	0	0	-0.119606	-0.197971	-0.102876	-0.491328	-0.0586885	0.052751	0.085476	-0.151121	0.0458035	-0.02696	0.0496715	-0.137885	0.0996615	-0.123298	0.0396195	-0.111972	0.058256	-0.126587	0.166205	-0.134012	0.090118	-0.084739	0.125135	0.023913	0.008964	-0.0529505	0.068632	-0.0418985	-0.152549	-0.221904	-0.197126	-0.30437	
2.76947	0	0	-0.125358	-0.215736	-0.0970725	-0.50773	-0.0675218	0.0431055	0.081261	-0.166353	0.0359708	-0.020535	0.0425352	-0.130163	0.0934173	-0.127072	0.0419742	-0.118626	0.0558805	-0.129388	0.163324	-0.137312	0.0857535	-0.080209	0.125135	0.023913	0.0125365	-0.0531843	0.065358	-0.0397593	-0.146174	-0.228268	-0.200027	-0.296173	
2.77099	0	0	-0.131109	-0.233501	-0.091269	-0.524131	-0.076355	0.03346	0.077046	-0.181585	0.026138	-0.01411	0.035399	-0.122441	0.087173	-0.130846	0.044329	-0.125281	0.053505	-0.13219	0.160442	-0.140613	0.081389	-0.075679	0.125135	0.023913	0.016109	-0.053418	0.062084	-0.03762	-0.139799	-0.234632	-0.202927	-0.287976	
2.76794	0	0	-0.133986	-0.242358	-0.0931375	-0.532352	-0.079878	0.0203795	0.071911	-0.194178	0.0170758	-0.009838	0.038214	-0.130397	0.0846553	-0.134432	0.0384167	-0.129085	0.0443843	-0.13493	0.158753	-0.147278	0.0765258	-0.0775342	0.128179	0.0153092	0.00993225	-0.0556818	0.0555402	-0.033344	-0.148498	-0.233343	-0.200027	-0.296173	
2.76947	0	0	-0.136862	-0.251214	-0.095006	-0.540573	-0.083401	0.007299	0.066776	-0.206771	0.0080135	-0.005566	0.041029	-0.138353	0.0821375	-0.138018	0.0325045	-0.132889	0.0352635	-0.137669	0.157064	-0.153943	0.0716625	-0.0793895	0.131223	0.0067055	0.0037555	-0.0579455	0.0489965	-0.029068	-0.157197	-0.232054	-0.197126	-0.30437	
2.76489	0	0	-0.139739	-0.260071	-0.0968745	-0.548794	-0.086924	-0.0057815	0.061641	-0.219365	-0.00104875	-0.001294	0.043844	-0.146309	0.0796198	-0.141604	0.0265923	-0.136692	0.0261427	-0.140408	0.155376	-0.160608	0.0667993	-0.0812447	0.134268	-0.00189825	-0.00242125	-0.0602092	0.0424528	-0.024792	-0.165896	-0.230766	-0.194226	-0.312567	
2.76337	0	0	-0.142616	-0.268927	-0.098743	-0.557015	-0.090447	-0.018862	0.056506	-0.231958	-0.010111	0.002978	0.046659	-0.154265	0.077102	-0.14519	0.02068	-0.140496	0.017022	-0.143148	0.153687	-0.167273	0.061936	-0.0831	0.137312	-0.010502	-0.008598	-0.062473	0.035909	-0.020516	-0.174595	-0.229477	-0.191326	-0.320764	
2.77099	0	0	-0.140971	-0.273577	-0.100191	-0.552923	-0.0910325	-0.0287155	0.0527785	-0.239471	-0.0166523	0.00725225	0.053794	-0.161984	0.0745855	-0.148773	0.0265745	-0.146902	0.019022	-0.1488	0.154878	-0.170638	0.0634795	-0.0874617	0.13579	-0.00620125	-0.00309525	-0.0681675	0.0391802	-0.0226538	-0.168225	-0.235837	-0.179402	-0.325405	
2.76947	0	0	-0.139325	-0.278227	-0.101639	-0.548831	-0.091618	-0.038569	0.049051	-0.246984	-0.0231935	0.0115265	0.060929	-0.169702	0.072069	-0.152356	0.032469	-0.153307	0.021022	-0.154452	0.156069	-0.174004	0.065023	-0.0918235	0.134269	-0.0019005	0.0024075	-0.073862	0.0424515	-0.0247915	-0.161855	-0.242196	-0.167479	-0.330046	
2.77099	0	0	-0.13768	-0.282877	-0.103087	-0.544739	-0.0922035	-0.0484225	0.0453235	-0.254498	-0.0297348	0.0158007	0.068064	-0.177421	0.0695525	-0.155938	0.0383635	-0.159712	0.023022	-0.160105	0.15726	-0.17737	0.0665665	-0.0961852	0.132747	0.00240025	0.00791025	-0.0795565	0.0457228	-0.0269292	-0.155484	-0.248555	-0.155555	-0.334687	
2.77252	0	0	-0.136035	-0.287527	-0.104535	-0.540647	-0.092789	-0.058276	0.041596	-0.262011	-0.036276	0.020075	0.075199	-0.185139	0.067036	-0.159521	0.044258	-0.166118	0.025022	-0.165757	0.158451	-0.180735	0.06811	-0.100547	0.131225	0.006701	0.013413	-0.085251	0.048994	-0.029067	-0.149114	-0.254915	-0.143631	-0.339328	
2.78015	0	0	-0.137273	-0.301	-0.0987475	-0.557003	-0.0951445	-0.074613	0.0489088	-0.282678	-0.0453198	0.0243352	0.0694707	-0.181396	0.0608047	-0.163282	0.0371717	-0.166592	0.0192812	-0.168519	0.159641	-0.184099	0.0724702	-0.105072	0.131225	0.006701	0.012447	-0.082521	0.0457228	-0.0269292	-0.154473	-0.251413	-0.136936	-0.343703	
2.78473	0	0	-0.13851	-0.314472	-0.09296	-0.57336	-0.0975	-0.09095	0.0562215	-0.303345	-0.0543635	0.0285955	0.0637425	-0.177653	0.0545735	-0.167044	0.0300855	-0.167067	0.0135405	-0.171281	0.160832	-0.187464	0.0768305	-0.109598	0.131225	0.006701	0.011481	-0.079791	0.0424515	-0.0247915	-0.159832	-0.247911	-0.130242	-0.348077	
2.78473	0	0	-0.139748	-0.327945	-0.0871725	-0.589716	-0.0998555	-0.107287	0.0635342	-0.324011	-0.0634072	0.0328558	0.0580143	-0.17391	0.0483423	-0.170805	0.0229992	-0.167541	0.00779975	-0.174042	0.162023	-0.190828	0.0811908	-0.114123	0.131225	0.006701	0.010515	-0.077061	0.0391802	-0.0226538	-0.165192	-0.244409	-0.123547	-0.352451	
2.77405	0	0	-0.140986	-0.341418	-0.081385	-0.606073	-0.102211	-0.123624	0.070847	-0.344678	-0.072451	0.037116	0.052286	-0.170167	0.042111	-0.174567	0.015913	-0.168015	0.002059	-0.176804	0.163213	-0.194192	0.085551	-0.118648	0.131225	0.006701	0.009549	-0.074331	0.035909	-0.020516	-0.170551	-0.240907	-0.116852	-0.356826	
2.77557	0	0	-0.145508	-0.345592	-0.0847047	-0.610182	-0.101634	-0.136741	0.068933	-0.3573	-0.0822425	0.043514	0.0521817	-0.18231	0.040798	-0.181534	0.0194337	-0.177965	0.00605125	-0.188087	0.156263	-0.197405	0.0814583	-0.122674	0.134268	-0.0018985	0.0043395	-0.079318	0.0301238	-0.018373	-0.16651	-0.252327	-0.125888	-0.360367	
2.77557	0	0	-0.150031	-0.349767	-0.0880245	-0.614291	-0.101057	-0.149859	0.067019	-0.369922	-0.092034	0.049912	0.0520775	-0.194453	0.039485	-0.1885	0.0229545	-0.187916	0.0100435	-0.19937	0.149313	-0.200617	0.0773655	-0.126699	0.137311	-0.010498	-0.00087	-0.084305	0.0243385	-0.01623	-0.162469	-0.263747	-0.134925	-0.363909	
2.77099	0	0	-0.154554	-0.353942	-0.0913443	-0.618401	-0.10048	-0.162976	0.065105	-0.382543	-0.101825	0.05631	0.0519732	-0.206596	0.038172	-0.195466	0.0264752	-0.197867	0.0140357	-0.210653	0.142363	-0.203829	0.0732727	-0.130725	0.140353	-0.0190975	-0.0060795	-0.089292	0.0185533	-0.014087	-0.158429	-0.275167	-0.143961	-0.367451	
2.76947	0	0	-0.159076	-0.358116	-0.094664	-0.62251	-0.099903	-0.176094	0.063191	-0.395165	-0.111617	0.062708	0.051869	-0.218739	0.036859	-0.202433	0.029996	-0.207817	0.018028	-0.221936	0.135413	-0.207042	0.06918	-0.13475	0.143396	-0.027697	-0.011289	-0.094279	0.012768	-0.011944	-0.154388	-0.286587	-0.152998	-0.370992	
2.77099	0	0	-0.159076	-0.358116	-0.0932203	-0.626591	-0.101673	-0.18257	0.0650127	-0.400314	-0.114878	0.064839	0.0489547	-0.222932	0.036859	-0.202433	0.027627	-0.211364	0.0112927	-0.221868	0.13779	-0.213759	0.0707205	-0.139104	0.144916	-0.0319935	-0.0138918	-0.0967698	0.00950025	-0.009809	-0.157725	-0.288792	-0.153895	-0.382981	
2.77557	0	0	-0.159076	-0.358116	-0.0917765	-0.630672	-0.103444	-0.189046	0.0668345	-0.405463	-0.11814	0.06697	0.0460405	-0.227125	0.036859	-0.202433	0.025258	-0.214912	0.0045575	-0.221801	0.140167	-0.220477	0.072261	-0.143458	0.146436	-0.03629	-0.0164945	-0.0992605	0.0062325	-0.007674	-0.161063	-0.290997	-0.154791	-0.394969	
2.77099	0	0	-0.159076	-0.358116	-0.0903327	-0.634752	-0.105215	-0.195522	0.0686563	-0.410611	-0.121401	0.069101	0.0431262	-0.231319	0.036859	-0.202433	0.022889	-0.218459	-0.00217775	-0.221733	0.142544	-0.227194	0.0738015	-0.147813	0.147957	-0.0405865	-0.0190972	-0.101751	0.00296475	-0.005539	-0.164401	-0.293202	-0.155688	-0.406958	
2.76947	0	0	-0.159076	-0.358116	-0.088889	-0.638833	-0.106985	-0.201998	0.070478	-0.41576	-0.124663	0.071232	0.040212	-0.235512	0.036859	-0.202433	0.02052	-0.222006	-0.008913	-0.221665	0.144921	-0.233911	0.075342	-0.152167	0.149477	-0.044883	-0.0217	-0.104242	-0.000303	-0.003404	-0.167738	-0.295407	-0.156585	-0.418947	
2.76947	0	0	-0.152913	-0.358579	-0.0874457	-0.642912	-0.109925	-0.205161	0.0699722	-0.423339	-0.131182	0.0754917	0.040212	-0.235512	0.0331473	-0.202614	0.0169805	-0.222239	-0.00791625	-0.224482	0.143733	-0.230553	0.075342	-0.152167	0.149477	-0.044883	-0.017168	-0.107203	-0.00356925	-0.00126975	-0.167738	-0.295407	-0.152251	-0.431195	
2.76947	0	0	-0.146749	-0.359043	-0.0860025	-0.646991	-0.112866	-0.208323	0.0694665	-0.430919	-0.137701	0.0797515	0.040212	-0.235512	0.0294355	-0.202794	0.013441	-0.222473	-0.0069195	-0.227299	0.142544	-0.227195	0.075342	-0.152167	0.149477	-0.044883	-0.012636	-0.110164	-0.0068355	0.0008645	-0.167738	-0.295407	-0.147918	-0.443443	
2.76794	0	0	-0.140586	-0.359507	-0.0845593	-0.651069	-0.115807	-0.211485	0.0689608	-0.438499	-0.144219	0.0840113	0.040212	-0.235512	0.0257238	-0.202975	0.0099015	-0.222706	-0.00592275	-0.230115	0.141356	-0.223837	0.075342	-0.152167	0.149477	-0.044883	-0.008104	-0.113126	-0.0101017	0.00299875	-0.167738	-0.295407	-0.143584	-0.45569	
2.77099	0	0	-0.134422	-0.35997	-0.083116	-0.655148	-0.118747	-0.214648	0.068455	-0.446078	-0.150738	0.088271	0.040212	-0.235512	0.022012	-0.203156	0.006362	-0.222939	-0.004926	-0.232932	0.140168	-0.220479	0.075342	-0.152167	0.149477	-0.044883	-0.003572	-0.116087	-0.013368	0.005133	-0.167738	-0.295407	-0.13925	-0.467938	
2.76947	0	0	-0.133181	-0.346507	-0.0740217	-0.667358	-0.117578	-0.217953	0.073511	-0.451357	-0.153237	0.0882553	0.0387	-0.24366	0.023211	-0.206545	0.00516625	-0.229791	-0.001938	-0.241377	0.142544	-0.227194	0.0712508	-0.156184	0.145605	-0.0489547	-0.006176	-0.118574	-0.0198967	0.00939925	-0.165721	-0.301108	-0.156386	-0.463012	
2.76947	0	0	-0.131939	-0.333044	-0.0649275	-0.679567	-0.116408	-0.221257	0.078567	-0.456637	-0.155736	0.0882395	0.037188	-0.251808	0.02441	-0.209933	0.0039705	-0.236642	0.00105	-0.249822	0.14492	-0.233909	0.0671595	-0.1602	0.141733	-0.0530265	-0.00878	-0.121062	-0.0264255	0.0136655	-0.163704	-0.306809	-0.173521	-0.458085	
2.77099	0	0	-0.130697	-0.319581	-0.0558333	-0.691777	-0.115239	-0.224562	0.083623	-0.461917	-0.158235	0.0882237	0.035676	-0.259957	0.025609	-0.213321	0.00277475	-0.243493	0.004038	-0.258267	0.147296	-0.240623	0.0630683	-0.164217	0.137861	-0.0570983	-0.011384	-0.12355	-0.0329542	0.0179317	-0.161686	-0.31251	-0.190657	-0.453159	
2.76947	0	0	-0.129456	-0.306118	-0.046739	-0.703987	-0.114069	-0.227867	0.088679	-0.467196	-0.160734	0.088208	0.034164	-0.268105	0.026808	-0.21671	0.001579	-0.250345	0.007026	-0.266712	0.149672	-0.247338	0.058977	-0.168234	0.133989	-0.06117	-0.013988	-0.126037	-0.039483	0.022198	-0.159669	-0.318211	-0.207792	-0.448232	
2.77099	0	0	-0.106372	-0.303317	-0.0371908	-0.703959	-0.112298	-0.2214	0.0974903	-0.465046	-0.16399	0.0903357	0.0355642	-0.272062	0.0317192	-0.219919	-0.00195725	-0.250577	0.00465525	-0.269488	0.145605	-0.24726	0.0569323	-0.170241	0.137024	-0.0697487	-0.015628	-0.131244	-0.039483	0.022198	-0.168355	-0.316915	-0.203468	-0.460452	
2.77099	0	0	-0.083289	-0.300516	-0.0276425	-0.703931	-0.110527	-0.214932	0.106301	-0.462896	-0.167246	0.0924635	0.0369645	-0.27602	0.0366305	-0.223128	-0.0054935	-0.250809	0.0022845	-0.272263	0.141538	-0.247182	0.0548875	-0.172247	0.14006	-0.0783275	-0.017268	-0.136451	-0.039483	0.022198	-0.177042	-0.315619	-0.199144	-0.472672	
2.77557	0	0	-0.0602055	-0.297715	-0.0180942	-0.703902	-0.108756	-0.208465	0.115113	-0.460746	-0.170503	0.0945913	0.0383648	-0.279977	0.0415418	-0.226337	-0.00902975	-0.251041	-8.625E-05	-0.275039	0.137471	-0.247105	0.0528428	-0.174254	0.143096	-0.0869063	-0.018908	-0.141658	-0.039483	0.022198	-0.185728	-0.314324	-0.19482	-0.484891	
2.7771	0	0	-0.037122	-0.294914	-0.008546	-0.703874	-0.106985	-0.201998	0.123924	-0.458596	-0.173759	0.096719	0.039765	-0.283935	0.046453	-0.229546	-0.012566	-0.251273	-0.002457	-0.277815	0.133404	-0.247027	0.050798	-0.176261	0.146131	-0.095485	-0.020548	-0.146865	-0.039483	0.022198	-0.194414	-0.313028	-0.190496	-0.497111	
2.78015	0	0	-0.0387707	-0.290254	-0.013322	-0.703887	-0.102872	-0.202142	0.123013	-0.456023	-0.180268	0.100972	0.0383648	-0.279977	0.0366335	-0.22313	-0.012566	-0.251273	-0.00345225	-0.275002	0.138658	-0.25046	0.0528428	-0.174254	0.144614	-0.0911967	-0.021511	-0.144143	-0.0427457	0.0243297	-0.195422	-0.31018	-0.190496	-0.497111	
2.7832	0	0	-0.0404195	-0.285594	-0.018098	-0.703901	-0.098759	-0.202286	0.122103	-0.45345	-0.186777	0.105225	0.0369645	-0.27602	0.026814	-0.216714	-0.012566	-0.251273	-0.0044475	-0.27219	0.143912	-0.253893	0.0548875	-0.172247	0.143097	-0.0869085	-0.022474	-0.141422	-0.0460085	0.0264615	-0.19643	-0.307331	-0.190496	-0.497111	
2.78778	0	0	-0.0420683	-0.280935	-0.022874	-0.703914	-0.094646	-0.20243	0.121193	-0.450876	-0.193287	0.109478	0.0355642	-0.272062	0.0169945	-0.210297	-0.012566	-0.251273	-0.00544275	-0.269377	0.149167	-0.257327	0.0569323	-0.170241	0.141579	-0.0826203	-0.023437	-0.138701	-0.0492712	0.0285933	-0.197437	-0.304483	-0.190496	-0.497111	
2.79083	0	0	-0.043717	-0.276275	-0.02765	-0.703928	-0.090533	-0.202574	0.120282	-0.448303	-0.199796	0.113731	0.034164	-0.268105	0.007175	-0.203881	-0.012566	-0.251273	-0.006438	-0.266565	0.154421	-0.26076	0.058977	-0.168234	0.140062	-0.078332	-0.0244	-0.135979	-0.052534	0.030725	-0.198445	-0.301635	-0.190496	-0.497111	
2.79388	0	0	-0.0499078	-0.275813	-0.0295403	-0.712087	-0.090533	-0.202574	0.118861	-0.453307	-0.2063	0.117981	0.0355642	-0.272062	0.0083735	-0.207268	-0.0160997	-0.251505	-0.004448	-0.272189	0.15154	-0.264034	0.058977	-0.168234	0.134675	-0.0781085	-0.0263267	-0.130534	-0.059809	0.0371157	-0.197437	-0.304483	-0.190496	-0.497111	
2.79846	0	0	-0.0560985	-0.27535	-0.0314305	-0.720247	-0.090533	-0.202574	0.117439	-0.458311	-0.212804	0.122231	0.0369645	-0.27602	0.009572	-0.210655	-0.0196335	-0.251738	-0.002458	-0.277813	0.148659	-0.267308	0.058977	-0.168234	0.129287	-0.077885	-0.0282535	-0.125088	-0.067084	0.0435065	-0.19643	-0.307331	-0.190496	-0.497111	
2.80304	0	0	-0.0622892	-0.274887	-0.0333207	-0.728406	-0.090533	-0.202574	0.116017	-0.463316	-0.219308	0.126481	0.0383648	-0.279977	0.0107705	-0.214043	-0.0231673	-0.25197	-0.000468	-0.283437	0.145778	-0.270581	0.058977	-0.168234	0.123899	-0.0776615	-0.0301802	-0.119643	-0.074359	0.0498972	-0.195422	-0.31018	-0.190496	-0.497111	
2.80456	0	0	-0.06848	-0.274425	-0.035211	-0.736565	-0.090533	-0.202574	0.114596	-0.46832	-0.225812	0.130731	0.039765	-0.283935	0.011969	-0.21743	-0.026701	-0.252202	0.001522	-0.289061	0.142897	-0.273855	0.058977	-0.168234	0.118512	-0.077438	-0.032107	-0.114198	-0.081634	0.056288	-0.194414	-0.313028	-0.190496	-0.497111	
2.80609	0	0	-0.063939	-0.270225	-0.0304375	-0.736554	-0.090533	-0.202574	0.118748	-0.471033	-0.229062	0.132855	0.0383648	-0.279977	0.0156787	-0.21725	-0.0208282	-0.25858	-0.00283725	-0.286212	0.140017	-0.277126	0.0569323	-0.170241	0.120029	-0.0817242	-0.0356708	-0.113963	-0.0841392	0.056288	-0.19976	-0.309535	-0.197159	-0.492757	
2.80762	0	0	-0.059398	-0.266026	-0.025664	-0.736544	-0.090533	-0.202574	0.1229	-0.473747	-0.232313	0.134979	0.0369645	-0.27602	0.0193885	-0.21707	-0.0149555	-0.264958	-0.0071965	-0.283364	0.137137	-0.280397	0.0548875	-0.172247	0.121545	-0.0860105	-0.0392345	-0.113727	-0.0866445	0.056288	-0.205106	-0.306041	-0.203823	-0.488403	
2.81219	0	0	-0.054857	-0.261826	-0.0208905	-0.736533	-0.090533	-0.202574	0.127053	-0.47646	-0.235563	0.137102	0.0355642	-0.272062	0.0230983	-0.21689	-0.00908275	-0.271336	-0.0115558	-0.280516	0.134258	-0.283668	0.0528428	-0.174254	0.123061	-0.0902968	-0.0427982	-0.113492	-0.0891497	0.056288	-0.210453	-0.302548	-0.210487	-0.484049	
2.81525	0	0	-0.050316	-0.257626	-0.016117	-0.736522	-0.090533	-0.202574	0.131205	-0.479173	-0.238813	0.139226	0.034164	-0.268105	0.026808	-0.21671	-0.00321	-0.277714	-0.015915	-0.277667	0.131378	-0.286939	0.050798	-0.176261	0.124578	-0.094583	-0.046362	-0.113257	-0.091655	0.056288	-0.215799	-0.299055	-0.21715	-0.479695	
2.81372	0	0	-0.0552702	-0.243625	-0.0113397	-0.736512	-0.0975865	-0.205593	0.127962	-0.479031	-0.238055	0.137082	0.0313613	-0.260184	0.0218997	-0.213503	-0.005549	-0.271104	-0.0125505	-0.277704	0.132563	-0.290288	0.0513035	-0.169904	0.128449	-0.0905202	-0.0437623	-0.110768	-0.0883962	0.0541585	-0.216807	-0.296207	-0.211927	-0.479978	
2.81982	0	0	-0.0602245	-0.229623	-0.0065625	-0.736502	-0.10464	-0.208611	0.12472	-0.478889	-0.237296	0.134938	0.0285585	-0.252263	0.0169915	-0.210296	-0.007888	-0.264494	-0.009186	-0.277741	0.133748	-0.293637	0.051809	-0.163548	0.13232	-0.0864575	-0.0411625	-0.10828	-0.0851375	0.052029	-0.217814	-0.293358	-0.206705	-0.48026	
2.81525	0	0	-0.0651788	-0.215621	-0.00178525	-0.736492	-0.111694	-0.211629	0.121478	-0.478747	-0.236537	0.132794	0.0257558	-0.244343	0.0120833	-0.207088	-0.010227	-0.257883	-0.0058215	-0.277778	0.134933	-0.296987	0.0523145	-0.157191	0.136191	-0.0823948	-0.0385627	-0.105791	-0.0818788	0.0498995	-0.218822	-0.29051	-0.201482	-0.480542	
2.82135	0	0	-0.070133	-0.20162	0.002992	-0.736482	-0.118747	-0.214648	0.118235	-0.478605	-0.235779	0.13065	0.022953	-0.236422	0.007175	-0.203881	-0.012566	-0.251273	-0.002457	-0.277815	0.136118	-0.300336	0.05282	-0.150834	0.140062	-0.078332	-0.035963	-0.103302	-0.07862	0.04777	-0.21983	-0.287662	-0.196259	-0.480825	
2.8183	0	0	-0.071786	-0.196948	-0.00034475	-0.740563	-0.119349	-0.224411	0.112664	-0.480891	-0.239786	0.134917	0.0200425	-0.24061	0.0083735	-0.207268	-0.0149305	-0.25481	-0.009184	-0.277741	0.133239	-0.303601	0.0479637	-0.152677	0.134675	-0.0781085	-0.0404903	-0.100344	-0.07862	0.04777	-0.221847	-0.281963	-0.205805	-0.468323	
2.82135	0	0	-0.073439	-0.192276	-0.0036815	-0.744644	-0.119952	-0.234174	0.107093	-0.483178	-0.243794	0.139184	0.017132	-0.244797	0.009572	-0.210655	-0.017295	-0.258347	-0.015911	-0.277668	0.13036	-0.306867	0.0431075	-0.15452	0.129287	-0.077885	-0.0450175	-0.0973855	-0.07862	0.04777	-0.223863	-0.276263	-0.215352	-0.45582	
2.81982	0	0	-0.075092	-0.187604	-0.00701825	-0.748726	-0.120554	-0.243937	0.101522	-0.485464	-0.247802	0.143451	0.0142215	-0.248984	0.0107705	-0.214043	-0.0196595	-0.261883	-0.022638	-0.277595	0.127481	-0.310133	0.0382513	-0.156362	0.123899	-0.0776615	-0.0495447	-0.0944272	-0.07862	0.04777	-0.225879	-0.270564	-0.224899	-0.443318	
2.81525	0	0	-0.076745	-0.182932	-0.010355	-0.752807	-0.121156	-0.2537	0.095951	-0.48775	-0.251809	0.147718	0.011311	-0.253172	0.011969	-0.21743	-0.022024	-0.26542	-0.029365	-0.277521	0.124602	-0.313398	0.033395	-0.158205	0.118512	-0.077438	-0.054072	-0.091469	-0.07862	0.04777	-0.227896	-0.264865	-0.234445	-0.430816	
2.81525	0	0	-0.0688985	-0.188059	-0.010355	-0.752807	-0.125262	-0.253553	0.09453	-0.492743	-0.255057	0.14984	0.0127115	-0.25713	0.0143648	-0.224201	-0.0208552	-0.268724	-0.0317317	-0.280294	0.122907	-0.320003	0.0305843	-0.158039	0.118512	-0.077438	-0.0521445	-0.096916	-0.0793735	0.0498995	-0.233239	-0.261374	-0.23822	-0.434614	
2.81677	0	0	-0.061052	-0.193187	-0.010355	-0.752807	-0.129368	-0.253407	0.093109	-0.497735	-0.258304	0.151963	0.014112	-0.261088	0.0167605	-0.230971	-0.0196865	-0.272027	-0.0340985	-0.283067	0.121213	-0.326609	0.0277735	-0.157873	0.118512	-0.077438	-0.050217	-0.102363	-0.080127	0.052029	-0.238582	-0.257883	-0.241995	-0.438411	
2.81525	0	0	-0.0532055	-0.198314	-0.010355	-0.752807	-0.133475	-0.25326	0.091688	-0.502728	-0.261552	0.154085	0.0155125	-0.265045	0.0191562	-0.237742	-0.0185177	-0.27533	-0.0364652	-0.28584	0.119518	-0.333215	0.0249628	-0.157708	0.118512	-0.077438	-0.0482895	-0.10781	-0.0808805	0.0541585	-0.243924	-0.254392	-0.24577	-0.442209	
2.81219	0	0	-0.045359	-0.203441	-0.010355	-0.752807	-0.137581	-0.253114	0.090267	-0.507721	-0.2648	0.156207	0.016913	-0.269003	0.021552	-0.244513	-0.017349	-0.278634	-0.038832	-0.288613	0.117823	-0.33982	0.022152	-0.157542	0.118512	-0.077438	-0.046362	-0.113257	-0.081634	0.056288	-0.249267	-0.250901	-0.249545	-0.446007	
2.81219	0	0	-0.0577397	-0.202533	-0.008915	-0.756876	-0.139352	-0.259562	0.0870308	-0.507579	-0.264041	0.154063	0.0141115	-0.261086	0.0190405	-0.248073	-0.0208818	-0.278864	-0.0368452	-0.294228	0.109707	-0.339654	0.022152	-0.157542	0.110095	-0.0686415	-0.0518505	-0.107577	-0.0776203	0.0520282	-0.245942	-0.248689	-0.249545	-0.446007	
2.81219	0	0	-0.0701205	-0.201625	-0.007475	-0.760946	-0.141122	-0.26601	0.0837945	-0.507437	-0.263283	0.151919	0.01131	-0.253169	0.016529	-0.251634	-0.0244145	-0.279095	-0.0348585	-0.299843	0.101592	-0.339488	0.022152	-0.157542	0.101679	-0.059845	-0.057339	-0.101898	-0.0736065	0.0477685	-0.242617	-0.246477	-0.249545	-0.446007	
2.81067	0	0	-0.0825012	-0.200717	-0.006035	-0.765016	-0.142893	-0.272458	0.0805582	-0.507295	-0.262524	0.149775	0.0085085	-0.245252	0.0140175	-0.255194	-0.0279472	-0.279325	-0.0328717	-0.305458	0.0934765	-0.339323	0.022152	-0.157542	0.0932618	-0.0510485	-0.0628275	-0.0962177	-0.0695927	0.0435087	-0.239293	-0.244266	-0.249545	-0.446007	
2.81525	0	0	-0.094882	-0.199809	-0.004595	-0.769085	-0.144663	-0.278906	0.077322	-0.507153	-0.261766	0.147631	0.005707	-0.237335	0.011506	-0.258754	-0.03148	-0.279555	-0.030885	-0.311073	0.085361	-0.339157	0.022152	-0.157542	0.084845	-0.042252	-0.068316	-0.090538	-0.065579	0.039249	-0.235968	-0.242054	-0.249545	-0.446007	
2.80914	0	0	-0.0977625	-0.208685	-0.00793125	-0.773158	-0.142942	-0.295215	0.073575	-0.514559	-0.272261	0.156137	0.004199	-0.245477	0.00529075	-0.262487	-0.036205	-0.286613	-0.0332522	-0.31384	0.0848493	-0.349085	0.0129585	-0.154876	0.0794685	-0.0420357	-0.0728385	-0.0875827	-0.0688392	0.0413792	-0.241311	-0.238563	-0.253871	-0.433781	
2.80609	0	0	-0.100643	-0.217561	-0.0112675	-0.777231	-0.141221	-0.311524	0.069828	-0.521965	-0.282755	0.164642	0.002691	-0.25362	-0.0009245	-0.266221	-0.04093	-0.293671	-0.0356195	-0.316607	0.0843375	-0.359014	0.003765	-0.15221	0.074092	-0.0418195	-0.077361	-0.0846275	-0.0720995	0.0435095	-0.246653	-0.235072	-0.258196	-0.421556	
2.80609	0	0	-0.103523	-0.226438	-0.0146038	-0.781304	-0.139499	-0.327833	0.066081	-0.529372	-0.293249	0.173148	0.001183	-0.261763	-0.00713975	-0.269954	-0.045655	-0.300728	-0.0379867	-0.319375	0.0838258	-0.368943	-0.0054285	-0.149544	0.0687155	-0.0416033	-0.0818835	-0.0816723	-0.0753598	0.0456397	-0.251996	-0.231581	-0.262522	-0.40933	
2.80456	0	0	-0.106404	-0.235314	-0.01794	-0.785377	-0.137778	-0.344142	0.062334	-0.536778	-0.303744	0.181653	-0.000325	-0.269905	-0.013355	-0.273688	-0.05038	-0.307786	-0.040354	-0.322142	0.083314	-0.378871	-0.014622	-0.146878	0.063339	-0.041387	-0.086406	-0.078717	-0.07862	0.04777	-0.257339	-0.22809	-0.266848	-0.397105	
2.80609	0	0	-0.110933	-0.239518	-0.0227117	-0.785384	-0.143652	-0.350408	0.0632402	-0.539339	-0.306987	0.183772	-0.0060305	-0.266177	-0.0109657	-0.280441	-0.0527413	-0.31131	-0.0417283	-0.32771	0.0763915	-0.382034	-0.0166593	-0.148886	0.063339	-0.041387	-0.0880365	-0.0839305	-0.07862	0.04777	-0.250987	-0.234433	-0.278706	-0.392491	
2.80456	0	0	-0.115461	-0.243723	-0.0274835	-0.78539	-0.149527	-0.356673	0.0641465	-0.541901	-0.31023	0.185891	-0.011736	-0.262449	-0.0085765	-0.287193	-0.0551025	-0.314834	-0.0431025	-0.333278	0.069469	-0.385198	-0.0186965	-0.150894	0.063339	-0.041387	-0.089667	-0.089144	-0.07862	0.04777	-0.244635	-0.240776	-0.290565	-0.387877	
2.80304	0	0	-0.119989	-0.247927	-0.0322552	-0.785396	-0.155401	-0.362939	0.0650528	-0.544462	-0.313472	0.18801	-0.0174415	-0.258721	-0.00618725	-0.293946	-0.0574638	-0.318358	-0.0444768	-0.338846	0.0625465	-0.388362	-0.0207337	-0.152903	0.063339	-0.041387	-0.0912975	-0.0943575	-0.07862	0.04777	-0.238283	-0.247119	-0.302424	-0.383263	
2.80456	0	0	-0.124518	-0.252131	-0.037027	-0.785403	-0.161275	-0.369205	0.065959	-0.547024	-0.316715	0.190129	-0.023147	-0.254993	-0.003798	-0.300699	-0.059825	-0.321882	-0.045851	-0.344414	0.055624	-0.391525	-0.022771	-0.154911	0.063339	-0.041387	-0.092928	-0.099571	-0.07862	0.04777	-0.231931	-0.253462	-0.314282	-0.378649	
2.80304	0	0	-0.132336	-0.247022	-0.043232	-0.781349	-0.169464	-0.368901	0.0650528	-0.544462	-0.319198	0.190103	-0.0245467	-0.251037	-0.00511425	-0.307619	-0.0645158	-0.318817	-0.0448598	-0.347216	0.0568025	-0.394856	-0.0220028	-0.157082	0.0549333	-0.0325978	-0.087445	-0.105245	-0.07862	0.04777	-0.237274	-0.249971	-0.314282	-0.378649	
2.80151	0	0	-0.140154	-0.241914	-0.049437	-0.777294	-0.177654	-0.368596	0.0641465	-0.541901	-0.321681	0.190078	-0.0259465	-0.247081	-0.0064305	-0.314538	-0.0692065	-0.315752	-0.0438685	-0.350017	0.057981	-0.398186	-0.0212345	-0.159253	0.0465275	-0.0238085	-0.081962	-0.11092	-0.07862	0.04777	-0.242617	-0.24648	-0.314282	-0.378649	
2.80151	0	0	-0.147972	-0.236806	-0.055642	-0.773239	-0.185843	-0.368291	0.0632402	-0.539339	-0.324164	0.190052	-0.0273463	-0.243125	-0.00774675	-0.321458	-0.0738972	-0.312687	-0.0428772	-0.352819	0.0591595	-0.401516	-0.0204662	-0.161424	0.0381218	-0.0150192	-0.076479	-0.116594	-0.07862	0.04777	-0.247959	-0.242988	-0.314282	-0.378649	
2.79846	0	0	-0.15579	-0.231697	-0.061847	-0.769185	-0.194032	-0.367987	0.062334	-0.536778	-0.326647	0.190026	-0.028746	-0.239169	-0.009063	-0.328378	-0.078588	-0.309622	-0.041886	-0.355621	0.060338	-0.404847	-0.019698	-0.163595	0.029716	-0.00623	-0.070996	-0.122268	-0.07862	0.04777	-0.253302	-0.239497	-0.314282	-0.378649	
2.79693	0	0	-0.15579	-0.231697	-0.0604097	-0.773247	-0.194643	-0.37767	0.0600082	-0.539196	-0.330646	0.194287	-0.0316488	-0.243354	-0.0103807	-0.335288	-0.0797815	-0.316436	-0.0476077	-0.35834	0.0562903	-0.404762	-0.0288755	-0.160935	0.0243507	-0.006021	-0.0781095	-0.121801	-0.0818788	0.0498995	-0.263978	-0.232521	-0.322367	-0.370231	
2.80151	0	0	-0.15579	-0.231697	-0.0589725	-0.777309	-0.195254	-0.387352	0.0576825	-0.541614	-0.334645	0.198549	-0.0345515	-0.247538	-0.0116985	-0.342198	-0.080975	-0.323249	-0.0533295	-0.361059	0.0522425	-0.404676	-0.038053	-0.158276	0.0189855	-0.005812	-0.085223	-0.121334	-0.0851375	0.052029	-0.274653	-0.225546	-0.330453	-0.361814	
2.79999	0	0	-0.15579	-0.231697	-0.0575353	-0.781371	-0.195865	-0.397035	0.0553568	-0.544033	-0.338644	0.20281	-0.0374542	-0.251723	-0.0130163	-0.349109	-0.0821685	-0.330063	-0.0590512	-0.363778	0.0481948	-0.404591	-0.0472305	-0.155616	0.0136203	-0.005603	-0.0923365	-0.120868	-0.0883962	0.0541585	-0.285328	-0.218571	-0.338538	-0.353397	
2.79999	0	0	-0.15579	-0.231697	-0.056098	-0.785433	-0.196476	-0.406718	0.053031	-0.546451	-0.342643	0.207071	-0.040357	-0.255907	-0.014334	-0.356019	-0.083362	-0.336877	-0.064773	-0.366497	0.044147	-0.404506	-0.056408	-0.152956	0.008255	-0.005394	-0.09945	-0.120401	-0.091655	0.056288	-0.296004	-0.211595	-0.346623	-0.344979	
2.79846	0	0	-0.151269	-0.227488	-0.056098	-0.785433	-0.190066	-0.413425	0.0521247	-0.54389	-0.34912	0.211303	-0.0389585	-0.25986	-0.015653	-0.362919	-0.0892398	-0.340621	-0.0608145	-0.377685	0.0401022	-0.404421	-0.0604735	-0.156969	0.00137775	-0.00090025	-0.10012	-0.128318	-0.091655	0.056288	-0.293987	-0.217296	-0.343739	-0.353131	
2.79693	0	0	-0.146748	-0.223279	-0.056098	-0.785433	-0.183655	-0.420131	0.0512185	-0.54133	-0.355598	0.215535	-0.03756	-0.263812	-0.016972	-0.36982	-0.0951175	-0.344366	-0.056856	-0.388873	0.0360575	-0.404337	-0.064539	-0.160981	-0.0054995	0.0035935	-0.10079	-0.136236	-0.091655	0.056288	-0.29197	-0.222997	-0.340854	-0.361283	
2.79999	0	0	-0.142226	-0.219071	-0.056098	-0.785433	-0.177245	-0.426837	0.0503123	-0.538769	-0.362075	0.219768	-0.0361615	-0.267764	-0.018291	-0.376721	-0.100995	-0.34811	-0.0528975	-0.40006	0.0320127	-0.404253	-0.0686045	-0.164993	-0.0123767	0.00808725	-0.10146	-0.144153	-0.091655	0.056288	-0.289953	-0.228698	-0.33797	-0.369435	
2.79541	0	0	-0.137705	-0.214862	-0.056098	-0.785433	-0.170835	-0.433544	0.049406	-0.536208	-0.368552	0.224	-0.034763	-0.271717	-0.01961	-0.383621	-0.106873	-0.351855	-0.048939	-0.411248	0.027968	-0.404168	-0.07267	-0.169006	-0.019254	0.012581	-0.10213	-0.15207	-0.091655	0.056288	-0.287936	-0.234399	-0.335085	-0.377587	
2.79388	0	0	-0.137705	-0.214862	-0.056098	-0.785433	-0.174927	-0.433387	0.0484998	-0.533647	-0.368552	0.224	-0.0418593	-0.264041	-0.0209302	-0.390512	-0.10571	-0.355141	-0.052294	-0.411204	0.0291452	-0.407495	-0.0754683	-0.168844	-0.019254	0.012581	-0.104722	-0.15455	-0.0949128	0.0584165	-0.284913	-0.242944	-0.341723	-0.37325	
2.79693	0	0	-0.137705	-0.214862	-0.056098	-0.785433	-0.17902	-0.43323	0.0475935	-0.531085	-0.368552	0.224	-0.0489555	-0.256366	-0.0222505	-0.397402	-0.104547	-0.358428	-0.055649	-0.411161	0.0303225	-0.410822	-0.0782665	-0.168681	-0.019254	0.012581	-0.107314	-0.157031	-0.0981705	0.060545	-0.281889	-0.251488	-0.34836	-0.368912	
2.79541	0	0	-0.137705	-0.214862	-0.056098	-0.785433	-0.183113	-0.433074	0.0466872	-0.528524	-0.368552	0.224	-0.0560517	-0.248691	-0.0235708	-0.404293	-0.103384	-0.361714	-0.059004	-0.411117	0.0314997	-0.414148	-0.0810647	-0.168519	-0.019254	0.012581	-0.109906	-0.159511	-0.101428	0.0626735	-0.278865	-0.260032	-0.354997	-0.364575	
2.79388	0	0	-0.137705	-0.214862	-0.056098	-0.785433	-0.187205	-0.432917	0.045781	-0.525962	-0.368552	0.224	-0.063148	-0.241015	-0.024891	-0.411184	-0.102221	-0.365	-0.062359	-0.411073	0.032677	-0.417475	-0.083863	-0.168357	-0.019254	0.012581	-0.112498	-0.161991	-0.104686	0.064802	-0.275842	-0.268577	-0.361635	-0.360238	
2.78931	0	0	-0.136056	-0.219522	-0.05179	-0.797608	-0.183732	-0.442732	0.0402288	-0.52824	-0.375024	0.228229	-0.0660458	-0.245198	-0.0262122	-0.418065	-0.108094	-0.368737	-0.0637357	-0.416615	0.0234185	-0.413982	-0.0930162	-0.165707	-0.0299592	0.012987	-0.114129	-0.167181	-0.107942	0.0669297	-0.279161	-0.270784	-0.368267	-0.355904	
2.79236	0	0	-0.134407	-0.224181	-0.047482	-0.809783	-0.180259	-0.452548	0.0346765	-0.530518	-0.381496	0.232458	-0.0689435	-0.24938	-0.0275335	-0.424947	-0.113966	-0.372473	-0.0651125	-0.422158	0.01416	-0.410489	-0.102169	-0.163058	-0.0406645	0.013393	-0.115761	-0.17237	-0.111199	0.0690575	-0.282479	-0.272992	-0.3749	-0.351571	
2.79083	0	0	-0.132758	-0.228841	-0.043174	-0.821959	-0.176786	-0.462364	0.0291243	-0.532796	-0.387968	0.236687	-0.0718412	-0.253563	-0.0288548	-0.431829	-0.119839	-0.376209	-0.0664892	-0.4277	0.0049015	-0.406996	-0.111323	-0.160408	-0.0513697	0.013799	-0.117392	-0.17756	-0.114455	0.0711853	-0.285798	-0.2752	-0.381532	-0.347237	
2.79388	0	0	-0.131109	-0.233501	-0.038866	-0.834134	-0.173313	-0.472179	0.023572	-0.535074	-0.39444	0.240916	-0.074739	-0.257745	-0.030176	-0.43871	-0.125712	-0.379946	-0.067866	-0.433242	-0.004357	-0.403503	-0.120476	-0.157758	-0.062075	0.014205	-0.119023	-0.18275	-0.117711	0.073313	-0.289117	-0.277407	-0.388165	-0.342903	
2.79388	0	0	-0.133986	-0.242358	-0.043632	-0.834137	-0.172156	-0.475448	0.0277062	-0.537776	-0.397674	0.24303	-0.0733417	-0.261694	-0.032685	-0.442229	-0.126906	-0.386732	-0.064904	-0.441613	-0.00721775	-0.406744	-0.121737	-0.161928	-0.0674205	0.0144058	-0.119697	-0.190642	-0.12422	0.0775663	-0.287104	-0.283095	-0.399973	-0.338319	
2.79541	0	0	-0.136862	-0.251214	-0.048398	-0.83414	-0.170999	-0.478718	0.0318405	-0.540477	-0.400909	0.245143	-0.0719445	-0.265643	-0.035194	-0.445747	-0.128099	-0.393518	-0.061942	-0.449984	-0.0100785	-0.409985	-0.122997	-0.166099	-0.072766	0.0146065	-0.12037	-0.198535	-0.130729	0.0818195	-0.285091	-0.288783	-0.411782	-0.333735	
2.79236	0	0	-0.139739	-0.260071	-0.053164	-0.834144	-0.169842	-0.481988	0.0359747	-0.543179	-0.404143	0.247256	-0.0705473	-0.269592	-0.037703	-0.449266	-0.129292	-0.400304	-0.05898	-0.458355	-0.0129393	-0.413226	-0.124258	-0.170269	-0.0781115	0.0148073	-0.121043	-0.206427	-0.137238	0.0860728	-0.283079	-0.294472	-0.42359	-0.32915	
2.79083	0	0	-0.142616	-0.268927	-0.05793	-0.834147	-0.168685	-0.485257	0.040109	-0.54588	-0.407377	0.24937	-0.06915	-0.273541	-0.040212	-0.452785	-0.130486	-0.40709	-0.056018	-0.466726	-0.0158	-0.416467	-0.125519	-0.174439	-0.083457	0.015008	-0.121717	-0.214319	-0.143747	0.090326	-0.281066	-0.30016	-0.435398	-0.324566	
2.78931	0	0	-0.150427	-0.263823	-0.0608	-0.826035	-0.172776	-0.485096	0.0332565	-0.535496	-0.41061	0.251482	-0.066251	-0.269362	-0.0427203	-0.456301	-0.129326	-0.410368	-0.0613443	-0.461101	-0.0158	-0.416467	-0.129843	-0.16995	-0.0903123	0.0194873	-0.121717	-0.214319	-0.144501	0.0924555	-0.285389	-0.29952	-0.428776	-0.328893	
2.79083	0	0	-0.158238	-0.258719	-0.06367	-0.817924	-0.176868	-0.484935	0.026404	-0.525113	-0.413844	0.253595	-0.063352	-0.265183	-0.0452285	-0.459816	-0.128166	-0.413645	-0.0666705	-0.455476	-0.0158	-0.416467	-0.134166	-0.16546	-0.0971675	0.0239665	-0.121717	-0.214319	-0.145255	0.094585	-0.289713	-0.29888	-0.422154	-0.333221	
2.78931	0	0	-0.166049	-0.253616	-0.06654	-0.809813	-0.180959	-0.484775	0.0195515	-0.514729	-0.417077	0.255707	-0.060453	-0.261004	-0.0477367	-0.463332	-0.127006	-0.416923	-0.0719967	-0.449851	-0.0158	-0.416467	-0.13849	-0.160971	-0.104023	0.0284458	-0.121717	-0.214319	-0.146008	0.0967145	-0.294037	-0.298241	-0.415532	-0.337548	
2.79083	0	0	-0.17386	-0.248512	-0.06941	-0.801701	-0.185051	-0.484614	0.012699	-0.504345	-0.42031	0.25782	-0.057554	-0.256825	-0.050245	-0.466848	-0.125846	-0.420201	-0.077323	-0.444226	-0.0158	-0.416467	-0.142814	-0.156481	-0.110878	0.032925	-0.121717	-0.214319	-0.146762	0.098844	-0.29836	-0.297601	-0.40891	-0.341875	
2.79083	0	0	-0.155347	-0.249872	-0.0646453	-0.801694	-0.183895	-0.487881	0.0173415	-0.499496	-0.426014	0.259899	-0.0632483	-0.253104	-0.0478743	-0.473548	-0.13403	-0.417373	-0.0753493	-0.449804	-0.0210095	-0.413063	-0.142048	-0.158646	-0.112393	0.0372073	-0.12814	-0.205958	-0.150014	0.10097	-0.294037	-0.298241	-0.421301	-0.321244	
2.78931	0	0	-0.136834	-0.251232	-0.0598805	-0.801687	-0.182739	-0.491148	0.021984	-0.494647	-0.431717	0.261977	-0.0689425	-0.249384	-0.0455035	-0.480247	-0.142214	-0.414544	-0.0733755	-0.455383	-0.026219	-0.409659	-0.141282	-0.160811	-0.113908	0.0414895	-0.134563	-0.197596	-0.153267	0.103095	-0.289713	-0.29888	-0.433692	-0.300613	
2.78778	0	0	-0.118322	-0.252593	-0.0551157	-0.801681	-0.181583	-0.494415	0.0266265	-0.489798	-0.437421	0.264056	-0.0746368	-0.245663	-0.0431327	-0.486947	-0.150398	-0.411716	-0.0714017	-0.460961	-0.0314285	-0.406255	-0.140517	-0.162975	-0.115424	0.0457717	-0.140985	-0.189234	-0.15652	0.10522	-0.285389	-0.29952	-0.446083	-0.279981	
2.78931	0	0	-0.099809	-0.253953	-0.050351	-0.801674	-0.180427	-0.497682	0.031269	-0.484949	-0.443125	0.266135	-0.080331	-0.241942	-0.040762	-0.493647	-0.158582	-0.408888	-0.069428	-0.466539	-0.036638	-0.402851	-0.139751	-0.16514	-0.116939	0.050054	-0.147408	-0.180873	-0.159772	0.107346	-0.281066	-0.30016	-0.458474	-0.25935	
2.78931	0	0	-0.094043	-0.236198	-0.0451262	-0.789466	-0.178648	-0.491306	0.0387457	-0.470088	-0.443125	0.266135	-0.0817295	-0.237989	-0.034697	-0.500184	-0.155071	-0.408663	-0.069428	-0.466539	-0.0406692	-0.402771	-0.146862	-0.160494	-0.123789	0.0545298	-0.14645	-0.183582	-0.163023	0.10947	-0.281066	-0.30016	-0.458474	-0.25935	
2.78778	0	0	-0.088277	-0.218442	-0.0399015	-0.777259	-0.17687	-0.484931	0.0462225	-0.455228	-0.443125	0.266135	-0.083128	-0.234037	-0.028632	-0.506721	-0.15156	-0.408438	-0.069428	-0.466539	-0.0447005	-0.402691	-0.153973	-0.155847	-0.130638	0.0590055	-0.145491	-0.186291	-0.166275	0.111595	-0.281066	-0.30016	-0.458474	-0.25935	
2.78778	0	0	-0.082511	-0.200687	-0.0346767	-0.765051	-0.175092	-0.478555	0.0536993	-0.440367	-0.443125	0.266135	-0.0845265	-0.230084	-0.022567	-0.513257	-0.148049	-0.408213	-0.069428	-0.466539	-0.0487317	-0.40261	-0.161084	-0.1512	-0.137488	0.0634813	-0.144533	-0.189	-0.169526	0.11372	-0.281066	-0.30016	-0.458474	-0.25935	
2.78625	0	0	-0.076745	-0.182932	-0.029452	-0.752843	-0.173313	-0.472179	0.061176	-0.425506	-0.443125	0.266135	-0.085925	-0.226132	-0.016502	-0.519794	-0.144538	-0.407988	-0.069428	-0.466539	-0.052763	-0.40253	-0.168195	-0.146554	-0.144338	0.067957	-0.143574	-0.191709	-0.172778	0.115844	-0.281066	-0.30016	-0.458474	-0.25935	
2.78625	0	0	-0.0709817	-0.165108	-0.0194455	-0.740588	-0.173852	-0.459245	0.0645065	-0.407879	-0.439894	0.264024	-0.0801333	-0.217749	-0.0188717	-0.513097	-0.144507	-0.397923	-0.0670625	-0.463796	-0.0551142	-0.395885	-0.16185	-0.149036	-0.14737	0.0765278	-0.140026	-0.191944	-0.169526	0.11372	-0.282072	-0.297316	-0.462808	-0.247102	
2.78625	0	0	-0.0652185	-0.147283	-0.009439	-0.728333	-0.174392	-0.44631	0.067837	-0.390252	-0.436664	0.261913	-0.0743415	-0.209365	-0.0212415	-0.5064	-0.144476	-0.387857	-0.064697	-0.461054	-0.0574655	-0.38924	-0.155504	-0.151517	-0.150403	0.0850985	-0.136479	-0.19218	-0.166275	0.111595	-0.283079	-0.294473	-0.467141	-0.234855	
2.78625	0	0	-0.0594552	-0.129459	0.0005675	-0.716079	-0.174931	-0.433376	0.0711675	-0.372625	-0.433434	0.259802	-0.0685497	-0.200981	-0.0236113	-0.499703	-0.144445	-0.377792	-0.0623315	-0.458311	-0.0598168	-0.382596	-0.149159	-0.153999	-0.153436	0.0936692	-0.132932	-0.192415	-0.163023	0.10947	-0.284085	-0.291629	-0.471475	-0.222607	
2.78931	0	0	-0.053692	-0.111634	0.010574	-0.703824	-0.175471	-0.420442	0.074498	-0.354998	-0.430203	0.257691	-0.062758	-0.192598	-0.025981	-0.493006	-0.144414	-0.367726	-0.059966	-0.455568	-0.062168	-0.375951	-0.142814	-0.156481	-0.156468	0.10224	-0.129384	-0.19265	-0.159772	0.107346	-0.285091	-0.288785	-0.475809	-0.210359	
2.78778	0	0	-0.0446047	-0.10314	0.003348	-0.683402	-0.17895	-0.410608	0.0722545	-0.339636	-0.430203	0.257691	-0.0698575	-0.184914	-0.0236113	-0.499703	-0.145575	-0.364443	-0.0609533	-0.452778	-0.0645208	-0.369301	-0.142814	-0.156481	-0.167867	0.119583	-0.133221	-0.181805	-0.159019	0.105216	-0.281772	-0.286579	-0.477872	-0.19014	
2.78625	0	0	-0.0355175	-0.0946465	-0.003878	-0.66298	-0.18243	-0.400775	0.070011	-0.324273	-0.430203	0.257691	-0.076957	-0.177229	-0.0212415	-0.5064	-0.146737	-0.36116	-0.0619405	-0.449987	-0.0668735	-0.362652	-0.142814	-0.156481	-0.179265	0.136927	-0.137058	-0.17096	-0.158265	0.103086	-0.278452	-0.284374	-0.479935	-0.169922	
2.78625	0	0	-0.0264303	-0.0861528	-0.011104	-0.642558	-0.18591	-0.390941	0.0677675	-0.308911	-0.430203	0.257691	-0.0840565	-0.169544	-0.0188717	-0.513097	-0.147898	-0.357878	-0.0629278	-0.447197	-0.0692263	-0.356002	-0.142814	-0.156481	-0.190664	0.15427	-0.140896	-0.160116	-0.157511	0.100957	-0.275133	-0.282169	-0.481998	-0.149703	
2.78778	0	0	-0.017343	-0.077659	-0.01833	-0.622136	-0.189389	-0.381108	0.065524	-0.293549	-0.430203	0.257691	-0.091156	-0.16186	-0.016502	-0.519794	-0.14906	-0.354595	-0.063915	-0.444407	-0.071579	-0.349352	-0.142814	-0.156481	-0.202063	0.171614	-0.144733	-0.149271	-0.156758	0.098827	-0.271813	-0.279963	-0.484061	-0.129484	
2.79083	0	0	-0.0144583	-0.0687003	-0.0131127	-0.609809	-0.179424	-0.375001	0.067426	-0.280867	-0.423738	0.253467	-0.0953647	-0.149966	-0.0128035	-0.519637	-0.147872	-0.347795	-0.0658905	-0.438823	-0.0751118	-0.339368	-0.140022	-0.156641	-0.203582	0.175908	-0.140225	-0.152217	-0.156758	0.098827	-0.27282	-0.277116	-0.481785	-0.121516	
2.78931	0	0	-0.0115735	-0.0597415	-0.0078955	-0.597481	-0.169459	-0.368893	0.069328	-0.268185	-0.417273	0.249243	-0.0995735	-0.138072	-0.009105	-0.51948	-0.146683	-0.340994	-0.067866	-0.43324	-0.0786445	-0.329384	-0.137231	-0.1568	-0.205102	0.180203	-0.135717	-0.155162	-0.156758	0.098827	-0.273828	-0.27427	-0.47951	-0.113548	
2.78778	0	0	-0.00868875	-0.0507828	-0.00267825	-0.585154	-0.159494	-0.362786	0.07123	-0.255503	-0.410808	0.245018	-0.103782	-0.126178	-0.0054065	-0.519323	-0.145495	-0.334194	-0.0698415	-0.427656	-0.0821772	-0.3194	-0.134439	-0.15696	-0.206621	0.184497	-0.131208	-0.158108	-0.156758	0.098827	-0.274835	-0.271424	-0.477234	-0.105581	
2.78625	0	0	-0.005804	-0.041824	0.002539	-0.572827	-0.149529	-0.356679	0.073132	-0.242821	-0.404343	0.240794	-0.107991	-0.114284	-0.001708	-0.519166	-0.144307	-0.327394	-0.071817	-0.422073	-0.08571	-0.309416	-0.131648	-0.157119	-0.208141	0.188792	-0.1267	-0.161054	-0.156758	0.098827	-0.275842	-0.268577	-0.474958	-0.097613	
2.78625	0	0	-0.0091355	-0.0324085	0.0029695	-0.560493	-0.151249	-0.340383	0.0731917	-0.224915	-0.395395	0.236596	-0.102212	-0.105849	0.0008075	-0.515659	-0.144284	-0.317293	-0.0694525	-0.419323	-0.0880672	-0.302754	-0.133181	-0.152787	-0.212704	0.201688	-0.129581	-0.152912	-0.153505	0.0967018	-0.28319	-0.259397	-0.480769	-0.081189	
2.78473	0	0	-0.012467	-0.022993	0.0034	-0.548159	-0.152968	-0.324086	0.0732515	-0.20701	-0.386447	0.232397	-0.0964325	-0.097414	0.003323	-0.512152	-0.144262	-0.307192	-0.067088	-0.416573	-0.0904245	-0.296092	-0.134713	-0.148454	-0.217268	0.214585	-0.132462	-0.144769	-0.150253	0.0945765	-0.290538	-0.250217	-0.486581	-0.064765	
2.78625	0	0	-0.0157985	-0.0135775	0.0038305	-0.535826	-0.154687	-0.307789	0.0733113	-0.189105	-0.3775	0.228198	-0.0906533	-0.088979	0.0058385	-0.508645	-0.14424	-0.297092	-0.0647235	-0.413823	-0.0927817	-0.28943	-0.136246	-0.144122	-0.221831	0.227481	-0.135343	-0.136627	-0.147	0.0924512	-0.297886	-0.241037	-0.492393	-0.048341	
2.78015	0	0	-0.01913	-0.004162	0.004261	-0.523492	-0.156407	-0.291493	0.073371	-0.171199	-0.368552	0.224	-0.084874	-0.080544	0.008354	-0.505138	-0.144217	-0.286991	-0.062359	-0.411073	-0.095139	-0.282768	-0.137779	-0.13979	-0.226394	0.240377	-0.138224	-0.128485	-0.143747	0.090326	-0.305234	-0.231857	-0.498204	-0.031917	
2.7832	0	0	-0.0207972	0.0005495	0.00614075	-0.515243	-0.153471	-0.288346	0.0664528	-0.160687	-0.364555	0.21974	-0.0905755	-0.0768183	0.0095395	-0.508488	-0.145382	-0.283699	-0.064337	-0.405483	-0.0974983	-0.276101	-0.137779	-0.13979	-0.236279	0.253453	-0.140146	-0.123053	-0.143747	0.090326	-0.289226	-0.242317	-0.500309	-0.0115577	
2.78168	0	0	-0.0224645	0.005261	0.0080205	-0.506995	-0.150535	-0.285199	0.0595345	-0.150174	-0.360559	0.215481	-0.096277	-0.0730925	0.010725	-0.511838	-0.146547	-0.280407	-0.066315	-0.399892	-0.0998575	-0.269434	-0.137779	-0.13979	-0.246163	0.266529	-0.142068	-0.117621	-0.143747	0.090326	-0.273218	-0.252777	-0.502414	0.0088015	
2.78168	0	0	-0.0241318	0.0099725	0.00990025	-0.498746	-0.147599	-0.282053	0.0526163	-0.139662	-0.356562	0.211221	-0.101978	-0.0693668	0.0119105	-0.515189	-0.147712	-0.277114	-0.068293	-0.394302	-0.102217	-0.262767	-0.137779	-0.13979	-0.256047	0.279606	-0.143991	-0.112189	-0.143747	0.090326	-0.257209	-0.263238	-0.504519	0.0291608	
2.78473	0	0	-0.025799	0.014684	0.01178	-0.490498	-0.144663	-0.278906	0.045698	-0.12915	-0.352565	0.206961	-0.10768	-0.065641	0.013096	-0.518539	-0.148877	-0.273822	-0.070271	-0.388712	-0.104576	-0.2561	-0.137779	-0.13979	-0.265932	0.292682	-0.145913	-0.106757	-0.143747	0.090326	-0.241201	-0.273698	-0.506624	0.04952	
2.78168	0	0	-0.0291357	0.0241143	0.0074125	-0.478154	-0.141726	-0.275756	0.0396997	-0.121233	-0.353324	0.209105	-0.10768	-0.065641	0.0119105	-0.515189	-0.153555	-0.270765	-0.070271	-0.388712	-0.11096	-0.249364	-0.141337	-0.137465	-0.279593	0.301609	-0.148499	-0.109243	-0.143747	0.090326	-0.249566	-0.261659	-0.504364	0.0575548	
2.7832	0	0	-0.0324725	0.0335445	0.003045	-0.465811	-0.138788	-0.272607	0.0337015	-0.113316	-0.354083	0.211249	-0.10768	-0.065641	0.010725	-0.511838	-0.158233	-0.267709	-0.070271	-0.388712	-0.117343	-0.242629	-0.144895	-0.135141	-0.293254	0.310535	-0.151085	-0.11173	-0.143747	0.090326	-0.257931	-0.24962	-0.502104	0.0655895	
2.77862	0	0	-0.0358093	0.0429748	-0.0013225	-0.453468	-0.135851	-0.269458	0.0277032	-0.105399	-0.354841	0.213393	-0.10768	-0.065641	0.0095395	-0.508488	-0.162911	-0.264652	-0.070271	-0.388712	-0.123727	-0.235894	-0.148452	-0.132817	-0.306916	0.319462	-0.153671	-0.114216	-0.143747	0.090326	-0.266295	-0.237581	-0.499844	0.0736243	
2.78168	0	0	-0.039146	0.052405	-0.00569	-0.441124	-0.132913	-0.266308	0.021705	-0.097482	-0.3556	0.215537	-0.10768	-0.065641	0.008354	-0.505138	-0.167589	-0.261595	-0.070271	-0.388712	-0.13011	-0.229158	-0.15201	-0.130492	-0.320577	0.328389	-0.156257	-0.116702	-0.143747	0.090326	-0.27466	-0.225542	-0.497584	0.081659	
2.77862	0	0	-0.0362753	0.0614185	-0.00194725	-0.424551	-0.133479	-0.25325	0.0184932	-0.0793698	-0.352361	0.213421	-0.107609	-0.0534548	0.00479475	-0.495079	-0.166408	-0.254767	-0.0688965	-0.383158	-0.133653	-0.219144	-0.147194	-0.12864	-0.323626	0.337005	-0.153671	-0.114216	-0.140493	0.0881998	-0.26368	-0.221747	-0.496788	0.0938415	
2.78015	0	0	-0.0334045	0.070432	0.0017955	-0.407977	-0.134045	-0.240191	0.0152815	-0.0612575	-0.349121	0.211304	-0.107538	-0.0412685	0.0012355	-0.48502	-0.165228	-0.24794	-0.067522	-0.377605	-0.137196	-0.20913	-0.142377	-0.126788	-0.326674	0.345621	-0.151085	-0.11173	-0.13724	0.0860735	-0.252701	-0.217951	-0.495992	0.106024	
2.77862	0	0	-0.0305337	0.0794455	0.00553825	-0.391404	-0.134611	-0.227132	0.0120697	-0.0431452	-0.345882	0.209187	-0.107466	-0.0290823	-0.00232375	-0.474961	-0.164048	-0.241112	-0.0661475	-0.372051	-0.14074	-0.199117	-0.137561	-0.124937	-0.329723	0.354237	-0.148499	-0.109243	-0.133986	0.0839473	-0.241722	-0.214156	-0.495195	0.118207	
2.78015	0	0	-0.027663	0.088459	0.009281	-0.374831	-0.135177	-0.214074	0.008858	-0.025033	-0.342643	0.207071	-0.107395	-0.016896	-0.005883	-0.464902	-0.162867	-0.234284	-0.064773	-0.366497	-0.144283	-0.189103	-0.132745	-0.123085	-0.332772	0.362853	-0.145913	-0.106757	-0.130732	0.081821	-0.230742	-0.210361	-0.494399	0.130389	
2.78015	0	0	-0.019773	0.0833035	0.00489525	-0.362436	-0.133409	-0.207605	0.00608975	-0.0172095	-0.339403	0.204954	-0.115916	-0.00520375	-0.00707025	-0.461546	-0.169879	-0.224632	-0.0624082	-0.363738	-0.14783	-0.179078	-0.129951	-0.123243	-0.335824	0.371478	-0.143626	-0.0936143	-0.127477	0.079694	-0.226109	-0.200202	-0.48244	0.154435	
2.77862	0	0	-0.011883	0.078148	0.0005095	-0.350042	-0.131641	-0.201135	0.0033215	-0.009386	-0.336162	0.202837	-0.124436	0.0064885	-0.0082575	-0.458191	-0.176891	-0.214979	-0.0600435	-0.360978	-0.151377	-0.169053	-0.127158	-0.123401	-0.338875	0.380102	-0.141339	-0.0804715	-0.124221	0.077567	-0.221475	-0.190043	-0.470481	0.17848	
2.77862	0	0	-0.003993	0.0729925	-0.00387625	-0.337647	-0.129874	-0.194666	0.00055325	-0.0015625	-0.332922	0.200719	-0.132957	0.0181808	-0.00944475	-0.454836	-0.183903	-0.205327	-0.0576788	-0.358218	-0.154924	-0.159028	-0.124365	-0.12356	-0.341927	0.388726	-0.139052	-0.0673287	-0.120966	0.07544	-0.216842	-0.179883	-0.458522	0.202525	
2.7771	0	0	0.003897	0.067837	-0.008262	-0.325252	-0.128106	-0.188197	-0.002215	0.006261	-0.329682	0.198602	-0.141477	0.029873	-0.010632	-0.45148	-0.190915	-0.195675	-0.055314	-0.355459	-0.158471	-0.149003	-0.121571	-0.123718	-0.344979	0.397351	-0.136765	-0.054186	-0.117711	0.073313	-0.212209	-0.169724	-0.446563	0.226571	
2.77862	0	0	0.00222475	0.0725635	-0.0045375	-0.308588	-0.128683	-0.175094	-0.007759	0.0219287	-0.332164	0.198575	-0.148585	0.037582	-0.013008	-0.444765	-0.196758	-0.18932	-0.0572965	-0.349857	-0.160838	-0.142314	-0.120804	-0.125887	-0.346506	0.401666	-0.131286	-0.0598588	-0.111197	0.0690568	-0.20656	-0.162407	-0.440578	0.238646	
2.77862	0	0	0.0005525	0.07729	-0.000813	-0.291923	-0.12926	-0.16199	-0.013303	0.0375965	-0.334645	0.198549	-0.155693	0.045291	-0.015384	-0.438051	-0.202601	-0.182966	-0.059279	-0.344254	-0.163205	-0.135624	-0.120036	-0.128055	-0.348032	0.405981	-0.125807	-0.0655315	-0.104683	0.0648005	-0.200911	-0.155091	-0.434593	0.250721	
2.7771	0	0	-0.00111975	0.0820165	0.0029115	-0.275258	-0.129837	-0.148887	-0.018847	0.0532642	-0.337127	0.198522	-0.162802	0.053	-0.01776	-0.431336	-0.208444	-0.176611	-0.0612615	-0.338651	-0.165572	-0.128935	-0.119269	-0.130223	-0.349559	0.410297	-0.120329	-0.0712042	-0.098169	0.0605443	-0.195262	-0.147774	-0.428608	0.262795	
2.78015	0	0	-0.002792	0.086743	0.006636	-0.258594	-0.130414	-0.135784	-0.024391	0.068932	-0.339609	0.198495	-0.16991	0.060709	-0.020136	-0.424621	-0.214287	-0.170256	-0.063244	-0.333049	-0.167939	-0.122245	-0.118502	-0.132392	-0.351086	0.414612	-0.11485	-0.076877	-0.091655	0.056288	-0.189613	-0.140457	-0.422623	0.27487	
2.7771	0	0	-0.0157045	0.106093	0.00741075	-0.233553	-0.132173	-0.119332	-0.0244023	0.0870467	-0.337127	0.198522	-0.174145	0.0726777	-0.0248932	-0.411177	-0.213117	-0.163405	-0.0652278	-0.327443	-0.16629	-0.115601	-0.114446	-0.128371	-0.354142	0.423249	-0.113223	-0.0716595	-0.085136	0.0520282	-0.181638	-0.128018	-0.418111	0.291154	
2.7771	0	0	-0.028617	0.125443	0.0081855	-0.208512	-0.133933	-0.102879	-0.0244135	0.105161	-0.334645	0.198549	-0.17838	0.0846465	-0.0296505	-0.397732	-0.211946	-0.156553	-0.0672115	-0.321836	-0.164641	-0.108958	-0.110391	-0.124351	-0.357198	0.431886	-0.111596	-0.066442	-0.078617	0.0477685	-0.173663	-0.11558	-0.4136	0.307438	
2.77557	0	0	-0.0415295	0.144792	0.00896025	-0.183471	-0.135692	-0.0864272	-0.0244247	0.123276	-0.332164	0.198575	-0.182615	0.0966152	-0.0344078	-0.384288	-0.210776	-0.149701	-0.0691952	-0.31623	-0.162991	-0.102314	-0.106335	-0.12033	-0.360255	0.440523	-0.109969	-0.0612245	-0.072098	0.0435087	-0.165688	-0.103141	-0.409088	0.323722	
2.7771	0	0	-0.054442	0.164142	0.009735	-0.15843	-0.137452	-0.069975	-0.024436	0.141391	-0.329682	0.198602	-0.18685	0.108584	-0.039165	-0.370843	-0.209606	-0.14285	-0.071179	-0.310624	-0.161342	-0.09567	-0.102279	-0.116309	-0.363311	0.44916	-0.108342	-0.056007	-0.065579	0.039249	-0.157713	-0.090702	-0.404576	0.340006	
2.7771	0	0	-0.046552	0.158987	0.00678875	-0.150103	-0.138627	-0.0666532	-0.0304533	0.149354	-0.332922	0.200719	-0.196822	0.112032	-0.039165	-0.370843	-0.217785	-0.140045	-0.0721713	-0.30782	-0.162528	-0.0923195	-0.103047	-0.114139	-0.359542	0.453344	-0.111235	-0.0478303	-0.0623177	0.037118	-0.159465	-0.074076	-0.39485	0.356156	
2.77405	0	0	-0.038662	0.153831	0.0038425	-0.141776	-0.139803	-0.0633315	-0.0364705	0.157316	-0.336162	0.202837	-0.206794	0.115479	-0.039165	-0.370843	-0.225965	-0.13724	-0.0731635	-0.305015	-0.163713	-0.088969	-0.103815	-0.111968	-0.355773	0.457527	-0.114128	-0.0396535	-0.0590565	0.034987	-0.161217	-0.05745	-0.385124	0.372307	
2.77862	0	0	-0.030772	0.148676	0.00089625	-0.13345	-0.140979	-0.0600098	-0.0424877	0.165278	-0.339403	0.204954	-0.216766	0.118926	-0.039165	-0.370843	-0.234145	-0.134435	-0.0741558	-0.302211	-0.164899	-0.0856185	-0.104583	-0.109797	-0.352004	0.461711	-0.117022	-0.0314767	-0.0557952	0.032856	-0.162969	-0.040824	-0.375399	0.388458	
2.7771	0	0	-0.022882	0.14352	-0.00205	-0.125123	-0.142154	-0.056688	-0.048505	0.173241	-0.342643	0.207071	-0.226738	0.122374	-0.039165	-0.370843	-0.242324	-0.13163	-0.075148	-0.299407	-0.166084	-0.082268	-0.105351	-0.107627	-0.348235	0.465895	-0.119915	-0.0233	-0.052534	0.030725	-0.164721	-0.024198	-0.365673	0.404608	
2.77557	0	0	-0.024558	0.148257	0.00460025	-0.116647	-0.139219	-0.053495	-0.048056	0.181015	-0.345123	0.207043	-0.231013	0.1221	-0.0403555	-0.367479	-0.245826	-0.131881	-0.075148	-0.299407	-0.171287	-0.078868	-0.104583	-0.109797	-0.355063	0.470357	-0.11895	-0.0260263	-0.0460075	0.0264605	-0.165465	-0.010415	-0.364902	0.416998	
2.77252	0	0	-0.026234	0.152993	0.0112505	-0.108171	-0.136285	-0.050302	-0.047607	0.188789	-0.347604	0.207016	-0.235288	0.121826	-0.041546	-0.364115	-0.249328	-0.132131	-0.075148	-0.299407	-0.17649	-0.075468	-0.103815	-0.111968	-0.361891	0.474818	-0.117985	-0.0287525	-0.039481	0.022196	-0.166209	0.003368	-0.364132	0.429388	
2.77557	0	0	-0.02791	0.157729	0.0179007	-0.099695	-0.13335	-0.047109	-0.047158	0.196564	-0.350085	0.206989	-0.239563	0.121552	-0.0427365	-0.36075	-0.25283	-0.132381	-0.075148	-0.299407	-0.181694	-0.072068	-0.103047	-0.114139	-0.368719	0.479279	-0.117021	-0.0314787	-0.0329545	0.0179315	-0.166952	0.017151	-0.363361	0.441777	
2.77557	0	0	-0.029586	0.162466	0.024551	-0.091219	-0.130415	-0.043916	-0.046709	0.204338	-0.352565	0.206961	-0.243838	0.121278	-0.043927	-0.357386	-0.256332	-0.132632	-0.075148	-0.299407	-0.186897	-0.068668	-0.102279	-0.116309	-0.375547	0.483741	-0.116056	-0.034205	-0.026428	0.013667	-0.167696	0.030934	-0.36259	0.454167	
2.77557	0	0	-0.0329405	0.171947	0.0171593	-0.0703287	-0.133946	-0.033936	-0.0481225	0.217382	-0.352565	0.206961	-0.246662	0.129259	-0.0500037	-0.350828	-0.261	-0.129582	-0.079494	-0.296567	-0.188083	-0.0653163	-0.103815	-0.111967	-0.368719	0.479279	-0.114128	-0.0396555	-0.023163	0.0115335	-0.166403	0.0389682	-0.358851	0.45818	
2.77405	0	0	-0.036295	0.181427	0.0097675	-0.0494385	-0.137478	-0.023956	-0.049536	0.230425	-0.352565	0.206961	-0.249485	0.13724	-0.0560805	-0.34427	-0.265668	-0.126532	-0.08384	-0.293728	-0.189269	-0.0619645	-0.105352	-0.107626	-0.361891	0.474818	-0.112199	-0.045106	-0.019898	0.0094	-0.16511	0.0470025	-0.355112	0.462193	
2.77557	0	0	-0.0396495	0.190908	0.00237575	-0.0285482	-0.14101	-0.013976	-0.0509495	0.243469	-0.352565	0.206961	-0.252309	0.145221	-0.0621573	-0.337711	-0.270335	-0.123482	-0.088186	-0.290888	-0.190455	-0.0586127	-0.106888	-0.103285	-0.355063	0.470357	-0.11027	-0.0505565	-0.016633	0.0072665	-0.163817	0.0550367	-0.351373	0.466205	
2.77557	0	0	-0.043004	0.200388	-0.005016	-0.007658	-0.144541	-0.003996	-0.052363	0.256512	-0.352565	0.206961	-0.255133	0.153202	-0.068234	-0.331153	-0.275003	-0.120432	-0.092532	-0.288048	-0.191641	-0.055261	-0.108424	-0.098943	-0.348235	0.465895	-0.108342	-0.056007	-0.013368	0.005133	-0.162524	0.063071	-0.347634	0.470218	
2.77405	0	0	-0.043004	0.200388	-0.00981425	-0.007738	-0.14865	-0.0038695	-0.0597595	0.259324	-0.362275	0.213306	-0.26226	0.148657	-0.070736	-0.334692	-0.280828	-0.124236	-0.0958835	-0.288014	-0.19447	-0.0585652	-0.110452	-0.100956	-0.355063	0.470357	-0.11286	-0.053055	-0.013368	0.005133	-0.155846	0.0675985	-0.346869	0.482648	
2.77557	0	0	-0.043004	0.200388	-0.0146125	-0.007818	-0.152759	-0.003743	-0.067156	0.262135	-0.371985	0.219651	-0.269387	0.144113	-0.073238	-0.338231	-0.286654	-0.12804	-0.099235	-0.28798	-0.197298	-0.0618695	-0.112479	-0.102969	-0.361891	0.474818	-0.117377	-0.050103	-0.013368	0.005133	-0.149169	0.072126	-0.346105	0.495079	
2.77557	0	0	-0.043004	0.200388	-0.0194108	-0.007898	-0.156868	-0.0036165	-0.0745525	0.264946	-0.381696	0.225996	-0.276514	0.139568	-0.07574	-0.34177	-0.292479	-0.131843	-0.102586	-0.287946	-0.200127	-0.0651738	-0.114506	-0.104982	-0.368719	0.479279	-0.121895	-0.047151	-0.013368	0.005133	-0.142491	0.0766535	-0.34534	0.507509	
2.77405	0	0	-0.043004	0.200388	-0.024209	-0.007978	-0.160977	-0.00349	-0.081949	0.267758	-0.391406	0.232341	-0.283641	0.135023	-0.078242	-0.345309	-0.298304	-0.135647	-0.105938	-0.287912	-0.202956	-0.068478	-0.116534	-0.106995	-0.375547	0.483741	-0.126413	-0.044199	-0.013368	0.005133	-0.135814	0.081181	-0.344576	0.519939	
2.77099	0	0	-0.0492163	0.200802	-0.024209	-0.007978	-0.160977	-0.00349	-0.0828795	0.270387	-0.39464	0.234454	-0.286496	0.130761	-0.0819323	-0.345483	-0.305289	-0.136152	-0.107304	-0.293483	-0.199402	-0.0785218	-0.118561	-0.109007	-0.374017	0.479417	-0.127075	-0.0521395	-0.016633	0.0072665	-0.138886	0.0898643	-0.336366	0.51134	
2.77252	0	0	-0.0554285	0.201216	-0.024209	-0.007978	-0.160977	-0.00349	-0.08381	0.273016	-0.397875	0.236567	-0.289351	0.126499	-0.0856225	-0.345657	-0.312274	-0.136657	-0.108671	-0.299054	-0.195848	-0.0885655	-0.120588	-0.111019	-0.372487	0.475094	-0.127737	-0.06008	-0.019898	0.0094	-0.141959	0.0985475	-0.328156	0.502741	
2.77252	0	0	-0.0616407	0.20163	-0.024209	-0.007978	-0.160977	-0.00349	-0.0847405	0.275646	-0.401109	0.238681	-0.292206	0.122238	-0.0893127	-0.345832	-0.319259	-0.137161	-0.110038	-0.304625	-0.192294	-0.0986092	-0.122614	-0.11303	-0.370957	0.47077	-0.128398	-0.0680205	-0.023163	0.0115335	-0.145032	0.107231	-0.319947	0.494142	
2.77252	0	0	-0.067853	0.202044	-0.024209	-0.007978	-0.160977	-0.00349	-0.085671	0.278275	-0.404343	0.240794	-0.295061	0.117976	-0.093003	-0.346006	-0.326244	-0.137666	-0.111404	-0.310196	-0.18874	-0.108653	-0.124641	-0.115042	-0.369427	0.466446	-0.12906	-0.075961	-0.026428	0.013667	-0.148104	0.115914	-0.311737	0.485543	
2.76794	0	0	-0.0769092	0.1934	-0.0304823	-0.00387875	-0.163332	0.00316725	-0.090762	0.283624	-0.407576	0.242906	-0.292206	0.122238	-0.101566	-0.342995	-0.325078	-0.140961	-0.111404	-0.310196	-0.192753	-0.108603	-0.121079	-0.11737	-0.370957	0.47077	-0.123582	-0.0816323	-0.023163	0.0115335	-0.144764	0.118185	-0.308762	0.477134	
2.76947	0	0	-0.0859655	0.184756	-0.0367555	0.0002205	-0.165688	0.0098245	-0.095853	0.288972	-0.410809	0.245019	-0.289351	0.126499	-0.110129	-0.339985	-0.323912	-0.144256	-0.111404	-0.310196	-0.196767	-0.108552	-0.117516	-0.119698	-0.372487	0.475094	-0.118104	-0.0873035	-0.019898	0.0094	-0.141425	0.120457	-0.305786	0.468724	
2.76642	0	0	-0.0950218	0.176112	-0.0430287	0.00431975	-0.168044	0.0164817	-0.100944	0.294321	-0.414042	0.247132	-0.286496	0.130761	-0.118692	-0.336974	-0.322747	-0.14755	-0.111404	-0.310196	-0.20078	-0.108502	-0.113954	-0.122025	-0.374017	0.479417	-0.112626	-0.0929747	-0.016633	0.0072665	-0.138085	0.122729	-0.30281	0.460315	
2.77252	0	0	-0.104078	0.167468	-0.049302	0.008419	-0.170399	0.023139	-0.106035	0.29967	-0.417275	0.249244	-0.283641	0.135023	-0.127255	-0.333963	-0.321581	-0.150845	-0.111404	-0.310196	-0.204793	-0.108452	-0.110392	-0.124353	-0.375547	0.483741	-0.107148	-0.098646	-0.013368	0.005133	-0.134745	0.125	-0.299835	0.451906	
2.77252	0	0	-0.109781	0.14941	-0.0573997	0.004074	-0.173327	0.0199343	-0.104174	0.294411	-0.417275	0.249244	-0.285087	0.126779	-0.124877	-0.340683	-0.328558	-0.151349	-0.113762	-0.312962	-0.207621	-0.111745	-0.116748	-0.121868	-0.372488	0.475096	-0.109739	-0.101134	-0.013368	0.005133	-0.137822	0.133697	-0.305069	0.452096	
2.76337	0	0	-0.115484	0.131352	-0.0654975	-0.000271	-0.176255	0.0167295	-0.102313	0.289151	-0.417275	0.249244	-0.286533	0.118535	-0.1225	-0.347403	-0.335535	-0.151854	-0.116119	-0.315727	-0.210448	-0.115039	-0.123103	-0.119382	-0.369429	0.46645	-0.11233	-0.103623	-0.013368	0.005133	-0.1409	0.142394	-0.310303	0.452286	
2.76947	0	0	-0.121187	0.113293	-0.0735953	-0.004616	-0.179183	0.0135247	-0.100452	0.283891	-0.417275	0.249244	-0.287979	0.11029	-0.120122	-0.354122	-0.342513	-0.152358	-0.118476	-0.318493	-0.213276	-0.118332	-0.129459	-0.116897	-0.36637	0.457805	-0.114921	-0.106111	-0.013368	0.005133	-0.143977	0.151092	-0.315537	0.452476	
2.77252	0	0	-0.12689	0.095235	-0.081693	-0.008961	-0.182111	0.01032	-0.098591	0.278632	-0.417275	0.249244	-0.289425	0.102046	-0.117744	-0.360842	-0.34949	-0.152862	-0.120834	-0.321258	-0.216104	-0.121625	-0.135814	-0.114411	-0.363311	0.44916	-0.117512	-0.108599	-0.013368	0.005133	-0.147054	0.159789	-0.320771	0.452666	
2.76642	0	0	-0.129743	0.0862325	-0.0835238	-0.0173875	-0.182111	0.01032	-0.101819	0.27872	-0.420507	0.251356	-0.29228	0.0977925	-0.116556	-0.3642	-0.351811	-0.156405	-0.114514	-0.329691	-0.208546	-0.131701	-0.133513	-0.120915	-0.361783	0.44484	-0.113667	-0.119467	-0.016633	0.0072665	-0.130864	0.14921	-0.321547	0.440267	
2.76642	0	0	-0.132595	0.07723	-0.0853545	-0.025814	-0.182111	0.01032	-0.105048	0.278809	-0.423739	0.253468	-0.295135	0.093539	-0.115368	-0.367558	-0.354133	-0.159947	-0.108194	-0.338124	-0.200987	-0.141776	-0.131211	-0.127418	-0.360254	0.440521	-0.109821	-0.130335	-0.019898	0.0094	-0.114674	0.138631	-0.322323	0.427868	
2.76794	0	0	-0.135447	0.0682275	-0.0871852	-0.0342405	-0.182111	0.01032	-0.108276	0.278898	-0.426971	0.255579	-0.29799	0.0892855	-0.11418	-0.370916	-0.356455	-0.16349	-0.101874	-0.346556	-0.193429	-0.151852	-0.12891	-0.133922	-0.358725	0.436202	-0.105976	-0.141202	-0.023163	0.0115335	-0.0984847	0.128053	-0.323099	0.41547	
2.76489	0	0	-0.1383	0.059225	-0.089016	-0.042667	-0.182111	0.01032	-0.111504	0.278986	-0.430203	0.257691	-0.300845	0.085032	-0.112992	-0.374274	-0.358776	-0.167032	-0.095554	-0.354989	-0.185871	-0.161928	-0.126609	-0.140426	-0.357197	0.431882	-0.10213	-0.15207	-0.026428	0.013667	-0.082295	0.117474	-0.323875	0.403071	
2.76337	0	0	-0.150656	0.060064	-0.092322	-0.0469145	-0.182111	0.01032	-0.110574	0.276358	-0.430203	0.257691	-0.300845	0.085032	-0.117864	-0.37109	-0.357612	-0.170321	-0.095554	-0.354989	-0.18469	-0.165267	-0.126609	-0.140426	-0.348841	0.423103	-0.104722	-0.15455	-0.0296917	0.0157998	-0.087695	0.121002	-0.329881	0.390898	
2.76489	0	0	-0.163013	0.060903	-0.095628	-0.051162	-0.182111	0.01032	-0.109644	0.27373	-0.430203	0.257691	-0.300845	0.085032	-0.122736	-0.367907	-0.356449	-0.17361	-0.095554	-0.354989	-0.183508	-0.168606	-0.126609	-0.140426	-0.340486	0.414324	-0.107314	-0.157031	-0.0329555	0.0179325	-0.093095	0.124531	-0.335888	0.378724	
2.76794	0	0	-0.175369	0.061742	-0.098934	-0.0554095	-0.182111	0.01032	-0.108714	0.271103	-0.430203	0.257691	-0.300845	0.085032	-0.127608	-0.364723	-0.355285	-0.176898	-0.095554	-0.354989	-0.182327	-0.171946	-0.126609	-0.140426	-0.33213	0.405545	-0.109906	-0.159511	-0.0362192	0.0200652	-0.098495	0.128059	-0.341894	0.366551	
2.76337	0	0	-0.187725	0.062581	-0.10224	-0.059657	-0.182111	0.01032	-0.107784	0.268475	-0.430203	0.257691	-0.300845	0.085032	-0.13248	-0.36154	-0.354121	-0.180187	-0.095554	-0.354989	-0.181145	-0.175285	-0.126609	-0.140426	-0.323775	0.396766	-0.112498	-0.161991	-0.039483	0.022198	-0.103895	0.131588	-0.3479	0.354377	
2.76184	0	0	-0.192231	0.0582982	-0.101129	-0.0763755	-0.185037	0.007118	-0.106367	0.25544	-0.436663	0.261912	-0.305147	0.0725685	-0.130105	-0.368252	-0.359925	-0.183974	-0.0935747	-0.360583	-0.185158	-0.175229	-0.131427	-0.142274	-0.320722	0.388138	-0.114129	-0.167181	-0.0427457	0.0243297	-0.103895	0.131588	-0.341985	0.337661	
2.76489	0	0	-0.196737	0.0540155	-0.100019	-0.093094	-0.187964	0.003916	-0.104951	0.242405	-0.443123	0.266134	-0.309449	0.060105	-0.12773	-0.374964	-0.36573	-0.187761	-0.0915955	-0.366177	-0.189171	-0.175173	-0.136244	-0.144123	-0.317669	0.379509	-0.115761	-0.17237	-0.0460085	0.0264615	-0.103895	0.131588	-0.33607	0.320945	
2.76337	0	0	-0.201243	0.0497327	-0.0989085	-0.109813	-0.19089	0.000714	-0.103534	0.229371	-0.449583	0.270355	-0.31375	0.0476415	-0.125355	-0.381677	-0.371534	-0.191548	-0.0896163	-0.37177	-0.193183	-0.175117	-0.141062	-0.145972	-0.314615	0.370881	-0.117392	-0.17756	-0.0492712	0.0285933	-0.103895	0.131588	-0.330156	0.304229	
2.76489	0	0	-0.205749	0.04545	-0.097798	-0.126531	-0.193817	-0.002488	-0.102117	0.216336	-0.456043	0.274576	-0.318052	0.035178	-0.12298	-0.388389	-0.377338	-0.195335	-0.087637	-0.377364	-0.197196	-0.175061	-0.145879	-0.14782	-0.311562	0.362252	-0.119023	-0.18275	-0.052534	0.030725	-0.103895	0.131588	-0.324241	0.287513	
2.76489	0	0	-0.202426	0.0360593	-0.0996357	-0.134908	-0.193817	-0.002488	-0.101635	0.205946	-0.456043	0.274576	-0.313841	0.0232785	-0.116921	-0.394927	-0.371531	-0.201654	-0.085659	-0.382954	-0.197196	-0.175061	-0.144347	-0.15215	-0.310036	0.357941	-0.118738	-0.19335	-0.0590555	0.0349862	-0.101843	0.125789	-0.328784	0.27125	
2.76337	0	0	-0.199103	0.0266685	-0.101473	-0.143286	-0.193817	-0.002488	-0.101152	0.195556	-0.456043	0.274576	-0.309631	0.011379	-0.110862	-0.401465	-0.365724	-0.207974	-0.083681	-0.388545	-0.197196	-0.175061	-0.142815	-0.15648	-0.308511	0.35363	-0.118454	-0.20395	-0.065577	0.0392475	-0.0997915	0.11999	-0.333327	0.254986	
2.76184	0	0	-0.195781	0.0172777	-0.103311	-0.151663	-0.193817	-0.002488	-0.100669	0.185167	-0.456043	0.274576	-0.30542	-0.0005205	-0.104803	-0.408002	-0.359917	-0.214293	-0.081703	-0.394136	-0.197196	-0.175061	-0.141283	-0.16081	-0.306986	0.349318	-0.11817	-0.214549	-0.0720985	0.0435087	-0.0977398	0.114191	-0.33787	0.238723	
2.76031	0	0	-0.192458	0.007887	-0.105149	-0.16004	-0.193817	-0.002488	-0.100187	0.174777	-0.456043	0.274576	-0.30121	-0.01242	-0.098744	-0.41454	-0.35411	-0.220612	-0.079725	-0.399726	-0.197196	-0.175061	-0.139751	-0.16514	-0.30546	0.345007	-0.117885	-0.225149	-0.07862	0.04777	-0.095688	0.108392	-0.342413	0.222459	
2.76031	0	0	-0.195305	-0.0010675	-0.108829	-0.176751	-0.198491	-0.012203	-0.0992365	0.154051	-0.462498	0.278794	-0.302724	-0.0327295	-0.101244	-0.418061	-0.358754	-0.227667	-0.0791245	-0.410851	-0.196488	-0.18834	-0.150905	-0.164504	-0.303151	0.323645	-0.116376	-0.24899	-0.0851365	0.052028	-0.10033	0.0980675	-0.347768	0.194024	
2.76489	0	0	-0.198153	-0.010022	-0.112509	-0.193462	-0.203164	-0.021918	-0.098286	0.133325	-0.468953	0.283011	-0.304238	-0.053039	-0.103744	-0.421582	-0.363398	-0.234721	-0.078524	-0.421976	-0.19578	-0.20162	-0.162059	-0.163869	-0.300841	0.302284	-0.114866	-0.272832	-0.091653	0.056286	-0.104971	0.087743	-0.353123	0.16559	
2.76184	0	0	-0.201	-0.0189765	-0.116189	-0.210174	-0.207838	-0.031633	-0.0973355	0.112599	-0.475408	0.287229	-0.305752	-0.0733485	-0.106243	-0.425103	-0.368042	-0.241776	-0.0779235	-0.433101	-0.195072	-0.214899	-0.173214	-0.163233	-0.298532	0.280922	-0.113356	-0.296673	-0.0981695	0.060544	-0.109613	0.0774185	-0.358477	0.137155	
2.76184	0	0	-0.203848	-0.027931	-0.119869	-0.226885	-0.212512	-0.041348	-0.096385	0.091873	-0.481863	0.291447	-0.307266	-0.093658	-0.108743	-0.428624	-0.372686	-0.248831	-0.077323	-0.444226	-0.194364	-0.228178	-0.184368	-0.162597	-0.296223	0.25956	-0.111847	-0.320514	-0.104686	0.064802	-0.114255	0.067094	-0.363832	0.10872	
2.75879	0	0	-0.203848	-0.027931	-0.120249	-0.239351	-0.208991	-0.0512985	-0.0991405	0.081639	-0.488314	0.295662	-0.307331	-0.105757	-0.106373	-0.435323	-0.375007	-0.252354	-0.0753493	-0.449804	-0.19083	-0.238165	-0.186389	-0.164601	-0.291664	0.246676	-0.115124	-0.330807	-0.107942	0.0669297	-0.116575	0.061941	-0.366926	0.0884763	
2.76337	0	0	-0.203848	-0.027931	-0.12063	-0.251816	-0.205471	-0.061249	-0.101896	0.071405	-0.494764	0.299876	-0.307395	-0.117856	-0.104002	-0.442023	-0.377328	-0.255877	-0.0733755	-0.455383	-0.187296	-0.248153	-0.188409	-0.166605	-0.287106	0.233793	-0.118401	-0.341099	-0.111199	0.0690575	-0.118896	0.056788	-0.370021	0.0682325	
2.76337	0	0	-0.203848	-0.027931	-0.12101	-0.264282	-0.20195	-0.0711995	-0.104652	0.061171	-0.501215	0.304091	-0.30746	-0.129954	-0.101631	-0.448723	-0.379648	-0.259399	-0.0714017	-0.460961	-0.183762	-0.25814	-0.19043	-0.168609	-0.282547	0.220909	-0.121678	-0.351392	-0.114455	0.0711853	-0.121216	0.051635	-0.373115	0.0479888	
2.75879	0	0	-0.203848	-0.027931	-0.12139	-0.276748	-0.198429	-0.08115	-0.107407	0.050937	-0.507665	0.308306	-0.307525	-0.142053	-0.099261	-0.455422	-0.381969	-0.262922	-0.069428	-0.466539	-0.180228	-0.268128	-0.19245	-0.170613	-0.277988	0.208025	-0.124955	-0.361685	-0.117711	0.073313	-0.123537	0.046482	-0.37621	0.027745	
2.75574	0	0	-0.199341	-0.0236683	-0.113697	-0.28495	-0.202527	-0.0810205	-0.105563	0.045725	-0.507665	0.308306	-0.306062	-0.133905	-0.10413	-0.45224	-0.378488	-0.262677	-0.0660755	-0.466586	-0.182584	-0.261471	-0.186113	-0.173092	-0.277988	0.208025	-0.120456	-0.364625	-0.120966	0.07544	-0.12047	0.0378158	-0.370369	0.0112375	
2.75879	0	0	-0.194833	-0.0194055	-0.106003	-0.293152	-0.206624	-0.080891	-0.103719	0.040513	-0.507665	0.308306	-0.3046	-0.125756	-0.108999	-0.449059	-0.375007	-0.262432	-0.062723	-0.466633	-0.184939	-0.254814	-0.179775	-0.175571	-0.277988	0.208025	-0.115957	-0.367564	-0.124221	0.077567	-0.117404	0.0291495	-0.364528	-0.00527	
2.76031	0	0	-0.190326	-0.0151427	-0.0983095	-0.301354	-0.210722	-0.0807615	-0.101875	0.035301	-0.507665	0.308306	-0.303137	-0.117608	-0.113869	-0.445877	-0.371527	-0.262187	-0.0593705	-0.466679	-0.187295	-0.248157	-0.173437	-0.17805	-0.277988	0.208025	-0.111459	-0.370504	-0.127477	0.079694	-0.114337	0.0204833	-0.358687	-0.0217775	
2.76031	0	0	-0.185818	-0.01088	-0.090616	-0.309556	-0.21482	-0.080632	-0.100031	0.030089	-0.507665	0.308306	-0.301674	-0.10946	-0.118738	-0.442696	-0.368046	-0.261942	-0.056018	-0.466726	-0.18965	-0.2415	-0.1671	-0.180529	-0.277988	0.208025	-0.10696	-0.373444	-0.130732	0.081821	-0.111271	0.011817	-0.352846	-0.038285	
2.75726	0	0	-0.179646	-0.011306	-0.0939278	-0.313738	-0.21482	-0.080632	-0.0972667	0.022277	-0.508424	0.31045	-0.303072	-0.10551	-0.118738	-0.442696	-0.375006	-0.252353	-0.0536507	-0.463983	-0.189176	-0.231563	-0.167865	-0.178367	-0.274199	0.21215	-0.108867	-0.368056	-0.127477	0.079694	-0.111271	0.011817	-0.344719	-0.0467645	
2.76031	0	0	-0.173474	-0.011732	-0.0972395	-0.317919	-0.21482	-0.080632	-0.0945025	0.014465	-0.509182	0.312594	-0.30447	-0.101559	-0.118738	-0.442696	-0.381966	-0.242764	-0.0512835	-0.46124	-0.188702	-0.221625	-0.16863	-0.176205	-0.270409	0.216276	-0.110773	-0.362668	-0.124221	0.077567	-0.111271	0.011817	-0.336592	-0.055244	
2.75421	0	0	-0.167301	-0.012158	-0.100551	-0.322101	-0.21482	-0.080632	-0.0917382	0.006653	-0.509941	0.314738	-0.305868	-0.0976085	-0.118738	-0.442696	-0.388927	-0.233176	-0.0489163	-0.458497	-0.188227	-0.211688	-0.169395	-0.174043	-0.26662	0.220402	-0.112679	-0.35728	-0.120966	0.07544	-0.111271	0.011817	-0.328465	-0.0637235	
2.75726	0	0	-0.161129	-0.012584	-0.103863	-0.326282	-0.21482	-0.080632	-0.088974	-0.001159	-0.510699	0.316882	-0.307266	-0.093658	-0.118738	-0.442696	-0.395887	-0.223587	-0.046549	-0.455754	-0.187753	-0.20175	-0.17016	-0.171881	-0.26283	0.224527	-0.114586	-0.351892	-0.117711	0.073313	-0.111271	0.011817	-0.320338	-0.072203	
2.75574	0	0	-0.150428	-0.008744	-0.102404	-0.330406	-0.207795	-0.077575	-0.0816005	-0.00397575	-0.509941	0.314738	-0.308665	-0.0897055	-0.116239	-0.439178	-0.39473	-0.216775	-0.0441807	-0.453009	-0.179723	-0.201868	-0.165077	-0.178527	-0.254477	0.215767	-0.114586	-0.351892	-0.117711	0.073313	-0.109228	0.00604425	-0.330755	-0.0717302	
2.75879	0	0	-0.139728	-0.004904	-0.100944	-0.33453	-0.200771	-0.074518	-0.074227	-0.0067925	-0.509182	0.312594	-0.310063	-0.085753	-0.11374	-0.43566	-0.393574	-0.209962	-0.0418125	-0.450264	-0.171693	-0.201985	-0.159994	-0.185172	-0.246124	0.207008	-0.114586	-0.351892	-0.117711	0.073313	-0.107185	0.0002715	-0.341172	-0.0712575	
2.75268	0	0	-0.129027	-0.001064	-0.0994852	-0.338654	-0.193746	-0.071461	-0.0668535	-0.00960925	-0.508424	0.31045	-0.311462	-0.0818005	-0.111242	-0.432142	-0.392417	-0.20315	-0.0394443	-0.447519	-0.163663	-0.202103	-0.15491	-0.191818	-0.237771	0.198248	-0.114586	-0.351892	-0.117711	0.073313	-0.105143	-0.00550125	-0.351588	-0.0707848	
2.75421	0	0	-0.118326	0.002776	-0.098026	-0.342778	-0.186721	-0.068404	-0.05948	-0.012426	-0.507665	0.308306	-0.31286	-0.077848	-0.108743	-0.428624	-0.39126	-0.196337	-0.037076	-0.444774	-0.155633	-0.20222	-0.149827	-0.198463	-0.229418	0.189488	-0.114586	-0.351892	-0.117711	0.073313	-0.1031	-0.011274	-0.362005	-0.070312	
2.75421	0	0	-0.120467	0.0258908	-0.0976348	-0.330343	-0.189672	-0.0485995	-0.0608622	0.000498	-0.501973	0.306235	-0.312804	-0.0657168	-0.108618	-0.418393	-0.380818	-0.185468	-0.0356957	-0.439232	-0.149956	-0.195659	-0.145011	-0.196623	-0.217255	0.184842	-0.111038	-0.352138	-0.114455	0.0711853	-0.107466	-0.0106395	-0.359093	-0.078543	
2.75574	0	0	-0.122608	0.0490055	-0.0972435	-0.317908	-0.192623	-0.028795	-0.0622445	0.013422	-0.496282	0.304165	-0.312748	-0.0535855	-0.108492	-0.408162	-0.370375	-0.1746	-0.0343155	-0.43369	-0.14428	-0.189098	-0.140195	-0.194783	-0.205091	0.180196	-0.107491	-0.352384	-0.111199	0.0690575	-0.111832	-0.010005	-0.35618	-0.086774	
2.75421	0	0	-0.124749	0.0721202	-0.0968523	-0.305472	-0.195573	-0.0089905	-0.0636267	0.026346	-0.49059	0.302094	-0.312691	-0.0414542	-0.108367	-0.397932	-0.359932	-0.163731	-0.0329352	-0.428149	-0.138603	-0.182536	-0.135379	-0.192944	-0.192928	0.175549	-0.103943	-0.35263	-0.107942	0.0669297	-0.116197	-0.0093705	-0.353268	-0.095005	
2.75574	0	0	-0.12689	0.095235	-0.096461	-0.293037	-0.198524	0.010814	-0.065009	0.03927	-0.484898	0.300023	-0.312635	-0.029323	-0.108241	-0.387701	-0.34949	-0.152862	-0.031555	-0.422607	-0.132927	-0.175975	-0.130563	-0.191104	-0.180764	0.170903	-0.100396	-0.352876	-0.104686	0.064802	-0.120563	-0.008736	-0.350355	-0.103236	
2.75421	0	0	-0.130228	0.10467	-0.105618	-0.280699	-0.200313	0.0273425	-0.0673235	0.054833	-0.478443	0.295805	-0.308325	-0.0168987	-0.109309	-0.37409	-0.347179	-0.139171	-0.0244438	-0.414348	-0.120371	-0.166169	-0.122182	-0.19159	-0.171622	0.174844	-0.101621	-0.33963	-0.101428	0.0626735	-0.127988	0.0005525	-0.346604	-0.099359	
2.75421	0	0	-0.133567	0.114105	-0.114775	-0.268362	-0.202102	0.043871	-0.069638	0.070396	-0.471988	0.291587	-0.304015	-0.0044745	-0.110378	-0.360479	-0.344867	-0.12548	-0.0173325	-0.406089	-0.107815	-0.156363	-0.113801	-0.192076	-0.16248	0.178785	-0.102845	-0.326385	-0.0981705	0.060545	-0.135413	0.009841	-0.342854	-0.095482	
2.75574	0	0	-0.136906	0.123541	-0.123932	-0.256024	-0.203891	0.0603995	-0.0719525	0.085959	-0.465532	0.287369	-0.299706	0.00794975	-0.111446	-0.346868	-0.342556	-0.11179	-0.0102213	-0.39783	-0.0952598	-0.146556	-0.105421	-0.192562	-0.153339	0.182727	-0.104069	-0.313139	-0.0949128	0.0584165	-0.142838	0.0191295	-0.339103	-0.091605	
2.75421	0	0	-0.140244	0.132976	-0.133089	-0.243687	-0.20568	0.076928	-0.074267	0.101522	-0.459077	0.283151	-0.295396	0.020374	-0.112514	-0.333257	-0.340244	-0.098099	-0.00311	-0.389571	-0.082704	-0.13675	-0.09704	-0.193048	-0.144197	0.186668	-0.105294	-0.299893	-0.091655	0.056288	-0.150263	0.028418	-0.335352	-0.087728	
2.75574	0	0	-0.143586	0.142422	-0.134552	-0.239552	-0.201013	0.0867047	-0.0788942	0.114599	-0.452617	0.27893	-0.296801	0.024344	-0.107519	-0.326173	-0.334446	-0.084111	-0.004706	-0.375598	-0.0834193	-0.123389	-0.0950098	-0.191046	-0.141906	0.1951	-0.109119	-0.289085	-0.091655	0.056288	-0.150263	0.028418	-0.331599	-0.0838467	
2.75421	0	0	-0.146929	0.151867	-0.136016	-0.235416	-0.196346	0.0964815	-0.0835215	0.127677	-0.446157	0.274709	-0.298206	0.028314	-0.102523	-0.31909	-0.328647	-0.070123	-0.006302	-0.361625	-0.0841345	-0.110029	-0.0929795	-0.189044	-0.139615	0.203532	-0.112943	-0.278276	-0.091655	0.056288	-0.150263	0.028418	-0.327845	-0.0799655	
2.75268	0	0	-0.150271	0.161312	-0.137479	-0.23128	-0.191679	0.106258	-0.0881487	0.140755	-0.439697	0.270488	-0.29961	0.032284	-0.0975275	-0.312006	-0.322848	-0.056135	-0.007898	-0.347653	-0.0848498	-0.0966678	-0.0909492	-0.187041	-0.137324	0.211963	-0.116767	-0.267468	-0.091655	0.056288	-0.150263	0.028418	-0.324091	-0.0760843	
2.75726	0	0	-0.153613	0.170758	-0.138942	-0.227145	-0.187012	0.116035	-0.092776	0.153832	-0.433237	0.266267	-0.301015	0.036254	-0.092532	-0.304922	-0.31705	-0.042147	-0.009494	-0.33368	-0.085565	-0.083307	-0.088919	-0.185039	-0.135033	0.220395	-0.120592	-0.256659	-0.091655	0.056288	-0.150263	0.028418	-0.320338	-0.072203	
2.75574	0	0	-0.161984	0.194415	-0.15103	-0.206515	-0.188821	0.132639	-0.0960395	0.172081	-0.426772	0.262043	-0.299565	0.0444713	-0.0850315	-0.294272	-0.31125	-0.0281137	-0.0101048	-0.322487	-0.082253	-0.069967	-0.0861217	-0.185202	-0.136558	0.224704	-0.122506	-0.25125	-0.091655	0.056288	-0.155643	0.031933	-0.31888	-0.0763233	
2.75421	0	0	-0.170355	0.218072	-0.163117	-0.185885	-0.190629	0.149244	-0.099303	0.190331	-0.420307	0.257819	-0.298115	0.0526885	-0.077531	-0.283622	-0.305449	-0.0140805	-0.0107155	-0.311295	-0.078941	-0.056627	-0.0833245	-0.185364	-0.138082	0.229013	-0.12442	-0.245841	-0.091655	0.056288	-0.161022	0.035448	-0.317422	-0.0804435	
2.75574	0	0	-0.178725	0.241729	-0.175204	-0.165254	-0.192438	0.165849	-0.102566	0.20858	-0.413842	0.253594	-0.296666	0.0609058	-0.0700305	-0.272972	-0.299648	-4.725E-05	-0.0113262	-0.300102	-0.075629	-0.043287	-0.0805272	-0.185527	-0.139607	0.233322	-0.126334	-0.240431	-0.091655	0.056288	-0.166401	0.038963	-0.315964	-0.0845637	
2.75421	0	0	-0.187096	0.265386	-0.187292	-0.144624	-0.194246	0.182453	-0.10583	0.226829	-0.407377	0.24937	-0.295216	0.069123	-0.06253	-0.262322	-0.293848	0.013986	-0.011937	-0.288909	-0.072317	-0.029947	-0.07773	-0.18569	-0.141132	0.237631	-0.128248	-0.235022	-0.091655	0.056288	-0.171781	0.042478	-0.314506	-0.088684	
2.74963	0	0	-0.19717	0.293858	-0.188405	-0.127948	-0.196067	0.199101	-0.108178	0.242497	-0.397671	0.243028	-0.289502	0.077628	-0.0611148	-0.245059	-0.2904	0.034717	-0.0034485	-0.274985	-0.0702018	-0.0131962	-0.071632	-0.179676	-0.141901	0.254721	-0.124983	-0.224665	-0.091655	0.056288	-0.172802	0.045365	-0.317422	-0.0804418	
2.75726	0	0	-0.207244	0.32233	-0.189518	-0.111273	-0.197888	0.215749	-0.110527	0.258165	-0.387964	0.236685	-0.283788	0.086133	-0.0596995	-0.227797	-0.286952	0.055448	0.00504	-0.26106	-0.0680865	0.0035545	-0.065534	-0.173661	-0.142669	0.271811	-0.121718	-0.214307	-0.091655	0.056288	-0.173824	0.048252	-0.320339	-0.0721995	
2.75574	0	0	-0.217319	0.350801	-0.19063	-0.0945975	-0.199709	0.232396	-0.112875	0.273833	-0.378258	0.230343	-0.278074	0.094638	-0.0582843	-0.210534	-0.283504	0.076179	0.0135285	-0.247136	-0.0659712	0.0203053	-0.059436	-0.167647	-0.143437	0.288902	-0.118452	-0.20395	-0.091655	0.056288	-0.174845	0.051139	-0.323256	-0.0639572	
2.75421	0	0	-0.227393	0.379273	-0.191743	-0.077922	-0.20153	0.249044	-0.115224	0.289501	-0.368552	0.224	-0.27236	0.103143	-0.056869	-0.193271	-0.280056	0.09691	0.022017	-0.233211	-0.063856	0.037056	-0.053338	-0.161633	-0.144206	0.305992	-0.115187	-0.193593	-0.091655	0.056288	-0.175867	0.054026	-0.326172	-0.055715	
2.75574	0	0	-0.222897	0.383647	-0.19797	-0.0738528	-0.202717	0.252399	-0.117085	0.29476	-0.368552	0.224	-0.27236	0.103143	-0.0567653	-0.182924	-0.280089	0.107171	0.0203965	-0.219141	-0.0633998	0.0471408	-0.0556413	-0.155123	-0.145735	0.310314	-0.115475	-0.182978	-0.0883962	0.0541585	-0.177911	0.0598025	-0.325339	-0.0435683	
2.75268	0	0	-0.218402	0.388021	-0.204198	-0.0697835	-0.203904	0.255754	-0.118946	0.30002	-0.368552	0.224	-0.27236	0.103143	-0.0566615	-0.172577	-0.280121	0.117431	0.018776	-0.20507	-0.0629435	0.0572255	-0.0579445	-0.148614	-0.147264	0.314635	-0.115763	-0.172364	-0.0851375	0.052029	-0.179955	0.065579	-0.324507	-0.0314215	
2.75268	0	0	-0.213906	0.392395	-0.210426	-0.0657143	-0.205092	0.25911	-0.120807	0.30528	-0.368552	0.224	-0.27236	0.103143	-0.0565577	-0.162231	-0.280153	0.127692	0.0171555	-0.190999	-0.0624873	0.0673103	-0.0602477	-0.142104	-0.148793	0.318956	-0.116051	-0.161749	-0.0818788	0.0498995	-0.181999	0.0713555	-0.323674	-0.0192748	
2.75574	0	0	-0.20941	0.396769	-0.216653	-0.061645	-0.206279	0.262465	-0.122668	0.310539	-0.368552	0.224	-0.27236	0.103143	-0.056454	-0.151884	-0.280186	0.137953	0.015535	-0.176929	-0.062031	0.077395	-0.062551	-0.135594	-0.150322	0.323278	-0.116339	-0.151134	-0.07862	0.04777	-0.184043	0.077132	-0.322841	-0.007128	
2.75421	0	0	-0.212779	0.40629	-0.225817	-0.0492672	-0.203358	0.265719	-0.123599	0.31317	-0.371788	0.226115	-0.279445	0.110836	-0.0526532	-0.141327	-0.281404	0.15157	0.019279	-0.168513	-0.059185	0.0807328	-0.0633192	-0.133423	-0.151852	0.327602	-0.113748	-0.148652	-0.07862	0.04777	-0.184043	0.077132	-0.32138	-0.0112578	
2.75421	0	0	-0.216148	0.415811	-0.234982	-0.0368895	-0.200438	0.268973	-0.12453	0.315801	-0.375025	0.22823	-0.28653	0.118528	-0.0488525	-0.130771	-0.282621	0.165187	0.023023	-0.160098	-0.056339	0.0840705	-0.0640875	-0.131251	-0.153382	0.331925	-0.111156	-0.146171	-0.07862	0.04777	-0.184043	0.077132	-0.319918	-0.0153875	
2.75268	0	0	-0.219517	0.425332	-0.244146	-0.0245117	-0.197517	0.272227	-0.125461	0.318431	-0.378262	0.230345	-0.293615	0.126221	-0.0450518	-0.120214	-0.283839	0.178805	0.026767	-0.151682	-0.053493	0.0874082	-0.0648558	-0.12908	-0.154912	0.336249	-0.108564	-0.143689	-0.07862	0.04777	-0.184043	0.077132	-0.318457	-0.0195172	
2.75116	0	0	-0.222886	0.434853	-0.25331	-0.012134	-0.194597	0.275481	-0.126392	0.321062	-0.381498	0.23246	-0.3007	0.133913	-0.041251	-0.109657	-0.285057	0.192422	0.030511	-0.143266	-0.050647	0.090746	-0.065624	-0.126909	-0.156442	0.340573	-0.105973	-0.141208	-0.07862	0.04777	-0.184043	0.077132	-0.316996	-0.023647	
2.74963	0	0	-0.226258	0.444384	-0.25003	-0.00788125	-0.198164	0.285562	-0.1218	0.326158	-0.381498	0.23246	-0.303521	0.141887	-0.0435628	-0.092465	-0.286283	0.206069	0.0288762	-0.129141	-0.058279	0.100934	-0.060789	-0.125059	-0.159504	0.349227	-0.104342	-0.136006	-0.07862	0.04777	-0.184043	0.077132	-0.318457	-0.0195172	
2.75268	0	0	-0.229631	0.453915	-0.24675	-0.0036285	-0.201732	0.295644	-0.117207	0.331253	-0.381498	0.23246	-0.306343	0.149861	-0.0458745	-0.075273	-0.287509	0.219715	0.0272415	-0.115016	-0.065911	0.111123	-0.055954	-0.123208	-0.162566	0.357881	-0.102711	-0.130804	-0.07862	0.04777	-0.184043	0.077132	-0.319918	-0.0153875	
2.75116	0	0	-0.233003	0.463446	-0.243471	0.00062425	-0.205299	0.305725	-0.112615	0.336349	-0.381498	0.23246	-0.309165	0.157834	-0.0481862	-0.058081	-0.288736	0.233361	0.0256068	-0.100891	-0.073543	0.121312	-0.051119	-0.121358	-0.165628	0.366534	-0.101081	-0.125603	-0.07862	0.04777	-0.184043	0.077132	-0.32138	-0.0112578	
2.75268	0	0	-0.236375	0.472977	-0.240191	0.004877	-0.208866	0.315807	-0.108022	0.341445	-0.381498	0.23246	-0.311986	0.165808	-0.050498	-0.040889	-0.289962	0.247008	0.023972	-0.086766	-0.081175	0.1315	-0.046284	-0.119508	-0.16869	0.375188	-0.09945	-0.120401	-0.07862	0.04777	-0.184043	0.077132	-0.322841	-0.007128	
2.75268	0	0	-0.238063	0.477746	-0.246414	0.0089435	-0.212973	0.315906	-0.111251	0.341529	-0.387968	0.236687	-0.31481	0.173789	-0.0590183	-0.0274675	-0.293515	0.257048	0.0277118	-0.0783097	-0.081175	0.1315	-0.0457883	-0.113147	-0.170222	0.379518	-0.1033	-0.10952	-0.0753598	0.0456397	-0.192488	0.0893168	-0.317624	-0.0073605	
2.75268	0	0	-0.239751	0.482515	-0.252637	0.01301	-0.21708	0.316005	-0.114479	0.341614	-0.394437	0.240915	-0.317634	0.18177	-0.0675385	-0.014046	-0.297068	0.267088	0.0314515	-0.0698535	-0.081175	0.1315	-0.0452925	-0.106785	-0.171754	0.383848	-0.10715	-0.098639	-0.0720995	0.0435095	-0.200933	0.101502	-0.312407	-0.007593	
2.74811	0	0	-0.241438	0.487285	-0.258861	0.0170765	-0.221187	0.316104	-0.117708	0.341699	-0.400907	0.245143	-0.320457	0.18975	-0.0760588	-0.0006245	-0.30062	0.277128	0.0351913	-0.0613973	-0.081175	0.1315	-0.0447967	-0.100423	-0.173286	0.388178	-0.111	-0.087758	-0.0688392	0.0413792	-0.209377	0.113686	-0.30719	-0.0078255	
2.74811	0	0	-0.243126	0.492054	-0.265084	0.021143	-0.225294	0.316203	-0.120936	0.341783	-0.407377	0.24937	-0.323281	0.197731	-0.084579	0.012797	-0.304173	0.287168	0.038931	-0.052941	-0.081175	0.1315	-0.044301	-0.094062	-0.174818	0.392508	-0.11485	-0.076877	-0.065579	0.039249	-0.217822	0.125871	-0.301973	-0.008058	
2.74811	0	0	-0.244814	0.496826	-0.26983	0.0210457	-0.225294	0.316203	-0.124162	0.341867	-0.413842	0.253594	-0.333208	0.201149	-0.085785	0.016205	-0.313542	0.29329	0.0335473	-0.0472412	-0.0840163	0.128155	-0.0506752	-0.091569	-0.174818	0.392508	-0.115813	-0.0741548	-0.0688392	0.0413792	-0.212446	0.122358	-0.310114	0.00043975	
2.74353	0	0	-0.246503	0.501598	-0.274577	0.0209485	-0.225294	0.316203	-0.127389	0.341951	-0.420307	0.257819	-0.343135	0.204567	-0.086991	0.019613	-0.32291	0.299411	0.0281635	-0.0415415	-0.0868575	0.12481	-0.0570495	-0.089076	-0.174818	0.392508	-0.116777	-0.0714325	-0.0720995	0.0435095	-0.207069	0.118846	-0.318256	0.0089375	
2.74963	0	0	-0.248192	0.50637	-0.279324	0.0208513	-0.225294	0.316203	-0.130615	0.342035	-0.426772	0.262043	-0.353062	0.207985	-0.088197	0.023021	-0.332279	0.305533	0.0227797	-0.0358417	-0.0896987	0.121465	-0.0634238	-0.086583	-0.174818	0.392508	-0.11774	-0.0687103	-0.0753598	0.0456397	-0.201693	0.115333	-0.326398	0.0174353	
2.74811	0	5	-0.24988	0.511142	-0.28407	0.020754	-0.225294	0.316203	-0.133842	0.342119	-0.433237	0.266267	-0.362989	0.211403	-0.089403	0.026429	-0.341648	0.311655	0.017396	-0.030142	-0.09254	0.11812	-0.069798	-0.08409	-0.174818	0.392508	-0.118704	-0.065988	-0.07862	0.04777	-0.196317	0.11182	-0.334539	0.025933	
2.74505	0	5	-0.257741	0.516278	-0.28407	0.020754	-0.222377	0.319467	-0.12832	0.344585	-0.442925	0.272597	-0.361577	0.207414	-0.0967187	0.0364522	-0.345144	0.311366	0.0163915	-0.0273028	-0.0941845	0.1114	-0.0690287	-0.0862643	-0.174818	0.392508	-0.122256	-0.0657598	-0.07862	0.04777	-0.20502	0.113062	-0.338288	0.0220285	
2.75421	0	5	-0.265602	0.521415	-0.28407	0.020754	-0.21946	0.322731	-0.122797	0.347052	-0.452614	0.278928	-0.360166	0.203424	-0.104035	0.0464755	-0.34864	0.311076	0.015387	-0.0244635	-0.095829	0.10468	-0.0682595	-0.0884385	-0.174818	0.392508	-0.125808	-0.0655315	-0.07862	0.04777	-0.213724	0.114303	-0.342037	0.018124	
2.74658	0	5	-0.273463	0.526552	-0.28407	0.020754	-0.216543	0.325995	-0.117275	0.349518	-0.462302	0.285258	-0.358755	0.199435	-0.11135	0.0564988	-0.352136	0.310787	0.0143825	-0.0216242	-0.0974735	0.09796	-0.0674903	-0.0906127	-0.174818	0.392508	-0.12936	-0.0653032	-0.07862	0.04777	-0.222427	0.115544	-0.345787	0.0142195	
2.742	0	5	-0.281324	0.531688	-0.28407	0.020754	-0.213626	0.329259	-0.111752	0.351984	-0.47199	0.291589	-0.357343	0.195445	-0.118666	0.066522	-0.355632	0.310497	0.013378	-0.018785	-0.099118	0.09124	-0.066721	-0.092787	-0.174818	0.392508	-0.132912	-0.065075	-0.07862	0.04777	-0.23113	0.116786	-0.349536	0.010315	
2.74353	0	5	-0.292558	0.546371	-0.285542	0.0249145	-0.221304	0.33945	-0.116845	0.357338	-0.478443	0.295805	-0.365831	0.207127	-0.119873	0.069934	-0.36031	0.313554	0.012373	-0.015945	-0.104346	0.0946565	-0.0674903	-0.0906127	-0.174818	0.392508	-0.127434	-0.070747	-0.07862	0.04777	-0.229085	0.111008	-0.33994	-0.00230325	
2.74353	0	5	-0.303791	0.561055	-0.287015	0.029075	-0.228982	0.349641	-0.121938	0.362692	-0.484896	0.300021	-0.374318	0.218809	-0.12108	0.073346	-0.364988	0.316611	0.011368	-0.013105	-0.109575	0.098073	-0.0682595	-0.0884385	-0.174818	0.392508	-0.121955	-0.076419	-0.07862	0.04777	-0.227041	0.105229	-0.330345	-0.0149215	
2.74505	0	5	-0.315024	0.575738	-0.288487	0.0332355	-0.236659	0.359831	-0.12703	0.368046	-0.491348	0.304238	-0.382806	0.23049	-0.122288	0.076758	-0.369666	0.319667	0.010363	-0.010265	-0.114804	0.101489	-0.0690287	-0.0862643	-0.174818	0.392508	-0.116477	-0.082091	-0.07862	0.04777	-0.224996	0.0994505	-0.32075	-0.0275398	
2.74505	0	5	-0.326258	0.590421	-0.289959	0.037396	-0.244337	0.370022	-0.132123	0.3734	-0.497801	0.308454	-0.391294	0.242172	-0.123495	0.08017	-0.374344	0.322724	0.009358	-0.007425	-0.120032	0.104906	-0.069798	-0.08409	-0.174818	0.392508	-0.110999	-0.087763	-0.07862	0.04777	-0.222951	0.093672	-0.311154	-0.040158	
2.74505	0	5	-0.320095	0.590069	-0.29323	0.0331375	-0.246059	0.363388	-0.135778	0.365663	-0.507471	0.314773	-0.399781	0.253858	-0.132085	0.0831598	-0.388363	0.331884	0.009358	-0.007425	-0.120032	0.104906	-0.0733677	-0.0817575	-0.176351	0.39684	-0.117441	-0.0793687	-0.07862	0.04777	-0.232665	0.097799	-0.314076	-0.0319005	
2.742	0	5	-0.313933	0.589716	-0.2965	0.028879	-0.247781	0.356754	-0.139433	0.357926	-0.517141	0.321091	-0.408268	0.265545	-0.140675	0.0861495	-0.402382	0.341044	0.009358	-0.007425	-0.120032	0.104906	-0.0769375	-0.079425	-0.177884	0.401172	-0.123882	-0.0709745	-0.07862	0.04777	-0.242378	0.101926	-0.316997	-0.023643	
2.742	0	5	-0.30777	0.589364	-0.29977	0.0246205	-0.249503	0.35012	-0.143087	0.350189	-0.526811	0.32741	-0.416754	0.277232	-0.149265	0.0891393	-0.4164	0.350204	0.009358	-0.007425	-0.120032	0.104906	-0.0805073	-0.0770925	-0.179417	0.405504	-0.130324	-0.0625803	-0.07862	0.04777	-0.252092	0.106053	-0.319919	-0.0153855	
2.74048	0	5	-0.301607	0.589012	-0.303041	0.020362	-0.251225	0.343486	-0.146742	0.342452	-0.536481	0.333729	-0.425241	0.288918	-0.157855	0.092129	-0.430419	0.359364	0.009358	-0.007425	-0.120032	0.104906	-0.084077	-0.07476	-0.18095	0.409836	-0.136765	-0.054186	-0.07862	0.04777	-0.261806	0.11018	-0.322841	-0.007128	
2.73743	0	5	-0.295438	0.588657	-0.303041	0.020362	-0.254136	0.34022	-0.147173	0.334645	-0.54614	0.34004	-0.433724	0.28832	-0.161543	0.0919165	-0.431536	0.352378	0.004624	-0.0130612	-0.117643	0.0981532	-0.0932385	-0.0721162	-0.179417	0.405504	-0.1429	-0.0564542	-0.0818788	0.0498995	-0.259763	0.104407	-0.329515	-0.00276725	
2.74048	0	5	-0.289269	0.588303	-0.303041	0.020362	-0.257048	0.336955	-0.147604	0.326837	-0.555799	0.346352	-0.442207	0.287721	-0.16523	0.091704	-0.432652	0.345392	-0.00011	-0.0186975	-0.115254	0.0914005	-0.1024	-0.0694725	-0.177884	0.401172	-0.149035	-0.0587225	-0.0851375	0.052029	-0.257721	0.0986345	-0.336189	0.0015935	
2.74048	0	5	-0.2831	0.587948	-0.303041	0.020362	-0.25996	0.333689	-0.148036	0.319029	-0.565458	0.352663	-0.45069	0.287123	-0.168917	0.0914915	-0.433769	0.338405	-0.004844	-0.0243338	-0.112864	0.0846478	-0.111561	-0.0668288	-0.176351	0.39684	-0.155169	-0.0609907	-0.0883962	0.0541585	-0.255678	0.0928617	-0.342862	0.00595425	
2.74048	0	5	-0.276931	0.587594	-0.303041	0.020362	-0.262871	0.330423	-0.148467	0.311222	-0.575117	0.358974	-0.459173	0.286525	-0.172605	0.091279	-0.434885	0.331419	-0.009578	-0.02997	-0.110475	0.077895	-0.120723	-0.064185	-0.174818	0.392508	-0.161304	-0.063259	-0.091655	0.056288	-0.253636	0.087089	-0.349536	0.010315	
2.742	0	5	-0.280318	0.597166	-0.3001	0.0120505	-0.272253	0.333971	-0.151689	0.311307	-0.584007	0.363135	-0.461998	0.282235	-0.179973	0.0908525	-0.437185	0.327783	-0.013306	-0.0384305	-0.108087	0.0711473	-0.128335	-0.0658917	-0.171755	0.38385	-0.169052	-0.070733	-0.0949128	0.0584165	-0.259257	0.0796795	-0.359946	0.010769	
2.74048	0	5	-0.283705	0.606738	-0.29716	0.003739	-0.281634	0.337518	-0.154911	0.311391	-0.592896	0.367295	-0.464823	0.277946	-0.187341	0.090426	-0.439485	0.324147	-0.017034	-0.046891	-0.1057	0.0643995	-0.135947	-0.0675985	-0.168691	0.375192	-0.176799	-0.078207	-0.0981705	0.060545	-0.264879	0.07227	-0.370356	0.011223	
2.742	0	5	-0.287092	0.61631	-0.294219	-0.0045725	-0.291016	0.341066	-0.158134	0.311476	-0.601786	0.371455	-0.467648	0.273657	-0.194709	0.0899995	-0.441785	0.320511	-0.020762	-0.0553515	-0.103312	0.0576518	-0.143559	-0.0693053	-0.165627	0.366534	-0.184547	-0.085681	-0.101428	0.0626735	-0.2705	0.0648605	-0.380767	0.011677	
2.74048	0	5	-0.290479	0.625882	-0.291278	-0.012884	-0.300397	0.344613	-0.161356	0.311561	-0.610676	0.375616	-0.470473	0.269367	-0.202077	0.089573	-0.444085	0.316875	-0.02449	-0.063812	-0.100924	0.050904	-0.151171	-0.071012	-0.162564	0.357876	-0.192295	-0.093155	-0.104686	0.064802	-0.276122	0.057451	-0.391177	0.012131	
2.742	0	5	-0.290479	0.625882	-0.298958	-0.00467175	-0.304489	0.344705	-0.163647	0.309018	-0.614648	0.37986	-0.470473	0.269367	-0.205758	0.0893588	-0.442903	0.313534	-0.0292178	-0.0694275	-0.099731	0.047532	-0.153962	-0.0708573	-0.154162	0.34906	-0.192956	-0.101068	-0.107942	0.0669297	-0.278421	0.0523123	-0.392	-1.075E-05	
2.74048	0	5	-0.290479	0.625882	-0.306638	0.0035405	-0.308581	0.344797	-0.165938	0.306475	-0.618621	0.384104	-0.470473	0.269367	-0.209438	0.0891445	-0.441721	0.310194	-0.0339455	-0.075043	-0.098538	0.04416	-0.156753	-0.0707025	-0.145759	0.340245	-0.193616	-0.108982	-0.111199	0.0690575	-0.280721	0.0471735	-0.392822	-0.0121525	
2.742	0	5	-0.290479	0.625882	-0.314317	0.0117528	-0.312673	0.34489	-0.168228	0.303932	-0.622593	0.388347	-0.470473	0.269367	-0.213119	0.0889303	-0.440539	0.306854	-0.0386733	-0.0806585	-0.097345	0.040788	-0.159544	-0.0705477	-0.137357	0.331429	-0.194276	-0.116895	-0.114455	0.0711853	-0.283021	0.0420347	-0.393645	-0.0242942	
2.74353	0	5	-0.290479	0.625882	-0.321997	0.019965	-0.316765	0.344982	-0.170519	0.301389	-0.626565	0.392591	-0.470473	0.269367	-0.2168	0.088716	-0.439357	0.303513	-0.043401	-0.086274	-0.096152	0.037416	-0.162335	-0.070393	-0.128955	0.322613	-0.194937	-0.124808	-0.117711	0.073313	-0.28532	0.036896	-0.394467	-0.036436	
2.74353	0	5	-0.3045	0.631363	-0.317589	0.00750675	-0.322568	0.338457	-0.178314	0.296393	-0.632989	0.396788	-0.47753	0.277045	-0.22295	0.0848835	-0.44402	0.30656	-0.0491245	-0.0890553	-0.0921165	0.0373715	-0.165125	-0.0702388	-0.135827	0.327103	-0.197517	-0.127291	-0.120966	0.07544	-0.292969	0.0352592	-0.394467	-0.036436	
2.74963	0	5	-0.318521	0.636845	-0.31318	-0.0049515	-0.32837	0.331932	-0.186109	0.291397	-0.639412	0.400986	-0.484587	0.284724	-0.2291	0.081051	-0.448682	0.309607	-0.054848	-0.0918365	-0.088081	0.037327	-0.167915	-0.0700845	-0.142699	0.331593	-0.200097	-0.129773	-0.124221	0.077567	-0.300617	0.0336225	-0.394467	-0.036436	
2.75116	0	5	-0.332542	0.642326	-0.308772	-0.0174097	-0.334173	0.325406	-0.193905	0.286402	-0.645836	0.405184	-0.491644	0.292402	-0.23525	0.0772185	-0.453345	0.312653	-0.0605715	-0.0946178	-0.0840455	0.0372825	-0.170704	-0.0699302	-0.14957	0.336083	-0.202677	-0.132256	-0.127477	0.079694	-0.308265	0.0319858	-0.394467	-0.036436	
2.75421	0	5	-0.346563	0.647807	-0.304364	-0.029868	-0.339975	0.318881	-0.2017	0.281406	-0.65226	0.409381	-0.498701	0.30008	-0.2414	0.073386	-0.458008	0.3157	-0.066295	-0.097399	-0.08001	0.037238	-0.173494	-0.069776	-0.156442	0.340573	-0.205257	-0.134739	-0.130732	0.081821	-0.315914	0.030349	-0.394467	-0.036436	
2.75574	0	5	-0.343178	0.63824	-0.312368	-0.0342027	-0.345772	0.312367	-0.206273	0.276333	-0.658679	0.413575	-0.4987	0.287819	-0.243871	0.0697715	-0.454465	0.305686	-0.071014	-0.103001	-0.0776243	0.0304953	-0.179069	-0.069469	-0.146511	0.327438	-0.211372	-0.136992	-0.130732	0.081821	-0.317193	0.0223485	-0.407768	-0.027745	
2.76031	0	5	-0.339792	0.628673	-0.320372	-0.0385375	-0.351568	0.305854	-0.210845	0.27126	-0.665097	0.41777	-0.498698	0.275558	-0.246342	0.066157	-0.450921	0.295673	-0.075733	-0.108602	-0.0752385	0.0237525	-0.184645	-0.069162	-0.13658	0.314303	-0.217486	-0.139244	-0.130732	0.081821	-0.318472	0.014348	-0.421069	-0.019054	
2.76337	0	5	-0.336407	0.619107	-0.328375	-0.0428723	-0.357365	0.29934	-0.215418	0.266187	-0.671516	0.421964	-0.498697	0.263297	-0.248813	0.0625425	-0.447378	0.285659	-0.080452	-0.114204	-0.0728527	0.0170097	-0.190221	-0.068855	-0.12665	0.301167	-0.223601	-0.141497	-0.130732	0.081821	-0.319752	0.0063475	-0.43437	-0.010363	
2.76337	0	5	-0.333022	0.60954	-0.336379	-0.047207	-0.363161	0.292826	-0.219991	0.261114	-0.677935	0.426158	-0.498696	0.251036	-0.251284	0.058928	-0.443835	0.275645	-0.085171	-0.119806	-0.070467	0.010267	-0.195796	-0.068548	-0.116719	0.288032	-0.229716	-0.14375	-0.130732	0.081821	-0.321031	-0.001653	-0.447671	-0.001672	
2.76642	0	5	-0.335798	0.600336	-0.334913	-0.0513503	-0.361977	0.289479	-0.219064	0.258495	-0.677935	0.426158	-0.495878	0.243073	-0.252552	0.0519208	-0.442655	0.272309	-0.0855333	-0.128244	-0.0668915	0.00016275	-0.197815	-0.0705635	-0.113663	0.279395	-0.234867	-0.148706	-0.133986	0.0839473	-0.327651	-0.006152	-0.448489	-0.0137932	
2.76947	0	5	-0.338574	0.591132	-0.333447	-0.0554935	-0.360793	0.286133	-0.218137	0.255876	-0.677935	0.426158	-0.493061	0.235109	-0.253821	0.0449135	-0.441474	0.268974	-0.0858955	-0.136682	-0.063316	-0.0099415	-0.199833	-0.072579	-0.110607	0.270758	-0.240018	-0.153663	-0.13724	0.0860735	-0.334272	-0.010651	-0.449306	-0.0259145	
2.76947	0	5	-0.34135	0.581928	-0.331981	-0.0596368	-0.359608	0.282786	-0.21721	0.253256	-0.677935	0.426158	-0.490243	0.227146	-0.255089	0.0379063	-0.440294	0.265638	-0.0862577	-0.145119	-0.0597405	-0.0200458	-0.201852	-0.0745945	-0.107551	0.262121	-0.245169	-0.158619	-0.140493	0.0881998	-0.340893	-0.01515	-0.450124	-0.0380358	
2.77252	0	5	-0.344126	0.572724	-0.330515	-0.06378	-0.358424	0.279439	-0.216283	0.250637	-0.677935	0.426158	-0.487426	0.219183	-0.256357	0.030899	-0.439114	0.262303	-0.08662	-0.153557	-0.056165	-0.03015	-0.203871	-0.07661	-0.104495	0.253484	-0.25032	-0.163576	-0.143747	0.090326	-0.347513	-0.019649	-0.450942	-0.050157	
2.77252	0	5	-0.348589	0.568305	-0.330515	-0.06378	-0.359608	0.282786	-0.212143	0.247931	-0.674726	0.424061	-0.488835	0.223164	-0.255156	0.027504	-0.429786	0.256208	-0.0846257	-0.159193	-0.056165	-0.03015	-0.203104	-0.0787777	-0.104495	0.253484	-0.246494	-0.174388	-0.150251	0.094576	-0.345484	-0.0253827	-0.453218	-0.0581465	
2.77405	0	5	-0.353052	0.563886	-0.330515	-0.06378	-0.360793	0.286133	-0.208003	0.245226	-0.671517	0.421964	-0.490243	0.227144	-0.253954	0.024109	-0.420458	0.250113	-0.0826315	-0.16483	-0.056165	-0.03015	-0.202337	-0.0809455	-0.104495	0.253484	-0.242669	-0.1852	-0.156755	0.098826	-0.343455	-0.0311165	-0.455494	-0.066136	
2.77252	0	5	-0.357516	0.559468	-0.330515	-0.06378	-0.361977	0.289479	-0.203862	0.24252	-0.668309	0.419868	-0.491652	0.231125	-0.252753	0.020714	-0.41113	0.244018	-0.0806373	-0.170466	-0.056165	-0.03015	-0.20157	-0.0831132	-0.104495	0.253484	-0.238843	-0.196011	-0.16326	0.103076	-0.341426	-0.0368503	-0.45777	-0.0741255	
2.77557	0	5	-0.361979	0.555049	-0.330515	-0.06378	-0.363161	0.292826	-0.199722	0.239815	-0.6651	0.417771	-0.49306	0.235106	-0.251552	0.017319	-0.401802	0.237923	-0.078643	-0.176102	-0.056165	-0.03015	-0.200803	-0.085281	-0.104495	0.253484	-0.235017	-0.206823	-0.169764	0.107326	-0.339397	-0.042584	-0.460046	-0.082115	
2.77405	0	5	-0.372579	0.550987	-0.341438	-0.0598268	-0.367241	0.292919	-0.20201	0.237284	-0.66189	0.415674	-0.49306	0.235106	-0.250351	0.0139253	-0.406467	0.240971	-0.0776462	-0.178919	-0.056165	-0.03015	-0.20157	-0.0831132	-0.104495	0.253484	-0.235973	-0.204122	-0.169764	0.107326	-0.333044	-0.0489385	-0.468132	-0.0736742	
2.77557	0	5	-0.38318	0.546925	-0.35236	-0.0558735	-0.371321	0.293012	-0.204297	0.234753	-0.65868	0.413576	-0.49306	0.235106	-0.24915	0.0105315	-0.411133	0.24402	-0.0766495	-0.181735	-0.056165	-0.03015	-0.202337	-0.0809455	-0.104495	0.253484	-0.236929	-0.20142	-0.169764	0.107326	-0.32669	-0.055293	-0.476218	-0.0652335	
2.77252	0	5	-0.39378	0.542864	-0.363283	-0.0519203	-0.375401	0.293105	-0.206585	0.232222	-0.65547	0.411478	-0.49306	0.235106	-0.24795	0.00713775	-0.415798	0.247068	-0.0756528	-0.184552	-0.056165	-0.03015	-0.203104	-0.0787777	-0.104495	0.253484	-0.237885	-0.198718	-0.169764	0.107326	-0.320337	-0.0616475	-0.484303	-0.0567927	
2.76947	0	5	-0.40438	0.538802	-0.374205	-0.047967	-0.379481	0.293198	-0.208872	0.229691	-0.65226	0.409381	-0.49306	0.235106	-0.246749	0.003744	-0.420463	0.250116	-0.074656	-0.187369	-0.056165	-0.03015	-0.203871	-0.07661	-0.104495	0.253484	-0.238841	-0.196017	-0.169764	0.107326	-0.313984	-0.068002	-0.492389	-0.048352	
2.77252	0	5	-0.402696	0.534043	-0.372741	-0.0521062	-0.378297	0.289853	-0.20702	0.224458	-0.65226	0.409381	-0.495881	0.23083	-0.245549	0.0003515	-0.414618	0.243733	-0.0770163	-0.190156	-0.0578225	-0.0368265	-0.205889	-0.0786243	-0.108314	0.249345	-0.243328	-0.193085	-0.177017	0.113702	-0.323646	-0.063891	-0.484303	-0.0567927	
2.76794	0	5	-0.401012	0.529284	-0.371276	-0.0562455	-0.377113	0.286507	-0.205169	0.219224	-0.65226	0.409381	-0.498703	0.226555	-0.244348	-0.003041	-0.408773	0.237351	-0.0793765	-0.192943	-0.05948	-0.043503	-0.207907	-0.0806385	-0.112132	0.245207	-0.247815	-0.190153	-0.18427	0.120079	-0.333307	-0.05978	-0.476218	-0.0652335	
2.76794	0	5	-0.399328	0.524524	-0.369811	-0.0603848	-0.37593	0.283162	-0.203317	0.213991	-0.65226	0.409381	-0.501524	0.22228	-0.243147	-0.0064335	-0.402928	0.230969	-0.0817367	-0.195729	-0.0611375	-0.0501795	-0.209925	-0.0826527	-0.11595	0.241068	-0.252302	-0.187221	-0.191522	0.126455	-0.342969	-0.055669	-0.468132	-0.0736742	
2.76489	0	0	-0.397644	0.519765	-0.368347	-0.064524	-0.374746	0.279816	-0.201465	0.208758	-0.65226	0.409381	-0.504346	0.218004	-0.241947	-0.009826	-0.397083	0.224586	-0.084097	-0.198516	-0.062795	-0.056856	-0.211943	-0.084667	-0.119769	0.23693	-0.256789	-0.184289	-0.198775	0.132831	-0.352631	-0.051558	-0.460046	-0.082115	
2.76489	0	0	-0.397644	0.519765	-0.369811	-0.0603848	-0.377114	0.286508	-0.203317	0.213991	-0.65226	0.409381	-0.504346	0.218004	-0.235872	-0.0164025	-0.397083	0.224586	-0.0874518	-0.198487	-0.065642	-0.0601637	-0.215493	-0.0823473	-0.118244	0.232619	-0.258406	-0.189461	-0.204516	0.134945	-0.345269	-0.0607715	-0.471853	-0.0775557	
2.76489	0	0	-0.397644	0.519765	-0.371276	-0.0562455	-0.379482	0.2932	-0.205169	0.219224	-0.65226	0.409381	-0.504346	0.218004	-0.229797	-0.022979	-0.397083	0.224586	-0.0908065	-0.198459	-0.068489	-0.0634715	-0.219044	-0.0800275	-0.116718	0.228307	-0.260024	-0.194634	-0.210257	0.137059	-0.337906	-0.069985	-0.483661	-0.0729965	
2.76642	0	0	-0.397644	0.519765	-0.372741	-0.0521062	-0.381849	0.299893	-0.20702	0.224458	-0.65226	0.409381	-0.504346	0.218004	-0.223723	-0.0295555	-0.397083	0.224586	-0.0941613	-0.198431	-0.071336	-0.0667792	-0.222594	-0.0777077	-0.115193	0.223996	-0.261642	-0.199806	-0.215997	0.139173	-0.330544	-0.0791985	-0.495468	-0.0684373	
2.76337	0	0	-0.397644	0.519765	-0.374205	-0.047967	-0.384217	0.306585	-0.208872	0.229691	-0.65226	0.409381	-0.504346	0.218004	-0.217648	-0.036132	-0.397083	0.224586	-0.097516	-0.198402	-0.074183	-0.070087	-0.226144	-0.075388	-0.113667	0.219685	-0.263259	-0.204978	-0.221738	0.141287	-0.323182	-0.088412	-0.507275	-0.063878	
2.76184	0	0	-0.393188	0.524173	-0.372411	-0.0395833	-0.376055	0.306401	-0.207512	0.234842	-0.645836	0.405184	-0.495883	0.218593	-0.21397	-0.035928	-0.390105	0.225154	-0.0921703	-0.204058	-0.074183	-0.070087	-0.226144	-0.075388	-0.113667	0.219685	-0.265831	-0.207447	-0.221738	0.141287	-0.332838	-0.0843025	-0.512445	-0.0636542	
2.76184	0	0	-0.388732	0.528581	-0.370618	-0.0311995	-0.367894	0.306217	-0.206151	0.239992	-0.639412	0.400986	-0.48742	0.219182	-0.210292	-0.035724	-0.383127	0.225722	-0.0868245	-0.209713	-0.074183	-0.070087	-0.226144	-0.075388	-0.113667	0.219685	-0.268404	-0.209916	-0.221738	0.141287	-0.342495	-0.080193	-0.517616	-0.0634305	
2.75726	0	0	-0.384275	0.532988	-0.368824	-0.0228158	-0.359733	0.306032	-0.20479	0.245142	-0.632989	0.396788	-0.478956	0.219771	-0.206615	-0.03552	-0.376148	0.22629	-0.0814788	-0.215369	-0.074183	-0.070087	-0.226144	-0.075388	-0.113667	0.219685	-0.270977	-0.212385	-0.221738	0.141287	-0.352151	-0.0760835	-0.522787	-0.0632068	
2.76184	0	0	-0.379819	0.537396	-0.36703	-0.014432	-0.351571	0.305848	-0.20343	0.250293	-0.626565	0.392591	-0.470493	0.22036	-0.202937	-0.035316	-0.36917	0.226858	-0.076133	-0.221025	-0.074183	-0.070087	-0.226144	-0.075388	-0.113667	0.219685	-0.273549	-0.214854	-0.221738	0.141287	-0.361807	-0.071974	-0.527957	-0.062983	
2.76031	0	0	-0.396539	0.53369	-0.377943	-0.0104885	-0.353943	0.31255	-0.20207	0.255449	-0.626565	0.392591	-0.471902	0.224343	-0.201737	-0.0387072	-0.375021	0.233246	-0.0727758	-0.221056	-0.074183	-0.070087	-0.223361	-0.0755405	-0.113667	0.219685	-0.276414	-0.206756	-0.228981	0.147657	-0.357487	-0.0725968	-0.529409	-0.0588797	
2.75726	0	0	-0.413258	0.529983	-0.388855	-0.006545	-0.356314	0.319252	-0.200709	0.260605	-0.626565	0.392591	-0.473311	0.228325	-0.200538	-0.0420985	-0.380872	0.239635	-0.0694185	-0.221087	-0.074183	-0.070087	-0.220577	-0.075693	-0.113667	0.219685	-0.27928	-0.198658	-0.236224	0.154027	-0.353166	-0.0732195	-0.53086	-0.0547765	
2.76031	0	0	-0.429978	0.526277	-0.399767	-0.0026015	-0.358685	0.325954	-0.199349	0.26576	-0.626565	0.392591	-0.474721	0.232308	-0.199338	-0.0454898	-0.386723	0.246023	-0.0660613	-0.221118	-0.074183	-0.070087	-0.217794	-0.0758455	-0.113667	0.219685	-0.282145	-0.190561	-0.243467	0.160396	-0.348846	-0.0738422	-0.532312	-0.0506733	
2.75879	0	0	-0.446698	0.522571	-0.41068	0.001342	-0.361057	0.332656	-0.197989	0.270916	-0.626565	0.392591	-0.47613	0.23629	-0.198138	-0.048881	-0.392574	0.252411	-0.062704	-0.221149	-0.074183	-0.070087	-0.21501	-0.075998	-0.113667	0.219685	-0.28501	-0.182463	-0.25071	0.166766	-0.344526	-0.074465	-0.533764	-0.04657	
2.75726	0	0	-0.458338	0.504646	-0.413931	-0.00290225	-0.358685	0.325954	-0.196134	0.265674	-0.62411	0.392636	-0.478954	0.232013	-0.198138	-0.048881	-0.390213	0.245739	-0.0660613	-0.221118	-0.0770285	-0.073392	-0.217794	-0.0758455	-0.119009	0.219862	-0.288535	-0.182236	-0.253953	0.168885	-0.345539	-0.071602	-0.545541	-0.042029	
2.75574	0	0	-0.469977	0.486722	-0.417183	-0.0071465	-0.356314	0.319252	-0.194279	0.260431	-0.621655	0.39268	-0.481778	0.227737	-0.198138	-0.048881	-0.387852	0.239067	-0.0694185	-0.221087	-0.079874	-0.076697	-0.220577	-0.075693	-0.12435	0.22004	-0.29206	-0.182008	-0.257196	0.171004	-0.346552	-0.068739	-0.557319	-0.037488	
2.75726	0	0	-0.481617	0.468798	-0.420434	-0.0113907	-0.353943	0.31255	-0.192424	0.255188	-0.6192	0.392725	-0.484602	0.22346	-0.198138	-0.048881	-0.385492	0.232395	-0.0727758	-0.221056	-0.0827195	-0.080002	-0.223361	-0.0755405	-0.129691	0.220218	-0.295584	-0.181781	-0.260438	0.173123	-0.347565	-0.065876	-0.569096	-0.032947	
2.75268	0	5	-0.493257	0.450873	-0.423685	-0.015635	-0.351571	0.305848	-0.190569	0.249946	-0.616745	0.39277	-0.487426	0.219183	-0.198138	-0.048881	-0.383131	0.225723	-0.076133	-0.221025	-0.085565	-0.083307	-0.226144	-0.075388	-0.135033	0.220395	-0.299109	-0.181554	-0.263681	0.175242	-0.348578	-0.063013	-0.580873	-0.028406	
2.75268	0	5	-0.492673	0.432314	-0.426935	-0.0198748	-0.351571	0.305848	-0.197925	0.252738	-0.612772	0.388525	-0.486018	0.215204	-0.196939	-0.0522708	-0.381951	0.222389	-0.076133	-0.221025	-0.088409	-0.0866088	-0.231707	-0.075084	-0.14037	0.220571	-0.306152	-0.181102	-0.266169	0.175231	-0.346552	-0.0687378	-0.58748	-0.024089	
2.75421	0	5	-0.49209	0.413755	-0.430184	-0.0241145	-0.351571	0.305848	-0.20528	0.25553	-0.608798	0.384279	-0.48461	0.211226	-0.195739	-0.0556605	-0.380772	0.219054	-0.076133	-0.221025	-0.091253	-0.0899105	-0.23727	-0.07478	-0.145706	0.220747	-0.313195	-0.180649	-0.268657	0.175219	-0.344527	-0.0744625	-0.594087	-0.019772	
2.75268	0	5	-0.491506	0.395195	-0.433434	-0.0283542	-0.351571	0.305848	-0.212635	0.258322	-0.604824	0.380034	-0.483202	0.207247	-0.19454	-0.0590502	-0.379592	0.21572	-0.076133	-0.221025	-0.094097	-0.0932122	-0.242834	-0.074476	-0.151043	0.220923	-0.320238	-0.180197	-0.271145	0.175207	-0.342502	-0.0801873	-0.600694	-0.015455	
2.75268	0	5	-0.490922	0.376636	-0.436684	-0.032594	-0.351571	0.305848	-0.219991	0.261114	-0.600851	0.375789	-0.481794	0.203268	-0.19334	-0.06244	-0.378412	0.212386	-0.076133	-0.221025	-0.096941	-0.096514	-0.248397	-0.074172	-0.15638	0.221099	-0.327281	-0.179745	-0.273633	0.175196	-0.340476	-0.085912	-0.607301	-0.011138	
2.75421	0	5	-0.50755	0.372993	-0.444322	-0.0244225	-0.350386	0.302499	-0.219991	0.261114	-0.596876	0.371544	-0.478969	0.207541	-0.190859	-0.058848	-0.379592	0.21572	-0.076133	-0.221025	-0.0957542	-0.0998683	-0.248397	-0.074172	-0.161712	0.221273	-0.324418	-0.187835	-0.277627	0.179443	-0.344796	-0.0852885	-0.611001	-0.015025	
2.74963	0	5	-0.524178	0.369351	-0.45196	-0.016251	-0.349201	0.29915	-0.219991	0.261114	-0.592901	0.367298	-0.476143	0.211814	-0.188378	-0.055256	-0.380772	0.219054	-0.076133	-0.221025	-0.0945675	-0.103222	-0.248397	-0.074172	-0.167044	0.221448	-0.321555	-0.195926	-0.281621	0.18369	-0.349116	-0.084665	-0.614701	-0.018912	
2.75116	0	5	-0.540806	0.365708	-0.459598	-0.0080795	-0.348016	0.2958	-0.219991	0.261114	-0.588927	0.363053	-0.473318	0.216087	-0.185897	-0.051664	-0.381951	0.222389	-0.076133	-0.221025	-0.0933807	-0.106577	-0.248397	-0.074172	-0.172376	0.221622	-0.318693	-0.204016	-0.285615	0.187937	-0.353437	-0.0840415	-0.618401	-0.022799	
2.74963	0	5	-0.557434	0.362065	-0.467236	9.2E-05	-0.346831	0.292451	-0.219991	0.261114	-0.584952	0.358808	-0.470493	0.22036	-0.183416	-0.048072	-0.383131	0.225723	-0.076133	-0.221025	-0.092194	-0.109931	-0.248397	-0.074172	-0.177708	0.221796	-0.31583	-0.212107	-0.289609	0.192184	-0.357757	-0.083418	-0.622101	-0.026686	
2.74505	0	5	-0.566273	0.353363	-0.473405	0.00412325	-0.35381	0.289292	-0.224129	0.263818	-0.584952	0.358808	-0.478953	0.232013	-0.182216	-0.0514632	-0.384311	0.229058	-0.076133	-0.221025	-0.094568	-0.103221	-0.251177	-0.0740207	-0.177708	0.221796	-0.321257	-0.206488	-0.292095	0.192171	-0.357757	-0.083418	-0.623552	-0.0225865	
2.74963	0	5	-0.575111	0.344662	-0.479575	0.0081545	-0.360789	0.286134	-0.228268	0.266522	-0.584952	0.358808	-0.487414	0.243666	-0.181016	-0.0548545	-0.385491	0.232394	-0.076133	-0.221025	-0.096942	-0.096512	-0.253957	-0.0738695	-0.177708	0.221796	-0.326684	-0.200869	-0.29458	0.192158	-0.357757	-0.083418	-0.625002	-0.018487	
2.74505	0	5	-0.58395	0.33596	-0.485745	0.0121858	-0.367767	0.282975	-0.232406	0.269226	-0.584952	0.358808	-0.495874	0.255319	-0.179816	-0.0582457	-0.386672	0.235729	-0.076133	-0.221025	-0.099316	-0.0898025	-0.256736	-0.0737182	-0.177708	0.221796	-0.332111	-0.195251	-0.297065	0.192145	-0.357757	-0.083418	-0.626452	-0.0143875	
2.75116	0	5	-0.592789	0.327258	-0.491914	0.016217	-0.374746	0.279816	-0.236544	0.27193	-0.584952	0.358808	-0.504335	0.266972	-0.178616	-0.061637	-0.387852	0.239064	-0.076133	-0.221025	-0.10169	-0.083093	-0.259516	-0.073567	-0.177708	0.221796	-0.337538	-0.189632	-0.299551	0.192132	-0.357757	-0.083418	-0.627903	-0.010288	
2.74505	0	5	-0.595541	0.318219	-0.488986	0.00794425	-0.376458	0.273225	-0.239754	0.272014	-0.588168	0.360909	-0.508563	0.266672	-0.178616	-0.061637	-0.391339	0.238779	-0.0804833	-0.218183	-0.105719	-0.0830402	-0.262294	-0.0734162	-0.176185	0.217493	-0.336584	-0.192328	-0.302789	0.194247	-0.357757	-0.083418	-0.630806	-0.0020835	
2.74963	0	5	-0.598294	0.309179	-0.486059	-0.0003285	-0.378171	0.266633	-0.242963	0.272097	-0.591384	0.363011	-0.512792	0.266371	-0.178616	-0.061637	-0.394827	0.238493	-0.0848335	-0.21534	-0.109747	-0.0829875	-0.265073	-0.0732655	-0.174663	0.213191	-0.33563	-0.195024	-0.306027	0.196363	-0.357757	-0.083418	-0.633709	0.006121	
2.74963	0	5	-0.601046	0.30014	-0.483132	-0.00860125	-0.379883	0.260042	-0.246172	0.27218	-0.5946	0.365112	-0.51702	0.266071	-0.178616	-0.061637	-0.398315	0.238208	-0.0891838	-0.212498	-0.113776	-0.0829348	-0.267851	-0.0731148	-0.173141	0.208888	-0.334676	-0.19772	-0.309265	0.198479	-0.357757	-0.083418	-0.636612	0.0143255	
2.74505	0	5	-0.603798	0.2911	-0.480204	-0.016874	-0.381595	0.253451	-0.249382	0.272264	-0.597816	0.367213	-0.521248	0.265771	-0.178616	-0.061637	-0.401802	0.237923	-0.093534	-0.209655	-0.117805	-0.082882	-0.270629	-0.072964	-0.171618	0.204585	-0.333722	-0.200416	-0.312503	0.200594	-0.357757	-0.083418	-0.639515	0.02253	
2.74658	0	5	-0.603235	0.272707	-0.480204	-0.016874	-0.380413	0.250111	-0.243889	0.274718	-0.597816	0.367213	-0.519839	0.261789	-0.177417	-0.0650267	-0.399443	0.231256	-0.092539	-0.212467	-0.119459	-0.0895345	-0.27264	-0.0749777	-0.176946	0.20476	-0.340754	-0.199965	-0.312503	0.200594	-0.361063	-0.085655	-0.657838	0.0313483	
2.74505	0	5	-0.602672	0.254314	-0.480204	-0.016874	-0.379231	0.246771	-0.238395	0.277171	-0.597816	0.367213	-0.51843	0.257806	-0.176217	-0.0684165	-0.397084	0.224589	-0.091544	-0.21528	-0.121112	-0.096187	-0.274651	-0.0769915	-0.182274	0.204935	-0.347785	-0.199513	-0.312503	0.200594	-0.364369	-0.087892	-0.676161	0.0401665	
2.74353	0	5	-0.60211	0.235922	-0.480204	-0.016874	-0.378049	0.24343	-0.232902	0.279624	-0.597816	0.367213	-0.51702	0.253824	-0.175017	-0.0718063	-0.394725	0.217922	-0.090549	-0.218092	-0.122765	-0.10284	-0.276663	-0.0790052	-0.187602	0.20511	-0.354817	-0.199062	-0.312503	0.200594	-0.367675	-0.090129	-0.694485	0.0489848	
2.74353	0	5	-0.601547	0.217529	-0.480204	-0.016874	-0.376867	0.24009	-0.227409	0.282078	-0.597816	0.367213	-0.515611	0.249842	-0.173818	-0.075196	-0.392366	0.211255	-0.089554	-0.220904	-0.124419	-0.109492	-0.278674	-0.081019	-0.19293	0.205285	-0.361849	-0.19861	-0.312503	0.200594	-0.370981	-0.092366	-0.712808	0.057803	
2.742	0	5	-0.619738	0.218623	-0.484596	-0.00446175	-0.378049	0.24343	-0.226555	0.29766	-0.591383	0.363009	-0.51702	0.253824	-0.170134	-0.074997	-0.398211	0.217636	-0.0852035	-0.223747	-0.123233	-0.112843	-0.278674	-0.081019	-0.198253	0.205458	-0.361849	-0.19861	-0.31574	0.202709	-0.375296	-0.091744	-0.712808	0.057803	
2.74353	0	5	-0.63793	0.219717	-0.488988	0.0079505	-0.379231	0.246771	-0.225701	0.313243	-0.58495	0.358806	-0.51843	0.257806	-0.166451	-0.074798	-0.404055	0.224017	-0.080853	-0.226589	-0.122048	-0.116193	-0.278674	-0.081019	-0.203576	0.205632	-0.361849	-0.19861	-0.318976	0.204824	-0.37961	-0.091122	-0.712808	0.057803	
2.74505	0	5	-0.656121	0.220811	-0.49338	0.0203627	-0.380413	0.250111	-0.224847	0.328825	-0.578516	0.354603	-0.519839	0.261789	-0.162767	-0.074599	-0.409899	0.230399	-0.0765025	-0.229432	-0.120863	-0.119543	-0.278674	-0.081019	-0.208899	0.205806	-0.361849	-0.19861	-0.322213	0.206939	-0.383925	-0.0905	-0.712808	0.057803	
2.74811	0	5	-0.674312	0.221905	-0.497772	0.032775	-0.381595	0.253451	-0.223993	0.344408	-0.572083	0.350399	-0.521248	0.265771	-0.159083	-0.0744	-0.415744	0.23678	-0.072152	-0.232275	-0.119677	-0.122894	-0.278674	-0.081019	-0.214222	0.205979	-0.361849	-0.19861	-0.32545	0.209054	-0.38824	-0.089878	-0.712808	0.057803	
2.74353	0	5	-0.683105	0.213287	-0.503637	0.0493512	-0.38396	0.260136	-0.223149	0.360035	-0.568864	0.348296	-0.519841	0.274045	-0.163966	-0.0712093	-0.415744	0.23678	-0.0731472	-0.229463	-0.123702	-0.122839	-0.275897	-0.08117	-0.214222	0.205979	-0.357381	-0.20153	-0.328686	0.211168	-0.38824	-0.089878	-0.709126	0.0617075	
2.74505	0	5	-0.691898	0.20467	-0.509503	0.0659275	-0.386325	0.266821	-0.222305	0.375662	-0.565646	0.346193	-0.518435	0.282319	-0.168849	-0.0680185	-0.415744	0.23678	-0.0741425	-0.22665	-0.127727	-0.122784	-0.273119	-0.081321	-0.214222	0.205979	-0.352912	-0.20445	-0.331921	0.213282	-0.38824	-0.089878	-0.705444	0.065612	
2.74505	0	5	-0.700692	0.196052	-0.515369	0.0825038	-0.388691	0.273505	-0.22146	0.391289	-0.562427	0.34409	-0.517028	0.290593	-0.173733	-0.0648277	-0.415744	0.23678	-0.0751378	-0.223837	-0.131751	-0.122729	-0.270342	-0.081472	-0.214222	0.205979	-0.348444	-0.207369	-0.335157	0.215397	-0.38824	-0.089878	-0.701761	0.0695165	
2.742	0	5	-0.709485	0.187434	-0.521234	0.09908	-0.391056	0.28019	-0.220616	0.406916	-0.559209	0.341987	-0.515621	0.298867	-0.178616	-0.061637	-0.415744	0.23678	-0.076133	-0.221025	-0.135776	-0.122674	-0.267565	-0.081623	-0.214222	0.205979	-0.343976	-0.210289	-0.338392	0.217511	-0.38824	-0.089878	-0.698079	0.073421	
2.74353	0	5	-0.713877	0.183133	-0.522702	0.103229	-0.384612	0.273409	-0.221131	0.417383	-0.563186	0.346234	-0.521259	0.302551	-0.177417	-0.0650267	-0.414565	0.233447	-0.076133	-0.221025	-0.139798	-0.12262	-0.271108	-0.0793077	-0.21954	0.206151	-0.349398	-0.204675	-0.338392	0.217511	-0.389251	-0.0870198	-0.702441	0.0857475	
2.742	0	5	-0.718268	0.178832	-0.52417	0.107378	-0.378169	0.266629	-0.221645	0.427851	-0.567163	0.35048	-0.526897	0.306235	-0.176217	-0.0684165	-0.413385	0.230114	-0.076133	-0.221025	-0.143819	-0.122566	-0.274651	-0.0769925	-0.224859	0.206323	-0.35482	-0.199061	-0.338392	0.217511	-0.390262	-0.0841615	-0.706802	0.098074	
2.74811	0	5	-0.72266	0.174531	-0.525638	0.111527	-0.371725	0.259849	-0.22216	0.438318	-0.57114	0.354727	-0.532535	0.309919	-0.175017	-0.0718063	-0.412206	0.226781	-0.076133	-0.221025	-0.147841	-0.122512	-0.278194	-0.0746773	-0.230178	0.206495	-0.360241	-0.193447	-0.338392	0.217511	-0.391274	-0.0813032	-0.711163	0.1104	
2.74353	0	5	-0.727051	0.17023	-0.527106	0.115676	-0.365281	0.253068	-0.222674	0.448785	-0.575117	0.358974	-0.538173	0.313603	-0.173818	-0.075196	-0.411027	0.223448	-0.076133	-0.221025	-0.151863	-0.122458	-0.281737	-0.072362	-0.235496	0.206667	-0.365663	-0.187833	-0.338392	0.217511	-0.392285	-0.078445	-0.715525	0.122727	
2.74505	0	5	-0.727051	0.17023	-0.523585	0.132545	-0.367647	0.259755	-0.216757	0.459127	-0.575117	0.358974	-0.542396	0.313297	-0.173818	-0.075196	-0.411027	0.223448	-0.0751378	-0.223837	-0.148312	-0.132494	-0.283747	-0.0743757	-0.232458	0.19808	-0.368223	-0.190303	-0.341626	0.219624	-0.391274	-0.0813032	-0.72135	0.139189	
2.74353	0	5	-0.727051	0.17023	-0.520064	0.149414	-0.370013	0.266442	-0.210839	0.469469	-0.575117	0.358974	-0.546619	0.312991	-0.173818	-0.075196	-0.411027	0.223448	-0.0741425	-0.22665	-0.144761	-0.142531	-0.285757	-0.0763895	-0.229419	0.189493	-0.370782	-0.192773	-0.344861	0.221738	-0.390262	-0.0841615	-0.727175	0.15565	
2.74505	0	5	-0.727051	0.17023	-0.516544	0.166282	-0.37238	0.273129	-0.204921	0.479811	-0.575117	0.358974	-0.550842	0.312684	-0.173818	-0.075196	-0.411027	0.223448	-0.0731472	-0.229463	-0.141209	-0.152567	-0.287768	-0.0784033	-0.226381	0.180905	-0.373341	-0.195242	-0.348095	0.223851	-0.389251	-0.0870198	-0.733	0.172112	
2.74353	0	5	-0.727051	0.17023	-0.513023	0.183151	-0.374746	0.279816	-0.199004	0.490153	-0.575117	0.358974	-0.555065	0.312378	-0.173818	-0.075196	-0.411027	0.223448	-0.072152	-0.232275	-0.137658	-0.162603	-0.289778	-0.080417	-0.223343	0.172318	-0.375901	-0.197712	-0.351329	0.225964	-0.38824	-0.089878	-0.738825	0.188574	
2.74048	0	5	-0.721572	0.188184	-0.503042	0.208698	-0.370138	0.289674	-0.197365	0.52167	-0.571898	0.356871	-0.548028	0.316981	-0.166448	-0.0747985	-0.409901	0.230402	-0.072152	-0.232275	-0.141678	-0.162546	-0.289778	-0.080417	-0.228658	0.172493	-0.373996	-0.203097	-0.348095	0.223851	-0.394574	-0.0835415	-0.741741	0.196817	
