0.473	1.72577	0	0	-0.602805	0.184207	-0.347249	-0.317731	0.175542	0.714304	-0.339101	0.524408	-0.076219	1.01821	-0.353923	0.552013	-0.486604	1.26658	-0.249845	0.748788	-0.239587	1.09549	-0.263933	0.700471	-0.122304	1.1061	-0.281364	1.06676	-0.118392	0.818074	-0.109572	0.664926	-0.052715	0.810649	-0.255298	1.05141	
0.598308	1.72272	0	0	-0.609818	0.167289	-0.35904	-0.346102	0.180402	0.70057	-0.351798	0.504037	-0.0673905	1.01244	-0.366069	0.536383	-0.489005	1.25909	-0.254829	0.742552	-0.244082	1.09608	-0.262711	0.697018	-0.129813	1.10678	-0.285454	1.06153	-0.126265	0.811588	-0.117249	0.656636	-0.0636862	0.800675	-0.259248	1.0381	
0.703614	1.72577	0	0	-0.616831	0.150371	-0.370832	-0.374472	0.185261	0.686836	-0.364494	0.483666	-0.058562	1.00667	-0.378215	0.520752	-0.491407	1.2516	-0.259814	0.736316	-0.248577	1.09666	-0.261489	0.693566	-0.137323	1.10747	-0.289544	1.0563	-0.134137	0.805102	-0.124925	0.648346	-0.0746575	0.790701	-0.263198	1.02479	
0.790365	1.72424	0	0	-0.623843	0.133452	-0.382624	-0.402843	0.190121	0.673102	-0.377191	0.463295	-0.0497335	1.0009	-0.390362	0.505122	-0.493808	1.24411	-0.264798	0.73008	-0.253072	1.09724	-0.260268	0.690113	-0.144832	1.10816	-0.293634	1.05107	-0.14201	0.798616	-0.132602	0.640057	-0.0856288	0.780726	-0.267148	1.01148	
0.860004	1.72272	0	0	-0.630856	0.116534	-0.394415	-0.431214	0.194981	0.659368	-0.389888	0.442924	-0.040905	0.995134	-0.402508	0.489492	-0.49621	1.23662	-0.269782	0.723844	-0.257567	1.09782	-0.259046	0.68666	-0.152341	1.10884	-0.297724	1.04585	-0.149883	0.79213	-0.140278	0.631767	-0.0966	0.770752	-0.271098	0.998164	
0.913977	1.72272	0	0	-0.622633	0.0932955	-0.402045	-0.458861	0.201045	0.64223	-0.395824	0.426029	-0.0320675	0.989359	-0.404749	0.479204	-0.49621	1.23662	-0.27943	0.720668	-0.257567	1.09782	-0.264852	0.690454	-0.156092	1.10918	-0.309524	1.04566	-0.152505	0.789971	-0.148962	0.626373	-0.104596	0.762672	-0.277481	0.99176	
0.953727	1.72424	0	0	-0.61441	0.070057	-0.409674	-0.486507	0.207109	0.625092	-0.40176	0.409133	-0.02323	0.983584	-0.40699	0.468915	-0.49621	1.23662	-0.289078	0.717493	-0.257567	1.09782	-0.270657	0.694248	-0.159843	1.10953	-0.321323	1.04548	-0.155127	0.787811	-0.157647	0.620978	-0.112591	0.754593	-0.283863	0.985356	
0.9807	1.72729	0	0	-0.606188	0.0468185	-0.417303	-0.514154	0.213173	0.607954	-0.407696	0.392238	-0.0143925	0.97781	-0.409231	0.458626	-0.49621	1.23662	-0.298726	0.714317	-0.257567	1.09782	-0.276463	0.698041	-0.163595	1.10987	-0.333123	1.0453	-0.157748	0.785652	-0.166331	0.615584	-0.120586	0.746514	-0.290246	0.978951	
0.99634	1.72424	0	0	-0.597965	0.02358	-0.424933	-0.541801	0.219237	0.590816	-0.413632	0.375343	-0.005555	0.972035	-0.411472	0.448338	-0.49621	1.23662	-0.308374	0.711141	-0.257567	1.09782	-0.282269	0.701835	-0.167346	1.11021	-0.344923	1.04512	-0.16037	0.783493	-0.175015	0.61019	-0.128582	0.738434	-0.296629	0.972547	
1.00209	1.72424	0	0	-0.600093	-0.00707125	-0.440865	-0.570346	0.223967	0.564073	-0.418775	0.34508	-0.004686	0.969579	-0.427185	0.442965	-0.506561	1.23735	-0.316917	0.704892	-0.262059	1.0984	-0.284713	0.708742	-0.173036	1.11604	-0.349	1.0399	-0.162991	0.781335	-0.179102	0.60181	-0.1263	0.72177	-0.309831	0.973253	
0.9994	1.72424	0	0	-0.602221	-0.0377225	-0.456797	-0.59889	0.228697	0.53733	-0.423919	0.314816	-0.003817	0.967124	-0.442897	0.437592	-0.516912	1.23808	-0.32546	0.698642	-0.266551	1.09898	-0.287157	0.715649	-0.178725	1.12186	-0.353078	1.03468	-0.165611	0.779177	-0.18319	0.59343	-0.124018	0.705105	-0.323033	0.973959	
0.989709	1.72424	0	0	-0.604348	-0.0683737	-0.472729	-0.627435	0.233427	0.510587	-0.429063	0.284553	-0.002948	0.964668	-0.45861	0.43222	-0.527264	1.23881	-0.334002	0.692392	-0.271042	1.09956	-0.289601	0.722555	-0.184415	1.12769	-0.357156	1.02947	-0.168232	0.777019	-0.187277	0.58505	-0.121735	0.688441	-0.336235	0.974665	
0.974465	1.72424	0	0	-0.606476	-0.099025	-0.488661	-0.65598	0.238157	0.483844	-0.434206	0.25429	-0.002079	0.962212	-0.474323	0.426847	-0.537615	1.23954	-0.342545	0.686143	-0.275534	1.10014	-0.292045	0.729462	-0.190105	1.13352	-0.361233	1.02425	-0.170852	0.774861	-0.191364	0.57667	-0.119453	0.671777	-0.349437	0.975371	
0.955111	1.72272	0	0	-0.605108	-0.121197	-0.490678	-0.686956	0.240446	0.464008	-0.44174	0.23089	-0.002948	0.964668	-0.468935	0.41162	-0.538625	1.22815	-0.352161	0.682976	-0.277857	1.0946	-0.292045	0.729462	-0.192881	1.13111	-0.365308	1.01904	-0.176089	0.770549	-0.197999	0.565564	-0.125703	0.658831	-0.353372	0.962128	
0.933092	1.72729	0	0	-0.603739	-0.14337	-0.492695	-0.717933	0.242735	0.444171	-0.449275	0.207489	-0.003817	0.967124	-0.463548	0.396393	-0.539635	1.21676	-0.361777	0.679809	-0.280179	1.08906	-0.292045	0.729462	-0.195657	1.12871	-0.369383	1.01382	-0.181327	0.766238	-0.204634	0.554458	-0.131953	0.645885	-0.357306	0.948886	
0.909853	1.72424	0	0	-0.602371	-0.165542	-0.494711	-0.74891	0.245025	0.424335	-0.456809	0.184089	-0.004686	0.969579	-0.45816	0.381166	-0.540645	1.20537	-0.371393	0.676641	-0.282502	1.08351	-0.292045	0.729462	-0.198432	1.12631	-0.373458	1.00861	-0.186564	0.761926	-0.211268	0.543353	-0.138203	0.632939	-0.361241	0.935643	
0.886751	1.72272	0	0	-0.601003	-0.187715	-0.496728	-0.779886	0.247314	0.404499	-0.464343	0.160689	-0.005555	0.972035	-0.452772	0.365939	-0.541655	1.19398	-0.381009	0.673474	-0.284824	1.07797	-0.292045	0.729462	-0.201208	1.1239	-0.377533	1.0034	-0.191801	0.757614	-0.217903	0.532247	-0.144453	0.619993	-0.365176	0.9224	
0.864478	1.71509	0	0	-0.604818	-0.213491	-0.504096	-0.82003	0.260683	0.380082	-0.472296	0.127451	0.0112783	0.962924	-0.453689	0.335419	-0.551612	1.17945	-0.387354	0.661113	-0.283904	1.06327	-0.294182	0.722895	-0.200106	1.11055	-0.391546	0.992915	-0.189934	0.733244	-0.224573	0.501441	-0.150181	0.595446	-0.366256	0.888967	
0.84342	1.71661	0	0	-0.608632	-0.239268	-0.511464	-0.860174	0.274052	0.355665	-0.480249	0.0942125	0.0281115	0.953813	-0.454606	0.304898	-0.561568	1.16492	-0.393699	0.648752	-0.282983	1.04857	-0.296319	0.716328	-0.199004	1.09719	-0.405559	0.982427	-0.188067	0.708875	-0.231242	0.470635	-0.155909	0.5709	-0.367336	0.855534	
0.823963	1.71203	0	0	-0.612446	-0.265044	-0.518833	-0.900318	0.287421	0.331248	-0.488202	0.0609743	0.0449448	0.944703	-0.455523	0.274377	-0.571524	1.15038	-0.400045	0.636391	-0.282063	1.03387	-0.298455	0.709761	-0.197902	1.08383	-0.419572	0.971938	-0.186201	0.684505	-0.237911	0.439828	-0.161636	0.546354	-0.368416	0.822102	
0.806492	1.70135	0	0	-0.616261	-0.29082	-0.526201	-0.940462	0.30079	0.306831	-0.496155	0.027736	0.061778	0.935592	-0.45644	0.243857	-0.581481	1.13585	-0.40639	0.62403	-0.281143	1.01917	-0.300592	0.703194	-0.1968	1.07048	-0.433585	0.96145	-0.184334	0.660136	-0.244581	0.409022	-0.167364	0.521807	-0.369496	0.788669	
0.791392	1.70441	0	0	-0.620733	-0.351081	-0.545693	-0.994616	0.310387	0.279707	-0.510092	-0.021677	0.0802905	0.912172	-0.469026	0.213379	-0.583519	1.11322	-0.410569	0.605595	-0.285793	1.00814	-0.303949	0.700084	-0.19474	1.05442	-0.432241	0.940983	-0.189531	0.646221	-0.251741	0.38963	-0.166345	0.498594	-0.36227	0.768248	
0.779055	1.71661	0	0	-0.625205	-0.411341	-0.565185	-1.04877	0.319985	0.252583	-0.524028	-0.07109	0.098803	0.888753	-0.481612	0.1829	-0.585557	1.09059	-0.414747	0.58716	-0.290444	0.997112	-0.307306	0.696973	-0.19268	1.03836	-0.430896	0.920516	-0.194728	0.632305	-0.258902	0.370237	-0.165326	0.47538	-0.355045	0.747827	
0.770019	1.72272	0	0	-0.629677	-0.471601	-0.584677	-1.10292	0.329583	0.225459	-0.537964	-0.120503	0.117316	0.865333	-0.494198	0.152422	-0.587595	1.06795	-0.418926	0.568726	-0.295094	0.986082	-0.310663	0.693863	-0.190619	1.0223	-0.429551	0.900049	-0.199926	0.61839	-0.266062	0.350845	-0.164307	0.452166	-0.34782	0.727407	
0.764959	1.72272	0	0	-0.634149	-0.531862	-0.604169	-1.15708	0.33918	0.198335	-0.551901	-0.169916	0.135828	0.841913	-0.506784	0.121944	-0.589633	1.04532	-0.423105	0.550291	-0.299745	0.975051	-0.31402	0.690753	-0.188559	1.00624	-0.428207	0.879582	-0.205123	0.604475	-0.273222	0.331452	-0.163288	0.428953	-0.340594	0.706986	
0.764559	1.73645	5	0	-0.651874	-0.572491	-0.615717	-1.19692	0.338837	0.172582	-0.558744	-0.205861	0.143736	0.829207	-0.509533	0.096778	-0.594434	1.03054	-0.424817	0.534992	-0.29884	0.960419	-0.310362	0.680414	-0.18651	0.99022	-0.421013	0.85925	-0.207676	0.583129	-0.272832	0.300683	-0.164382	0.401587	-0.330985	0.679831	
0.769502	1.73645	5	0	-0.669599	-0.61312	-0.627265	-1.23675	0.338494	0.146829	-0.565587	-0.241807	0.151644	0.816501	-0.512283	0.071612	-0.599235	1.01576	-0.426528	0.519694	-0.297936	0.945788	-0.306704	0.670076	-0.184462	0.974199	-0.413819	0.838919	-0.210228	0.561783	-0.272442	0.269913	-0.165477	0.374221	-0.321377	0.652676	
0.78047	1.7395	5	0	-0.687325	-0.65375	-0.638813	-1.27659	0.338151	0.121076	-0.572431	-0.277752	0.159552	0.803795	-0.515033	0.046446	-0.604036	1.00098	-0.42824	0.504395	-0.297031	0.931156	-0.303046	0.659737	-0.182414	0.958179	-0.406625	0.818588	-0.21278	0.540437	-0.272051	0.239144	-0.166572	0.346855	-0.311769	0.625522	
0.798142	1.7395	5	0	-0.70505	-0.694379	-0.650361	-1.31643	0.337808	0.095323	-0.579274	-0.313697	0.16746	0.791089	-0.517782	0.02128	-0.608837	0.986196	-0.429952	0.489097	-0.296126	0.916524	-0.299388	0.649399	-0.180365	0.942159	-0.399431	0.798256	-0.215333	0.519091	-0.271661	0.208374	-0.167666	0.319489	-0.30216	0.598367	
0.821329	1.7334	5	0	-0.717629	-0.73109	-0.656629	-1.34687	0.342387	0.0690353	-0.584542	-0.342919	0.180788	0.78238	-0.520554	-0.003766	-0.606093	0.97844	-0.430272	0.479943	-0.295231	0.901927	-0.292372	0.642167	-0.183143	0.939785	-0.394046	0.783038	-0.211789	0.499565	-0.277844	0.186366	-0.167555	0.298897	-0.302562	0.575219	
0.844069	1.72729	5	0	-0.730209	-0.767802	-0.662896	-1.37732	0.346966	0.0427475	-0.58981	-0.372141	0.194117	0.773671	-0.523325	-0.028812	-0.603348	0.970684	-0.430592	0.470789	-0.294336	0.887331	-0.285355	0.634935	-0.185922	0.937412	-0.388661	0.767819	-0.208246	0.48004	-0.284027	0.164358	-0.167444	0.278304	-0.302964	0.552071	
0.859649	1.71814	5	0	-0.742788	-0.804513	-0.669164	-1.40776	0.351545	0.0164597	-0.595078	-0.401363	0.207446	0.764962	-0.526096	-0.053858	-0.600604	0.962929	-0.430913	0.461635	-0.293441	0.872734	-0.278338	0.627703	-0.1887	0.935038	-0.383277	0.752601	-0.204702	0.460514	-0.29021	0.14235	-0.167332	0.257711	-0.303366	0.528923	
0.861355	1.72272	5	0	-0.755367	-0.841225	-0.675432	-1.43821	0.356124	-0.009828	-0.600346	-0.430585	0.220774	0.756253	-0.528868	-0.078904	-0.59786	0.955173	-0.431233	0.452481	-0.292546	0.858138	-0.271322	0.620471	-0.191478	0.932665	-0.377892	0.737383	-0.201158	0.440989	-0.296393	0.120342	-0.167221	0.237119	-0.303768	0.505775	
0.842475	1.71661	5	0	-0.778175	-0.884638	-0.680288	-1.47252	0.349592	-0.031352	-0.601727	-0.459697	0.223374	0.748906	-0.529906	-0.108791	-0.593748	0.943552	-0.431557	0.443342	-0.292732	0.846605	-0.273467	0.613937	-0.190405	0.919412	-0.376602	0.717085	-0.205498	0.424753	-0.30711	0.101395	-0.176441	0.222685	-0.315339	0.490005	
0.796294	1.71661	5	0	-0.800982	-0.92805	-0.685145	-1.50683	0.343061	-0.052876	-0.603108	-0.48881	0.225973	0.741559	-0.530944	-0.138679	-0.589636	0.931932	-0.431881	0.434203	-0.292918	0.835072	-0.275613	0.607403	-0.189331	0.906159	-0.375312	0.696786	-0.209838	0.408517	-0.317828	0.082449	-0.18566	0.20825	-0.326911	0.474235	
0.719137	1.72119	5	0	-0.82379	-0.971463	-0.690001	-1.54114	0.33653	-0.0744	-0.604488	-0.517922	0.228573	0.734211	-0.531981	-0.168567	-0.585524	0.920311	-0.432205	0.425063	-0.293105	0.823539	-0.277759	0.60087	-0.188258	0.892906	-0.374021	0.676488	-0.214178	0.392282	-0.328545	0.0635025	-0.19488	0.193816	-0.338482	0.458465	
0.626144	1.72424	5	0	-0.846598	-1.01488	-0.694857	-1.57545	0.329998	-0.095924	-0.605869	-0.547034	0.231173	0.726864	-0.533019	-0.198454	-0.581412	0.90869	-0.432529	0.415924	-0.293291	0.812006	-0.279904	0.594336	-0.187185	0.879653	-0.372731	0.65619	-0.218518	0.376046	-0.339262	0.044556	-0.204099	0.179381	-0.350054	0.442695	
0.539649	1.72272	5	0	-0.872465	-1.04902	-0.70138	-1.59296	0.330974	-0.11199	-0.601752	-0.569661	0.258352	0.679058	-0.546867	-0.20844	-0.566995	0.896294	-0.422196	0.406837	-0.292413	0.797473	-0.279904	0.594336	-0.182379	0.86607	-0.376814	0.651091	-0.218498	0.357015	-0.343902	0.0281897	-0.201068	0.160707	-0.367158	0.430619	
0.482	1.72119	5	0	-0.898332	-1.08317	-0.707904	-1.61047	0.331949	-0.128056	-0.597635	-0.592288	0.28553	0.631251	-0.560715	-0.218426	-0.552577	0.883898	-0.411864	0.397749	-0.291535	0.782939	-0.279904	0.594336	-0.177573	0.852488	-0.380896	0.645992	-0.218479	0.337983	-0.348542	0.0118235	-0.198038	0.142033	-0.384261	0.418543	
0.469941	1.72272	5	0	-0.9242	-1.11731	-0.714427	-1.62798	0.332924	-0.144123	-0.593518	-0.614915	0.312709	0.583445	-0.574563	-0.228412	-0.53816	0.871502	-0.401532	0.388662	-0.290656	0.768405	-0.279904	0.594336	-0.172767	0.838905	-0.384979	0.640893	-0.21846	0.318951	-0.353181	-0.00454275	-0.195007	0.123358	-0.401365	0.406467	
0.497803	1.71661	5	0	-0.950067	-1.15145	-0.720951	-1.64549	0.3339	-0.160189	-0.589401	-0.637542	0.339887	0.535639	-0.588411	-0.238398	-0.523743	0.859106	-0.391199	0.379575	-0.289778	0.753872	-0.279904	0.594336	-0.167961	0.825322	-0.389062	0.635794	-0.21844	0.29992	-0.357821	-0.020909	-0.191976	0.104684	-0.418469	0.394391	
0.554309	1.72119	5	0	-0.970764	-1.18187	-0.727474	-1.66293	0.307436	-0.191527	-0.589219	-0.660021	0.315387	0.518001	-0.590689	-0.248305	-0.515843	0.85097	-0.386567	0.376548	-0.286571	0.744807	-0.281121	0.597776	-0.164122	0.814471	-0.37605	0.615658	-0.217563	0.287961	-0.362894	-0.0261977	-0.199956	0.096942	-0.412539	0.377632	
0.628188	1.72119	5	0	-0.991461	-1.21228	-0.733998	-1.68037	0.280972	-0.222865	-0.589037	-0.6825	0.290887	0.500363	-0.592968	-0.258212	-0.507942	0.842834	-0.381934	0.373521	-0.283363	0.735742	-0.282338	0.601215	-0.160282	0.803619	-0.363039	0.595522	-0.216687	0.276003	-0.367968	-0.0314865	-0.207935	0.0892	-0.406609	0.360874	
0.708164	1.72272	5	0	-1.01216	-1.24269	-0.740521	-1.69781	0.254509	-0.254203	-0.588855	-0.70498	0.266388	0.482724	-0.595246	-0.268118	-0.500042	0.834697	-0.377301	0.370494	-0.280156	0.726677	-0.283556	0.604654	-0.156442	0.792768	-0.350027	0.575387	-0.21581	0.264044	-0.373041	-0.0367752	-0.215915	0.081458	-0.40068	0.344116	
0.782962	1.71966	5	0	-1.03286	-1.2731	-0.747044	-1.71525	0.228045	-0.285541	-0.588673	-0.727459	0.241888	0.465086	-0.597524	-0.278025	-0.492142	0.826561	-0.372669	0.367467	-0.276948	0.717612	-0.284773	0.608094	-0.152603	0.781917	-0.337015	0.555251	-0.214933	0.252085	-0.378114	-0.042064	-0.223895	0.073716	-0.39475	0.327357	
0.841561	1.71814	5	0	-1.04493	-1.29211	-0.74827	-1.72373	0.203091	-0.307386	-0.58916	-0.737055	0.219487	0.461102	-0.601549	-0.282982	-0.479064	0.818016	-0.366622	0.370526	-0.273744	0.708556	-0.273173	0.600514	-0.148768	0.771079	-0.335232	0.550212	-0.219293	0.24546	-0.378672	-0.0502922	-0.222586	0.059929	-0.406654	0.324846	
0.879819	1.72272	5	0	-1.05701	-1.31112	-0.749496	-1.73221	0.178136	-0.32923	-0.589646	-0.746652	0.197086	0.457118	-0.605573	-0.287938	-0.465987	0.80947	-0.360576	0.373584	-0.27054	0.6995	-0.261572	0.592935	-0.144933	0.760241	-0.33345	0.545174	-0.223654	0.238835	-0.37923	-0.0585205	-0.221276	0.046142	-0.418558	0.322335	
0.901157	1.72424	5	0	-1.06909	-1.33012	-0.750721	-1.74069	0.153181	-0.351075	-0.590133	-0.756248	0.174686	0.453133	-0.609598	-0.292895	-0.452909	0.800925	-0.354529	0.376643	-0.267335	0.690444	-0.249972	0.585355	-0.141098	0.749403	-0.331667	0.540136	-0.228014	0.23221	-0.379788	-0.0667487	-0.219967	0.032355	-0.430463	0.319824	
0.909383	1.72119	5	0	-1.08117	-1.34913	-0.751947	-1.74917	0.128227	-0.37292	-0.59062	-0.765844	0.152285	0.449149	-0.613622	-0.297852	-0.439831	0.79238	-0.348483	0.379702	-0.264131	0.681388	-0.238372	0.577775	-0.137263	0.738565	-0.329884	0.535097	-0.232374	0.225585	-0.380346	-0.074977	-0.218658	0.018568	-0.442367	0.317313	
0.908304	1.71814	5	0	-1.09784	-1.35499	-0.754794	-1.74112	0.107314	-0.379516	-0.583939	-0.762775	0.137204	0.453427	-0.611345	-0.287957	-0.419095	0.790735	-0.335292	0.382781	-0.25517	0.680173	-0.23622	0.584307	-0.134476	0.740909	-0.324003	0.535127	-0.231503	0.223123	-0.380346	-0.074977	-0.220751	0.0144008	-0.441184	0.31397	
0.901728	1.71661	5	0	-1.11452	-1.36085	-0.75764	-1.73307	0.086401	-0.386111	-0.577257	-0.759707	0.122122	0.457705	-0.609067	-0.278062	-0.398358	0.789089	-0.322101	0.38586	-0.246208	0.678959	-0.234068	0.59084	-0.13169	0.743253	-0.318121	0.535158	-0.230631	0.22066	-0.380346	-0.074977	-0.222843	0.0102335	-0.440002	0.310627	
0.893463	1.72272	5	0	-1.13119	-1.36671	-0.760487	-1.72503	0.065488	-0.392706	-0.570576	-0.756638	0.107041	0.461982	-0.60679	-0.268168	-0.377621	0.787443	-0.30891	0.388939	-0.237247	0.677744	-0.231916	0.597373	-0.128903	0.745596	-0.31224	0.535189	-0.22976	0.218198	-0.380346	-0.074977	-0.224936	0.00606625	-0.438819	0.307284	
0.88728	1.71966	5	0	-1.14787	-1.37258	-0.763334	-1.71698	0.044575	-0.399302	-0.563895	-0.753569	0.09196	0.46626	-0.604513	-0.258273	-0.356885	0.785798	-0.295719	0.392018	-0.228286	0.676529	-0.229764	0.603905	-0.126116	0.74794	-0.306358	0.535219	-0.228889	0.215735	-0.380346	-0.074977	-0.227029	0.001899	-0.437636	0.303941	
0.885015	1.72272	5	0	-1.15793	-1.37938	-0.763334	-1.71698	0.033459	-0.407195	-0.563895	-0.753569	0.0858427	0.473974	-0.602766	-0.263211	-0.338826	0.791893	-0.286075	0.395089	-0.221664	0.669882	-0.226392	0.607	-0.120451	0.742156	-0.296904	0.525168	-0.227147	0.210812	-0.383869	-0.0748218	-0.229969	0.000133	-0.43409	0.29392	
0.885652	1.72119	5	0	-1.168	-1.38618	-0.763334	-1.71698	0.022343	-0.415088	-0.563895	-0.753569	0.0797255	0.481688	-0.601019	-0.268149	-0.320766	0.797988	-0.276431	0.398161	-0.215042	0.663234	-0.223021	0.610094	-0.114786	0.736371	-0.28745	0.515117	-0.225405	0.205889	-0.387391	-0.0746665	-0.232909	-0.001633	-0.430544	0.283898	
0.887948	1.72119	5	0	-1.17806	-1.39298	-0.763334	-1.71698	0.011227	-0.422981	-0.563895	-0.753569	0.0736083	0.489403	-0.599271	-0.273087	-0.302706	0.804082	-0.266787	0.401232	-0.20842	0.656587	-0.219649	0.613189	-0.109121	0.730587	-0.277997	0.505066	-0.223663	0.200965	-0.390914	-0.0745113	-0.23585	-0.003399	-0.426998	0.273877	
0.890658	1.72119	5	0	-1.18812	-1.39978	-0.763334	-1.71698	0.000111	-0.430874	-0.563895	-0.753569	0.067491	0.497117	-0.597524	-0.278025	-0.284647	0.810177	-0.257143	0.404304	-0.201798	0.649939	-0.216278	0.616284	-0.103456	0.724803	-0.268543	0.495015	-0.221921	0.196042	-0.394437	-0.074356	-0.23879	-0.005165	-0.423452	0.263856	
0.892537	1.71966	5	0	-1.19817	-1.40657	-0.765784	-1.73392	-0.00982375	-0.442022	-0.56097	-0.772815	0.0710415	0.496657	-0.605571	-0.287932	-0.263498	0.793372	-0.25964	0.401248	-0.20073	0.646921	-0.210464	0.612485	-0.100582	0.716681	-0.266761	0.48998	-0.225408	0.196429	-0.397957	-0.0742015	-0.241729	-0.00693	-0.434528	0.271093	
0.89234	1.71966	5	0	-1.20821	-1.41336	-0.768235	-1.75086	-0.0197585	-0.453171	-0.558045	-0.792061	0.074592	0.496196	-0.613617	-0.297839	-0.242348	0.776566	-0.262138	0.398192	-0.199663	0.643903	-0.20465	0.608686	-0.097708	0.708558	-0.264979	0.484944	-0.228894	0.196815	-0.401478	-0.074047	-0.244668	-0.008695	-0.445603	0.27833	
0.888828	1.72272	5	0	-1.21826	-1.42014	-0.770686	-1.7678	-0.0296932	-0.464319	-0.555119	-0.811308	0.0781425	0.495735	-0.621664	-0.307746	-0.221199	0.759761	-0.264636	0.395135	-0.198595	0.640886	-0.198836	0.604887	-0.094834	0.700436	-0.263198	0.479908	-0.23238	0.197202	-0.404999	-0.0738925	-0.247607	-0.01046	-0.456678	0.285567	
0.881494	1.71966	5	0	-1.2283	-1.42693	-0.773136	-1.78474	-0.039628	-0.475468	-0.552194	-0.830554	0.081693	0.495275	-0.62971	-0.317653	-0.20005	0.742956	-0.267133	0.392079	-0.197527	0.637868	-0.193022	0.601088	-0.09196	0.692314	-0.261416	0.474873	-0.235867	0.197588	-0.408519	-0.073738	-0.250546	-0.012225	-0.467754	0.292804	
0.871328	1.71814	5	0	-1.21169	-1.42109	-0.773136	-1.78474	-0.0373122	-0.482013	-0.54828	-0.830638	0.0983472	0.476958	-0.62971	-0.317653	-0.190966	0.745981	-0.262478	0.389037	-0.193037	0.637254	-0.193022	0.601088	-0.0966662	0.695389	-0.259635	0.46984	-0.23238	0.197202	-0.413025	-0.0707938	-0.250546	-0.012225	-0.462218	0.289187	
0.859502	1.71814	5	0	-1.19508	-1.41526	-0.773136	-1.78474	-0.0349965	-0.488558	-0.544365	-0.830722	0.115002	0.458642	-0.62971	-0.317653	-0.181882	0.749006	-0.257823	0.385996	-0.188548	0.63664	-0.193022	0.601088	-0.101373	0.698464	-0.257854	0.464807	-0.228894	0.196815	-0.417531	-0.0678495	-0.250546	-0.012225	-0.456682	0.28557	
0.847188	1.71814	5	0	-1.17846	-1.40942	-0.773136	-1.78474	-0.0326808	-0.495103	-0.54045	-0.830806	0.131656	0.440325	-0.62971	-0.317653	-0.172797	0.752032	-0.253167	0.382954	-0.184058	0.636027	-0.193022	0.601088	-0.106079	0.701539	-0.256074	0.459775	-0.225408	0.196429	-0.422037	-0.0649052	-0.250546	-0.012225	-0.451146	0.281952	
0.835557	1.72424	5	0	-1.16185	-1.40358	-0.773136	-1.78474	-0.030365	-0.501648	-0.536536	-0.83089	0.14831	0.422008	-0.62971	-0.317653	-0.163713	0.755057	-0.248512	0.379912	-0.179568	0.635413	-0.193022	0.601088	-0.110785	0.704614	-0.254293	0.454742	-0.221921	0.196042	-0.426543	-0.061961	-0.250546	-0.012225	-0.44561	0.278335	
0.825781	1.71814	5	0	-1.1564	-1.3837	-0.778622	-1.78115	-0.038909	-0.503606	-0.537675	-0.827671	0.149876	0.407994	-0.625688	-0.312703	-0.153236	0.754192	-0.247434	0.376865	-0.179351	0.646883	-0.193022	0.601088	-0.108953	0.709661	-0.257856	0.46481	-0.219302	0.207587	-0.42247	-0.053886	-0.251002	-0.000865	-0.450339	0.291699	
0.818951	1.72119	5	0	-1.15095	-1.36383	-0.784109	-1.77757	-0.047453	-0.505564	-0.538814	-0.824453	0.151442	0.393979	-0.621666	-0.307752	-0.14276	0.753327	-0.246356	0.373817	-0.179134	0.658352	-0.193022	0.601088	-0.107121	0.714708	-0.261418	0.474878	-0.216682	0.219131	-0.418397	-0.045811	-0.251459	0.010495	-0.455068	0.305063	
0.815134	1.72424	5	0	-1.14551	-1.34395	-0.789596	-1.77398	-0.055997	-0.507521	-0.539952	-0.821234	0.153009	0.379964	-0.617644	-0.302802	-0.132283	0.752463	-0.245277	0.370769	-0.178917	0.669821	-0.193022	0.601088	-0.105288	0.719756	-0.26498	0.484947	-0.214062	0.230676	-0.414325	-0.037736	-0.251915	0.021855	-0.459796	0.318428	
0.813707	1.71661	5	0	-1.14006	-1.32407	-0.795082	-1.7704	-0.064541	-0.509479	-0.541091	-0.818015	0.154575	0.36595	-0.613622	-0.297852	-0.121807	0.751598	-0.244199	0.367722	-0.1787	0.681291	-0.193022	0.601088	-0.103456	0.724803	-0.268543	0.495015	-0.211443	0.242221	-0.410252	-0.029661	-0.252371	0.033215	-0.464525	0.331792	
0.814031	1.72119	5	0	-1.12647	-1.30943	-0.789596	-1.77398	-0.0756017	-0.517308	-0.539454	-0.811655	0.143765	0.358197	-0.602075	-0.297811	-0.11794	0.755057	-0.245621	0.361628	-0.170778	0.683091	-0.187204	0.597287	-0.100665	0.727145	-0.266761	0.48998	-0.207952	0.251323	-0.40871	-0.024219	-0.247343	0.0391613	-0.460169	0.331516	
0.815471	1.71966	5	0	-1.11288	-1.29479	-0.784109	-1.77757	-0.0866625	-0.525138	-0.537818	-0.805295	0.132955	0.350444	-0.590527	-0.29777	-0.114072	0.758516	-0.247044	0.355534	-0.162855	0.684891	-0.181387	0.593485	-0.0978735	0.729488	-0.264979	0.484944	-0.204462	0.260425	-0.407168	-0.018777	-0.242314	0.0451075	-0.455813	0.331241	
0.817388	1.71966	5	0	-1.0993	-1.28015	-0.778622	-1.78115	-0.0977233	-0.532967	-0.536182	-0.798936	0.122144	0.34269	-0.578979	-0.297729	-0.110205	0.761975	-0.248467	0.349439	-0.154933	0.68669	-0.175569	0.589684	-0.0950823	0.73183	-0.263198	0.479908	-0.200971	0.269527	-0.405625	-0.013335	-0.237285	0.0510538	-0.451456	0.330965	
0.819144	1.71966	5	0	-1.08571	-1.2655	-0.773136	-1.78474	-0.108784	-0.540796	-0.534545	-0.792576	0.111334	0.334937	-0.567432	-0.297688	-0.106338	0.765434	-0.249889	0.343345	-0.147011	0.68849	-0.169751	0.585883	-0.092291	0.734172	-0.261416	0.474873	-0.197481	0.278629	-0.404083	-0.007893	-0.232257	0.057	-0.4471	0.33069	
0.820284	1.71814	5	0	-1.08026	-1.24547	-0.775978	-1.77671	-0.119822	-0.548607	-0.534051	-0.782981	0.0927517	0.339682	-0.557611	-0.29271	-0.102468	0.768896	-0.247736	0.337259	-0.147871	0.703025	-0.169751	0.585883	-0.0961295	0.74502	-0.26498	0.484947	-0.192245	0.292317	-0.401	0.00301025	-0.229779	0.0701782	-0.451838	0.344079	
0.820891	1.72119	5	0	-1.07481	-1.22543	-0.778819	-1.76867	-0.13086	-0.556418	-0.533556	-0.773385	0.0741695	0.344428	-0.54779	-0.287732	-0.098598	0.772358	-0.245582	0.331174	-0.14873	0.717561	-0.169751	0.585883	-0.099968	0.755868	-0.268545	0.495021	-0.187008	0.306006	-0.397917	0.0139135	-0.227302	0.0833565	-0.456576	0.357468	
0.821151	1.71814	5	0	-1.06936	-1.20539	-0.781661	-1.76064	-0.141898	-0.564229	-0.533062	-0.76379	0.0555872	0.349173	-0.537968	-0.282753	-0.094728	0.775821	-0.243429	0.325089	-0.149589	0.732096	-0.169751	0.585883	-0.103806	0.766716	-0.27211	0.505095	-0.181772	0.319694	-0.394834	0.0248167	-0.224824	0.0965348	-0.461313	0.370857	
0.82125	1.71509	5	0	-1.06391	-1.18535	-0.784503	-1.75261	-0.152936	-0.57204	-0.532568	-0.754195	0.037005	0.353919	-0.528147	-0.277775	-0.090858	0.779283	-0.241276	0.319003	-0.150449	0.746631	-0.169751	0.585883	-0.107645	0.777564	-0.275674	0.515169	-0.176536	0.333382	-0.391751	0.03572	-0.222347	0.109713	-0.466051	0.384246	
0.821375	1.71814	5	0	-1.05184	-1.16617	-0.781661	-1.76064	-0.159133	-0.580485	-0.523583	-0.757584	0.0280905	0.350509	-0.522355	-0.277757	-0.0856052	0.778848	-0.239478	0.303811	-0.141441	0.745409	-0.171912	0.57935	-0.103894	0.7772	-0.27211	0.505095	-0.173923	0.345012	-0.391203	0.0439873	-0.219875	0.122926	-0.465253	0.394033	
0.82171	1.71814	5	0	-1.03977	-1.14698	-0.778819	-1.76867	-0.16533	-0.588931	-0.514598	-0.760973	0.019176	0.3471	-0.516562	-0.27774	-0.0803525	0.778413	-0.237679	0.28862	-0.132433	0.744188	-0.174073	0.572817	-0.100142	0.776835	-0.268545	0.495021	-0.171309	0.356641	-0.390655	0.0522545	-0.217402	0.136139	-0.464454	0.403821	
0.822433	1.72272	5	0	-1.0277	-1.1278	-0.775978	-1.77671	-0.171527	-0.597376	-0.505614	-0.764363	0.0102615	0.343691	-0.510769	-0.277722	-0.0750998	0.777979	-0.23588	0.273428	-0.123425	0.742966	-0.176235	0.566284	-0.0963912	0.77647	-0.26498	0.484947	-0.168695	0.368271	-0.390107	0.0605217	-0.214929	0.149352	-0.463655	0.413608	
0.823545	1.71661	5	0	-1.01563	-1.10861	-0.773136	-1.78474	-0.177724	-0.605821	-0.496629	-0.767752	0.001347	0.340281	-0.504977	-0.277705	-0.069847	0.777544	-0.234082	0.258236	-0.114417	0.741744	-0.178396	0.559751	-0.09264	0.776106	-0.261416	0.474873	-0.166082	0.3799	-0.389559	0.068789	-0.212457	0.162565	-0.462857	0.423395	
0.82488	1.71661	5	0	-1.00668	-1.08048	-0.778622	-1.78115	-0.182543	-0.605169	-0.496134	-0.758139	-0.00571975	0.341209	-0.495128	-0.27272	-0.0684673	0.773645	-0.239086	0.252177	-0.112057	0.747204	-0.182992	0.560108	-0.0898475	0.778456	-0.270869	0.484921	-0.159967	0.391179	-0.389014	0.077069	-0.209133	0.173395	-0.460874	0.429841	
0.826265	1.71966	5	0	-0.997721	-1.05234	-0.784109	-1.77757	-0.187362	-0.604517	-0.495639	-0.748526	-0.0127865	0.342136	-0.485279	-0.267734	-0.0670875	0.769746	-0.24409	0.246119	-0.109697	0.752664	-0.187588	0.560464	-0.087055	0.780806	-0.280322	0.494969	-0.153853	0.402458	-0.388468	0.085349	-0.20581	0.184225	-0.45889	0.436287	
0.827525	1.71661	5	0	-0.988767	-1.0242	-0.789596	-1.77398	-0.19218	-0.603864	-0.495144	-0.738914	-0.0198532	0.343063	-0.475429	-0.262749	-0.0657077	0.765847	-0.249094	0.24006	-0.107337	0.758125	-0.192183	0.560821	-0.0842625	0.783157	-0.289774	0.505017	-0.147738	0.413737	-0.387923	0.093629	-0.202486	0.195055	-0.456906	0.442733	
0.828489	1.71814	5	0	-0.979812	-0.996063	-0.795082	-1.7704	-0.196999	-0.603212	-0.494649	-0.729301	-0.02692	0.343991	-0.46558	-0.257764	-0.064328	0.761948	-0.254098	0.234001	-0.104977	0.763585	-0.196779	0.561178	-0.08147	0.785507	-0.299227	0.515065	-0.141623	0.425016	-0.387378	0.101909	-0.199162	0.205885	-0.454923	0.449179	
0.828982	1.71661	5	0	-0.971225	-0.984616	-0.803205	-1.77126	-0.206625	-0.601911	-0.493505	-0.732534	-0.033979	0.344915	-0.45747	-0.247806	-0.0668253	0.754595	-0.254456	0.224919	-0.102617	0.769052	-0.196779	0.561178	-0.0843545	0.793659	-0.30101	0.520104	-0.139895	0.439195	-0.389823	0.118647	-0.203072	0.227057	-0.45532	0.462361	
0.828863	1.71814	5	0	-0.962638	-0.97317	-0.811328	-1.77212	-0.216251	-0.600611	-0.492362	-0.735766	-0.041038	0.345839	-0.44936	-0.237848	-0.0693225	0.747242	-0.254813	0.215836	-0.100256	0.77452	-0.196779	0.561178	-0.087239	0.801811	-0.302793	0.525142	-0.138166	0.453373	-0.392269	0.135384	-0.206983	0.248229	-0.455717	0.475544	
0.828164	1.71814	5	0	-0.954051	-0.961723	-0.819451	-1.77298	-0.225878	-0.599311	-0.491218	-0.738999	-0.048097	0.346763	-0.441249	-0.227891	-0.0718197	0.739889	-0.25517	0.206754	-0.0978962	0.779987	-0.196779	0.561178	-0.0901235	0.809963	-0.304575	0.53018	-0.136437	0.467552	-0.394715	0.152122	-0.210894	0.2694	-0.456115	0.488726	
0.826981	1.71661	5	0	-0.945464	-0.950276	-0.827574	-1.77384	-0.235504	-0.59801	-0.490074	-0.742232	-0.055156	0.347687	-0.433139	-0.217933	-0.074317	0.732536	-0.255528	0.197672	-0.095536	0.785454	-0.196779	0.561178	-0.093008	0.818115	-0.306358	0.535219	-0.134709	0.481731	-0.39716	0.168859	-0.214804	0.290572	-0.456512	0.501908	
0.825406	1.71814	5	0	-0.931772	-0.93527	-0.826155	-1.77785	-0.229545	-0.601904	-0.491218	-0.738999	-0.0499305	0.342429	-0.421497	-0.217899	-0.07294	0.728644	-0.256959	0.191628	-0.0920982	0.787885	-0.201372	0.561533	-0.0986843	0.823914	-0.306358	0.535219	-0.13912	0.494199	-0.390101	0.168579	-0.214437	0.299659	-0.464444	0.512267	
0.823535	1.71509	5	0	-0.918079	-0.920265	-0.824736	-1.78186	-0.223585	-0.605798	-0.492362	-0.735766	-0.044705	0.337171	-0.409855	-0.217864	-0.071563	0.724752	-0.258389	0.185584	-0.0886605	0.790315	-0.205964	0.561889	-0.10436	0.829713	-0.306358	0.535219	-0.143532	0.506667	-0.383043	0.168298	-0.214069	0.308747	-0.472377	0.522626	
0.821461	1.71814	5	0	-0.904387	-0.905259	-0.823318	-1.78587	-0.217626	-0.609692	-0.493505	-0.732534	-0.0394795	0.331913	-0.398213	-0.21783	-0.070186	0.72086	-0.25982	0.179541	-0.0852227	0.792746	-0.210557	0.562245	-0.110037	0.835513	-0.306358	0.535219	-0.147944	0.519134	-0.375984	0.168017	-0.213702	0.317834	-0.48031	0.532985	
0.819279	1.71509	5	0	-0.890695	-0.890253	-0.821899	-1.78988	-0.211667	-0.613586	-0.494649	-0.729301	-0.034254	0.326655	-0.386571	-0.217796	-0.068809	0.716968	-0.261251	0.173497	-0.081785	0.795177	-0.215149	0.5626	-0.115713	0.841312	-0.306358	0.535219	-0.152355	0.531602	-0.368926	0.167737	-0.213335	0.326921	-0.488242	0.543344	
0.817187	1.72272	5	0	-0.883657	-0.874254	-0.815195	-1.78501	-0.209149	-0.607745	-0.491376	-0.716508	-0.037649	0.33625	-0.378431	-0.207807	-0.070186	0.72086	-0.257679	0.173488	-0.0850168	0.80431	-0.211775	0.565687	-0.112924	0.843672	-0.309927	0.545304	-0.151498	0.53872	-0.368387	0.176057	-0.215913	0.334208	-0.490626	0.550082	
0.815538	1.71661	5	0	-0.87662	-0.858255	-0.808491	-1.78014	-0.206631	-0.601905	-0.488104	-0.703716	-0.041044	0.345846	-0.37029	-0.197817	-0.071563	0.724752	-0.254107	0.173479	-0.0882485	0.813443	-0.2084	0.568774	-0.110135	0.846032	-0.313496	0.555389	-0.150641	0.545837	-0.367849	0.184376	-0.218492	0.341496	-0.49301	0.556819	
0.814699	1.71509	5	0	-0.869583	-0.842256	-0.801786	-1.77527	-0.204113	-0.596064	-0.484831	-0.690924	-0.044439	0.355441	-0.36215	-0.187828	-0.07294	0.728644	-0.250534	0.17347	-0.0914802	0.822576	-0.205025	0.57186	-0.107346	0.848393	-0.317064	0.565475	-0.149785	0.552955	-0.36731	0.192696	-0.221071	0.348783	-0.495394	0.563557	
0.815038	1.71509	5	0	-0.862545	-0.826257	-0.795082	-1.7704	-0.201595	-0.590224	-0.481558	-0.678131	-0.047834	0.365036	-0.35401	-0.177839	-0.074317	0.732536	-0.246962	0.173461	-0.094712	0.831709	-0.201651	0.574947	-0.104557	0.850753	-0.320633	0.57556	-0.148928	0.560073	-0.366772	0.201016	-0.223649	0.35607	-0.497778	0.570294	
0.816922	1.71814	5	0	-0.874319	-0.82887	-0.799145	-1.77083	-0.196776	-0.590875	-0.476481	-0.681449	-0.0399225	0.361712	-0.352247	-0.182821	-0.07294	0.728644	-0.242317	0.170426	-0.094712	0.831709	-0.207461	0.578743	-0.109271	0.853833	-0.322419	0.580607	-0.154203	0.56544	-0.368769	0.206661	-0.23089	0.366408	-0.501358	0.58041	
0.82072	1.71661	5	0	-0.886092	-0.831484	-0.803207	-1.77126	-0.191958	-0.591527	-0.471404	-0.684766	-0.032011	0.358388	-0.350484	-0.187803	-0.071563	0.724752	-0.237671	0.167391	-0.094712	0.831709	-0.213271	0.582539	-0.113985	0.856913	-0.324205	0.585654	-0.159477	0.570808	-0.370766	0.212306	-0.23813	0.376746	-0.504937	0.590526	
0.826656	1.71661	5	0	-0.897866	-0.834097	-0.80727	-1.77169	-0.18714	-0.592178	-0.466327	-0.688084	-0.0240995	0.355063	-0.348721	-0.192785	-0.070186	0.72086	-0.233026	0.164356	-0.094712	0.831709	-0.21908	0.586336	-0.118699	0.859994	-0.32599	0.590701	-0.164751	0.576175	-0.372764	0.217951	-0.245371	0.387085	-0.508517	0.600642	
0.833737	1.71509	5	0	-0.90964	-0.83671	-0.811333	-1.77212	-0.182321	-0.592829	-0.46125	-0.691401	-0.016188	0.351739	-0.346958	-0.197767	-0.068809	0.716968	-0.228381	0.161321	-0.094712	0.831709	-0.22489	0.590132	-0.123413	0.863074	-0.327776	0.595748	-0.170026	0.581542	-0.374761	0.223596	-0.252612	0.397423	-0.512096	0.610758	
0.840338	1.71661	5	0	-0.916307	-0.835785	-0.811333	-1.77212	-0.1798	-0.58698	-0.458464	-0.688237	-0.0150728	0.367641	-0.343435	-0.207723	-0.0663098	0.724316	-0.229452	0.164347	-0.0912745	0.834148	-0.227328	0.59702	-0.121589	0.868161	-0.337227	0.605806	-0.170026	0.581542	-0.378292	0.223733	-0.256409	0.398035	-0.517643	0.614382	
0.844835	1.71661	5	0	-0.922975	-0.834861	-0.811333	-1.77212	-0.177279	-0.58113	-0.455678	-0.685074	-0.0139575	0.383543	-0.339913	-0.217679	-0.0638105	0.731664	-0.230523	0.167372	-0.087837	0.836587	-0.229765	0.603908	-0.119764	0.873247	-0.346678	0.615864	-0.170026	0.581542	-0.381823	0.22387	-0.260207	0.398647	-0.523189	0.618007	
0.845599	1.71661	5	0	-0.929642	-0.833936	-0.811333	-1.77212	-0.174757	-0.575281	-0.452892	-0.68191	-0.0128422	0.399445	-0.33639	-0.227636	-0.0613112	0.739011	-0.231593	0.170398	-0.0843995	0.839025	-0.232202	0.610797	-0.11794	0.878334	-0.356129	0.625921	-0.170026	0.581542	-0.385354	0.224007	-0.264004	0.399258	-0.528736	0.621631	
0.841003	1.71661	5	0	-0.936309	-0.833012	-0.811333	-1.77212	-0.172236	-0.569432	-0.450106	-0.678746	-0.011727	0.415347	-0.332867	-0.237592	-0.058812	0.746359	-0.232664	0.173424	-0.080962	0.841464	-0.23464	0.617685	-0.116116	0.883421	-0.36558	0.635979	-0.170026	0.581542	-0.388885	0.224144	-0.267801	0.39987	-0.534283	0.625255	
0.829423	1.71661	5	0	-0.941391	-0.83655	-0.816812	-1.76854	-0.164886	-0.564226	-0.457969	-0.678592	-0.00452175	0.423602	-0.338704	-0.237602	-0.0615708	0.754155	-0.234806	0.179478	-0.0820405	0.844512	-0.230049	0.617335	-0.119008	0.891595	-0.367368	0.641032	-0.174414	0.58441	-0.391415	0.221459	-0.271596	0.400481	-0.531125	0.628381	
0.810144	1.71814	5	0	-0.946473	-0.840089	-0.822292	-1.76496	-0.157537	-0.55902	-0.465832	-0.678438	0.0026835	0.431857	-0.34454	-0.237613	-0.0643295	0.761952	-0.236949	0.185533	-0.083119	0.847561	-0.225459	0.616985	-0.121901	0.89977	-0.369155	0.646084	-0.178803	0.587277	-0.393946	0.218774	-0.275391	0.401091	-0.527967	0.631507	
0.785137	1.71661	5	0	-0.951555	-0.843627	-0.827771	-1.76138	-0.150188	-0.553814	-0.473695	-0.678285	0.00988875	0.440112	-0.350376	-0.237623	-0.0670883	0.769748	-0.239091	0.191588	-0.0841975	0.85061	-0.220868	0.616634	-0.124794	0.907945	-0.370943	0.651137	-0.183191	0.590144	-0.396477	0.216088	-0.279186	0.401702	-0.524808	0.634633	
0.756862	1.71814	5	0	-0.956637	-0.847165	-0.833251	-1.7578	-0.142838	-0.548608	-0.481558	-0.678131	0.017094	0.448367	-0.356213	-0.237633	-0.069847	0.777544	-0.241233	0.197642	-0.085276	0.853658	-0.216278	0.616284	-0.127686	0.916119	-0.372731	0.65619	-0.187579	0.593012	-0.399007	0.213403	-0.282981	0.402313	-0.52165	0.637759	
0.727777	1.71814	5	0	-0.96329	-0.846244	-0.835889	-1.76224	-0.134324	-0.546655	-0.488265	-0.681218	0.032981	0.441694	-0.356772	-0.252542	-0.069847	0.777544	-0.235514	0.191578	-0.088713	0.851217	-0.215058	0.612838	-0.130471	0.913749	-0.378601	0.656141	-0.191048	0.583762	-0.405595	0.202545	-0.290916	0.394429	-0.532311	0.631759	
0.700343	1.71814	5	0	-0.969944	-0.845323	-0.838527	-1.76668	-0.125811	-0.544702	-0.494972	-0.684305	0.048868	0.435022	-0.357332	-0.26745	-0.069847	0.777544	-0.229795	0.185513	-0.09215	0.848777	-0.213839	0.609392	-0.133257	0.911379	-0.38447	0.656092	-0.194518	0.574512	-0.412184	0.191687	-0.298851	0.386545	-0.542973	0.625758	
0.676986	1.71661	5	0	-0.976598	-0.844403	-0.841165	-1.77112	-0.117297	-0.542749	-0.501679	-0.687392	0.064755	0.42835	-0.357892	-0.282359	-0.069847	0.777544	-0.224077	0.179449	-0.095587	0.846336	-0.21262	0.605945	-0.136043	0.909008	-0.39034	0.656042	-0.197987	0.565263	-0.418772	0.180828	-0.306787	0.378662	-0.553635	0.619758	
0.659601	1.71509	5	0	-0.983251	-0.843482	-0.843803	-1.77557	-0.108784	-0.540796	-0.508386	-0.690479	0.080642	0.421677	-0.358451	-0.297267	-0.069847	0.777544	-0.218358	0.173384	-0.099024	0.843895	-0.2114	0.602499	-0.138828	0.906638	-0.39621	0.655993	-0.201456	0.556013	-0.425361	0.16997	-0.314722	0.370778	-0.564296	0.613758	
0.649657	1.71661	5	0	-0.981675	-0.847937	-0.846641	-1.76755	-0.111092	-0.534273	-0.513454	-0.687167	0.0824843	0.426039	-0.356696	-0.302227	-0.0712273	0.781445	-0.215851	0.176402	-0.103536	0.844501	-0.218429	0.609741	-0.142576	0.906993	-0.39034	0.656042	-0.206688	0.551765	-0.429418	0.161811	-0.320578	0.367148	-0.567448	0.610638	
0.648611	1.71661	5	0	-0.980098	-0.852392	-0.849479	-1.75953	-0.113401	-0.527749	-0.518522	-0.683856	0.0843265	0.430401	-0.354941	-0.307187	-0.0726075	0.785346	-0.213344	0.179421	-0.108048	0.845107	-0.225459	0.616984	-0.146323	0.907347	-0.38447	0.656092	-0.21192	0.547516	-0.433476	0.153651	-0.326433	0.363517	-0.5706	0.607518	
0.65792	1.71661	5	0	-0.978521	-0.856848	-0.852316	-1.75151	-0.115709	-0.521226	-0.52359	-0.680544	0.0861688	0.434764	-0.353186	-0.312147	-0.0739878	0.789246	-0.210837	0.182439	-0.11256	0.845714	-0.232488	0.624227	-0.15007	0.907701	-0.378601	0.656141	-0.217152	0.543268	-0.437534	0.145492	-0.332289	0.359886	-0.573752	0.604398	
0.679033	1.71661	5	0	-0.976945	-0.861303	-0.855154	-1.74348	-0.118017	-0.514702	-0.528658	-0.677233	0.088011	0.439126	-0.351431	-0.317107	-0.075368	0.793147	-0.20833	0.185457	-0.117072	0.84632	-0.239517	0.631469	-0.153818	0.908056	-0.372731	0.65619	-0.222384	0.53902	-0.441591	0.137333	-0.338145	0.356256	-0.576904	0.601278	
0.711981	1.71661	5	0	-0.97222	-0.874656	-0.860422	-1.75237	-0.114555	-0.524485	-0.536979	-0.686711	0.088865	0.436712	-0.357829	-0.331961	-0.0792405	0.789681	-0.209766	0.179412	-0.126086	0.847528	-0.237079	0.624578	-0.157563	0.90841	-0.384464	0.65609	-0.226731	0.532289	-0.445647	0.12919	-0.343138	0.350209	-0.583628	0.608261	
0.753548	1.71661	5	0	-0.967496	-0.888008	-0.86569	-1.76125	-0.111093	-0.534269	-0.5453	-0.696188	0.089719	0.434298	-0.364228	-0.346815	-0.083113	0.786215	-0.211202	0.173367	-0.135101	0.848737	-0.234641	0.617687	-0.161309	0.908764	-0.396198	0.65599	-0.231077	0.525557	-0.449703	0.121046	-0.348131	0.344162	-0.590353	0.615244	
0.800069	1.71966	5	0	-0.962772	-0.901361	-0.870958	-1.77014	-0.107632	-0.544053	-0.553622	-0.705665	0.090573	0.431884	-0.370626	-0.361668	-0.0869855	0.782749	-0.212638	0.167322	-0.144115	0.849946	-0.232202	0.610796	-0.165054	0.909117	-0.407932	0.65589	-0.235424	0.518826	-0.453759	0.112903	-0.353123	0.338115	-0.597077	0.622227	
0.847877	1.71814	5	0	-0.958047	-0.914713	-0.876226	-1.77902	-0.10417	-0.553836	-0.561943	-0.715143	0.091427	0.42947	-0.377024	-0.376522	-0.090858	0.779283	-0.214074	0.161277	-0.15313	0.851154	-0.229764	0.603905	-0.168799	0.909471	-0.419665	0.65579	-0.23977	0.512094	-0.457815	0.104759	-0.358116	0.332068	-0.603801	0.62921	
0.893309	1.71356	5	0	-0.956474	-0.91916	-0.880275	-1.77945	-0.106701	-0.559696	-0.562431	-0.724749	0.0887307	0.427522	-0.371779	-0.391345	-0.0961065	0.779716	-0.220156	0.158275	-0.152053	0.848111	-0.242299	0.601513	-0.171579	0.907103	-0.423738	0.650694	-0.244993	0.507859	-0.460878	0.0938308	-0.363105	0.326031	-0.610091	0.622968	
0.932697	1.71814	5	0	-0.9549	-0.923606	-0.884324	-1.77989	-0.109231	-0.565555	-0.562919	-0.734356	0.0860345	0.425574	-0.366534	-0.406168	-0.101355	0.78015	-0.226237	0.155273	-0.150977	0.845067	-0.254834	0.59912	-0.174359	0.904734	-0.427811	0.645597	-0.250217	0.503624	-0.463941	0.0829025	-0.368093	0.319993	-0.61638	0.616726	
0.962377	1.71814	5	0	-0.953327	-0.928052	-0.888372	-1.78032	-0.111761	-0.571414	-0.563407	-0.743963	0.0833383	0.423625	-0.36129	-0.42099	-0.106603	0.780583	-0.232319	0.15227	-0.1499	0.842024	-0.267369	0.596728	-0.177139	0.902366	-0.431884	0.6405	-0.25544	0.499389	-0.467004	0.0719743	-0.373082	0.313955	-0.622669	0.610484	
0.978755	1.71661	5	0	-0.951754	-0.932499	-0.892421	-1.78075	-0.114292	-0.577274	-0.563895	-0.753569	0.080642	0.421677	-0.356045	-0.435813	-0.111852	0.781016	-0.238401	0.149268	-0.148823	0.838981	-0.279904	0.594336	-0.179919	0.899997	-0.435957	0.635404	-0.260663	0.495154	-0.470067	0.061046	-0.378071	0.307918	-0.628959	0.604242	
0.98106	1.71814	5	0	-0.965048	-0.930644	-0.888372	-1.78032	-0.121428	-0.570107	-0.571716	-0.753416	0.0877448	0.420746	-0.356045	-0.435813	-0.107983	0.784482	-0.236262	0.143224	-0.148823	0.838981	-0.277471	0.587461	-0.177139	0.902366	-0.435957	0.635404	-0.256292	0.492298	-0.476101	0.0585325	-0.381846	0.308527	-0.628959	0.604242	
0.972181	1.71661	5	0	-0.978341	-0.928789	-0.884324	-1.77989	-0.128565	-0.562941	-0.579538	-0.753262	0.0948475	0.419816	-0.356045	-0.435813	-0.104114	0.787948	-0.234123	0.137179	-0.148823	0.838981	-0.275039	0.580586	-0.174359	0.904734	-0.435957	0.635404	-0.251922	0.489443	-0.482134	0.056019	-0.385621	0.309136	-0.628959	0.604242	
0.955253	1.71509	5	0	-0.991635	-0.926934	-0.880275	-1.77945	-0.135702	-0.555774	-0.58736	-0.753109	0.10195	0.418885	-0.356045	-0.435813	-0.100246	0.791413	-0.231985	0.131135	-0.148823	0.838981	-0.272607	0.573711	-0.171579	0.907103	-0.435957	0.635404	-0.247552	0.486587	-0.488167	0.0535055	-0.389395	0.309744	-0.628959	0.604242	
0.933413	1.71509	5	0	-1.00493	-0.925079	-0.876226	-1.77902	-0.142838	-0.548608	-0.595181	-0.752955	0.109053	0.417954	-0.356045	-0.435813	-0.096377	0.794879	-0.229846	0.12509	-0.148823	0.838981	-0.270174	0.566836	-0.168799	0.909471	-0.435957	0.635404	-0.243181	0.483731	-0.494201	0.050992	-0.39317	0.310353	-0.628959	0.604242	
0.909796	1.71509	5	0	-1.00999	-0.928594	-0.878859	-1.78346	-0.14399	-0.54535	-0.605755	-0.75595	0.116164	0.41702	-0.354299	-0.440748	-0.104385	0.80311	-0.235923	0.122096	-0.1499	0.842024	-0.274753	0.567187	-0.166982	0.914566	-0.445379	0.645438	-0.240568	0.485847	-0.494201	0.050992	-0.394025	0.31277	-0.625815	0.607362	
0.887537	1.71661	5	0	-1.01506	-0.932109	-0.881491	-1.78789	-0.145143	-0.542093	-0.616329	-0.758944	0.123275	0.416085	-0.352552	-0.445684	-0.112392	0.811341	-0.242001	0.119103	-0.150977	0.845067	-0.279331	0.567537	-0.165164	0.919662	-0.4548	0.655472	-0.237955	0.487962	-0.494201	0.050992	-0.394881	0.315187	-0.622672	0.610481	
0.869729	1.71509	5	0	-1.02013	-0.935623	-0.884124	-1.79233	-0.146295	-0.538836	-0.626903	-0.761938	0.130385	0.415151	-0.350806	-0.450619	-0.120399	0.819572	-0.248078	0.11611	-0.152053	0.848111	-0.28391	0.567887	-0.163347	0.924757	-0.464222	0.665507	-0.235342	0.490077	-0.494201	0.050992	-0.395736	0.317603	-0.619528	0.613601	
0.857704	1.71509	5	0	-1.02519	-0.939138	-0.886757	-1.79676	-0.147448	-0.535578	-0.637477	-0.764933	0.137496	0.414217	-0.34906	-0.455554	-0.128407	0.827803	-0.254155	0.113116	-0.15313	0.851154	-0.288488	0.568238	-0.16153	0.929852	-0.473644	0.675541	-0.232729	0.492193	-0.494201	0.050992	-0.396591	0.32002	-0.616384	0.616721	
0.850462	1.71509	5	0	-1.02362	-0.943573	-0.890804	-1.79719	-0.141464	-0.539488	-0.637963	-0.774504	0.1402	0.416165	-0.347314	-0.460487	-0.133649	0.828229	-0.259159	0.10711	-0.150977	0.845069	-0.296421	0.565504	-0.155855	0.924049	-0.468293	0.660417	-0.234463	0.487592	-0.489255	0.037014	-0.395736	0.317603	-0.618338	0.610238	
0.846843	1.71509	5	0	-1.02205	-0.948009	-0.89485	-1.79762	-0.13548	-0.543399	-0.63845	-0.784076	0.142903	0.418112	-0.345569	-0.465419	-0.138891	0.828656	-0.264163	0.101105	-0.148823	0.838983	-0.304353	0.56277	-0.150179	0.918245	-0.462942	0.645293	-0.236196	0.482992	-0.484309	0.023036	-0.394881	0.315187	-0.620292	0.603756	
0.845683	1.71509	5	0	-1.02049	-0.952444	-0.898896	-1.79805	-0.129495	-0.547309	-0.638937	-0.793648	0.145606	0.42006	-0.343824	-0.470352	-0.144133	0.829083	-0.269166	0.0950995	-0.14667	0.832897	-0.312285	0.560035	-0.144504	0.912442	-0.45759	0.63017	-0.23793	0.478391	-0.479363	0.009058	-0.394025	0.31277	-0.622246	0.597273	
0.845822	1.71509	5	0	-1.01892	-0.956879	-0.902943	-1.79848	-0.123511	-0.551219	-0.639423	-0.803219	0.14831	0.422008	-0.342078	-0.475285	-0.149375	0.829509	-0.27417	0.089094	-0.144517	0.826812	-0.320218	0.557301	-0.138828	0.906638	-0.452239	0.615046	-0.239664	0.47379	-0.474417	-0.00492	-0.39317	0.310353	-0.6242	0.59079	
0.846099	1.71509	5	0	-1.01578	-0.965743	-0.902746	-1.8109	-0.12719	-0.553822	-0.64884	-0.809408	0.14831	0.422008	-0.34616	-0.480196	-0.150477	0.818247	-0.27704	0.0770805	-0.14902	0.827416	-0.319937	0.543942	-0.137864	0.903914	-0.456307	0.609963	-0.239664	0.47379	-0.476939	-0.0075655	-0.39317	0.310353	-0.6242	0.59079	
0.845409	1.71509	5	0	-1.01264	-0.974607	-0.902548	-1.82332	-0.13087	-0.556426	-0.658256	-0.815597	0.14831	0.422008	-0.350241	-0.485107	-0.15158	0.806985	-0.27991	0.065067	-0.153524	0.828021	-0.319655	0.530582	-0.1369	0.90119	-0.460374	0.604881	-0.239664	0.47379	-0.479462	-0.010211	-0.39317	0.310353	-0.6242	0.59079	
0.843442	1.71509	5	0	-1.00951	-0.983471	-0.902351	-1.83573	-0.134549	-0.55903	-0.667673	-0.821786	0.14831	0.422008	-0.354323	-0.490018	-0.152682	0.795723	-0.28278	0.0530535	-0.158027	0.828625	-0.319373	0.517222	-0.135936	0.898466	-0.464442	0.599799	-0.239664	0.47379	-0.481985	-0.0128565	-0.39317	0.310353	-0.6242	0.59079	
0.84046	1.71203	5	0	-1.00637	-0.992335	-0.902154	-1.84815	-0.138229	-0.561633	-0.677089	-0.827975	0.14831	0.422008	-0.358405	-0.494929	-0.153784	0.784461	-0.28565	0.04104	-0.16253	0.829229	-0.319092	0.503863	-0.134972	0.895742	-0.468509	0.594716	-0.239664	0.47379	-0.484507	-0.015502	-0.39317	0.310353	-0.6242	0.59079	
0.836737	1.71509	5	0	-1.0048	-0.996764	-0.904785	-1.85257	-0.137077	-0.564888	-0.672552	-0.840797	0.152726	0.419123	-0.353181	-0.509695	-0.159019	0.784889	-0.292083	0.0290755	-0.164879	0.823755	-0.320028	0.493952	-0.137757	0.893375	-0.470796	0.584616	-0.241398	0.469194	-0.489549	-0.0207873	-0.39146	0.305522	-0.626154	0.584317	
0.832547	1.71356	5	0	-1.00324	-1.00119	-0.907417	-1.85698	-0.135925	-0.568144	-0.668015	-0.853619	0.157141	0.416238	-0.347956	-0.52446	-0.164253	0.785318	-0.298517	0.017111	-0.167229	0.81828	-0.320963	0.484041	-0.140541	0.891009	-0.473083	0.574516	-0.243132	0.464599	-0.49459	-0.0260725	-0.389751	0.30069	-0.628108	0.577843	
0.828166	1.71356	5	0	-1.00167	-1.00562	-0.910048	-1.8614	-0.134773	-0.571399	-0.663478	-0.866441	0.161556	0.413352	-0.342731	-0.539226	-0.169488	0.785746	-0.304951	0.0051465	-0.169578	0.812806	-0.321898	0.47413	-0.143326	0.888642	-0.47537	0.564416	-0.244865	0.460003	-0.499632	-0.0313578	-0.388042	0.295859	-0.630063	0.571369	
0.823866	1.71356	5	0	-1.0001	-1.01005	-0.912679	-1.86582	-0.133621	-0.574654	-0.658941	-0.879263	0.165972	0.410467	-0.337507	-0.553991	-0.174723	0.786174	-0.311384	-0.006818	-0.171927	0.807332	-0.322834	0.464219	-0.146111	0.886275	-0.477657	0.554316	-0.246599	0.455407	-0.504674	-0.036643	-0.386332	0.291028	-0.632017	0.564896	
0.819924	1.71356	5	0	-0.990329	-1.01984	-0.907224	-1.86938	-0.127637	-0.578564	-0.662834	-0.879182	0.1842	0.378153	-0.34507	-0.549049	-0.17197	0.778395	-0.315317	-0.0157737	-0.170852	0.804295	-0.324982	0.457741	-0.145148	0.883553	-0.481721	0.549253	-0.244843	0.450443	-0.502701	-0.0422177	-0.386332	0.291028	-0.630829	0.561538	
0.816616	1.71509	5	0	-0.980555	-1.02963	-0.901769	-1.87295	-0.121652	-0.582475	-0.666727	-0.8791	0.202429	0.345839	-0.352633	-0.544107	-0.169218	0.770616	-0.31925	-0.0247295	-0.169778	0.801258	-0.327129	0.451263	-0.144185	0.880832	-0.485785	0.544189	-0.243086	0.445478	-0.500729	-0.0477925	-0.386332	0.291028	-0.629641	0.55818	
0.814217	1.71509	5	0	-0.970781	-1.03942	-0.896314	-1.87651	-0.115668	-0.586385	-0.670621	-0.879018	0.220657	0.313524	-0.360195	-0.539166	-0.166465	0.762836	-0.323183	-0.0336852	-0.168704	0.798221	-0.329276	0.444785	-0.143222	0.878111	-0.489849	0.539126	-0.24133	0.440514	-0.498756	-0.0533673	-0.386332	0.291028	-0.628453	0.554822	
0.813006	1.71509	5	0	-0.961008	-1.04921	-0.890859	-1.88007	-0.109684	-0.590295	-0.674514	-0.878937	0.238885	0.28121	-0.367758	-0.534224	-0.163713	0.755057	-0.327116	-0.042641	-0.167629	0.795184	-0.331424	0.438307	-0.142259	0.875389	-0.493913	0.534063	-0.239573	0.43555	-0.496784	-0.058942	-0.386332	0.291028	-0.627265	0.551464	
0.813257	1.71509	5	0	-0.964521	-1.05711	-0.893493	-1.88448	-0.132885	-0.602603	-0.678898	-0.88837	0.22872	0.261972	-0.368362	-0.548936	-0.16757	0.751602	-0.333542	-0.0545455	-0.169979	0.78972	-0.338132	0.432196	-0.144081	0.870306	-0.488592	0.519024	-0.242185	0.433443	-0.502809	-0.061429	-0.393876	0.292245	-0.626077	0.548107	
0.815249	1.71661	5	0	-0.968034	-1.06502	-0.896126	-1.88889	-0.156086	-0.614912	-0.683281	-0.897803	0.218554	0.242733	-0.368965	-0.563648	-0.171426	0.748147	-0.339968	-0.06645	-0.172329	0.784255	-0.344839	0.426085	-0.145902	0.865223	-0.48327	0.503985	-0.244798	0.431336	-0.508833	-0.063916	-0.40142	0.293463	-0.624889	0.54475	
0.81922	1.71509	5	0	-0.971547	-1.07292	-0.898759	-1.8933	-0.179287	-0.62722	-0.687665	-0.907236	0.208389	0.223494	-0.369568	-0.578359	-0.175283	0.744691	-0.346394	-0.0783545	-0.17468	0.778791	-0.351547	0.419974	-0.147724	0.860141	-0.477949	0.488947	-0.247411	0.429229	-0.514858	-0.066403	-0.408964	0.29468	-0.623702	0.541394	
0.824539	1.71356	5	0	-0.97506	-1.08082	-0.901393	-1.89771	-0.202488	-0.639528	-0.692049	-0.916669	0.198224	0.204256	-0.370172	-0.593071	-0.17914	0.741236	-0.35282	-0.090259	-0.17703	0.773327	-0.358255	0.413863	-0.149546	0.855058	-0.472628	0.473908	-0.250023	0.427122	-0.520883	-0.06889	-0.416508	0.295897	-0.622514	0.538037	
0.829691	1.71356	5	0	-0.971934	-1.08966	-0.894528	-1.90526	-0.222164	-0.661472	-0.693676	-0.922975	0.175893	0.200421	-0.370172	-0.593071	-0.17914	0.741236	-0.354257	-0.0962102	-0.175957	0.770294	-0.354637	0.403639	-0.144837	0.851981	-0.469085	0.463896	-0.247391	0.419685	-0.51135	-0.0665525	-0.422336	0.292287	-0.611467	0.530819	
0.833126	1.71203	5	0	-0.968808	-1.09849	-0.887663	-1.91281	-0.241841	-0.683416	-0.695302	-0.92928	0.153561	0.196586	-0.370172	-0.593071	-0.17914	0.741236	-0.355693	-0.102162	-0.174883	0.767261	-0.351019	0.393415	-0.140128	0.848904	-0.465543	0.453884	-0.24476	0.412248	-0.501818	-0.064215	-0.428165	0.288677	-0.60042	0.5236	
0.833289	1.71509	5	0	-0.965683	-1.10732	-0.880799	-1.92036	-0.261518	-0.705361	-0.696929	-0.935585	0.131229	0.192752	-0.370172	-0.593071	-0.17914	0.741236	-0.357129	-0.108113	-0.17381	0.764228	-0.347402	0.383191	-0.135419	0.845828	-0.462	0.443872	-0.242128	0.404811	-0.492285	-0.0618775	-0.433993	0.285066	-0.589373	0.516382	
0.82863	1.71356	5	0	-0.962557	-1.11616	-0.873934	-1.92791	-0.281194	-0.727305	-0.698555	-0.941891	0.108898	0.188917	-0.370172	-0.593071	-0.17914	0.741236	-0.358566	-0.114064	-0.172737	0.761195	-0.343784	0.372967	-0.13071	0.842751	-0.458458	0.43386	-0.239497	0.397374	-0.482752	-0.05954	-0.439821	0.281456	-0.578326	0.509164	
0.817596	1.71509	5	0	-0.972706	-1.12309	-0.876571	-1.9323	-0.306713	-0.745256	-0.700683	-0.957662	0.091878	0.179826	-0.368436	-0.597977	-0.176392	0.73347	-0.355398	-0.123017	-0.169312	0.763621	-0.34499	0.376374	-0.125998	0.839672	-0.464298	0.433831	-0.23862	0.394896	-0.474191	-0.0544113	-0.44188	0.277243	-0.572797	0.505551	
0.79919	1.71814	5	0	-0.982855	-1.13002	-0.879209	-1.9367	-0.332232	-0.763207	-0.702811	-0.973433	0.074858	0.170735	-0.3667	-0.602882	-0.173644	0.725704	-0.352231	-0.13197	-0.165886	0.766047	-0.346195	0.37978	-0.121287	0.836593	-0.470138	0.433802	-0.237743	0.392419	-0.46563	-0.0492825	-0.44394	0.27303	-0.567268	0.501938	
0.774924	1.71661	5	0	-0.993004	-1.13695	-0.881846	-1.9411	-0.357752	-0.781158	-0.704938	-0.989204	0.057838	0.161643	-0.364965	-0.607788	-0.170896	0.717939	-0.349063	-0.140923	-0.162461	0.768473	-0.347401	0.383187	-0.116575	0.833515	-0.475978	0.433772	-0.236867	0.389941	-0.457068	-0.0441537	-0.445999	0.268817	-0.561739	0.498326	
0.747017	1.71509	5	0	-1.00315	-1.14388	-0.884483	-1.9455	-0.383271	-0.799109	-0.707066	-1.00497	0.040818	0.152552	-0.363229	-0.612694	-0.168148	0.710173	-0.345895	-0.149876	-0.159036	0.770899	-0.348606	0.386594	-0.111864	0.830436	-0.481818	0.433743	-0.23599	0.387463	-0.448507	-0.039025	-0.448058	0.264604	-0.55621	0.494713	
0.717685	1.70898	5	0	-1.03039	-1.17334	-0.885541	-1.96619	-0.393274	-0.822113	-0.700311	-1.02406	0.0107602	0.152039	-0.381263	-0.627252	-0.177229	0.707161	-0.342343	-0.149903	-0.155817	0.7618	-0.344045	0.386234	-0.10898	0.822284	-0.478281	0.423748	-0.24034	0.380789	-0.445545	-0.0473963	-0.44465	0.254973	-0.556993	0.484911	
0.689147	1.71509	5	0	-1.05762	-1.2028	-0.886598	-1.98689	-0.403277	-0.845118	-0.693557	-1.04315	-0.0192975	0.151527	-0.399297	-0.641809	-0.186311	0.704149	-0.338791	-0.149931	-0.152597	0.752702	-0.339484	0.385873	-0.106095	0.814132	-0.474745	0.413753	-0.24469	0.374115	-0.442583	-0.0557675	-0.441242	0.245341	-0.557775	0.47511	
0.66362	1.71509	5	0	-1.08486	-1.23226	-0.887655	-2.00758	-0.41328	-0.868123	-0.686802	-1.06224	-0.0493553	0.151014	-0.417332	-0.656367	-0.195392	0.701138	-0.335239	-0.149958	-0.149377	0.743603	-0.334923	0.385513	-0.10321	0.80598	-0.471208	0.403758	-0.24904	0.367442	-0.439621	-0.0641387	-0.437834	0.23571	-0.558557	0.465309	
0.643303	1.71509	5	0	-1.1121	-1.26172	-0.888713	-2.02827	-0.423283	-0.891127	-0.680048	-1.08133	-0.079413	0.150501	-0.435366	-0.670925	-0.204474	0.698126	-0.331687	-0.149985	-0.146158	0.734504	-0.330362	0.385153	-0.100326	0.797828	-0.467671	0.393763	-0.25339	0.360768	-0.436659	-0.07251	-0.434426	0.226079	-0.55934	0.455507	
0.630379	1.71203	5	0	-1.13766	-1.29529	-0.891351	-2.03265	-0.440041	-0.8949	-0.676676	-1.09086	-0.09698	0.152839	-0.449284	-0.680585	-0.204474	0.698126	-0.329189	-0.147028	-0.155154	0.735723	-0.32123	0.384429	-0.103116	0.795476	-0.460061	0.38879	-0.249891	0.350878	-0.435673	-0.0752985	-0.431022	0.216458	-0.5546	0.442113	
0.62703	1.71814	5	0	-1.16323	-1.32886	-0.893989	-2.03702	-0.4568	-0.898672	-0.673304	-1.10039	-0.114547	0.155176	-0.463201	-0.690244	-0.204474	0.698126	-0.326691	-0.14407	-0.16415	0.736941	-0.312098	0.383705	-0.105906	0.793124	-0.452452	0.383818	-0.246391	0.340989	-0.434686	-0.078087	-0.427617	0.206837	-0.549861	0.428719	
0.63544	1.71203	5	0	-1.1888	-1.36243	-0.896628	-2.04139	-0.473558	-0.902445	-0.669932	-1.10992	-0.132114	0.157514	-0.477119	-0.699904	-0.204474	0.698126	-0.324193	-0.141113	-0.173145	0.738159	-0.302965	0.38298	-0.108696	0.790772	-0.444842	0.378846	-0.242891	0.331099	-0.4337	-0.0808755	-0.424213	0.197216	-0.545122	0.415324	
0.657739	1.71356	5	0	-1.21437	-1.39599	-0.899266	-2.04577	-0.490316	-0.906218	-0.66656	-1.11945	-0.149681	0.159852	-0.491037	-0.709564	-0.204474	0.698126	-0.321695	-0.138156	-0.182141	0.739378	-0.293833	0.382256	-0.111486	0.78842	-0.437232	0.373873	-0.239392	0.321209	-0.432713	-0.083664	-0.420809	0.187595	-0.540382	0.40193	
0.693556	1.71356	5	0	-1.23483	-1.4259	-0.896303	-2.06596	-0.495297	-0.917655	-0.659827	-1.13848	-0.157535	0.163157	-0.505533	-0.73372	-0.211065	0.702433	-0.325249	-0.138129	-0.177856	0.727269	-0.289262	0.381892	-0.112355	0.780645	-0.441309	0.368862	-0.242005	0.319118	-0.431727	-0.0864517	-0.425424	0.190611	-0.53367	0.394972	
0.738904	1.71661	5	0	-1.25529	-1.4558	-0.89334	-2.08616	-0.500279	-0.929091	-0.653095	-1.15751	-0.165388	0.166461	-0.52003	-0.757877	-0.217657	0.70674	-0.328802	-0.138102	-0.173571	0.715159	-0.284691	0.381528	-0.113225	0.772871	-0.445386	0.36385	-0.244619	0.317027	-0.43074	-0.0892395	-0.430039	0.193627	-0.526957	0.388014	
0.789513	1.71203	5	0	-1.27575	-1.48571	-0.890377	-2.10636	-0.505261	-0.940527	-0.646362	-1.17653	-0.173241	0.169766	-0.534526	-0.782033	-0.224248	0.711048	-0.332356	-0.138075	-0.169287	0.70305	-0.280119	0.381164	-0.114094	0.765097	-0.449463	0.358839	-0.247232	0.314936	-0.429754	-0.0920273	-0.434654	0.196642	-0.520244	0.381055	
0.841113	1.71051	5	0	-1.29621	-1.51561	-0.887414	-2.12655	-0.510242	-0.951964	-0.639629	-1.19556	-0.181095	0.173071	-0.549022	-0.806189	-0.23084	0.715355	-0.33591	-0.138048	-0.165002	0.690941	-0.275548	0.3808	-0.114963	0.757322	-0.45354	0.353827	-0.249845	0.312845	-0.428767	-0.094815	-0.439269	0.199658	-0.513532	0.374097	
0.889435	1.71203	5	0	-1.30469	-1.52665	-0.887414	-2.12655	-0.503247	-0.95898	-0.637388	-1.2019	-0.178431	0.174984	-0.566905	-0.820546	-0.219023	0.710614	-0.33591	-0.138048	-0.175058	0.695186	-0.269765	0.377022	-0.114004	0.754611	-0.444165	0.343867	-0.248971	0.310375	-0.426795	-0.100388	-0.442181	0.197865	-0.516695	0.371023	
0.930209	1.71203	5	0	-1.31316	-1.53769	-0.887414	-2.12655	-0.496252	-0.965997	-0.635147	-1.20823	-0.175766	0.176897	-0.584788	-0.834902	-0.207207	0.705874	-0.33591	-0.138048	-0.185113	0.699431	-0.263983	0.373244	-0.113044	0.751901	-0.434791	0.333907	-0.248098	0.307906	-0.424823	-0.105961	-0.445093	0.196072	-0.519857	0.367949	
0.959167	1.71356	5	0	-1.32163	-1.54873	-0.887414	-2.12655	-0.489257	-0.973013	-0.632905	-1.21456	-0.173102	0.178811	-0.602672	-0.849259	-0.19539	0.701133	-0.33591	-0.138048	-0.195168	0.703676	-0.2582	0.369465	-0.112085	0.74919	-0.425417	0.323947	-0.247224	0.305436	-0.422851	-0.111534	-0.448005	0.19428	-0.52302	0.364874	
0.972369	1.71203	5	0	-1.3301	-1.55976	-0.887414	-2.12655	-0.482262	-0.980029	-0.630664	-1.2209	-0.170438	0.180724	-0.620555	-0.863615	-0.183574	0.696392	-0.33591	-0.138048	-0.205224	0.707921	-0.252418	0.365687	-0.111126	0.746479	-0.416042	0.313987	-0.24635	0.302967	-0.420879	-0.117107	-0.450917	0.192487	-0.526183	0.3618	
0.970268	1.70898	5	0	-1.33467	-1.54683	-0.878082	-2.11744	-0.479766	-0.974321	-0.636793	-1.21446	-0.167633	0.191695	-0.62459	-0.868401	-0.187693	0.708033	-0.336967	-0.135063	-0.200733	0.707312	-0.253626	0.3691	-0.109296	0.751537	-0.41019	0.313998	-0.240247	0.304676	-0.420879	-0.117107	-0.447155	0.191876	-0.521837	0.36153	
0.956418	1.71356	5	0	-1.33925	-1.53391	-0.86875	-2.10832	-0.477271	-0.968612	-0.642923	-1.20802	-0.164827	0.202666	-0.628625	-0.873187	-0.191812	0.719674	-0.338023	-0.132078	-0.196242	0.706703	-0.254833	0.372513	-0.107465	0.756595	-0.404339	0.314009	-0.234144	0.306385	-0.420879	-0.117107	-0.443392	0.191265	-0.517491	0.36126	
0.934441	1.71661	5	0	-1.34382	-1.52098	-0.859419	-2.09921	-0.474775	-0.962904	-0.649052	-1.20158	-0.162021	0.213637	-0.63266	-0.877973	-0.195931	0.731315	-0.339079	-0.129092	-0.191752	0.706094	-0.256041	0.375927	-0.105634	0.761653	-0.398487	0.314019	-0.22804	0.308094	-0.420879	-0.117107	-0.43963	0.190654	-0.513145	0.360991	
0.907956	1.71051	5	0	-1.3484	-1.50805	-0.850087	-2.09009	-0.472279	-0.957195	-0.655181	-1.19514	-0.159216	0.224608	-0.636695	-0.882759	-0.20005	0.742956	-0.340136	-0.126107	-0.187261	0.705485	-0.257249	0.37934	-0.103804	0.766711	-0.392635	0.31403	-0.221937	0.309803	-0.420879	-0.117107	-0.435867	0.190043	-0.508799	0.360721	
0.880585	1.71356	5	0	-1.33188	-1.50225	-0.851653	-2.07382	-0.469783	-0.951479	-0.655181	-1.19514	-0.151211	0.230372	-0.636695	-0.882759	-0.192342	0.74987	-0.34225	-0.120133	-0.184909	0.710929	-0.257249	0.37934	-0.0982205	0.77141	-0.396168	0.324014	-0.218453	0.318935	-0.421308	-0.106111	-0.430889	0.196035	-0.501282	0.363525	
0.855948	1.71509	5	0	-1.31535	-1.49645	-0.853219	-2.05755	-0.467286	-0.945763	-0.655181	-1.19514	-0.143207	0.236135	-0.636695	-0.882759	-0.184634	0.756784	-0.344363	-0.114159	-0.182558	0.716373	-0.257249	0.37934	-0.092637	0.776109	-0.399701	0.333998	-0.21497	0.328067	-0.421736	-0.095115	-0.425911	0.202026	-0.493764	0.366329	
0.837253	1.71661	5	0	-1.29883	-1.49065	-0.854785	-2.04128	-0.46479	-0.940047	-0.655181	-1.19514	-0.135203	0.241899	-0.636695	-0.882759	-0.176925	0.763699	-0.346477	-0.108186	-0.180206	0.721818	-0.257249	0.37934	-0.0870535	0.780808	-0.403233	0.343982	-0.211486	0.337199	-0.422164	-0.084119	-0.420934	0.208018	-0.486247	0.369133	
0.824802	1.71203	5	0	-1.28231	-1.48485	-0.856351	-2.02501	-0.462294	-0.934331	-0.655181	-1.19514	-0.127198	0.247663	-0.636695	-0.882759	-0.169217	0.770613	-0.348591	-0.102212	-0.177854	0.727262	-0.257249	0.37934	-0.08147	0.785507	-0.406766	0.353966	-0.208003	0.346331	-0.422593	-0.073123	-0.415956	0.21401	-0.47873	0.371937	
0.817656	1.71051	5	0	-1.27689	-1.46509	-0.853707	-2.02063	-0.459797	-0.928608	-0.665189	-1.1886	-0.125372	0.251973	-0.634988	-0.887582	-0.175824	0.77493	-0.351085	-0.105175	-0.177854	0.727262	-0.260617	0.376293	-0.08147	0.785507	-0.404999	0.348973	-0.202757	0.341	-0.420619	-0.078701	-0.415104	0.211604	-0.484266	0.375554	
0.814868	1.71356	5	0	-1.27147	-1.44533	-0.851063	-2.01625	-0.457301	-0.922884	-0.675198	-1.18206	-0.123546	0.256283	-0.633282	-0.892406	-0.18243	0.779247	-0.353579	-0.108138	-0.177854	0.727262	-0.263984	0.373247	-0.08147	0.785507	-0.403232	0.343979	-0.197511	0.33567	-0.418646	-0.084279	-0.414253	0.209198	-0.489802	0.379171	
0.815492	1.71356	5	0	-1.26606	-1.42556	-0.84842	-2.01186	-0.454805	-0.917161	-0.685207	-1.17552	-0.12172	0.260594	-0.631575	-0.89723	-0.189037	0.783564	-0.356072	-0.111101	-0.177854	0.727262	-0.267351	0.3702	-0.08147	0.785507	-0.401465	0.338985	-0.192265	0.33034	-0.416672	-0.089857	-0.413401	0.206791	-0.495338	0.382789	
0.818583	1.71356	5	0	-1.26064	-1.4058	-0.845776	-2.00748	-0.452308	-0.911437	-0.695215	-1.16898	-0.119894	0.264904	-0.629868	-0.902053	-0.195644	0.787881	-0.358566	-0.114064	-0.177854	0.727262	-0.270719	0.367153	-0.08147	0.785507	-0.399698	0.333992	-0.187019	0.325009	-0.414698	-0.095435	-0.41255	0.204385	-0.500874	0.386406	
0.823194	1.71509	5	0	-1.24405	-1.39995	-0.847183	-2.00351	-0.447551	-0.912092	-0.704092	-1.16562	-0.112859	0.263979	-0.624124	-0.902098	-0.195644	0.787881	-0.362115	-0.11404	-0.179998	0.733321	-0.274084	0.364109	-0.0777147	0.785142	-0.399698	0.333992	-0.189647	0.332436	-0.414698	-0.095435	-0.414253	0.209198	-0.493354	0.389217	
0.828283	1.71203	5	0	-1.22746	-1.3941	-0.848589	-1.99953	-0.442795	-0.912746	-0.712969	-1.16225	-0.105823	0.263053	-0.618379	-0.902143	-0.195644	0.787881	-0.365664	-0.114016	-0.182142	0.739379	-0.27745	0.361065	-0.0739595	0.784776	-0.399698	0.333992	-0.192275	0.339862	-0.414698	-0.095435	-0.415956	0.214011	-0.485834	0.392027	
0.83261	1.71051	5	0	-1.21087	-1.38825	-0.849996	-1.99556	-0.438038	-0.9134	-0.721845	-1.15888	-0.0987875	0.262128	-0.612635	-0.902189	-0.195644	0.787881	-0.369212	-0.113993	-0.184285	0.745438	-0.280815	0.358021	-0.0702042	0.784411	-0.399698	0.333992	-0.194903	0.347289	-0.414698	-0.095435	-0.417659	0.218824	-0.478313	0.394838	
0.834918	1.71051	5	0	-1.19427	-1.38239	-0.851403	-1.99158	-0.433282	-0.914055	-0.730722	-1.15552	-0.091752	0.261203	-0.606891	-0.902234	-0.195644	0.787881	-0.372761	-0.113969	-0.186429	0.751497	-0.28418	0.354977	-0.066449	0.784046	-0.399698	0.333992	-0.197531	0.354716	-0.414698	-0.095435	-0.419362	0.223637	-0.470793	0.397648	
0.833944	1.71051	5	0	-1.18113	-1.38429	-0.856858	-1.98802	-0.429652	-0.911518	-0.728482	-1.16185	-0.0848518	0.251188	-0.605184	-0.907057	-0.192893	0.780105	-0.375252	-0.116929	-0.186429	0.751497	-0.281769	0.348162	-0.0635662	0.775899	-0.403784	0.328991	-0.191406	0.346907	-0.419759	-0.100697	-0.428101	0.218253	-0.464064	0.390676	
0.82843	1.71203	5	0	-1.16799	-1.38619	-0.862313	-1.98445	-0.426022	-0.90898	-0.726243	-1.16818	-0.0779515	0.241172	-0.603478	-0.911881	-0.190142	0.772329	-0.377744	-0.119889	-0.186429	0.751497	-0.279357	0.341348	-0.0606835	0.767752	-0.40787	0.32399	-0.185281	0.339098	-0.42482	-0.105959	-0.43684	0.212868	-0.457336	0.383703	
0.817114	1.71051	5	0	-1.15485	-1.38809	-0.867768	-1.98089	-0.422392	-0.906443	-0.724004	-1.1745	-0.0710512	0.231157	-0.601771	-0.916705	-0.18739	0.764553	-0.380235	-0.122849	-0.186429	0.751497	-0.276946	0.334533	-0.0578007	0.759604	-0.411956	0.318988	-0.179157	0.331289	-0.429881	-0.111221	-0.445579	0.207483	-0.450607	0.37673	
0.79897	1.70898	5	0	-1.14171	-1.38999	-0.873223	-1.97732	-0.418762	-0.903906	-0.721764	-1.18083	-0.064151	0.221141	-0.600064	-0.921528	-0.184639	0.756777	-0.382726	-0.125809	-0.186429	0.751497	-0.274535	0.327718	-0.054918	0.751457	-0.416042	0.313987	-0.173032	0.32348	-0.434942	-0.116483	-0.454318	0.202099	-0.443878	0.369758	
0.775102	1.71203	5	0	-1.15177	-1.39678	-0.87041	-1.98527	1.18522	-1.91011	-0.714006	-1.18104	-0.055968	0.236007	-0.594313	-0.921578	-0.200306	0.758057	-0.369966	-0.131853	-0.183006	0.753921	-0.2779	0.324682	-0.0586743	0.751825	-0.414278	0.309002	-0.173908	0.325956	-0.430441	-0.119424	-0.45383	0.190703	-0.445064	0.373108	
0.747752	1.71203	5	0	-1.16184	-1.40357	-0.867598	-1.99322	2.78919	-2.91631	-0.706249	-1.18124	-0.047785	0.250872	-0.588562	-0.921627	-0.215974	0.759337	-0.357206	-0.137897	-0.179583	0.756346	-0.281265	0.321646	-0.0624305	0.752193	-0.412514	0.304017	-0.174784	0.328431	-0.42594	-0.122366	-0.453342	0.179308	-0.446249	0.376459	
0.719174	1.70593	5	0	-1.17191	-1.41037	-0.864785	-2.00117	4.39317	-3.92251	-0.698491	-1.18144	-0.039602	0.265738	-0.582811	-0.921677	-0.231642	0.760618	-0.344447	-0.143941	-0.17616	0.758771	-0.284631	0.31861	-0.0661868	0.752561	-0.41075	0.299032	-0.17566	0.330906	-0.421438	-0.125307	-0.452854	0.167912	-0.447435	0.37981	
0.691622	1.71356	5	0	-1.18197	-1.41716	-0.861972	-2.00912	5.99715	-4.92871	-0.690734	-1.18165	-0.031419	0.280603	-0.57706	-0.921726	-0.247309	0.761898	-0.331687	-0.149985	-0.172737	0.761195	-0.287996	0.315574	-0.069943	0.752929	-0.408986	0.294047	-0.176536	0.333382	-0.416937	-0.128248	-0.452366	0.156516	-0.44862	0.38316	
0.667343	1.71203	5	0	-1.19899	-1.43935	-0.863047	-2.02976	6.23892	-5.01467	-0.681785	-1.20694	0.0490802	0.167543	-0.575353	-0.92655	-0.258555	0.736502	-0.326412	-0.164892	-0.1909	0.752113	-0.29472	0.309509	-0.110756	0.715226	-0.41131	0.284081	-0.193984	0.31629	-0.429021	-0.133185	-0.474395	0.14881	-0.44625	0.37646	
0.64819	1.71051	5	0	-1.21601	-1.46155	-0.864122	-2.05041	6.48069	-5.10062	-0.672837	-1.23223	0.129579	0.054484	-0.573646	-0.931373	-0.2698	0.711106	-0.321137	-0.179798	-0.209064	0.743031	-0.301445	0.303445	-0.151569	0.677524	-0.413635	0.274115	-0.211431	0.299198	-0.441105	-0.138122	-0.496425	0.141105	-0.443879	0.369761	
0.635412	1.71051	5	0	-1.23302	-1.48374	-0.865197	-2.07105	6.72247	-5.18658	-0.663888	-1.25752	0.210079	-0.0585755	-0.57194	-0.936196	-0.281046	0.685711	-0.315863	-0.194705	-0.227227	0.73395	-0.308169	0.297381	-0.192382	0.639821	-0.415959	0.264149	-0.228878	0.282106	-0.453189	-0.14306	-0.518454	0.1334	-0.441508	0.363062	
0.630205	1.71203	5	0	-1.25004	-1.50594	-0.866272	-2.0917	6.96424	-5.27253	-0.654939	-1.28281	0.290578	-0.171635	-0.570233	-0.94102	-0.292292	0.660315	-0.310588	-0.209612	-0.24539	0.724868	-0.314893	0.291316	-0.233195	0.602119	-0.418283	0.254183	-0.246326	0.265014	-0.465273	-0.147997	-0.540484	0.125694	-0.439138	0.356362	
0.633766	1.71203	5	0	-1.26201	-1.52465	-0.849772	-2.11464	6.49905	-4.99846	-0.650448	-1.31722	0.202855	-0.208517	-0.547821	-0.955664	-0.344896	0.638495	-0.321377	-0.239107	-0.294222	0.6828	-0.34147	0.254037	-0.319329	0.513207	-0.432851	0.229363	-0.287979	0.222451	-0.472174	-0.196703	-0.567714	0.103154	-0.434855	0.320178	
0.647287	1.70898	5	0	-1.27398	-1.54336	-0.833273	-2.13759	6.03385	-4.72439	-0.645958	-1.35163	0.115132	-0.245399	-0.52541	-0.970308	-0.3975	0.616676	-0.332166	-0.268601	-0.343055	0.640733	-0.368047	0.216757	-0.405462	0.424294	-0.447418	0.204543	-0.329632	0.179888	-0.479074	-0.24541	-0.594944	0.080613	-0.430572	0.283995	
0.670908	1.71051	5	0	-1.28595	-1.56208	-0.816773	-2.16054	5.56866	-4.45031	-0.641468	-1.38604	0.027409	-0.282282	-0.502999	-0.984952	-0.450105	0.594857	-0.342955	-0.298096	-0.391887	0.598666	-0.394625	0.179478	-0.491596	0.335382	-0.461985	0.179724	-0.371286	0.137324	-0.485974	-0.294116	-0.622174	0.0580725	-0.426289	0.247811	
0.702303	1.71661	5	0	-1.29792	-1.58079	-0.800273	-2.18349	5.10346	-4.17624	-0.636977	-1.42046	-0.060314	-0.319164	-0.480587	-0.999596	-0.502709	0.573037	-0.353744	-0.327591	-0.44072	0.556598	-0.421202	0.142199	-0.57773	0.24647	-0.476553	0.154904	-0.412939	0.094761	-0.492875	-0.342822	-0.649404	0.035532	-0.422006	0.211627	
0.738801	1.71051	5	0	-1.32397	-1.577	-0.772964	-2.20134	4.78048	-3.96022	-0.63198	-1.44543	-0.189767	-0.354078	-0.449936	-1.00478	-0.58749	0.531917	-0.379704	-0.353774	-0.526704	0.503292	-0.478723	0.081994	-0.69848	0.163392	-0.509073	0.115528	-0.46628	0.0493995	-0.540253	-0.402441	-0.669081	0.0119275	-0.432013	0.179845	
0.777727	1.71051	5	0	-1.35001	-1.57321	-0.745654	-2.21918	4.4575	-3.74421	-0.626983	-1.4704	-0.319219	-0.388991	-0.419285	-1.00996	-0.67227	0.490797	-0.405664	-0.379957	-0.612688	0.449986	-0.536244	0.021789	-0.819231	0.0803145	-0.541592	0.0761515	-0.519621	0.004038	-0.58763	-0.462059	-0.688759	-0.011677	-0.44202	0.148063	
0.816408	1.71203	5	0	-1.37606	-1.56942	-0.718344	-2.23703	4.13451	-3.52819	-0.621986	-1.49537	-0.448672	-0.423905	-0.388634	-1.01515	-0.757051	0.449678	-0.431624	-0.406139	-0.698671	0.396679	-0.593765	-0.038416	-0.939982	-0.00276325	-0.574112	0.0367753	-0.572961	-0.0413235	-0.635007	-0.521678	-0.708437	-0.0352815	-0.452028	0.116281	
0.852171	1.71051	5	0	-1.40211	-1.56562	-0.691035	-2.25487	3.81153	-3.31217	-0.616989	-1.52035	-0.578125	-0.458819	-0.357983	-1.02033	-0.841832	0.408558	-0.457584	-0.432322	-0.784655	0.343373	-0.651286	-0.098621	-1.06073	-0.085841	-0.606632	-0.002601	-0.626302	-0.086685	-0.682385	-0.581297	-0.728114	-0.058886	-0.462035	0.084499	
0.882344	1.71203	5	0	-1.38868	-1.55123	-0.673324	-2.25732	3.54926	-3.15818	-0.600869	-1.51159	-0.721093	-0.474161	-0.342261	-1.01572	-0.911615	0.370443	-0.462327	-0.458588	-0.847537	0.299004	-0.699349	-0.158591	-1.15522	-0.157192	-0.633218	-0.0415835	-0.668099	-0.125817	-0.734146	-0.626536	-0.755584	-0.069967	-0.458187	0.0616338	
0.905151	1.71203	5	0	-1.37525	-1.53684	-0.655612	-2.25977	3.28698	-3.0042	-0.584748	-1.50283	-0.864061	-0.489503	-0.326539	-1.01112	-0.981399	0.332329	-0.46707	-0.484853	-0.910419	0.254634	-0.747412	-0.218562	-1.24971	-0.228543	-0.659804	-0.080566	-0.709896	-0.16495	-0.785907	-0.671776	-0.783055	-0.081048	-0.454338	0.0387685	
0.921047	1.71203	5	0	-1.36182	-1.52245	-0.637901	-2.26222	3.0247	-2.85021	-0.568627	-1.49407	-1.00703	-0.504845	-0.310817	-1.00652	-1.05118	0.294214	-0.471814	-0.511119	-0.973302	0.210265	-0.795474	-0.278533	-1.3442	-0.299893	-0.68639	-0.119549	-0.751693	-0.204083	-0.837669	-0.717016	-0.810526	-0.092129	-0.45049	0.0159033	
0.93083	1.71051	5	0	-1.3484	-1.50805	-0.62019	-2.26467	2.76243	-2.69623	-0.552507	-1.48531	-1.15	-0.520187	-0.295095	-1.00191	-1.12096	0.256099	-0.476557	-0.537385	-1.03618	0.165896	-0.843537	-0.338503	-1.43869	-0.371244	-0.712976	-0.158531	-0.79349	-0.243215	-0.88943	-0.762255	-0.837996	-0.10321	-0.446642	-0.006962	
0.9353	1.71203	5	0	-1.34107	-1.47628	-0.601026	-2.2711	2.55256	-2.57645	-0.526275	-1.46127	-1.27696	-0.518542	-0.27349	-0.997387	-1.16769	0.223796	-0.480489	-0.546077	-1.08002	0.127815	-0.882591	-0.385718	-1.50477	-0.431949	-0.725671	-0.18755	-0.838325	-0.272444	-0.920279	-0.807977	-0.863314	-0.110164	-0.451506	-0.0291372	
0.935255	1.71356	5	0	-1.33374	-1.4445	-0.581862	-2.27753	2.3427	-2.45667	-0.500042	-1.43724	-1.40392	-0.516898	-0.251885	-0.992862	-1.21441	0.191492	-0.484421	-0.554768	-1.12385	0.0897335	-0.921646	-0.432934	-1.57085	-0.492654	-0.738367	-0.216568	-0.883161	-0.301674	-0.951128	-0.853699	-0.888632	-0.117119	-0.45637	-0.0513125	
0.931493	1.70898	5	0	-1.32641	-1.41273	-0.562699	-2.28396	2.13284	-2.33688	-0.47381	-1.4132	-1.53088	-0.515254	-0.230281	-0.988338	-1.26113	0.159189	-0.488353	-0.56346	-1.16769	0.0516522	-0.9607	-0.480149	-1.63693	-0.55336	-0.751062	-0.245587	-0.927996	-0.330904	-0.981976	-0.89942	-0.91395	-0.124073	-0.461234	-0.0734877	
0.924815	1.70898	5	0	-1.31907	-1.38095	-0.543535	-2.2904	1.92298	-2.2171	-0.447578	-1.38916	-1.65784	-0.513609	-0.208676	-0.983813	-1.30785	0.126885	-0.492285	-0.572152	-1.21152	0.013571	-0.999754	-0.527364	-1.70301	-0.614065	-0.763757	-0.274606	-0.972831	-0.360133	-1.01283	-0.945142	-0.939268	-0.131027	-0.466098	-0.095663	
0.915965	1.71203	5	0	-1.31215	-1.36545	-0.520308	-2.28422	1.77028	-2.13957	-0.438623	-1.39258	-1.7732	-0.503276	-0.190109	-1.00341	-1.37022	0.0997457	-0.527153	-0.591992	-1.28587	-0.0279978	-1.05811	-0.578465	-1.78543	-0.671943	-0.78788	-0.303354	-1.01731	-0.398122	-1.07325	-1.00936	-0.962118	-0.125112	-0.482499	-0.132862	
0.905273	1.71203	5	0	-1.30522	-1.34995	-0.497081	-2.27804	1.61758	-2.06203	-0.429668	-1.39601	-1.88856	-0.492942	-0.171542	-1.023	-1.43259	0.0726065	-0.562022	-0.611832	-1.36023	-0.0695665	-1.11646	-0.629567	-1.86785	-0.729822	-0.812004	-0.332102	-1.0618	-0.43611	-1.13368	-1.07358	-0.984968	-0.119198	-0.498899	-0.170062	
0.892866	1.70746	5	0	-1.29829	-1.33445	-0.473854	-2.27186	1.46489	-1.9845	-0.420713	-1.39943	-2.00392	-0.482609	-0.152975	-1.0426	-1.49497	0.0454673	-0.59689	-0.631672	-1.43458	-0.111135	-1.17482	-0.680668	-1.95027	-0.7877	-0.836128	-0.36085	-1.10628	-0.474099	-1.19411	-1.13781	-1.00782	-0.113283	-0.5153	-0.207261	
0.878872	1.71356	5	0	-1.29137	-1.31895	-0.450627	-2.26568	1.31219	-1.90696	-0.411758	-1.40285	-2.11929	-0.472276	-0.134408	-1.06219	-1.55734	0.018328	-0.631759	-0.651512	-1.50893	-0.152704	-1.23317	-0.731769	-2.03269	-0.845578	-0.860251	-0.389598	-1.15076	-0.512088	-1.25453	-1.20203	-1.03067	-0.107368	-0.531701	-0.24446	
0.863417	1.71203	5	0	-1.28636	-1.31553	-0.417531	-2.27508	1.19574	-1.84565	-0.4096	-1.45269	-2.2198	-0.455825	-0.136566	-1.10539	-1.63941	-0.017541	-0.665181	-0.694225	-1.59081	-0.203267	-1.30065	-0.778197	-2.1147	-0.909331	-0.879207	-0.432447	-1.19737	-0.551609	-1.32522	-1.26198	-1.03516	-0.104433	-0.554686	-0.274528	
0.846628	1.70746	5	0	-1.28136	-1.31212	-0.384434	-2.28447	1.07929	-1.78435	-0.407443	-1.50254	-2.32032	-0.439375	-0.138724	-1.14859	-1.72148	-0.05341	-0.698604	-0.736937	-1.67268	-0.253829	-1.36812	-0.824626	-2.1967	-0.973083	-0.898164	-0.475297	-1.24398	-0.591129	-1.39591	-1.32192	-1.03965	-0.101498	-0.577672	-0.304596	
0.828634	1.70898	5	0	-1.27635	-1.3087	-0.351337	-2.29386	0.962835	-1.72304	-0.405285	-1.55239	-2.42084	-0.422924	-0.140882	-1.19178	-1.80354	-0.089279	-0.732027	-0.779649	-1.75456	-0.304391	-1.4356	-0.871055	-2.2787	-1.03684	-0.91712	-0.518147	-1.29059	-0.63065	-1.4666	-1.38187	-1.04414	-0.098563	-0.600657	-0.334664	
0.810168	1.71203	5	0	-1.27135	-1.30528	-0.318241	-2.30326	0.846382	-1.66173	-0.403127	-1.60223	-2.52135	-0.406473	-0.14304	-1.23498	-1.88561	-0.125148	-0.765449	-0.822362	-1.83644	-0.354954	-1.50307	-0.917483	-2.3607	-1.10059	-0.936076	-0.560996	-1.3372	-0.670171	-1.53729	-1.44182	-1.04863	-0.095628	-0.623643	-0.364732	
0.793625	1.71051	5	0	-1.26905	-1.2766	-0.283726	-2.29205	0.755088	-1.60208	-0.397512	-1.59624	-2.61715	-0.382675	-0.153754	-1.25387	-1.94284	-0.148611	-0.792973	-0.841937	-1.89322	-0.394875	-1.5497	-0.949917	-2.41994	-1.15178	-0.952692	-0.59401	-1.37521	-0.705768	-1.58109	-1.49223	-1.04829	-0.0868353	-0.634819	-0.392294	
0.78168	1.71509	5	0	-1.26675	-1.24793	-0.249211	-2.28085	0.663793	-1.54243	-0.391896	-1.59025	-2.71294	-0.358876	-0.164467	-1.27276	-2.00007	-0.172074	-0.820498	-0.861513	-1.95	-0.434797	-1.59632	-0.982351	-2.47917	-1.20297	-0.969307	-0.627023	-1.41321	-0.741365	-1.62489	-1.54264	-1.04795	-0.0780425	-0.645996	-0.419855	
0.777009	1.70898	5	0	-1.26445	-1.21925	-0.214696	-2.26965	0.572499	-1.48277	-0.38628	-1.58426	-2.80873	-0.335078	-0.175181	-1.29164	-2.0573	-0.195537	-0.848023	-0.881088	-2.00678	-0.474718	-1.64295	-1.01478	-2.5384	-1.25416	-0.985923	-0.660037	-1.45121	-0.776963	-1.66869	-1.59305	-1.04761	-0.0692497	-0.657172	-0.447416	
0.782289	1.71356	5	0	-1.26215	-1.19057	-0.180181	-2.25845	0.481204	-1.42312	-0.380665	-1.57827	-2.90453	-0.31128	-0.185895	-1.31053	-2.11453	-0.219	-0.875547	-0.900663	-2.06356	-0.51464	-1.68958	-1.04722	-2.59764	-1.30535	-1.00254	-0.693051	-1.48922	-0.81256	-1.71249	-1.64346	-1.04727	-0.060457	-0.668349	-0.474978	
0.800194	1.71356	5	0	-1.24865	-1.17583	-0.159335	-2.25668	0.415207	-1.36768	-0.368889	-1.57871	-2.96427	-0.302449	-0.192464	-1.32467	-2.16195	-0.229197	-0.882866	-0.909088	-2.10926	-0.539875	-1.72437	-1.0653	-2.64476	-1.33444	-1.02747	-0.702223	-1.51714	-0.840166	-1.7289	-1.66997	-1.04527	-0.0563497	-0.66579	-0.494016	
0.833096	1.71814	5	0	-1.23516	-1.16108	-0.138489	-2.2549	0.34921	-1.31223	-0.357113	-1.57915	-3.02402	-0.293618	-0.199034	-1.33881	-2.20938	-0.239393	-0.890185	-0.917513	-2.15496	-0.565111	-1.75916	-1.08339	-2.69189	-1.36353	-1.0524	-0.711396	-1.54507	-0.867771	-1.7453	-1.69647	-1.04326	-0.0522425	-0.663232	-0.513054	
0.879553	1.71203	5	0	-1.22166	-1.14633	-0.117644	-2.25312	0.283212	-1.25679	-0.345337	-1.57959	-3.08377	-0.284787	-0.205603	-1.35295	-2.25681	-0.24959	-0.897505	-0.925939	-2.20066	-0.590346	-1.79395	-1.10147	-2.73902	-1.39262	-1.07733	-0.720568	-1.573	-0.895377	-1.7617	-1.72298	-1.04126	-0.0481352	-0.660674	-0.532092	
0.935542	1.71356	5	0	-1.20816	-1.13159	-0.096798	-2.25135	0.217215	-1.20135	-0.333561	-1.58003	-3.14351	-0.275956	-0.212172	-1.36709	-2.30423	-0.259787	-0.904824	-0.934364	-2.24636	-0.615582	-1.82874	-1.11956	-2.78614	-1.42171	-1.10226	-0.72974	-1.60093	-0.922983	-1.77811	-1.74949	-1.03926	-0.044028	-0.658115	-0.55113	
0.99699	1.71661	5	0	-1.1896	-1.1133	-0.0800672	-2.24993	0.175541	-1.16177	-0.33304	-1.59246	-3.18661	-0.271201	-0.209539	-1.39086	-2.33585	-0.274622	-0.92347	-0.939751	-2.28686	-0.654236	-1.86222	-1.14064	-2.82221	-1.45392	-1.11813	-0.748357	-1.62872	-0.950375	-1.79595	-1.8078	-1.0356	-0.0446167	-0.670444	-0.575209	
1.05982	1.71509	5	0	-1.17104	-1.09502	-0.0633365	-2.24852	0.133868	-1.1222	-0.332518	-1.60489	-3.2297	-0.266447	-0.206905	-1.41463	-2.36748	-0.289457	-0.942117	-0.945137	-2.32736	-0.69289	-1.89569	-1.16172	-2.85829	-1.48614	-1.134	-0.766973	-1.65651	-0.977767	-1.8138	-1.86612	-1.03193	-0.0452055	-0.682773	-0.599288	
1.11997	1.71356	5	0	-1.15247	-1.07673	-0.0466058	-2.24711	0.0921938	-1.08263	-0.331997	-1.61731	-3.2728	-0.261692	-0.204271	-1.43841	-2.3991	-0.304291	-0.960763	-0.950524	-2.36787	-0.731545	-1.92917	-1.18281	-2.89436	-1.51835	-1.14987	-0.78559	-1.6843	-1.00516	-1.83165	-1.92444	-1.02826	-0.0457943	-0.695103	-0.623367	
1.17336	1.71509	5	0	-1.13391	-1.05844	-0.029875	-2.2457	0.05052	-1.04306	-0.331476	-1.62974	-3.31589	-0.256937	-0.201638	-1.46218	-2.43072	-0.319126	-0.979409	-0.955911	-2.40837	-0.770199	-1.96264	-1.20389	-2.93043	-1.55056	-1.16573	-0.804207	-1.71208	-1.03255	-1.8495	-1.98275	-1.0246	-0.046383	-0.707432	-0.647446	
1.21591	1.71661	5	0	-1.11022	-1.03656	-0.00753975	-2.23554	0.0223293	-1.00236	-0.334379	-1.65435	-3.33503	-0.261102	-0.204851	-1.48572	-2.46465	-0.326846	-1.01068	-0.963933	-2.46253	-0.801387	-2.0021	-1.23024	-2.97114	-1.5864	-1.18385	-0.832023	-1.73004	-1.06086	-1.89957	-2.04798	-1.02543	-0.0440333	-0.726018	-0.677098	
1.24356	1.71509	5	0	-1.08654	-1.01467	0.0147955	-2.22539	-0.0058615	-0.961672	-0.337282	-1.67897	-3.35416	-0.265267	-0.208064	-1.50926	-2.49858	-0.334566	-1.04196	-0.971955	-2.51669	-0.832576	-2.04157	-1.25659	-3.01185	-1.62225	-1.20197	-0.859839	-1.74799	-1.08918	-1.94963	-2.1132	-1.02626	-0.0416835	-0.744605	-0.706751	
1.25222	1.71356	5	0	-1.06285	-0.992789	0.0371308	-2.21523	-0.0340522	-0.92098	-0.340184	-1.70359	-3.3733	-0.269433	-0.211276	-1.5328	-2.53252	-0.342286	-1.07323	-0.979978	-2.57085	-0.863765	-2.08103	-1.28295	-3.05255	-1.65809	-1.22009	-0.887656	-1.76595	-1.11749	-1.99969	-2.17842	-1.02709	-0.0393338	-0.763192	-0.736403	
1.23828	1.71661	5	0	-1.03917	-0.970905	0.059466	-2.20507	-0.062243	-0.880288	-0.343087	-1.7282	-3.39243	-0.273598	-0.214489	-1.55634	-2.56645	-0.350006	-1.1045	-0.988	-2.62501	-0.894953	-2.1205	-1.3093	-3.09326	-1.69393	-1.23821	-0.915472	-1.7839	-1.1458	-2.04975	-2.24364	-1.02793	-0.036984	-0.781778	-0.766055	
1.20362	1.71814	5	0	-1.02396	-0.960375	0.0848197	-2.21543	-0.0943428	-0.854354	-0.342703	-1.76205	-3.41684	-0.270954	-0.227655	-1.5842	-2.60018	-0.35773	-1.1326	-1.0045	-2.67068	-0.926944	-2.15967	-1.33545	-3.13528	-1.73363	-1.25857	-0.952307	-1.80423	-1.17578	-2.0877	-2.29657	-1.02592	-0.0328703	-0.794061	-0.789821	
1.15384	1.72272	5	0	-1.00876	-0.949844	0.110174	-2.2258	-0.126443	-0.828421	-0.342319	-1.7959	-3.44125	-0.268309	-0.24082	-1.61206	-2.63391	-0.365454	-1.1607	-1.02101	-2.71636	-0.958934	-2.19885	-1.36159	-3.17729	-1.77334	-1.27894	-0.989143	-1.82457	-1.20575	-2.12565	-2.34951	-1.02392	-0.0287565	-0.806343	-0.813586	
1.09465	1.71814	5	0	-0.993558	-0.939314	0.135527	-2.23616	-0.158542	-0.802488	-0.341935	-1.82975	-3.46566	-0.265665	-0.253986	-1.63992	-2.66764	-0.373178	-1.18879	-1.03751	-2.76203	-0.990924	-2.23803	-1.38774	-3.2193	-1.81304	-1.2993	-1.02598	-1.8449	-1.23573	-2.1636	-2.40244	-1.02192	-0.0246427	-0.818626	-0.837352	
1.03173	1.71661	5	0	-0.978355	-0.928783	0.160881	-2.24653	-0.190642	-0.776554	-0.341551	-1.8636	-3.49007	-0.263021	-0.267152	-1.66778	-2.70136	-0.380902	-1.21689	-1.05401	-2.80771	-1.02292	-2.27721	-1.41389	-3.26132	-1.85274	-1.31966	-1.06281	-1.86524	-1.26571	-2.20155	-2.45538	-1.01991	-0.020529	-0.830909	-0.861118	
0.970778	1.71966	5	0	-0.96592	-0.892359	0.158086	-2.2509	-0.200933	-0.747469	-0.328548	-1.84571	-3.42428	-0.299363	-0.255541	-1.66809	-2.66419	-0.370007	-1.15326	-1.0125	-2.7815	-1.01125	-2.22454	-1.38001	-3.2452	-1.83685	-1.29269	-1.04466	-1.84106	-1.27287	-2.14923	-2.42516	-1.00356	-0.0275977	-0.81299	-0.85328	
0.91748	1.72272	5	0	-0.953485	-0.855935	0.155292	-2.25528	-0.211225	-0.718384	-0.315545	-1.82782	-3.35848	-0.335705	-0.243929	-1.6684	-2.62701	-0.359112	-1.08964	-0.970985	-2.75529	-0.999592	-2.17188	-1.34612	-3.22908	-1.82095	-1.26571	-1.02651	-1.81688	-1.28004	-2.09691	-2.39495	-0.987205	-0.0346665	-0.795071	-0.845441	
0.877357	1.72272	5	0	-0.941049	-0.81951	0.152498	-2.25965	-0.221516	-0.6893	-0.302541	-1.80994	-3.29269	-0.372047	-0.232318	-1.66871	-2.58983	-0.348217	-1.02601	-0.929471	-2.72908	-0.987931	-2.11922	-1.31224	-3.21296	-1.80505	-1.23874	-1.00836	-1.7927	-1.28721	-2.0446	-2.36474	-0.970852	-0.0417353	-0.777153	-0.837603	
0.851768	1.72272	5	0	-0.928614	-0.783086	0.149703	-2.26403	-0.231807	-0.660215	-0.289538	-1.79205	-3.22689	-0.408389	-0.220706	-1.66902	-2.55265	-0.337322	-0.962381	-0.887956	-2.70287	-0.976269	-2.06655	-1.27836	-3.19684	-1.78915	-1.21176	-0.990205	-1.76852	-1.29438	-1.99228	-2.33453	-0.954498	-0.048804	-0.759234	-0.829765	
0.837777	1.72272	5	0	-0.914593	-0.750866	0.129996	-2.25735	-0.237326	-0.631679	-0.274787	-1.76796	-3.16909	-0.44616	-0.185834	-1.63698	-2.51552	-0.312564	-0.886715	-0.828749	-2.661	-0.94361	-2.00524	-1.2207	-3.16202	-1.75518	-1.18169	-0.948603	-1.73285	-1.29866	-1.92244	-2.29785	-0.940126	-0.0600035	-0.729536	-0.819746	
0.832253	1.72272	5	0	-0.900572	-0.718647	0.110289	-2.25067	-0.242845	-0.603142	-0.260037	-1.74387	-3.11128	-0.483931	-0.150962	-1.60494	-2.47838	-0.287807	-0.811049	-0.769543	-2.61913	-0.910951	-1.94392	-1.16303	-3.1272	-1.7212	-1.15162	-0.907	-1.69718	-1.30295	-1.8526	-2.26116	-0.925755	-0.071203	-0.699839	-0.809726	
0.832063	1.72424	5	0	-0.886552	-0.686427	0.0905813	-2.24399	-0.248364	-0.574605	-0.245286	-1.71978	-3.05348	-0.521702	-0.11609	-1.5729	-2.44125	-0.263049	-0.735383	-0.710336	-2.57726	-0.878292	-1.88261	-1.10537	-3.09238	-1.68722	-1.12154	-0.865398	-1.6615	-1.30723	-1.78276	-2.22448	-0.911383	-0.0824025	-0.670141	-0.799706	
0.834076	1.72119	5	0	-0.872531	-0.654208	0.070874	-2.23731	-0.253883	-0.546069	-0.230535	-1.69569	-2.99567	-0.559473	-0.081218	-1.54087	-2.40411	-0.238291	-0.659717	-0.651129	-2.53539	-0.845633	-1.82129	-1.04771	-3.05756	-1.65325	-1.09147	-0.823795	-1.62583	-1.31151	-1.71292	-2.1878	-0.897011	-0.093602	-0.640443	-0.789687	
0.83516	1.72272	5	0	-0.8505	-0.644349	0.0722293	-2.2289	-0.245	-0.519328	-0.209058	-1.69038	-3.01039	-0.559825	-0.0477055	-1.53703	-2.3956	-0.249314	-0.622824	-0.637136	-2.52945	-0.851594	-1.82037	-1.03871	-3.05916	-1.66643	-1.09147	-0.823795	-1.62279	-1.33771	-1.71871	-2.21668	-0.897726	-0.111198	-0.632536	-0.812034	
0.832538	1.72577	5	0	-0.828469	-0.63449	0.0735845	-2.22049	-0.236117	-0.492588	-0.187582	-1.68507	-3.02512	-0.560178	-0.014193	-1.53319	-2.3871	-0.260337	-0.585931	-0.623143	-2.52351	-0.857555	-1.81944	-1.0297	-3.06076	-1.67961	-1.09147	-0.823795	-1.61974	-1.3639	-1.7245	-2.24556	-0.898441	-0.128794	-0.624629	-0.83438	
0.825998	1.72272	5	0	-0.806437	-0.624631	0.0749397	-2.21208	-0.227233	-0.465847	-0.166106	-1.67975	-3.03984	-0.560531	0.0193195	-1.52935	-2.37859	-0.271361	-0.549038	-0.60915	-2.51756	-0.863516	-1.81851	-1.0207	-3.06237	-1.69279	-1.09147	-0.823795	-1.6167	-1.3901	-1.73029	-2.27444	-0.899156	-0.14639	-0.616722	-0.856726	
0.816449	1.72729	5	0	-0.784406	-0.614772	0.076295	-2.20366	-0.21835	-0.439106	-0.144629	-1.67444	-3.05456	-0.560883	0.052832	-1.52552	-2.37008	-0.282384	-0.512145	-0.595157	-2.51162	-0.869477	-1.81759	-1.0117	-3.06397	-1.70597	-1.09147	-0.823795	-1.61365	-1.41629	-1.73608	-2.30332	-0.899871	-0.163986	-0.608815	-0.879073	
0.804806	1.72577	5	0	-0.777685	-0.615692	0.0974987	-2.22682	-0.22798	-0.437831	-0.141574	-1.72711	-3.08463	-0.551193	0.0571005	-1.55404	-2.39065	-0.315218	-0.523094	-0.603716	-2.54364	-0.908554	-1.84264	-1.03368	-3.09392	-1.75357	-1.09178	-0.870479	-1.62948	-1.45925	-1.75618	-2.38157	-0.894434	-0.189152	-0.617867	-0.912266	
0.791985	1.72424	5	0	-0.770965	-0.616611	0.118703	-2.24997	-0.237611	-0.436555	-0.138519	-1.77977	-3.1147	-0.541503	0.061369	-1.58256	-2.41121	-0.348052	-0.534043	-0.612276	-2.57566	-0.947632	-1.86768	-1.05567	-3.12387	-1.80117	-1.0921	-0.917164	-1.64531	-1.5022	-1.77628	-2.45983	-0.888997	-0.214317	-0.626918	-0.945458	
0.778901	1.72729	5	0	-0.764244	-0.61753	0.139906	-2.27312	-0.247241	-0.435279	-0.135464	-1.83244	-3.14477	-0.531813	0.0656375	-1.61109	-2.43177	-0.380886	-0.544992	-0.620836	-2.60768	-0.986709	-1.89273	-1.07766	-3.15383	-1.84877	-1.09241	-0.963848	-1.66114	-1.54515	-1.79638	-2.53809	-0.88356	-0.239483	-0.63597	-0.978651	
0.76649	1.72424	5	0	-0.757523	-0.61845	0.16111	-2.29627	-0.256871	-0.434004	-0.132409	-1.88511	-3.17484	-0.522123	0.069906	-1.63961	-2.45234	-0.41372	-0.555941	-0.629395	-2.6397	-1.02579	-1.91778	-1.09965	-3.18378	-1.89637	-1.09273	-1.01053	-1.67697	-1.58811	-1.81648	-2.61635	-0.878123	-0.264649	-0.645022	-1.01184	
0.756002	1.72729	5	0	-0.750795	-0.619373	0.17945	-2.29896	-0.264181	-0.439251	-0.137821	-1.9247	-3.20936	-0.507851	0.0875995	-1.67316	-2.47878	-0.442406	-0.564809	-0.643751	-2.66569	-1.07033	-1.93321	-1.12534	-3.20395	-1.94448	-1.10204	-1.04744	-1.69192	-1.62442	-1.83623	-2.67682	-0.872335	-0.281008	-0.643503	-1.03959	
0.748917	1.72424	5	0	-0.744067	-0.620295	0.19779	-2.30164	-0.27149	-0.444497	-0.143232	-1.9643	-3.24388	-0.49358	0.105293	-1.7067	-2.50521	-0.471092	-0.573678	-0.658107	-2.69168	-1.11487	-1.94863	-1.15102	-3.22413	-1.99259	-1.11136	-1.08436	-1.70687	-1.66074	-1.85597	-2.73729	-0.866546	-0.297366	-0.641984	-1.06734	
0.74672	1.72272	5	0	-0.737339	-0.621217	0.216129	-2.30433	-0.2788	-0.449744	-0.148644	-2.0039	-3.27841	-0.479308	0.122986	-1.74024	-2.53165	-0.499778	-0.582546	-0.672462	-2.71766	-1.15941	-1.96406	-1.17671	-3.24431	-2.0407	-1.12068	-1.12127	-1.72183	-1.69705	-1.87572	-2.79776	-0.860758	-0.313725	-0.640466	-1.09509	
0.750894	1.72577	5	0	-0.730611	-0.62214	0.234469	-2.30702	-0.28611	-0.454991	-0.154056	-2.0435	-3.31293	-0.465036	0.14068	-1.77379	-2.55809	-0.528464	-0.591414	-0.686818	-2.74365	-1.20395	-1.97949	-1.20239	-3.26448	-2.08882	-1.13	-1.15818	-1.73678	-1.73337	-1.89546	-2.85823	-0.85497	-0.330083	-0.638947	-1.12284	
0.762926	1.72577	5	0	-0.722276	-0.627586	0.251472	-2.31813	-0.297056	-0.462846	-0.15273	-2.08011	-3.33662	-0.45618	0.158348	-1.80724	-2.56915	-0.561535	-0.59533	-0.695429	-2.76046	-1.24179	-1.99177	-1.22521	-3.28141	-2.12813	-1.13373	-1.19493	-1.7444	-1.76402	-1.89706	-2.89823	-0.847156	-0.342365	-0.630021	-1.14807	
0.784169	1.72272	5	0	-0.713942	-0.633032	0.268475	-2.32924	-0.308002	-0.4707	-0.151403	-2.11672	-3.36031	-0.447325	0.176016	-1.8407	-2.58022	-0.594607	-0.599247	-0.704039	-2.77726	-1.27963	-2.00406	-1.24803	-3.29834	-2.16744	-1.13746	-1.23167	-1.75203	-1.79466	-1.89866	-2.93822	-0.839343	-0.354646	-0.621094	-1.1733	
0.811564	1.72272	5	0	-0.705607	-0.638479	0.285479	-2.34035	-0.318948	-0.478555	-0.150077	-2.15333	-3.38399	-0.43847	0.193684	-1.87416	-2.59128	-0.627678	-0.603163	-0.71265	-2.79407	-1.31747	-2.01634	-1.27085	-3.31527	-2.20676	-1.14119	-1.26841	-1.75965	-1.82531	-1.90027	-2.97822	-0.83153	-0.366928	-0.612167	-1.19853	
0.836664	1.72424	5	0	-0.697272	-0.643925	0.302482	-2.35146	-0.329894	-0.48641	-0.148751	-2.18993	-3.40768	-0.429614	0.211352	-1.90762	-2.60234	-0.660749	-0.607079	-0.72126	-2.81088	-1.35532	-2.02863	-1.29367	-3.3322	-2.24607	-1.14493	-1.30516	-1.76727	-1.85596	-1.90187	-3.01822	-0.823716	-0.37921	-0.603241	-1.22375	
0.850699	1.72272	5	0	-0.692129	-0.640333	0.309551	-2.34677	-0.327399	-0.480541	-0.137832	-2.22079	-3.40234	-0.43641	0.229892	-1.92702	-2.61365	-0.680095	-0.601525	-0.727121	-2.82742	-1.38291	-2.03888	-1.31061	-3.34348	-2.27495	-1.15196	-1.33245	-1.77004	-1.88287	-1.89638	-3.0515	-0.810995	-0.385729	-0.600844	-1.24225	
0.844896	1.72424	5	0	-0.686986	-0.63674	0.316621	-2.34208	-0.324904	-0.474672	-0.126912	-2.25165	-3.39701	-0.443207	0.248433	-1.94642	-2.62496	-0.69944	-0.59597	-0.732982	-2.84397	-1.41051	-2.04913	-1.32755	-3.35477	-2.30382	-1.15899	-1.35975	-1.7728	-1.90977	-1.8909	-3.08479	-0.798274	-0.392247	-0.598447	-1.26074	
0.810485	1.72424	5	0	-0.681842	-0.633148	0.32369	-2.33739	-0.322408	-0.468803	-0.115993	-2.28251	-3.39167	-0.450003	0.266973	-1.96582	-2.63627	-0.718785	-0.590416	-0.738843	-2.86051	-1.43811	-2.05938	-1.34448	-3.36605	-2.3327	-1.16603	-1.38705	-1.77557	-1.93667	-1.88541	-3.11807	-0.785554	-0.398766	-0.59605	-1.27923	
0.738877	1.72577	5	0	-0.676699	-0.629556	0.33076	-2.3327	-0.319913	-0.462934	-0.105074	-2.31337	-3.38633	-0.456799	0.285513	-1.98523	-2.64758	-0.738131	-0.584862	-0.744704	-2.87706	-1.4657	-2.06963	-1.36142	-3.37734	-2.36157	-1.17306	-1.41434	-1.77833	-1.96358	-1.87993	-3.15135	-0.772833	-0.405285	-0.593653	-1.29772	
0.635303	1.72729	5	0	-0.662847	-0.614217	0.349191	-2.32297	-0.285835	-0.442549	-0.098946	-2.31974	-3.35806	-0.478578	0.304988	-1.99066	-2.65422	-0.757769	-0.567756	-0.75365	-2.88266	-1.49221	-2.0642	-1.37675	-3.38461	-2.38431	-1.16331	-1.44189	-1.77393	-1.99337	-1.86802	-3.18501	-0.755564	-0.414775	-0.584927	-1.31067	
0.528166	1.72424	5	0	-0.648995	-0.598879	0.367622	-2.31324	-0.251757	-0.422163	-0.092818	-2.32611	-3.3298	-0.500357	0.324463	-1.9961	-2.66086	-0.777408	-0.55065	-0.762595	-2.88827	-1.51872	-2.05878	-1.39208	-3.39188	-2.40705	-1.15356	-1.46944	-1.76952	-2.02316	-1.85611	-3.21868	-0.738295	-0.424265	-0.576202	-1.32361	
0.448076	1.72577	5	0	-0.635142	-0.583541	0.386054	-2.30351	-0.21768	-0.401778	-0.08669	-2.33249	-3.30153	-0.522136	0.343938	-2.00154	-2.66749	-0.797046	-0.533543	-0.771541	-2.89388	-1.54522	-2.05335	-1.40741	-3.39915	-2.42979	-1.14382	-1.49699	-1.76511	-2.05295	-1.84419	-3.25234	-0.721025	-0.433756	-0.567476	-1.33655	
0.421815	1.72577	5	0	-0.62129	-0.568202	0.404485	-2.29379	-0.183602	-0.381392	-0.080562	-2.33886	-3.27326	-0.543915	0.363413	-2.00698	-2.67413	-0.816684	-0.516437	-0.780487	-2.89949	-1.57173	-2.04793	-1.42274	-3.40642	-2.45253	-1.13407	-1.52454	-1.7607	-2.08274	-1.83228	-3.286	-0.703756	-0.443246	-0.55875	-1.34949	
0.447838	1.72577	5	0	-0.598667	-0.540971	0.4215	-2.26742	-0.150283	-0.345031	-0.0446208	-2.3196	-3.25717	-0.556077	0.382021	-2.02642	-2.67367	-0.843521	-0.500321	-0.786552	-2.90209	-1.59607	-2.04143	-1.44111	-3.40815	-2.4822	-1.12273	-1.55658	-1.76584	-2.10285	-1.82944	-3.31181	-0.69016	-0.45213	-0.548915	-1.36556	
0.511909	1.72729	5	0	-0.576043	-0.513739	0.438515	-2.24105	-0.116965	-0.308671	-0.0086795	-2.30033	-3.24109	-0.568238	0.400629	-2.04587	-2.67321	-0.870359	-0.484205	-0.792617	-2.9047	-1.6204	-2.03493	-1.45947	-3.40988	-2.51186	-1.1114	-1.58861	-1.77097	-2.12295	-1.82659	-3.33761	-0.676564	-0.461014	-0.53908	-1.38163	
0.599731	1.72424	5	0	-0.55342	-0.486507	0.45553	-2.21469	-0.0836465	-0.272311	0.0272617	-2.28107	-3.22501	-0.580399	0.419237	-2.06532	-2.67276	-0.897196	-0.468088	-0.798683	-2.90731	-1.64474	-2.02844	-1.47783	-3.41161	-2.54153	-1.10006	-1.62064	-1.77611	-2.14306	-1.82375	-3.36342	-0.662967	-0.469898	-0.529246	-1.3977	
0.697007	1.72577	5	0	-0.530797	-0.459276	0.472545	-2.18832	-0.050328	-0.23595	0.063203	-2.26181	-3.20893	-0.592561	0.437845	-2.08476	-2.6723	-0.924033	-0.451972	-0.804748	-2.90991	-1.66908	-2.02194	-1.4962	-3.41334	-2.57119	-1.08873	-1.65268	-1.78125	-2.16316	-1.8209	-3.38922	-0.649371	-0.478782	-0.519411	-1.41377	
0.789441	1.72577	5	0	-0.485608	-0.421751	0.486702	-2.15358	0.00433625	-0.179681	0.101869	-2.22725	-3.18053	-0.614423	0.457422	-2.09027	-2.665	-0.944682	-0.426252	-0.80814	-2.90348	-1.68727	-2.01138	-1.5031	-3.40946	-2.59078	-1.0678	-1.68038	-1.77998	-2.18404	-1.79168	-3.39175	-0.628314	-0.488952	-0.50431	-1.42123	
0.862734	1.72424	5	0	-0.440419	-0.384225	0.50086	-2.11884	0.0590005	-0.123411	0.140535	-2.1927	-3.15213	-0.636285	0.476998	-2.09577	-2.65769	-0.965331	-0.400533	-0.811531	-2.89704	-1.70545	-2.00082	-1.50999	-3.40559	-2.61036	-1.04687	-1.70809	-1.77871	-2.20492	-1.76245	-3.39428	-0.607258	-0.499122	-0.489208	-1.42869	
0.904565	1.72424	5	0	-0.395231	-0.346699	0.515017	-2.0841	0.113665	-0.0671422	0.179201	-2.15815	-3.12373	-0.658147	0.496575	-2.10127	-2.65038	-0.985979	-0.374814	-0.814922	-2.89061	-1.72364	-1.99027	-1.51689	-3.40171	-2.62994	-1.02595	-1.7358	-1.77744	-2.22579	-1.73322	-3.39681	-0.586201	-0.509292	-0.474107	-1.43614	
0.916455	1.72577	5	0	-0.350042	-0.309174	0.529175	-2.04936	0.168329	-0.010873	0.217867	-2.1236	-3.09533	-0.680009	0.516152	-2.10678	-2.64308	-1.00663	-0.349094	-0.818314	-2.88417	-1.74182	-1.97971	-1.52379	-3.39784	-2.64952	-1.00502	-1.76351	-1.77616	-2.24667	-1.70399	-3.39934	-0.565144	-0.519462	-0.459006	-1.4436	
0.905863	1.73035	5	0	-0.331779	-0.249811	0.53473	-2.01506	0.201138	0.0426975	0.24874	-2.08827	-3.06374	-0.702298	0.535054	-2.09356	-2.62767	-1.02462	-0.321331	-0.8073	-2.87353	-1.75077	-1.95759	-1.52884	-3.38754	-2.66136	-0.979238	-1.77334	-1.76437	-2.26271	-1.6796	-3.39682	-0.55397	-0.521377	-0.446095	-1.44481	
0.88027	1.72577	5	0	-0.313516	-0.190448	0.540285	-1.98075	0.233947	0.096268	0.279612	-2.05295	-3.03216	-0.724586	0.553956	-2.08034	-2.61227	-1.04261	-0.293569	-0.796287	-2.86289	-1.75972	-1.93547	-1.53388	-3.37725	-2.67319	-0.953456	-1.78317	-1.75258	-2.27875	-1.6552	-3.39431	-0.542795	-0.523291	-0.433183	-1.44601	
0.847155	1.72424	5	0	-0.295253	-0.131086	0.545839	-1.94645	0.266755	0.149839	0.310485	-2.01763	-3.00058	-0.746874	0.572857	-2.06712	-2.59686	-1.0606	-0.265807	-0.785273	-2.85224	-1.76867	-1.91335	-1.53893	-3.36695	-2.68502	-0.927673	-1.79301	-1.74079	-2.29479	-1.6308	-3.39179	-0.53162	-0.525205	-0.420272	-1.44721	
0.813999	1.72729	5	0	-0.27699	-0.071723	0.551394	-1.91215	0.299564	0.203409	0.341358	-1.9823	-2.969	-0.769163	0.591759	-2.0539	-2.58145	-1.07859	-0.238044	-0.77426	-2.8416	-1.77762	-1.89123	-1.54397	-3.35666	-2.69686	-0.901891	-1.80284	-1.729	-2.31083	-1.6064	-3.38928	-0.520446	-0.52712	-0.40736	-1.44842	
0.788144	1.72424	5	0	-0.245175	-0.0313217	0.562692	-1.88139	0.323479	0.22952	0.365851	-1.96187	-2.96051	-0.776358	0.621819	-2.05522	-2.56136	-1.097	-0.201377	-0.777963	-2.84004	-1.79259	-1.87641	-1.55131	-3.35359	-2.71416	-0.885735	-1.81691	-1.72287	-2.32815	-1.59464	-3.41358	-0.500122	-0.535009	-0.395405	-1.45864	
0.772482	1.72424	5	0	-0.21336	0.0090795	0.573991	-1.85063	0.347393	0.255631	0.390345	-1.94144	-2.95203	-0.783552	0.651879	-2.05653	-2.54126	-1.11541	-0.164711	-0.781665	-2.83849	-1.80755	-1.86158	-1.55864	-3.35052	-2.73146	-0.869579	-1.83097	-1.71674	-2.34547	-1.58287	-3.43788	-0.479798	-0.542898	-0.383451	-1.46886	
0.764586	1.72577	5	0	-0.181545	0.0494808	0.585289	-1.81987	0.371308	0.281742	0.414838	-1.92101	-2.94355	-0.790747	0.681938	-2.05785	-2.52116	-1.13382	-0.128044	-0.785367	-2.83693	-1.82252	-1.84675	-1.56597	-3.34746	-2.74876	-0.853423	-1.84503	-1.71061	-2.36279	-1.5711	-3.46218	-0.459474	-0.550786	-0.371497	-1.47909	
0.761718	1.72272	5	0	-0.14973	0.089882	0.596587	-1.7891	0.395222	0.307853	0.439332	-1.90058	-2.93506	-0.797941	0.711998	-2.05917	-2.50106	-1.15223	-0.091377	-0.78907	-2.83538	-1.83748	-1.83193	-1.5733	-3.34439	-2.76606	-0.837267	-1.8591	-1.70448	-2.38011	-1.55934	-3.48649	-0.43915	-0.558675	-0.359542	-1.48931	
0.761141	1.72424	5	0	-0.124988	0.113601	0.612397	-1.78348	0.410313	0.318956	0.455551	-1.90143	-2.92658	-0.80514	0.732507	-2.08357	-2.49016	-1.18305	-0.0718748	-0.804067	-2.84503	-1.86295	-1.81373	-1.60166	-3.34701	-2.79315	-0.822775	-1.90005	-1.70632	-2.3922	-1.55635	-3.53071	-0.424611	-0.569973	-0.349678	-1.50539	
0.760117	1.72729	5	0	-0.100246	0.13732	0.628206	-1.77785	0.425405	0.33006	0.471771	-1.90228	-2.91809	-0.812338	0.753016	-2.10797	-2.47925	-1.21388	-0.0523725	-0.819063	-2.85468	-1.88842	-1.79553	-1.63001	-3.34963	-2.82024	-0.808283	-1.94101	-1.70816	-2.40429	-1.55336	-3.57494	-0.410071	-0.581271	-0.339814	-1.52148	
0.755954	1.72882	5	0	-0.075504	0.161038	0.644015	-1.77223	0.440496	0.341163	0.487991	-1.90313	-2.9096	-0.819537	0.773524	-2.13237	-2.46834	-1.2447	-0.0328703	-0.83406	-2.86433	-1.91389	-1.77733	-1.65837	-3.35225	-2.84733	-0.793792	-1.98197	-1.71	-2.41637	-1.55038	-3.61916	-0.395531	-0.592569	-0.32995	-1.53756	
0.748212	1.72577	5	0	-0.050762	0.184757	0.659825	-1.7666	0.455587	0.352266	0.50421	-1.90397	-2.90111	-0.826735	0.794033	-2.15677	-2.45743	-1.27553	-0.013368	-0.849057	-2.87399	-1.93936	-1.75913	-1.68672	-3.35487	-2.87442	-0.7793	-2.02292	-1.71184	-2.42846	-1.54739	-3.66339	-0.380992	-0.603867	-0.320086	-1.55365	
0.739624	1.72577	5	0	-0.0237095	0.240199	0.669575	-1.71844	0.497455	0.39614	0.529823	-1.85208	-2.85382	-0.859283	0.81388	-2.16241	-2.44549	-1.29646	0.0128135	-0.852631	-2.8664	-1.95026	-1.74425	-1.69409	-3.35657	-2.88682	-0.767204	-2.04129	-1.70252	-2.44616	-1.52839	-3.6813	-0.363885	-0.602452	-0.304892	-1.56117	
0.733166	1.72424	5	0	0.003343	0.295641	0.679326	-1.67029	0.539323	0.440013	0.555436	-1.80018	-2.80653	-0.891831	0.833727	-2.16805	-2.43355	-1.31739	0.038995	-0.856206	-2.85882	-1.96116	-1.72938	-1.70146	-3.35828	-2.89921	-0.755108	-2.05966	-1.6932	-2.46386	-1.50939	-3.69921	-0.346778	-0.601038	-0.289698	-1.56869	
0.731814	1.72882	5	0	0.0303955	0.351083	0.689076	-1.62213	0.58119	0.483886	0.581049	-1.74828	-2.75925	-0.92438	0.853573	-2.17368	-2.42161	-1.33832	0.0651765	-0.85978	-2.85123	-1.97206	-1.7145	-1.70884	-3.35999	-2.91161	-0.743012	-2.07802	-1.68388	-2.48155	-1.49039	-3.71711	-0.329672	-0.599623	-0.274504	-1.57621	
0.738542	1.72729	5	0	0.057448	0.406525	0.698827	-1.57397	0.623058	0.52776	0.606662	-1.69638	-2.71196	-0.956928	0.87342	-2.17932	-2.40967	-1.35926	0.091358	-0.863355	-2.84365	-1.98295	-1.69962	-1.71621	-3.3617	-2.92401	-0.730916	-2.09639	-1.67456	-2.49925	-1.4714	-3.73502	-0.312565	-0.598208	-0.25931	-1.58373	
0.756207	1.72729	5	0	0.105538	0.441582	0.718843	-1.54182	0.674009	0.561087	0.649258	-1.65738	-2.6667	-0.9832	0.903811	-2.18082	-2.39437	-1.36401	0.131579	-0.855687	-2.83334	-1.96986	-1.68279	-1.69423	-3.35136	-2.92739	-0.709763	-2.09276	-1.65389	-2.51442	-1.43615	-3.72686	-0.284544	-0.607508	-0.236606	-1.57685	
0.782496	1.72577	5	0	0.153628	0.476638	0.73886	-1.50966	0.724961	0.594414	0.691855	-1.61837	-2.62144	-1.00947	0.934201	-2.18231	-2.37907	-1.36876	0.1718	-0.848018	-2.82304	-1.95677	-1.66596	-1.67225	-3.34102	-2.93077	-0.688611	-2.08914	-1.63321	-2.52958	-1.40091	-3.71869	-0.256524	-0.616808	-0.213902	-1.56996	
0.808105	1.72729	5	0	0.201717	0.511694	0.758876	-1.47751	0.775912	0.627741	0.734451	-1.57937	-2.57618	-1.03575	0.964592	-2.18381	-2.36376	-1.37351	0.212022	-0.840349	-2.81274	-1.94367	-1.64913	-1.65027	-3.33068	-2.93415	-0.667459	-2.08551	-1.61254	-2.54475	-1.36567	-3.71052	-0.228503	-0.626108	-0.191198	-1.56308	
0.823227	1.72882	5	0	0.249807	0.546751	0.778893	-1.44535	0.826863	0.661068	0.777047	-1.54036	-2.53092	-1.06202	0.994983	-2.1853	-2.34846	-1.37826	0.252243	-0.832681	-2.80244	-1.93058	-1.6323	-1.6283	-3.32034	-2.93753	-0.646306	-2.08188	-1.59186	-2.55991	-1.33043	-3.70235	-0.200483	-0.635408	-0.168494	-1.5562	
0.818057	1.72729	5	0	0.289466	0.587966	0.785721	-1.40102	0.881073	0.714586	0.812354	-1.49091	-2.45133	-1.09914	1.03099	-2.16826	-2.31666	-1.378	0.30838	-0.807826	-2.77627	-1.91982	-1.59293	-1.61139	-3.30195	-2.93772	-0.622579	-2.06938	-1.57266	-2.5708	-1.29335	-3.6897	-0.176136	-0.644101	-0.152292	-1.54258	
0.782791	1.72729	5	0	0.329125	0.629181	0.79255	-1.35668	0.935283	0.768104	0.847662	-1.44146	-2.37175	-1.13627	1.06699	-2.15121	-2.28486	-1.37774	0.364516	-0.782971	-2.7501	-1.90907	-1.55356	-1.59449	-3.28356	-2.93791	-0.598851	-2.05687	-1.55347	-2.58169	-1.25626	-3.67705	-0.151789	-0.652794	-0.136091	-1.52896	
0.70816	1.72729	5	0	0.368785	0.670396	0.799378	-1.31235	0.989494	0.821621	0.882969	-1.39201	-2.29216	-1.17339	1.10299	-2.13416	-2.25306	-1.37749	0.420652	-0.758115	-2.72393	-1.89831	-1.51419	-1.57758	-3.26517	-2.9381	-0.575124	-2.04437	-1.53427	-2.59258	-1.21918	-3.6644	-0.127443	-0.661488	-0.119889	-1.51534	
0.603036	1.72729	5	0	0.408444	0.711611	0.806207	-1.26801	1.0437	0.875139	0.918276	-1.34255	-2.21258	-1.21052	1.139	-2.11712	-2.22125	-1.37723	0.476789	-0.73326	-2.69776	-1.88756	-1.47482	-1.56068	-3.24678	-2.93829	-0.551396	-2.03186	-1.51507	-2.60346	-1.18209	-3.65174	-0.103096	-0.670181	-0.103687	-1.50171	
0.498415	1.72424	5	0	0.428801	0.769888	0.808431	-1.21045	1.10237	0.932414	0.936427	-1.30142	-2.13002	-1.26281	1.17353	-2.09515	-2.19525	-1.37312	0.519792	-0.710808	-2.69471	-1.88557	-1.45342	-1.55086	-3.23396	-2.93989	-0.522704	-2.03305	-1.49659	-2.61222	-1.15966	-3.65159	-0.086156	-0.657746	-0.0851973	-1.49437	
0.426639	1.72577	5	0	0.449157	0.828164	0.810656	-1.15288	1.16103	0.989689	0.954577	-1.26028	-2.04745	-1.31511	1.20806	-2.07317	-2.16924	-1.36902	0.562796	-0.688356	-2.69166	-1.88357	-1.43203	-1.54104	-3.22115	-2.94149	-0.494012	-2.03423	-1.47811	-2.62098	-1.13723	-3.65144	-0.069216	-0.645312	-0.0667075	-1.48702	
0.41198	1.72729	5	0	0.469514	0.886441	0.812881	-1.09532	1.21969	1.04696	0.972728	-1.21914	-1.96489	-1.3674	1.24259	-2.0512	-2.14323	-1.36491	0.6058	-0.665904	-2.68861	-1.88158	-1.41063	-1.53123	-3.20834	-2.9431	-0.46532	-2.03541	-1.45963	-2.62974	-1.11479	-3.65129	-0.052276	-0.632877	-0.0482178	-1.47967	
0.447222	1.72729	5	0	0.489871	0.944718	0.815105	-1.03775	1.27835	1.10424	0.990879	-1.178	-1.88233	-1.41969	1.27712	-2.02923	-2.11723	-1.3608	0.648803	-0.643452	-2.68556	-1.87958	-1.38923	-1.52141	-3.19553	-2.9447	-0.436628	-2.0366	-1.44115	-2.63851	-1.09236	-3.65114	-0.035336	-0.620442	-0.029728	-1.47232	
0.517462	1.72577	5	0	0.501093	0.990609	0.823304	-0.996852	1.29292	1.13334	0.999377	-1.15563	-1.85285	-1.44227	1.30394	-2.00193	-2.11015	-1.35485	0.675715	-0.626355	-2.68159	-1.88018	-1.37207	-1.51113	-3.18755	-2.94991	-0.422591	-2.02816	-1.42492	-2.64082	-1.07318	-3.65069	-0.016203	-0.603905	-0.0145453	-1.45544	
0.607797	1.72577	5	0	0.512316	1.0365	0.831504	-0.955953	1.30748	1.16244	1.00788	-1.13326	-1.82337	-1.46484	1.33075	-1.97462	-2.10308	-1.34889	0.702627	-0.609259	-2.67762	-1.88078	-1.35491	-1.50086	-3.17958	-2.95512	-0.408554	-2.01972	-1.40868	-2.64314	-1.05401	-3.65024	0.00293	-0.587368	0.0006375	-1.43855	
0.703326	1.72729	5	0	0.523539	1.08239	0.839703	-0.915054	1.32204	1.19155	1.01637	-1.11089	-1.79389	-1.48741	1.35757	-1.94732	-2.09601	-1.34294	0.729539	-0.592162	-2.67365	-1.88138	-1.33775	-1.49058	-3.17161	-2.96033	-0.394517	-2.01129	-1.39245	-2.64545	-1.03483	-3.64978	0.022063	-0.570832	0.0158202	-1.42167	
0.789145	1.72729	5	0	0.534761	1.12828	0.847903	-0.874155	1.3366	1.22065	1.02487	-1.08851	-1.76441	-1.50998	1.38439	-1.92002	-2.08894	-1.33699	0.756451	-0.575065	-2.66968	-1.88198	-1.32059	-1.4803	-3.16363	-2.96554	-0.38048	-2.00285	-1.37621	-2.64777	-1.01565	-3.64933	0.041196	-0.554295	0.031003	-1.40478	
0.850501	1.72577	5	0	0.567766	1.19119	0.873215	-0.803954	1.36046	1.26619	1.04973	-1.03058	-1.73636	-1.52831	1.41134	-1.89251	-2.06755	-1.33241	0.787737	-0.548991	-2.66725	-1.86759	-1.30015	-1.46731	-3.15399	-2.96676	-0.36225	-1.99003	-1.35993	-2.6501	-0.994775	-3.64438	0.0680572	-0.539031	0.043969	-1.38144	
0.880827	1.72272	5	0	0.600771	1.25411	0.898528	-0.733753	1.38432	1.31173	1.07458	-0.972653	-1.70832	-1.54663	1.43828	-1.86499	-2.04617	-1.32784	0.819022	-0.522918	-2.66482	-1.85319	-1.2797	-1.45431	-3.14436	-2.96798	-0.34402	-1.97722	-1.34365	-2.65244	-0.973894	-3.63943	0.0949185	-0.523767	0.056935	-1.3581	
0.885894	1.72882	5	0	0.633776	1.31702	0.923841	-0.663552	1.40818	1.35726	1.09944	-0.914723	-1.68027	-1.56496	1.46523	-1.83748	-2.02478	-1.32327	0.850308	-0.496844	-2.66239	-1.8388	-1.25926	-1.44131	-3.13472	-2.9692	-0.325791	-1.9644	-1.32738	-2.65477	-0.953014	-3.63448	0.12178	-0.508502	0.069901	-1.33476	
0.872494	1.72577	5	0	0.666781	1.37993	0.949153	-0.593351	1.43204	1.4028	1.12429	-0.856793	-1.65222	-1.58329	1.49218	-1.80997	-2.00339	-1.3187	0.881594	-0.47077	-2.65996	-1.82441	-1.23882	-1.42831	-3.12508	-2.97041	-0.307561	-1.95158	-1.3111	-2.6571	-0.932134	-3.62954	0.148641	-0.493238	0.082867	-1.31142	
0.847418	1.72577	5	0	0.679928	1.46079	0.96662	-0.499889	1.44948	1.46718	1.13715	-0.787618	-1.62136	-1.59186	1.51852	-1.76275	-1.98572	-1.29034	0.915156	-0.429399	-2.65326	-1.80072	-1.22061	-1.39686	-3.12011	-2.95839	-0.295816	-1.92022	-1.28552	-2.65051	-0.910459	-3.60824	0.18683	-0.468672	0.0945915	-1.27231	
0.817456	1.72729	5	0	0.693074	1.54164	0.984087	-0.406427	1.46691	1.53156	1.15002	-0.718443	-1.5905	-1.60044	1.54487	-1.71554	-1.96804	-1.26198	0.948717	-0.388027	-2.64657	-1.77704	-1.2024	-1.36541	-3.11515	-2.94638	-0.28407	-1.88885	-1.25995	-2.64392	-0.888784	-3.58694	0.225019	-0.444106	0.106316	-1.23321	
0.7894	1.72729	5	0	0.70622	1.6225	1.00155	-0.312966	1.48435	1.59594	1.16288	-0.649267	-1.55964	-1.60901	1.57122	-1.66832	-1.95037	-1.23362	0.982279	-0.346656	-2.63988	-1.75336	-1.18419	-1.33397	-3.11018	-2.93436	-0.272324	-1.85748	-1.23438	-2.63733	-0.867109	-3.56564	0.263209	-0.41954	0.11804	-1.1941	
0.768795	1.72577	5	0	0.719367	1.70335	1.01902	-0.219504	1.50179	1.66032	1.17574	-0.580092	-1.52877	-1.61759	1.59757	-1.62111	-1.93269	-1.20526	1.01584	-0.305285	-2.63319	-1.72968	-1.16598	-1.30252	-3.10521	-2.92234	-0.260579	-1.82612	-1.2088	-2.63074	-0.845434	-3.54434	0.301398	-0.394974	0.129765	-1.155	
0.756544	1.72882	5	0	0.732297	1.76573	1.0353	-0.147833	1.51781	1.71507	1.18424	-0.533436	-1.49723	-1.63654	1.62123	-1.58305	-1.9125	-1.18367	1.05178	-0.269632	-2.62678	-1.71576	-1.14437	-1.2803	-3.10112	-2.91653	-0.24225	-1.81314	-1.18969	-2.62319	-0.829497	-3.53413	0.324325	-0.367488	0.147189	-1.13172	
0.752473	1.72729	5	0	0.745226	1.8281	1.05158	-0.0761615	1.53383	1.76981	1.19275	-0.486781	-1.46569	-1.65549	1.64489	-1.54499	-1.89231	-1.16209	1.08772	-0.233979	-2.62038	-1.70185	-1.12276	-1.25809	-3.09702	-2.91071	-0.223921	-1.80015	-1.17057	-2.61565	-0.813561	-3.52393	0.347253	-0.340003	0.164612	-1.10844	
0.756406	1.72577	5	0	0.758155	1.89047	1.06786	-0.00449025	1.54985	1.82455	1.20125	-0.440125	-1.43415	-1.67444	1.66856	-1.50693	-1.87212	-1.1405	1.12366	-0.198326	-2.61397	-1.68794	-1.10115	-1.23587	-3.09293	-2.90489	-0.205591	-1.78717	-1.15145	-2.6081	-0.797624	-3.51373	0.370181	-0.312518	0.182036	-1.08517	
0.768168	1.72577	5	0	0.771085	1.95285	1.08414	0.067181	1.56587	1.8793	1.20975	-0.393469	-1.40261	-1.69339	1.69222	-1.46887	-1.85193	-1.11892	1.1596	-0.162673	-2.60757	-1.67403	-1.07954	-1.21366	-3.08883	-2.89907	-0.187262	-1.77419	-1.13234	-2.60056	-0.781687	-3.50353	0.393108	-0.285032	0.19946	-1.06189	
0.787584	1.72577	5	0	0.769277	1.99767	1.09366	0.105955	1.54876	1.89903	1.2013	-0.369577	-1.40765	-1.69673	1.70053	-1.43968	-1.83637	-1.11029	1.18656	-0.132608	-2.61007	-1.65626	-1.06887	-1.18411	-3.07994	-2.89808	-0.183844	-1.75137	-1.11799	-2.58816	-0.768304	-3.48595	0.420023	-0.258024	0.204601	-1.02791	
0.814159	1.72577	5	0	0.767468	2.0425	1.10319	0.144728	1.53164	1.91877	1.19285	-0.345685	-1.41269	-1.70007	1.70885	-1.41048	-1.8208	-1.10166	1.21352	-0.102544	-2.61258	-1.6385	-1.0582	-1.15455	-3.07105	-2.89708	-0.180426	-1.72855	-1.10365	-2.57576	-0.75492	-3.46836	0.446939	-0.231015	0.209742	-0.993937	
0.843528	1.72577	5	0	0.765659	2.08732	1.11272	0.183502	1.51453	1.9385	1.18439	-0.321792	-1.41772	-1.7034	1.71716	-1.38129	-1.80524	-1.09303	1.24047	-0.0724788	-2.61508	-1.62074	-1.04753	-1.125	-3.06217	-2.89609	-0.177008	-1.70573	-1.0893	-2.56336	-0.741537	-3.45078	0.473855	-0.204007	0.214883	-0.959962	
0.868758	1.72882	5	0	0.763851	2.13215	1.12224	0.222276	1.49741	1.95824	1.17594	-0.2979	-1.42276	-1.70674	1.72547	-1.35209	-1.78968	-1.0844	1.26743	-0.042414	-2.61759	-1.60297	-1.03685	-1.09545	-3.05328	-2.89509	-0.17359	-1.68291	-1.07496	-2.55096	-0.728153	-3.4332	0.50077	-0.176999	0.220024	-0.925987	
0.882873	1.72882	5	0	0.782119	2.18017	1.13549	0.290454	1.48953	1.99484	1.18188	-0.24373	-1.43739	-1.70049	1.74824	-1.32829	-1.77779	-1.06522	1.29341	-0.00896475	-2.61705	-1.58311	-1.02066	-1.06931	-3.05152	-2.88261	-0.156845	-1.66511	-1.05572	-2.54337	-0.707939	-3.4162	0.528679	-0.152224	0.236342	-0.899111	
0.878893	1.72272	5	0	0.800388	2.2282	1.14873	0.358631	1.48164	2.03144	1.18782	-0.18956	-1.45202	-1.69425	1.77101	-1.30449	-1.76591	-1.04604	1.31938	0.0244845	-2.61651	-1.56326	-1.00446	-1.04317	-3.04977	-2.87013	-0.1401	-1.64731	-1.03649	-2.53578	-0.687725	-3.39919	0.556587	-0.12745	0.252661	-0.872235	
0.849839	1.72729	5	0	0.818656	2.27623	1.16197	0.426809	1.47375	2.06805	1.19375	-0.13539	-1.46664	-1.688	1.79377	-1.28068	-1.75403	-1.02686	1.34536	0.0579337	-2.61597	-1.5434	-0.988261	-1.01703	-3.04802	-2.85765	-0.123355	-1.62951	-1.01725	-2.52819	-0.667512	-3.38219	0.584495	-0.102676	0.268979	-0.84536	
0.788785	1.72424	5	0	0.836924	2.32425	1.17521	0.494987	1.46586	2.10465	1.19969	-0.08122	-1.48127	-1.68175	1.81654	-1.25688	-1.74215	-1.00768	1.37133	0.091383	-2.61543	-1.52354	-0.972064	-0.990896	-3.04627	-2.84517	-0.10661	-1.61171	-0.998016	-2.5206	-0.647298	-3.36518	0.612404	-0.077901	0.285297	-0.818484	
0.697835	1.72424	5	0	0.849598	2.38863	1.19855	0.57522	1.46183	2.15906	1.21033	-0.0162475	-1.48759	-1.67266	1.82044	-1.19708	-1.73039	-0.97474	1.40176	0.134449	-2.61465	-1.49362	-0.953689	-0.958575	-3.03797	-2.82497	-0.0981465	-1.57028	-0.973419	-2.50125	-0.625617	-3.3147	0.643994	-0.0420335	0.293513	-0.768422	
0.598356	1.72729	5	0	0.862272	2.453	1.22189	0.655454	1.45779	2.21348	1.22096	0.048725	-1.49391	-1.66356	1.82434	-1.13728	-1.71863	-0.941806	1.43218	0.177515	-2.61387	-1.4637	-0.935314	-0.926254	-3.02967	-2.80477	-0.089683	-1.52884	-0.948823	-2.4819	-0.603935	-3.26422	0.675583	-0.006166	0.301729	-0.71836	
0.514191	1.72272	5	0	0.874947	2.51737	1.24522	0.735687	1.45375	2.26789	1.2316	0.113698	-1.50023	-1.65446	1.82824	-1.07749	-1.70687	-0.908871	1.4626	0.22058	-2.61309	-1.43378	-0.916938	-0.893934	-3.02138	-2.78457	-0.0812195	-1.48741	-0.924227	-2.46255	-0.582253	-3.21374	0.707173	0.0297015	0.309945	-0.668298	
0.468868	1.72424	5	0	0.887621	2.58175	1.26856	0.81592	1.44971	2.3223	1.24223	0.17867	-1.50655	-1.64536	1.83214	-1.01769	-1.69511	-0.875936	1.49303	0.263646	-2.61231	-1.40386	-0.898563	-0.861613	-3.01308	-2.76437	-0.072756	-1.44598	-0.89963	-2.4432	-0.560572	-3.16326	0.738763	0.065569	0.318161	-0.618236	
0.47176	1.72729	0	5	0.896552	2.63705	1.27991	0.890905	1.44955	2.36585	1.24547	0.241127	-1.51287	-1.63626	1.85137	-0.983118	-1.67723	-0.84676	1.52908	0.313439	-2.60544	-1.36961	-0.871417	-0.817306	-2.99908	-2.74264	-0.0676973	-1.39469	-0.876283	-2.41094	-0.538089	-3.10498	0.760834	0.108125	0.334095	-0.565111	
0.512648	1.72424	0	5	0.905483	2.69235	1.29125	0.96589	1.44939	2.4094	1.2487	0.303584	-1.51919	-1.62716	1.87059	-0.948546	-1.65935	-0.817584	1.56514	0.363232	-2.59858	-1.33536	-0.844272	-0.773	-2.98509	-2.72091	-0.0626385	-1.3434	-0.852936	-2.37868	-0.515607	-3.04669	0.782906	0.15068	0.35003	-0.511985	
0.579878	1.72272	0	5	0.914414	2.74765	1.30259	1.04088	1.44923	2.45295	1.25193	0.366041	-1.52551	-1.61807	1.88982	-0.913975	-1.64147	-0.788408	1.60119	0.413026	-2.59171	-1.30111	-0.817126	-0.728693	-2.97109	-2.69918	-0.0575797	-1.29212	-0.829588	-2.34643	-0.493124	-2.9884	0.804978	0.193236	0.365965	-0.45886	
0.661797	1.72882	0	5	0.923345	2.80295	1.31394	1.11586	1.44907	2.4965	1.25516	0.428498	-1.53183	-1.60896	1.90905	-0.879403	-1.62359	-0.759232	1.63725	0.462819	-2.58484	-1.26686	-0.78998	-0.684386	-2.95709	-2.67746	-0.052521	-1.24083	-0.806241	-2.31417	-0.470642	-2.93011	0.827049	0.235792	0.381899	-0.405735	
0.74675	1.72424	0	5	0.930283	2.86424	1.33132	1.1879	1.44074	2.56323	1.27332	0.509161	-1.53043	-1.58663	1.91642	-0.828822	-1.60221	-0.712828	1.69125	0.529065	-2.56264	-1.22181	-0.751802	-0.621518	-2.93561	-2.64146	-0.0391592	-1.17978	-0.777674	-2.27813	-0.441367	-2.8618	0.843862	0.272652	0.3978	-0.351994	
0.823083	1.72729	0	5	0.93722	2.92553	1.3487	1.25994	1.43242	2.62996	1.29147	0.589823	-1.52902	-1.5643	1.9238	-0.778242	-1.58084	-0.666424	1.74526	0.595311	-2.54044	-1.17677	-0.713623	-0.55865	-2.91413	-2.60546	-0.0257975	-1.11874	-0.749108	-2.24208	-0.412092	-2.79349	0.860674	0.309511	0.413701	-0.298254	
0.87964	1.72577	0	5	0.944157	2.98681	1.36608	1.33198	1.42409	2.69669	1.30962	0.670486	-1.52762	-1.54197	1.93118	-0.727661	-1.55946	-0.62002	1.79926	0.661558	-2.51824	-1.13172	-0.675445	-0.495781	-2.89264	-2.56947	-0.0124357	-1.05769	-0.720541	-2.20604	-0.382818	-2.72518	0.877486	0.346371	0.429602	-0.244513	
0.913484	1.72729	0	5	0.951095	3.0481	1.38346	1.40402	1.41576	2.76342	1.32778	0.751148	-1.52622	-1.51964	1.93856	-0.67708	-1.53809	-0.573616	1.85327	0.727804	-2.49604	-1.08668	-0.637266	-0.432913	-2.87116	-2.53347	0.000926	-0.99664	-0.691974	-2.17	-0.353543	-2.65687	0.894299	0.383231	0.445503	-0.190772	
0.928417	1.72424	0	5	0.954296	3.09996	1.38084	1.47909	1.40859	2.82699	1.3286	0.8333	-1.52368	-1.48295	1.93205	-0.604952	-1.51068	-0.516703	1.90589	0.811686	-2.47357	-1.03088	-0.602418	-0.359052	-2.84708	-2.48659	0.0319985	-0.935251	-0.658106	-2.13006	-0.319397	-2.56283	0.917351	0.42409	0.466827	-0.12695	
0.928439	1.72424	0	5	0.957496	3.15181	1.37822	1.55416	1.40142	2.89056	1.32942	0.915452	-1.52113	-1.44625	1.92555	-0.532824	-1.48326	-0.459791	1.95852	0.895568	-2.45111	-0.975072	-0.56757	-0.285191	-2.823	-2.4397	0.063071	-0.873862	-0.624239	-2.09012	-0.285251	-2.46878	0.940404	0.464948	0.488152	-0.0631275	
0.917551	1.72424	0	5	0.960697	3.20367	1.3756	1.62922	1.39425	2.95413	1.33024	0.997604	-1.51858	-1.40955	1.91905	-0.460696	-1.45585	-0.402879	2.01115	0.979451	-2.42864	-0.919267	-0.532722	-0.211331	-2.79892	-2.39281	0.0941435	-0.812474	-0.590372	-2.05017	-0.251105	-2.37474	0.963456	0.505806	0.509476	0.00069475	
0.899751	1.72424	0	5	0.963898	3.25553	1.37298	1.70429	1.38707	3.0177	1.33106	1.07976	-1.51603	-1.37286	1.91255	-0.388568	-1.42844	-0.345966	2.06378	1.06333	-2.40618	-0.863463	-0.497874	-0.13747	-2.77483	-2.34593	0.125216	-0.751085	-0.556504	-2.01023	-0.216959	-2.2807	0.986509	0.546665	0.530801	0.064517	
0.879041	1.72577	0	5	0.966994	3.30788	1.38151	1.76169	1.37834	3.08578	1.33761	1.17041	-1.48745	-1.31247	1.93527	-0.326745	-1.39233	-0.285451	2.10036	1.13914	-2.37458	-0.81079	-0.461498	-0.078797	-2.74906	-2.30309	0.134992	-0.678577	-0.531035	-1.97297	-0.172057	-2.19572	1.00787	0.571542	0.546631	0.11965	
0.859275	1.72577	0	5	0.97009	3.36023	1.39004	1.81908	1.3696	3.15387	1.34417	1.26106	-1.45886	-1.25209	1.95799	-0.264922	-1.35623	-0.224936	2.13695	1.21494	-2.34299	-0.758117	-0.425122	-0.020124	-2.7233	-2.26026	0.144769	-0.606069	-0.505566	-1.93571	-0.127155	-2.11074	1.02923	0.596418	0.56246	0.174783	
0.8422	1.72424	0	5	0.973185	3.41258	1.39857	1.87648	1.36087	3.22195	1.35072	1.35171	-1.43028	-1.1917	1.98071	-0.203099	-1.32012	-0.164422	2.17353	1.29074	-2.31139	-0.705444	-0.388746	0.038549	-2.69753	-2.21742	0.154546	-0.533561	-0.480097	-1.89845	-0.0822522	-2.02577	1.05059	0.621295	0.578289	0.229915	
0.827974	1.72577	0	5	0.976281	3.46493	1.40711	1.93388	1.35214	3.29003	1.35727	1.44236	-1.40169	-1.13132	2.00343	-0.141276	-1.28402	-0.103907	2.21012	1.36655	-2.27979	-0.652771	-0.35237	0.097222	-2.67176	-2.17459	0.164322	-0.461053	-0.454628	-1.86118	-0.03735	-1.94079	1.07195	0.646172	0.594119	0.285048	
0.816716	1.72729	0	5	0.983463	3.48548	1.40308	1.95887	1.35287	3.33145	1.35501	1.49746	-1.35616	-1.09989	2.02449	-0.110258	-1.24093	-0.0754115	2.24436	1.41666	-2.25956	-0.611011	-0.322316	0.137457	-2.64517	-2.1513	0.18797	-0.427206	-0.433019	-1.84907	-0.0065175	-1.89183	1.07148	0.658169	0.604753	0.317687	
0.808547	1.72272	0	5	0.990644	3.50603	1.39906	1.98386	1.35361	3.37287	1.35276	1.55257	-1.31063	-1.06846	2.04556	-0.0792405	-1.19785	-0.046916	2.2786	1.46678	-2.23934	-0.569251	-0.292262	0.177691	-2.61858	-2.12801	0.211618	-0.393359	-0.411411	-1.83695	0.024315	-1.84288	1.07102	0.670165	0.615387	0.350326	
0.803585	1.72729	0	5	0.997826	3.52658	1.39504	2.00886	1.35435	3.41429	1.3505	1.60767	-1.2651	-1.03703	2.06662	-0.0482228	-1.15476	-0.0184205	2.31284	1.5169	-2.21911	-0.527491	-0.262207	0.217925	-2.592	-2.10472	0.235266	-0.359512	-0.389802	-1.82484	0.0551475	-1.79392	1.07055	0.682162	0.62602	0.382966	
0.801948	1.72577	0	5	1.00501	3.54713	1.39101	2.03385	1.35508	3.45571	1.34825	1.66277	-1.21957	-1.0056	2.08768	-0.017205	-1.11168	0.010075	2.34708	1.56702	-2.19888	-0.485731	-0.232153	0.25816	-2.56541	-2.08143	0.258914	-0.325665	-0.368193	-1.81272	0.08598	-1.74496	1.07009	0.694159	0.636654	0.415605	
0.803271	1.72424	0	5	0.997239	3.56908	1.39607	2.06048	1.2449	3.82527	1.34622	1.72958	-1.07932	-1.03207	2.10394	0.0460858	-1.08096	0.0471268	2.38313	1.62462	-2.17136	-0.441865	-0.20438	0.305689	-2.53692	-2.03591	0.267802	-0.266466	-0.340082	-1.78185	0.115537	-1.67172	1.08616	0.712981	0.657337	0.457899	
0.806094	1.72424	0	5	0.98947	3.59104	1.40112	2.08711	1.13471	4.19482	1.3442	1.79638	-0.939062	-1.05853	2.1202	0.109377	-1.05025	0.0841785	2.41918	1.68223	-2.14385	-0.398	-0.176607	0.353218	-2.50843	-1.99039	0.276689	-0.207267	-0.311971	-1.75097	0.145094	-1.59849	1.10222	0.731804	0.678019	0.500193	
0.808803	1.72424	0	5	0.981702	3.613	1.40618	2.11374	1.02453	4.56438	1.34218	1.86319	-0.798809	-1.085	2.13646	0.172667	-1.01954	0.12123	2.45523	1.73983	-2.11633	-0.354134	-0.148834	0.400748	-2.47994	-1.94487	0.285577	-0.148068	-0.28386	-1.7201	0.174651	-1.52526	1.11829	0.750627	0.698702	0.542488	
0.809783	1.72424	0	5	0.973933	3.63495	1.41124	2.14036	0.914348	4.93393	1.34015	1.92999	-0.658556	-1.11147	2.15272	0.235958	-0.988825	0.158282	2.49127	1.79743	-2.08882	-0.310268	-0.121061	0.448277	-2.45146	-1.89936	0.294465	-0.088869	-0.255749	-1.68922	0.204208	-1.45203	1.13435	0.769449	0.719385	0.584782	
0.807422	1.72577	0	5	0.973933	3.63495	1.41345	2.16146	0.664799	5.62464	1.33926	1.9938	-0.403609	-1.20181	2.16621	0.289351	-0.956621	0.191947	2.51283	1.82827	-2.05174	-0.259108	-0.110745	0.507848	-2.41192	-1.84779	0.311737	-0.0189935	-0.231768	-1.6553	0.243641	-1.37558	1.14237	0.78972	0.737632	0.634508	
0.800106	1.72424	0	5	0.973933	3.63495	1.41565	2.18255	0.41525	6.31535	1.33837	2.05761	-0.148662	-1.29215	2.17971	0.342743	-0.924416	0.225612	2.53439	1.8591	-2.01466	-0.207948	-0.10043	0.567418	-2.37238	-1.79623	0.329009	0.050882	-0.207786	-1.62137	0.283075	-1.29914	1.1504	0.809991	0.75588	0.684234	
0.78655	1.72424	0	5	0.973933	3.63495	1.41786	2.20364	0.165701	7.00605	1.33748	2.12142	0.106286	-1.38249	2.1932	0.396135	-0.892212	0.259276	2.55594	1.88993	-1.97757	-0.156788	-0.0901145	0.626989	-2.33284	-1.74467	0.346281	0.120758	-0.183804	-1.58744	0.322508	-1.22269	1.15842	0.830262	0.774127	0.73396	
0.767843	1.72577	0	5	0.973933	3.63495	1.42007	2.22474	-0.083848	7.69676	1.33658	2.18523	0.361233	-1.47283	2.20669	0.449528	-0.860008	0.292941	2.5775	1.92077	-1.94049	-0.105628	-0.079799	0.68656	-2.2933	-1.69311	0.363553	0.190633	-0.159823	-1.55351	0.361941	-1.14625	1.16644	0.850533	0.792374	0.783686	
