0.792	1.23443	0	0	0	0	0.050247	0.258086	0	0	-0.035789	0.145056	0	0	-0.008528	0.167852	-0.096702	0.248717	-0.152505	-0.00612	-0.055218	0.209106	0.05327	0.228233	-0.108154	0.24285	-0.008604	0.246224	-0.052655	0.168756	-0.032896	0.161232	-0.061562	0.152612	0.030059	0.099888	
0.798535	1.23901	0	0	0	0	0.0455533	0.271351	0	0	-0.035789	0.145056	0	0	-0.008528	0.167852	-0.0932542	0.251264	-0.157508	-0.00087375	-0.0562318	0.211971	0.0480697	0.231631	-0.10932	0.246145	-4.275E-05	0.235262	-0.0574578	0.169866	-0.0271925	0.155463	-0.0476603	0.148971	0.0246007	0.103455	
0.802216	1.23596	0	0	0	0	0.0408595	0.284616	0	0	-0.035789	0.145056	0	0	-0.008528	0.167852	-0.0898065	0.25381	-0.162511	0.0043725	-0.0572455	0.214837	0.0428695	0.235029	-0.110486	0.24944	0.0085185	0.224299	-0.0622605	0.170976	-0.021489	0.149695	-0.0337585	0.14533	0.0191425	0.107022	
0.803449	1.23901	0	0	0	0	0.0361657	0.29788	0	0	-0.035789	0.145056	0	0	-0.008528	0.167852	-0.0863587	0.256357	-0.167514	0.00961875	-0.0582592	0.217702	0.0376693	0.238427	-0.111651	0.252734	0.0170797	0.213337	-0.0670633	0.172086	-0.0157855	0.143926	-0.0198567	0.141688	0.0136842	0.110588	
0.802642	1.23596	0	0	0	0	0.031472	0.311145	0	0	-0.035789	0.145056	0	0	-0.008528	0.167852	-0.082911	0.258904	-0.172517	0.014865	-0.059273	0.220568	0.032469	0.241825	-0.112817	0.256029	0.025641	0.202375	-0.071866	0.173196	-0.010082	0.138157	-0.005955	0.138047	0.008226	0.114155	
0.800204	1.23596	0	0	0	0	0.0361657	0.29788	0	0	-0.0347725	0.142183	0	0	-0.0109803	0.158801	-0.0920115	0.260051	-0.179328	0.00746075	-0.0630592	0.218637	0.0256055	0.238646	-0.116198	0.250642	0.0123178	0.200357	-0.0727992	0.175834	-0.0148458	0.14127	-0.0141622	0.14341	0.007153	0.117187	
0.79654	1.23596	0	0	0	0	0.0408595	0.284616	0	0	-0.033756	0.13931	0	0	-0.0134325	0.149751	-0.101112	0.261198	-0.186138	5.65E-05	-0.0668455	0.216705	0.018742	0.235466	-0.119579	0.245255	-0.0010055	0.198339	-0.0737325	0.178472	-0.0196095	0.144382	-0.0223695	0.148773	0.00608	0.120219	
0.79206	1.23901	0	0	0	0	0.0455533	0.271351	0	0	-0.0327395	0.136437	0	0	-0.0158847	0.140701	-0.110213	0.262345	-0.192949	-0.00734775	-0.0706317	0.214774	0.0118785	0.232287	-0.12296	0.239868	-0.0143287	0.196321	-0.0746658	0.18111	-0.0243732	0.147495	-0.0305767	0.154135	0.005007	0.12325	
0.787169	1.23138	0	0	0	0	0.050247	0.258086	0	0	-0.031723	0.133564	0	0	-0.018337	0.13165	-0.119313	0.263492	-0.19976	-0.014752	-0.074418	0.212843	0.005015	0.229107	-0.126341	0.234481	-0.027652	0.194303	-0.075599	0.183748	-0.029137	0.150608	-0.038784	0.159498	0.003934	0.126282	
0.782277	1.23596	0	0	0	0	0.04777	0.252066	0	0	-0.0289418	0.136165	0	0	-0.0240532	0.131838	-0.120549	0.25471	-0.203388	-0.0222443	-0.077189	0.208051	0.00569475	0.215909	-0.129721	0.229101	-0.0288018	0.184347	-0.0785317	0.179582	-0.0281975	0.147953	-0.0482365	0.168398	0.0006245	0.123784	
0.777791	1.23749	0	0	0	0	0.045293	0.246046	0	0	-0.0261605	0.138766	0	0	-0.0297695	0.132025	-0.121784	0.245928	-0.207017	-0.0297365	-0.07996	0.203259	0.0063745	0.20271	-0.1331	0.223722	-0.0299515	0.174392	-0.0814645	0.175416	-0.027258	0.145298	-0.057689	0.177297	-0.002685	0.121286	
0.774117	1.23443	0	0	0	0	0.042816	0.240026	0	0	-0.0233793	0.141367	0	0	-0.0354858	0.132213	-0.12302	0.237147	-0.210645	-0.0372287	-0.082731	0.198466	0.00705425	0.189511	-0.13648	0.218342	-0.0311013	0.164437	-0.0843973	0.17125	-0.0263185	0.142643	-0.0671415	0.186196	-0.0059945	0.118787	
0.771664	1.23443	0	0	0	0	0.040339	0.234006	0	0	-0.020598	0.143968	0	0	-0.041202	0.132401	-0.124255	0.228365	-0.214274	-0.044721	-0.085502	0.193674	0.007734	0.176313	-0.139859	0.212962	-0.032251	0.154481	-0.08733	0.167084	-0.025379	0.139988	-0.076594	0.195096	-0.009304	0.116289	
0.770821	1.23443	0	0	0	0	0.031878	0.231904	0	0	-0.020598	0.143968	0	0	-0.0395703	0.12779	-0.137874	0.230081	-0.214728	-0.0523047	-0.0892835	0.191747	0.00254625	0.179702	-0.141023	0.216251	-0.032251	0.154481	-0.0930585	0.170827	-0.0301403	0.143099	-0.0753407	0.191554	-0.008232	0.113259	
0.771479	1.23291	0	0	0	0	0.023417	0.229803	0	0	-0.020598	0.143968	0	0	-0.0379385	0.123178	-0.151493	0.231797	-0.215182	-0.0598885	-0.093065	0.18982	-0.0026415	0.183092	-0.142186	0.219539	-0.032251	0.154481	-0.098787	0.174571	-0.0349015	0.14621	-0.0740875	0.188012	-0.00716	0.110229	
0.772997	1.23596	0	0	0	0	0.014956	0.227702	0	0	-0.020598	0.143968	0	0	-0.0363067	0.118566	-0.165112	0.233512	-0.215637	-0.0674722	-0.0968465	0.187892	-0.00782925	0.186482	-0.14335	0.222828	-0.032251	0.154481	-0.104515	0.178314	-0.0396627	0.149321	-0.0728343	0.184471	-0.006088	0.107199	
0.774708	1.23291	0	0	0	0	0.006495	0.2256	0	0	-0.020598	0.143968	0	0	-0.034675	0.113955	-0.178731	0.235228	-0.216091	-0.075056	-0.100628	0.185965	-0.013017	0.189871	-0.144514	0.226117	-0.032251	0.154481	-0.110244	0.182057	-0.044424	0.152432	-0.071581	0.180929	-0.005016	0.104169	
0.775943	1.23596	0	0	0	0	0.00519125	0.216292	0	0	-0.020598	0.143968	0	0	-0.0460928	0.11433	-0.181063	0.229576	-0.220625	-0.079965	-0.106163	0.176403	-0.0186943	0.183394	-0.151265	0.215372	-0.039473	0.14851	-0.116098	0.173734	-0.0444893	0.142277	-0.076016	0.175665	-0.00939575	0.104702	
0.776035	1.23138	0	0	0	0	0.0038875	0.206983	0	0	-0.020598	0.143968	0	0	-0.0575105	0.114705	-0.183395	0.223924	-0.225158	-0.084874	-0.111698	0.166842	-0.0243715	0.176918	-0.158017	0.204628	-0.046695	0.142539	-0.121952	0.165411	-0.0445545	0.132123	-0.080451	0.170401	-0.0137755	0.105235	
0.77432	1.22986	0	0	0	0	0.00258375	0.197675	0	0	-0.020598	0.143968	0	0	-0.0689282	0.11508	-0.185726	0.218272	-0.229691	-0.089783	-0.117233	0.15728	-0.0300487	0.170441	-0.164768	0.193883	-0.053917	0.136567	-0.127806	0.157087	-0.0446197	0.121968	-0.084886	0.165136	-0.0181552	0.105769	
0.770682	1.22833	0	0	0	0	0.00128	0.188367	0	0	-0.020598	0.143968	0	0	-0.080346	0.115455	-0.188058	0.21262	-0.234225	-0.094692	-0.122768	0.147719	-0.035726	0.163964	-0.171519	0.183138	-0.061139	0.130596	-0.13366	0.148764	-0.044685	0.111813	-0.089321	0.159872	-0.022535	0.106302	
0.766	1.22681	0	0	0	0	0.00492275	0.191065	0	0	-0.0198515	0.152325	0	0	-0.0762707	0.119878	-0.196016	0.210652	-0.23649	-0.0971438	-0.131324	0.14673	-0.0385625	0.16073	-0.170358	0.179857	-0.0599102	0.127123	-0.136585	0.144609	-0.0475655	0.109621	-0.0950027	0.158148	-0.0214638	0.103274	
0.761258	1.22223	0	0	0	0	0.0085655	0.193763	0	0	-0.019105	0.160682	0	0	-0.0721955	0.1243	-0.203975	0.208684	-0.238756	-0.0995955	-0.13988	0.145741	-0.041399	0.157496	-0.169196	0.176575	-0.0586815	0.12365	-0.13951	0.140455	-0.050446	0.107428	-0.100684	0.156425	-0.0203925	0.100246	
0.757441	1.22223	0	0	0	0	0.0122083	0.19646	0	0	-0.0183585	0.169039	0	0	-0.0681203	0.128723	-0.211933	0.206717	-0.241021	-0.102047	-0.148436	0.144753	-0.0442355	0.154261	-0.168035	0.173293	-0.0574528	0.120177	-0.142434	0.1363	-0.0533265	0.105236	-0.106366	0.154701	-0.0193212	0.0972187	
0.755535	1.2207	0	0	0	0	0.015851	0.199158	0	0	-0.017612	0.177396	0	0	-0.064045	0.133146	-0.219891	0.204749	-0.243287	-0.104499	-0.156992	0.143764	-0.047072	0.151027	-0.166874	0.170012	-0.056224	0.116704	-0.145359	0.132145	-0.056207	0.103044	-0.112048	0.152978	-0.01825	0.094191	
0.756518	1.22681	0	0	0	0	0.00856775	0.193764	0	0	-0.017612	0.177396	0	0	-0.0697502	0.13333	-0.223317	0.202213	-0.247815	-0.109398	-0.155983	0.140913	-0.0494138	0.157645	-0.168035	0.173293	-0.0586823	0.123651	-0.142434	0.1363	-0.0580823	0.108344	-0.113299	0.156513	-0.0193212	0.0972187	
0.760451	1.2207	0	0	0	0	0.0012845	0.18837	0	0	-0.017612	0.177396	0	0	-0.0754555	0.133514	-0.226742	0.199676	-0.252343	-0.114297	-0.154975	0.138062	-0.0517555	0.164262	-0.169196	0.176575	-0.0611405	0.130599	-0.13951	0.140455	-0.0599575	0.113644	-0.114549	0.160048	-0.0203925	0.100246	
0.765473	1.2207	0	0	0	0	-0.00599875	0.182977	0	0	-0.017612	0.177396	0	0	-0.0811608	0.133699	-0.230167	0.19714	-0.256872	-0.119196	-0.153966	0.135211	-0.0540972	0.17088	-0.170358	0.179857	-0.0635988	0.137546	-0.136585	0.144609	-0.0618327	0.118944	-0.1158	0.163582	-0.0214638	0.103274	
0.769484	1.23443	0	0	0	0	-0.013282	0.177583	0	0	-0.017612	0.177396	0	0	-0.086866	0.133883	-0.233593	0.194604	-0.2614	-0.124095	-0.152957	0.13236	-0.056439	0.177498	-0.171519	0.183138	-0.066057	0.144493	-0.13366	0.148764	-0.063708	0.124244	-0.117051	0.167117	-0.022535	0.106302	
0.770383	1.24359	0	0	0	0	-0.006139	0.17038	0	0	-0.0148295	0.180004	0	0	-0.0795297	0.129089	-0.238114	0.195172	-0.270893	-0.12378	-0.156727	0.130442	-0.0512608	0.174115	-0.176052	0.181055	-0.059988	0.140527	-0.136585	0.144609	-0.0589522	0.121136	-0.117051	0.167117	-0.0323563	0.110392	
0.766071	1.23749	0	0	0	0	0.001004	0.163177	0	0	-0.012047	0.182613	0	0	-0.0721935	0.124296	-0.242636	0.19574	-0.280386	-0.123464	-0.160496	0.128524	-0.0460825	0.170731	-0.180586	0.178973	-0.053919	0.136562	-0.13951	0.140455	-0.0541965	0.118028	-0.117051	0.167117	-0.0421775	0.114481	
0.754452	1.23749	0	0	0	0	0.008147	0.155973	0	0	-0.0092645	0.185221	0	0	-0.0648573	0.119502	-0.247157	0.196309	-0.28988	-0.123148	-0.164266	0.126605	-0.0409043	0.167347	-0.185119	0.176891	-0.04785	0.132597	-0.142434	0.1363	-0.0494408	0.114921	-0.117051	0.167117	-0.0519987	0.11857	
0.735194	1.22986	0	0	0	0	0.01529	0.14877	0	0	-0.006482	0.187829	0	0	-0.057521	0.114708	-0.251678	0.196877	-0.299373	-0.122833	-0.168036	0.124687	-0.035726	0.163964	-0.189652	0.174808	-0.041781	0.128631	-0.145359	0.132145	-0.044685	0.111813	-0.117051	0.167117	-0.06182	0.12266	
0.712271	1.22833	0	0	0	0	0.0154302	0.161367	0	0	-0.00573775	0.196205	0	0	-0.0550738	0.123746	-0.255099	0.194343	-0.294853	-0.117935	-0.168036	0.124687	-0.022516	0.160424	-0.183957	0.173609	-0.0406297	0.138573	-0.144429	0.129516	-0.0408645	0.111355	-0.118302	0.170653	-0.06182	0.12266	
0.6903	1.23291	0	0	0	0	0.0155705	0.173964	0	0	-0.0049935	0.20458	0	0	-0.0526265	0.132783	-0.258519	0.191808	-0.290334	-0.113037	-0.168036	0.124687	-0.009306	0.156884	-0.178263	0.17241	-0.0394785	0.148515	-0.143499	0.126888	-0.037044	0.110897	-0.119554	0.174189	-0.06182	0.12266	
0.673901	1.23138	0	0	0	0	0.0157107	0.186561	0	0	-0.00424925	0.212956	0	0	-0.0501792	0.14182	-0.261939	0.189273	-0.285814	-0.10814	-0.168036	0.124687	0.003904	0.153343	-0.172568	0.171211	-0.0383273	0.158457	-0.142569	0.124259	-0.0332235	0.110439	-0.120805	0.177725	-0.06182	0.12266	
0.667692	1.22986	0	0	0	0	0.015851	0.199158	0	0	-0.003505	0.221332	0	0	-0.047732	0.150858	-0.26536	0.186739	-0.281294	-0.103242	-0.168036	0.124687	0.017114	0.149803	-0.166874	0.170012	-0.037176	0.168399	-0.141639	0.12163	-0.029403	0.109981	-0.122056	0.181261	-0.06182	0.12266	
0.675445	1.22833	0	0	0	0	0.0193562	0.189252	0	0	0.0023405	0.215296	0	0	-0.053442	0.151042	-0.272195	0.181676	-0.284007	-0.0955753	-0.173818	0.128465	0.010754	0.156506	-0.166874	0.170012	-0.034795	0.174875	-0.145361	0.132149	-0.0340977	0.123249	-0.125813	0.191878	-0.0585185	0.125159	
0.695149	1.24054	0	0	0	0	0.0228615	0.179345	0	0	0.008186	0.20926	0	0	-0.059152	0.151226	-0.279029	0.176613	-0.28672	-0.0879085	-0.179601	0.132244	0.004394	0.163208	-0.166874	0.170012	-0.032414	0.181351	-0.149083	0.142668	-0.0387925	0.136516	-0.12957	0.202495	-0.055217	0.127659	
0.72237	1.20697	0	0	0	0	0.0263668	0.169439	0	0	0.0140315	0.203224	0	0	-0.064862	0.151409	-0.285864	0.171549	-0.289432	-0.0802418	-0.185384	0.136022	-0.001966	0.169911	-0.166874	0.170012	-0.030033	0.187827	-0.152805	0.153187	-0.0434873	0.149784	-0.133326	0.213112	-0.0519155	0.130158	
0.752665	1.22375	0	0	0	0	0.029872	0.159533	0	0	0.019877	0.197188	0	0	-0.070572	0.151593	-0.292699	0.166486	-0.292145	-0.072575	-0.191166	0.1398	-0.008326	0.176614	-0.166874	0.170012	-0.027652	0.194303	-0.156527	0.163706	-0.048182	0.163052	-0.137083	0.223729	-0.048614	0.132657	
0.781589	1.22528	0	0	0	0	0.0250595	0.160141	0	0	0.0143062	0.191969	0	0	-0.0762765	0.151775	-0.297208	0.167052	-0.287625	-0.0676617	-0.186392	0.138871	-0.012338	0.176688	-0.176052	0.181055	-0.0264192	0.190819	-0.160379	0.162178	-0.0434208	0.159941	-0.124469	0.223659	-0.0529867	0.133186	
0.804701	1.22528	0	0	0	0	0.020247	0.160749	0	0	0.0087355	0.18675	0	0	-0.081981	0.151956	-0.301717	0.167619	-0.283104	-0.0627485	-0.181617	0.137941	-0.01635	0.176763	-0.18523	0.192099	-0.0251865	0.187335	-0.16423	0.16065	-0.0386595	0.15683	-0.111854	0.223588	-0.0573595	0.133715	
0.817589	1.22833	0	0	0	0	0.0154345	0.161356	0	0	0.00316475	0.181531	0	0	-0.0876855	0.152138	-0.306227	0.168185	-0.278584	-0.0578352	-0.176843	0.137012	-0.020362	0.176838	-0.194408	0.203143	-0.0239538	0.183852	-0.168081	0.159122	-0.0338983	0.153719	-0.0992403	0.223518	-0.0617322	0.134243	
0.818193	1.22223	0	0	0	0	0.010622	0.161964	0	0	-0.002406	0.176312	0	0	-0.09339	0.15232	-0.310736	0.168751	-0.274064	-0.052922	-0.172069	0.136083	-0.024374	0.176912	-0.203586	0.214186	-0.022721	0.180368	-0.171933	0.157594	-0.029137	0.150608	-0.086626	0.223447	-0.066105	0.134772	
0.808398	1.22528	0	0	0	0	0.013098	0.167959	0	0	-0.011025	0.179731	0	0	-0.0876855	0.152138	-0.306102	0.180017	-0.263656	-0.0380425	-0.176105	0.147489	-0.0283835	0.176986	-0.204748	0.21747	-0.0239538	0.183852	-0.170073	0.152336	-0.0272582	0.145298	-0.0809365	0.225183	-0.0704748	0.1353	
0.790467	1.22223	0	0	0	0	0.015574	0.173955	0	0	-0.019644	0.183149	0	0	-0.081981	0.151956	-0.301467	0.191282	-0.253248	-0.023163	-0.18014	0.158894	-0.032393	0.177059	-0.20591	0.220754	-0.0251865	0.187335	-0.168212	0.147078	-0.0253795	0.139989	-0.075247	0.226919	-0.0748445	0.135827	
0.766661	1.22375	0	0	0	0	0.01805	0.17995	0	0	-0.028263	0.186568	0	0	-0.0762765	0.151775	-0.296832	0.202547	-0.24284	-0.0082835	-0.184176	0.1703	-0.0364025	0.177132	-0.207072	0.224038	-0.0264192	0.190819	-0.166351	0.14182	-0.0235008	0.13468	-0.0695575	0.228654	-0.0792142	0.136354	
0.739242	1.22833	0	0	0	0	0.020526	0.185945	0	0	-0.036882	0.189987	0	0	-0.070572	0.151593	-0.292198	0.213813	-0.232432	0.006596	-0.188212	0.181706	-0.040412	0.177206	-0.208234	0.227322	-0.027652	0.194303	-0.164491	0.136562	-0.021622	0.12937	-0.063868	0.23039	-0.083584	0.136882	
0.710499	1.21918	0	0	0	0	0.0133773	0.193156	0	0	-0.04623	0.185041	0	0	-0.0762765	0.151775	-0.288663	0.228217	-0.227921	0.0293598	-0.180676	0.185562	-0.043929	0.187145	-0.206031	0.23599	-0.0349628	0.201759	-0.166351	0.14182	-0.0273225	0.135136	-0.0581727	0.232126	-0.0846555	0.13991	
0.683326	1.22528	0	0	0	0	0.0062285	0.200367	0	0	-0.055578	0.180095	0	0	-0.081981	0.151956	-0.285127	0.242621	-0.223411	0.0521235	-0.17314	0.189418	-0.047446	0.197085	-0.203827	0.244659	-0.0422735	0.209215	-0.168212	0.147078	-0.033023	0.140901	-0.0524775	0.233863	-0.085727	0.142937	
0.661217	1.22528	0	0	0	0	-0.00092025	0.207577	0	0	-0.064926	0.175149	0	0	-0.0876855	0.152138	-0.281592	0.257024	-0.2189	0.0748873	-0.165605	0.193273	-0.050963	0.207025	-0.201624	0.253327	-0.0495842	0.216672	-0.170073	0.152336	-0.0387235	0.146667	-0.0467822	0.235599	-0.0867985	0.145965	
0.647691	1.22986	0	0	0	0	-0.008069	0.214788	0	0	-0.074274	0.170203	0	0	-0.09339	0.15232	-0.278057	0.271428	-0.21439	0.097651	-0.158069	0.197129	-0.05448	0.216964	-0.199421	0.261995	-0.056895	0.224128	-0.171933	0.157594	-0.044424	0.152432	-0.041087	0.237335	-0.08787	0.148993	
0.646266	1.22833	0	0	0	0	-0.00937225	0.205487	0	0	-0.074001	0.158988	0	0	-0.097459	0.147894	-0.268899	0.282199	-0.206233	0.110177	-0.160091	0.202844	-0.057313	0.21372	-0.202786	0.256612	-0.0568073	0.210684	-0.172064	0.14556	-0.0444893	0.142277	-0.045527	0.232051	-0.0911653	0.146491	
0.660435	1.23901	0	0	0	0	-0.0106755	0.196186	0	0	-0.073728	0.147773	0	0	-0.101528	0.143467	-0.259741	0.292969	-0.198076	0.122704	-0.162114	0.20856	-0.060146	0.210476	-0.206152	0.251228	-0.0567195	0.197241	-0.172196	0.133526	-0.0445545	0.132123	-0.049967	0.226768	-0.0944605	0.14399	
0.690735	1.24054	0	0	0	0	-0.0119787	0.186884	0	0	-0.073455	0.136558	0	0	-0.105597	0.139041	-0.250583	0.303739	-0.189919	0.135231	-0.164136	0.214276	-0.062979	0.207232	-0.209517	0.245845	-0.0566317	0.183798	-0.172327	0.121492	-0.0446197	0.121968	-0.054407	0.221485	-0.0977558	0.141488	
0.732179	1.24359	0	0	0	0	-0.013282	0.177583	0	0	-0.073182	0.125343	0	0	-0.109666	0.134614	-0.241425	0.31451	-0.181762	0.147757	-0.166159	0.219991	-0.065812	0.203988	-0.212883	0.240462	-0.056544	0.170354	-0.172458	0.109458	-0.044685	0.111813	-0.058847	0.216201	-0.101051	0.138987	
0.77918	1.24359	0	0	0	0	-0.0036615	0.176371	0	0	-0.074942	0.11988	0	0	-0.109666	0.134614	-0.225505	0.318501	-0.170406	0.160231	-0.163401	0.224785	-0.0577975	0.203846	-0.212883	0.240462	-0.060152	0.167364	-0.170601	0.104209	-0.045623	0.114464	-0.0601022	0.219748	-0.0999803	0.135961	
0.826145	1.25122	0	0	0	0	0.005959	0.17516	0	0	-0.076702	0.114417	0	0	-0.109666	0.134614	-0.209586	0.322493	-0.159049	0.172706	-0.160642	0.229579	-0.049783	0.203705	-0.212883	0.240462	-0.06376	0.164375	-0.168743	0.098961	-0.046561	0.117115	-0.0613575	0.223296	-0.0989095	0.132935	
0.867486	1.24817	0	0	0	0	0.0155795	0.173949	0	0	-0.078462	0.108953	0	0	-0.109666	0.134614	-0.193666	0.326485	-0.147693	0.18518	-0.157884	0.234374	-0.0417685	0.203564	-0.212883	0.240462	-0.067368	0.161386	-0.166886	0.0937125	-0.047499	0.119767	-0.0626127	0.226843	-0.0978388	0.12991	
0.897612	1.24969	0	0	0	0	0.0252	0.172737	0	0	-0.080222	0.10349	0	0	-0.109666	0.134614	-0.177747	0.330476	-0.136336	0.197655	-0.155126	0.239168	-0.033754	0.203422	-0.212883	0.240462	-0.070976	0.158396	-0.165029	0.088464	-0.048437	0.122418	-0.063868	0.23039	-0.096768	0.126884	
0.910933	1.25122	0	0	0	0	0.0179132	0.167353	0	0	-0.0827308	0.0897228	0	0	-0.106408	0.125407	-0.179958	0.336726	-0.13498	0.202748	-0.15338	0.246833	-0.0349272	0.206737	-0.210682	0.249135	-0.0770407	0.162359	-0.162106	0.0926075	-0.0455555	0.124614	-0.0720675	0.235748	-0.0978388	0.12991	
0.903742	1.25275	0	0	0	0	0.0106265	0.161969	0	0	-0.0852395	0.0759555	0	0	-0.103151	0.1162	-0.182169	0.342975	-0.133624	0.207842	-0.151635	0.254497	-0.0361005	0.210053	-0.208481	0.257808	-0.0831055	0.166322	-0.159183	0.096751	-0.042674	0.126809	-0.080267	0.241106	-0.0989095	0.132935	
0.880423	1.25885	0	0	0	0	0.00333975	0.156585	0	0	-0.0877482	0.0621883	0	0	-0.0998928	0.106993	-0.184381	0.349224	-0.132267	0.212935	-0.14989	0.262161	-0.0372738	0.213368	-0.206279	0.266482	-0.0891703	0.170284	-0.15626	0.100894	-0.0397925	0.129005	-0.0884665	0.246463	-0.0999803	0.135961	
0.847534	1.25732	0	0	0	0	-0.003947	0.151201	0	0	-0.090257	0.048421	0	0	-0.096635	0.097786	-0.186592	0.355474	-0.130911	0.218029	-0.148144	0.269826	-0.038447	0.216684	-0.204078	0.275155	-0.095235	0.174247	-0.153337	0.105038	-0.036911	0.1312	-0.096666	0.251821	-0.101051	0.138987	
0.811635	1.26037	0	0	0	0	0.00436125	0.140705	0	0	-0.0937807	0.0375455	0	0	-0.106396	0.0935605	-0.191128	0.356035	-0.134541	0.210437	-0.14713	0.266962	-0.0476333	0.220137	-0.208605	0.273056	-0.096379	0.164313	-0.154266	0.107664	-0.0397925	0.129005	-0.103602	0.253626	-0.104344	0.136487	
0.779283	1.2619	0	0	0	0	0.0126695	0.13021	0	0	-0.0973045	0.02667	0	0	-0.116157	0.089335	-0.195663	0.356596	-0.13817	0.202846	-0.146116	0.264097	-0.0568195	0.223591	-0.213133	0.270956	-0.097523	0.154378	-0.155195	0.110291	-0.042674	0.126809	-0.110538	0.255431	-0.107637	0.133987	
0.757037	1.2619	0	0	0	0	0.0209777	0.119714	0	0	-0.100828	0.0157945	0	0	-0.125918	0.0851095	-0.200199	0.357157	-0.141799	0.195254	-0.145103	0.261232	-0.0660058	0.227045	-0.21766	0.268856	-0.098667	0.144444	-0.156125	0.112917	-0.0455555	0.124614	-0.117475	0.257236	-0.110931	0.131488	
0.749857	1.25885	0	0	0	0	0.029286	0.109218	0	0	-0.104352	0.004919	0	0	-0.135679	0.080884	-0.204735	0.357718	-0.145429	0.187662	-0.144089	0.258368	-0.075192	0.230498	-0.222187	0.266757	-0.099811	0.134509	-0.157054	0.115543	-0.048437	0.122418	-0.124411	0.259041	-0.114224	0.128988	
0.754766	1.26037	0	0	0	0	0.029286	0.109218	0	0	-0.104097	-0.00621025	0	0	-0.13243	0.071701	-0.203629	0.354594	-0.152243	0.180177	-0.149887	0.262157	-0.0740192	0.227184	-0.219861	0.260183	-0.102185	0.12806	-0.159048	0.108773	-0.0475685	0.10963	-0.127579	0.250213	-0.113154	0.125964	
0.766324	1.26037	0	0	0	0	0.029286	0.109218	0	0	-0.103842	-0.0173395	0	0	-0.129181	0.062518	-0.202524	0.351469	-0.159056	0.172692	-0.155685	0.265945	-0.0728465	0.223869	-0.217535	0.25361	-0.104559	0.12161	-0.161042	0.102003	-0.0467	0.0968425	-0.130747	0.241385	-0.112084	0.12294	
0.779092	1.26037	0	0	0	0	0.029286	0.109218	0	0	-0.103586	-0.0284688	0	0	-0.125931	0.053335	-0.201419	0.348345	-0.16587	0.165208	-0.161484	0.269733	-0.0716737	0.220555	-0.215209	0.247036	-0.106933	0.115161	-0.163035	0.0952338	-0.0458315	0.0840547	-0.133915	0.232557	-0.111014	0.119917	
0.787631	1.26037	0	0	0	0	0.029286	0.109218	0	0	-0.103331	-0.039598	0	0	-0.122682	0.044152	-0.200313	0.345221	-0.172684	0.157723	-0.167282	0.273522	-0.070501	0.217241	-0.212883	0.240462	-0.109307	0.108712	-0.165029	0.088464	-0.044963	0.071267	-0.137083	0.223729	-0.109944	0.116893	
0.786501	1.2558	0	0	0	0	0.0230052	0.0880428	0	0	-0.10561	-0.0643478	0	0	-0.130809	0.0353648	-0.20496	0.333864	-0.186287	0.1428	-0.168013	0.262998	-0.0721605	0.210687	-0.21857	0.241653	-0.110456	0.0988098	-0.165029	0.088464	-0.0525943	0.0721847	-0.139	0.211384	-0.112167	0.111376	
0.770886	1.25885	0	0	0	0	0.0167245	0.0668675	0	0	-0.107889	-0.0890975	0	0	-0.138937	0.0265775	-0.209608	0.322508	-0.199891	0.127877	-0.168743	0.252475	-0.07382	0.204132	-0.224257	0.242843	-0.111604	0.0889075	-0.165029	0.088464	-0.0602255	0.0731025	-0.140918	0.199038	-0.114391	0.10586	
0.743304	1.26037	0	0	0	0	0.0104438	0.0456923	0	0	-0.110168	-0.113847	0	0	-0.147064	0.0177902	-0.214255	0.311151	-0.213495	0.112953	-0.169474	0.241951	-0.0754795	0.197578	-0.229945	0.244034	-0.112753	0.0790052	-0.165029	0.088464	-0.0678567	0.0740203	-0.142835	0.186693	-0.116614	0.100344	
0.711033	1.25275	0	0	0	0	0.004163	0.024517	0	0	-0.112447	-0.138597	0	0	-0.155192	0.009003	-0.218903	0.299794	-0.227098	0.09803	-0.170205	0.231428	-0.077139	0.191024	-0.235632	0.245225	-0.113902	0.069103	-0.165029	0.088464	-0.075488	0.074938	-0.144752	0.174347	-0.118837	0.094827	
0.681433	1.25427	0	0	0	0	0.008805	0.0113983	0	0	-0.118753	-0.151914	0	0	-0.148717	-0.0092975	-0.228072	0.289031	-0.239761	0.0806005	-0.174707	0.218998	-0.081629	0.181246	-0.238992	0.239849	-0.118653	0.0562587	-0.167023	0.081704	-0.0727567	0.056903	-0.157331	0.174421	-0.12435	0.0868295	
0.661864	1.2558	0	0	0	0	0.013447	-0.0017205	0	0	-0.125058	-0.16523	0	0	-0.142241	-0.027598	-0.237241	0.278268	-0.252424	0.063171	-0.179208	0.206567	-0.086119	0.171467	-0.242351	0.234473	-0.123403	0.0434145	-0.169018	0.074944	-0.0700255	0.038868	-0.16991	0.174494	-0.129862	0.078832	
0.659545	1.25885	0	0	0	0	0.018089	-0.0148393	0	0	-0.131364	-0.178546	0	0	-0.135766	-0.0458985	-0.24641	0.267504	-0.265086	0.0457415	-0.18371	0.194136	-0.090609	0.161689	-0.245711	0.229097	-0.128154	0.0305703	-0.171013	0.068184	-0.0672942	0.020833	-0.18249	0.174567	-0.135375	0.0708345	
0.676168	1.25122	0	0	0	0	0.022731	-0.027958	0	0	-0.13767	-0.191863	0	0	-0.129291	-0.064199	-0.255579	0.256741	-0.277749	0.028312	-0.188212	0.181706	-0.095099	0.151911	-0.249071	0.223721	-0.132905	0.017726	-0.173007	0.061424	-0.064563	0.002798	-0.195069	0.174641	-0.140887	0.062837	
0.706246	1.25122	0	0	0	0	0.0252178	-0.02202	0	0	-0.137436	-0.202891	0	0	-0.133357	-0.068566	-0.264734	0.246009	-0.287226	0.010863	-0.193721	0.172157	-0.0967593	0.14538	-0.24791	0.220441	-0.128021	0.003923	-0.170227	0.053566	-0.0646427	-0.007287	-0.190077	0.160532	-0.143108	0.0573383	
0.743814	1.25122	0	0	0	0	0.0277045	-0.016082	0	0	-0.137203	-0.213919	0	0	-0.137423	-0.072933	-0.273888	0.235277	-0.296702	-0.006586	-0.19923	0.162608	-0.0984195	0.138849	-0.24675	0.217161	-0.123136	-0.00988	-0.167446	0.045708	-0.0647225	-0.017372	-0.185084	0.146424	-0.14533	0.0518395	
0.782906	1.24969	0	0	0	0	0.0301912	-0.010144	0	0	-0.136969	-0.224948	0	0	-0.141489	-0.0773	-0.283043	0.224545	-0.306179	-0.024035	-0.20474	0.15306	-0.10008	0.132318	-0.245589	0.21388	-0.118252	-0.023683	-0.164665	0.03785	-0.0648022	-0.027457	-0.180092	0.132316	-0.147552	0.0463407	
0.817557	1.25122	0	0	0	0	0.032678	-0.004206	0	0	-0.136735	-0.235976	0	0	-0.145555	-0.081667	-0.292198	0.213813	-0.315655	-0.041484	-0.210249	0.143511	-0.10174	0.125787	-0.244428	0.2106	-0.113368	-0.037486	-0.161885	0.029992	-0.064882	-0.037542	-0.1751	0.118207	-0.149773	0.040842	
0.841799	1.24817	0	0	0	0	0.0253873	-0.009524	0	0	-0.139276	-0.249513	0	0	-0.152067	-0.0949403	-0.294643	0.196358	-0.327373	-0.0613062	-0.215754	0.133985	-0.106229	0.116045	-0.243268	0.207321	-0.121784	-0.039935	-0.158033	0.0315018	-0.0668285	-0.042345	-0.179514	0.112967	-0.151994	0.0353502	
0.850068	1.25122	0	0	0	0	0.0180965	-0.014842	0	0	-0.141817	-0.263049	0	0	-0.158579	-0.108213	-0.297088	0.178904	-0.339091	-0.0811285	-0.221259	0.124458	-0.110717	0.106303	-0.242108	0.204041	-0.130199	-0.042384	-0.154181	0.0330115	-0.068775	-0.047148	-0.183928	0.107728	-0.154216	0.0298585	
0.842237	1.24664	0	0	0	0	0.0108057	-0.02016	0	0	-0.144359	-0.276586	0	0	-0.16509	-0.121487	-0.299532	0.16145	-0.350808	-0.100951	-0.226765	0.114932	-0.115206	0.0965618	-0.240947	0.200762	-0.138615	-0.044833	-0.150329	0.0345213	-0.0707215	-0.051951	-0.188341	0.102489	-0.156438	0.0243667	
0.822113	1.24664	0	0	0	0	0.003515	-0.025478	0	0	-0.1469	-0.290123	0	0	-0.171602	-0.13476	-0.301977	0.143995	-0.362526	-0.120773	-0.23227	0.105406	-0.119695	0.08682	-0.239787	0.197483	-0.147031	-0.047282	-0.146477	0.036031	-0.072668	-0.056754	-0.192755	0.097249	-0.158659	0.018875	
0.79359	1.24817	0	0	0	0	0.004674	-0.0287535	0	0	-0.148671	-0.295469	0	0	-0.168381	-0.143863	-0.305523	0.129685	-0.369728	-0.135628	-0.237771	0.095902	-0.124182	0.0771007	-0.239787	0.197483	-0.144595	-0.0541675	-0.143697	0.0281752	-0.068944	-0.067279	-0.197165	0.0920168	-0.164164	0.0109152	
0.760562	1.24359	0	0	0	0	0.005833	-0.032029	0	0	-0.150442	-0.300814	0	0	-0.16516	-0.152967	-0.309068	0.115375	-0.376931	-0.150482	-0.243273	0.086398	-0.128668	0.0673815	-0.239787	0.197483	-0.142158	-0.061053	-0.140918	0.0203195	-0.06522	-0.077804	-0.201576	0.0867845	-0.169668	0.0029555	
0.726922	1.24359	0	0	0	0	0.006992	-0.0353045	0	0	-0.152212	-0.306159	0	0	-0.161938	-0.162071	-0.312614	0.101065	-0.384133	-0.165336	-0.248774	0.076894	-0.133155	0.0576622	-0.239787	0.197483	-0.139722	-0.0679385	-0.138138	0.0124638	-0.061496	-0.088329	-0.205987	0.0815522	-0.175173	-0.00500425	
0.696408	1.24206	0	0	0	0	0.008151	-0.03858	0	0	-0.153983	-0.311505	0	0	-0.158717	-0.171174	-0.31616	0.086755	-0.391335	-0.180191	-0.254275	0.06739	-0.137642	0.047943	-0.239787	0.197483	-0.137286	-0.074824	-0.135358	0.004608	-0.057772	-0.098854	-0.210397	0.07632	-0.180678	-0.012964	
0.671759	1.24359	0	0	0	0	0.0166038	-0.036546	0	0	-0.142677	-0.31239	0	0	-0.160327	-0.166623	-0.32979	0.076708	-0.399429	-0.192459	-0.255019	0.05698	-0.141629	0.0480208	-0.239787	0.197483	-0.132469	-0.0753252	-0.133506	-0.00062525	-0.0559115	-0.104112	-0.206667	0.0657785	-0.18724	-0.017908	
0.655327	1.24512	0	0	0	0	0.0250565	-0.034512	0	0	-0.13137	-0.313275	0	0	-0.161938	-0.162073	-0.34342	0.066661	-0.407523	-0.204728	-0.255763	0.04657	-0.145616	0.0480985	-0.239787	0.197483	-0.127653	-0.0758265	-0.131655	-0.0058585	-0.054051	-0.10937	-0.202937	0.055237	-0.193801	-0.022852	
0.649462	1.24054	0	0	0	0	0.0335092	-0.032478	0	0	-0.120064	-0.31416	0	0	-0.163548	-0.157523	-0.35705	0.056614	-0.415616	-0.216996	-0.256508	0.03616	-0.149603	0.0481762	-0.239787	0.197483	-0.122836	-0.0763277	-0.129803	-0.0110917	-0.0521905	-0.114628	-0.199207	0.0446955	-0.200362	-0.027796	
0.656512	1.24206	0	0	0	0	0.041962	-0.030444	0	0	-0.108757	-0.315045	0	0	-0.165158	-0.152972	-0.37068	0.046567	-0.42371	-0.229264	-0.257252	0.02575	-0.15359	0.048254	-0.239787	0.197483	-0.118019	-0.076829	-0.127951	-0.016325	-0.05033	-0.119886	-0.195477	0.034154	-0.206924	-0.03274	
0.678646	1.24054	0	0	0	0	0.038141	-0.0455678	0	0	-0.10798	-0.306873	0	0	-0.16761	-0.16186	-0.378707	0.0329112	-0.42641	-0.239179	-0.261751	0.0134638	-0.159232	0.0418402	-0.239787	0.197483	-0.124054	-0.0728857	-0.12502	-0.0122045	-0.05126	-0.117258	-0.199888	0.0289415	-0.205863	-0.0357393	
0.714331	1.24206	0	0	0	0	0.03432	-0.0606915	0	0	-0.107204	-0.298701	0	0	-0.170062	-0.170747	-0.386735	0.0192555	-0.42911	-0.249095	-0.26625	0.0011775	-0.164875	0.0354265	-0.239787	0.197483	-0.130088	-0.0689425	-0.122089	-0.008084	-0.05219	-0.114629	-0.2043	0.023729	-0.204801	-0.0387385	
0.758598	1.23901	0	0	0	0	0.030499	-0.0758153	0	0	-0.106427	-0.290528	0	0	-0.172514	-0.179635	-0.394763	0.00559975	-0.431811	-0.25901	-0.270748	-0.0111087	-0.170517	0.0290128	-0.239787	0.197483	-0.136123	-0.0649992	-0.119157	-0.0039635	-0.05312	-0.112001	-0.208711	0.0185165	-0.20374	-0.0417377	
0.806345	1.23596	0	0	0	0	0.026678	-0.090939	0	0	-0.10565	-0.282356	0	0	-0.174966	-0.188523	-0.40279	-0.008056	-0.434511	-0.268926	-0.275247	-0.023395	-0.176159	0.022599	-0.239787	0.197483	-0.142158	-0.061056	-0.116226	0.000157	-0.05405	-0.109372	-0.213122	0.013304	-0.202679	-0.044737	
0.852472	1.24054	0	0	0	0	0.0303262	-0.0882933	0	0	-0.098322	-0.271928	0	0	-0.178184	-0.179429	-0.407415	-0.019176	-0.44482	-0.266078	-0.277996	-0.0281137	-0.185277	0.026034	-0.234103	0.19629	-0.13978	-0.054665	-0.117152	0.00277575	-0.0511682	-0.107212	-0.211881	0.009797	-0.207018	-0.044207	
0.891879	1.23901	0	0	0	0	0.0339745	-0.0856475	0	0	-0.090994	-0.2615	0	0	-0.181402	-0.170334	-0.412039	-0.030296	-0.45513	-0.263231	-0.280745	-0.0328325	-0.194395	0.029469	-0.228419	0.195097	-0.137402	-0.048274	-0.118079	0.0053945	-0.0482865	-0.105051	-0.210641	0.00629	-0.211357	-0.043677	
0.919465	1.23749	0	0	0	0	0.0376228	-0.0830017	0	0	-0.083666	-0.251072	0	0	-0.18462	-0.16124	-0.416663	-0.041416	-0.46544	-0.260383	-0.283494	-0.0375513	-0.203512	0.032904	-0.222735	0.193904	-0.135023	-0.041883	-0.119006	0.00801325	-0.0454048	-0.10289	-0.2094	0.002783	-0.215696	-0.043147	
0.93013	1.23901	0	0	0	0	0.041271	-0.080356	0	0	-0.076338	-0.240644	0	0	-0.187838	-0.152146	-0.421288	-0.052536	-0.475749	-0.257536	-0.286243	-0.04227	-0.21263	0.036339	-0.217051	0.192711	-0.132645	-0.035492	-0.119932	0.010632	-0.042523	-0.10073	-0.208159	-0.000724	-0.220035	-0.042617	
0.921125	1.23138	0	0	0	0	0.04161	-0.0553725	0	0	-0.061657	-0.219703	0	0	-0.188617	-0.134127	-0.421288	-0.052536	-0.468126	-0.252791	-0.283494	-0.0375513	-0.209815	0.039546	-0.209154	0.20017	-0.124287	-0.0197215	-0.115146	0.00951825	-0.0338688	-0.0942402	-0.208159	-0.000724	-0.222251	-0.0480798	
0.896931	1.23443	0	0	0	0	0.041949	-0.030389	0	0	-0.046976	-0.198762	0	0	-0.189395	-0.116108	-0.421288	-0.052536	-0.460503	-0.248045	-0.280745	-0.0328325	-0.207	0.042753	-0.201257	0.207628	-0.115929	-0.003951	-0.110359	0.0084045	-0.0252145	-0.0877505	-0.208159	-0.000724	-0.224467	-0.0535425	
0.863417	1.23596	0	0	0	0	0.042288	-0.0054055	0	0	-0.032295	-0.177821	0	0	-0.190174	-0.0980883	-0.421288	-0.052536	-0.452881	-0.2433	-0.277996	-0.0281137	-0.204184	0.04596	-0.193359	0.215086	-0.107571	0.0118195	-0.105573	0.00729075	-0.0165603	-0.0812608	-0.208159	-0.000724	-0.226683	-0.0590052	
0.826452	1.22986	0	0	0	0	0.042627	0.019578	0	0	-0.017614	-0.15688	0	0	-0.190953	-0.080069	-0.421288	-0.052536	-0.445258	-0.238555	-0.275247	-0.023395	-0.201369	0.049167	-0.185462	0.222545	-0.099213	0.02759	-0.100787	0.006177	-0.007906	-0.074771	-0.208159	-0.000724	-0.228899	-0.064468	
0.791902	1.22986	0	0	0	0	0.0439507	0.028821	0	0	-0.013287	-0.137814	0	0	-0.178774	-0.066956	-0.425625	-0.0402773	-0.438522	-0.231267	-0.276504	-0.00734825	-0.199227	0.0654592	-0.18675	0.241092	-0.0896945	0.0533415	-0.094916	0.0144355	-0.0029765	-0.057703	-0.206231	0.011508	-0.220222	-0.065531	
0.765638	1.23138	0	0	0	0	0.0452745	0.038064	0	0	-0.00896	-0.118748	0	0	-0.166594	-0.053843	-0.429963	-0.0280185	-0.431785	-0.223978	-0.27776	0.0086985	-0.197085	0.0817515	-0.188038	0.259638	-0.080176	0.079093	-0.089045	0.022694	0.001953	-0.040635	-0.204303	0.02374	-0.211546	-0.066594	
0.752178	1.22681	0	0	0	0	0.0465983	0.047307	0	0	-0.004633	-0.099682	0	0	-0.154415	-0.04073	-0.4343	-0.0157597	-0.425048	-0.21669	-0.279017	0.0247452	-0.194943	0.0980437	-0.189327	0.278185	-0.0706575	0.104844	-0.083174	0.0309525	0.0068825	-0.023567	-0.202376	0.035972	-0.20287	-0.067657	
0.750102	1.22681	0	0	0	0	0.047922	0.05655	0	0	-0.000306	-0.080616	0	0	-0.142235	-0.027617	-0.438638	-0.003501	-0.418312	-0.209402	-0.280273	0.040792	-0.192801	0.114336	-0.190615	0.296732	-0.061139	0.130596	-0.077303	0.039211	0.011812	-0.006499	-0.200448	0.048204	-0.194193	-0.06872	
0.756354	1.22986	0	0	0	0	0.0455933	0.063131	0	0	0.0050255	-0.0643355	0	0	-0.145474	-0.018462	-0.428451	0.0040035	-0.418313	-0.19183	-0.27277	0.0446052	-0.19911	0.12099	-0.187248	0.302133	-0.0599902	0.140535	-0.0754465	0.033964	0.0185302	-0.0047905	-0.185394	0.0410688	-0.194193	-0.06872	
0.767879	1.22681	0	0	0	0	0.0432645	0.069712	0	0	0.010357	-0.048055	0	0	-0.148713	-0.009307	-0.418264	0.011508	-0.418313	-0.174258	-0.265267	0.0484185	-0.205419	0.127643	-0.18388	0.307535	-0.0588415	0.150475	-0.07359	0.028717	0.0252485	-0.003082	-0.17034	0.0339335	-0.194193	-0.06872	
0.781622	1.22986	0	0	0	0	0.0409357	0.076293	0	0	0.0156885	-0.0317745	0	0	-0.151953	-0.000152	-0.408076	0.0190125	-0.418314	-0.156685	-0.257764	0.0522318	-0.211728	0.134297	-0.180512	0.312937	-0.0576928	0.160415	-0.0717335	0.02347	0.0319668	-0.0013735	-0.155286	0.0267982	-0.194193	-0.06872	
0.794527	1.22681	0	0	0	0	0.038607	0.082874	0	0	0.02102	-0.015494	0	0	-0.155192	0.009003	-0.397889	0.026517	-0.418314	-0.139113	-0.250261	0.056045	-0.218037	0.140951	-0.177145	0.318338	-0.056544	0.170354	-0.069877	0.018223	0.038685	0.000335	-0.140232	0.019663	-0.194193	-0.06872	
0.803633	1.22528	0	0	0	0	0.0351108	0.0927547	0	0	0.0217833	-0.0071905	0	0	-0.154376	0.0225675	-0.391087	0.0315295	-0.417869	-0.13158	-0.246506	0.057953	-0.211243	0.144111	-0.172608	0.320446	-0.053022	0.186801	-0.0735912	0.0287202	0.0464332	0.00952275	-0.14272	0.026695	-0.190911	-0.066255	
0.807554	1.22528	0	0	0	0	0.0316145	0.102636	0	0	0.0225465	0.001113	0	0	-0.15356	0.036132	-0.384285	0.036542	-0.417423	-0.124046	-0.24275	0.059861	-0.20445	0.147271	-0.168071	0.322554	-0.0495	0.203247	-0.0773055	0.0392175	0.0541815	0.0187105	-0.145208	0.033727	-0.187629	-0.06379	
0.80619	1.22681	0	0	0	0	0.0281183	0.112516	0	0	0.0233098	0.0094165	0	0	-0.152743	0.0496965	-0.377482	0.0415545	-0.416978	-0.116513	-0.238994	0.061769	-0.197656	0.150431	-0.163534	0.324662	-0.045978	0.219694	-0.0810198	0.0497148	0.0619298	0.0278982	-0.147696	0.040759	-0.184347	-0.061325	
0.799479	1.22833	0	0	0	0	0.024622	0.122397	0	0	0.024073	0.01772	0	0	-0.151927	0.063261	-0.37068	0.046567	-0.416532	-0.10898	-0.235239	0.063677	-0.190862	0.153591	-0.158997	0.32677	-0.042456	0.236141	-0.084734	0.060212	0.069678	0.037086	-0.150184	0.047791	-0.181065	-0.05886	
0.78736	1.22528	0	0	0	0	0.0306023	0.118489	0	0	0.0288902	0.0145723	0	0	-0.138923	0.0582927	-0.367276	0.0490758	-0.418778	-0.111426	-0.231481	0.0655862	-0.186879	0.153523	-0.164701	0.32796	-0.033993	0.238662	-0.0799388	0.0590978	0.0716375	0.0419223	-0.14894	0.0442743	-0.177781	-0.056393	
0.769772	1.22375	0	0	0	0	0.0365825	0.114582	0	0	0.0337075	0.0114245	0	0	-0.125918	0.0533245	-0.363872	0.0515845	-0.421023	-0.113872	-0.227723	0.0674955	-0.182895	0.153455	-0.170405	0.329151	-0.02553	0.241182	-0.0751435	0.0579835	0.073597	0.0467585	-0.147696	0.0407575	-0.174497	-0.053926	
0.74675	1.22681	0	0	0	0	0.0425628	0.110675	0	0	0.0385247	0.00827675	0	0	-0.112913	0.0483563	-0.360467	0.0540932	-0.423268	-0.116318	-0.223965	0.0694048	-0.178912	0.153387	-0.176109	0.330342	-0.017067	0.243703	-0.0703483	0.0568692	0.0755565	0.0515948	-0.146451	0.0372407	-0.171214	-0.051459	
0.720511	1.22528	0	0	0	0	0.048543	0.106767	0	0	0.043342	0.005129	0	0	-0.099909	0.043388	-0.357063	0.056602	-0.425514	-0.118764	-0.220207	0.071314	-0.174928	0.153319	-0.181813	0.331532	-0.008604	0.246224	-0.065553	0.055755	0.077516	0.056431	-0.145207	0.033724	-0.16793	-0.048992	
0.695431	1.22375	0	0	0	0	0.0498595	0.116048	0	0	0.0403002	0.0137258	0	0	-0.0942102	0.0431953	-0.35693	0.0683625	-0.426415	-0.11622	-0.216447	0.0732243	-0.172109	0.15655	-0.174941	0.327042	-0.00622325	0.252728	-0.0664828	0.058382	0.0785355	0.0639288	-0.139536	0.0354265	-0.164644	-0.0465235	
0.675977	1.22375	0	0	0	0	0.051176	0.125329	0	0	0.0372585	0.0223225	0	0	-0.0885115	0.0430025	-0.356796	0.080123	-0.427315	-0.113675	-0.212686	0.0751345	-0.169291	0.15978	-0.16807	0.322551	-0.0038425	0.259232	-0.0674125	0.061009	0.079555	0.0714265	-0.133864	0.037129	-0.161359	-0.044055	
0.666616	1.22681	0	0	0	0	0.0524925	0.134611	0	0	0.0342168	0.0309193	0	0	-0.0828128	0.0428098	-0.356662	0.0918835	-0.428215	-0.11113	-0.208925	0.0770447	-0.166472	0.163011	-0.161198	0.318061	-0.00146175	0.265737	-0.0683422	0.063636	0.0805745	0.0789243	-0.128193	0.0388315	-0.158073	-0.0415865	
0.671812	1.22375	0	0	0	0	0.053809	0.143892	0	0	0.031175	0.039516	0	0	-0.077114	0.042617	-0.356529	0.103644	-0.429116	-0.108586	-0.205165	0.078955	-0.163654	0.166242	-0.154327	0.313571	0.000919	0.272241	-0.069272	0.066263	0.081594	0.086422	-0.122522	0.040534	-0.154787	-0.039118	
0.693721	1.22986	0	0	0	0	0.0573105	0.133996	0	0	0.035995	0.0363665	0	0	-0.0819943	0.0564093	-0.348621	0.105595	-0.422822	-0.108784	-0.203414	0.0865547	-0.163172	0.176084	-0.152122	0.322284	0.005681	0.285278	-0.0615322	0.0692902	0.0912382	0.0903387	-0.100486	0.0315475	-0.151499	-0.0366475	
0.728469	1.22833	0	0	0	0	0.060812	0.124101	0	0	0.040815	0.033217	0	0	-0.0868745	0.0702015	-0.340714	0.107547	-0.416529	-0.108982	-0.201664	0.0941545	-0.162691	0.185925	-0.149918	0.330996	0.010443	0.298315	-0.0537925	0.0723175	0.100882	0.0942555	-0.078449	0.022561	-0.148211	-0.034177	
0.77121	1.22681	0	0	0	0	0.0643135	0.114206	0	0	0.045635	0.0300675	0	0	-0.0917547	0.0839938	-0.332806	0.109498	-0.410236	-0.109179	-0.199913	0.101754	-0.162209	0.195767	-0.147713	0.339708	0.015205	0.311352	-0.0460528	0.0753448	0.110527	0.0981723	-0.0564125	0.0135745	-0.144923	-0.0317065	
0.817094	1.22375	0	0	0	0	0.067815	0.10431	0	0	0.050455	0.026918	0	0	-0.096635	0.097786	-0.324898	0.11145	-0.403942	-0.109377	-0.198163	0.109354	-0.161727	0.205609	-0.145509	0.348421	0.019967	0.324389	-0.038313	0.078372	0.120171	0.102089	-0.034376	0.004588	-0.141635	-0.029236	
0.861275	1.22375	0	0	0	0	0.067815	0.10431	0	0	0.0494405	0.0297852	0	0	-0.096635	0.097786	-0.324769	0.123246	-0.407089	-0.109278	-0.193391	0.108424	-0.160558	0.202304	-0.150049	0.346309	0.0187265	0.327894	-0.0373825	0.075742	0.118288	0.107411	-0.0507355	0.0152775	-0.136218	-0.0327757	
0.898904	1.22223	0	0	0	0	0.067815	0.10431	0	0	0.048426	0.0326525	0	0	-0.096635	0.097786	-0.324639	0.135043	-0.410237	-0.109178	-0.188619	0.107494	-0.159388	0.199	-0.154589	0.344197	0.017486	0.3314	-0.036452	0.073112	0.116404	0.112733	-0.067095	0.025967	-0.130801	-0.0363155	
0.925134	1.22528	0	0	0	0	0.067815	0.10431	0	0	0.0474115	0.0355198	0	0	-0.096635	0.097786	-0.32451	0.146839	-0.413385	-0.109079	-0.183848	0.106563	-0.158219	0.195695	-0.159129	0.342086	0.0162455	0.334906	-0.0355215	0.070482	0.114521	0.118055	-0.0834545	0.0366565	-0.125384	-0.0398553	
0.935576	1.22833	0	0	0	0	0.067815	0.10431	0	0	0.046397	0.038387	0	0	-0.096635	0.097786	-0.324381	0.158635	-0.416532	-0.10898	-0.179076	0.105633	-0.15705	0.192391	-0.163669	0.339974	0.015005	0.338411	-0.034591	0.067852	0.112638	0.123377	-0.099814	0.047346	-0.119967	-0.043395	
0.930511	1.22223	0	0	0	0	0.0739583	0.11298	0	0	0.0529995	0.0406905	0	0	-0.0925627	0.102203	-0.323161	0.167357	-0.415187	-0.103985	-0.176316	0.110397	-0.149067	0.192257	-0.15796	0.338782	0.0173843	0.344948	-0.0297855	0.066734	0.120332	0.122444	-0.0941312	0.0490498	-0.118904	-0.0463993	
0.912944	1.22833	0	0	0	0	0.0801015	0.121649	0	0	0.059602	0.042994	0	0	-0.0884905	0.106621	-0.321941	0.176079	-0.413843	-0.0989895	-0.173556	0.11516	-0.141084	0.192123	-0.152251	0.337591	0.0197635	0.351485	-0.02498	0.065616	0.128026	0.12151	-0.0884485	0.0507535	-0.117841	-0.0494035	
0.885917	1.22375	0	0	0	0	0.0862447	0.130319	0	0	0.0662045	0.0452975	0	0	-0.0844183	0.111038	-0.320722	0.184801	-0.412498	-0.0939943	-0.170796	0.119924	-0.1331	0.191988	-0.146542	0.336399	0.0221427	0.358022	-0.0201745	0.064498	0.135719	0.120577	-0.0827657	0.0524572	-0.116778	-0.0524078	
0.85247	1.22528	0	0	0	0	0.092388	0.138989	0	0	0.072807	0.047601	0	0	-0.080346	0.115455	-0.319502	0.193523	-0.411153	-0.088999	-0.168036	0.124687	-0.125117	0.191854	-0.140833	0.335207	0.024522	0.364559	-0.015369	0.06338	0.143413	0.119644	-0.077083	0.054161	-0.115715	-0.055412	
0.815643	1.22681	0	0	0	0	0.08771	0.15221	0	0	0.0707747	0.0533442	0	0	-0.0762707	0.119878	-0.313774	0.201698	-0.412957	-0.0839015	-0.165275	0.129456	-0.126287	0.195161	-0.132911	0.342738	0.0330137	0.367112	-0.009475	0.0716735	0.147342	0.129374	-0.0632028	0.0505123	-0.108061	-0.0534818	
0.778472	1.22986	0	0	0	0	0.083032	0.16543	0	0	0.0687425	0.0590875	0	0	-0.0721955	0.1243	-0.308046	0.209873	-0.41476	-0.078804	-0.162514	0.134225	-0.127458	0.198468	-0.124989	0.350268	0.0415055	0.369665	-0.003581	0.079967	0.151272	0.139103	-0.0493225	0.0468635	-0.100407	-0.0515515	
0.743856	1.22528	0	0	0	0	0.078354	0.178651	0	0	0.0667102	0.0648307	0	0	-0.0681203	0.128723	-0.302318	0.218048	-0.416563	-0.0737065	-0.159753	0.138995	-0.128628	0.201775	-0.117066	0.357799	0.0499972	0.372217	0.002313	0.0882605	0.155201	0.148833	-0.0354422	0.0432147	-0.092753	-0.0496212	
0.714488	1.22833	0	0	0	0	0.073676	0.191872	0	0	0.064678	0.070574	0	0	-0.064045	0.133146	-0.29659	0.226223	-0.418367	-0.068609	-0.156992	0.143764	-0.129798	0.205082	-0.109144	0.36533	0.058489	0.37477	0.008207	0.096554	0.15913	0.158562	-0.021562	0.039566	-0.085099	-0.047691	
0.693049	1.22528	0	0	0	0	0.080843	0.184646	0	0	0.064678	0.070574	0	0	-0.062414	0.128536	-0.29659	0.226223	-0.421513	-0.0685128	-0.154975	0.138063	-0.123462	0.1984	-0.106803	0.358715	0.058489	0.37477	0.00525925	0.092405	0.164873	0.152759	-0.0228103	0.0430938	-0.0840352	-0.0506975	
0.682221	1.22375	0	0	0	0	0.08801	0.177421	0	0	0.064678	0.070574	0	0	-0.060783	0.123927	-0.29659	0.226223	-0.42466	-0.0684165	-0.152958	0.132362	-0.117126	0.191717	-0.104462	0.3521	0.058489	0.37477	0.0023115	0.088256	0.170615	0.146956	-0.0240585	0.0466215	-0.0829715	-0.053704	
0.684684	1.22681	0	0	0	0	0.095177	0.170195	0	0	0.064678	0.070574	0	0	-0.059152	0.119317	-0.29659	0.226223	-0.427806	-0.0683202	-0.150941	0.126661	-0.110791	0.185034	-0.102122	0.345484	0.058489	0.37477	-0.00063625	0.084107	0.176358	0.141152	-0.0253067	0.0501492	-0.0819078	-0.0567105	
0.702232	1.22223	0	0	0	0	0.102344	0.16297	0	0	0.064678	0.070574	0	0	-0.057521	0.114708	-0.29659	0.226223	-0.430953	-0.068224	-0.148924	0.12096	-0.104455	0.178352	-0.099781	0.338869	0.058489	0.37477	-0.003584	0.079958	0.1821	0.135349	-0.026555	0.053677	-0.080844	-0.059717	
0.731565	1.22528	0	0	0	0	0.0976608	0.176206	0	0	0.0636615	0.073447	0	0	-0.059152	0.119317	-0.302198	0.229888	-0.434098	-0.0681285	-0.148924	0.12096	-0.110791	0.185034	-0.0952277	0.34098	0.0560008	0.381802	0.000296	0.0814722	0.185013	0.137548	-0.0253067	0.0501492	-0.0764802	-0.0602567	
0.767563	1.22528	0	0	0	0	0.0929775	0.189441	0	0	0.062645	0.07632	0	0	-0.060783	0.123927	-0.307806	0.233552	-0.437242	-0.068033	-0.148924	0.12096	-0.117126	0.191717	-0.0906745	0.34309	0.0535125	0.388833	0.004176	0.0829865	0.187926	0.139747	-0.0240585	0.0466215	-0.0721165	-0.0607965	
0.805107	1.22375	0	0	0	0	0.0882943	0.202676	0	0	0.0616285	0.079193	0	0	-0.062414	0.128536	-0.313415	0.237217	-0.440387	-0.0679375	-0.148924	0.12096	-0.123462	0.1984	-0.0861212	0.345201	0.0510243	0.395865	0.008056	0.0845007	0.190839	0.141947	-0.0228103	0.0430938	-0.0677528	-0.0613363	
0.839074	1.22375	0	0	0	0	0.083611	0.215912	0	0	0.060612	0.082066	0	0	-0.064045	0.133146	-0.319023	0.240882	-0.443532	-0.067842	-0.148924	0.12096	-0.129798	0.205082	-0.081568	0.347312	0.048536	0.402897	0.011936	0.086015	0.193752	0.144146	-0.021562	0.039566	-0.063389	-0.061876	
0.864343	1.22528	0	0	0	0	0.087124	0.205983	0	0	0.0636608	0.0734497	0	0	-0.0591548	0.119325	-0.316828	0.234678	-0.443072	-0.0779297	-0.146908	0.115262	-0.128628	0.201775	-0.088462	0.351816	0.0497802	0.399381	0.00913825	0.0939215	0.191862	0.149486	-0.00640375	0.0323735	-0.0644533	-0.0588687	
0.875794	1.22528	0	0	0	0	0.090637	0.196055	0	0	0.0667095	0.0648335	0	0	-0.0542645	0.105504	-0.314632	0.228474	-0.442612	-0.0880175	-0.144892	0.109565	-0.127458	0.198468	-0.095356	0.356321	0.0510245	0.395864	0.0063405	0.101828	0.189973	0.154826	0.0087545	0.025181	-0.0655175	-0.0558615	
0.869506	1.2207	0	0	0	0	0.09415	0.186127	0	0	0.0697582	0.0562172	0	0	-0.0493743	0.091683	-0.312437	0.22227	-0.442152	-0.0981053	-0.142876	0.103868	-0.126287	0.195161	-0.10225	0.360826	0.0522688	0.392347	0.00354275	0.109734	0.188084	0.160165	0.0239128	0.0179885	-0.0665817	-0.0528543	
0.84863	1.22223	0	0	0	0	0.097663	0.176198	0	0	0.072807	0.047601	0	0	-0.044484	0.077862	-0.310242	0.216066	-0.441692	-0.108193	-0.14086	0.09817	-0.125117	0.191854	-0.109144	0.36533	0.053513	0.388831	0.000745	0.117641	0.186194	0.165505	0.039071	0.010796	-0.067646	-0.049847	
0.818903	1.22223	0	0	0	0	0.0988332	0.172891	0	0	0.0748377	0.0418615	0	0	-0.0518203	0.0826558	-0.309145	0.212966	-0.443935	-0.110639	-0.141868	0.101018	-0.123948	0.188548	-0.103421	0.364135	0.053513	0.388831	0.000745	0.117641	0.190053	0.165037	0.0296153	0.019688	-0.0600872	-0.0594092	
0.786063	1.22223	0	0	0	0	0.100003	0.169584	0	0	0.0768685	0.036122	0	0	-0.0591565	0.0874495	-0.308048	0.209865	-0.446178	-0.113085	-0.142875	0.103867	-0.122778	0.185243	-0.0976985	0.362939	0.053513	0.388831	0.000745	0.117641	0.193912	0.16457	0.0201595	0.02858	-0.0525285	-0.0689715	
0.755849	1.22223	0	0	0	0	0.101174	0.166277	0	0	0.0788993	0.0303825	0	0	-0.0664928	0.0922432	-0.306951	0.206765	-0.44842	-0.11553	-0.143883	0.106715	-0.121609	0.181937	-0.0919757	0.361744	0.053513	0.388831	0.000745	0.117641	0.19777	0.164102	0.0107037	0.037472	-0.0449698	-0.0785337	
0.734	1.21918	0	0	0	0	0.102344	0.16297	0	0	0.08093	0.024643	0	0	-0.073829	0.097037	-0.305854	0.203664	-0.450663	-0.117976	-0.144891	0.109563	-0.120439	0.178631	-0.086253	0.360549	0.053513	0.388831	0.000745	0.117641	0.201629	0.163634	0.001248	0.046364	-0.037411	-0.088096	
0.724747	1.21918	0	0	0	0	0.104833	0.168973	0	0	0.0806787	0.0358438	0	0	-0.0754583	0.101641	-0.309266	0.201129	-0.449321	-0.112986	-0.144891	0.109563	-0.122779	0.185244	-0.0897685	0.370485	0.0497785	0.399385	-0.0011215	0.122916	0.208408	0.165369	0.00820575	0.0445318	-0.0330408	-0.0886405	
0.726287	1.21765	0	0	0	0	0.107323	0.174977	0	0	0.0804275	0.0470445	0	0	-0.0770875	0.106246	-0.312678	0.198594	-0.447979	-0.107995	-0.144891	0.109563	-0.125118	0.191856	-0.093284	0.38042	0.046044	0.409939	-0.002988	0.128191	0.215187	0.167103	0.0151635	0.0426995	-0.0286705	-0.089185	
0.735312	1.2207	0	0	0	0	0.109812	0.180981	0	0	0.0801763	0.0582452	0	0	-0.0787168	0.110851	-0.31609	0.196058	-0.446636	-0.103004	-0.144891	0.109563	-0.127458	0.198469	-0.0967995	0.390356	0.0423095	0.420493	-0.0048545	0.133466	0.221965	0.168838	0.0221213	0.0408673	-0.0243002	-0.0897295	
0.748512	1.21612	0	0	0	0	0.112301	0.186984	0	0	0.079925	0.069446	0	0	-0.080346	0.115455	-0.319502	0.193523	-0.445294	-0.098014	-0.144891	0.109563	-0.129798	0.205082	-0.100315	0.400292	0.038575	0.431047	-0.006721	0.138741	0.228744	0.170572	0.029079	0.039035	-0.01993	-0.090274	
0.762576	1.21918	0	0	0	0	0.104984	0.181593	0	0	0.0771295	0.066856	0	0	-0.069752	0.101455	-0.325225	0.185366	-0.443938	-0.11063	-0.146648	0.101956	-0.128628	0.201775	-0.0956282	0.387047	0.0410652	0.42401	-0.0124648	0.142494	0.223935	0.173714	0.0303283	0.0355043	-0.020994	-0.0872665	
0.774196	1.21918	0	0	0	0	0.097668	0.176203	0	0	0.074334	0.064266	0	0	-0.059158	0.087454	-0.330948	0.177208	-0.442582	-0.123246	-0.148405	0.09435	-0.127458	0.198468	-0.0909415	0.373802	0.0435555	0.416972	-0.0182085	0.146248	0.219126	0.176857	0.0315775	0.0319735	-0.022058	-0.084259	
0.780451	1.21307	0	0	0	0	0.0903515	0.170812	0	0	0.0715385	0.061676	0	0	-0.048564	0.0734535	-0.33667	0.16905	-0.441226	-0.135861	-0.150162	0.0867435	-0.126287	0.195161	-0.0862548	0.360557	0.0460458	0.409934	-0.0239523	0.150001	0.214316	0.18	0.0328268	0.0284427	-0.023122	-0.0812515	
0.781373	1.21612	0	0	0	0	0.083035	0.165421	0	0	0.068743	0.059086	0	0	-0.03797	0.059453	-0.342393	0.160893	-0.43987	-0.148477	-0.151919	0.079137	-0.125117	0.191854	-0.081568	0.347312	0.048536	0.402897	-0.029696	0.153754	0.209507	0.183142	0.034076	0.024912	-0.024186	-0.078244	
0.77835	1.2146	0	0	0	0	0.0890317	0.161502	0	0	0.0715385	0.061676	0	0	-0.0412277	0.06866	-0.338019	0.148532	-0.442113	-0.150917	-0.150913	0.0762925	-0.121122	0.191785	-0.088462	0.351816	0.0521625	0.405938	-0.029696	0.153754	0.206668	0.191167	0.0246198	0.0338055	-0.0176842	-0.0848045	
0.772775	1.21612	0	0	0	0	0.0950285	0.157584	0	0	0.074334	0.064266	0	0	-0.0444855	0.077867	-0.333646	0.136172	-0.444356	-0.153357	-0.149906	0.073448	-0.117126	0.191717	-0.095356	0.356321	0.055789	0.408979	-0.029696	0.153754	0.203828	0.199192	0.0151635	0.042699	-0.0111825	-0.091365	
0.766042	1.21765	0	0	0	0	0.101025	0.153666	0	0	0.0771295	0.066856	0	0	-0.0477433	0.087074	-0.329272	0.123811	-0.4466	-0.155796	-0.148899	0.0706035	-0.11313	0.191648	-0.10225	0.360826	0.0594155	0.412019	-0.029696	0.153754	0.200988	0.207218	0.00570725	0.0515925	-0.00468075	-0.0979255	
0.759544	1.21155	0	0	0	0	0.107022	0.149747	0	0	0.079925	0.069446	0	0	-0.051001	0.096281	-0.324898	0.11145	-0.448843	-0.158236	-0.147893	0.067759	-0.109135	0.19158	-0.109144	0.36533	0.063042	0.41506	-0.029696	0.153754	0.198149	0.215243	-0.003749	0.060486	0.001821	-0.104486	
0.754565	1.21155	0	0	0	0	0.0975148	0.163586	0	0	0.0758555	0.0809472	0	0	-0.0501837	0.109925	-0.331714	0.106414	-0.445701	-0.158337	-0.153675	0.0715372	-0.109823	0.204756	-0.105765	0.370757	0.0678062	0.428204	-0.0276885	0.16056	0.199168	0.222812	0.00320825	0.0586552	0.0051335	-0.102025	
0.751353	1.21307	0	0	0	0	0.0880075	0.177426	0	0	0.071786	0.0924485	0	0	-0.0493665	0.123569	-0.338531	0.101378	-0.442559	-0.158438	-0.159458	0.0753155	-0.110512	0.217932	-0.102385	0.376185	0.0725705	0.441348	-0.025681	0.167367	0.200187	0.23038	0.0101655	0.0568245	0.008446	-0.099565	
0.749591	1.21307	0	0	0	0	0.0785002	0.191266	0	0	0.0677165	0.10395	0	0	-0.0485492	0.137214	-0.345347	0.0963428	-0.439417	-0.158538	-0.165241	0.0790938	-0.111201	0.231108	-0.0990055	0.381613	0.0773348	0.454492	-0.0236735	0.174173	0.201206	0.237949	0.0171228	0.0549938	0.0117585	-0.0971045	
0.748957	1.21002	0	0	0	0	0.068993	0.205105	0	0	0.063647	0.115451	0	0	-0.047732	0.150858	-0.352163	0.091307	-0.436275	-0.158639	-0.171023	0.082872	-0.111889	0.244284	-0.095626	0.38704	0.082099	0.467636	-0.021666	0.180979	0.202225	0.245518	0.02408	0.053163	0.015071	-0.094644	
0.749128	1.20697	0	0	0	0	0.0713338	0.19849	0	0	0.064403	0.12381	0	0	-0.037931	0.155106	-0.349982	0.0851418	-0.431334	-0.16382	-0.165241	0.0790938	-0.10789	0.244219	-0.095626	0.38704	0.0857308	0.47069	-0.0226008	0.183621	0.200328	0.250879	0.0146228	0.062059	0.0129407	-0.088624	
0.749781	1.21002	0	0	0	0	0.0736745	0.191875	0	0	0.065159	0.132169	0	0	-0.02813	0.159355	-0.3478	0.0789765	-0.426392	-0.169001	-0.159458	0.0753155	-0.10389	0.244154	-0.095626	0.38704	0.0893625	0.473745	-0.0235355	0.186262	0.198431	0.256239	0.0051655	0.070955	0.0108105	-0.082604	
0.750614	1.21002	0	0	0	0	0.0760152	0.185259	0	0	0.065915	0.140529	0	0	-0.018329	0.163604	-0.345618	0.0728112	-0.421451	-0.174182	-0.153675	0.0715372	-0.0998913	0.244089	-0.095626	0.38704	0.0929943	0.476799	-0.0244702	0.188904	0.196535	0.261599	-0.00429175	0.079851	0.00868025	-0.076584	
0.751515	1.20697	0	0	0	0	0.078356	0.178644	0	0	0.066671	0.148888	0	0	-0.008528	0.167852	-0.343437	0.066646	-0.416509	-0.179363	-0.147893	0.067759	-0.095892	0.244024	-0.095626	0.38704	0.096626	0.479853	-0.025405	0.191546	0.194638	0.26696	-0.013749	0.088747	0.00655	-0.070564	
0.752475	1.20544	0	0	0	0	0.073673	0.191879	0	0	0.0730147	0.162484	0	0	-0.00935525	0.186184	-0.340029	0.0691585	-0.420105	-0.1692	-0.150914	0.0762955	-0.094238	0.250593	-0.0910718	0.389159	0.097758	0.489981	-0.0311487	0.195299	0.19274	0.272324	-0.0149998	0.0922818	0.0153113	-0.0716575	
0.753487	1.20544	0	0	0	0	0.06899	0.205115	0	0	0.0793585	0.176079	0	0	-0.0101825	0.204516	-0.33662	0.071671	-0.423701	-0.159037	-0.153934	0.084832	-0.092584	0.257162	-0.0865175	0.391278	0.09889	0.500109	-0.0368925	0.199052	0.190842	0.277687	-0.0162505	0.0958165	0.0240725	-0.072751	
0.754546	1.20697	0	0	0	0	0.064307	0.218351	0	0	0.0857023	0.189675	0	0	-0.0110098	0.222849	-0.333211	0.0741835	-0.427297	-0.148875	-0.156954	0.0933685	-0.09093	0.263731	-0.0819633	0.393398	0.100022	0.510238	-0.0426363	0.202805	0.188945	0.283051	-0.0175013	0.0993513	0.0328338	-0.0738445	
0.755642	1.20544	0	0	0	0	0.059624	0.231586	0	0	0.092046	0.203271	0	0	-0.011837	0.241181	-0.329803	0.076696	-0.430893	-0.138712	-0.159975	0.101905	-0.089276	0.2703	-0.077409	0.395517	0.101154	0.520366	-0.04838	0.206558	0.187047	0.288415	-0.018752	0.102886	0.041595	-0.074938	
0.756763	1.20392	0	0	0	0	0.058452	0.234898	0	0	0.09075	0.217454	0	0	-0.0069495	0.259398	-0.330894	0.0797805	-0.430449	-0.131181	-0.156204	0.103819	-0.08597	0.283465	-0.0809298	0.405467	0.09852	0.541147	-0.0463782	0.21338	0.191924	0.295548	-0.0130478	0.104597	0.042779	-0.06644	
0.757814	1.20087	0	0	0	0	0.05728	0.238209	0	0	0.089454	0.231637	0	0	-0.002062	0.277616	-0.331986	0.082865	-0.430005	-0.123649	-0.152433	0.105734	-0.082664	0.296631	-0.0844505	0.415418	0.095886	0.561929	-0.0443765	0.220202	0.1968	0.302681	-0.0073435	0.106308	0.043963	-0.057942	
0.758653	1.20392	0	0	0	0	0.056108	0.241521	0	0	0.088158	0.245819	0	0	0.0028255	0.295833	-0.333077	0.0859495	-0.42956	-0.116117	-0.148662	0.107648	-0.079358	0.309796	-0.0879713	0.425369	0.093252	0.58271	-0.0423748	0.227024	0.201677	0.309815	-0.00163925	0.108019	0.045147	-0.049444	
0.759135	1.20239	0	0	0	0	0.054936	0.244833	0	0	0.086862	0.260002	0	0	0.007713	0.31405	-0.334168	0.089034	-0.429116	-0.108586	-0.144891	0.109563	-0.076052	0.322961	-0.091492	0.435319	0.090618	0.603491	-0.040373	0.233846	0.206554	0.316948	0.004065	0.10973	0.046331	-0.040946	
0.759118	1.20239	0	0	0	0	0.054936	0.244833	0	0	0.0865825	0.271318	0	0	0.00850675	0.327842	-0.336352	0.0952058	-0.427772	-0.103592	-0.146907	0.115262	-0.0772292	0.326288	-0.0938415	0.441959	0.09425	0.606573	-0.041309	0.236492	0.203701	0.325012	0.00281275	0.113269	0.046331	-0.040946	
0.758456	1.20087	0	0	0	0	0.054936	0.244833	0	0	0.086303	0.282633	0	0	0.0093005	0.341635	-0.338536	0.101378	-0.426428	-0.098597	-0.148924	0.120961	-0.0784065	0.329615	-0.096191	0.448599	0.097882	0.609656	-0.042245	0.239138	0.200848	0.333075	0.0015605	0.116808	0.046331	-0.040946	
0.757026	1.20392	0	0	0	0	0.054936	0.244833	0	0	0.0860235	0.293949	0	0	0.0100942	0.355428	-0.34072	0.107549	-0.425085	-0.0936025	-0.150941	0.126661	-0.0795837	0.332941	-0.0985405	0.455239	0.101514	0.612738	-0.043181	0.241783	0.197994	0.341139	0.00030825	0.120347	0.046331	-0.040946	
0.754984	1.20239	0	0	0	0	0.054936	0.244833	0	0	0.085744	0.305265	0	0	0.010888	0.36922	-0.342904	0.113721	-0.423741	-0.088608	-0.152957	0.13236	-0.080761	0.336268	-0.10089	0.461879	0.105146	0.61582	-0.044117	0.244429	0.195141	0.349203	-0.000944	0.123886	0.046331	-0.040946	
0.752694	1.20087	0	0	0	0	0.055067	0.257493	0	0	0.097385	0.335647	0	0	0.0174155	0.382886	-0.339496	0.116242	-0.403039	-0.07663	-0.151204	0.139986	-0.077932	0.339537	-0.0929558	0.469473	0.107523	0.622458	-0.0450535	0.247076	0.200017	0.356361	-0.00219675	0.127426	0.0452632	-0.0379283	
0.750524	1.20087	0	0	0	0	0.055198	0.270153	0	0	0.109026	0.366028	0	0	0.023943	0.396552	-0.336087	0.118763	-0.382337	-0.064652	-0.14945	0.147612	-0.075103	0.342807	-0.0850215	0.477067	0.109901	0.629096	-0.04599	0.249722	0.204894	0.36352	-0.0034495	0.130966	0.0441955	-0.0349105	
0.748842	1.20239	0	0	0	0	0.055329	0.282812	0	0	0.120667	0.39641	0	0	0.0304705	0.410218	-0.332678	0.121284	-0.361635	-0.052674	-0.147697	0.155237	-0.072274	0.346077	-0.0770872	0.48466	0.112278	0.635735	-0.0469265	0.252368	0.20977	0.370678	-0.00470225	0.134507	0.0431277	-0.0318927	
0.748016	1.20087	0	0	0	0	0.05546	0.295472	0	0	0.132308	0.426792	0	0	0.036998	0.423884	-0.32927	0.123805	-0.340933	-0.040696	-0.145944	0.162863	-0.069445	0.349346	-0.069153	0.492254	0.114655	0.642373	-0.047863	0.255015	0.214646	0.377837	-0.005955	0.138047	0.04206	-0.028875	
0.748385	1.20239	0	0	0	0	0.0482885	0.30271	0	0	0.143219	0.448855	0	0	0.0287235	0.447269	-0.326953	0.129419	-0.323786	-0.0184038	-0.152009	0.180004	-0.0713348	0.365958	-0.0659293	0.513209	0.109469	0.670395	-0.0534875	0.27091	0.21475	0.398505	-0.00275575	0.146855	0.0486987	-0.0239255	
0.749916	1.20087	0	0	0	0	0.041117	0.309948	0	0	0.15413	0.470918	0	0	0.020449	0.470653	-0.324636	0.135034	-0.306638	0.0038885	-0.158075	0.197146	-0.0732245	0.38257	-0.0627055	0.534164	0.104284	0.698416	-0.059112	0.286806	0.214855	0.419173	0.0004435	0.155662	0.0553375	-0.018976	
0.752309	1.20087	0	0	0	0	0.0339455	0.317185	0	0	0.16504	0.492981	0	0	0.0121745	0.494038	-0.32232	0.140649	-0.289491	0.0261807	-0.16414	0.214287	-0.0751143	0.399181	-0.0594817	0.555118	0.0990985	0.726437	-0.0647365	0.302702	0.214959	0.439841	0.00364275	0.16447	0.0619762	-0.0140265	
0.75526	1.19934	0	0	0	0	0.026774	0.324423	0	0	0.175951	0.515044	0	0	0.0039	0.517422	-0.320003	0.146263	-0.272344	0.048473	-0.170205	0.231428	-0.077004	0.415793	-0.056258	0.576073	0.093913	0.754459	-0.070361	0.318597	0.215063	0.460509	0.006842	0.173278	0.068615	-0.009077	
0.758464	1.20392	0	0	0	0	0.0279485	0.321103	0	0	0.181257	0.53186	0	0	0.00798375	0.521958	-0.319878	0.158078	-0.265119	0.0635327	-0.170488	0.244816	-0.0793665	0.42247	-0.0540595	0.58491	0.096281	0.761143	-0.072238	0.323902	0.214151	0.473577	0.004331	0.180374	0.0664758	-0.0030305	
0.761617	1.20087	0	0	0	0	0.029123	0.317784	0	0	0.186563	0.548675	0	0	0.0120675	0.526494	-0.319752	0.169893	-0.257895	0.0785925	-0.17077	0.258205	-0.081729	0.429147	-0.051861	0.593748	0.098649	0.767826	-0.074115	0.329207	0.213239	0.486645	0.00182	0.18747	0.0643365	0.003016	
0.764397	1.19629	0	0	0	0	0.0302975	0.314465	0	0	0.191869	0.565491	0	0	0.0161512	0.53103	-0.319627	0.181708	-0.250671	0.0936523	-0.171053	0.271593	-0.0840915	0.435824	-0.0496625	0.602585	0.101017	0.774509	-0.075992	0.334511	0.212327	0.499712	-0.000691	0.194567	0.0621972	0.0090625	
0.766141	1.19476	0	0	0	0	0.031472	0.311145	0	0	0.197175	0.582307	0	0	0.020235	0.535566	-0.319502	0.193523	-0.243446	0.108712	-0.171336	0.284981	-0.086454	0.442501	-0.047464	0.611423	0.103385	0.781193	-0.077869	0.339816	0.211415	0.51278	-0.003202	0.201663	0.060058	0.015109	
0.765865	1.19781	0	0	0	0	0.037593	0.319914	0	0	0.208415	0.593043	0	0	0.0152547	0.549641	-0.311457	0.207345	-0.233036	0.123734	-0.165824	0.294608	-0.0824452	0.44245	-0.046452	0.623627	0.107018	0.784312	-0.0788077	0.342469	0.210495	0.525876	0.00250825	0.203392	0.0633787	0.0175905	
0.762576	1.20239	0	0	0	0	0.043714	0.328684	0	0	0.219654	0.603778	0	0	0.0102745	0.563716	-0.303413	0.221167	-0.222627	0.138757	-0.160313	0.304236	-0.0784365	0.442399	-0.04544	0.63583	0.11065	0.787431	-0.0797465	0.345123	0.209575	0.538971	0.0082185	0.205121	0.0666995	0.020072	
0.75528	1.19781	0	0	0	0	0.049835	0.337453	0	0	0.230893	0.614514	0	0	0.00529425	0.577791	-0.295369	0.234989	-0.212217	0.15378	-0.154802	0.313863	-0.0744278	0.442347	-0.044428	0.648033	0.114283	0.79055	-0.0806853	0.347777	0.208656	0.552067	0.0139288	0.206849	0.0700203	0.0225535	
0.742982	1.19781	0	0	0	0	0.055956	0.346222	0	0	0.242133	0.62525	0	0	0.000314	0.591866	-0.287324	0.248811	-0.201807	0.168802	-0.14929	0.323491	-0.070419	0.442296	-0.043416	0.660237	0.117915	0.793669	-0.081624	0.35043	0.207736	0.565163	0.019639	0.208578	0.073341	0.025035	
0.72493	1.19324	0	0	0	0	0.0439582	0.354062	0	0	0.237964	0.637032	0	0	0.002732	0.601124	-0.279271	0.26268	-0.195485	0.186565	-0.144792	0.336018	-0.0711418	0.455623	-0.03903	0.678005	0.117751	0.807527	-0.081516	0.362613	0.209722	0.58056	0.022838	0.217421	0.070127	0.0341185	
0.703567	1.19934	0	0	0	0	0.0319605	0.361901	0	0	0.233795	0.648813	0	0	0.00515	0.610382	-0.271218	0.27655	-0.189163	0.204329	-0.140295	0.348545	-0.0718645	0.46895	-0.034644	0.695772	0.117588	0.821384	-0.081408	0.374795	0.211709	0.595957	0.026037	0.226263	0.066913	0.043202	
0.683599	1.19629	0	0	0	0	0.0199628	0.369741	0	0	0.229627	0.660595	0	0	0.007568	0.61964	-0.263165	0.290419	-0.182841	0.222092	-0.135798	0.361072	-0.0725872	0.482277	-0.030258	0.713539	0.117424	0.835242	-0.0813	0.386978	0.213695	0.611354	0.029236	0.235105	0.063699	0.0522855	
0.66978	1.19934	0	0	0	0	0.007965	0.377581	0	0	0.225458	0.672377	0	0	0.009986	0.628898	-0.255112	0.304288	-0.176519	0.239855	-0.1313	0.373599	-0.07331	0.495604	-0.025872	0.731307	0.11726	0.8491	-0.081192	0.39916	0.215681	0.626751	0.032435	0.243948	0.060485	0.061369	
0.666862	1.19476	0	0	0	0	0.010317	0.370934	0	0	0.230036	0.680724	0	0	0.00258	0.633737	-0.255001	0.3162	-0.168357	0.252488	-0.139147	0.383151	-0.0721258	0.492257	-0.022491	0.736851	0.113628	0.84597	-0.081192	0.39916	0.212795	0.634908	0.0254627	0.245769	0.062733	0.0668905	
0.679577	1.19934	0	0	0	0	0.012669	0.364287	0	0	0.234615	0.689072	0	0	-0.004826	0.638576	-0.254889	0.328112	-0.160196	0.26512	-0.146993	0.392704	-0.0709415	0.488911	-0.01911	0.742395	0.109996	0.842839	-0.081192	0.39916	0.209908	0.643065	0.0184905	0.247589	0.064981	0.072412	
0.709457	1.19781	0	0	0	0	0.015021	0.357639	0	0	0.239193	0.69742	0	0	-0.012232	0.643416	-0.254778	0.340023	-0.152035	0.277753	-0.154839	0.402257	-0.0697572	0.485564	-0.015729	0.74794	0.106364	0.839708	-0.081192	0.39916	0.207022	0.651222	0.0115183	0.24941	0.067229	0.0779335	
0.751501	1.19629	0	0	0	0	0.017373	0.350992	0	0	0.243771	0.705767	0	0	-0.019638	0.648255	-0.254667	0.351935	-0.143873	0.290385	-0.162686	0.411809	-0.068573	0.482217	-0.012348	0.753484	0.102732	0.836578	-0.081192	0.39916	0.204136	0.659379	0.004546	0.251231	0.069477	0.083455	
0.799916	1.19476	0	0	0	0	0.019841	0.357046	0	0	0.241353	0.723253	0	0	-0.0229677	0.657666	-0.257882	0.373254	-0.13847	0.310882	-0.160954	0.419536	-0.068573	0.482217	-0.00438825	0.761225	0.095305	0.844182	-0.0878805	0.405575	0.206086	0.664382	0.00202825	0.258347	0.0640117	0.0870262	
0.848905	1.19629	0	0	0	0	0.022309	0.363101	0	0	0.238935	0.740739	0	0	-0.0262975	0.667076	-0.261096	0.394573	-0.133067	0.331379	-0.159222	0.427263	-0.068573	0.482217	0.0035715	0.768966	0.087878	0.851787	-0.094569	0.411989	0.208037	0.669384	-0.0004895	0.265463	0.0585465	0.0905975	
0.892674	1.19324	0	0	0	0	0.024777	0.369155	0	0	0.236517	0.758226	0	0	-0.0296273	0.676486	-0.264311	0.415892	-0.127663	0.351875	-0.157489	0.43499	-0.068573	0.482217	0.0115312	0.776707	0.080451	0.859391	-0.101258	0.418403	0.209987	0.674386	-0.00300725	0.272579	0.0530812	0.0941687	
0.925427	1.19629	0	0	0	0	0.027245	0.375209	0	0	0.234099	0.775712	0	0	-0.032957	0.685897	-0.267526	0.437211	-0.12226	0.372372	-0.155757	0.442717	-0.068573	0.482217	0.019491	0.784448	0.073024	0.866995	-0.107946	0.424818	0.211937	0.679389	-0.005525	0.279695	0.047616	0.09774	
0.941368	1.19324	0	0	0	0	0.012901	0.389698	0	0	0.232004	0.781632	0	0	-0.04369	0.700152	-0.264014	0.451777	-0.119138	0.390419	-0.161883	0.46003	-0.0669297	0.488865	0.0192947	0.800139	0.0753827	0.873714	-0.106907	0.43437	0.207116	0.693013	-0.00678475	0.283255	0.0487865	0.106307	
0.935433	1.19476	0	0	0	0	-0.001443	0.404187	0	0	0.229909	0.787552	0	0	-0.054423	0.714408	-0.260502	0.466342	-0.116016	0.408466	-0.168009	0.477343	-0.0652865	0.495513	0.0190985	0.81583	0.0777415	0.880433	-0.105868	0.443921	0.202295	0.706638	-0.0080445	0.286816	0.049957	0.114874	
0.910204	1.19781	0	0	0	0	-0.015787	0.418675	0	0	0.227815	0.793472	0	0	-0.065156	0.728664	-0.25699	0.480907	-0.112894	0.426513	-0.174135	0.494656	-0.0636432	0.502161	0.0189023	0.831521	0.0801003	0.887153	-0.104829	0.453473	0.197475	0.720262	-0.00930425	0.290376	0.0511275	0.123441	
0.872821	1.19324	0	0	0	0	-0.030131	0.433164	0	0	0.22572	0.799392	0	0	-0.075889	0.742919	-0.253478	0.495473	-0.109772	0.44456	-0.180261	0.511969	-0.062	0.508809	0.018706	0.847212	0.082459	0.893872	-0.10379	0.463025	0.192654	0.733886	-0.010564	0.293936	0.052298	0.132008	
0.830486	1.19018	0	0	0	0	-0.0265998	0.423184	0	0	0.219769	0.805557	0	0	-0.075889	0.742919	-0.244321	0.506391	-0.101598	0.457348	-0.178538	0.519731	-0.0787672	0.522341	0.016315	0.85397	0.0775663	0.894314	-0.108506	0.476352	0.188792	0.7448	-0.013085	0.30106	0.0501482	0.138083	
0.790402	1.19018	0	0	0	0	-0.0230685	0.413204	0	0	0.213819	0.811723	0	0	-0.075889	0.742919	-0.235164	0.51731	-0.093425	0.470137	-0.176814	0.527493	-0.0955345	0.535872	0.013924	0.860728	0.0726735	0.894756	-0.113222	0.489679	0.18493	0.755715	-0.015606	0.308185	0.0479985	0.144158	
0.759771	1.19171	0	0	0	0	-0.0195372	0.403224	0	0	0.207868	0.817888	0	0	-0.075889	0.742919	-0.226007	0.528228	-0.0852515	0.482925	-0.175091	0.535254	-0.112302	0.549404	0.011533	0.867486	0.0677808	0.895199	-0.117937	0.503007	0.181068	0.766629	-0.018127	0.31531	0.0458488	0.150234	
0.745189	1.19171	0	0	0	0	-0.016006	0.393244	0	0	0.201917	0.824053	0	0	-0.075889	0.742919	-0.21685	0.539147	-0.077078	0.495713	-0.173368	0.543016	-0.129069	0.562936	0.009142	0.874244	0.062888	0.895641	-0.122653	0.516334	0.177206	0.777543	-0.020648	0.322434	0.043699	0.156309	
0.746347	1.18866	0	0	0	0	-0.0183598	0.399896	0	0	0.19982	0.829979	0	0	-0.0832823	0.74775	-0.21231	0.538598	-0.070244	0.50336	-0.178158	0.543923	-0.131886	0.559626	0.021896	0.86851	0.0531143	0.896522	-0.126514	0.514756	0.173333	0.777975	-0.0219092	0.325998	0.0393085	0.156842	
0.758547	1.19018	0	0	0	0	-0.0207135	0.406548	0	0	0.197723	0.835905	0	0	-0.0906755	0.752581	-0.20777	0.53805	-0.06341	0.511007	-0.182949	0.54483	-0.134703	0.556316	0.03465	0.862775	0.0433405	0.897402	-0.130374	0.513179	0.16946	0.778407	-0.0231705	0.329562	0.034918	0.157375	
0.777017	1.18713	0	0	0	0	-0.0230672	0.413201	0	0	0.195626	0.841831	0	0	-0.0980687	0.757412	-0.203231	0.537502	-0.056576	0.518654	-0.18774	0.545738	-0.13752	0.553006	0.047404	0.85704	0.0335667	0.898283	-0.134235	0.511602	0.165587	0.778839	-0.0244318	0.333127	0.0305275	0.157908	
0.796988	1.18866	0	0	0	0	-0.025421	0.419853	0	0	0.193529	0.847757	0	0	-0.105462	0.762243	-0.198691	0.536953	-0.049742	0.526301	-0.19253	0.546645	-0.140337	0.549696	0.060158	0.851306	0.023793	0.899164	-0.138095	0.510024	0.161714	0.779271	-0.025693	0.336691	0.026137	0.158441	
0.81369	1.18713	0	0	0	0	-0.0268152	0.39778	0	0	0.188263	0.83072	0	0	-0.119277	0.753178	-0.212301	0.538595	-0.0593622	0.526528	-0.200056	0.542678	-0.151145	0.546469	0.050786	0.862631	0.0153	0.896463	-0.139982	0.515357	0.153009	0.782861	-0.031394	0.334937	0.026137	0.158441	
0.822352	1.18713	0	0	0	0	-0.0282095	0.375707	0	0	0.182997	0.813684	0	0	-0.133092	0.744113	-0.225911	0.540237	-0.0689825	0.526755	-0.207583	0.538712	-0.161953	0.543241	0.041414	0.873956	0.006807	0.893762	-0.141869	0.52069	0.144305	0.78645	-0.037095	0.333183	0.026137	0.158441	
0.819756	1.18713	0	0	0	0	-0.0296038	0.353635	0	0	0.17773	0.796647	0	0	-0.146906	0.735049	-0.23952	0.541878	-0.0786027	0.526982	-0.21511	0.534745	-0.172761	0.540014	0.032042	0.885281	-0.001686	0.891061	-0.143756	0.526024	0.135601	0.79004	-0.042796	0.331428	0.026137	0.158441	
0.807335	1.18866	0	0	0	0	-0.030998	0.331562	0	0	0.172464	0.77961	0	0	-0.160721	0.725984	-0.25313	0.54352	-0.088223	0.527209	-0.222636	0.530778	-0.183569	0.536787	0.02267	0.896606	-0.010179	0.88836	-0.145643	0.531357	0.126896	0.79363	-0.048497	0.329674	0.026137	0.158441	
0.787396	1.18408	0	0	0	0	-0.03346	0.325526	0	0	0.163022	0.77443	0	0	-0.170465	0.721518	-0.264489	0.538874	-0.098243	0.51964	-0.231868	0.519075	-0.182834	0.523466	0.025064	0.889841	-0.00999875	0.874514	-0.146671	0.521783	0.123988	0.780862	-0.0598815	0.326167	0.0228243	0.155937	
0.762245	1.18561	0	0	0	0	-0.035922	0.319491	0	0	0.153579	0.76925	0	0	-0.180208	0.717053	-0.275848	0.534228	-0.108263	0.51207	-0.241099	0.507371	-0.1821	0.510146	0.027458	0.883075	-0.0098185	0.860667	-0.147699	0.512208	0.12108	0.768094	-0.071266	0.32266	0.0195115	0.153432	
0.734187	1.18713	0	0	0	0	-0.038384	0.313455	0	0	0.144137	0.764069	0	0	-0.189952	0.712588	-0.287207	0.529581	-0.118283	0.504501	-0.250331	0.495668	-0.181365	0.496825	0.029852	0.876309	-0.00963825	0.84682	-0.148727	0.502634	0.118172	0.755326	-0.0826505	0.319153	0.0161987	0.150928	
0.705538	1.18713	0	0	0	0	-0.040846	0.307419	0	0	0.134694	0.758889	0	0	-0.199696	0.708122	-0.298566	0.524935	-0.128303	0.496931	-0.259563	0.483965	-0.18063	0.483504	0.032246	0.869544	-0.009458	0.832974	-0.149755	0.49306	0.115264	0.742558	-0.094035	0.315646	0.012886	0.148424	
0.678986	1.18713	0	0	0	0	-0.0407317	0.32009	0	0	0.129104	0.753475	0	0	-0.205391	0.708237	-0.304279	0.51662	-0.140571	0.48684	-0.266049	0.477141	-0.18861	0.483589	0.0334422	0.866163	-0.0204597	0.83742	-0.152669	0.488824	0.113327	0.737547	-0.094035	0.315646	0.0150332	0.142355	
0.657756	1.18561	0	0	0	0	-0.0406175	0.33276	0	0	0.123513	0.748061	0	0	-0.211087	0.708351	-0.309991	0.508306	-0.152839	0.476749	-0.272534	0.470317	-0.19659	0.483673	0.0346385	0.862782	-0.0314615	0.841867	-0.155583	0.484588	0.111391	0.732535	-0.094035	0.315646	0.0171805	0.136286	
0.645111	1.18713	0	0	0	0	-0.0405033	0.34543	0	0	0.117922	0.742648	0	0	-0.216782	0.708465	-0.315704	0.499991	-0.165107	0.466657	-0.279019	0.463494	-0.204569	0.483758	0.0358347	0.859401	-0.0424633	0.846313	-0.158496	0.480351	0.109455	0.727523	-0.094035	0.315646	0.0193278	0.130217	
0.644312	1.18255	0	0	0	0	-0.040389	0.358101	0	0	0.112332	0.737234	0	0	-0.222477	0.70858	-0.321417	0.491676	-0.177375	0.456566	-0.285505	0.45667	-0.212549	0.483843	0.037031	0.85602	-0.053465	0.850759	-0.16141	0.476115	0.107518	0.722512	-0.094035	0.315646	0.021475	0.124148	
0.658621	1.18713	0	0	0	0	-0.046479	0.349335	0	0	0.102207	0.723493	0	0	-0.230537	0.699437	-0.330529	0.480799	-0.187771	0.441292	-0.294712	0.445025	-0.218161	0.477263	0.0348393	0.847065	-0.0594077	0.840946	-0.162352	0.478776	0.10462	0.720225	-0.091519	0.308536	0.0127078	0.125214	
0.689299	1.18561	0	0	0	0	-0.052569	0.340569	0	0	0.092082	0.709753	0	0	-0.238596	0.690295	-0.339641	0.469923	-0.198167	0.426019	-0.303919	0.43338	-0.223773	0.470682	0.0326475	0.83811	-0.0653505	0.831133	-0.163293	0.481438	0.101721	0.717937	-0.089003	0.301426	0.0039405	0.12628	
0.732004	1.18561	0	0	0	0	-0.058659	0.331804	0	0	0.081957	0.696012	0	0	-0.246656	0.681153	-0.348752	0.459046	-0.208564	0.410745	-0.313126	0.421735	-0.229385	0.464102	0.0304558	0.829156	-0.0712933	0.82132	-0.164235	0.4841	0.0988233	0.71565	-0.086487	0.294315	-0.00482675	0.127346	
0.78142	1.18408	0	0	0	0	-0.064749	0.323038	0	0	0.071832	0.682271	0	0	-0.254716	0.67201	-0.357864	0.448169	-0.21896	0.395471	-0.322333	0.41009	-0.234997	0.457521	0.028264	0.820201	-0.077236	0.811507	-0.165177	0.486761	0.095925	0.713362	-0.083971	0.287205	-0.013594	0.128412	
0.83223	1.18561	0	0	0	0	-0.0707207	0.32694	0	0	0.0624337	0.677129	0	0	-0.257088	0.662773	-0.364667	0.443015	-0.233434	0.382933	-0.322021	0.39667	-0.24178	0.454278	0.0191098	0.815811	-0.0808347	0.808388	-0.167148	0.479868	0.0910935	0.706076	-0.083971	0.287205	-0.016901	0.125913	
0.879118	1.18255	0	0	0	0	-0.0766925	0.330842	0	0	0.0530355	0.671987	0	0	-0.25946	0.653536	-0.371469	0.43786	-0.247909	0.370395	-0.321709	0.38325	-0.248563	0.451035	0.0099555	0.811422	-0.0844335	0.805268	-0.169119	0.472974	0.086262	0.698791	-0.083971	0.287205	-0.020208	0.123414	
0.916766	1.18255	0	0	0	0	-0.0826643	0.334745	0	0	0.0436372	0.666845	0	0	-0.261831	0.644299	-0.378272	0.432706	-0.262383	0.357856	-0.321397	0.36983	-0.255346	0.447791	0.00080125	0.807032	-0.0880323	0.802149	-0.171089	0.466081	0.0814305	0.691506	-0.083971	0.287205	-0.023515	0.120916	
0.939859	1.18103	0	0	0	0	-0.088636	0.338647	0	0	0.034239	0.661703	0	0	-0.264203	0.635062	-0.385074	0.427552	-0.276857	0.345318	-0.321085	0.35641	-0.262129	0.444548	-0.008353	0.802642	-0.091631	0.79903	-0.17306	0.459188	0.076599	0.68422	-0.083971	0.287205	-0.026822	0.118417	
0.943419	1.18103	0	0	0	0	-0.0921543	0.34859	0	0	0.033529	0.653154	0	0	-0.273187	0.644526	-0.390766	0.419291	-0.290876	0.340518	-0.329578	0.355361	-0.262129	0.444548	-0.011733	0.797082	-0.0855142	0.795033	-0.177852	0.460275	0.075624	0.676515	-0.0953362	0.283712	-0.0257502	0.115388	
0.928246	1.18255	0	0	0	0	-0.0956725	0.358533	0	0	0.032819	0.644605	0	0	-0.282171	0.65399	-0.396458	0.41103	-0.304895	0.335717	-0.338071	0.354312	-0.262129	0.444548	-0.015113	0.791523	-0.0793975	0.791037	-0.182644	0.461363	0.074649	0.66881	-0.106702	0.280218	-0.0246785	0.11236	
0.899977	1.18255	0	0	0	0	-0.0991907	0.368476	0	0	0.032109	0.636055	0	0	-0.291155	0.663454	-0.40215	0.402769	-0.318915	0.330917	-0.346564	0.353262	-0.262129	0.444548	-0.018493	0.785964	-0.0732808	0.78704	-0.187435	0.46245	0.073674	0.661104	-0.118067	0.276724	-0.0236067	0.109331	
0.864397	1.18255	0	0	0	0	-0.102709	0.378419	0	0	0.031399	0.627506	0	0	-0.300139	0.672918	-0.407842	0.394508	-0.332934	0.326116	-0.355057	0.352213	-0.262129	0.444548	-0.021873	0.780404	-0.067164	0.783043	-0.192227	0.463537	0.072699	0.653399	-0.129432	0.273231	-0.022535	0.106302	
0.827292	1.18255	0	0	0	0	-0.106331	0.375688	0	0	0.0161363	0.628478	0	0	-0.298485	0.668243	-0.420219	0.393027	-0.346002	0.318735	-0.359804	0.353117	-0.263306	0.447875	-0.021873	0.780404	-0.0709417	0.793719	-0.189317	0.467769	0.072699	0.653399	-0.13636	0.275031	-0.022535	0.106302	
0.794449	1.18255	0	0	0	0	-0.109952	0.372958	0	0	0.0008735	0.629449	0	0	-0.296831	0.663569	-0.432596	0.391545	-0.359071	0.311353	-0.364552	0.354021	-0.264483	0.451202	-0.021873	0.780404	-0.0747195	0.804396	-0.186408	0.472	0.072699	0.653399	-0.143289	0.276831	-0.022535	0.106302	
0.771594	1.1795	0	0	0	0	-0.113574	0.370228	0	0	-0.0143892	0.630421	0	0	-0.295177	0.658895	-0.444974	0.390064	-0.37214	0.303972	-0.369299	0.354925	-0.265661	0.454528	-0.021873	0.780404	-0.0784973	0.815072	-0.183499	0.476232	0.072699	0.653399	-0.150218	0.278631	-0.022535	0.106302	
0.761235	1.1795	0	0	0	0	-0.117196	0.367497	0	0	-0.029652	0.631393	0	0	-0.293523	0.65422	-0.457351	0.388582	-0.385208	0.29659	-0.374046	0.355829	-0.266838	0.457855	-0.021873	0.780404	-0.082275	0.825748	-0.180589	0.480464	0.072699	0.653399	-0.157146	0.280431	-0.022535	0.106302	
0.761022	1.17798	0	0	0	0	-0.117196	0.367497	0	0	-0.0279115	0.637006	0	0	-0.300847	0.659006	-0.460738	0.386015	-0.385208	0.29659	-0.377779	0.353874	-0.271991	0.461222	-0.0264415	0.778215	-0.0810152	0.822188	-0.189227	0.479975	0.064996	0.654265	-0.165322	0.285773	-0.0258407	0.103807	
0.768207	1.18255	0	0	0	0	-0.117196	0.367497	0	0	-0.026171	0.642618	0	0	-0.308171	0.663791	-0.464124	0.383449	-0.385208	0.29659	-0.381512	0.351919	-0.277145	0.464589	-0.03101	0.776026	-0.0797555	0.818628	-0.197864	0.479487	0.057293	0.655131	-0.173498	0.291115	-0.0291465	0.101312	
0.780038	1.17798	0	0	0	0	-0.117196	0.367497	0	0	-0.0244305	0.64823	0	0	-0.315494	0.668577	-0.46751	0.380883	-0.385208	0.29659	-0.385245	0.349964	-0.282298	0.467957	-0.0355785	0.773837	-0.0784958	0.815067	-0.206502	0.478998	0.04959	0.655997	-0.181674	0.296458	-0.0324523	0.0988178	
0.793767	1.1795	0	0	0	0	-0.117196	0.367497	0	0	-0.02269	0.653843	0	0	-0.322818	0.673362	-0.470897	0.378316	-0.385208	0.29659	-0.388978	0.348009	-0.287451	0.471324	-0.040147	0.771648	-0.077236	0.811507	-0.21514	0.478509	0.041887	0.656863	-0.18985	0.3018	-0.035758	0.096323	
0.806643	1.17798	0	0	0	0	-0.12316	0.371394	0	0	-0.0160967	0.656292	0	0	-0.33179	0.682818	-0.476567	0.370086	-0.393353	0.301912	-0.396436	0.344102	-0.282298	0.467957	-0.040147	0.771648	-0.079756	0.818629	-0.212234	0.482743	0.0457373	0.65643	-0.181674	0.296458	-0.0422735	0.102907	
0.816181	1.17798	0	0	0	0	-0.129123	0.37529	0	0	-0.0095035	0.65874	0	0	-0.340761	0.692274	-0.482236	0.361857	-0.401498	0.307234	-0.403894	0.340196	-0.277145	0.464589	-0.040147	0.771648	-0.082276	0.825751	-0.209329	0.486978	0.0495875	0.655998	-0.173498	0.291115	-0.048789	0.109492	
0.821416	1.17798	5	0	0	0	-0.135086	0.379186	0	0	-0.00291025	0.661188	0	0	-0.349733	0.70173	-0.487905	0.353627	-0.409643	0.312556	-0.411352	0.33629	-0.271991	0.461222	-0.040147	0.771648	-0.084796	0.832872	-0.206423	0.491212	0.0534377	0.655566	-0.165322	0.285773	-0.0553045	0.116076	
0.821927	1.17645	5	0	0	0	-0.14105	0.383083	0	0	0.003683	0.663637	0	0	-0.358704	0.711186	-0.493575	0.345397	-0.417788	0.317878	-0.41881	0.332383	-0.266838	0.457855	-0.040147	0.771648	-0.087316	0.839994	-0.203517	0.495446	0.057288	0.655133	-0.157146	0.280431	-0.06182	0.12266	
0.817291	1.17798	5	0	0	0	-0.137433	0.385816	0	0	0.00646375	0.666328	0	0	-0.353041	0.711081	-0.496956	0.342838	-0.417286	0.307619	-0.422535	0.330431	-0.269638	0.45457	-0.0435225	0.7661	-0.084796	0.832872	-0.206423	0.491212	0.0553545	0.650148	-0.162813	0.278683	-0.060749	0.119633	
0.807089	1.17798	5	0	0	0	-0.133815	0.388549	0	0	0.0092445	0.669019	0	0	-0.347379	0.710977	-0.500337	0.34028	-0.416785	0.297359	-0.426261	0.32848	-0.272437	0.451285	-0.046898	0.760552	-0.082276	0.825751	-0.209329	0.486978	0.053421	0.645163	-0.16848	0.276934	-0.059678	0.116607	
0.790898	1.17645	5	0	0	0	-0.130197	0.391283	0	0	0.0120252	0.67171	0	0	-0.341716	0.710873	-0.503718	0.337721	-0.416283	0.2871	-0.429986	0.326528	-0.275236	0.448	-0.0502735	0.755005	-0.079756	0.818629	-0.212234	0.482743	0.0514875	0.640178	-0.174147	0.275186	-0.058607	0.11358	
0.768503	1.1795	5	0	0	0	-0.12658	0.394016	0	0	0.014806	0.674401	0	0	-0.336053	0.710768	-0.507099	0.335162	-0.415781	0.276841	-0.433711	0.324577	-0.278036	0.444715	-0.053649	0.749457	-0.077236	0.811507	-0.21514	0.478509	0.049554	0.635193	-0.179814	0.273438	-0.057536	0.110553	
0.742579	1.17645	5	0	0	0	-0.121689	0.406134	0	0	0.0186263	0.67416	0	0	-0.339365	0.720129	-0.511489	0.34757	-0.42474	0.266834	-0.43472	0.327429	-0.271257	0.447959	-0.0558355	0.740561	-0.073635	0.814629	-0.219924	0.479592	0.050512	0.632486	-0.17856	0.269895	-0.064048	0.117135	
0.717936	1.17493	5	0	0	0	-0.116797	0.418253	0	0	0.0224465	0.673919	0	0	-0.342678	0.729491	-0.51588	0.359978	-0.433699	0.256827	-0.435729	0.33028	-0.264479	0.451203	-0.058022	0.731666	-0.070034	0.817751	-0.224709	0.480675	0.05147	0.629779	-0.177307	0.266352	-0.07056	0.123718	
0.699433	1.1734	5	0	0	0	-0.111906	0.430371	0	0	0.0262667	0.673677	0	0	-0.34599	0.738852	-0.520271	0.372386	-0.442658	0.24682	-0.436738	0.333132	-0.2577	0.454446	-0.0602085	0.72277	-0.066433	0.820874	-0.229493	0.481758	0.052428	0.627071	-0.176053	0.262808	-0.077072	0.1303	
0.691929	1.1734	5	0	0	0	-0.107015	0.442489	0	0	0.030087	0.673436	0	0	-0.349303	0.748213	-0.524661	0.384794	-0.451617	0.236813	-0.437747	0.335984	-0.250922	0.45769	-0.062395	0.713874	-0.062832	0.823996	-0.234277	0.482841	0.053386	0.624364	-0.174799	0.259265	-0.083584	0.136882	
0.700284	1.17187	5	0	0	0	-0.108286	0.433107	0	0	0.024523	0.668056	0	0	-0.341979	0.743428	-0.522382	0.390468	-0.464614	0.229481	-0.434022	0.337938	-0.256078	0.461059	-0.0738817	0.716223	-0.0640928	0.827559	-0.226587	0.485992	0.0514698	0.62978	-0.182967	0.264602	-0.0792142	0.136354	
0.727503	1.17187	5	0	0	0	-0.109558	0.423724	0	0	0.018959	0.662675	0	0	-0.334655	0.738642	-0.520104	0.396142	-0.477611	0.222149	-0.430298	0.339891	-0.261235	0.464429	-0.0853685	0.718573	-0.0653535	0.831122	-0.218897	0.489144	0.0495535	0.635196	-0.191136	0.269939	-0.0748445	0.135827	
0.769529	1.17187	5	0	0	0	-0.110829	0.414342	0	0	0.013395	0.657295	0	0	-0.327332	0.733857	-0.517825	0.401816	-0.490608	0.214817	-0.426573	0.341844	-0.266392	0.467798	-0.0968553	0.720922	-0.0666142	0.834685	-0.211207	0.492295	0.0476372	0.640611	-0.199304	0.275277	-0.0704748	0.1353	
0.820623	1.17187	5	0	0	0	-0.1121	0.404959	0	0	0.007831	0.651915	0	0	-0.320008	0.729071	-0.515546	0.40749	-0.503605	0.207485	-0.422849	0.343798	-0.271548	0.471167	-0.108342	0.723271	-0.067875	0.838248	-0.203517	0.495446	0.045721	0.646027	-0.207472	0.280614	-0.066105	0.134772	
0.875042	1.17187	5	0	0	0	-0.110926	0.401641	0	0	0.0088675	0.648985	0	0	-0.321665	0.733755	-0.514368	0.416282	-0.507655	0.210132	-0.423859	0.346652	-0.268748	0.474457	-0.111707	0.717742	-0.0666142	0.834685	-0.207363	0.49387	0.0428308	0.643752	-0.203714	0.269993	-0.072618	0.141356	
0.927047	1.17645	5	0	0	0	-0.109752	0.398323	0	0	0.009904	0.646056	0	0	-0.323323	0.73844	-0.513189	0.425075	-0.511705	0.212778	-0.424869	0.349507	-0.265948	0.477747	-0.115072	0.712214	-0.0653535	0.831122	-0.211209	0.492294	0.0399405	0.641477	-0.199956	0.259372	-0.079131	0.14794	
0.970897	1.17187	5	0	0	0	-0.108578	0.395004	0	0	0.0109405	0.643127	0	0	-0.32498	0.743124	-0.512011	0.433868	-0.515756	0.215425	-0.425879	0.352361	-0.263148	0.481038	-0.118438	0.706686	-0.0640928	0.827559	-0.215056	0.490718	0.0370502	0.639201	-0.196197	0.248751	-0.085644	0.154524	
1.00085	1.17187	5	0	0	0	-0.107404	0.391686	0	0	0.011977	0.640197	0	0	-0.326637	0.747808	-0.510833	0.44266	-0.519806	0.218072	-0.426889	0.355216	-0.260348	0.484328	-0.121803	0.701157	-0.062832	0.823996	-0.218902	0.489142	0.03416	0.636926	-0.192439	0.23813	-0.092157	0.161108	
1.01117	1.17035	5	0	0	0	-0.103684	0.407132	0	0	0.0116463	0.651681	0	0	-0.324285	0.757086	-0.508555	0.448352	-0.516254	0.225636	-0.425185	0.362888	-0.256368	0.484289	-0.117252	0.703334	-0.0592285	0.827121	-0.214115	0.488058	0.040901	0.638768	-0.194944	0.245209	-0.092157	0.161108	
0.997835	1.17035	5	0	0	0	-0.0999635	0.422577	0	0	0.0113155	0.663166	0	0	-0.321933	0.766364	-0.506277	0.454044	-0.512701	0.233201	-0.423481	0.37056	-0.252387	0.484249	-0.1127	0.705511	-0.055625	0.830245	-0.209327	0.486974	0.047642	0.64061	-0.197449	0.252289	-0.092157	0.161108	
0.965419	1.17035	5	0	0	0	-0.0962433	0.438023	0	0	0.0109847	0.67465	0	0	-0.31958	0.775642	-0.503999	0.459736	-0.509149	0.240765	-0.421777	0.378232	-0.248407	0.484209	-0.108149	0.707687	-0.0520215	0.83337	-0.20454	0.485891	0.054383	0.642451	-0.199954	0.259368	-0.092157	0.161108	
0.921143	1.17035	5	0	0	0	-0.092523	0.453469	0	0	0.010654	0.686134	0	0	-0.317228	0.78492	-0.501721	0.465428	-0.505596	0.24833	-0.420073	0.385904	-0.244426	0.48417	-0.103598	0.709864	-0.048418	0.836495	-0.199753	0.484807	0.061124	0.644293	-0.202459	0.266447	-0.092157	0.161108	
0.872235	1.1673	5	0	0	0	-0.0996762	0.460701	0	0	0.00961575	0.689069	0	0	-0.313215	0.789517	-0.505029	0.474778	-0.507418	0.253479	-0.414641	0.395554	-0.245165	0.497474	-0.107157	0.719923	-0.0424677	0.846325	-0.200615	0.499697	0.0649928	0.654275	-0.207475	0.280622	-0.0801137	0.162561	
0.82592	1.16577	5	0	0	0	-0.106829	0.467932	0	0	0.0085775	0.692003	0	0	-0.309201	0.794114	-0.508337	0.484128	-0.50924	0.258628	-0.40921	0.405204	-0.245903	0.510777	-0.110716	0.729982	-0.0365175	0.856155	-0.201477	0.514587	0.0688615	0.664257	-0.21249	0.294798	-0.0680705	0.164014	
0.789425	1.17187	5	0	0	0	-0.113983	0.475164	0	0	0.00753925	0.694937	0	0	-0.305188	0.798711	-0.511646	0.493477	-0.511062	0.263777	-0.403778	0.414854	-0.246641	0.524081	-0.114276	0.740041	-0.0305673	0.865985	-0.202338	0.529478	0.0727302	0.674238	-0.217506	0.308974	-0.0560273	0.165467	
0.769379	1.16882	5	0	0	0	-0.121136	0.482395	0	0	0.006501	0.697872	0	0	-0.301174	0.803308	-0.514954	0.502827	-0.512884	0.268926	-0.398346	0.424504	-0.24738	0.537385	-0.117835	0.7501	-0.024617	0.875815	-0.2032	0.544368	0.076599	0.68422	-0.222522	0.323149	-0.043984	0.16692	
0.765813	1.17035	5	0	0	0	-0.116337	0.481818	0	0	0.00928175	0.700569	0	0	-0.306165	0.817413	-0.514889	0.514782	-0.514707	0.274078	-0.397658	0.435074	-0.24576	0.544031	-0.117835	0.7501	-0.0258813	0.879388	-0.202257	0.541704	0.0756385	0.686935	-0.215609	0.321359	-0.0482805	0.179062	
0.774646	1.16424	5	0	0	0	-0.111539	0.481241	0	0	0.0120625	0.703266	0	0	-0.311156	0.831518	-0.514825	0.526736	-0.51653	0.27923	-0.396971	0.445643	-0.24414	0.550677	-0.117835	0.7501	-0.0271455	0.882961	-0.201315	0.539039	0.074678	0.68965	-0.208696	0.31957	-0.052577	0.191204	
0.791737	1.16882	5	0	0	0	-0.106741	0.480664	0	0	0.0148433	0.705963	0	0	-0.316146	0.845622	-0.51476	0.538691	-0.518352	0.284381	-0.396283	0.456212	-0.24252	0.557322	-0.117835	0.7501	-0.0284097	0.886533	-0.200372	0.536374	0.0737175	0.692365	-0.201783	0.31778	-0.0568735	0.203347	
0.812944	1.16577	5	0	0	0	-0.101942	0.480087	0	0	0.017624	0.70866	0	0	-0.321137	0.859727	-0.514695	0.550645	-0.520175	0.289533	-0.395595	0.466782	-0.2409	0.563968	-0.117835	0.7501	-0.029674	0.890106	-0.199429	0.53371	0.072757	0.69508	-0.19487	0.31599	-0.06117	0.215489	
0.834125	1.1673	5	0	0	0	-0.104482	0.461305	0	0	0.009286	0.700575	0	0	-0.317809	0.850321	-0.514636	0.562624	-0.526455	0.289675	-0.394911	0.477372	-0.243266	0.570655	-0.12357	0.751269	-0.0358082	0.894114	-0.203202	0.544373	0.0708348	0.700512	-0.197382	0.323089	-0.0589445	0.221045	
0.851137	1.1673	5	0	0	0	-0.107021	0.442523	0	0	0.000948	0.69249	0	0	-0.314481	0.840915	-0.514577	0.574604	-0.532734	0.289818	-0.394228	0.487961	-0.245633	0.577343	-0.129304	0.752437	-0.0419425	0.898122	-0.206975	0.555036	0.0689125	0.705944	-0.199894	0.330188	-0.056719	0.2266	
0.86035	1.1673	5	0	0	0	-0.109561	0.423741	0	0	-0.00739	0.684405	0	0	-0.311153	0.83151	-0.514518	0.586583	-0.539014	0.289961	-0.393545	0.498551	-0.247999	0.58403	-0.135039	0.753605	-0.0480768	0.902131	-0.210748	0.5657	0.0669903	0.711377	-0.202406	0.337287	-0.0544935	0.232156	
0.861287	1.16882	5	0	0	0	-0.1121	0.404959	0	0	-0.015728	0.67632	0	0	-0.307825	0.822104	-0.514459	0.598562	-0.545294	0.290103	-0.392861	0.509141	-0.250365	0.590717	-0.140774	0.754774	-0.054211	0.906139	-0.214521	0.576363	0.065068	0.716809	-0.204918	0.344386	-0.052268	0.237711	
0.854682	1.1673	5	0	0	0	-0.110926	0.401641	0	0	-0.0091325	0.678774	0	0	-0.307825	0.822104	-0.508865	0.594907	-0.539926	0.292538	-0.391845	0.506268	-0.249182	0.587373	-0.139588	0.751421	-0.0552868	0.895861	-0.211691	0.568364	0.0669903	0.711377	-0.203662	0.340836	-0.0511923	0.234671	
0.841269	1.17035	5	0	0	0	-0.109752	0.398323	0	0	-0.002537	0.681227	0	0	-0.307825	0.822104	-0.503271	0.591252	-0.534558	0.294972	-0.390828	0.503395	-0.247999	0.584029	-0.138402	0.748068	-0.0563625	0.885584	-0.208861	0.560365	0.0689125	0.705944	-0.202405	0.337286	-0.0501165	0.231631	
0.821783	1.16882	5	0	0	0	-0.108578	0.395004	0	0	0.0040585	0.683681	0	0	-0.307825	0.822104	-0.497678	0.587597	-0.52919	0.297407	-0.389811	0.500522	-0.246815	0.580684	-0.137215	0.744715	-0.0574382	0.875306	-0.20603	0.552367	0.0708348	0.700512	-0.201149	0.333735	-0.0490408	0.22859	
0.796958	1.16882	5	0	0	0	-0.107404	0.391686	0	0	0.010654	0.686134	0	0	-0.307825	0.822104	-0.492084	0.583942	-0.523822	0.299841	-0.388795	0.497649	-0.245632	0.57734	-0.136029	0.741362	-0.058514	0.865028	-0.2032	0.544368	0.072757	0.69508	-0.199893	0.330185	-0.047965	0.22555	
0.767653	1.1673	5	0	0	0	-0.110837	0.414363	0	0	0.0127552	0.711881	0	0	-0.312818	0.836216	-0.495464	0.581341	-0.518044	0.30995	-0.389811	0.500522	-0.249615	0.577372	-0.130294	0.740192	-0.0621155	0.861897	-0.201315	0.53904	0.072757	0.69508	-0.198637	0.326636	-0.0490408	0.22859	
0.736747	1.1673	5	0	0	0	-0.11427	0.43704	0	0	0.0148565	0.737627	0	0	-0.317812	0.850329	-0.498844	0.57874	-0.512266	0.320059	-0.390828	0.503395	-0.253597	0.577405	-0.124559	0.739022	-0.065717	0.858766	-0.199429	0.533711	0.072757	0.69508	-0.197381	0.323087	-0.0501165	0.231631	
0.70878	1.1673	5	0	0	0	-0.117703	0.459718	0	0	0.0169578	0.763374	0	0	-0.322805	0.864441	-0.502224	0.576139	-0.506489	0.330167	-0.391845	0.506268	-0.25758	0.577438	-0.118823	0.737853	-0.0693185	0.855636	-0.197544	0.528382	0.072757	0.69508	-0.196126	0.319539	-0.0511923	0.234671	
0.68834	1.1673	5	0	0	0	-0.121136	0.482395	0	0	0.019059	0.789121	0	0	-0.327798	0.878553	-0.505604	0.573538	-0.500711	0.340276	-0.392861	0.509141	-0.261563	0.57747	-0.113088	0.736683	-0.07292	0.852505	-0.195659	0.523054	0.072757	0.69508	-0.19487	0.31599	-0.052268	0.237711	
0.680015	1.16882	5	0	0	0	-0.112806	0.471838	0	0	0.0263632	0.800218	0	0	-0.327798	0.878553	-0.506772	0.564692	-0.498479	0.34279	-0.400319	0.505184	-0.256836	0.564111	-0.107347	0.735511	-0.0788565	0.842693	-0.200449	0.524137	0.0698633	0.692797	-0.19487	0.31599	-0.0511923	0.234671	
0.688392	1.17035	5	0	0	0	-0.104476	0.461281	0	0	0.0336675	0.811314	0	0	-0.327798	0.878553	-0.507939	0.555845	-0.496248	0.345304	-0.407777	0.501226	-0.252109	0.550752	-0.101607	0.734339	-0.084793	0.832882	-0.205238	0.525219	0.0669695	0.690514	-0.19487	0.31599	-0.0501165	0.231631	
0.715852	1.16577	5	0	0	0	-0.0961468	0.450724	0	0	0.0409718	0.822411	0	0	-0.327798	0.878553	-0.509107	0.546998	-0.494016	0.347818	-0.415235	0.497269	-0.247382	0.537392	-0.0958665	0.733166	-0.0907295	0.82307	-0.210028	0.526301	0.0640758	0.688231	-0.19487	0.31599	-0.0490408	0.22859	
0.757823	1.1673	5	0	0	0	-0.087817	0.440167	0	0	0.048276	0.833508	0	0	-0.327798	0.878553	-0.510274	0.538152	-0.491784	0.350332	-0.422693	0.493311	-0.242655	0.524033	-0.090126	0.731994	-0.096666	0.813259	-0.214818	0.527384	0.061182	0.685948	-0.19487	0.31599	-0.047965	0.22555	
0.808367	1.16577	5	0	0	0	-0.0889035	0.456231	0	0	0.0583765	0.847366	0	0	-0.323789	0.883176	-0.518131	0.536087	-0.485488	0.350192	-0.426418	0.491334	-0.250616	0.524106	-0.090126	0.731994	-0.100261	0.81014	-0.212934	0.52206	0.0631017	0.680522	-0.19487	0.31599	-0.0490408	0.22859	
0.861546	1.1673	5	0	0	0	-0.08999	0.472295	0	0	0.068477	0.861224	0	0	-0.319779	0.887798	-0.525987	0.534023	-0.479191	0.350052	-0.430143	0.489357	-0.258578	0.524178	-0.090126	0.731994	-0.103857	0.80702	-0.211051	0.516736	0.0650215	0.675096	-0.19487	0.31599	-0.0501165	0.231631	
0.911422	1.16577	0	0	0	0	-0.0910765	0.488359	0	0	0.0785775	0.875081	0	0	-0.31577	0.892421	-0.533843	0.531959	-0.472895	0.349913	-0.433868	0.48738	-0.266539	0.52425	-0.090126	0.731994	-0.107452	0.803901	-0.209167	0.511413	0.0669413	0.669671	-0.19487	0.31599	-0.0511923	0.234671	
0.952056	1.16577	0	0	0	0	-0.092163	0.504423	0	0	0.088678	0.888939	0	0	-0.311761	0.897043	-0.5417	0.529894	-0.466599	0.349773	-0.437593	0.485403	-0.2745	0.524323	-0.090126	0.731994	-0.111047	0.800782	-0.207283	0.506089	0.068861	0.664245	-0.19487	0.31599	-0.052268	0.237711	
0.977512	1.16577	0	0	0	0	-0.0957022	0.514425	0	0	0.0862212	0.906498	0	0	-0.31109	0.911112	-0.546176	0.530421	-0.474724	0.355082	-0.439623	0.491141	-0.282451	0.524393	-0.0867565	0.737534	-0.111047	0.800782	-0.209167	0.511413	0.0707955	0.669239	-0.190463	0.321298	-0.0478893	0.237188	
0.981873	1.16577	0	0	0	0	-0.0992415	0.524428	0	0	0.0837645	0.924057	0	0	-0.310418	0.925181	-0.550651	0.530947	-0.48285	0.360391	-0.441654	0.496879	-0.290401	0.524462	-0.083387	0.743075	-0.111047	0.800782	-0.211051	0.516736	0.07273	0.674233	-0.186055	0.326607	-0.0435105	0.236664	
0.963144	1.16272	0	0	0	0	-0.102781	0.53443	0	0	0.0813078	0.941615	0	0	-0.309746	0.93925	-0.555127	0.531474	-0.490976	0.365701	-0.443684	0.502616	-0.298351	0.524531	-0.0800175	0.748615	-0.111047	0.800782	-0.212934	0.52206	0.0746645	0.679226	-0.181648	0.331915	-0.0391317	0.236141	
0.927701	1.16577	0	0	0	0	-0.10632	0.544433	0	0	0.078851	0.959174	0	0	-0.309075	0.953319	-0.559603	0.532001	-0.499101	0.37101	-0.445714	0.508354	-0.306302	0.524601	-0.076648	0.754155	-0.111047	0.800782	-0.214818	0.527384	0.076599	0.68422	-0.177241	0.337223	-0.034753	0.235618	
0.882992	1.16577	0	0	0	0	-0.102697	0.547197	0	0	0.07638	0.976779	0	0	-0.318095	0.962845	-0.559603	0.532001	-0.498186	0.368425	-0.444699	0.505485	-0.310273	0.524635	-0.0754597	0.750797	-0.115897	0.801219	-0.211914	0.53163	0.0746775	0.689651	-0.178498	0.340776	-0.0379835	0.244748	
0.836465	1.16577	0	0	0	0	-0.099075	0.549961	0	0	0.073909	0.994385	0	0	-0.327116	0.972371	-0.559603	0.532001	-0.497271	0.365839	-0.443684	0.502615	-0.314245	0.524668	-0.0742715	0.747439	-0.120748	0.801656	-0.209009	0.535876	0.072756	0.695081	-0.179756	0.344329	-0.041214	0.253878	
0.79557	1.16577	0	0	0	0	-0.0954525	0.552726	0	0	0.071438	1.01199	0	0	-0.336136	0.981896	-0.559603	0.532001	-0.496357	0.363254	-0.442668	0.499746	-0.318216	0.524701	-0.0730833	0.744081	-0.125598	0.802092	-0.206104	0.540122	0.0708345	0.700511	-0.181013	0.347882	-0.0444445	0.263008	
0.767756	1.17187	0	0	0	0	-0.09183	0.55549	0	0	0.068967	1.0296	0	0	-0.345156	0.991422	-0.559603	0.532001	-0.495442	0.360669	-0.441653	0.496877	-0.322187	0.524735	-0.071895	0.740723	-0.130448	0.802529	-0.2032	0.544368	0.068913	0.705942	-0.18227	0.351435	-0.047675	0.272138	
0.758063	1.1673	0	0	0	0	-0.0869448	0.567715	0	0	0.0752177	1.04383	0	0	-0.335472	0.996001	-0.560706	0.53512	-0.492295	0.3606	-0.441653	0.496877	-0.322187	0.524735	-0.06952	0.734011	-0.12434	0.798538	-0.202257	0.541704	0.068913	0.705942	-0.184786	0.358546	-0.047675	0.272138	
0.763576	1.1673	0	0	0	0	-0.0820595	0.57994	0	0	0.0814685	1.05807	0	0	-0.325788	1.00058	-0.56181	0.538239	-0.489148	0.360532	-0.441653	0.496877	-0.322187	0.524735	-0.067145	0.727299	-0.118232	0.794547	-0.201315	0.539039	0.068913	0.705942	-0.187302	0.365656	-0.047675	0.272138	
0.779742	1.1673	0	0	0	0	-0.0771742	0.592165	0	0	0.0877192	1.07231	0	0	-0.316103	1.00516	-0.562913	0.541358	-0.486001	0.360463	-0.441653	0.496877	-0.322187	0.524735	-0.06477	0.720586	-0.112124	0.790555	-0.200372	0.536374	0.068913	0.705942	-0.189818	0.372767	-0.047675	0.272138	
0.802004	1.1734	0	0	0	0	-0.072289	0.60439	0	0	0.09397	1.08654	0	0	-0.306419	1.00974	-0.564017	0.544477	-0.482854	0.360394	-0.441653	0.496877	-0.322187	0.524735	-0.062395	0.713874	-0.106016	0.786564	-0.199429	0.53371	0.068913	0.705942	-0.192334	0.379877	-0.047675	0.272138	
0.825808	1.1734	0	0	0	0	-0.0783558	0.595504	0	0	0.091183	1.08378	0	0	-0.3121	1.00981	-0.566283	0.538767	-0.488232	0.357947	-0.445375	0.494899	-0.324978	0.521439	-0.0657688	0.708345	-0.113202	0.780339	-0.206104	0.54012	0.069874	0.703226	-0.191076	0.376321	-0.0487525	0.275183	
0.846598	1.17187	0	0	0	0	-0.0844225	0.586618	0	0	0.088396	1.08102	0	0	-0.317781	1.00989	-0.568549	0.533057	-0.493611	0.355501	-0.449097	0.492922	-0.327769	0.518142	-0.0691425	0.702816	-0.120387	0.774115	-0.212779	0.54653	0.070835	0.700511	-0.189818	0.372765	-0.04983	0.278228	
0.859828	1.17187	5	0	0	0	-0.0904893	0.577733	0	0	0.085609	1.07825	0	0	-0.323462	1.00996	-0.570815	0.527347	-0.498989	0.353054	-0.452818	0.490944	-0.330559	0.514846	-0.0725163	0.697288	-0.127573	0.767891	-0.219454	0.55294	0.071796	0.697796	-0.188559	0.369209	-0.0509075	0.281274	
0.862657	1.1734	5	0	0	0	-0.096556	0.568847	0	0	0.082822	1.07549	0	0	-0.329143	1.01004	-0.573081	0.521637	-0.504367	0.350608	-0.45654	0.488966	-0.33335	0.51155	-0.07589	0.691759	-0.134759	0.761666	-0.226129	0.55935	0.072757	0.69508	-0.187301	0.365653	-0.051985	0.284319	
0.856055	1.17493	5	0	0	0	-0.0869392	0.5677	0	0	0.0866642	1.07527	0	0	-0.32747	1.00531	-0.571979	0.518522	-0.503858	0.340352	-0.458232	0.481261	-0.330995	0.504895	-0.0780778	0.682891	-0.130995	0.751028	-0.224243	0.554021	0.0698633	0.692797	-0.195477	0.370996	-0.051985	0.284319	
0.841508	1.17493	5	0	0	0	-0.0773225	0.566553	0	0	0.0905065	1.07505	0	0	-0.325797	1.00058	-0.570877	0.515406	-0.503348	0.330097	-0.459925	0.473556	-0.328641	0.49824	-0.0802655	0.674023	-0.127231	0.74039	-0.222358	0.548693	0.0669695	0.690514	-0.203653	0.376338	-0.051985	0.284319	
0.820499	1.1734	5	0	0	0	-0.0677058	0.565407	0	0	0.0943488	1.07483	0	0	-0.324123	0.995849	-0.569774	0.51229	-0.502839	0.319841	-0.461618	0.465851	-0.326286	0.491586	-0.0824532	0.665155	-0.123467	0.729753	-0.220473	0.543365	0.0640758	0.688231	-0.211828	0.38168	-0.051985	0.284319	
0.794515	1.17493	5	0	0	0	-0.058089	0.56426	0	0	0.098191	1.07461	0	0	-0.32245	0.99112	-0.568672	0.509175	-0.50233	0.309585	-0.46331	0.458146	-0.323931	0.484931	-0.084641	0.656287	-0.119703	0.719115	-0.218587	0.538036	0.061182	0.685948	-0.220004	0.387023	-0.051985	0.284319	
0.765039	1.17645	5	0	0	0	-0.0675643	0.591039	0	0	0.0883995	1.08101	0	0	-0.318442	0.995774	-0.575346	0.515931	-0.513071	0.304714	-0.46331	0.458146	-0.315989	0.484857	-0.0880128	0.650777	-0.113599	0.715127	-0.218587	0.538036	0.0631017	0.680522	-0.218747	0.383468	-0.053063	0.287365	
0.734092	1.1734	5	0	0	0	-0.0770395	0.617817	0	0	0.078608	1.08741	0	0	-0.314435	1.00043	-0.582021	0.522688	-0.523812	0.299844	-0.46331	0.458146	-0.308046	0.484784	-0.0913845	0.645267	-0.107495	0.711138	-0.218587	0.538036	0.0650215	0.675096	-0.217489	0.379914	-0.054141	0.290412	
0.70546	1.17187	5	0	0	0	-0.0865148	0.644595	0	0	0.0688165	1.09381	0	0	-0.310427	1.00508	-0.588695	0.529445	-0.534553	0.294973	-0.46331	0.458146	-0.300104	0.48471	-0.0947563	0.639758	-0.101392	0.70715	-0.218587	0.538036	0.0669413	0.669671	-0.216231	0.37636	-0.055219	0.293459	
0.683295	1.17187	5	0	0	0	-0.09599	0.671374	0	0	0.059025	1.10021	0	0	-0.306419	1.00974	-0.595369	0.536201	-0.545294	0.290103	-0.46331	0.458146	-0.292161	0.484636	-0.098128	0.634248	-0.095288	0.703162	-0.218587	0.538036	0.068861	0.664245	-0.214974	0.372805	-0.056297	0.296505	
0.671745	1.17187	5	0	0	0	-0.0888073	0.664104	0	0	0.0517357	1.08894	0	0	-0.303072	1.00028	-0.598733	0.53361	-0.552377	0.274962	-0.465004	0.450453	-0.287454	0.471332	-0.102508	0.616584	-0.0938767	0.685912	-0.213878	0.524729	0.0669075	0.648862	-0.203028	0.356808	-0.0541415	0.290413	
0.674963	1.1734	5	0	0	0	-0.0816245	0.656834	0	0	0.0444465	1.07767	0	0	-0.299725	0.990816	-0.602097	0.531018	-0.55946	0.259821	-0.466697	0.442761	-0.282746	0.458027	-0.106887	0.59892	-0.0924655	0.668662	-0.20917	0.511421	0.064954	0.633479	-0.191082	0.340811	-0.051986	0.284322	
0.696709	1.17035	5	0	0	0	-0.0744418	0.649563	0	0	0.0371573	1.06641	0	0	-0.296377	0.981356	-0.605461	0.528427	-0.566544	0.244681	-0.468391	0.435068	-0.278038	0.444723	-0.111267	0.581257	-0.0910543	0.651412	-0.204461	0.498114	0.0630005	0.618097	-0.179136	0.324813	-0.0498305	0.27823	
0.735263	1.17187	5	0	0	0	-0.067259	0.642293	0	0	0.029868	1.05514	0	0	-0.29303	0.971896	-0.608825	0.525835	-0.573627	0.22954	-0.470085	0.427375	-0.273331	0.431418	-0.115647	0.563593	-0.089643	0.634162	-0.199753	0.484807	0.061047	0.602714	-0.16719	0.308816	-0.047675	0.272138	
0.784861	1.17187	5	0	0	0	-0.0696315	0.648998	0	0	0.0340755	1.04325	0	0	-0.297041	0.967252	-0.605461	0.528427	-0.578982	0.22712	-0.463329	0.420763	-0.27098	0.424773	-0.119016	0.558114	-0.0919915	0.627548	-0.201719	0.477918	0.0562192	0.595477	-0.179768	0.308853	-0.0498992	0.266572	
0.839644	1.1673	5	0	0	0	-0.072004	0.655703	0	0	0.038283	1.03136	0	0	-0.301053	0.962608	-0.602097	0.531018	-0.584337	0.224699	-0.456574	0.41415	-0.268628	0.418129	-0.122386	0.552634	-0.09434	0.620933	-0.203685	0.471029	0.0513915	0.58824	-0.192347	0.30889	-0.0521235	0.261007	
0.893751	1.16577	5	0	0	0	-0.0743765	0.662407	0	0	0.0424905	1.01947	0	0	-0.305064	0.957963	-0.598733	0.53361	-0.589692	0.222278	-0.449819	0.407538	-0.266277	0.411484	-0.125755	0.547154	-0.0966885	0.614318	-0.205652	0.464141	0.0465638	0.581002	-0.204925	0.308928	-0.0543478	0.255441	
0.941325	1.16882	5	0	0	0	-0.076749	0.669112	0	0	0.046698	1.00758	0	0	-0.309075	0.953319	-0.595369	0.536201	-0.595047	0.219858	-0.443063	0.400926	-0.263926	0.404839	-0.129125	0.541675	-0.099037	0.607704	-0.207618	0.457252	0.041736	0.573765	-0.217503	0.308965	-0.056572	0.249875	
0.976505	1.16882	5	0	0	0	-0.0780027	0.659626	0	0	0.0394068	0.996373	0	0	-0.311414	0.943964	-0.598733	0.53361	-0.596362	0.214803	-0.447795	0.401821	-0.263926	0.404839	-0.136024	0.546183	-0.0977878	0.604173	-0.20283	0.456166	0.0398013	0.568802	-0.223156	0.30721	-0.055496	0.246834	
0.993433	1.16424	5	0	0	0	-0.0792565	0.65014	0	0	0.0321155	0.985167	0	0	-0.313754	0.934609	-0.602097	0.531018	-0.597677	0.209748	-0.452527	0.402716	-0.263926	0.404839	-0.142923	0.550692	-0.0965385	0.600642	-0.198041	0.455079	0.0378665	0.563838	-0.228808	0.305454	-0.05442	0.243793	
0.986894	1.16577	5	0	0	0	-0.0805103	0.640654	0	0	0.0248242	0.973962	0	0	-0.316094	0.925254	-0.605461	0.528427	-0.598992	0.204692	-0.45726	0.403611	-0.263926	0.404839	-0.149823	0.5552	-0.0952892	0.597112	-0.193253	0.453993	0.0359317	0.558875	-0.23446	0.303698	-0.053344	0.240752	
0.959245	1.1673	5	0	0	0	-0.081764	0.631168	0	0	0.017533	0.962757	0	0	-0.318433	0.915899	-0.608825	0.525835	-0.600307	0.199637	-0.461992	0.404506	-0.263926	0.404839	-0.156722	0.559708	-0.09404	0.593581	-0.188465	0.452907	0.033997	0.553912	-0.240113	0.301943	-0.052268	0.237711	
0.917763	1.16424	5	0	0	0	-0.0853877	0.628389	0	0	0.010931	0.960238	0	0	-0.320774	0.906563	-0.613347	0.514441	-0.597177	0.199563	-0.46369	0.396832	-0.265553	0.398246	-0.154367	0.553053	-0.101234	0.587435	-0.192313	0.451337	0.033016	0.546258	-0.253904	0.30551	-0.0544935	0.232156	
0.869809	1.16577	5	0	0	0	-0.0890115	0.62561	0	0	0.004329	0.95772	0	0	-0.323115	0.897226	-0.617868	0.503047	-0.594047	0.199489	-0.465388	0.389159	-0.26718	0.391653	-0.152013	0.546399	-0.108427	0.581289	-0.196162	0.449767	0.032035	0.538605	-0.267696	0.309077	-0.056719	0.2266	
0.822742	1.16272	5	0	0	0	-0.0926353	0.622832	0	0	-0.002273	0.955201	0	0	-0.325457	0.887889	-0.62239	0.491653	-0.590917	0.199414	-0.467085	0.381485	-0.268806	0.385061	-0.149658	0.539744	-0.115621	0.575143	-0.200011	0.448198	0.031054	0.530952	-0.281488	0.312644	-0.0589445	0.221045	
0.783923	1.16424	5	0	0	0	-0.096259	0.620053	0	0	-0.008875	0.952682	0	0	-0.327798	0.878553	-0.626912	0.480259	-0.587787	0.19934	-0.468783	0.373812	-0.270433	0.378468	-0.147304	0.533089	-0.122814	0.568997	-0.203859	0.446628	0.030073	0.523298	-0.295279	0.316211	-0.06117	0.215489	
0.760463	1.16272	5	0	0	0	-0.0878235	0.622262	0	0	-0.008875	0.952682	0	0	-0.324468	0.869142	-0.632531	0.471996	-0.582841	0.194137	-0.471491	0.369002	-0.270433	0.378468	-0.147304	0.533089	-0.120321	0.561951	-0.206766	0.442406	0.0290902	0.515656	-0.290273	0.302064	-0.063395	0.209941	
0.753849	1.16424	5	0	0	0	-0.079388	0.624472	0	0	-0.008875	0.952682	0	0	-0.321138	0.859732	-0.63815	0.463734	-0.577895	0.188935	-0.474198	0.364192	-0.270433	0.378468	-0.147304	0.533089	-0.117828	0.554905	-0.209673	0.438183	0.0281075	0.508014	-0.285267	0.287916	-0.06562	0.204393	
0.760001	1.16272	5	0	0	0	-0.0709525	0.626682	0	0	-0.008875	0.952682	0	0	-0.317809	0.850321	-0.643768	0.455471	-0.572949	0.183732	-0.476906	0.359381	-0.270433	0.378468	-0.147304	0.533089	-0.115334	0.547859	-0.21258	0.433961	0.0271247	0.500371	-0.280261	0.273768	-0.067845	0.198844	
0.774599	1.16272	5	0	0	0	-0.062517	0.628891	0	0	-0.008875	0.952682	0	0	-0.314479	0.84091	-0.649387	0.447208	-0.568003	0.178529	-0.479614	0.354571	-0.270433	0.378468	-0.147304	0.533089	-0.112841	0.540813	-0.215487	0.429738	0.026142	0.492729	-0.275255	0.259621	-0.07007	0.193296	
0.793327	1.16424	5	0	0	0	-0.056596	0.612158	0	0	-0.00746425	0.938115	0	0	-0.315166	0.826913	-0.65281	0.432771	-0.571962	0.163403	-0.480305	0.344071	-0.276032	0.371932	-0.147144	0.517659	-0.117542	0.52766	-0.217455	0.42287	0.021318	0.485539	-0.287772	0.259654	-0.0679232	0.187229	
0.811866	1.16119	5	0	0	0	-0.050675	0.595425	0	0	-0.0060535	0.923548	0	0	-0.315854	0.812915	-0.656234	0.418335	-0.57592	0.148276	-0.480997	0.333571	-0.281631	0.365397	-0.146984	0.502229	-0.122243	0.514506	-0.219423	0.416002	0.016494	0.478349	-0.30029	0.259687	-0.0657765	0.181162	
0.825898	1.16119	5	0	0	0	-0.044754	0.578691	0	0	-0.00464275	0.908981	0	0	-0.316541	0.798917	-0.659657	0.403898	-0.579879	0.13315	-0.481688	0.323071	-0.28723	0.358861	-0.146825	0.4868	-0.126943	0.501353	-0.22139	0.409133	0.01167	0.47116	-0.312808	0.25972	-0.0636297	0.175095	
0.83187	1.16272	5	0	0	0	-0.038833	0.561958	0	0	-0.003232	0.894414	0	0	-0.317228	0.78492	-0.66308	0.389462	-0.583837	0.118023	-0.48238	0.312571	-0.292829	0.352326	-0.146665	0.47137	-0.131644	0.4882	-0.223358	0.402265	0.006846	0.46397	-0.325325	0.259753	-0.061483	0.169028	
0.830522	1.15967	5	0	0	0	-0.035199	0.564726	0	0	-0.007053	0.894639	0	0	-0.321239	0.780329	-0.670879	0.387425	-0.593632	0.110678	-0.485088	0.307777	-0.288144	0.339086	-0.150032	0.465921	-0.124319	0.480714	-0.220546	0.394319	0.0135385	0.455465	-0.314698	0.247384	-0.0647825	0.166523	
0.824089	1.15814	5	0	0	0	-0.031565	0.567495	0	0	-0.010874	0.894864	0	0	-0.325249	0.775737	-0.678679	0.385388	-0.603427	0.103332	-0.487795	0.302984	-0.283459	0.325846	-0.153399	0.460471	-0.116995	0.473227	-0.217734	0.386372	0.020231	0.44696	-0.304072	0.235015	-0.068082	0.164018	
0.814809	1.16272	5	0	0	0	-0.027931	0.570264	0	0	-0.014695	0.895089	0	0	-0.32926	0.771146	-0.686478	0.383351	-0.613222	0.0959872	-0.490503	0.298191	-0.278775	0.312605	-0.156767	0.455022	-0.10967	0.465741	-0.214923	0.378425	0.0269235	0.438455	-0.293445	0.222646	-0.0713815	0.161512	
0.804919	1.16119	5	0	0	0	-0.024297	0.573032	0	0	-0.018516	0.895314	0	0	-0.333271	0.766555	-0.694278	0.381314	-0.623017	0.088642	-0.493211	0.293397	-0.27409	0.299365	-0.160134	0.449572	-0.102345	0.458254	-0.212111	0.370479	0.033616	0.42995	-0.282819	0.210277	-0.074681	0.159007	
0.796657	1.15661	5	0	0	0	-0.0314823	0.5803	0	0	-0.0223348	0.895539	0	0	-0.33493	0.771244	-0.694278	0.381314	-0.632794	0.081313	-0.494217	0.296242	-0.27409	0.299365	-0.162481	0.456205	-0.106075	0.468796	-0.207327	0.369389	0.031714	0.435325	-0.282819	0.210277	-0.0736088	0.155977	
0.792171	1.16119	5	0	0	0	-0.0386675	0.587568	0	0	-0.0261535	0.895763	0	0	-0.336589	0.775934	-0.694278	0.381314	-0.642572	0.073984	-0.495224	0.299086	-0.27409	0.299365	-0.164828	0.462837	-0.109805	0.479337	-0.202543	0.368299	0.029812	0.4407	-0.282819	0.210277	-0.0725365	0.152947	
0.791871	1.16272	5	0	0	0	-0.0458527	0.594835	0	0	-0.0299723	0.895988	0	0	-0.338249	0.780623	-0.694278	0.381314	-0.652349	0.066655	-0.496231	0.30193	-0.27409	0.299365	-0.167175	0.46947	-0.113535	0.489879	-0.19776	0.367209	0.02791	0.446075	-0.282819	0.210277	-0.0714642	0.149917	
0.794589	1.15814	5	0	0	0	-0.053038	0.602103	0	0	-0.033791	0.896212	0	0	-0.339908	0.785312	-0.694278	0.381314	-0.662126	0.059326	-0.497237	0.304775	-0.27409	0.299365	-0.169522	0.476102	-0.117265	0.500421	-0.192976	0.366119	0.026008	0.45145	-0.282819	0.210277	-0.070392	0.146887	
0.799095	1.15967	5	0	0	0	-0.0554837	0.595985	0	0	-0.0289273	0.893034	0	0	-0.334238	0.785214	-0.693184	0.378223	-0.667873	0.0493907	-0.499943	0.299984	-0.275722	0.292807	-0.16483	0.462842	-0.108692	0.489415	-0.19495	0.35927	0.0336535	0.440257	-0.280324	0.203226	-0.07369	0.144386	
0.80416	1.15967	5	0	0	0	-0.0579295	0.589867	0	0	-0.0240635	0.889856	0	0	-0.328568	0.785116	-0.692091	0.375133	-0.67362	0.0394555	-0.502649	0.295194	-0.277354	0.286249	-0.160138	0.449582	-0.100118	0.478409	-0.196925	0.35242	0.041299	0.429064	-0.277829	0.196175	-0.076988	0.141884	
0.808558	1.15967	5	0	0	0	-0.0603753	0.58375	0	0	-0.0191998	0.886678	0	0	-0.322898	0.785018	-0.690997	0.372042	-0.679368	0.0295202	-0.505355	0.290404	-0.278985	0.27969	-0.155446	0.436322	-0.0915452	0.467403	-0.1989	0.345571	0.0489445	0.41787	-0.275334	0.189123	-0.080286	0.139383	
0.811058	1.16272	5	0	0	0	-0.062821	0.577632	0	0	-0.014336	0.8835	0	0	-0.317228	0.78492	-0.689904	0.368952	-0.685115	0.019585	-0.508061	0.285613	-0.280617	0.273132	-0.150754	0.423062	-0.082972	0.456397	-0.200874	0.338721	0.05659	0.406677	-0.272839	0.182072	-0.083584	0.136882	
0.810802	1.15967	5	0	0	0	-0.0603753	0.58375	0	0	-0.0126057	0.889184	0	0	-0.311553	0.78482	-0.694347	0.36948	-0.693551	0.0172868	-0.507055	0.282771	-0.283417	0.269884	-0.149582	0.41975	-0.081729	0.452885	-0.193282	0.329694	0.05659	0.406677	-0.271592	0.178548	-0.0814425	0.130829	
0.808201	1.16119	5	0	0	0	-0.0579295	0.589867	0	0	-0.0108755	0.894868	0	0	-0.305878	0.784721	-0.698789	0.370007	-0.701988	0.0149885	-0.50605	0.279929	-0.286218	0.266636	-0.148411	0.416438	-0.080486	0.449372	-0.18569	0.320666	0.05659	0.406677	-0.270345	0.175024	-0.079301	0.124776	
0.803944	1.15814	0	0	0	0	-0.0554837	0.595985	0	0	-0.00914525	0.900552	0	0	-0.300202	0.784622	-0.703232	0.370534	-0.710425	0.0126903	-0.505045	0.277088	-0.289019	0.263387	-0.147239	0.413126	-0.079243	0.445859	-0.178097	0.311639	0.05659	0.406677	-0.269098	0.171501	-0.0771595	0.118724	
0.798719	1.16119	0	0	0	0	-0.053038	0.602103	0	0	-0.007415	0.906236	0	0	-0.294527	0.784522	-0.707675	0.371062	-0.718861	0.010392	-0.504039	0.274246	-0.291819	0.260139	-0.146067	0.409814	-0.078	0.442347	-0.170505	0.302612	0.05659	0.406677	-0.267851	0.167977	-0.075018	0.112671	
0.793215	1.15967	0	0	0	0	-0.0471215	0.585382	0	0	-0.0112357	0.90646	0	0	-0.296189	0.789219	-0.711022	0.368501	-0.727285	0.00809425	-0.502029	0.268565	-0.29975	0.260247	-0.15295	0.414311	-0.079243	0.445859	-0.169461	0.3121	0.0585335	0.411605	-0.267851	0.167977	-0.0771595	0.118724	
0.78812	1.15967	0	0	0	0	-0.041205	0.568662	0	0	-0.0150565	0.906685	0	0	-0.297851	0.793915	-0.714369	0.36594	-0.735708	0.0057965	-0.500019	0.262884	-0.307681	0.260355	-0.159832	0.418809	-0.080486	0.449372	-0.168417	0.321588	0.060477	0.416532	-0.267851	0.167977	-0.079301	0.124776	
0.784063	1.15967	0	0	0	0	-0.0352885	0.551941	0	0	-0.0188772	0.906909	0	0	-0.299512	0.798612	-0.717716	0.363379	-0.744132	0.00349875	-0.498008	0.257203	-0.315611	0.260462	-0.166715	0.423307	-0.081729	0.452885	-0.167374	0.331076	0.0624205	0.421459	-0.267851	0.167977	-0.0814425	0.130829	
0.781152	1.15814	0	0	0	0	-0.029372	0.53522	0	0	-0.022698	0.907133	0	0	-0.301174	0.803308	-0.721063	0.360818	-0.752556	0.001201	-0.495998	0.251522	-0.323542	0.26057	-0.173598	0.427804	-0.082972	0.456397	-0.16633	0.340564	0.064364	0.426387	-0.267851	0.167977	-0.083584	0.136882	
0.779232	1.15814	0	0	0	0	-0.0281903	0.53188	0	0	-0.014008	0.903727	0	0	-0.301174	0.803308	-0.714438	0.354117	-0.752074	-0.00885375	-0.489269	0.244942	-0.326337	0.257325	-0.163202	0.413378	-0.082972	0.456397	-0.158728	0.331527	0.064364	0.426387	-0.267851	0.167977	-0.082513	0.133855	
0.778142	1.16119	0	0	0	0	-0.0270085	0.528539	0	0	-0.005318	0.900321	0	0	-0.301174	0.803308	-0.707814	0.347415	-0.751592	-0.0189085	-0.48254	0.238363	-0.329132	0.254081	-0.152806	0.398953	-0.082972	0.456397	-0.151127	0.322491	0.064364	0.426387	-0.267851	0.167977	-0.081442	0.130829	
0.777725	1.15661	0	0	0	0	-0.0258267	0.525199	0	0	0.003372	0.896915	0	0	-0.301174	0.803308	-0.70119	0.340714	-0.751111	-0.0289632	-0.475811	0.231783	-0.331926	0.250836	-0.14241	0.384527	-0.082972	0.456397	-0.143526	0.313454	0.064364	0.426387	-0.267851	0.167977	-0.080371	0.127802	
0.777822	1.15356	0	0	0	0	-0.024645	0.521858	0	0	0.012062	0.893509	0	0	-0.301174	0.803308	-0.694565	0.334012	-0.750629	-0.039018	-0.469082	0.225203	-0.334721	0.247591	-0.132014	0.370101	-0.082972	0.456397	-0.135924	0.304417	0.064364	0.426387	-0.267851	0.167977	-0.0793	0.124775	
0.77827	1.15204	0	0	0	0	-0.0305592	0.538573	0	0	0.00996925	0.899423	0	0	-0.298822	0.812615	-0.69675	0.340186	-0.758626	-0.0337927	-0.465363	0.227139	-0.333094	0.254135	-0.133185	0.373409	-0.0793685	0.459446	-0.131128	0.303318	0.0634125	0.429076	-0.269098	0.171501	-0.0760012	0.127274	
0.778862	1.15814	0	0	0	0	-0.0364735	0.555287	0	0	0.0078765	0.905338	0	0	-0.29647	0.821921	-0.698934	0.34636	-0.766622	-0.0285675	-0.461644	0.229075	-0.331467	0.26068	-0.134356	0.376718	-0.075765	0.462496	-0.126332	0.302219	0.062461	0.431764	-0.270345	0.175024	-0.0727025	0.129773	
0.779344	1.15509	0	0	0	0	-0.0423878	0.572002	0	0	0.00578375	0.911253	0	0	-0.294119	0.831228	-0.701118	0.352534	-0.774619	-0.0233423	-0.457925	0.231012	-0.32984	0.267224	-0.135526	0.380026	-0.0721615	0.465546	-0.121537	0.30112	0.0615095	0.434453	-0.271592	0.178548	-0.0694038	0.132273	
0.779459	1.15509	0	0	0	0	-0.048302	0.588716	0	0	0.003691	0.917167	0	0	-0.291767	0.840535	-0.703303	0.358708	-0.782616	-0.018117	-0.454206	0.232948	-0.328213	0.273768	-0.136697	0.383334	-0.068558	0.468595	-0.116741	0.300021	0.060558	0.437142	-0.272839	0.182072	-0.066105	0.134772	
0.778954	1.15661	0	0	0	0	-0.0411173	0.581449	0	0	-0.00013175	0.917391	0	0	-0.295782	0.835927	-0.703303	0.358708	-0.773307	-0.0183573	-0.454206	0.232948	-0.323081	0.270415	-0.137868	0.386643	-0.0660707	0.461566	-0.119552	0.307965	0.0625007	0.442078	-0.265949	0.18028	-0.0671767	0.137801	
0.777571	1.15204	0	0	0	0	-0.0339325	0.574183	0	0	-0.0039545	0.917615	0	0	-0.299796	0.831319	-0.703303	0.358708	-0.763999	-0.0185975	-0.454206	0.232948	-0.317949	0.267062	-0.139039	0.389953	-0.0635835	0.454537	-0.122363	0.315909	0.0644435	0.447013	-0.259059	0.178488	-0.0682485	0.140829	
0.77506	1.15204	5	0	0	0	-0.0267478	0.566917	0	0	-0.00777725	0.917839	0	0	-0.30381	0.826712	-0.703303	0.358708	-0.75469	-0.0188378	-0.454206	0.232948	-0.312818	0.263709	-0.14021	0.393262	-0.0610962	0.447507	-0.125174	0.323854	0.0663863	0.451949	-0.252169	0.176696	-0.0693202	0.143858	
0.771356	1.15051	5	0	0	0	-0.019563	0.55965	0	0	-0.0116	0.918063	0	0	-0.307825	0.822104	-0.703303	0.358708	-0.745381	-0.019078	-0.454206	0.232948	-0.307686	0.260356	-0.141381	0.396571	-0.058609	0.440478	-0.127985	0.331798	0.068329	0.456885	-0.245279	0.174904	-0.070392	0.146887	
0.766704	1.15204	5	0	0	0	-0.0171103	0.565766	0	0	-0.0056845	0.911925	0	0	-0.306162	0.817405	-0.703303	0.358708	-0.739167	-0.0192408	-0.449479	0.232043	-0.298581	0.256944	-0.129942	0.394188	-0.0537575	0.440009	-0.121312	0.325401	0.0769815	0.453301	-0.228982	0.164255	-0.0725365	0.152948	
0.761373	1.15204	5	0	0	0	-0.0146575	0.571882	0	0	0.000231	0.905786	0	0	-0.3045	0.812706	-0.703303	0.358708	-0.732953	-0.0194035	-0.444752	0.231139	-0.289477	0.253533	-0.118504	0.391806	-0.048906	0.439541	-0.114638	0.319004	0.085634	0.449716	-0.212684	0.153606	-0.074681	0.159008	
0.755633	1.15356	5	0	0	0	-0.0122048	0.577998	0	0	0.0061465	0.899647	0	0	-0.302837	0.808007	-0.703303	0.358708	-0.726739	-0.0195663	-0.440026	0.230235	-0.280373	0.250121	-0.107065	0.389423	-0.0440545	0.439072	-0.107965	0.312607	0.0942865	0.446132	-0.196387	0.142956	-0.0768255	0.165069	
0.749755	1.15051	5	0	0	0	-0.009752	0.584114	0	0	0.012062	0.893509	0	0	-0.301174	0.803308	-0.703303	0.358708	-0.720525	-0.019729	-0.435299	0.22933	-0.271268	0.24671	-0.095626	0.38704	-0.039203	0.438603	-0.101292	0.30621	0.102939	0.442548	-0.18009	0.132307	-0.07897	0.17113	
0.744011	1.14899	5	0	0	0	-0.0169422	0.591387	0	0	0.0065075	0.888054	0	0	-0.295494	0.803209	-0.69886	0.358179	-0.720943	-0.027249	-0.425835	0.227516	-0.270803	0.256567	-0.097971	0.393668	-0.0368368	0.445168	-0.0983648	0.310408	0.102939	0.442548	-0.173177	0.130501	-0.076745	0.176672	
0.738753	1.15051	5	0	0	0	-0.0241325	0.598661	0	0	0.000953	0.882599	0	0	-0.289814	0.803111	-0.694417	0.35765	-0.721361	-0.034769	-0.41637	0.225702	-0.270339	0.266423	-0.100316	0.400295	-0.0344705	0.451732	-0.0954375	0.314607	0.102939	0.442548	-0.166264	0.128696	-0.07452	0.182213	
0.734454	1.14899	5	0	0	0	-0.0313227	0.605934	0	0	-0.0046015	0.877144	0	0	-0.284135	0.803012	-0.689974	0.357122	-0.721779	-0.042289	-0.406905	0.223888	-0.269874	0.27628	-0.102661	0.406922	-0.0321043	0.458297	-0.0925102	0.318806	0.102939	0.442548	-0.159352	0.12689	-0.072295	0.187754	
0.731596	1.14746	5	0	0	0	-0.038513	0.613207	0	0	-0.010156	0.871689	0	0	-0.278455	0.802913	-0.685531	0.356593	-0.722197	-0.049809	-0.397441	0.222074	-0.269409	0.286137	-0.105006	0.41355	-0.029738	0.464862	-0.089583	0.323004	0.102939	0.442548	-0.152439	0.125084	-0.07007	0.193296	
0.730659	1.15051	5	0	0	0	-0.0361433	0.60651	0	0	-0.009801	0.860118	0	0	-0.282473	0.798315	-0.682178	0.359154	-0.729723	-0.0546205	-0.397441	0.222074	-0.257948	0.276107	-0.102661	0.406922	-0.0199015	0.450324	-0.089583	0.323004	0.0990875	0.442995	-0.1606	0.130416	-0.065696	0.192771	
0.732127	1.14746	5	0	0	0	-0.0337735	0.599812	0	0	-0.009446	0.848547	0	0	-0.286491	0.793718	-0.678826	0.361714	-0.737248	-0.059432	-0.397441	0.222074	-0.246487	0.266076	-0.100316	0.400295	-0.010065	0.435785	-0.089583	0.323004	0.095236	0.443442	-0.16876	0.135748	-0.061322	0.192246	
0.736454	1.14746	5	0	0	0	-0.0314038	0.593115	0	0	-0.009091	0.836976	0	0	-0.290509	0.78912	-0.675473	0.364275	-0.744774	-0.0642435	-0.397441	0.222074	-0.235027	0.256046	-0.097971	0.393668	-0.0002285	0.421247	-0.089583	0.323004	0.0913845	0.443889	-0.17692	0.141081	-0.056948	0.191721	
0.743438	1.14899	5	0	0	0	-0.029034	0.586418	0	0	-0.008736	0.825405	0	0	-0.294527	0.784522	-0.67212	0.366836	-0.7523	-0.069055	-0.397441	0.222074	-0.223566	0.246016	-0.095626	0.38704	0.009608	0.406709	-0.089583	0.323004	0.087533	0.444336	-0.185081	0.146413	-0.052574	0.191196	
0.752179	1.14441	5	0	0	0	-0.0205745	0.588615	0	0	-0.0125545	0.825634	0	0	-0.283863	0.770338	-0.665408	0.371963	-0.751405	-0.071584	-0.394717	0.226855	-0.220756	0.249264	-0.095626	0.38704	0.009608	0.406709	-0.0829015	0.316601	0.094241	0.435816	-0.17692	0.141081	-0.0471225	0.187634	
0.761747	1.14441	5	0	0	0	-0.012115	0.590812	0	0	-0.016373	0.825864	0	0	-0.273199	0.756155	-0.658697	0.37709	-0.75051	-0.074113	-0.391993	0.231635	-0.217946	0.252511	-0.095626	0.38704	0.009608	0.406709	-0.07622	0.310197	0.100949	0.427295	-0.16876	0.135748	-0.041671	0.184072	
0.771208	1.14593	5	0	0	0	-0.0036555	0.593009	0	0	-0.0201915	0.826093	0	0	-0.262536	0.741971	-0.651985	0.382218	-0.749615	-0.076642	-0.389269	0.236416	-0.215135	0.255758	-0.095626	0.38704	0.009608	0.406709	-0.0695385	0.303793	0.107657	0.418774	-0.1606	0.130416	-0.0362195	0.18051	
0.779633	1.14593	5	0	0	0	0.004804	0.595206	0	0	-0.02401	0.826322	0	0	-0.251872	0.727787	-0.645273	0.387345	-0.74872	-0.079171	-0.386545	0.241197	-0.212325	0.259006	-0.095626	0.38704	0.009608	0.406709	-0.062857	0.29739	0.114365	0.410254	-0.152439	0.125084	-0.030768	0.176948	
0.786091	1.14441	5	0	0	0	-2E-05	0.595782	0	0	-0.0198425	0.814544	0	0	-0.250213	0.723098	-0.645204	0.399209	-0.748302	-0.0716645	-0.381094	0.250775	-0.210685	0.265567	-0.0991443	0.396983	0.0107375	0.416787	-0.06661	0.307997	0.111508	0.418328	-0.146768	0.126804	-0.032917	0.183021	
0.790077	1.14593	5	0	0	0	-0.004844	0.596359	0	0	-0.015675	0.802766	0	0	-0.248553	0.718409	-0.645135	0.411073	-0.747883	-0.064158	-0.375642	0.260354	-0.209045	0.272128	-0.102663	0.406926	0.011867	0.426866	-0.070363	0.318603	0.108652	0.426401	-0.141097	0.128524	-0.035066	0.189094	
0.792035	1.14593	5	0	0	0	-0.009668	0.596935	0	0	-0.0115075	0.790989	0	0	-0.246894	0.71372	-0.645066	0.422938	-0.747464	-0.0566515	-0.370191	0.269932	-0.207404	0.27869	-0.106181	0.416869	0.0129965	0.436945	-0.074116	0.329209	0.105796	0.434474	-0.135426	0.130243	-0.037215	0.195168	
0.792535	1.14288	5	0	0	0	-0.014492	0.597511	0	0	-0.00734	0.779211	0	0	-0.245235	0.709031	-0.644997	0.434802	-0.747046	-0.049145	-0.36474	0.27951	-0.205764	0.285251	-0.109699	0.426812	0.014126	0.447023	-0.077869	0.339816	0.102939	0.442548	-0.129755	0.131963	-0.039364	0.201241	
0.79215	1.14593	5	0	0	0	-0.0193122	0.598086	0	0	-0.00907625	0.773562	0	0	-0.249262	0.704458	-0.636081	0.433746	-0.739938	-0.0518435	-0.353226	0.271986	-0.205764	0.285251	-0.109699	0.426812	0.0105083	0.443976	-0.0721215	0.33606	0.103891	0.439856	-0.136674	0.133771	-0.0284505	0.19411	
0.791451	1.14441	5	0	0	0	-0.0241325	0.598661	0	0	-0.0108125	0.767913	0	0	-0.253289	0.699885	-0.627165	0.432689	-0.73283	-0.054542	-0.341712	0.264462	-0.205764	0.285251	-0.109699	0.426812	0.0068905	0.44093	-0.066374	0.332305	0.104844	0.437164	-0.143593	0.135579	-0.017537	0.186978	
0.791009	1.14593	5	0	0	0	-0.0289527	0.599235	0	0	-0.0125488	0.762265	0	0	-0.257315	0.695311	-0.618249	0.431633	-0.725721	-0.0572405	-0.330197	0.256939	-0.205764	0.285251	-0.109699	0.426812	0.00327275	0.437883	-0.0606265	0.328549	0.105797	0.434472	-0.150513	0.137387	-0.0066235	0.179847	
0.791257	1.14288	5	0	0	0	-0.033773	0.59981	0	0	-0.014285	0.756616	0	0	-0.261342	0.690738	-0.609333	0.430576	-0.718613	-0.059939	-0.318683	0.249415	-0.205764	0.285251	-0.109699	0.426812	-0.000345	0.434837	-0.054879	0.324793	0.106749	0.43178	-0.157432	0.139195	0.00429	0.172716	
0.791816	1.14593	5	0	0	0	-0.0241287	0.598659	0	0	-0.014285	0.756616	0	0	-0.259686	0.686056	-0.603772	0.426942	-0.720824	-0.062386	-0.319692	0.252267	-0.200607	0.281882	-0.108526	0.423496	0.00700725	0.427329	-0.0578112	0.320593	0.105752	0.424159	-0.157432	0.139195	0.00867675	0.172185	
0.79201	1.14593	5	0	0	0	-0.0144845	0.597508	0	0	-0.014285	0.756616	0	0	-0.258029	0.681374	-0.59821	0.423308	-0.723036	-0.064833	-0.320701	0.255119	-0.195451	0.278512	-0.107353	0.420181	0.0143595	0.419821	-0.0607435	0.316392	0.104756	0.416539	-0.157432	0.139195	0.0130635	0.171654	
0.79116	1.14441	5	0	0	0	-0.00484025	0.596357	0	0	-0.014285	0.756616	0	0	-0.256373	0.676692	-0.592649	0.419675	-0.725247	-0.06728	-0.32171	0.257971	-0.190295	0.275143	-0.106179	0.416865	0.0217117	0.412314	-0.0636758	0.312192	0.103759	0.408918	-0.157432	0.139195	0.0174503	0.171124	
0.788591	1.14441	5	0	0	0	0.004804	0.595206	0	0	-0.014285	0.756616	0	0	-0.254716	0.67201	-0.587088	0.416041	-0.727459	-0.069727	-0.322719	0.260823	-0.185138	0.271774	-0.105006	0.41355	0.029064	0.404806	-0.066608	0.307992	0.102762	0.401297	-0.157432	0.139195	0.021837	0.170593	
0.783626	1.14746	5	0	0	0	-0.00484025	0.596357	0	0	-0.011166	0.747802	0	0	-0.25306	0.667331	-0.596012	0.417102	-0.726986	-0.0797568	-0.322719	0.260823	-0.182323	0.275028	-0.107353	0.420183	0.0314417	0.411366	-0.062737	0.309539	0.106615	0.400847	-0.157432	0.139195	0.0262273	0.170061	
