0.771	1.12457	0	0	0	0	-0.097963	-0.274052	0	0	-0.132429	-0.404086	0	0	-0.432254	-0.333958	0.147195	-0.011155	-0.778708	-0.281407	-0.162984	-0.373637	-0.198946	-0.066633	-0.253607	-0.271732	-0.186405	-0.365708	-0.263985	-0.330629	-0.464248	-0.472649	-0.508445	-0.256286	-0.448345	-0.128905	
0.72678	1.1261	0	0	0	0	-0.0976622	-0.260966	0	0	-0.123903	-0.396334	0	0	-0.433993	-0.329044	0.145542	-0.0197452	-0.775273	-0.281532	-0.167116	-0.375421	-0.197665	-0.0702523	-0.243968	-0.267775	-0.178912	-0.373316	-0.264892	-0.328068	-0.454995	-0.476518	-0.51096	-0.249179	-0.453363	-0.128302	
0.697364	1.12915	0	0	0	0	-0.0973615	-0.24788	0	0	-0.115377	-0.388582	0	0	-0.435732	-0.324131	0.14389	-0.0283355	-0.771837	-0.281658	-0.171248	-0.377206	-0.196385	-0.0738715	-0.234328	-0.263819	-0.171418	-0.380923	-0.265798	-0.325506	-0.445743	-0.480387	-0.513475	-0.242071	-0.458382	-0.127698	
0.680775	1.12152	0	0	0	0	-0.0970608	-0.234794	0	0	-0.106851	-0.38083	0	0	-0.43747	-0.319217	0.142237	-0.0369258	-0.768401	-0.281783	-0.175381	-0.378991	-0.195105	-0.0774907	-0.224689	-0.259862	-0.163924	-0.388531	-0.266705	-0.322944	-0.436491	-0.484257	-0.51599	-0.234963	-0.4634	-0.127095	
0.675034	1.11847	0	0	0	0	-0.09676	-0.221708	0	0	-0.098325	-0.373078	0	0	-0.439209	-0.314304	0.140584	-0.045516	-0.764966	-0.281908	-0.179513	-0.380775	-0.193824	-0.08111	-0.21505	-0.255906	-0.156431	-0.396139	-0.267611	-0.320383	-0.427238	-0.488126	-0.518505	-0.227856	-0.468419	-0.126492	
0.678165	1.12305	0	0	0	0	-0.0930905	-0.232078	0	0	-0.100372	-0.367294	0	0	-0.43747	-0.319217	0.127312	-0.06096	-0.764458	-0.273756	-0.180551	-0.391295	-0.201415	-0.0844905	-0.211406	-0.250586	-0.166424	-0.395028	-0.260671	-0.315063	-0.426117	-0.480146	-0.513938	-0.222635	-0.462169	-0.130576	
0.688189	1.11847	0	0	0	0	-0.089421	-0.242449	0	0	-0.102418	-0.36151	0	0	-0.435732	-0.324131	0.114041	-0.076404	-0.76395	-0.265604	-0.181588	-0.401816	-0.209006	-0.087871	-0.207762	-0.245266	-0.176417	-0.393918	-0.25373	-0.309743	-0.424995	-0.472166	-0.509371	-0.217415	-0.455919	-0.134661	
0.703129	1.11389	0	0	0	0	-0.0857515	-0.252819	0	0	-0.104465	-0.355726	0	0	-0.433993	-0.329044	0.100769	-0.091848	-0.763441	-0.257452	-0.182625	-0.412336	-0.216597	-0.0912515	-0.204118	-0.239945	-0.18641	-0.392807	-0.24679	-0.304424	-0.423874	-0.464186	-0.504804	-0.212195	-0.449668	-0.138745	
0.721007	1.11694	0	0	0	0	-0.082082	-0.263189	0	0	-0.106512	-0.349942	0	0	-0.432254	-0.333958	0.087498	-0.107292	-0.762933	-0.2493	-0.183663	-0.422857	-0.224188	-0.094632	-0.200474	-0.234625	-0.196403	-0.391696	-0.23985	-0.299104	-0.422752	-0.456206	-0.500237	-0.206974	-0.443418	-0.142829	
0.739847	1.11847	0	0	0	0	-0.082082	-0.263189	0	0	-0.0997985	-0.347653	0	0	-0.424465	-0.339048	0.0819793	-0.118115	-0.7541	-0.255072	-0.192945	-0.423503	-0.226063	-0.101737	-0.196828	-0.229297	-0.195157	-0.395218	-0.23985	-0.299104	-0.413483	-0.460083	-0.486047	-0.210771	-0.448437	-0.142225	
0.757669	1.11542	0	0	0	0	-0.082082	-0.263189	0	0	-0.093085	-0.345364	0	0	-0.416675	-0.344138	0.0764605	-0.128938	-0.745267	-0.260844	-0.202226	-0.424148	-0.227938	-0.108843	-0.193182	-0.223969	-0.19391	-0.39874	-0.23985	-0.299104	-0.404214	-0.463959	-0.471856	-0.214568	-0.453456	-0.14162	
0.772496	1.11389	0	0	0	0	-0.082082	-0.263189	0	0	-0.0863715	-0.343076	0	0	-0.408886	-0.349228	0.0709417	-0.139761	-0.736434	-0.266615	-0.211508	-0.424793	-0.229814	-0.115948	-0.189535	-0.218642	-0.192664	-0.402262	-0.23985	-0.299104	-0.394944	-0.467836	-0.457666	-0.218366	-0.458475	-0.141016	
0.782365	1.11694	0	0	0	0	-0.082082	-0.263189	0	0	-0.079658	-0.340787	0	0	-0.401096	-0.354318	0.065423	-0.150584	-0.727601	-0.272387	-0.22079	-0.425439	-0.231689	-0.123054	-0.185889	-0.213314	-0.191418	-0.405784	-0.23985	-0.299104	-0.385675	-0.471713	-0.443475	-0.222163	-0.463494	-0.140411	
0.786269	1.11847	0	0	0	0	-0.0882	-0.245899	0	0	-0.0827335	-0.332095	0	0	-0.408056	-0.334647	0.063211	-0.144332	-0.76779	-0.273662	-0.218733	-0.431253	-0.237394	-0.119326	-0.193084	-0.208613	-0.18767	-0.402816	-0.240758	-0.296538	-0.382542	-0.469398	-0.43763	-0.220503	-0.450989	-0.148582	
0.784818	1.10626	0	0	0	0	-0.094318	-0.228608	0	0	-0.085809	-0.323404	0	0	-0.415017	-0.314976	0.060999	-0.13808	-0.807979	-0.274937	-0.216675	-0.437067	-0.2431	-0.115598	-0.200278	-0.203912	-0.183922	-0.399849	-0.241666	-0.293972	-0.379408	-0.467083	-0.431784	-0.218843	-0.438484	-0.156753	
0.77877	1.11389	0	0	0	0	-0.100436	-0.211317	0	0	-0.0888845	-0.314712	0	0	-0.421977	-0.295305	0.058787	-0.131829	-0.848168	-0.276211	-0.214618	-0.442882	-0.248805	-0.11187	-0.207473	-0.199211	-0.180173	-0.396881	-0.242573	-0.291406	-0.376275	-0.464769	-0.425938	-0.217184	-0.425978	-0.164925	
0.768887	1.11694	0	0	0	0	-0.106554	-0.194027	0	0	-0.09196	-0.30602	0	0	-0.428937	-0.275634	0.056575	-0.125577	-0.888357	-0.277486	-0.212561	-0.448696	-0.25451	-0.108142	-0.214668	-0.19451	-0.176425	-0.393914	-0.243481	-0.28884	-0.373142	-0.462454	-0.420093	-0.215524	-0.413473	-0.173096	
0.755929	1.11999	0	0	0	0	-0.104105	-0.200947	0	0	-0.09196	-0.30602	0	0	-0.416822	-0.275976	0.0554685	-0.122449	-0.88544	-0.285731	-0.213589	-0.445789	-0.250082	-0.10826	-0.220591	-0.17777	-0.173923	-0.387416	-0.241372	-0.282322	-0.362725	-0.458343	-0.414241	-0.213864	-0.417168	-0.162653	
0.740667	1.12457	0	0	0	0	-0.101657	-0.207867	0	0	-0.09196	-0.30602	0	0	-0.404708	-0.276318	0.054362	-0.119322	-0.882522	-0.293976	-0.214618	-0.442882	-0.245654	-0.108377	-0.226515	-0.16103	-0.17142	-0.380918	-0.239262	-0.275805	-0.352309	-0.454232	-0.408389	-0.212203	-0.420863	-0.15221	
0.724389	1.1261	0	0	0	0	-0.0992085	-0.214788	0	0	-0.09196	-0.30602	0	0	-0.392594	-0.27666	0.0532555	-0.116195	-0.879605	-0.30222	-0.215646	-0.439976	-0.241227	-0.108494	-0.232438	-0.144291	-0.168917	-0.37442	-0.237153	-0.269287	-0.341892	-0.450122	-0.402538	-0.210543	-0.424558	-0.141767	
0.709188	1.13373	0	0	0	0	-0.09676	-0.221708	0	0	-0.09196	-0.30602	0	0	-0.380479	-0.277002	0.052149	-0.113067	-0.876688	-0.310465	-0.216674	-0.437069	-0.236799	-0.108612	-0.238361	-0.127551	-0.166415	-0.367922	-0.235044	-0.262769	-0.331476	-0.446011	-0.396686	-0.208883	-0.428253	-0.131324	
0.697224	1.14288	0	0	0	0	-0.090341	-0.225902	0	0	-0.086268	-0.30082	0	0	-0.376158	-0.272243	0.0587695	-0.105358	-0.876688	-0.310465	-0.212549	-0.435293	-0.234925	-0.101502	-0.239547	-0.124199	-0.161413	-0.368477	-0.238062	-0.26672	-0.336626	-0.442646	-0.396686	-0.208883	-0.421994	-0.135414	
0.690656	1.14746	0	0	0	0	-0.083922	-0.230096	0	0	-0.080576	-0.29562	0	0	-0.371837	-0.267485	0.06539	-0.0976495	-0.876688	-0.310465	-0.208425	-0.433517	-0.233052	-0.0943925	-0.240732	-0.120848	-0.156412	-0.369032	-0.241079	-0.270671	-0.341776	-0.43928	-0.396686	-0.208883	-0.415734	-0.139504	
0.691645	1.15204	0	0	0	0	-0.077503	-0.234291	0	0	-0.074884	-0.290419	0	0	-0.367516	-0.262726	0.0720105	-0.0899407	-0.876688	-0.310465	-0.2043	-0.431741	-0.231178	-0.0872827	-0.241918	-0.117497	-0.15141	-0.369587	-0.244096	-0.274623	-0.346926	-0.435915	-0.396686	-0.208883	-0.409474	-0.143594	
0.701883	1.16119	0	0	0	0	-0.071084	-0.238485	0	0	-0.069192	-0.285219	0	0	-0.363195	-0.257967	0.078631	-0.082232	-0.876688	-0.310465	-0.200175	-0.429965	-0.229304	-0.080173	-0.243104	-0.114145	-0.146408	-0.370142	-0.247114	-0.278574	-0.352076	-0.43255	-0.396686	-0.208883	-0.403215	-0.147684	
0.719513	1.16882	0	0	0	0	-0.0744662	-0.214969	0	0	-0.0676103	-0.268379	0	0	-0.354543	-0.248431	0.0791685	-0.0705275	-0.863967	-0.30821	-0.199138	-0.419451	-0.221121	-0.0660342	-0.238283	-0.112139	-0.145153	-0.360098	-0.247114	-0.278574	-0.347932	-0.433072	-0.389565	-0.210792	-0.399417	-0.144808	
0.741053	1.17035	0	0	0	0	-0.0778485	-0.191453	0	0	-0.0660285	-0.251538	0	0	-0.34589	-0.238895	0.079706	-0.058823	-0.851247	-0.305954	-0.198102	-0.408937	-0.212939	-0.0518955	-0.233461	-0.110133	-0.143898	-0.350055	-0.247114	-0.278574	-0.343788	-0.433595	-0.382444	-0.212702	-0.395618	-0.141933	
0.763013	1.17798	0	0	0	0	-0.0812307	-0.167937	0	0	-0.0644467	-0.234698	0	0	-0.337238	-0.229358	0.0802435	-0.0471185	-0.838526	-0.303698	-0.197066	-0.398423	-0.204757	-0.0377567	-0.22864	-0.108127	-0.142643	-0.340012	-0.247114	-0.278574	-0.339643	-0.434118	-0.375323	-0.214612	-0.39182	-0.139057	
0.781901	1.1795	0	0	0	0	-0.084613	-0.144421	0	0	-0.062865	-0.217858	0	0	-0.328586	-0.219822	0.080781	-0.035414	-0.825805	-0.301443	-0.196029	-0.387909	-0.196574	-0.023618	-0.223819	-0.106121	-0.141388	-0.329968	-0.247114	-0.278574	-0.335499	-0.43464	-0.368202	-0.216521	-0.388022	-0.136181	
0.794227	1.18255	0	0	0	0	-0.0833855	-0.14789	0	0	-0.0579565	-0.221065	0	0	-0.322504	-0.219993	0.087408	-0.0276673	-0.802231	-0.291418	-0.190866	-0.375584	-0.179481	-0.00965275	-0.228571	-0.0926915	-0.140136	-0.319905	-0.246825	-0.266912	-0.330224	-0.427149	-0.367397	-0.200562	-0.385456	-0.129814	
0.796583	1.18255	5	0	0	0	-0.082158	-0.151359	0	0	-0.053048	-0.224272	0	0	-0.316422	-0.220164	0.094035	-0.0199205	-0.778657	-0.281393	-0.185704	-0.36326	-0.162388	0.0043125	-0.233322	-0.079262	-0.138885	-0.309842	-0.246536	-0.25525	-0.324948	-0.419658	-0.366592	-0.184604	-0.382889	-0.123447	
0.788466	1.18103	5	0	0	0	-0.0809305	-0.154828	0	0	-0.0481395	-0.22748	0	0	-0.31034	-0.220336	0.100662	-0.0121738	-0.755083	-0.271367	-0.180541	-0.350935	-0.145296	0.0182778	-0.238074	-0.0658325	-0.137633	-0.299779	-0.246246	-0.243587	-0.319673	-0.412167	-0.365787	-0.168646	-0.380323	-0.117079	
0.772996	1.18255	5	0	0	0	-0.079703	-0.158297	0	0	-0.043231	-0.230687	0	0	-0.304258	-0.220507	0.107289	-0.004427	-0.731509	-0.261342	-0.175378	-0.33861	-0.128203	0.032243	-0.242826	-0.052403	-0.136381	-0.289716	-0.245957	-0.231925	-0.314398	-0.404676	-0.364982	-0.152687	-0.377757	-0.110712	
0.753522	1.18408	5	0	0	0	-0.074502	-0.159029	0	0	-0.0375272	-0.22546	0	0	-0.313841	-0.21044	0.116686	0.0088005	-0.714793	-0.270142	-0.17125	-0.323323	-0.126325	0.0394142	-0.240384	-0.0436582	-0.136381	-0.289716	-0.248688	-0.224207	-0.311254	-0.40235	-0.357048	-0.138589	-0.380323	-0.117079	
0.73339	1.18713	5	0	0	0	-0.069301	-0.15976	0	0	-0.0318235	-0.220232	0	0	-0.323425	-0.200374	0.126082	0.022028	-0.698076	-0.278941	-0.167122	-0.308035	-0.124447	0.0465855	-0.237943	-0.0349135	-0.136381	-0.289716	-0.251419	-0.21649	-0.308111	-0.400024	-0.349113	-0.124492	-0.382889	-0.123447	
0.715946	1.18255	5	0	0	0	-0.0641	-0.160492	0	0	-0.0261198	-0.215005	0	0	-0.333008	-0.190307	0.135479	0.0352555	-0.68136	-0.287741	-0.162993	-0.292747	-0.122568	0.0537568	-0.235501	-0.0261688	-0.136381	-0.289716	-0.25415	-0.208772	-0.304967	-0.397698	-0.341179	-0.110394	-0.385456	-0.129814	
0.704228	1.17798	5	0	0	0	-0.058899	-0.161224	0	0	-0.020416	-0.209778	0	0	-0.342592	-0.18024	0.144876	0.048483	-0.664644	-0.29654	-0.158865	-0.27746	-0.12069	0.060928	-0.233059	-0.017424	-0.136381	-0.289716	-0.256881	-0.201054	-0.301823	-0.395372	-0.333245	-0.096296	-0.388022	-0.136181	
0.698268	1.17798	5	0	0	0	-0.0598402	-0.144586	0	0	-0.0178045	-0.195786	0	0	-0.33476	-0.185358	0.142644	0.0547923	-0.656241	-0.291404	-0.15784	-0.266865	-0.12069	0.060928	-0.223349	0.00215	-0.136381	-0.289716	-0.245096	-0.196873	-0.295531	-0.390715	-0.319417	-0.0804605	-0.396848	-0.138449	
0.696423	1.18561	5	0	0	0	-0.0607815	-0.127948	0	0	-0.015193	-0.181793	0	0	-0.326928	-0.190476	0.140411	0.0611015	-0.647838	-0.286269	-0.156815	-0.256271	-0.12069	0.060928	-0.21364	0.021724	-0.136381	-0.289716	-0.23331	-0.192692	-0.289238	-0.386058	-0.305589	-0.064625	-0.405674	-0.140717	
0.697031	1.15051	5	0	0	0	-0.0617227	-0.11131	0	0	-0.0125815	-0.167801	0	0	-0.319095	-0.195593	0.138179	0.0674107	-0.639434	-0.281133	-0.155789	-0.245676	-0.12069	0.060928	-0.203931	0.041298	-0.136381	-0.289716	-0.221525	-0.188511	-0.282945	-0.381402	-0.29176	-0.0487895	-0.414499	-0.142985	
0.698431	1.17035	5	0	0	0	-0.062664	-0.094672	0	0	-0.00997	-0.153809	0	0	-0.311263	-0.200711	0.135946	0.07372	-0.631031	-0.275997	-0.154764	-0.235081	-0.12069	0.060928	-0.194221	0.060872	-0.136381	-0.289716	-0.209739	-0.18433	-0.276653	-0.376745	-0.277932	-0.032954	-0.423325	-0.145253	
0.698962	1.17035	5	0	0	0	-0.0733475	-0.106381	0	0	-0.0110037	-0.150888	0	0	-0.329488	-0.200211	0.127083	0.0722373	-0.613274	-0.2876	-0.15684	-0.229213	-0.13463	0.0504558	-0.186996	0.056151	-0.143894	-0.282084	-0.216407	-0.177991	-0.2798	-0.379074	-0.283818	-0.0346427	-0.42579	-0.138287	
0.697546	1.1673	5	0	0	0	-0.084031	-0.11809	0	0	-0.0120375	-0.147968	0	0	-0.347712	-0.199711	0.118219	0.0707545	-0.595516	-0.299203	-0.158917	-0.223346	-0.148569	0.0399835	-0.179771	0.05143	-0.151406	-0.274452	-0.223074	-0.171652	-0.282948	-0.381404	-0.289704	-0.0363315	-0.428254	-0.131321	
0.694701	1.16424	5	0	0	0	-0.0947145	-0.129798	0	0	-0.0130712	-0.145047	0	0	-0.365937	-0.19921	0.109355	0.0692717	-0.577758	-0.310807	-0.160993	-0.217478	-0.162509	0.0295113	-0.172546	0.046709	-0.158919	-0.26682	-0.229742	-0.165313	-0.286095	-0.383733	-0.29559	-0.0380202	-0.430719	-0.124355	
0.691215	1.16272	5	0	0	0	-0.105398	-0.141507	0	0	-0.014105	-0.142126	0	0	-0.384162	-0.19871	0.100492	0.067789	-0.560001	-0.32241	-0.163069	-0.21161	-0.176449	0.019039	-0.165321	0.041988	-0.166432	-0.259188	-0.236409	-0.158974	-0.289242	-0.386062	-0.301476	-0.039709	-0.433184	-0.117389	
0.687876	1.16119	5	0	0	0	-0.102945	-0.148441	0	0	-0.00997275	-0.153804	0	0	-0.390225	-0.198547	0.124289	0.093563	-0.603967	-0.342428	-0.152731	-0.200291	-0.196066	0.0123325	-0.187076	0.0251125	-0.165175	-0.27633	-0.255106	-0.168531	-0.308087	-0.400004	-0.308149	-0.057443	-0.425692	-0.124963	
0.685475	1.15814	5	0	0	0	-0.100492	-0.155374	0	0	-0.0058405	-0.165482	0	0	-0.396288	-0.198384	0.148087	0.119337	-0.647934	-0.362445	-0.142394	-0.188972	-0.215683	0.005626	-0.208831	0.008237	-0.163918	-0.293473	-0.273803	-0.178088	-0.326931	-0.413946	-0.314822	-0.075177	-0.4182	-0.132537	
0.684739	1.16119	5	0	0	0	-0.0980383	-0.162308	0	0	-0.00170825	-0.177159	0	0	-0.40235	-0.198221	0.171884	0.145111	-0.691901	-0.382463	-0.132056	-0.177653	-0.2353	-0.0010805	-0.230585	-0.0086385	-0.162662	-0.310615	-0.2925	-0.187646	-0.345776	-0.427887	-0.321495	-0.092911	-0.410707	-0.14011	
0.68565	1.15967	5	0	0	0	-0.095585	-0.169242	0	0	0.002424	-0.188837	0	0	-0.408413	-0.198058	0.195681	0.170885	-0.735867	-0.402481	-0.121719	-0.166334	-0.254917	-0.007787	-0.25234	-0.025514	-0.161405	-0.327758	-0.311197	-0.197203	-0.364621	-0.441829	-0.328168	-0.110645	-0.403215	-0.147684	
0.687683	1.15356	5	0	0	0	-0.102951	-0.148425	0	0	-0.004561	-0.179785	0	0	-0.404919	-0.207932	0.246981	0.213366	-0.784822	-0.416798	-0.109275	-0.160878	-0.262488	-0.0111907	-0.265653	-0.0503378	-0.172648	-0.336694	-0.317485	-0.216769	-0.385524	-0.460849	-0.351616	-0.117347	-0.401983	-0.151167	
0.690302	1.15356	5	0	0	0	-0.110316	-0.127607	0	0	-0.011546	-0.170734	0	0	-0.401425	-0.217805	0.298282	0.255846	-0.833776	-0.431115	-0.096832	-0.155423	-0.27006	-0.0145945	-0.278967	-0.0751615	-0.183892	-0.34563	-0.323774	-0.236335	-0.406427	-0.47987	-0.375065	-0.124048	-0.400751	-0.154649	
0.692972	1.15509	5	0	0	0	-0.117682	-0.10679	0	0	-0.018531	-0.161683	0	0	-0.397932	-0.227679	0.349583	0.298327	-0.88273	-0.445433	-0.0843885	-0.149967	-0.277631	-0.0179983	-0.29228	-0.0999852	-0.195136	-0.354565	-0.330063	-0.255901	-0.42733	-0.49889	-0.398513	-0.13075	-0.399518	-0.158132	
0.695159	1.15356	5	0	0	0	-0.125048	-0.085973	0	0	-0.025516	-0.152631	0	0	-0.394438	-0.237552	0.400883	0.340807	-0.931685	-0.45975	-0.071945	-0.144511	-0.285202	-0.021402	-0.305594	-0.124809	-0.206379	-0.363501	-0.336351	-0.275467	-0.448233	-0.51791	-0.421961	-0.137452	-0.398286	-0.161614	
0.696486	1.15967	5	0	0	0	-0.131742	-0.0949387	0	0	-0.030433	-0.149418	0	0	-0.398752	-0.242316	0.419921	0.367925	-0.942866	-0.456639	-0.068835	-0.13974	-0.283231	-0.0393613	-0.318746	-0.118788	-0.211369	-0.362951	-0.337257	-0.272905	-0.451356	-0.520215	-0.414843	-0.139354	-0.398286	-0.161614	
0.697057	1.16577	5	0	0	0	-0.138435	-0.103904	0	0	-0.03535	-0.146205	0	0	-0.403066	-0.247079	0.438959	0.395043	-0.954046	-0.453527	-0.065725	-0.134968	-0.281259	-0.0573205	-0.331897	-0.112766	-0.216358	-0.362401	-0.338164	-0.270343	-0.454478	-0.52252	-0.407724	-0.141257	-0.398286	-0.161614	
0.697073	1.17798	5	0	0	0	-0.145129	-0.11287	0	0	-0.040267	-0.142993	0	0	-0.40738	-0.251843	0.457996	0.422162	-0.965226	-0.450415	-0.062615	-0.130197	-0.279288	-0.0752798	-0.345048	-0.106744	-0.221348	-0.36185	-0.33907	-0.26778	-0.4576	-0.524826	-0.400605	-0.143159	-0.398286	-0.161614	
0.696733	1.18103	5	0	0	0	-0.151823	-0.121836	0	0	-0.045184	-0.13978	0	0	-0.411694	-0.256606	0.477034	0.44928	-0.976407	-0.447304	-0.059505	-0.125426	-0.277317	-0.093239	-0.3582	-0.100723	-0.226337	-0.3613	-0.339977	-0.265218	-0.460723	-0.527131	-0.393487	-0.145062	-0.398286	-0.161614	
0.696236	1.19018	5	0	0	0	-0.14692	-0.135692	0	0	-0.050634	-0.156389	0	0	-0.410783	-0.27612	0.467595	0.408498	-0.957383	-0.434531	-0.0833197	-0.15284	-0.296752	-0.1248	-0.361753	-0.090683	-0.241278	-0.373179	-0.329145	-0.258491	-0.448347	-0.528698	-0.371279	-0.134781	-0.428485	-0.171263	
0.695773	1.20849	5	0	0	0	-0.142017	-0.149549	0	0	-0.056084	-0.172998	0	0	-0.409872	-0.295635	0.458155	0.367717	-0.93836	-0.421759	-0.107135	-0.180254	-0.316187	-0.15636	-0.365305	-0.080643	-0.25622	-0.385057	-0.318314	-0.251764	-0.43597	-0.530266	-0.349072	-0.124501	-0.458684	-0.180911	
0.695377	1.19781	5	0	0	0	-0.137114	-0.163406	0	0	-0.061534	-0.189608	0	0	-0.408962	-0.315149	0.448715	0.326935	-0.919336	-0.408987	-0.130949	-0.207667	-0.335623	-0.187921	-0.368858	-0.070603	-0.271161	-0.396936	-0.307482	-0.245037	-0.423594	-0.531834	-0.326865	-0.114221	-0.488882	-0.190559	
0.694929	1.21155	5	0	0	0	-0.132211	-0.177262	0	0	-0.066984	-0.206217	0	0	-0.408051	-0.334663	0.439276	0.286153	-0.900312	-0.396214	-0.154764	-0.235081	-0.355058	-0.219481	-0.37241	-0.060563	-0.286102	-0.408815	-0.296651	-0.23831	-0.411218	-0.533401	-0.304657	-0.10394	-0.519081	-0.200208	
0.694305	1.22528	5	0	0	0	-0.125797	-0.181453	0	0	-0.0786038	-0.205335	0	0	-0.41841	-0.339221	0.405184	0.234946	-0.877283	-0.375397	-0.187741	-0.26296	-0.375102	-0.236648	-0.355641	-0.061215	-0.291076	-0.421751	-0.296651	-0.23831	-0.405959	-0.525958	-0.285714	-0.102506	-0.536613	-0.204725	
0.693378	1.23443	5	0	0	0	-0.119383	-0.185644	0	0	-0.0902235	-0.204453	0	0	-0.428769	-0.343778	0.371092	0.183738	-0.854255	-0.354581	-0.220719	-0.290838	-0.395145	-0.253815	-0.338873	-0.061867	-0.29605	-0.434688	-0.296651	-0.23831	-0.400699	-0.518516	-0.266771	-0.101072	-0.554145	-0.209242	
0.692026	1.23901	5	0	0	0	-0.112968	-0.189836	0	0	-0.101843	-0.20357	0	0	-0.439128	-0.348336	0.336999	0.13253	-0.831226	-0.333765	-0.253696	-0.318716	-0.415189	-0.270982	-0.322104	-0.062519	-0.301024	-0.447624	-0.296651	-0.23831	-0.39544	-0.511074	-0.247828	-0.099638	-0.571677	-0.21376	
0.690134	1.24664	5	0	0	0	-0.106554	-0.194027	0	0	-0.113463	-0.202688	0	0	-0.449487	-0.352894	0.302907	0.081323	-0.808198	-0.312948	-0.286673	-0.346595	-0.435233	-0.288149	-0.305335	-0.063171	-0.305998	-0.46056	-0.296651	-0.23831	-0.390181	-0.503631	-0.228885	-0.098204	-0.589209	-0.218277	
0.687643	1.23596	5	0	0	0	-0.115419	-0.18291	0	0	-0.123509	-0.184936	0	0	-0.46156	-0.352546	0.245188	0.031883	-0.784565	-0.283828	-0.314349	-0.362008	-0.449573	-0.30891	-0.287211	-0.0362308	-0.307238	-0.457055	-0.295461	-0.22921	-0.378644	-0.491544	-0.199304	-0.089826	-0.587986	-0.221735	
0.684504	1.25427	5	0	0	0	-0.124283	-0.171793	0	0	-0.133555	-0.167184	0	0	-0.473634	-0.352197	0.187469	-0.017557	-0.760933	-0.254707	-0.342025	-0.377421	-0.463913	-0.32967	-0.269088	-0.0092905	-0.308479	-0.453549	-0.294272	-0.22011	-0.367107	-0.479457	-0.169723	-0.081448	-0.586762	-0.225193	
0.680669	1.25732	5	0	0	0	-0.133148	-0.160677	0	0	-0.143602	-0.149432	0	0	-0.485707	-0.351849	0.12975	-0.066997	-0.7373	-0.225586	-0.369702	-0.392834	-0.478254	-0.350431	-0.250964	0.0176497	-0.30972	-0.450043	-0.293082	-0.211011	-0.35557	-0.467369	-0.140142	-0.07307	-0.585538	-0.228651	
0.676092	1.26343	5	0	0	0	-0.142013	-0.14956	0	0	-0.153648	-0.13168	0	0	-0.49778	-0.351501	0.072031	-0.116437	-0.713667	-0.196466	-0.397378	-0.408247	-0.492594	-0.371192	-0.23284	0.04459	-0.31096	-0.446538	-0.291892	-0.201911	-0.344033	-0.455282	-0.110561	-0.064692	-0.584315	-0.232109	
0.670751	1.26648	5	0	0	0	-0.148704	-0.158491	0	0	-0.160604	-0.122654	0	0	-0.515844	-0.350993	0.018185	-0.148284	-0.70082	-0.174991	-0.410658	-0.410699	-0.513767	-0.384635	-0.197722	0.0710843	-0.315926	-0.432502	-0.28952	-0.183663	-0.327188	-0.435648	-0.10509	-0.0432345	-0.585538	-0.228651	
0.665051	1.27563	5	0	0	0	-0.155395	-0.167422	0	0	-0.167561	-0.113629	0	0	-0.533909	-0.350485	-0.035661	-0.18013	-0.687973	-0.153516	-0.423938	-0.413151	-0.534941	-0.398077	-0.162604	0.0975785	-0.320893	-0.418465	-0.287149	-0.165415	-0.310343	-0.416014	-0.099619	-0.021777	-0.586762	-0.225193	
0.659726	1.27563	5	0	0	0	-0.162086	-0.176353	0	0	-0.174517	-0.104603	0	0	-0.551973	-0.349977	-0.089507	-0.211977	-0.675125	-0.132041	-0.437218	-0.415603	-0.556114	-0.41152	-0.127486	0.124073	-0.32586	-0.404429	-0.284777	-0.147167	-0.293498	-0.396379	-0.094148	-0.0003195	-0.587986	-0.221735	
0.655521	1.28631	5	0	0	0	-0.168777	-0.185284	0	0	-0.181473	-0.095578	0	0	-0.570037	-0.349469	-0.143353	-0.243823	-0.662278	-0.110566	-0.450498	-0.418055	-0.577287	-0.424963	-0.092368	0.150567	-0.330826	-0.390393	-0.282405	-0.128919	-0.276653	-0.376745	-0.088677	0.021138	-0.589209	-0.218277	
0.65318	1.29242	5	0	0	0	-0.165109	-0.195651	0	0	-0.178642	-0.0929447	0	0	-0.576047	-0.349303	-0.183112	-0.274782	-0.651398	-0.102691	-0.456608	-0.427394	-0.603964	-0.434701	-0.0680405	0.160836	-0.334547	-0.393359	-0.286324	-0.130322	-0.270353	-0.372082	-0.0801685	0.0155783	-0.589209	-0.218277	
0.653437	1.30615	5	0	0	0	-0.161441	-0.206017	0	0	-0.175811	-0.0903115	0	0	-0.582056	-0.349137	-0.222872	-0.30574	-0.640518	-0.094816	-0.462719	-0.436733	-0.630641	-0.44444	-0.043713	0.171106	-0.338268	-0.396325	-0.290243	-0.131725	-0.264053	-0.367418	-0.07166	0.0100185	-0.589209	-0.218277	
0.65642	1.3031	5	0	0	0	-0.157773	-0.216384	0	0	-0.17298	-0.0876782	0	0	-0.588066	-0.348972	-0.262631	-0.336699	-0.629639	-0.086941	-0.46883	-0.446072	-0.657318	-0.454179	-0.0193855	0.181375	-0.341989	-0.399292	-0.294163	-0.133129	-0.257754	-0.362754	-0.0631515	0.00445875	-0.589209	-0.218277	
0.661407	1.3092	5	0	0	0	-0.154105	-0.22675	0	0	-0.170149	-0.085045	0	0	-0.594075	-0.348806	-0.30239	-0.367658	-0.618759	-0.079066	-0.47494	-0.455411	-0.683995	-0.463917	0.004942	0.191644	-0.34571	-0.402258	-0.298082	-0.134532	-0.251454	-0.358091	-0.054643	-0.001101	-0.589209	-0.218277	
0.667613	1.31378	5	0	0	0	-0.158996	-0.212925	0	0	-0.167316	-0.0824098	0	0	-0.600078	-0.348642	-0.317565	-0.376617	-0.631607	-0.0813767	-0.482065	-0.461846	-0.695092	-0.481027	0.0171195	0.188932	-0.344469	-0.405766	-0.29717	-0.137109	-0.252465	-0.355234	-0.057209	0.00615075	-0.590527	-0.228044	
0.674252	1.32294	5	0	0	0	-0.163888	-0.199101	0	0	-0.164484	-0.0797745	0	0	-0.606081	-0.348479	-0.33274	-0.385577	-0.644456	-0.0836875	-0.489189	-0.46828	-0.70619	-0.498137	0.029297	0.18622	-0.343227	-0.409274	-0.296258	-0.139686	-0.253476	-0.352376	-0.059775	0.0134025	-0.591845	-0.237811	
0.680536	1.33362	5	0	0	0	-0.168779	-0.185277	0	0	-0.161652	-0.0771392	0	0	-0.612085	-0.348315	-0.347915	-0.394537	-0.657304	-0.0859982	-0.496314	-0.474714	-0.717287	-0.515246	0.0414745	0.183508	-0.341985	-0.412783	-0.295346	-0.142263	-0.254487	-0.349519	-0.062341	0.0206542	-0.593163	-0.247578	
0.685776	1.33667	5	0	0	0	-0.173671	-0.171452	0	0	-0.158819	-0.074504	0	0	-0.618088	-0.348151	-0.36309	-0.403496	-0.670153	-0.088309	-0.503439	-0.481149	-0.728384	-0.532356	0.053652	0.180796	-0.340744	-0.416291	-0.294434	-0.14484	-0.255498	-0.346662	-0.064907	0.027906	-0.594481	-0.257345	
0.689768	1.33667	5	0	0	0	-0.17612	-0.164532	0	0	-0.161652	-0.0771392	0	0	-0.622357	-0.352874	-0.370662	-0.407967	-0.676575	-0.099073	-0.502419	-0.484031	-0.747497	-0.538756	0.0646437	0.181489	-0.339503	-0.419798	-0.293522	-0.147416	-0.253476	-0.352376	-0.058958	0.0295985	-0.606979	-0.26244	
0.692462	1.33209	5	0	0	0	-0.178568	-0.157612	0	0	-0.164484	-0.0797745	0	0	-0.626626	-0.357596	-0.378233	-0.412438	-0.682997	-0.109837	-0.501399	-0.486913	-0.766609	-0.545156	0.0756355	0.182181	-0.338263	-0.423305	-0.292611	-0.149993	-0.251455	-0.35809	-0.053009	0.031291	-0.619478	-0.267536	
0.693809	1.33209	5	0	0	0	-0.181017	-0.150691	0	0	-0.167316	-0.0824098	0	0	-0.630895	-0.362318	-0.385804	-0.416908	-0.68942	-0.120601	-0.500379	-0.489796	-0.785722	-0.551555	0.0866272	0.182874	-0.337022	-0.426812	-0.2917	-0.152569	-0.249433	-0.363803	-0.04706	0.0329835	-0.631976	-0.272632	
0.69376	1.33209	5	0	0	0	-0.183466	-0.143771	0	0	-0.170149	-0.085045	0	0	-0.635164	-0.367041	-0.393376	-0.421379	-0.695842	-0.131365	-0.499359	-0.492678	-0.804834	-0.557955	0.097619	0.183567	-0.335781	-0.430319	-0.290788	-0.155145	-0.247411	-0.369517	-0.041111	0.034676	-0.644474	-0.277727	
0.692272	1.33667	5	0	0	0	-0.191647	-0.162334	0	0	-0.172719	-0.0990435	0	0	-0.647952	-0.381171	-0.401473	-0.437232	-0.713565	-0.138971	-0.501391	-0.500206	-0.820172	-0.574826	0.102518	0.185621	-0.343219	-0.436233	-0.290788	-0.155145	-0.249553	-0.374701	-0.0338703	0.0327363	-0.656944	-0.282815	
0.689619	1.34277	5	0	0	0	-0.199828	-0.180897	0	0	-0.175289	-0.113042	0	0	-0.66074	-0.395301	-0.40957	-0.453085	-0.731288	-0.146578	-0.503423	-0.507735	-0.835511	-0.591697	0.107416	0.187675	-0.350657	-0.442147	-0.290788	-0.155145	-0.251694	-0.379885	-0.0266295	0.0307965	-0.669413	-0.287904	
0.686513	1.34125	5	0	0	0	-0.208009	-0.199461	0	0	-0.17786	-0.127041	0	0	-0.673529	-0.409431	-0.417667	-0.468937	-0.749011	-0.154185	-0.505455	-0.515263	-0.850849	-0.608567	0.112315	0.18973	-0.358095	-0.448061	-0.290788	-0.155145	-0.253836	-0.38507	-0.0193887	0.0288568	-0.681883	-0.292992	
0.683695	1.33819	5	0	0	0	-0.21619	-0.218024	0	0	-0.18043	-0.141039	0	0	-0.686317	-0.423561	-0.425764	-0.48479	-0.766734	-0.161791	-0.507487	-0.522792	-0.866187	-0.625438	0.117214	0.191784	-0.365533	-0.453975	-0.290788	-0.155145	-0.255978	-0.390254	-0.012148	0.026917	-0.694353	-0.298081	
0.681911	1.33667	5	0	0	0	-0.229521	-0.235781	0	0	-0.180952	-0.160803	0	0	-0.697361	-0.442486	-0.436549	-0.505834	-0.780996	-0.188569	-0.517648	-0.533831	-0.877795	-0.652658	0.120841	0.181533	-0.371732	-0.476786	-0.29771	-0.160517	-0.261396	-0.408615	-0.0240545	0.0235377	-0.701938	-0.316886	
0.681902	1.33514	5	0	0	0	-0.242852	-0.253538	0	0	-0.181473	-0.180567	0	0	-0.708404	-0.461411	-0.447333	-0.526877	-0.795259	-0.215346	-0.527809	-0.54487	-0.889402	-0.679877	0.124469	0.171282	-0.377931	-0.499597	-0.304632	-0.165888	-0.266813	-0.426976	-0.035961	0.0201585	-0.709523	-0.335692	
0.68423	1.33514	5	0	0	0	-0.256184	-0.271295	0	0	-0.181995	-0.200331	0	0	-0.719448	-0.480336	-0.458118	-0.547921	-0.809521	-0.242123	-0.53797	-0.555908	-0.90101	-0.707097	0.128096	0.16103	-0.384129	-0.522408	-0.311554	-0.17126	-0.27223	-0.445336	-0.0478675	0.0167793	-0.717109	-0.354497	
0.688527	1.32751	5	0	0	0	-0.269515	-0.289052	0	0	-0.182516	-0.220095	0	0	-0.730492	-0.499261	-0.468903	-0.568964	-0.823783	-0.268901	-0.548131	-0.566947	-0.912617	-0.734316	0.131723	0.150779	-0.390328	-0.545219	-0.318476	-0.176631	-0.277648	-0.463697	-0.059774	0.0134	-0.724694	-0.373302	
0.694134	1.32751	5	0	0	0	-0.264655	-0.302786	0	0	-0.181245	-0.234296	0	0	-0.735565	-0.518274	-0.484507	-0.589071	-0.842915	-0.300729	-0.55118	-0.584789	-0.929714	-0.757773	0.125542	0.136464	-0.396535	-0.56792	-0.322664	-0.189696	-0.287216	-0.481455	-0.0631547	0.00446775	-0.744576	-0.38399	
0.700389	1.32599	5	0	0	0	-0.259796	-0.31652	0	0	-0.179975	-0.248497	0	0	-0.740638	-0.537287	-0.50011	-0.609178	-0.862048	-0.332558	-0.554228	-0.602631	-0.94681	-0.78123	0.119361	0.122148	-0.402742	-0.590621	-0.326851	-0.202762	-0.296785	-0.499213	-0.0665355	-0.0044645	-0.764458	-0.394678	
0.70663	1.32141	5	0	0	0	-0.254936	-0.330254	0	0	-0.178704	-0.262697	0	0	-0.74571	-0.5563	-0.515714	-0.629284	-0.88118	-0.364386	-0.557276	-0.620473	-0.963907	-0.804688	0.11318	0.107833	-0.408949	-0.613322	-0.331039	-0.215827	-0.306354	-0.51697	-0.0699162	-0.0133968	-0.784341	-0.405366	
0.712198	1.31683	5	0	0	0	-0.250076	-0.343988	0	0	-0.177433	-0.276898	0	0	-0.750783	-0.575313	-0.531317	-0.649391	-0.900312	-0.396214	-0.560325	-0.638315	-0.981004	-0.828145	0.106999	0.093518	-0.415156	-0.636023	-0.335227	-0.228892	-0.315922	-0.534728	-0.073297	-0.022329	-0.804223	-0.416054	
0.716574	1.31225	5	0	0	0	-0.260675	-0.355501	0	0	-0.188752	-0.287289	0	0	-0.755862	-0.59425	-0.552758	-0.66555	-0.91503	-0.430642	-0.565403	-0.650384	-0.990751	-0.848295	0.104511	0.0846775	-0.426272	-0.644764	-0.335508	-0.240536	-0.322341	-0.550116	-0.066899	-0.0404108	-0.817907	-0.430711	
0.719534	1.3092	5	0	0	0	-0.271274	-0.367015	0	0	-0.20007	-0.297681	0	0	-0.760941	-0.613187	-0.574199	-0.681709	-0.929747	-0.465071	-0.57048	-0.662452	-1.0005	-0.868445	0.102023	0.075837	-0.437388	-0.653505	-0.335789	-0.25218	-0.328761	-0.565503	-0.060501	-0.0584925	-0.831592	-0.445368	
0.720885	1.31073	5	0	0	0	-0.281873	-0.378528	0	0	-0.211388	-0.308072	0	0	-0.766019	-0.632124	-0.595639	-0.697869	-0.944465	-0.499499	-0.575558	-0.674521	-1.01025	-0.888596	0.099535	0.0669965	-0.448503	-0.662246	-0.33607	-0.263823	-0.33518	-0.580891	-0.054103	-0.0765743	-0.845276	-0.460024	
0.720439	1.30463	5	0	0	0	-0.292472	-0.390041	0	0	-0.222707	-0.318463	0	0	-0.771098	-0.651061	-0.61708	-0.714028	-0.959183	-0.533927	-0.580636	-0.68659	-1.01999	-0.908746	0.097047	0.058156	-0.459619	-0.670987	-0.336351	-0.275467	-0.341599	-0.596279	-0.047705	-0.094656	-0.85896	-0.474681	
0.718004	1.3031	5	0	0	0	-0.304563	-0.411016	0	0	-0.223258	-0.338058	0	0	-0.772786	-0.67952	-0.629401	-0.742927	-0.980666	-0.567808	-0.589761	-0.70036	-1.03641	-0.921799	0.095759	0.0459372	-0.468267	-0.686617	-0.344165	-0.278235	-0.350011	-0.605975	-0.0667953	-0.096055	-0.866499	-0.493272	
0.713399	1.29852	5	0	0	0	-0.316654	-0.43199	0	0	-0.22381	-0.357653	0	0	-0.774474	-0.707979	-0.641722	-0.771826	-1.00215	-0.601688	-0.598886	-0.71413	-1.05283	-0.934851	0.094471	0.0337185	-0.476914	-0.702248	-0.351978	-0.281003	-0.358423	-0.615671	-0.0858855	-0.097454	-0.874038	-0.511864	
0.706642	1.29394	5	0	0	0	-0.328745	-0.452965	0	0	-0.224361	-0.377249	0	0	-0.776163	-0.736438	-0.654044	-0.800725	-1.02363	-0.635568	-0.608011	-0.7279	-1.06924	-0.947904	0.093183	0.0214997	-0.485561	-0.717878	-0.359792	-0.283771	-0.366835	-0.625366	-0.104976	-0.098853	-0.881577	-0.530455	
0.697949	1.29089	5	0	0	0	-0.340836	-0.47394	0	0	-0.224913	-0.396844	0	0	-0.777851	-0.764897	-0.666365	-0.829624	-1.04512	-0.669449	-0.617136	-0.74167	-1.08566	-0.960956	0.091895	0.009281	-0.494209	-0.733509	-0.367606	-0.286539	-0.375247	-0.635062	-0.124066	-0.100252	-0.889116	-0.549046	
0.687543	1.28937	5	0	0	0	-0.338741	-0.493621	0	0	-0.222652	-0.413802	0	0	-0.778707	-0.779071	-0.679732	-0.855351	-1.06653	-0.703041	-0.626248	-0.755391	-1.09355	-0.97424	0.0845142	-0.001536	-0.497936	-0.74964	-0.366987	-0.3007	-0.382651	-0.647545	-0.133362	-0.110788	-0.903949	-0.560191	
0.675651	1.28937	5	0	0	0	-0.336647	-0.513302	0	0	-0.22039	-0.430761	0	0	-0.779562	-0.793246	-0.693099	-0.881078	-1.08795	-0.736633	-0.635361	-0.769113	-1.10144	-0.987524	0.0771335	-0.012353	-0.501664	-0.765772	-0.366368	-0.314862	-0.390055	-0.660029	-0.142659	-0.121325	-0.918782	-0.571336	
0.662497	1.28784	5	0	0	0	-0.334552	-0.532983	0	0	-0.218129	-0.447719	0	0	-0.780418	-0.80742	-0.706465	-0.906805	-1.10936	-0.770226	-0.644474	-0.782835	-1.10933	-1.00081	0.0697528	-0.02317	-0.505391	-0.781904	-0.36575	-0.329023	-0.39746	-0.672512	-0.151955	-0.131861	-0.933614	-0.582481	
0.649013	1.28631	5	0	0	0	-0.332458	-0.552664	0	0	-0.215868	-0.464678	0	0	-0.781274	-0.821594	-0.719832	-0.932532	-1.13078	-0.803818	-0.653586	-0.796556	-1.11722	-1.01409	0.062372	-0.033987	-0.509118	-0.798035	-0.365131	-0.343184	-0.404864	-0.684995	-0.161252	-0.142397	-0.948447	-0.593626	
0.637764	1.28174	5	0	0	0	-0.341193	-0.541729	0	0	-0.220729	-0.461502	0	0	-0.788904	-0.816608	-0.732613	-0.947059	-1.14582	-0.826897	-0.656621	-0.801119	-1.11601	-1.01751	0.0647677	-0.0407575	-0.509118	-0.798035	-0.363324	-0.34829	-0.403869	-0.687807	-0.167166	-0.144061	-0.955848	-0.599185	
0.631552	1.28021	5	0	0	0	-0.349927	-0.530795	0	0	-0.22559	-0.458325	0	0	-0.796535	-0.811623	-0.745394	-0.961586	-1.16087	-0.849975	-0.659655	-0.805682	-1.11479	-1.02093	0.0671635	-0.047528	-0.509118	-0.798035	-0.361517	-0.353397	-0.402874	-0.690619	-0.17308	-0.145724	-0.96325	-0.604743	
0.633177	1.27869	5	0	0	0	-0.358661	-0.519861	0	0	-0.230451	-0.455149	0	0	-0.804165	-0.806637	-0.758175	-0.976113	-1.17591	-0.873054	-0.66269	-0.810245	-1.11358	-1.02435	0.0695593	-0.0542985	-0.509118	-0.798035	-0.359711	-0.358503	-0.401879	-0.693432	-0.178994	-0.147388	-0.970651	-0.610302	
0.645441	1.27869	5	0	0	0	-0.367396	-0.508926	0	0	-0.235312	-0.451973	0	0	-0.811795	-0.801651	-0.770956	-0.99064	-1.19096	-0.896133	-0.665725	-0.814808	-1.11237	-1.02778	0.071955	-0.061069	-0.509118	-0.798035	-0.357904	-0.363609	-0.400884	-0.696244	-0.184908	-0.149052	-0.978052	-0.615861	
0.669803	1.27258	5	0	0	0	-0.371627	-0.524439	0	0	-0.235312	-0.451973	0	0	-0.807554	-0.79706	-0.782096	-0.997051	-1.20156	-0.903554	-0.666729	-0.811971	-1.11722	-1.01408	0.0768458	-0.0590595	-0.510307	-0.781347	-0.351897	-0.355751	-0.401737	-0.682704	-0.178994	-0.147388	-0.978052	-0.615861	
0.702739	1.27411	5	0	0	0	-0.375859	-0.539951	0	0	-0.235312	-0.451973	0	0	-0.803312	-0.792469	-0.793237	-1.00346	-1.21216	-0.910976	-0.667733	-0.809133	-1.12206	-1.00039	0.0817365	-0.05705	-0.511496	-0.764659	-0.345891	-0.347892	-0.40259	-0.669164	-0.17308	-0.145724	-0.978052	-0.615861	
0.739562	1.27106	5	0	0	0	-0.38009	-0.555463	0	0	-0.235312	-0.451973	0	0	-0.799071	-0.787877	-0.804377	-1.00987	-1.22276	-0.918397	-0.668737	-0.806296	-1.12691	-0.9867	0.0866273	-0.0550405	-0.512685	-0.74797	-0.339885	-0.340033	-0.403443	-0.655623	-0.167166	-0.144061	-0.978052	-0.615861	
0.775586	1.27258	5	0	0	0	-0.384322	-0.570976	0	0	-0.235312	-0.451973	0	0	-0.794829	-0.783286	-0.815517	-1.01629	-1.23337	-0.925819	-0.669741	-0.803459	-1.13175	-0.973008	0.091518	-0.053031	-0.513874	-0.731282	-0.333878	-0.332175	-0.404296	-0.642083	-0.161252	-0.142397	-0.978052	-0.615861	
0.806125	1.268	5	0	0	0	-0.39215	-0.576283	0	0	-0.2404	-0.437594	0	0	-0.79398	-0.769091	-0.819225	-1.01842	-1.23337	-0.925819	-0.665702	-0.801733	-1.12569	-0.966426	0.0903193	-0.0496438	-0.512627	-0.721468	-0.330872	-0.32824	-0.400029	-0.631864	-0.152786	-0.147929	-0.99022	-0.60791	
0.826493	1.268	5	0	0	0	-0.399979	-0.581591	0	0	-0.245487	-0.423215	0	0	-0.793132	-0.754896	-0.822933	-1.02055	-1.23337	-0.925819	-0.661663	-0.800007	-1.11963	-0.959844	0.0891205	-0.0462565	-0.51138	-0.711655	-0.327867	-0.324304	-0.395761	-0.621645	-0.144319	-0.153462	-1.00239	-0.599959	
0.832087	1.26495	5	0	0	0	-0.407807	-0.586898	0	0	-0.250575	-0.408837	0	0	-0.792284	-0.740701	-0.826642	-1.02269	-1.23337	-0.925819	-0.657625	-0.798282	-1.11357	-0.953262	0.0879217	-0.0428693	-0.510133	-0.701842	-0.324861	-0.320369	-0.391493	-0.611426	-0.135852	-0.158994	-1.01456	-0.592009	
0.822226	1.268	5	0	0	0	-0.415635	-0.592205	0	0	-0.255663	-0.394458	0	0	-0.791435	-0.726506	-0.83035	-1.02482	-1.23337	-0.925819	-0.653586	-0.796556	-1.10751	-0.94668	0.086723	-0.039482	-0.508886	-0.692028	-0.321855	-0.316433	-0.387226	-0.601207	-0.127386	-0.164526	-1.02673	-0.584058	
0.80178	1.26495	5	0	0	0	-0.419232	-0.582039	0	0	-0.248446	-0.37257	0	0	-0.789761	-0.698006	-0.829791	-1.01379	-1.22707	-0.915585	-0.648519	-0.784568	-1.10084	-0.929904	0.0831247	-0.0293123	-0.505174	-0.675814	-0.317942	-0.315054	-0.387092	-0.590436	-0.135852	-0.158994	-1.02423	-0.577893	
0.776036	1.26648	5	0	0	0	-0.422829	-0.571873	0	0	-0.241229	-0.350683	0	0	-0.788088	-0.669505	-0.829232	-1.00275	-1.22077	-0.90535	-0.643452	-0.77258	-1.09417	-0.913129	0.0795265	-0.0191425	-0.501463	-0.659601	-0.314029	-0.313675	-0.386958	-0.579665	-0.144319	-0.153462	-1.02174	-0.571728	
0.75028	1.2619	5	0	0	0	-0.426426	-0.561708	0	0	-0.234013	-0.328796	0	0	-0.786414	-0.641005	-0.828672	-0.991721	-1.21447	-0.895116	-0.638386	-0.760592	-1.0875	-0.896354	0.0759283	-0.00897275	-0.497751	-0.643387	-0.310116	-0.312297	-0.386824	-0.568895	-0.152786	-0.147929	-1.01924	-0.565564	
0.729801	1.26495	5	0	0	0	-0.430023	-0.551542	0	0	-0.226796	-0.306908	0	0	-0.78474	-0.612505	-0.828113	-0.980687	-1.20818	-0.884882	-0.633319	-0.748604	-1.08083	-0.879578	0.07233	0.001197	-0.49404	-0.627173	-0.306203	-0.310918	-0.38669	-0.558124	-0.161252	-0.142397	-1.01675	-0.559399	
0.719594	1.2619	5	0	0	0	-0.437229	-0.531176	0	0	-0.227544	-0.27302	0	0	-0.771178	-0.584194	-0.821191	-0.962355	-1.19894	-0.864194	-0.634312	-0.719453	-1.0815	-0.842001	0.0797123	0.0120365	-0.496493	-0.5935	-0.305008	-0.30185	-0.385433	-0.539357	-0.159155	-0.129928	-1.01176	-0.547043	
0.719855	1.26037	5	0	0	0	-0.444435	-0.51081	0	0	-0.228291	-0.239133	0	0	-0.757616	-0.555883	-0.814269	-0.944022	-1.18969	-0.843507	-0.635305	-0.690302	-1.08216	-0.804424	0.0870945	0.022876	-0.498945	-0.559827	-0.303813	-0.292782	-0.384176	-0.52059	-0.157058	-0.117458	-1.00677	-0.534687	
0.726847	1.26343	5	0	0	0	-0.451642	-0.490443	0	0	-0.229038	-0.205245	0	0	-0.744054	-0.527572	-0.807346	-0.92569	-1.18045	-0.822819	-0.636299	-0.66115	-1.08283	-0.766848	0.0944767	0.0337155	-0.501398	-0.526153	-0.302617	-0.283714	-0.382919	-0.501822	-0.154961	-0.104989	-1.00178	-0.522332	
0.736713	1.26343	5	0	0	0	-0.458848	-0.470077	0	0	-0.229786	-0.171357	0	0	-0.730492	-0.499261	-0.800424	-0.907358	-1.17121	-0.802132	-0.637292	-0.631999	-1.0835	-0.729271	0.101859	0.044555	-0.50385	-0.49248	-0.301422	-0.274646	-0.381662	-0.483055	-0.152864	-0.09252	-0.996789	-0.509976	
0.7456	1.25732	5	0	0	0	-0.458848	-0.470077	0	0	-0.228251	-0.15448	0	0	-0.725426	-0.480171	-0.794559	-0.885961	-1.16049	-0.776097	-0.63325	-0.617042	-1.08234	-0.708715	0.0921535	0.056126	-0.510021	-0.475041	-0.305961	-0.261817	-0.380418	-0.464223	-0.154139	-0.0889153	-0.994203	-0.490789	
0.749653	1.26037	5	0	0	0	-0.458848	-0.470077	0	0	-0.226717	-0.137603	0	0	-0.720359	-0.461081	-0.788693	-0.864564	-1.14977	-0.750063	-0.629207	-0.602084	-1.08118	-0.688158	0.082448	0.067697	-0.516192	-0.457602	-0.310501	-0.248987	-0.379175	-0.445391	-0.155415	-0.0853105	-0.991618	-0.471602	
0.745272	1.25732	5	0	0	0	-0.458848	-0.470077	0	0	-0.225183	-0.120726	0	0	-0.715292	-0.441991	-0.782828	-0.843168	-1.13905	-0.724028	-0.625164	-0.587126	-1.08002	-0.667601	0.0727425	0.079268	-0.522362	-0.440163	-0.315041	-0.236157	-0.377932	-0.426558	-0.156691	-0.0817058	-0.989032	-0.452415	
0.732952	1.25427	5	0	0	0	-0.458848	-0.470077	0	0	-0.223648	-0.103849	0	0	-0.710226	-0.422901	-0.776963	-0.821771	-1.12833	-0.697994	-0.621122	-0.572169	-1.07886	-0.647045	0.063037	0.090839	-0.528533	-0.422724	-0.31958	-0.223328	-0.376688	-0.407726	-0.157966	-0.078101	-0.986446	-0.433228	
0.716473	1.25275	5	0	0	0	-0.466356	-0.462558	0	0	-0.227013	-0.0837243	0	0	-0.708621	-0.393968	-0.763659	-0.795911	-1.11422	-0.671934	-0.620134	-0.548542	-1.07468	-0.623037	0.064311	0.103097	-0.523628	-0.409806	-0.316575	-0.219367	-0.378591	-0.391164	-0.15332	-0.072816	-0.976554	-0.421372	
0.699707	1.25275	5	0	0	0	-0.473865	-0.455039	0	0	-0.230377	-0.0635995	0	0	-0.707016	-0.365036	-0.750355	-0.77005	-1.10011	-0.645875	-0.619146	-0.524915	-1.07051	-0.599029	0.065585	0.115354	-0.518723	-0.396888	-0.31357	-0.215406	-0.380495	-0.374603	-0.148675	-0.067531	-0.966662	-0.409517	
0.686525	1.25122	5	0	0	0	-0.481373	-0.44752	0	0	-0.233742	-0.0434747	0	0	-0.70541	-0.336103	-0.73705	-0.74419	-1.08601	-0.619815	-0.618158	-0.501288	-1.06634	-0.575021	0.066859	0.127611	-0.513818	-0.383969	-0.310564	-0.211445	-0.382398	-0.358042	-0.14403	-0.062246	-0.956769	-0.397662	
0.680798	1.24969	5	0	0	0	-0.488881	-0.440001	0	0	-0.237106	-0.02335	0	0	-0.703805	-0.30717	-0.723746	-0.71833	-1.0719	-0.593755	-0.61717	-0.477661	-1.06216	-0.551013	0.068133	0.139869	-0.508913	-0.371051	-0.307559	-0.207484	-0.384301	-0.34148	-0.139384	-0.056961	-0.946877	-0.385806	
0.684718	1.25122	5	0	0	0	-0.501202	-0.41887	0	0	-0.235598	-0.006362	0	0	-0.696243	-0.278224	-0.715224	-0.691491	-1.06066	-0.559364	-0.611131	-0.45503	-1.05676	-0.530387	0.0681932	0.155571	-0.512665	-0.347043	-0.309106	-0.190649	-0.379952	-0.320181	-0.130082	-0.046368	-0.939388	-0.367074	
0.695989	1.25275	5	0	0	0	-0.513524	-0.397739	0	0	-0.23409	0.010626	0	0	-0.688681	-0.249279	-0.706701	-0.664652	-1.04941	-0.524973	-0.605091	-0.432399	-1.05137	-0.509761	0.0682535	0.171273	-0.516417	-0.323035	-0.310653	-0.173814	-0.375603	-0.298882	-0.12078	-0.035775	-0.931898	-0.348343	
0.711573	1.24664	5	0	0	0	-0.525845	-0.376608	0	0	-0.232582	0.027614	0	0	-0.681119	-0.220334	-0.698179	-0.637813	-1.03817	-0.490582	-0.599051	-0.409769	-1.04597	-0.489136	0.0683138	0.186975	-0.520169	-0.299026	-0.3122	-0.156978	-0.371253	-0.277584	-0.111478	-0.025182	-0.924408	-0.329612	
0.728431	1.24512	5	0	0	0	-0.538166	-0.355477	0	0	-0.231074	0.044602	0	0	-0.673557	-0.191388	-0.689656	-0.610974	-1.02693	-0.456191	-0.593012	-0.387138	-1.04058	-0.46851	0.068374	0.202677	-0.523921	-0.275018	-0.313747	-0.140143	-0.366904	-0.256285	-0.102176	-0.014589	-0.916919	-0.31088	
0.743526	1.24359	5	0	0	0	-0.534552	-0.365689	0	0	-0.233146	0.050456	0	0	-0.67104	-0.1817	-0.684876	-0.586197	-1.01862	-0.432248	-0.596118	-0.365108	-1.04801	-0.447505	0.0659553	0.209512	-0.528894	-0.260965	-0.311655	-0.133584	-0.36985	-0.23675	-0.107301	-0.000103	-0.913139	-0.294919	
0.75382	1.24664	5	0	0	0	-0.530939	-0.375901	0	0	-0.235217	0.05631	0	0	-0.668522	-0.172013	-0.680097	-0.561419	-1.01032	-0.408305	-0.599224	-0.343077	-1.05544	-0.4265	0.0635365	0.216348	-0.533866	-0.246912	-0.309563	-0.127025	-0.372796	-0.217215	-0.112427	0.014383	-0.909358	-0.278957	
0.757408	1.24054	5	0	0	0	-0.527326	-0.386114	0	0	-0.237288	0.062164	0	0	-0.666004	-0.162325	-0.675318	-0.536642	-1.00202	-0.384361	-0.60233	-0.321047	-1.06287	-0.405495	0.0611177	0.223184	-0.538838	-0.232859	-0.307472	-0.120466	-0.375741	-0.19768	-0.117553	0.028869	-0.905577	-0.262996	
0.755633	1.24512	5	0	0	0	-0.523712	-0.396326	0	0	-0.23936	0.068018	0	0	-0.663487	-0.152637	-0.670538	-0.511865	-0.993718	-0.360418	-0.605436	-0.299017	-1.07031	-0.38449	0.058699	0.230019	-0.543811	-0.218806	-0.30538	-0.113907	-0.378687	-0.178145	-0.122678	0.043355	-0.901797	-0.247035	
0.750418	1.23901	5	0	0	0	-0.530008	-0.392212	0	0	-0.241433	0.0738763	0	0	-0.660971	-0.142929	-0.662035	-0.484727	-0.985419	-0.336347	-0.606511	-0.282718	-1.071	-0.370549	0.057489	0.233439	-0.545055	-0.215289	-0.312945	-0.104997	-0.376569	-0.172913	-0.11546	0.041426	-0.902948	-0.230445	
0.743685	1.23901	5	0	0	0	-0.536304	-0.388097	0	0	-0.243505	0.0797345	0	0	-0.658456	-0.133221	-0.653532	-0.457589	-0.977119	-0.312276	-0.607586	-0.266419	-1.0717	-0.356608	0.056279	0.236858	-0.5463	-0.211773	-0.320511	-0.0960875	-0.374451	-0.167681	-0.108243	0.039497	-0.904098	-0.213855	
0.737357	1.23901	5	0	0	0	-0.542601	-0.383983	0	0	-0.245578	0.0855927	0	0	-0.65594	-0.123514	-0.645029	-0.43045	-0.96882	-0.288205	-0.60866	-0.250121	-1.07239	-0.342668	0.055069	0.240278	-0.547544	-0.208257	-0.328076	-0.0871777	-0.372334	-0.16245	-0.101026	0.037568	-0.905249	-0.197265	
0.733348	1.23291	5	0	0	0	-0.548897	-0.379869	0	0	-0.247651	0.091451	0	0	-0.653424	-0.113806	-0.636526	-0.403312	-0.960521	-0.264134	-0.609735	-0.233822	-1.07309	-0.328727	0.053859	0.243698	-0.548788	-0.20474	-0.335641	-0.078268	-0.370216	-0.157218	-0.093808	0.035639	-0.9064	-0.180675	
0.732644	1.23443	5	0	0	0	-0.551038	-0.360137	0	0	-0.25358	0.0975775	0	0	-0.652656	-0.0991433	-0.624282	-0.373756	-0.96733	-0.24489	-0.610822	-0.21748	-1.07255	-0.318272	0.0441325	0.255314	-0.551278	-0.197703	-0.330814	-0.0794378	-0.373264	-0.148605	-0.10616	0.0520775	-0.892827	-0.178965	
0.734378	1.23443	5	0	0	0	-0.55318	-0.340404	0	0	-0.259508	0.103704	0	0	-0.651888	-0.0844805	-0.612038	-0.344201	-0.974139	-0.225646	-0.611908	-0.201138	-1.07201	-0.307817	0.034406	0.266931	-0.553769	-0.190665	-0.325987	-0.0806075	-0.376312	-0.139991	-0.118511	0.068516	-0.879254	-0.177254	
0.737461	1.23138	5	0	0	0	-0.555322	-0.320671	0	0	-0.265437	0.10983	0	0	-0.65112	-0.0698178	-0.599793	-0.314645	-0.980949	-0.206402	-0.612995	-0.184796	-1.07147	-0.297362	0.0246795	0.278548	-0.556259	-0.183627	-0.321161	-0.0817773	-0.379359	-0.131378	-0.130862	0.0849545	-0.865681	-0.175544	
0.740803	1.23138	5	0	0	0	-0.557463	-0.300939	0	0	-0.271365	0.115957	0	0	-0.650352	-0.055155	-0.587549	-0.285089	-0.987758	-0.187158	-0.614082	-0.168454	-1.07093	-0.286907	0.014953	0.290164	-0.558749	-0.17659	-0.316334	-0.082947	-0.382407	-0.122765	-0.143214	0.101393	-0.852108	-0.173834	
0.743316	1.22833	5	0	0	0	-0.560141	-0.307053	0	0	-0.272108	0.107436	0	0	-0.6521	-0.0502168	-0.581721	-0.262957	-0.9902	-0.170735	-0.615181	-0.152068	-1.07342	-0.279869	0.0137418	0.293588	-0.561241	-0.169547	-0.321819	-0.067447	-0.38953	-0.102635	-0.139856	0.110372	-0.85327	-0.157176	
0.743919	1.22681	5	0	0	0	-0.562818	-0.313167	0	0	-0.272851	0.098914	0	0	-0.653847	-0.0452785	-0.575893	-0.240825	-0.992643	-0.154312	-0.61628	-0.135682	-1.07591	-0.272832	0.0125305	0.297011	-0.563733	-0.162504	-0.327303	-0.051947	-0.396652	-0.0825045	-0.136499	0.11935	-0.854431	-0.140518	
0.742234	1.23138	5	0	0	0	-0.565496	-0.31928	0	0	-0.273594	0.0903925	0	0	-0.655594	-0.0403403	-0.570065	-0.218694	-0.995085	-0.13789	-0.617378	-0.119297	-1.0784	-0.265795	0.0113192	0.300435	-0.566225	-0.155461	-0.332788	-0.036447	-0.403775	-0.0623742	-0.133141	0.128329	-0.855592	-0.12386	
0.739112	1.22986	5	0	0	0	-0.568173	-0.325394	0	0	-0.274337	0.081871	0	0	-0.657342	-0.035402	-0.564237	-0.196562	-0.997527	-0.121467	-0.618477	-0.102911	-1.08089	-0.258757	0.010108	0.303859	-0.568717	-0.148418	-0.338272	-0.020947	-0.410898	-0.042244	-0.129783	0.137308	-0.856754	-0.107202	
0.735528	1.23291	5	0	0	0	-0.572054	-0.328095	0	0	-0.275373	0.0847985	0	0	-0.665089	-0.0303398	-0.565928	-0.178899	-0.986339	-0.105414	-0.622605	-0.0912447	-1.08213	-0.255236	0.00768375	0.31071	-0.574887	-0.144387	-0.334359	-0.0195275	-0.412936	-0.0364842	-0.133645	0.148224	-0.851815	-0.107776	
0.732457	1.24054	5	0	0	0	-0.575936	-0.330796	0	0	-0.276409	0.087726	0	0	-0.672837	-0.0252775	-0.567618	-0.161236	-0.975151	-0.0893605	-0.626733	-0.0795785	-1.08338	-0.251715	0.0052595	0.317561	-0.581056	-0.140355	-0.330446	-0.018108	-0.414974	-0.0307245	-0.137508	0.159139	-0.846876	-0.10835	
0.730873	1.24359	5	0	0	0	-0.579817	-0.333496	0	0	-0.277445	0.0906535	0	0	-0.680584	-0.0202153	-0.569308	-0.143573	-0.963963	-0.0733073	-0.630861	-0.0679123	-1.08463	-0.248195	0.00283525	0.324413	-0.587225	-0.136324	-0.326532	-0.0166885	-0.417012	-0.0249648	-0.14137	0.170054	-0.841936	-0.108924	
0.731725	1.24817	5	0	0	0	-0.583698	-0.336197	0	0	-0.278481	0.093581	0	0	-0.688331	-0.015153	-0.570999	-0.12591	-0.952775	-0.057254	-0.634989	-0.056246	-1.08587	-0.244674	0.000411	0.331264	-0.593395	-0.132293	-0.322619	-0.015269	-0.41905	-0.019205	-0.145232	0.18097	-0.836997	-0.109498	
0.735084	1.25732	5	0	0	0	-0.588268	-0.309613	0	0	-0.279815	0.107972	0	0	-0.691828	-0.0052685	-0.57489	-0.102019	-0.950373	-0.0353798	-0.635074	-0.0427145	-1.09263	-0.237548	0.00164725	0.343642	-0.58972	-0.129275	-0.319619	-0.01126	-0.412795	-0.014427	-0.143171	0.193632	-0.844379	-0.10202	
0.74	1.25885	5	0	0	0	-0.592837	-0.283029	0	0	-0.281149	0.122364	0	0	-0.695326	0.004616	-0.578781	-0.078129	-0.947971	-0.0135055	-0.63516	-0.029183	-1.09939	-0.230423	0.0028835	0.356019	-0.586045	-0.126258	-0.316619	-0.007251	-0.406541	-0.009649	-0.14111	0.206294	-0.851762	-0.0945415	
0.745464	1.26495	5	0	0	0	-0.597406	-0.256445	0	0	-0.282482	0.136755	0	0	-0.698824	0.0145005	-0.582672	-0.0542385	-0.94557	0.00836875	-0.635246	-0.0156515	-1.10615	-0.223297	0.00411975	0.368397	-0.582369	-0.123241	-0.313618	-0.003242	-0.400286	-0.004871	-0.139049	0.218957	-0.859144	-0.0870633	
0.750468	1.26648	5	0	0	0	-0.601976	-0.229861	0	0	-0.283816	0.151146	0	0	-0.702321	0.024385	-0.586563	-0.030348	-0.943168	0.030243	-0.635331	-0.00212	-1.11292	-0.216171	0.005356	0.380775	-0.578694	-0.120223	-0.310618	0.000767	-0.394032	-9.3E-05	-0.136988	0.231619	-0.866526	-0.079585	
0.754003	1.27258	5	0	0	0	-0.604643	-0.235993	0	0	-0.285592	0.145543	0	0	-0.710061	0.0294425	-0.588287	-0.012571	-0.950516	0.0414525	-0.634388	0.0085135	-1.11416	-0.212647	0.00780375	0.389742	-0.589858	-0.102078	-0.317038	0.0189108	-0.396013	0.0167423	-0.133638	0.240658	-0.870194	-0.0692187	
0.755083	1.27716	5	0	0	0	-0.60731	-0.242125	0	0	-0.287368	0.13994	0	0	-0.717801	0.0345	-0.590012	0.005206	-0.957865	0.052662	-0.633444	0.019147	-1.11541	-0.209124	0.0102515	0.398709	-0.601021	-0.0839325	-0.323458	0.0370545	-0.397994	0.0335775	-0.130289	0.249697	-0.873862	-0.0588525	
0.753562	1.27563	5	0	0	0	-0.609978	-0.248258	0	0	-0.289144	0.134338	0	0	-0.725542	0.0395575	-0.591736	0.022983	-0.965214	0.0638715	-0.632501	0.0297805	-1.11666	-0.205601	0.0126993	0.407677	-0.612185	-0.0657872	-0.329878	0.0551982	-0.399974	0.0504127	-0.12694	0.258736	-0.87753	-0.0484863	
0.750387	1.27869	5	0	0	0	-0.612645	-0.25439	0	0	-0.29092	0.128735	0	0	-0.733282	0.044615	-0.593461	0.04076	-0.972562	0.075081	-0.631558	0.040414	-1.1179	-0.202077	0.015147	0.416644	-0.623348	-0.047642	-0.336298	0.073342	-0.401955	0.067248	-0.12359	0.267775	-0.881198	-0.03812	
0.746579	1.27563	5	0	0	0	-0.612645	-0.25439	0	0	-0.29092	0.128735	0	0	-0.733282	0.044615	-0.601143	0.06247	-0.980896	0.0890792	-0.638716	0.047343	-1.12092	-0.205522	0.00661875	0.424861	-0.62085	-0.0547018	-0.337216	0.075937	-0.406104	0.0677367	-0.120241	0.276832	-0.888616	-0.0438967	
0.743159	1.27869	5	0	0	0	-0.612645	-0.25439	0	0	-0.29092	0.128735	0	0	-0.733282	0.044615	-0.608824	0.08418	-0.989229	0.103077	-0.645873	0.054272	-1.12394	-0.208966	-0.0019095	0.433078	-0.618352	-0.0617615	-0.338135	0.078532	-0.410253	0.0682255	-0.116891	0.28589	-0.896035	-0.0496735	
0.741147	1.28021	5	0	0	0	-0.612645	-0.25439	0	0	-0.29092	0.128735	0	0	-0.733282	0.044615	-0.616506	0.10589	-0.997563	0.117076	-0.653031	0.061201	-1.12696	-0.212411	-0.0104378	0.441294	-0.615854	-0.0688213	-0.339053	0.081127	-0.414403	0.0687143	-0.113542	0.294948	-0.903453	-0.0554502	
0.74152	1.27563	5	0	0	0	-0.612645	-0.25439	0	0	-0.29092	0.128735	0	0	-0.733282	0.044615	-0.624188	0.1276	-1.0059	0.131074	-0.660189	0.06813	-1.12997	-0.215856	-0.018966	0.449511	-0.613356	-0.075881	-0.339971	0.083722	-0.418552	0.069203	-0.110192	0.304005	-0.910871	-0.061227	
0.744081	1.27563	5	0	0	0	-0.613606	-0.238003	0	0	-0.291221	0.140207	0	0	-0.741016	0.0496682	-0.624845	0.142367	-1.00885	0.139427	-0.660189	0.06813	-1.12997	-0.215856	-0.0201835	0.452952	-0.619521	-0.0718528	-0.339053	0.081127	-0.417529	0.0663135	-0.108897	0.300346	-0.913356	-0.0675605	
0.747375	1.27258	5	0	0	0	-0.614568	-0.221615	0	0	-0.291521	0.151679	0	0	-0.748749	0.0547215	-0.625501	0.157135	-1.01181	0.14778	-0.660189	0.06813	-1.12997	-0.215856	-0.021401	0.456393	-0.625686	-0.0678245	-0.338135	0.078532	-0.416507	0.063424	-0.107602	0.296687	-0.915841	-0.073894	
0.749884	1.27258	5	0	0	0	-0.61553	-0.205228	0	0	-0.291822	0.163152	0	0	-0.756482	0.0597748	-0.626158	0.171903	-1.01476	0.156132	-0.660189	0.06813	-1.12997	-0.215856	-0.0226185	0.459834	-0.631851	-0.0637962	-0.337216	0.075937	-0.415484	0.0605345	-0.106308	0.293027	-0.918326	-0.0802275	
0.750088	1.26953	5	0	0	0	-0.616491	-0.18884	0	0	-0.292123	0.174624	0	0	-0.764216	0.064828	-0.626815	0.18667	-1.01772	0.164485	-0.660189	0.06813	-1.12997	-0.215856	-0.023836	0.463275	-0.638016	-0.059768	-0.336298	0.073342	-0.414462	0.057645	-0.105013	0.289368	-0.920811	-0.086561	
0.74647	1.268	5	0	0	0	-0.616737	-0.201815	0	0	-0.294935	0.171949	0	0	-0.776164	0.0650362	-0.637595	0.191323	-1.02552	0.167442	-0.671381	0.0731912	-1.14524	-0.208587	-0.0274912	0.473605	-0.645425	-0.0522133	-0.341811	0.0889233	-0.421676	0.0668025	-0.111492	0.30768	-0.929434	-0.0888743	
0.737619	1.26343	5	0	0	0	-0.616983	-0.214789	0	0	-0.297747	0.169274	0	0	-0.788112	0.0652445	-0.648376	0.195975	-1.03332	0.170399	-0.682573	0.0782525	-1.16051	-0.201319	-0.0311465	0.483936	-0.652834	-0.0446585	-0.347324	0.104505	-0.42889	0.07596	-0.117971	0.325991	-0.938057	-0.0911875	
0.724304	1.2619	5	0	0	0	-0.617229	-0.227764	0	0	-0.300559	0.166599	0	0	-0.800061	0.0654528	-0.659157	0.200627	-1.04113	0.173356	-0.693766	0.0833137	-1.17577	-0.194051	-0.0348017	0.494266	-0.660244	-0.0371037	-0.352838	0.120086	-0.436104	0.0851175	-0.124451	0.344303	-0.946681	-0.0935007	
0.709321	1.25885	5	0	0	0	-0.617475	-0.240738	0	0	-0.303371	0.163924	0	0	-0.812009	0.065661	-0.669937	0.20528	-1.04893	0.176313	-0.704958	0.088375	-1.19104	-0.186782	-0.038457	0.504596	-0.667653	-0.029549	-0.358351	0.135667	-0.443318	0.094275	-0.13093	0.362615	-0.955304	-0.095814	
0.695542	1.25732	5	0	0	0	-0.62763	-0.23935	0	0	-0.305448	0.169793	0	0	-0.816228	0.060827	-0.684428	0.207578	-1.05574	0.176482	-0.713027	0.0846457	-1.20005	-0.197109	-0.038457	0.504596	-0.670064	-0.03611	-0.356512	0.13047	-0.444395	0.0860935	-0.132227	0.366282	-0.97008	-0.107309	
0.68584	1.25427	5	0	0	0	-0.637784	-0.237961	0	0	-0.307525	0.175663	0	0	-0.820447	0.055993	-0.698919	0.209876	-1.06255	0.17665	-0.721095	0.0809165	-1.20907	-0.207437	-0.038457	0.504596	-0.672476	-0.042671	-0.354673	0.125274	-0.445471	0.077912	-0.133525	0.369949	-0.984856	-0.118804	
0.683087	1.25427	5	0	0	0	-0.647939	-0.236573	0	0	-0.309602	0.181533	0	0	-0.824666	0.051159	-0.71341	0.212175	-1.06935	0.176818	-0.729163	0.0771872	-1.21809	-0.217764	-0.038457	0.504596	-0.674887	-0.049232	-0.352834	0.120077	-0.446547	0.0697305	-0.134822	0.373615	-0.999632	-0.130299	
0.689008	1.25122	5	0	0	0	-0.658094	-0.235185	0	0	-0.311679	0.187402	0	0	-0.828885	0.046325	-0.727901	0.214473	-1.07616	0.176987	-0.737232	0.073458	-1.2271	-0.228092	-0.038457	0.504596	-0.677298	-0.055793	-0.350995	0.11488	-0.447624	0.061549	-0.13612	0.377282	-1.01441	-0.141794	
0.701539	1.24969	5	0	0	0	-0.653985	-0.219488	0	0	-0.313029	0.20184	0	0	-0.836591	0.05136	-0.744975	0.211311	-1.08833	0.182798	-0.749313	0.0678717	-1.23858	-0.23138	-0.032365	0.503265	-0.679709	-0.062344	-0.355824	0.116038	-0.448703	0.0533805	-0.127586	0.371706	-1.03036	-0.149827	
0.717832	1.24969	5	0	0	0	-0.649876	-0.20379	0	0	-0.314379	0.216277	0	0	-0.844296	0.056395	-0.76205	0.208149	-1.1005	0.188609	-0.761393	0.0622855	-1.25006	-0.234669	-0.026273	0.501934	-0.682121	-0.068895	-0.360652	0.117196	-0.449781	0.045212	-0.119052	0.366129	-1.0463	-0.157859	
0.735043	1.24512	5	0	0	0	-0.645766	-0.188093	0	0	-0.315729	0.230715	0	0	-0.852001	0.06143	-0.779124	0.204987	-1.11266	0.194419	-0.773473	0.0566992	-1.26155	-0.237957	-0.020181	0.500602	-0.684532	-0.075446	-0.365481	0.118355	-0.45086	0.0370435	-0.110518	0.360553	-1.06225	-0.165891	
0.750324	1.24359	5	0	0	0	-0.641657	-0.172396	0	0	-0.317079	0.245152	0	0	-0.859707	0.066465	-0.796198	0.201825	-1.12483	0.20023	-0.785554	0.051113	-1.27303	-0.241245	-0.014089	0.499271	-0.686944	-0.081997	-0.37031	0.119513	-0.451938	0.028875	-0.101984	0.354977	-1.0782	-0.173924	
0.76083	1.23901	5	0	0	0	-0.648181	-0.181268	0	0	-0.314998	0.239271	0	0	-0.873352	0.0715887	-0.809938	0.189381	-1.13304	0.19491	-0.790499	0.0386512	-1.28573	-0.24103	-0.014089	0.499271	-0.694338	-0.074458	-0.372148	0.124708	-0.456077	0.029363	-0.103282	0.358645	-1.08922	-0.182499	
0.764457	1.24206	5	0	0	0	-0.654705	-0.19014	0	0	-0.312917	0.23339	0	0	-0.886997	0.0767125	-0.823678	0.176936	-1.14126	0.189591	-0.795444	0.0261895	-1.29842	-0.240816	-0.014089	0.499271	-0.701731	-0.066919	-0.373986	0.129904	-0.460217	0.029851	-0.10458	0.362313	-1.10024	-0.191074	
0.76229	1.23901	5	0	0	0	-0.66123	-0.199013	0	0	-0.310836	0.227509	0	0	-0.900642	0.0818362	-0.837418	0.164492	-1.14947	0.184272	-0.80039	0.0137278	-1.31112	-0.240601	-0.014089	0.499271	-0.709124	-0.05938	-0.375825	0.135099	-0.464356	0.030339	-0.105878	0.365982	-1.11127	-0.199648	
0.756275	1.23901	5	0	0	0	-0.667754	-0.207885	0	0	-0.308755	0.221628	0	0	-0.914287	0.08696	-0.851158	0.152048	-1.15768	0.178952	-0.805335	0.001266	-1.32382	-0.240387	-0.014089	0.499271	-0.716518	-0.051841	-0.377663	0.140294	-0.468495	0.030827	-0.107176	0.36965	-1.12229	-0.208223	
0.748354	1.23901	5	0	0	0	-0.67041	-0.214019	0	0	-0.312604	0.221883	0	0	-0.914287	0.08696	-0.865954	0.14273	-1.17167	0.171028	-0.812337	-0.0053465	-1.33278	-0.250669	-0.028695	0.492934	-0.718924	-0.0583895	-0.390289	0.138563	-0.481915	0.0351653	-0.134776	0.373595	-1.1345	-0.213367	
0.740472	1.23443	5	0	0	0	-0.673066	-0.220152	0	0	-0.316453	0.222139	0	0	-0.914287	0.08696	-0.88075	0.133412	-1.18566	0.163105	-0.819339	-0.011959	-1.34174	-0.26095	-0.043301	0.486597	-0.721329	-0.064938	-0.402915	0.136832	-0.495336	0.0395035	-0.162377	0.377541	-1.1467	-0.21851	
0.734573	1.23749	5	0	0	0	-0.675722	-0.226285	0	0	-0.320301	0.222394	0	0	-0.914287	0.08696	-0.895547	0.124095	-1.19964	0.155181	-0.826341	-0.0185715	-1.3507	-0.271232	-0.057907	0.48026	-0.723734	-0.0714865	-0.41554	0.135102	-0.508757	0.0438417	-0.189977	0.381487	-1.15891	-0.223654	
0.73197	1.23443	5	0	0	0	-0.678378	-0.232419	0	0	-0.32415	0.222649	0	0	-0.914287	0.08696	-0.910343	0.114777	-1.21363	0.147258	-0.833343	-0.025184	-1.35966	-0.281514	-0.072513	0.473923	-0.72614	-0.078035	-0.428166	0.133371	-0.522177	0.04818	-0.217578	0.385432	-1.17112	-0.228798	
0.732088	1.23138	5	0	0	0	-0.680792	-0.225596	0	0	-0.332879	0.226094	0	0	-0.912543	0.08203	-0.91446	0.100897	-1.2266	0.13659	-0.841363	-0.0288802	-1.36562	-0.288353	-0.0822285	0.469705	-0.72614	-0.078035	-0.43504	0.127896	-0.525286	0.0457835	-0.229392	0.3819	-1.17844	-0.234493	
0.733997	1.23291	5	0	0	0	-0.683206	-0.218774	0	0	-0.341609	0.22954	0	0	-0.910798	0.0771	-0.918577	0.0870175	-1.23958	0.125921	-0.849384	-0.0325765	-1.37159	-0.295191	-0.091944	0.465487	-0.72614	-0.078035	-0.441913	0.122421	-0.528395	0.043387	-0.241206	0.378369	-1.18576	-0.240188	
0.736768	1.24969	5	0	0	0	-0.68562	-0.211952	0	0	-0.350338	0.232985	0	0	-0.909054	0.07217	-0.922693	0.0731378	-1.25255	0.115252	-0.857405	-0.0362727	-1.37755	-0.302029	-0.101659	0.461268	-0.72614	-0.078035	-0.448786	0.116946	-0.531504	0.0409905	-0.25302	0.374838	-1.19308	-0.245884	
0.739471	1.23291	5	0	0	0	-0.688034	-0.205129	0	0	-0.359068	0.23643	0	0	-0.90731	0.06724	-0.92681	0.059258	-1.26553	0.104584	-0.865425	-0.039969	-1.38352	-0.308868	-0.111375	0.45705	-0.72614	-0.078035	-0.45566	0.111471	-0.534613	0.038594	-0.264834	0.371306	-1.2004	-0.251579	
0.741178	1.23291	5	0	0	0	-0.704426	-0.199663	0	0	-0.374418	0.237432	0	0	-0.918484	0.082124	-0.938959	0.055385	-1.28281	0.0967843	-0.87446	-0.0407602	-1.39317	-0.305238	-0.11987	0.465241	-0.731124	-0.063949	-0.460468	0.112621	-0.532524	0.043872	-0.272024	0.373194	-1.21497	-0.249907	
0.7413	1.22833	5	0	0	0	-0.720819	-0.194197	0	0	-0.389768	0.238434	0	0	-0.929659	0.097008	-0.951107	0.051512	-1.30009	0.0889845	-0.883495	-0.0415515	-1.40283	-0.301609	-0.128366	0.473433	-0.736109	-0.049863	-0.465276	0.113771	-0.530434	0.04915	-0.279214	0.375083	-1.22954	-0.248235	
0.740079	1.23291	5	0	0	0	-0.737211	-0.188731	0	0	-0.405118	0.239435	0	0	-0.940833	0.111892	-0.963256	0.047639	-1.31737	0.0811847	-0.89253	-0.0423427	-1.41249	-0.297979	-0.136861	0.481624	-0.741093	-0.035777	-0.470084	0.114921	-0.528344	0.054428	-0.286404	0.376972	-1.24411	-0.246564	
0.73788	1.22986	5	0	0	0	-0.753603	-0.183265	0	0	-0.420468	0.240437	0	0	-0.952008	0.126776	-0.975404	0.043766	-1.33465	0.073385	-0.901565	-0.043134	-1.42215	-0.294349	-0.145357	0.489815	-0.746077	-0.021691	-0.474892	0.116071	-0.526255	0.059706	-0.293594	0.37886	-1.25867	-0.244892	
0.735068	1.23443	5	0	0	0	-0.761295	-0.188717	0	0	-0.426054	0.235071	0	0	-0.957941	0.12686	-0.990116	0.0345235	-1.34279	0.0681158	-0.904538	-0.0478795	-1.43056	-0.294212	-0.151416	0.491134	-0.74483	-0.0252145	-0.484497	0.118366	-0.530383	0.0601877	-0.307951	0.382625	-1.26232	-0.247737	
0.73201	1.23749	5	0	0	0	-0.768987	-0.194169	0	0	-0.43164	0.229705	0	0	-0.963874	0.126945	-1.00483	0.025281	-1.35092	0.0628465	-0.907512	-0.052625	-1.43897	-0.294076	-0.157474	0.492452	-0.743583	-0.028738	-0.494102	0.120661	-0.53451	0.0606695	-0.322308	0.386389	-1.26597	-0.250582	
0.729069	1.24359	5	0	0	0	-0.776679	-0.199622	0	0	-0.437227	0.224339	0	0	-0.969806	0.127029	-1.01954	0.0160385	-1.35905	0.0575773	-0.910486	-0.0573705	-1.44739	-0.293939	-0.163533	0.493771	-0.742337	-0.0322615	-0.503707	0.122955	-0.538638	0.0611513	-0.336664	0.390154	-1.26961	-0.253426	
0.726407	1.25427	5	0	0	0	-0.784371	-0.205074	0	0	-0.442813	0.218973	0	0	-0.975739	0.127113	-1.03425	0.006796	-1.36719	0.052308	-0.913459	-0.062116	-1.4558	-0.293802	-0.169592	0.49509	-0.74109	-0.035785	-0.513312	0.12525	-0.542766	0.061633	-0.351021	0.393919	-1.27326	-0.256271	
0.72388	1.26495	5	0	0	0	-0.785576	-0.201669	0	0	-0.447677	0.222151	0	0	-0.975739	0.127113	-1.05	0.00063275	-1.37196	0.0469678	-0.917456	-0.0639597	-1.46	-0.293735	-0.168377	0.491657	-0.737441	-0.0327505	-0.524949	0.120924	-0.544805	0.0673965	-0.366638	0.401317	-1.27326	-0.256271	
0.721312	1.27869	5	0	0	0	-0.78678	-0.198263	0	0	-0.452541	0.22533	0	0	-0.975739	0.127113	-1.06576	-0.0055305	-1.37672	0.0416275	-0.921453	-0.0658035	-1.4642	-0.293668	-0.167163	0.488224	-0.733793	-0.029716	-0.536586	0.116597	-0.546844	0.07316	-0.382255	0.408714	-1.27326	-0.256271	
0.718529	1.29547	5	0	0	0	-0.787985	-0.194858	0	0	-0.457404	0.228508	0	0	-0.975739	0.127113	-1.08151	-0.0116937	-1.38149	0.0362873	-0.92545	-0.0676472	-1.4684	-0.293601	-0.165948	0.484792	-0.730144	-0.0266815	-0.548223	0.112271	-0.548884	0.0789235	-0.397871	0.416112	-1.27326	-0.256271	
0.715358	1.3092	5	0	0	0	-0.78919	-0.191452	0	0	-0.462268	0.231686	0	0	-0.975739	0.127113	-1.09726	-0.017857	-1.38626	0.030947	-0.929447	-0.069491	-1.4726	-0.293534	-0.164734	0.481359	-0.726495	-0.023647	-0.55986	0.107945	-0.550923	0.084687	-0.413488	0.42351	-1.27326	-0.256271	
0.711643	1.31988	5	0	0	0	-0.802892	-0.17988	0	0	-0.469915	0.232179	0	0	-0.985155	0.137058	-1.09726	-0.017857	-1.39631	0.0311835	-0.931497	-0.0636957	-1.47384	-0.29005	-0.168379	0.491661	-0.725342	-0.0135498	-0.558946	0.105361	-0.549859	0.092862	-0.410906	0.416214	-1.27566	-0.249472	
0.707496	1.33667	5	0	0	0	-0.816593	-0.168308	0	0	-0.477561	0.232672	0	0	-0.994572	0.147004	-1.09726	-0.017857	-1.40637	0.03142	-0.933548	-0.0579005	-1.47507	-0.286567	-0.172024	0.501964	-0.724189	-0.0034525	-0.558032	0.102777	-0.548794	0.101037	-0.408324	0.408917	-1.27807	-0.242673	
0.703228	1.3504	5	0	0	0	-0.830295	-0.156736	0	0	-0.485208	0.233164	0	0	-1.00399	0.156949	-1.09726	-0.017857	-1.41643	0.0316565	-0.935598	-0.0521052	-1.4763	-0.283083	-0.17567	0.512266	-0.723035	0.00664475	-0.557117	0.100194	-0.547729	0.109212	-0.405743	0.401621	-1.28048	-0.235873	
0.699152	1.35193	5	0	0	0	-0.843997	-0.145164	0	0	-0.492854	0.233657	0	0	-1.0134	0.166894	-1.09726	-0.017857	-1.42648	0.031893	-0.937649	-0.04631	-1.47753	-0.279599	-0.179315	0.522569	-0.721882	0.016742	-0.556203	0.09761	-0.546665	0.117387	-0.403161	0.394325	-1.28288	-0.229074	
0.695584	1.36719	5	0	0	0	-0.845419	-0.154705	0	0	-0.502236	0.228542	0	0	-1.01584	0.157112	-1.09726	-0.017857	-1.43793	0.026718	-0.937649	-0.04631	-1.49677	-0.272384	-0.174474	0.524691	-0.721882	0.016742	-0.560991	0.0987528	-0.54458	0.122685	-0.411602	0.399841	-1.28773	-0.228523	
0.692836	1.36719	5	0	0	0	-0.846842	-0.164245	0	0	-0.511618	0.223426	0	0	-1.01827	0.14733	-1.09726	-0.017857	-1.44937	0.021543	-0.937649	-0.04631	-1.51601	-0.26517	-0.169633	0.526813	-0.721882	0.016742	-0.565778	0.0998955	-0.542496	0.127984	-0.420044	0.405357	-1.29257	-0.227971	
0.691039	1.37329	5	0	0	0	-0.848264	-0.173786	0	0	-0.521001	0.21831	0	0	-1.0207	0.137549	-1.09726	-0.017857	-1.46081	0.016368	-0.937649	-0.04631	-1.53525	-0.257955	-0.164791	0.528935	-0.721882	0.016742	-0.570566	0.101038	-0.540411	0.133282	-0.428486	0.410873	-1.29742	-0.22742	
0.689721	1.38092	5	0	0	0	-0.849687	-0.183327	0	0	-0.530383	0.213195	0	0	-1.02313	0.127767	-1.09726	-0.017857	-1.47226	0.011193	-0.937649	-0.04631	-1.55448	-0.25074	-0.15995	0.531057	-0.721882	0.016742	-0.575354	0.102181	-0.538326	0.13858	-0.436927	0.416389	-1.30226	-0.226869	
0.688293	1.37329	5	0	0	0	-0.848483	-0.186728	0	0	-0.528315	0.20735	0	0	-1.02556	0.118005	-1.09984	-0.023211	-1.47463	0.008531	-0.942667	-0.0452593	-1.55448	-0.25074	-0.155104	0.53318	-0.728029	0.0207587	-0.58218	0.0967212	-0.534195	0.138103	-0.43177	0.401815	-1.3071	-0.226319	
0.686163	1.37482	5	0	0	0	-0.84728	-0.19013	0	0	-0.526247	0.201506	0	0	-1.02799	0.108243	-1.10242	-0.028565	-1.477	0.005869	-0.947685	-0.0442085	-1.55448	-0.25074	-0.150259	0.535303	-0.734177	0.0247755	-0.589006	0.0912615	-0.530064	0.137625	-0.426613	0.38724	-1.31194	-0.225769	
0.682742	1.37176	5	0	0	0	-0.846077	-0.193531	0	0	-0.524179	0.195661	0	0	-1.03043	0.098481	-1.105	-0.033919	-1.47937	0.003207	-0.952703	-0.0431577	-1.55448	-0.25074	-0.145413	0.537426	-0.740324	0.0287922	-0.595833	0.0858017	-0.525934	0.137148	-0.421456	0.372665	-1.31678	-0.225219	
0.677509	1.37024	5	0	0	0	-0.844873	-0.196933	0	0	-0.522111	0.189816	0	0	-1.03286	0.088719	-1.10759	-0.039273	-1.48175	0.000545	-0.957721	-0.042107	-1.55448	-0.25074	-0.140567	0.539549	-0.746471	0.032809	-0.602659	0.080342	-0.521803	0.13667	-0.416299	0.358091	-1.32162	-0.224669	
0.670921	1.36871	5	0	0	0	-0.852313	-0.189456	0	0	-0.529736	0.190308	0	0	-1.04051	0.093718	-1.11017	-0.0446203	-1.48939	0.0034365	-0.96376	-0.038161	-1.55572	-0.247258	-0.144222	0.549879	-0.746471	0.032809	-0.606525	0.0789037	-0.521803	0.13667	-0.431869	0.365467	-1.32646	-0.224121	
0.664135	1.36566	5	0	0	0	-0.859754	-0.18198	0	0	-0.537362	0.1908	0	0	-1.04816	0.098717	-1.11275	-0.0499675	-1.49704	0.006328	-0.969799	-0.034215	-1.55695	-0.243776	-0.147877	0.56021	-0.746471	0.032809	-0.61039	0.0774655	-0.521803	0.13667	-0.44744	0.372842	-1.3313	-0.223572	
0.658327	1.35803	5	0	0	0	-0.867194	-0.174503	0	0	-0.544987	0.191292	0	0	-1.05581	0.103716	-1.11533	-0.0553148	-1.50468	0.0092195	-0.975838	-0.030269	-1.55818	-0.240293	-0.151533	0.570541	-0.746471	0.032809	-0.614256	0.0760273	-0.521803	0.13667	-0.46301	0.380217	-1.33613	-0.223024	
0.654672	1.35345	5	0	0	0	-0.874634	-0.167026	0	0	-0.552612	0.191784	0	0	-1.06346	0.108715	-1.11791	-0.060662	-1.51233	0.012111	-0.981877	-0.026323	-1.55941	-0.236811	-0.155188	0.580871	-0.746471	0.032809	-0.618122	0.074589	-0.521803	0.13667	-0.478581	0.387593	-1.34097	-0.222475	
0.654311	1.34735	5	0	0	0	-0.878679	-0.182668	0	0	-0.552293	0.180363	0	0	-1.07179	0.0990505	-1.1336	-0.0667925	-1.51943	0.00413325	-0.979827	-0.0321165	-1.5636	-0.236754	-0.155188	0.580871	-0.745222	0.0292785	-0.621985	0.0731515	-0.51767	0.136191	-0.48571	0.389454	-1.33373	-0.229818	
0.657117	1.34735	5	0	0	0	-0.882723	-0.198309	0	0	-0.551974	0.168941	0	0	-1.08012	0.089386	-1.14929	-0.072923	-1.52653	-0.0038445	-0.977777	-0.03791	-1.56778	-0.236696	-0.155188	0.580871	-0.743972	0.025748	-0.625849	0.071714	-0.513536	0.135713	-0.492839	0.391316	-1.32649	-0.23716	
0.66127	1.34125	5	0	0	0	-0.886768	-0.21395	0	0	-0.551655	0.15752	0	0	-1.08845	0.0797215	-1.16498	-0.0790535	-1.53363	-0.0118223	-0.975727	-0.0437035	-1.57197	-0.236639	-0.155188	0.580871	-0.742723	0.0222175	-0.629712	0.0702765	-0.509402	0.135234	-0.499969	0.393177	-1.31925	-0.244502	
0.664836	1.33819	5	0	0	0	-0.890812	-0.229592	0	0	-0.551336	0.146098	0	0	-1.09677	0.070057	-1.18067	-0.085184	-1.54073	-0.0198	-0.973677	-0.049497	-1.57615	-0.236582	-0.155188	0.580871	-0.741474	0.018687	-0.633575	0.068839	-0.505269	0.134755	-0.507098	0.395038	-1.31201	-0.251845	
0.665882	1.33362	5	0	0	0	-0.892237	-0.239088	0	0	-0.555859	0.137859	0	0	-1.10336	0.055523	-1.19268	-0.0890165	-1.55158	-0.0357815	-0.981646	-0.0531887	-1.58082	-0.246901	-0.152751	0.573983	-0.752404	0.009566	-0.639473	0.060821	-0.506336	0.126567	-0.501954	0.380499	-1.33014	-0.253039	
0.662472	1.32751	5	0	0	0	-0.893661	-0.248584	0	0	-0.560382	0.129619	0	0	-1.10994	0.040989	-1.20469	-0.092849	-1.56243	-0.051763	-0.989616	-0.0568805	-1.58549	-0.25722	-0.150313	0.567095	-0.763335	0.000445	-0.645371	0.052803	-0.507404	0.11838	-0.496809	0.36596	-1.34826	-0.254234	
0.654062	1.32599	5	0	0	0	-0.895085	-0.258079	0	0	-0.564905	0.12138	0	0	-1.11653	0.026455	-1.21669	-0.0966815	-1.57328	-0.0677445	-0.997586	-0.0605723	-1.59016	-0.267539	-0.147876	0.560206	-0.774266	-0.008676	-0.651268	0.044785	-0.508471	0.110192	-0.491665	0.351421	-1.36639	-0.255429	
0.644379	1.32294	5	0	0	0	-0.89651	-0.267575	0	0	-0.569428	0.113141	0	0	-1.12311	0.011921	-1.2287	-0.100514	-1.58413	-0.083726	-1.00555	-0.064264	-1.59483	-0.277858	-0.145439	0.553318	-0.785196	-0.017797	-0.657166	0.036767	-0.509538	0.102005	-0.48652	0.336882	-1.38452	-0.256623	
0.637968	1.31988	5	0	0	0	-0.895312	-0.270962	0	0	-0.574977	0.107824	0	0	-1.12969	-0.0025635	-1.23598	-0.105089	-1.59261	-0.0970072	-1.01249	-0.0708398	-1.60245	-0.291558	-0.141787	0.542995	-0.782615	-0.0384085	-0.661242	0.0236335	-0.508567	0.088065	-0.49691	0.329725	-1.39539	-0.265138	
0.639377	1.31683	5	0	0	0	-0.894113	-0.27435	0	0	-0.580525	0.102507	0	0	-1.13627	-0.017048	-1.24325	-0.109663	-1.60108	-0.110288	-1.01943	-0.0774155	-1.61006	-0.305257	-0.138134	0.532673	-0.780034	-0.05902	-0.665319	0.0105	-0.507597	0.074125	-0.5073	0.322568	-1.40626	-0.273654	
0.653151	1.31531	5	0	0	0	-0.892914	-0.277737	0	0	-0.586074	0.0971893	0	0	-1.14285	-0.0315325	-1.25053	-0.114238	-1.60956	-0.12357	-1.02636	-0.0839912	-1.61768	-0.318956	-0.134482	0.522351	-0.777454	-0.0796315	-0.669395	-0.0026335	-0.506626	0.060185	-0.51769	0.31541	-1.41712	-0.28217	
0.682807	1.31531	5	0	0	0	-0.891716	-0.281124	0	0	-0.591622	0.091872	0	0	-1.14943	-0.046017	-1.2578	-0.118813	-1.61803	-0.136851	-1.0333	-0.090567	-1.62529	-0.332656	-0.130829	0.512028	-0.774873	-0.100243	-0.673471	-0.015767	-0.505655	0.046245	-0.52808	0.308253	-1.42799	-0.290685	
0.724992	1.31683	5	0	0	0	-0.906766	-0.279097	0	0	-0.596139	0.083661	0	0	-1.15186	-0.0556775	-1.26079	-0.135482	-1.62414	-0.14746	-1.03421	-0.10106	-1.63535	-0.339394	-0.125977	0.514147	-0.776032	-0.110277	-0.668935	-0.0285855	-0.503616	0.0404832	-0.549386	0.313821	-1.43403	-0.299726	
0.773537	1.31073	5	0	0	0	-0.921815	-0.277069	0	0	-0.600655	0.07545	0	0	-1.15429	-0.065338	-1.26377	-0.152151	-1.63025	-0.15807	-1.03513	-0.111553	-1.6454	-0.346133	-0.121125	0.516266	-0.777191	-0.120311	-0.6644	-0.041404	-0.501578	0.0347215	-0.570693	0.319388	-1.44006	-0.308767	
0.822265	1.31073	5	0	0	0	-0.936864	-0.275042	0	0	-0.605171	0.067239	0	0	-1.15671	-0.0749985	-1.26676	-0.168821	-1.63636	-0.16868	-1.03604	-0.122046	-1.65545	-0.352872	-0.116273	0.518386	-0.778349	-0.130344	-0.659864	-0.0542225	-0.499539	0.0289597	-0.591999	0.324956	-1.4461	-0.317808	
0.865	1.3092	5	0	0	0	-0.951914	-0.273015	0	0	-0.609688	0.059028	0	0	-1.15914	-0.084659	-1.26974	-0.18549	-1.64247	-0.179289	-1.03695	-0.132539	-1.66551	-0.35961	-0.111421	0.520505	-0.779508	-0.140378	-0.655328	-0.067041	-0.4975	0.023198	-0.613305	0.330524	-1.45214	-0.326849	
0.895566	1.30463	5	0	0	0	-0.955952	-0.288557	0	0	-0.617994	0.051085	0	0	-1.16572	-0.0990635	-1.28787	-0.196843	-1.6571	-0.184297	-1.04286	-0.141962	-1.67016	-0.36985	-0.113858	0.52739	-0.788026	-0.142895	-0.660996	-0.0633375	-0.501631	0.0236837	-0.609465	0.31967	-1.45936	-0.3325	
0.907785	1.30463	5	0	0	0	-0.95999	-0.304099	0	0	-0.6263	0.043142	0	0	-1.1723	-0.113468	-1.30601	-0.208196	-1.67174	-0.189304	-1.04877	-0.151386	-1.67482	-0.38009	-0.116294	0.534276	-0.796544	-0.145411	-0.666664	-0.059634	-0.505763	0.0241695	-0.605625	0.308817	-1.46659	-0.338151	
0.895984	1.30463	5	0	0	0	-0.964029	-0.319641	0	0	-0.634607	0.035199	0	0	-1.17888	-0.127873	-1.32415	-0.219549	-1.68637	-0.194312	-1.05468	-0.160809	-1.67948	-0.390331	-0.118731	0.541161	-0.805062	-0.147927	-0.672331	-0.0559305	-0.509894	0.0246553	-0.601784	0.297963	-1.47381	-0.343801	
0.862491	1.30768	5	0	0	0	-0.968067	-0.335183	0	0	-0.642913	0.027256	0	0	-1.18545	-0.142277	-1.34228	-0.230902	-1.70101	-0.19932	-1.06059	-0.170232	-1.68413	-0.400571	-0.121167	0.548047	-0.81358	-0.150444	-0.677999	-0.052227	-0.514025	0.025141	-0.597944	0.28711	-1.48104	-0.349452	
0.816065	1.31073	5	0	0	0	-0.967109	-0.351355	0	0	-0.644655	0.021719	0	0	-1.19546	-0.146936	-1.34888	-0.249715	-1.70188	-0.215363	-1.06446	-0.185374	-1.68463	-0.410854	-0.117513	0.537721	-0.813502	-0.163944	-0.6857	-0.055069	-0.508936	0.0107577	-0.604453	0.269161	-1.49424	-0.351183	
0.765643	1.31836	5	0	0	0	-0.96615	-0.367526	0	0	-0.646397	0.016182	0	0	-1.20547	-0.151596	-1.35548	-0.268528	-1.70276	-0.231405	-1.06833	-0.200516	-1.68513	-0.421137	-0.113859	0.527394	-0.813424	-0.177444	-0.6934	-0.057911	-0.503846	-0.0036255	-0.610961	0.251213	-1.50744	-0.352914	
0.720164	1.32141	5	0	0	0	-0.965191	-0.383697	0	0	-0.64814	0.010645	0	0	-1.21547	-0.156255	-1.36208	-0.28734	-1.70363	-0.247448	-1.07221	-0.215659	-1.68563	-0.431419	-0.110205	0.517068	-0.813347	-0.190944	-0.701101	-0.060753	-0.498757	-0.0180088	-0.61747	0.233264	-1.52063	-0.354645	
0.688565	1.32446	5	0	0	0	-0.964233	-0.399869	0	0	-0.649882	0.005108	0	0	-1.22548	-0.160915	-1.36868	-0.306153	-1.70451	-0.263491	-1.07608	-0.230801	-1.68612	-0.441702	-0.106551	0.506742	-0.813269	-0.204444	-0.708801	-0.063595	-0.493668	-0.032392	-0.623978	0.215316	-1.53383	-0.356376	
0.676954	1.33514	5	0	0	0	-0.96042	-0.397183	0	0	-0.650906	0.00800125	0	0	-1.22548	-0.160915	-1.37485	-0.313656	-1.72941	-0.276196	-1.08198	-0.240169	-1.69443	-0.441569	-0.101686	0.492992	-0.809561	-0.214924	-0.711972	-0.0792058	-0.498878	-0.0400278	-0.630487	0.197439	-1.54222	-0.358653	
0.682089	1.33667	5	0	0	0	-0.956607	-0.394497	0	0	-0.65193	0.0108945	0	0	-1.22548	-0.160915	-1.38101	-0.32116	-1.75431	-0.288901	-1.08789	-0.249536	-1.70275	-0.441436	-0.0968205	0.479242	-0.805853	-0.225403	-0.715143	-0.0948165	-0.504088	-0.0476635	-0.636996	0.179563	-1.55061	-0.36093	
0.698801	1.34582	5	0	0	0	-0.952794	-0.39181	0	0	-0.652953	0.0137878	0	0	-1.22548	-0.160915	-1.38718	-0.328663	-1.77922	-0.301607	-1.09379	-0.258904	-1.71106	-0.441303	-0.0919553	0.465492	-0.802144	-0.235883	-0.718313	-0.110427	-0.509297	-0.0552993	-0.643505	0.161686	-1.55899	-0.363206	
0.721918	1.34888	5	0	0	0	-0.948981	-0.389124	0	0	-0.653977	0.016681	0	0	-1.22548	-0.160915	-1.39335	-0.336166	-1.80412	-0.314312	-1.09969	-0.268271	-1.71937	-0.44117	-0.08709	0.451742	-0.798436	-0.246363	-0.721484	-0.126038	-0.514507	-0.062935	-0.650014	0.143809	-1.56738	-0.365483	
0.746272	1.35193	5	0	0	0	-0.953036	-0.40458	0	0	-0.653673	0.0053675	0	0	-1.23375	-0.17041	-1.39229	-0.339163	-1.81996	-0.343096	-1.10559	-0.277616	-1.72523	-0.447921	-0.107703	0.44675	-0.80571	-0.252338	-0.723523	-0.13255	-0.521741	-0.0648237	-0.669914	0.145774	-1.56381	-0.375561	
0.766691	1.35651	5	0	0	0	-0.957091	-0.420035	0	0	-0.653369	-0.005946	0	0	-1.24202	-0.179904	-1.39123	-0.34216	-1.8358	-0.37188	-1.11149	-0.286962	-1.7311	-0.454672	-0.128315	0.441759	-0.812984	-0.258313	-0.725561	-0.139063	-0.528975	-0.0667125	-0.689814	0.147738	-1.56025	-0.385638	
0.77892	1.35498	5	0	0	0	-0.961146	-0.435491	0	0	-0.653066	-0.0172595	0	0	-1.2503	-0.189399	-1.39017	-0.345158	-1.85164	-0.400663	-1.11738	-0.296308	-1.73696	-0.461423	-0.148927	0.436767	-0.820258	-0.264287	-0.7276	-0.145575	-0.536209	-0.0686013	-0.709714	0.149703	-1.55668	-0.395716	
0.783343	1.35651	5	0	0	0	-0.965201	-0.450946	0	0	-0.652762	-0.028573	0	0	-1.25857	-0.198894	-1.38911	-0.348155	-1.86748	-0.429447	-1.12328	-0.305653	-1.74283	-0.468174	-0.16954	0.431776	-0.827532	-0.270262	-0.729639	-0.152087	-0.543443	-0.07049	-0.729614	0.151668	-1.55311	-0.405794	
0.781819	1.35803	5	0	0	0	-0.964263	-0.46704	0	0	-0.649696	-0.0372365	0	0	-1.25928	-0.213298	-1.39166	-0.353395	-1.87164	-0.445186	-1.12522	-0.313173	-1.7499	-0.471478	-0.168328	0.428351	-0.828701	-0.280209	-0.729877	-0.163682	-0.543509	-0.081458	-0.724542	0.137333	-1.56508	-0.410867	
0.776208	1.35651	5	0	0	0	-0.963325	-0.483133	0	0	-0.646631	-0.0459	0	0	-1.26	-0.227701	-1.39421	-0.358636	-1.8758	-0.460925	-1.12715	-0.320693	-1.75697	-0.474782	-0.167116	0.424926	-0.829871	-0.290156	-0.730114	-0.175276	-0.543576	-0.092426	-0.719469	0.122998	-1.57705	-0.41594	
0.768369	1.35498	5	0	0	0	-0.962387	-0.499227	0	0	-0.643566	-0.0545635	0	0	-1.26071	-0.242105	-1.39677	-0.363876	-1.87997	-0.476663	-1.12909	-0.328213	-1.76405	-0.478087	-0.165904	0.421502	-0.831041	-0.300103	-0.730352	-0.18687	-0.543643	-0.103394	-0.714397	0.108664	-1.58902	-0.421013	
0.760163	1.35651	5	0	0	0	-0.961449	-0.515321	0	0	-0.6405	-0.063227	0	0	-1.26142	-0.256508	-1.39932	-0.369117	-1.88413	-0.492402	-1.13103	-0.335733	-1.77112	-0.481391	-0.164692	0.418077	-0.83221	-0.31005	-0.730589	-0.198465	-0.543709	-0.114362	-0.709325	0.094329	-1.60099	-0.426086	
0.75324	1.35193	5	0	0	0	-0.971193	-0.501219	0	0	-0.638753	-0.0577078	0	0	-1.26313	-0.251677	-1.40759	-0.37061	-1.8818	-0.489828	-1.13498	-0.337537	-1.76991	-0.484825	-0.162274	0.427036	-0.830979	-0.31353	-0.732631	-0.204953	-0.535537	-0.1263	-0.715103	0.0926005	-1.60816	-0.431695	
0.747929	1.3504	5	0	0	0	-0.980936	-0.487116	0	0	-0.637007	-0.0521885	0	0	-1.26484	-0.246845	-1.41587	-0.372104	-1.87947	-0.487254	-1.13894	-0.33934	-1.76869	-0.48826	-0.159857	0.435994	-0.829748	-0.317009	-0.734672	-0.211441	-0.527365	-0.138239	-0.720881	0.090872	-1.61534	-0.437304	
0.744041	1.34888	5	0	0	0	-0.99068	-0.473014	0	0	-0.635261	-0.0466693	0	0	-1.26655	-0.242014	-1.42415	-0.373598	-1.87714	-0.484679	-1.1429	-0.341143	-1.76748	-0.491694	-0.15744	0.444953	-0.828516	-0.320489	-0.736714	-0.217929	-0.519194	-0.150177	-0.726658	0.0891435	-1.62251	-0.442914	
0.741388	1.34582	5	0	0	0	-1.00042	-0.458911	0	0	-0.633514	-0.04115	0	0	-1.26826	-0.237183	-1.43242	-0.375091	-1.87481	-0.482105	-1.14685	-0.342947	-1.76626	-0.495128	-0.155022	0.453912	-0.827285	-0.323969	-0.738755	-0.224417	-0.511022	-0.162115	-0.732436	0.087415	-1.62969	-0.448523	
0.739779	1.33972	5	0	0	0	-1.00185	-0.468288	0	0	-0.632492	-0.0440388	0	0	-1.26997	-0.232349	-1.43752	-0.385544	-1.87575	-0.479439	-1.15182	-0.341898	-1.76748	-0.491694	-0.145325	0.45813	-0.827285	-0.323969	-0.735813	-0.220474	-0.511022	-0.162115	-0.725391	0.0855635	-1.63209	-0.454667	
0.739024	1.33667	5	0	0	0	-1.00329	-0.477665	0	0	-0.63147	-0.0469275	0	0	-1.27168	-0.227516	-1.44261	-0.395998	-1.87669	-0.476773	-1.15678	-0.340848	-1.76869	-0.48826	-0.135629	0.462349	-0.827285	-0.323969	-0.732871	-0.216531	-0.511022	-0.162115	-0.718347	0.083712	-1.63449	-0.460811	
0.738934	1.33972	5	0	0	0	-1.00472	-0.487043	0	0	-0.630448	-0.0498162	0	0	-1.27339	-0.222682	-1.44771	-0.406451	-1.87764	-0.474106	-1.16174	-0.339799	-1.76991	-0.484825	-0.125933	0.466567	-0.827285	-0.323969	-0.729929	-0.212587	-0.511022	-0.162115	-0.711303	0.0818605	-1.63689	-0.466954	
0.739324	1.33667	5	0	0	0	-1.00615	-0.49642	0	0	-0.629426	-0.052705	0	0	-1.2751	-0.217848	-1.4528	-0.416904	-1.87858	-0.47144	-1.1667	-0.33875	-1.77112	-0.481391	-0.116236	0.470786	-0.827285	-0.323969	-0.726987	-0.208644	-0.511022	-0.162115	-0.704258	0.080009	-1.63929	-0.473098	
0.74001	1.33667	5	0	0	0	-1.00615	-0.49642	0	0	-0.627679	-0.047182	0	0	-1.27681	-0.213012	-1.4528	-0.416904	-1.87764	-0.474106	-1.16073	-0.342652	-1.76991	-0.484825	-0.112598	0.476335	-0.822417	-0.324475	-0.726987	-0.208644	-0.504872	-0.168331	-0.704258	0.080009	-1.64169	-0.479234	
0.740808	1.33819	5	0	0	0	-1.00615	-0.49642	0	0	-0.625932	-0.041659	0	0	-1.27852	-0.208175	-1.4528	-0.416904	-1.87669	-0.476773	-1.15476	-0.346554	-1.76869	-0.48826	-0.10896	0.481885	-0.817549	-0.324981	-0.726987	-0.208644	-0.498723	-0.174548	-0.704258	0.080009	-1.6441	-0.485369	
0.741532	1.33667	5	0	0	0	-1.00615	-0.49642	0	0	-0.624184	-0.036136	0	0	-1.28024	-0.203339	-1.4528	-0.416904	-1.87575	-0.479439	-1.14879	-0.350456	-1.76748	-0.491694	-0.105321	0.487434	-0.812681	-0.325486	-0.726987	-0.208644	-0.492573	-0.180764	-0.704258	0.080009	-1.6465	-0.491505	
0.742	1.3443	5	0	0	0	-1.00615	-0.49642	0	0	-0.622437	-0.030613	0	0	-1.28195	-0.198502	-1.4528	-0.416904	-1.87481	-0.482105	-1.14281	-0.354358	-1.76626	-0.495128	-0.101683	0.492984	-0.807813	-0.325992	-0.726987	-0.208644	-0.486424	-0.18698	-0.704258	0.080009	-1.6489	-0.49764	
0.742067	1.34888	5	0	0	0	-1.0021	-0.481009	0	0	-0.618943	-0.0195468	0	0	-1.27368	-0.189009	-1.45131	-0.408692	-1.87014	-0.476951	-1.14088	-0.346846	-1.7704	-0.495061	-0.0907567	0.509679	-0.804173	-0.323017	-0.717494	-0.210934	-0.478163	-0.187981	-0.70101	0.0889023	-1.65012	-0.507101	
0.741753	1.34888	5	0	0	0	-0.99805	-0.465597	0	0	-0.61545	-0.0084805	0	0	-1.26542	-0.179515	-1.44982	-0.400481	-1.86547	-0.471797	-1.13894	-0.339334	-1.77454	-0.494994	-0.0798305	0.526375	-0.800534	-0.320041	-0.708001	-0.213224	-0.469902	-0.188982	-0.697761	0.0977955	-1.65134	-0.516562	
0.741117	1.34888	5	0	0	0	-0.994	-0.450186	0	0	-0.611957	0.00258575	0	0	-1.25715	-0.170022	-1.44833	-0.392269	-1.86081	-0.466644	-1.13701	-0.331823	-1.77869	-0.494927	-0.0689043	0.543071	-0.796895	-0.317066	-0.698507	-0.215514	-0.461641	-0.189984	-0.694512	0.106689	-1.65256	-0.526023	
0.740219	1.3504	5	0	0	0	-0.98995	-0.434775	0	0	-0.608463	0.013652	0	0	-1.24889	-0.160529	-1.44684	-0.384057	-1.85614	-0.46149	-1.13507	-0.324311	-1.78283	-0.49486	-0.057978	0.559766	-0.793255	-0.314091	-0.689014	-0.217804	-0.45338	-0.190985	-0.691264	0.115582	-1.65378	-0.535484	
0.739119	1.35193	5	0	0	0	-0.98995	-0.434775	0	0	-0.602917	0.018942	0	0	-1.25232	-0.150827	-1.45256	-0.380321	-1.8557	-0.453568	-1.13313	-0.316787	-1.77626	-0.501791	-0.0482593	0.579996	-0.783501	-0.315107	-0.685822	-0.202252	-0.452284	-0.182899	-0.682223	0.126232	-1.66094	-0.54105	
0.737876	1.35651	5	0	0	0	-0.98995	-0.434775	0	0	-0.597371	0.024232	0	0	-1.25576	-0.141125	-1.45828	-0.376586	-1.85525	-0.445645	-1.1312	-0.309264	-1.76969	-0.508722	-0.0385405	0.600226	-0.773746	-0.316123	-0.682631	-0.1867	-0.451188	-0.174812	-0.673181	0.136881	-1.6681	-0.546616	
0.736415	1.35651	5	0	0	0	-0.98995	-0.434775	0	0	-0.591826	0.029522	0	0	-1.25919	-0.131423	-1.46399	-0.372851	-1.85481	-0.437723	-1.12926	-0.30174	-1.76312	-0.515654	-0.0288217	0.620457	-0.763992	-0.317139	-0.679439	-0.171149	-0.450092	-0.166726	-0.66414	0.147531	-1.67526	-0.552182	
0.734252	1.35651	5	0	0	0	-0.98995	-0.434775	0	0	-0.58628	0.034812	0	0	-1.26262	-0.121721	-1.46971	-0.369115	-1.85436	-0.4298	-1.12733	-0.294216	-1.75655	-0.522585	-0.019103	0.640687	-0.754237	-0.318155	-0.676247	-0.155597	-0.448996	-0.15864	-0.655099	0.158181	-1.68242	-0.557748	
0.730827	1.36261	5	0	0	0	-0.986141	-0.432096	0	0	-0.581757	0.0430148	0	0	-1.26434	-0.116866	-1.47288	-0.360144	-1.84736	-0.422041	-1.12539	-0.286681	-1.76069	-0.522515	-0.00322875	0.643644	-0.756705	-0.311181	-0.661965	-0.15904	-0.439706	-0.162508	-0.6493	0.15992	-1.68839	-0.566628	
0.725581	1.36566	5	0	0	0	-0.982333	-0.429416	0	0	-0.577233	0.0512175	0	0	-1.26606	-0.112011	-1.47606	-0.351173	-1.84035	-0.414281	-1.12346	-0.279145	-1.76483	-0.522446	0.0126455	0.6466	-0.759173	-0.304207	-0.647684	-0.162483	-0.430416	-0.166376	-0.643501	0.161659	-1.69436	-0.575508	
0.717953	1.36871	5	0	0	0	-0.978524	-0.426737	0	0	-0.572709	0.0594203	0	0	-1.26777	-0.107157	-1.47923	-0.342202	-1.83335	-0.406521	-1.12153	-0.271609	-1.76897	-0.522377	0.0285197	0.649556	-0.76164	-0.297232	-0.633403	-0.165925	-0.421127	-0.170243	-0.637703	0.163398	-1.70034	-0.584388	
0.707411	1.37176	5	0	0	0	-0.974715	-0.424057	0	0	-0.568186	0.067623	0	0	-1.26949	-0.102302	-1.48241	-0.333231	-1.82634	-0.398762	-1.11959	-0.264074	-1.77312	-0.522307	0.044394	0.652513	-0.764108	-0.290258	-0.619121	-0.169368	-0.411837	-0.174111	-0.631904	0.165137	-1.70631	-0.593268	
0.69452	1.37482	5	0	0	0	-0.968047	-0.402516	0	0	-0.562942	0.0843275	0	0	-1.26123	-0.0927525	-1.48093	-0.324991	-1.82122	-0.385621	-1.12162	-0.258346	-1.77312	-0.522307	0.0455963	0.665082	-0.74945	-0.291785	-0.616162	-0.165407	-0.40355	-0.175119	-0.61774	0.161414	-1.70988	-0.59604	
0.681267	1.37482	5	0	0	0	-0.961378	-0.380974	0	0	-0.557698	0.101032	0	0	-1.25296	-0.083203	-1.47945	-0.316751	-1.81611	-0.372479	-1.12365	-0.252617	-1.77312	-0.522307	0.0467985	0.677652	-0.734792	-0.293312	-0.613204	-0.161446	-0.395262	-0.176128	-0.603576	0.157691	-1.71345	-0.598813	
0.669734	1.37634	5	0	0	0	-0.954709	-0.359432	0	0	-0.552455	0.117737	0	0	-1.2447	-0.0736535	-1.47797	-0.308512	-1.81099	-0.359337	-1.12567	-0.246889	-1.77312	-0.522307	0.0480007	0.690221	-0.720135	-0.294839	-0.610245	-0.157485	-0.386974	-0.177137	-0.589412	0.153969	-1.71703	-0.601585	
0.662004	1.37787	5	0	0	0	-0.948041	-0.337891	0	0	-0.547211	0.134441	0	0	-1.23643	-0.064104	-1.47649	-0.300272	-1.80588	-0.346196	-1.1277	-0.241161	-1.77312	-0.522307	0.049203	0.70279	-0.705477	-0.296366	-0.607286	-0.153524	-0.378687	-0.178145	-0.575248	0.150246	-1.7206	-0.604358	
0.660157	1.37482	5	0	0	0	-0.946847	-0.341265	0	0	-0.5434	0.134192	0	0	-1.23643	-0.064104	-1.47755	-0.297276	-1.80354	-0.343597	-1.12871	-0.238295	-1.77433	-0.518877	0.0528645	0.708423	-0.704295	-0.28639	-0.601364	-0.145589	-0.374451	-0.167675	-0.580347	0.164656	-1.73125	-0.599946	
0.665138	1.37329	5	0	0	0	-0.945653	-0.34464	0	0	-0.539589	0.133942	0	0	-1.23643	-0.064104	-1.47861	-0.29428	-1.8012	-0.340998	-1.12973	-0.23543	-1.77554	-0.515446	0.056526	0.714056	-0.703112	-0.276414	-0.595443	-0.137655	-0.370216	-0.157205	-0.585446	0.179066	-1.74191	-0.595534	
0.674707	1.37024	5	0	0	0	-0.944458	-0.348015	0	0	-0.535779	0.133692	0	0	-1.23643	-0.064104	-1.47967	-0.291283	-1.79886	-0.338399	-1.13074	-0.232564	-1.77676	-0.512016	0.0601875	0.719689	-0.701929	-0.266438	-0.589522	-0.129721	-0.36598	-0.146736	-0.590544	0.193476	-1.75257	-0.591122	
0.68607	1.37329	5	0	0	0	-0.943264	-0.351389	0	0	-0.531968	0.133443	0	0	-1.23643	-0.064104	-1.48073	-0.288287	-1.79652	-0.3358	-1.13176	-0.229698	-1.77797	-0.508586	0.063849	0.725322	-0.700747	-0.256462	-0.5836	-0.121786	-0.361744	-0.136266	-0.595643	0.207886	-1.76323	-0.58671	
0.696435	1.37329	5	0	0	0	-0.943264	-0.351389	0	0	-0.520522	0.13269	0	0	-1.24401	-0.0591535	-1.48073	-0.288287	-1.79608	-0.327824	-1.13571	-0.231518	-1.78382	-0.515306	0.0699783	0.723994	-0.698273	-0.263456	-0.577917	-0.125499	-0.35242	-0.14015	-0.570516	0.191467	-1.77035	-0.592254	
0.703008	1.37176	5	0	0	0	-0.943264	-0.351389	0	0	-0.509076	0.131936	0	0	-1.25159	-0.054203	-1.48073	-0.288287	-1.79564	-0.319848	-1.13967	-0.233338	-1.78967	-0.522026	0.0761075	0.722666	-0.695798	-0.270449	-0.572234	-0.129213	-0.343095	-0.144034	-0.545389	0.175049	-1.77747	-0.597798	
0.703112	1.37176	5	0	0	0	-0.943264	-0.351389	0	0	-0.497629	0.131182	0	0	-1.25916	-0.0492525	-1.48073	-0.288287	-1.79521	-0.311872	-1.14363	-0.235158	-1.79552	-0.528746	0.0822367	0.721339	-0.693323	-0.277443	-0.566552	-0.132926	-0.333771	-0.147918	-0.520262	0.158631	-1.78459	-0.603342	
0.696913	1.37482	5	0	0	0	-0.943264	-0.351389	0	0	-0.486183	0.130429	0	0	-1.26674	-0.044302	-1.48073	-0.288287	-1.79477	-0.303896	-1.14758	-0.236978	-1.80137	-0.535466	0.088366	0.720011	-0.690849	-0.284436	-0.560869	-0.136639	-0.324447	-0.151802	-0.495135	0.142212	-1.79172	-0.608886	
0.687514	1.37482	5	0	0	0	-0.935628	-0.345996	0	0	-0.482675	0.141608	0	0	-1.25916	-0.0492525	-1.47819	-0.28303	-1.79382	-0.306584	-1.14556	-0.242705	-1.80187	-0.545665	0.0895983	0.716529	-0.683478	-0.291939	-0.559057	-0.14176	-0.320289	-0.152309	-0.496411	0.145818	-1.79176	-0.621583	
0.67815	1.37634	5	0	0	0	-0.927992	-0.340602	0	0	-0.479166	0.152786	0	0	-1.25159	-0.054203	-1.47565	-0.277773	-1.79287	-0.309272	-1.14353	-0.248431	-1.80237	-0.555864	0.0908305	0.713046	-0.676108	-0.299442	-0.557245	-0.146881	-0.316131	-0.152817	-0.497687	0.149425	-1.79181	-0.63428	
0.672057	1.38397	5	0	0	0	-0.920356	-0.335209	0	0	-0.475658	0.163965	0	0	-1.24401	-0.0591535	-1.47312	-0.272516	-1.79191	-0.31196	-1.1415	-0.254158	-1.80287	-0.566062	0.0920627	0.709564	-0.668737	-0.306944	-0.555433	-0.152001	-0.311973	-0.153325	-0.498963	0.153031	-1.79185	-0.646977	
0.67247	1.38092	5	0	0	0	-0.91272	-0.329815	0	0	-0.47215	0.175144	0	0	-1.23643	-0.064104	-1.47058	-0.267259	-1.79096	-0.314648	-1.13948	-0.259885	-1.80338	-0.576261	0.093295	0.706082	-0.661366	-0.314447	-0.553621	-0.157122	-0.307815	-0.153832	-0.500239	0.156637	-1.7919	-0.659674	
0.681314	1.38092	5	0	0	0	-0.910095	-0.323733	0	0	-0.469361	0.177818	0	0	-1.23643	-0.064104	-1.4763	-0.263521	-1.78767	-0.314732	-1.13846	-0.262747	-1.80509	-0.583025	0.0994305	0.70475	-0.657701	-0.311467	-0.549746	-0.155717	-0.300508	-0.151974	-0.508623	0.162115	-1.78956	-0.666287	
0.696762	1.38245	5	0	0	0	-0.907469	-0.317651	0	0	-0.466572	0.180491	0	0	-1.23643	-0.064104	-1.48202	-0.259783	-1.78438	-0.314816	-1.13745	-0.265609	-1.8068	-0.589789	0.105566	0.703418	-0.654036	-0.308488	-0.545872	-0.154312	-0.293201	-0.150116	-0.517006	0.167593	-1.78722	-0.6729	
0.716317	1.3855	5	0	0	0	-0.904844	-0.311569	0	0	-0.463783	0.183165	0	0	-1.23643	-0.064104	-1.48774	-0.256045	-1.78109	-0.314901	-1.13644	-0.26847	-1.80852	-0.596553	0.111701	0.702086	-0.650371	-0.305508	-0.541997	-0.152907	-0.285894	-0.148258	-0.52539	0.173071	-1.78488	-0.679513	
0.737481	1.38397	5	0	0	0	-0.902219	-0.305487	0	0	-0.460994	0.185839	0	0	-1.23643	-0.064104	-1.49346	-0.252307	-1.7778	-0.314985	-1.13543	-0.271332	-1.81023	-0.603317	0.117837	0.700754	-0.646706	-0.302528	-0.538122	-0.151502	-0.278587	-0.1464	-0.533774	0.178549	-1.78254	-0.686126	
0.757757	1.3855	5	0	0	0	-0.909859	-0.31089	0	0	-0.459959	0.182915	0	0	-1.23127	-0.0786925	-1.48922	-0.264298	-1.78153	-0.322873	-1.14232	-0.277815	-1.81728	-0.606585	0.119069	0.697272	-0.651608	-0.302013	-0.535152	-0.147533	-0.275439	-0.144032	-0.524114	0.169465	-1.78726	-0.685577	
0.774649	1.3855	5	0	0	0	-0.917498	-0.316293	0	0	-0.458925	0.17999	0	0	-1.22611	-0.093281	-1.48497	-0.276289	-1.78526	-0.330762	-1.14922	-0.284299	-1.82433	-0.609853	0.120302	0.69379	-0.656509	-0.301498	-0.532181	-0.143565	-0.272292	-0.141663	-0.514455	0.160381	-1.79199	-0.685028	
0.786104	1.3855	5	0	0	0	-0.925137	-0.321696	0	0	-0.45789	0.177065	0	0	-1.22095	-0.107869	-1.48073	-0.288281	-1.78899	-0.33865	-1.15612	-0.290782	-1.83139	-0.613121	0.121534	0.690307	-0.661411	-0.300983	-0.529211	-0.139597	-0.269144	-0.139294	-0.504795	0.151296	-1.79672	-0.684478	
0.792449	1.38855	5	0	0	0	-0.932777	-0.327099	0	0	-0.456855	0.174141	0	0	-1.21578	-0.122458	-1.47649	-0.300272	-1.79272	-0.346538	-1.16302	-0.297266	-1.83844	-0.616389	0.122766	0.686825	-0.666312	-0.300468	-0.52624	-0.135628	-0.265996	-0.136926	-0.495135	0.142212	-1.80145	-0.683929	
0.794802	1.3855	5	0	0	0	-0.927763	-0.327778	0	0	-0.455099	0.179741	0	0	-1.22164	-0.122365	-1.48262	-0.30777	-1.78658	-0.354676	-1.16394	-0.307637	-1.84015	-0.623136	0.119092	0.6812	-0.66384	-0.307456	-0.518733	-0.144474	-0.261924	-0.148434	-0.49386	0.138607	-1.79911	-0.690535	
0.794281	1.3916	5	0	0	0	-0.922748	-0.328457	0	0	-0.453344	0.185342	0	0	-1.2275	-0.122272	-1.48876	-0.315268	-1.78044	-0.362814	-1.16486	-0.318008	-1.84186	-0.629883	0.115418	0.675575	-0.661367	-0.314444	-0.511225	-0.153319	-0.257852	-0.159943	-0.492584	0.135003	-1.79678	-0.69714	
0.792006	1.39618	5	0	0	0	-0.917734	-0.329136	0	0	-0.451589	0.190942	0	0	-1.23336	-0.122179	-1.49489	-0.322766	-1.7743	-0.370952	-1.16578	-0.328379	-1.84357	-0.63663	0.111743	0.669951	-0.658894	-0.321432	-0.503718	-0.162165	-0.25378	-0.171452	-0.491308	0.131399	-1.79444	-0.703745	
0.789093	1.40533	5	0	0	0	-0.91272	-0.329815	0	0	-0.449833	0.196543	0	0	-1.23921	-0.122086	-1.50103	-0.330264	-1.76816	-0.37909	-1.1667	-0.33875	-1.84529	-0.643377	0.108069	0.664326	-0.656422	-0.32842	-0.49621	-0.171011	-0.249708	-0.18296	-0.490033	0.127794	-1.7921	-0.710351	
0.786593	1.40533	5	0	0	0	-0.913688	-0.313579	0	0	-0.450152	0.208012	0	0	-1.23508	-0.117319	-1.50462	-0.332513	-1.77379	-0.381594	-1.16964	-0.343403	-1.83875	-0.650269	0.106838	0.667804	-0.649048	-0.335923	-0.497117	-0.168449	-0.245538	-0.183474	-0.477069	0.12764	-1.79449	-0.716399	
0.784529	1.39923	5	0	0	0	-0.914656	-0.297343	0	0	-0.450471	0.219482	0	0	-1.23094	-0.112551	-1.50821	-0.334762	-1.77943	-0.384097	-1.17258	-0.348057	-1.83221	-0.657162	0.105607	0.671283	-0.641674	-0.343426	-0.498023	-0.165887	-0.241368	-0.183988	-0.464105	0.127486	-1.79688	-0.722447	
0.782133	1.40533	5	0	0	0	-0.915623	-0.281106	0	0	-0.45079	0.230952	0	0	-1.2268	-0.107784	-1.51181	-0.337012	-1.78506	-0.386601	-1.17553	-0.352711	-1.82567	-0.664054	0.104377	0.674761	-0.6343	-0.350929	-0.49893	-0.163325	-0.237198	-0.184502	-0.45114	0.127331	-1.79927	-0.728495	
0.778619	1.40076	5	0	0	0	-0.916591	-0.26487	0	0	-0.451109	0.242421	0	0	-1.22266	-0.103017	-1.5154	-0.339261	-1.79069	-0.389105	-1.17847	-0.357364	-1.81913	-0.670947	0.103146	0.678239	-0.626926	-0.358432	-0.499837	-0.160763	-0.233028	-0.185016	-0.438176	0.127177	-1.80167	-0.734543	
0.773198	1.40228	5	0	0	0	-0.912998	-0.275024	0	0	-0.452862	0.236808	0	0	-1.21923	-0.112735	-1.50695	-0.36314	-1.80185	-0.431093	-1.18527	-0.376973	-1.81983	-0.657381	0.0811392	0.660598	-0.623255	-0.355461	-0.490251	-0.163085	-0.234046	-0.182139	-0.432322	0.128903	-1.79221	-0.735649	
0.765083	1.40686	5	0	0	0	-0.909405	-0.285179	0	0	-0.454615	0.231194	0	0	-1.21579	-0.122452	-1.4985	-0.387018	-1.813	-0.473082	-1.19208	-0.396581	-1.82053	-0.643815	0.0591325	0.642957	-0.619583	-0.35249	-0.480665	-0.165407	-0.235064	-0.179262	-0.426468	0.130628	-1.78275	-0.736756	
0.753547	1.40686	5	0	0	0	-0.905812	-0.295333	0	0	-0.456369	0.225581	0	0	-1.21235	-0.13217	-1.49005	-0.410896	-1.82415	-0.51507	-1.19889	-0.416189	-1.82123	-0.630249	0.0371257	0.625315	-0.615911	-0.349518	-0.47108	-0.167729	-0.236081	-0.176386	-0.420614	0.132354	-1.7733	-0.737862	
0.739128	1.40991	5	0	0	0	-0.902219	-0.305487	0	0	-0.458122	0.219968	0	0	-1.20891	-0.141888	-1.4816	-0.434775	-1.83531	-0.557058	-1.20569	-0.435798	-1.82192	-0.616683	0.015119	0.607674	-0.61224	-0.346547	-0.461494	-0.170051	-0.237099	-0.173509	-0.41476	0.134079	-1.76384	-0.738969	
0.723567	1.41296	5	0	0	0	-0.899826	-0.31225	0	0	-0.457086	0.217039	0	0	-1.21548	-0.156239	-1.47124	-0.439257	-1.85352	-0.569661	-1.21257	-0.442211	-1.819	-0.613341	0.0126862	0.598623	-0.609768	-0.353532	-0.464475	-0.174014	-0.229873	-0.182653	-0.405066	0.124969	-1.76267	-0.742269	
0.708652	1.41144	5	0	0	0	-0.897433	-0.319013	0	0	-0.456049	0.214111	0	0	-1.22204	-0.170591	-1.46087	-0.44374	-1.87174	-0.582264	-1.21945	-0.448623	-1.81608	-0.61	0.0102535	0.589573	-0.607297	-0.360517	-0.467456	-0.177978	-0.222647	-0.191797	-0.395371	0.115859	-1.7615	-0.745568	
0.69617	1.41296	5	0	0	0	-0.89504	-0.325776	0	0	-0.455013	0.211182	0	0	-1.22861	-0.184943	-1.4505	-0.448222	-1.88996	-0.594868	-1.22633	-0.455036	-1.81315	-0.606658	0.00782075	0.580522	-0.604826	-0.367503	-0.470438	-0.181941	-0.215421	-0.200941	-0.385677	0.106748	-1.76034	-0.748868	
0.68791	1.41296	5	0	0	0	-0.892647	-0.332539	0	0	-0.453977	0.208254	0	0	-1.23517	-0.199294	-1.44013	-0.452704	-1.90817	-0.607471	-1.2332	-0.461448	-1.81023	-0.603317	0.005388	0.571471	-0.602354	-0.374488	-0.473419	-0.185904	-0.208195	-0.210085	-0.375983	0.097638	-1.75917	-0.752168	
0.6852	1.40991	5	0	0	0	-0.897435	-0.319008	0	0	-0.45605	0.214112	0	0	-1.24274	-0.194352	-1.43398	-0.445256	-1.91331	-0.602071	-1.22826	-0.462498	-1.80731	-0.599973	0.00904575	0.57706	-0.597442	-0.375013	-0.467717	-0.18963	-0.208195	-0.210085	-0.379817	0.108474	-1.75443	-0.752725	
0.687617	1.40838	5	0	0	0	-0.902222	-0.305476	0	0	-0.458122	0.21997	0	0	-1.2503	-0.189411	-1.42782	-0.437808	-1.91846	-0.596672	-1.22332	-0.463549	-1.80438	-0.596629	0.0127035	0.582648	-0.59253	-0.375537	-0.462016	-0.193355	-0.208195	-0.210085	-0.383652	0.119309	-1.7497	-0.753281	
0.694322	1.40838	5	0	0	0	-0.90701	-0.291945	0	0	-0.460195	0.225828	0	0	-1.25786	-0.18447	-1.42166	-0.43036	-1.9236	-0.591272	-1.21837	-0.464599	-1.80146	-0.593284	0.0163613	0.588237	-0.587619	-0.376062	-0.456314	-0.197081	-0.208195	-0.210085	-0.387486	0.130145	-1.74497	-0.753838	
0.704475	1.40991	5	0	0	0	-0.911798	-0.278414	0	0	-0.462268	0.231686	0	0	-1.26542	-0.179528	-1.4155	-0.422912	-1.92875	-0.585872	-1.21343	-0.465649	-1.79854	-0.58994	0.020019	0.593826	-0.582707	-0.376587	-0.450612	-0.200806	-0.208195	-0.210085	-0.39132	0.140981	-1.74023	-0.754395	
0.717238	1.40838	5	0	0	0	-0.913224	-0.287885	0	0	-0.466093	0.231933	0	0	-1.25858	-0.198879	-1.4155	-0.422912	-1.92875	-0.585872	-1.21544	-0.459975	-1.79561	-0.586593	0.0236787	0.599423	-0.583943	-0.373094	-0.447627	-0.196845	-0.206055	-0.204849	-0.392599	0.144596	-1.73549	-0.754953	
0.731769	1.40533	5	0	0	0	-0.914651	-0.297355	0	0	-0.469917	0.232179	0	0	-1.25173	-0.21823	-1.4155	-0.422912	-1.92875	-0.585872	-1.21745	-0.454302	-1.79269	-0.583245	0.0273385	0.60502	-0.585179	-0.3696	-0.444642	-0.192885	-0.203914	-0.199613	-0.393878	0.148211	-1.73076	-0.755512	
0.747227	1.40686	5	0	0	0	-0.916077	-0.306826	0	0	-0.473741	0.232426	0	0	-1.24488	-0.237581	-1.4155	-0.422912	-1.92875	-0.585872	-1.21945	-0.448628	-1.78976	-0.579897	0.0309983	0.610616	-0.586415	-0.366107	-0.441658	-0.188924	-0.201774	-0.194377	-0.395157	0.151826	-1.72602	-0.75607	
0.76276	1.40381	5	0	0	0	-0.917504	-0.316297	0	0	-0.477566	0.232673	0	0	-1.23804	-0.256932	-1.4155	-0.422912	-1.92875	-0.585872	-1.22146	-0.442954	-1.78683	-0.57655	0.034658	0.616213	-0.587651	-0.362614	-0.438673	-0.184963	-0.199634	-0.189141	-0.396436	0.155441	-1.72128	-0.756628	
0.777516	1.40533	5	0	0	0	-0.910094	-0.323737	0	0	-0.478602	0.235602	0	0	-1.24559	-0.251995	-1.41973	-0.410957	-1.92409	-0.580753	-1.21651	-0.444004	-1.79339	-0.569634	0.0493495	0.606613	-0.587651	-0.362614	-0.440751	-0.191485	-0.19658	-0.197771	-0.3926	0.144601	-1.72128	-0.756628	
0.790643	1.40076	5	0	0	0	-0.902684	-0.331177	0	0	-0.479639	0.238532	0	0	-1.25315	-0.247057	-1.42396	-0.399002	-1.91943	-0.575635	-1.21157	-0.445055	-1.79995	-0.562719	0.064041	0.597014	-0.587651	-0.362614	-0.44283	-0.198008	-0.193526	-0.206401	-0.388765	0.133761	-1.72128	-0.756628	
0.801289	1.40076	5	0	0	0	-0.895274	-0.338617	0	0	-0.480675	0.241461	0	0	-1.2607	-0.24212	-1.42819	-0.387046	-1.91478	-0.570516	-1.20662	-0.446105	-1.80651	-0.555803	0.0787325	0.587414	-0.587651	-0.362614	-0.444909	-0.20453	-0.190473	-0.215031	-0.384929	0.12292	-1.72128	-0.756628	
0.8086	1.39618	5	0	0	0	-0.887864	-0.346057	0	0	-0.481712	0.244391	0	0	-1.26826	-0.237183	-1.43242	-0.375091	-1.91012	-0.565397	-1.20167	-0.447155	-1.81306	-0.548887	0.093424	0.577814	-0.587651	-0.362614	-0.446987	-0.211052	-0.187419	-0.223661	-0.381093	0.11208	-1.72128	-0.756628	
0.811839	1.39618	5	0	0	0	-0.900062	-0.325086	0	0	-0.485862	0.256119	0	0	-1.26413	-0.23245	-1.42776	-0.37584	-1.91335	-0.58367	-1.19766	-0.458503	-1.80964	-0.535314	0.0799552	0.53618	-0.588888	-0.359119	-0.445447	-0.227792	-0.202186	-0.238285	-0.400686	0.0944108	-1.70339	-0.742887	
0.811416	1.38855	5	0	0	0	-0.91226	-0.304115	0	0	-0.490011	0.267846	0	0	-1.25999	-0.227717	-1.42309	-0.376589	-1.91659	-0.601942	-1.19364	-0.46985	-1.80622	-0.521741	0.0664865	0.494546	-0.590124	-0.355625	-0.443908	-0.244532	-0.216952	-0.252908	-0.420279	0.0767415	-1.6855	-0.729146	
0.808412	1.39007	5	0	0	0	-0.924457	-0.283143	0	0	-0.494161	0.279574	0	0	-1.25586	-0.222984	-1.41843	-0.377338	-1.91982	-0.620215	-1.18963	-0.481198	-1.8028	-0.508169	0.0530178	0.452911	-0.591361	-0.35213	-0.442368	-0.261271	-0.231718	-0.267531	-0.439872	0.0590723	-1.66762	-0.715405	
0.803918	1.3855	5	0	0	0	-0.936655	-0.262172	0	0	-0.498311	0.291302	0	0	-1.25172	-0.218251	-1.41376	-0.378087	-1.92305	-0.638487	-1.18561	-0.492545	-1.79938	-0.494596	0.039549	0.411277	-0.592597	-0.348635	-0.440828	-0.278011	-0.246485	-0.282155	-0.459465	0.041403	-1.64973	-0.701664	
0.799025	1.38092	5	0	0	0	-0.934491	-0.281781	0	0	-0.508075	0.266177	0	0	-1.25657	-0.237361	-1.39419	-0.358599	-1.95005	-0.635078	-1.18561	-0.492545	-1.78719	-0.47084	0.0139438	0.388451	-0.592597	-0.348635	-0.447702	-0.283334	-0.264245	-0.28815	-0.465306	0.0396937	-1.63185	-0.700596	
0.794823	1.38092	5	0	0	0	-0.932327	-0.301389	0	0	-0.517838	0.241052	0	0	-1.26143	-0.25647	-1.37461	-0.33911	-1.97706	-0.631669	-1.18561	-0.492545	-1.77499	-0.447084	-0.0116615	0.365625	-0.592597	-0.348635	-0.454576	-0.288658	-0.282004	-0.294144	-0.471146	0.0379845	-1.61397	-0.699528	
0.792388	1.37482	5	0	0	0	-0.930162	-0.320998	0	0	-0.527602	0.215927	0	0	-1.26628	-0.275579	-1.35504	-0.319622	-2.00406	-0.62826	-1.18561	-0.492545	-1.76279	-0.423328	-0.0372668	0.342798	-0.592597	-0.348635	-0.461451	-0.293982	-0.299764	-0.300138	-0.476986	0.0362753	-1.5961	-0.698461	
0.792106	1.37329	5	0	0	0	-0.927998	-0.340607	0	0	-0.537366	0.190802	0	0	-1.27113	-0.294689	-1.33547	-0.300134	-2.03106	-0.624851	-1.18561	-0.492545	-1.7506	-0.399572	-0.062872	0.319972	-0.592597	-0.348635	-0.468325	-0.299305	-0.317524	-0.306133	-0.482827	0.034566	-1.57822	-0.697393	
0.793365	1.37024	5	0	0	0	-0.938248	-0.352055	0	0	-0.553306	0.183279	0	0	-1.28182	-0.313607	-1.31946	-0.282806	-2.03805	-0.614186	-1.18461	-0.49538	-1.7423	-0.399695	-0.072589	0.315811	-0.593801	-0.358589	-0.470406	-0.305787	-0.317634	-0.317037	-0.474443	0.0290877	-1.58299	-0.696829	
0.795475	1.36566	0	5	0	0	-0.948499	-0.363504	0	0	-0.569245	0.175756	0	0	-1.2925	-0.332526	-1.30346	-0.265478	-2.04504	-0.603522	-1.18361	-0.498215	-1.73399	-0.399818	-0.082306	0.31165	-0.595005	-0.368542	-0.472487	-0.312269	-0.317745	-0.327941	-0.46606	0.0236095	-1.58775	-0.696265	
0.797747	1.35956	0	5	0	0	-0.958749	-0.374953	0	0	-0.585184	0.168234	0	0	-1.30319	-0.351444	-1.28745	-0.248149	-2.05203	-0.592858	-1.1826	-0.501049	-1.72569	-0.399942	-0.092023	0.30749	-0.596209	-0.378496	-0.474568	-0.318752	-0.317856	-0.338846	-0.457676	0.0181312	-1.59252	-0.695701	
0.799489	1.36108	0	5	0	0	-0.968999	-0.386401	0	0	-0.601124	0.160711	0	0	-1.31388	-0.370362	-1.27144	-0.230821	-2.05902	-0.582193	-1.1816	-0.503884	-1.71739	-0.400065	-0.10174	0.303329	-0.597413	-0.38845	-0.476649	-0.325234	-0.317966	-0.34975	-0.449292	0.012653	-1.59729	-0.695137	
0.800014	1.35345	0	5	0	0	-0.972576	-0.376293	0	0	-0.602865	0.155133	0	0	-1.31898	-0.355938	-1.26204	-0.232327	-2.07421	-0.620888	-1.18849	-0.510269	-1.69387	-0.372868	-0.150067	0.282595	-0.588821	-0.386011	-0.480532	-0.326614	-0.331526	-0.356227	-0.462241	0.0128335	-1.57577	-0.691319	
0.798779	1.34888	0	5	0	0	-0.976152	-0.366185	0	0	-0.604605	0.149556	0	0	-1.32409	-0.341514	-1.25263	-0.233832	-2.08941	-0.659582	-1.19538	-0.516655	-1.67036	-0.345672	-0.198394	0.261862	-0.580229	-0.383572	-0.484416	-0.327995	-0.345087	-0.362704	-0.475189	0.013014	-1.55424	-0.687501	
0.795911	1.3504	0	5	0	0	-0.979729	-0.356076	0	0	-0.606345	0.143979	0	0	-1.32919	-0.327091	-1.24322	-0.235338	-2.1046	-0.698277	-1.20226	-0.523041	-1.64684	-0.318476	-0.24672	0.241129	-0.571636	-0.381132	-0.488299	-0.329375	-0.358647	-0.369182	-0.488138	0.0131945	-1.53272	-0.683682	
0.791726	1.34735	0	5	0	0	-0.983305	-0.345968	0	0	-0.608086	0.138401	0	0	-1.33429	-0.312667	-1.23381	-0.236844	-2.11979	-0.736972	-1.20915	-0.529426	-1.62333	-0.291279	-0.295047	0.220395	-0.563044	-0.378693	-0.492183	-0.330755	-0.372207	-0.375659	-0.501086	0.013375	-1.51119	-0.679864	
0.786538	1.34277	0	5	0	0	-0.982347	-0.362127	0	0	-0.613309	0.121709	0	0	-1.33501	-0.326978	-1.22954	-0.248916	-2.12623	-0.754933	-1.21603	-0.5358	-1.6167	-0.29828	-0.314258	0.212135	-0.561808	-0.382186	-0.493986	-0.325659	-0.386632	-0.368422	-0.508184	0.015255	-1.50876	-0.673773	
0.780664	1.33972	0	5	0	0	-0.98139	-0.378286	0	0	-0.618532	0.105017	0	0	-1.33573	-0.341288	-1.22527	-0.260989	-2.13267	-0.772895	-1.22291	-0.542173	-1.61006	-0.305281	-0.33347	0.203875	-0.560572	-0.38568	-0.495789	-0.320563	-0.401057	-0.361185	-0.515282	0.017135	-1.50633	-0.667682	
0.774418	1.33972	0	5	0	0	-0.980433	-0.394446	0	0	-0.623756	0.088325	0	0	-1.33645	-0.355599	-1.22099	-0.273061	-2.13912	-0.790856	-1.22979	-0.548547	-1.60343	-0.312281	-0.352681	0.195615	-0.559336	-0.389173	-0.497592	-0.315467	-0.415481	-0.353947	-0.52238	0.019015	-1.5039	-0.661591	
0.768063	1.33362	0	5	0	0	-0.979475	-0.410605	0	0	-0.628979	0.071633	0	0	-1.33717	-0.36991	-1.21672	-0.285133	-2.14556	-0.808817	-1.23667	-0.554921	-1.5968	-0.319282	-0.371893	0.187355	-0.5581	-0.392666	-0.499395	-0.310371	-0.429906	-0.34671	-0.529478	0.020895	-1.50147	-0.6555	
0.761447	1.33057	0	5	0	0	-0.980665	-0.407241	0	0	-0.634826	0.0776845	0	0	-1.34299	-0.369799	-1.19831	-0.299484	-2.14786	-0.811335	-1.23767	-0.552095	-1.60932	-0.319099	-0.367096	0.189418	-0.5581	-0.392666	-0.491627	-0.307605	-0.429906	-0.34671	-0.521631	0.0350963	-1.50869	-0.661024	
0.754216	1.32751	0	5	0	0	-0.981856	-0.403876	0	0	-0.640672	0.083736	0	0	-1.34881	-0.369687	-1.17989	-0.313835	-2.15017	-0.813852	-1.23867	-0.54927	-1.62184	-0.318916	-0.3623	0.191481	-0.5581	-0.392666	-0.48386	-0.304838	-0.429906	-0.34671	-0.513784	0.0492975	-1.5159	-0.666547	
0.746015	1.32904	0	5	0	0	-0.983047	-0.400512	0	0	-0.646519	0.0897875	0	0	-1.35463	-0.369576	-1.16148	-0.328185	-2.15247	-0.816369	-1.23967	-0.546444	-1.63436	-0.318734	-0.357503	0.193545	-0.5581	-0.392666	-0.476092	-0.302071	-0.429906	-0.34671	-0.505937	0.0634988	-1.52311	-0.672071	
0.736492	1.32446	0	5	0	0	-0.984237	-0.397148	0	0	-0.652366	0.095839	0	0	-1.36044	-0.369464	-1.14307	-0.342536	-2.15477	-0.818887	-1.24067	-0.543618	-1.64688	-0.318551	-0.352707	0.195608	-0.5581	-0.392666	-0.468325	-0.299305	-0.429906	-0.34671	-0.49809	0.0777	-1.53032	-0.677595	
0.725291	1.32904	0	5	0	0	-0.992807	-0.386373	0	0	-0.656157	0.0960847	0	0	-1.35633	-0.364773	-1.13468	-0.341056	-2.15945	-0.787623	-1.23579	-0.531577	-1.64148	-0.322077	-0.343093	0.215372	-0.543351	-0.380789	-0.461178	-0.282362	-0.42042	-0.328798	-0.471397	0.0935202	-1.53987	-0.676465	
0.712277	1.32446	0	5	0	0	-1.00138	-0.375597	0	0	-0.659947	0.0963305	0	0	-1.35221	-0.360081	-1.1263	-0.339576	-2.16412	-0.756358	-1.23092	-0.519536	-1.63609	-0.325603	-0.333478	0.235136	-0.528602	-0.368912	-0.454032	-0.26542	-0.410935	-0.310887	-0.444705	0.109341	-1.54943	-0.675335	
0.698247	1.33362	0	5	0	0	-1.00995	-0.364822	0	0	-0.663737	0.0965763	0	0	-1.34809	-0.35539	-1.11792	-0.338095	-2.16879	-0.725094	-1.22605	-0.507494	-1.63069	-0.32913	-0.323863	0.2549	-0.513852	-0.357035	-0.446885	-0.248477	-0.40145	-0.292975	-0.418013	0.125161	-1.55898	-0.674205	
0.684251	1.34582	0	5	0	0	-1.01852	-0.354046	0	0	-0.667528	0.096822	0	0	-1.34397	-0.350699	-1.10954	-0.336615	-2.17346	-0.693829	-1.22117	-0.495453	-1.62529	-0.332656	-0.314249	0.274664	-0.499103	-0.345158	-0.439739	-0.231535	-0.391964	-0.275063	-0.39132	0.140981	-1.56853	-0.673075	
0.671338	1.35803	0	5	0	0	-1.02849	-0.352702	0	0	-0.670609	0.10553	0	0	-1.34567	-0.345894	-1.09702	-0.321553	-2.15085	-0.676218	-1.21529	-0.486217	-1.63069	-0.32913	-0.293793	0.263908	-0.499134	-0.331657	-0.436752	-0.227581	-0.385699	-0.270369	-0.374462	0.129966	-1.57201	-0.650335	
0.66056	1.37634	0	5	0	0	-1.03847	-0.351357	0	0	-0.673691	0.114239	0	0	-1.34737	-0.341089	-1.0845	-0.30649	-2.12824	-0.658606	-1.20941	-0.476981	-1.63609	-0.325603	-0.273338	0.253152	-0.499165	-0.318156	-0.433764	-0.223627	-0.379434	-0.265674	-0.357603	0.11895	-1.57548	-0.627595	
0.652917	1.40076	0	5	0	0	-1.04845	-0.350013	0	0	-0.676772	0.122948	0	0	-1.34907	-0.336283	-1.07198	-0.291428	-2.10562	-0.640995	-1.20354	-0.467744	-1.64148	-0.322077	-0.252883	0.242396	-0.499195	-0.304655	-0.430777	-0.219673	-0.373169	-0.260979	-0.340745	0.107935	-1.57895	-0.604854	
0.64895	1.41601	0	5	0	0	-1.05843	-0.348668	0	0	-0.679854	0.131656	0	0	-1.35077	-0.331478	-1.05946	-0.276365	-2.08301	-0.623383	-1.19766	-0.458508	-1.64688	-0.318551	-0.232427	0.23164	-0.499226	-0.291154	-0.42779	-0.215719	-0.366904	-0.256285	-0.323887	0.096919	-1.58242	-0.582114	
0.648933	1.42975	0	5	0	0	-1.05301	-0.323696	0	0	-0.688782	0.146427	0	0	-1.34253	-0.322067	-1.03741	-0.262783	-2.07614	-0.597374	-1.1917	-0.462399	-1.63756	-0.297947	-0.223995	0.22352	-0.494327	-0.278143	-0.421175	-0.222011	-0.377214	-0.249548	-0.331042	0.098816	-1.58237	-0.569322	
0.653138	1.43432	0	5	0	0	-1.04758	-0.298725	0	0	-0.697709	0.161197	0	0	-1.33429	-0.312655	-1.01535	-0.249201	-2.06926	-0.571365	-1.18575	-0.466291	-1.62824	-0.277342	-0.215562	0.2154	-0.489427	-0.265133	-0.414559	-0.228303	-0.387524	-0.242812	-0.338197	0.100713	-1.58231	-0.55653	
0.661837	1.44806	0	5	0	0	-1.04216	-0.273753	0	0	-0.706637	0.175968	0	0	-1.32604	-0.303244	-0.993291	-0.235618	-2.06239	-0.545357	-1.17979	-0.470182	-1.61892	-0.256738	-0.20713	0.20728	-0.484527	-0.252123	-0.407944	-0.234595	-0.397833	-0.236075	-0.345351	0.10261	-1.58226	-0.543738	
0.675285	1.45721	0	5	0	0	-1.03673	-0.248782	0	0	-0.715565	0.190739	0	0	-1.3178	-0.293833	-0.971233	-0.222036	-2.05551	-0.519348	-1.17384	-0.474073	-1.6096	-0.236134	-0.198698	0.19916	-0.479628	-0.239112	-0.401328	-0.240887	-0.408143	-0.229339	-0.352506	0.104507	-1.58221	-0.530946	
0.692902	1.45721	0	5	0	0	-1.03892	-0.229144	0	0	-0.722776	0.211118	0	0	-1.3188	-0.27464	-0.974916	-0.224304	-2.04222	-0.474842	-1.17283	-0.47691	-1.60693	-0.208395	-0.190208	0.222378	-0.474778	-0.212459	-0.400149	-0.231805	-0.403824	-0.207935	-0.34331	0.115183	-1.5798	-0.524815	
0.712872	1.46789	0	5	0	0	-1.04111	-0.209506	0	0	-0.729987	0.231498	0	0	-1.3198	-0.255447	-0.978598	-0.226571	-2.02893	-0.430335	-1.17183	-0.479747	-1.60425	-0.180656	-0.181717	0.245595	-0.469928	-0.185806	-0.398971	-0.222723	-0.399504	-0.186532	-0.334114	0.12586	-1.57739	-0.518684	
0.733282	1.44195	0	5	0	0	-1.0433	-0.189867	0	0	-0.737198	0.251878	0	0	-1.32079	-0.236254	-0.982281	-0.228839	-2.01564	-0.385829	-1.17082	-0.482585	-1.60158	-0.152917	-0.173227	0.268813	-0.465079	-0.159154	-0.397792	-0.213642	-0.395185	-0.165128	-0.324919	0.136536	-1.57497	-0.512552	
0.752218	1.44501	0	5	0	0	-1.04549	-0.170229	0	0	-0.744409	0.272257	0	0	-1.32179	-0.217061	-0.985963	-0.231106	-2.00235	-0.341323	-1.16982	-0.485422	-1.59891	-0.125178	-0.164736	0.292031	-0.460229	-0.132501	-0.396613	-0.20456	-0.390866	-0.143725	-0.315723	0.147212	-1.57256	-0.506421	
0.767766	1.45721	0	5	0	0	-1.04669	-0.166841	0	0	-0.74269	0.277859	0	0	-1.31354	-0.207582	-0.995469	-0.229566	-1.97269	-0.296734	-1.16982	-0.485422	-1.59797	-0.104269	-0.147779	0.291441	-0.462794	-0.11178	-0.401419	-0.203391	-0.399073	-0.13174	-0.343039	0.151154	-1.56054	-0.488526	
0.778014	1.45569	0	5	0	0	-1.04789	-0.163452	0	0	-0.740971	0.283462	0	0	-1.30529	-0.198103	-1.00497	-0.228025	-1.94304	-0.252145	-1.16982	-0.485422	-1.59704	-0.083359	-0.130821	0.290851	-0.465359	-0.0910585	-0.406224	-0.202222	-0.40728	-0.119755	-0.370355	0.155096	-1.54851	-0.470631	
0.781951	1.45569	0	5	0	0	-1.04909	-0.160063	0	0	-0.739252	0.289064	0	0	-1.29705	-0.188624	-1.01448	-0.226485	-1.91339	-0.207556	-1.16982	-0.485422	-1.5961	-0.0624495	-0.113864	0.290261	-0.467923	-0.0703372	-0.41103	-0.201054	-0.415488	-0.107771	-0.397671	0.159038	-1.53648	-0.452735	
0.780978	1.46026	0	5	0	0	-1.05028	-0.156675	0	0	-0.737533	0.294666	0	0	-1.2888	-0.179145	-1.02399	-0.224944	-1.88374	-0.162967	-1.16982	-0.485422	-1.59516	-0.04154	-0.096907	0.289671	-0.470488	-0.049616	-0.415836	-0.199885	-0.423695	-0.095786	-0.424987	0.16298	-1.52446	-0.43484	
0.776894	1.46179	0	5	0	0	-1.04669	-0.166837	0	0	-0.755391	0.29289	0	0	-1.28982	-0.159848	-1.01065	-0.249981	-1.84487	-0.13425	-1.17671	-0.491816	-1.58586	-0.0206202	-0.12596	0.277232	-0.476689	-0.0455643	-0.448471	-0.194312	-0.455661	-0.0837263	-0.450908	0.163266	-1.52082	-0.419134	
0.7715	1.46484	0	5	0	0	-1.04309	-0.176999	0	0	-0.773249	0.291114	0	0	-1.29083	-0.14055	-0.99731	-0.275019	-1.80601	-0.105534	-1.1836	-0.498209	-1.57655	0.0002995	-0.155013	0.264794	-0.482889	-0.0415125	-0.481106	-0.18874	-0.487628	-0.0716665	-0.476828	0.163552	-1.51718	-0.403428	
0.766594	1.46789	0	5	0	0	-1.0395	-0.18716	0	0	-0.791108	0.289339	0	0	-1.29185	-0.121252	-0.983972	-0.300057	-1.76715	-0.0768168	-1.19049	-0.504603	-1.56725	0.0212193	-0.184066	0.252355	-0.48909	-0.0374608	-0.513742	-0.183167	-0.519594	-0.0596068	-0.502749	0.163839	-1.51354	-0.387723	
0.763978	1.46484	0	5	0	0	-1.0359	-0.197322	0	0	-0.808966	0.287563	0	0	-1.29287	-0.101955	-0.970634	-0.325094	-1.72828	-0.0481	-1.19738	-0.510996	-1.55794	0.042139	-0.213119	0.239916	-0.495291	-0.033409	-0.546377	-0.177594	-0.551561	-0.047547	-0.52867	0.164125	-1.5099	-0.372017	
0.764774	1.46942	0	5	0	0	-1.0345	-0.187819	0	0	-0.827797	0.288684	0	0	-1.2829	-0.09727	-0.982281	-0.317483	-1.70785	0.0057365	-1.21028	-0.500394	-1.54568	0.0666647	-0.22396	0.254841	-0.500233	-0.0329035	-0.558891	-0.179243	-0.562843	-0.0379695	-0.549243	0.185888	-1.51109	-0.368652	
0.767594	1.46789	0	5	0	0	-1.0331	-0.178316	0	0	-0.846629	0.289805	0	0	-1.27292	-0.092585	-0.993928	-0.309872	-1.68742	0.059573	-1.22317	-0.489792	-1.53342	0.0911905	-0.2348	0.269767	-0.505176	-0.032398	-0.571406	-0.180893	-0.574124	-0.028392	-0.569816	0.207651	-1.51228	-0.365286	
0.770461	1.46026	0	5	0	0	-1.0317	-0.168813	0	0	-0.86546	0.290926	0	0	-1.26294	-0.0879	-1.00558	-0.302262	-1.66698	0.113409	-1.23606	-0.479191	-1.52115	0.115716	-0.245641	0.284693	-0.510119	-0.0318925	-0.583921	-0.182542	-0.585406	-0.0188145	-0.590388	0.229414	-1.51347	-0.36192	
0.771402	1.45874	0	5	0	0	-1.0303	-0.15931	0	0	-0.884292	0.292047	0	0	-1.25297	-0.083215	-1.01722	-0.294651	-1.64655	0.167246	-1.24895	-0.468589	-1.50889	0.140242	-0.256481	0.299618	-0.515061	-0.031387	-0.596435	-0.184191	-0.596688	-0.009237	-0.610961	0.251177	-1.51466	-0.358555	
0.768442	1.45416	0	5	0	0	-1.0355	-0.171536	0	0	-0.901012	0.287345	0	0	-1.26054	-0.078269	-1.0025	-0.285615	-1.62041	0.224417	-1.25104	-0.449777	-1.49876	0.14723	-0.245629	0.331873	-0.519999	-0.030883	-0.598243	-0.179081	-0.594555	0.00704225	-0.603871	0.24932	-1.51344	-0.348993	
0.759605	1.45721	0	5	0	0	-1.04069	-0.183761	0	0	-0.917731	0.282643	0	0	-1.26811	-0.073323	-0.987776	-0.276579	-1.59428	0.281587	-1.25313	-0.430965	-1.48864	0.154218	-0.234776	0.364127	-0.524938	-0.030379	-0.600051	-0.17397	-0.592423	0.0233215	-0.596781	0.247463	-1.51222	-0.33943	
0.743738	1.45111	0	5	0	0	-1.04589	-0.195987	0	0	-0.934451	0.277941	0	0	-1.27568	-0.068377	-0.973052	-0.267542	-1.56814	0.338757	-1.25522	-0.412153	-1.47851	0.161206	-0.223924	0.396381	-0.529877	-0.029875	-0.60186	-0.168859	-0.59029	0.0396007	-0.589691	0.245606	-1.511	-0.329868	
0.72348	1.44501	0	5	0	0	-1.05109	-0.208212	0	0	-0.951171	0.273239	0	0	-1.28325	-0.063431	-0.958329	-0.258506	-1.542	0.395928	-1.2573	-0.393341	-1.46839	0.168194	-0.213072	0.428636	-0.534815	-0.029371	-0.603668	-0.163749	-0.588157	0.05588	-0.582601	0.243749	-1.50978	-0.320306	
0.702567	1.44348	0	5	0	0	-1.05987	-0.210272	0	0	-0.961383	0.270999	0	0	-1.29081	-0.0584892	-0.951417	-0.265358	-1.52645	0.417832	-1.26124	-0.395137	-1.46076	0.182299	-0.225144	0.431265	-0.537246	-0.035945	-0.603918	-0.175366	-0.584037	0.0554002	-0.580047	0.23653	-1.51216	-0.313561	
0.684731	1.44195	0	5	0	0	-1.06865	-0.212332	0	0	-0.971596	0.268758	0	0	-1.29837	-0.0535475	-0.944504	-0.272209	-1.51089	0.439736	-1.26517	-0.396933	-1.45313	0.196404	-0.237216	0.433895	-0.539676	-0.042519	-0.604167	-0.186982	-0.579918	0.0549205	-0.577492	0.22931	-1.51455	-0.306816	
0.673707	1.44501	0	5	0	0	-1.07743	-0.214391	0	0	-0.981809	0.266517	0	0	-1.30594	-0.0486058	-0.937592	-0.27906	-1.49534	0.461641	-1.2691	-0.398729	-1.4455	0.210508	-0.249289	0.436524	-0.542107	-0.049093	-0.604417	-0.198599	-0.575799	0.0544408	-0.574937	0.22209	-1.51694	-0.300071	
0.672996	1.4389	0	5	0	0	-1.08621	-0.216451	0	0	-0.992021	0.264277	0	0	-1.3135	-0.043664	-0.93068	-0.285912	-1.47978	0.483545	-1.27304	-0.400525	-1.43787	0.224613	-0.261361	0.439153	-0.544537	-0.055667	-0.604667	-0.210216	-0.571679	0.053961	-0.572383	0.214871	-1.51933	-0.293326	
0.682256	1.43432	0	5	0	0	-1.091	-0.202925	0	0	-0.999502	0.264713	0	0	-1.30938	-0.0388775	-0.921142	-0.287473	-1.46755	0.505619	-1.27897	-0.396645	-1.42942	0.224558	-0.273411	0.441771	-0.549469	-0.0551632	-0.616246	-0.21441	-0.571679	0.053961	-0.585282	0.214982	-1.51692	-0.287114	
0.697997	1.44653	0	5	0	0	-1.09579	-0.189398	0	0	-1.00698	0.265149	0	0	-1.30526	-0.034091	-0.911605	-0.289034	-1.45532	0.527693	-1.28491	-0.392764	-1.42097	0.224502	-0.28546	0.444389	-0.554401	-0.0546595	-0.627826	-0.218604	-0.571679	0.053961	-0.598181	0.215093	-1.51451	-0.280902	
0.716634	1.42212	0	5	0	0	-1.10057	-0.175872	0	0	-1.01446	0.265584	0	0	-1.30114	-0.0293045	-0.902068	-0.290596	-1.44309	0.549766	-1.29085	-0.388883	-1.41253	0.224446	-0.297509	0.447008	-0.559332	-0.0541558	-0.639406	-0.222797	-0.571679	0.053961	-0.611079	0.215205	-1.5121	-0.274691	
0.734583	1.4328	0	5	0	0	-1.10536	-0.162346	0	0	-1.02195	0.26602	0	0	-1.29702	-0.024518	-0.89253	-0.292157	-1.43086	0.57184	-1.29679	-0.385003	-1.40408	0.224391	-0.309559	0.449626	-0.564264	-0.053652	-0.650985	-0.226991	-0.571679	0.053961	-0.623978	0.215316	-1.50969	-0.268479	
0.74826	1.4328	0	5	0	0	-1.10675	-0.171835	0	0	-1.04056	0.236027	0	0	-1.28945	-0.029464	-0.872934	-0.283904	-1.41899	0.585645	-1.29478	-0.390679	-1.40237	0.231478	-0.340724	0.428093	-0.572866	-0.0561808	-0.680848	-0.240688	-0.611817	0.0338795	-0.663894	0.183459	-1.50247	-0.262798	
0.754261	1.4328	0	5	0	0	-1.10814	-0.181324	0	0	-1.05917	0.206033	0	0	-1.28188	-0.03441	-0.853338	-0.275651	-1.40713	0.599449	-1.29277	-0.396354	-1.40066	0.238565	-0.371888	0.40656	-0.581467	-0.0587095	-0.710711	-0.254386	-0.651955	0.013798	-0.703809	0.151601	-1.49526	-0.257117	
0.75237	1.43127	0	5	0	0	-1.10954	-0.190813	0	0	-1.07778	0.17604	0	0	-1.27431	-0.039356	-0.833742	-0.267399	-1.39527	0.613254	-1.29077	-0.40203	-1.39895	0.245652	-0.403053	0.385027	-0.590068	-0.0612383	-0.740573	-0.268084	-0.692093	-0.0062835	-0.743725	0.119744	-1.48805	-0.251435	
0.745094	1.43432	0	5	0	0	-1.11093	-0.200302	0	0	-1.0964	0.146047	0	0	-1.26674	-0.044302	-0.814146	-0.259146	-1.3834	0.627059	-1.28876	-0.407706	-1.39724	0.252739	-0.434218	0.363494	-0.59867	-0.063767	-0.770436	-0.281781	-0.732231	-0.026365	-0.783641	0.087886	-1.48083	-0.245754	
0.735027	1.44043	0	5	0	0	-1.11352	-0.206399	0	0	-1.11968	0.119363	0	0	-1.25744	-0.054118	-0.809962	-0.245458	-1.38064	0.638221	-1.27881	-0.422927	-1.38751	0.249122	-0.447324	0.322635	-0.610851	-0.0829025	-0.797459	-0.30299	-0.768058	-0.0576803	-0.830236	0.0581535	-1.48444	-0.248596	
0.724765	1.44348	0	5	0	0	-1.11611	-0.212496	0	0	-1.14296	0.092678	0	0	-1.24814	-0.063934	-0.805777	-0.23177	-1.37788	0.649383	-1.26886	-0.438148	-1.37779	0.245505	-0.46043	0.281777	-0.623031	-0.102038	-0.824482	-0.324199	-0.803885	-0.0889955	-0.876831	0.028421	-1.48805	-0.251437	
0.716901	1.44348	0	5	0	0	-1.11869	-0.218593	0	0	-1.16625	0.0659935	0	0	-1.23884	-0.07375	-0.801593	-0.218082	-1.37512	0.660545	-1.2589	-0.453368	-1.36807	0.241889	-0.473537	0.240918	-0.635212	-0.121173	-0.851505	-0.345409	-0.839711	-0.120311	-0.923427	-0.0013115	-1.49166	-0.254279	
0.713583	1.46332	0	5	0	0	-1.12128	-0.22469	0	0	-1.18953	0.039309	0	0	-1.22955	-0.083566	-0.797408	-0.204394	-1.37236	0.671707	-1.24895	-0.468589	-1.35834	0.238272	-0.486643	0.20006	-0.647393	-0.140309	-0.878528	-0.366618	-0.875538	-0.151626	-0.970022	-0.031044	-1.49527	-0.257121	
0.71396	1.46789	0	5	0	0	-1.12248	-0.221314	0	0	-1.205	0.031854	0	0	-1.23196	-0.093196	-0.78145	-0.198359	-1.36684	0.694109	-1.24595	-0.477085	-1.34861	0.234648	-0.499744	0.190501	-0.654654	-0.159859	-0.893128	-0.386084	-0.891865	-0.171414	-0.990325	-0.0449577	-1.50367	-0.259422	
0.715959	1.46484	0	5	0	0	-1.12367	-0.217939	0	0	-1.22048	0.024399	0	0	-1.23438	-0.102826	-0.765492	-0.192325	-1.36132	0.716511	-1.24294	-0.485581	-1.33887	0.231023	-0.512845	0.180943	-0.661914	-0.179409	-0.907729	-0.40555	-0.908192	-0.191202	-1.01063	-0.0588715	-1.51207	-0.261723	
0.717499	1.46026	0	5	0	0	-1.12487	-0.214563	0	0	-1.23595	0.016944	0	0	-1.2368	-0.112456	-0.749534	-0.18629	-1.35581	0.738914	-1.23993	-0.494077	-1.32913	0.227399	-0.525945	0.171384	-0.669175	-0.198959	-0.92233	-0.425016	-0.92452	-0.21099	-1.03093	-0.0727852	-1.52048	-0.264024	
0.716502	1.46332	0	5	0	0	-1.12606	-0.211187	0	0	-1.25142	0.009489	0	0	-1.23921	-0.122086	-0.733576	-0.180255	-1.35029	0.761316	-1.23693	-0.502573	-1.3194	0.223775	-0.539046	0.161826	-0.676436	-0.218509	-0.93693	-0.444482	-0.940847	-0.230778	-1.05123	-0.086699	-1.52888	-0.266325	
0.710891	1.46789	0	5	0	0	-1.13481	-0.213251	0	0	-1.26953	-0.000573	0	0	-1.23406	-0.136643	-0.735744	-0.174128	-1.34817	0.783853	-1.23793	-0.499742	-1.31894	0.234439	-0.542617	0.171919	-0.687469	-0.213994	-0.938959	-0.450871	-0.947943	-0.232651	-1.05817	-0.0848795	-1.54085	-0.258502	
0.699961	1.4801	0	5	0	0	-1.14357	-0.215315	0	0	-1.28764	-0.010635	0	0	-1.22891	-0.151199	-0.737912	-0.168	-1.34604	0.806391	-1.23893	-0.496911	-1.31848	0.245103	-0.546188	0.182012	-0.698501	-0.209479	-0.940988	-0.457259	-0.955038	-0.234523	-1.06511	-0.08306	-1.55282	-0.250678	
