3.2547	0	0	-16.5351	-3.47634	-0.017302	-0.550777	-0.278857	-0.397761	-0.392389	-0.555215	-0.140831	-0.277171	-0.059835	0.123991	-0.11668	-0.101717	0.209872	0.458348	0.009719	-0.212335	0.339517	0.375991	-0.215234	-0.275618	0.188728	0.021679	-0.834269	0.548732	-0.16672	0.111885	-0.0347	-0.122992	-0.044225	-0.097321	
3.2547	0	0	-16.5581	-3.5086	-0.016494	-0.563463	-0.275786	-0.416849	-0.393284	-0.569169	-0.144947	-0.301004	-0.056983	0.100904	-0.112299	-0.127211	0.220171	0.443754	0.00844975	-0.227773	0.343135	0.365767	-0.229196	-0.278192	0.190746	0.00850975	-0.854929	0.560594	-0.181179	0.121332	-0.0332165	-0.149926	-0.0429273	-0.108803	
3.2547	0	0	-16.5811	-3.54085	-0.015686	-0.576149	-0.272714	-0.435937	-0.394179	-0.583122	-0.149064	-0.324838	-0.054131	0.077817	-0.107917	-0.152705	0.230469	0.42916	0.0071805	-0.243211	0.346753	0.355543	-0.243159	-0.280767	0.192764	-0.0046595	-0.875588	0.572456	-0.195637	0.13078	-0.031733	-0.176861	-0.0416295	-0.120284	
3.2547	0	0	-16.6041	-3.57311	-0.014878	-0.588836	-0.269643	-0.455026	-0.395074	-0.597076	-0.15318	-0.348671	-0.051279	0.05473	-0.103536	-0.178199	0.240768	0.414566	0.00591125	-0.258649	0.35037	0.345319	-0.257122	-0.283342	0.194781	-0.0178288	-0.896248	0.584317	-0.210095	0.140228	-0.0302495	-0.203795	-0.0403317	-0.131766	
3.25317	0	0	-16.6271	-3.60536	-0.01407	-0.601522	-0.266572	-0.474114	-0.395969	-0.61103	-0.157296	-0.372504	-0.048427	0.031643	-0.099155	-0.203693	0.251067	0.399972	0.004642	-0.274087	0.353988	0.335095	-0.271084	-0.285916	0.196799	-0.030998	-0.916908	0.596179	-0.224554	0.149675	-0.028766	-0.23073	-0.039034	-0.143247	
3.25317	0	0	-16.6486	-3.61717	-0.012952	-0.604681	-0.265699	-0.476579	-0.39976	-0.608553	-0.156189	-0.375634	-0.0463912	0.0409165	-0.101756	-0.196343	0.260263	0.417583	0.0109045	-0.272761	0.359021	0.345567	-0.271084	-0.285916	0.200558	-0.0266848	-0.924034	0.600835	-0.21802	0.143769	-0.0303265	-0.23768	-0.0454077	-0.140853	
3.25622	0	0	-16.6701	-3.62898	-0.011834	-0.607841	-0.264827	-0.479044	-0.40355	-0.606076	-0.155081	-0.378764	-0.0443555	0.05019	-0.104356	-0.188993	0.26946	0.435195	0.017167	-0.271435	0.364055	0.356039	-0.271084	-0.285916	0.204317	-0.0223715	-0.931159	0.605492	-0.211487	0.137862	-0.031887	-0.244629	-0.0517815	-0.138459	
3.25775	0	0	-16.6916	-3.64079	-0.010716	-0.611001	-0.263954	-0.48151	-0.40734	-0.603599	-0.153973	-0.381893	-0.0423198	0.0594635	-0.106957	-0.181642	0.278657	0.452807	0.0234295	-0.270109	0.369088	0.366512	-0.271084	-0.285916	0.208076	-0.0180583	-0.938285	0.610148	-0.204953	0.131956	-0.0334475	-0.251579	-0.0581553	-0.136065	
3.25165	0	0	-16.7131	-3.6526	-0.009598	-0.61416	-0.263082	-0.483975	-0.411131	-0.601122	-0.152866	-0.385023	-0.040284	0.068737	-0.109558	-0.174292	0.287853	0.470418	0.029692	-0.268783	0.374121	0.376984	-0.271084	-0.285916	0.211835	-0.013745	-0.945411	0.614804	-0.198419	0.12605	-0.035008	-0.258529	-0.064529	-0.133671	
3.2547	0	0	-16.729	-3.66799	-0.0146975	-0.620536	-0.261338	-0.488903	-0.413698	-0.610329	-0.152769	-0.397104	-0.0423198	0.0594635	-0.105658	-0.185315	0.290921	0.476305	0.0278065	-0.272969	0.380801	0.374587	-0.271876	-0.292074	0.211512	-0.0203038	-0.959645	0.624105	-0.207088	0.131715	-0.045826	-0.273329	-0.0731895	-0.140394	
3.25317	0	0	-16.7449	-3.68338	-0.019797	-0.626912	-0.259594	-0.493832	-0.416265	-0.619535	-0.152672	-0.409185	-0.0443555	0.05019	-0.101758	-0.196338	0.293988	0.482193	0.025921	-0.277155	0.387481	0.37219	-0.272668	-0.298233	0.21119	-0.0268625	-0.973879	0.633406	-0.215757	0.137379	-0.056644	-0.28813	-0.08185	-0.147117	
3.25317	0	0	-16.7608	-3.69877	-0.0248965	-0.633287	-0.257851	-0.498761	-0.418832	-0.628741	-0.152575	-0.421267	-0.0463912	0.0409165	-0.0978573	-0.207362	0.297056	0.48808	0.0240355	-0.281341	0.394162	0.369793	-0.273459	-0.304391	0.210868	-0.0334212	-0.988113	0.642706	-0.224427	0.143044	-0.067462	-0.30293	-0.0905105	-0.15384	
3.2547	0	0	-16.7767	-3.71416	-0.029996	-0.639663	-0.256107	-0.503689	-0.421399	-0.637948	-0.152478	-0.433348	-0.048427	0.031643	-0.093957	-0.218385	0.300124	0.493967	0.02215	-0.285527	0.400842	0.367396	-0.274251	-0.310549	0.210545	-0.03998	-1.00235	0.652007	-0.233096	0.148709	-0.07828	-0.31773	-0.099171	-0.160563	
3.25622	0	0	-16.7901	-3.71243	-0.0240975	-0.645942	-0.255678	-0.494493	-0.420115	-0.633347	-0.150362	-0.427523	-0.049649	0.0501233	-0.0944255	-0.203949	0.311156	0.506527	0.0311372	-0.282367	0.405886	0.377893	-0.274251	-0.310549	0.213527	-0.033466	-1.00515	0.6522	-0.230207	0.146821	-0.0755405	-0.325472	-0.101944	-0.160518	
3.2608	0	0	-16.8035	-3.7107	-0.018199	-0.652221	-0.255249	-0.485297	-0.418832	-0.628746	-0.148245	-0.421698	-0.050871	0.0686035	-0.094894	-0.189513	0.322188	0.519088	0.0401245	-0.279207	0.41093	0.38839	-0.274251	-0.310549	0.21651	-0.026952	-1.00795	0.652394	-0.227318	0.144934	-0.072801	-0.333214	-0.104716	-0.160473	
3.25622	0	0	-16.8168	-3.70896	-0.0123005	-0.6585	-0.25482	-0.4761	-0.417548	-0.624145	-0.146128	-0.415872	-0.052093	0.0870838	-0.0953625	-0.175076	0.333221	0.531648	0.0491117	-0.276046	0.415974	0.398887	-0.274251	-0.310549	0.219492	-0.020438	-1.01075	0.652587	-0.22443	0.143047	-0.0700615	-0.340956	-0.107489	-0.160429	
3.25622	0	0	-16.8302	-3.70723	-0.006402	-0.664779	-0.254391	-0.466904	-0.416264	-0.619544	-0.144012	-0.410047	-0.053315	0.105564	-0.095831	-0.16064	0.344253	0.544208	0.058099	-0.272886	0.421018	0.409384	-0.274251	-0.310549	0.222474	-0.013924	-1.01355	0.65278	-0.221541	0.141159	-0.067322	-0.348698	-0.110262	-0.160384	
3.25775	0	0	-16.8382	-3.72068	-0.0140535	-0.67431	-0.253518	-0.469371	-0.417998	-0.631097	-0.140695	-0.419423	-0.0484298	0.0917572	-0.087189	-0.171942	0.34243	0.54936	0.058931	-0.275237	0.425726	0.404335	-0.272716	-0.314887	0.221372	-0.018283	-1.01431	0.65491	-0.227318	0.144933	-0.0808605	-0.355699	-0.119716	-0.164799	
3.25775	0	0	-16.8462	-3.73412	-0.021705	-0.683841	-0.252645	-0.471838	-0.419733	-0.642649	-0.137377	-0.428799	-0.0435445	0.0779505	-0.078547	-0.183245	0.340607	0.554512	0.059763	-0.277589	0.430434	0.399286	-0.271181	-0.319226	0.220271	-0.022642	-1.01506	0.657039	-0.233094	0.148708	-0.094399	-0.3627	-0.12917	-0.169214	
3.25622	0	0	-16.8542	-3.74757	-0.0293565	-0.693372	-0.251773	-0.474304	-0.421467	-0.654202	-0.134059	-0.438175	-0.0386592	0.0641437	-0.069905	-0.194548	0.338785	0.559663	0.060595	-0.27994	0.435143	0.394238	-0.269645	-0.323564	0.219169	-0.027001	-1.01581	0.659169	-0.23887	0.152483	-0.107938	-0.369701	-0.138624	-0.17363	
3.25622	0	0	-16.8622	-3.76101	-0.037008	-0.702903	-0.2509	-0.476771	-0.423201	-0.665755	-0.130742	-0.447551	-0.033774	0.050337	-0.061263	-0.20585	0.336962	0.564815	0.061427	-0.282291	0.439851	0.389189	-0.26811	-0.327902	0.218067	-0.03136	-1.01657	0.661299	-0.244647	0.156257	-0.121476	-0.376702	-0.148078	-0.178045	
3.26385	0	0	-15.749	-4.46272	-0.0373317	-0.712362	-0.247426	-0.465755	-0.423585	-0.656445	-0.129826	-0.426502	-0.0313357	0.0735365	-0.0609022	-0.180599	0.352917	0.578201	0.0714895	-0.272581	0.439279	0.407332	-0.26112	-0.322459	0.225595	-0.022727	-1.0059	0.654327	-0.235981	0.150594	-0.118095	-0.374953	-0.146934	-0.173498	
3.25317	0	0	-14.6358	-5.16442	-0.0376555	-0.72182	-0.243951	-0.45474	-0.423968	-0.647135	-0.12891	-0.405453	-0.0288975	0.096736	-0.0605415	-0.155348	0.368873	0.591587	0.081552	-0.262872	0.438708	0.425474	-0.25413	-0.317015	0.233124	-0.014094	-0.995229	0.647356	-0.227315	0.144931	-0.114713	-0.373204	-0.145791	-0.168951	
3.24859	0	0	-13.5226	-5.86612	-0.0379792	-0.731279	-0.240477	-0.443725	-0.424352	-0.637826	-0.127995	-0.384404	-0.0264593	0.119936	-0.0601807	-0.130097	0.384828	0.604974	0.0916145	-0.253162	0.438136	0.443617	-0.24714	-0.311572	0.240652	-0.005461	-0.98456	0.640385	-0.218648	0.139269	-0.111331	-0.371455	-0.144647	-0.164403	
3.24859	0	0	-12.4094	-6.56782	-0.038303	-0.740738	-0.237003	-0.432709	-0.424736	-0.628516	-0.127079	-0.363355	-0.024021	0.143135	-0.05982	-0.104846	0.400784	0.61836	0.101677	-0.243452	0.437564	0.46176	-0.24015	-0.306128	0.24818	0.003172	-0.973891	0.633413	-0.209982	0.133606	-0.10795	-0.369706	-0.143504	-0.159856	
3.25317	0	0	-11.7677	-6.46751	-0.0473827	-0.756513	-0.233954	-0.430901	-0.422234	-0.635588	-0.123853	-0.360643	-0.0293158	0.143047	-0.0550742	-0.105109	0.402032	0.629482	0.105238	-0.243967	0.442447	0.464503	-0.235513	-0.310828	0.24896	0.00096675	-0.973137	0.631283	-0.207091	0.131717	-0.116532	-0.368057	-0.140735	-0.1599	
3.26233	0	0	-11.126	-6.3672	-0.0564625	-0.772288	-0.230905	-0.429092	-0.419732	-0.642659	-0.120626	-0.357931	-0.0346105	0.14296	-0.0503285	-0.105372	0.40328	0.640603	0.108799	-0.244482	0.447329	0.467246	-0.230875	-0.315528	0.249741	-0.0012385	-0.972384	0.629154	-0.204201	0.129828	-0.125113	-0.366408	-0.137966	-0.159944	
3.25012	0	0	-10.4843	-6.26689	-0.0655422	-0.788063	-0.227855	-0.427284	-0.417229	-0.649731	-0.1174	-0.35522	-0.0399052	0.142873	-0.0455827	-0.105636	0.404528	0.651725	0.11236	-0.244998	0.452211	0.469989	-0.226237	-0.320228	0.250521	-0.00344375	-0.97163	0.627024	-0.20131	0.127939	-0.133695	-0.364759	-0.135198	-0.159987	
3.25317	0	0	-9.84265	-6.16657	-0.074622	-0.803838	-0.224806	-0.425476	-0.414727	-0.656803	-0.114174	-0.352508	-0.0452	0.142785	-0.040837	-0.105899	0.405776	0.662847	0.115921	-0.245513	0.457094	0.472732	-0.2216	-0.324928	0.251301	-0.005649	-0.970877	0.624895	-0.198419	0.12605	-0.142277	-0.36311	-0.132429	-0.160031	
3.19824	0	5	-9.39913	-5.88872	-0.0844672	-0.807031	-0.220455	-0.416905	-0.412158	-0.647604	-0.106605	-0.350218	-0.0431732	0.152108	-0.0326417	-0.102734	0.415017	0.680745	0.11865	-0.243671	0.462145	0.483296	-0.216961	-0.329628	0.252404	-0.00128225	-0.967318	0.622569	-0.189741	0.12038	-0.134346	-0.374225	-0.130804	-0.164624	
3.26691	0	0	-8.95561	-5.61087	-0.0943125	-0.810224	-0.216104	-0.408334	-0.409588	-0.638405	-0.099036	-0.347928	-0.0411465	0.161431	-0.0244465	-0.099569	0.424258	0.698643	0.121379	-0.241829	0.467197	0.49386	-0.212321	-0.334329	0.253507	0.0030845	-0.963758	0.620243	-0.181063	0.114709	-0.126415	-0.385341	-0.129179	-0.169216	
3.26538	0	0	-8.51209	-5.33302	-0.104158	-0.813417	-0.211752	-0.399763	-0.407019	-0.629207	-0.091467	-0.345637	-0.0391198	0.170754	-0.0162513	-0.096404	0.433499	0.716542	0.124108	-0.239987	0.472248	0.504423	-0.207682	-0.339029	0.254611	0.00745125	-0.960199	0.617918	-0.172385	0.109039	-0.118484	-0.396456	-0.127553	-0.173809	
3.26538	0	0	-8.06857	-5.05516	-0.114003	-0.81661	-0.207401	-0.391192	-0.404449	-0.620008	-0.083898	-0.343347	-0.037093	0.180077	-0.008056	-0.093239	0.44274	0.73444	0.126837	-0.238145	0.477299	0.514987	-0.203043	-0.34373	0.255714	0.011818	-0.95664	0.615592	-0.163707	0.103369	-0.110553	-0.407572	-0.125928	-0.178402	
3.26538	0	0	-7.89563	-4.82263	-0.117206	-0.838523	-0.203898	-0.401093	-0.405351	-0.633918	-0.087032	-0.358171	-0.0411485	0.161449	-0.0062785	-0.11143	0.444579	0.729243	0.12388	-0.248892	0.479123	0.509831	-0.214678	-0.344466	0.250845	0.00313425	-0.960199	0.617918	-0.169493	0.10715	-0.118873	-0.417932	-0.131798	-0.185148	
3.26843	0	0	-7.72269	-4.5901	-0.120409	-0.860437	-0.200394	-0.410994	-0.406254	-0.647829	-0.090166	-0.372996	-0.045204	0.14282	-0.004501	-0.129621	0.446418	0.724047	0.120924	-0.25964	0.480948	0.504675	-0.226314	-0.345202	0.245976	-0.0055495	-0.963758	0.620243	-0.175279	0.110931	-0.127194	-0.428292	-0.137668	-0.191894	
3.26538	0	0	-7.54974	-4.35756	-0.123611	-0.88235	-0.19689	-0.420894	-0.407157	-0.661739	-0.0933	-0.387821	-0.0492595	0.124192	-0.0027235	-0.147812	0.448257	0.71885	0.117967	-0.270387	0.482772	0.499518	-0.23795	-0.345939	0.241106	-0.0142333	-0.967318	0.622569	-0.181066	0.114711	-0.135514	-0.438653	-0.143538	-0.19864	
3.26691	0	0	-7.3768	-4.12503	-0.126814	-0.904264	-0.193387	-0.430795	-0.408059	-0.675649	-0.096434	-0.402645	-0.053315	0.105564	-0.000946	-0.166003	0.450096	0.713653	0.11501	-0.281134	0.484597	0.494362	-0.249585	-0.346675	0.236237	-0.022917	-0.970877	0.624895	-0.186852	0.118492	-0.143835	-0.449013	-0.149408	-0.205386	
3.26385	0	0	-7.30273	-3.9717	-0.130457	-0.90428	-0.194263	-0.428321	-0.407607	-0.668698	-0.0942188	-0.408905	-0.0480235	0.105648	-0.000946	-0.166003	0.45134	0.724833	0.119405	-0.284006	0.488577	0.499692	-0.252682	-0.346318	0.235457	-0.0207137	-0.974435	0.62722	-0.183959	0.116602	-0.147865	-0.460172	-0.159655	-0.207497	
3.2608	0	0	-7.22865	-3.81837	-0.1341	-0.904295	-0.195138	-0.425847	-0.407154	-0.661748	-0.0920035	-0.415166	-0.042732	0.105732	-0.000946	-0.166003	0.452583	0.736013	0.1238	-0.286878	0.492557	0.505022	-0.255779	-0.345961	0.234678	-0.0185105	-0.977993	0.629544	-0.181067	0.114712	-0.151895	-0.471332	-0.169901	-0.209607	
3.25775	0	0	-7.15458	-3.66503	-0.137742	-0.904311	-0.196014	-0.423372	-0.406702	-0.654797	-0.0897883	-0.421426	-0.0374405	0.105816	-0.000946	-0.166003	0.453826	0.747193	0.128195	-0.289749	0.496538	0.510351	-0.258876	-0.345604	0.233899	-0.0163073	-0.98155	0.631869	-0.178174	0.112822	-0.155925	-0.482491	-0.180148	-0.211718	
3.2547	0	0	-7.0805	-3.5117	-0.141385	-0.904327	-0.196889	-0.420898	-0.40625	-0.647846	-0.087573	-0.427687	-0.032149	0.1059	-0.000946	-0.166003	0.45507	0.758373	0.13259	-0.292621	0.500518	0.515681	-0.261973	-0.345247	0.233119	-0.014104	-0.985108	0.634194	-0.175282	0.110932	-0.159955	-0.49365	-0.190394	-0.213828	
3.25012	0	0	-7.11457	-3.34552	-0.146797	-0.919929	-0.196444	-0.432594	-0.41094	-0.659266	-0.0918225	-0.439329	-0.0362185	0.0873357	-0.00653725	-0.176509	0.458751	0.74797	0.12986	-0.294456	0.496702	0.518174	-0.267396	-0.346701	0.228577	-0.0162163	-0.988664	0.636518	-0.181066	0.114711	-0.166699	-0.497112	-0.194296	-0.218314	
3.26233	0	0	-7.14864	-3.17934	-0.152209	-0.935531	-0.195999	-0.44429	-0.41563	-0.670686	-0.096072	-0.450971	-0.040288	0.0687715	-0.0121285	-0.187015	0.462432	0.737567	0.127131	-0.296291	0.492886	0.520667	-0.272819	-0.348156	0.224035	-0.0183285	-0.99222	0.638842	-0.186851	0.118491	-0.173443	-0.500575	-0.198198	-0.222801	
3.25928	0	0	-7.18271	-3.01316	-0.157621	-0.951133	-0.195553	-0.455986	-0.42032	-0.682107	-0.100321	-0.462614	-0.0443575	0.0502073	-0.0177197	-0.19752	0.466113	0.727165	0.124401	-0.298125	0.48907	0.523161	-0.278241	-0.34961	0.219493	-0.0204408	-0.995777	0.641165	-0.192635	0.122271	-0.180187	-0.504037	-0.202101	-0.227288	
3.25928	0	0	-7.21678	-2.84698	-0.163033	-0.966735	-0.195108	-0.467682	-0.42501	-0.693527	-0.104571	-0.474256	-0.048427	0.031643	-0.023311	-0.208026	0.469794	0.716762	0.121671	-0.29996	0.485254	0.525654	-0.283664	-0.351064	0.214951	-0.022553	-0.999333	0.643489	-0.198419	0.12605	-0.186931	-0.5075	-0.206003	-0.231774	
3.26538	0	0	-7.24264	-2.68619	-0.164133	-0.963627	-0.197732	-0.460268	-0.420772	-0.689057	-0.102446	-0.468438	-0.0533073	0.0454355	-0.0151115	-0.204892	0.47104	0.727948	0.121901	-0.291061	0.485416	0.533488	-0.278241	-0.34961	0.216052	-0.0181925	-0.992219	0.63884	-0.195527	0.12416	-0.1903	-0.50923	-0.209571	-0.229442	
3.26996	0	0	-7.26849	-2.52539	-0.165232	-0.960519	-0.200355	-0.452854	-0.416535	-0.684588	-0.100322	-0.462621	-0.0581875	0.059228	-0.006912	-0.201757	0.472286	0.739133	0.122132	-0.282162	0.485577	0.541322	-0.272819	-0.348156	0.217153	-0.013832	-0.985105	0.634192	-0.192636	0.122271	-0.193669	-0.51096	-0.213139	-0.227111	
3.26843	0	0	-7.29434	-2.36459	-0.166331	-0.957411	-0.202979	-0.445439	-0.412297	-0.680119	-0.0981967	-0.456804	-0.0630677	0.0730205	0.0012875	-0.198623	0.473531	0.750319	0.122362	-0.273263	0.485739	0.549156	-0.267396	-0.346701	0.218255	-0.0094715	-0.977991	0.629544	-0.189744	0.120382	-0.197038	-0.51269	-0.216708	-0.22478	
3.26691	0	0	-7.32019	-2.2038	-0.167431	-0.954303	-0.205602	-0.438025	-0.408059	-0.675649	-0.096072	-0.450986	-0.067948	0.086813	0.009487	-0.195489	0.474777	0.761505	0.122592	-0.264364	0.485901	0.55699	-0.261973	-0.345247	0.219356	-0.005111	-0.970877	0.624895	-0.186852	0.118492	-0.200407	-0.51442	-0.220276	-0.222448	
3.25775	0	0	-7.20497	-2.61716	-0.171403	-0.963646	-0.202979	-0.445439	-0.409801	-0.687174	-0.101513	-0.447431	-0.073231	0.0867285	0.002127	-0.187847	0.466768	0.754739	0.124488	-0.260167	0.482838	0.549068	-0.258876	-0.345604	0.219356	-0.005111	-0.963757	0.620243	-0.186852	0.118492	-0.204026	-0.50419	-0.221085	-0.220161	
3.25622	0	0	-7.08975	-3.03053	-0.175376	-0.972989	-0.200355	-0.452854	-0.411542	-0.698698	-0.106954	-0.443875	-0.078514	0.086644	-0.005233	-0.180204	0.458759	0.747972	0.126383	-0.25597	0.479775	0.541146	-0.255779	-0.345961	0.219356	-0.005111	-0.956637	0.61559	-0.186852	0.118492	-0.207646	-0.493961	-0.221894	-0.217873	
3.25775	0	0	-6.97453	-3.44389	-0.179349	-0.982331	-0.197732	-0.460268	-0.413283	-0.710222	-0.112395	-0.44032	-0.083797	0.0865595	-0.012593	-0.172562	0.450749	0.741206	0.128279	-0.251774	0.476712	0.533225	-0.252682	-0.346318	0.219356	-0.005111	-0.949517	0.610938	-0.186852	0.118492	-0.211265	-0.483731	-0.222704	-0.215586	
3.24554	0	0	-6.85931	-3.85725	-0.183321	-0.991674	-0.195108	-0.467682	-0.415025	-0.721747	-0.117836	-0.436765	-0.08908	0.086475	-0.019953	-0.16492	0.44274	0.73444	0.130174	-0.247577	0.473649	0.525303	-0.249585	-0.346675	0.219356	-0.005111	-0.942397	0.606286	-0.186852	0.118492	-0.214885	-0.473501	-0.223513	-0.213299	
3.25622	0	0	-5.7222	-3.55563	-0.180029	-1.00098	-0.194234	-0.470152	-0.410869	-0.733493	-0.117836	-0.436765	-0.0821695	0.0819597	-0.0152012	-0.165191	0.438413	0.717314	0.131008	-0.249934	0.47423	0.507098	-0.245719	-0.349201	0.217476	-0.0072695	-0.936025	0.603759	-0.192634	0.122271	-0.211518	-0.471765	-0.228547	-0.222309	
3.26385	0	0	-4.58509	-3.25401	-0.176737	-1.01028	-0.19336	-0.472623	-0.406712	-0.74524	-0.117836	-0.436765	-0.075259	0.0774445	-0.0104495	-0.165462	0.434086	0.700189	0.131842	-0.252292	0.474811	0.488893	-0.241853	-0.351727	0.215595	-0.009428	-0.929652	0.601233	-0.198417	0.126049	-0.208151	-0.470029	-0.233582	-0.231319	
3.26538	0	0	-3.44798	-2.95239	-0.173444	-1.01959	-0.192486	-0.475093	-0.402556	-0.756986	-0.117836	-0.436765	-0.0683485	0.0729293	-0.00569775	-0.165732	0.429758	0.683064	0.132676	-0.254649	0.475391	0.470688	-0.237988	-0.354253	0.213715	-0.0115865	-0.92328	0.598706	-0.2042	0.129828	-0.204785	-0.468294	-0.238617	-0.240329	
3.26233	0	0	-2.31087	-2.65077	-0.170152	-1.02889	-0.191612	-0.477563	-0.3984	-0.768732	-0.117836	-0.436765	-0.061438	0.068414	-0.000946	-0.166003	0.425431	0.665938	0.13351	-0.257006	0.475972	0.452483	-0.234122	-0.356779	0.211835	-0.013745	-0.916908	0.596179	-0.209982	0.133606	-0.201418	-0.466558	-0.243651	-0.249339	
3.25775	0	0	-0.0893233	-4.1058	-0.178105	-1.04748	-0.194667	-0.500206	-0.411577	-0.788939	-0.128613	-0.441728	-0.0650957	0.0637368	-0.0078395	-0.172828	0.414362	0.653276	0.125552	-0.253617	0.464218	0.444357	-0.234122	-0.356779	0.209176	-0.0137008	-0.912589	0.59172	-0.209982	0.133606	-0.197401	-0.45539	-0.247544	-0.253814	
3.25928	0	0	2.13222	-5.56083	-0.186059	-1.06608	-0.197722	-0.522849	-0.424755	-0.809146	-0.139391	-0.446692	-0.0687535	0.0590595	-0.014733	-0.179654	0.403292	0.640613	0.117593	-0.250229	0.452464	0.436231	-0.234122	-0.356779	0.206517	-0.0136565	-0.90827	0.587261	-0.209982	0.133606	-0.193383	-0.444223	-0.251437	-0.258288	
3.25928	0	0	4.35376	-7.01586	-0.194013	-1.08467	-0.200778	-0.545491	-0.437933	-0.829354	-0.150168	-0.451655	-0.0724112	0.0543823	-0.0216265	-0.186479	0.392223	0.627951	0.109635	-0.246841	0.44071	0.428106	-0.234122	-0.356779	0.203859	-0.0136122	-0.903952	0.582802	-0.209982	0.133606	-0.189366	-0.433055	-0.255329	-0.262763	
3.26385	0	0	6.5753	-8.47089	-0.201966	-1.10326	-0.203833	-0.568134	-0.45111	-0.849561	-0.160945	-0.456618	-0.076069	0.049705	-0.02852	-0.193304	0.381154	0.615289	0.101677	-0.243452	0.428956	0.41998	-0.234122	-0.356779	0.2012	-0.013568	-0.899633	0.578343	-0.209982	0.133606	-0.185348	-0.421888	-0.259222	-0.267238	
3.25928	0	0	6.07721	-8.30802	-0.2045	-1.10636	-0.209935	-0.57171	-0.450747	-0.858779	-0.164165	-0.45931	-0.076069	0.049705	-0.0345675	-0.189353	0.373178	0.608591	0.100617	-0.250002	0.427708	0.406995	-0.233355	-0.358947	0.203536	-0.020171	-0.906762	0.583001	-0.21576	0.137382	-0.18781	-0.426194	-0.265056	-0.27394	
3.2608	0	0	5.57911	-8.14514	-0.207034	-1.10945	-0.216037	-0.575286	-0.450384	-0.867997	-0.167385	-0.462002	-0.076069	0.049705	-0.040615	-0.185401	0.365201	0.601894	0.099558	-0.256552	0.426461	0.39401	-0.232588	-0.361115	0.205873	-0.026774	-0.91389	0.587659	-0.221539	0.141157	-0.190273	-0.430499	-0.270891	-0.280642	
3.25775	0	0	5.08101	-7.98227	-0.209568	-1.11254	-0.22214	-0.578862	-0.450021	-0.877214	-0.170605	-0.464695	-0.076069	0.049705	-0.0466625	-0.181449	0.357225	0.595197	0.0984985	-0.263103	0.425213	0.381025	-0.23182	-0.363283	0.208209	-0.033377	-0.921019	0.592317	-0.227318	0.144933	-0.192735	-0.434804	-0.276725	-0.287344	
3.25775	0	0	4.58292	-7.8194	-0.212102	-1.11563	-0.228242	-0.582438	-0.449658	-0.886432	-0.173825	-0.467387	-0.076069	0.049705	-0.05271	-0.177498	0.349249	0.588499	0.097439	-0.269653	0.423965	0.36804	-0.231053	-0.365451	0.210545	-0.03998	-0.928148	0.596975	-0.233096	0.148709	-0.195197	-0.43911	-0.282559	-0.294046	
3.25928	0	0	5.57326	-8.61879	-0.221878	-1.11873	-0.2326	-0.59092	-0.461884	-0.892788	-0.179249	-0.463843	-0.077695	0.0543	-0.054013	-0.173816	0.349249	0.588499	0.0957727	-0.264944	0.422152	0.373165	-0.232588	-0.361115	0.210088	-0.0312188	-0.924584	0.594647	-0.227318	0.144933	-0.190272	-0.430494	-0.286114	-0.291723	
3.2608	0	0	6.56359	-9.41818	-0.231654	-1.12183	-0.236959	-0.599402	-0.47411	-0.899144	-0.184673	-0.460298	-0.079321	0.058895	-0.055316	-0.170134	0.349249	0.588499	0.0941065	-0.260235	0.420338	0.37829	-0.234122	-0.356778	0.209631	-0.0224575	-0.921021	0.592318	-0.221539	0.141157	-0.185347	-0.421878	-0.289668	-0.2894	
3.25775	0	0	7.55393	-10.2176	-0.24143	-1.12493	-0.241318	-0.607883	-0.486336	-0.9055	-0.190096	-0.456754	-0.080947	0.06349	-0.056619	-0.166452	0.349249	0.588499	0.0924403	-0.255526	0.418524	0.383415	-0.235657	-0.352442	0.209174	-0.0136963	-0.917457	0.589989	-0.21576	0.137382	-0.180421	-0.413263	-0.293223	-0.287078	
3.25928	0	0	8.54426	-11.017	-0.251206	-1.12803	-0.245676	-0.616365	-0.498562	-0.911856	-0.19552	-0.45321	-0.082573	0.068085	-0.057922	-0.16277	0.349249	0.588499	0.090774	-0.250817	0.416711	0.38854	-0.237191	-0.348106	0.208717	-0.004935	-0.913893	0.587661	-0.209982	0.133606	-0.175496	-0.404647	-0.296778	-0.284755	
3.26233	0	0	9.94182	-11.4276	-0.252297	-1.12494	-0.248722	-0.618147	-0.496914	-0.916515	-0.197632	-0.459018	-0.082573	0.068085	-0.056619	-0.166452	0.351074	0.583341	0.0861592	-0.256849	0.414555	0.378135	-0.239522	-0.349916	0.211834	-0.0137422	-0.928139	0.596969	-0.218648	0.139269	-0.173679	-0.409781	-0.295499	-0.296088	
3.2608	0	0	11.3394	-11.8383	-0.253388	-1.12186	-0.251768	-0.619929	-0.495266	-0.921173	-0.199744	-0.464826	-0.082573	0.068085	-0.055316	-0.170134	0.352899	0.578183	0.0815445	-0.26288	0.4124	0.367729	-0.241854	-0.351727	0.21495	-0.0225495	-0.942385	0.606278	-0.227315	0.144931	-0.171863	-0.414915	-0.294221	-0.307422	
3.2608	0	0	12.7369	-12.249	-0.254479	-1.11878	-0.254814	-0.621711	-0.493617	-0.925832	-0.201857	-0.470634	-0.082573	0.068085	-0.054013	-0.173816	0.354724	0.573026	0.0769298	-0.268911	0.410244	0.357324	-0.244185	-0.353537	0.218066	-0.0313567	-0.956631	0.615587	-0.235981	0.150594	-0.170046	-0.420049	-0.292942	-0.318756	
3.26538	0	0	14.1345	-12.6597	-0.25557	-1.11569	-0.25786	-0.623493	-0.491969	-0.930491	-0.203969	-0.476442	-0.082573	0.068085	-0.05271	-0.177498	0.356549	0.567868	0.072315	-0.274943	0.408088	0.346919	-0.246517	-0.355347	0.221183	-0.040164	-0.970877	0.624895	-0.244647	0.156257	-0.168229	-0.425183	-0.291664	-0.330089	
3.26538	0	0	12.2934	-12.2634	-0.257753	-1.10952	-0.266549	-0.619701	-0.502422	-0.925451	-0.207277	-0.467092	-0.0821745	0.0819738	-0.051877	-0.166713	0.352898	0.578187	0.0758708	-0.275458	0.408088	0.346919	-0.247284	-0.353179	0.224946	-0.0358523	-0.974435	0.62722	-0.241759	0.15437	-0.16057	-0.424266	-0.294411	-0.330042	
3.26843	0	0	10.4523	-11.8671	-0.259936	-1.10336	-0.275238	-0.615909	-0.512875	-0.920411	-0.210586	-0.457742	-0.081776	0.0958625	-0.051044	-0.155927	0.349247	0.588505	0.0794265	-0.275973	0.408088	0.346919	-0.248051	-0.351011	0.22871	-0.0315405	-0.977993	0.629544	-0.238872	0.152483	-0.152911	-0.42335	-0.297159	-0.329995	
3.26691	0	0	8.61117	-11.4708	-0.262119	-1.09719	-0.283927	-0.612117	-0.523328	-0.91537	-0.213894	-0.448393	-0.0813775	0.109751	-0.050211	-0.145142	0.345596	0.598823	0.0829823	-0.276488	0.408088	0.346919	-0.248818	-0.348843	0.232473	-0.0272287	-0.98155	0.631869	-0.235984	0.150596	-0.145251	-0.422433	-0.299906	-0.329948	
3.26996	0	0	6.77007	-11.0745	-0.264302	-1.09102	-0.292616	-0.608325	-0.533781	-0.91033	-0.217202	-0.439043	-0.080979	0.12364	-0.049378	-0.134357	0.341945	0.609142	0.086538	-0.277003	0.408088	0.346919	-0.249585	-0.346675	0.236237	-0.022917	-0.985108	0.634194	-0.233096	0.148709	-0.137592	-0.421517	-0.302654	-0.329901	
3.27301	0	0	4.82295	-10.3411	-0.264302	-1.09102	-0.295656	-0.610108	-0.53589	-0.912531	-0.220413	-0.441738	-0.0793497	0.119036	-0.0528172	-0.137777	0.33705	0.608373	0.0835858	-0.287723	0.408818	0.336613	-0.251148	-0.350652	0.234809	-0.0338285	-0.995772	0.641162	-0.243888	0.154124	-0.142528	-0.430129	-0.303324	-0.343432	
3.27301	0	0	2.87584	-9.60778	-0.264302	-1.09102	-0.298696	-0.611891	-0.537999	-0.914732	-0.223624	-0.444433	-0.0777205	0.114431	-0.0562565	-0.141197	0.332155	0.607603	0.0806335	-0.298443	0.409548	0.326306	-0.252712	-0.35463	0.23338	-0.04474	-1.00644	0.64813	-0.25468	0.15954	-0.147464	-0.438741	-0.303994	-0.356963	
3.27148	0	0	0.928727	-8.87445	-0.264302	-1.09102	-0.301735	-0.613674	-0.540107	-0.916932	-0.226835	-0.447127	-0.0760912	0.109826	-0.0596957	-0.144616	0.327261	0.606834	0.0776813	-0.309163	0.410278	0.316	-0.254275	-0.358607	0.231952	-0.0556515	-1.0171	0.655099	-0.265473	0.164956	-0.152401	-0.447353	-0.304664	-0.370495	
3.27453	0	0	-1.01839	-8.14111	-0.264302	-1.09102	-0.304775	-0.615457	-0.542216	-0.919133	-0.230046	-0.449822	-0.074462	0.105222	-0.063135	-0.148036	0.322366	0.606065	0.074729	-0.319883	0.411008	0.305694	-0.255839	-0.362584	0.230524	-0.066563	-1.02777	0.662067	-0.276265	0.170371	-0.157337	-0.455965	-0.305334	-0.384026	
3.27911	0	0	-2.22566	-7.73245	-0.262868	-1.08483	-0.308246	-0.605649	-0.54716	-0.905161	-0.227938	-0.444009	-0.0724363	0.114524	-0.0610007	-0.140928	0.325434	0.611998	0.0738977	-0.317534	0.412088	0.310884	-0.255072	-0.36475	0.232407	-0.064411	-1.03842	0.669027	-0.277018	0.1725	-0.153054	-0.456792	-0.311625	-0.381659	
3.28064	0	0	-3.43293	-7.32379	-0.261434	-1.07865	-0.311716	-0.59584	-0.552104	-0.891188	-0.225831	-0.438195	-0.0704105	0.123826	-0.0588665	-0.13382	0.328502	0.61793	0.0730665	-0.315186	0.413168	0.316074	-0.254305	-0.366916	0.234289	-0.062259	-1.04907	0.675987	-0.277772	0.174628	-0.14877	-0.45762	-0.317916	-0.379293	
3.27759	0	0	-4.64021	-6.91513	-0.26	-1.07246	-0.315187	-0.586032	-0.557047	-0.877216	-0.223724	-0.432381	-0.0683847	0.133127	-0.0567322	-0.126712	0.331569	0.623863	0.0722353	-0.312837	0.414249	0.321264	-0.253539	-0.369083	0.236171	-0.060107	-1.05972	0.682946	-0.278525	0.176756	-0.144487	-0.458447	-0.324206	-0.376926	
3.27759	0	0	-5.84748	-6.50647	-0.258566	-1.06628	-0.318657	-0.576224	-0.561991	-0.863244	-0.221616	-0.426568	-0.066359	0.142429	-0.054598	-0.119604	0.334637	0.629796	0.071404	-0.310489	0.415329	0.326454	-0.252772	-0.371249	0.238054	-0.057955	-1.07037	0.689906	-0.279278	0.178885	-0.140204	-0.459274	-0.330497	-0.37456	
3.27911	0	0	-6.63994	-6.27836	-0.263277	-1.0632	-0.317789	-0.578677	-0.558235	-0.865698	-0.225831	-0.438187	-0.070014	0.137732	-0.054126	-0.134077	0.336464	0.624633	0.069281	-0.323533	0.411361	0.321187	-0.262055	-0.370177	0.233962	-0.0688	-1.08455	0.699172	-0.287927	0.184536	-0.149421	-0.467041	-0.334711	-0.385743	
3.28064	0	0	-7.4324	-6.05024	-0.267989	-1.06012	-0.316921	-0.58113	-0.55448	-0.868152	-0.230046	-0.449806	-0.073669	0.133034	-0.053654	-0.148551	0.338291	0.619469	0.067158	-0.336577	0.407392	0.31592	-0.271339	-0.369105	0.22987	-0.079645	-1.09873	0.708438	-0.296575	0.190188	-0.158637	-0.474807	-0.338926	-0.396927	
3.28522	0	0	-8.22486	-5.82212	-0.2727	-1.05704	-0.316053	-0.583583	-0.550725	-0.870607	-0.234262	-0.461426	-0.077324	0.128337	-0.053182	-0.163024	0.340118	0.614305	0.065035	-0.349621	0.403423	0.310653	-0.280622	-0.368033	0.225779	-0.09049	-1.11291	0.717705	-0.305224	0.195839	-0.167853	-0.482573	-0.343141	-0.40811	
3.28064	0	0	-9.01732	-5.59401	-0.277411	-1.05397	-0.315185	-0.586036	-0.546969	-0.873061	-0.238477	-0.473045	-0.080979	0.12364	-0.05271	-0.177498	0.341945	0.609142	0.062912	-0.362665	0.399455	0.305386	-0.289906	-0.366961	0.221687	-0.101335	-1.12709	0.726971	-0.313873	0.20149	-0.17707	-0.49034	-0.347355	-0.419293	
3.28522	0	0	-9.56139	-5.43782	-0.274887	-1.05086	-0.314753	-0.576883	-0.548989	-0.859187	-0.241783	-0.463702	-0.0789557	0.132949	-0.0566202	-0.166447	0.33829	0.619472	0.0620825	-0.360321	0.400535	0.310575	-0.290672	-0.364796	0.223569	-0.0991877	-1.12709	0.726971	-0.313873	0.20149	-0.174604	-0.486045	-0.348958	-0.414765	
3.28369	0	0	-10.1055	-5.28164	-0.272362	-1.04776	-0.314321	-0.567731	-0.55101	-0.845314	-0.245089	-0.454358	-0.0769325	0.142258	-0.0605305	-0.155397	0.334635	0.629803	0.061253	-0.357977	0.401614	0.315764	-0.291438	-0.362631	0.225451	-0.0970405	-1.12709	0.726971	-0.313873	0.20149	-0.172137	-0.48175	-0.35056	-0.410236	
3.28216	0	0	-10.6495	-5.12546	-0.269838	-1.04466	-0.313889	-0.558578	-0.55303	-0.831441	-0.248395	-0.445015	-0.0749093	0.151567	-0.0644407	-0.144346	0.330979	0.640133	0.0604235	-0.355632	0.402693	0.320953	-0.292204	-0.360467	0.227334	-0.0948932	-1.12709	0.726971	-0.313873	0.20149	-0.169671	-0.477456	-0.352162	-0.405707	
3.28216	0	0	-11.1936	-4.96928	-0.267313	-1.04156	-0.313457	-0.549426	-0.55505	-0.817567	-0.251701	-0.435672	-0.072886	0.160876	-0.068351	-0.133296	0.327324	0.650463	0.059594	-0.353288	0.403773	0.326142	-0.29297	-0.358302	0.229216	-0.092746	-1.12709	0.726971	-0.313873	0.20149	-0.167205	-0.473161	-0.353765	-0.401179	
3.28674	0	0	-11.5759	-4.88583	-0.262599	-1.04464	-0.318232	-0.546306	-0.553398	-0.822235	-0.248395	-0.445015	-0.0749093	0.151567	-0.0704842	-0.140398	0.327324	0.650463	0.0585312	-0.3598	0.398903	0.32343	-0.295295	-0.360111	0.224347	-0.101377	-1.13847	0.73604	-0.320387	0.207383	-0.166299	-0.475722	-0.365182	-0.391977	
3.28827	0	0	-11.9582	-4.80237	-0.257885	-1.04772	-0.323006	-0.543187	-0.551746	-0.826904	-0.245089	-0.454358	-0.0769325	0.142258	-0.0726175	-0.147499	0.327324	0.650463	0.0574685	-0.366312	0.394033	0.320718	-0.297621	-0.36192	0.219479	-0.110009	-1.14984	0.74511	-0.326902	0.213277	-0.165392	-0.478284	-0.3766	-0.382775	
3.28979	0	0	-12.3405	-4.71892	-0.253171	-1.0508	-0.32778	-0.540067	-0.550094	-0.831572	-0.241783	-0.463702	-0.0789557	0.132949	-0.0747507	-0.154601	0.327324	0.650463	0.0564058	-0.372824	0.389163	0.318006	-0.299946	-0.363728	0.21461	-0.11864	-1.16122	0.754179	-0.333417	0.21917	-0.164486	-0.480845	-0.388018	-0.373573	
3.28674	0	0	-12.7228	-4.63547	-0.248457	-1.05388	-0.332555	-0.536947	-0.548442	-0.83624	-0.238477	-0.473045	-0.080979	0.12364	-0.076884	-0.161702	0.327324	0.650463	0.055343	-0.379336	0.384293	0.315294	-0.302271	-0.365537	0.209741	-0.127272	-1.17259	0.763248	-0.339931	0.225064	-0.16358	-0.483407	-0.399435	-0.364371	
3.29132	0	0	-13.0051	-4.57199	-0.248119	-1.04459	-0.329519	-0.535153	-0.545054	-0.829478	-0.239578	-0.469932	-0.075693	0.123728	-0.0781867	-0.15802	0.323665	0.660805	0.0597225	-0.382198	0.390068	0.315449	-0.298414	-0.368057	0.212399	-0.127322	-1.17613	0.765559	-0.339178	0.222935	-0.160205	-0.481673	-0.394765	-0.362196	
3.28827	0	0	-13.2874	-4.5085	-0.24778	-1.0353	-0.326483	-0.533359	-0.541665	-0.822717	-0.24068	-0.466819	-0.070407	0.123815	-0.0794895	-0.154338	0.320005	0.671148	0.064102	-0.385059	0.395842	0.315605	-0.294557	-0.370578	0.215057	-0.127372	-1.17967	0.767871	-0.338424	0.220806	-0.15683	-0.479939	-0.390095	-0.36002	
3.28674	0	0	-13.5696	-4.44501	-0.247441	-1.026	-0.323448	-0.531565	-0.538277	-0.815955	-0.241781	-0.463705	-0.065121	0.123903	-0.0807922	-0.150657	0.316346	0.68149	0.0684815	-0.387921	0.401616	0.31576	-0.2907	-0.373098	0.217714	-0.127423	-1.1832	0.770182	-0.33767	0.218677	-0.153456	-0.478205	-0.385425	-0.357845	
3.29132	0	0	-13.8519	-4.38153	-0.247103	-1.01671	-0.320412	-0.529771	-0.534889	-0.809193	-0.242883	-0.460592	-0.059835	0.123991	-0.082095	-0.146975	0.312686	0.691832	0.072861	-0.390782	0.407391	0.315916	-0.286843	-0.375618	0.220372	-0.127473	-1.18674	0.772493	-0.336917	0.216548	-0.150081	-0.476471	-0.380755	-0.355669	
3.28827	0	0	-14.0474	-4.36785	-0.242725	-1.02909	-0.324745	-0.538266	-0.538733	-0.822829	-0.244898	-0.4784	-0.0638935	0.105419	-0.0837613	-0.168499	0.309625	0.685881	0.069073	-0.399102	0.406311	0.310729	-0.296878	-0.372387	0.214729	-0.133897	-1.19734	0.779421	-0.339796	0.218429	-0.159546	-0.472256	-0.385096	-0.351089	
3.28827	0	0	-14.2429	-4.35417	-0.238347	-1.04146	-0.329078	-0.546762	-0.542578	-0.836465	-0.246912	-0.496208	-0.067952	0.086848	-0.0854275	-0.190022	0.306563	0.67993	0.065285	-0.407423	0.40523	0.305543	-0.306913	-0.369156	0.209085	-0.140321	-1.20795	0.78635	-0.342676	0.22031	-0.169012	-0.468041	-0.389437	-0.34651	
3.29285	0	0	-14.4383	-4.34049	-0.233969	-1.05383	-0.333411	-0.555257	-0.546422	-0.850101	-0.248927	-0.514017	-0.0720105	0.0682765	-0.0870937	-0.211546	0.303502	0.67398	0.061497	-0.415743	0.40415	0.300356	-0.316948	-0.365926	0.203441	-0.146745	-1.21855	0.793278	-0.345555	0.222192	-0.178478	-0.463826	-0.393778	-0.34193	
3.29437	0	0	-14.6338	-4.3268	-0.229591	-1.06621	-0.337744	-0.563752	-0.550267	-0.863737	-0.250942	-0.531825	-0.076069	0.049705	-0.08876	-0.23307	0.300441	0.668029	0.057709	-0.424063	0.40307	0.29517	-0.326983	-0.362695	0.197798	-0.153169	-1.22915	0.800206	-0.348434	0.224073	-0.187943	-0.459611	-0.398119	-0.33735	
3.29285	0	0	-14.7836	-4.30075	-0.228155	-1.06001	-0.339481	-0.558844	-0.546052	-0.859319	-0.250942	-0.531825	-0.0793217	0.0588975	-0.0900593	-0.229399	0.305333	0.668807	0.0560537	-0.419385	0.402341	0.30547	-0.323895	-0.36305	0.198903	-0.148837	-1.22915	0.800206	-0.349187	0.226202	-0.181852	-0.46556	-0.396185	-0.335125	
3.29132	0	0	-14.9334	-4.2747	-0.226718	-1.05382	-0.341218	-0.553936	-0.541837	-0.854901	-0.250942	-0.531825	-0.0825745	0.06809	-0.0913585	-0.225727	0.310224	0.669585	0.0543985	-0.414707	0.401612	0.31577	-0.320806	-0.363405	0.200008	-0.144506	-1.22915	0.800206	-0.34994	0.228331	-0.175762	-0.471509	-0.394252	-0.332901	
3.2959	0	0	-15.0832	-4.24864	-0.225282	-1.04762	-0.342954	-0.549027	-0.537621	-0.850483	-0.250942	-0.531825	-0.0858273	0.0772825	-0.0926577	-0.222056	0.315115	0.670364	0.0527433	-0.410029	0.400883	0.32607	-0.317718	-0.36376	0.201113	-0.140174	-1.22915	0.800206	-0.350694	0.23046	-0.169671	-0.477458	-0.392319	-0.330677	
3.29895	0	0	-15.233	-4.22259	-0.223846	-1.04143	-0.344691	-0.544119	-0.533406	-0.846065	-0.250942	-0.531825	-0.08908	0.086475	-0.093957	-0.218385	0.320007	0.671142	0.051088	-0.405351	0.400154	0.33637	-0.31463	-0.364115	0.202218	-0.135842	-1.22915	0.800206	-0.351447	0.232589	-0.16358	-0.483407	-0.390385	-0.328452	
3.29742	0	0	-15.3427	-4.22664	-0.226719	-1.05381	-0.349019	-0.552605	-0.534324	-0.859803	-0.256256	-0.540278	-0.0963823	0.0771195	-0.102118	-0.221516	0.315115	0.670364	0.0494318	-0.40067	0.398344	0.341486	-0.318484	-0.361597	0.203323	-0.131506	-1.2284	0.798076	-0.344935	0.226697	-0.165393	-0.478283	-0.385713	-0.32627	
3.29742	0	0	-15.4525	-4.2307	-0.229592	-1.06619	-0.353348	-0.561091	-0.535242	-0.873541	-0.261571	-0.548732	-0.103685	0.067764	-0.11028	-0.224647	0.310224	0.669585	0.0477755	-0.395989	0.396533	0.346603	-0.322337	-0.359079	0.204427	-0.12717	-1.22764	0.795947	-0.338422	0.220805	-0.167206	-0.47316	-0.381041	-0.324087	
3.29895	0	0	-15.5623	-4.23475	-0.232465	-1.07857	-0.357676	-0.569577	-0.536159	-0.887278	-0.266885	-0.557186	-0.110987	0.0584085	-0.118441	-0.227779	0.305333	0.668807	0.0461193	-0.391309	0.394722	0.351719	-0.326191	-0.35656	0.205532	-0.122834	-1.22689	0.793817	-0.331909	0.214913	-0.169019	-0.468037	-0.376368	-0.321905	
3.29742	0	0	-15.6721	-4.23881	-0.235338	-1.09095	-0.362004	-0.578063	-0.537077	-0.901016	-0.2722	-0.565639	-0.118289	0.049053	-0.126602	-0.23091	0.300441	0.668029	0.044463	-0.386628	0.392912	0.356835	-0.330045	-0.354042	0.206637	-0.118498	-1.22614	0.791687	-0.325397	0.209021	-0.170832	-0.462913	-0.371696	-0.319723	
3.302	0	0	-15.761	-4.223	-0.231714	-1.09095	-0.358972	-0.576275	-0.535793	-0.896482	-0.277689	-0.550126	-0.121538	0.058236	-0.124471	-0.223838	0.303502	0.67398	0.0463542	-0.382463	0.393988	0.362036	-0.324633	-0.352587	0.206964	-0.111963	-1.22614	0.791687	-0.325397	0.209021	-0.17511	-0.462087	-0.374434	-0.319679	
3.30047	0	0	-15.8498	-4.20718	-0.228091	-1.09094	-0.35594	-0.574486	-0.534508	-0.891949	-0.283178	-0.534614	-0.124788	0.067419	-0.12234	-0.216767	0.306563	0.67993	0.0482455	-0.378297	0.395065	0.367237	-0.319221	-0.351132	0.207291	-0.105427	-1.22614	0.791687	-0.325397	0.209021	-0.179388	-0.461262	-0.377173	-0.319635	
3.2959	0	0	-15.9387	-4.19137	-0.224467	-1.09094	-0.352909	-0.572697	-0.533224	-0.887415	-0.288667	-0.519101	-0.128037	0.076602	-0.12021	-0.209695	0.309625	0.685881	0.0501368	-0.374132	0.396142	0.372438	-0.31381	-0.349676	0.207619	-0.0988915	-1.22614	0.791687	-0.325397	0.209021	-0.183665	-0.460437	-0.379911	-0.319592	
3.30047	0	0	-16.0276	-4.17556	-0.220843	-1.09093	-0.349877	-0.570909	-0.531939	-0.882881	-0.294156	-0.503588	-0.131286	0.085785	-0.118079	-0.202623	0.312686	0.691832	0.052028	-0.369966	0.397218	0.377639	-0.308398	-0.348221	0.207946	-0.092356	-1.22614	0.791687	-0.325397	0.209021	-0.187943	-0.459611	-0.382649	-0.319548	
3.302	0	0	-16.0942	-4.18338	-0.228434	-1.1002	-0.355072	-0.576934	-0.536616	-0.894144	-0.302749	-0.502746	-0.143443	0.0901977	-0.130128	-0.19475	0.29925	0.700612	0.0495403	-0.362935	0.395405	0.382763	-0.309164	-0.346056	0.208272	-0.085813	-1.22967	0.793995	-0.322516	0.207138	-0.190663	-0.451922	-0.381846	-0.321818	
3.30353	0	0	-16.1607	-4.19119	-0.236024	-1.10948	-0.360267	-0.582959	-0.541293	-0.905407	-0.311342	-0.501904	-0.1556	0.0946105	-0.142176	-0.186878	0.285813	0.709391	0.0470525	-0.355904	0.393592	0.387887	-0.30993	-0.34389	0.208597	-0.07927	-1.2332	0.796302	-0.319635	0.205256	-0.193384	-0.444234	-0.381043	-0.324087	
3.29895	0	0	-16.2273	-4.199	-0.243615	-1.11875	-0.365462	-0.588984	-0.54597	-0.916669	-0.319935	-0.501062	-0.167757	0.0990233	-0.154224	-0.179005	0.272377	0.718171	0.0445648	-0.348873	0.391779	0.39301	-0.310697	-0.341725	0.208923	-0.072727	-1.23673	0.798609	-0.316754	0.203373	-0.196105	-0.436545	-0.380239	-0.326357	
3.30047	0	0	-16.2939	-4.20681	-0.251206	-1.12803	-0.370657	-0.595009	-0.550647	-0.927932	-0.328528	-0.50022	-0.179914	0.103436	-0.166273	-0.171132	0.25894	0.726951	0.042077	-0.341842	0.389966	0.398134	-0.311463	-0.33956	0.209249	-0.066184	-1.24026	0.800917	-0.313873	0.20149	-0.198825	-0.428856	-0.379436	-0.328627	
3.29895	0	0	-16.3425	-4.20285	-0.245404	-1.13419	-0.375418	-0.591898	-0.55147	-0.925606	-0.33282	-0.499801	-0.179914	0.103436	-0.170992	-0.170871	0.25894	0.726951	0.0401878	-0.346013	0.391779	0.39301	-0.31764	-0.338853	0.210027	-0.0683818	-1.24732	0.805529	-0.319634	0.205255	-0.198568	-0.440841	-0.384436	-0.337563	
3.30353	0	0	-16.3911	-4.19889	-0.239602	-1.14035	-0.38018	-0.588787	-0.552293	-0.92328	-0.337112	-0.499382	-0.179914	0.103436	-0.17571	-0.17061	0.25894	0.726951	0.0382985	-0.350184	0.393592	0.387887	-0.323817	-0.338145	0.210805	-0.0705795	-1.25438	0.810142	-0.325395	0.209019	-0.19831	-0.452827	-0.389435	-0.346499	
3.30047	0	0	-16.4398	-4.19493	-0.2338	-1.14651	-0.384941	-0.585676	-0.553116	-0.920954	-0.341404	-0.498962	-0.179914	0.103436	-0.180429	-0.17035	0.25894	0.726951	0.0364093	-0.354355	0.395405	0.382763	-0.329993	-0.337438	0.211582	-0.0727773	-1.26144	0.814754	-0.331156	0.212783	-0.198052	-0.464813	-0.394435	-0.355435	
3.30353	0	0	-16.4884	-4.19097	-0.227998	-1.15267	-0.389702	-0.582565	-0.553939	-0.918628	-0.345696	-0.498543	-0.179914	0.103436	-0.185148	-0.170089	0.25894	0.726951	0.03452	-0.358526	0.397218	0.377639	-0.33617	-0.336731	0.21236	-0.074975	-1.2685	0.819366	-0.336917	0.216548	-0.197795	-0.476798	-0.399435	-0.364371	
3.30047	0	0	-16.5301	-4.19376	-0.234501	-1.16498	-0.390996	-0.589245	-0.560256	-0.925222	-0.354271	-0.497708	-0.193674	0.112427	-0.191162	-0.166159	0.245525	0.735717	0.0328615	-0.353839	0.391611	0.385242	-0.340022	-0.334214	0.212685	-0.0684262	-1.27555	0.823974	-0.334037	0.214666	-0.196889	-0.479357	-0.397031	-0.371165	
3.29742	0	0	-16.5718	-4.19655	-0.241003	-1.1773	-0.392291	-0.595925	-0.566574	-0.931817	-0.362846	-0.496873	-0.207434	0.121418	-0.197175	-0.16223	0.232109	0.744483	0.031203	-0.349152	0.386004	0.392845	-0.343874	-0.331697	0.213009	-0.0618775	-1.2826	0.828582	-0.331157	0.212784	-0.195984	-0.481916	-0.394627	-0.377958	
3.30047	0	0	-16.6134	-4.19934	-0.247506	-1.18961	-0.393586	-0.602606	-0.572891	-0.938411	-0.371421	-0.496038	-0.221194	0.130409	-0.203188	-0.158301	0.218694	0.753249	0.0295445	-0.344466	0.380397	0.400447	-0.347726	-0.32918	0.213334	-0.0553287	-1.28965	0.833191	-0.328277	0.210903	-0.195079	-0.484476	-0.392223	-0.384752	
3.29742	0	0	-16.6551	-4.20213	-0.254009	-1.20193	-0.39488	-0.609286	-0.579209	-0.945005	-0.379996	-0.495203	-0.234954	0.1394	-0.209202	-0.154371	0.205279	0.762015	0.027886	-0.339779	0.37479	0.40805	-0.351578	-0.326663	0.213659	-0.04878	-1.29671	0.837799	-0.325397	0.209021	-0.194173	-0.487035	-0.389819	-0.391546	
3.29742	0	0	-16.684	-4.19247	-0.257625	-1.20193	-0.397478	-0.601945	-0.580853	-0.940358	-0.384279	-0.494787	-0.236579	0.143993	-0.213913	-0.154114	0.210153	0.762809	0.0287155	-0.342123	0.37479	0.40805	-0.353897	-0.328475	0.211779	-0.0509325	-1.30375	0.842403	-0.328277	0.210903	-0.199098	-0.49561	-0.395954	-0.404919	
3.2959	0	0	-16.7129	-4.1828	-0.261242	-1.20193	-0.400076	-0.594604	-0.582498	-0.935712	-0.388562	-0.494371	-0.238204	0.148585	-0.218624	-0.153858	0.215027	0.763603	0.029545	-0.344467	0.37479	0.40805	-0.356216	-0.330287	0.209898	-0.053085	-1.3108	0.847008	-0.331157	0.212784	-0.204024	-0.504185	-0.402088	-0.418293	
3.29895	0	0	-16.7418	-4.17314	-0.264858	-1.20193	-0.402673	-0.587262	-0.584142	-0.931065	-0.392845	-0.493955	-0.239829	0.153178	-0.223335	-0.153601	0.2199	0.764398	0.0303745	-0.34681	0.37479	0.40805	-0.358534	-0.3321	0.208018	-0.0552375	-1.31785	0.851612	-0.334037	0.214666	-0.208949	-0.512761	-0.408222	-0.431667	
3.29895	0	0	-16.7706	-4.16348	-0.268474	-1.20193	-0.405271	-0.579921	-0.585786	-0.926419	-0.397128	-0.493539	-0.241454	0.157771	-0.228046	-0.153344	0.224774	0.765192	0.031204	-0.349154	0.37479	0.40805	-0.360853	-0.333912	0.206138	-0.05739	-1.32489	0.856217	-0.336917	0.216548	-0.213874	-0.521336	-0.414357	-0.44504	
3.29742	0	0	-16.795	-4.15448	-0.274613	-1.205	-0.408738	-0.570123	-0.589534	-0.92397	-0.405795	-0.480725	-0.246334	0.171563	-0.233243	-0.138656	0.225984	0.776352	0.0270552	-0.33743	0.374955	0.415827	-0.366999	-0.324904	0.208341	-0.0486807	-1.32565	0.858347	-0.33479	0.216795	-0.216587	-0.513669	-0.410825	-0.447348	
3.2959	0	0	-16.8193	-4.14549	-0.280752	-1.20808	-0.412204	-0.560326	-0.593281	-0.921521	-0.414462	-0.467911	-0.251215	0.185356	-0.23844	-0.123967	0.227193	0.787513	0.0229065	-0.325705	0.37512	0.423605	-0.373145	-0.315897	0.210544	-0.0399715	-1.3264	0.860476	-0.332664	0.217042	-0.2193	-0.506002	-0.407294	-0.449655	
3.29895	0	0	-16.8436	-4.13649	-0.286891	-1.21115	-0.415671	-0.550528	-0.597028	-0.919073	-0.42313	-0.455097	-0.256095	0.199149	-0.243638	-0.109279	0.228403	0.798673	0.0187578	-0.31398	0.375285	0.431382	-0.379291	-0.306889	0.212748	-0.0312623	-1.32715	0.862606	-0.330538	0.21729	-0.222012	-0.498335	-0.403763	-0.451962	
3.29742	0	0	-16.8679	-4.12749	-0.29303	-1.21422	-0.419138	-0.54073	-0.600776	-0.916624	-0.431797	-0.442283	-0.260975	0.212941	-0.248835	-0.09459	0.229613	0.809833	0.014609	-0.302256	0.37545	0.439159	-0.385437	-0.297882	0.214951	-0.022553	-1.32791	0.864736	-0.328411	0.217537	-0.224725	-0.490668	-0.400231	-0.45427	
3.29742	0	0	-16.8855	-4.11375	-0.291944	-1.21729	-0.419587	-0.529123	-0.597393	-0.909895	-0.428617	-0.43959	-0.262603	0.217543	-0.251437	-0.0872365	0.227778	0.815021	0.0198163	-0.307462	0.377265	0.434029	-0.380057	-0.304726	0.217287	-0.0291563	-1.32715	0.862606	-0.330538	0.21729	-0.213467	-0.499989	-0.399432	-0.456528	
3.2959	0	0	-16.903	-4.1	-0.290858	-1.22036	-0.420036	-0.517516	-0.59401	-0.903167	-0.425436	-0.436897	-0.264232	0.222145	-0.254039	-0.079883	0.225942	0.820209	0.0250235	-0.312668	0.37908	0.428899	-0.374676	-0.311569	0.219624	-0.0357595	-1.3264	0.860476	-0.332664	0.217042	-0.202209	-0.509311	-0.398633	-0.458786	
3.2959	0	0	-16.9205	-4.08626	-0.289772	-1.22343	-0.420484	-0.505908	-0.590628	-0.896439	-0.422256	-0.434203	-0.26586	0.226748	-0.256641	-0.0725295	0.224106	0.825396	0.0302307	-0.317874	0.380895	0.42377	-0.369296	-0.318413	0.221961	-0.0423628	-1.32565	0.858347	-0.33479	0.216795	-0.190952	-0.518633	-0.397835	-0.461043	
3.2959	0	0	-16.938	-4.07251	-0.288686	-1.2265	-0.420933	-0.494301	-0.587245	-0.88971	-0.419076	-0.43151	-0.267489	0.23135	-0.259243	-0.065176	0.222271	0.830584	0.035438	-0.32308	0.38271	0.41864	-0.363916	-0.325257	0.224297	-0.048966	-1.32489	0.856217	-0.336917	0.216548	-0.179694	-0.527954	-0.397036	-0.463301	
3.29742	0	0	-16.95	-4.06236	-0.290859	-1.22036	-0.425279	-0.482019	-0.593014	-0.873407	-0.424573	-0.415976	-0.2704	0.25452	-0.259748	-0.050693	0.216758	0.846165	0.0364952	-0.316553	0.385763	0.426508	-0.358512	-0.323796	0.227282	-0.0424537	-1.32212	0.856045	-0.331156	0.212783	-0.181756	-0.510868	-0.390429	-0.458935	
3.29742	0	0	-16.962	-4.05221	-0.293031	-1.21422	-0.429625	-0.469736	-0.598782	-0.857104	-0.430069	-0.400442	-0.273311	0.277689	-0.260252	-0.03621	0.211245	0.861746	0.0375525	-0.310027	0.388817	0.434376	-0.353108	-0.322334	0.230267	-0.0359415	-1.31936	0.855873	-0.325395	0.209019	-0.183818	-0.493783	-0.383823	-0.454569	
3.29895	0	0	-16.9741	-4.04206	-0.295203	-1.20808	-0.433971	-0.457453	-0.604551	-0.840801	-0.435565	-0.384908	-0.276222	0.300858	-0.260757	-0.021727	0.205731	0.877328	0.0386097	-0.303501	0.391871	0.442245	-0.347703	-0.320873	0.233252	-0.0294293	-1.31659	0.855701	-0.319634	0.205255	-0.185881	-0.476697	-0.377217	-0.450202	
3.29895	0	0	-16.9861	-4.03191	-0.297376	-1.20194	-0.438317	-0.445171	-0.61032	-0.824498	-0.441062	-0.369374	-0.279133	0.324028	-0.261262	-0.007244	0.200218	0.892909	0.039667	-0.296974	0.394924	0.450113	-0.342299	-0.319411	0.236237	-0.022917	-1.31382	0.855529	-0.313873	0.20149	-0.187943	-0.459611	-0.37061	-0.445836	
3.29742	0	0	-16.996	-4.02776	-0.295203	-1.20808	-0.439187	-0.442712	-0.607394	-0.824618	-0.439962	-0.372483	-0.274235	0.310186	-0.264664	-0.0106857	0.206934	0.888521	0.043819	-0.308708	0.398556	0.439848	-0.344619	-0.321224	0.234031	-0.031629	-1.31659	0.855701	-0.319634	0.205255	-0.183414	-0.472411	-0.367413	-0.454873	
3.29895	0	0	-17.0058	-4.0236	-0.293031	-1.21422	-0.440057	-0.440254	-0.604468	-0.824737	-0.438862	-0.375592	-0.269338	0.296343	-0.268066	-0.0141275	0.213649	0.884132	0.047971	-0.320442	0.402189	0.429583	-0.346939	-0.323037	0.231824	-0.040341	-1.31936	0.855873	-0.325395	0.209019	-0.178885	-0.485211	-0.364215	-0.463909	
3.30505	0	0	-17.0157	-4.01944	-0.290859	-1.22036	-0.440927	-0.437796	-0.601542	-0.824856	-0.437762	-0.378701	-0.26444	0.2825	-0.271468	-0.0175692	0.220365	0.879744	0.052123	-0.332175	0.405821	0.419318	-0.349258	-0.32485	0.229618	-0.049053	-1.32212	0.856045	-0.331156	0.212783	-0.174355	-0.498011	-0.361017	-0.472946	
3.29742	0	0	-17.0256	-4.01528	-0.288686	-1.2265	-0.441797	-0.435337	-0.598616	-0.824976	-0.436662	-0.38181	-0.259542	0.268658	-0.27487	-0.021011	0.227081	0.875356	0.056275	-0.343909	0.409453	0.409053	-0.351578	-0.326663	0.227411	-0.057765	-1.32489	0.856217	-0.336917	0.216548	-0.169826	-0.510811	-0.35782	-0.481983	
3.30047	0	0	-17.0321	-4.00872	-0.285073	-1.2265	-0.440518	-0.428607	-0.593961	-0.813662	-0.438862	-0.375591	-0.26444	0.2825	-0.271468	-0.0175692	0.2234	0.885759	0.056275	-0.343909	0.410528	0.414268	-0.347726	-0.32918	0.232734	-0.0578603	-1.32137	0.853915	-0.331156	0.212783	-0.163077	-0.50735	-0.355881	-0.479777	
3.302	0	0	-17.0386	-4.00216	-0.281461	-1.2265	-0.439238	-0.421877	-0.589306	-0.802347	-0.441063	-0.369371	-0.269338	0.296343	-0.268066	-0.0141275	0.219719	0.896161	0.056275	-0.343909	0.411604	0.419484	-0.343874	-0.331697	0.238057	-0.0579555	-1.31785	0.851614	-0.325395	0.209019	-0.156328	-0.503888	-0.353942	-0.477571	
3.302	0	0	-17.0452	-3.9956	-0.277848	-1.2265	-0.437959	-0.415147	-0.584652	-0.791033	-0.443264	-0.363152	-0.274235	0.310186	-0.264664	-0.0106858	0.216038	0.906563	0.056275	-0.343909	0.412679	0.424699	-0.340022	-0.334214	0.243379	-0.0580507	-1.31433	0.849312	-0.319634	0.205255	-0.149579	-0.500427	-0.352003	-0.475365	
3.302	0	0	-17.0517	-3.98903	-0.274236	-1.2265	-0.43668	-0.408417	-0.579997	-0.779718	-0.445464	-0.356933	-0.279133	0.324028	-0.261262	-0.007244	0.212357	0.916966	0.056275	-0.343909	0.413754	0.429914	-0.33617	-0.336731	0.248702	-0.058146	-1.3108	0.84701	-0.313873	0.20149	-0.14283	-0.496966	-0.350064	-0.473159	
3.30353	0	0	-17.0563	-3.99983	-0.273508	-1.23877	-0.440109	-0.419411	-0.576692	-0.78906	-0.44742	-0.37476	-0.277851	0.305463	-0.271462	-0.0175595	0.217877	0.901367	0.0549782	-0.35927	0.414493	0.419571	-0.349271	-0.333161	0.248046	-0.071239	-1.31785	0.851613	-0.319634	0.205255	-0.142585	-0.50893	-0.349607	-0.482136	
3.29895	0	0	-17.0608	-4.01063	-0.272779	-1.25103	-0.443538	-0.430405	-0.573386	-0.798401	-0.449377	-0.392587	-0.27657	0.286898	-0.281663	-0.027875	0.223396	0.885768	0.0536815	-0.37463	0.415233	0.409227	-0.362372	-0.329591	0.247389	-0.084332	-1.32489	0.856216	-0.325395	0.209019	-0.14234	-0.520894	-0.34915	-0.491114	
3.30047	0	0	-17.0654	-4.02142	-0.272051	-1.2633	-0.446966	-0.4414	-0.57008	-0.807743	-0.451333	-0.410413	-0.275288	0.268333	-0.291863	-0.0381905	0.228916	0.870168	0.0523848	-0.389991	0.415972	0.398884	-0.375472	-0.326021	0.246733	-0.097425	-1.33193	0.860818	-0.331156	0.212783	-0.142094	-0.532857	-0.348692	-0.500092	
3.30047	0	0	-17.07	-4.03222	-0.271323	-1.27557	-0.450395	-0.452394	-0.566775	-0.817084	-0.453289	-0.42824	-0.274006	0.249768	-0.302063	-0.048506	0.234436	0.854569	0.051088	-0.405351	0.416711	0.38854	-0.388573	-0.322451	0.246077	-0.110518	-1.33898	0.865421	-0.336917	0.216548	-0.141849	-0.544821	-0.348235	-0.509069	
3.30353	0	0	-17.0755	-4.02866	-0.263008	-1.27864	-0.451264	-0.449937	-0.563391	-0.810317	-0.454387	-0.425138	-0.27039	0.254491	-0.296062	-0.052427	0.230757	0.864966	0.051088	-0.405351	0.421589	0.391267	-0.383961	-0.327127	0.251402	-0.11062	-1.3425	0.867721	-0.334037	0.214666	-0.141849	-0.544821	-0.345496	-0.509124	
3.30353	0	0	-17.0809	-4.02509	-0.254693	-1.28172	-0.452133	-0.44748	-0.560007	-0.80355	-0.455484	-0.422035	-0.266774	0.259213	-0.290061	-0.056348	0.227079	0.875362	0.051088	-0.405351	0.426466	0.393995	-0.379349	-0.331804	0.256727	-0.110721	-1.34602	0.87002	-0.331157	0.212784	-0.141849	-0.544821	-0.342758	-0.509178	
3.30047	0	0	-17.0864	-4.02153	-0.246378	-1.2848	-0.453003	-0.445022	-0.556623	-0.796783	-0.456582	-0.418932	-0.263158	0.263935	-0.28406	-0.060269	0.2234	0.885759	0.051088	-0.405351	0.431343	0.396723	-0.374737	-0.33648	0.262053	-0.110822	-1.34954	0.87232	-0.328277	0.210903	-0.141849	-0.544821	-0.340019	-0.509233	
3.30353	0	0	-17.0918	-4.01796	-0.238063	-1.28788	-0.453872	-0.442565	-0.553239	-0.790016	-0.45768	-0.41583	-0.259542	0.268658	-0.278059	-0.06419	0.219721	0.896155	0.051088	-0.405351	0.436221	0.39945	-0.370125	-0.341156	0.267378	-0.110924	-1.35306	0.87462	-0.325397	0.209021	-0.141849	-0.544821	-0.33728	-0.509288	
3.30505	0	0	-17.0953	-4.03172	-0.238428	-1.29706	-0.448659	-0.457298	-0.552866	-0.799238	-0.459644	-0.433605	-0.2599	0.254729	-0.280963	-0.08205	0.2234	0.885759	0.047304	-0.413662	0.436221	0.39945	-0.38013	-0.337943	0.26283	-0.113018	-1.36009	0.879217	-0.328277	0.210903	-0.148598	-0.548269	-0.338423	-0.513745	
3.3081	0	0	-17.0988	-4.04547	-0.238793	-1.30624	-0.443446	-0.472031	-0.552493	-0.808461	-0.461608	-0.45138	-0.260259	0.240799	-0.283867	-0.09991	0.227079	0.875362	0.04352	-0.421974	0.436221	0.39945	-0.390135	-0.334729	0.258281	-0.115113	-1.36713	0.883814	-0.331157	0.212784	-0.155347	-0.551716	-0.339565	-0.518201	
3.30505	0	0	-17.1024	-4.05923	-0.239158	-1.31542	-0.438233	-0.486764	-0.552119	-0.817683	-0.463572	-0.469155	-0.260617	0.22687	-0.286772	-0.11777	0.230757	0.864966	0.039736	-0.430285	0.436221	0.39945	-0.40014	-0.331515	0.253733	-0.117208	-1.37416	0.888411	-0.334037	0.214666	-0.162097	-0.555164	-0.340707	-0.522658	
3.30505	0	0	-17.1059	-4.07298	-0.239523	-1.32461	-0.43302	-0.501497	-0.551746	-0.826905	-0.465536	-0.48693	-0.260975	0.212941	-0.289676	-0.13563	0.234436	0.854569	0.035952	-0.438596	0.436221	0.39945	-0.410145	-0.328302	0.249185	-0.119302	-1.3812	0.893008	-0.336917	0.216548	-0.168846	-0.558612	-0.34185	-0.527115	
3.30353	0	0	-17.1025	-4.07058	-0.234454	-1.3185	-0.431736	-0.494787	-0.545423	-0.820261	-0.467727	-0.480739	-0.264233	0.222148	-0.292272	-0.128295	0.242363	0.861382	0.0413912	-0.434963	0.438376	0.409886	-0.403222	-0.331164	0.252955	-0.11501	-1.37768	0.89071	-0.331156	0.212783	-0.168846	-0.558612	-0.341052	-0.52937	
3.302	0	0	-17.0992	-4.06818	-0.229386	-1.31239	-0.430452	-0.488077	-0.5391	-0.813616	-0.469917	-0.474548	-0.267491	0.231354	-0.294867	-0.120959	0.250291	0.868194	0.0468305	-0.43133	0.440531	0.420323	-0.396298	-0.334026	0.256726	-0.110717	-1.37417	0.888412	-0.325395	0.209019	-0.168846	-0.558612	-0.340255	-0.531625	
3.30658	0	0	-17.0958	-4.06578	-0.224317	-1.30628	-0.429168	-0.481367	-0.532778	-0.806972	-0.472108	-0.468357	-0.270748	0.240561	-0.297462	-0.113624	0.258218	0.875007	0.0522698	-0.427696	0.442686	0.430759	-0.389375	-0.336888	0.260496	-0.106425	-1.37065	0.886114	-0.319634	0.205255	-0.168846	-0.558612	-0.339457	-0.53388	
3.30353	0	0	-17.0925	-4.06338	-0.219248	-1.30017	-0.427884	-0.474657	-0.526455	-0.800328	-0.474299	-0.462166	-0.274006	0.249768	-0.300058	-0.106289	0.266145	0.88182	0.057709	-0.424063	0.444841	0.441195	-0.382452	-0.33975	0.264267	-0.102133	-1.36713	0.883816	-0.313873	0.20149	-0.168846	-0.558612	-0.338659	-0.536135	
3.30505	0	0	-17.0937	-4.07174	-0.218164	-1.30323	-0.423123	-0.477768	-0.527737	-0.80488	-0.476376	-0.467947	-0.274366	0.235854	-0.302158	-0.113374	0.2631	0.875813	0.0568815	-0.421724	0.443931	0.443765	-0.385532	-0.339399	0.264267	-0.102133	-1.36361	0.881517	-0.313873	0.20149	-0.168846	-0.558612	-0.342195	-0.533825	
3.30658	0	0	-17.095	-4.08009	-0.217079	-1.3063	-0.418361	-0.480879	-0.529019	-0.809433	-0.478453	-0.473728	-0.274726	0.22194	-0.304258	-0.120458	0.260055	0.869805	0.056054	-0.419386	0.443022	0.446335	-0.388612	-0.339048	0.264267	-0.102133	-1.3601	0.879218	-0.313873	0.20149	-0.168846	-0.558612	-0.34573	-0.531514	
3.30505	0	0	-17.0962	-4.08845	-0.215994	-1.30936	-0.4136	-0.48399	-0.5303	-0.813986	-0.480531	-0.479508	-0.275085	0.208026	-0.306359	-0.127543	0.257009	0.863797	0.0552265	-0.417047	0.442113	0.448906	-0.391692	-0.338698	0.264267	-0.102133	-1.35658	0.876919	-0.313873	0.20149	-0.168846	-0.558612	-0.349266	-0.529203	
3.30353	0	0	-17.0974	-4.0968	-0.21491	-1.31243	-0.408839	-0.487101	-0.531582	-0.818538	-0.482608	-0.485289	-0.275445	0.194112	-0.308459	-0.134628	0.253964	0.85779	0.054399	-0.414708	0.441203	0.451476	-0.394772	-0.338347	0.264267	-0.102133	-1.35306	0.87462	-0.313873	0.20149	-0.168846	-0.558612	-0.352802	-0.526893	
3.30658	0	0	-17.0962	-4.08845	-0.209836	-1.30631	-0.404528	-0.478579	-0.525253	-0.811889	-0.47834	-0.485699	-0.2702	0.194219	-0.303763	-0.134879	0.263741	0.859399	0.0590145	-0.408726	0.445176	0.45679	-0.384762	-0.341564	0.264597	-0.0955857	-1.35029	0.87445	-0.310991	0.199607	-0.163665	-0.561998	-0.349266	-0.529203	
3.30658	0	0	-17.095	-4.08009	-0.204761	-1.3002	-0.400216	-0.470058	-0.518925	-0.805241	-0.474072	-0.486109	-0.264955	0.194327	-0.299067	-0.135129	0.273518	0.861008	0.06363	-0.402745	0.449149	0.462104	-0.374752	-0.344781	0.264926	-0.0890385	-1.34753	0.874279	-0.308109	0.197724	-0.158483	-0.565384	-0.34573	-0.531514	
3.3081	0	0	-17.0937	-4.07174	-0.199686	-1.29408	-0.395904	-0.461536	-0.512596	-0.798592	-0.469804	-0.48652	-0.25971	0.194435	-0.294372	-0.135379	0.283294	0.862617	0.0682455	-0.396764	0.453121	0.467418	-0.364741	-0.347998	0.265255	-0.0824913	-1.34476	0.874109	-0.305227	0.195841	-0.153302	-0.568769	-0.342195	-0.533825	
3.30505	0	0	-17.0925	-4.06338	-0.194612	-1.28797	-0.391593	-0.453014	-0.506267	-0.791943	-0.465536	-0.48693	-0.254465	0.194542	-0.289676	-0.13563	0.293071	0.864226	0.072861	-0.390782	0.457094	0.472732	-0.354731	-0.351215	0.265585	-0.075944	-1.34199	0.873939	-0.302345	0.193958	-0.148121	-0.572155	-0.338659	-0.536135	
3.30505	0	0	-17.0872	-4.07827	-0.196065	-1.29409	-0.385084	-0.461049	-0.50966	-0.798714	-0.471882	-0.492293	-0.258084	0.189839	-0.297768	-0.138793	0.281454	0.867817	0.0684815	-0.387921	0.458004	0.470159	-0.35705	-0.353024	0.265585	-0.075944	-1.34199	0.873939	-0.299462	0.192074	-0.149929	-0.567046	-0.340255	-0.531625	
3.3081	0	0	-17.082	-4.09317	-0.197518	-1.30022	-0.378574	-0.469085	-0.513053	-0.805484	-0.478227	-0.497656	-0.261703	0.185137	-0.30586	-0.141956	0.269838	0.871408	0.064102	-0.385059	0.458915	0.467585	-0.359368	-0.354833	0.265585	-0.075944	-1.34199	0.873939	-0.296579	0.19019	-0.151736	-0.561937	-0.341851	-0.527114	
3.30963	0	0	-17.0767	-4.10806	-0.19897	-1.30634	-0.372065	-0.47712	-0.516446	-0.812255	-0.484573	-0.503019	-0.265322	0.180434	-0.313952	-0.145118	0.258221	0.874998	0.0597225	-0.382198	0.459825	0.465012	-0.361687	-0.356642	0.265585	-0.075944	-1.34199	0.873939	-0.293696	0.188307	-0.153544	-0.556828	-0.343446	-0.522603	
3.30963	0	0	-17.0714	-4.12295	-0.200423	-1.31247	-0.365555	-0.485155	-0.519839	-0.819026	-0.490918	-0.508382	-0.268941	0.175732	-0.322044	-0.148281	0.246605	0.878589	0.055343	-0.379336	0.460736	0.462439	-0.364005	-0.358451	0.265585	-0.075944	-1.34199	0.873939	-0.290813	0.186423	-0.155352	-0.551719	-0.345042	-0.518093	
3.30658	0	0	-17.0746	-4.11402	-0.191717	-1.30636	-0.359491	-0.481552	-0.514791	-0.816933	-0.489825	-0.511472	-0.270567	0.180327	-0.322044	-0.148281	0.25149	0.879397	0.0588935	-0.379855	0.459825	0.465012	-0.360156	-0.360965	0.265585	-0.075944	-1.33847	0.871638	-0.294449	0.190436	-0.158725	-0.553442	-0.343446	-0.522603	
3.30353	0	0	-17.0778	-4.10509	-0.183012	-1.30026	-0.353426	-0.477948	-0.509742	-0.814841	-0.488731	-0.514562	-0.272193	0.184922	-0.322044	-0.148281	0.256375	0.880205	0.062444	-0.380374	0.458915	0.467585	-0.356308	-0.36348	0.265585	-0.075944	-1.33495	0.869337	-0.298086	0.194448	-0.162099	-0.555165	-0.341851	-0.527114	
3.3081	0	0	-17.0809	-4.09615	-0.174307	-1.29415	-0.347362	-0.474345	-0.504694	-0.812749	-0.487638	-0.517651	-0.273819	0.189517	-0.322044	-0.148281	0.26126	0.881012	0.0659945	-0.380893	0.458004	0.470159	-0.35246	-0.365995	0.265585	-0.075944	-1.33143	0.867037	-0.301723	0.198461	-0.165472	-0.556889	-0.340255	-0.531625	
3.3081	0	0	-17.0841	-4.08722	-0.165601	-1.28804	-0.341298	-0.470742	-0.499646	-0.810656	-0.486545	-0.520741	-0.275445	0.194112	-0.322044	-0.148281	0.266145	0.88182	0.069545	-0.381412	0.457094	0.472732	-0.348611	-0.368509	0.265585	-0.075944	-1.32791	0.864736	-0.305359	0.202474	-0.168846	-0.558612	-0.338659	-0.536135	
3.30505	0	0	-17.0843	-4.09854	-0.177563	-1.28495	-0.34172	-0.479922	-0.508912	-0.817175	-0.487532	-0.529589	-0.284297	0.189303	-0.325438	-0.151691	0.266145	0.88182	0.0730975	-0.381932	0.456183	0.475306	-0.348611	-0.368509	0.26247	-0.067139	-1.32439	0.862434	-0.299592	0.198706	-0.163907	-0.550049	-0.336718	-0.533936	
3.30353	0	0	-17.0844	-4.10987	-0.189524	-1.28185	-0.342143	-0.489102	-0.518178	-0.823693	-0.488519	-0.538437	-0.293148	0.184495	-0.328832	-0.155101	0.266145	0.88182	0.07665	-0.382452	0.455272	0.47788	-0.348611	-0.368509	0.259354	-0.058334	-1.32086	0.860132	-0.293825	0.194938	-0.158967	-0.541487	-0.334776	-0.531737	
3.30353	0	0	-17.0846	-4.12119	-0.201486	-1.27876	-0.342566	-0.498281	-0.527444	-0.830211	-0.489506	-0.547285	-0.301999	0.179686	-0.332226	-0.158511	0.266145	0.88182	0.0802025	-0.382972	0.454362	0.480454	-0.348611	-0.368509	0.256238	-0.049529	-1.31734	0.857831	-0.288058	0.19117	-0.154028	-0.532925	-0.332834	-0.529537	
3.2959	0	0	-17.0848	-4.13251	-0.213448	-1.27566	-0.342988	-0.507461	-0.53671	-0.83673	-0.490493	-0.556133	-0.310851	0.174877	-0.33562	-0.161921	0.266145	0.88182	0.083755	-0.383492	0.453451	0.483028	-0.348611	-0.368509	0.253123	-0.040724	-1.31382	0.855529	-0.282291	0.187402	-0.149089	-0.524362	-0.330893	-0.527338	
3.302	0	0	-17.0859	-4.12953	-0.209462	-1.26646	-0.342118	-0.509919	-0.533775	-0.836853	-0.490493	-0.556133	-0.310851	0.174877	-0.33562	-0.161921	0.26126	0.881012	0.0829257	-0.381148	0.458002	0.470166	-0.341674	-0.37138	0.253902	-0.042926	-1.31382	0.855529	-0.288058	0.19117	-0.142334	-0.520905	-0.325066	-0.520733	
3.30658	0	0	-17.0869	-4.12656	-0.205476	-1.25726	-0.341249	-0.512377	-0.530841	-0.836975	-0.490493	-0.556133	-0.310851	0.174877	-0.33562	-0.161921	0.256375	0.880205	0.0820965	-0.378804	0.462554	0.457303	-0.334736	-0.374251	0.254682	-0.045128	-1.31382	0.855529	-0.293825	0.194938	-0.135578	-0.517448	-0.319238	-0.514127	
3.30505	0	0	-17.088	-4.12359	-0.201489	-1.24805	-0.340379	-0.514834	-0.527906	-0.837098	-0.490493	-0.556133	-0.310851	0.174877	-0.33562	-0.161921	0.25149	0.879397	0.0812672	-0.376461	0.467105	0.444441	-0.327799	-0.377123	0.255461	-0.04733	-1.31382	0.855529	-0.299592	0.198706	-0.128823	-0.51399	-0.31341	-0.507522	
3.31116	0	0	-17.089	-4.12061	-0.197503	-1.23885	-0.339509	-0.517292	-0.524971	-0.837221	-0.490493	-0.556133	-0.310851	0.174877	-0.33562	-0.161921	0.246605	0.878589	0.080438	-0.374117	0.471656	0.431578	-0.320862	-0.379994	0.25624	-0.049532	-1.31382	0.855529	-0.305359	0.202474	-0.122067	-0.510533	-0.307583	-0.500917	
3.30963	0	0	-17.0978	-4.11945	-0.197143	-1.22963	-0.345573	-0.520882	-0.529188	-0.841642	-0.496938	-0.54955	-0.314101	0.18406	-0.34419	-0.150693	0.243563	0.872584	0.0815025	-0.367601	0.464952	0.433982	-0.314683	-0.380707	0.25923	-0.043017	-1.30677	0.850923	-0.302476	0.20059	-0.112826	-0.502775	-0.306096	-0.48972	
3.3081	0	0	-17.1066	-4.11828	-0.196783	-1.2204	-0.351638	-0.524473	-0.533405	-0.846062	-0.503382	-0.542967	-0.31735	0.193244	-0.35276	-0.139466	0.24052	0.866579	0.082567	-0.361084	0.458249	0.436387	-0.308504	-0.381419	0.262221	-0.036502	-1.29972	0.846316	-0.299593	0.198707	-0.103584	-0.495016	-0.304609	-0.478523	
3.3081	0	0	-17.1154	-4.11712	-0.196423	-1.21118	-0.357703	-0.528064	-0.537621	-0.850483	-0.509827	-0.536384	-0.320599	0.202427	-0.361331	-0.128238	0.237478	0.860574	0.0836315	-0.354568	0.451545	0.438791	-0.302326	-0.382132	0.265211	-0.029987	-1.29267	0.841709	-0.29671	0.196823	-0.0943432	-0.487258	-0.303122	-0.467326	
3.31116	0	0	-17.1241	-4.11595	-0.196063	-1.20195	-0.363767	-0.531654	-0.541838	-0.854904	-0.516271	-0.529801	-0.323849	0.21161	-0.369901	-0.11701	0.234436	0.854569	0.084696	-0.348052	0.444841	0.441195	-0.296147	-0.382844	0.268201	-0.023472	-1.28562	0.837103	-0.293827	0.194939	-0.085102	-0.4795	-0.301635	-0.456129	
3.31573	0	0	-17.1252	-4.11298	-0.195707	-1.19271	-0.362899	-0.534108	-0.543945	-0.857112	-0.517363	-0.526714	-0.322224	0.207017	-0.363921	-0.120918	0.236274	0.849376	0.085526	-0.350398	0.441778	0.433325	-0.29229	-0.385364	0.267875	-0.030035	-1.28209	0.834798	-0.302473	0.200589	-0.0848587	-0.491486	-0.303921	-0.465066	
3.31116	0	0	-17.1262	-4.11	-0.19535	-1.18347	-0.36203	-0.536563	-0.546053	-0.85932	-0.518455	-0.523628	-0.320599	0.202425	-0.357941	-0.124825	0.238112	0.844182	0.086356	-0.352744	0.438715	0.425455	-0.288433	-0.387885	0.267549	-0.036598	-1.27856	0.832493	-0.311119	0.206238	-0.0846155	-0.503472	-0.306207	-0.474004	
3.30353	0	0	-17.1273	-4.10703	-0.194993	-1.17423	-0.361161	-0.539017	-0.54816	-0.861529	-0.519548	-0.520541	-0.318973	0.197832	-0.351961	-0.128732	0.239949	0.838988	0.087186	-0.35509	0.435652	0.417584	-0.284576	-0.390405	0.267223	-0.043161	-1.27504	0.830189	-0.319765	0.211888	-0.0843722	-0.515459	-0.308494	-0.482942	
3.30047	0	0	-17.1283	-4.10406	-0.194637	-1.16499	-0.360293	-0.541472	-0.550267	-0.863737	-0.52064	-0.517455	-0.317348	0.193239	-0.345981	-0.13264	0.241787	0.833795	0.088016	-0.357436	0.432589	0.409714	-0.280719	-0.392925	0.266897	-0.049724	-1.27151	0.827884	-0.328411	0.217537	-0.084129	-0.527445	-0.31078	-0.491879	
3.30353	0	0	-17.1359	-4.09455	-0.194284	-1.15573	-0.361161	-0.539017	-0.553568	-0.854408	-0.514303	-0.512096	-0.313384	0.211861	-0.345183	-0.121892	0.242991	0.844993	0.0942993	-0.356129	0.435483	0.409796	-0.274531	-0.393642	0.270669	-0.045413	-1.26445	0.823272	-0.322648	0.213771	-0.0911395	-0.518924	-0.312723	-0.494083	
3.30963	0	0	-17.1434	-4.08505	-0.193931	-1.14648	-0.36203	-0.536563	-0.556869	-0.845079	-0.507966	-0.506737	-0.30942	0.230484	-0.344386	-0.111144	0.244196	0.856192	0.100582	-0.354822	0.438377	0.409878	-0.268342	-0.394359	0.274442	-0.041102	-1.25739	0.81866	-0.316885	0.210006	-0.09815	-0.510403	-0.314666	-0.496287	
3.32184	0	0	-17.151	-4.07555	-0.193578	-1.13722	-0.362899	-0.534108	-0.560171	-0.835749	-0.50163	-0.501378	-0.305457	0.249107	-0.343589	-0.100396	0.2454	0.86739	0.106866	-0.353515	0.441272	0.40996	-0.262153	-0.395077	0.278214	-0.036791	-1.25034	0.814048	-0.311122	0.20624	-0.105161	-0.501882	-0.316609	-0.498492	
3.30963	0	0	-17.1585	-4.06605	-0.193225	-1.12797	-0.363767	-0.531654	-0.563472	-0.82642	-0.495293	-0.496019	-0.301493	0.267729	-0.342791	-0.089648	0.246605	0.878589	0.113149	-0.352208	0.444166	0.410042	-0.255965	-0.395794	0.281986	-0.03248	-1.24328	0.809436	-0.305359	0.202474	-0.112171	-0.493361	-0.318552	-0.500696	
3.31268	0	0	-17.1575	-4.06902	-0.193225	-1.12797	-0.362899	-0.534108	-0.570982	-0.821513	-0.496277	-0.504876	-0.296608	0.253922	-0.336309	-0.107967	0.2454	0.86739	0.115399	-0.368102	0.443821	0.394498	-0.262153	-0.395077	0.280551	-0.0433955	-1.24958	0.811918	-0.310368	0.204111	-0.108545	-0.503609	-0.321293	-0.500641	
3.30963	0	0	-17.1564	-4.072	-0.193225	-1.12797	-0.36203	-0.536563	-0.578491	-0.816606	-0.497261	-0.513732	-0.291722	0.240115	-0.329827	-0.126286	0.244196	0.856192	0.117649	-0.383997	0.443476	0.378953	-0.268342	-0.394359	0.279115	-0.054311	-1.25589	0.814401	-0.315378	0.205747	-0.104919	-0.513856	-0.324034	-0.500587	
3.31421	0	0	-17.1554	-4.07497	-0.193225	-1.12797	-0.361161	-0.539017	-0.586001	-0.811698	-0.498245	-0.522589	-0.286837	0.226309	-0.323344	-0.144605	0.242991	0.844993	0.1199	-0.399892	0.443131	0.363409	-0.274531	-0.393642	0.277679	-0.0652265	-1.26219	0.816884	-0.320387	0.207384	-0.101293	-0.524104	-0.326775	-0.500532	
3.31116	0	0	-17.1543	-4.07795	-0.193225	-1.12797	-0.360293	-0.541472	-0.593511	-0.806791	-0.499229	-0.531446	-0.281952	0.212502	-0.316862	-0.162924	0.241787	0.833795	0.12215	-0.415786	0.442786	0.347864	-0.280719	-0.392925	0.276244	-0.076142	-1.2685	0.819366	-0.325397	0.209021	-0.097667	-0.534351	-0.329516	-0.500477	
3.31421	0	0	-17.1543	-4.07795	-0.192875	-1.1187	-0.362455	-0.545717	-0.589306	-0.802359	-0.497045	-0.537618	-0.279965	0.221819	-0.320257	-0.166331	0.243623	0.828604	0.121078	-0.422286	0.444598	0.342743	-0.283046	-0.39473	0.279689	-0.078393	-1.27555	0.823974	-0.325397	0.209021	-0.099239	-0.541193	-0.327919	-0.504992	
3.31573	0	0	-17.1543	-4.07795	-0.192526	-1.10942	-0.364618	-0.549961	-0.585101	-0.797927	-0.494861	-0.543789	-0.277979	0.231135	-0.323653	-0.169738	0.24546	0.823414	0.120006	-0.428786	0.44641	0.337622	-0.285373	-0.396534	0.283134	-0.080644	-1.2826	0.828582	-0.325397	0.209021	-0.100811	-0.548034	-0.326321	-0.509507	
3.31726	0	0	-17.1543	-4.07795	-0.192176	-1.10015	-0.366781	-0.554206	-0.580895	-0.793495	-0.492677	-0.549961	-0.275993	0.240451	-0.327048	-0.173145	0.247297	0.818223	0.118935	-0.435287	0.448222	0.332502	-0.287699	-0.398339	0.286579	-0.082895	-1.28965	0.833191	-0.325397	0.209021	-0.102383	-0.554876	-0.324723	-0.514022	
3.32031	0	0	-17.1543	-4.07795	-0.191826	-1.09088	-0.368943	-0.558451	-0.57669	-0.789063	-0.490493	-0.556133	-0.274006	0.249768	-0.330443	-0.176552	0.249133	0.813032	0.117863	-0.441787	0.450034	0.327381	-0.290026	-0.400143	0.290024	-0.085146	-1.29671	0.837799	-0.325397	0.209021	-0.103955	-0.561718	-0.323126	-0.518537	
3.31573	0	0	-17.1589	-4.08868	-0.188547	-1.10015	-0.366773	-0.574934	-0.582172	-0.798041	-0.491387	-0.57686	-0.279606	0.235745	-0.330774	-0.201593	0.243043	0.801072	0.112162	-0.454236	0.444072	0.31948	-0.303143	-0.396556	0.284363	-0.0915905	-1.31079	0.847004	-0.337665	0.218674	-0.114093	-0.566881	-0.32895	-0.525134	
3.32031	0	0	-17.1634	-4.09941	-0.185267	-1.10942	-0.364603	-0.591417	-0.587653	-0.80702	-0.492281	-0.597587	-0.285206	0.221723	-0.331105	-0.226634	0.236953	0.789112	0.106462	-0.466685	0.438109	0.31158	-0.31626	-0.392969	0.278701	-0.098035	-1.32488	0.856209	-0.349932	0.228326	-0.124231	-0.572043	-0.334774	-0.531732	
3.32336	0	0	-17.168	-4.11014	-0.181987	-1.11869	-0.362434	-0.607899	-0.593135	-0.815998	-0.493174	-0.618315	-0.290806	0.2077	-0.331437	-0.251675	0.230864	0.777152	0.100761	-0.479133	0.432146	0.303679	-0.329378	-0.389383	0.273039	-0.10448	-1.33897	0.865415	-0.3622	0.237979	-0.134369	-0.577206	-0.340597	-0.538329	
3.32336	0	0	-17.1725	-4.12088	-0.178708	-1.12796	-0.360264	-0.624382	-0.598616	-0.824976	-0.494068	-0.639042	-0.296406	0.193678	-0.331768	-0.276716	0.224774	0.765192	0.09506	-0.491582	0.426184	0.295778	-0.342495	-0.385796	0.267378	-0.110924	-1.35306	0.87462	-0.374468	0.247632	-0.144507	-0.582368	-0.346421	-0.544926	
3.32336	0	0	-17.1624	-4.10237	-0.17617	-1.12487	-0.355065	-0.618367	-0.596064	-0.81588	-0.495156	-0.635966	-0.280671	0.194	-0.331768	-0.276716	0.2382	0.756419	0.0975375	-0.498584	0.432873	0.293372	-0.344815	-0.387601	0.27082	-0.113173	-1.35658	0.876919	-0.373715	0.245503	-0.145174	-0.591739	-0.351443	-0.553761	
3.32336	0	0	-17.1522	-4.08385	-0.173631	-1.12178	-0.349867	-0.612352	-0.593511	-0.806783	-0.496244	-0.632891	-0.264936	0.194322	-0.331768	-0.276716	0.251626	0.747646	0.100015	-0.505586	0.439561	0.290966	-0.347135	-0.389405	0.274262	-0.115422	-1.3601	0.879218	-0.372962	0.243373	-0.145842	-0.601109	-0.356464	-0.562596	
3.32336	0	0	-17.142	-4.06534	-0.171093	-1.11869	-0.344668	-0.606337	-0.590959	-0.797686	-0.497333	-0.629815	-0.249201	0.194644	-0.331768	-0.276716	0.265051	0.738874	0.102493	-0.512587	0.44625	0.28856	-0.349455	-0.39121	0.277704	-0.117672	-1.36361	0.881517	-0.372208	0.241244	-0.14651	-0.61048	-0.361486	-0.571432	
3.32794	0	0	-17.1319	-4.04683	-0.168554	-1.11559	-0.33947	-0.600322	-0.588407	-0.78859	-0.498421	-0.626739	-0.233466	0.194966	-0.331768	-0.276716	0.278477	0.730101	0.10497	-0.519589	0.452939	0.286154	-0.351775	-0.393015	0.281146	-0.119921	-1.36713	0.883816	-0.371455	0.239115	-0.147177	-0.619851	-0.366508	-0.580267	
3.32794	0	0	-16.1143	-3.56229	-0.154749	-1.1032	-0.336004	-0.610117	-0.590588	-0.806887	-0.499328	-0.647399	-0.235463	0.185667	-0.340659	-0.290487	0.267492	0.717407	0.0978687	-0.518535	0.450768	0.275793	-0.362546	-0.387637	0.279259	-0.122066	-1.37065	0.886114	-0.368578	0.237235	-0.148982	-0.614751	-0.375502	-0.577848	
3.32947	0	0	-15.0967	-3.07775	-0.140944	-1.09081	-0.332538	-0.619912	-0.592768	-0.825184	-0.500236	-0.668059	-0.23746	0.176368	-0.34955	-0.304258	0.256507	0.704713	0.0907675	-0.517481	0.448596	0.265432	-0.373317	-0.382259	0.277371	-0.124211	-1.37417	0.888412	-0.3657	0.235355	-0.150786	-0.609651	-0.384496	-0.575429	
3.32794	0	0	-14.0791	-2.59321	-0.127139	-1.07841	-0.329072	-0.629707	-0.594948	-0.84348	-0.501143	-0.688719	-0.239457	0.16707	-0.358441	-0.318029	0.245523	0.692018	0.0836662	-0.516427	0.446425	0.25507	-0.384088	-0.37688	0.275483	-0.126355	-1.37768	0.89071	-0.362823	0.233476	-0.152591	-0.60455	-0.39349	-0.57301	
3.32794	0	0	-13.0615	-2.10867	-0.113334	-1.06602	-0.325606	-0.639502	-0.597129	-0.861777	-0.50205	-0.709379	-0.241454	0.157771	-0.367332	-0.3318	0.234538	0.679324	0.076565	-0.515373	0.444254	0.244709	-0.394859	-0.371502	0.273596	-0.1285	-1.3812	0.893008	-0.359946	0.231596	-0.154396	-0.59945	-0.402484	-0.570591	
3.32794	0	0	-12.3995	-1.36862	-0.113334	-1.06602	-0.328205	-0.632157	-0.600878	-0.859327	-0.500965	-0.712445	-0.24308	0.162366	-0.367332	-0.3318	0.236364	0.674163	0.0792892	-0.513567	0.439557	0.24974	-0.390252	-0.376172	0.269378	-0.124055	-1.38471	0.895305	-0.365699	0.235355	-0.15777	-0.601167	-0.402829	-0.577276	
3.33252	0	0	-11.7375	-0.628569	-0.113334	-1.06602	-0.330805	-0.624812	-0.604627	-0.856877	-0.499881	-0.715511	-0.244706	0.166961	-0.367332	-0.3318	0.23819	0.669002	0.0820135	-0.511761	0.43486	0.254771	-0.385645	-0.380841	0.265161	-0.11961	-1.38823	0.897603	-0.371452	0.239115	-0.161143	-0.602884	-0.403174	-0.583962	
3.33252	0	0	-11.0755	0.111483	-0.113334	-1.06602	-0.333404	-0.617466	-0.608377	-0.854428	-0.498796	-0.718578	-0.246332	0.171557	-0.367332	-0.3318	0.240016	0.663842	0.0847378	-0.509955	0.430163	0.259802	-0.381038	-0.385511	0.260943	-0.115165	-1.39175	0.8999	-0.377206	0.242874	-0.164517	-0.6046	-0.403519	-0.590647	
3.33099	0	0	-10.4135	0.851534	-0.113334	-1.06602	-0.336003	-0.610121	-0.612126	-0.851978	-0.497711	-0.721644	-0.247958	0.176152	-0.367332	-0.3318	0.241842	0.658681	0.087462	-0.508149	0.425466	0.264833	-0.376431	-0.390181	0.256725	-0.11072	-1.39526	0.902197	-0.382959	0.246633	-0.16789	-0.606317	-0.403864	-0.597333	
3.33099	0	0	-10.0163	1.34504	-0.128979	-1.06294	-0.336438	-0.598529	-0.615423	-0.842658	-0.4968	-0.700993	-0.245603	0.199393	-0.368283	-0.303189	0.245501	0.692081	0.0950623	-0.491558	0.432865	0.293438	-0.369476	-0.384763	0.2646	-0.0955678	-1.38119	0.893003	-0.371449	0.239112	-0.164755	-0.592668	-0.403176	-0.583954	
3.33404	0	0	-9.61902	1.83854	-0.144625	-1.05986	-0.336873	-0.586936	-0.618721	-0.833338	-0.495889	-0.680343	-0.243248	0.222634	-0.369234	-0.274579	0.249159	0.725481	0.102662	-0.474968	0.440264	0.322042	-0.362521	-0.379345	0.272475	-0.0804155	-1.36712	0.883809	-0.359938	0.23159	-0.161621	-0.579018	-0.402487	-0.570576	
3.34015	0	0	-9.22176	2.33204	-0.16027	-1.05679	-0.337309	-0.575344	-0.622019	-0.824019	-0.494979	-0.659693	-0.240893	0.245875	-0.370185	-0.245968	0.252817	0.758881	0.110263	-0.458377	0.447662	0.350646	-0.355566	-0.373927	0.28035	-0.0652632	-1.35305	0.874615	-0.348428	0.224069	-0.158487	-0.565368	-0.401799	-0.557197	
3.3371	0	0	-8.82451	2.82555	-0.175916	-1.05371	-0.337744	-0.563752	-0.625316	-0.814699	-0.494068	-0.639042	-0.238538	0.269116	-0.371136	-0.217357	0.256476	0.792281	0.117863	-0.441787	0.455061	0.379251	-0.348611	-0.368509	0.288225	-0.050111	-1.33898	0.865421	-0.336917	0.216548	-0.155352	-0.551719	-0.401111	-0.543818	
3.33557	0	0	-7.71511	2.90215	-0.17482	-1.0568	-0.331244	-0.551003	-0.625248	-0.798595	-0.488811	-0.630645	-0.243439	0.282966	-0.358376	-0.214467	0.263783	0.815473	0.122494	-0.435811	0.46501	0.392497	-0.33782	-0.373898	0.286665	-0.0457033	-1.32841	0.858515	-0.334037	0.214666	-0.157161	-0.546607	-0.396443	-0.541675	
3.3371	0	0	-6.60572	2.97875	-0.173725	-1.0599	-0.324743	-0.538253	-0.625181	-0.78249	-0.483554	-0.622249	-0.248339	0.296815	-0.345616	-0.211577	0.271089	0.838666	0.127125	-0.429835	0.474959	0.405742	-0.327029	-0.379287	0.285106	-0.0412955	-1.31784	0.85161	-0.331157	0.212784	-0.158969	-0.541495	-0.391775	-0.539533	
3.33862	0	0	-5.49632	3.05535	-0.172629	-1.063	-0.318242	-0.525504	-0.625113	-0.766386	-0.478298	-0.613853	-0.25324	0.310665	-0.332855	-0.208687	0.278396	0.861858	0.131756	-0.423859	0.484908	0.418987	-0.316239	-0.384677	0.283546	-0.0368878	-1.30727	0.844704	-0.328277	0.210903	-0.160778	-0.536383	-0.387106	-0.53739	
3.3371	0	0	-4.38692	3.13195	-0.171534	-1.06609	-0.311742	-0.512754	-0.625046	-0.750282	-0.473041	-0.605456	-0.25814	0.324514	-0.320095	-0.205797	0.285703	0.88505	0.136387	-0.417883	0.494857	0.432233	-0.305448	-0.390066	0.281986	-0.03248	-1.29671	0.837799	-0.325397	0.209021	-0.162587	-0.531271	-0.382438	-0.535248	
3.33557	0	0	-3.33117	3.26742	-0.17921	-1.0444	-0.310476	-0.48516	-0.622016	-0.718046	-0.468976	-0.582011	-0.248922	0.343399	-0.310388	-0.181169	0.297907	0.909178	0.142925	-0.407727	0.505904	0.45077	-0.294609	-0.387169	0.288757	-0.0216332	-1.27553	0.823963	-0.310982	0.199602	-0.156991	-0.513272	-0.377882	-0.517414	
3.34167	0	0	-2.27542	3.40288	-0.186887	-1.0227	-0.30921	-0.457565	-0.618985	-0.685809	-0.464911	-0.558566	-0.239705	0.362285	-0.30068	-0.15654	0.31011	0.933306	0.149463	-0.397571	0.51695	0.469307	-0.28377	-0.384273	0.295527	-0.0107865	-1.25436	0.810126	-0.296567	0.190183	-0.151396	-0.495273	-0.373325	-0.499581	
3.34167	0	0	-1.21968	3.53835	-0.194564	-1.00101	-0.307944	-0.429971	-0.615954	-0.653573	-0.460845	-0.535122	-0.230487	0.38117	-0.290972	-0.131912	0.322314	0.957433	0.156001	-0.387416	0.527996	0.487845	-0.272931	-0.381376	0.302297	6.025E-05	-1.23318	0.79629	-0.282153	0.180764	-0.1458	-0.477273	-0.368769	-0.481747	
3.33557	0	0	-0.16393	3.67382	-0.20224	-0.979312	-0.306678	-0.402376	-0.612924	-0.621337	-0.45678	-0.511677	-0.22127	0.400055	-0.281265	-0.107284	0.334518	0.981561	0.162539	-0.37726	0.539043	0.506382	-0.262092	-0.378479	0.309068	0.010907	-1.21201	0.782454	-0.267738	0.171345	-0.140204	-0.459274	-0.364213	-0.463914	
3.34015	0	0	1.16702	4.06229	-0.200806	-0.973089	-0.302764	-0.403034	-0.609994	-0.621446	-0.448133	-0.524456	-0.216352	0.386155	-0.277371	-0.118289	0.341276	0.977145	0.16337	-0.379608	0.541038	0.509049	-0.261326	-0.380644	0.307179	0.0087445	-1.2014	0.775523	-0.261965	0.167573	-0.132791	-0.446349	-0.361601	-0.44823	
3.34015	0	0	2.49798	4.45076	-0.199372	-0.966865	-0.298851	-0.403693	-0.607065	-0.621555	-0.439486	-0.537234	-0.211433	0.372256	-0.273477	-0.129294	0.348033	0.97273	0.1642	-0.381956	0.543033	0.511717	-0.26056	-0.382808	0.305291	0.006582	-1.19079	0.768592	-0.256192	0.163801	-0.125379	-0.433423	-0.358989	-0.432547	
3.34015	0	0	3.82893	4.83923	-0.197938	-0.960641	-0.294938	-0.404351	-0.604135	-0.621663	-0.430839	-0.550013	-0.206515	0.358357	-0.269583	-0.140299	0.354791	0.968314	0.165031	-0.384304	0.545029	0.514384	-0.259794	-0.384972	0.303403	0.0044195	-1.18018	0.761661	-0.25042	0.160029	-0.117966	-0.420497	-0.356377	-0.416863	
3.3432	0	0	5.15988	5.2277	-0.196504	-0.954418	-0.291024	-0.405009	-0.601205	-0.621772	-0.422192	-0.562791	-0.201597	0.344457	-0.265689	-0.151304	0.361549	0.963898	0.165862	-0.386652	0.547024	0.517051	-0.259028	-0.387137	0.301514	0.002257	-1.16958	0.75473	-0.244647	0.156257	-0.110553	-0.407572	-0.353765	-0.401179	
3.3432	0	0	7.68826	2.57675	-0.187467	-0.938796	-0.286234	-0.408139	-0.59324	-0.61975	-0.420007	-0.568967	-0.196331	0.344576	-0.259688	-0.155225	0.366461	0.964712	0.167523	-0.391346	0.549934	0.517136	-0.2544	-0.391825	0.304184	0.00221025	-1.1625	0.750104	-0.241759	0.15437	-0.106519	-0.396356	-0.35069	-0.394477	
3.34167	0	0	10.2166	-0.074195	-0.17843	-0.923175	-0.281443	-0.41127	-0.585274	-0.617727	-0.417821	-0.575143	-0.191064	0.344695	-0.253687	-0.159146	0.371372	0.965526	0.169184	-0.396041	0.552844	0.517221	-0.249772	-0.396513	0.306855	0.0021635	-1.15542	0.745479	-0.238872	0.152483	-0.102485	-0.385139	-0.347615	-0.387774	
3.3432	0	0	12.745	-2.72514	-0.169393	-0.907553	-0.276652	-0.4144	-0.577309	-0.615705	-0.415635	-0.581319	-0.185798	0.344814	-0.247686	-0.163068	0.376284	0.96634	0.170845	-0.400735	0.555755	0.517305	-0.245144	-0.401201	0.309525	0.00211675	-1.14834	0.740854	-0.235984	0.150596	-0.0984503	-0.373923	-0.34454	-0.381072	
3.34167	0	0	15.2734	-5.37609	-0.160356	-0.891931	-0.271862	-0.41753	-0.569343	-0.613683	-0.41345	-0.587495	-0.180532	0.344933	-0.241685	-0.166989	0.381196	0.967154	0.172506	-0.405429	0.558665	0.51739	-0.240516	-0.405889	0.312195	0.00207	-1.14126	0.736228	-0.233096	0.148709	-0.094416	-0.362707	-0.341465	-0.374369	
3.34167	0	0	17.3962	-7.93983	-0.164326	-0.901305	-0.270968	-0.440867	-0.579016	-0.627219	-0.417632	-0.598987	-0.186152	0.330823	-0.247204	-0.177461	0.376284	0.96634	0.168941	-0.404903	0.556836	0.52256	-0.243613	-0.405529	0.307179	0.00874425	-1.13772	0.733914	-0.227318	0.144933	-0.0955948	-0.348056	-0.342739	-0.363068	
3.3432	0	0	19.519	-10.5036	-0.168295	-0.910679	-0.270074	-0.464205	-0.588688	-0.640755	-0.421814	-0.610479	-0.191771	0.316713	-0.252722	-0.187933	0.371372	0.965526	0.165376	-0.404378	0.555006	0.527729	-0.246709	-0.405169	0.302164	0.0154185	-1.13418	0.731599	-0.221539	0.141157	-0.0967735	-0.333406	-0.344012	-0.351766	
3.34473	0	0	21.6418	-13.0673	-0.172264	-0.920053	-0.26918	-0.487542	-0.598361	-0.654291	-0.425997	-0.621971	-0.197391	0.302602	-0.258241	-0.198404	0.366461	0.964712	0.161811	-0.403852	0.553177	0.532899	-0.249806	-0.404809	0.297148	0.0220928	-1.13064	0.729285	-0.21576	0.137382	-0.0979522	-0.318756	-0.345286	-0.340465	
3.34625	0	0	23.7646	-15.631	-0.176234	-0.929427	-0.268286	-0.510879	-0.608034	-0.667827	-0.430179	-0.633463	-0.203011	0.288492	-0.263759	-0.208876	0.361549	0.963898	0.158246	-0.403326	0.551348	0.538069	-0.252903	-0.404449	0.292133	0.028767	-1.12709	0.726971	-0.209982	0.133606	-0.099131	-0.304105	-0.34656	-0.329164	
3.3432	0	0	20.7533	-14.609	-0.182069	-0.923222	-0.267415	-0.513341	-0.608864	-0.665482	-0.427999	-0.639622	-0.203011	0.288492	-0.262465	-0.212534	0.364608	0.969948	0.159076	-0.405672	0.556256	0.540828	-0.252138	-0.406612	0.294803	0.028722	-1.13418	0.731599	-0.209982	0.133606	-0.0963915	-0.311847	-0.348498	-0.331389	
3.34473	0	0	17.742	-13.5869	-0.187905	-0.917017	-0.266544	-0.515803	-0.609693	-0.663137	-0.42582	-0.645781	-0.203011	0.288492	-0.26117	-0.216192	0.367667	0.975998	0.159906	-0.408017	0.561164	0.543586	-0.251372	-0.408776	0.297473	0.028677	-1.14126	0.736226	-0.209982	0.133606	-0.093652	-0.319589	-0.350435	-0.333615	
3.34473	0	0	14.7308	-12.5648	-0.193741	-0.910812	-0.265672	-0.518265	-0.610522	-0.660792	-0.42364	-0.65194	-0.203011	0.288492	-0.259876	-0.21985	0.370725	0.982049	0.160736	-0.410363	0.566072	0.546345	-0.250607	-0.410939	0.300142	0.028632	-1.14834	0.740853	-0.209982	0.133606	-0.0909125	-0.327332	-0.352372	-0.33584	
3.34625	0	0	11.7195	-11.5428	-0.199576	-0.904607	-0.264801	-0.520727	-0.611352	-0.658447	-0.421461	-0.658099	-0.203011	0.288492	-0.258582	-0.223508	0.373784	0.988099	0.161566	-0.412708	0.57098	0.549104	-0.249841	-0.413102	0.302812	0.028587	-1.15542	0.745481	-0.209982	0.133606	-0.088173	-0.335074	-0.35431	-0.338065	
3.34625	0	0	9.16504	-10.6088	-0.202438	-0.917075	-0.262626	-0.537271	-0.618912	-0.669715	-0.427822	-0.663403	-0.20827	0.288378	-0.263281	-0.223249	0.376844	0.994158	0.159075	-0.40567	0.573142	0.559639	-0.249841	-0.413102	0.301569	0.0396038	-1.15542	0.745481	-0.2042	0.129828	-0.0838732	-0.3359	-0.355114	-0.335795	
3.34778	0	0	6.6106	-9.67481	-0.205301	-0.929543	-0.260451	-0.553816	-0.626472	-0.680983	-0.434184	-0.668706	-0.21353	0.288263	-0.267979	-0.222989	0.379904	1.00022	0.156585	-0.398631	0.575304	0.570173	-0.249841	-0.413102	0.300326	0.0506205	-1.15542	0.745481	-0.198417	0.126049	-0.0795735	-0.336726	-0.355917	-0.333525	
3.34473	0	0	4.05616	-8.74084	-0.208164	-0.942011	-0.258275	-0.57036	-0.634032	-0.692251	-0.440545	-0.67401	-0.218789	0.288149	-0.272678	-0.222729	0.382963	1.00628	0.154094	-0.391593	0.577466	0.580708	-0.249841	-0.413102	0.299082	0.0616372	-1.15542	0.745481	-0.192634	0.122271	-0.0752738	-0.337553	-0.35672	-0.331254	
3.34778	0	0	1.50173	-7.80686	-0.211026	-0.954479	-0.2561	-0.586904	-0.641592	-0.703519	-0.446907	-0.679314	-0.224049	0.288034	-0.277377	-0.22247	0.386023	1.01234	0.151604	-0.384554	0.579628	0.591243	-0.249841	-0.413102	0.297839	0.072654	-1.15542	0.745481	-0.186852	0.118492	-0.070974	-0.338379	-0.357524	-0.328984	
3.3432	0	0	0.0752	-7.39021	-0.214654	-0.954495	-0.256969	-0.584448	-0.649092	-0.698618	-0.444732	-0.68546	-0.229304	0.287919	-0.274791	-0.229778	0.389084	1.0184	0.15766	-0.392119	0.581626	0.593925	-0.249076	-0.415265	0.299405	0.0682273	-1.1625	0.750104	-0.195524	0.124159	-0.0741005	-0.352187	-0.359791	-0.337968	
3.3493	0	0	-1.35133	-6.97357	-0.218283	-0.954511	-0.257838	-0.581991	-0.656592	-0.693717	-0.442557	-0.691607	-0.234559	0.287803	-0.272205	-0.237087	0.392145	1.02447	0.163715	-0.399683	0.583624	0.596607	-0.24831	-0.417427	0.300972	0.0638005	-1.16957	0.754728	-0.204197	0.129826	-0.077227	-0.365996	-0.362059	-0.346952	
3.3493	0	0	-2.77786	-6.55692	-0.221911	-0.954527	-0.258708	-0.579534	-0.664092	-0.688817	-0.440383	-0.697753	-0.239813	0.287687	-0.26962	-0.244395	0.395205	1.03054	0.16977	-0.407248	0.585622	0.599288	-0.247545	-0.41959	0.302538	0.0593738	-1.17665	0.759351	-0.212869	0.135492	-0.0803535	-0.379804	-0.364326	-0.355937	
3.3493	0	0	-4.20438	-6.14027	-0.22554	-0.954543	-0.259577	-0.577078	-0.671592	-0.683916	-0.438208	-0.703899	-0.245068	0.287572	-0.267034	-0.251703	0.398266	1.03661	0.175826	-0.414813	0.58762	0.60197	-0.24678	-0.421752	0.304104	0.054947	-1.18373	0.763975	-0.221541	0.141159	-0.08348	-0.393613	-0.366594	-0.364921	
3.3493	0	0	-5.11355	-5.93078	-0.228069	-0.957662	-0.260447	-0.574621	-0.67743	-0.683698	-0.436115	-0.698178	-0.251607	0.306052	-0.268805	-0.233676	0.399467	1.04794	0.175239	-0.4036	0.594537	0.607428	-0.244448	-0.41995	0.311338	0.0570278	-1.18448	0.766104	-0.222294	0.143288	-0.0782705	-0.397017	-0.364657	-0.3627	
3.34778	0	0	-6.02271	-5.72129	-0.230597	-0.960781	-0.261316	-0.572164	-0.683269	-0.68348	-0.434022	-0.692457	-0.258147	0.324533	-0.270577	-0.215649	0.400668	1.05928	0.174652	-0.392388	0.601454	0.612886	-0.242117	-0.418148	0.318573	0.0591085	-1.18523	0.768234	-0.223048	0.145417	-0.073061	-0.400421	-0.362721	-0.360479	
3.35235	0	0	-6.93187	-5.51179	-0.233125	-0.9639	-0.262185	-0.569706	-0.689107	-0.683261	-0.431928	-0.686735	-0.264686	0.343013	-0.272348	-0.197623	0.40187	1.07061	0.174066	-0.381175	0.608371	0.618344	-0.239785	-0.416346	0.325808	0.0611893	-1.18599	0.770363	-0.223801	0.147546	-0.0678515	-0.403826	-0.360784	-0.358257	
3.34778	0	0	-7.84103	-5.3023	-0.235654	-0.967019	-0.263055	-0.567249	-0.694945	-0.683043	-0.429835	-0.681014	-0.271225	0.361493	-0.27412	-0.179596	0.403071	1.08195	0.173479	-0.369962	0.615288	0.623802	-0.237453	-0.414544	0.333042	0.06327	-1.18674	0.772493	-0.224554	0.149675	-0.062642	-0.40723	-0.358847	-0.356036	
3.34778	0	0	-8.46454	-5.17047	-0.235654	-0.967019	-0.26088	-0.563	-0.694945	-0.683043	-0.425564	-0.68144	-0.269589	0.35687	-0.268123	-0.183514	0.412921	1.0836	0.180371	-0.379883	0.619128	0.621293	-0.232058	-0.421395	0.333501	0.0544615	-1.19381	0.777113	-0.236103	0.157222	-0.065779	-0.420995	-0.355974	-0.37185	
3.34778	0	5	-9.08804	-5.03863	-0.235654	-0.967019	-0.258705	-0.558752	-0.694945	-0.683043	-0.421293	-0.681866	-0.267953	0.352246	-0.262126	-0.187433	0.422772	1.08526	0.187264	-0.389803	0.622967	0.618784	-0.226664	-0.428246	0.333959	0.045653	-1.20088	0.781732	-0.247653	0.164768	-0.068916	-0.43476	-0.353101	-0.387665	
3.3493	0	5	-9.71155	-4.9068	-0.235654	-0.967019	-0.256529	-0.554503	-0.694945	-0.683043	-0.417021	-0.682293	-0.266316	0.347623	-0.256129	-0.191352	0.432623	1.08691	0.194157	-0.399724	0.626807	0.616275	-0.221269	-0.435096	0.334418	0.0368445	-1.20795	0.786352	-0.259203	0.172314	-0.072053	-0.448526	-0.350228	-0.403479	
3.3493	0	5	-10.3351	-4.77496	-0.235654	-0.967019	-0.254354	-0.550254	-0.694945	-0.683043	-0.41275	-0.682719	-0.26468	0.342999	-0.250132	-0.19527	0.442473	1.08857	0.201049	-0.409644	0.630647	0.613766	-0.215874	-0.441947	0.334877	0.028036	-1.21502	0.790972	-0.270752	0.179861	-0.07519	-0.462291	-0.347355	-0.419293	
3.35083	0	5	-10.7733	-4.68253	-0.238949	-0.957708	-0.24913	-0.544206	-0.696997	-0.669106	-0.40311	-0.686652	-0.261065	0.347748	-0.242015	-0.192124	0.450475	1.09549	0.20354	-0.416684	0.634653	0.619141	-0.215109	-0.444109	0.33566	0.025824	-1.21855	0.793281	-0.273637	0.181746	-0.0681665	-0.470828	-0.347355	-0.419293	
3.34778	0	5	-11.2115	-4.5901	-0.242243	-0.948398	-0.243907	-0.538158	-0.699048	-0.65517	-0.39347	-0.690586	-0.257449	0.352496	-0.233898	-0.188977	0.458477	1.10242	0.206031	-0.423725	0.638659	0.624517	-0.214344	-0.446271	0.336442	0.023612	-1.22209	0.795589	-0.276521	0.183632	-0.061143	-0.479366	-0.347355	-0.419293	
3.35083	0	5	-11.6498	-4.49768	-0.245537	-0.939087	-0.238683	-0.532111	-0.701099	-0.641234	-0.383829	-0.694519	-0.253834	0.357245	-0.225781	-0.185831	0.466478	1.10935	0.208522	-0.430765	0.642666	0.629892	-0.213579	-0.448433	0.337225	0.0214	-1.22562	0.797897	-0.279406	0.185517	-0.0541195	-0.487904	-0.347355	-0.419293	
3.34778	0	5	-12.088	-4.40524	-0.248832	-0.929776	-0.233459	-0.526063	-0.703151	-0.627297	-0.374189	-0.698453	-0.250219	0.361994	-0.217664	-0.182684	0.47448	1.11627	0.211013	-0.437805	0.646672	0.635267	-0.212814	-0.450595	0.338008	0.019188	-1.22915	0.800206	-0.282291	0.187402	-0.047096	-0.496441	-0.347355	-0.419293	
3.34625	0	5	-12.4116	-4.36749	-0.237619	-0.920372	-0.230416	-0.545072	-0.704016	-0.641125	-0.37507	-0.73092	-0.242406	0.324946	-0.215433	-0.215075	0.473922	1.08831	0.205855	-0.461433	0.64892	0.603873	-0.233679	-0.441946	0.335129	-0.002694	-1.24956	0.811907	-0.302458	0.20058	-0.053636	-0.511874	-0.348032	-0.43276	
3.3493	0	5	-12.7352	-4.32973	-0.226407	-0.910967	-0.227373	-0.56408	-0.704881	-0.654953	-0.37595	-0.763388	-0.234593	0.287899	-0.213203	-0.247466	0.473364	1.06034	0.200696	-0.485061	0.651169	0.572479	-0.254543	-0.433297	0.332251	-0.024576	-1.26998	0.823608	-0.322626	0.213757	-0.060176	-0.527308	-0.34871	-0.446226	
3.34778	0	5	-13.0589	-4.29197	-0.215194	-0.901563	-0.224329	-0.583089	-0.705747	-0.668782	-0.376831	-0.795856	-0.226779	0.250852	-0.210972	-0.279857	0.472807	1.03238	0.195538	-0.50869	0.653417	0.541084	-0.275407	-0.424648	0.329373	-0.046458	-1.29039	0.835309	-0.342793	0.226934	-0.066716	-0.542741	-0.349387	-0.459693	
3.34473	0	5	-13.3825	-4.25422	-0.203981	-0.892158	-0.221286	-0.602098	-0.706612	-0.68261	-0.377711	-0.828323	-0.218966	0.213804	-0.208741	-0.312248	0.472249	1.00442	0.19038	-0.532318	0.655665	0.50969	-0.296272	-0.415999	0.326494	-0.06834	-1.3108	0.84701	-0.36296	0.240112	-0.073256	-0.558174	-0.350064	-0.473159	
3.34473	0	5	-12.3036	-5.08237	-0.185461	-0.882688	-0.220862	-0.613699	-0.706221	-0.691846	-0.375491	-0.846236	-0.215708	0.204597	-0.20358	-0.326835	0.475965	0.993915	0.190121	-0.541125	0.65549	0.501847	-0.298597	-0.417801	0.326941	-0.0770987	-1.32137	0.853913	-0.36796	0.241742	-0.07054	-0.56585	-0.352003	-0.475365	
3.34625	0	5	-11.2247	-5.91053	-0.166941	-0.873217	-0.220438	-0.625299	-0.705831	-0.701082	-0.37327	-0.864148	-0.212451	0.19539	-0.198418	-0.341421	0.47968	0.983415	0.189862	-0.549932	0.655314	0.494003	-0.300922	-0.419602	0.327387	-0.0858575	-1.33193	0.860815	-0.372959	0.243372	-0.067824	-0.573525	-0.353942	-0.477571	
3.3432	0	5	-10.1458	-6.73869	-0.148421	-0.863746	-0.220014	-0.636899	-0.70544	-0.710318	-0.37105	-0.882061	-0.209194	0.186184	-0.193257	-0.356007	0.483395	0.972914	0.189602	-0.558738	0.655138	0.48616	-0.303248	-0.421403	0.327833	-0.0946162	-1.34249	0.867717	-0.377959	0.245003	-0.065108	-0.581201	-0.355881	-0.479777	
3.34625	0	5	-9.06685	-7.56685	-0.129901	-0.854276	-0.21959	-0.6485	-0.705049	-0.719554	-0.368829	-0.899974	-0.205936	0.176977	-0.188096	-0.370594	0.487111	0.962414	0.189343	-0.567545	0.654963	0.478317	-0.305573	-0.423205	0.32828	-0.103375	-1.35306	0.87462	-0.382959	0.246633	-0.062392	-0.588877	-0.35782	-0.481983	
3.3432	0	5	-9.27916	-7.52509	-0.130568	-0.873019	-0.211789	-0.670548	-0.707193	-0.73787	-0.366623	-0.917838	-0.203066	0.153911	-0.185081	-0.392145	0.490822	0.951926	0.187168	-0.580461	0.655699	0.467901	-0.314832	-0.422133	0.325717	-0.118602	-1.36712	0.88381	-0.395207	0.256273	-0.0777363	-0.590637	-0.36443	-0.486338	
3.34473	0	5	-9.49148	-7.48334	-0.131234	-0.891762	-0.203987	-0.692595	-0.709336	-0.756185	-0.364418	-0.935701	-0.200195	0.130845	-0.182065	-0.413695	0.494533	0.941438	0.184992	-0.593376	0.656435	0.457486	-0.324091	-0.421061	0.323153	-0.13383	-1.38119	0.893	-0.407456	0.265914	-0.0930805	-0.592398	-0.371041	-0.490692	
3.34625	0	5	-9.70379	-7.44158	-0.1319	-0.910504	-0.196186	-0.714643	-0.71148	-0.774501	-0.362212	-0.953565	-0.197324	0.107778	-0.17905	-0.435246	0.498244	0.93095	0.182816	-0.606292	0.657171	0.447071	-0.333351	-0.419989	0.320589	-0.149057	-1.39525	0.902191	-0.419704	0.275554	-0.108425	-0.594159	-0.377652	-0.495047	
3.34473	0	5	-9.91611	-7.39982	-0.132567	-0.929247	-0.188385	-0.736691	-0.713623	-0.792817	-0.360006	-0.971429	-0.194454	0.084712	-0.176035	-0.456797	0.501955	0.920462	0.180641	-0.619208	0.657907	0.436655	-0.34261	-0.418917	0.318026	-0.164285	-1.40932	0.911381	-0.431953	0.285194	-0.123769	-0.595919	-0.384262	-0.499402	
3.33862	0	5	-9.06866	-7.91978	-0.141283	-0.935511	-0.185329	-0.734924	-0.712358	-0.788272	-0.353614	-0.966226	-0.190819	0.089393	-0.169184	-0.450092	0.508125	0.932566	0.186942	-0.617953	0.661009	0.444563	-0.335675	-0.421789	0.316472	-0.159892	-1.39877	0.90449	-0.428327	0.281188	-0.120389	-0.594201	-0.387793	-0.497095	
3.34625	0	5	-8.2212	-8.43974	-0.149999	-0.941775	-0.182274	-0.733158	-0.711093	-0.783728	-0.347222	-0.961024	-0.187184	0.094074	-0.162332	-0.443387	0.514295	0.94467	0.193244	-0.616697	0.664111	0.45247	-0.32874	-0.424662	0.314917	-0.155499	-1.38822	0.897598	-0.424701	0.277182	-0.117009	-0.592483	-0.391324	-0.494788	
3.3432	0	5	-7.37375	-8.9597	-0.158715	-0.948039	-0.179218	-0.731391	-0.709827	-0.779183	-0.340831	-0.955821	-0.183549	0.098755	-0.155481	-0.436681	0.520464	0.956775	0.199545	-0.615441	0.667214	0.460377	-0.321805	-0.427534	0.313363	-0.151106	-1.37768	0.890707	-0.421076	0.273176	-0.113628	-0.590765	-0.394856	-0.49248	
3.3432	0	5	-6.5263	-9.47966	-0.167431	-0.954303	-0.176162	-0.729625	-0.708562	-0.774638	-0.334439	-0.950618	-0.179914	0.103436	-0.14863	-0.429976	0.526634	0.968879	0.205846	-0.614186	0.670316	0.468285	-0.31487	-0.430407	0.311809	-0.146713	-1.36713	0.883816	-0.41745	0.26917	-0.110248	-0.589047	-0.398387	-0.490173	
3.34167	0	5	-6.71085	-9.3324	-0.170648	-0.976057	-0.172699	-0.739412	-0.71027	-0.786049	-0.328	-0.957171	-0.180305	0.089586	-0.146056	-0.437252	0.53344	0.964432	0.205021	-0.611855	0.672325	0.47095	-0.314106	-0.432565	0.309141	-0.146659	-1.35657	0.876916	-0.41745	0.26917	-0.11477	-0.576265	-0.403513	-0.483355	
3.3432	0	5	-6.8954	-9.18515	-0.173865	-0.997811	-0.169236	-0.749199	-0.711978	-0.79746	-0.321561	-0.963725	-0.180696	0.075736	-0.143482	-0.444527	0.540247	0.959985	0.204197	-0.609524	0.674334	0.473615	-0.313342	-0.434723	0.306474	-0.146604	-1.34601	0.870016	-0.41745	0.26917	-0.119293	-0.563484	-0.408639	-0.476537	
3.3432	0	5	-7.07995	-9.0379	-0.177082	-1.01957	-0.165773	-0.758986	-0.713686	-0.808871	-0.315121	-0.970279	-0.181086	0.061886	-0.140907	-0.451802	0.547053	0.955537	0.203373	-0.607193	0.676343	0.47628	-0.312579	-0.43688	0.303806	-0.14655	-1.33545	0.863117	-0.41745	0.26917	-0.123816	-0.550702	-0.413766	-0.469718	
3.3432	0	5	-7.2645	-8.89065	-0.180299	-1.04132	-0.16231	-0.768773	-0.715394	-0.820282	-0.308682	-0.976832	-0.181477	0.048036	-0.138333	-0.459078	0.553859	0.95109	0.202548	-0.604862	0.678352	0.478945	-0.311815	-0.439038	0.301138	-0.146496	-1.32489	0.856217	-0.41745	0.26917	-0.128338	-0.53792	-0.418892	-0.4629	
3.34473	0	5	-7.92079	-8.28219	-0.186464	-1.04443	-0.151394	-0.768382	-0.713304	-0.818071	-0.297986	-0.972082	-0.177839	0.0527078	-0.126744	-0.452658	0.561906	0.957958	0.20803	-0.601272	0.683288	0.481691	-0.301018	-0.444434	0.300361	-0.144299	-1.31079	0.847004	-0.411702	0.265414	-0.133774	-0.522558	-0.415362	-0.465206	
3.34167	0	5	-8.57709	-7.67374	-0.192629	-1.04754	-0.140478	-0.767991	-0.711214	-0.815859	-0.28729	-0.967333	-0.1742	0.0573795	-0.115156	-0.446238	0.569954	0.964827	0.213512	-0.597681	0.688225	0.484436	-0.29022	-0.449831	0.299584	-0.142103	-1.2967	0.837792	-0.405955	0.261659	-0.139209	-0.507195	-0.411832	-0.467513	
3.3371	0	5	-9.23338	-7.06528	-0.198794	-1.05066	-0.129561	-0.767599	-0.709125	-0.813648	-0.276594	-0.962584	-0.170561	0.0620513	-0.103567	-0.439819	0.578002	0.971696	0.218994	-0.594091	0.693161	0.487181	-0.279423	-0.455227	0.298806	-0.139906	-1.2826	0.828579	-0.400207	0.257904	-0.144645	-0.491833	-0.408303	-0.46982	
3.3432	0	5	-9.88967	-6.45682	-0.204959	-1.05377	-0.118645	-0.767208	-0.707035	-0.811437	-0.265898	-0.957834	-0.166923	0.066723	-0.091978	-0.433399	0.586049	0.978564	0.224476	-0.590501	0.698098	0.489927	-0.268626	-0.460623	0.298029	-0.13771	-1.2685	0.819366	-0.39446	0.254148	-0.150081	-0.476471	-0.404773	-0.472126	
3.33557	0	5	-9.12634	-5.5587	-0.209278	-1.07232	-0.115182	-0.776995	-0.707104	-0.827473	-0.262689	-0.95523	-0.172183	0.0666345	-0.0932678	-0.429755	0.584186	0.983828	0.225567	-0.584034	0.695348	0.4977	-0.268626	-0.460623	0.297585	-0.12897	-1.25791	0.812446	-0.385831	0.24851	-0.146959	-0.462732	-0.408767	-0.460837	
3.34015	0	5	-8.36302	-4.66057	-0.213596	-1.09088	-0.111719	-0.786782	-0.707174	-0.843509	-0.259479	-0.952626	-0.177443	0.066546	-0.0945575	-0.426111	0.582323	0.989092	0.226657	-0.577567	0.692597	0.505474	-0.268626	-0.460623	0.297141	-0.120229	-1.24732	0.805527	-0.377203	0.242872	-0.143836	-0.448994	-0.412762	-0.449549	
3.34167	0	5	-7.59969	-3.76244	-0.217915	-1.10944	-0.108256	-0.796569	-0.707243	-0.859545	-0.25627	-0.950022	-0.182704	0.0664575	-0.0958472	-0.422466	0.580461	0.994356	0.227748	-0.571099	0.689847	0.513247	-0.268626	-0.460623	0.296696	-0.111489	-1.23673	0.798607	-0.368574	0.237234	-0.140714	-0.435255	-0.416756	-0.43826	
3.33862	0	5	-6.83636	-2.86431	-0.222233	-1.12799	-0.104793	-0.806356	-0.707312	-0.875581	-0.253061	-0.947418	-0.187964	0.066369	-0.097137	-0.418822	0.578598	0.99962	0.228838	-0.564632	0.687096	0.521021	-0.268626	-0.460623	0.296252	-0.102748	-1.22614	0.791687	-0.359946	0.231596	-0.137592	-0.421517	-0.42075	-0.426971	
3.34167	0	5	-4.72899	-3.93515	-0.21896	-1.13724	-0.0977902	-0.805289	-0.707312	-0.875581	-0.24447	-0.948327	-0.175815	0.0619565	-0.0816513	-0.423334	0.586654	1.00651	0.232409	-0.565169	0.69387	0.518588	-0.264769	-0.463143	0.302367	-0.105053	-1.21907	0.787069	-0.354189	0.227834	-0.133304	-0.422344	-0.422682	-0.429182	
3.34473	0	5	-2.62162	-5.00598	-0.215687	-1.14649	-0.0907875	-0.804223	-0.707312	-0.875581	-0.235879	-0.949237	-0.163667	0.057544	-0.0661655	-0.427845	0.59471	1.0134	0.235979	-0.565706	0.700645	0.516154	-0.260911	-0.465664	0.308482	-0.107357	-1.212	0.782452	-0.348432	0.224072	-0.129016	-0.423171	-0.424613	-0.431392	
3.33557	0	5	-0.514244	-6.07681	-0.212414	-1.15574	-0.0837848	-0.803156	-0.707312	-0.875581	-0.227289	-0.950146	-0.151519	0.0531315	-0.0506798	-0.432356	0.602766	1.02029	0.239549	-0.566243	0.707419	0.513721	-0.257054	-0.468185	0.314598	-0.109661	-1.20494	0.777834	-0.342674	0.22031	-0.124728	-0.423997	-0.426545	-0.433603	
3.34015	0	5	1.59313	-7.14765	-0.209141	-1.16499	-0.076782	-0.80209	-0.707312	-0.875581	-0.218698	-0.951055	-0.13937	0.048719	-0.035194	-0.436868	0.610822	1.02719	0.24312	-0.56678	0.714193	0.511288	-0.253197	-0.470705	0.320713	-0.111966	-1.19787	0.773216	-0.336917	0.216548	-0.12044	-0.424824	-0.428477	-0.435814	
3.34015	0	5	3.79803	-9.06058	-0.217128	-1.15266	-0.0803255	-0.812933	-0.71403	-0.889015	-0.219749	-0.959774	-0.144636	0.0486342	-0.0412202	-0.43293	0.621386	1.01218	0.242293	-0.564443	0.710346	0.513802	-0.256291	-0.470342	0.316818	-0.100958	-1.19433	0.770906	-0.334037	0.214666	-0.116406	-0.413619	-0.418346	-0.433748	
3.33862	0	5	6.00293	-10.9735	-0.225115	-1.14033	-0.083869	-0.823775	-0.720748	-0.90245	-0.220799	-0.968492	-0.149901	0.0485495	-0.0472465	-0.428992	0.63195	0.997168	0.241467	-0.562106	0.7065	0.516315	-0.259385	-0.46998	0.312924	-0.0899505	-1.1908	0.768595	-0.331157	0.212784	-0.112373	-0.402415	-0.408215	-0.431683	
3.33557	0	5	8.20783	-12.8864	-0.233102	-1.128	-0.0874125	-0.834618	-0.727466	-0.915884	-0.22185	-0.97721	-0.155167	0.0484648	-0.0532728	-0.425055	0.642514	0.98216	0.24064	-0.559769	0.702653	0.518829	-0.262478	-0.469617	0.309029	-0.0789427	-1.18726	0.766285	-0.328277	0.210903	-0.10834	-0.39121	-0.398083	-0.429617	
3.33862	0	5	10.4127	-14.7994	-0.241089	-1.11567	-0.090956	-0.845461	-0.734184	-0.929318	-0.222901	-0.985929	-0.160433	0.04838	-0.059299	-0.421117	0.653078	0.967151	0.239813	-0.557432	0.698806	0.521343	-0.265572	-0.469255	0.305134	-0.067935	-1.18373	0.763975	-0.325397	0.209021	-0.104306	-0.380005	-0.387952	-0.427552	
3.34015	0	5	10.0223	-14.577	-0.239651	-1.10949	-0.0892277	-0.850345	-0.735453	-0.933827	-0.222875	-0.997685	-0.15719	0.0392158	-0.050692	-0.432348	0.654942	0.961884	0.242293	-0.564441	0.70357	0.516237	-0.271755	-0.468532	0.306693	-0.0723397	-1.19433	0.770903	-0.334034	0.214665	-0.104958	-0.389468	-0.389087	-0.432023	
3.34015	0	5	9.63189	-14.3546	-0.238213	-1.10331	-0.0874995	-0.855229	-0.736723	-0.938335	-0.222849	-1.00944	-0.153948	0.0300515	-0.042085	-0.443579	0.656806	0.956616	0.244773	-0.57145	0.708335	0.51113	-0.277937	-0.467809	0.308251	-0.0767445	-1.20493	0.777831	-0.342672	0.220309	-0.10561	-0.39893	-0.390223	-0.436493	
3.34015	0	5	9.24147	-14.1322	-0.236776	-1.09713	-0.0857713	-0.860113	-0.737992	-0.942844	-0.222822	-1.0212	-0.150705	0.0208873	-0.033478	-0.45481	0.658669	0.951349	0.247253	-0.578459	0.713099	0.506024	-0.284119	-0.467086	0.309809	-0.0811493	-1.21553	0.784759	-0.351309	0.225952	-0.106262	-0.408393	-0.391358	-0.440964	
3.33862	0	5	8.85104	-13.9098	-0.235338	-1.09095	-0.084043	-0.864997	-0.739262	-0.947353	-0.222796	-1.03295	-0.147462	0.011723	-0.024871	-0.466041	0.660533	0.946082	0.249733	-0.585468	0.717863	0.500918	-0.290302	-0.466363	0.311368	-0.085554	-1.22614	0.791687	-0.359946	0.231596	-0.106914	-0.417856	-0.392493	-0.445435	
3.3371	0	5	7.16526	-12.926	-0.240396	-1.09714	-0.0897027	-0.859422	-0.747158	-0.949304	-0.221741	-1.02425	-0.145439	0.020972	-0.0218472	-0.448373	0.664887	0.963508	0.252744	-0.574856	0.722067	0.514133	-0.284119	-0.467086	0.313589	-0.0768415	-1.22614	0.791687	-0.357068	0.229715	-0.109644	-0.410141	-0.393292	-0.443175	
3.33862	0	0	5.47948	-11.9422	-0.245454	-1.10332	-0.0953625	-0.853846	-0.755054	-0.951256	-0.220686	-1.01555	-0.143416	0.030221	-0.0188235	-0.430704	0.66924	0.980935	0.255756	-0.564244	0.726271	0.527348	-0.277937	-0.467809	0.31581	-0.068129	-1.22614	0.791687	-0.35419	0.227834	-0.112374	-0.402425	-0.394092	-0.440916	
3.3371	0	0	3.7937	-10.9584	-0.250512	-1.10951	-0.101022	-0.848271	-0.762951	-0.953207	-0.219631	-1.00685	-0.141393	0.03947	-0.0157998	-0.413035	0.673593	0.998361	0.258767	-0.553632	0.730475	0.540564	-0.271755	-0.468532	0.318032	-0.0594165	-1.22614	0.791687	-0.351312	0.225954	-0.115104	-0.39471	-0.394892	-0.438657	
3.34015	0	0	2.10792	-9.97461	-0.25557	-1.11569	-0.106682	-0.842696	-0.770847	-0.955158	-0.218576	-0.998152	-0.13937	0.048719	-0.012776	-0.395367	0.677947	1.01579	0.261779	-0.54302	0.734679	0.553779	-0.265572	-0.469255	0.320253	-0.050704	-1.22614	0.791687	-0.348434	0.224073	-0.117834	-0.386995	-0.395691	-0.436397	
3.33862	0	0	0.632452	-9.41833	-0.261713	-1.11879	-0.103142	-0.831854	-0.773301	-0.948222	-0.216441	-0.992497	-0.140993	0.053307	-0.00587175	-0.388628	0.684168	1.02798	0.269761	-0.546437	0.740548	0.55394	-0.264809	-0.471413	0.322593	-0.0573167	-1.2332	0.796301	-0.35994	0.231592	-0.122773	-0.395625	-0.400693	-0.445279	
3.33557	0	0	-0.843014	-8.86205	-0.267856	-1.12188	-0.0996025	-0.821012	-0.775756	-0.941285	-0.214307	-0.986842	-0.142617	0.057895	0.0010325	-0.381888	0.690389	1.04018	0.277744	-0.549854	0.746418	0.554101	-0.264045	-0.47357	0.324933	-0.0639295	-1.24026	0.800916	-0.371447	0.239111	-0.127713	-0.404256	-0.405695	-0.45416	
3.33404	0	0	-2.31848	-8.30577	-0.274	-1.12498	-0.0960628	-0.810171	-0.778211	-0.934349	-0.212172	-0.981186	-0.14424	0.062483	0.00793675	-0.375148	0.696611	1.05237	0.285726	-0.553271	0.752287	0.554262	-0.263281	-0.475727	0.327273	-0.0705423	-1.24732	0.80553	-0.382954	0.246629	-0.132653	-0.412886	-0.410697	-0.463042	
3.33557	0	0	-3.79395	-7.74949	-0.280143	-1.12807	-0.092523	-0.799329	-0.780665	-0.927413	-0.210037	-0.975531	-0.145864	0.067071	0.014841	-0.368409	0.702832	1.06457	0.293708	-0.556688	0.758157	0.554423	-0.262518	-0.477885	0.329613	-0.077155	-1.25438	0.810144	-0.39446	0.254148	-0.137592	-0.421517	-0.415699	-0.471924	
3.33862	0	0	-4.75895	-7.40174	-0.284847	-1.125	-0.0955233	-0.780418	-0.785139	-0.906685	-0.203632	-0.958522	-0.134924	0.0811243	0.0260743	-0.347541	0.714051	1.07762	0.301139	-0.548937	0.761443	0.570288	-0.256329	-0.478612	0.331836	-0.0684363	-1.25085	0.807837	-0.391585	0.252269	-0.138501	-0.418948	-0.420361	-0.474079	
3.33557	0	0	-5.72394	-7.054	-0.28955	-1.12193	-0.0985235	-0.761508	-0.789612	-0.885956	-0.197228	-0.941512	-0.123984	0.0951775	0.0373075	-0.326674	0.72527	1.09066	0.308569	-0.541187	0.76473	0.586153	-0.25014	-0.479338	0.33406	-0.0597175	-1.24732	0.80553	-0.388709	0.25039	-0.13941	-0.416379	-0.425023	-0.476233	
3.34015	0	0	-6.68894	-6.70625	-0.294254	-1.11885	-0.101524	-0.742598	-0.794085	-0.865228	-0.190824	-0.924503	-0.113044	0.109231	0.0485408	-0.305806	0.736489	1.10371	0.315999	-0.533436	0.768016	0.602019	-0.243951	-0.480065	0.336284	-0.0509987	-1.24379	0.803224	-0.385834	0.248512	-0.140319	-0.41381	-0.429685	-0.478388	
3.3371	0	0	-7.65394	-6.35851	-0.298958	-1.11578	-0.104524	-0.723687	-0.798559	-0.844499	-0.184419	-0.907493	-0.102104	0.123284	0.059774	-0.284938	0.747708	1.11676	0.32343	-0.525685	0.771303	0.617884	-0.237762	-0.480791	0.338507	-0.04228	-1.24026	0.800917	-0.382959	0.246633	-0.141228	-0.411241	-0.434347	-0.480543	
3.3371	0	0	-8.30456	-6.15408	-0.300391	-1.12194	-0.102325	-0.719464	-0.79938	-0.84218	-0.179026	-0.911017	-0.098848	0.114082	0.0645375	-0.285223	0.752706	1.11758	0.323162	-0.534517	0.773147	0.612672	-0.240857	-0.480428	0.337842	-0.0554045	-1.24732	0.805529	-0.397325	0.25602	-0.144348	-0.424986	-0.440475	-0.493846	
3.33557	0	0	-8.95518	-5.94965	-0.301823	-1.12811	-0.100126	-0.715242	-0.800201	-0.839861	-0.173633	-0.914541	-0.095592	0.10488	0.069301	-0.285509	0.757704	1.1184	0.322894	-0.543349	0.774991	0.60746	-0.243953	-0.480064	0.337178	-0.068529	-1.25438	0.810142	-0.411692	0.265408	-0.147469	-0.438731	-0.446603	-0.507149	
3.3371	0	0	-9.6058	-5.74522	-0.303256	-1.13427	-0.0979263	-0.71102	-0.801021	-0.837541	-0.16824	-0.918065	-0.092336	0.0956772	0.0740645	-0.285794	0.762702	1.11921	0.322627	-0.55218	0.776835	0.602248	-0.247048	-0.479701	0.336514	-0.0816535	-1.26144	0.814754	-0.426059	0.274795	-0.150589	-0.452475	-0.452731	-0.520452	
3.33557	0	0	-10.2564	-5.54079	-0.304688	-1.14044	-0.095727	-0.706797	-0.801842	-0.835222	-0.162847	-0.921589	-0.08908	0.086475	0.078828	-0.286079	0.7677	1.12003	0.322359	-0.561012	0.778679	0.597036	-0.250143	-0.479337	0.335849	-0.094778	-1.2685	0.819366	-0.440425	0.284182	-0.153709	-0.46622	-0.458859	-0.533755	
3.33862	0	0	-10.7123	-5.40451	-0.309387	-1.13737	-0.100943	-0.692056	-0.797241	-0.823947	-0.161795	-0.912835	-0.0833998	0.100463	0.0892295	-0.275888	0.778952	1.13313	0.325943	-0.561554	0.78087	0.607632	-0.250143	-0.479337	0.336962	-0.090424	-1.2685	0.819366	-0.434681	0.280429	-0.151896	-0.471345	-0.466233	-0.535847	
3.33862	0	5	-11.1682	-5.26823	-0.314086	-1.1343	-0.106159	-0.677315	-0.79264	-0.812672	-0.160744	-0.904081	-0.0777195	0.114452	0.099631	-0.265697	0.790203	1.14623	0.329528	-0.562095	0.78306	0.618229	-0.250143	-0.479337	0.338075	-0.08607	-1.2685	0.819366	-0.428937	0.276676	-0.150082	-0.47647	-0.473608	-0.537939	
3.34015	0	5	-11.6241	-5.13195	-0.318784	-1.13123	-0.111375	-0.662574	-0.788038	-0.801397	-0.159693	-0.895328	-0.0720392	0.128441	0.110033	-0.255506	0.801455	1.15933	0.333113	-0.562637	0.785251	0.628825	-0.250143	-0.479337	0.339188	-0.081716	-1.2685	0.819366	-0.423194	0.272923	-0.148268	-0.481595	-0.480982	-0.540031	
3.33557	0	5	-12.08	-4.99566	-0.323483	-1.12816	-0.116591	-0.647833	-0.783437	-0.790122	-0.158641	-0.886574	-0.066359	0.142429	0.120434	-0.245315	0.812706	1.17243	0.336697	-0.563179	0.787442	0.639421	-0.250143	-0.479337	0.340301	-0.077362	-1.2685	0.819366	-0.41745	0.26917	-0.146455	-0.48672	-0.488356	-0.542123	
3.3371	0	5	-12.4022	-4.92838	-0.324173	-1.14661	-0.117048	-0.65698	-0.784697	-0.794658	-0.154296	-0.898854	-0.0683847	0.133127	0.124346	-0.25637	0.812706	1.17243	0.334496	-0.576131	0.791133	0.628988	-0.253237	-0.478974	0.336961	-0.0904122	-1.2826	0.828579	-0.431802	0.278548	-0.154765	-0.497028	-0.496851	-0.54865	
3.33557	0	5	-12.7244	-4.86109	-0.324863	-1.16506	-0.117504	-0.666127	-0.785956	-0.799194	-0.14995	-0.911134	-0.0704105	0.123826	0.128257	-0.267425	0.812706	1.17243	0.332295	-0.589082	0.794825	0.618556	-0.256331	-0.478611	0.33362	-0.103463	-1.2967	0.837792	-0.446154	0.287926	-0.163075	-0.507337	-0.505346	-0.555176	
3.33557	0	5	-13.0466	-4.79381	-0.325553	-1.18351	-0.117961	-0.675274	-0.787216	-0.803729	-0.145605	-0.923414	-0.0724363	0.114524	0.132169	-0.27848	0.812706	1.17243	0.330094	-0.602034	0.798517	0.608123	-0.259424	-0.478248	0.33028	-0.116513	-1.31079	0.847004	-0.460506	0.297304	-0.171384	-0.517645	-0.51384	-0.561702	
3.3371	0	5	-13.3688	-4.72652	-0.326243	-1.20196	-0.118418	-0.684421	-0.788476	-0.808265	-0.14126	-0.935694	-0.074462	0.105222	0.136081	-0.289535	0.812706	1.17243	0.327893	-0.614986	0.802208	0.59769	-0.262518	-0.477885	0.32694	-0.129563	-1.32489	0.856217	-0.474858	0.306682	-0.179694	-0.527954	-0.522335	-0.568229	
3.33252	0	5	-13.6068	-4.66573	-0.33202	-1.19582	-0.120156	-0.679508	-0.788861	-0.799079	-0.139119	-0.930014	-0.0655147	0.110001	0.143033	-0.282743	0.827759	1.1749	0.32872	-0.617323	0.810119	0.600542	-0.26561	-0.477523	0.333061	-0.131872	-1.32489	0.856217	-0.47199	0.304808	-0.183064	-0.529681	-0.524258	-0.570419	
3.33404	0	5	-13.8447	-4.60493	-0.337797	-1.18969	-0.121894	-0.674596	-0.789247	-0.789893	-0.136977	-0.924334	-0.0565675	0.11478	0.149984	-0.275951	0.842813	1.17736	0.329547	-0.61966	0.81803	0.603393	-0.268702	-0.47716	0.339182	-0.134181	-1.32489	0.856217	-0.469121	0.302933	-0.186434	-0.531408	-0.526182	-0.572609	
3.33557	0	5	-14.0826	-4.54414	-0.343574	-1.18355	-0.123632	-0.669683	-0.789632	-0.780707	-0.134835	-0.918654	-0.0476203	0.119559	0.156936	-0.269159	0.857867	1.17982	0.330374	-0.621996	0.825942	0.606244	-0.271795	-0.476798	0.345304	-0.13649	-1.32489	0.856217	-0.466253	0.301059	-0.189804	-0.533135	-0.528106	-0.574799	
3.33557	0	5	-14.3205	-4.48335	-0.349351	-1.17742	-0.12537	-0.664771	-0.790018	-0.771521	-0.132694	-0.912974	-0.038673	0.124338	0.163887	-0.262367	0.87292	1.18229	0.331201	-0.624333	0.833853	0.609096	-0.274887	-0.476436	0.351425	-0.138799	-1.32489	0.856217	-0.463384	0.299184	-0.193174	-0.534862	-0.530029	-0.576989	
3.3371	0	5	-14.5055	-4.45111	-0.347528	-1.19276	-0.130626	-0.670774	-0.788811	-0.783029	-0.132665	-0.924787	-0.0390757	0.110438	0.163017	-0.273133	0.871031	1.18763	0.331749	-0.635461	0.83183	0.606406	-0.277978	-0.476074	0.345745	-0.145226	-1.33545	0.863117	-0.46912	0.302932	-0.201467	-0.545136	-0.533874	-0.581365	
3.33557	0	5	-14.6905	-4.41887	-0.345705	-1.2081	-0.135882	-0.676778	-0.787604	-0.794538	-0.132636	-0.936601	-0.0394785	0.0965375	0.162147	-0.283899	0.869141	1.19297	0.332298	-0.64659	0.829807	0.603716	-0.281068	-0.475712	0.340064	-0.151653	-1.34601	0.870016	-0.474856	0.30668	-0.209759	-0.555411	-0.537718	-0.58574	
3.33099	0	5	-14.8754	-4.38662	-0.343883	-1.22343	-0.141138	-0.682781	-0.786396	-0.806046	-0.132608	-0.948414	-0.0398813	0.0826373	0.161278	-0.294665	0.867251	1.19831	0.332846	-0.657718	0.827784	0.601027	-0.284159	-0.475351	0.334384	-0.15808	-1.35657	0.876916	-0.480592	0.310428	-0.218052	-0.565685	-0.541563	-0.590116	
3.33099	0	5	-15.0604	-4.35438	-0.34206	-1.23877	-0.146394	-0.688784	-0.785189	-0.817554	-0.132579	-0.960228	-0.040284	0.068737	0.160408	-0.305431	0.865362	1.20365	0.333394	-0.668846	0.825761	0.598337	-0.28725	-0.474989	0.328703	-0.164507	-1.36713	0.883816	-0.486328	0.314176	-0.226345	-0.575959	-0.545408	-0.594492	
3.33252	0	5	-15.1944	-4.31665	-0.34783	-1.23264	-0.145939	-0.679644	-0.785574	-0.808371	-0.132608	-0.948414	-0.0398813	0.0826373	0.158666	-0.287284	0.871631	1.216	0.334499	-0.66239	0.830907	0.609025	-0.284159	-0.475351	0.335162	-0.160279	-1.36713	0.883816	-0.481345	0.312557	-0.221176	-0.579337	-0.548578	-0.585532	
3.33404	0	5	-15.3283	-4.27892	-0.353599	-1.22652	-0.145485	-0.670503	-0.785958	-0.799189	-0.132636	-0.936601	-0.0394785	0.0965375	0.156924	-0.269138	0.8779	1.22834	0.335604	-0.655934	0.836054	0.619713	-0.281068	-0.475712	0.34162	-0.156052	-1.36713	0.883816	-0.476363	0.310939	-0.216007	-0.582714	-0.551748	-0.576572	
3.33252	0	5	-15.4623	-4.24119	-0.359369	-1.22039	-0.14503	-0.661363	-0.786342	-0.790006	-0.132665	-0.924787	-0.0390757	0.110438	0.155182	-0.250991	0.884169	1.24069	0.336709	-0.649478	0.8412	0.630401	-0.277978	-0.476074	0.348079	-0.151824	-1.36713	0.883816	-0.47138	0.30932	-0.210839	-0.586091	-0.554919	-0.567613	
3.33404	0	5	-15.5962	-4.20345	-0.365139	-1.21427	-0.144575	-0.652223	-0.786727	-0.780823	-0.132694	-0.912974	-0.038673	0.124338	0.15344	-0.232844	0.890438	1.25304	0.337814	-0.643022	0.846346	0.641089	-0.274887	-0.476436	0.354537	-0.147596	-1.36713	0.883816	-0.466398	0.307701	-0.20567	-0.589469	-0.558089	-0.558653	
3.33404	0	5	-15.6924	-4.19236	-0.362971	-1.22039	-0.144575	-0.652223	-0.787164	-0.787683	-0.130521	-0.919114	-0.0374483	0.105838	0.156052	-0.240225	0.890438	1.25304	0.340572	-0.641232	0.846519	0.649018	-0.271031	-0.478955	0.353759	-0.145397	-1.36361	0.881517	-0.466398	0.307701	-0.211741	-0.583543	-0.558549	-0.549732	
3.33404	0	5	-15.7887	-4.18127	-0.360803	-1.22652	-0.144575	-0.652223	-0.787601	-0.794544	-0.128349	-0.925254	-0.0362235	0.0873375	0.158664	-0.247606	0.890438	1.25304	0.343329	-0.639442	0.846693	0.656946	-0.267176	-0.481474	0.352981	-0.143198	-1.3601	0.879218	-0.466398	0.307701	-0.217811	-0.577616	-0.55901	-0.540812	
3.33404	0	5	-15.8849	-4.17018	-0.358635	-1.23265	-0.144575	-0.652223	-0.788039	-0.801405	-0.126176	-0.931394	-0.0349987	0.0688372	0.161275	-0.254986	0.890438	1.25304	0.346086	-0.637652	0.846866	0.664875	-0.263321	-0.483993	0.352203	-0.140998	-1.35658	0.876919	-0.466398	0.307701	-0.223882	-0.571689	-0.55947	-0.531891	
3.33252	0	5	-15.9811	-4.15908	-0.356467	-1.23878	-0.144575	-0.652223	-0.788476	-0.808265	-0.124003	-0.937534	-0.033774	0.050337	0.163887	-0.262367	0.890438	1.25304	0.348844	-0.635862	0.847039	0.672804	-0.259465	-0.486512	0.351425	-0.138799	-1.35306	0.87462	-0.466398	0.307701	-0.229953	-0.565763	-0.559931	-0.52297	
3.32947	0	5	-16.0561	-4.13112	-0.352516	-1.22958	-0.146736	-0.635684	-0.78678	-0.796863	-0.122946	-0.928781	-0.0317375	0.059621	0.169539	-0.251866	0.900507	1.2547	0.348293	-0.624715	0.85404	0.678295	-0.252512	-0.489397	0.354436	-0.132306	-1.34954	0.87232	-0.459905	0.301821	-0.225686	-0.566591	-0.558476	-0.511835	
3.32794	0	5	-16.1312	-4.10316	-0.348565	-1.22037	-0.148897	-0.619144	-0.785084	-0.78546	-0.121889	-0.920027	-0.029701	0.068905	0.175192	-0.241365	0.910575	1.25636	0.347741	-0.613568	0.861042	0.683785	-0.245559	-0.492282	0.357447	-0.125812	-1.34602	0.87002	-0.453411	0.295941	-0.22142	-0.567419	-0.55702	-0.5007	
3.32794	0	5	-16.2062	-4.0752	-0.344614	-1.21117	-0.151058	-0.602605	-0.783388	-0.774057	-0.120833	-0.911273	-0.0276645	0.078189	0.180844	-0.230864	0.920644	1.25802	0.347189	-0.60242	0.868043	0.689276	-0.238607	-0.495167	0.360457	-0.119319	-1.3425	0.867721	-0.446918	0.290062	-0.217153	-0.568246	-0.555565	-0.489564	
3.32794	0	5	-16.2813	-4.04724	-0.340663	-1.20197	-0.153219	-0.586066	-0.781692	-0.762655	-0.119776	-0.90252	-0.025628	0.087473	0.186496	-0.220363	0.930713	1.25968	0.346638	-0.591273	0.875045	0.694767	-0.231654	-0.498052	0.363468	-0.112826	-1.33898	0.865421	-0.440425	0.284182	-0.212887	-0.569074	-0.55411	-0.478429	
3.32794	0	5	-16.3358	-4.05124	-0.345698	-1.20811	-0.155408	-0.590313	-0.78421	-0.771734	-0.126233	-0.907745	-0.0313278	0.0735155	0.184323	-0.227463	0.92378	1.26421	0.34581	-0.588933	0.872262	0.702632	-0.231654	-0.498052	0.357676	-0.10396	-1.33898	0.865421	-0.437554	0.282306	-0.221667	-0.55549	-0.555374	-0.467226	
3.32947	0	5	-16.3903	-4.05523	-0.350733	-1.21425	-0.157596	-0.594559	-0.786728	-0.780814	-0.13269	-0.91297	-0.0370275	0.059558	0.182149	-0.234563	0.916848	1.26873	0.344981	-0.586592	0.869479	0.710497	-0.231654	-0.498052	0.351885	-0.095094	-1.33898	0.865421	-0.434682	0.280429	-0.230447	-0.541906	-0.556639	-0.456024	
3.32794	0	5	-16.4448	-4.05923	-0.355768	-1.22039	-0.159784	-0.598805	-0.789246	-0.789894	-0.139146	-0.918195	-0.0427272	0.0456005	0.179976	-0.241663	0.909915	1.27327	0.344153	-0.584251	0.866696	0.718361	-0.231654	-0.498052	0.346093	-0.086228	-1.33898	0.865421	-0.431811	0.278553	-0.239228	-0.528323	-0.557903	-0.444821	
3.32641	0	5	-16.4994	-4.06323	-0.360803	-1.22652	-0.161973	-0.603052	-0.791764	-0.798973	-0.145603	-0.92342	-0.048427	0.031643	0.177803	-0.248763	0.902982	1.2778	0.343325	-0.581911	0.863913	0.726226	-0.231654	-0.498052	0.340301	-0.077362	-1.33898	0.865421	-0.42894	0.276677	-0.248008	-0.514739	-0.559168	-0.433618	
3.32794	0	5	-16.543	-4.04866	-0.360456	-1.21732	-0.159784	-0.598805	-0.792151	-0.789784	-0.140203	-0.926948	-0.0516797	0.0408357	0.176496	-0.245071	0.908017	1.27863	0.346083	-0.580113	0.867963	0.73165	-0.22703	-0.502731	0.342974	-0.077414	-1.3425	0.867721	-0.42894	0.276677	-0.248008	-0.514739	-0.558844	-0.426904	
3.32947	0	5	-16.5866	-4.0341	-0.360109	-1.20812	-0.157596	-0.594559	-0.792538	-0.780595	-0.134803	-0.930477	-0.0549325	0.0500285	0.175189	-0.241378	0.913053	1.27946	0.348842	-0.578315	0.872014	0.737073	-0.222407	-0.507411	0.345647	-0.077466	-1.34602	0.87002	-0.42894	0.276677	-0.248008	-0.514739	-0.558519	-0.420189	
3.32794	0	5	-16.6302	-4.01954	-0.359763	-1.19892	-0.155408	-0.590313	-0.792924	-0.771406	-0.129403	-0.934006	-0.0581853	0.0592213	0.173883	-0.237685	0.918088	1.28029	0.3516	-0.576517	0.876065	0.742497	-0.217783	-0.512091	0.348321	-0.077518	-1.34954	0.87232	-0.42894	0.276677	-0.248008	-0.514739	-0.558194	-0.413475	
3.32794	0	5	-16.6738	-4.00498	-0.359416	-1.18972	-0.153219	-0.586066	-0.793311	-0.762217	-0.124003	-0.937534	-0.061438	0.068414	0.172576	-0.233993	0.923124	1.28112	0.354359	-0.574719	0.880115	0.74792	-0.213159	-0.51677	0.350994	-0.07757	-1.35306	0.87462	-0.42894	0.276677	-0.248008	-0.514739	-0.55787	-0.406761	
3.32336	0	5	-16.7086	-4.01463	-0.362279	-1.20198	-0.151927	-0.600148	-0.797086	-0.775828	-0.131544	-0.939681	-0.0703755	0.0636557	0.163012	-0.23342	0.909264	1.29018	0.351042	-0.565345	0.877327	0.755801	-0.217019	-0.514247	0.351327	-0.071005	-1.35306	0.87462	-0.426067	0.2748	-0.24555	-0.510454	-0.561859	-0.395486	
3.32489	0	5	-16.7434	-4.02427	-0.365141	-1.21425	-0.150636	-0.61423	-0.80086	-0.789439	-0.139084	-0.941828	-0.079313	0.0588975	0.153448	-0.232847	0.895404	1.29924	0.347726	-0.555972	0.874538	0.763683	-0.22088	-0.511725	0.35166	-0.06444	-1.35306	0.87462	-0.423195	0.272923	-0.243092	-0.506169	-0.565848	-0.384212	
3.32184	0	5	-16.7783	-4.03392	-0.368003	-1.22652	-0.149344	-0.628312	-0.804635	-0.803049	-0.146624	-0.943976	-0.0882505	0.0541392	0.143884	-0.232274	0.881544	1.30829	0.344409	-0.546598	0.871749	0.771564	-0.224741	-0.509203	0.351992	-0.057875	-1.35306	0.87462	-0.420322	0.271047	-0.240635	-0.501883	-0.569838	-0.372938	
3.32641	0	5	-16.8131	-4.04357	-0.370866	-1.23878	-0.148053	-0.642394	-0.808409	-0.81666	-0.154165	-0.946123	-0.097188	0.049381	0.13432	-0.231701	0.867684	1.31735	0.341092	-0.537225	0.868961	0.779445	-0.228601	-0.50668	0.352325	-0.05131	-1.35306	0.87462	-0.41745	0.26917	-0.238177	-0.497598	-0.573827	-0.361663	
3.32336	0	5	-16.8363	-4.0376	-0.370866	-1.23878	-0.153721	-0.636801	-0.804686	-0.819093	-0.156335	-0.93999	-0.100439	0.058569	0.136486	-0.2246	0.872713	1.31819	0.34302	-0.533075	0.870055	0.784795	-0.225504	-0.507046	0.351544	-0.049103	-1.35658	0.876919	-0.41745	0.26917	-0.240635	-0.501883	-0.574945	-0.366134	
3.32794	0	5	-16.8596	-4.03163	-0.370866	-1.23878	-0.159389	-0.631208	-0.800963	-0.821526	-0.158506	-0.933856	-0.10369	0.067757	0.138653	-0.217499	0.877741	1.31903	0.344947	-0.528925	0.871149	0.790144	-0.222407	-0.507411	0.350763	-0.046896	-1.3601	0.879218	-0.41745	0.26917	-0.243092	-0.506169	-0.576064	-0.370606	
3.32489	0	5	-16.8828	-4.02566	-0.370866	-1.23878	-0.165057	-0.625614	-0.79724	-0.823958	-0.160676	-0.927723	-0.106941	0.076945	0.140819	-0.210398	0.88277	1.31987	0.346875	-0.524775	0.872243	0.795493	-0.219309	-0.507776	0.349982	-0.044689	-1.36361	0.881517	-0.41745	0.26917	-0.24555	-0.510454	-0.577182	-0.375077	
