1.028	3.45917	0	0	-1.17216	-0.050881	0.031799	-0.274797	-0.23792	0.183665	-0.060444	0.021915	-0.317743	-0.173437	-0.31362	-0.013099	-0.273954	0.094632	-0.36727	0.085449	-0.155703	0.028373	-0.13012	-0.020839	-0.061624	0.143233	-0.064418	0.056408	-0.337977	0.134052	-0.262209	0.166741	-0.330815	0.258857	-0.210329	-0.022137	
1.03689	3.45764	0	0	-1.21104	-0.0566833	0.0266795	-0.271452	-0.239886	0.178991	-0.060444	0.021915	-0.322259	-0.170487	-0.319326	0.003026	-0.27891	0.0978707	-0.362042	0.0858488	-0.156526	0.0306977	-0.131038	-0.0182455	-0.0594665	0.145274	-0.0665048	0.0731312	-0.335365	0.135666	-0.255541	0.162384	-0.330815	0.258857	-0.207478	-0.0222998	
1.04405	3.45306	0	0	-1.24992	-0.0624855	0.02156	-0.268107	-0.241852	0.174316	-0.060444	0.021915	-0.326774	-0.167536	-0.325032	0.019151	-0.283867	0.101109	-0.356815	0.0862485	-0.157348	0.0330225	-0.131955	-0.015652	-0.057309	0.147315	-0.0685915	0.0898545	-0.332753	0.13728	-0.248872	0.158027	-0.330815	0.258857	-0.204627	-0.0224625	
1.04965	3.45611	0	0	-1.28881	-0.0682878	0.0164405	-0.264761	-0.243818	0.169642	-0.060444	0.021915	-0.33129	-0.164585	-0.330737	0.035276	-0.288824	0.104348	-0.351587	0.0866482	-0.15817	0.0353472	-0.132873	-0.0130585	-0.0551515	0.149357	-0.0706782	0.106578	-0.330141	0.138895	-0.242204	0.153669	-0.330815	0.258857	-0.201777	-0.0226252	
1.05383	3.45611	0	0	-1.32769	-0.07409	0.011321	-0.261416	-0.245784	0.164968	-0.060444	0.021915	-0.335805	-0.161635	-0.336443	0.051401	-0.29378	0.107587	-0.34636	0.087048	-0.158993	0.037672	-0.13379	-0.010465	-0.052994	0.151398	-0.072765	0.123301	-0.327529	0.140509	-0.235535	0.149312	-0.330815	0.258857	-0.198926	-0.022788	
1.05673	3.45306	0	0	0.298863	-1.15246	0.0146763	-0.270898	-0.245012	0.152561	-0.061684	0.017753	-0.340005	-0.169371	-0.328646	0.0463065	-0.2886	0.092949	-0.34636	0.087048	-0.160629	0.0244562	-0.131955	-0.0156512	-0.053564	0.14487	-0.0706782	0.106578	-0.332751	0.137281	-0.245536	0.155847	-0.337172	0.253307	-0.197086	-0.035882	
1.0585	3.45306	0	0	1.92541	-2.23084	0.0180315	-0.280381	-0.24424	0.140155	-0.062924	0.013591	-0.344205	-0.177108	-0.32085	0.041212	-0.283421	0.078311	-0.34636	0.087048	-0.162266	0.0112405	-0.13012	-0.0208375	-0.054134	0.138342	-0.0685915	0.0898545	-0.337974	0.134053	-0.255536	0.162382	-0.34353	0.247756	-0.195246	-0.048976	
1.0593	3.45001	0	0	3.55196	-3.30921	0.0213867	-0.289863	-0.243469	0.127748	-0.064164	0.009429	-0.348405	-0.184844	-0.313053	0.0361175	-0.278242	0.063673	-0.34636	0.087048	-0.163903	-0.00197525	-0.128285	-0.0260237	-0.054704	0.131814	-0.0665048	0.0731312	-0.343197	0.130826	-0.265537	0.168916	-0.349887	0.242206	-0.193406	-0.06207	
1.05926	3.45154	0	0	5.17851	-4.38758	0.024742	-0.299345	-0.242697	0.115341	-0.065404	0.005267	-0.352605	-0.19258	-0.305256	0.031023	-0.273062	0.049035	-0.34636	0.087048	-0.165539	-0.015191	-0.12645	-0.03121	-0.055274	0.125286	-0.064418	0.056408	-0.348419	0.127598	-0.275538	0.175451	-0.356244	0.236656	-0.191566	-0.075164	
1.05854	3.44696	0	0	5.38268	-4.52764	0.024742	-0.299345	-0.252242	0.111675	-0.0646415	0.00311225	-0.357113	-0.189634	-0.303168	0.042078	-0.278016	0.052272	-0.348117	0.0920135	-0.168821	-0.0148302	-0.129203	-0.0234295	-0.0614	0.134464	-0.0626992	0.073208	-0.351475	0.136235	-0.262201	0.166736	-0.35803	0.241703	-0.186642	-0.0732872	
1.05729	3.44849	0	0	5.58685	-4.6677	0.024742	-0.299345	-0.261788	0.108009	-0.063879	0.0009575	-0.361622	-0.186689	-0.30108	0.053133	-0.282969	0.055509	-0.349874	0.096979	-0.172102	-0.0144695	-0.131956	-0.015649	-0.067526	0.143641	-0.0609805	0.090008	-0.354531	0.144872	-0.248864	0.158021	-0.359816	0.24675	-0.181719	-0.0714105	
1.05564	3.45306	0	0	5.79101	-4.80777	0.024742	-0.299345	-0.271333	0.104343	-0.0631165	-0.00119725	-0.36613	-0.183743	-0.298993	0.064188	-0.287923	0.058746	-0.351631	0.101945	-0.175384	-0.0141087	-0.134709	-0.0078685	-0.073652	0.152818	-0.0592618	0.106808	-0.357588	0.153509	-0.235527	0.149307	-0.361601	0.251797	-0.176795	-0.0695337	
1.05376	3.44696	0	0	5.99518	-4.94783	0.024742	-0.299345	-0.280878	0.100677	-0.062354	-0.003352	-0.370638	-0.180797	-0.296905	0.075243	-0.292877	0.061983	-0.353388	0.10691	-0.178666	-0.013748	-0.137462	-8.8E-05	-0.079778	0.161996	-0.057543	0.123608	-0.360644	0.162146	-0.22219	0.140592	-0.363387	0.256844	-0.171872	-0.067657	
1.05178	3.44543	0	0	6.1371	-3.8343	0.0361015	-0.309196	-0.285716	0.0939495	-0.0573012	-0.00996575	-0.37837	-0.1883	-0.298813	0.0806343	-0.298639	0.056758	-0.351631	0.101945	-0.184403	-0.0242512	-0.136544	-0.00268225	-0.0840865	0.157913	-0.057812	0.113536	-0.363252	0.160529	-0.221435	0.138459	-0.360709	0.249275	-0.173162	-0.0719077	
1.04986	3.44391	0	0	6.27903	-2.72077	0.047461	-0.319047	-0.290554	0.087222	-0.0522485	-0.0165795	-0.386101	-0.195804	-0.30072	0.0860255	-0.3044	0.051533	-0.349874	0.096979	-0.190139	-0.0347545	-0.135626	-0.0052765	-0.088395	0.153829	-0.058081	0.103465	-0.36586	0.158913	-0.220681	0.136327	-0.358031	0.241706	-0.174453	-0.0761585	
1.04814	3.4378	0	0	6.42096	-1.60725	0.0588205	-0.328897	-0.295392	0.0804945	-0.0471958	-0.0231932	-0.393833	-0.203307	-0.302628	0.0914168	-0.310161	0.046308	-0.348117	0.0920135	-0.195876	-0.0452577	-0.134708	-0.00787075	-0.0927035	0.149746	-0.05835	0.0933927	-0.368467	0.157296	-0.219926	0.134194	-0.355352	0.234136	-0.175743	-0.0804093	
1.04677	3.45001	0	0	6.56288	-0.493722	0.07018	-0.338748	-0.30023	0.073767	-0.042143	-0.029807	-0.401565	-0.21081	-0.304536	0.096808	-0.315923	0.041083	-0.34636	0.087048	-0.201613	-0.055761	-0.13379	-0.010465	-0.097012	0.145662	-0.058619	0.083321	-0.371075	0.155679	-0.219171	0.132061	-0.352674	0.226567	-0.177033	-0.08466	
1.0459	3.44696	0	0	8.64068	-1.57641	0.07018	-0.338748	-0.306882	0.0721867	-0.042143	-0.029807	-0.409598	-0.207651	-0.294637	0.102789	-0.320868	0.0443142	-0.34636	0.087048	-0.205708	-0.0530853	-0.131644	-0.00787825	-0.103132	0.154835	-0.0569035	0.100143	-0.370761	0.163779	-0.206568	0.125465	-0.358973	0.232622	-0.173671	-0.0783652	
1.0456	3.44543	0	0	10.7185	-2.6591	0.07018	-0.338748	-0.313533	0.0706065	-0.042143	-0.029807	-0.417631	-0.204492	-0.284737	0.10877	-0.325813	0.0475455	-0.34636	0.087048	-0.209803	-0.0504095	-0.129497	-0.0052915	-0.109253	0.164007	-0.055188	0.116966	-0.370447	0.171879	-0.193964	0.11887	-0.365272	0.238677	-0.170308	-0.0720705	
1.04575	3.44391	0	0	12.7963	-3.74179	0.07018	-0.338748	-0.320184	0.0690263	-0.042143	-0.029807	-0.425665	-0.201334	-0.274838	0.114751	-0.330759	0.0507768	-0.34636	0.087048	-0.213897	-0.0477337	-0.127351	-0.00270475	-0.115373	0.173179	-0.0534725	0.133788	-0.370134	0.179979	-0.181361	0.112274	-0.371572	0.244733	-0.166945	-0.0657757	
1.04622	3.43323	0	0	14.8741	-4.82447	0.07018	-0.338748	-0.326836	0.067446	-0.042143	-0.029807	-0.433698	-0.198175	-0.264939	0.120732	-0.335704	0.054008	-0.34636	0.087048	-0.217992	-0.045058	-0.125205	-0.000118	-0.121493	0.182352	-0.051757	0.15061	-0.36982	0.188079	-0.168758	0.105678	-0.377871	0.250788	-0.163583	-0.059481	
1.04684	3.43933	0	0	14.3655	-4.8303	0.0712973	-0.341905	-0.328796	0.0628058	-0.037851	-0.0342667	-0.441407	-0.205667	-0.267027	0.109647	-0.335482	0.0426428	-0.341095	0.0721678	-0.220447	-0.0558997	-0.125516	-0.007891	-0.121263	0.173582	-0.0508443	0.137192	-0.372427	0.186459	-0.175439	0.110044	-0.382382	0.251796	-0.161238	-0.06611	
1.04749	3.44696	0	0	13.857	-4.83612	0.0724145	-0.345062	-0.330757	0.0581655	-0.033559	-0.0387265	-0.449116	-0.213159	-0.269115	0.0985625	-0.33526	0.0312775	-0.33583	0.0572875	-0.222903	-0.0667415	-0.125828	-0.015664	-0.121034	0.164812	-0.0499315	0.123774	-0.375034	0.184839	-0.182121	0.11441	-0.386893	0.252804	-0.158892	-0.072739	
1.04802	3.43475	0	0	13.3484	-4.84195	0.0735317	-0.34822	-0.332717	0.0535252	-0.029267	-0.0431863	-0.456824	-0.22065	-0.271204	0.0874778	-0.335038	0.0199122	-0.330564	0.0424072	-0.225358	-0.0775833	-0.126139	-0.023437	-0.120805	0.156042	-0.0490187	0.110357	-0.37764	0.183219	-0.188802	0.118776	-0.391404	0.253813	-0.156547	-0.079368	
1.04827	3.43628	0	0	12.8399	-4.84777	0.074649	-0.351377	-0.334678	0.048885	-0.024975	-0.047646	-0.464533	-0.228142	-0.273292	0.076393	-0.334816	0.008547	-0.325299	0.027527	-0.227814	-0.088425	-0.12645	-0.03121	-0.120575	0.147272	-0.048106	0.096939	-0.380247	0.181599	-0.195484	0.123142	-0.395915	0.254821	-0.154201	-0.085997	
1.04811	3.4378	0	0	13.6543	-4.57226	0.0775397	-0.34841	-0.336785	0.0344967	-0.0289877	-0.0516418	-0.47288	-0.243519	-0.285275	0.0593918	-0.338506	-0.00248225	-0.332235	0.001646	-0.22945	-0.0838025	-0.130142	-0.046711	-0.125104	0.151955	-0.0516453	0.106941	-0.373502	0.180515	-0.188802	0.118776	-0.38689	0.252803	-0.145666	-0.0626437	
1.04741	3.4317	0	0	14.4687	-4.29674	0.0804305	-0.345444	-0.338893	0.0201085	-0.0330005	-0.0556375	-0.481227	-0.258896	-0.297257	0.0423905	-0.342197	-0.0135115	-0.339172	-0.024235	-0.231085	-0.07918	-0.133834	-0.062212	-0.129633	0.156637	-0.0551845	0.116944	-0.366757	0.179431	-0.182121	0.11441	-0.377865	0.250785	-0.137131	-0.0392905	
1.04623	3.43017	0	0	15.2832	-4.02122	0.0833212	-0.342477	-0.341001	0.00572025	-0.0370132	-0.0596333	-0.489573	-0.274272	-0.30924	0.0253892	-0.345887	-0.0245408	-0.346108	-0.050116	-0.23272	-0.0745575	-0.137526	-0.077713	-0.134162	0.16132	-0.0587237	0.126946	-0.360012	0.178347	-0.175439	0.110044	-0.36884	0.248767	-0.128596	-0.0159373	
1.04472	3.43323	0	0	16.0976	-3.7457	0.086212	-0.33951	-0.343108	-0.008668	-0.041026	-0.063629	-0.49792	-0.289649	-0.321223	0.008388	-0.349577	-0.03557	-0.353044	-0.075997	-0.234356	-0.069935	-0.141218	-0.093214	-0.138691	0.166003	-0.062263	0.136949	-0.353267	0.177263	-0.168758	0.105678	-0.359815	0.246749	-0.120061	0.007416	
1.04303	3.4378	0	0	17.5801	-3.053	0.0989105	-0.330786	-0.341297	-0.0137873	-0.050081	-0.0610185	-0.504652	-0.299794	-0.329397	-0.0192403	-0.351422	-0.0410745	-0.356514	-0.0964515	-0.237627	-0.0695747	-0.148885	-0.106071	-0.137105	0.161521	-0.0628018	0.116814	-0.354347	0.171324	-0.182116	0.114406	-0.355298	0.245738	-0.111471	0.00692075	
1.04129	3.43323	0	0	19.0626	-2.3603	0.111609	-0.322062	-0.339485	-0.0189065	-0.059136	-0.058408	-0.511384	-0.30994	-0.33757	-0.0468685	-0.353268	-0.046579	-0.359984	-0.116906	-0.240898	-0.0692145	-0.156551	-0.118928	-0.135519	0.157039	-0.0633405	0.0966785	-0.355426	0.165384	-0.195474	0.123135	-0.350781	0.244727	-0.10288	0.0064255	
1.03966	3.43628	0	0	20.5451	-1.6676	0.124307	-0.313338	-0.337674	-0.0240258	-0.068191	-0.0557975	-0.518116	-0.320085	-0.345744	-0.0744968	-0.355113	-0.0520835	-0.363453	-0.13736	-0.244169	-0.0688543	-0.164218	-0.131786	-0.133933	0.152556	-0.0638792	0.0765432	-0.356506	0.159445	-0.208832	0.131863	-0.346264	0.243715	-0.0942902	0.00593025	
1.03829	3.43323	0	0	22.0276	-0.9749	0.137006	-0.304614	-0.335863	-0.029145	-0.077246	-0.053187	-0.524848	-0.33023	-0.353918	-0.102125	-0.356958	-0.057588	-0.366923	-0.157815	-0.24744	-0.068494	-0.171884	-0.144643	-0.132347	0.148074	-0.064418	0.056408	-0.357586	0.153506	-0.22219	0.140592	-0.341747	0.242704	-0.0857	0.005435	
1.0373	3.43323	0	0	23.4621	-0.304752	0.145507	-0.317469	-0.3315	-0.0516407	-0.0882867	-0.052581	-0.531573	-0.340349	-0.360001	-0.118676	-0.360649	-0.068577	-0.3704	-0.1631	-0.245806	-0.0642295	-0.176764	-0.139471	-0.133933	0.152556	-0.0691293	0.0697225	-0.356822	0.151346	-0.212174	0.134047	-0.333597	0.243203	-0.0828337	0.005269	
1.03686	3.43017	0	0	24.8967	0.365396	0.154007	-0.330323	-0.327136	-0.0741365	-0.0993275	-0.051975	-0.538299	-0.350468	-0.366084	-0.135226	-0.364341	-0.079566	-0.373877	-0.168386	-0.244171	-0.059965	-0.181644	-0.134299	-0.135519	0.157039	-0.0738405	0.083037	-0.356058	0.149187	-0.202157	0.127502	-0.325447	0.243702	-0.0799675	0.005103	
1.03697	3.4317	0	0	26.3312	1.03554	0.162508	-0.343178	-0.322773	-0.0966323	-0.110368	-0.051369	-0.545024	-0.360586	-0.372166	-0.151777	-0.368032	-0.090555	-0.377355	-0.173671	-0.242536	-0.0557005	-0.186525	-0.129127	-0.137105	0.161521	-0.0785518	0.0963515	-0.355294	0.147028	-0.19214	0.120957	-0.317297	0.2442	-0.0771012	0.004937	
1.03752	3.42865	0	0	27.7657	1.70569	0.171009	-0.356033	-0.318409	-0.119128	-0.121409	-0.050763	-0.551749	-0.370705	-0.378249	-0.168328	-0.371723	-0.101544	-0.380832	-0.178956	-0.240902	-0.051436	-0.191405	-0.123955	-0.138691	0.166003	-0.083263	0.109666	-0.35453	0.144868	-0.182124	0.114412	-0.309147	0.244699	-0.074235	0.004771	
1.03838	3.42865	5	0	29.1697	2.45444	0.169889	-0.352869	-0.322182	-0.118624	-0.117131	-0.0552095	-0.549843	-0.376091	-0.376363	-0.173658	-0.36967	-0.107347	-0.368654	-0.183136	-0.240084	-0.0537487	-0.187121	-0.118817	-0.134955	0.163562	-0.0858862	0.10626	-0.354849	0.136781	-0.188048	0.116643	-0.309147	0.244699	-0.0755307	0.0004985	
1.03944	3.42865	0	0	30.5737	3.20318	0.16877	-0.349705	-0.325955	-0.11812	-0.112852	-0.059656	-0.547937	-0.381478	-0.374477	-0.178988	-0.367617	-0.11315	-0.356476	-0.187315	-0.239266	-0.0560615	-0.182837	-0.113679	-0.131219	0.16112	-0.0885095	0.102854	-0.355167	0.128694	-0.193972	0.118875	-0.309147	0.244699	-0.0768265	-0.003774	
1.04055	3.42712	0	0	31.9776	3.95193	0.167651	-0.346541	-0.329727	-0.117617	-0.108574	-0.0641025	-0.546031	-0.386864	-0.372591	-0.184318	-0.365563	-0.118953	-0.344299	-0.191495	-0.238447	-0.0583743	-0.178552	-0.108542	-0.127483	0.158679	-0.0911328	0.099448	-0.355486	0.120608	-0.199897	0.121107	-0.309147	0.244699	-0.0781223	-0.0080465	
1.04161	3.42255	0	0	33.3816	4.70068	0.166531	-0.343377	-0.3335	-0.117113	-0.104296	-0.068549	-0.544125	-0.39225	-0.370705	-0.189648	-0.36351	-0.124756	-0.332121	-0.195675	-0.237629	-0.060687	-0.174268	-0.103404	-0.123747	0.156238	-0.093756	0.096042	-0.355804	0.112521	-0.205821	0.123338	-0.309147	0.244699	-0.079418	-0.012319	
1.04248	3.42255	0	0	36.1474	1.43427	0.168102	-0.358985	-0.331861	-0.131898	-0.109812	-0.0682455	-0.54829	-0.39987	-0.374691	-0.195232	-0.367206	-0.135707	-0.325155	-0.200227	-0.241718	-0.058015	-0.172125	-0.100832	-0.127483	0.158679	-0.0972913	0.106033	-0.355041	0.110365	-0.199897	0.121107	-0.305515	0.246211	-0.079418	-0.012319	
1.04306	3.42255	0	0	38.9132	-1.83213	0.169672	-0.374594	-0.330222	-0.146682	-0.115328	-0.067942	-0.552455	-0.40749	-0.378676	-0.200816	-0.370902	-0.146658	-0.318188	-0.204779	-0.245806	-0.055343	-0.169982	-0.0982605	-0.131219	0.16112	-0.100827	0.116025	-0.354278	0.108208	-0.193972	0.118875	-0.301882	0.247724	-0.079418	-0.012319	
1.04323	3.42407	0	0	41.6791	-5.09853	0.171242	-0.390203	-0.328583	-0.161467	-0.120844	-0.0676385	-0.556621	-0.41511	-0.382662	-0.206399	-0.374598	-0.15761	-0.311221	-0.209331	-0.249895	-0.052671	-0.167838	-0.0956888	-0.134955	0.163562	-0.104362	0.126016	-0.353515	0.106051	-0.188048	0.116643	-0.29825	0.249236	-0.079418	-0.012319	
1.04301	3.42407	0	0	44.4449	-8.36493	0.172813	-0.405811	-0.326944	-0.176252	-0.12636	-0.067335	-0.560786	-0.42273	-0.386648	-0.211983	-0.378294	-0.168561	-0.304255	-0.213883	-0.253984	-0.049999	-0.165695	-0.093117	-0.138691	0.166003	-0.107897	0.136007	-0.352752	0.103895	-0.182124	0.114412	-0.294618	0.250748	-0.079418	-0.012319	
1.04241	3.42407	0	0	46.2522	-8.99139	0.171696	-0.402652	-0.328746	-0.171159	-0.120844	-0.0676385	-0.557276	-0.422957	-0.374901	-0.211471	-0.375421	-0.165986	-0.293785	-0.213163	-0.249895	-0.052671	-0.165381	-0.085371	-0.135748	0.165803	-0.112874	0.139259	-0.355361	0.102285	-0.181369	0.112279	-0.305455	0.25783	-0.083578	-0.0164205	
1.04145	3.42255	0	0	48.0594	-9.61785	0.170578	-0.399494	-0.330549	-0.166066	-0.115328	-0.067942	-0.553766	-0.423183	-0.363154	-0.210958	-0.372548	-0.163411	-0.283315	-0.212443	-0.245806	-0.055343	-0.165068	-0.077625	-0.132806	0.165604	-0.11785	0.142511	-0.357969	0.100676	-0.180615	0.110147	-0.316293	0.264911	-0.087738	-0.020522	
1.04015	3.4256	0	0	49.8667	-10.2443	0.16946	-0.396336	-0.332351	-0.160973	-0.109812	-0.0682455	-0.550256	-0.423409	-0.351407	-0.210446	-0.369674	-0.160835	-0.272844	-0.211723	-0.241718	-0.058015	-0.164754	-0.069879	-0.129863	0.165405	-0.122827	0.145763	-0.360578	0.0990658	-0.17986	0.108014	-0.32713	0.271992	-0.091898	-0.0246235	
1.03852	3.42255	0	0	51.674	-10.8708	0.168343	-0.393177	-0.334153	-0.15588	-0.104296	-0.068549	-0.546746	-0.423636	-0.33966	-0.209934	-0.366801	-0.15826	-0.262374	-0.211003	-0.237629	-0.060687	-0.16444	-0.062133	-0.12692	0.165205	-0.127804	0.149015	-0.363187	0.097456	-0.179105	0.105881	-0.337968	0.279074	-0.096058	-0.028725	
1.03657	3.42407	0	0	52.9504	-10.0404	0.167673	-0.402447	-0.329649	-0.168607	-0.106295	-0.0705435	-0.545503	-0.436841	-0.345537	-0.21019	-0.366603	-0.169516	-0.262374	-0.211003	-0.244169	-0.0599683	-0.162296	-0.0595548	-0.132804	0.165603	-0.128983	0.152348	-0.369163	0.0963922	-0.175764	0.103698	-0.33618	0.27402	-0.105426	-0.026011	
1.03433	3.42712	0	0	54.2268	-9.20993	0.167003	-0.411717	-0.325146	-0.181334	-0.108294	-0.072538	-0.544261	-0.450046	-0.351413	-0.210445	-0.366405	-0.180771	-0.262374	-0.211003	-0.250709	-0.0592495	-0.160152	-0.0569765	-0.138688	0.166001	-0.130163	0.155681	-0.375139	0.0953285	-0.172422	0.101515	-0.334392	0.268965	-0.114795	-0.023297	
1.03182	3.40118	0	0	55.5031	-8.37951	0.166334	-0.420987	-0.320642	-0.194061	-0.110293	-0.0745325	-0.543019	-0.463251	-0.357289	-0.210701	-0.366206	-0.192026	-0.262374	-0.211003	-0.257248	-0.0585307	-0.158008	-0.0543982	-0.144573	0.1664	-0.131342	0.159014	-0.381115	0.0942648	-0.169081	0.0993312	-0.332603	0.263911	-0.124163	-0.020583	
1.02914	3.42255	0	0	56.7795	-7.54909	0.165664	-0.430257	-0.316139	-0.206788	-0.112292	-0.076527	-0.541776	-0.476456	-0.363166	-0.210956	-0.366008	-0.203282	-0.262374	-0.211003	-0.263788	-0.057812	-0.155864	-0.05182	-0.150457	0.166798	-0.132521	0.162347	-0.387091	0.093201	-0.16574	0.097148	-0.330815	0.258857	-0.133531	-0.017869	
1.02644	3.42712	0	0	57.9667	-6.67703	0.163431	-0.423945	-0.31597	-0.197114	-0.100489	-0.0792875	-0.540165	-0.471315	-0.353294	-0.205113	-0.360256	-0.198141	-0.253628	-0.20536	-0.259701	-0.0604825	-0.151574	-0.0466582	-0.14378	0.164158	-0.133701	0.165681	-0.389696	0.0915925	-0.16574	0.097148	-0.334441	0.257343	-0.138464	-0.0197538	
1.02383	3.42407	0	0	59.1539	-5.80497	0.161197	-0.417634	-0.3158	-0.187441	-0.088686	-0.082048	-0.538555	-0.466174	-0.343422	-0.199271	-0.354505	-0.193	-0.244883	-0.199716	-0.255614	-0.063153	-0.147284	-0.0414965	-0.137102	0.161518	-0.134881	0.169015	-0.3923	0.089984	-0.16574	0.097148	-0.338068	0.25583	-0.143396	-0.0216385	
1.02147	3.4317	0	0	60.3411	-4.93291	0.158964	-0.411323	-0.31563	-0.177767	-0.076883	-0.0848085	-0.536944	-0.461032	-0.333551	-0.193428	-0.348753	-0.187859	-0.236138	-0.194073	-0.251527	-0.0658235	-0.142994	-0.0363347	-0.130424	0.158878	-0.13606	0.17235	-0.394904	0.0883755	-0.16574	0.097148	-0.341694	0.254316	-0.148329	-0.0235232	
1.01947	3.43323	0	0	61.5283	-4.06085	0.156731	-0.405011	-0.315461	-0.168094	-0.06508	-0.087569	-0.535333	-0.455891	-0.323679	-0.187585	-0.343001	-0.182718	-0.227392	-0.18843	-0.24744	-0.068494	-0.138704	-0.031173	-0.123747	0.156238	-0.13724	0.175684	-0.397509	0.086767	-0.16574	0.097148	-0.34532	0.252802	-0.153261	-0.025408	
1.01797	3.42865	0	0	62.7473	-3.26068	0.158964	-0.411323	-0.315461	-0.168094	-0.0643202	-0.0897165	-0.531533	-0.466631	-0.321792	-0.192918	-0.34383	-0.191076	-0.220397	-0.193001	-0.249892	-0.0704448	-0.139621	-0.028581	-0.12669	0.156438	-0.142214	0.178934	-0.395986	0.082463	-0.16574	0.097148	-0.349837	0.253812	-0.157406	-0.029504	
1.01711	3.42712	0	0	63.9664	-2.4605	0.161197	-0.417634	-0.315461	-0.168094	-0.0635605	-0.091864	-0.527732	-0.477372	-0.319905	-0.198251	-0.34466	-0.199433	-0.213402	-0.197572	-0.252343	-0.0723955	-0.140539	-0.025989	-0.129633	0.156637	-0.147188	0.182184	-0.394463	0.078159	-0.16574	0.097148	-0.354353	0.254823	-0.161552	-0.0336	
1.01699	3.4317	0	0	65.1854	-1.66032	0.163431	-0.423945	-0.315461	-0.168094	-0.0628008	-0.0940115	-0.523932	-0.488112	-0.318017	-0.203585	-0.345489	-0.20779	-0.206406	-0.202142	-0.254795	-0.0743463	-0.141456	-0.023397	-0.132576	0.156837	-0.152162	0.185434	-0.392941	0.073855	-0.16574	0.097148	-0.35887	0.255834	-0.165697	-0.037696	
1.01751	3.4317	0	0	66.4045	-0.860144	0.165664	-0.430257	-0.315461	-0.168094	-0.062041	-0.096159	-0.520132	-0.498852	-0.31613	-0.208918	-0.346318	-0.216148	-0.199411	-0.206713	-0.257247	-0.076297	-0.142373	-0.020805	-0.135519	0.157037	-0.157136	0.188684	-0.391418	0.069551	-0.16574	0.097148	-0.363387	0.256844	-0.169842	-0.041792	
1.01844	3.43628	0	0	67.6846	-0.134738	0.165216	-0.417827	-0.313326	-0.153805	-0.051737	-0.0946327	-0.515954	-0.49126	-0.300338	-0.202821	-0.340757	-0.199742	-0.19064	-0.201068	-0.253161	-0.0700817	-0.136245	-0.0208223	-0.126915	0.165212	-0.154523	0.192106	-0.389574	0.0733102	-0.16574	0.097148	-0.367901	0.257853	-0.178399	-0.0412995	
1.01956	3.42102	0	0	68.9648	0.590667	0.164768	-0.405397	-0.311191	-0.139515	-0.041433	-0.0931065	-0.511775	-0.483667	-0.284546	-0.196725	-0.335196	-0.183336	-0.181869	-0.195422	-0.249075	-0.0638665	-0.130116	-0.0208395	-0.118311	0.173387	-0.15191	0.195528	-0.38773	0.0770695	-0.16574	0.097148	-0.372415	0.258862	-0.186956	-0.040807	
1.02065	3.44238	0	0	70.245	1.31607	0.164319	-0.392968	-0.309057	-0.125225	-0.031129	-0.0915803	-0.507597	-0.476075	-0.268753	-0.190629	-0.329635	-0.16693	-0.173098	-0.189777	-0.244988	-0.0576513	-0.123988	-0.0208568	-0.109707	0.181562	-0.149296	0.19895	-0.385887	0.0808288	-0.16574	0.097148	-0.376929	0.259871	-0.195514	-0.0403145	
1.02147	3.43933	0	0	71.5252	2.04148	0.163871	-0.380538	-0.306922	-0.110936	-0.020825	-0.090054	-0.503418	-0.468482	-0.252961	-0.184532	-0.324074	-0.150524	-0.164327	-0.184132	-0.240902	-0.051436	-0.11786	-0.020874	-0.101103	0.189737	-0.146683	0.202372	-0.384043	0.084588	-0.16574	0.097148	-0.381443	0.26088	-0.204071	-0.039822	
1.02181	3.43628	0	0	71.6914	3.34699	0.158733	-0.377181	-0.309633	-0.103274	-0.020825	-0.090054	-0.503133	-0.478991	-0.259092	-0.201039	-0.318114	-0.156648	-0.167842	-0.189422	-0.241721	-0.0491225	-0.115425	-0.0364102	-0.101103	0.189737	-0.158306	0.19203	-0.381437	0.086196	-0.17576	0.103695	-0.38055	0.258357	-0.204071	-0.039822	
1.02145	3.43628	0	0	71.8576	4.65251	0.153595	-0.373824	-0.312345	-0.095611	-0.020825	-0.090054	-0.502848	-0.489501	-0.265223	-0.217546	-0.312154	-0.162772	-0.171356	-0.194711	-0.242539	-0.046809	-0.112989	-0.0519465	-0.101103	0.189737	-0.169929	0.181689	-0.378831	0.087804	-0.185781	0.110243	-0.379657	0.255834	-0.204071	-0.039822	
1.02016	3.43628	0	0	72.0238	5.95803	0.148458	-0.370467	-0.315056	-0.0879485	-0.020825	-0.090054	-0.502562	-0.50001	-0.271353	-0.234054	-0.306194	-0.168896	-0.174871	-0.200001	-0.243358	-0.0444955	-0.110553	-0.0674827	-0.101103	0.189737	-0.181552	0.171347	-0.376224	0.089412	-0.195801	0.116791	-0.378764	0.253311	-0.204071	-0.039822	
1.01803	3.4378	0	0	72.1899	7.26354	0.14332	-0.36711	-0.317767	-0.080286	-0.020825	-0.090054	-0.502277	-0.510519	-0.277484	-0.250561	-0.300234	-0.17502	-0.178386	-0.205291	-0.244176	-0.042182	-0.108118	-0.083019	-0.101103	0.189737	-0.193175	0.161005	-0.373618	0.09102	-0.205821	0.123338	-0.377871	0.250788	-0.204071	-0.039822	
1.0154	3.44086	0	0	73.0973	8.09495	0.152688	-0.348893	-0.316551	-0.0633777	-0.0188168	-0.0880597	-0.497143	-0.505616	-0.277484	-0.250561	-0.294663	-0.158569	-0.167859	-0.204583	-0.237633	-0.033995	-0.112099	-0.0804177	-0.093282	0.200181	-0.18821	0.157761	-0.372536	0.0969403	-0.209913	0.127652	-0.379657	0.255835	-0.202002	-0.0377748	
1.0126	3.43323	0	0	74.0047	8.92636	0.162056	-0.330676	-0.315335	-0.0464695	-0.0168085	-0.0860655	-0.492009	-0.500714	-0.277484	-0.250561	-0.289092	-0.142117	-0.157332	-0.203875	-0.231091	-0.025808	-0.11608	-0.0778165	-0.085461	0.210626	-0.183245	0.154517	-0.371453	0.10286	-0.214006	0.131965	-0.381443	0.260882	-0.199933	-0.0357275	
1.00998	3.43628	0	0	74.9121	9.75777	0.171424	-0.31246	-0.314119	-0.0295612	-0.0148002	-0.0840713	-0.486876	-0.495811	-0.277484	-0.250561	-0.28352	-0.125666	-0.146805	-0.203167	-0.224548	-0.017621	-0.12006	-0.0752152	-0.07764	0.221071	-0.178279	0.151272	-0.370371	0.108781	-0.218098	0.136278	-0.383229	0.265929	-0.197865	-0.0336803	
1.00786	3.4378	0	0	75.8195	10.5892	0.180792	-0.294243	-0.312903	-0.012653	-0.012792	-0.082077	-0.481742	-0.490909	-0.277484	-0.250561	-0.277949	-0.109214	-0.136278	-0.202459	-0.218005	-0.009434	-0.124041	-0.072614	-0.069819	0.231515	-0.173314	0.148028	-0.369289	0.114701	-0.22219	0.140592	-0.385015	0.270976	-0.195796	-0.031633	
1.00658	3.44238	0	0	76.9419	11.2656	0.183697	-0.291263	-0.314717	-0.00752775	-0.012031	-0.0842277	-0.479841	-0.496281	-0.267817	-0.260973	-0.275062	-0.106627	-0.132755	-0.197166	-0.218005	-0.009434	-0.119145	-0.0778035	-0.067663	0.233568	-0.177358	0.137887	-0.370052	0.116857	-0.224772	0.140639	-0.388632	0.26946	-0.201496	-0.0313073	
1.0065	3.44543	0	0	78.0642	11.9421	0.186603	-0.288284	-0.31653	-0.0024025	-0.01127	-0.0863785	-0.47794	-0.501652	-0.25815	-0.271386	-0.272176	-0.104041	-0.129233	-0.191873	-0.218005	-0.009434	-0.114248	-0.082993	-0.065507	0.235621	-0.181402	0.127746	-0.370815	0.119013	-0.227353	0.140686	-0.39225	0.267944	-0.207197	-0.0309815	
1.00792	3.44391	0	0	79.1865	12.6186	0.189508	-0.285304	-0.318344	0.00272275	-0.010509	-0.0885293	-0.47604	-0.507024	-0.248482	-0.281798	-0.26929	-0.101454	-0.125711	-0.186579	-0.218005	-0.009434	-0.109352	-0.0881825	-0.063351	0.237673	-0.185447	0.117606	-0.371578	0.12117	-0.229934	0.140734	-0.395867	0.266427	-0.212897	-0.0306557	
1.01084	3.44543	0	0	80.3088	13.295	0.192413	-0.282324	-0.320157	0.007848	-0.009748	-0.09068	-0.474139	-0.512396	-0.238815	-0.29221	-0.266403	-0.098867	-0.122188	-0.181286	-0.218005	-0.009434	-0.104455	-0.093372	-0.061195	0.239726	-0.189491	0.107465	-0.372341	0.123326	-0.232516	0.140781	-0.399485	0.264911	-0.218598	-0.03033	
1.01489	3.44696	0	0	81.3858	13.9551	0.184542	-0.260081	-0.318957	0.0248225	-0.0009445	-0.08485	-0.470901	-0.502115	-0.228642	-0.270138	-0.259798	-0.0852622	-0.113386	-0.17563	-0.209812	-0.005872	-0.104137	-0.085617	-0.0555197	0.248147	-0.184269	0.114278	-0.36375	0.126007	-0.229934	0.140734	-0.395867	0.266427	-0.226357	-0.0320527	
1.01971	3.45001	0	0	82.4628	14.6151	0.176672	-0.237838	-0.317756	0.041797	0.007859	-0.07902	-0.467663	-0.491833	-0.21847	-0.248067	-0.253194	-0.0716575	-0.104583	-0.169973	-0.20162	-0.00231	-0.10382	-0.077862	-0.0498445	0.256568	-0.179047	0.121091	-0.355159	0.128689	-0.227353	0.140686	-0.39225	0.267944	-0.234117	-0.0337755	
1.02493	3.45306	0	0	83.5397	15.2751	0.168801	-0.215594	-0.316556	0.0587715	0.0166625	-0.07319	-0.464425	-0.481552	-0.208297	-0.225995	-0.246589	-0.0580528	-0.0957805	-0.164317	-0.193427	0.001252	-0.103502	-0.070107	-0.0441693	0.264988	-0.173826	0.127903	-0.346568	0.131371	-0.224772	0.140639	-0.388632	0.26946	-0.241876	-0.0354982	
1.03018	3.45459	0	0	84.6167	15.9352	0.160931	-0.193351	-0.315356	0.075746	0.025466	-0.06736	-0.461187	-0.471271	-0.198125	-0.203923	-0.239984	-0.044448	-0.086978	-0.158661	-0.185234	0.004814	-0.103184	-0.062352	-0.038494	0.273409	-0.168604	0.134716	-0.337977	0.134052	-0.22219	0.140592	-0.385015	0.270976	-0.249635	-0.037221	
1.03509	3.46069	0	0	85.5719	16.4833	0.160931	-0.193351	-0.317175	0.0808875	0.025466	-0.06736	-0.458333	-0.479337	-0.204037	-0.20417	-0.233995	-0.0506038	-0.090506	-0.163963	-0.188514	0.005173	-0.105651	-0.07268	-0.035303	0.264391	-0.17265	0.124581	-0.338741	0.136212	-0.224772	0.140639	-0.389525	0.271983	-0.257383	-0.0389437	
1.0393	3.46527	0	0	86.527	17.0314	0.160931	-0.193351	-0.318995	0.086029	0.025466	-0.06736	-0.455479	-0.487403	-0.20995	-0.204417	-0.228007	-0.0567595	-0.094034	-0.169266	-0.191793	0.005532	-0.108119	-0.083008	-0.032112	0.255372	-0.176697	0.114447	-0.339505	0.138371	-0.227353	0.140686	-0.394035	0.272989	-0.265132	-0.0406665	
1.04244	3.46374	0	0	87.4821	17.5794	0.160931	-0.193351	-0.320814	0.0911705	0.025466	-0.06736	-0.452624	-0.49547	-0.215862	-0.204663	-0.222018	-0.0629152	-0.097562	-0.174568	-0.195073	0.005891	-0.110587	-0.093336	-0.028921	0.246354	-0.180743	0.104313	-0.340269	0.140531	-0.229934	0.140734	-0.398546	0.273996	-0.272881	-0.0423892	
1.04427	3.46832	0	0	88.4373	18.1275	0.160931	-0.193351	-0.322633	0.096312	0.025466	-0.06736	-0.44977	-0.503536	-0.221774	-0.20491	-0.216029	-0.069071	-0.10109	-0.17987	-0.198352	0.00625	-0.113054	-0.103664	-0.02573	0.237335	-0.184789	0.094178	-0.341033	0.14269	-0.232516	0.140781	-0.403056	0.275003	-0.280629	-0.044112	
1.04491	3.4729	0	0	89.1893	18.8733	0.16045	-0.180796	-0.323406	0.108689	0.0272023	-0.0568928	-0.444623	-0.49863	-0.207811	-0.193459	-0.216234	-0.0577167	-0.0958108	-0.179517	-0.193435	0.0101755	-0.11397	-0.101077	-0.021408	0.241444	-0.179566	0.100986	-0.334279	0.141599	-0.22918	0.138601	-0.39676	0.268949	-0.28113	-0.0505642	
1.04454	3.47595	0	0	89.9413	19.6191	0.15997	-0.168242	-0.324179	0.121065	0.0289385	-0.0464255	-0.439476	-0.493723	-0.193848	-0.182008	-0.216439	-0.0463625	-0.0905315	-0.179164	-0.188517	0.014101	-0.114885	-0.0984905	-0.017086	0.245553	-0.174343	0.107794	-0.327526	0.140507	-0.225844	0.136421	-0.390464	0.262896	-0.281631	-0.0570165	
1.04332	3.48053	0	0	90.6934	20.3649	0.15949	-0.155688	-0.324952	0.133442	0.0306748	-0.0359582	-0.43433	-0.488816	-0.179884	-0.170557	-0.216643	-0.0350082	-0.0852523	-0.17881	-0.183599	0.0180265	-0.115801	-0.0959037	-0.012764	0.249663	-0.169119	0.114601	-0.320772	0.139415	-0.222507	0.134241	-0.384167	0.256842	-0.282131	-0.0634687	
1.04141	3.48511	0	0	91.4454	21.1107	0.159009	-0.143133	-0.325725	0.145819	0.032411	-0.025491	-0.429183	-0.48391	-0.165921	-0.159106	-0.216848	-0.023654	-0.079973	-0.178457	-0.178682	0.021952	-0.116716	-0.093317	-0.008442	0.253772	-0.163896	0.121409	-0.314018	0.138324	-0.219171	0.132061	-0.377871	0.250788	-0.282632	-0.069921	
1.039	3.48511	0	0	92.1792	21.8221	0.152087	-0.145957	-0.325725	0.145819	0.0339375	-0.0298052	-0.430806	-0.489053	-0.167819	-0.153744	-0.213749	-0.0324138	-0.083503	-0.183754	-0.178678	0.013027	-0.117035	-0.101059	-0.0103728	0.242905	-0.169119	0.114601	-0.315868	0.134551	-0.225842	0.13642	-0.384214	0.245242	-0.293704	-0.0779152	
1.03623	3.48816	0	0	92.9129	22.5334	0.145165	-0.148781	-0.325725	0.145819	0.035464	-0.0341195	-0.432428	-0.494196	-0.169716	-0.148382	-0.210649	-0.0411735	-0.087033	-0.189051	-0.178674	0.004102	-0.117355	-0.108802	-0.0123035	0.232038	-0.174343	0.107794	-0.317717	0.130777	-0.232513	0.140779	-0.390558	0.239697	-0.304777	-0.0859095	
1.03329	3.49121	0	0	93.6467	23.2448	0.138243	-0.151605	-0.325725	0.145819	0.0369905	-0.0384338	-0.434051	-0.499338	-0.171614	-0.14302	-0.207549	-0.0499332	-0.090563	-0.194347	-0.17867	-0.004823	-0.117674	-0.116544	-0.0142342	0.22117	-0.179566	0.100986	-0.319566	0.127004	-0.239185	0.145138	-0.396901	0.234151	-0.315849	-0.0939038	
1.03032	3.49426	0	0	94.3805	23.9562	0.131321	-0.154429	-0.325725	0.145819	0.038517	-0.042748	-0.435674	-0.504481	-0.173511	-0.137658	-0.20445	-0.058693	-0.094093	-0.199644	-0.178666	-0.013748	-0.117993	-0.124287	-0.016165	0.210303	-0.184789	0.094178	-0.321416	0.123231	-0.245856	0.149497	-0.403244	0.228605	-0.326921	-0.101898	
1.02743	3.49731	0	0	95.3691	24.4383	0.131321	-0.154429	-0.32846	0.15355	0.0390033	-0.0364305	-0.433099	-0.502029	-0.165454	-0.126408	-0.20445	-0.058693	-0.0993685	-0.199995	-0.178666	-0.013748	-0.120142	-0.126855	-0.01002	0.201096	-0.174598	0.0977395	-0.323265	0.119461	-0.23994	0.147271	-0.405077	0.22206	-0.332311	-0.110198	
1.02469	3.50036	0	0	96.3577	24.9203	0.131321	-0.154429	-0.331196	0.161281	0.0394895	-0.030113	-0.430524	-0.499576	-0.157397	-0.115158	-0.20445	-0.058693	-0.104644	-0.200347	-0.178666	-0.013748	-0.12229	-0.129423	-0.003875	0.191889	-0.164406	0.101301	-0.325114	0.115691	-0.234023	0.145044	-0.40691	0.215515	-0.337701	-0.118498	
1.02219	3.50494	0	0	97.3463	25.4024	0.131321	-0.154429	-0.333931	0.169012	0.0399757	-0.0237955	-0.42795	-0.497124	-0.149341	-0.103909	-0.20445	-0.058693	-0.10992	-0.200699	-0.178666	-0.013748	-0.124439	-0.131991	0.00227	0.182682	-0.154215	0.104862	-0.326963	0.111921	-0.228106	0.142818	-0.408743	0.20897	-0.34309	-0.126797	
1.02	3.50952	0	0	98.335	25.8845	0.131321	-0.154429	-0.336667	0.176743	0.040462	-0.017478	-0.425375	-0.494672	-0.141284	-0.092659	-0.20445	-0.058693	-0.115195	-0.20105	-0.178666	-0.013748	-0.126588	-0.134559	0.008415	0.173475	-0.144023	0.108424	-0.328812	0.108151	-0.22219	0.140592	-0.410576	0.202425	-0.34848	-0.135097	
1.0182	3.50647	0	0	98.9316	26.4819	0.118627	-0.163247	-0.337711	0.169501	0.0356737	-0.0193265	-0.428622	-0.504947	-0.145313	-0.098288	-0.207145	-0.0726197	-0.122242	-0.211619	-0.178668	-0.0315565	-0.128146	-0.147425	0.00214775	0.158568	-0.148344	0.0882722	-0.340013	0.103868	-0.235527	0.149307	-0.418742	0.190372	-0.355143	-0.147596	
1.01687	3.50799	0	0	99.5282	27.0792	0.105933	-0.172066	-0.338755	0.16226	0.0308855	-0.021175	-0.43187	-0.515222	-0.149343	-0.103917	-0.209841	-0.0865465	-0.129289	-0.222187	-0.178671	-0.049365	-0.129705	-0.160291	-0.0041195	0.143661	-0.152666	0.0681205	-0.351215	0.0995855	-0.248864	0.158021	-0.426909	0.178318	-0.361807	-0.160095	
1.01609	3.50799	0	0	100.125	27.6766	0.0932398	-0.180884	-0.339799	0.155019	0.0260973	-0.0230235	-0.435117	-0.525497	-0.153372	-0.109546	-0.212537	-0.100473	-0.136335	-0.232756	-0.178673	-0.0671735	-0.131263	-0.173157	-0.0103867	0.128755	-0.156987	0.0479687	-0.362417	0.0953028	-0.262201	0.166736	-0.435075	0.166265	-0.36847	-0.172593	
1.01592	3.50952	0	0	100.722	28.274	0.080546	-0.189702	-0.340843	0.147777	0.021309	-0.024872	-0.438364	-0.535772	-0.157402	-0.115175	-0.215232	-0.1144	-0.143382	-0.243324	-0.178675	-0.084982	-0.132821	-0.186023	-0.016654	0.113848	-0.161308	0.027817	-0.373618	0.09102	-0.275538	0.175451	-0.443241	0.154212	-0.375133	-0.185092	
1.01632	3.50799	0	0	101.121	28.8393	0.0714033	-0.186169	-0.34462	0.148266	0.0205458	-0.0227145	-0.437414	-0.538457	-0.159085	-0.0934015	-0.218126	-0.116985	-0.155646	-0.239099	-0.180317	-0.0892432	-0.132821	-0.186023	-0.0217697	0.112018	-0.149933	0.0280343	-0.377307	0.0835017	-0.278114	0.175495	-0.442413	0.140177	-0.375637	-0.191493	
1.0172	3.51562	0	0	101.521	29.4046	0.0622605	-0.182636	-0.348398	0.148755	0.0197825	-0.020557	-0.436464	-0.541141	-0.160768	-0.071628	-0.22102	-0.11957	-0.16791	-0.234873	-0.181958	-0.0935045	-0.132821	-0.186023	-0.0268855	0.110187	-0.138559	0.0282515	-0.380996	0.0759835	-0.280691	0.175538	-0.441585	0.126141	-0.37614	-0.197893	
1.01844	3.51562	0	0	101.92	29.97	0.0531178	-0.179103	-0.352175	0.149243	0.0190193	-0.0183995	-0.435514	-0.543826	-0.162451	-0.0498545	-0.223914	-0.122155	-0.180174	-0.230648	-0.1836	-0.0977658	-0.132821	-0.186023	-0.0320012	0.108356	-0.127184	0.0284688	-0.384684	0.0684653	-0.283268	0.175582	-0.440757	0.112106	-0.376644	-0.204293	
1.01997	3.51562	0	0	102.32	30.5353	0.043975	-0.17557	-0.355952	0.149732	0.018256	-0.016242	-0.434564	-0.54651	-0.164134	-0.028081	-0.226808	-0.12474	-0.192438	-0.226422	-0.185242	-0.102027	-0.132821	-0.186023	-0.037117	0.106526	-0.115809	0.028686	-0.388373	0.060947	-0.285844	0.175626	-0.439929	0.098071	-0.377148	-0.210694	
1.02168	3.51257	0	0	102.091	31.1812	0.0404537	-0.187898	-0.360769	0.142991	0.0127095	-0.0159348	-0.437814	-0.556757	-0.168157	-0.0337295	-0.234453	-0.135387	-0.201198	-0.23205	-0.187719	-0.121703	-0.133147	-0.193732	-0.0396347	0.0892358	-0.115192	0.0053585	-0.404422	0.061519	-0.30248	0.186496	-0.447206	0.0835943	-0.382529	-0.218938	
1.02347	3.5141	0	0	101.862	31.8271	0.0369325	-0.200226	-0.365587	0.13625	0.007163	-0.0156275	-0.441064	-0.567005	-0.172179	-0.039378	-0.242097	-0.146034	-0.209958	-0.237677	-0.190197	-0.141379	-0.133472	-0.20144	-0.0421525	0.0719455	-0.114574	-0.017969	-0.420471	0.062091	-0.319116	0.197367	-0.454484	0.0691175	-0.387911	-0.227183	
1.02526	3.51562	0	0	101.634	32.4729	0.0334113	-0.212554	-0.370405	0.129509	0.0016165	-0.0153203	-0.444314	-0.577252	-0.176202	-0.0450265	-0.249742	-0.15668	-0.218717	-0.243304	-0.192674	-0.161055	-0.133798	-0.209148	-0.0446703	0.0546552	-0.113956	-0.0412965	-0.436519	0.062663	-0.335752	0.208237	-0.461761	0.0546408	-0.393292	-0.235428	
1.02694	3.51868	0	0	101.405	33.1188	0.02989	-0.224882	-0.375222	0.122768	-0.00393	-0.015013	-0.447564	-0.587499	-0.180225	-0.050675	-0.257387	-0.167327	-0.227477	-0.248932	-0.195152	-0.180731	-0.134124	-0.216857	-0.047188	0.037365	-0.113339	-0.064624	-0.452568	0.063235	-0.352388	0.219107	-0.469038	0.040164	-0.398674	-0.243672	
1.02845	3.5141	0	0	101.243	33.5769	0.0230093	-0.227689	-0.381853	0.121174	-0.0059385	-0.0170157	-0.452981	-0.5819	-0.184034	-0.0399087	-0.259249	-0.172803	-0.234461	-0.244369	-0.198426	-0.180364	-0.133798	-0.209148	-0.047188	0.037365	-0.109263	-0.0545612	-0.457761	0.060026	-0.355711	0.221278	-0.469109	0.0286968	-0.39585	-0.243838	
1.02979	3.5141	0	0	101.081	34.035	0.0161285	-0.230495	-0.388484	0.119581	-0.007947	-0.0190185	-0.458397	-0.5763	-0.187844	-0.0291425	-0.261111	-0.17828	-0.241445	-0.239806	-0.201699	-0.179996	-0.133472	-0.20144	-0.047188	0.037365	-0.105187	-0.0444985	-0.462953	0.056817	-0.359034	0.22345	-0.469179	0.0172295	-0.393026	-0.244005	
1.03093	3.51868	0	0	100.919	34.493	0.00924775	-0.233301	-0.395115	0.117987	-0.0099555	-0.0210212	-0.463813	-0.5707	-0.191654	-0.0183762	-0.262972	-0.183756	-0.248428	-0.235242	-0.204973	-0.179628	-0.133147	-0.193732	-0.047188	0.037365	-0.101111	-0.0344358	-0.468145	0.053608	-0.362358	0.225622	-0.46925	0.00576225	-0.390202	-0.244171	
1.03184	3.51562	0	0	100.757	34.9511	0.002367	-0.236108	-0.401746	0.116393	-0.011964	-0.023024	-0.46923	-0.565101	-0.195463	-0.00761	-0.264834	-0.189232	-0.255412	-0.230679	-0.208247	-0.179261	-0.132821	-0.186023	-0.047188	0.037365	-0.097035	-0.024373	-0.473338	0.050399	-0.365681	0.227793	-0.469321	-0.005705	-0.387378	-0.244337	
1.03252	3.52173	0	0	100.63	35.3108	-0.00737925	-0.241894	-0.40188	0.106615	-0.0167407	-0.0248725	-0.472475	-0.575333	-0.197576	-0.0186413	-0.267534	-0.203059	-0.257174	-0.240861	-0.211547	-0.196562	-0.134058	-0.191157	-0.0491348	0.0266145	-0.098771	-0.0410488	-0.482634	0.049878	-0.382278	0.238638	-0.473879	-0.0161347	-0.385061	-0.250887	
1.03294	3.51715	0	0	100.503	35.6705	-0.0171255	-0.247679	-0.402015	0.096837	-0.0215175	-0.026721	-0.475719	-0.585565	-0.199688	-0.0296725	-0.270235	-0.216887	-0.258936	-0.251042	-0.214846	-0.213863	-0.135294	-0.19629	-0.0510815	0.015864	-0.100507	-0.0577245	-0.49193	0.049357	-0.398875	0.249483	-0.478437	-0.0265645	-0.382743	-0.257437	
1.03308	3.51868	0	0	100.375	36.0301	-0.0268717	-0.253465	-0.402149	0.087059	-0.0262942	-0.0285695	-0.478964	-0.595798	-0.2018	-0.0407038	-0.272935	-0.230714	-0.260698	-0.261223	-0.218146	-0.231165	-0.136531	-0.201424	-0.0530282	0.0051135	-0.102243	-0.0744003	-0.501226	0.048836	-0.415473	0.260328	-0.482995	-0.0369942	-0.380425	-0.263986	
1.03292	3.51868	0	0	100.248	36.3898	-0.036618	-0.259251	-0.402284	0.077281	-0.031071	-0.030418	-0.482209	-0.60603	-0.203913	-0.051735	-0.275635	-0.244541	-0.26246	-0.271405	-0.221446	-0.248466	-0.137768	-0.206558	-0.054975	-0.005637	-0.103979	-0.091076	-0.510522	0.048315	-0.43207	0.271173	-0.487553	-0.047424	-0.378108	-0.270536	
1.03247	3.5202	0	0	100.115	36.7646	-0.034383	-0.265567	-0.405142	0.0752063	-0.031071	-0.030418	-0.48667	-0.603115	-0.205816	-0.0463568	-0.284476	-0.240988	-0.26246	-0.271405	-0.223902	-0.250393	-0.137443	-0.198846	-0.0543965	0.0008525	-0.0998988	-0.0810253	-0.509764	0.0461715	-0.428753	0.269006	-0.485792	-0.0524005	-0.375547	-0.262135	
1.03178	3.52325	0	0	99.9828	37.1393	-0.032148	-0.271883	-0.408001	0.0731315	-0.031071	-0.030418	-0.491131	-0.600199	-0.207719	-0.0409785	-0.293317	-0.237436	-0.26246	-0.271405	-0.226357	-0.25232	-0.137119	-0.191135	-0.053818	0.007342	-0.0958185	-0.0709745	-0.509005	0.044028	-0.425436	0.266838	-0.484031	-0.057377	-0.372986	-0.253734	
1.03092	3.51868	0	0	99.8502	37.5141	-0.029913	-0.278199	-0.410859	0.0710568	-0.031071	-0.030418	-0.495593	-0.597284	-0.209622	-0.0356002	-0.302158	-0.233884	-0.26246	-0.271405	-0.228813	-0.254247	-0.136795	-0.183424	-0.0532395	0.0138315	-0.0917382	-0.0609237	-0.508247	0.0418845	-0.422119	0.264671	-0.48227	-0.0623535	-0.370426	-0.245332	
1.02993	3.52173	0	0	99.7176	37.8889	-0.027678	-0.284515	-0.413718	0.068982	-0.031071	-0.030418	-0.500054	-0.594369	-0.211525	-0.030222	-0.310999	-0.230331	-0.26246	-0.271405	-0.231269	-0.256174	-0.13647	-0.175712	-0.052661	0.020321	-0.087658	-0.050873	-0.507488	0.039741	-0.418802	0.262504	-0.480509	-0.06733	-0.367865	-0.236931	
1.02888	3.52325	0	0	99.5791	38.28	-0.0356563	-0.284154	-0.414762	0.0617865	-0.0323153	-0.0345712	-0.498838	-0.607494	-0.213637	-0.0412387	-0.314717	-0.241233	-0.271192	-0.277014	-0.232932	-0.269197	-0.130673	-0.183463	-0.0495002	0.0113882	-0.0882317	-0.0708338	-0.510078	0.038139	-0.434619	0.2712	-0.484108	-0.068802	-0.36349	-0.24147	
1.02782	3.5263	0	0	99.4407	38.6712	-0.0436345	-0.283793	-0.415806	0.054591	-0.0335595	-0.0387245	-0.497622	-0.620618	-0.21575	-0.0522555	-0.318434	-0.252136	-0.279923	-0.282622	-0.234594	-0.282219	-0.124876	-0.191214	-0.0463395	0.0024555	-0.0888055	-0.0907945	-0.512668	0.036537	-0.450436	0.279896	-0.487708	-0.070274	-0.359116	-0.246008	
1.02682	3.52478	0	0	99.3023	39.0624	-0.0516127	-0.283432	-0.416851	0.0473955	-0.0348037	-0.0428778	-0.496406	-0.633742	-0.217863	-0.0632723	-0.322152	-0.263039	-0.288654	-0.288231	-0.236257	-0.295241	-0.119078	-0.198965	-0.0431788	-0.00647725	-0.0893793	-0.110755	-0.515259	0.034935	-0.466253	0.288592	-0.491308	-0.071746	-0.354741	-0.250547	
1.02592	3.5263	0	0	99.1639	39.4536	-0.059591	-0.283071	-0.417895	0.0402	-0.036048	-0.047031	-0.49519	-0.646867	-0.219975	-0.074289	-0.325869	-0.273941	-0.297386	-0.29384	-0.23792	-0.308264	-0.113281	-0.206716	-0.040018	-0.01541	-0.089953	-0.130716	-0.517849	0.033333	-0.48207	0.297288	-0.494907	-0.073218	-0.350367	-0.255085	
1.02518	3.5263	0	0	99.0191	39.8627	-0.059591	-0.283071	-0.422563	0.04325	-0.0375718	-0.042725	-0.496135	-0.644196	-0.217863	-0.0632723	-0.324848	-0.276828	-0.304347	-0.289291	-0.23792	-0.308264	-0.113868	-0.196421	-0.0380677	-0.00466175	-0.0832367	-0.117314	-0.516776	0.0392223	-0.4762	0.295092	-0.487706	-0.0702735	-0.348577	-0.244485	
1.02461	3.5263	0	0	98.8744	40.2718	-0.059591	-0.283071	-0.427231	0.0463	-0.0390955	-0.038419	-0.497081	-0.641525	-0.21575	-0.0522555	-0.323826	-0.279715	-0.311308	-0.284743	-0.23792	-0.308264	-0.114454	-0.186126	-0.0361175	0.0060865	-0.0765205	-0.103912	-0.515702	0.0451115	-0.47033	0.292895	-0.480504	-0.067329	-0.346788	-0.233885	
1.02421	3.52783	0	0	98.7296	40.6809	-0.059591	-0.283071	-0.431899	0.04935	-0.0406192	-0.034113	-0.498026	-0.638854	-0.213637	-0.0412387	-0.322804	-0.282602	-0.318269	-0.280195	-0.23792	-0.308264	-0.11504	-0.175831	-0.0341673	0.0168348	-0.0698043	-0.0905108	-0.514629	0.0510008	-0.464459	0.290698	-0.473302	-0.0643845	-0.344998	-0.223285	
1.02398	3.53088	0	0	98.5849	41.09	-0.059591	-0.283071	-0.436567	0.0524	-0.042143	-0.029807	-0.498971	-0.636183	-0.211525	-0.030222	-0.321783	-0.285489	-0.32523	-0.275646	-0.23792	-0.308264	-0.115627	-0.165536	-0.032217	0.027583	-0.063088	-0.077109	-0.513556	0.05689	-0.458589	0.288502	-0.466101	-0.06144	-0.343208	-0.212685	
1.02394	3.53088	0	0	98.9028	41.1003	-0.0646922	-0.279738	-0.436567	0.0524	-0.041381	-0.0319603	-0.503159	-0.643708	-0.221448	-0.036135	-0.326522	-0.293478	-0.326987	-0.285794	-0.241207	-0.316679	-0.114714	-0.168116	-0.0343777	0.0255575	-0.0671763	-0.0871495	-0.509448	0.0542055	-0.465214	0.292831	-0.466101	-0.06144	-0.338054	-0.219418	
1.02408	3.53393	0	0	99.2207	41.1105	-0.0697935	-0.276404	-0.436567	0.0524	-0.040619	-0.0341135	-0.507347	-0.651232	-0.231372	-0.042048	-0.331262	-0.301468	-0.328744	-0.295941	-0.244495	-0.325094	-0.113801	-0.170696	-0.0365385	0.023532	-0.0712645	-0.09719	-0.505339	0.051521	-0.471839	0.29716	-0.466101	-0.06144	-0.332899	-0.226151	
1.02441	3.52936	0	0	99.5387	41.1207	-0.0748947	-0.273071	-0.436567	0.0524	-0.039857	-0.0362668	-0.511536	-0.658756	-0.241295	-0.047961	-0.336002	-0.309457	-0.3305	-0.306089	-0.247782	-0.333509	-0.112889	-0.173276	-0.0386993	0.0215065	-0.0753527	-0.107231	-0.501231	0.0488365	-0.478463	0.301488	-0.466101	-0.06144	-0.327744	-0.232883	
1.02493	3.53546	0	0	99.8566	41.131	-0.079996	-0.269738	-0.436567	0.0524	-0.039095	-0.03842	-0.515724	-0.666281	-0.251218	-0.053874	-0.340741	-0.317447	-0.332257	-0.316237	-0.251069	-0.341924	-0.111976	-0.175856	-0.04086	0.019481	-0.079441	-0.117271	-0.497122	0.046152	-0.485088	0.305817	-0.466101	-0.06144	-0.32259	-0.239616	
1.02566	3.53393	0	0	99.753	41.4238	-0.0811122	-0.266583	-0.437473	0.0549608	-0.0386138	-0.0321105	-0.52112	-0.660704	-0.256924	-0.0377487	-0.345658	-0.314234	-0.335746	-0.321477	-0.25757	-0.332396	-0.109825	-0.173294	-0.0418658	0.030455	-0.0738945	-0.100545	-0.492695	0.0515063	-0.468517	0.294989	-0.460654	-0.0535085	-0.322081	-0.233217	
1.02658	3.53088	0	0	99.6493	41.7166	-0.0822285	-0.263427	-0.438379	0.0575215	-0.0381325	-0.025801	-0.526516	-0.655128	-0.262629	-0.0216235	-0.350575	-0.311021	-0.339234	-0.326718	-0.264072	-0.322869	-0.107674	-0.170732	-0.0428715	0.041429	-0.068348	-0.0838185	-0.488267	0.0568605	-0.451945	0.284161	-0.455207	-0.045577	-0.321572	-0.226819	
1.0277	3.53699	0	0	99.5457	42.0095	-0.0833447	-0.260272	-0.439285	0.0600823	-0.0376512	-0.0194915	-0.531912	-0.649551	-0.268335	-0.00549825	-0.355491	-0.307809	-0.342722	-0.331959	-0.270573	-0.313341	-0.105523	-0.16817	-0.0438772	0.052403	-0.0628015	-0.0670923	-0.48384	0.0622147	-0.435374	0.273332	-0.44976	-0.0376455	-0.321063	-0.22042	
1.029	3.53699	0	0	99.4421	42.3023	-0.084461	-0.257117	-0.440191	0.062643	-0.03717	-0.013182	-0.537308	-0.643974	-0.274041	0.010627	-0.360408	-0.304596	-0.346211	-0.337199	-0.277074	-0.303814	-0.103372	-0.165608	-0.044883	0.063377	-0.057255	-0.050366	-0.479413	0.067569	-0.418802	0.262504	-0.444313	-0.029714	-0.320554	-0.214022	
1.0305	3.53393	0	0	99.389	42.4524	-0.085578	-0.253961	-0.442004	0.0677665	-0.0344013	-0.013334	-0.537983	-0.651733	-0.270236	-0.00012625	-0.362264	-0.310026	-0.353183	-0.347659	-0.273834	-0.312969	-0.108586	-0.168152	-0.047042	0.061347	-0.0598848	-0.053741	-0.475298	0.0648805	-0.418802	0.262504	-0.446078	-0.0247263	-0.320289	-0.222608	
1.03219	3.53699	0	0	99.3359	42.6025	-0.086695	-0.250804	-0.443817	0.07289	-0.0316325	-0.013486	-0.538659	-0.659492	-0.266431	-0.0108795	-0.364121	-0.315456	-0.360154	-0.358119	-0.270595	-0.322124	-0.113799	-0.170696	-0.049201	0.059317	-0.0625145	-0.057116	-0.471184	0.062192	-0.418802	0.262504	-0.447843	-0.0197385	-0.320024	-0.231194	
1.03407	3.53546	0	0	99.2828	42.7526	-0.087812	-0.247648	-0.44563	0.0780135	-0.0288638	-0.013638	-0.539335	-0.667251	-0.262626	-0.0216327	-0.365978	-0.320886	-0.367126	-0.368579	-0.267356	-0.331278	-0.119013	-0.173239	-0.05136	0.057287	-0.0651443	-0.060491	-0.46707	0.0595035	-0.418802	0.262504	-0.449608	-0.0147507	-0.319759	-0.23978	
1.03613	3.53851	0	0	99.2297	42.9027	-0.088929	-0.244492	-0.447443	0.083137	-0.026095	-0.01379	-0.54001	-0.67501	-0.258821	-0.032386	-0.367834	-0.326316	-0.374098	-0.379039	-0.264116	-0.340433	-0.124226	-0.175783	-0.053519	0.055257	-0.067774	-0.063866	-0.462955	0.056815	-0.418802	0.262504	-0.451373	-0.009763	-0.319494	-0.248366	
1.03836	3.53546	0	0	99.1757	43.0554	-0.0962617	-0.234845	-0.445496	0.087778	-0.0291475	-0.0051635	-0.546344	-0.666772	-0.258625	-0.0159705	-0.372745	-0.323107	-0.377581	-0.384259	-0.267356	-0.331278	-0.125138	-0.173204	-0.0529442	0.0617645	-0.0634062	-0.0437703	-0.462639	0.0648657	-0.402199	0.251655	-0.4513	0.00170625	-0.321042	-0.24399	
1.0407	3.53546	0	0	99.1216	43.208	-0.103595	-0.225198	-0.44355	0.092419	-0.0322	0.003463	-0.552678	-0.658535	-0.258429	0.000445	-0.377657	-0.319898	-0.381064	-0.389478	-0.270595	-0.322124	-0.126051	-0.170625	-0.0523695	0.068272	-0.0590385	-0.0236745	-0.462323	0.0729165	-0.385595	0.240806	-0.451228	0.0131755	-0.322591	-0.239615	
1.04303	3.53546	0	0	99.0676	43.3607	-0.110927	-0.215551	-0.441604	0.09706	-0.0352525	0.0120895	-0.559012	-0.650297	-0.258232	0.0168605	-0.382568	-0.316689	-0.384547	-0.394698	-0.273834	-0.312969	-0.126964	-0.168046	-0.0517948	0.0747795	-0.0546708	-0.00357875	-0.462007	0.0809672	-0.368991	0.229956	-0.451156	0.0246447	-0.324139	-0.23524	
1.04522	3.53546	0	0	99.0136	43.5133	-0.11826	-0.205904	-0.439657	0.101701	-0.038305	0.020716	-0.565346	-0.642059	-0.258036	0.033276	-0.387479	-0.31348	-0.38803	-0.399917	-0.277074	-0.303814	-0.127876	-0.165467	-0.05122	0.081287	-0.050303	0.016517	-0.461691	0.089018	-0.352388	0.219107	-0.451083	0.036114	-0.325687	-0.230864	
1.04715	3.53851	0	0	99.0136	43.5133	-0.119378	-0.202744	-0.441473	0.106832	-0.034772	0.0184075	-0.56346	-0.64739	-0.263941	0.0329953	-0.387479	-0.31348	-0.396711	-0.405472	-0.275454	-0.308392	-0.132172	-0.170588	-0.0525865	0.077017	-0.0467783	0.0065555	-0.456812	0.0841777	-0.352388	0.219107	-0.440327	0.029086	-0.329801	-0.234902	
1.04871	3.53851	0	0	99.0136	43.5133	-0.120496	-0.199585	-0.443288	0.111963	-0.031239	0.016099	-0.561573	-0.652722	-0.269847	0.0327145	-0.387479	-0.31348	-0.405392	-0.411027	-0.273833	-0.312971	-0.136468	-0.175709	-0.053953	0.072747	-0.0432535	-0.003406	-0.451933	0.0793375	-0.352388	0.219107	-0.429571	0.022058	-0.333915	-0.23894	
1.04976	3.53546	0	0	99.0136	43.5133	-0.121614	-0.196426	-0.445103	0.117095	-0.027706	0.0137905	-0.559686	-0.658054	-0.275753	0.0324337	-0.387479	-0.31348	-0.414074	-0.416583	-0.272213	-0.31755	-0.140764	-0.18083	-0.0553195	0.068477	-0.0397288	-0.0133675	-0.447055	0.0744973	-0.352388	0.219107	-0.418815	0.01503	-0.338029	-0.242978	
1.05019	3.53699	0	0	99.0136	43.5133	-0.122732	-0.193266	-0.446919	0.122226	-0.024173	0.011482	-0.5578	-0.663385	-0.281658	0.032153	-0.387479	-0.31348	-0.422755	-0.422138	-0.270593	-0.322128	-0.14506	-0.185951	-0.056686	0.064207	-0.036204	-0.023329	-0.442176	0.069657	-0.352388	0.219107	-0.408059	0.008002	-0.342143	-0.247016	
1.04987	3.53699	0	0	99.0136	43.5133	-0.12385	-0.190105	-0.448736	0.12736	-0.022166	0.013489	-0.559686	-0.658054	-0.281475	0.0486075	-0.389517	-0.30772	-0.427951	-0.422482	-0.273834	-0.312969	-0.142912	-0.183391	-0.059062	0.0709225	-0.0330125	0.00014675	-0.436976	0.0728705	-0.335752	0.208237	-0.411598	0.0180025	-0.344465	-0.240455	
1.04875	3.53393	0	0	99.0136	43.5133	-0.124969	-0.186945	-0.450553	0.132494	-0.020159	0.015496	-0.561573	-0.652722	-0.281293	0.065062	-0.391555	-0.30196	-0.433146	-0.422825	-0.277075	-0.303809	-0.140765	-0.180832	-0.061438	0.077638	-0.029821	0.0236225	-0.431776	0.076084	-0.319116	0.197367	-0.415137	0.028003	-0.346786	-0.233894	
1.04692	3.53851	0	0	99.0136	43.5133	-0.126087	-0.183784	-0.452369	0.137628	-0.018152	0.017503	-0.56346	-0.64739	-0.28111	0.0815165	-0.393593	-0.296201	-0.438341	-0.423169	-0.280317	-0.29465	-0.138618	-0.178272	-0.063814	0.0843535	-0.0266295	0.0470982	-0.426576	0.0792975	-0.30248	0.186496	-0.418675	0.0380035	-0.349108	-0.227333	
1.04449	3.53851	0	0	99.0136	43.5133	-0.127205	-0.180623	-0.454186	0.142762	-0.016145	0.01951	-0.565346	-0.642059	-0.280927	0.097971	-0.395631	-0.290441	-0.443537	-0.423513	-0.283558	-0.28549	-0.13647	-0.175712	-0.06619	0.091069	-0.023438	0.070574	-0.421376	0.082511	-0.285844	0.175626	-0.422214	0.048004	-0.35143	-0.220772	
1.04156	3.54004	0	0	99.0136	43.5133	-0.129443	-0.174298	-0.455095	0.14533	-0.0189155	0.019661	-0.568848	-0.641821	-0.286829	0.0976802	-0.395631	-0.290441	-0.448728	-0.423857	-0.286006	-0.287412	-0.138618	-0.178272	-0.0683467	0.089036	-0.0260698	0.067174	-0.420615	0.0803605	-0.292502	0.179977	-0.420444	0.0430025	-0.351938	-0.227165	
1.03824	3.53546	0	0	99.0136	43.5133	-0.131681	-0.167973	-0.456004	0.147898	-0.021686	0.019812	-0.57235	-0.641582	-0.292731	0.0973895	-0.395631	-0.290441	-0.453919	-0.424202	-0.288455	-0.289334	-0.140765	-0.180832	-0.0705035	0.087003	-0.0287015	0.063774	-0.419854	0.07821	-0.29916	0.184328	-0.418674	0.038001	-0.352445	-0.233558	
1.03465	3.54156	0	0	99.0136	43.5133	-0.133919	-0.161649	-0.456912	0.150466	-0.0244565	0.019963	-0.575851	-0.641344	-0.298634	0.0970988	-0.395631	-0.290441	-0.459109	-0.424546	-0.290903	-0.291255	-0.142912	-0.183391	-0.0726602	0.08497	-0.0313332	0.060374	-0.419093	0.0760595	-0.305819	0.188678	-0.416905	0.0329995	-0.352953	-0.23995	
1.03088	3.54004	0	0	99.0136	43.5133	-0.136157	-0.155324	-0.457821	0.153034	-0.027227	0.020114	-0.579353	-0.641105	-0.304536	0.096808	-0.395631	-0.290441	-0.4643	-0.424891	-0.293352	-0.293177	-0.14506	-0.185951	-0.074817	0.082937	-0.033965	0.056974	-0.418332	0.073909	-0.312477	0.193029	-0.415135	0.027998	-0.35346	-0.246343	
1.02706	3.54004	0	0	99.0136	43.5133	-0.140133	-0.155158	-0.459763	0.148382	-0.0299965	0.0202645	-0.585683	-0.632869	-0.310266	0.113001	-0.403599	-0.278587	-0.46602	-0.420031	-0.295784	-0.286305	-0.147796	-0.178218	-0.0742455	0.08945	-0.0296093	0.0771975	-0.419093	0.0760595	-0.295822	0.182146	-0.41602	0.0304985	-0.352953	-0.23995	
1.02329	3.53699	0	0	99.0136	43.5133	-0.144109	-0.154992	-0.461706	0.14373	-0.032766	0.020415	-0.592013	-0.624633	-0.315995	0.129194	-0.411567	-0.266733	-0.467739	-0.415171	-0.298215	-0.279432	-0.150533	-0.170484	-0.073674	0.095963	-0.0252535	0.097421	-0.419854	0.07821	-0.279166	0.171263	-0.416905	0.032999	-0.352445	-0.233558	
1.01969	3.53088	0	0	99.0136	43.5133	-0.148085	-0.154825	-0.463648	0.139078	-0.0355355	0.0205655	-0.598343	-0.616396	-0.321725	0.145388	-0.419534	-0.254879	-0.469459	-0.410311	-0.300647	-0.27256	-0.153269	-0.162751	-0.0731025	0.102476	-0.0208977	0.117644	-0.420615	0.0803605	-0.262511	0.16038	-0.417789	0.0354995	-0.351938	-0.227165	
1.0164	3.53546	0	0	99.0136	43.5133	-0.152061	-0.154659	-0.465591	0.134426	-0.038305	0.020716	-0.604673	-0.60816	-0.327455	0.161581	-0.427502	-0.243025	-0.471179	-0.405451	-0.303079	-0.265688	-0.156005	-0.155018	-0.072531	0.108989	-0.016542	0.137868	-0.421376	0.082511	-0.245856	0.149497	-0.418674	0.038	-0.35143	-0.220772	
1.01353	3.53851	0	0	99.0136	43.5133	-0.148085	-0.154825	-0.465591	0.134426	-0.041073	0.020866	-0.607227	-0.610592	-0.325544	0.15618	-0.427502	-0.243025	-0.471179	-0.405451	-0.303079	-0.265688	-0.152033	-0.157613	-0.0733237	0.11123	-0.0153603	0.134529	-0.428858	0.0857465	-0.252522	0.153853	-0.422284	0.0365147	-0.350656	-0.22296	
1.01123	3.54004	0	0	99.0136	43.5133	-0.144109	-0.154992	-0.465591	0.134426	-0.043841	0.021016	-0.60978	-0.613023	-0.323632	0.150779	-0.427502	-0.243025	-0.471179	-0.405451	-0.303079	-0.265688	-0.148062	-0.160208	-0.0741165	0.113471	-0.0141785	0.131189	-0.436339	0.088982	-0.259188	0.158209	-0.425895	0.0350295	-0.349882	-0.225147	
1.00961	3.53851	0	0	99.0136	43.5133	-0.140133	-0.155158	-0.465591	0.134426	-0.046609	0.021166	-0.612333	-0.615455	-0.321721	0.145378	-0.427502	-0.243025	-0.471179	-0.405451	-0.303079	-0.265688	-0.144091	-0.162803	-0.0749093	0.115711	-0.0129968	0.12785	-0.443821	0.0922175	-0.265854	0.162564	-0.429505	0.0335442	-0.349107	-0.227334	
1.0088	3.54004	0	0	99.0136	43.5133	-0.136157	-0.155324	-0.465591	0.134426	-0.049377	0.021316	-0.614887	-0.617887	-0.31981	0.139977	-0.427502	-0.243025	-0.471179	-0.405451	-0.303079	-0.265688	-0.140119	-0.165398	-0.075702	0.117952	-0.011815	0.124511	-0.451303	0.095453	-0.27252	0.16692	-0.433115	0.032059	-0.348333	-0.229522	
1.00894	3.54004	0	0	98.9586	43.6687	-0.132801	-0.164809	-0.465719	0.124652	-0.0533838	0.0173037	-0.618382	-0.617652	-0.327614	0.145076	-0.433428	-0.236935	-0.478084	-0.400939	-0.302254	-0.259176	-0.143771	-0.155077	-0.0796695	0.129164	-0.0112828	0.144727	-0.449466	0.099214	-0.263274	0.162518	-0.434	0.0345587	-0.348601	-0.220934	
1.0101	3.54156	0	0	98.9037	43.824	-0.129444	-0.174295	-0.465847	0.114878	-0.0573905	0.0132915	-0.621877	-0.617418	-0.335417	0.150175	-0.439354	-0.230846	-0.484989	-0.396427	-0.30143	-0.252663	-0.147423	-0.144755	-0.083637	0.140377	-0.0107505	0.164943	-0.447629	0.102975	-0.254027	0.158116	-0.434884	0.0370585	-0.348869	-0.212346	
1.01215	3.54004	0	0	98.8487	43.9793	-0.126088	-0.18378	-0.465976	0.105105	-0.0613973	0.00927925	-0.625372	-0.617183	-0.343221	0.155275	-0.44528	-0.224756	-0.491893	-0.391915	-0.300606	-0.246151	-0.151076	-0.134434	-0.0876045	0.151589	-0.0102182	0.185159	-0.445792	0.106736	-0.244781	0.153714	-0.435769	0.0395582	-0.349137	-0.203758	
1.01487	3.54004	0	0	98.7938	44.1346	-0.122732	-0.193266	-0.466104	0.095331	-0.065404	0.005267	-0.628867	-0.616949	-0.351025	0.160374	-0.451206	-0.218667	-0.498798	-0.387403	-0.299781	-0.239639	-0.154728	-0.124113	-0.091572	0.162801	-0.009686	0.205375	-0.443955	0.110497	-0.235535	0.149312	-0.436653	0.042058	-0.349405	-0.19517	
1.01805	3.54004	0	0	98.7938	44.1346	-0.124969	-0.186943	-0.466104	0.095331	-0.065404	0.005267	-0.627924	-0.619614	-0.349115	0.154976	-0.451206	-0.218667	-0.498798	-0.387403	-0.300593	-0.237345	-0.151668	-0.124127	-0.0894178	0.164844	-0.0034985	0.198758	-0.442433	0.106194	-0.23887	0.151491	-0.44026	0.040572	-0.347856	-0.199549	
1.02148	3.54156	0	0	98.7938	44.1346	-0.127207	-0.180621	-0.466104	0.095331	-0.065404	0.005267	-0.626981	-0.622278	-0.347206	0.149579	-0.451206	-0.218667	-0.498798	-0.387403	-0.301405	-0.23505	-0.148609	-0.124141	-0.0872635	0.166887	0.002689	0.192141	-0.44091	0.101891	-0.242204	0.15367	-0.443868	0.039086	-0.346307	-0.203928	
1.02495	3.54156	0	0	98.7938	44.1346	-0.129444	-0.174298	-0.466104	0.095331	-0.065404	0.005267	-0.626039	-0.624942	-0.345296	0.144181	-0.451206	-0.218667	-0.498798	-0.387403	-0.302217	-0.232756	-0.145549	-0.124155	-0.0851092	0.168931	0.0088765	0.185524	-0.439387	0.0975888	-0.245539	0.155849	-0.447476	0.0376	-0.344757	-0.208306	
1.02824	3.53851	0	0	98.7938	44.1346	-0.131681	-0.167976	-0.466104	0.095331	-0.065404	0.005267	-0.625096	-0.627607	-0.343386	0.138783	-0.451206	-0.218667	-0.498798	-0.387403	-0.303029	-0.230462	-0.142489	-0.124169	-0.082955	0.170974	0.015064	0.178907	-0.437865	0.093286	-0.248874	0.158028	-0.451083	0.036114	-0.343208	-0.212685	
1.03113	3.54156	0	0	99.1776	44.0054	-0.132303	-0.177287	-0.470896	0.088619	-0.072932	0.003562	-0.631139	-0.629801	-0.351183	0.143877	-0.455088	-0.218347	-0.497079	-0.392263	-0.306278	-0.221279	-0.144317	-0.119002	-0.0869292	0.182206	0.0117682	0.199098	-0.441673	0.104047	-0.241448	0.151536	-0.453736	0.0436135	-0.343208	-0.212685	
1.03344	3.53851	0	0	99.5613	43.8761	-0.132926	-0.186599	-0.475689	0.081907	-0.08046	0.001857	-0.637181	-0.631995	-0.358979	0.148972	-0.458971	-0.218028	-0.495359	-0.397123	-0.309527	-0.212096	-0.146145	-0.113836	-0.0909035	0.193438	0.0084725	0.219289	-0.445481	0.114808	-0.234023	0.145045	-0.45639	0.051113	-0.343208	-0.212685	
1.03513	3.54309	0	0	99.9451	43.7469	-0.133548	-0.19591	-0.480482	0.075195	-0.087988	0.000152	-0.643223	-0.634188	-0.366776	0.154066	-0.462853	-0.217708	-0.49364	-0.401984	-0.312777	-0.202913	-0.147974	-0.108669	-0.0948777	0.20467	0.00517675	0.23948	-0.449288	0.125569	-0.226597	0.138553	-0.459044	0.0586125	-0.343208	-0.212685	
1.03629	3.54614	0	0	100.329	43.6176	-0.13417	-0.205221	-0.485274	0.068483	-0.095516	-0.001553	-0.649266	-0.636382	-0.374572	0.159161	-0.466735	-0.217389	-0.49192	-0.406844	-0.316026	-0.19373	-0.149802	-0.103502	-0.098852	0.215902	0.001881	0.259671	-0.453096	0.13633	-0.219171	0.132061	-0.461697	0.066112	-0.343208	-0.212685	
1.037	3.54462	0	0	100.329	43.6176	-0.129075	-0.20855	-0.481519	0.0679973	-0.095516	-0.001553	-0.648324	-0.639043	-0.372663	0.153767	-0.465715	-0.220272	-0.490201	-0.411701	-0.312767	-0.194093	-0.148888	-0.106086	-0.0959032	0.215704	0.00306825	0.256315	-0.448974	0.133636	-0.225842	0.13642	-0.466185	0.0671222	-0.347318	-0.216727	
1.03735	3.54767	0	0	100.329	43.6176	-0.12398	-0.211879	-0.477764	0.0675115	-0.095516	-0.001553	-0.647383	-0.641705	-0.370754	0.148372	-0.464695	-0.223156	-0.488482	-0.416559	-0.309508	-0.194456	-0.147973	-0.10867	-0.0929545	0.215506	0.0042555	0.25296	-0.444852	0.130943	-0.232513	0.140779	-0.470674	0.0681325	-0.351429	-0.22077	
1.03743	3.54767	0	0	100.329	43.6176	-0.118885	-0.215209	-0.47401	0.0670257	-0.095516	-0.001553	-0.646442	-0.644367	-0.368846	0.142978	-0.463675	-0.226039	-0.486763	-0.421416	-0.30625	-0.194819	-0.147059	-0.111253	-0.0900057	0.215307	0.00544275	0.249605	-0.440729	0.128249	-0.239185	0.145138	-0.475162	0.0691428	-0.355539	-0.224812	
1.03733	3.54462	0	0	100.329	43.6176	-0.11379	-0.218538	-0.470255	0.06654	-0.095516	-0.001553	-0.6455	-0.647028	-0.366937	0.137583	-0.462655	-0.228922	-0.485044	-0.426274	-0.302991	-0.195182	-0.146145	-0.113837	-0.087057	0.215109	0.00663	0.246249	-0.436607	0.125555	-0.245856	0.149497	-0.47965	0.070153	-0.359649	-0.228854	
1.03714	3.54309	0	0	100.385	43.4596	-0.115534	-0.224678	-0.471294	0.0593525	-0.100275	-0.003407	-0.651537	-0.649218	-0.372819	0.137282	-0.460615	-0.234685	-0.497119	-0.422116	-0.305431	-0.188287	-0.146145	-0.113837	-0.0894445	0.221857	0.006887	0.256406	-0.434769	0.129323	-0.242521	0.147318	-0.473327	0.0756387	-0.360423	-0.226667	
1.03693	3.54156	0	0	100.441	43.3015	-0.117279	-0.230817	-0.472334	0.052165	-0.105035	-0.005261	-0.657574	-0.651408	-0.378701	0.136981	-0.458576	-0.240449	-0.509195	-0.417959	-0.307871	-0.181391	-0.146145	-0.113837	-0.091832	0.228604	0.007144	0.266563	-0.432932	0.133091	-0.239186	0.145139	-0.467005	0.0811245	-0.361197	-0.22448	
1.03675	3.54309	0	0	100.497	43.1434	-0.119024	-0.236957	-0.473374	0.0449775	-0.109794	-0.007115	-0.66361	-0.653598	-0.384583	0.136679	-0.456537	-0.246212	-0.52127	-0.413801	-0.310311	-0.174496	-0.146145	-0.113837	-0.0942195	0.235351	0.007401	0.276719	-0.431094	0.136859	-0.235851	0.14296	-0.460682	0.0866102	-0.36197	-0.222293	
1.03656	3.54767	0	0	100.553	42.9854	-0.120768	-0.243096	-0.474413	0.03779	-0.114553	-0.008969	-0.669647	-0.655788	-0.390465	0.136378	-0.454497	-0.251976	-0.533346	-0.409643	-0.312751	-0.167601	-0.146145	-0.113837	-0.096607	0.242099	0.007658	0.286876	-0.429256	0.140627	-0.232516	0.140781	-0.454359	0.092096	-0.362744	-0.220106	
1.03632	3.54156	0	0	100.553	42.9854	-0.120768	-0.243096	-0.472468	0.0424182	-0.111793	-0.00911825	-0.667766	-0.661104	-0.386653	0.125605	-0.454497	-0.251976	-0.523019	-0.423849	-0.308677	-0.170262	-0.147377	-0.118987	-0.095015	0.2376	0.00621375	0.280075	-0.428494	0.138472	-0.235851	0.14296	-0.449865	0.091085	-0.362478	-0.228683	
1.03598	3.54462	0	0	100.553	42.9854	-0.120768	-0.243096	-0.470523	0.0470465	-0.109034	-0.0092675	-0.665885	-0.666419	-0.382842	0.114833	-0.454497	-0.251976	-0.512692	-0.438056	-0.304604	-0.172924	-0.14861	-0.124138	-0.093423	0.233101	0.0047695	0.273274	-0.427732	0.136317	-0.239186	0.145139	-0.445372	0.090074	-0.362212	-0.237259	
1.03551	3.54156	0	0	100.553	42.9854	-0.120768	-0.243096	-0.468578	0.0516747	-0.106274	-0.00941675	-0.664004	-0.671735	-0.37903	0.10406	-0.454497	-0.251976	-0.502366	-0.452263	-0.300531	-0.175586	-0.149842	-0.129289	-0.091831	0.228602	0.00332525	0.266472	-0.426969	0.134163	-0.242521	0.147318	-0.440878	0.089063	-0.361945	-0.245836	
1.03487	3.54462	0	0	100.553	42.9854	-0.120768	-0.243096	-0.466633	0.056303	-0.103514	-0.009566	-0.662123	-0.677051	-0.375218	0.093287	-0.454497	-0.251976	-0.492039	-0.466469	-0.296457	-0.178247	-0.151074	-0.134439	-0.090239	0.224103	0.001881	0.259671	-0.426207	0.132008	-0.245856	0.149497	-0.436384	0.088052	-0.361679	-0.254412	
1.034	3.54309	0	0	100.553	42.9854	-0.120284	-0.255528	-0.466769	0.0465627	-0.104752	-0.0137185	-0.667216	-0.68189	-0.379193	0.0876125	-0.454304	-0.263167	-0.493791	-0.476498	-0.301344	-0.173286	-0.15322	-0.137005	-0.0939833	0.22655	-0.0066895	0.273016	-0.427732	0.136318	-0.23994	0.147271	-0.439043	0.0955683	-0.360398	-0.250209	
1.03288	3.54462	0	0	100.553	42.9854	-0.1198	-0.26796	-0.466905	0.0368225	-0.10599	-0.017871	-0.672308	-0.686728	-0.383169	0.081938	-0.454112	-0.274358	-0.495542	-0.486526	-0.306231	-0.168324	-0.155365	-0.13957	-0.0977275	0.228996	-0.01526	0.286361	-0.429257	0.140628	-0.234023	0.145044	-0.441703	0.103084	-0.359116	-0.246006	
1.03148	3.54309	0	0	100.553	42.9854	-0.119316	-0.280391	-0.467042	0.0270823	-0.107227	-0.0220235	-0.677401	-0.691567	-0.387144	0.0762635	-0.453919	-0.285549	-0.497293	-0.496555	-0.311119	-0.163363	-0.15751	-0.142135	-0.101472	0.231443	-0.0238305	0.299706	-0.430782	0.144938	-0.228106	0.142818	-0.444362	0.110601	-0.357835	-0.241803	
1.02989	3.54462	0	0	100.553	42.9854	-0.118832	-0.292823	-0.467178	0.017342	-0.108465	-0.026176	-0.682494	-0.696406	-0.391119	0.070589	-0.453727	-0.29674	-0.499045	-0.506583	-0.316006	-0.158402	-0.159656	-0.144701	-0.105216	0.23389	-0.032401	0.313051	-0.432307	0.149248	-0.22219	0.140592	-0.447022	0.118117	-0.356554	-0.2376	
1.02818	3.54309	0	0	100.553	42.9854	-0.115969	-0.28985	-0.461474	0.021477	-0.107227	-0.0220235	-0.677131	-0.70195	-0.393022	0.0759673	-0.453727	-0.29674	-0.499045	-0.506583	-0.315192	-0.160702	-0.157831	-0.149859	-0.103625	0.229393	-0.030024	0.306334	-0.430782	0.144938	-0.224772	0.140639	-0.443413	0.119614	-0.35578	-0.239786	
1.02645	3.53851	0	0	100.553	42.9854	-0.113106	-0.286877	-0.455769	0.025612	-0.10599	-0.017871	-0.671768	-0.707495	-0.394925	0.0813455	-0.453727	-0.29674	-0.499045	-0.506583	-0.314379	-0.163001	-0.156006	-0.155017	-0.102034	0.224896	-0.027647	0.299617	-0.429257	0.140628	-0.227353	0.140686	-0.439804	0.121111	-0.355007	-0.241972	
1.02478	3.54004	0	0	100.553	42.9854	-0.110244	-0.283904	-0.450065	0.029747	-0.104752	-0.0137185	-0.666404	-0.71304	-0.396828	0.0867238	-0.453727	-0.29674	-0.499045	-0.506583	-0.313565	-0.165301	-0.154181	-0.160174	-0.100443	0.220399	-0.02527	0.292899	-0.427732	0.136318	-0.229934	0.140734	-0.436196	0.122608	-0.354233	-0.244157	
1.02327	3.54004	0	0	100.553	42.9854	-0.107381	-0.280931	-0.444361	0.033882	-0.103514	-0.009566	-0.661041	-0.718584	-0.398731	0.092102	-0.453727	-0.29674	-0.499045	-0.506583	-0.312751	-0.167601	-0.152356	-0.165332	-0.098852	0.215902	-0.022893	0.286182	-0.426207	0.132008	-0.232516	0.140781	-0.432587	0.124105	-0.35346	-0.246343	
1.022	3.54156	0	0	100.608	42.83	-0.101811	-0.296673	-0.441646	0.0262108	-0.105513	-0.011568	-0.666135	-0.72341	-0.400801	0.0810575	-0.450675	-0.305364	-0.500799	-0.516591	-0.311937	-0.1699	-0.15359	-0.170469	-0.100209	0.211607	-0.0290842	0.292809	-0.426969	0.134163	-0.225842	0.13642	-0.428088	0.123094	-0.355007	-0.241971	
1.02105	3.54156	0	0	100.663	42.6747	-0.0962405	-0.312415	-0.438932	0.0185395	-0.107511	-0.01357	-0.671229	-0.728236	-0.402871	0.070013	-0.447624	-0.313989	-0.502553	-0.5266	-0.311124	-0.172199	-0.154824	-0.175606	-0.101567	0.207312	-0.0352755	0.299436	-0.427732	0.136317	-0.219168	0.132059	-0.42359	0.122082	-0.356554	-0.237598	
1.02051	3.54309	0	0	100.717	42.5194	-0.0906702	-0.328158	-0.436218	0.0108682	-0.10951	-0.015572	-0.676322	-0.733061	-0.404941	0.0589685	-0.444572	-0.322613	-0.504308	-0.536609	-0.310311	-0.174498	-0.156058	-0.180744	-0.102925	0.203016	-0.0414667	0.306063	-0.428494	0.138472	-0.212495	0.127699	-0.419091	0.121071	-0.358102	-0.233226	
1.02034	3.54462	0	0	100.772	42.3641	-0.0851	-0.3439	-0.433503	0.003197	-0.111509	-0.017574	-0.681416	-0.737887	-0.407011	0.047924	-0.44152	-0.331237	-0.506062	-0.546617	-0.309497	-0.176797	-0.157292	-0.185881	-0.104282	0.198721	-0.047658	0.31269	-0.429256	0.140627	-0.205821	0.123338	-0.414592	0.12006	-0.359649	-0.228854	
1.02047	3.53699	0	0	100.717	42.5194	-0.088441	-0.334458	-0.432458	0.0103785	-0.100461	-0.0181753	-0.67887	-0.735475	-0.395255	0.048505	-0.437637	-0.331565	-0.506062	-0.546617	-0.309497	-0.176797	-0.156381	-0.188456	-0.106434	0.196674	-0.0414667	0.306063	-0.424367	0.135776	-0.205821	0.123338	-0.418204	0.118564	-0.356046	-0.231208	
1.02087	3.54462	0	0	100.663	42.6747	-0.091782	-0.325016	-0.431412	0.01756	-0.089413	-0.0187765	-0.676323	-0.733063	-0.3835	0.049086	-0.433754	-0.331893	-0.506062	-0.546617	-0.309497	-0.176797	-0.155469	-0.191032	-0.108586	0.194628	-0.0352755	0.299436	-0.419478	0.130925	-0.205821	0.123338	-0.421815	0.117067	-0.352444	-0.233562	
1.02145	3.54309	0	0	100.608	42.83	-0.095123	-0.315574	-0.430366	0.0247415	-0.078365	-0.0193777	-0.673777	-0.730651	-0.371745	0.049667	-0.429871	-0.332221	-0.506062	-0.546617	-0.309497	-0.176797	-0.154558	-0.193607	-0.110737	0.192581	-0.0290842	0.292809	-0.41459	0.126074	-0.205821	0.123338	-0.425426	0.115571	-0.348841	-0.235916	
1.02217	3.54309	0	0	100.553	42.9854	-0.098464	-0.306132	-0.429321	0.031923	-0.067317	-0.019979	-0.67123	-0.728239	-0.359989	0.050248	-0.425988	-0.332549	-0.506062	-0.546617	-0.309497	-0.176797	-0.153647	-0.196183	-0.112889	0.190534	-0.022893	0.286182	-0.409701	0.121223	-0.205821	0.123338	-0.429038	0.114075	-0.345238	-0.23827	
1.02297	3.54156	0	0	100.553	42.9854	-0.095123	-0.315574	-0.427511	0.0268065	-0.0693192	-0.0219802	-0.671901	-0.73595	-0.363969	0.0445865	-0.427838	-0.337966	-0.509526	-0.551779	-0.307058	-0.183691	-0.158849	-0.198721	-0.113452	0.184002	-0.032896	0.292718	-0.417189	0.12446	-0.202482	0.121156	-0.428151	0.111568	-0.345505	-0.229685	
1.02379	3.54156	0	0	100.553	42.9854	-0.091782	-0.325016	-0.425701	0.02169	-0.0713215	-0.0239815	-0.672573	-0.74366	-0.367949	0.038925	-0.429689	-0.343383	-0.512991	-0.556942	-0.304619	-0.190584	-0.16405	-0.201259	-0.114016	0.17747	-0.042899	0.299254	-0.424678	0.127696	-0.199144	0.118975	-0.427264	0.109061	-0.345772	-0.2211	
1.02457	3.54309	0	0	100.553	42.9854	-0.088441	-0.334458	-0.42389	0.0165735	-0.0733238	-0.0259827	-0.673245	-0.75137	-0.371929	0.0332635	-0.431539	-0.3488	-0.516456	-0.562105	-0.302179	-0.197478	-0.169251	-0.203797	-0.11458	0.170938	-0.052902	0.30579	-0.432167	0.130933	-0.195805	0.116793	-0.426377	0.106554	-0.346039	-0.212514	
1.02527	3.54156	0	0	100.553	42.9854	-0.0851	-0.3439	-0.42208	0.011457	-0.075326	-0.027984	-0.673916	-0.759081	-0.375909	0.027602	-0.433389	-0.354217	-0.51992	-0.567267	-0.29974	-0.204371	-0.174453	-0.206335	-0.115143	0.164406	-0.062905	0.312326	-0.439655	0.13417	-0.192466	0.114611	-0.42549	0.104047	-0.346306	-0.203929	
1.02587	3.54462	0	0	100.553	42.9854	-0.0844603	-0.334638	-0.421034	0.0186427	-0.072083	-0.021826	-0.672306	-0.754022	-0.366042	0.0335518	-0.429505	-0.354547	-0.509567	-0.566605	-0.300553	-0.202074	-0.172308	-0.203779	-0.115937	0.166649	-0.062905	0.312326	-0.434007	0.127168	-0.192466	0.114611	-0.428213	0.100048	-0.342969	-0.197688	
1.02633	3.54309	0	0	100.553	42.9854	-0.0838205	-0.325375	-0.419988	0.0258285	-0.06884	-0.015668	-0.670697	-0.748962	-0.356176	0.0395015	-0.425621	-0.354877	-0.499215	-0.565944	-0.301366	-0.199776	-0.170163	-0.201223	-0.116731	0.168892	-0.062905	0.312326	-0.428358	0.120167	-0.192466	0.114611	-0.430937	0.0960495	-0.339632	-0.191447	
1.02663	3.53851	0	0	100.553	42.9854	-0.0831807	-0.316113	-0.418941	0.0330143	-0.065597	-0.00951	-0.669088	-0.743903	-0.346309	0.0454512	-0.421738	-0.355206	-0.488862	-0.565283	-0.302178	-0.197479	-0.168019	-0.198667	-0.117524	0.171135	-0.062905	0.312326	-0.42271	0.113165	-0.192466	0.114611	-0.433661	0.0920508	-0.336295	-0.185207	
1.02674	3.54309	0	0	100.553	42.9854	-0.082541	-0.306851	-0.417895	0.0402	-0.062354	-0.003352	-0.667478	-0.738844	-0.336443	0.051401	-0.417854	-0.355536	-0.478509	-0.564621	-0.302991	-0.195182	-0.165874	-0.196111	-0.118318	0.173378	-0.062905	0.312326	-0.417062	0.106163	-0.192466	0.114611	-0.436384	0.088052	-0.332958	-0.178966	
1.02663	3.54004	0	0	100.553	42.9854	-0.0803128	-0.313149	-0.416084	0.0350805	-0.0608298	-0.00766	-0.662792	-0.752088	-0.34441	0.0400828	-0.414806	-0.364149	-0.4768	-0.569452	-0.304625	-0.199412	-0.161906	-0.198704	-0.120469	0.171335	-0.065527	0.308879	-0.420424	0.106705	-0.189126	0.112429	-0.439107	0.0840573	-0.330901	-0.176939	
1.02627	3.54004	0	0	100.553	42.9854	-0.0780845	-0.319447	-0.414273	0.029961	-0.0593055	-0.011968	-0.658106	-0.765332	-0.352376	0.0287645	-0.411759	-0.372762	-0.47509	-0.574283	-0.306258	-0.203642	-0.157938	-0.201296	-0.122619	0.169291	-0.068149	0.305432	-0.423787	0.107247	-0.185785	0.110246	-0.441829	0.0800625	-0.328844	-0.174911	
1.02563	3.54004	0	0	100.553	42.9854	-0.0758563	-0.325745	-0.412461	0.0248415	-0.0577812	-0.016276	-0.653419	-0.778577	-0.360343	0.0174463	-0.408711	-0.381376	-0.47338	-0.579115	-0.307892	-0.207871	-0.153971	-0.203889	-0.12477	0.167248	-0.070771	0.301985	-0.42715	0.10779	-0.182445	0.108064	-0.444551	0.0760678	-0.326787	-0.172884	
1.0247	3.54156	0	0	100.553	42.9854	-0.073628	-0.332043	-0.41065	0.019722	-0.056257	-0.020584	-0.648733	-0.791821	-0.36831	0.006128	-0.405663	-0.389989	-0.471671	-0.583946	-0.309526	-0.212101	-0.150003	-0.206482	-0.12692	0.165205	-0.073393	0.298538	-0.430512	0.108332	-0.179105	0.105881	-0.447274	0.072073	-0.32473	-0.170857	
1.02347	3.53699	0	0	100.497	43.1434	-0.0678872	-0.326107	-0.408697	0.0243505	-0.0514853	-0.0187335	-0.64712	-0.786768	-0.364328	0.011783	-0.402792	-0.387451	-0.463009	-0.578457	-0.310338	-0.209805	-0.148767	-0.201349	-0.121824	0.167048	-0.073393	0.298538	-0.429751	0.10618	-0.182445	0.108064	-0.445503	0.0670697	-0.318284	-0.173382	
1.02194	3.53699	0	0	100.441	43.3015	-0.0621465	-0.320171	-0.406744	0.028979	-0.0467135	-0.016883	-0.645506	-0.781714	-0.360346	0.017438	-0.399921	-0.384914	-0.454347	-0.572968	-0.31115	-0.207509	-0.147531	-0.196217	-0.116728	0.168892	-0.073393	0.298538	-0.428989	0.104027	-0.185785	0.110246	-0.443733	0.0620665	-0.311839	-0.175908	
1.0201	3.53699	0	0	100.385	43.4596	-0.0564058	-0.314234	-0.404791	0.0336075	-0.0419417	-0.0150325	-0.643892	-0.776661	-0.356364	0.023093	-0.397049	-0.382376	-0.445685	-0.567479	-0.311963	-0.205212	-0.146296	-0.191084	-0.111632	0.170736	-0.073393	0.298538	-0.428227	0.101875	-0.189126	0.112429	-0.441963	0.0570633	-0.305393	-0.178434	
1.01795	3.53851	0	0	100.329	43.6176	-0.050665	-0.308298	-0.402838	0.038236	-0.03717	-0.013182	-0.642279	-0.771608	-0.352382	0.028748	-0.394178	-0.379838	-0.437023	-0.56199	-0.312775	-0.202916	-0.14506	-0.185951	-0.106536	0.172579	-0.073393	0.298538	-0.427466	0.099723	-0.192466	0.114611	-0.440192	0.05206	-0.298947	-0.180959	
1.01548	3.53851	0	0	100.385	43.4596	-0.053536	-0.311267	-0.399215	0.0279973	-0.0427037	-0.0128787	-0.642956	-0.779308	-0.344786	0.00728025	-0.395019	-0.388114	-0.437023	-0.56199	-0.310339	-0.209803	-0.145972	-0.183374	-0.105742	0.170335	-0.0798193	0.295004	-0.427466	0.099723	-0.192466	0.114611	-0.439307	0.0495595	-0.297663	-0.176737	
1.0127	3.53546	0	0	100.441	43.3015	-0.056407	-0.314237	-0.395593	0.0177585	-0.0482375	-0.0125755	-0.643633	-0.787007	-0.337189	-0.0141875	-0.39586	-0.396389	-0.437023	-0.56199	-0.307902	-0.216689	-0.146884	-0.180797	-0.104948	0.168092	-0.0862455	0.29147	-0.427466	0.099723	-0.192466	0.114611	-0.438423	0.047059	-0.29638	-0.172514	
1.0096	3.53851	0	0	100.497	43.1434	-0.059278	-0.317206	-0.39197	0.00751975	-0.0537712	-0.0122723	-0.64431	-0.794707	-0.329593	-0.0356552	-0.396701	-0.404664	-0.437023	-0.56199	-0.305466	-0.223576	-0.147795	-0.17822	-0.104154	0.165848	-0.0926717	0.287935	-0.427466	0.099723	-0.192466	0.114611	-0.437538	0.0445585	-0.295096	-0.168291	
1.00625	3.53699	0	0	100.553	42.9854	-0.062149	-0.320175	-0.388347	-0.002719	-0.059305	-0.011969	-0.644987	-0.802407	-0.321997	-0.057123	-0.397542	-0.41294	-0.437023	-0.56199	-0.303029	-0.230462	-0.148707	-0.175643	-0.10336	0.163604	-0.099098	0.284401	-0.427466	0.099723	-0.192466	0.114611	-0.436653	0.042058	-0.293812	-0.164069	
1.00286	3.53851	0	0	100.497	43.1434	-0.0575218	-0.311079	-0.387297	0.00446625	-0.0517652	-0.0102685	-0.640821	-0.79495	-0.319903	-0.046117	-0.396701	-0.404664	-0.435258	-0.551977	-0.301394	-0.226236	-0.144412	-0.170519	-0.0990532	0.167692	-0.0926717	0.287935	-0.426705	0.0975712	-0.189126	0.112429	-0.434884	0.037059	-0.287358	-0.166598	
0.999621	3.53699	0	0	100.441	43.3015	-0.0528945	-0.301983	-0.386247	0.0116515	-0.0442255	-0.008568	-0.636655	-0.787494	-0.317808	-0.035111	-0.39586	-0.396389	-0.433493	-0.541964	-0.299759	-0.22201	-0.140118	-0.165395	-0.0947465	0.17178	-0.0862455	0.29147	-0.425944	0.0954195	-0.185785	0.110246	-0.433115	0.03206	-0.280903	-0.169127	
0.996715	3.54004	0	0	100.385	43.4596	-0.0482672	-0.292887	-0.385197	0.0188367	-0.0366857	-0.0068675	-0.632488	-0.780037	-0.315714	-0.024105	-0.395019	-0.388114	-0.431727	-0.53195	-0.298124	-0.217784	-0.135823	-0.160271	-0.0904397	0.175867	-0.0798193	0.295004	-0.425182	0.0932678	-0.182445	0.108064	-0.431347	0.027061	-0.274449	-0.171657	
0.994342	3.53851	0	0	100.329	43.6176	-0.04364	-0.283791	-0.384147	0.026022	-0.029146	-0.005167	-0.628322	-0.77258	-0.31362	-0.013099	-0.394178	-0.379838	-0.429962	-0.521937	-0.296489	-0.213558	-0.131528	-0.155147	-0.086133	0.179955	-0.073393	0.298538	-0.424421	0.091116	-0.179105	0.105881	-0.429578	0.022062	-0.267995	-0.174186	
0.992693	3.54462	0	0	100.792	43.3148	-0.0476277	-0.283611	-0.383241	0.0234612	-0.0283832	-0.00732275	-0.62551	-0.780527	-0.309822	-0.0238327	-0.391131	-0.388448	-0.423052	-0.526452	-0.298936	-0.215489	-0.130615	-0.157727	-0.0845443	0.175465	-0.083622	0.294913	-0.427021	0.0895077	-0.185784	0.110245	-0.428694	0.0195637	-0.270058	-0.176214	
0.991962	3.54309	0	0	101.256	43.0119	-0.0516155	-0.283431	-0.382335	0.0209005	-0.0276205	-0.0094785	-0.622699	-0.788473	-0.306024	-0.0345665	-0.388084	-0.397059	-0.416141	-0.530968	-0.301383	-0.217421	-0.129702	-0.160307	-0.0829555	0.170976	-0.093851	0.291288	-0.429621	0.0878995	-0.192463	0.11461	-0.42781	0.0170655	-0.27212	-0.178241	
0.992333	3.54767	0	0	101.719	42.7091	-0.0556032	-0.283251	-0.381428	0.0183398	-0.0268577	-0.0116343	-0.619887	-0.79642	-0.302226	-0.0453003	-0.385038	-0.40567	-0.40923	-0.535484	-0.30383	-0.219352	-0.128789	-0.162887	-0.0813668	0.166486	-0.10408	0.287662	-0.432221	0.0862912	-0.199142	0.118974	-0.426926	0.0145673	-0.274183	-0.180269	
0.993762	3.55072	0	0	102.183	42.4062	-0.059591	-0.283071	-0.380522	0.015779	-0.026095	-0.01379	-0.617075	-0.804366	-0.298428	-0.056034	-0.381991	-0.41428	-0.40232	-0.539999	-0.306277	-0.221283	-0.127876	-0.165467	-0.079778	0.161996	-0.114309	0.284037	-0.434821	0.084683	-0.205821	0.123338	-0.426042	0.012069	-0.276246	-0.182297	
0.995981	3.55072	0	0	101.662	42.87	-0.0498555	-0.277296	-0.379472	0.0229715	-0.0220802	-0.00978125	-0.612902	-0.796907	-0.288526	-0.050122	-0.37624	-0.40921	-0.405751	-0.530302	-0.304643	-0.217055	-0.124814	-0.165484	-0.078417	0.166285	-0.107887	0.287571	-0.434821	0.084683	-0.205821	0.123338	-0.42781	0.0170665	-0.275469	-0.184491	
0.998713	3.55072	0	0	101.142	43.3337	-0.04012	-0.27152	-0.378423	0.030164	-0.0180655	-0.0057725	-0.60873	-0.789449	-0.278625	-0.04421	-0.370489	-0.404141	-0.409182	-0.520606	-0.303009	-0.212827	-0.121751	-0.165501	-0.077056	0.170575	-0.101466	0.291106	-0.434821	0.084683	-0.205821	0.123338	-0.429578	0.022064	-0.274693	-0.186686	
1.00168	3.55377	0	0	100.622	43.7975	-0.0303845	-0.265744	-0.377374	0.0373565	-0.0140508	-0.00176375	-0.604557	-0.781991	-0.268723	-0.038298	-0.364738	-0.399071	-0.412613	-0.510909	-0.301374	-0.208599	-0.118689	-0.165519	-0.075695	0.174864	-0.0950438	0.29464	-0.434821	0.084683	-0.205821	0.123338	-0.431347	0.0270615	-0.273917	-0.188881	
1.00461	3.5553	0	0	100.101	44.2613	-0.020649	-0.259969	-0.376324	0.044549	-0.010036	0.002245	-0.600384	-0.774532	-0.258821	-0.032386	-0.358987	-0.394001	-0.416044	-0.501212	-0.29974	-0.204371	-0.115627	-0.165536	-0.074334	0.179153	-0.088622	0.298174	-0.434821	0.084683	-0.205821	0.123338	-0.433115	0.032059	-0.27314	-0.191075	
1.00721	3.55072	0	0	100.507	44.1223	-0.0184132	-0.266287	-0.375417	0.041986	-0.00927275	8.75E-05	-0.598508	-0.779833	-0.262825	-0.0380272	-0.355939	-0.402614	-0.412613	-0.510909	-0.300562	-0.210894	-0.120838	-0.16808	-0.0749008	0.17262	-0.0950438	0.29464	-0.43742	0.0830758	-0.205821	0.123338	-0.437607	0.0330727	-0.270811	-0.197655	
1.00922	3.55072	0	0	100.912	43.9833	-0.0161775	-0.272606	-0.37451	0.039423	-0.0085095	-0.00207	-0.596632	-0.785135	-0.266828	-0.0436685	-0.352892	-0.411227	-0.409182	-0.520606	-0.301384	-0.217417	-0.126049	-0.170624	-0.0754675	0.166086	-0.101466	0.291106	-0.440019	0.0814685	-0.205821	0.123338	-0.442099	0.0340865	-0.268483	-0.204236	
1.01036	3.55682	0	0	101.318	43.8443	-0.0139417	-0.278924	-0.373604	0.03686	-0.00774625	-0.0042275	-0.594756	-0.790436	-0.270832	-0.0493097	-0.349844	-0.419841	-0.405751	-0.530302	-0.302207	-0.223939	-0.131259	-0.173168	-0.0760342	0.159552	-0.107887	0.287571	-0.442618	0.0798612	-0.205821	0.123338	-0.446591	0.0351002	-0.266155	-0.210816	
1.01057	3.55377	0	0	101.723	43.7053	-0.011706	-0.285242	-0.372697	0.034297	-0.006983	-0.006385	-0.59288	-0.795738	-0.274835	-0.054951	-0.346796	-0.428454	-0.40232	-0.539999	-0.303029	-0.230462	-0.13647	-0.175712	-0.076601	0.153019	-0.114309	0.284037	-0.445217	0.078254	-0.205821	0.123338	-0.451083	0.036114	-0.263826	-0.217396	
1.01004	3.54919	0	0	102.094	43.7222	-0.0161787	-0.272601	-0.373464	0.046629	-0.00019	-0.00252675	-0.588702	-0.788274	-0.26873	-0.038279	-0.341035	-0.423388	-0.404035	-0.535152	-0.301394	-0.226236	-0.135558	-0.17829	-0.0744453	0.155061	-0.112878	0.290833	-0.440336	0.0734125	-0.205821	0.123338	-0.445707	0.032601	-0.26305	-0.219589	
1.00898	3.55377	0	0	102.465	43.7391	-0.0206515	-0.25996	-0.374231	0.058961	0.006603	0.0013315	-0.584525	-0.780809	-0.262625	-0.021607	-0.335275	-0.418322	-0.40575	-0.530305	-0.299759	-0.22201	-0.134646	-0.180868	-0.0722895	0.157104	-0.111448	0.297628	-0.435455	0.068571	-0.205821	0.123338	-0.440331	0.029088	-0.262274	-0.221781	
1.00758	3.55224	0	0	102.835	43.756	-0.0251242	-0.24732	-0.374998	0.071293	0.013396	0.00518975	-0.580347	-0.773345	-0.256519	-0.004935	-0.329514	-0.413255	-0.407465	-0.525458	-0.298124	-0.217784	-0.133733	-0.183445	-0.0701337	0.159146	-0.110018	0.304424	-0.430575	0.0637295	-0.205821	0.123338	-0.434954	0.025575	-0.261499	-0.223973	
1.00606	3.54919	0	0	103.206	43.7728	-0.029597	-0.234679	-0.375765	0.083625	0.020189	0.009048	-0.576169	-0.765881	-0.250414	0.011737	-0.323753	-0.408189	-0.40918	-0.520611	-0.296489	-0.213558	-0.132821	-0.186023	-0.067978	0.161188	-0.108587	0.31122	-0.425694	0.058888	-0.205821	0.123338	-0.429578	0.022062	-0.260723	-0.226166	
1.00462	3.55072	0	0	103.206	43.7728	-0.0324702	-0.237662	-0.376673	0.0861922	0.0174145	0.00920075	-0.577789	-0.770941	-0.244705	-0.00439775	-0.326634	-0.410723	-0.404037	-0.535144	-0.297312	-0.220078	-0.136206	-0.193712	-0.0714955	0.154862	-0.116189	0.311032	-0.432413	0.0599748	-0.209158	0.125519	-0.433187	0.020579	-0.26485	-0.230207	
1.00347	3.55072	0	0	103.206	43.7728	-0.0353435	-0.240646	-0.377582	0.0887595	0.01464	0.0093535	-0.579409	-0.776001	-0.238996	-0.0205325	-0.329516	-0.413257	-0.398895	-0.549677	-0.298135	-0.226598	-0.139591	-0.2014	-0.075013	0.148537	-0.12379	0.310845	-0.439131	0.0610615	-0.212496	0.1277	-0.436795	0.019096	-0.268977	-0.234248	
1.0028	3.55072	0	0	103.206	43.7728	-0.0382168	-0.243629	-0.378491	0.0913268	0.0118655	0.00950625	-0.581029	-0.78106	-0.233287	-0.0366672	-0.332397	-0.415791	-0.393753	-0.56421	-0.298958	-0.233119	-0.142975	-0.209089	-0.0785305	0.142211	-0.131391	0.310658	-0.44585	0.0621483	-0.215834	0.12988	-0.440404	0.017613	-0.273104	-0.238289	
1.00269	3.55224	0	0	103.206	43.7728	-0.04109	-0.246613	-0.379399	0.093894	0.009091	0.009659	-0.582649	-0.78612	-0.227578	-0.052802	-0.335278	-0.418325	-0.38861	-0.578743	-0.299781	-0.239639	-0.14636	-0.216778	-0.082048	0.135885	-0.138993	0.31047	-0.452568	0.063235	-0.219171	0.132061	-0.444012	0.01613	-0.277231	-0.24233	
1.003	3.55377	0	0	103.664	43.6067	-0.039336	-0.240467	-0.383945	0.106742	0.0123475	0.0158362	-0.582908	-0.775751	-0.227374	-0.036391	-0.329514	-0.413255	-0.390323	-0.573901	-0.302217	-0.232755	-0.145449	-0.219351	-0.0828415	0.138128	-0.131391	0.310658	-0.456685	0.0659248	-0.219171	0.132061	-0.447618	0.0146475	-0.280068	-0.24216	
1.00359	3.54919	0	0	104.123	43.4405	-0.037582	-0.23432	-0.388491	0.11959	0.015604	0.0220135	-0.583166	-0.765382	-0.22717	-0.01998	-0.32375	-0.408185	-0.392037	-0.56906	-0.304654	-0.22587	-0.144539	-0.221924	-0.083635	0.14037	-0.12379	0.310845	-0.460801	0.0686145	-0.219171	0.132061	-0.451224	0.013165	-0.282905	-0.241989	
1.00432	3.54919	0	0	104.581	43.2743	-0.035828	-0.228174	-0.393037	0.132438	0.0188605	0.0281908	-0.583425	-0.755012	-0.226967	-0.003569	-0.317986	-0.403115	-0.39375	-0.564218	-0.30709	-0.218985	-0.143628	-0.224498	-0.0844285	0.142613	-0.116189	0.311032	-0.464917	0.0713042	-0.219171	0.132061	-0.45483	0.0116825	-0.285742	-0.241819	
1.00506	3.55072	0	0	105.039	43.1082	-0.034074	-0.222028	-0.397583	0.145286	0.022117	0.034368	-0.583684	-0.744643	-0.226763	0.012842	-0.312222	-0.398045	-0.395463	-0.559376	-0.309526	-0.212101	-0.142717	-0.227071	-0.085222	0.144855	-0.108587	0.31122	-0.469034	0.073994	-0.219171	0.132061	-0.458436	0.0102	-0.288579	-0.241649	
1.00566	3.54919	0	0	105.039	43.1082	-0.0420535	-0.221676	-0.401351	0.145771	0.0193415	0.0345198	-0.579928	-0.755259	-0.230772	0.00718425	-0.309171	-0.406666	-0.398948	-0.564542	-0.309536	-0.220913	-0.150066	-0.232152	-0.0895295	0.140776	-0.119986	0.310938	-0.472388	0.0745348	-0.222507	0.134241	-0.460275	0.00373025	-0.29064	-0.243668	
1.006	3.55072	0	0	105.039	43.1082	-0.050033	-0.221325	-0.40512	0.146257	0.016566	0.0346715	-0.576172	-0.765875	-0.234781	0.0015265	-0.306121	-0.415288	-0.402433	-0.569707	-0.309547	-0.229725	-0.157415	-0.237233	-0.093837	0.136697	-0.131384	0.310655	-0.475743	0.0750755	-0.225844	0.136421	-0.462114	-0.0027395	-0.292701	-0.245687	
1.00592	3.54614	0	0	105.039	43.1082	-0.0580125	-0.220973	-0.408888	0.146742	0.0137905	0.0348233	-0.572415	-0.77649	-0.238789	-0.00413125	-0.30307	-0.423909	-0.405918	-0.574873	-0.309557	-0.238538	-0.164765	-0.242314	-0.0981445	0.132619	-0.142783	0.310373	-0.479098	0.0756162	-0.22918	0.138601	-0.463952	-0.00920925	-0.294763	-0.247705	
1.00541	3.54919	0	0	105.039	43.1082	-0.065992	-0.220621	-0.412656	0.147228	0.011015	0.034975	-0.568659	-0.787106	-0.242798	-0.009789	-0.300019	-0.432531	-0.409403	-0.580038	-0.309567	-0.24735	-0.172114	-0.247395	-0.102452	0.12854	-0.154181	0.310091	-0.482452	0.076157	-0.232516	0.140781	-0.465791	-0.015679	-0.296824	-0.249724	
1.00463	3.54767	0	0	104.977	43.285	-0.0642423	-0.21447	-0.41344	0.159609	0.013505	0.043325	-0.568917	-0.776734	-0.234778	0.001535	-0.305105	-0.418157	-0.405918	-0.574873	-0.307121	-0.245422	-0.169969	-0.244845	-0.104038	0.133022	-0.142783	0.310373	-0.482452	0.076157	-0.232516	0.140781	-0.469393	-0.0171577	-0.297598	-0.247535	
1.00374	3.54767	0	0	104.914	43.4619	-0.0624925	-0.208318	-0.414225	0.17199	0.015995	0.051675	-0.569175	-0.766363	-0.226759	0.012859	-0.310191	-0.403783	-0.402433	-0.569707	-0.304674	-0.243495	-0.167824	-0.242295	-0.105624	0.137504	-0.131384	0.310655	-0.482452	0.076157	-0.232516	0.140781	-0.472996	-0.0186365	-0.298372	-0.245346	
1.0029	3.54767	0	0	104.852	43.6387	-0.0607427	-0.202166	-0.41501	0.184371	0.018485	0.060025	-0.569432	-0.755991	-0.218739	0.024183	-0.315278	-0.389409	-0.398948	-0.564542	-0.302227	-0.241567	-0.165678	-0.239746	-0.10721	0.141986	-0.119986	0.310938	-0.482452	0.076157	-0.232516	0.140781	-0.476598	-0.0201152	-0.299147	-0.243158	
1.00229	3.54919	0	0	104.789	43.8156	-0.058993	-0.196015	-0.415794	0.196752	0.020975	0.068375	-0.56969	-0.745619	-0.210719	0.035507	-0.320364	-0.375035	-0.395463	-0.559376	-0.299781	-0.239639	-0.163533	-0.237196	-0.108796	0.146468	-0.108587	0.31122	-0.482452	0.076157	-0.232516	0.140781	-0.4802	-0.021594	-0.299921	-0.240969	
1.00206	3.55072	0	0	105.279	43.6345	-0.0629808	-0.195842	-0.419561	0.197234	0.0189647	0.0663613	-0.575746	-0.747786	-0.212825	0.0244562	-0.317311	-0.383662	-0.40066	-0.559702	-0.306295	-0.238909	-0.165678	-0.239746	-0.110948	0.144428	-0.115003	0.307682	-0.485805	0.0766972	-0.235851	0.14296	-0.481158	-0.03054	-0.30353	-0.238611	
1.00239	3.55377	0	0	105.768	43.4534	-0.0669685	-0.195668	-0.423327	0.197715	0.0169545	0.0643475	-0.581802	-0.749953	-0.21493	0.0134055	-0.314258	-0.39229	-0.405857	-0.560029	-0.31281	-0.238179	-0.167824	-0.242295	-0.113099	0.142388	-0.121419	0.304144	-0.489158	0.0772375	-0.239186	0.145139	-0.482115	-0.039486	-0.307138	-0.236253	
1.00343	3.54919	0	0	106.257	43.2723	-0.0709562	-0.195495	-0.427094	0.198197	0.0149442	0.0623338	-0.587857	-0.752119	-0.217036	0.00235475	-0.311206	-0.400917	-0.411055	-0.560355	-0.319324	-0.237449	-0.169969	-0.244845	-0.115251	0.140349	-0.127835	0.300606	-0.49251	0.0777778	-0.242521	0.147318	-0.483073	-0.048432	-0.310747	-0.233895	
1.00526	3.54767	0	0	106.747	43.0912	-0.074944	-0.195322	-0.430861	0.198679	0.012934	0.06032	-0.593913	-0.754286	-0.219142	-0.008696	-0.308153	-0.409544	-0.416252	-0.560681	-0.325838	-0.236719	-0.172114	-0.247395	-0.117403	0.138309	-0.134251	0.297068	-0.495863	0.078318	-0.245856	0.149497	-0.48403	-0.057378	-0.314356	-0.231537	
1.0078	3.55072	0	0	106.615	43.4634	-0.0743173	-0.185996	-0.434507	0.208982	0.0118792	0.0709957	-0.593236	-0.746563	-0.220855	0.013147	-0.313242	-0.395161	-0.412769	-0.555511	-0.324205	-0.232496	-0.171788	-0.239703	-0.117632	0.147076	-0.130209	0.307316	-0.49327	0.0799255	-0.242521	0.147318	-0.48227	-0.0623532	-0.312297	-0.229516	
1.01094	3.55072	0	0	106.483	43.8355	-0.0736905	-0.176671	-0.438153	0.219286	0.0108245	0.0816715	-0.592558	-0.738839	-0.222568	0.03499	-0.318332	-0.380777	-0.409286	-0.55034	-0.322573	-0.228272	-0.171463	-0.23201	-0.117861	0.155843	-0.126167	0.317563	-0.490677	0.081533	-0.239186	0.145139	-0.480509	-0.0673285	-0.310237	-0.227496	
1.01459	3.54614	0	0	106.352	44.2077	-0.0730637	-0.167345	-0.441799	0.22959	0.00976975	0.0923473	-0.591881	-0.731116	-0.224281	0.056833	-0.323422	-0.366394	-0.405803	-0.545169	-0.32094	-0.224049	-0.171137	-0.224318	-0.118089	0.164611	-0.122126	0.327811	-0.488084	0.0831405	-0.235851	0.14296	-0.478749	-0.0723037	-0.308178	-0.225475	
1.01865	3.54767	0	0	106.22	44.5799	-0.072437	-0.158019	-0.445445	0.239893	0.008715	0.103023	-0.591203	-0.723392	-0.225994	0.078676	-0.328511	-0.352011	-0.40232	-0.539999	-0.319307	-0.219826	-0.170812	-0.216625	-0.118318	0.173378	-0.118084	0.338059	-0.485491	0.084748	-0.232516	0.140781	-0.476988	-0.077279	-0.306119	-0.223454	
1.02303	3.55377	0	0	106.287	44.3918	-0.0804072	-0.157681	-0.449209	0.240371	0.00670625	0.101005	-0.594699	-0.72315	-0.23	0.0729967	-0.327492	-0.35489	-0.404035	-0.535152	-0.321751	-0.221756	-0.166846	-0.219217	-0.122056	0.17582	-0.120698	0.334609	-0.486251	0.086896	-0.235851	0.14296	-0.485944	-0.0752498	-0.31256	-0.220929	
1.02762	3.54919	0	0	106.353	44.2038	-0.0883775	-0.157342	-0.452972	0.240849	0.0046975	0.098987	-0.598195	-0.722908	-0.234007	0.0673175	-0.326474	-0.357768	-0.40575	-0.530305	-0.324195	-0.223686	-0.16288	-0.221808	-0.125793	0.178262	-0.123312	0.331159	-0.487012	0.089044	-0.239186	0.145139	-0.4949	-0.0732205	-0.319001	-0.218404	
1.03234	3.5553	0	0	106.42	44.0158	-0.0963477	-0.157003	-0.456735	0.241328	0.00268875	0.096969	-0.601691	-0.722667	-0.238014	0.0616382	-0.325456	-0.360646	-0.407465	-0.525458	-0.326639	-0.225616	-0.158914	-0.2244	-0.12953	0.180705	-0.125926	0.327708	-0.487772	0.091192	-0.242521	0.147318	-0.503857	-0.0711912	-0.325442	-0.215878	
1.03708	3.5553	0	0	106.486	43.8278	-0.104318	-0.156665	-0.460499	0.241806	0.00068	0.094951	-0.605187	-0.722425	-0.24202	0.055959	-0.324437	-0.363525	-0.40918	-0.520611	-0.329083	-0.227546	-0.154948	-0.226991	-0.133268	0.183147	-0.12854	0.324258	-0.488532	0.09334	-0.245856	0.149497	-0.512813	-0.069162	-0.331883	-0.213353	
1.04168	3.55377	0	0	107.078	43.4413	-0.0985905	-0.150665	-0.464148	0.252118	0.00393125	0.101156	-0.605454	-0.712032	-0.239925	0.0670392	-0.329533	-0.349123	-0.414331	-0.506054	-0.328263	-0.221025	-0.155534	-0.216714	-0.129763	0.189485	-0.124499	0.334521	-0.481822	0.0922595	-0.242521	0.147318	-0.507457	-0.0726617	-0.330334	-0.217731	
1.046	3.55377	0	0	107.669	43.0549	-0.092863	-0.144666	-0.467797	0.262431	0.0071825	0.107361	-0.605721	-0.701639	-0.237829	0.0781195	-0.334628	-0.334722	-0.419482	-0.491497	-0.327443	-0.214505	-0.15612	-0.206436	-0.126257	0.195823	-0.120458	0.344784	-0.475112	0.091179	-0.239186	0.145139	-0.5021	-0.0761615	-0.328785	-0.222108	
1.04989	3.55377	0	0	108.26	42.6684	-0.0871355	-0.138666	-0.471446	0.272743	0.0104337	0.113566	-0.605988	-0.691246	-0.235734	0.0891997	-0.339724	-0.32032	-0.424632	-0.47694	-0.326624	-0.207985	-0.156706	-0.196158	-0.122751	0.202161	-0.116418	0.355046	-0.468401	0.0900985	-0.235851	0.14296	-0.496744	-0.0796613	-0.327236	-0.226486	
1.05319	3.55224	0	0	108.852	42.282	-0.081408	-0.132666	-0.475095	0.283055	0.013685	0.119771	-0.606255	-0.680853	-0.233638	0.10028	-0.34482	-0.305918	-0.429783	-0.462383	-0.325804	-0.201464	-0.157292	-0.185881	-0.119246	0.208499	-0.112377	0.365309	-0.461691	0.089018	-0.232516	0.140781	-0.491388	-0.083161	-0.325687	-0.230864	
1.05576	3.55072	0	0	108.852	42.282	-0.0842725	-0.135667	-0.477943	0.280951	0.0096675	0.115732	-0.611362	-0.685692	-0.235734	0.0891997	-0.342781	-0.311682	-0.429783	-0.462383	-0.328247	-0.203397	-0.154234	-0.185898	-0.119246	0.208499	-0.118792	0.361756	-0.465808	0.0917078	-0.233271	0.142914	-0.491388	-0.083161	-0.328518	-0.230696	
1.05743	3.55072	5	0	108.852	42.282	-0.087137	-0.138668	-0.480791	0.278846	0.00565	0.111693	-0.616468	-0.690532	-0.237829	0.0781195	-0.340742	-0.317445	-0.429783	-0.462383	-0.33069	-0.205329	-0.151176	-0.185916	-0.119246	0.208499	-0.125207	0.358202	-0.469924	0.0943975	-0.234025	0.145046	-0.491388	-0.083161	-0.33135	-0.230528	
1.05807	3.55377	5	0	108.852	42.282	-0.0900015	-0.141669	-0.483638	0.276742	0.0016325	0.107653	-0.621575	-0.695371	-0.239925	0.0670392	-0.338702	-0.323209	-0.429783	-0.462383	-0.333134	-0.207261	-0.148118	-0.185934	-0.119246	0.208499	-0.131622	0.354649	-0.47404	0.0970872	-0.23478	0.147179	-0.491388	-0.083161	-0.334182	-0.23036	
1.05753	3.54919	5	0	108.852	42.282	-0.092866	-0.14467	-0.486486	0.274638	-0.002385	0.103614	-0.626682	-0.70021	-0.24202	0.055959	-0.336663	-0.328972	-0.429783	-0.462383	-0.335577	-0.209194	-0.14506	-0.185951	-0.119246	0.208499	-0.138037	0.351096	-0.478157	0.099777	-0.235535	0.149312	-0.491388	-0.083161	-0.337013	-0.230192	
1.05595	3.55224	5	0	108.785	42.47	-0.0911235	-0.138498	-0.483638	0.276742	-0.002678	0.112137	-0.626011	-0.692472	-0.239925	0.0670392	-0.339722	-0.320325	-0.415899	-0.456505	-0.337201	-0.204604	-0.14259	-0.175669	-0.114943	0.212598	-0.126628	0.351386	-0.482271	0.102466	-0.228106	0.142819	-0.487788	-0.0816905	-0.32929	-0.228508	
1.05367	3.55224	5	0	108.719	42.658	-0.089381	-0.132327	-0.480791	0.278846	-0.002971	0.12066	-0.62534	-0.684735	-0.237829	0.0781195	-0.342782	-0.311678	-0.402015	-0.450627	-0.338826	-0.200014	-0.14012	-0.165388	-0.11064	0.216697	-0.115219	0.351676	-0.486386	0.105154	-0.220678	0.136325	-0.484188	-0.08022	-0.321566	-0.226823	
1.05102	3.55224	5	0	108.652	42.846	-0.0876385	-0.126155	-0.477943	0.280951	-0.003264	0.129182	-0.62467	-0.676997	-0.235734	0.0891997	-0.345842	-0.303032	-0.38813	-0.44475	-0.34045	-0.195423	-0.137651	-0.155106	-0.106337	0.220796	-0.103809	0.351966	-0.4905	0.107843	-0.21325	0.129831	-0.480588	-0.0787495	-0.313842	-0.225139	
1.04836	3.54767	5	0	108.586	43.034	-0.085896	-0.119983	-0.475095	0.283055	-0.003557	0.137705	-0.623999	-0.669259	-0.233638	0.10028	-0.348901	-0.294385	-0.374246	-0.438872	-0.342074	-0.190833	-0.135181	-0.144824	-0.102034	0.224895	-0.0924	0.352256	-0.494614	0.110531	-0.205821	0.123338	-0.476988	-0.077279	-0.306119	-0.223454	
1.04601	3.55072	5	0	108.652	42.846	-0.0865178	-0.129322	-0.475207	0.27322	-0.003264	0.129182	-0.621176	-0.677236	-0.235734	0.0891997	-0.349739	-0.302699	-0.370759	-0.433663	-0.345333	-0.199285	-0.131206	-0.147422	-0.104748	0.216305	-0.0952602	0.338644	-0.495686	0.104625	-0.212495	0.127699	-0.481468	-0.0762638	-0.298897	-0.228173	
1.04433	3.54767	5	0	108.719	42.658	-0.0871395	-0.138661	-0.47532	0.263385	-0.002971	0.12066	-0.618354	-0.685214	-0.237829	0.0781195	-0.350577	-0.311013	-0.367273	-0.428454	-0.348592	-0.207737	-0.12723	-0.150019	-0.107462	0.207715	-0.0981205	0.325032	-0.496758	0.0987185	-0.219168	0.132059	-0.485947	-0.0752485	-0.291675	-0.232892	
1.04365	3.54614	5	0	108.785	42.47	-0.0877612	-0.148001	-0.475432	0.253549	-0.002678	0.112137	-0.615531	-0.693191	-0.239925	0.0670392	-0.351415	-0.319328	-0.363786	-0.423246	-0.351852	-0.216189	-0.123255	-0.152616	-0.110175	0.199124	-0.100981	0.31142	-0.49783	0.0928122	-0.225842	0.13642	-0.490427	-0.0742333	-0.284453	-0.237611	
1.04432	3.54614	5	0	108.852	42.282	-0.088383	-0.15734	-0.475544	0.243714	-0.002385	0.103614	-0.612708	-0.701168	-0.24202	0.055959	-0.352253	-0.327642	-0.360299	-0.418037	-0.355111	-0.224641	-0.11928	-0.155214	-0.112889	0.190534	-0.103841	0.297808	-0.498902	0.086906	-0.232516	0.140781	-0.494907	-0.073218	-0.277231	-0.24233	
1.04642	3.54309	5	0	108.852	42.282	-0.0866393	-0.151172	-0.481126	0.249342	-0.0011435	0.1078	-0.611095	-0.696089	-0.235918	0.0727332	-0.356332	-0.316115	-0.35332	-0.407598	-0.35267	-0.222711	-0.111913	-0.150099	-0.109942	0.190335	-0.103598	0.307966	-0.498142	0.084759	-0.225842	0.13642	-0.486825	-0.0727623	-0.271815	-0.234073	
1.0496	3.54462	5	0	108.852	42.282	-0.0848955	-0.145003	-0.486708	0.25497	9.8E-05	0.111987	-0.609482	-0.69101	-0.229816	0.0895075	-0.36041	-0.304588	-0.34634	-0.397159	-0.350228	-0.22078	-0.104547	-0.144983	-0.106996	0.190136	-0.103356	0.318124	-0.497383	0.082612	-0.219168	0.132059	-0.478743	-0.0723065	-0.2664	-0.225816	
1.05344	3.54767	5	0	108.852	42.282	-0.0831517	-0.138834	-0.49229	0.260598	0.0013395	0.116173	-0.607868	-0.685932	-0.223714	0.106282	-0.364489	-0.293061	-0.339361	-0.386721	-0.347787	-0.21885	-0.0971798	-0.139868	-0.10405	0.189936	-0.103113	0.328282	-0.496623	0.080465	-0.212495	0.127699	-0.470661	-0.0718508	-0.260985	-0.21756	
1.05753	3.54309	5	0	108.852	42.282	-0.081408	-0.132666	-0.497872	0.266226	0.002581	0.12036	-0.606255	-0.680853	-0.217612	0.123056	-0.368568	-0.281534	-0.332382	-0.376282	-0.345346	-0.21692	-0.089813	-0.134753	-0.101103	0.189737	-0.10287	0.33844	-0.495863	0.078318	-0.205821	0.123338	-0.462579	-0.071395	-0.255569	-0.209303	
1.06145	3.54614	5	0	108.852	42.282	-0.0853937	-0.132499	-0.494227	0.255926	-0.0014345	0.116321	-0.608809	-0.683274	-0.215699	0.117649	-0.365509	-0.290181	-0.33411	-0.371398	-0.343734	-0.230304	-0.0870703	-0.142504	-0.103026	0.17892	-0.0971875	0.311536	-0.50667	0.0820792	-0.219918	0.134189	-0.462579	-0.071395	-0.246264	-0.212009	
1.06479	3.54309	5	0	108.852	42.282	-0.0893795	-0.132331	-0.490582	0.245625	-0.00545	0.112282	-0.611363	-0.685694	-0.213785	0.112241	-0.362449	-0.298828	-0.335839	-0.366514	-0.342122	-0.243689	-0.0843275	-0.150255	-0.10495	0.168102	-0.091505	0.284632	-0.517477	0.0858405	-0.234015	0.145039	-0.462579	-0.071395	-0.236958	-0.214716	
1.06713	3.54309	5	0	108.852	42.282	-0.0933652	-0.132163	-0.486938	0.235324	-0.0094655	0.108243	-0.613917	-0.688114	-0.211871	0.106833	-0.359389	-0.307474	-0.337567	-0.36163	-0.340511	-0.257073	-0.0815847	-0.158006	-0.106873	0.157285	-0.0858225	0.257728	-0.528283	0.0896018	-0.248112	0.15589	-0.462579	-0.071395	-0.227653	-0.217422	
1.06805	3.54309	5	0	108.852	42.282	-0.097351	-0.131996	-0.483293	0.225024	-0.013481	0.104204	-0.616471	-0.690535	-0.209958	0.101426	-0.35633	-0.316121	-0.339295	-0.356746	-0.338899	-0.270457	-0.078842	-0.165757	-0.108796	0.146468	-0.08014	0.230824	-0.53909	0.093363	-0.262209	0.166741	-0.462579	-0.071395	-0.218348	-0.220128	
1.06719	3.54614	5	0	108.852	42.282	-0.0933652	-0.132163	-0.484204	0.227598	-0.0094655	0.108243	-0.616742	-0.68013	-0.209779	0.117954	-0.36041	-0.30459	-0.337535	-0.346619	-0.338077	-0.26395	-0.0815847	-0.158006	-0.108231	0.152996	-0.07608	0.241045	-0.535743	0.0928257	-0.252204	0.160204	-0.460737	-0.0649425	-0.210068	-0.212026	
1.06463	3.54767	5	0	108.852	42.282	-0.0893795	-0.132331	-0.485115	0.230172	-0.00545	0.112282	-0.617013	-0.669725	-0.209601	0.134481	-0.36449	-0.29306	-0.335776	-0.336491	-0.337256	-0.257443	-0.0843275	-0.150255	-0.107666	0.159523	-0.07202	0.251267	-0.532396	0.0922885	-0.2422	0.153666	-0.458894	-0.05849	-0.201788	-0.203925	
1.06068	3.54462	5	0	108.852	42.282	-0.0853937	-0.132499	-0.486025	0.232746	-0.0014345	0.116321	-0.617285	-0.65932	-0.209422	0.151008	-0.36857	-0.281529	-0.334017	-0.326364	-0.336434	-0.250937	-0.0870703	-0.142504	-0.107101	0.166051	-0.06796	0.261488	-0.529048	0.0917513	-0.232195	0.147129	-0.457052	-0.0520375	-0.193508	-0.195823	
1.05568	3.54919	5	0	108.852	42.282	-0.081408	-0.132666	-0.486936	0.23532	0.002581	0.12036	-0.617556	-0.648915	-0.209243	0.167536	-0.37265	-0.269998	-0.332257	-0.316237	-0.335612	-0.24443	-0.089813	-0.134753	-0.106536	0.172579	-0.0639	0.271709	-0.525701	0.091214	-0.22219	0.140592	-0.45521	-0.045585	-0.185228	-0.187721	
1.04996	3.5553	5	0	108.452	42.127	-0.0751763	-0.139175	-0.486025	0.232746	0.0041145	0.116026	-0.615672	-0.654239	-0.207326	0.162118	-0.370609	-0.275765	-0.332257	-0.316237	-0.334814	-0.255514	-0.0870703	-0.142504	-0.106308	0.16381	-0.0606017	0.251537	-0.528289	0.0896057	-0.234772	0.147174	-0.453448	-0.0505657	-0.17797	-0.192464	
1.04386	3.5614	5	0	108.052	41.972	-0.0689445	-0.145684	-0.485115	0.230172	0.005648	0.111691	-0.613789	-0.659563	-0.205409	0.156701	-0.368568	-0.281533	-0.332257	-0.316237	-0.334017	-0.266599	-0.0843275	-0.150255	-0.10608	0.155041	-0.0573035	0.231365	-0.530877	0.0879975	-0.247355	0.153756	-0.451685	-0.0555465	-0.170711	-0.197207	
1.03771	3.56445	5	0	107.652	41.8171	-0.0627127	-0.152192	-0.484204	0.227598	0.0071815	0.107357	-0.611905	-0.664886	-0.203492	0.151283	-0.366528	-0.2873	-0.332257	-0.316237	-0.333219	-0.277683	-0.0815847	-0.158006	-0.105852	0.146272	-0.0540053	0.211193	-0.533465	0.0863893	-0.259937	0.160338	-0.449923	-0.0605272	-0.163453	-0.20195	
1.03183	3.56903	5	0	107.252	41.6621	-0.056481	-0.158701	-0.483293	0.225024	0.008715	0.103023	-0.610021	-0.67021	-0.201575	0.145866	-0.364487	-0.293067	-0.332257	-0.316237	-0.332421	-0.288767	-0.078842	-0.165757	-0.105624	0.137503	-0.050707	0.191021	-0.536053	0.084781	-0.27252	0.16692	-0.44816	-0.065508	-0.156194	-0.206693	
1.02656	3.57208	5	0	114.376	21.5292	-0.059847	-0.149189	-0.484204	0.227598	0.0099575	0.10721	-0.614733	-0.656895	-0.203325	0.167859	-0.36857	-0.281529	-0.333989	-0.311342	-0.334851	-0.2819	-0.077602	-0.160608	-0.105058	0.144028	-0.0478223	0.204576	-0.536812	0.0869265	-0.266608	0.164697	-0.445435	-0.0615445	-0.149967	-0.20061	
1.02206	3.57818	5	0	121.5	1.39624	-0.063213	-0.139677	-0.485115	0.230172	0.0112	0.111397	-0.619444	-0.643579	-0.205074	0.189852	-0.372652	-0.269991	-0.335721	-0.306447	-0.33728	-0.275033	-0.076362	-0.15546	-0.104492	0.150554	-0.0449375	0.218131	-0.537571	0.089072	-0.260697	0.162474	-0.442709	-0.057581	-0.14374	-0.194528	
1.01833	3.58429	5	0	128.624	-18.7367	-0.066579	-0.130164	-0.486025	0.232746	0.0124425	0.115584	-0.624155	-0.630264	-0.206823	0.211844	-0.376735	-0.258452	-0.337453	-0.301553	-0.33971	-0.268165	-0.075122	-0.150311	-0.103926	0.157079	-0.0420527	0.231687	-0.538331	0.0912175	-0.254785	0.160251	-0.439983	-0.0536175	-0.137512	-0.188445	
1.01535	3.58429	5	0	135.748	-38.8697	-0.069945	-0.120652	-0.486936	0.23532	0.013685	0.119771	-0.628867	-0.616949	-0.208573	0.233837	-0.380818	-0.246914	-0.339185	-0.296658	-0.34214	-0.261298	-0.073882	-0.145162	-0.10336	0.163604	-0.039168	0.245242	-0.53909	0.093363	-0.248874	0.158028	-0.437258	-0.049654	-0.131285	-0.182363	
1.01311	3.59192	5	0	113.758	-29.1245	-0.0688225	-0.123824	-0.490693	0.235796	0.0124425	0.115584	-0.629533	-0.624704	-0.212578	0.228106	-0.376735	-0.258452	-0.339185	-0.296658	-0.33971	-0.268165	-0.075122	-0.150311	-0.0993938	0.152394	-0.04087	0.228344	-0.54502	0.092291	-0.258871	0.16456	-0.439103	-0.056107	-0.127391	-0.193368	
1.0116	3.59344	5	0	91.7679	-19.3793	-0.0677	-0.126996	-0.494451	0.236272	0.0112	0.111397	-0.6302	-0.632459	-0.216583	0.222376	-0.372652	-0.269991	-0.339185	-0.296658	-0.33728	-0.275033	-0.076362	-0.15546	-0.0954275	0.141185	-0.042572	0.211446	-0.55095	0.091219	-0.268869	0.171092	-0.440947	-0.06256	-0.123497	-0.204373	
1.0108	3.6026	5	0	69.7781	-9.6341	-0.0665775	-0.130167	-0.498208	0.236748	0.0099575	0.10721	-0.630866	-0.640215	-0.220587	0.216645	-0.36857	-0.281529	-0.339185	-0.296658	-0.334851	-0.2819	-0.077602	-0.160608	-0.0914612	0.129975	-0.044274	0.194547	-0.556881	0.090147	-0.278866	0.177625	-0.442792	-0.069013	-0.119603	-0.215379	
1.01071	3.60107	5	0	47.7882	0.11109	-0.065455	-0.133339	-0.501965	0.237224	0.008715	0.103023	-0.631532	-0.64797	-0.224592	0.210914	-0.364487	-0.293067	-0.339185	-0.296658	-0.332421	-0.288767	-0.078842	-0.165757	-0.087495	0.118766	-0.045976	0.177649	-0.562811	0.089075	-0.288863	0.184157	-0.444637	-0.075466	-0.115709	-0.226384	
1.01132	3.60718	5	0	46.9641	0.869171	-0.0716877	-0.126828	-0.503899	0.232555	0.0051735	0.105337	-0.633416	-0.642645	-0.220587	0.216645	-0.370421	-0.286973	-0.339185	-0.296658	-0.333231	-0.286478	-0.0757735	-0.165776	-0.0928203	0.125691	-0.0380885	0.18793	-0.56357	0.0912195	-0.282199	0.179803	-0.439267	-0.0789745	-0.109992	-0.226737	
1.01255	3.60718	5	0	46.14	1.62725	-0.0779205	-0.120317	-0.505834	0.227885	0.001632	0.107652	-0.635301	-0.63732	-0.216583	0.222376	-0.376356	-0.280879	-0.339185	-0.296658	-0.334041	-0.28419	-0.072705	-0.165796	-0.0981455	0.132617	-0.030201	0.198211	-0.564329	0.093364	-0.275536	0.175449	-0.433897	-0.082483	-0.104275	-0.227089	
1.01427	3.61328	5	0	45.3159	2.38533	-0.0841532	-0.113806	-0.507768	0.223216	-0.0019095	0.109966	-0.637185	-0.631994	-0.212578	0.228106	-0.38229	-0.274784	-0.339185	-0.296658	-0.33485	-0.281902	-0.0696365	-0.165816	-0.103471	0.139542	-0.0223135	0.208491	-0.565087	0.0955085	-0.268873	0.171095	-0.428528	-0.0859915	-0.098558	-0.227441	
1.01635	3.61023	5	0	44.4918	3.14341	-0.090386	-0.107295	-0.509702	0.218547	-0.005451	0.11228	-0.639069	-0.626669	-0.208573	0.233837	-0.388224	-0.26869	-0.339185	-0.296658	-0.33566	-0.279613	-0.066568	-0.165835	-0.108796	0.146468	-0.014426	0.218772	-0.565846	0.097653	-0.262209	0.166741	-0.423158	-0.0895	-0.092841	-0.227794	
1.01865	3.61633	5	0	45.6702	3.68046	-0.0932487	-0.1103	-0.508792	0.215976	-0.0074585	0.110261	-0.637185	-0.631994	-0.212578	0.228106	-0.386184	-0.274455	-0.342672	-0.301904	-0.337293	-0.283822	-0.070877	-0.170959	-0.106417	0.139746	-0.0173193	0.205228	-0.565087	0.0955085	-0.272202	0.173271	-0.430373	-0.0924355	-0.0962237	-0.234038	
1.02103	3.61938	5	0	46.8487	4.21751	-0.0961115	-0.113306	-0.507883	0.213405	-0.009466	0.108242	-0.635301	-0.63732	-0.216583	0.222376	-0.384144	-0.280221	-0.346158	-0.307149	-0.338926	-0.288032	-0.075186	-0.176083	-0.104039	0.133023	-0.0202125	0.191684	-0.564329	0.093364	-0.282196	0.179801	-0.437588	-0.095371	-0.0996065	-0.240282	
1.02336	3.62396	5	0	48.0271	4.75456	-0.0989742	-0.116312	-0.506973	0.210834	-0.0114735	0.106223	-0.633416	-0.642645	-0.220587	0.216645	-0.382104	-0.285987	-0.349644	-0.312395	-0.340559	-0.292242	-0.079495	-0.181207	-0.101661	0.126301	-0.0231058	0.17814	-0.56357	0.0912195	-0.292189	0.18633	-0.444803	-0.0983065	-0.102989	-0.246526	
1.02549	3.62396	5	0	49.2055	5.29161	-0.101837	-0.119317	-0.506063	0.208263	-0.013481	0.104204	-0.631532	-0.64797	-0.224592	0.210914	-0.380064	-0.291752	-0.353131	-0.317641	-0.342192	-0.296451	-0.083804	-0.186331	-0.099282	0.119579	-0.025999	0.164596	-0.562811	0.089075	-0.302182	0.19286	-0.452018	-0.101242	-0.106372	-0.25277	
1.02729	3.62701	5	0	50.568	5.57617	-0.100715	-0.122487	-0.507998	0.203601	-0.0162535	0.104351	-0.63785	-0.639748	-0.220587	0.216645	-0.381084	-0.28887	-0.354862	-0.312749	-0.341369	-0.289953	-0.0865443	-0.178586	-0.100301	0.130585	-0.0231058	0.17814	-0.55764	0.092293	-0.292189	0.18633	-0.454658	-0.0937802	-0.10221	-0.248726	
1.02866	3.62854	5	0	51.9304	5.86072	-0.099594	-0.125657	-0.509934	0.198939	-0.019026	0.104498	-0.644168	-0.631525	-0.216583	0.222376	-0.382104	-0.285988	-0.356593	-0.307857	-0.340546	-0.283454	-0.0892845	-0.170842	-0.101321	0.141592	-0.0202125	0.191684	-0.552469	0.095511	-0.282196	0.179801	-0.457298	-0.0863185	-0.098049	-0.244683	
1.02962	3.63312	5	0	53.2929	6.14527	-0.0984725	-0.128826	-0.511869	0.194277	-0.0217985	0.104645	-0.650486	-0.623302	-0.212578	0.228106	-0.383123	-0.283105	-0.358324	-0.302965	-0.339722	-0.276956	-0.0920248	-0.163098	-0.102341	0.152598	-0.0173193	0.205228	-0.547298	0.098729	-0.272202	0.173271	-0.459939	-0.0788568	-0.0938875	-0.24064	
1.03019	3.63159	5	0	54.6554	6.42983	-0.097351	-0.131996	-0.513804	0.189615	-0.024571	0.104792	-0.656804	-0.61508	-0.208573	0.233837	-0.384143	-0.280223	-0.360055	-0.298073	-0.338899	-0.270457	-0.094765	-0.155353	-0.10336	0.163604	-0.014426	0.218772	-0.542127	0.101947	-0.262209	0.166741	-0.462579	-0.071395	-0.089726	-0.236596	
1.03039	3.63312	5	0	57.7674	1.86999	-0.103577	-0.125491	-0.512895	0.187047	-0.023805	0.102627	-0.656804	-0.61508	-0.212578	0.228106	-0.388035	-0.279896	-0.354838	-0.297719	-0.340532	-0.274668	-0.0938512	-0.157935	-0.102566	0.161361	-0.018502	0.208571	-0.542127	0.101947	-0.268873	0.171095	-0.461699	-0.073883	-0.08453	-0.243373	
1.03026	3.63159	0	0	60.8795	-2.68985	-0.109802	-0.118986	-0.511987	0.184478	-0.023039	0.100462	-0.656804	-0.61508	-0.216583	0.222376	-0.391926	-0.27957	-0.34962	-0.297365	-0.342164	-0.27888	-0.0929375	-0.160517	-0.101773	0.159118	-0.022578	0.198369	-0.542127	0.101947	-0.275536	0.175449	-0.460819	-0.076371	-0.079334	-0.25015	
1.0298	3.63464	0	0	63.9915	-7.24969	-0.116028	-0.112482	-0.511078	0.18191	-0.022273	0.0982977	-0.656804	-0.61508	-0.220587	0.216645	-0.395817	-0.279243	-0.344403	-0.297012	-0.343797	-0.283091	-0.0920238	-0.1631	-0.100979	0.156875	-0.026654	0.188168	-0.542127	0.101947	-0.282199	0.179803	-0.459938	-0.078859	-0.074138	-0.256928	
1.02906	3.63312	0	0	67.1036	-11.8095	-0.122254	-0.105977	-0.510169	0.179342	-0.021507	0.096133	-0.656804	-0.61508	-0.224592	0.210914	-0.399709	-0.278916	-0.339185	-0.296658	-0.34543	-0.287302	-0.09111	-0.165682	-0.100186	0.154632	-0.03073	0.177967	-0.542127	0.101947	-0.288863	0.184157	-0.459058	-0.081347	-0.068942	-0.263705	
1.02805	3.63159	0	0	69.0519	-13.1926	-0.120517	-0.0997963	-0.50369	0.171161	-0.0250442	0.0984442	-0.655199	-0.609983	-0.230357	0.227206	-0.397858	-0.273475	-0.337431	-0.286502	-0.344608	-0.280801	-0.0917005	-0.155364	-0.0966728	0.160963	-0.0278395	0.191519	-0.532841	0.102483	-0.275531	0.175446	-0.458096	-0.0724065	-0.0650258	-0.251031	
1.02681	3.63464	0	0	71.0002	-14.5756	-0.11878	-0.0936155	-0.49721	0.162981	-0.0285815	0.100755	-0.653594	-0.604886	-0.236121	0.243498	-0.396007	-0.268035	-0.335678	-0.276346	-0.343785	-0.2743	-0.092291	-0.145047	-0.0931595	0.167293	-0.024949	0.20507	-0.523555	0.103018	-0.262199	0.166735	-0.457134	-0.063466	-0.0611095	-0.238357	
1.0254	3.63312	0	0	72.9485	-15.9587	-0.117042	-0.0874348	-0.490731	0.1548	-0.0321188	0.103067	-0.651988	-0.59979	-0.241886	0.259789	-0.394157	-0.262595	-0.333924	-0.266191	-0.342963	-0.267799	-0.0928815	-0.13473	-0.0896462	0.173624	-0.0220585	0.218622	-0.514268	0.103553	-0.248867	0.158023	-0.456172	-0.0545255	-0.0571933	-0.225684	
1.02388	3.62854	0	0	74.8969	-17.3417	-0.115305	-0.081254	-0.484252	0.146619	-0.035656	0.105378	-0.650383	-0.594693	-0.24765	0.276081	-0.392306	-0.257154	-0.33217	-0.256035	-0.34214	-0.261298	-0.093472	-0.124412	-0.086133	0.179955	-0.019168	0.232174	-0.504982	0.104089	-0.235535	0.149312	-0.45521	-0.045585	-0.053277	-0.21301	
1.02233	3.63312	0	0	76.2716	-17.3976	-0.107334	-0.0815808	-0.484252	0.146619	-0.035656	0.105378	-0.650383	-0.594693	-0.245727	0.270647	-0.386371	-0.263249	-0.333906	-0.251129	-0.33971	-0.268165	-0.094387	-0.121826	-0.0869275	0.182201	-0.0220585	0.218622	-0.504982	0.104089	-0.245536	0.155847	-0.451604	-0.04411	-0.0496315	-0.215392	
1.02081	3.63159	0	0	77.6464	-17.4535	-0.0993635	-0.0819075	-0.484252	0.146619	-0.035656	0.105378	-0.650383	-0.594693	-0.243805	0.265213	-0.380437	-0.269344	-0.335642	-0.246224	-0.33728	-0.275033	-0.095302	-0.11924	-0.087722	0.184447	-0.024949	0.20507	-0.504982	0.104089	-0.255536	0.162382	-0.447997	-0.042635	-0.045986	-0.217774	
1.01939	3.63159	0	0	79.0212	-17.5094	-0.0913927	-0.0822342	-0.484252	0.146619	-0.035656	0.105378	-0.650383	-0.594693	-0.241882	0.25978	-0.374503	-0.275439	-0.337377	-0.241318	-0.334851	-0.2819	-0.096217	-0.116654	-0.0885165	0.186693	-0.0278395	0.191519	-0.504982	0.104089	-0.265537	0.168916	-0.444391	-0.04116	-0.0423405	-0.220156	
1.01815	3.62701	0	0	80.396	-17.5654	-0.083422	-0.082561	-0.484252	0.146619	-0.035656	0.105378	-0.650383	-0.594693	-0.239959	0.254346	-0.368568	-0.281534	-0.339113	-0.236412	-0.332421	-0.288767	-0.097132	-0.114068	-0.089311	0.188939	-0.03073	0.177967	-0.504982	0.104089	-0.275538	0.175451	-0.440785	-0.039685	-0.038695	-0.222538	
1.01715	3.62396	0	0	81.6304	-17.2489	-0.0896562	-0.0760455	-0.481529	0.138924	-0.0341245	0.10105	-0.647834	-0.592258	-0.241882	0.25978	-0.37061	-0.275765	-0.335626	-0.231141	-0.331597	-0.282265	-0.095896	-0.108908	-0.0850015	0.193034	-0.0278395	0.191519	-0.499797	0.107311	-0.261446	0.164604	-0.436215	-0.0292442	-0.0360818	-0.214072	
1.01646	3.62244	0	0	82.8649	-16.9324	-0.0958905	-0.06953	-0.478806	0.131228	-0.032593	0.0967225	-0.645285	-0.589824	-0.243805	0.265213	-0.372651	-0.269996	-0.33214	-0.225871	-0.330773	-0.275763	-0.09466	-0.103748	-0.080692	0.197128	-0.024949	0.20507	-0.494612	0.110533	-0.247355	0.153756	-0.431646	-0.0188035	-0.0334685	-0.205605	
1.01606	3.62701	0	0	84.0993	-16.616	-0.102125	-0.0630145	-0.476083	0.123533	-0.0310615	0.0923947	-0.642737	-0.587389	-0.245727	0.270647	-0.374692	-0.264227	-0.328653	-0.2206	-0.32995	-0.269261	-0.093424	-0.098588	-0.0763825	0.201223	-0.0220585	0.218622	-0.489427	0.113754	-0.233263	0.142908	-0.427077	-0.00836275	-0.0308553	-0.197138	
1.01595	3.62244	0	0	85.3338	-16.2995	-0.108359	-0.056499	-0.47336	0.115838	-0.02953	0.088067	-0.640188	-0.584954	-0.24765	0.276081	-0.376734	-0.258458	-0.325167	-0.215329	-0.329126	-0.262759	-0.092188	-0.093428	-0.072073	0.205318	-0.019168	0.232174	-0.484242	0.116976	-0.219171	0.132061	-0.422507	0.002078	-0.028242	-0.188672	
1.01609	3.62244	0	0	86.3162	-16.695	-0.100385	-0.056823	-0.474267	0.118402	-0.0302957	0.0902307	-0.640188	-0.584954	-0.243806	0.265217	-0.377755	-0.255572	-0.314706	-0.214607	-0.328316	-0.265049	-0.092188	-0.093428	-0.072073	0.205318	-0.0217975	0.228741	-0.480126	0.114286	-0.219171	0.132061	-0.421549	0.0110585	-0.024592	-0.191057	
1.01645	3.62091	5	0	87.2986	-17.0905	-0.09241	-0.057147	-0.475174	0.120967	-0.0310615	0.0923945	-0.640188	-0.584954	-0.239961	0.254352	-0.378776	-0.252686	-0.304246	-0.213885	-0.327506	-0.26734	-0.092188	-0.093428	-0.072073	0.205318	-0.024427	0.225308	-0.476009	0.111597	-0.219171	0.132061	-0.42059	0.020039	-0.020942	-0.193442	
1.01702	3.62091	5	0	88.281	-17.4859	-0.0844355	-0.057471	-0.476082	0.123531	-0.0318273	0.0945583	-0.640188	-0.584954	-0.236117	0.243487	-0.379797	-0.2498	-0.293785	-0.213163	-0.326695	-0.26963	-0.092188	-0.093428	-0.072073	0.205318	-0.0270565	0.221876	-0.471893	0.108907	-0.219171	0.132061	-0.419632	0.0290195	-0.017292	-0.195827	
1.01777	3.61481	5	0	89.2634	-17.8814	-0.076461	-0.057795	-0.476989	0.126095	-0.032593	0.096722	-0.640188	-0.584954	-0.232273	0.232623	-0.380818	-0.246914	-0.283324	-0.212441	-0.325885	-0.27192	-0.092188	-0.093428	-0.072073	0.205318	-0.029686	0.218443	-0.467777	0.106217	-0.219171	0.132061	-0.418674	0.038	-0.013642	-0.198212	
1.01867	3.61481	5	0	91.3585	-20.7421	-0.0753362	-0.0609738	-0.47893	0.121451	-0.0338325	0.0925428	-0.641132	-0.582286	-0.236117	0.243487	-0.376923	-0.24724	-0.274587	-0.206798	-0.320994	-0.26807	-0.0860498	-0.0934575	-0.0707133	0.209617	-0.0241703	0.235465	-0.462583	0.109439	-0.199126	0.118963	-0.413218	0.0459808	-0.00528	-0.190087	
1.01969	3.61175	5	0	93.4536	-23.6029	-0.0742115	-0.0641525	-0.480872	0.116807	-0.035072	0.0883635	-0.642076	-0.579618	-0.239961	0.254352	-0.373027	-0.247565	-0.26585	-0.201156	-0.316104	-0.26422	-0.0799115	-0.093487	-0.0693535	0.213916	-0.0186545	0.252487	-0.45739	0.112661	-0.179082	0.105866	-0.407763	0.0539615	0.003082	-0.181962	
1.02077	3.60718	5	0	95.5487	-26.4636	-0.0730868	-0.0673313	-0.482814	0.112162	-0.0363115	0.0841843	-0.64302	-0.57695	-0.243806	0.265217	-0.369132	-0.247891	-0.257112	-0.195514	-0.311214	-0.26037	-0.0737732	-0.0935165	-0.0679937	0.218215	-0.0131388	0.269508	-0.452196	0.115884	-0.159037	0.0927678	-0.402307	0.0619422	0.011444	-0.173837	
1.02182	3.60718	5	0	97.6437	-29.3244	-0.071962	-0.07051	-0.484755	0.107518	-0.037551	0.080005	-0.643964	-0.574282	-0.24765	0.276081	-0.365237	-0.248217	-0.248375	-0.189871	-0.306323	-0.25652	-0.067635	-0.093546	-0.066634	0.222514	-0.007623	0.28653	-0.447002	0.119106	-0.138992	0.07967	-0.396852	0.069923	0.019806	-0.165712	
1.02275	3.6087	5	0	99.7243	-32.7174	-0.0690955	-0.0674945	-0.482814	0.112162	-0.0312433	0.077546	-0.64047	-0.574514	-0.245727	0.270647	-0.366259	-0.245329	-0.239624	-0.184219	-0.306323	-0.25652	-0.0645635	-0.0935615	-0.0628848	0.220064	-0.007623	0.28653	-0.447002	0.119106	-0.133055	0.07743	-0.39501	0.076427	0.0260858	-0.159606	
1.02347	3.61023	5	0	101.805	-36.1104	-0.066229	-0.064479	-0.480872	0.116807	-0.0249355	0.075087	-0.636976	-0.574745	-0.243805	0.265213	-0.367281	-0.242441	-0.230873	-0.178567	-0.306323	-0.25652	-0.061492	-0.093577	-0.0591355	0.217614	-0.007623	0.28653	-0.447002	0.119106	-0.127117	0.07519	-0.393168	0.082931	0.0323655	-0.1535	
1.02389	3.60718	5	0	103.886	-39.5033	-0.0633625	-0.0614635	-0.47893	0.121451	-0.0186277	0.072628	-0.633482	-0.574977	-0.241882	0.25978	-0.368302	-0.239554	-0.222121	-0.172915	-0.306323	-0.25652	-0.0584205	-0.0935925	-0.0553862	0.215165	-0.007623	0.28653	-0.447002	0.119106	-0.12118	0.07295	-0.391325	0.089435	0.0386452	-0.147394	
1.02391	3.60412	5	0	105.966	-42.8963	-0.060496	-0.058448	-0.476989	0.126095	-0.01232	0.070169	-0.629988	-0.575208	-0.239959	0.254346	-0.369324	-0.236666	-0.21337	-0.167263	-0.306323	-0.25652	-0.055349	-0.093608	-0.051637	0.212715	-0.007623	0.28653	-0.447002	0.119106	-0.115243	0.07071	-0.389483	0.095939	0.044925	-0.141288	
1.02346	3.6026	5	0	105.687	-43.9176	-0.059371	-0.0616277	-0.479837	0.124014	-0.0186277	0.072628	-0.631877	-0.569868	-0.249721	0.264902	-0.371369	-0.230887	-0.209863	-0.161964	-0.303864	-0.24578	-0.0581002	-0.0858322	-0.0510725	0.219269	-0.00330175	0.306985	-0.445928	0.125027	-0.0917797	0.0553787	-0.393923	0.108487	0.047285	-0.124074	
1.02243	3.59955	5	0	105.408	-44.9388	-0.058246	-0.0648075	-0.482685	0.121932	-0.0249355	0.075087	-0.633767	-0.564528	-0.259483	0.275458	-0.373413	-0.225109	-0.206356	-0.156664	-0.301406	-0.235039	-0.0608515	-0.0780565	-0.050508	0.225823	0.0010195	0.327439	-0.444853	0.130947	-0.0683165	0.0400475	-0.398363	0.121036	0.049645	-0.106859	
1.02085	3.59497	5	0	105.129	-45.9601	-0.057121	-0.0679872	-0.485534	0.119851	-0.0312433	0.077546	-0.635656	-0.559189	-0.269246	0.286015	-0.375458	-0.21933	-0.202849	-0.151365	-0.298948	-0.224299	-0.0636027	-0.0702808	-0.0499435	0.232377	0.00534075	0.347894	-0.443778	0.136868	-0.0448532	0.0247162	-0.402803	0.133584	0.052005	-0.0896445	
1.01883	3.59497	5	0	104.85	-46.9814	-0.055996	-0.071167	-0.488382	0.11777	-0.037551	0.080005	-0.637546	-0.553849	-0.279008	0.296571	-0.377503	-0.213552	-0.199342	-0.146066	-0.296489	-0.213558	-0.066354	-0.062505	-0.049379	0.238931	0.009662	0.368349	-0.442704	0.142788	-0.02139	0.009385	-0.407243	0.146132	0.054365	-0.07243	
1.01649	3.59344	5	0	105.325	-46.513	-0.0553795	-0.061786	-0.487349	0.124982	-0.0327742	0.0818728	-0.635941	-0.548735	-0.267171	0.297199	-0.369707	-0.214201	-0.188821	-0.145342	-0.297302	-0.211261	-0.062364	-0.065112	-0.0509732	0.243437	0.0108542	0.36498	-0.437817	0.137939	-0.02139	0.009385	-0.402738	0.14512	0.0564602	-0.0703832	
1.01394	3.59344	5	0	105.799	-46.0446	-0.054763	-0.052405	-0.486317	0.132194	-0.0279975	0.0837405	-0.634337	-0.543621	-0.255333	0.297827	-0.361911	-0.21485	-0.178299	-0.144618	-0.298115	-0.208964	-0.058374	-0.067719	-0.0525675	0.247943	0.0120465	0.36161	-0.432931	0.133089	-0.02139	0.009385	-0.398234	0.144107	0.0585555	-0.0683365	
1.0113	3.59192	5	0	106.274	-45.5763	-0.0541465	-0.043024	-0.485285	0.139407	-0.0232207	0.0856082	-0.632733	-0.538508	-0.243496	0.298455	-0.354114	-0.215499	-0.167778	-0.143893	-0.298927	-0.206668	-0.054384	-0.070326	-0.0541618	0.252448	0.0132388	0.35824	-0.428044	0.12824	-0.02139	0.009385	-0.39373	0.143095	0.0606507	-0.0662897	
1.0087	3.58734	5	0	106.749	-45.1079	-0.05353	-0.033643	-0.484252	0.146619	-0.018444	0.087476	-0.631128	-0.533394	-0.231659	0.299083	-0.346318	-0.216148	-0.157257	-0.143169	-0.29974	-0.204371	-0.050394	-0.072933	-0.055756	0.256954	0.014431	0.354871	-0.423158	0.123391	-0.02139	0.009385	-0.389225	0.142083	0.062746	-0.064243	
1.00626	3.58734	5	0	107.537	-44.9035	-0.0524037	-0.0368262	-0.482436	0.141488	-0.0204502	0.0854605	-0.632074	-0.530721	-0.233585	0.304527	-0.34939	-0.207467	-0.15374	-0.137859	-0.297286	-0.193602	-0.049156	-0.0677587	-0.058149	0.263717	0.0137227	0.378682	-0.422082	0.129315	-0.005346	0.0005415	-0.388276	0.151126	0.0682487	-0.0558697	
