4.0329	0	0	0.961442	0.033833	-0.130602	-0.158798	-0.211262	-0.237016	-0.200124	-0.049363	-0.536584	-0.440247	-0.220857	-0.046279	-0.495215	-0.530641	-0.731774	-0.750107	-0.38493	-0.493045	-0.257616	-0.479887	-0.169025	-0.248332	-0.008615	-0.254669	-0.11765	-0.208119	-0.26226	0.168087	-0.169866	-0.221235	-0.029505	-0.161521	
4.0329	0	0	0.762306	0.0110673	-0.121968	-0.171906	-0.207445	-0.237408	-0.19583	-0.0538215	-0.535994	-0.452162	-0.210843	-0.0570985	-0.49367	-0.54628	-0.729872	-0.755482	-0.386587	-0.506544	-0.252837	-0.484916	-0.168824	-0.256945	-0.0106127	-0.26995	-0.117965	-0.216326	-0.272108	0.174522	-0.169882	-0.233179	-0.0320105	-0.170414	
4.02832	0	0	0.563169	-0.0116985	-0.113335	-0.185014	-0.203627	-0.2378	-0.191536	-0.05828	-0.535404	-0.464077	-0.200829	-0.067918	-0.492125	-0.561918	-0.72797	-0.760857	-0.388243	-0.520042	-0.248059	-0.489945	-0.168623	-0.265559	-0.0126105	-0.285231	-0.11828	-0.224533	-0.281956	0.180956	-0.169898	-0.245123	-0.034516	-0.179308	
4.03137	0	0	0.364033	-0.0344643	-0.104701	-0.198123	-0.19981	-0.238192	-0.187243	-0.0627385	-0.534814	-0.475992	-0.190816	-0.0787375	-0.490579	-0.577557	-0.726068	-0.766232	-0.3899	-0.533541	-0.243281	-0.494973	-0.168421	-0.274172	-0.0146082	-0.300513	-0.118594	-0.232741	-0.291803	0.187391	-0.169914	-0.257066	-0.0370215	-0.188201	
4.02679	0	0	0.164897	-0.05723	-0.096067	-0.211231	-0.195992	-0.238584	-0.182949	-0.067197	-0.534224	-0.487907	-0.180802	-0.089557	-0.489034	-0.593195	-0.724166	-0.771607	-0.391557	-0.547039	-0.238502	-0.500002	-0.16822	-0.282785	-0.016606	-0.315794	-0.118909	-0.240948	-0.301651	0.193826	-0.16993	-0.26901	-0.039527	-0.197094	
4.02832	0	0	0.0119122	-0.0679083	-0.105313	-0.207676	-0.19696	-0.235848	-0.17664	-0.0696667	-0.535759	-0.493813	-0.18277	-0.0839945	-0.486793	-0.599529	-0.725899	-0.782857	-0.393225	-0.551409	-0.237625	-0.502481	-0.16666	-0.287194	-0.0113343	-0.309766	-0.119683	-0.23876	-0.291803	0.187391	-0.164412	-0.272616	-0.0374665	-0.194932	
4.02679	0	0	-0.141073	-0.0785865	-0.11456	-0.204122	-0.197928	-0.233113	-0.17033	-0.0721365	-0.537293	-0.499719	-0.184738	-0.078432	-0.484552	-0.605862	-0.727632	-0.794107	-0.394892	-0.555779	-0.236748	-0.50496	-0.1651	-0.291603	-0.0060625	-0.303737	-0.120457	-0.236573	-0.281956	0.180956	-0.158894	-0.276222	-0.035406	-0.192771	
4.02832	0	0	-0.294057	-0.0892648	-0.123806	-0.200568	-0.198896	-0.230377	-0.164021	-0.0746063	-0.538828	-0.505624	-0.186707	-0.0728695	-0.482311	-0.612196	-0.729365	-0.805356	-0.39656	-0.560149	-0.235871	-0.507439	-0.163539	-0.296012	-0.00079075	-0.297708	-0.121231	-0.234385	-0.272108	0.174522	-0.153376	-0.279827	-0.0333455	-0.190609	
4.02527	0	0	-0.447042	-0.099943	-0.133052	-0.197013	-0.199864	-0.227641	-0.157712	-0.077076	-0.540362	-0.51153	-0.188675	-0.067307	-0.48007	-0.61853	-0.731098	-0.816606	-0.398228	-0.564519	-0.234994	-0.509918	-0.161979	-0.300421	0.004481	-0.29168	-0.122005	-0.232198	-0.26226	0.168087	-0.147858	-0.283433	-0.031285	-0.188447	
4.02222	0	0	-0.564375	-0.115337	-0.12962	-0.206711	-0.195076	-0.23077	-0.157712	-0.077076	-0.538724	-0.526396	-0.182774	-0.0839843	-0.477423	-0.637275	-0.727305	-0.827327	-0.401563	-0.573246	-0.231488	-0.519827	-0.16159	-0.317599	0.00029825	-0.300787	-0.107569	-0.236583	-0.288496	0.18523	-0.16905	-0.307304	-0.0576595	-0.225392	
4.02374	0	0	-0.681708	-0.130732	-0.126189	-0.21641	-0.190289	-0.233898	-0.157712	-0.077076	-0.537086	-0.541262	-0.176873	-0.100662	-0.474776	-0.656021	-0.723511	-0.838048	-0.404899	-0.581974	-0.227982	-0.529736	-0.161201	-0.334777	-0.0038845	-0.309893	-0.0931325	-0.240968	-0.314731	0.202373	-0.190243	-0.331175	-0.084034	-0.262337	
4.02069	0	0	-0.79904	-0.146126	-0.122757	-0.226108	-0.185501	-0.237027	-0.157712	-0.077076	-0.535448	-0.556129	-0.170972	-0.117339	-0.472128	-0.674766	-0.719718	-0.848769	-0.408234	-0.590701	-0.224475	-0.539645	-0.160811	-0.351954	-0.00806725	-0.318999	-0.0786962	-0.245354	-0.340966	0.219516	-0.211435	-0.355046	-0.110408	-0.299281	
4.01916	0	0	-0.916373	-0.16152	-0.119325	-0.235807	-0.180713	-0.240155	-0.157712	-0.077076	-0.53381	-0.570995	-0.165071	-0.134016	-0.469481	-0.693511	-0.715924	-0.85949	-0.411569	-0.599429	-0.220969	-0.549554	-0.160422	-0.369132	-0.01225	-0.328106	-0.06426	-0.249739	-0.367202	0.236659	-0.232628	-0.378917	-0.136783	-0.336226	
4.01916	0	0	-1.00565	-0.177384	-0.125134	-0.24194	-0.184533	-0.239762	-0.157712	-0.077076	-0.541111	-0.570817	-0.173117	-0.128759	-0.469481	-0.693511	-0.726979	-0.860499	-0.408228	-0.599795	-0.223994	-0.549481	-0.162564	-0.371112	-0.00806725	-0.318999	-0.0631655	-0.243718	-0.360651	0.232378	-0.239059	-0.384607	-0.15592	-0.337634	
4.01764	0	0	-1.09493	-0.193248	-0.130942	-0.248074	-0.188353	-0.23937	-0.157712	-0.077076	-0.548412	-0.570639	-0.181162	-0.123502	-0.469481	-0.693511	-0.738034	-0.861507	-0.404888	-0.600161	-0.227019	-0.549407	-0.164706	-0.373092	-0.0038845	-0.309893	-0.062071	-0.237698	-0.3541	0.228097	-0.245489	-0.390296	-0.175057	-0.339041	
4.01459	0	0	-1.1842	-0.209112	-0.13675	-0.254207	-0.192172	-0.238977	-0.157712	-0.077076	-0.555714	-0.57046	-0.189208	-0.118244	-0.469481	-0.693511	-0.749089	-0.862516	-0.401548	-0.600527	-0.230044	-0.549333	-0.166847	-0.375072	0.00029825	-0.300787	-0.0609765	-0.231677	-0.347548	0.223816	-0.25192	-0.395986	-0.194195	-0.340449	
4.01306	0	0	-1.27348	-0.224976	-0.142559	-0.26034	-0.195992	-0.238584	-0.157712	-0.077076	-0.563015	-0.570282	-0.197253	-0.112987	-0.469481	-0.693511	-0.760144	-0.863525	-0.398207	-0.600893	-0.233069	-0.54926	-0.168989	-0.377052	0.004481	-0.29168	-0.059882	-0.225656	-0.340997	0.219535	-0.258351	-0.401676	-0.213332	-0.341857	
4.01001	0	0	-1.34705	-0.245599	-0.14432	-0.266626	-0.195024	-0.241319	-0.159726	-0.0790653	-0.567142	-0.579053	-0.189402	-0.135175	-0.470196	-0.702748	-0.760144	-0.863525	-0.40071	-0.611963	-0.233069	-0.54926	-0.171717	-0.385398	-0.000161	-0.309943	-0.0612985	-0.239877	-0.357366	0.230231	-0.266592	-0.402219	-0.212979	-0.350769	
4.00696	0	0	-1.42062	-0.266221	-0.146082	-0.272913	-0.194056	-0.244053	-0.161741	-0.0810545	-0.571268	-0.587824	-0.181552	-0.157363	-0.470911	-0.711985	-0.760144	-0.863525	-0.403214	-0.623034	-0.233069	-0.54926	-0.174446	-0.393745	-0.004803	-0.328207	-0.062715	-0.254099	-0.373735	0.240927	-0.274833	-0.402763	-0.212626	-0.359681	
4.00848	0	0	-1.49419	-0.286844	-0.147843	-0.279199	-0.193089	-0.246788	-0.163755	-0.0830437	-0.575395	-0.596596	-0.173701	-0.179551	-0.471626	-0.721223	-0.760144	-0.863525	-0.405717	-0.634105	-0.233069	-0.54926	-0.177174	-0.402092	-0.009445	-0.346471	-0.0641315	-0.26832	-0.390104	0.251623	-0.283073	-0.403307	-0.212273	-0.368592	
4.00696	0	0	-1.56775	-0.307467	-0.149605	-0.285485	-0.192121	-0.249523	-0.16577	-0.085033	-0.579522	-0.605367	-0.16585	-0.201739	-0.472341	-0.73046	-0.760144	-0.863525	-0.40822	-0.645175	-0.233069	-0.54926	-0.179902	-0.410438	-0.014087	-0.364734	-0.065548	-0.282541	-0.406473	0.262319	-0.291314	-0.40385	-0.21192	-0.377504	
4.00543	0	0	-0.0181578	-1.34354	-0.150745	-0.282262	-0.198787	-0.251471	-0.162995	-0.0851937	-0.581058	-0.611235	-0.167811	-0.196197	-0.471226	-0.733613	-0.749089	-0.862516	-0.40822	-0.645175	-0.22662	-0.542047	-0.184371	-0.405831	-0.0077245	-0.3618	-0.0716072	-0.283623	-0.400684	0.260176	-0.28765	-0.402293	-0.212273	-0.368592	
4.00543	0	0	1.53144	-2.3796	-0.151886	-0.279038	-0.205454	-0.253419	-0.16022	-0.0853545	-0.582594	-0.617103	-0.169771	-0.190655	-0.47011	-0.736765	-0.738034	-0.861507	-0.40822	-0.645175	-0.220171	-0.534834	-0.188841	-0.401223	-0.001362	-0.358866	-0.0776665	-0.284706	-0.394894	0.258032	-0.283986	-0.400736	-0.212626	-0.359681	
4.0039	0	0	3.08103	-3.41567	-0.153027	-0.275815	-0.21212	-0.255367	-0.157444	-0.0855153	-0.58413	-0.622971	-0.171732	-0.185113	-0.468994	-0.739918	-0.726979	-0.860499	-0.40822	-0.645175	-0.213722	-0.527621	-0.19331	-0.396616	0.0050005	-0.355932	-0.0837258	-0.285788	-0.389105	0.255889	-0.280321	-0.399178	-0.212979	-0.350769	
4.00238	0	0	4.63063	-4.45174	-0.154167	-0.272592	-0.218786	-0.257315	-0.154669	-0.085676	-0.585666	-0.628839	-0.173693	-0.179571	-0.467879	-0.743071	-0.715924	-0.85949	-0.40822	-0.645175	-0.207273	-0.520408	-0.197779	-0.392008	0.011363	-0.352998	-0.089785	-0.28687	-0.383316	0.253746	-0.276657	-0.397621	-0.213332	-0.341857	
4.00238	0	0	4.81675	-4.58743	-0.150124	-0.272755	-0.219701	-0.265113	-0.153909	-0.0878258	-0.589791	-0.63758	-0.175852	-0.190934	-0.468598	-0.752288	-0.710388	-0.858987	-0.410726	-0.65622	-0.20297	-0.515591	-0.198365	-0.398371	0.009347	-0.368216	-0.0912055	-0.301044	-0.395644	0.260162	-0.275747	-0.400191	-0.208889	-0.346498	
4.00085	0	0	5.00287	-4.72313	-0.146081	-0.272918	-0.220617	-0.272911	-0.153148	-0.0899755	-0.593916	-0.646322	-0.178011	-0.202297	-0.469318	-0.761505	-0.704853	-0.858484	-0.413232	-0.667265	-0.198667	-0.510774	-0.198951	-0.404734	0.007331	-0.383434	-0.092626	-0.315219	-0.407972	0.266578	-0.274838	-0.402761	-0.204445	-0.351138	
3.99017	0	0	5.18899	-4.85882	-0.142037	-0.273081	-0.221533	-0.280708	-0.152388	-0.0921252	-0.598042	-0.655064	-0.18017	-0.21366	-0.470037	-0.770722	-0.699318	-0.857981	-0.415738	-0.67831	-0.194363	-0.505958	-0.199537	-0.411098	0.005315	-0.398652	-0.0940465	-0.329394	-0.4203	0.272993	-0.273929	-0.405332	-0.200001	-0.355778	
3.99322	0	0	5.37511	-4.99451	-0.137994	-0.273244	-0.222448	-0.288506	-0.151627	-0.094275	-0.602167	-0.663805	-0.182329	-0.225023	-0.470757	-0.779939	-0.693782	-0.857478	-0.418244	-0.689355	-0.19006	-0.501141	-0.200123	-0.417461	0.003299	-0.41387	-0.095467	-0.343568	-0.432628	0.279409	-0.273019	-0.407902	-0.195558	-0.360419	
3.99017	0	0	4.89255	-4.68154	-0.136232	-0.266953	-0.225295	-0.29084	-0.150372	-0.0901358	-0.603703	-0.669654	-0.17625	-0.22474	-0.469643	-0.783086	-0.682695	-0.856475	-0.421579	-0.688986	-0.185359	-0.48893	-0.200123	-0.417461	-0.0010475	-0.401586	-0.0973362	-0.347374	-0.426089	0.275137	-0.274838	-0.40276	-0.188616	-0.356265	
3.99017	0	0	4.40999	-4.36857	-0.13447	-0.260661	-0.228141	-0.293174	-0.149117	-0.0859965	-0.60524	-0.675504	-0.17017	-0.224458	-0.46853	-0.786234	-0.671608	-0.855472	-0.424914	-0.688616	-0.180657	-0.476719	-0.200123	-0.417461	-0.005394	-0.389302	-0.0992055	-0.351179	-0.41955	0.270864	-0.276658	-0.397619	-0.181675	-0.352112	
3.9917	0	0	3.92744	-4.0556	-0.132707	-0.25437	-0.230988	-0.295508	-0.147862	-0.0818572	-0.606777	-0.681353	-0.164091	-0.224175	-0.467417	-0.789381	-0.660521	-0.85447	-0.42825	-0.688246	-0.175956	-0.464508	-0.200123	-0.417461	-0.0097405	-0.377018	-0.101075	-0.354984	-0.413012	0.266592	-0.278477	-0.392478	-0.174733	-0.347958	
3.99322	0	0	3.44488	-3.74263	-0.130945	-0.248079	-0.233835	-0.297842	-0.146607	-0.077718	-0.608313	-0.687202	-0.158011	-0.223892	-0.466303	-0.792528	-0.649434	-0.853467	-0.431585	-0.687877	-0.171255	-0.452297	-0.200123	-0.417461	-0.014087	-0.364734	-0.102944	-0.35879	-0.406473	0.262319	-0.280296	-0.387336	-0.167791	-0.343804	
3.98865	0	0	3.10985	-3.5401	-0.124612	-0.254699	-0.237597	-0.307951	-0.142307	-0.082181	-0.61034	-0.701842	-0.158222	-0.240759	-0.463693	-0.811147	-0.649434	-0.853467	-0.430767	-0.708288	-0.16734	-0.454855	-0.199161	-0.428196	-0.0128475	-0.38913	-0.108549	-0.370186	-0.418791	0.268729	-0.272991	-0.396062	-0.165391	-0.350587	
3.99017	0	0	2.77482	-3.33757	-0.118279	-0.261319	-0.24136	-0.318059	-0.138008	-0.086644	-0.612366	-0.716482	-0.158434	-0.257626	-0.461083	-0.829766	-0.649434	-0.853467	-0.42995	-0.7287	-0.163425	-0.457414	-0.198199	-0.438932	-0.011608	-0.413525	-0.114154	-0.381582	-0.431109	0.275139	-0.265685	-0.404789	-0.16299	-0.357371	
3.98865	0	0	2.43979	-3.13504	-0.111946	-0.267938	-0.245122	-0.328168	-0.133709	-0.091107	-0.614393	-0.731123	-0.158645	-0.274493	-0.458474	-0.848385	-0.649434	-0.853467	-0.429133	-0.749111	-0.159509	-0.459972	-0.197237	-0.449667	-0.0103685	-0.43792	-0.11976	-0.392977	-0.443428	0.281548	-0.258379	-0.413516	-0.16059	-0.364154	
3.98712	0	0	2.10476	-2.93251	-0.105613	-0.274558	-0.248884	-0.338277	-0.129409	-0.09557	-0.616419	-0.745763	-0.158856	-0.29136	-0.455864	-0.867004	-0.649434	-0.853467	-0.428315	-0.769523	-0.155594	-0.46253	-0.196275	-0.460402	-0.009129	-0.462316	-0.125365	-0.404373	-0.455746	0.287958	-0.251074	-0.422242	-0.15819	-0.370938	
3.98407	0	0	1.84561	-2.77485	-0.106755	-0.27133	-0.250765	-0.343323	-0.127391	-0.0935813	-0.613275	-0.754648	-0.158856	-0.29136	-0.453643	-0.87328	-0.641983	-0.858336	-0.430817	-0.771496	-0.156081	-0.452643	-0.199188	-0.460181	-0.0123818	-0.453124	-0.123827	-0.40872	-0.445943	0.281553	-0.246494	-0.423259	-0.157741	-0.364277	
3.99017	0	0	1.58645	-2.61719	-0.107898	-0.268102	-0.252646	-0.348368	-0.125373	-0.0915925	-0.610132	-0.763532	-0.158856	-0.29136	-0.451423	-0.879556	-0.634532	-0.863204	-0.433318	-0.77347	-0.156568	-0.442755	-0.202101	-0.45996	-0.0156345	-0.443931	-0.122289	-0.413067	-0.43614	0.275147	-0.241913	-0.424276	-0.157292	-0.357617	
3.98559	0	0	1.3273	-2.45953	-0.10904	-0.264874	-0.254527	-0.353414	-0.123355	-0.0896037	-0.606988	-0.772417	-0.158856	-0.29136	-0.449203	-0.885832	-0.627081	-0.868073	-0.43582	-0.775443	-0.157055	-0.432868	-0.205015	-0.45974	-0.0188873	-0.434738	-0.120751	-0.417413	-0.426338	0.268742	-0.237333	-0.425292	-0.156842	-0.350956	
3.98559	0	0	1.06815	-2.30187	-0.110182	-0.261646	-0.256408	-0.35846	-0.121337	-0.087615	-0.603844	-0.781302	-0.158856	-0.29136	-0.446982	-0.892108	-0.61963	-0.872942	-0.438322	-0.777416	-0.157542	-0.422981	-0.207928	-0.459519	-0.02214	-0.425546	-0.119213	-0.42176	-0.416535	0.262337	-0.232752	-0.426309	-0.156393	-0.344295	
3.99017	0	0	2.27594	-2.3708	-0.107898	-0.268101	-0.253523	-0.366615	-0.119815	-0.091917	-0.60434	-0.790075	-0.15495	-0.302399	-0.447717	-0.901267	-0.610274	-0.88318	-0.439179	-0.793068	-0.153623	-0.425542	-0.207744	-0.468048	-0.021997	-0.446819	-0.124486	-0.424993	-0.430357	0.273008	-0.237333	-0.425292	-0.158442	-0.346434	
3.98102	0	0	3.48372	-2.43972	-0.105614	-0.274556	-0.250637	-0.374769	-0.118292	-0.096219	-0.604836	-0.798847	-0.151044	-0.313438	-0.448453	-0.910426	-0.600917	-0.893419	-0.440036	-0.80872	-0.149704	-0.428102	-0.20756	-0.476577	-0.021854	-0.468092	-0.129759	-0.428227	-0.44418	0.283679	-0.241913	-0.424276	-0.160492	-0.348573	
3.98254	0	0	4.69151	-2.50864	-0.10333	-0.281011	-0.247752	-0.382923	-0.11677	-0.100521	-0.605333	-0.80762	-0.147138	-0.324477	-0.449188	-0.919585	-0.591561	-0.903657	-0.440894	-0.824371	-0.145786	-0.430663	-0.207376	-0.485106	-0.021711	-0.489366	-0.135032	-0.43146	-0.458002	0.29435	-0.246494	-0.423259	-0.162541	-0.350712	
3.98407	0	0	5.8993	-2.57757	-0.101046	-0.287466	-0.244866	-0.391078	-0.115248	-0.104823	-0.605829	-0.816392	-0.143232	-0.335516	-0.449923	-0.928744	-0.582205	-0.913895	-0.441751	-0.840023	-0.141867	-0.433223	-0.207192	-0.493635	-0.021568	-0.510639	-0.140305	-0.434693	-0.471824	0.305021	-0.251074	-0.422242	-0.16459	-0.352851	
3.98559	0	0	7.39277	-1.91625	-0.101046	-0.287466	-0.241059	-0.391477	-0.11197	-0.0986937	-0.601146	-0.819452	-0.136923	-0.318402	-0.449923	-0.928744	-0.584103	-0.90853	-0.441751	-0.840023	-0.136669	-0.430872	-0.205827	-0.489483	-0.0184582	-0.498558	-0.139207	-0.428732	-0.462025	0.298618	-0.24191	-0.424277	-0.163341	-0.348449	
3.99017	0	0	8.88624	-1.25494	-0.101046	-0.287466	-0.237251	-0.391875	-0.108692	-0.0925645	-0.596463	-0.822512	-0.130613	-0.301288	-0.449923	-0.928744	-0.586002	-0.903164	-0.441751	-0.840023	-0.131472	-0.42852	-0.204462	-0.48533	-0.0153485	-0.486478	-0.138108	-0.422771	-0.452226	0.292215	-0.232746	-0.426312	-0.162092	-0.344047	
3.9978	0	0	10.3797	-0.593627	-0.101046	-0.287466	-0.233443	-0.392274	-0.105414	-0.0864353	-0.59178	-0.825572	-0.124304	-0.284174	-0.449923	-0.928744	-0.5879	-0.897799	-0.441751	-0.840023	-0.126275	-0.426169	-0.203098	-0.481178	-0.0122387	-0.474397	-0.13701	-0.41681	-0.442427	0.285812	-0.223582	-0.428348	-0.160844	-0.339645	
3.9917	0	0	11.8732	0.067687	-0.101046	-0.287466	-0.229636	-0.392673	-0.102136	-0.080306	-0.587097	-0.828632	-0.117995	-0.26706	-0.449923	-0.928744	-0.589799	-0.892434	-0.441751	-0.840023	-0.121077	-0.423817	-0.201733	-0.477026	-0.009129	-0.462316	-0.135911	-0.410849	-0.432628	0.279409	-0.214418	-0.430383	-0.159595	-0.335243	
3.99628	0	0	13.5129	-0.112735	-0.101673	-0.296971	-0.229636	-0.392673	-0.101374	-0.0824587	-0.591235	-0.837282	-0.116038	-0.272591	-0.450661	-0.937887	-0.58967	-0.909003	-0.443444	-0.853295	-0.125393	-0.428659	-0.202324	-0.483364	-0.0111575	-0.477453	-0.137778	-0.414639	-0.438408	0.281546	-0.213508	-0.432954	-0.161644	-0.337383	
4.00238	0	0	15.1526	-0.293156	-0.102301	-0.306475	-0.229636	-0.392673	-0.100612	-0.0846115	-0.595372	-0.845932	-0.114081	-0.278123	-0.4514	-0.947031	-0.589541	-0.925572	-0.445136	-0.866568	-0.12971	-0.433501	-0.202916	-0.489703	-0.013186	-0.492589	-0.139645	-0.418429	-0.444187	0.283683	-0.212598	-0.435525	-0.163693	-0.339523	
4.0039	0	0	16.7923	-0.473578	-0.102928	-0.315979	-0.229636	-0.392673	-0.0998508	-0.0867643	-0.59951	-0.854583	-0.112123	-0.283655	-0.452138	-0.956175	-0.589411	-0.942141	-0.446829	-0.879841	-0.134026	-0.438344	-0.203508	-0.496041	-0.0152145	-0.507726	-0.141511	-0.422219	-0.449966	0.285821	-0.211689	-0.438096	-0.165742	-0.341664	
4.00848	0	0	18.432	-0.653999	-0.103556	-0.325484	-0.229636	-0.392673	-0.099089	-0.088917	-0.603648	-0.863233	-0.110166	-0.289186	-0.452877	-0.965318	-0.589282	-0.95871	-0.448522	-0.893113	-0.138342	-0.443186	-0.204099	-0.502379	-0.017243	-0.522862	-0.143378	-0.426009	-0.455746	0.287958	-0.210779	-0.440667	-0.167791	-0.343804	
4.01764	0	0	19.9536	-0.81704	-0.102416	-0.328705	-0.227751	-0.387634	-0.0907368	-0.0894082	-0.606238	-0.866077	-0.106029	-0.283382	-0.45177	-0.968446	-0.598499	-0.965025	-0.451848	-0.892735	-0.138738	-0.450582	-0.20178	-0.508934	-0.0156867	-0.516829	-0.139974	-0.426564	-0.446698	0.283685	-0.216272	-0.437078	-0.166991	-0.346066	
4.02222	0	0	21.4751	-0.980081	-0.101276	-0.331926	-0.225865	-0.382595	-0.0823845	-0.0898995	-0.608828	-0.86892	-0.101891	-0.277577	-0.450663	-0.971573	-0.607716	-0.97134	-0.455174	-0.892357	-0.139134	-0.457977	-0.19946	-0.515488	-0.0141305	-0.510795	-0.13657	-0.427119	-0.43765	0.279412	-0.221766	-0.433488	-0.16619	-0.348328	
4.02527	0	0	22.9967	-1.14312	-0.100137	-0.335147	-0.223979	-0.377556	-0.0740322	-0.0903908	-0.611419	-0.871764	-0.0977543	-0.271772	-0.449557	-0.9747	-0.616934	-0.977654	-0.458501	-0.891979	-0.13953	-0.465373	-0.197141	-0.522042	-0.0125743	-0.504762	-0.133165	-0.427673	-0.428601	0.275139	-0.227259	-0.429898	-0.16539	-0.350589	
4.02984	0	0	24.5183	-1.30616	-0.098997	-0.338368	-0.222094	-0.372517	-0.06568	-0.090882	-0.614009	-0.874608	-0.093617	-0.265968	-0.44845	-0.977828	-0.626151	-0.983969	-0.461827	-0.891601	-0.139926	-0.472768	-0.194822	-0.528597	-0.011018	-0.498729	-0.129761	-0.428228	-0.419553	0.270866	-0.232752	-0.426309	-0.16459	-0.352851	
4.03595	0	0	25.4551	-1.22494	-0.10772	-0.347508	-0.223979	-0.377556	-0.0677035	-0.092871	-0.616061	-0.889121	-0.0918898	-0.288347	-0.452147	-0.989822	-0.629695	-1.00626	-0.466021	-0.906786	-0.146793	-0.487379	-0.201238	-0.534472	-0.0167677	-0.513756	-0.135799	-0.42929	-0.426089	0.275137	-0.236423	-0.427862	-0.171533	-0.357002	
4.0451	0	0	26.392	-1.14371	-0.116444	-0.356648	-0.225865	-0.382595	-0.069727	-0.09486	-0.618113	-0.903635	-0.0901625	-0.310725	-0.455843	-1.00182	-0.633239	-1.02855	-0.470216	-0.921972	-0.153661	-0.501989	-0.207653	-0.540347	-0.0225175	-0.528784	-0.141838	-0.430351	-0.432625	0.279408	-0.240094	-0.429415	-0.178476	-0.361153	
4.04816	0	0	27.3288	-1.06249	-0.125168	-0.365787	-0.227751	-0.387634	-0.0717505	-0.096849	-0.620164	-0.918148	-0.0884352	-0.333103	-0.459539	-1.01381	-0.636782	-1.05085	-0.47441	-0.937158	-0.160528	-0.5166	-0.214069	-0.546221	-0.0282673	-0.543812	-0.147876	-0.431413	-0.439162	0.283679	-0.243766	-0.430967	-0.185418	-0.365304	
4.05578	0	0	28.2657	-0.981261	-0.133891	-0.374927	-0.229636	-0.392673	-0.073774	-0.098838	-0.622216	-0.932661	-0.086708	-0.355482	-0.463236	-1.0258	-0.640326	-1.07314	-0.478604	-0.952343	-0.167396	-0.531211	-0.220485	-0.552096	-0.034017	-0.558839	-0.153915	-0.432475	-0.445698	0.28795	-0.247437	-0.43252	-0.192361	-0.369455	
4.05731	0	0	29.5702	-0.983341	-0.131617	-0.381352	-0.230598	-0.389955	-0.073774	-0.098838	-0.623764	-0.938433	-0.0928013	-0.355743	-0.466188	-1.02867	-0.651297	-1.09049	-0.481924	-0.951964	-0.170355	-0.548323	-0.224758	-0.556007	-0.0303005	-0.558922	-0.153915	-0.432475	-0.442431	0.285815	-0.240129	-0.441244	-0.190314	-0.367319	
4.06341	0	0	30.8747	-0.98542	-0.129344	-0.387776	-0.23156	-0.387237	-0.073774	-0.098838	-0.625312	-0.944204	-0.0988945	-0.356003	-0.46914	-1.03154	-0.662268	-1.10784	-0.485244	-0.951584	-0.173314	-0.565435	-0.229031	-0.559918	-0.026584	-0.559006	-0.153915	-0.432475	-0.439163	0.283679	-0.232822	-0.449968	-0.188268	-0.365182	
4.07257	0	0	32.1792	-0.987499	-0.127071	-0.394201	-0.232521	-0.384519	-0.073774	-0.098838	-0.626861	-0.949975	-0.104988	-0.356264	-0.472093	-1.0344	-0.673238	-1.1252	-0.488565	-0.951205	-0.176272	-0.582547	-0.233305	-0.56383	-0.0228675	-0.559089	-0.153915	-0.432475	-0.435895	0.281544	-0.225515	-0.458693	-0.186221	-0.363046	
4.0741	0	0	33.4837	-0.989579	-0.124797	-0.400626	-0.233483	-0.381801	-0.073774	-0.098838	-0.628409	-0.955747	-0.111081	-0.356524	-0.475045	-1.03727	-0.684209	-1.14255	-0.491885	-0.950825	-0.179231	-0.599659	-0.237578	-0.567741	-0.019151	-0.559172	-0.153915	-0.432475	-0.432628	0.279409	-0.218207	-0.467417	-0.184174	-0.36091	
4.07867	0	0	35.152	-1.27761	-0.12139	-0.410255	-0.234407	-0.389552	-0.081362	-0.100498	-0.63047	-0.970202	-0.121539	-0.379312	-0.474689	-1.04948	-0.696941	-1.17085	-0.496051	-0.957046	-0.190401	-0.618935	-0.247654	-0.5712	-0.0275405	-0.577107	-0.15578	-0.43626	-0.441673	0.28368	-0.215483	-0.475117	-0.186221	-0.363046	
4.08478	0	0	36.8202	-1.56564	-0.117983	-0.419883	-0.23533	-0.397304	-0.08895	-0.102157	-0.63253	-0.984657	-0.131997	-0.4021	-0.474333	-1.06169	-0.709674	-1.19915	-0.500218	-0.963267	-0.20157	-0.638212	-0.257729	-0.574658	-0.03593	-0.595042	-0.157646	-0.440044	-0.450717	0.28795	-0.212758	-0.482816	-0.188268	-0.365182	
4.0863	0	0	38.4885	-1.85367	-0.114576	-0.429512	-0.236254	-0.405056	-0.096538	-0.103817	-0.63459	-0.999113	-0.142455	-0.424888	-0.473978	-1.0739	-0.722406	-1.22744	-0.504385	-0.969488	-0.212739	-0.657488	-0.267805	-0.578117	-0.0443195	-0.612976	-0.159512	-0.443828	-0.459761	0.292221	-0.210033	-0.490516	-0.190314	-0.367319	
4.09088	0	0	40.1568	-2.1417	-0.111169	-0.439141	-0.237178	-0.412807	-0.104126	-0.105477	-0.636651	-1.01357	-0.152913	-0.447676	-0.473622	-1.0861	-0.735139	-1.25574	-0.508551	-0.975709	-0.223909	-0.676764	-0.27788	-0.581576	-0.052709	-0.630911	-0.161377	-0.447613	-0.468806	0.296492	-0.207309	-0.498216	-0.192361	-0.369455	
4.09088	0	0	42.6641	-5.18479	-0.110034	-0.442348	-0.237178	-0.412807	-0.106907	-0.105314	-0.636651	-1.01357	-0.142947	-0.458409	-0.470669	-1.08325	-0.744296	-1.26192	-0.50688	-0.971436	-0.233376	-0.683827	-0.27788	-0.581576	-0.0537852	-0.62787	-0.156441	-0.452505	-0.468806	0.296492	-0.210077	-0.502322	-0.194856	-0.378235	
4.09393	0	0	45.1714	-8.22787	-0.1089	-0.445555	-0.237178	-0.412807	-0.109687	-0.10515	-0.636651	-1.01357	-0.132982	-0.469142	-0.467716	-1.08039	-0.753452	-1.2681	-0.505208	-0.967164	-0.242843	-0.690889	-0.27788	-0.581576	-0.0548615	-0.624829	-0.151506	-0.457398	-0.468806	0.296492	-0.212844	-0.506428	-0.197351	-0.387015	
4.09851	0	0	47.6787	-11.271	-0.107765	-0.448763	-0.237178	-0.412807	-0.112467	-0.104986	-0.636651	-1.01357	-0.123016	-0.479875	-0.464764	-1.07753	-0.762609	-1.27428	-0.503537	-0.962891	-0.252311	-0.697952	-0.27788	-0.581576	-0.0559378	-0.621787	-0.14657	-0.46229	-0.468806	0.296492	-0.215612	-0.510534	-0.199846	-0.395796	
4.09546	0	0	50.186	-14.314	-0.10663	-0.45197	-0.237178	-0.412807	-0.115248	-0.104823	-0.636651	-1.01357	-0.11305	-0.490608	-0.461811	-1.07467	-0.771766	-1.28046	-0.501866	-0.958618	-0.261778	-0.705015	-0.27788	-0.581576	-0.057014	-0.618746	-0.141634	-0.467182	-0.468806	0.296492	-0.21838	-0.51464	-0.202341	-0.404576	
4.09851	0	0	45.5898	-12.8815	-0.114223	-0.464244	-0.232378	-0.426373	-0.127118	-0.102025	-0.636129	-1.02517	-0.121329	-0.502057	-0.462562	-1.08375	-0.779047	-1.29188	-0.505183	-0.958239	-0.264333	-0.714682	-0.278473	-0.587876	-0.0681338	-0.618492	-0.1401	-0.471517	-0.468806	0.296492	-0.222053	-0.51618	-0.199948	-0.411339	
4.10004	0	0	40.9936	-11.449	-0.121815	-0.476518	-0.227577	-0.439939	-0.138988	-0.0992265	-0.635607	-1.03678	-0.129608	-0.513506	-0.463313	-1.09283	-0.786328	-1.30331	-0.5085	-0.957861	-0.266887	-0.724348	-0.279066	-0.594175	-0.0792535	-0.618237	-0.138567	-0.475853	-0.468806	0.296492	-0.225725	-0.517721	-0.197555	-0.418102	
4.10156	0	0	36.3974	-10.0164	-0.129408	-0.488792	-0.222777	-0.453505	-0.150858	-0.0964283	-0.635086	-1.04838	-0.137887	-0.524956	-0.464063	-1.10192	-0.793609	-1.31474	-0.511817	-0.957482	-0.269442	-0.734015	-0.279659	-0.600475	-0.0903733	-0.617983	-0.137033	-0.480188	-0.468806	0.296492	-0.229398	-0.519261	-0.195162	-0.424865	
4.09546	0	0	31.8011	-8.58388	-0.137	-0.501066	-0.217977	-0.467071	-0.162728	-0.09363	-0.634564	-1.05999	-0.146166	-0.536405	-0.464814	-1.111	-0.80089	-1.32616	-0.515134	-0.957103	-0.271997	-0.743682	-0.280252	-0.606775	-0.101493	-0.617729	-0.135499	-0.484523	-0.468806	0.296492	-0.233071	-0.520801	-0.192769	-0.431628	
4.09241	0	0	28.087	-6.12609	-0.137	-0.501066	-0.21129	-0.475608	-0.161968	-0.0957785	-0.628865	-1.06596	-0.150301	-0.542117	-0.460759	-1.11126	-0.808163	-1.33755	-0.513464	-0.952827	-0.281444	-0.750711	-0.279483	-0.608948	-0.100418	-0.620767	-0.127156	-0.489974	-0.475332	0.300756	-0.229447	-0.531042	-0.180927	-0.425492	
4.09393	0	0	24.373	-3.66831	-0.137	-0.501066	-0.204603	-0.484145	-0.161208	-0.097927	-0.623166	-1.07194	-0.154436	-0.547829	-0.456703	-1.11151	-0.815436	-1.34895	-0.511794	-0.948551	-0.29089	-0.75774	-0.278714	-0.611121	-0.099343	-0.623806	-0.118813	-0.495426	-0.481859	0.305021	-0.225824	-0.541284	-0.169084	-0.419357	
4.09698	0	0	20.6589	-1.21052	-0.137	-0.501066	-0.197915	-0.492682	-0.160447	-0.100075	-0.617468	-1.07791	-0.158572	-0.55354	-0.452647	-1.11177	-0.822709	-1.36034	-0.510125	-0.944275	-0.300337	-0.764769	-0.277945	-0.613294	-0.098268	-0.626844	-0.110469	-0.500877	-0.488386	0.309285	-0.2222	-0.551526	-0.157242	-0.413221	
4.10461	0	0	16.9448	1.24727	-0.137	-0.501066	-0.191228	-0.501219	-0.159687	-0.102224	-0.611769	-1.08389	-0.162707	-0.559252	-0.448592	-1.11203	-0.829982	-1.37173	-0.508455	-0.939999	-0.309784	-0.771798	-0.277176	-0.615467	-0.097193	-0.629882	-0.102126	-0.506329	-0.494912	0.31355	-0.218576	-0.561767	-0.1454	-0.407085	
4.10156	0	0	17.0408	2.46272	-0.127785	-0.504628	-0.185481	-0.517461	-0.175064	-0.0971293	-0.613326	-1.08962	-0.178955	-0.565432	-0.453748	-1.10866	-0.839099	-1.37786	-0.510927	-0.933012	-0.316209	-0.778895	-0.279307	-0.617414	-0.10567	-0.626678	-0.10366	-0.501994	-0.491649	0.311418	-0.213995	-0.562793	-0.149398	-0.395788	
4.10766	0	0	17.1368	3.67818	-0.11857	-0.50819	-0.179734	-0.533703	-0.190441	-0.0920345	-0.614884	-1.09535	-0.195203	-0.571612	-0.458904	-1.10529	-0.848216	-1.38399	-0.5134	-0.926025	-0.322634	-0.785992	-0.281439	-0.619362	-0.114147	-0.623474	-0.105194	-0.497659	-0.488387	0.309287	-0.209415	-0.563819	-0.153395	-0.38449	
4.10766	0	0	17.2328	4.89363	-0.109356	-0.511751	-0.173987	-0.549946	-0.205819	-0.0869397	-0.616441	-1.10108	-0.211451	-0.577793	-0.464061	-1.10192	-0.857334	-1.39011	-0.515872	-0.919037	-0.329058	-0.79309	-0.283571	-0.621309	-0.122624	-0.62027	-0.106728	-0.493323	-0.485124	0.307155	-0.204834	-0.564844	-0.157392	-0.373193	
4.11529	0	0	17.3288	6.10909	-0.100141	-0.515313	-0.16824	-0.566188	-0.221196	-0.081845	-0.617998	-1.10681	-0.227699	-0.583973	-0.469217	-1.09855	-0.866451	-1.39624	-0.518344	-0.91205	-0.335483	-0.800187	-0.285702	-0.623257	-0.131101	-0.617066	-0.108262	-0.488988	-0.481861	0.305023	-0.200253	-0.56587	-0.16139	-0.361896	
4.11987	0	0	18.9537	4.52188	-0.100629	-0.502683	-0.163468	-0.569306	-0.223964	-0.0816868	-0.61437	-1.10693	-0.227699	-0.583973	-0.467365	-1.09258	-0.864599	-1.40147	-0.512532	-0.910472	-0.335028	-0.809883	-0.285702	-0.623257	-0.124178	-0.626257	-0.10332	-0.493883	-0.491645	0.311416	-0.193857	-0.572016	-0.152035	-0.364531	
4.11072	0	0	20.5786	2.93466	-0.101116	-0.490054	-0.158697	-0.572424	-0.226731	-0.0815285	-0.610742	-1.10705	-0.227699	-0.583973	-0.465514	-1.08661	-0.862748	-1.40671	-0.506719	-0.908894	-0.334573	-0.819579	-0.285702	-0.623257	-0.117255	-0.635447	-0.098379	-0.498779	-0.501429	0.317809	-0.187462	-0.578163	-0.14268	-0.367167	
4.11529	0	0	22.2035	1.34744	-0.101604	-0.477424	-0.153925	-0.575542	-0.229498	-0.0813703	-0.607114	-1.10717	-0.227699	-0.583973	-0.463663	-1.08064	-0.860896	-1.41194	-0.500907	-0.907317	-0.334119	-0.829275	-0.285702	-0.623257	-0.110333	-0.644638	-0.0934375	-0.503675	-0.511214	0.324202	-0.181066	-0.58431	-0.133325	-0.369802	
4.12903	0	0	23.8284	-0.239772	-0.102092	-0.464794	-0.149153	-0.57866	-0.232266	-0.081212	-0.603486	-1.1073	-0.227699	-0.583973	-0.461811	-1.07467	-0.859044	-1.41717	-0.495094	-0.905739	-0.333664	-0.838971	-0.285702	-0.623257	-0.10341	-0.653829	-0.088496	-0.50857	-0.520998	0.330595	-0.174671	-0.590456	-0.12397	-0.372437	
4.1275	0	0	25.1617	-0.873406	-0.0957767	-0.471384	-0.149143	-0.589055	-0.244841	-0.0762945	-0.604521	-1.10437	-0.237608	-0.573303	-0.462914	-1.07155	-0.862749	-1.4067	-0.491754	-0.897157	-0.336259	-0.831638	-0.285108	-0.616963	-0.109859	-0.635603	-0.0866213	-0.504794	-0.514477	0.326334	-0.173766	-0.593014	-0.12397	-0.372437	
4.13055	0	0	26.4949	-1.50704	-0.0894615	-0.477975	-0.149134	-0.599449	-0.257416	-0.071377	-0.605557	-1.10145	-0.247517	-0.562632	-0.464016	-1.06844	-0.866453	-1.39623	-0.488414	-0.888576	-0.338854	-0.824304	-0.284515	-0.610668	-0.116308	-0.617378	-0.0847465	-0.501018	-0.507955	0.322072	-0.172861	-0.595573	-0.12397	-0.372437	
4.13513	0	0	27.8282	-2.14068	-0.0831463	-0.484565	-0.149124	-0.609844	-0.269992	-0.0664595	-0.606592	-1.09852	-0.257426	-0.551962	-0.465118	-1.06532	-0.870158	-1.38576	-0.485073	-0.879995	-0.341448	-0.816971	-0.283922	-0.604374	-0.122757	-0.599152	-0.0828717	-0.497242	-0.501433	0.317811	-0.171955	-0.598131	-0.12397	-0.372437	
4.13513	0	0	29.1614	-2.77431	-0.076831	-0.491156	-0.149114	-0.620239	-0.282567	-0.061542	-0.607627	-1.09559	-0.267335	-0.541292	-0.466221	-1.06221	-0.873862	-1.37529	-0.481733	-0.871413	-0.344043	-0.809638	-0.283328	-0.59808	-0.129206	-0.580926	-0.080997	-0.493466	-0.494912	0.31355	-0.17105	-0.60069	-0.12397	-0.372437	
4.13971	0	0	30.577	-2.72988	-0.0820122	-0.48777	-0.151982	-0.612134	-0.282567	-0.061542	-0.603997	-1.09572	-0.257171	-0.535331	-0.467324	-1.05909	-0.872091	-1.36436	-0.48256	-0.869077	-0.336754	-0.804994	-0.280427	-0.598304	-0.121802	-0.581087	-0.0802295	-0.495635	-0.494912	0.31355	-0.168335	-0.608361	-0.126932	-0.387871	
4.13971	0	0	31.9927	-2.68546	-0.0871935	-0.484385	-0.15485	-0.604028	-0.282567	-0.061542	-0.600367	-1.09584	-0.247008	-0.529371	-0.468426	-1.05598	-0.87032	-1.35343	-0.483386	-0.866742	-0.329465	-0.80035	-0.277526	-0.598529	-0.114397	-0.581249	-0.079462	-0.497803	-0.494912	0.31355	-0.165621	-0.616032	-0.129893	-0.403304	
4.14123	0	0	33.4083	-2.64103	-0.0923748	-0.480999	-0.157718	-0.595923	-0.282567	-0.061542	-0.596738	-1.09596	-0.236844	-0.523411	-0.469529	-1.05286	-0.868548	-1.34249	-0.484212	-0.864406	-0.322176	-0.795707	-0.274625	-0.598753	-0.106993	-0.58141	-0.0786945	-0.499972	-0.494912	0.31355	-0.162907	-0.623704	-0.132854	-0.418737	
4.14276	0	0	34.8239	-2.5966	-0.097556	-0.477614	-0.160586	-0.587818	-0.282567	-0.061542	-0.593108	-1.09608	-0.226681	-0.51745	-0.470632	-1.04974	-0.866777	-1.33156	-0.485039	-0.86207	-0.314887	-0.791063	-0.271724	-0.598977	-0.099589	-0.581571	-0.077927	-0.502141	-0.494912	0.31355	-0.160192	-0.631375	-0.135816	-0.434171	
4.14123	0	0	35.8018	-2.79381	-0.105643	-0.477255	-0.1625	-0.58241	-0.279046	-0.0638428	-0.59518	-1.09022	-0.23032	-0.489799	-0.471735	-1.04662	-0.86315	-1.32586	-0.482542	-0.860108	-0.31494	-0.774064	-0.267457	-0.595074	-0.0949388	-0.563524	-0.081766	-0.491291	-0.482608	0.30715	-0.161097	-0.628818	-0.137868	-0.436298	
4.14123	0	0	36.7796	-2.99102	-0.113729	-0.476897	-0.164413	-0.577003	-0.275525	-0.0661435	-0.597252	-1.08437	-0.233959	-0.462149	-0.472838	-1.04351	-0.859522	-1.32015	-0.480046	-0.858147	-0.314994	-0.757065	-0.26319	-0.591172	-0.0902885	-0.545476	-0.085605	-0.480441	-0.470305	0.30075	-0.162001	-0.626262	-0.139921	-0.438426	
4.14581	0	0	37.7574	-3.18822	-0.121815	-0.476538	-0.166326	-0.571596	-0.272003	-0.0684442	-0.599325	-1.07851	-0.237597	-0.434499	-0.473942	-1.04039	-0.855895	-1.31445	-0.477549	-0.856186	-0.315048	-0.740066	-0.258924	-0.587269	-0.0856382	-0.527429	-0.089444	-0.469592	-0.458002	0.29435	-0.162906	-0.623706	-0.141973	-0.440553	
4.14429	0	0	38.7353	-3.38543	-0.129902	-0.47618	-0.16824	-0.566188	-0.268482	-0.070745	-0.601397	-1.07266	-0.241236	-0.406848	-0.475045	-1.03727	-0.852268	-1.30875	-0.475052	-0.854224	-0.315101	-0.723067	-0.254657	-0.583367	-0.080988	-0.509382	-0.093283	-0.458742	-0.445698	0.28795	-0.16381	-0.621149	-0.144025	-0.442681	
4.14581	0	0	39.5671	-5.1449	-0.123594	-0.482763	-0.169215	-0.553064	-0.261435	-0.0753497	-0.600361	-1.07558	-0.237123	-0.401091	-0.482046	-1.03988	-0.852268	-1.30875	-0.475896	-0.860856	-0.309077	-0.723228	-0.253887	-0.585543	-0.0740382	-0.518614	-0.0917468	-0.463083	-0.448964	0.290084	-0.165684	-0.627783	-0.146196	-0.460308	
4.14429	0	0	40.3989	-6.90438	-0.117286	-0.489346	-0.17019	-0.53994	-0.254388	-0.0799545	-0.599325	-1.07851	-0.233009	-0.395334	-0.489047	-1.0425	-0.852268	-1.30875	-0.47674	-0.867488	-0.303053	-0.723388	-0.253117	-0.58772	-0.0670885	-0.527847	-0.0902105	-0.467425	-0.452231	0.292218	-0.167557	-0.634416	-0.148367	-0.477934	
4.13666	0	0	41.2307	-8.66386	-0.110978	-0.495929	-0.171166	-0.526815	-0.247341	-0.0845593	-0.598288	-1.08144	-0.228896	-0.389577	-0.496049	-1.04511	-0.852268	-1.30875	-0.477584	-0.874121	-0.29703	-0.723549	-0.252347	-0.589896	-0.0601388	-0.53708	-0.0886742	-0.471766	-0.455497	0.294353	-0.169431	-0.64105	-0.150538	-0.495561	
4.14123	0	0	42.0625	-10.4233	-0.10467	-0.502512	-0.172141	-0.513691	-0.240294	-0.089164	-0.597252	-1.08437	-0.224782	-0.38382	-0.50305	-1.04772	-0.852268	-1.30875	-0.478428	-0.880753	-0.291006	-0.723709	-0.251577	-0.592073	-0.053189	-0.546312	-0.087138	-0.476108	-0.458764	0.296487	-0.171304	-0.647684	-0.152709	-0.513188	
4.13971	0	0	43.4851	-12.3657	-0.109845	-0.49913	-0.172164	-0.503253	-0.231991	-0.0896397	-0.599325	-1.07851	-0.218497	-0.366769	-0.5082	-1.04436	-0.859611	-1.30395	-0.482576	-0.878043	-0.287586	-0.716496	-0.253117	-0.58772	-0.0463652	-0.534337	-0.081852	-0.472885	-0.448961	0.290082	-0.177694	-0.641545	-0.155556	-0.513057	
4.13971	0	0	44.9077	-14.3081	-0.11502	-0.495749	-0.172187	-0.492815	-0.223688	-0.0901155	-0.601398	-1.07265	-0.212211	-0.349718	-0.51335	-1.04099	-0.866953	-1.29915	-0.486725	-0.875332	-0.284166	-0.709283	-0.254657	-0.583366	-0.0395415	-0.522362	-0.076566	-0.469661	-0.439159	0.283676	-0.184084	-0.635406	-0.158403	-0.512925	
4.13666	0	0	46.3303	-16.2505	-0.120195	-0.492367	-0.17221	-0.482376	-0.215385	-0.0905912	-0.60347	-1.0668	-0.205926	-0.332666	-0.5185	-1.03763	-0.874296	-1.29436	-0.490873	-0.872621	-0.280746	-0.702069	-0.256198	-0.579013	-0.0327178	-0.510387	-0.07128	-0.466438	-0.429356	0.277271	-0.190474	-0.629267	-0.161249	-0.512793	
4.1336	0	0	47.7529	-18.1928	-0.12537	-0.488986	-0.172233	-0.471938	-0.207082	-0.091067	-0.605543	-1.06094	-0.199641	-0.315615	-0.52365	-1.03426	-0.881639	-1.28956	-0.495021	-0.869911	-0.277326	-0.694856	-0.257738	-0.57466	-0.025894	-0.498412	-0.065994	-0.463215	-0.419553	0.270866	-0.196864	-0.623128	-0.164096	-0.512662	
4.13513	0	0	48.998	-19.7832	-0.130542	-0.485606	-0.17226	-0.461481	-0.200781	-0.093534	-0.610727	-1.06656	-0.195742	-0.326634	-0.526235	-1.04932	-0.890734	-1.29572	-0.500027	-0.882775	-0.275586	-0.699774	-0.262004	-0.578564	-0.025288	-0.51055	-0.0720482	-0.464268	-0.422822	0.273002	-0.192348	-0.635892	-0.165018	-0.525874	
4.13055	0	0	50.2431	-21.3736	-0.135714	-0.482227	-0.172288	-0.451024	-0.194479	-0.096001	-0.615911	-1.07217	-0.191843	-0.337653	-0.52882	-1.06437	-0.899828	-1.30188	-0.505034	-0.89564	-0.273846	-0.704692	-0.26627	-0.582469	-0.024682	-0.522689	-0.0781025	-0.465321	-0.426091	0.275138	-0.187832	-0.648655	-0.16594	-0.539086	
4.12903	0	0	51.4882	-22.964	-0.140886	-0.478847	-0.172316	-0.440567	-0.188177	-0.098468	-0.621094	-1.07779	-0.187944	-0.348671	-0.531406	-1.07942	-0.908923	-1.30805	-0.51004	-0.908505	-0.272105	-0.709609	-0.270536	-0.586373	-0.024076	-0.534827	-0.0841568	-0.466373	-0.429359	0.277273	-0.183315	-0.661418	-0.166862	-0.552298	
4.12598	0	0	52.7334	-24.5544	-0.146058	-0.475468	-0.172343	-0.43011	-0.181876	-0.100935	-0.626278	-1.08341	-0.184045	-0.35969	-0.533991	-1.09448	-0.918018	-1.31421	-0.515046	-0.921369	-0.270365	-0.714527	-0.274802	-0.590278	-0.02347	-0.546965	-0.090211	-0.467426	-0.432628	0.279409	-0.178799	-0.674182	-0.167784	-0.56551	
4.13208	0	0	51.8006	-24.5068	-0.143152	-0.472443	-0.177155	-0.416511	-0.175074	-0.0971202	-0.634561	-1.08024	-0.179921	-0.353914	-0.543171	-1.09087	-0.91978	-1.32514	-0.518362	-0.920993	-0.272105	-0.709609	-0.275571	-0.588102	-0.0214392	-0.531847	-0.092516	-0.460911	-0.422064	0.270867	-0.179702	-0.671631	-0.164939	-0.565644	
4.13055	0	0	50.8679	-24.4592	-0.140246	-0.469418	-0.181967	-0.402911	-0.168272	-0.0933055	-0.642844	-1.07708	-0.175797	-0.348137	-0.55235	-1.08726	-0.921542	-1.33607	-0.521678	-0.920616	-0.273846	-0.704692	-0.276341	-0.585927	-0.0194085	-0.516729	-0.094821	-0.454396	-0.411499	0.262325	-0.180605	-0.66908	-0.162094	-0.565778	
4.1336	0	0	49.9351	-24.4115	-0.13734	-0.466394	-0.186779	-0.389312	-0.161471	-0.0894908	-0.651126	-1.07392	-0.171673	-0.342361	-0.56153	-1.08365	-0.923304	-1.34701	-0.524995	-0.92024	-0.275586	-0.699774	-0.277111	-0.583751	-0.0173778	-0.501611	-0.097126	-0.447882	-0.400934	0.253782	-0.181507	-0.666528	-0.159248	-0.565911	
4.1336	0	0	49.0024	-24.3639	-0.134434	-0.463369	-0.191591	-0.375713	-0.154669	-0.085676	-0.659409	-1.07075	-0.167549	-0.336585	-0.570709	-1.08004	-0.925066	-1.35794	-0.528311	-0.919864	-0.277326	-0.694856	-0.27788	-0.581576	-0.015347	-0.486493	-0.099431	-0.441367	-0.39037	0.24524	-0.18241	-0.663977	-0.156403	-0.566045	
4.13513	0	0	44.4354	-21.9473	-0.128126	-0.469953	-0.197331	-0.369869	-0.151892	-0.0858373	-0.667162	-1.07917	-0.171673	-0.342361	-0.579516	-1.0886	-0.932294	-1.3693	-0.53	-0.933067	-0.277732	-0.70215	-0.282911	-0.583305	-0.0125795	-0.504746	-0.104709	-0.444596	-0.40018	0.25165	-0.180605	-0.669079	-0.156074	-0.574882	
4.1336	0	0	39.8684	-19.5308	-0.121817	-0.476537	-0.203072	-0.364026	-0.149116	-0.0859985	-0.674916	-1.08758	-0.175797	-0.348137	-0.588323	-1.09716	-0.939523	-1.38065	-0.53169	-0.946271	-0.278138	-0.709445	-0.287942	-0.585033	-0.009812	-0.523	-0.109987	-0.447824	-0.40999	0.258061	-0.1788	-0.674181	-0.155745	-0.583719	
4.13818	0	0	35.3015	-17.1143	-0.115509	-0.483122	-0.208812	-0.358182	-0.14634	-0.0861597	-0.68267	-1.096	-0.179921	-0.353914	-0.59713	-1.10572	-0.946751	-1.39201	-0.53338	-0.959474	-0.278543	-0.716739	-0.292973	-0.586761	-0.0070445	-0.541253	-0.115265	-0.451052	-0.4198	0.264471	-0.176995	-0.679282	-0.155416	-0.592557	
4.14276	0	0	30.7345	-14.6978	-0.109201	-0.489706	-0.214552	-0.352338	-0.143563	-0.086321	-0.690423	-1.10441	-0.184045	-0.35969	-0.605937	-1.11427	-0.953979	-1.40336	-0.535069	-0.972677	-0.278949	-0.724033	-0.298004	-0.58849	-0.004277	-0.559507	-0.120543	-0.454281	-0.42961	0.270881	-0.17519	-0.684384	-0.155087	-0.601394	
4.13971	0	0	27.8202	-13.2251	-0.111468	-0.483299	-0.225062	-0.343377	-0.135226	-0.086807	-0.703326	-1.09822	-0.187944	-0.348671	-0.615088	-1.11068	-0.959437	-1.40381	-0.544158	-0.964951	-0.278949	-0.724033	-0.298773	-0.586316	-0.00596225	-0.544312	-0.121311	-0.45211	-0.420554	0.266603	-0.176995	-0.679282	-0.154622	-0.594801	
4.14429	0	0	24.9058	-11.7525	-0.113735	-0.476893	-0.235571	-0.334417	-0.126889	-0.087293	-0.716228	-1.09204	-0.191843	-0.337653	-0.62424	-1.10708	-0.964894	-1.40426	-0.553247	-0.957226	-0.278949	-0.724033	-0.299542	-0.584142	-0.0076475	-0.529118	-0.122079	-0.449939	-0.411498	0.262325	-0.1788	-0.674181	-0.154157	-0.588208	
4.14429	0	0	21.9915	-10.2798	-0.116002	-0.470486	-0.246081	-0.325456	-0.118553	-0.087779	-0.729131	-1.08585	-0.195742	-0.326634	-0.633391	-1.10348	-0.970352	-1.40471	-0.562336	-0.9495	-0.278949	-0.724033	-0.300312	-0.581968	-0.00933275	-0.513923	-0.122847	-0.447769	-0.402443	0.258047	-0.180605	-0.669079	-0.153692	-0.581615	
4.14734	0	0	19.0771	-8.8071	-0.118269	-0.46408	-0.256591	-0.316495	-0.110216	-0.088265	-0.742033	-1.07966	-0.199641	-0.315615	-0.642543	-1.09989	-0.97581	-1.40515	-0.571425	-0.941774	-0.278949	-0.724033	-0.301081	-0.579794	-0.011018	-0.498729	-0.123615	-0.445598	-0.393387	0.253769	-0.18241	-0.663977	-0.153227	-0.575022	
4.15192	0	0	17.4271	-8.08425	-0.123444	-0.460699	-0.263237	-0.318431	-0.109454	-0.0904167	-0.749756	-1.08807	-0.195742	-0.326634	-0.647301	-1.10868	-0.977573	-1.41603	-0.578058	-0.949938	-0.280226	-0.728863	-0.309771	-0.579129	-0.011972	-0.51689	-0.133055	-0.446102	-0.406465	0.262314	-0.189763	-0.667015	-0.150846	-0.581751	
4.15344	0	0	15.7772	-7.36141	-0.128619	-0.457317	-0.269883	-0.320368	-0.108693	-0.0925685	-0.757478	-1.09647	-0.191843	-0.337653	-0.65206	-1.11747	-0.979336	-1.42691	-0.584691	-0.958102	-0.281502	-0.733693	-0.318461	-0.578464	-0.012926	-0.535052	-0.142496	-0.446605	-0.419542	0.27086	-0.197116	-0.670052	-0.148465	-0.58848	
4.15344	0	0	14.1272	-6.63856	-0.133794	-0.453935	-0.276528	-0.322304	-0.107931	-0.0947203	-0.765201	-1.10487	-0.187944	-0.348671	-0.656818	-1.12626	-0.981099	-1.43778	-0.591324	-0.966266	-0.282778	-0.738523	-0.327151	-0.577799	-0.01388	-0.553213	-0.151937	-0.447109	-0.43262	0.279405	-0.204469	-0.67309	-0.146084	-0.595209	
4.15192	0	0	12.4772	-5.91572	-0.138969	-0.450554	-0.283174	-0.32424	-0.10717	-0.096872	-0.772923	-1.11328	-0.184045	-0.35969	-0.661576	-1.13506	-0.982862	-1.44866	-0.597957	-0.97443	-0.284055	-0.743353	-0.335841	-0.577134	-0.014834	-0.571374	-0.161377	-0.447613	-0.445698	0.28795	-0.211822	-0.676128	-0.143703	-0.601938	
4.15192	0	0	11.4059	-5.47641	-0.134928	-0.450731	-0.290774	-0.323456	-0.100844	-0.0993515	-0.777556	-1.11025	-0.187944	-0.348671	-0.668879	-1.12553	-0.984706	-1.44345	-0.599599	-0.969788	-0.278894	-0.741062	-0.337379	-0.572787	-0.00955425	-0.565438	-0.165544	-0.44489	-0.435892	0.281542	-0.219102	-0.667451	-0.143237	-0.595344	
4.15192	0	0	10.3346	-5.0371	-0.130887	-0.450907	-0.298374	-0.322673	-0.0945175	-0.101831	-0.782188	-1.10722	-0.191843	-0.337653	-0.676182	-1.116	-0.98655	-1.43823	-0.601241	-0.965147	-0.273732	-0.73877	-0.338917	-0.568441	-0.0042745	-0.559502	-0.16971	-0.442168	-0.426086	0.275135	-0.226382	-0.658774	-0.142771	-0.58875	
4.14581	0	0	9.26333	-4.5978	-0.126846	-0.451083	-0.305974	-0.321889	-0.0881912	-0.104311	-0.78682	-1.10419	-0.195742	-0.326634	-0.683485	-1.10647	-0.988395	-1.43302	-0.602884	-0.960505	-0.26857	-0.736479	-0.340456	-0.564094	0.00100525	-0.553566	-0.173876	-0.439445	-0.416279	0.268727	-0.233662	-0.650097	-0.142306	-0.582155	
4.15039	0	0	8.19202	-4.15849	-0.122805	-0.45126	-0.313574	-0.321106	-0.081865	-0.10679	-0.791453	-1.10117	-0.199641	-0.315615	-0.690788	-1.09693	-0.990239	-1.42781	-0.604526	-0.955863	-0.263409	-0.734187	-0.341994	-0.559747	0.006285	-0.54763	-0.178043	-0.436723	-0.406473	0.262319	-0.240942	-0.64142	-0.14184	-0.575561	
4.15192	0	0	7.45363	-3.8872	-0.121671	-0.454465	-0.314486	-0.328868	-0.0846482	-0.106625	-0.795562	-1.10967	-0.20181	-0.3269	-0.693708	-1.09979	-0.988395	-1.43302	-0.607848	-0.964392	-0.266425	-0.734105	-0.347011	-0.561481	0.001601	-0.565669	-0.183302	-0.439952	-0.422056	0.270862	-0.235466	-0.644998	-0.144687	-0.575426	
4.14886	0	0	6.71524	-3.61592	-0.120537	-0.45767	-0.315397	-0.33663	-0.0874315	-0.106461	-0.79967	-1.11817	-0.203979	-0.338186	-0.696629	-1.10264	-0.98655	-1.43823	-0.61117	-0.972921	-0.269441	-0.734023	-0.352028	-0.563215	-0.003083	-0.583709	-0.188561	-0.443182	-0.437639	0.279405	-0.22999	-0.648576	-0.147533	-0.575292	
4.14886	0	0	5.97685	-3.34463	-0.119403	-0.460875	-0.316309	-0.344391	-0.0902147	-0.106297	-0.803778	-1.12668	-0.206147	-0.349471	-0.69955	-1.10549	-0.984706	-1.44345	-0.614492	-0.981451	-0.272457	-0.733941	-0.357044	-0.564949	-0.007767	-0.601749	-0.19382	-0.446412	-0.453223	0.287949	-0.224514	-0.652154	-0.15038	-0.575157	
4.14429	0	0	5.23845	-3.07334	-0.118269	-0.46408	-0.317221	-0.352153	-0.092998	-0.106132	-0.807887	-1.13518	-0.208316	-0.360757	-0.70247	-1.10834	-0.982862	-1.44866	-0.617814	-0.98998	-0.275473	-0.733859	-0.362061	-0.566683	-0.012451	-0.619788	-0.199079	-0.449641	-0.468806	0.296492	-0.219038	-0.655732	-0.153227	-0.575022	
4.14886	0	0	4.73721	-2.89699	-0.111313	-0.461231	-0.323848	-0.354084	-0.0874303	-0.106461	-0.817134	-1.12914	-0.204197	-0.354982	-0.705755	-1.09905	-0.979253	-1.443	-0.619455	-0.985343	-0.272049	-0.726648	-0.363599	-0.562337	-0.0060905	-0.616918	-0.207398	-0.444206	-0.462275	0.292224	-0.221746	-0.648078	-0.154815	-0.570533	
4.14734	0	0	4.23597	-2.72064	-0.104356	-0.458381	-0.330475	-0.356015	-0.0818625	-0.106791	-0.826382	-1.12309	-0.200078	-0.349208	-0.70904	-1.08976	-0.975643	-1.43734	-0.621096	-0.980706	-0.268626	-0.719437	-0.365136	-0.557991	0.00027	-0.614048	-0.215717	-0.43877	-0.455743	0.287956	-0.224455	-0.640424	-0.156404	-0.566045	
4.14581	0	0	3.73472	-2.5443	-0.0974002	-0.455532	-0.337103	-0.357947	-0.0762947	-0.10712	-0.83563	-1.11705	-0.19596	-0.343434	-0.712326	-1.08048	-0.972034	-1.43168	-0.622736	-0.97607	-0.265202	-0.712226	-0.366674	-0.553646	0.0066305	-0.611178	-0.224035	-0.433334	-0.449212	0.283689	-0.227163	-0.632771	-0.157992	-0.561556	
4.14886	0	0	3.23348	-2.36795	-0.090444	-0.452683	-0.34373	-0.359878	-0.070727	-0.107449	-0.844877	-1.11101	-0.191841	-0.337659	-0.715611	-1.07119	-0.968425	-1.42603	-0.624377	-0.971433	-0.261778	-0.705015	-0.368212	-0.5493	0.012991	-0.608308	-0.232354	-0.427899	-0.442681	0.279421	-0.229871	-0.625117	-0.15958	-0.557067	
4.14123	0	0	2.86903	-2.26332	-0.0881747	-0.459096	-0.347473	-0.369938	-0.071228	-0.113738	-0.848974	-1.1195	-0.200076	-0.349199	-0.716338	-1.08024	-0.968425	-1.42603	-0.623578	-0.982644	-0.261778	-0.705015	-0.368797	-0.555598	0.0056545	-0.629242	-0.238366	-0.428966	-0.456493	0.290085	-0.229871	-0.625117	-0.161631	-0.559178	
4.13666	0	0	2.50459	-2.15869	-0.0859055	-0.46551	-0.351216	-0.379999	-0.071729	-0.120027	-0.853071	-1.12799	-0.208312	-0.360739	-0.717066	-1.08928	-0.968425	-1.42603	-0.622779	-0.993855	-0.261778	-0.705015	-0.369382	-0.561896	-0.001682	-0.650176	-0.244377	-0.430033	-0.470305	0.30075	-0.229871	-0.625117	-0.163682	-0.561288	
4.13513	0	0	2.14014	-2.05407	-0.0836362	-0.471923	-0.354958	-0.39006	-0.07223	-0.126315	-0.857167	-1.13649	-0.216547	-0.37228	-0.717793	-1.09832	-0.968425	-1.42603	-0.62198	-1.00507	-0.261778	-0.705015	-0.369967	-0.568194	-0.0090185	-0.671109	-0.250389	-0.4311	-0.484118	0.311414	-0.229871	-0.625117	-0.165733	-0.563399	
4.1336	0	0	1.7757	-1.94944	-0.081367	-0.478336	-0.358701	-0.40012	-0.072731	-0.132604	-0.861264	-1.14498	-0.224782	-0.38382	-0.718521	-1.10736	-0.968425	-1.42603	-0.621181	-1.01628	-0.261778	-0.705015	-0.370552	-0.574492	-0.016355	-0.692043	-0.2564	-0.432167	-0.49793	0.322079	-0.229871	-0.625117	-0.167784	-0.56551	
4.1336	0	0	1.51138	-1.86748	-0.0836362	-0.471923	-0.36153	-0.402435	-0.0707072	-0.130619	-0.865879	-1.14196	-0.222613	-0.37255	-0.721805	-1.09808	-0.966662	-1.41514	-0.62282	-1.01164	-0.254461	-0.700335	-0.372858	-0.567976	-0.0110723	-0.68615	-0.253012	-0.432716	-0.491403	0.317814	-0.227102	-0.621037	-0.165733	-0.563399	
4.12903	0	0	1.24706	-1.78552	-0.0859055	-0.46551	-0.364359	-0.40475	-0.0686835	-0.128634	-0.870494	-1.13895	-0.220444	-0.36128	-0.725089	-1.08879	-0.964899	-1.40425	-0.624459	-1.00701	-0.247144	-0.695655	-0.375163	-0.56146	-0.0057895	-0.680258	-0.249623	-0.433265	-0.484877	0.31355	-0.224333	-0.616958	-0.163682	-0.561288	
4.13208	0	0	0.982745	-1.70355	-0.0881747	-0.459096	-0.367188	-0.407065	-0.0666598	-0.12665	-0.87511	-1.13593	-0.218276	-0.35001	-0.728374	-1.07951	-0.963136	-1.39336	-0.626097	-1.00238	-0.239828	-0.690975	-0.377468	-0.554943	-0.00050675	-0.674365	-0.246235	-0.433815	-0.478351	0.309285	-0.221565	-0.612878	-0.161631	-0.559178	
4.1275	0	0	0.718428	-1.62159	-0.090444	-0.452683	-0.370017	-0.40938	-0.064636	-0.124665	-0.879725	-1.13292	-0.216107	-0.33874	-0.731658	-1.07023	-0.961373	-1.38247	-0.627736	-0.997748	-0.232511	-0.686295	-0.379774	-0.548427	0.004776	-0.668473	-0.242847	-0.434364	-0.471824	0.305021	-0.218796	-0.608798	-0.15958	-0.557067	
4.12292	0	0	0.520191	-1.57928	-0.090444	-0.452683	-0.369974	-0.419806	-0.0694435	-0.126484	-0.879205	-1.14441	-0.216332	-0.355504	-0.733478	-1.07618	-0.961373	-1.38247	-0.631056	-1.00626	-0.229489	-0.686376	-0.377468	-0.554943	7.325E-05	-0.686407	-0.245469	-0.435979	-0.480857	0.309284	-0.2197	-0.606243	-0.157992	-0.561556	
4.12292	0	0	0.321954	-1.53697	-0.090444	-0.452683	-0.369931	-0.430232	-0.074251	-0.128302	-0.878686	-1.1559	-0.216556	-0.372268	-0.735298	-1.08212	-0.961373	-1.38247	-0.634377	-1.01476	-0.226467	-0.686457	-0.375163	-0.56146	-0.0046295	-0.704341	-0.248092	-0.437595	-0.489891	0.313547	-0.220604	-0.603688	-0.156404	-0.566045	
4.11835	0	0	0.123718	-1.49467	-0.090444	-0.452683	-0.369888	-0.440658	-0.0790585	-0.130121	-0.878166	-1.16739	-0.216781	-0.389032	-0.737118	-1.08807	-0.961373	-1.38247	-0.637698	-1.02327	-0.223444	-0.686539	-0.372858	-0.567976	-0.00933225	-0.722275	-0.250714	-0.439211	-0.498924	0.317811	-0.221508	-0.601133	-0.154815	-0.570533	
4.11835	0	0	-0.074519	-1.45236	-0.090444	-0.452683	-0.369845	-0.451084	-0.083866	-0.13194	-0.877646	-1.17888	-0.217006	-0.405796	-0.738938	-1.09402	-0.961373	-1.38247	-0.641018	-1.03178	-0.220422	-0.68662	-0.370552	-0.574492	-0.014035	-0.740209	-0.253336	-0.440826	-0.507957	0.322074	-0.222412	-0.598578	-0.153227	-0.575022	
4.11529	0	0	-0.509597	-0.507126	-0.092715	-0.446265	-0.369845	-0.451084	-0.0775363	-0.134423	-0.878672	-1.17598	-0.217006	-0.405796	-0.737118	-1.08807	-0.955912	-1.38202	-0.639358	-1.02753	-0.219143	-0.681771	-0.367661	-0.574712	-0.00875025	-0.734334	-0.25148	-0.437045	-0.501433	0.317811	-0.220548	-0.591934	-0.149121	-0.570801	
4.11072	0	0	-0.944676	0.438104	-0.094986	-0.439847	-0.369845	-0.451084	-0.0712065	-0.136906	-0.879698	-1.17308	-0.217006	-0.405796	-0.735298	-1.08212	-0.95045	-1.38157	-0.637698	-1.02328	-0.217863	-0.676923	-0.364769	-0.574931	-0.0034655	-0.728459	-0.249624	-0.433264	-0.494909	0.313549	-0.218684	-0.58529	-0.145016	-0.56658	
4.11224	0	0	-1.37975	1.38333	-0.097257	-0.433429	-0.369845	-0.451084	-0.0648767	-0.139389	-0.880723	-1.17018	-0.217006	-0.405796	-0.733478	-1.07618	-0.944989	-1.38112	-0.636037	-1.01903	-0.216583	-0.672075	-0.361878	-0.575151	0.00181925	-0.722583	-0.247769	-0.429482	-0.488385	0.309286	-0.216819	-0.578645	-0.14091	-0.562359	
4.10766	0	0	-1.81483	2.32857	-0.099528	-0.427011	-0.369845	-0.451084	-0.058547	-0.141872	-0.881749	-1.16728	-0.217006	-0.405796	-0.731658	-1.07023	-0.939527	-1.38067	-0.634377	-1.01477	-0.215304	-0.667226	-0.358987	-0.575371	0.007104	-0.716708	-0.245913	-0.425701	-0.481861	0.305023	-0.214955	-0.572001	-0.136804	-0.558138	
4.10461	0	0	-1.24237	2.2712	-0.097257	-0.433429	-0.366977	-0.459189	-0.0641162	-0.141539	-0.886865	-1.17285	-0.217242	-0.422511	-0.729468	-1.07642	-0.939527	-1.38067	-0.634401	-1.02365	-0.214432	-0.669691	-0.359574	-0.581663	0.00239275	-0.734601	-0.250834	-0.42082	-0.488385	0.309286	-0.21128	-0.570468	-0.141241	-0.553512	
4.10614	0	0	-0.669904	2.21383	-0.094986	-0.439847	-0.364109	-0.467295	-0.0696855	-0.141205	-0.891982	-1.17842	-0.217479	-0.439225	-0.727278	-1.08261	-0.939527	-1.38067	-0.634424	-1.03253	-0.21356	-0.672157	-0.360161	-0.587955	-0.0023185	-0.752494	-0.255754	-0.415939	-0.494909	0.313549	-0.207604	-0.568936	-0.145678	-0.548886	
4.10156	0	0	-0.09744	2.15647	-0.092715	-0.446265	-0.361241	-0.4754	-0.0752547	-0.140872	-0.897099	-1.18399	-0.217715	-0.45594	-0.725089	-1.0888	-0.939527	-1.38067	-0.634448	-1.0414	-0.212687	-0.674622	-0.360748	-0.594247	-0.00702975	-0.770387	-0.260675	-0.411058	-0.501433	0.317811	-0.203928	-0.567403	-0.150116	-0.544259	
4.10004	0	0	0.475024	2.0991	-0.090444	-0.452683	-0.358373	-0.483505	-0.080824	-0.140539	-0.902215	-1.18955	-0.217951	-0.472655	-0.722899	-1.09499	-0.939527	-1.38067	-0.634472	-1.05028	-0.211815	-0.677087	-0.361335	-0.600539	-0.011741	-0.78828	-0.265596	-0.406177	-0.507957	0.322074	-0.200253	-0.56587	-0.154553	-0.539633	
4.10309	0	0	0.616033	1.79422	-0.082343	-0.453042	-0.355542	-0.481201	-0.07804	-0.140705	-0.898632	-1.18967	-0.221831	-0.461691	-0.726184	-1.0857	-0.93406	-1.38022	-0.632811	-1.04603	-0.211408	-0.669768	-0.358444	-0.60076	-0.0085995	-0.776359	-0.259586	-0.405106	-0.501433	0.317811	-0.198388	-0.559213	-0.151244	-0.533154	
4.10004	0	0	0.757042	1.48934	-0.074242	-0.453402	-0.352711	-0.478897	-0.075256	-0.140872	-0.89505	-1.18978	-0.225711	-0.450726	-0.729469	-1.07642	-0.928593	-1.37977	-0.63115	-1.04178	-0.211002	-0.66245	-0.355552	-0.600982	-0.005458	-0.764437	-0.253576	-0.404034	-0.494909	0.313549	-0.196523	-0.552555	-0.147934	-0.526674	
4.10004	0	0	0.898051	1.18446	-0.066141	-0.453761	-0.34988	-0.476594	-0.072472	-0.141039	-0.891467	-1.1899	-0.22959	-0.439761	-0.732755	-1.06713	-0.923126	-1.37932	-0.629488	-1.03754	-0.210595	-0.655131	-0.35266	-0.601203	-0.0023165	-0.752516	-0.247566	-0.402963	-0.488385	0.309286	-0.194658	-0.545898	-0.144625	-0.520195	
4.09851	0	0	1.03906	0.879572	-0.05804	-0.45412	-0.347049	-0.47429	-0.069688	-0.141205	-0.887884	-1.19001	-0.23347	-0.428797	-0.73604	-1.05785	-0.917659	-1.37887	-0.627827	-1.03329	-0.210188	-0.647813	-0.349769	-0.601424	0.000825	-0.740595	-0.241556	-0.401891	-0.481861	0.305023	-0.192793	-0.539241	-0.141316	-0.513715	
4.09851	0	0	0.829475	0.787338	-0.062092	-0.45394	-0.34988	-0.476594	-0.076015	-0.138723	-0.888394	-1.19858	-0.231773	-0.45096	-0.727648	-1.07047	-0.917659	-1.37887	-0.627853	-1.04216	-0.209315	-0.65028	-0.351893	-0.603372	-0.004958	-0.755442	-0.244945	-0.401343	-0.485124	0.307155	-0.1937	-0.536678	-0.137671	-0.516097	
4.09851	0	0	0.619891	0.695104	-0.066144	-0.45376	-0.352711	-0.478897	-0.082342	-0.136242	-0.888904	-1.20715	-0.230075	-0.473123	-0.719255	-1.08309	-0.917659	-1.37887	-0.627879	-1.05103	-0.208442	-0.652748	-0.354017	-0.60532	-0.010741	-0.770288	-0.248334	-0.400795	-0.488387	0.309287	-0.194607	-0.534115	-0.134025	-0.518479	
4.09393	0	0	0.410306	0.60287	-0.070196	-0.45358	-0.355542	-0.481201	-0.088669	-0.13376	-0.889415	-1.21572	-0.228378	-0.495287	-0.710863	-1.09571	-0.917659	-1.37887	-0.627904	-1.0599	-0.207569	-0.655215	-0.356141	-0.607268	-0.016524	-0.785135	-0.251724	-0.400247	-0.491649	0.311418	-0.195513	-0.531552	-0.13038	-0.520861	
4.09546	0	0	0.200721	0.510636	-0.074248	-0.4534	-0.358373	-0.483505	-0.094996	-0.131278	-0.889925	-1.22429	-0.226681	-0.51745	-0.70247	-1.10834	-0.917659	-1.37887	-0.62793	-1.06877	-0.206696	-0.657682	-0.358265	-0.609216	-0.022307	-0.799982	-0.255113	-0.399699	-0.494912	0.31355	-0.19642	-0.528989	-0.126734	-0.523243	
4.09241	0	0	0.0654153	0.458669	-0.0765195	-0.44698	-0.355542	-0.481201	-0.0894298	-0.131609	-0.891973	-1.2185	-0.224498	-0.506251	-0.705755	-1.09905	-0.91404	-1.37319	-0.626267	-1.06453	-0.202389	-0.652906	-0.355373	-0.609438	-0.020239	-0.785039	-0.253258	-0.39591	-0.485121	0.307152	-0.193649	-0.524885	-0.125476	-0.518875	
4.09088	0	0	-0.0698905	0.406702	-0.078791	-0.440559	-0.352711	-0.478897	-0.0838635	-0.131941	-0.894021	-1.21271	-0.222316	-0.495053	-0.70904	-1.08976	-0.910421	-1.3675	-0.624605	-1.06028	-0.198083	-0.648129	-0.352481	-0.60966	-0.018171	-0.770096	-0.251404	-0.39212	-0.475329	0.300754	-0.190878	-0.520782	-0.124218	-0.514507	
4.09393	0	0	-0.205196	0.354736	-0.0810625	-0.434139	-0.34988	-0.476594	-0.0782972	-0.132273	-0.896069	-1.20692	-0.220134	-0.483854	-0.712326	-1.08048	-0.906801	-1.36182	-0.622942	-1.05604	-0.193776	-0.643352	-0.349589	-0.609882	-0.016103	-0.755152	-0.249549	-0.388331	-0.465537	0.294356	-0.188106	-0.516678	-0.122959	-0.510139	
4.09241	0	0	-0.340502	0.302769	-0.083334	-0.427719	-0.347049	-0.47429	-0.072731	-0.132604	-0.898117	-1.20114	-0.217951	-0.472655	-0.715611	-1.07119	-0.903182	-1.35614	-0.621279	-1.05179	-0.18947	-0.638576	-0.346697	-0.610104	-0.014035	-0.740209	-0.247695	-0.384541	-0.455746	0.287958	-0.185335	-0.512574	-0.121701	-0.505771	
4.08783	0	0	-0.442778	0.253956	-0.0810625	-0.434139	-0.343227	-0.485092	-0.0782972	-0.132273	-0.894023	-1.21271	-0.224251	-0.489567	-0.712326	-1.08048	-0.901329	-1.36137	-0.625422	-1.05797	-0.19075	-0.643433	-0.35248	-0.609661	-0.0198128	-0.755053	-0.250317	-0.386163	-0.462275	0.292224	-0.180746	-0.5136	-0.120443	-0.501399	
4.08325	0	0	-0.545054	0.205143	-0.078791	-0.440559	-0.339404	-0.495895	-0.0838635	-0.131941	-0.889928	-1.22428	-0.230551	-0.506479	-0.70904	-1.08976	-0.899477	-1.36661	-0.629564	-1.06414	-0.19203	-0.64829	-0.358262	-0.609217	-0.0255905	-0.769897	-0.252939	-0.387784	-0.468803	0.29649	-0.176157	-0.514626	-0.119185	-0.497027	
4.0863	0	0	-0.647331	0.15633	-0.0765195	-0.44698	-0.335582	-0.506697	-0.0894298	-0.131609	-0.885834	-1.23585	-0.236851	-0.523391	-0.705755	-1.09905	-0.897624	-1.37185	-0.633706	-1.07032	-0.193311	-0.653147	-0.364044	-0.608774	-0.0313683	-0.784741	-0.25556	-0.389406	-0.475332	0.300757	-0.171568	-0.515652	-0.117927	-0.492655	
4.0863	0	0	-0.749607	0.107517	-0.074248	-0.4534	-0.33176	-0.517499	-0.094996	-0.131278	-0.881739	-1.24742	-0.243151	-0.540303	-0.70247	-1.10834	-0.895771	-1.37708	-0.637849	-1.0765	-0.194591	-0.658004	-0.369827	-0.608331	-0.037146	-0.799585	-0.258182	-0.391027	-0.481861	0.305023	-0.166979	-0.516678	-0.116669	-0.488283	
4.08478	0	0	-0.838603	0.0759823	-0.0765195	-0.44698	-0.334626	-0.509399	-0.0894298	-0.131609	-0.883786	-1.24164	-0.247019	-0.529372	-0.702837	-1.09619	-0.892148	-1.3714	-0.632888	-1.07263	-0.196338	-0.653067	-0.366936	-0.608552	-0.0377195	-0.787579	-0.256328	-0.387236	-0.475332	0.300757	-0.168796	-0.511544	-0.112558	-0.484038	
4.0863	0	0	-0.927599	0.0444475	-0.078791	-0.440559	-0.337492	-0.501298	-0.0838635	-0.131941	-0.885832	-1.23585	-0.250887	-0.518441	-0.703205	-1.08405	-0.888524	-1.36571	-0.627928	-1.06877	-0.198084	-0.64813	-0.364046	-0.608773	-0.038293	-0.775573	-0.254474	-0.383445	-0.468803	0.29649	-0.170613	-0.50641	-0.108446	-0.479793	
4.0863	0	0	-1.0166	0.0129128	-0.0810625	-0.434139	-0.340359	-0.493198	-0.0782972	-0.132273	-0.887879	-1.23007	-0.254755	-0.50751	-0.703572	-1.07191	-0.884901	-1.36002	-0.622968	-1.0649	-0.199831	-0.643194	-0.361156	-0.608995	-0.0388665	-0.763568	-0.25262	-0.379654	-0.462275	0.292224	-0.172429	-0.501276	-0.104334	-0.475548	
4.08478	0	0	-1.10559	-0.018622	-0.083334	-0.427719	-0.343225	-0.485097	-0.072731	-0.132604	-0.889925	-1.22429	-0.258623	-0.496579	-0.703939	-1.05977	-0.881278	-1.35434	-0.618007	-1.06104	-0.201578	-0.638257	-0.358265	-0.609216	-0.03944	-0.751562	-0.250766	-0.375863	-0.455746	0.287958	-0.174246	-0.496142	-0.100223	-0.471303	
4.08172	0	0	-1.18435	-0.0628185	-0.0862468	-0.430752	-0.334659	-0.498997	-0.0747542	-0.134588	-0.886856	-1.23296	-0.25887	-0.513215	-0.701747	-1.06597	-0.875797	-1.35389	-0.624602	-1.06028	-0.201578	-0.638257	-0.360388	-0.611163	-0.0436435	-0.760446	-0.254922	-0.373147	-0.459011	0.290092	-0.181561	-0.487413	-0.104673	-0.466661	
4.08478	0	0	-1.26311	-0.107015	-0.0891595	-0.433784	-0.326093	-0.512896	-0.0767775	-0.136572	-0.883786	-1.24164	-0.259118	-0.52985	-0.699554	-1.07216	-0.870316	-1.35344	-0.631197	-1.05953	-0.201578	-0.638257	-0.362511	-0.613111	-0.047847	-0.76933	-0.259078	-0.370432	-0.462276	0.292225	-0.188875	-0.478685	-0.109123	-0.46202	
4.08478	0	0	-1.34186	-0.151211	-0.0920722	-0.436816	-0.317526	-0.526795	-0.0788008	-0.138555	-0.880716	-1.25031	-0.259365	-0.546485	-0.697362	-1.07836	-0.864834	-1.35299	-0.637793	-1.05877	-0.201578	-0.638257	-0.364635	-0.615058	-0.0520505	-0.778215	-0.263235	-0.367716	-0.465541	0.294358	-0.196189	-0.469956	-0.113572	-0.457378	
4.08478	0	0	-1.42062	-0.195408	-0.094985	-0.439849	-0.30896	-0.540695	-0.080824	-0.140539	-0.877647	-1.25899	-0.259612	-0.563121	-0.69517	-1.08455	-0.859353	-1.35254	-0.644388	-1.05802	-0.201578	-0.638257	-0.366758	-0.617005	-0.056254	-0.787099	-0.267391	-0.365	-0.468806	0.296492	-0.203504	-0.461227	-0.118022	-0.452736	
4.0863	0	0	-1.48162	-0.214668	-0.0943458	-0.430391	-0.31087	-0.535297	-0.0795617	-0.136404	-0.873547	-1.25055	-0.251379	-0.551703	-0.690424	-1.07574	-0.853953	-1.33588	-0.641066	-1.04952	-0.201174	-0.630924	-0.36617	-0.610719	-0.0552667	-0.769125	-0.264771	-0.363375	-0.459007	0.290089	-0.194325	-0.463273	-0.112314	-0.452997	
4.08935	0	0	-1.54262	-0.233928	-0.0937065	-0.420934	-0.31278	-0.529899	-0.0782995	-0.13227	-0.869447	-1.24211	-0.243146	-0.540285	-0.685677	-1.06693	-0.848553	-1.31922	-0.637745	-1.04102	-0.200769	-0.623591	-0.365582	-0.604432	-0.0542795	-0.751151	-0.26215	-0.36175	-0.449208	0.283686	-0.185146	-0.465319	-0.106605	-0.453257	
4.09241	0	0	-1.60361	-0.253187	-0.0930672	-0.411477	-0.31469	-0.524502	-0.0770373	-0.128136	-0.865346	-1.23367	-0.234914	-0.528868	-0.680931	-1.05812	-0.843152	-1.30256	-0.634424	-1.03253	-0.200365	-0.616259	-0.364995	-0.598145	-0.0532922	-0.733177	-0.259529	-0.360126	-0.439409	0.277284	-0.175968	-0.467365	-0.100897	-0.453518	
4.09088	0	0	-1.66461	-0.272447	-0.092428	-0.402019	-0.3166	-0.519104	-0.075775	-0.124001	-0.861246	-1.22523	-0.226681	-0.51745	-0.676185	-1.0493	-0.837752	-1.28591	-0.631102	-1.02403	-0.199961	-0.608926	-0.364407	-0.591859	-0.052305	-0.715203	-0.256909	-0.358501	-0.42961	0.270881	-0.166789	-0.469411	-0.095189	-0.453778	
4.09698	0	0	-1.70864	-0.30229	-0.094203	-0.408267	-0.313736	-0.5272	-0.0805802	-0.12582	-0.855609	-1.23114	-0.230798	-0.523163	-0.671066	-1.05265	-0.834121	-1.28019	-0.63356	-1.01709	-0.200836	-0.606454	-0.364407	-0.591859	-0.0581575	-0.709048	-0.258445	-0.354159	-0.423071	0.266608	-0.168609	-0.464268	-0.0967865	-0.449263	
4.10156	0	0	-1.75267	-0.332132	-0.095978	-0.414515	-0.310871	-0.535295	-0.0853855	-0.12764	-0.849973	-1.23704	-0.234916	-0.528876	-0.665946	-1.05599	-0.83049	-1.27447	-0.636017	-1.01014	-0.201711	-0.603982	-0.364407	-0.591859	-0.06401	-0.702893	-0.259982	-0.349816	-0.416532	0.262335	-0.170428	-0.459125	-0.098384	-0.444748	
4.10309	0	0	-1.7967	-0.361975	-0.097753	-0.420763	-0.308007	-0.54339	-0.0901908	-0.129459	-0.844336	-1.24295	-0.239034	-0.53459	-0.660826	-1.05934	-0.826859	-1.26875	-0.638474	-1.0032	-0.202585	-0.60151	-0.364407	-0.591859	-0.0698625	-0.696738	-0.261518	-0.345473	-0.409994	0.258063	-0.172248	-0.453982	-0.0999815	-0.440234	
4.10766	0	0	-1.84073	-0.391818	-0.099528	-0.427011	-0.305142	-0.551486	-0.094996	-0.131278	-0.838699	-1.24886	-0.243151	-0.540303	-0.655707	-1.06268	-0.823228	-1.26303	-0.640932	-0.99625	-0.20346	-0.599038	-0.364407	-0.591859	-0.075715	-0.690583	-0.263055	-0.341131	-0.403455	0.25379	-0.174068	-0.448839	-0.101579	-0.435719	
4.11072	0	0	-1.87454	-0.402332	-0.097753	-0.420763	-0.308007	-0.54339	-0.087406	-0.129625	-0.836642	-1.23461	-0.236851	-0.523391	-0.654252	-1.04453	-0.81596	-1.25157	-0.633491	-0.99042	-0.202183	-0.594167	-0.363052	-0.587737	-0.066252	-0.675752	-0.258581	-0.335701	-0.396911	0.249514	-0.170385	-0.44729	-0.109797	-0.444223	
4.11224	0	0	-1.90834	-0.412847	-0.095978	-0.414515	-0.310871	-0.535295	-0.079816	-0.127972	-0.834586	-1.22037	-0.230551	-0.506479	-0.652797	-1.02638	-0.808693	-1.2401	-0.626051	-0.98459	-0.200906	-0.589297	-0.361697	-0.583615	-0.056789	-0.660921	-0.254107	-0.330271	-0.390367	0.245239	-0.166702	-0.44574	-0.118016	-0.452726	
4.11682	0	0	-1.94215	-0.423362	-0.094203	-0.408267	-0.313736	-0.5272	-0.072226	-0.126318	-0.83253	-1.20612	-0.224251	-0.489567	-0.651342	-1.00822	-0.801426	-1.22864	-0.61861	-0.97876	-0.199628	-0.584426	-0.360342	-0.579493	-0.047326	-0.646091	-0.249633	-0.32484	-0.383823	0.240963	-0.163018	-0.444191	-0.126234	-0.46123	
4.11682	0	0	-1.97596	-0.433876	-0.092428	-0.402019	-0.3166	-0.519104	-0.064636	-0.124665	-0.830473	-1.19187	-0.217951	-0.472655	-0.649887	-0.990067	-0.794158	-1.21718	-0.61117	-0.97293	-0.198351	-0.579556	-0.358987	-0.575371	-0.037863	-0.63126	-0.245159	-0.31941	-0.377279	0.236687	-0.159335	-0.442642	-0.134453	-0.469733	
4.1214	0	0	-2.00531	-0.456394	-0.0930672	-0.411477	-0.31469	-0.524502	-0.0702042	-0.124334	-0.825853	-1.19489	-0.217951	-0.472655	-0.644758	-0.993418	-0.786784	-1.222	-0.615277	-0.961324	-0.197475	-0.58203	-0.358987	-0.575371	-0.045406	-0.609942	-0.245616	-0.309074	-0.367454	0.230267	-0.16575	-0.436472	-0.14994	-0.47346	
4.12445	0	0	-2.03466	-0.478912	-0.0937065	-0.420934	-0.31278	-0.529899	-0.0757725	-0.124003	-0.821233	-1.19791	-0.217951	-0.472655	-0.63963	-0.996769	-0.77941	-1.22681	-0.619383	-0.949718	-0.1966	-0.584504	-0.358987	-0.575371	-0.052949	-0.588624	-0.246074	-0.298737	-0.357629	0.223847	-0.172165	-0.430301	-0.165426	-0.477186	
4.1275	0	0	-2.06401	-0.501431	-0.0943458	-0.430391	-0.31087	-0.535297	-0.0813408	-0.123671	-0.816613	-1.20093	-0.217951	-0.472655	-0.634501	-1.00012	-0.772035	-1.23163	-0.62349	-0.938113	-0.195724	-0.586979	-0.358987	-0.575371	-0.060492	-0.567307	-0.246531	-0.288401	-0.347804	0.217427	-0.17858	-0.42413	-0.180912	-0.480912	
4.12903	0	0	-2.09335	-0.523949	-0.094985	-0.439849	-0.30896	-0.540695	-0.086909	-0.12334	-0.811993	-1.20395	-0.217951	-0.472655	-0.629372	-1.00347	-0.764661	-1.23645	-0.627597	-0.926507	-0.194849	-0.589453	-0.358987	-0.575371	-0.068035	-0.545989	-0.246989	-0.278064	-0.337979	0.211007	-0.184995	-0.41796	-0.196399	-0.484639	
4.13055	0	0	-2.11707	-0.526903	-0.0961208	-0.436639	-0.308033	-0.532999	-0.0805795	-0.125822	-0.808909	-1.19257	-0.211651	-0.455679	-0.625717	-0.991496	-0.768398	-1.22589	-0.620153	-0.920649	-0.1966	-0.584504	-0.354739	-0.571465	-0.0633802	-0.527901	-0.245137	-0.27425	-0.331422	0.206723	-0.189584	-0.41694	-0.203331	-0.488749	
4.1336	0	0	-2.14079	-0.529857	-0.0972565	-0.43343	-0.307106	-0.525303	-0.07425	-0.128304	-0.805825	-1.18119	-0.20535	-0.438702	-0.622061	-0.979521	-0.772136	-1.21533	-0.612708	-0.914791	-0.198352	-0.579555	-0.350491	-0.567559	-0.0587255	-0.509813	-0.243285	-0.270435	-0.324866	0.202438	-0.194174	-0.41592	-0.210264	-0.492858	
4.13513	0	0	-2.1645	-0.532811	-0.0983923	-0.430221	-0.306179	-0.517606	-0.0679205	-0.130787	-0.802742	-1.16981	-0.19905	-0.421726	-0.618406	-0.967547	-0.775874	-1.20476	-0.605264	-0.908933	-0.200103	-0.574606	-0.346242	-0.563653	-0.0540708	-0.491726	-0.241433	-0.266621	-0.31831	0.198154	-0.198764	-0.4149	-0.217196	-0.496968	
4.13513	0	0	-2.18822	-0.535765	-0.099528	-0.427011	-0.305252	-0.50991	-0.061591	-0.133269	-0.799658	-1.15844	-0.19275	-0.40475	-0.61475	-0.955572	-0.779611	-1.1942	-0.59782	-0.903075	-0.201854	-0.569657	-0.341994	-0.559747	-0.049416	-0.473638	-0.239581	-0.262807	-0.311753	0.19387	-0.203353	-0.41388	-0.224129	-0.501078	
4.13666	0	0	-2.20655	-0.55366	-0.100169	-0.436457	-0.308089	-0.512208	-0.0707027	-0.130622	-0.803255	-1.15832	-0.202703	-0.39402	-0.61475	-0.955572	-0.785116	-1.19467	-0.599457	-0.889475	-0.205757	-0.567107	-0.342763	-0.557573	-0.046939	-0.449344	-0.243439	-0.251904	-0.292808	0.18313	-0.203353	-0.41388	-0.228105	-0.48984	
4.14581	0	0	-2.22489	-0.571556	-0.10081	-0.445902	-0.310926	-0.514507	-0.0798145	-0.127974	-0.806852	-1.1582	-0.212656	-0.38329	-0.61475	-0.955572	-0.79062	-1.19513	-0.601093	-0.875875	-0.209659	-0.564556	-0.343533	-0.555399	-0.044462	-0.425049	-0.247297	-0.241001	-0.273863	0.172391	-0.203353	-0.41388	-0.232081	-0.478603	
4.14123	0	0	-2.24322	-0.589451	-0.101451	-0.455348	-0.313763	-0.516806	-0.0889262	-0.125327	-0.810448	-1.15809	-0.222609	-0.37256	-0.61475	-0.955572	-0.796125	-1.19559	-0.60273	-0.862275	-0.213562	-0.562006	-0.344302	-0.553224	-0.041985	-0.400755	-0.251155	-0.230098	-0.254919	0.161651	-0.203353	-0.41388	-0.236058	-0.467365	
4.14429	0	0	-2.26156	-0.607346	-0.102092	-0.464794	-0.3166	-0.519104	-0.098038	-0.12268	-0.814045	-1.15797	-0.232562	-0.36183	-0.61475	-0.955572	-0.80163	-1.19606	-0.604367	-0.848675	-0.217465	-0.559456	-0.345071	-0.55105	-0.039508	-0.37646	-0.255013	-0.219195	-0.235974	0.150911	-0.203353	-0.41388	-0.240034	-0.456127	
4.14734	0	0	-2.27229	-0.611794	-0.111311	-0.461234	-0.319467	-0.511001	-0.0952558	-0.122845	-0.813535	-1.14936	-0.232347	-0.345039	-0.616957	-0.949335	-0.794256	-1.20088	-0.600226	-0.842416	-0.213562	-0.562006	-0.343716	-0.546919	-0.0326935	-0.364372	-0.255785	-0.217013	-0.226107	0.144464	-0.200622	-0.421598	-0.236399	-0.458502	
4.14886	0	0	-2.28301	-0.616242	-0.120531	-0.457674	-0.322334	-0.502899	-0.0924735	-0.12301	-0.813025	-1.14076	-0.232132	-0.328248	-0.619163	-0.943099	-0.786882	-1.20569	-0.596086	-0.836157	-0.209659	-0.564556	-0.342361	-0.542787	-0.025879	-0.352283	-0.256557	-0.214831	-0.216241	0.138017	-0.197891	-0.429315	-0.232765	-0.460877	
4.15039	0	0	-2.29374	-0.62069	-0.12975	-0.454114	-0.325201	-0.494796	-0.0896913	-0.123175	-0.812514	-1.13215	-0.231917	-0.311457	-0.62137	-0.936862	-0.779508	-1.21051	-0.591945	-0.829899	-0.205757	-0.567107	-0.341005	-0.538655	-0.0190645	-0.340195	-0.257329	-0.212649	-0.206374	0.13157	-0.195161	-0.437032	-0.229131	-0.463252	
4.15192	0	0	-2.30446	-0.625138	-0.138969	-0.450554	-0.328068	-0.486693	-0.086909	-0.12334	-0.812004	-1.12355	-0.231702	-0.294666	-0.623577	-0.930626	-0.772134	-1.21533	-0.587804	-0.82364	-0.201854	-0.569657	-0.33965	-0.534524	-0.01225	-0.328106	-0.258101	-0.210467	-0.196508	0.125123	-0.19243	-0.44475	-0.225496	-0.465627	
4.15802	0	0	-2.31838	-0.632051	-0.147043	-0.450203	-0.330902	-0.488995	-0.0960125	-0.120697	-0.812004	-1.12355	-0.22759	-0.288871	-0.627608	-0.930389	-0.783141	-1.21626	-0.589453	-0.809993	-0.208385	-0.559678	-0.341961	-0.527993	-0.015712	-0.297395	-0.257798	-0.20227	-0.180038	0.114362	-0.20342	-0.437569	-0.220158	-0.457002	
4.15497	0	0	-2.3323	-0.638964	-0.155116	-0.449853	-0.333735	-0.491297	-0.105116	-0.118055	-0.812004	-1.12355	-0.223478	-0.283076	-0.63164	-0.930153	-0.794148	-1.21718	-0.591102	-0.796346	-0.214917	-0.549699	-0.344272	-0.521462	-0.019174	-0.266683	-0.257495	-0.194074	-0.163569	0.1036	-0.214411	-0.430387	-0.214819	-0.448376	
4.15497	0	0	-2.34622	-0.645876	-0.16319	-0.449503	-0.336568	-0.493599	-0.11422	-0.115412	-0.812004	-1.12355	-0.219367	-0.277281	-0.635671	-0.929916	-0.805154	-1.2181	-0.592751	-0.782698	-0.221448	-0.53972	-0.346582	-0.514932	-0.022636	-0.235972	-0.257193	-0.185878	-0.147099	0.0928385	-0.225401	-0.423206	-0.209481	-0.43975	
4.15649	0	0	-2.36013	-0.652789	-0.171264	-0.449152	-0.339402	-0.495901	-0.123323	-0.112769	-0.812004	-1.12355	-0.215255	-0.271486	-0.639702	-0.92968	-0.816161	-1.21903	-0.5944	-0.769051	-0.227979	-0.529741	-0.348893	-0.508401	-0.026098	-0.20526	-0.25689	-0.177681	-0.130629	0.082077	-0.236391	-0.416025	-0.204143	-0.431125	
4.16107	0	0	-2.3697	-0.648818	-0.172397	-0.445949	-0.34227	-0.487796	-0.119783	-0.115082	-0.817658	-1.11761	-0.217209	-0.265965	-0.638599	-0.932798	-0.821657	-1.21949	-0.591089	-0.769417	-0.2232	-0.534768	-0.349664	-0.506223	-0.0149115	-0.205438	-0.256117	-0.179866	-0.127331	0.0799223	-0.233663	-0.423736	-0.205738	-0.426618	
4.16565	0	0	-2.37928	-0.644848	-0.173531	-0.442747	-0.345138	-0.479691	-0.116242	-0.117395	-0.823312	-1.11168	-0.219162	-0.260443	-0.637495	-0.935915	-0.827152	-1.21995	-0.587778	-0.769783	-0.21842	-0.539795	-0.350434	-0.504046	-0.003725	-0.205617	-0.255344	-0.182051	-0.124033	0.0777675	-0.230934	-0.431447	-0.207332	-0.422111	
4.16565	0	0	-2.38885	-0.640877	-0.174664	-0.439545	-0.348006	-0.471585	-0.112702	-0.119709	-0.828967	-1.10575	-0.221116	-0.254922	-0.636392	-0.939033	-0.832647	-1.22042	-0.584468	-0.770149	-0.213641	-0.544823	-0.351205	-0.501868	0.0074615	-0.205795	-0.25457	-0.184235	-0.120736	0.0756127	-0.228206	-0.439158	-0.208927	-0.417604	
4.16717	0	0	-2.39842	-0.636907	-0.175797	-0.436342	-0.350874	-0.46348	-0.109162	-0.122022	-0.834621	-1.09982	-0.22307	-0.249401	-0.635289	-0.942151	-0.838143	-1.22088	-0.581157	-0.770515	-0.208862	-0.54985	-0.351976	-0.49969	0.018648	-0.205974	-0.253797	-0.18642	-0.117438	0.073458	-0.225478	-0.446869	-0.210522	-0.413097	
4.17023	0	0	-2.40378	-0.644812	-0.178697	-0.439371	-0.358444	-0.462688	-0.119018	-0.117234	-0.837185	-1.10262	-0.225025	-0.243876	-0.643344	-0.941679	-0.841769	-1.22661	-0.580328	-0.763861	-0.211492	-0.542417	-0.354289	-0.493153	0.022176	-0.184456	-0.251949	-0.182588	-0.106783	0.0648563	-0.227297	-0.441729	-0.207229	-0.406579	
4.17328	0	0	-2.40914	-0.652716	-0.181596	-0.4424	-0.366015	-0.461896	-0.128874	-0.112447	-0.839749	-1.10541	-0.22698	-0.238352	-0.6514	-0.941207	-0.845396	-1.23234	-0.579499	-0.757208	-0.214122	-0.534984	-0.356602	-0.486616	0.025704	-0.162939	-0.2501	-0.178755	-0.0961275	0.0562545	-0.229115	-0.436589	-0.203936	-0.40006	
4.1748	0	0	-2.4145	-0.660621	-0.184496	-0.445428	-0.373586	-0.461104	-0.138729	-0.107659	-0.842313	-1.10821	-0.228934	-0.232828	-0.659455	-0.940734	-0.849023	-1.23807	-0.57867	-0.750555	-0.216753	-0.527551	-0.358915	-0.480079	0.029232	-0.141421	-0.248252	-0.174922	-0.0854722	0.0476528	-0.230933	-0.431449	-0.200643	-0.393542	
4.18091	0	0	-2.41986	-0.668526	-0.187396	-0.448457	-0.381156	-0.460312	-0.148585	-0.102871	-0.844877	-1.11101	-0.230889	-0.227303	-0.66751	-0.940262	-0.852649	-1.24381	-0.577841	-0.743901	-0.219383	-0.520118	-0.361228	-0.473542	0.03276	-0.119904	-0.246403	-0.17109	-0.074817	0.039051	-0.232752	-0.426309	-0.19735	-0.387024	
4.17938	0	0	-2.43461	-0.638338	-0.194825	-0.438679	-0.383068	-0.454908	-0.149345	-0.100722	-0.848468	-1.1109	-0.238904	-0.222065	-0.670432	-0.943141	-0.859998	-1.239	-0.579497	-0.748216	-0.219383	-0.520118	-0.361228	-0.473542	0.0375965	-0.123064	-0.252418	-0.1722	-0.074817	0.039051	-0.231843	-0.428879	-0.198149	-0.384767	
4.18243	0	0	-2.44937	-0.60815	-0.202253	-0.428902	-0.384981	-0.449504	-0.150106	-0.098573	-0.852059	-1.11079	-0.24692	-0.216828	-0.673354	-0.94602	-0.867347	-1.2342	-0.581154	-0.75253	-0.219383	-0.520118	-0.361228	-0.473542	0.042433	-0.126224	-0.258433	-0.17331	-0.074817	0.039051	-0.230933	-0.431449	-0.198947	-0.38251	
4.18091	0	0	-2.46413	-0.577962	-0.209681	-0.419125	-0.386893	-0.444099	-0.150867	-0.096424	-0.855651	-1.11068	-0.254935	-0.211591	-0.676275	-0.948898	-0.874696	-1.2294	-0.582811	-0.756845	-0.219383	-0.520118	-0.361228	-0.473542	0.0472695	-0.129385	-0.264448	-0.17442	-0.074817	0.039051	-0.230023	-0.43402	-0.199746	-0.380252	
4.18243	0	0	-2.47888	-0.547774	-0.21711	-0.409347	-0.388805	-0.438695	-0.151627	-0.094275	-0.859242	-1.11056	-0.26295	-0.206353	-0.679197	-0.951777	-0.882045	-1.2246	-0.584467	-0.76116	-0.219383	-0.520118	-0.361228	-0.473542	0.052106	-0.132545	-0.270463	-0.17553	-0.074817	0.039051	-0.229114	-0.43659	-0.200545	-0.377995	
4.19159	0	0	-2.46609	-0.537816	-0.219378	-0.402938	-0.398278	-0.432506	-0.152388	-0.0921252	-0.864888	-1.10464	-0.266864	-0.195294	-0.690541	-0.941971	-0.880182	-1.22986	-0.581982	-0.759186	-0.217233	-0.517711	-0.359877	-0.469396	0.0578323	-0.117168	-0.27201	-0.17116	-0.0649047	0.0325742	-0.230023	-0.43402	-0.192356	-0.369447	
4.19311	0	0	-2.4533	-0.527858	-0.221645	-0.396529	-0.40775	-0.426316	-0.153148	-0.0899755	-0.870534	-1.09871	-0.270777	-0.184234	-0.701884	-0.932165	-0.878319	-1.23513	-0.579498	-0.757212	-0.215083	-0.515303	-0.358526	-0.465249	0.0635585	-0.101792	-0.273556	-0.166789	-0.0549925	0.0260975	-0.230933	-0.431449	-0.184168	-0.3609	
4.19311	0	0	-2.44051	-0.5179	-0.223913	-0.390121	-0.417222	-0.420127	-0.153909	-0.0878258	-0.876181	-1.09279	-0.274691	-0.173175	-0.713228	-0.92236	-0.876457	-1.24039	-0.577013	-0.755238	-0.212933	-0.512896	-0.357175	-0.461102	0.0692847	-0.0864155	-0.275102	-0.162419	-0.0450802	0.0196207	-0.231843	-0.428879	-0.17598	-0.352352	
4.19464	0	0	-2.42772	-0.507942	-0.226181	-0.383712	-0.426695	-0.413938	-0.154669	-0.085676	-0.881827	-1.08686	-0.278604	-0.162115	-0.724571	-0.912554	-0.874594	-1.24565	-0.574529	-0.753264	-0.210783	-0.510489	-0.355824	-0.456956	0.075011	-0.071039	-0.276649	-0.158049	-0.035168	0.013144	-0.232752	-0.426309	-0.167791	-0.343804	
4.19311	0	0	-2.41173	-0.50692	-0.22845	-0.377299	-0.429565	-0.405825	-0.151892	-0.0858373	-0.885413	-1.08676	-0.278604	-0.162115	-0.721267	-0.921891	-0.881937	-1.24086	-0.579497	-0.757211	-0.209905	-0.512969	-0.35949	-0.454561	0.0772132	-0.0772625	-0.277721	-0.164066	-0.0417775	0.0174627	-0.236423	-0.427862	-0.167791	-0.343804	
4.19464	0	0	-2.39574	-0.505897	-0.230719	-0.370885	-0.432436	-0.397713	-0.149116	-0.0859985	-0.888999	-1.08665	-0.278604	-0.162115	-0.717964	-0.931227	-0.889279	-1.23606	-0.584464	-0.761158	-0.209028	-0.515448	-0.363155	-0.452165	0.0794155	-0.083486	-0.278794	-0.170083	-0.048387	0.0217815	-0.240094	-0.429415	-0.167791	-0.343804	
4.19617	0	0	-2.37975	-0.504875	-0.232989	-0.364472	-0.435306	-0.3896	-0.14634	-0.0861597	-0.892586	-1.08654	-0.278604	-0.162115	-0.714661	-0.940564	-0.896621	-1.23126	-0.589432	-0.765104	-0.208151	-0.517928	-0.366821	-0.44977	0.0816178	-0.0897095	-0.279866	-0.176101	-0.0549965	0.0261003	-0.243766	-0.430967	-0.167791	-0.343804	
4.19769	0	0	-2.36376	-0.503853	-0.235258	-0.358059	-0.438177	-0.381487	-0.143563	-0.086321	-0.896172	-1.08643	-0.278604	-0.162115	-0.711357	-0.949901	-0.903964	-1.22646	-0.5944	-0.769051	-0.207273	-0.520408	-0.370487	-0.447375	0.08382	-0.095933	-0.280938	-0.182118	-0.061606	0.030419	-0.247437	-0.43252	-0.167791	-0.343804	
4.19464	0	0	-2.35839	-0.495869	-0.239802	-0.345218	-0.443866	-0.375689	-0.142308	-0.0821797	-0.897201	-1.08353	-0.276468	-0.150737	-0.717574	-0.943447	-0.905827	-1.2212	-0.595228	-0.766713	-0.206	-0.515519	-0.372804	-0.440829	0.090656	-0.0836395	-0.282484	-0.17775	-0.0516897	0.0239395	-0.243766	-0.430967	-0.170193	-0.337015	
4.19617	0	0	-2.35302	-0.487885	-0.244345	-0.332377	-0.449556	-0.369891	-0.141053	-0.0780385	-0.89823	-1.08062	-0.274331	-0.13936	-0.723791	-0.936993	-0.90769	-1.21593	-0.596055	-0.764375	-0.204726	-0.51063	-0.37512	-0.434282	0.097492	-0.071346	-0.28403	-0.173382	-0.0417735	0.01746	-0.240094	-0.429415	-0.172596	-0.330226	
4.19617	0	0	-2.34766	-0.479901	-0.248888	-0.319537	-0.455245	-0.364093	-0.139798	-0.0738972	-0.899258	-1.07771	-0.272195	-0.127982	-0.730008	-0.930538	-0.909552	-1.21067	-0.596882	-0.762037	-0.203453	-0.505742	-0.377437	-0.427735	0.104328	-0.0590525	-0.285575	-0.169014	-0.0318572	0.0109805	-0.236423	-0.427862	-0.174998	-0.323438	
4.19617	0	0	-2.34229	-0.471917	-0.253432	-0.306696	-0.460935	-0.358295	-0.138543	-0.069756	-0.900287	-1.0748	-0.270058	-0.116605	-0.736225	-0.924084	-0.911415	-1.20541	-0.59771	-0.759699	-0.202179	-0.500853	-0.379753	-0.421189	0.111164	-0.046759	-0.287121	-0.164646	-0.021941	0.004501	-0.232752	-0.426309	-0.1774	-0.316649	
4.19617	0	0	-2.32946	-0.473397	-0.254569	-0.303483	-0.462851	-0.352881	-0.136526	-0.0677642	-0.901814	-1.08051	-0.268097	-0.122147	-0.736937	-0.933181	-0.916888	-1.20588	-0.60102	-0.768315	-0.20433	-0.503262	-0.381101	-0.425341	0.111823	-0.0591655	-0.291581	-0.170124	-0.0318573	0.0109805	-0.234606	-0.432999	-0.179893	-0.325454	
4.19922	0	0	-2.31663	-0.474877	-0.255706	-0.30027	-0.464766	-0.347467	-0.134509	-0.0657725	-0.903342	-1.08621	-0.266136	-0.127689	-0.73765	-0.942278	-0.922362	-1.20635	-0.604329	-0.77693	-0.206481	-0.505671	-0.382448	-0.429493	0.112482	-0.071572	-0.296042	-0.175602	-0.0417735	0.01746	-0.236459	-0.439689	-0.182387	-0.334259	
4.19769	0	0	-2.3038	-0.476358	-0.256843	-0.297057	-0.466682	-0.342053	-0.132492	-0.0637807	-0.904869	-1.09192	-0.264176	-0.13323	-0.738362	-0.951375	-0.927836	-1.20682	-0.607639	-0.785546	-0.208632	-0.50808	-0.383796	-0.433646	0.113142	-0.0839785	-0.300502	-0.18108	-0.0516898	0.0239395	-0.238313	-0.446378	-0.18488	-0.343064	
4.20074	0	0	-2.29096	-0.477838	-0.25798	-0.293844	-0.468598	-0.336639	-0.130475	-0.061789	-0.906396	-1.09763	-0.262215	-0.138772	-0.739074	-0.960472	-0.933309	-1.20729	-0.610949	-0.794161	-0.210783	-0.510489	-0.385144	-0.437798	0.113801	-0.096385	-0.304962	-0.186558	-0.061606	0.030419	-0.240167	-0.453068	-0.187373	-0.351869	
4.19922	0	0	-2.29093	-0.466342	-0.262531	-0.28098	-0.472433	-0.325801	-0.127965	-0.053491	-0.912034	-1.09171	-0.266138	-0.127685	-0.747093	-0.960008	-0.931447	-1.21255	-0.613429	-0.796129	-0.210783	-0.510489	-0.385916	-0.435616	0.117997	-0.087151	-0.30912	-0.183841	-0.0549965	0.0261003	-0.245653	-0.449483	-0.186573	-0.354129	
4.19922	0	0	-2.29089	-0.454847	-0.267083	-0.268117	-0.476268	-0.314963	-0.125454	-0.045193	-0.917673	-1.08579	-0.270061	-0.116598	-0.755113	-0.959545	-0.929586	-1.21781	-0.61591	-0.798098	-0.210783	-0.510489	-0.386688	-0.433435	0.122194	-0.077917	-0.313279	-0.181123	-0.048387	0.0217815	-0.25114	-0.445898	-0.185774	-0.35639	
4.20074	0	0	-2.29085	-0.443352	-0.271635	-0.255254	-0.480103	-0.304125	-0.122943	-0.036895	-0.923311	-1.07987	-0.273984	-0.105511	-0.763132	-0.959081	-0.927725	-1.22307	-0.61839	-0.800066	-0.210783	-0.510489	-0.38746	-0.431253	0.12639	-0.068683	-0.317437	-0.178406	-0.0417775	0.0174627	-0.256626	-0.442313	-0.184974	-0.35865	
4.20227	0	0	-2.29081	-0.431856	-0.276186	-0.24239	-0.483938	-0.293287	-0.120433	-0.028597	-0.928949	-1.07395	-0.277907	-0.094424	-0.771151	-0.958617	-0.925863	-1.22833	-0.620871	-0.802034	-0.210783	-0.510489	-0.388232	-0.429071	0.130586	-0.059449	-0.321595	-0.175689	-0.035168	0.013144	-0.262112	-0.438728	-0.184174	-0.36091	
4.20532	0	0	-2.28652	-0.432349	-0.276186	-0.24239	-0.488668	-0.290197	-0.11967	-0.0307528	-0.931998	-1.08536	-0.278081	-0.111347	-0.773675	-0.973659	-0.933082	-1.23977	-0.625833	-0.814919	-0.210303	-0.520329	-0.388808	-0.435401	0.128592	-0.0749065	-0.326048	-0.181162	-0.051682	0.0239345	-0.262148	-0.450539	-0.192357	-0.369448	
4.20685	0	0	-2.28224	-0.432841	-0.276186	-0.24239	-0.493397	-0.287106	-0.118907	-0.0329085	-0.935047	-1.09675	-0.278255	-0.12827	-0.776198	-0.9887	-0.9403	-1.25121	-0.630795	-0.827804	-0.209822	-0.530169	-0.389384	-0.441731	0.126598	-0.090364	-0.3305	-0.186634	-0.068196	0.034725	-0.262185	-0.462349	-0.200539	-0.377985	
4.20532	0	0	-2.27795	-0.433334	-0.276186	-0.24239	-0.498127	-0.284015	-0.118145	-0.0350643	-0.938096	-1.10816	-0.27843	-0.145192	-0.778721	-1.00374	-0.947518	-1.26265	-0.635758	-0.840688	-0.209342	-0.54001	-0.38996	-0.448062	0.124603	-0.105821	-0.334953	-0.192107	-0.08471	0.0455155	-0.262221	-0.47416	-0.208722	-0.386522	
4.20685	0	0	-2.27367	-0.433827	-0.276186	-0.24239	-0.502857	-0.280925	-0.117382	-0.03722	-0.941145	-1.11956	-0.278604	-0.162115	-0.781245	-1.01878	-0.954737	-1.27408	-0.64072	-0.853573	-0.208862	-0.54985	-0.390536	-0.454392	0.122609	-0.121279	-0.339406	-0.197579	-0.101224	0.056306	-0.262257	-0.48597	-0.216904	-0.39506	
4.2038	0	0	-2.26722	-0.428809	-0.283624	-0.23258	-0.506696	-0.270074	-0.117653	-0.0287518	-0.941145	-1.11956	-0.280562	-0.15658	-0.785247	-1.01855	-0.958344	-1.27979	-0.639896	-0.855901	-0.211889	-0.549776	-0.394197	-0.452	0.126809	-0.112056	-0.336794	-0.195934	-0.0953767	0.0541245	-0.265923	-0.487515	-0.214061	-0.395184	
4.20532	0	0	-2.26076	-0.42379	-0.291061	-0.22277	-0.510536	-0.259223	-0.117925	-0.0202835	-0.941145	-1.11956	-0.282521	-0.151045	-0.789249	-1.01832	-0.96195	-1.2855	-0.639072	-0.858229	-0.214915	-0.549702	-0.397858	-0.449608	0.13101	-0.102833	-0.334182	-0.194289	-0.0895295	0.051943	-0.269589	-0.489059	-0.211219	-0.395307	
4.2038	0	0	-2.25431	-0.418771	-0.298499	-0.212959	-0.514375	-0.248371	-0.118196	-0.0118153	-0.941145	-1.11956	-0.284479	-0.14551	-0.793252	-1.01808	-0.965556	-1.2912	-0.638249	-0.860557	-0.217942	-0.549628	-0.401519	-0.447215	0.13521	-0.09361	-0.331571	-0.192644	-0.0836822	0.0497615	-0.273254	-0.490604	-0.208376	-0.395431	
4.20685	0	0	-2.24786	-0.413753	-0.305937	-0.203149	-0.518215	-0.23752	-0.118467	-0.003347	-0.941145	-1.11956	-0.286437	-0.139975	-0.797254	-1.01785	-0.969163	-1.29691	-0.637425	-0.862885	-0.220969	-0.549554	-0.40518	-0.444823	0.13941	-0.084387	-0.328959	-0.190999	-0.077835	0.04758	-0.27692	-0.492149	-0.205533	-0.395554	
4.20685	0	0	-2.24573	-0.419761	-0.304798	-0.206369	-0.517255	-0.240234	-0.121248	-0.00318875	-0.949818	-1.12503	-0.292665	-0.157155	-0.803777	-1.0326	-0.983669	-1.30353	-0.643211	-0.873405	-0.220493	-0.559376	-0.410185	-0.446578	0.13741	-0.099829	-0.334181	-0.194288	-0.0910335	0.0562042	-0.282434	-0.500353	-0.210072	-0.406448	
4.20685	0	0	-2.24361	-0.425768	-0.303658	-0.209589	-0.516294	-0.242948	-0.124029	-0.0030305	-0.958492	-1.1305	-0.298894	-0.174335	-0.810299	-1.04736	-0.998175	-1.31015	-0.648996	-0.883924	-0.220017	-0.569198	-0.415189	-0.448334	0.13541	-0.115271	-0.339403	-0.197578	-0.104232	0.0648285	-0.287948	-0.508557	-0.214611	-0.417342	
4.20685	0	0	-2.24148	-0.431776	-0.302519	-0.212809	-0.515334	-0.245662	-0.12681	-0.00287225	-0.967165	-1.13597	-0.305122	-0.191516	-0.816822	-1.06212	-1.01268	-1.31677	-0.654782	-0.894443	-0.21954	-0.57902	-0.420193	-0.45009	0.133411	-0.130713	-0.344626	-0.200867	-0.11743	0.0734527	-0.293462	-0.516762	-0.21915	-0.428236	
4.20685	0	0	-2.23936	-0.437784	-0.30138	-0.216029	-0.514374	-0.248376	-0.129591	-0.002714	-0.975838	-1.14145	-0.31135	-0.208696	-0.823345	-1.07688	-1.02719	-1.32339	-0.660567	-0.904963	-0.219064	-0.588842	-0.425198	-0.451845	0.131411	-0.146155	-0.349848	-0.204156	-0.130629	0.082077	-0.298976	-0.524966	-0.223689	-0.43913	
4.20685	0	0	-2.24042	-0.434781	-0.302519	-0.212809	-0.521022	-0.239858	-0.12681	-0.00287225	-0.979409	-1.14134	-0.321296	-0.197952	-0.830237	-1.07949	-1.03622	-1.32953	-0.663864	-0.904594	-0.219064	-0.588842	-0.423082	-0.449878	0.131861	-0.136883	-0.352932	-0.195439	-0.127331	0.0799223	-0.30354	-0.52395	-0.22608	-0.432374	
4.20685	0	0	-2.24148	-0.431778	-0.303658	-0.209589	-0.52767	-0.231341	-0.124029	-0.0030305	-0.98298	-1.14123	-0.331243	-0.187208	-0.83713	-1.0821	-1.04525	-1.33568	-0.667161	-0.904225	-0.219064	-0.588842	-0.420965	-0.44791	0.132311	-0.127612	-0.356017	-0.186722	-0.124033	0.0777675	-0.308105	-0.522933	-0.22847	-0.425617	
4.2038	0	0	-2.24255	-0.428774	-0.304798	-0.206369	-0.534318	-0.222823	-0.121248	-0.00318875	-0.98655	-1.14113	-0.34119	-0.176464	-0.844023	-1.08472	-1.05429	-1.34183	-0.670457	-0.903857	-0.219064	-0.588842	-0.418849	-0.445943	0.132762	-0.118341	-0.359102	-0.178005	-0.120736	0.0756127	-0.312669	-0.521917	-0.230861	-0.418861	
4.2038	0	0	-2.24361	-0.425771	-0.305937	-0.203149	-0.540966	-0.214305	-0.118467	-0.003347	-0.990121	-1.14102	-0.351136	-0.16572	-0.850915	-1.08733	-1.06332	-1.34797	-0.673754	-0.903488	-0.219064	-0.588842	-0.416733	-0.443976	0.133212	-0.109069	-0.362186	-0.169288	-0.117438	0.073458	-0.317233	-0.5209	-0.233252	-0.412105	
4.20532	0	0	-2.24577	-0.431281	-0.309954	-0.203	-0.543769	-0.216647	-0.126806	-0.00287375	-0.994187	-1.14948	-0.349365	-0.188074	-0.858514	-1.09895	-1.06865	-1.36452	-0.675419	-0.916667	-0.224237	-0.591162	-0.418849	-0.445943	0.132308	-0.127597	-0.365565	-0.168756	-0.130621	0.0820722	-0.319082	-0.52755	-0.238132	-0.41411	
4.2038	0	0	-2.24794	-0.43679	-0.313971	-0.20285	-0.546572	-0.218989	-0.135146	-0.0024005	-0.998252	-1.15794	-0.347595	-0.210429	-0.866114	-1.11056	-1.07399	-1.38107	-0.677083	-0.929846	-0.22941	-0.593481	-0.420965	-0.44791	0.131404	-0.146124	-0.368943	-0.168224	-0.143805	0.0906865	-0.320931	-0.534199	-0.243013	-0.416115	
4.20227	0	0	-2.2501	-0.4423	-0.317988	-0.202701	-0.549376	-0.221331	-0.143485	-0.00192725	-1.00232	-1.1664	-0.345825	-0.232783	-0.873714	-1.12218	-1.07932	-1.39762	-0.678748	-0.943025	-0.234583	-0.595801	-0.423082	-0.449878	0.130501	-0.164652	-0.372322	-0.167693	-0.156988	0.0993007	-0.322779	-0.540849	-0.247893	-0.418121	
4.20685	0	0	-2.25227	-0.447809	-0.322005	-0.202552	-0.552179	-0.223673	-0.151824	-0.001454	-1.00638	-1.17487	-0.344054	-0.255137	-0.881313	-1.1338	-1.08465	-1.41417	-0.680413	-0.956204	-0.239756	-0.598121	-0.425198	-0.451845	0.129597	-0.183179	-0.375701	-0.167161	-0.170171	0.107915	-0.324628	-0.547499	-0.252773	-0.420126	
4.20685	0	0	-2.25333	-0.444808	-0.317988	-0.202701	-0.552179	-0.223673	-0.147519	-0.0059245	-1.00995	-1.17476	-0.352032	-0.249924	-0.885295	-1.13356	-1.08824	-1.41982	-0.682053	-0.951568	-0.237607	-0.595726	-0.420965	-0.44791	0.134903	-0.177094	-0.37541	-0.158967	-0.166877	0.105762	-0.325532	-0.544945	-0.248243	-0.409226	
4.20227	0	0	-2.25439	-0.441806	-0.313971	-0.20285	-0.552179	-0.223673	-0.143214	-0.010395	-1.01351	-1.17465	-0.36001	-0.24471	-0.889277	-1.13332	-1.09183	-1.42548	-0.683693	-0.946932	-0.235459	-0.59333	-0.416732	-0.443974	0.140209	-0.171009	-0.375118	-0.150774	-0.163583	0.10361	-0.326435	-0.542391	-0.243714	-0.398326	
4.20074	0	0	-2.25546	-0.438804	-0.309954	-0.203	-0.552179	-0.223673	-0.13891	-0.0148655	-1.01708	-1.17454	-0.367988	-0.239497	-0.89326	-1.13309	-1.09542	-1.43113	-0.685334	-0.942297	-0.23331	-0.590935	-0.412498	-0.440038	0.145516	-0.164924	-0.374827	-0.14258	-0.16029	0.101458	-0.327339	-0.539837	-0.239184	-0.387426	
4.20532	0	0	-2.25652	-0.435803	-0.305937	-0.203149	-0.552179	-0.223673	-0.134605	-0.019336	-1.02065	-1.17443	-0.375966	-0.234284	-0.897242	-1.13285	-1.099	-1.43678	-0.686974	-0.937661	-0.231161	-0.588539	-0.408265	-0.436103	0.150822	-0.158839	-0.374535	-0.134386	-0.156996	0.099305	-0.328243	-0.537283	-0.234654	-0.376526	
4.20227	0	5	-2.25656	-0.447304	-0.309954	-0.203	-0.554022	-0.228725	-0.139399	-0.0211747	-1.02471	-1.18288	-0.382174	-0.25136	-0.899764	-1.14774	-1.10075	-1.44762	-0.68946	-0.948502	-0.229413	-0.593481	-0.410382	-0.438071	0.145059	-0.174164	-0.374535	-0.134386	-0.166874	0.10576	-0.333705	-0.533714	-0.236251	-0.372013	
4.19922	0	5	-2.2566	-0.458806	-0.313971	-0.20285	-0.555864	-0.233776	-0.144193	-0.0230135	-1.02877	-1.19132	-0.388382	-0.268435	-0.902287	-1.16262	-1.1025	-1.45846	-0.691945	-0.959343	-0.227664	-0.598423	-0.412499	-0.44004	0.139296	-0.18949	-0.374535	-0.134386	-0.176752	0.112214	-0.339167	-0.530145	-0.237847	-0.367501	
4.19922	0	5	-2.25665	-0.470307	-0.317988	-0.202701	-0.557707	-0.238828	-0.148987	-0.0248522	-1.03283	-1.19976	-0.39459	-0.285511	-0.90481	-1.17751	-1.10425	-1.46929	-0.694431	-0.970185	-0.225915	-0.603366	-0.414616	-0.442008	0.133532	-0.204816	-0.374535	-0.134386	-0.18663	0.118669	-0.344628	-0.526576	-0.239444	-0.362989	
4.19769	0	5	-2.25669	-0.481809	-0.322005	-0.202552	-0.55955	-0.24388	-0.153781	-0.026691	-1.03689	-1.20821	-0.400798	-0.302587	-0.907332	-1.1924	-1.106	-1.48013	-0.696917	-0.981026	-0.224167	-0.608308	-0.416733	-0.443976	0.127769	-0.220141	-0.374535	-0.134386	-0.196508	0.125123	-0.35009	-0.523007	-0.241041	-0.358476	
4.19769	0	5	-2.25563	-0.484805	-0.319128	-0.19948	-0.553869	-0.249676	-0.153781	-0.026691	-1.03689	-1.20821	-0.394778	-0.3023	-0.911308	-1.19216	-1.11509	-1.4702	-0.700207	-0.980655	-0.223766	-0.600969	-0.415388	-0.439827	0.130422	-0.217107	-0.376853	-0.127836	-0.193216	0.122973	-0.342781	-0.519923	-0.239356	-0.347421	
4.19464	0	5	-2.25457	-0.487801	-0.31625	-0.196408	-0.548188	-0.255472	-0.153781	-0.026691	-1.03689	-1.20821	-0.388757	-0.302013	-0.915285	-1.19192	-1.12418	-1.46027	-0.703496	-0.980285	-0.223365	-0.59363	-0.414042	-0.435678	0.133075	-0.214072	-0.37917	-0.121287	-0.189925	0.120822	-0.335471	-0.51684	-0.237671	-0.336365	
4.19159	0	5	-2.25351	-0.490798	-0.313373	-0.193337	-0.542507	-0.261269	-0.153781	-0.026691	-1.03689	-1.20821	-0.382736	-0.301725	-0.919261	-1.19168	-1.13327	-1.45033	-0.706786	-0.979914	-0.222964	-0.58629	-0.412697	-0.431529	0.135728	-0.211037	-0.381488	-0.114737	-0.186634	0.118671	-0.328161	-0.513756	-0.235985	-0.325309	
4.19159	0	5	-2.25245	-0.493794	-0.310496	-0.190265	-0.536826	-0.267065	-0.153781	-0.026691	-1.03689	-1.20821	-0.376716	-0.301438	-0.923237	-1.19144	-1.14237	-1.4404	-0.710076	-0.979543	-0.222563	-0.578951	-0.411352	-0.42738	0.138381	-0.208003	-0.383806	-0.108187	-0.183342	0.116521	-0.320852	-0.510672	-0.2343	-0.314254	
4.19464	0	5	-2.26006	-0.518695	-0.312234	-0.196555	-0.535799	-0.280227	-0.161345	-0.028371	-1.03891	-1.22239	-0.387009	-0.324206	-0.92179	-1.20652	-1.14228	-1.45641	-0.708457	-0.99304	-0.225987	-0.586214	-0.408267	-0.436099	0.133245	-0.235579	-0.381488	-0.114737	-0.203072	0.129412	-0.320852	-0.510672	-0.21999	-0.299227	
4.19159	0	5	-2.26768	-0.543597	-0.313972	-0.202846	-0.534771	-0.293389	-0.168908	-0.030051	-1.04093	-1.23658	-0.397302	-0.346974	-0.920342	-1.22161	-1.14218	-1.47242	-0.706839	-1.00654	-0.229411	-0.593476	-0.405181	-0.444819	0.128109	-0.263156	-0.37917	-0.121287	-0.222801	0.142304	-0.320852	-0.510672	-0.20568	-0.284199	
4.19311	0	5	-2.27529	-0.568498	-0.315711	-0.209137	-0.533744	-0.306551	-0.176472	-0.031731	-1.04296	-1.25076	-0.407595	-0.369743	-0.918894	-1.23669	-1.14209	-1.48843	-0.70522	-1.02004	-0.232836	-0.600739	-0.402096	-0.453538	0.122972	-0.290733	-0.376853	-0.127836	-0.24253	0.155195	-0.320852	-0.510672	-0.191371	-0.269172	
4.19311	0	5	-2.2829	-0.593399	-0.317449	-0.215427	-0.532717	-0.319713	-0.184035	-0.033411	-1.04498	-1.26495	-0.417888	-0.392511	-0.917447	-1.25177	-1.142	-1.50443	-0.703601	-1.03353	-0.23626	-0.608002	-0.399011	-0.462257	0.117836	-0.318309	-0.374535	-0.134386	-0.26226	0.168087	-0.320852	-0.510672	-0.177061	-0.254145	
4.19006	0	5	-2.30753	-0.604775	-0.313432	-0.215578	-0.534566	-0.324742	-0.183274	-0.0355633	-1.04498	-1.26495	-0.423895	-0.392789	-0.918531	-1.24871	-1.14925	-1.4997	-0.705236	-1.02891	-0.23626	-0.608002	-0.400553	-0.457898	0.11565	-0.312131	-0.374535	-0.134386	-0.265544	0.170233	-0.314439	-0.505025	-0.166013	-0.245647	
4.18396	0	5	-2.33214	-0.616151	-0.309414	-0.215728	-0.536415	-0.329771	-0.182512	-0.0377155	-1.04498	-1.26495	-0.429901	-0.393068	-0.919614	-1.24565	-1.15649	-1.49497	-0.70687	-1.02429	-0.23626	-0.608002	-0.402095	-0.45354	0.113464	-0.305953	-0.374535	-0.134386	-0.268827	0.172378	-0.308025	-0.499378	-0.154965	-0.237149	
4.19311	0	5	-2.35676	-0.627527	-0.305397	-0.215879	-0.538263	-0.334799	-0.181751	-0.0398678	-1.04498	-1.26495	-0.435908	-0.393346	-0.920697	-1.24259	-1.16373	-1.49024	-0.708505	-1.01967	-0.23626	-0.608002	-0.403638	-0.449182	0.111278	-0.299774	-0.374535	-0.134386	-0.272111	0.174524	-0.301612	-0.49373	-0.143916	-0.228651	
4.19464	0	5	-2.38138	-0.638903	-0.30138	-0.216029	-0.540112	-0.339828	-0.180989	-0.04202	-1.04498	-1.26495	-0.441915	-0.393624	-0.921781	-1.23952	-1.17098	-1.4855	-0.71014	-1.01505	-0.23626	-0.608002	-0.40518	-0.444823	0.109092	-0.293596	-0.374535	-0.134386	-0.275395	0.17667	-0.295198	-0.488083	-0.132868	-0.220153	
4.19922	0	5	-2.39857	-0.670932	-0.301983	-0.225528	-0.534379	-0.356031	-0.192073	-0.0413918	-1.04548	-1.27346	-0.440194	-0.415725	-0.922505	-1.24846	-1.17281	-1.48032	-0.709343	-1.02622	-0.235386	-0.610471	-0.405756	-0.451147	0.106596	-0.318048	-0.374827	-0.14258	-0.288518	0.185245	-0.296104	-0.485521	-0.137773	-0.222191	
4.20227	0	5	-2.41576	-0.70296	-0.302586	-0.235027	-0.528646	-0.372235	-0.203157	-0.0407635	-1.04599	-1.28198	-0.438473	-0.437827	-0.923229	-1.2574	-1.17464	-1.47514	-0.708546	-1.03739	-0.234513	-0.61294	-0.406331	-0.45747	0.104099	-0.3425	-0.375118	-0.150774	-0.30164	0.193819	-0.297011	-0.48296	-0.142677	-0.224229	
4.20532	0	5	-2.43295	-0.734989	-0.303189	-0.244526	-0.522912	-0.388438	-0.214242	-0.0401352	-1.04649	-1.29049	-0.436752	-0.459929	-0.923954	-1.26634	-1.17648	-1.46996	-0.707748	-1.04856	-0.233639	-0.61541	-0.406907	-0.463794	0.101603	-0.366952	-0.37541	-0.158967	-0.314763	0.202394	-0.297918	-0.480399	-0.147582	-0.226268	
4.2099	0	5	-2.45014	-0.767017	-0.303792	-0.254025	-0.517179	-0.404641	-0.225326	-0.039507	-1.047	-1.29901	-0.435031	-0.48203	-0.924678	-1.27528	-1.17831	-1.46478	-0.706951	-1.05974	-0.232765	-0.617879	-0.407483	-0.470117	0.099107	-0.391404	-0.375701	-0.167161	-0.327886	0.210969	-0.298824	-0.477837	-0.152486	-0.228306	
4.216	0	5	-2.46292	-0.776799	-0.299773	-0.254179	-0.516225	-0.407338	-0.215493	-0.0442795	-1.04446	-1.29625	-0.432887	-0.470853	-0.92287	-1.2694	-1.16207	-1.46342	-0.705296	-1.05549	-0.22934	-0.61062	-0.406136	-0.465973	0.098487	-0.379155	-0.372322	-0.167693	-0.321327	0.206683	-0.297884	-0.468597	-0.146777	-0.228542	
4.21905	0	5	-2.4757	-0.786581	-0.295755	-0.254333	-0.51527	-0.410036	-0.205659	-0.049052	-1.04191	-1.29348	-0.430742	-0.459676	-0.921063	-1.26352	-1.14583	-1.46207	-0.703642	-1.05125	-0.225915	-0.60336	-0.404789	-0.461829	0.097867	-0.366907	-0.368943	-0.168224	-0.314769	0.202398	-0.296944	-0.459357	-0.141068	-0.228777	
4.22668	0	5	-2.48848	-0.796363	-0.291736	-0.254487	-0.514315	-0.412733	-0.195825	-0.0538245	-1.03937	-1.29072	-0.428598	-0.448498	-0.919255	-1.25765	-1.12959	-1.46072	-0.701987	-1.04701	-0.222489	-0.596101	-0.403442	-0.457685	0.097247	-0.354658	-0.365565	-0.168756	-0.30821	0.198112	-0.296003	-0.450116	-0.135359	-0.229013	
4.22974	0	5	-2.50126	-0.806145	-0.287717	-0.254641	-0.513361	-0.415431	-0.185992	-0.058597	-1.03683	-1.28796	-0.426453	-0.437321	-0.917447	-1.25177	-1.11334	-1.45937	-0.700333	-1.04277	-0.219064	-0.588842	-0.402095	-0.453541	0.096627	-0.342409	-0.362186	-0.169288	-0.301651	0.193826	-0.295063	-0.440876	-0.12965	-0.229248	
4.23889	0	5	-2.51616	-0.821267	-0.287189	-0.267337	-0.508593	-0.428907	-0.190774	-0.0604298	-1.03734	-1.29647	-0.42667	-0.453946	-0.914199	-1.26095	-1.11334	-1.45937	-0.699539	-1.05393	-0.217315	-0.593785	-0.402672	-0.459863	0.096773	-0.363808	-0.368171	-0.170404	-0.311488	0.200253	-0.300539	-0.437298	-0.128846	-0.231521	
4.24652	0	5	-2.53106	-0.836388	-0.286661	-0.280033	-0.503824	-0.442383	-0.195557	-0.0622625	-1.03785	-1.30498	-0.426887	-0.47057	-0.91095	-1.27013	-1.11334	-1.45937	-0.698746	-1.06509	-0.215566	-0.598729	-0.403249	-0.466184	0.096919	-0.385208	-0.374156	-0.17152	-0.321324	0.20668	-0.306015	-0.43372	-0.128041	-0.233795	
4.24957	0	5	-2.54595	-0.85151	-0.286133	-0.292728	-0.499055	-0.455859	-0.20034	-0.0640953	-1.03836	-1.31349	-0.427104	-0.487195	-0.907702	-1.27931	-1.11334	-1.45937	-0.697952	-1.07625	-0.213816	-0.603673	-0.403825	-0.472506	0.097065	-0.406607	-0.380141	-0.172637	-0.33116	0.213108	-0.31149	-0.430142	-0.127237	-0.236068	
4.25415	0	5	-2.56085	-0.866632	-0.285605	-0.305424	-0.494287	-0.469335	-0.205122	-0.065928	-1.03886	-1.32199	-0.427321	-0.503819	-0.904454	-1.28849	-1.11334	-1.45937	-0.697159	-1.08741	-0.212067	-0.608616	-0.404402	-0.478827	0.097211	-0.428006	-0.386126	-0.173753	-0.340997	0.219535	-0.316966	-0.426564	-0.126433	-0.238341	
4.2633	0	5	-2.56825	-0.86856	-0.281585	-0.305583	-0.490521	-0.469725	-0.199579	-0.0662453	-1.0353	-1.32211	-0.423243	-0.498105	-0.90156	-1.28568	-1.10249	-1.45847	-0.696319	-1.08087	-0.211665	-0.601275	-0.402284	-0.476863	0.100337	-0.415853	-0.382749	-0.174285	-0.33116	0.213108	-0.312398	-0.427576	-0.124021	-0.245158	
4.27093	0	5	-2.57565	-0.870489	-0.277564	-0.305741	-0.486755	-0.470116	-0.194035	-0.0665625	-1.03174	-1.32223	-0.419165	-0.492392	-0.898666	-1.28287	-1.09164	-1.45757	-0.695479	-1.07432	-0.211263	-0.593935	-0.400165	-0.474899	0.103463	-0.403701	-0.379371	-0.174816	-0.321324	0.20668	-0.30783	-0.428588	-0.121609	-0.251974	
4.27551	0	5	-2.58305	-0.872417	-0.273544	-0.3059	-0.482989	-0.470506	-0.188492	-0.0668798	-1.02819	-1.32234	-0.415088	-0.486679	-0.895772	-1.28005	-1.08078	-1.45668	-0.694639	-1.06778	-0.210862	-0.586594	-0.398046	-0.472935	0.106588	-0.391548	-0.375994	-0.175347	-0.311488	0.200253	-0.303262	-0.4296	-0.119197	-0.25879	
4.27704	0	5	-2.59045	-0.874346	-0.269524	-0.306059	-0.479223	-0.470896	-0.182949	-0.067197	-1.02463	-1.32246	-0.41101	-0.480965	-0.892878	-1.27724	-1.06993	-1.45578	-0.693799	-1.06123	-0.21046	-0.579253	-0.395928	-0.470971	0.109714	-0.379395	-0.372617	-0.175879	-0.301651	0.193826	-0.298694	-0.430612	-0.116785	-0.265607	
4.28161	5	0	-2.58305	-0.872417	-0.271273	-0.312318	-0.476365	-0.478974	-0.184961	-0.0691873	-1.02514	-1.33096	-0.405228	-0.497306	-0.892527	-1.28922	-1.0772	-1.45103	-0.693824	-1.07008	-0.207835	-0.586671	-0.396506	-0.477288	0.101763	-0.388395	-0.374453	-0.179704	-0.304931	0.195969	-0.297786	-0.433178	-0.120889	-0.269906	
4.28314	5	0	-2.57565	-0.870489	-0.273023	-0.318578	-0.473506	-0.487052	-0.186972	-0.0711775	-1.02565	-1.33945	-0.399446	-0.513648	-0.892176	-1.30121	-1.08447	-1.44628	-0.693848	-1.07893	-0.205211	-0.594089	-0.397084	-0.483606	0.0938115	-0.397394	-0.376289	-0.183528	-0.308211	0.198112	-0.296879	-0.435744	-0.124994	-0.274205	
4.28314	5	0	-2.56825	-0.86856	-0.274772	-0.324837	-0.470647	-0.495131	-0.188984	-0.0731678	-1.02616	-1.34795	-0.393663	-0.52999	-0.891825	-1.31319	-1.09173	-1.44153	-0.693873	-1.08778	-0.202586	-0.601508	-0.397662	-0.489923	0.0858602	-0.406394	-0.378124	-0.187353	-0.311491	0.200256	-0.295971	-0.43831	-0.129099	-0.278504	
4.28314	5	0	-2.56085	-0.866632	-0.276521	-0.331096	-0.467789	-0.503209	-0.190996	-0.075158	-1.02667	-1.35645	-0.387881	-0.546331	-0.891474	-1.32517	-1.099	-1.43678	-0.693897	-1.09663	-0.199961	-0.608926	-0.39824	-0.49624	0.077909	-0.415394	-0.37996	-0.191178	-0.314771	0.202399	-0.295063	-0.440876	-0.133203	-0.282803	
4.28619	5	0	-2.547	-0.848565	-0.273636	-0.328047	-0.468742	-0.500517	-0.181914	-0.0777875	-1.0221	-1.35944	-0.393663	-0.52999	-0.888578	-1.32237	-1.08446	-1.44629	-0.69224	-1.0924	-0.197808	-0.606531	-0.39246	-0.49667	0.0810292	-0.403237	-0.373974	-0.190065	-0.304927	0.195967	-0.292308	-0.436756	-0.126241	-0.278625	
4.28619	5	0	-2.53314	-0.830499	-0.270751	-0.324998	-0.469694	-0.497825	-0.172833	-0.080417	-1.01752	-1.36243	-0.399446	-0.513648	-0.885682	-1.31956	-1.06992	-1.45579	-0.690582	-1.08816	-0.195655	-0.604136	-0.386679	-0.497101	0.0841495	-0.391081	-0.367988	-0.188952	-0.295083	0.189534	-0.289553	-0.432637	-0.119279	-0.274446	
4.28772	5	0	-2.51929	-0.812432	-0.267865	-0.32195	-0.470646	-0.495133	-0.163751	-0.0830465	-1.01294	-1.36542	-0.405228	-0.497306	-0.882786	-1.31675	-1.05538	-1.46529	-0.688925	-1.08393	-0.193501	-0.601742	-0.380899	-0.497531	0.0872698	-0.378924	-0.362001	-0.187839	-0.285239	0.183102	-0.286798	-0.428517	-0.112318	-0.270267	
4.28161	5	0	-2.50543	-0.794365	-0.26498	-0.318901	-0.471599	-0.492441	-0.154669	-0.085676	-1.00837	-1.36841	-0.41101	-0.480965	-0.87989	-1.31395	-1.04083	-1.47479	-0.687268	-1.07969	-0.191348	-0.599347	-0.375119	-0.497961	0.09039	-0.366768	-0.356015	-0.186726	-0.275395	0.17667	-0.284043	-0.424398	-0.105356	-0.266089	
4.28314	5	0	-2.50869	-0.808069	-0.262709	-0.325319	-0.469694	-0.497824	-0.163751	-0.0830465	-1.00787	-1.37975	-0.413395	-0.508685	-0.875566	-1.32617	-1.04803	-1.48606	-0.685636	-1.0843	-0.197805	-0.606527	-0.37724	-0.499922	0.0857088	-0.384991	-0.359395	-0.186193	-0.281959	0.180959	-0.288614	-0.423385	-0.107769	-0.259271	
4.28924	5	0	-2.51195	-0.821774	-0.260438	-0.331737	-0.467789	-0.503207	-0.172833	-0.080417	-1.00737	-1.3911	-0.41578	-0.536405	-0.871242	-1.33839	-1.05522	-1.49733	-0.684005	-1.08891	-0.204261	-0.613706	-0.37936	-0.501883	0.0810275	-0.403214	-0.362774	-0.185661	-0.288523	0.185248	-0.293185	-0.422372	-0.110181	-0.252453	
4.28619	5	0	-2.5152	-0.835479	-0.258167	-0.338155	-0.465885	-0.50859	-0.181914	-0.0777875	-1.00688	-1.40245	-0.418165	-0.564126	-0.866917	-1.35061	-1.06241	-1.50859	-0.682373	-1.09353	-0.210718	-0.620886	-0.381481	-0.503844	0.0763463	-0.421437	-0.366154	-0.185128	-0.295087	0.189537	-0.297756	-0.421359	-0.112593	-0.245635	
4.28314	5	0	-2.51846	-0.849183	-0.255896	-0.344573	-0.46398	-0.513973	-0.190996	-0.075158	-1.00638	-1.41379	-0.42055	-0.591846	-0.862593	-1.36283	-1.06961	-1.51986	-0.680741	-1.09814	-0.217175	-0.628066	-0.383602	-0.505805	0.071665	-0.43966	-0.369533	-0.184595	-0.301651	0.193826	-0.302327	-0.420346	-0.115006	-0.238817	
4.28314	5	0	-2.53535	-0.847176	-0.251872	-0.344736	-0.461163	-0.511675	-0.188984	-0.0731678	-1.00739	-1.41093	-0.410458	-0.585908	-0.859692	-1.36003	-1.06961	-1.51986	-0.676607	-1.09197	-0.21415	-0.628144	-0.382252	-0.501667	0.0710498	-0.427443	-0.364316	-0.181301	-0.295087	0.189537	-0.298665	-0.418791	-0.115006	-0.238817	
4.28161	5	0	-2.55225	-0.845168	-0.247847	-0.344899	-0.458346	-0.509378	-0.186972	-0.0711775	-1.00841	-1.40806	-0.400365	-0.57997	-0.856792	-1.35723	-1.06961	-1.51986	-0.672473	-1.08581	-0.211124	-0.628223	-0.380902	-0.497528	0.0704345	-0.415226	-0.359098	-0.178007	-0.288523	0.185248	-0.295003	-0.417235	-0.115006	-0.238817	
4.28009	5	0	-2.56914	-0.84316	-0.243823	-0.345062	-0.455529	-0.50708	-0.184961	-0.0691873	-1.00942	-1.4052	-0.390273	-0.574031	-0.853891	-1.35443	-1.06961	-1.51986	-0.668339	-1.07964	-0.208099	-0.628302	-0.379551	-0.493389	0.0698192	-0.403009	-0.35388	-0.174713	-0.281959	0.180959	-0.29134	-0.41568	-0.115006	-0.238817	
4.27856	5	0	-2.58603	-0.841153	-0.239799	-0.345225	-0.452712	-0.504782	-0.182949	-0.067197	-1.01043	-1.40233	-0.380181	-0.568093	-0.85099	-1.35163	-1.06961	-1.51986	-0.664205	-1.07347	-0.205074	-0.62838	-0.378201	-0.489251	0.069204	-0.390792	-0.348663	-0.171419	-0.275395	0.17667	-0.287678	-0.414125	-0.115006	-0.238817	
4.27551	5	0	-2.59135	-0.848951	-0.239799	-0.345225	-0.449855	-0.512855	-0.184961	-0.0691873	-1.00893	-1.41652	-0.382347	-0.57921	-0.850651	-1.36358	-1.06961	-1.51986	-0.670787	-1.07272	-0.2042	-0.630849	-0.377431	-0.491428	0.0617375	-0.390642	-0.348663	-0.171419	-0.272111	0.174524	-0.287678	-0.414125	-0.117058	-0.240971	
4.27399	5	0	-2.59667	-0.856748	-0.239799	-0.345225	-0.446998	-0.520929	-0.186972	-0.0711775	-1.00742	-1.43072	-0.384513	-0.590328	-0.850313	-1.37554	-1.06961	-1.51986	-0.677369	-1.07197	-0.203326	-0.633319	-0.37666	-0.493606	0.054271	-0.390491	-0.348663	-0.171419	-0.268827	0.172378	-0.287678	-0.414125	-0.119111	-0.243125	
4.26941	5	0	-2.60199	-0.864545	-0.239799	-0.345225	-0.444142	-0.529003	-0.188984	-0.0731678	-1.00592	-1.44491	-0.386678	-0.601445	-0.849974	-1.38749	-1.06961	-1.51986	-0.683951	-1.07122	-0.202452	-0.635788	-0.375889	-0.495783	0.0468045	-0.390341	-0.348663	-0.171419	-0.265544	0.170233	-0.287678	-0.414125	-0.121164	-0.245278	
4.26788	5	0	-2.6073	-0.872343	-0.239799	-0.345225	-0.441285	-0.537076	-0.190996	-0.075158	-1.00441	-1.4591	-0.388844	-0.612563	-0.849635	-1.39945	-1.06961	-1.51986	-0.690533	-1.07046	-0.201578	-0.638257	-0.375119	-0.497961	0.039338	-0.390191	-0.348663	-0.171419	-0.26226	0.168087	-0.287678	-0.414125	-0.123216	-0.247432	
4.26636	5	0	-2.59985	-0.859172	-0.239182	-0.335753	-0.44037	-0.529397	-0.182675	-0.0756375	-1.00644	-1.45338	-0.388603	-0.596005	-0.846732	-1.39666	-1.06418	-1.51942	-0.688876	-1.06622	-0.205075	-0.628375	-0.377431	-0.491427	0.0413572	-0.374946	-0.348369	-0.163222	-0.254934	0.161661	-0.288587	-0.411556	-0.120359	-0.247552	
4.26636	5	0	-2.59239	-0.846002	-0.238564	-0.326282	-0.439455	-0.521718	-0.174354	-0.076117	-1.00846	-1.44765	-0.388362	-0.579447	-0.84383	-1.39386	-1.05874	-1.51898	-0.687219	-1.06198	-0.208572	-0.618494	-0.379743	-0.484893	0.0433765	-0.359702	-0.348075	-0.155026	-0.247608	0.155235	-0.289496	-0.408988	-0.117502	-0.247671	
4.26483	5	0	-2.58493	-0.832831	-0.237947	-0.31681	-0.438541	-0.514038	-0.166033	-0.0765965	-1.01049	-1.44193	-0.388122	-0.562889	-0.840927	-1.39107	-1.05331	-1.51854	-0.685563	-1.05774	-0.212068	-0.608612	-0.382055	-0.47836	0.0453957	-0.344457	-0.347782	-0.14683	-0.240282	0.148809	-0.290405	-0.406419	-0.114645	-0.24779	
4.26178	5	0	-2.57747	-0.81966	-0.237329	-0.307338	-0.437626	-0.506359	-0.157712	-0.077076	-1.01251	-1.43621	-0.387881	-0.546331	-0.838024	-1.38827	-1.04788	-1.51811	-0.683906	-1.0535	-0.215565	-0.59873	-0.384367	-0.471826	0.047415	-0.329212	-0.347488	-0.138633	-0.232956	0.142383	-0.291314	-0.40385	-0.111788	-0.24791	
4.26636	5	0	-2.57325	-0.820159	-0.236192	-0.310551	-0.440445	-0.508657	-0.159726	-0.0790653	-1.01558	-1.44739	-0.390043	-0.557458	-0.841672	-1.39995	-1.04421	-1.52848	-0.685563	-1.05774	-0.212942	-0.606143	-0.385716	-0.475967	0.0443077	-0.341382	-0.348261	-0.136449	-0.236997	0.146663	-0.303179	-0.394122	-0.112592	-0.245637	
4.2633	5	0	-2.56903	-0.820658	-0.235056	-0.313764	-0.443264	-0.510954	-0.161741	-0.0810545	-1.01865	-1.45858	-0.392205	-0.568585	-0.84532	-1.41163	-1.04054	-1.53885	-0.687219	-1.06198	-0.210319	-0.613555	-0.387066	-0.480109	0.0412005	-0.353552	-0.349033	-0.134266	-0.241038	0.150942	-0.315043	-0.384394	-0.113397	-0.243364	
4.26025	5	0	-2.56481	-0.821158	-0.233919	-0.316977	-0.446083	-0.513252	-0.163755	-0.0830437	-1.02172	-1.46977	-0.394368	-0.579713	-0.848967	-1.42331	-1.03687	-1.54922	-0.688876	-1.06622	-0.207697	-0.620968	-0.388415	-0.484251	0.0380933	-0.365722	-0.349806	-0.132082	-0.245079	0.155222	-0.326908	-0.374666	-0.114201	-0.24109	
4.26483	5	0	-2.56059	-0.821657	-0.232782	-0.32019	-0.448902	-0.51555	-0.16577	-0.085033	-1.02479	-1.48095	-0.39653	-0.59084	-0.852615	-1.435	-1.0332	-1.5596	-0.690533	-1.07046	-0.205074	-0.62838	-0.389764	-0.488392	0.034986	-0.377892	-0.350579	-0.129898	-0.24912	0.159501	-0.338772	-0.364938	-0.115006	-0.238817	
4.2633	5	0	-2.55838	-0.804998	-0.222964	-0.314245	-0.447036	-0.510559	-0.161741	-0.081053	-1.0258	-1.47809	-0.384502	-0.590342	-0.849712	-1.43221	-1.03503	-1.55441	-0.688876	-1.06622	-0.206822	-0.623439	-0.391305	-0.484037	0.0343605	-0.365652	-0.349515	-0.123873	-0.242546	0.155205	-0.329636	-0.366955	-0.116615	-0.234269	
4.2633	5	0	-2.55618	-0.788339	-0.213146	-0.308301	-0.44517	-0.505567	-0.157711	-0.077073	-1.02681	-1.47524	-0.372474	-0.589844	-0.846809	-1.42942	-1.03687	-1.54923	-0.687219	-1.06198	-0.20857	-0.618498	-0.392846	-0.479681	0.033735	-0.353411	-0.348452	-0.117849	-0.235972	0.15091	-0.3205	-0.368972	-0.118224	-0.22972	
4.26483	5	0	-2.55398	-0.771681	-0.203328	-0.302357	-0.443304	-0.500576	-0.153681	-0.073093	-1.02782	-1.47238	-0.360445	-0.589346	-0.843907	-1.42663	-1.0387	-1.54404	-0.685563	-1.05774	-0.210319	-0.613557	-0.394387	-0.475326	0.0331095	-0.341171	-0.347388	-0.111824	-0.229398	0.146615	-0.311364	-0.370989	-0.119834	-0.225172	
4.26178	5	0	-2.55178	-0.755022	-0.19351	-0.296412	-0.441438	-0.495585	-0.149652	-0.069113	-1.02883	-1.46952	-0.348417	-0.588848	-0.841004	-1.42384	-1.04054	-1.53886	-0.683906	-1.0535	-0.212067	-0.608616	-0.395928	-0.470971	0.032484	-0.328931	-0.346325	-0.105799	-0.222824	0.142319	-0.302228	-0.373006	-0.121443	-0.220624	
4.26483	5	0	-2.54547	-0.761412	-0.19351	-0.296412	-0.440485	-0.498279	-0.150906	-0.0732537	-1.02834	-1.48082	-0.352511	-0.59453	-0.841752	-1.43272	-1.0387	-1.54404	-0.687196	-1.05313	-0.212067	-0.608616	-0.398046	-0.472935	0.028754	-0.328861	-0.348646	-0.0992383	-0.216245	0.13802	-0.298565	-0.371444	-0.123859	-0.213797	
4.26178	5	0	-2.53915	-0.767802	-0.19351	-0.296412	-0.439532	-0.500972	-0.152161	-0.0773945	-1.02786	-1.49211	-0.356606	-0.600213	-0.8425	-1.4416	-1.03687	-1.54923	-0.690486	-1.05275	-0.212067	-0.608616	-0.400165	-0.474899	0.025024	-0.328792	-0.350968	-0.0926775	-0.209666	0.133721	-0.294903	-0.369883	-0.126275	-0.206971	
4.25873	5	0	-2.53284	-0.774191	-0.19351	-0.296412	-0.438579	-0.503665	-0.153415	-0.0815353	-1.02737	-1.5034	-0.3607	-0.605895	-0.843248	-1.45048	-1.03503	-1.55441	-0.693775	-1.05238	-0.212067	-0.608616	-0.402284	-0.476863	0.021294	-0.328722	-0.35329	-0.0861168	-0.203087	0.129422	-0.29124	-0.368321	-0.12869	-0.200144	
4.25873	5	0	-2.52653	-0.780581	-0.19351	-0.296412	-0.437626	-0.506359	-0.154669	-0.085676	-1.02689	-1.5147	-0.364795	-0.611577	-0.843996	-1.45935	-1.0332	-1.5596	-0.697065	-1.052	-0.212067	-0.608616	-0.404402	-0.478827	0.017564	-0.328653	-0.355611	-0.079556	-0.196508	0.125123	-0.287577	-0.366759	-0.131106	-0.193317	
4.26025	5	0	-2.52119	-0.772736	-0.194034	-0.283688	-0.439532	-0.500971	-0.146336	-0.0861608	-1.02434	-1.51197	-0.368641	-0.600706	-0.847229	-1.45022	-1.02776	-1.55916	-0.69541	-1.04776	-0.213816	-0.603673	-0.400743	-0.481218	0.0180223	-0.319476	-0.353001	-0.0778965	-0.193216	0.122973	-0.293971	-0.360603	-0.128249	-0.193433	
4.25873	5	0	-2.51586	-0.76489	-0.194557	-0.270964	-0.441439	-0.495583	-0.138003	-0.0866455	-1.02179	-1.50925	-0.372488	-0.589835	-0.850461	-1.44108	-1.02232	-1.55873	-0.693755	-1.04351	-0.215566	-0.598729	-0.397083	-0.48361	0.0184805	-0.310299	-0.350391	-0.076237	-0.189925	0.120822	-0.300364	-0.354447	-0.125391	-0.19355	
4.25873	5	0	-2.51052	-0.757045	-0.195081	-0.258239	-0.443346	-0.490195	-0.12967	-0.0871302	-1.01925	-1.50652	-0.376335	-0.578964	-0.853694	-1.43195	-1.01688	-1.5583	-0.692099	-1.03927	-0.217315	-0.593785	-0.393423	-0.486001	0.0189388	-0.301122	-0.347782	-0.0745775	-0.186634	0.118671	-0.306758	-0.348291	-0.122534	-0.193667	
4.26178	5	0	-2.50519	-0.7492	-0.195605	-0.245515	-0.445252	-0.484807	-0.121337	-0.087615	-1.0167	-1.5038	-0.380181	-0.568093	-0.856927	-1.42281	-1.01144	-1.55787	-0.690444	-1.03503	-0.219064	-0.588842	-0.389764	-0.488392	0.019397	-0.291945	-0.345172	-0.072918	-0.183342	0.116521	-0.313151	-0.342135	-0.119677	-0.193783	
4.25873	5	0	-2.50629	-0.757545	-0.194464	-0.248739	-0.44144	-0.49558	-0.126893	-0.0872915	-1.02078	-1.5121	-0.374413	-0.584394	-0.856597	-1.43473	-1.01688	-1.5583	-0.690444	-1.03503	-0.219939	-0.586369	-0.395541	-0.487964	0.0134858	-0.285711	-0.346721	-0.068539	-0.17346	0.110064	-0.321364	-0.330831	-0.117625	-0.191622	
4.26178	5	0	-2.50739	-0.765891	-0.193324	-0.251962	-0.437628	-0.506352	-0.13245	-0.086968	-1.02486	-1.5204	-0.368645	-0.600696	-0.856267	-1.44665	-1.02232	-1.55873	-0.690444	-1.03503	-0.220813	-0.583897	-0.401318	-0.487536	0.0075745	-0.279478	-0.34827	-0.06416	-0.163579	0.103607	-0.329576	-0.319526	-0.115572	-0.189461	
4.2572	5	0	-2.5085	-0.774236	-0.192184	-0.255186	-0.433816	-0.517125	-0.138007	-0.0866445	-1.02895	-1.52869	-0.362877	-0.616997	-0.855937	-1.45856	-1.02776	-1.55916	-0.690444	-1.03503	-0.221688	-0.581424	-0.407095	-0.487107	0.00166325	-0.273244	-0.34982	-0.059781	-0.153697	0.09715	-0.337788	-0.308221	-0.11352	-0.1873	
4.2511	5	0	-2.5096	-0.782581	-0.191043	-0.258409	-0.430004	-0.527898	-0.143563	-0.086321	-1.03303	-1.53699	-0.357109	-0.633299	-0.855607	-1.47048	-1.0332	-1.5596	-0.690444	-1.03503	-0.222563	-0.578951	-0.412872	-0.486679	-0.004248	-0.26701	-0.351369	-0.055402	-0.143815	0.090693	-0.346001	-0.296917	-0.111468	-0.185139	
4.25567	5	0	-2.50217	-0.780636	-0.194466	-0.248735	-0.426229	-0.528295	-0.138007	-0.0866445	-1.03149	-1.53142	-0.366728	-0.606113	-0.853781	-1.46466	-1.03143	-1.54879	-0.68797	-1.03309	-0.218262	-0.574152	-0.409214	-0.489069	0.0010255	-0.260963	-0.351369	-0.055402	-0.140518	0.088539	-0.335039	-0.30408	-0.113081	-0.180581	
4.25415	5	0	-2.49475	-0.77869	-0.197889	-0.239061	-0.422455	-0.528691	-0.13245	-0.086968	-1.02996	-1.52585	-0.376348	-0.578927	-0.851956	-1.45883	-1.02966	-1.53797	-0.685497	-1.03115	-0.21396	-0.569353	-0.405556	-0.491459	0.006299	-0.254916	-0.351369	-0.055402	-0.137222	0.086385	-0.324076	-0.311243	-0.114693	-0.176023	
4.2511	5	0	-2.48732	-0.776745	-0.201312	-0.229388	-0.418681	-0.529088	-0.126893	-0.0872915	-1.02842	-1.52027	-0.385967	-0.551741	-0.850131	-1.453	-1.0279	-1.52716	-0.683024	-1.02922	-0.209659	-0.564554	-0.401898	-0.49385	0.0115725	-0.248869	-0.351369	-0.055402	-0.133926	0.084231	-0.313114	-0.318406	-0.116305	-0.171466	
4.24805	5	0	-2.47989	-0.7748	-0.204735	-0.219714	-0.414906	-0.529485	-0.121337	-0.087615	-1.02689	-1.5147	-0.395586	-0.524555	-0.848305	-1.44718	-1.02613	-1.51635	-0.68055	-1.02728	-0.205358	-0.559755	-0.39824	-0.49624	0.016846	-0.242822	-0.351369	-0.055402	-0.130629	0.082077	-0.302152	-0.325569	-0.117918	-0.166908	
4.25262	5	0	-1.8033	-1.19419	-0.203594	-0.22294	-0.420549	-0.534072	-0.124116	-0.087453	-1.02943	-1.51742	-0.395586	-0.524555	-0.857337	-1.44362	-1.01885	-1.52111	-0.683823	-1.01803	-0.20496	-0.552397	-0.401128	-0.496026	0.0113763	-0.227363	-0.351085	-0.047164	-0.120732	0.07561	-0.300314	-0.318844	-0.117044	-0.153446	
4.24805	5	0	-1.12671	-1.61357	-0.202452	-0.226165	-0.426192	-0.53866	-0.126895	-0.087291	-1.03198	-1.52014	-0.395586	-0.524555	-0.866368	-1.44005	-1.01157	-1.52587	-0.687096	-1.00878	-0.204561	-0.54504	-0.404017	-0.495811	0.0059065	-0.211904	-0.350802	-0.038926	-0.110835	0.069143	-0.298475	-0.312119	-0.116169	-0.139985	
4.24957	5	0	-0.450121	-2.03296	-0.201311	-0.229391	-0.431836	-0.543247	-0.129674	-0.087129	-1.03452	-1.52287	-0.395586	-0.524555	-0.8754	-1.43649	-1.00429	-1.53063	-0.690369	-0.999531	-0.204162	-0.537682	-0.406905	-0.495596	0.00043675	-0.196446	-0.350519	-0.030688	-0.100938	0.062676	-0.296636	-0.305395	-0.115295	-0.126523	
4.24499	5	0	0.226468	-2.45234	-0.200169	-0.232617	-0.437479	-0.547834	-0.132453	-0.086967	-1.03706	-1.52559	-0.395586	-0.524555	-0.884432	-1.43293	-0.997008	-1.53538	-0.693642	-0.990281	-0.203764	-0.530324	-0.409793	-0.495382	-0.005033	-0.180987	-0.350235	-0.02245	-0.091041	0.056209	-0.294798	-0.29867	-0.114421	-0.113061	
4.24194	5	0	0.37878	-2.53136	-0.201846	-0.216628	-0.434658	-0.545541	-0.131197	-0.0828253	-1.03553	-1.52001	-0.387413	-0.513129	-0.878634	-1.42735	-1.00068	-1.52499	-0.691989	-0.986023	-0.20249	-0.525437	-0.408445	-0.491243	-0.003494	-0.174852	-0.350235	-0.02245	-0.0877395	0.0540518	-0.30211	-0.289926	-0.105835	-0.113401	
4.24194	5	0	0.531092	-2.61038	-0.203522	-0.200639	-0.431837	-0.543249	-0.129941	-0.0786835	-1.03399	-1.51444	-0.37924	-0.501703	-0.872836	-1.42178	-1.00436	-1.5146	-0.690335	-0.981766	-0.201216	-0.520551	-0.407098	-0.487104	-0.001955	-0.168716	-0.350235	-0.02245	-0.084438	0.0518945	-0.309422	-0.281182	-0.097249	-0.113741	
4.23736	5	0	0.683403	-2.6894	-0.205199	-0.184651	-0.429016	-0.540956	-0.128684	-0.0745418	-1.03246	-1.50886	-0.371068	-0.490278	-0.867038	-1.4162	-1.00804	-1.50421	-0.688681	-0.977509	-0.199942	-0.515664	-0.40575	-0.482966	-0.000416	-0.162581	-0.350235	-0.02245	-0.0811365	0.0497372	-0.316734	-0.272438	-0.088663	-0.114082	
4.23584	5	0	0.835715	-2.76842	-0.206875	-0.168662	-0.426195	-0.538663	-0.127428	-0.0704	-1.03092	-1.50328	-0.362895	-0.478852	-0.86124	-1.41062	-1.01171	-1.49382	-0.687028	-0.973251	-0.198668	-0.510777	-0.404402	-0.478827	0.001123	-0.156446	-0.350235	-0.02245	-0.077835	0.04758	-0.324046	-0.263694	-0.080077	-0.114422	
4.23279	5	0	0.635051	-2.63958	-0.205732	-0.171894	-0.427113	-0.546332	-0.130207	-0.070239	-1.03549	-1.5003	-0.36676	-0.467928	-0.867375	-1.40427	-1.00988	-1.49902	-0.686194	-0.966672	-0.202181	-0.500849	-0.405172	-0.47665	0.00419875	-0.144152	-0.34579	-0.0169212	-0.0613083	0.036781	-0.31581	-0.263122	-0.08207	-0.100807	
4.23126	5	0	0.434387	-2.51074	-0.204588	-0.175125	-0.428032	-0.554002	-0.132986	-0.070078	-1.04005	-1.49732	-0.370626	-0.457004	-0.873509	-1.39792	-1.00804	-1.50421	-0.685361	-0.960093	-0.205694	-0.49092	-0.405942	-0.474472	0.0072745	-0.131858	-0.341345	-0.0113925	-0.0447815	0.025982	-0.307574	-0.262549	-0.084063	-0.087193	
4.22516	5	0	0.233722	-2.38191	-0.203445	-0.178357	-0.428951	-0.561671	-0.135764	-0.069917	-1.04461	-1.49434	-0.374491	-0.446079	-0.879644	-1.39156	-1.0062	-1.50941	-0.684527	-0.953513	-0.209207	-0.480992	-0.406713	-0.472295	0.0103503	-0.119564	-0.336899	-0.00586375	-0.0282548	0.015183	-0.299338	-0.261977	-0.086056	-0.0735785	
4.22211	5	0	0.033058	-2.25307	-0.202301	-0.181589	-0.429869	-0.569341	-0.138543	-0.069756	-1.04918	-1.49136	-0.378356	-0.435155	-0.885779	-1.38521	-1.00436	-1.51461	-0.683693	-0.946934	-0.21272	-0.471064	-0.407483	-0.470117	0.013426	-0.10727	-0.332454	-0.000335	-0.011728	0.004384	-0.291102	-0.261405	-0.088049	-0.059964	
4.22058	5	0	-0.115873	-2.15119	-0.198802	-0.168955	-0.431771	-0.563964	-0.132985	-0.0700782	-1.0512	-1.48565	-0.37427	-0.429416	-0.882881	-1.38241	-1.0062	-1.50941	-0.685334	-0.942297	-0.209691	-0.471134	-0.409025	-0.465761	0.017161	-0.107324	-0.331677	-0.00253	-0.0183425	0.008706	-0.286523	-0.262412	-0.0843737	-0.0623655	
4.21753	5	0	-0.264804	-2.04931	-0.195304	-0.156321	-0.433674	-0.558588	-0.127426	-0.0704005	-1.05322	-1.47994	-0.370185	-0.423677	-0.879984	-1.37962	-1.00804	-1.50421	-0.686975	-0.93766	-0.206661	-0.471203	-0.410566	-0.461404	0.020896	-0.107378	-0.330901	-0.004725	-0.024957	0.013028	-0.281943	-0.263418	-0.0806985	-0.064767	
4.21753	5	0	-0.413735	-1.94744	-0.191805	-0.143686	-0.435577	-0.553211	-0.121867	-0.0707228	-1.05524	-1.47423	-0.366099	-0.417937	-0.877086	-1.37682	-1.00988	-1.49902	-0.688615	-0.933023	-0.203632	-0.471273	-0.412107	-0.457048	0.024631	-0.107431	-0.330124	-0.00692	-0.0315715	0.01735	-0.277364	-0.264424	-0.0770233	-0.0671685	
