1.39465	0	0	1.70622	-0.013763	-0.028568	0.040842	-0.065595	-0.011735	-0.028548	0.005319	-0.020168	-0.055855	0.000261	0.0464	-0.046304	0.038356	-0.023916	0.029816	-0.038358	-0.037681	-0.028028	0.107254	0.0344	-0.011808	-0.142222	0.007216	-0.118967	-0.064137	0.173807	-0.160881	-0.157155	-0.061628	0.074907	-0.119685	
1.3977	0	0	1.70622	-0.013763	-0.025066	0.0442445	-0.0626243	-0.0093115	-0.0265825	0.0111802	-0.0167285	-0.0561765	0.000261	0.0464	-0.0449725	0.0345932	-0.023916	0.029816	-0.0394425	-0.0346158	-0.028028	0.107254	0.0344	-0.011808	-0.140448	0.002203	-0.121322	-0.0688197	0.183293	-0.172773	-0.155784	-0.0655015	0.0714715	-0.122413	
1.39313	0	0	1.70622	-0.013763	-0.021564	0.047647	-0.0596535	-0.006888	-0.024617	0.0170415	-0.013289	-0.056498	0.000261	0.0464	-0.043641	0.0308305	-0.023916	0.029816	-0.040527	-0.0315505	-0.028028	0.107254	0.0344	-0.011808	-0.138674	-0.00281	-0.123678	-0.0735025	0.192779	-0.184665	-0.154414	-0.069375	0.068036	-0.125142	
1.39465	0	0	1.70622	-0.013763	-0.018062	0.0510495	-0.0566828	-0.0044645	-0.0226515	0.0229028	-0.0098495	-0.0568195	0.000261	0.0464	-0.0423095	0.0270678	-0.023916	0.029816	-0.0416115	-0.0284853	-0.028028	0.107254	0.0344	-0.011808	-0.136901	-0.007823	-0.126033	-0.0781852	0.202266	-0.196556	-0.153043	-0.0732485	0.0646005	-0.12787	
1.39465	0	0	1.70622	-0.013763	-0.01456	0.054452	-0.053712	-0.002041	-0.020686	0.028764	-0.00641	-0.057141	0.000261	0.0464	-0.040978	0.023305	-0.023916	0.029816	-0.042696	-0.02542	-0.028028	0.107254	0.0344	-0.011808	-0.135127	-0.012836	-0.128389	-0.082868	0.211752	-0.208448	-0.151673	-0.077122	0.061165	-0.130599	
1.39465	0	0	1.70622	-0.013763	-0.0193712	0.0547497	-0.0556787	-0.007302	-0.0300947	0.0325293	-0.0150603	-0.0514885	-0.0011505	0.0503895	-0.047233	0.0273922	-0.023916	0.029816	-0.0448662	-0.0192865	-0.028028	0.107254	0.0323527	-0.006022	-0.140452	0.0022115	-0.129343	-0.080171	0.209132	-0.201043	-0.155787	-0.0654962	0.0646005	-0.12787	
1.3977	0	0	1.70622	-0.013763	-0.0241825	0.0550475	-0.0576455	-0.012563	-0.0395035	0.0362945	-0.0237105	-0.045836	-0.002562	0.054379	-0.053488	0.0314795	-0.023916	0.029816	-0.0470365	-0.013153	-0.028028	0.107254	0.0303055	-0.000236	-0.145776	0.017259	-0.130298	-0.077474	0.206512	-0.193638	-0.159901	-0.0538705	0.068036	-0.125142	
1.39007	0	0	1.70622	-0.013763	-0.0289938	0.0553452	-0.0596123	-0.017824	-0.0489123	0.0400598	-0.0323608	-0.0401835	-0.0039735	0.0583685	-0.059743	0.0355668	-0.023916	0.029816	-0.0492068	-0.0070195	-0.028028	0.107254	0.0282583	0.00555	-0.1511	0.0323065	-0.131252	-0.074777	0.203891	-0.186232	-0.164014	-0.0422447	0.0714715	-0.122413	
1.39465	0	0	1.70622	-0.013763	-0.033805	0.055643	-0.061579	-0.023085	-0.058321	0.043825	-0.041011	-0.034531	-0.005385	0.062358	-0.065998	0.039654	-0.023916	0.029816	-0.051377	-0.000886	-0.028028	0.107254	0.026211	0.011336	-0.156425	0.047354	-0.132206	-0.07208	0.201271	-0.178827	-0.168128	-0.030619	0.074907	-0.119685	
1.39313	0	0	1.70622	-0.013763	-0.033805	0.055643	-0.0605755	-0.0259215	-0.05307	0.0403937	-0.0392383	-0.0395413	-0.005385	0.062358	-0.059743	0.0355668	-0.030121	0.0338707	-0.0469552	-0.00141625	-0.0326808	0.107659	0.026211	0.011336	-0.154649	0.0423352	-0.133607	-0.0794543	0.205201	-0.189933	-0.164014	-0.0422447	0.0714715	-0.122413	
1.39465	0	0	1.70622	-0.013763	-0.033805	0.055643	-0.059572	-0.028758	-0.047819	0.0369625	-0.0374655	-0.0445515	-0.005385	0.062358	-0.053488	0.0314795	-0.036326	0.0379255	-0.0425335	-0.0019465	-0.0373335	0.108064	0.026211	0.011336	-0.152873	0.0373165	-0.135008	-0.0868285	0.20913	-0.201038	-0.159901	-0.0538705	0.068036	-0.125142	
1.39313	0	0	1.70622	-0.013763	-0.033805	0.055643	-0.0585685	-0.0315945	-0.042568	0.0335312	-0.0356927	-0.0495618	-0.005385	0.062358	-0.047233	0.0273922	-0.042531	0.0419802	-0.0381117	-0.00247675	-0.0419863	0.108469	0.026211	0.011336	-0.151098	0.0322978	-0.136408	-0.0942028	0.21306	-0.212144	-0.155787	-0.0654963	0.0646005	-0.12787	
1.39465	0	0	1.70622	-0.013763	-0.033805	0.055643	-0.057565	-0.034431	-0.037317	0.0301	-0.03392	-0.054572	-0.005385	0.062358	-0.040978	0.023305	-0.048736	0.046035	-0.03369	-0.003007	-0.046639	0.108874	0.026211	0.011336	-0.149322	0.027279	-0.137809	-0.101577	0.21699	-0.223249	-0.151673	-0.077122	0.061165	-0.130599	
1.3916	0	0	1.70622	-0.013763	-0.0342385	0.0701678	-0.0516192	-0.0295893	-0.0364515	0.0390705	-0.0297035	-0.0476938	-0.00323825	0.070165	-0.03605	0.0229775	-0.043892	0.0458272	-0.0303515	-0.000468	-0.0454268	0.105448	0.0241625	0.0171258	-0.151098	0.0322978	-0.137809	-0.101577	0.21699	-0.223249	-0.157373	-0.0763743	0.0600207	-0.127365	
1.39313	0	0	1.70622	-0.013763	-0.034672	0.0846925	-0.0456735	-0.0247475	-0.035586	0.048041	-0.025487	-0.0408155	-0.0010915	0.077972	-0.031122	0.02265	-0.039048	0.0456195	-0.027013	0.002071	-0.0442145	0.102022	0.022114	0.0229155	-0.152873	0.0373165	-0.137809	-0.101577	0.21699	-0.223249	-0.163073	-0.0756265	0.0588765	-0.124131	
1.3916	0	0	1.70622	-0.013763	-0.0351055	0.0992172	-0.0397277	-0.0199057	-0.0347205	0.0570115	-0.0212705	-0.0339373	0.00105525	0.085779	-0.026194	0.0223225	-0.034204	0.0454118	-0.0236745	0.00461	-0.0430022	0.0985952	0.0200655	0.0287053	-0.154649	0.0423353	-0.137809	-0.101577	0.21699	-0.223249	-0.168773	-0.0748787	0.0577322	-0.120897	
1.39465	0	0	1.70622	-0.013763	-0.035539	0.113742	-0.033782	-0.015064	-0.033855	0.065982	-0.017054	-0.027059	0.003202	0.093586	-0.021266	0.021995	-0.02936	0.045204	-0.020336	0.007149	-0.04179	0.095169	0.018017	0.034495	-0.156425	0.047354	-0.137809	-0.101577	0.21699	-0.223249	-0.174473	-0.074131	0.056588	-0.117663	
1.39313	0	0	1.70622	-0.013763	-0.0390365	0.110327	-0.0407312	-0.0170693	-0.0380115	0.0663128	-0.020493	-0.0267395	-0.00459775	0.101755	-0.0225977	0.0257593	-0.02936	0.045204	-0.018083	0.0127635	-0.040578	0.091744	0.015967	0.0402882	-0.158202	0.0523752	-0.14067	-0.0934915	0.21306	-0.212144	-0.178585	-0.06251	0.062313	-0.108959	
1.39465	0	0	1.70622	-0.013763	-0.042534	0.106912	-0.0476805	-0.0190745	-0.042168	0.0666435	-0.023932	-0.02642	-0.0123975	0.109924	-0.0239295	0.0295235	-0.02936	0.045204	-0.01583	0.018378	-0.039366	0.088319	0.013917	0.0460815	-0.159979	0.0573965	-0.143531	-0.085406	0.20913	-0.201038	-0.182697	-0.050889	0.068038	-0.100255	
1.39007	0	0	1.70622	-0.013763	-0.0460315	0.103498	-0.0546298	-0.0210798	-0.0463245	0.0669742	-0.027371	-0.0261005	-0.0201972	0.118093	-0.0252612	0.0332878	-0.02936	0.045204	-0.013577	0.0239925	-0.038154	0.084894	0.011867	0.0518747	-0.161755	0.0624178	-0.146392	-0.0773205	0.205201	-0.189933	-0.186809	-0.039268	0.073763	-0.0915518	
1.3916	0	0	1.70622	-0.013763	-0.049529	0.100083	-0.061579	-0.023085	-0.050481	0.067305	-0.03081	-0.025781	-0.027997	0.126262	-0.026593	0.037052	-0.02936	0.045204	-0.011324	0.029607	-0.036942	0.081469	0.009817	0.057668	-0.163532	0.067439	-0.149253	-0.069235	0.201271	-0.178827	-0.190921	-0.027647	0.079488	-0.082848	
1.3916	0	0	1.70622	-0.013763	-0.0508405	0.10379	-0.061579	-0.023085	-0.050481	0.067305	-0.0316973	-0.0232735	-0.0244418	0.130088	-0.0292585	0.0445852	-0.0320843	0.0529027	-0.00798225	0.0321517	-0.0357308	0.0780455	0.009817	0.057668	-0.161755	0.0624178	-0.148299	-0.071931	0.201271	-0.178827	-0.190921	-0.027647	0.074906	-0.0823448	
1.39465	0	0	1.70622	-0.013763	-0.052152	0.107496	-0.061579	-0.023085	-0.050481	0.067305	-0.0325845	-0.020766	-0.0208865	0.133914	-0.031924	0.0521185	-0.0348085	0.0606015	-0.0046405	0.0346965	-0.0345195	0.074622	0.009817	0.057668	-0.159979	0.0573965	-0.147345	-0.074627	0.201271	-0.178827	-0.190921	-0.027647	0.070324	-0.0818415	
1.39007	0	0	1.70622	-0.013763	-0.0534635	0.111202	-0.061579	-0.023085	-0.050481	0.067305	-0.0334718	-0.0182585	-0.0173312	0.137741	-0.0345895	0.0596517	-0.0375328	0.0683003	-0.00129875	0.0372413	-0.0333082	0.0711985	0.009817	0.057668	-0.158202	0.0523752	-0.146391	-0.077323	0.201271	-0.178827	-0.190921	-0.027647	0.065742	-0.0813383	
1.3916	0	0	1.70622	-0.013763	-0.054775	0.114909	-0.061579	-0.023085	-0.050481	0.067305	-0.034359	-0.015751	-0.013776	0.141567	-0.037255	0.067185	-0.040257	0.075999	0.002043	0.039786	-0.032097	0.067775	0.009817	0.057668	-0.156425	0.047354	-0.145437	-0.080019	0.201271	-0.178827	-0.190921	-0.027647	0.06116	-0.080835	
1.39007	0	0	1.70622	-0.013763	-0.0552195	0.129465	-0.0606172	-0.014984	-0.0559738	0.0828283	-0.0258137	-0.0116878	-0.013054	0.153411	-0.0349935	0.0744035	-0.038138	0.083502	0.0042975	0.0454118	-0.0333082	0.0711985	0.0193422	0.055901	-0.159979	0.0573995	-0.142129	-0.0780342	0.198649	-0.171416	-0.187968	-0.020631	0.058867	-0.0743543	
1.38702	0	0	1.70622	-0.013763	-0.055664	0.14402	-0.0596555	-0.006883	-0.0614665	0.0983515	-0.0172685	-0.0076245	-0.012332	0.165254	-0.032732	0.081622	-0.036019	0.091005	0.006552	0.0510375	-0.0345195	0.074622	0.0288675	0.054134	-0.163534	0.067445	-0.138821	-0.0760495	0.196026	-0.164004	-0.185015	-0.013615	0.056574	-0.0678735	
1.39313	0	0	1.70622	-0.013763	-0.0561085	0.158576	-0.0586938	0.001218	-0.0669592	0.113875	-0.00872325	-0.00356125	-0.01161	0.177097	-0.0304705	0.0888405	-0.0339	0.098508	0.0088065	0.0566632	-0.0357308	0.0780455	0.0383928	0.052367	-0.167089	0.0774905	-0.135514	-0.0740648	0.193404	-0.156593	-0.182062	-0.006599	0.054281	-0.0613928	
1.39313	0	0	1.70622	-0.013763	-0.056553	0.173131	-0.057732	0.009319	-0.072452	0.129398	-0.000178	0.000502	-0.010888	0.188941	-0.028209	0.096059	-0.031781	0.106011	0.011061	0.062289	-0.036942	0.081469	0.047918	0.0506	-0.170643	0.087536	-0.132206	-0.07208	0.190782	-0.149182	-0.179109	0.000417	0.051988	-0.054912	
1.38855	0	0	1.70622	-0.013763	-0.0613597	0.173417	-0.056727	0.006479	-0.0766037	0.129723	-0.00273175	-0.00168975	-0.00947	0.184934	-0.0268743	0.092287	-0.031781	0.106011	0.0044495	0.068977	-0.0357308	0.0780455	0.0373673	0.0552653	-0.177408	0.0880937	-0.139331	-0.0632758	0.190782	-0.149182	-0.176156	0.00744475	0.049693	-0.0484265	
1.39007	0	0	1.70622	-0.013763	-0.0661665	0.173702	-0.055722	0.003639	-0.0807555	0.130047	-0.0052855	-0.0038815	-0.008052	0.180926	-0.0255395	0.088515	-0.031781	0.106011	-0.002162	0.075665	-0.0345195	0.074622	0.0268165	0.0599305	-0.184172	0.0886515	-0.146457	-0.0544715	0.190782	-0.149182	-0.173202	0.0144725	0.047398	-0.041941	
1.39313	0	0	1.70622	-0.013763	-0.0709733	0.173988	-0.054717	0.000799	-0.0849073	0.130372	-0.00783925	-0.00607325	-0.006634	0.176919	-0.0242048	0.084743	-0.031781	0.106011	-0.0087735	0.082353	-0.0333082	0.0711985	0.0162657	0.0645958	-0.190937	0.0892093	-0.153582	-0.0456672	0.190782	-0.149182	-0.170249	0.0215003	0.045103	-0.0354555	
1.38702	0	0	1.70622	-0.013763	-0.07578	0.174273	-0.053712	-0.002041	-0.089059	0.130696	-0.010393	-0.008265	-0.005216	0.172911	-0.02287	0.080971	-0.031781	0.106011	-0.015385	0.089041	-0.032097	0.067775	0.005715	0.069261	-0.197702	0.089767	-0.160708	-0.036863	0.190782	-0.149182	-0.167296	0.028528	0.042808	-0.02897	
1.39465	0	0	1.70622	-0.013763	-0.078409	0.181703	-0.054717	0.000799	-0.086007	0.13348	-0.0060625	-0.0110945	0.001179	0.168733	-0.0242048	0.084743	-0.034511	0.113726	-0.0142952	0.085961	-0.030886	0.0643525	0.0067405	0.0663627	-0.197702	0.089767	-0.153582	-0.0456672	0.179677	-0.147624	-0.174372	0.0331515	0.0393785	-0.031715	
1.38855	0	0	1.70622	-0.013763	-0.081038	0.189133	-0.055722	0.003639	-0.082955	0.136263	-0.001732	-0.013924	0.007574	0.164554	-0.0255395	0.088515	-0.037241	0.121442	-0.0132055	0.082881	-0.029675	0.06093	0.007766	0.0634645	-0.197702	0.089767	-0.146457	-0.0544715	0.168573	-0.146066	-0.181448	0.037775	0.035949	-0.03446	
1.38702	0	0	1.70622	-0.013763	-0.083667	0.196562	-0.056727	0.006479	-0.079903	0.139047	0.0025985	-0.0167535	0.013969	0.160376	-0.0268743	0.092287	-0.039971	0.129157	-0.0121157	0.079801	-0.028464	0.0575075	0.0087915	0.0605663	-0.197702	0.089767	-0.139331	-0.0632758	0.157469	-0.144508	-0.188524	0.0423985	0.0325195	-0.037205	
1.39007	0	0	1.70622	-0.013763	-0.086296	0.203992	-0.057732	0.009319	-0.076851	0.14183	0.006929	-0.019583	0.020364	0.156197	-0.028209	0.096059	-0.042701	0.136873	-0.011026	0.076721	-0.027253	0.054085	0.009817	0.057668	-0.197702	0.089767	-0.132206	-0.07208	0.146364	-0.14295	-0.1956	0.047022	0.02909	-0.03995	
1.3916	0	0	1.70622	-0.013763	-0.0828062	0.207428	-0.0607485	0.0178447	-0.0843028	0.15148	0.0059285	-0.0073415	0.016108	0.168225	-0.0295443	0.0998327	-0.0454333	0.144595	-0.0099365	0.073642	-0.0225985	0.0536748	0.0087915	0.0605663	-0.190937	0.0892093	-0.13507	-0.0639848	0.145053	-0.139245	-0.192652	0.0540648	0.0279428	-0.0367077	
1.3916	0	0	1.70622	-0.013763	-0.0793165	0.210865	-0.063765	0.0263705	-0.0917545	0.161131	0.004928	0.0049	0.011852	0.180252	-0.0308795	0.103607	-0.0481655	0.152317	-0.008847	0.070563	-0.017944	0.0532645	0.007766	0.0634645	-0.184172	0.0886515	-0.137935	-0.0558895	0.143742	-0.13554	-0.189704	0.0611075	0.0267955	-0.0334655	
1.39007	0	0	1.70622	-0.013763	-0.0758267	0.214301	-0.0667815	0.0348963	-0.0992062	0.170781	0.0039275	0.0171415	0.007596	0.19228	-0.0322148	0.10738	-0.0508977	0.160039	-0.0077575	0.067484	-0.0132895	0.0528542	0.0067405	0.0663627	-0.177408	0.0880937	-0.140799	-0.0477942	0.142431	-0.131835	-0.186756	0.0681502	0.0256482	-0.0302233	
1.39007	0	0	1.70622	-0.013763	-0.072337	0.217737	-0.069798	0.043422	-0.106658	0.180431	0.002927	0.029383	0.00334	0.204308	-0.03355	0.111154	-0.05363	0.167761	-0.006668	0.064405	-0.008635	0.052444	0.005715	0.069261	-0.170643	0.087536	-0.143664	-0.039699	0.14112	-0.12813	-0.183808	0.075193	0.024501	-0.026981	
1.39007	0	0	1.70622	-0.013763	-0.071021	0.214018	-0.0677868	0.0377372	-0.106658	0.180431	0.0038165	0.026869	-0.0016355	0.204475	-0.0384788	0.111474	-0.0522635	0.163899	-0.00892	0.0587803	-0.0062135	0.0456007	-0.001746	0.0652283	-0.168865	0.0825117	-0.14888	-0.0362907	0.136886	-0.131059	-0.192261	0.0837087	0.0142107	-0.0227495	
1.38855	0	0	1.70622	-0.013763	-0.069705	0.2103	-0.0657755	0.0320525	-0.106658	0.180431	0.004706	0.024355	-0.006611	0.204643	-0.0434075	0.111793	-0.050897	0.160037	-0.011172	0.0531555	-0.003792	0.0387575	-0.009207	0.0611955	-0.167087	0.0774875	-0.154096	-0.0328825	0.132652	-0.133988	-0.200715	0.0922245	0.0039205	-0.018518	
1.39007	0	0	1.70622	-0.013763	-0.068389	0.206581	-0.0637642	0.0263678	-0.106658	0.180431	0.0055955	0.021841	-0.0115865	0.204811	-0.0483362	0.112113	-0.0495305	0.156176	-0.013424	0.0475307	-0.0013705	0.0319142	-0.016668	0.0571627	-0.16531	0.0724633	-0.159312	-0.0294743	0.128418	-0.136917	-0.209168	0.10074	-0.00636975	-0.0142865	
1.3916	0	0	1.70622	-0.013763	-0.067073	0.202862	-0.061753	0.020683	-0.106658	0.180431	0.006485	0.019327	-0.016562	0.204978	-0.053265	0.112432	-0.048164	0.152314	-0.015676	0.041906	0.001051	0.025071	-0.024129	0.05313	-0.163532	0.067439	-0.164528	-0.026066	0.124184	-0.139846	-0.217621	0.109256	-0.01666	-0.010055	
1.38702	0	0	1.98118	-0.790825	-0.0697052	0.210301	-0.0647705	0.0292115	-0.103609	0.183223	0.0099305	0.0190085	-0.0179813	0.208989	-0.053265	0.112432	-0.048164	0.152314	-0.0211905	0.0455093	0.001051	0.025071	-0.024129	0.05313	-0.170298	0.0679995	-0.162618	-0.0314637	0.118644	-0.139072	-0.216244	0.105364	-0.014367	-0.016536	
1.38702	0	0	2.25613	-1.56789	-0.0723375	0.217741	-0.067788	0.03774	-0.100559	0.186016	0.013376	0.01869	-0.0194005	0.213	-0.053265	0.112432	-0.048164	0.152314	-0.026705	0.0491125	0.001051	0.025071	-0.024129	0.05313	-0.177063	0.06856	-0.160708	-0.0368615	0.113104	-0.138298	-0.214867	0.101472	-0.012074	-0.023017	
1.38855	0	0	2.53109	-2.34495	-0.0749698	0.22518	-0.0708055	0.0462685	-0.0975103	0.188808	0.0168215	0.0183715	-0.0208197	0.217011	-0.053265	0.112432	-0.048164	0.152314	-0.0322195	0.0527157	0.001051	0.025071	-0.024129	0.05313	-0.183829	0.0691205	-0.158798	-0.0422592	0.107565	-0.137524	-0.213489	0.0975793	-0.009781	-0.029498	
1.38702	0	0	2.80604	-3.12201	-0.077602	0.232619	-0.073823	0.054797	-0.094461	0.1916	0.020267	0.018053	-0.022239	0.221022	-0.053265	0.112432	-0.048164	0.152314	-0.037734	0.056319	0.001051	0.025071	-0.024129	0.05313	-0.190595	0.069681	-0.156888	-0.047657	0.102025	-0.13675	-0.212112	0.093687	-0.007488	-0.035979	
1.38855	0	0	2.80604	-3.12201	-0.0824068	0.232898	-0.0767905	0.0523643	-0.102758	0.192237	0.0141522	0.0259153	-0.0300492	0.22921	-0.053265	0.112432	-0.0543737	0.156371	-0.0333077	0.0557915	-0.0013705	0.0319142	-0.0261783	0.0589215	-0.183829	0.0691205	-0.149318	-0.0463777	0.104943	-0.130116	-0.20917	0.100745	-0.00406425	-0.0332337	
1.39007	0	0	2.80604	-3.12201	-0.0872115	0.233177	-0.079758	0.0499315	-0.111055	0.192873	0.0080375	0.0337775	-0.0378595	0.237399	-0.053265	0.112432	-0.0605835	0.160429	-0.0288815	0.055264	-0.003792	0.0387575	-0.0282275	0.064713	-0.177063	0.06856	-0.141748	-0.0450985	0.107862	-0.123482	-0.206227	0.107803	-0.0006405	-0.0304885	
1.38397	0	0	2.80604	-3.12201	-0.0920163	0.233457	-0.0827255	0.0474987	-0.119352	0.19351	0.00192275	0.0416397	-0.0456697	0.245588	-0.053265	0.112432	-0.0667932	0.164487	-0.0244553	0.0547365	-0.0062135	0.0456007	-0.0302768	0.0705045	-0.170298	0.0679995	-0.134179	-0.0438193	0.110781	-0.116847	-0.203284	0.114861	0.00278325	-0.0277432	
1.3855	0	0	2.80604	-3.12201	-0.096821	0.233736	-0.085693	0.045066	-0.127649	0.194147	-0.004192	0.049502	-0.05348	0.253776	-0.053265	0.112432	-0.073003	0.168544	-0.020029	0.054209	-0.008635	0.052444	-0.032326	0.076296	-0.163532	0.067439	-0.126609	-0.04254	0.113699	-0.110213	-0.200342	0.121919	0.006207	-0.024998	
1.38702	0	0	2.80604	-3.12201	-0.095505	0.230017	-0.088659	0.042635	-0.126549	0.191037	-0.00840775	0.0425935	-0.0492223	0.241743	-0.0519305	0.10866	-0.071637	0.164684	-0.0211178	0.0572858	-0.0062135	0.0456007	-0.0360515	0.0742778	-0.170298	0.0679995	-0.129918	-0.044529	0.11501	-0.113918	-0.203284	0.114861	0.00278325	-0.0277432	
1.3855	0	0	2.80604	-3.12201	-0.094189	0.226299	-0.091625	0.040204	-0.125448	0.187927	-0.0126235	0.035685	-0.0449645	0.22971	-0.050596	0.104887	-0.070271	0.160824	-0.0222065	0.0603625	-0.003792	0.0387575	-0.039777	0.0722595	-0.177063	0.06856	-0.133226	-0.046518	0.116321	-0.117623	-0.206227	0.107803	-0.0006405	-0.0304885	
1.3855	0	0	2.80604	-3.12201	-0.092873	0.22258	-0.094591	0.037773	-0.124347	0.184817	-0.0168393	0.0287765	-0.0407067	0.217676	-0.0492615	0.101115	-0.068905	0.156963	-0.0232952	0.0634393	-0.0013705	0.0319142	-0.0435025	0.0702413	-0.183829	0.0691205	-0.136535	-0.048507	0.117632	-0.121327	-0.20917	0.100745	-0.00406425	-0.0332337	
1.39007	0	0	2.80604	-3.12201	-0.091557	0.218861	-0.097557	0.035342	-0.123247	0.181707	-0.021055	0.021868	-0.036449	0.205643	-0.047927	0.097343	-0.067539	0.153103	-0.024384	0.066516	0.001051	0.025071	-0.047228	0.068223	-0.190595	0.069681	-0.139844	-0.050496	0.118943	-0.125032	-0.212112	0.093687	-0.007488	-0.035979	
1.39007	0	0	2.80604	-3.12201	-0.0880683	0.222301	-0.094591	0.037773	-0.126549	0.191041	-0.021055	0.021868	-0.036449	0.205643	-0.0528522	0.0976625	-0.0661738	0.149245	-0.0254732	0.069594	-0.0001595	0.028492	-0.0482525	0.0711183	-0.188819	0.0646625	-0.137934	-0.055892	0.125798	-0.129512	-0.212112	0.093687	0.0005205	-0.0461905	
1.39007	0	0	2.80604	-3.12201	-0.0845795	0.22574	-0.091625	0.040204	-0.129852	0.200374	-0.021055	0.021868	-0.036449	0.205643	-0.0577775	0.097982	-0.0648085	0.145386	-0.0265625	0.072672	-0.00137	0.031913	-0.049277	0.0740135	-0.187043	0.059644	-0.136025	-0.061288	0.132653	-0.133991	-0.212112	0.093687	0.008529	-0.056402	
1.38855	0	0	2.80604	-3.12201	-0.0810908	0.229179	-0.088659	0.042635	-0.133155	0.209708	-0.021055	0.021868	-0.036449	0.205643	-0.0627028	0.0983015	-0.0634433	0.141528	-0.0276517	0.07575	-0.0025805	0.035334	-0.0503015	0.0769087	-0.185268	0.0546255	-0.134115	-0.066684	0.139509	-0.13847	-0.212112	0.093687	0.0165375	-0.0666135	
1.38702	0	0	2.80604	-3.12201	-0.077602	0.232619	-0.085693	0.045066	-0.136457	0.219041	-0.021055	0.021868	-0.036449	0.205643	-0.067628	0.098621	-0.062078	0.137669	-0.028741	0.078828	-0.003791	0.038755	-0.051326	0.079804	-0.183492	0.049607	-0.132206	-0.07208	0.146364	-0.14295	-0.212112	0.093687	0.024546	-0.076825	
1.39007	0	0	2.80604	-3.12201	-0.0784607	0.221746	-0.0856453	0.0341175	-0.138399	0.213135	-0.028705	0.0152885	-0.039999	0.201802	-0.0649612	0.0910847	-0.0655545	0.134012	-0.028741	0.078828	-0.003791	0.038755	-0.051326	0.079804	-0.192026	0.0551833	-0.13507	-0.0639848	0.14929	-0.136314	-0.20917	0.100745	0.0268287	-0.0708473	
1.3855	0	0	2.80604	-3.12201	-0.0793195	0.210874	-0.0855975	0.023169	-0.140342	0.207228	-0.036355	0.008709	-0.043549	0.197962	-0.0622945	0.0835485	-0.069031	0.130354	-0.028741	0.078828	-0.003791	0.038755	-0.051326	0.079804	-0.20056	0.0607595	-0.137935	-0.0558895	0.152216	-0.129678	-0.206227	0.107803	0.0291115	-0.0648695	
1.38702	0	0	2.80604	-3.12201	-0.0801783	0.200001	-0.0855497	0.0122205	-0.142284	0.201322	-0.044005	0.0021295	-0.047099	0.194121	-0.0596277	0.0760123	-0.0725075	0.126696	-0.028741	0.078828	-0.003791	0.038755	-0.051326	0.079804	-0.209094	0.0663357	-0.140799	-0.0477942	0.155143	-0.123041	-0.203284	0.114861	0.0313942	-0.0588918	
1.3855	0	0	2.80604	-3.12201	-0.081037	0.189129	-0.085502	0.001272	-0.144226	0.195415	-0.051655	-0.00445	-0.050649	0.19028	-0.056961	0.068476	-0.075984	0.123039	-0.028741	0.078828	-0.003791	0.038755	-0.051326	0.079804	-0.217628	0.071912	-0.143664	-0.039699	0.158069	-0.116405	-0.200342	0.121919	0.033677	-0.052914	
1.38245	0	0	2.53109	-2.34495	-0.0797227	0.185415	-0.084498	-0.00156525	-0.142026	0.189198	-0.051543	-0.0141565	-0.054197	0.186444	-0.0618835	0.0687973	-0.0732575	0.115333	-0.028741	0.078828	-0.003791	0.038755	-0.0570968	0.0835748	-0.215853	0.0668963	-0.140799	-0.0477942	0.166247	-0.124599	-0.196209	0.110238	0.0359693	-0.0593925	
1.3855	0	0	2.25613	-1.56789	-0.0784085	0.181701	-0.083494	-0.0044025	-0.139826	0.182981	-0.051431	-0.023863	-0.057745	0.182607	-0.066806	0.0691185	-0.070531	0.107628	-0.028741	0.078828	-0.003791	0.038755	-0.0628675	0.0873455	-0.214079	0.0618805	-0.137935	-0.0558895	0.174426	-0.132794	-0.192075	0.098556	0.0382615	-0.065871	
1.38702	0	0	1.98118	-0.790825	-0.0770943	0.177987	-0.08249	-0.00723975	-0.137627	0.176764	-0.051319	-0.0335695	-0.061293	0.17877	-0.0717285	0.0694397	-0.0678045	0.0999225	-0.028741	0.078828	-0.003791	0.038755	-0.0686382	0.0911162	-0.212304	0.0568647	-0.13507	-0.0639848	0.182604	-0.140988	-0.187941	0.0868745	0.0405537	-0.0723495	
1.3855	0	0	1.70622	-0.013763	-0.07578	0.174273	-0.081486	-0.010077	-0.135427	0.170547	-0.051207	-0.043276	-0.064841	0.174934	-0.076651	0.069761	-0.065078	0.092217	-0.028741	0.078828	-0.003791	0.038755	-0.074409	0.094887	-0.210529	0.051849	-0.132206	-0.07208	0.190782	-0.149182	-0.183808	0.075193	0.042846	-0.078828	
1.3855	0	0	1.70622	-0.013763	-0.0736032	0.18142	-0.0795223	-0.00481425	-0.134583	0.179558	-0.0495447	-0.0385837	-0.0598762	0.174767	-0.076651	0.069761	-0.0664407	0.096069	-0.025402	0.0813812	0.00086775	0.038342	-0.0638883	0.0902392	-0.214079	0.0618833	-0.127941	-0.0727928	0.196342	-0.149964	-0.183808	0.075193	0.049716	-0.085806	
1.39007	0	0	1.70622	-0.013763	-0.0714265	0.188567	-0.0775585	0.0004485	-0.13374	0.18857	-0.0478825	-0.0338915	-0.0549115	0.1746	-0.076651	0.069761	-0.0678035	0.099921	-0.022063	0.0839345	0.0055265	0.037929	-0.0533675	0.0855915	-0.21763	0.0719175	-0.123677	-0.0735055	0.201902	-0.150747	-0.183808	0.075193	0.056586	-0.092784	
1.38245	0	0	1.70622	-0.013763	-0.0692497	0.195715	-0.0755948	0.00571125	-0.132897	0.197581	-0.0462203	-0.0291993	-0.0499467	0.174432	-0.076651	0.069761	-0.0691662	0.103773	-0.018724	0.0864878	0.0101852	0.037516	-0.0428468	0.0809438	-0.221181	0.0819517	-0.119413	-0.0742182	0.207461	-0.151529	-0.183808	0.075193	0.063456	-0.099762	
1.38397	0	0	1.70622	-0.013763	-0.067073	0.202862	-0.073631	0.010974	-0.132053	0.206592	-0.044558	-0.024507	-0.044982	0.174265	-0.076651	0.069761	-0.070529	0.107625	-0.015385	0.089041	0.014844	0.037103	-0.032326	0.076296	-0.224731	0.091986	-0.115148	-0.074931	0.213021	-0.152311	-0.183808	0.075193	0.070326	-0.10674	
1.38855	0	0	1.70622	-0.013763	-0.063129	0.191715	-0.070618	0.00245925	-0.128751	0.197262	-0.0444485	-0.0342065	-0.0471165	0.166434	-0.0753193	0.0659968	-0.0726427	0.100126	-0.0164753	0.0921222	0.00897425	0.0409382	-0.0391258	0.0829665	-0.222955	0.0869675	-0.111836	-0.0729455	0.218585	-0.153095	-0.173772	0.077616	0.0657415	-0.093783	
1.38397	0	0	1.70622	-0.013763	-0.059185	0.180568	-0.067605	-0.0060555	-0.12545	0.187932	-0.044339	-0.043906	-0.049251	0.158602	-0.0739875	0.0622325	-0.0747565	0.092627	-0.0175655	0.0952035	0.0031045	0.0447735	-0.0459255	0.089637	-0.221179	0.081949	-0.108523	-0.07096	0.22415	-0.15388	-0.163736	0.080039	0.061157	-0.080826	
1.38245	0	0	1.70622	-0.013763	-0.055241	0.169421	-0.064592	-0.0145702	-0.122148	0.178601	-0.0442295	-0.0536055	-0.0513855	0.150771	-0.0726557	0.0584682	-0.0768703	0.085128	-0.0186557	0.0982848	-0.00276525	0.0486087	-0.0527253	0.0963075	-0.219404	0.0769305	-0.10521	-0.0689745	0.229714	-0.154664	-0.1537	0.082462	0.0565725	-0.067869	
1.3855	0	0	1.70622	-0.013763	-0.051297	0.158274	-0.061579	-0.023085	-0.118847	0.169271	-0.04412	-0.063305	-0.05352	0.142939	-0.071324	0.054704	-0.078984	0.077629	-0.019746	0.101366	-0.008635	0.052444	-0.059525	0.102978	-0.217628	0.071912	-0.101898	-0.066989	0.235279	-0.155448	-0.143664	0.084885	0.051988	-0.054912	
1.38397	0	0	1.98118	-0.790825	-0.051297	0.158274	-0.0586078	-0.0206633	-0.114699	0.168951	-0.0389125	-0.0686318	-0.0471393	0.13877	-0.066401	0.0543813	-0.078984	0.077629	-0.011972	0.103397	-0.008635	0.052444	-0.059525	0.102978	-0.217628	0.071912	-0.0947628	-0.0758013	0.242162	-0.159945	-0.149373	0.0856207	0.0600095	-0.0651358	
1.38397	0	0	2.25613	-1.56789	-0.051297	0.158274	-0.0556365	-0.0182415	-0.110551	0.168631	-0.033705	-0.0739585	-0.0407585	0.134601	-0.061478	0.0540585	-0.078984	0.077629	-0.004198	0.105429	-0.008635	0.052444	-0.059525	0.102978	-0.217628	0.071912	-0.0876275	-0.0846135	0.249045	-0.164442	-0.155083	0.0863565	0.068031	-0.0753595	
1.3855	0	0	2.53109	-2.34495	-0.051297	0.158274	-0.0526653	-0.0158198	-0.106404	0.168311	-0.0284975	-0.0792853	-0.0343777	0.130431	-0.056555	0.0537357	-0.078984	0.077629	0.003576	0.10746	-0.008635	0.052444	-0.059525	0.102978	-0.217628	0.071912	-0.0804923	-0.0934258	0.255927	-0.16894	-0.160792	0.0870923	0.0760525	-0.0855832	
1.38702	0	0	2.80604	-3.12201	-0.051297	0.158274	-0.049694	-0.013398	-0.102256	0.167991	-0.02329	-0.084612	-0.027997	0.126262	-0.051632	0.053413	-0.078984	0.077629	0.01135	0.109491	-0.008635	0.052444	-0.059525	0.102978	-0.217628	0.071912	-0.073357	-0.102238	0.26281	-0.173437	-0.166501	0.087828	0.084074	-0.095807	
1.38397	0	0	2.53109	-2.34495	-0.0478005	0.161701	-0.045716	-0.0138145	-0.105558	0.177324	-0.0233963	-0.0749173	-0.028692	0.1421	-0.0493715	0.060625	-0.0755075	0.081276	0.0125098	0.118226	-0.00276525	0.0486087	-0.0510493	0.104126	-0.212646	0.0763758	-0.073357	-0.102238	0.267072	-0.170515	-0.155077	0.0863545	0.096688	-0.106539	
1.37939	0	0	2.25613	-1.56789	-0.044304	0.165129	-0.041738	-0.014231	-0.108861	0.186658	-0.0235025	-0.0652225	-0.029387	0.157938	-0.047111	0.067837	-0.072031	0.084923	0.0136695	0.126962	0.0031045	0.0447735	-0.0425735	0.105274	-0.207665	0.0808395	-0.073357	-0.102238	0.271333	-0.167592	-0.143653	0.084881	0.109302	-0.117272	
1.38245	0	0	1.98118	-0.790825	-0.0408075	0.168556	-0.03776	-0.0146475	-0.112163	0.195991	-0.0236088	-0.0555278	-0.030082	0.173775	-0.0448505	0.075049	-0.0685545	0.08857	0.0148293	0.135697	0.00897425	0.0409382	-0.0340977	0.106423	-0.202683	0.0853032	-0.073357	-0.102238	0.275594	-0.164669	-0.13223	0.0834075	0.121916	-0.128004	
1.38397	0	0	1.70622	-0.013763	-0.037311	0.171984	-0.033782	-0.015064	-0.115466	0.205324	-0.023715	-0.045833	-0.030777	0.189613	-0.04259	0.082261	-0.065078	0.092217	0.015989	0.144432	0.014844	0.037103	-0.025622	0.107571	-0.197702	0.089767	-0.073357	-0.102238	0.279856	-0.161747	-0.120806	0.081934	0.13453	-0.138736	
1.38092	0	0	1.70622	-0.013763	-0.0359962	0.168268	-0.0367555	-0.0174857	-0.113264	0.199101	-0.0244945	-0.053025	-0.030777	0.189613	-0.0340613	0.0853882	-0.065078	0.092217	0.0193345	0.146998	0.0160547	0.0336807	-0.0293487	0.105548	-0.200909	0.0802875	-0.0766735	-0.104218	0.282483	-0.169171	-0.12652	0.0826718	0.128794	-0.134988	
1.3855	0	0	1.70622	-0.013763	-0.0346815	0.164552	-0.039729	-0.0199075	-0.111062	0.192878	-0.025274	-0.060217	-0.030777	0.189613	-0.0255325	0.0885155	-0.065078	0.092217	0.02268	0.149563	0.0172655	0.0302585	-0.0330755	0.103524	-0.204116	0.070808	-0.07999	-0.106198	0.28511	-0.176594	-0.132235	0.0834095	0.123058	-0.13124	
1.3855	0	0	1.70622	-0.013763	-0.0333668	0.160837	-0.0427025	-0.0223292	-0.10886	0.186654	-0.0260535	-0.067409	-0.030777	0.189613	-0.0170037	0.0916427	-0.065078	0.092217	0.0260255	0.152128	0.0184762	0.0268362	-0.0368023	0.101501	-0.207322	0.0613285	-0.0833065	-0.108178	0.287736	-0.184018	-0.13795	0.0841473	0.117322	-0.127492	
1.38092	0	0	1.70622	-0.013763	-0.032052	0.157121	-0.045676	-0.024751	-0.106658	0.180431	-0.026833	-0.074601	-0.030777	0.189613	-0.008475	0.09477	-0.065078	0.092217	0.029371	0.154694	0.019687	0.023414	-0.040529	0.099478	-0.210529	0.051849	-0.086623	-0.110158	0.290363	-0.191441	-0.143664	0.084885	0.111586	-0.123744	
1.38245	0	0	1.70622	-0.013763	-0.022418	0.15654	-0.037717	-0.0255867	-0.0983545	0.17979	-0.026833	-0.074601	-0.0258048	0.189445	-0.009811	0.0985453	-0.0602357	0.0920142	0.0327188	0.157261	0.016238	0.0204085	-0.033725	0.092804	-0.210529	0.051849	-0.0847155	-0.115549	0.291676	-0.195151	-0.140908	0.0770958	0.113877	-0.130218	
1.38245	0	0	1.70622	-0.013763	-0.012784	0.15596	-0.029758	-0.0264225	-0.090051	0.179149	-0.026833	-0.074601	-0.0208325	0.189277	-0.011147	0.10232	-0.0553935	0.0918115	0.0360665	0.159828	0.012789	0.017403	-0.026921	0.08613	-0.210529	0.051849	-0.082808	-0.120941	0.292988	-0.19886	-0.138152	0.0693065	0.116168	-0.136691	
1.38245	0	0	1.70622	-0.013763	-0.00315	0.15538	-0.021799	-0.0272583	-0.0817475	0.178508	-0.026833	-0.074601	-0.0158602	0.189109	-0.012483	0.106096	-0.0505512	0.0916088	0.0394142	0.162396	0.00934	0.0143975	-0.020117	0.079456	-0.210529	0.051849	-0.0809005	-0.126332	0.294301	-0.202569	-0.135396	0.0615172	0.118458	-0.143165	
1.38245	0	0	1.70622	-0.013763	0.006484	0.154799	-0.01384	-0.028094	-0.073444	0.177867	-0.026833	-0.074601	-0.010888	0.188941	-0.013819	0.109871	-0.045709	0.091406	0.042762	0.164963	0.005891	0.011392	-0.013313	0.072782	-0.210529	0.051849	-0.078993	-0.131723	0.295614	-0.206279	-0.13264	0.053728	0.120749	-0.149639	
1.37939	0	0	1.70622	-0.013763	0.006484	0.154799	-0.0178207	-0.0276755	-0.0786982	0.1813	-0.0260535	-0.067409	-0.00875075	0.196796	-0.0200878	0.113967	-0.045709	0.091406	0.0383203	0.165488	0.00710075	0.0079735	-0.0163902	0.0814793	-0.210529	0.051849	-0.075675	-0.129746	0.299882	-0.203363	-0.13264	0.053728	0.124194	-0.146913	
1.37939	0	0	1.70622	-0.013763	0.006484	0.154799	-0.0218015	-0.027257	-0.0839525	0.184733	-0.025274	-0.060217	-0.0066135	0.20465	-0.0263565	0.118064	-0.045709	0.091406	0.0338785	0.166012	0.0083105	0.004555	-0.0194675	0.0901765	-0.210529	0.051849	-0.072357	-0.12777	0.30415	-0.200447	-0.13264	0.053728	0.12764	-0.144187	
1.38245	0	0	1.70622	-0.013763	0.006484	0.154799	-0.0257822	-0.0268385	-0.0892068	0.188167	-0.0244945	-0.053025	-0.00447625	0.212504	-0.0326253	0.12216	-0.045709	0.091406	0.0294368	0.166536	0.00952025	0.0011365	-0.0225447	0.0988737	-0.210529	0.051849	-0.069039	-0.125793	0.308418	-0.197531	-0.13264	0.053728	0.131085	-0.141462	
1.38245	0	0	1.70622	-0.013763	0.006484	0.154799	-0.029763	-0.02642	-0.094461	0.1916	-0.023715	-0.045833	-0.002339	0.220359	-0.038894	0.126256	-0.045709	0.091406	0.024995	0.167061	0.01073	-0.002282	-0.025622	0.107571	-0.210529	0.051849	-0.065721	-0.123816	0.312686	-0.194615	-0.13264	0.053728	0.13453	-0.138736	
1.37939	0	0	1.98118	-0.790825	0.00297975	0.151374	-0.0327375	-0.02884	-0.0975103	0.188808	-0.0228283	-0.0483385	-0.002339	0.220359	-0.037558	0.122481	-0.045709	0.091406	0.0216502	0.164493	0.0143558	-0.0125292	-0.0188135	0.100892	-0.208755	0.046836	-0.0638135	-0.129207	0.316624	-0.205744	-0.122793	0.0413102	0.132229	-0.144697	
1.38092	0	0	2.25613	-1.56789	-0.0005245	0.14795	-0.035712	-0.03126	-0.100559	0.186016	-0.0219415	-0.050844	-0.002339	0.220359	-0.036222	0.118705	-0.045709	0.091406	0.0183055	0.161926	0.0179815	-0.0227765	-0.012005	0.094214	-0.206981	0.041823	-0.061906	-0.134599	0.320561	-0.216872	-0.112946	0.0288925	0.129929	-0.150657	
1.38245	0	0	2.53109	-2.34495	-0.00402875	0.144525	-0.0386865	-0.03368	-0.103609	0.183223	-0.0210547	-0.0533495	-0.002339	0.220359	-0.034886	0.11493	-0.045709	0.091406	0.0149608	0.159359	0.0216072	-0.0330237	-0.0051965	0.0875355	-0.205208	0.03681	-0.0599985	-0.13999	0.324499	-0.228	-0.103098	0.0164747	0.127629	-0.156618	
1.37939	0	0	2.80604	-3.12201	-0.007533	0.1411	-0.041661	-0.0361	-0.106658	0.180431	-0.020168	-0.055855	-0.002339	0.220359	-0.03355	0.111154	-0.045709	0.091406	0.011616	0.156791	0.025233	-0.043271	0.001612	0.080857	-0.203434	0.031797	-0.058091	-0.145381	0.328437	-0.239129	-0.093251	0.004057	0.125328	-0.162579	
1.38245	0	0	2.80604	-3.12201	-0.00534475	0.148244	-0.0396912	-0.030841	-0.099456	0.182903	-0.0168362	-0.046467	-0.0066025	0.232408	-0.034886	0.11493	-0.042227	0.0950572	0.0127093	0.153701	0.0193675	-0.0394385	0.001612	0.080857	-0.201661	0.026787	-0.0571375	-0.148075	0.335336	-0.243637	-0.097593	0.000916	0.126472	-0.165813	
1.37939	0	0	2.80604	-3.12201	-0.0031565	0.155387	-0.0377215	-0.025582	-0.092254	0.185375	-0.0135045	-0.037079	-0.010866	0.244458	-0.036222	0.118705	-0.038745	0.0987085	0.0138025	0.150612	0.013502	-0.035606	0.001612	0.080857	-0.199888	0.021777	-0.056184	-0.15077	0.342236	-0.248146	-0.101935	-0.002225	0.127616	-0.169047	
1.38092	0	0	2.80604	-3.12201	-0.00096825	0.16253	-0.0357517	-0.020323	-0.085052	0.187848	-0.0101727	-0.027691	-0.0151295	0.256507	-0.037558	0.122481	-0.035263	0.10236	0.0148957	0.147522	0.0076365	-0.0317735	0.001612	0.080857	-0.198116	0.016767	-0.0552305	-0.153465	0.349135	-0.252654	-0.106277	-0.005366	0.128761	-0.172281	
1.37787	0	0	2.80604	-3.12201	0.00122	0.169674	-0.033782	-0.015064	-0.07785	0.19032	-0.006841	-0.018303	-0.019393	0.268557	-0.038894	0.126256	-0.031781	0.106011	0.015989	0.144432	0.001771	-0.027941	0.001612	0.080857	-0.196343	0.011757	-0.054277	-0.156159	0.356034	-0.257162	-0.110619	-0.008507	0.129905	-0.175515	
1.37939	0	0	2.53109	-2.34495	0.00385125	0.162238	-0.0357517	-0.020323	-0.0756472	0.184094	-0.006841	-0.018303	-0.019393	0.268557	-0.037558	0.122481	-0.031781	0.106011	0.0170817	0.141344	0.001771	-0.027941	0.00058575	0.083757	-0.199889	0.02178	-0.0528638	-0.148793	0.35341	-0.249745	-0.106277	-0.005366	0.134497	-0.176029	
1.37787	0	0	2.25613	-1.56789	0.0064825	0.154802	-0.0377215	-0.025582	-0.0734445	0.177869	-0.006841	-0.018303	-0.019393	0.268557	-0.036222	0.118705	-0.031781	0.106011	0.0181745	0.138255	0.001771	-0.027941	-0.0004405	0.086657	-0.203436	0.031803	-0.0514505	-0.141427	0.350785	-0.242327	-0.101935	-0.002225	0.139089	-0.176544	
1.37787	0	0	1.98118	-0.790825	0.00911375	0.147366	-0.0396912	-0.030841	-0.0712418	0.171644	-0.006841	-0.018303	-0.019393	0.268557	-0.034886	0.11493	-0.031781	0.106011	0.0192672	0.135166	0.001771	-0.027941	-0.00146675	0.089557	-0.206982	0.041826	-0.0500372	-0.134061	0.34816	-0.234909	-0.097593	0.000916	0.14368	-0.177058	
1.37787	0	0	1.70622	-0.013763	0.011745	0.13993	-0.041661	-0.0361	-0.069039	0.165418	-0.006841	-0.018303	-0.019393	0.268557	-0.03355	0.111154	-0.031781	0.106011	0.02036	0.132078	0.001771	-0.027941	-0.002493	0.092457	-0.210529	0.051849	-0.048624	-0.126695	0.345536	-0.227492	-0.093251	0.004057	0.148272	-0.177572	
1.37634	0	0	1.98118	-0.790825	0.011745	0.13993	-0.0406572	-0.0389365	-0.0731925	0.16574	-0.0128333	-0.0201725	-0.0179713	0.264539	-0.03355	0.111154	-0.031781	0.106011	0.0159238	0.132603	-0.0016755	-0.030936	-0.00417275	0.084641	-0.20521	0.0368185	-0.0448088	-0.137478	0.34816	-0.234909	-0.094844	-0.006853	0.147111	-0.186753	
1.37787	0	0	2.25613	-1.56789	0.011745	0.13993	-0.0396535	-0.041773	-0.077346	0.166062	-0.0188255	-0.022042	-0.0165495	0.26052	-0.03355	0.111154	-0.031781	0.106011	0.0114875	0.133128	-0.005122	-0.033931	-0.0058525	0.076825	-0.199892	0.021788	-0.0409935	-0.14826	0.350785	-0.242327	-0.096437	-0.017763	0.14595	-0.195934	
1.37787	0	0	2.53109	-2.34495	0.011745	0.13993	-0.0386497	-0.0446095	-0.0814995	0.166384	-0.0248177	-0.0239115	-0.0151277	0.256502	-0.03355	0.111154	-0.031781	0.106011	0.00705125	0.133654	-0.0085685	-0.036926	-0.00753225	0.069009	-0.194574	0.0067575	-0.0371782	-0.159043	0.35341	-0.249745	-0.09803	-0.028673	0.144788	-0.205114	
1.37939	0	0	2.80604	-3.12201	0.011745	0.13993	-0.037646	-0.047446	-0.085653	0.166706	-0.03081	-0.025781	-0.013706	0.252484	-0.03355	0.111154	-0.031781	0.106011	0.002615	0.134179	-0.012015	-0.039921	-0.009212	0.061193	-0.189255	-0.008273	-0.033363	-0.169825	0.356034	-0.257162	-0.099623	-0.039583	0.143627	-0.214295	
1.37634	0	0	2.53109	-2.34495	0.0064805	0.154808	-0.0356752	-0.0421895	-0.0848042	0.175724	-0.0282585	-0.0235922	-0.008728	0.252321	-0.03355	0.111154	-0.0331455	0.109868	0.003707	0.131093	-0.00736075	-0.040339	-0.0139657	0.0620725	-0.191027	-0.0032655	-0.0366857	-0.171795	0.357345	-0.260868	-0.103964	-0.0427143	0.147054	-0.223979	
1.37634	0	0	2.25613	-1.56789	0.001216	0.169686	-0.0337045	-0.036933	-0.0839555	0.184742	-0.025707	-0.0214035	-0.00375	0.252157	-0.03355	0.111154	-0.03451	0.113725	0.004799	0.128006	-0.0027065	-0.040757	-0.0187195	0.062952	-0.192799	0.001742	-0.0400085	-0.173764	0.358657	-0.264574	-0.108305	-0.0458455	0.15048	-0.233663	
1.37634	0	0	1.98118	-0.790825	-0.0040485	0.184564	-0.0317337	-0.0316765	-0.0831068	0.19376	-0.0231555	-0.0192147	0.001228	0.251993	-0.03355	0.111154	-0.0358745	0.117582	0.005891	0.124919	0.00194775	-0.041175	-0.0234732	0.0638315	-0.194571	0.0067495	-0.0433313	-0.175734	0.359969	-0.268281	-0.112646	-0.0489767	0.153907	-0.243348	
1.37787	0	0	1.70622	-0.013763	-0.009313	0.199442	-0.029763	-0.02642	-0.082258	0.202778	-0.020604	-0.017026	0.006206	0.25183	-0.03355	0.111154	-0.037239	0.121439	0.006983	0.121833	0.006602	-0.041593	-0.028227	0.064711	-0.196343	0.011757	-0.046654	-0.177704	0.36128	-0.271987	-0.116987	-0.052108	0.157333	-0.253032	
1.37634	0	0	1.70622	-0.013763	-0.00667975	0.192	-0.03571	-0.0312583	-0.0842075	0.196871	-0.026483	-0.0285957	0.00406975	0.243962	-0.0322148	0.10738	-0.04072	0.117785	0.00807475	0.118748	0.00780925	-0.045005	-0.0299057	0.0569088	-0.203097	0.0123202	-0.046654	-0.177704	0.362591	-0.275692	-0.115614	-0.0559865	0.155049	-0.246577	
1.37482	0	0	1.70622	-0.013763	-0.0040465	0.184558	-0.041657	-0.0360965	-0.086157	0.190965	-0.032362	-0.0401655	0.0019335	0.236094	-0.0308795	0.103607	-0.044201	0.11413	0.0091665	0.115662	0.0090165	-0.048417	-0.0315845	0.0491065	-0.20985	0.0128835	-0.046654	-0.177704	0.363902	-0.279397	-0.114242	-0.059865	0.152765	-0.240122	
1.38245	0	0	1.70622	-0.013763	-0.00141325	0.177116	-0.047604	-0.0409347	-0.0881065	0.185058	-0.038241	-0.0517352	-0.00020275	0.228227	-0.0295443	0.0998327	-0.047682	0.110476	0.0102583	0.112576	0.0102238	-0.051829	-0.0332633	0.0413043	-0.216604	0.0134468	-0.046654	-0.177704	0.365213	-0.283102	-0.112869	-0.0637435	0.150481	-0.233667	
1.37787	0	0	1.70622	-0.013763	0.00122	0.169674	-0.053551	-0.045773	-0.090056	0.179151	-0.04412	-0.063305	-0.002339	0.220359	-0.028209	0.096059	-0.051163	0.106821	0.01135	0.109491	0.011431	-0.055241	-0.034942	0.033502	-0.223358	0.01401	-0.046654	-0.177704	0.366524	-0.286807	-0.111497	-0.067622	0.148197	-0.227212	
1.37939	0	0	1.70622	-0.013763	0.002536	0.165955	-0.052548	-0.0486075	-0.083701	0.172606	-0.044899	-0.0704888	-0.012285	0.220689	-0.0331385	0.09638	-0.0560045	0.107022	0.008007	0.106934	0.011431	-0.055241	-0.0366223	0.025712	-0.219817	0.00400375	-0.0532935	-0.18164	0.364863	-0.297103	-0.120171	-0.073869	0.147031	-0.236372	
1.37482	0	0	1.70622	-0.013763	0.003852	0.162237	-0.051545	-0.051442	-0.077346	0.166062	-0.045678	-0.0776725	-0.022231	0.221019	-0.038068	0.096701	-0.060846	0.107223	0.004664	0.104377	0.011431	-0.055241	-0.0383025	0.017922	-0.216276	-0.0060025	-0.059933	-0.185577	0.363202	-0.307399	-0.128845	-0.080116	0.145865	-0.245532	
1.37482	0	0	1.70622	-0.013763	0.005168	0.158518	-0.050542	-0.0542765	-0.070991	0.159518	-0.046457	-0.0848562	-0.032177	0.22135	-0.0429975	0.097022	-0.0656875	0.107424	0.001321	0.10182	0.011431	-0.055241	-0.0399827	0.010132	-0.212736	-0.0160087	-0.0665725	-0.189513	0.361541	-0.317695	-0.137519	-0.086363	0.1447	-0.254692	
1.37482	0	0	1.70622	-0.013763	0.006484	0.154799	-0.049539	-0.057111	-0.064636	0.152973	-0.047236	-0.09204	-0.042123	0.22168	-0.047927	0.097343	-0.070529	0.107625	-0.002022	0.099263	0.011431	-0.055241	-0.041663	0.002342	-0.209195	-0.026015	-0.073212	-0.193449	0.35988	-0.327991	-0.146193	-0.09261	0.143534	-0.263852	
1.37634	0	0	1.70622	-0.013763	0.0213943	0.179443	-0.0296623	-0.0482753	-0.0557167	0.173501	-0.0336948	-0.0739257	-0.0328862	0.237259	-0.0577737	0.0979808	-0.0691662	0.103773	-0.0076125	0.0910762	0.0136733	-0.048834	-0.0453865	0.0003355	-0.205982	-0.016572	-0.0722605	-0.196138	0.352986	-0.323486	-0.149156	-0.0995957	0.149266	-0.267597	
1.37482	0	0	1.70622	-0.013763	0.0363045	0.204086	-0.0097855	-0.0394395	-0.0467975	0.194029	-0.0201535	-0.0558115	-0.0236495	0.252839	-0.0676205	0.0986185	-0.0678035	0.099921	-0.013203	0.0828895	0.0159155	-0.042427	-0.04911	-0.001671	-0.202769	-0.007129	-0.071309	-0.198827	0.346092	-0.318982	-0.15212	-0.106581	0.154998	-0.271343	
1.37482	0	0	1.70622	-0.013763	0.0512148	0.22873	0.0100912	-0.0306038	-0.0378783	0.214558	-0.00661225	-0.0376973	-0.0144128	0.268419	-0.0774673	0.0992562	-0.0664407	0.096069	-0.0187935	0.0747028	0.0181578	-0.03602	-0.0528335	-0.0036775	-0.199556	0.002314	-0.0703575	-0.201515	0.339198	-0.314477	-0.155083	-0.113567	0.160731	-0.275089	
1.37329	0	0	1.70622	-0.013763	0.066125	0.253373	0.029968	-0.021768	-0.028959	0.235086	0.006929	-0.019583	-0.005176	0.283998	-0.087314	0.099894	-0.065078	0.092217	-0.024384	0.066516	0.0204	-0.029613	-0.056557	-0.005684	-0.196343	0.011757	-0.069406	-0.204204	0.332304	-0.309972	-0.158047	-0.120553	0.166463	-0.278834	
1.37634	0	0	1.70622	-0.013763	0.082851	0.259702	0.033959	-0.0221895	-0.018667	0.240375	0.0147087	-0.0227365	0.0047895	0.283674	-0.0846483	0.0923607	-0.0685545	0.08857	-0.0266338	0.060892	0.0191915	-0.0261972	-0.0582373	-0.0134565	-0.194571	0.0067495	-0.068455	-0.206892	0.33492	-0.317365	-0.162376	-0.123666	0.160731	-0.275089	
1.37482	0	0	1.70622	-0.013763	0.099577	0.266031	0.03795	-0.022611	-0.008375	0.245663	0.0224885	-0.02589	0.014755	0.28335	-0.0819825	0.0848275	-0.072031	0.084923	-0.0288835	0.055268	0.017983	-0.0227815	-0.0599175	-0.021229	-0.192799	0.001742	-0.067504	-0.20958	0.337536	-0.324758	-0.166706	-0.126779	0.154998	-0.271343	
1.37634	0	0	1.70622	-0.013763	0.116303	0.272359	0.041941	-0.0230325	0.001917	0.250952	0.0302683	-0.0290435	0.0247205	0.283027	-0.0793167	0.0772943	-0.0755075	0.081276	-0.0311333	0.049644	0.0167745	-0.0193658	-0.0615977	-0.0290015	-0.191027	-0.0032655	-0.066553	-0.212267	0.340152	-0.332151	-0.171036	-0.129892	0.149266	-0.267597	
1.37634	0	0	1.70622	-0.013763	0.133029	0.278688	0.045932	-0.023454	0.012209	0.256241	0.038048	-0.032197	0.034686	0.282703	-0.076651	0.069761	-0.078984	0.077629	-0.033383	0.04402	0.015566	-0.01595	-0.063278	-0.036774	-0.189255	-0.008273	-0.065602	-0.214955	0.342768	-0.339544	-0.175365	-0.133005	0.143534	-0.263852	
1.37482	0	0	1.70622	-0.013763	0.136555	0.282146	0.045932	-0.023454	0.0194505	0.258727	0.042385	-0.035031	0.033261	0.28673	-0.0703962	0.065674	-0.078984	0.077629	-0.0344708	0.0470947	0.0167745	-0.0193658	-0.0669977	-0.0387743	-0.185715	-0.0182793	-0.0627505	-0.223014	0.3398	-0.346121	-0.184014	-0.139222	0.142366	-0.272996	
1.37787	0	0	1.70622	-0.013763	0.140081	0.285604	0.045932	-0.023454	0.026692	0.261214	0.046722	-0.037865	0.031836	0.290758	-0.0641415	0.061587	-0.078984	0.077629	-0.0355585	0.0501695	0.017983	-0.0227815	-0.0707175	-0.0407745	-0.182174	-0.0282855	-0.059899	-0.231073	0.336831	-0.352697	-0.192663	-0.145439	0.141197	-0.282139	
1.37329	0	0	1.70622	-0.013763	0.143608	0.289063	0.045932	-0.023454	0.0339335	0.263701	0.051059	-0.040699	0.030411	0.294785	-0.0578868	0.0575	-0.078984	0.077629	-0.0366462	0.0532442	0.0191915	-0.0261972	-0.0744373	-0.0427748	-0.178634	-0.0382917	-0.0570475	-0.239132	0.333863	-0.359274	-0.201311	-0.151656	0.140029	-0.291283	
1.37482	0	0	1.70622	-0.013763	0.147134	0.292521	0.045932	-0.023454	0.041175	0.266187	0.055396	-0.043533	0.028986	0.298812	-0.051632	0.053413	-0.078984	0.077629	-0.037734	0.056319	0.0204	-0.029613	-0.078157	-0.044775	-0.175093	-0.048298	-0.054196	-0.247191	0.330894	-0.365851	-0.20996	-0.157873	0.13886	-0.300427	
1.37482	0	0	1.70622	-0.013763	0.138301	0.304059	0.0329615	-0.0193505	0.0306113	0.273089	0.0501702	-0.038188	0.0275605	0.302841	-0.0493715	0.060625	-0.0851802	0.0816778	-0.0354857	0.0619463	0.0157427	-0.029195	-0.077138	-0.0476555	-0.175093	-0.048298	-0.060833	-0.251106	0.32923	-0.376103	-0.202907	-0.162481	0.145761	-0.295029	
1.37482	0	0	1.70622	-0.013763	0.129468	0.315598	0.019991	-0.015247	0.0200475	0.279992	0.0449445	-0.032843	0.026135	0.306871	-0.047111	0.067837	-0.0913765	0.0857265	-0.0332375	0.0675735	0.0110855	-0.028777	-0.076119	-0.050536	-0.175093	-0.048298	-0.06747	-0.255022	0.327566	-0.386355	-0.195854	-0.16709	0.152662	-0.289631	
1.37634	0	0	1.70622	-0.013763	0.120636	0.327136	0.0070205	-0.0111435	0.00948375	0.286894	0.0397188	-0.027498	0.0247095	0.3109	-0.0448505	0.075049	-0.0975727	0.0897753	-0.0309892	0.0732007	0.00642825	-0.028359	-0.0751	-0.0534165	-0.175093	-0.048298	-0.074107	-0.258937	0.325902	-0.396607	-0.188802	-0.171698	0.159562	-0.284232	
1.37482	0	0	1.70622	-0.013763	0.111803	0.338675	-0.00595	-0.00704	-0.00108	0.293797	0.034493	-0.022153	0.023284	0.314929	-0.04259	0.082261	-0.103769	0.093824	-0.028741	0.078828	0.001771	-0.027941	-0.074081	-0.056297	-0.175093	-0.048298	-0.080744	-0.262852	0.324238	-0.406859	-0.181749	-0.176306	0.166463	-0.278834	
1.37634	0	0	1.98118	-0.790825	0.104301	0.346463	-0.013874	-0.0171415	-0.00303475	0.287856	0.027812	-0.0409175	0.017592	0.303174	-0.0340613	0.0853882	-0.105879	0.086334	-0.0309202	0.084987	-0.003914	-0.0373363	-0.0831935	-0.0680323	-0.181538	-0.0671135	-0.092101	-0.276018	0.311435	-0.415467	-0.197213	-0.163236	0.154945	-0.296049	
1.37482	0	0	2.25613	-1.56789	0.0967995	0.35425	-0.021798	-0.027243	-0.0049895	0.281915	0.021131	-0.059682	0.0119	0.291419	-0.0255325	0.0885155	-0.107989	0.078844	-0.0330995	0.091146	-0.009599	-0.0467315	-0.092306	-0.0797675	-0.187982	-0.085929	-0.103458	-0.289184	0.298632	-0.424074	-0.212677	-0.150166	0.143427	-0.313265	
1.37634	0	0	2.53109	-2.34495	0.0892977	0.362038	-0.029722	-0.0373445	-0.00694425	0.275974	0.01445	-0.0784465	0.006208	0.279665	-0.0170037	0.0916427	-0.110099	0.071354	-0.0352787	0.097305	-0.015284	-0.0561267	-0.101418	-0.0915027	-0.194427	-0.104744	-0.114815	-0.302351	0.285829	-0.432681	-0.228142	-0.137097	0.131908	-0.33048	
1.37482	0	0	2.80604	-3.12201	0.081796	0.369825	-0.037646	-0.047446	-0.008899	0.270033	0.007769	-0.097211	0.000516	0.26791	-0.008475	0.09477	-0.112209	0.063864	-0.037458	0.103464	-0.020969	-0.065522	-0.110531	-0.103238	-0.200872	-0.12356	-0.126172	-0.315517	0.273026	-0.441289	-0.243606	-0.124027	0.12039	-0.347695	
1.37482	0	0	3.05897	-3.83684	0.0839825	0.377059	-0.0416222	-0.0470278	-0.0141728	0.273479	0.00265925	-0.101565	-0.0030395	0.264053	-0.00353775	0.0944462	-0.11085	0.060022	-0.03303	0.10294	-0.0197635	-0.0689287	-0.107483	-0.111851	-0.197347	-0.133522	-0.130426	-0.314792	0.275626	-0.448636	-0.220849	-0.127024	0.126111	-0.351433	
1.37176	0	0	3.31191	-4.55167	0.086169	0.384294	-0.0455985	-0.0466095	-0.0194465	0.276925	-0.0024505	-0.105918	-0.006595	0.260197	0.0013995	0.0941225	-0.10949	0.05618	-0.028602	0.102415	-0.018558	-0.0723355	-0.104436	-0.120465	-0.193822	-0.143483	-0.134681	-0.314068	0.278226	-0.455983	-0.198091	-0.13002	0.131831	-0.355171	
1.37482	0	0	3.56484	-5.26649	0.0883555	0.391529	-0.0495748	-0.0461913	-0.0247202	0.280371	-0.00756025	-0.110272	-0.0101505	0.25634	0.00633675	0.0937988	-0.108131	0.052338	-0.024174	0.10189	-0.0173525	-0.0757422	-0.101388	-0.129078	-0.190297	-0.153445	-0.138935	-0.313343	0.280825	-0.463331	-0.175333	-0.133017	0.137551	-0.358909	
1.37176	0	0	3.81777	-5.98132	0.090542	0.398763	-0.053551	-0.045773	-0.029994	0.283817	-0.01267	-0.114626	-0.013706	0.252484	0.011274	0.093475	-0.106771	0.048496	-0.019746	0.101366	-0.016147	-0.079149	-0.09834	-0.137691	-0.186772	-0.163407	-0.143189	-0.312619	0.283425	-0.470678	-0.152576	-0.136014	0.143272	-0.362647	
1.37634	0	0	3.56484	-5.26649	0.090542	0.398763	-0.0604935	-0.0477723	-0.034158	0.284133	-0.016992	-0.111802	-0.0215228	0.260681	0.00500075	0.097574	-0.112958	0.052539	-0.0219275	0.107531	-0.023206	-0.0719175	-0.0966567	-0.129961	-0.190297	-0.153445	-0.134207	-0.304088	0.291961	-0.464954	-0.135219	-0.123547	0.157087	-0.351888	
1.37482	0	0	3.31191	-4.55167	0.090542	0.398763	-0.067436	-0.0497715	-0.038322	0.28445	-0.021314	-0.108978	-0.0293395	0.268877	-0.0012725	0.101673	-0.119146	0.056582	-0.024109	0.113697	-0.030265	-0.064686	-0.0949735	-0.12223	-0.193822	-0.143483	-0.125225	-0.295557	0.300497	-0.45923	-0.117861	-0.11108	0.170901	-0.341128	
1.37329	0	0	3.05897	-3.83684	0.090542	0.398763	-0.0743785	-0.0517707	-0.042486	0.284766	-0.025636	-0.106154	-0.0371563	0.277074	-0.00754575	0.105772	-0.125333	0.060625	-0.0262905	0.119862	-0.037324	-0.0574545	-0.0932902	-0.1145	-0.197347	-0.133522	-0.116242	-0.287026	0.309034	-0.453507	-0.100504	-0.0986138	0.184716	-0.330368	
1.37329	0	0	2.80604	-3.12201	0.090542	0.398763	-0.081321	-0.05377	-0.04665	0.285082	-0.029958	-0.10333	-0.044973	0.285271	-0.013819	0.109871	-0.13152	0.064668	-0.028472	0.126027	-0.044383	-0.050223	-0.091607	-0.106769	-0.200872	-0.12356	-0.10726	-0.278495	0.31757	-0.447783	-0.083147	-0.086147	0.19853	-0.319609	
1.37329	0	0	2.80604	-3.12201	0.0892118	0.402523	-0.080319	-0.056602	-0.049705	0.282272	-0.0290735	-0.10583	-0.04213	0.277236	-0.0174165	0.106418	-0.13152	0.064668	-0.028472	0.126027	-0.0431775	-0.0536297	-0.0868725	-0.107653	-0.200872	-0.12356	-0.104895	-0.273859	0.324447	-0.452277	-0.0730733	-0.0837798	0.198565	-0.307236	
1.36871	0	0	2.80604	-3.12201	0.0878815	0.406282	-0.079317	-0.059434	-0.05276	0.279462	-0.028189	-0.10833	-0.039287	0.269201	-0.021014	0.102965	-0.13152	0.064668	-0.028472	0.126027	-0.041972	-0.0570365	-0.082138	-0.108537	-0.200872	-0.12356	-0.10253	-0.269224	0.331325	-0.45677	-0.0629995	-0.0814125	0.1986	-0.294864	
1.37329	0	0	2.80604	-3.12201	0.0865512	0.410041	-0.078315	-0.062266	-0.055815	0.276652	-0.0273045	-0.11083	-0.036444	0.261167	-0.0246115	0.099512	-0.13152	0.064668	-0.028472	0.126027	-0.0407665	-0.0604433	-0.0774035	-0.109421	-0.200872	-0.12356	-0.100165	-0.264589	0.338202	-0.461264	-0.0529258	-0.0790452	0.198635	-0.282492	
1.37482	0	0	2.80604	-3.12201	0.085221	0.413801	-0.077313	-0.065098	-0.05887	0.273842	-0.02642	-0.11333	-0.033601	0.253132	-0.028209	0.096059	-0.13152	0.064668	-0.028472	0.126027	-0.039561	-0.06385	-0.072669	-0.110305	-0.200872	-0.12356	-0.0978	-0.259953	0.345079	-0.465758	-0.042852	-0.076678	0.19867	-0.270119	
1.37176	0	0	2.80604	-3.12201	0.0909225	0.424545	-0.0773527	-0.0541792	-0.0538655	0.282594	-0.022199	-0.106473	-0.0314715	0.261008	-0.0295443	0.0998327	-0.129413	0.0721558	-0.028472	0.126027	-0.036119	-0.06086	-0.0757215	-0.101678	-0.202636	-0.118575	-0.0902185	-0.258721	0.35066	-0.466576	-0.034136	-0.0704225	0.209053	-0.261999	
1.37329	0	0	2.80604	-3.12201	0.096624	0.435289	-0.0773925	-0.0432605	-0.048861	0.291346	-0.017978	-0.0996165	-0.029342	0.268884	-0.0308795	0.103607	-0.127306	0.0796435	-0.028472	0.126027	-0.032677	-0.05787	-0.078774	-0.093051	-0.2044	-0.11359	-0.082637	-0.257489	0.356241	-0.467394	-0.02542	-0.064167	0.219436	-0.253879	
1.37634	0	0	2.80604	-3.12201	0.102325	0.446033	-0.0774323	-0.0323418	-0.0438565	0.300098	-0.013757	-0.0927598	-0.0272125	0.276761	-0.0322148	0.10738	-0.125198	0.0871312	-0.028472	0.126027	-0.029235	-0.05488	-0.0818265	-0.084424	-0.206163	-0.108605	-0.0750555	-0.256256	0.361822	-0.468213	-0.016704	-0.0579115	0.229819	-0.24576	
1.37024	0	0	2.80604	-3.12201	0.108027	0.456777	-0.077472	-0.021423	-0.038852	0.30885	-0.009536	-0.085903	-0.025083	0.284637	-0.03355	0.111154	-0.123091	0.094619	-0.028472	0.126027	-0.025793	-0.05189	-0.084879	-0.075797	-0.207927	-0.10362	-0.067474	-0.255024	0.367403	-0.469031	-0.007988	-0.051656	0.240202	-0.23764	
1.37482	0	0	2.80604	-3.12201	0.112881	0.456503	-0.0824457	-0.018173	-0.043015	0.309164	-0.00964125	-0.0762062	-0.0279298	0.292682	-0.03355	0.111154	-0.119622	0.0982687	-0.0295635	0.129111	-0.0211418	-0.0523083	-0.084218	-0.0651603	-0.196182	-0.0997845	-0.063686	-0.243042	0.367775	-0.455115	-0.0047775	-0.0297892	0.256402	-0.220817	
1.37482	0	0	2.80604	-3.12201	0.117734	0.456229	-0.0874195	-0.014923	-0.047178	0.309478	-0.0097465	-0.0665095	-0.0307765	0.300728	-0.03355	0.111154	-0.116153	0.101918	-0.030655	0.132196	-0.0164905	-0.0527265	-0.083557	-0.0545235	-0.184437	-0.095949	-0.059898	-0.231061	0.368146	-0.441198	-0.001567	-0.0079225	0.272603	-0.203994	
1.37176	0	0	2.80604	-3.12201	0.122588	0.455956	-0.0923932	-0.011673	-0.051341	0.309793	-0.00985175	-0.0568127	-0.0336233	0.308774	-0.03355	0.111154	-0.112685	0.105568	-0.0317465	0.13528	-0.0118392	-0.0531447	-0.082896	-0.0438868	-0.172692	-0.0921135	-0.05611	-0.219079	0.368517	-0.427282	0.0016435	0.0139442	0.288803	-0.187172	
1.37482	0	0	2.80604	-3.12201	0.127442	0.455682	-0.097367	-0.008423	-0.055504	0.310107	-0.009957	-0.047116	-0.03647	0.316819	-0.03355	0.111154	-0.109216	0.109218	-0.032838	0.138365	-0.007188	-0.053563	-0.082235	-0.03325	-0.160947	-0.088278	-0.052322	-0.207098	0.368889	-0.413366	0.004854	0.035811	0.305003	-0.170349	
1.37482	0	0	2.53109	-2.34495	0.126108	0.459452	-0.0933968	-0.0088365	-0.051341	0.309793	-0.009957	-0.047116	-0.0314948	0.316663	-0.034886	0.11493	-0.105745	0.112871	-0.0350217	0.144537	-0.00839475	-0.0501525	-0.076476	-0.0370132	-0.160947	-0.088278	-0.052322	-0.207098	0.374478	-0.414183	0.0106012	0.035057	0.303876	-0.154616	
1.36871	0	0	2.25613	-1.56789	0.124774	0.463223	-0.0894265	-0.00925	-0.047178	0.309478	-0.009957	-0.047116	-0.0265195	0.316507	-0.036222	0.118705	-0.102274	0.116525	-0.0372055	0.150708	-0.0096015	-0.046742	-0.070717	-0.0407765	-0.160947	-0.088278	-0.052322	-0.207098	0.380066	-0.414999	0.0163485	0.034303	0.302748	-0.138883	
1.37329	0	0	1.98118	-0.790825	0.123439	0.466994	-0.0854562	-0.0096635	-0.043015	0.309164	-0.009957	-0.047116	-0.0215443	0.31635	-0.037558	0.122481	-0.098803	0.120178	-0.0393893	0.15688	-0.0108083	-0.0433315	-0.064958	-0.0445398	-0.160947	-0.088278	-0.052322	-0.207098	0.385655	-0.415816	0.0220958	0.033549	0.301621	-0.123151	
1.36871	0	0	1.70622	-0.013763	0.122105	0.470764	-0.081486	-0.010077	-0.038852	0.30885	-0.009957	-0.047116	-0.016569	0.316194	-0.038894	0.126256	-0.095332	0.123831	-0.041573	0.163052	-0.012015	-0.039921	-0.059199	-0.048303	-0.160947	-0.088278	-0.052322	-0.207098	0.391244	-0.416632	0.027843	0.032795	0.300493	-0.107418	
1.37634	0	0	1.70622	-0.013763	0.134014	0.477495	-0.0755475	-0.005228	-0.033844	0.317621	-0.009178	-0.0399127	-0.008032	0.319909	-0.0415673	0.133811	-0.094589	0.135204	-0.0382365	0.16562	-0.00977675	-0.0335115	-0.0575172	-0.040534	-0.164484	-0.078283	-0.0532738	-0.204408	0.396838	-0.417451	0.03083	0.0398555	0.301662	-0.098166	
1.37329	0	0	1.70622	-0.013763	0.145924	0.484225	-0.069609	-0.000379	-0.028836	0.326392	-0.008399	-0.0327095	0.000505	0.323623	-0.0442405	0.141367	-0.093846	0.146576	-0.0349	0.168188	-0.0075385	-0.027102	-0.0558355	-0.032765	-0.16802	-0.068288	-0.0542255	-0.201719	0.402431	-0.418269	0.033817	0.046916	0.302831	-0.088914	
1.37329	0	0	1.70622	-0.013763	0.157833	0.490955	-0.0636705	0.00447	-0.023828	0.335162	-0.00762	-0.0255063	0.009042	0.327338	-0.0469137	0.148923	-0.093103	0.157948	-0.0315635	0.170756	-0.00530025	-0.0206925	-0.0541538	-0.024996	-0.171557	-0.058293	-0.0551772	-0.199029	0.408025	-0.419088	0.036804	0.0539765	0.303999	-0.079662	
1.37482	0	0	1.70622	-0.013763	0.169742	0.497686	-0.057732	0.009319	-0.01882	0.343933	-0.006841	-0.018303	0.017579	0.331053	-0.049587	0.156478	-0.09236	0.169321	-0.028227	0.173324	-0.003062	-0.014283	-0.052472	-0.017227	-0.175093	-0.048298	-0.056129	-0.19634	0.413619	-0.419906	0.039791	0.061037	0.305168	-0.07041	
1.37329	0	0	1.70622	-0.013763	0.169742	0.497686	-0.060702	0.00689375	-0.0229878	0.344246	-0.006841	-0.018303	0.0147243	0.33912	-0.049587	0.156478	-0.0950925	0.177043	-0.023795	0.172803	0.000386	-0.0112828	-0.045021	-0.0132165	-0.180405	-0.0332843	-0.0537602	-0.191681	0.408392	-0.405133	0.0400065	0.0759428	0.307497	-0.0518562	
1.37482	0	0	1.70622	-0.013763	0.169742	0.497686	-0.063672	0.0044685	-0.0271555	0.344559	-0.006841	-0.018303	0.0118695	0.347187	-0.049587	0.156478	-0.097825	0.184765	-0.019363	0.172283	0.003834	-0.0082825	-0.03757	-0.009206	-0.185718	-0.0182705	-0.0513915	-0.187022	0.403165	-0.390359	0.040222	0.0908485	0.309827	-0.0333025	
1.37176	0	0	1.70622	-0.013763	0.169742	0.497686	-0.066642	0.00204325	-0.0313232	0.344872	-0.006841	-0.018303	0.00901475	0.355255	-0.049587	0.156478	-0.100558	0.192488	-0.014931	0.171762	0.007282	-0.00528225	-0.030119	-0.0051955	-0.19103	-0.00325675	-0.0490228	-0.182363	0.397937	-0.375586	0.0404375	0.105754	0.312156	-0.0147487	
1.37176	0	0	1.70622	-0.013763	0.169742	0.497686	-0.069612	-0.000382	-0.035491	0.345185	-0.006841	-0.018303	0.00616	0.363322	-0.049587	0.156478	-0.10329	0.20021	-0.010499	0.171241	0.01073	-0.002282	-0.022668	-0.001185	-0.196343	0.011757	-0.046654	-0.177704	0.39271	-0.360812	0.040653	0.12066	0.314485	0.003805	
1.37024	0	0	1.70622	-0.013763	0.169742	0.497686	-0.0676037	-0.00605775	-0.035491	0.345185	-0.008507	-0.0229995	0.00758775	0.359287	-0.049587	0.156478	-0.0970847	0.196155	-0.00940575	0.168152	0.011939	-0.005699	-0.021646	-0.00407375	-0.194571	0.0067495	-0.052342	-0.184329	0.388425	-0.363694	0.0376693	0.113578	0.314485	0.003805	
1.37024	0	0	1.70622	-0.013763	0.169742	0.497686	-0.0655955	-0.0117335	-0.035491	0.345185	-0.010173	-0.027696	0.0090155	0.355253	-0.049587	0.156478	-0.0908795	0.192101	-0.0083125	0.165062	0.013148	-0.009116	-0.020624	-0.0069625	-0.192799	0.001742	-0.05803	-0.190954	0.384141	-0.366575	0.0346855	0.106495	0.314485	0.003805	
1.37329	0	0	1.70622	-0.013763	0.169742	0.497686	-0.0635872	-0.0174093	-0.035491	0.345185	-0.011839	-0.0323925	0.0104432	0.351218	-0.049587	0.156478	-0.0846743	0.188046	-0.00721925	0.161972	0.014357	-0.012533	-0.019602	-0.00985125	-0.191027	-0.0032655	-0.063718	-0.197579	0.379857	-0.369457	0.0317018	0.0994132	0.314485	0.003805	
1.37482	0	0	1.70622	-0.013763	0.169742	0.497686	-0.061579	-0.023085	-0.035491	0.345185	-0.013505	-0.037089	0.011871	0.347184	-0.049587	0.156478	-0.078469	0.183991	-0.006126	0.158883	0.015566	-0.01595	-0.01858	-0.01274	-0.189255	-0.008273	-0.069406	-0.204204	0.375572	-0.372339	0.028718	0.092331	0.314485	0.003805	
1.37176	0	0	1.70622	-0.013763	0.170594	0.508761	-0.0596123	-0.017824	-0.0335433	0.351146	-0.0100637	-0.0374097	0.011871	0.347184	-0.049587	0.156478	-0.079836	0.187855	-0.0105585	0.159405	0.0202265	-0.0163683	-0.01858	-0.01274	-0.182493	-0.008842	-0.0717727	-0.208855	0.375572	-0.372339	0.0344737	0.0915795	0.315641	0.0005365	
1.37329	0	0	1.70622	-0.013763	0.171445	0.519837	-0.0576455	-0.012563	-0.0315955	0.357106	-0.0066225	-0.0377305	0.011871	0.347184	-0.049587	0.156478	-0.081203	0.191719	-0.014991	0.159926	0.024887	-0.0167865	-0.01858	-0.01274	-0.175731	-0.009411	-0.0741395	-0.213506	0.375572	-0.372339	0.0402295	0.090828	0.316798	-0.002732	
1.37482	0	0	1.70622	-0.013763	0.172296	0.530913	-0.0556787	-0.007302	-0.0296478	0.363067	-0.00318125	-0.0380513	0.011871	0.347184	-0.049587	0.156478	-0.08257	0.195582	-0.0194235	0.160448	0.0295475	-0.0172047	-0.01858	-0.01274	-0.168968	-0.00998	-0.0765062	-0.218157	0.375572	-0.372339	0.0459853	0.0900765	0.317954	-0.0060005	
1.37634	0	0	1.70622	-0.013763	0.173148	0.541988	-0.053712	-0.002041	-0.0277	0.369028	0.00026	-0.038372	0.011871	0.347184	-0.049587	0.156478	-0.083937	0.199446	-0.023856	0.16097	0.034208	-0.017623	-0.01858	-0.01274	-0.162206	-0.010549	-0.078873	-0.222808	0.375572	-0.372339	0.051741	0.089325	0.31911	-0.009269	
1.37482	0	0	1.70622	-0.013763	0.177164	0.530638	-0.0546753	-0.0101385	-0.0296478	0.363067	-0.00396075	-0.0452475	0.00831475	0.343308	-0.051842	0.14924	-0.0874087	0.195775	-0.0261015	0.155319	0.034208	-0.017623	-0.0233287	-0.0118572	-0.172513	3.75E-05	-0.0831387	-0.222085	0.36179	-0.363333	0.0446003	0.0939907	0.31564	0.0005395	
1.37024	0	0	1.70622	-0.013763	0.18118	0.519288	-0.0556385	-0.018236	-0.0315955	0.357106	-0.0081815	-0.052123	0.0047585	0.339433	-0.054097	0.142003	-0.0908805	0.192104	-0.028347	0.149668	0.034208	-0.017623	-0.0280775	-0.0109745	-0.18282	0.010624	-0.0874045	-0.221363	0.348008	-0.354328	0.0374595	0.0986565	0.312169	0.010348	
1.36871	0	0	1.70622	-0.013763	0.185197	0.507938	-0.0566017	-0.0263335	-0.0335433	0.351146	-0.0124023	-0.0589985	0.00120225	0.335557	-0.056352	0.134765	-0.0943522	0.188433	-0.0305925	0.144016	0.034208	-0.017623	-0.0328263	-0.0100918	-0.193127	0.0212105	-0.0916702	-0.22064	0.334225	-0.345322	0.0303188	0.103322	0.308698	0.0201565	
1.37176	0	0	1.70622	-0.013763	0.189213	0.496588	-0.057565	-0.034431	-0.035491	0.345185	-0.016623	-0.065874	-0.002354	0.331681	-0.058607	0.127527	-0.097824	0.184762	-0.032838	0.138365	0.034208	-0.017623	-0.037575	-0.009209	-0.203434	0.031797	-0.095936	-0.219917	0.320443	-0.336317	0.023178	0.107988	0.305228	0.029965	
1.37176	0	0	1.70622	-0.013763	0.191887	0.489029	-0.0605352	-0.0368493	-0.0279965	0.33547	-0.0199567	-0.075238	-0.00448325	0.323784	-0.0621965	0.124071	-0.0999287	0.177238	-0.033993	0.12964	0.030756	-0.0206205	-0.039258	-0.0169827	-0.199889	0.0217795	-0.101612	-0.226522	0.310601	-0.338399	0.0201965	0.100912	0.29713	0.027716	
1.37176	0	0	1.70622	-0.013763	0.194562	0.481471	-0.0635055	-0.0392675	-0.020502	0.325755	-0.0232905	-0.084602	-0.0066125	0.315887	-0.065786	0.120616	-0.102033	0.169714	-0.035148	0.120914	0.027304	-0.023618	-0.040941	-0.0247565	-0.196345	0.011762	-0.107287	-0.233127	0.300759	-0.340481	0.017215	0.0938365	0.289031	0.025467	
1.37329	0	0	1.70622	-0.013763	0.197237	0.473912	-0.0664758	-0.0416858	-0.0130075	0.316039	-0.0266242	-0.093966	-0.00874175	0.307989	-0.0693755	0.11716	-0.104138	0.16219	-0.036303	0.112189	0.023852	-0.0266155	-0.042624	-0.0325302	-0.1928	0.0017445	-0.112963	-0.239732	0.290918	-0.342563	0.0142335	0.0867607	0.280933	0.023218	
1.37329	0	0	1.70622	-0.013763	0.199911	0.466353	-0.069446	-0.044104	-0.005513	0.306324	-0.029958	-0.10333	-0.010871	0.300092	-0.072965	0.113704	-0.106243	0.154666	-0.037458	0.103464	0.0204	-0.029613	-0.044307	-0.040304	-0.189255	-0.008273	-0.118639	-0.246337	0.281076	-0.344645	0.011252	0.079685	0.272835	0.020969	
1.37176	0	0	1.70622	-0.013763	0.203446	0.469854	-0.070449	-0.0412693	-0.00883975	0.315726	-0.0290735	-0.10583	-0.010871	0.300092	-0.068964	0.102397	-0.109712	0.151006	-0.0407932	0.100908	0.0216083	-0.0330275	-0.0432867	-0.043187	-0.197781	-0.00270225	-0.120053	-0.253653	0.276814	-0.347529	0.006889	0.0765263	0.276302	0.0111713	
1.37024	0	0	1.70622	-0.013763	0.206981	0.473356	-0.071452	-0.0384345	-0.0121665	0.325128	-0.028189	-0.10833	-0.010871	0.300092	-0.064963	0.09109	-0.11318	0.147346	-0.0441285	0.098353	0.0228165	-0.036442	-0.0422665	-0.04607	-0.206307	0.0028685	-0.121467	-0.260968	0.272552	-0.350414	0.002526	0.0733675	0.279768	0.0013735	
1.37634	0	0	1.70622	-0.013763	0.210516	0.476857	-0.072455	-0.0355997	-0.0154933	0.334531	-0.0273045	-0.11083	-0.010871	0.300092	-0.060962	0.079783	-0.116649	0.143686	-0.0474637	0.0957975	0.0240247	-0.0398565	-0.0412462	-0.048953	-0.214832	0.00843925	-0.122881	-0.268284	0.268289	-0.353299	-0.001837	0.0702088	0.283235	-0.00842425	
1.37024	0	0	1.70622	-0.013763	0.214051	0.480358	-0.073458	-0.032765	-0.01882	0.343933	-0.02642	-0.11333	-0.010871	0.300092	-0.056961	0.068476	-0.120117	0.140026	-0.050799	0.093242	0.025233	-0.043271	-0.040226	-0.051836	-0.223358	0.01401	-0.124295	-0.2756	0.264027	-0.356183	-0.0062	0.06705	0.286702	-0.018222	
1.37176	0	0	1.70622	-0.013763	0.214523	0.465531	-0.0744217	-0.0408483	-0.023828	0.335162	-0.0331878	-0.122345	-0.0165535	0.288352	-0.0592203	0.0612705	-0.128409	0.136564	-0.0541322	0.0906882	0.0205752	-0.0428515	-0.0486897	-0.0529512	-0.221587	0.0090055	-0.125243	-0.272922	0.264027	-0.356183	-0.00758275	0.0709575	0.279768	-0.0111815	
1.37482	0	0	1.70622	-0.013763	0.214996	0.450704	-0.0753855	-0.0489315	-0.028836	0.326392	-0.0399555	-0.131361	-0.022236	0.276612	-0.0614795	0.054065	-0.136701	0.133103	-0.0574655	0.0881345	0.0159175	-0.042432	-0.0571535	-0.0540665	-0.219816	0.004001	-0.126191	-0.270243	0.264027	-0.356183	-0.0089655	0.074865	0.272835	-0.004141	
1.37329	0	0	1.70622	-0.013763	0.215469	0.435876	-0.0763493	-0.0570148	-0.033844	0.317621	-0.0467232	-0.140376	-0.0279185	0.264872	-0.0637387	0.0468595	-0.144993	0.129641	-0.0607987	0.0855808	0.0112597	-0.0420125	-0.0656172	-0.0551818	-0.218046	-0.0010035	-0.127138	-0.267565	0.264027	-0.356183	-0.0103482	0.0787725	0.265902	0.0028995	
1.37176	0	0	1.70622	-0.013763	0.215941	0.421049	-0.077313	-0.065098	-0.038852	0.30885	-0.053491	-0.149392	-0.033601	0.253132	-0.065998	0.039654	-0.153285	0.126179	-0.064132	0.083027	0.006602	-0.041593	-0.074081	-0.056297	-0.216275	-0.006008	-0.128086	-0.264887	0.264027	-0.356183	-0.011731	0.08268	0.258968	0.00994	
1.37482	0	0	1.70622	-0.013763	0.21861	0.413506	-0.0743088	-0.0735885	-0.0366375	0.302592	-0.0516315	-0.164019	-0.0357315	0.245269	-0.0646672	0.035893	-0.154027	0.114841	-0.0619557	0.0768763	0.00436075	-0.0479947	-0.073728	-0.069799	-0.221253	-0.0104433	-0.123351	-0.27827	0.261071	-0.362747	-0.00482375	0.0631598	0.258965	-0.00259825	
1.37176	0	0	1.70622	-0.013763	0.221279	0.405964	-0.0713045	-0.082079	-0.034423	0.296334	-0.049772	-0.178646	-0.037862	0.237406	-0.0633365	0.032132	-0.154768	0.103503	-0.0597795	0.0707255	0.0021195	-0.0543965	-0.073375	-0.083301	-0.226232	-0.0148785	-0.118615	-0.291654	0.258115	-0.369311	0.0020835	0.0436395	0.258962	-0.0151365	
1.37329	0	0	1.70622	-0.013763	0.223948	0.398421	-0.0683003	-0.0905695	-0.0322085	0.290075	-0.0479125	-0.193272	-0.0399925	0.229543	-0.0620057	0.028371	-0.155509	0.0921658	-0.0576032	0.0645748	-0.00012175	-0.0607982	-0.073022	-0.096803	-0.23121	-0.0193138	-0.11388	-0.305037	0.255158	-0.375875	0.00899075	0.0241193	0.258959	-0.0276747	
1.37482	0	0	1.70622	-0.013763	0.226617	0.390878	-0.065296	-0.09906	-0.029994	0.283817	-0.046053	-0.207899	-0.042123	0.22168	-0.060675	0.02461	-0.156251	0.080828	-0.055427	0.058424	-0.002363	-0.0672	-0.072669	-0.110305	-0.236188	-0.023749	-0.109144	-0.31842	0.252202	-0.382439	0.015898	0.004599	0.258956	-0.040213	
1.37176	0	0	1.70622	-0.013763	0.225283	0.394649	-0.0672985	-0.0934005	-0.031101	0.286945	-0.046053	-0.207899	-0.0357328	0.217504	-0.060675	0.02461	-0.154892	0.0769877	-0.0609345	0.0620227	-0.002363	-0.0672	-0.072669	-0.110305	-0.23442	-0.0287452	-0.111509	-0.32304	0.253504	-0.386119	0.0030375	0.0100047	0.262414	-0.0499857	
1.37329	0	0	1.70622	-0.013763	0.223948	0.39842	-0.069301	-0.087741	-0.032208	0.290074	-0.046053	-0.207899	-0.0293425	0.213329	-0.060675	0.02461	-0.153533	0.0731475	-0.066442	0.0656215	-0.002363	-0.0672	-0.072669	-0.110305	-0.232652	-0.0337415	-0.113875	-0.327661	0.254806	-0.3898	-0.009823	0.0154105	0.265872	-0.0597585	
1.37482	0	0	1.70622	-0.013763	0.222614	0.40219	-0.0713035	-0.0820815	-0.033315	0.293203	-0.046053	-0.207899	-0.0229523	0.209153	-0.060675	0.02461	-0.152175	0.0693073	-0.0719495	0.0692202	-0.002363	-0.0672	-0.072669	-0.110305	-0.230885	-0.0387378	-0.11624	-0.332281	0.256109	-0.393481	-0.0226835	0.0208162	0.269329	-0.0695313	
1.37329	0	0	1.70622	-0.013763	0.22128	0.405961	-0.073306	-0.076422	-0.034422	0.296331	-0.046053	-0.207899	-0.016562	0.204978	-0.060675	0.02461	-0.150816	0.065467	-0.077457	0.072819	-0.002363	-0.0672	-0.072669	-0.110305	-0.229117	-0.043734	-0.118605	-0.336901	0.257411	-0.397161	-0.035544	0.026222	0.272787	-0.079304	
1.37024	0	0	1.70622	-0.013763	0.226613	0.390888	-0.0742732	-0.0844893	-0.0352667	0.287267	-0.0528187	-0.216863	-0.01445	0.185125	-0.0629365	0.0174205	-0.151565	0.0541592	-0.0763695	0.0697455	4.85E-05	-0.0740147	-0.0801022	-0.114281	-0.22735	-0.0487272	-0.123805	-0.333503	0.258713	-0.40084	-0.035544	0.026222	0.272787	-0.079304	
1.37024	0	0	1.70622	-0.013763	0.231946	0.375815	-0.0752405	-0.0925565	-0.0361115	0.278203	-0.0595845	-0.225828	-0.012338	0.165272	-0.065198	0.010231	-0.152313	0.0428515	-0.075282	0.066672	0.00246	-0.0808295	-0.0875355	-0.118258	-0.225583	-0.0537205	-0.129005	-0.330105	0.260015	-0.404519	-0.035544	0.026222	0.272787	-0.079304	
1.37024	0	0	1.70622	-0.013763	0.23728	0.360743	-0.0762077	-0.100624	-0.0369563	0.269139	-0.0663502	-0.234793	-0.010226	0.145419	-0.0674595	0.0030415	-0.153062	0.0315438	-0.0741945	0.0635985	0.0048715	-0.0876443	-0.0949688	-0.122234	-0.223817	-0.0587138	-0.134206	-0.326708	0.261316	-0.408197	-0.035544	0.026222	0.272787	-0.079304	
1.37329	0	0	1.70622	-0.013763	0.242613	0.34567	-0.077175	-0.108691	-0.037801	0.260075	-0.073116	-0.243757	-0.008114	0.125566	-0.069721	-0.004148	-0.153811	0.020236	-0.073107	0.060525	0.007283	-0.094459	-0.102402	-0.126211	-0.22205	-0.063707	-0.139406	-0.32331	0.262618	-0.411876	-0.035544	0.026222	0.272787	-0.079304	
1.36871	0	0	1.70622	-0.013763	0.246607	0.334382	-0.0712037	-0.114766	-0.0355905	0.253828	-0.069601	-0.253691	-0.005285	0.117571	-0.069721	-0.004148	-0.146277	0.012367	-0.0709328	0.0543808	0.0014255	-0.0906315	-0.106115	-0.128197	-0.227028	-0.0681255	-0.131371	-0.334721	0.258359	-0.414747	-0.0314087	0.0145352	0.271621	-0.0885468	
1.36719	0	0	1.70622	-0.013763	0.250601	0.323094	-0.0652325	-0.12084	-0.03338	0.24758	-0.066086	-0.263625	-0.002456	0.109576	-0.069721	-0.004148	-0.138742	0.004498	-0.0687585	0.0482365	-0.004432	-0.086804	-0.109828	-0.130184	-0.232006	-0.072544	-0.123335	-0.346131	0.254101	-0.417617	-0.0272735	0.0028485	0.270455	-0.0977895	
1.37024	0	0	1.70622	-0.013763	0.254596	0.311806	-0.0592612	-0.126915	-0.0311695	0.241333	-0.062571	-0.273558	0.000373	0.101581	-0.069721	-0.004148	-0.131208	-0.003371	-0.0665842	0.0420922	-0.0102895	-0.0829765	-0.113541	-0.13217	-0.236984	-0.0769625	-0.115299	-0.357542	0.249842	-0.420488	-0.0231382	-0.00883825	0.269289	-0.107032	
1.37024	0	0	1.70622	-0.013763	0.25859	0.300518	-0.05329	-0.13299	-0.028959	0.235086	-0.059056	-0.283492	0.003202	0.093586	-0.069721	-0.004148	-0.123674	-0.01124	-0.06441	0.035948	-0.016147	-0.079149	-0.117254	-0.134156	-0.241962	-0.081381	-0.107264	-0.368953	0.245583	-0.423358	-0.019003	-0.020525	0.268123	-0.116275	
1.37176	0	0	1.70622	-0.013763	0.255928	0.308042	-0.0552907	-0.127336	-0.030064	0.238209	-0.0582642	-0.276372	0.006763	0.0974055	-0.07105	-0.00039175	-0.12503	-0.007408	-0.0665842	0.0420922	-0.016147	-0.079149	-0.112526	-0.13504	-0.235218	-0.081953	-0.107264	-0.368953	0.252444	-0.427841	-0.0162492	-0.0283077	0.275044	-0.123296	
1.37329	0	0	1.70622	-0.013763	0.253265	0.315565	-0.0572915	-0.121681	-0.031169	0.241332	-0.0574725	-0.269253	0.010324	0.101225	-0.072379	0.0033645	-0.126386	-0.003576	-0.0687585	0.0482365	-0.016147	-0.079149	-0.107797	-0.135924	-0.228474	-0.082525	-0.107264	-0.368953	0.259304	-0.432323	-0.0134955	-0.0360905	0.281965	-0.130318	
1.37024	0	0	1.70622	-0.013763	0.250603	0.323089	-0.0592922	-0.116027	-0.032274	0.244455	-0.0566808	-0.262133	0.013885	0.105044	-0.073708	0.00712075	-0.127742	0.000256	-0.0709328	0.0543808	-0.016147	-0.079149	-0.103068	-0.136807	-0.22173	-0.083097	-0.107264	-0.368953	0.266165	-0.436806	-0.0107417	-0.0438733	0.288886	-0.137339	
1.37024	0	0	1.70622	-0.013763	0.247941	0.330613	-0.061293	-0.110373	-0.033379	0.247578	-0.055889	-0.255013	0.017446	0.108864	-0.075037	0.010877	-0.129098	0.004088	-0.073107	0.060525	-0.016147	-0.079149	-0.09834	-0.137691	-0.214986	-0.083669	-0.107264	-0.368953	0.273026	-0.441289	-0.007988	-0.051656	0.295807	-0.14436	
1.36719	0	0	1.70622	-0.013763	0.251933	0.31933	-0.0632635	-0.115605	-0.0353322	0.241654	-0.0601073	-0.261802	0.0152985	0.10105	-0.0763668	0.014635	-0.126387	-0.0035745	-0.073107	0.060525	-0.0149423	-0.0825542	-0.103068	-0.136807	-0.214986	-0.083669	-0.107264	-0.368953	0.266165	-0.436806	-0.0093645	-0.0477655	0.300431	-0.144883	
1.37024	0	0	1.70622	-0.013763	0.255926	0.308047	-0.065234	-0.120836	-0.0372855	0.235729	-0.0643255	-0.268591	0.013151	0.093235	-0.0776965	0.018393	-0.123675	-0.011237	-0.073107	0.060525	-0.0137375	-0.0859595	-0.107797	-0.135924	-0.214986	-0.083669	-0.107264	-0.368953	0.259304	-0.432323	-0.010741	-0.043875	0.305056	-0.145405	
1.37024	0	0	1.70622	-0.013763	0.259918	0.296764	-0.0672045	-0.126068	-0.0392388	0.229805	-0.0685438	-0.27538	0.0110035	0.0854205	-0.0790262	0.022151	-0.120964	-0.0188995	-0.073107	0.060525	-0.0125328	-0.0893648	-0.112526	-0.13504	-0.214986	-0.083669	-0.107264	-0.368953	0.252444	-0.427841	-0.0121175	-0.0399845	0.309681	-0.145928	
1.37024	0	0	1.70622	-0.013763	0.263911	0.285481	-0.069175	-0.1313	-0.041192	0.223881	-0.072762	-0.282169	0.008856	0.077606	-0.080356	0.025909	-0.118253	-0.026562	-0.073107	0.060525	-0.011328	-0.09277	-0.117254	-0.134156	-0.214986	-0.083669	-0.107264	-0.368953	0.245583	-0.423358	-0.013494	-0.036094	0.314305	-0.146451	
1.37329	0	0	1.70622	-0.013763	0.26657	0.277967	-0.064204	-0.134548	-0.040088	0.220761	-0.0658245	-0.292423	0.0102688	0.073613	-0.0678505	0.0177375	-0.118253	-0.026562	-0.069775	0.0630745	-0.011328	-0.09277	-0.115224	-0.139892	-0.223495	-0.0781092	-0.105375	-0.374291	0.248183	-0.430705	-0.0164773	-0.0431137	0.31198	-0.152425	
1.37024	0	0	1.70622	-0.013763	0.269228	0.270452	-0.059233	-0.137796	-0.038984	0.217641	-0.058887	-0.302677	0.0116815	0.06962	-0.055345	0.009566	-0.118253	-0.026562	-0.066443	0.065624	-0.011328	-0.09277	-0.113195	-0.145627	-0.232004	-0.0725495	-0.103487	-0.379629	0.250783	-0.438053	-0.0194605	-0.0501335	0.309654	-0.1584	
1.37329	0	0	1.70622	-0.013763	0.271887	0.262938	-0.054262	-0.141044	-0.03788	0.214521	-0.0519495	-0.31293	0.0130942	0.065627	-0.0428395	0.0013945	-0.118253	-0.026562	-0.063111	0.0681735	-0.011328	-0.09277	-0.111165	-0.151363	-0.240512	-0.0669898	-0.101598	-0.384968	0.253382	-0.4454	-0.0224438	-0.0571532	0.307329	-0.164375	
1.36719	0	0	1.70622	-0.013763	0.274546	0.255424	-0.049291	-0.144292	-0.036776	0.211401	-0.045012	-0.323184	0.014507	0.061634	-0.030334	-0.006777	-0.118253	-0.026562	-0.059779	0.070723	-0.011328	-0.09277	-0.109135	-0.157099	-0.249021	-0.06143	-0.099709	-0.390306	0.255982	-0.452747	-0.025427	-0.064173	0.305003	-0.170349	
1.37024	0	0	1.70622	-0.013763	0.271887	0.262938	-0.0502908	-0.141466	-0.033717	0.2142	-0.0459735	-0.31111	0.0166568	0.069443	-0.0343265	0.00450625	-0.114781	-0.0229395	-0.056445	0.0732747	-0.0137383	-0.085958	-0.106436	-0.152247	-0.242278	-0.0619992	-0.098765	-0.392974	0.261543	-0.453557	-0.0183158	-0.0688195	0.310778	-0.174123	
1.36413	0	0	1.70622	-0.013763	0.269228	0.270452	-0.0512905	-0.138641	-0.030658	0.217	-0.046935	-0.299035	0.0188065	0.077252	-0.038319	0.0157895	-0.11131	-0.019317	-0.053111	0.0758265	-0.0161485	-0.079146	-0.103737	-0.147395	-0.235536	-0.0625685	-0.097821	-0.395641	0.267104	-0.454367	-0.0112045	-0.073466	0.316552	-0.177896	
1.37024	0	0	1.70622	-0.013763	0.26657	0.277967	-0.0522902	-0.135816	-0.027599	0.219799	-0.0478965	-0.286961	0.0209563	0.085061	-0.0423115	0.0270727	-0.107838	-0.0156945	-0.049777	0.0783782	-0.0185587	-0.072334	-0.101039	-0.142543	-0.228793	-0.0631377	-0.096877	-0.398309	0.272665	-0.455177	-0.00409325	-0.0781125	0.322326	-0.181669	
1.37176	0	0	1.70622	-0.013763	0.263911	0.285481	-0.05329	-0.13299	-0.02454	0.222598	-0.048858	-0.274886	0.023106	0.09287	-0.046304	0.038356	-0.104366	-0.012072	-0.046443	0.08093	-0.020969	-0.065522	-0.09834	-0.137691	-0.22205	-0.063707	-0.095933	-0.400977	0.278226	-0.455987	0.003018	-0.082759	0.328101	-0.185443	
1.37024	0	0	1.70622	-0.013763	0.260364	0.282021	-0.0552625	-0.138216	-0.0264955	0.21668	-0.052201	-0.284148	0.02452	0.0888735	-0.046304	0.038356	-0.096823	-0.019947	-0.047532	0.084008	-0.0197635	-0.0689287	-0.0973248	-0.14056	-0.228793	-0.0631377	-0.099246	-0.402913	0.279526	-0.45966	-0.0111985	-0.0734698	0.322326	-0.181669	
1.37024	0	0	1.70622	-0.013763	0.256818	0.278562	-0.057235	-0.143443	-0.028451	0.210762	-0.055544	-0.293409	0.025934	0.084877	-0.046304	0.038356	-0.08928	-0.027822	-0.048621	0.087086	-0.018558	-0.0723355	-0.0963095	-0.143429	-0.235536	-0.0625685	-0.102559	-0.404848	0.280825	-0.463332	-0.025415	-0.0641805	0.316552	-0.177896	
1.37024	0	0	1.70622	-0.013763	0.253271	0.275102	-0.0592075	-0.148669	-0.0304065	0.204844	-0.058887	-0.302671	0.027348	0.0808805	-0.046304	0.038356	-0.081737	-0.035697	-0.04971	0.090164	-0.0173525	-0.0757422	-0.0952942	-0.146299	-0.242278	-0.0619992	-0.105872	-0.406783	0.282125	-0.467005	-0.0396315	-0.0548912	0.310778	-0.174123	
1.36566	0	0	1.70622	-0.013763	0.249725	0.271642	-0.06118	-0.153895	-0.032362	0.198926	-0.06223	-0.311933	0.028762	0.076884	-0.046304	0.038356	-0.074194	-0.043572	-0.050799	0.093242	-0.016147	-0.079149	-0.094279	-0.149168	-0.249021	-0.06143	-0.109185	-0.408719	0.283425	-0.470678	-0.053848	-0.045602	0.305003	-0.170349	
1.37024	0	0	1.70622	-0.013763	0.251053	0.267887	-0.0601812	-0.156718	-0.0259918	0.192367	-0.0613527	-0.314412	0.0365705	0.0687105	-0.0413762	0.03803	-0.0755497	-0.0397397	-0.0441952	0.0865605	-0.0220005	-0.0753242	-0.093264	-0.152036	-0.249021	-0.06143	-0.111553	-0.413317	0.286022	-0.478019	-0.04262	-0.0618957	0.30153	-0.173071	
1.37024	0	0	1.70622	-0.013763	0.252382	0.264132	-0.0591825	-0.159541	-0.0196215	0.185808	-0.0604755	-0.316891	0.044379	0.060537	-0.0364485	0.037704	-0.0769055	-0.0359075	-0.0375915	0.079879	-0.027854	-0.0714995	-0.092249	-0.154905	-0.249021	-0.06143	-0.113922	-0.417915	0.28862	-0.48536	-0.031392	-0.0781895	0.298056	-0.175793	
1.36719	0	0	1.70622	-0.013763	0.253711	0.260378	-0.0581837	-0.162364	-0.0132512	0.179248	-0.0595983	-0.31937	0.0521875	0.0523635	-0.0315208	0.037378	-0.0782612	-0.0320752	-0.0309877	0.0731975	-0.0337075	-0.0676748	-0.091234	-0.157774	-0.249021	-0.06143	-0.116291	-0.422513	0.291218	-0.492702	-0.020164	-0.0944833	0.294583	-0.178515	
1.36871	0	0	1.70622	-0.013763	0.255039	0.256623	-0.057185	-0.165187	-0.006881	0.172689	-0.058721	-0.321849	0.059996	0.04419	-0.026593	0.037052	-0.079617	-0.028243	-0.024384	0.066516	-0.039561	-0.06385	-0.090219	-0.160642	-0.249021	-0.06143	-0.118659	-0.427111	0.293815	-0.500043	-0.008936	-0.110777	0.291109	-0.181237	
1.37024	0	0	1.70622	-0.013763	0.252382	0.264134	-0.0611545	-0.164763	-0.0027135	0.172363	-0.0579267	-0.314742	0.0557535	0.05618	-0.0279255	0.0408177	-0.076139	-0.02462	-0.024384	0.066516	-0.0407665	-0.0604433	-0.0854865	-0.161529	-0.242278	-0.0619992	-0.117717	-0.429774	0.293815	-0.500043	-0.008936	-0.110777	0.292257	-0.184482	
1.36566	0	0	1.70622	-0.013763	0.249724	0.271645	-0.065124	-0.164338	0.001454	0.172037	-0.0571325	-0.307634	0.051511	0.06817	-0.029258	0.0445835	-0.072661	-0.020997	-0.024384	0.066516	-0.041972	-0.0570365	-0.080754	-0.162417	-0.235536	-0.0625685	-0.116775	-0.432437	0.293815	-0.500043	-0.008936	-0.110777	0.293405	-0.187726	
1.36871	0	0	1.70622	-0.013763	0.247066	0.279156	-0.0690935	-0.163914	0.0056215	0.17171	-0.0563383	-0.300526	0.0472685	0.08016	-0.0305905	0.0483493	-0.069183	-0.017374	-0.024384	0.066516	-0.0431775	-0.0536297	-0.0760215	-0.163304	-0.228793	-0.0631377	-0.115832	-0.4351	0.293815	-0.500043	-0.008936	-0.110777	0.294553	-0.19097	
1.36871	0	0	1.70622	-0.013763	0.244409	0.286667	-0.073063	-0.16349	0.009789	0.171384	-0.055544	-0.293419	0.043026	0.09215	-0.031923	0.052115	-0.065705	-0.013751	-0.024384	0.066516	-0.044383	-0.050223	-0.071289	-0.164191	-0.22205	-0.063707	-0.11489	-0.437763	0.293815	-0.500043	-0.008936	-0.110777	0.295701	-0.194215	
1.36566	0	0	1.70622	-0.013763	0.242194	0.279455	-0.070069	-0.171951	0.001457	0.172035	-0.0563383	-0.300526	0.0472685	0.08016	-0.0292588	0.044585	-0.0705395	-0.0135405	-0.0266338	0.060892	-0.0419728	-0.057035	-0.068245	-0.172793	-0.218519	-0.0736853	-0.119142	-0.437032	0.288252	-0.499229	-0.008936	-0.110777	0.289934	-0.190447	
1.36566	0	0	1.70622	-0.013763	0.239979	0.272242	-0.067075	-0.180412	-0.006875	0.172687	-0.0571325	-0.307634	0.051511	0.06817	-0.0265945	0.037055	-0.075374	-0.01333	-0.0288835	0.055268	-0.0395625	-0.063847	-0.065201	-0.181395	-0.214988	-0.0836635	-0.123393	-0.4363	0.28269	-0.498414	-0.008936	-0.110777	0.284168	-0.186678	
1.36871	0	0	1.70622	-0.013763	0.237764	0.26503	-0.064081	-0.188873	-0.015207	0.173338	-0.0579267	-0.314742	0.0557535	0.05618	-0.0239303	0.029525	-0.0802085	-0.0131195	-0.0311333	0.049644	-0.0371522	-0.070659	-0.062157	-0.189998	-0.211458	-0.0936417	-0.127645	-0.435568	0.277127	-0.497599	-0.008936	-0.110777	0.278401	-0.18291	
1.36871	0	0	1.70622	-0.013763	0.235549	0.257818	-0.061087	-0.197334	-0.023539	0.173989	-0.058721	-0.321849	0.059996	0.04419	-0.021266	0.021995	-0.085043	-0.012909	-0.033383	0.04402	-0.034742	-0.077471	-0.059113	-0.1986	-0.207927	-0.10362	-0.131897	-0.434837	0.271564	-0.496785	-0.008936	-0.110777	0.272634	-0.179142	
1.36719	0	0	1.70622	-0.013763	0.234221	0.261571	-0.061087	-0.197334	-0.0118987	0.163988	-0.0544165	-0.324662	0.0663958	0.0400083	-0.021266	0.021995	-0.0788515	-0.0169548	-0.0367193	0.0414747	-0.034742	-0.077471	-0.062833	-0.200574	-0.207927	-0.10362	-0.131897	-0.434837	0.274159	-0.504117	-0.011924	-0.11777	0.269166	-0.181862	
1.36719	0	0	1.70622	-0.013763	0.232893	0.265324	-0.061087	-0.197334	-0.0002585	0.153987	-0.050112	-0.327475	0.0727955	0.0358265	-0.021266	0.021995	-0.07266	-0.0210005	-0.0400555	0.0389295	-0.034742	-0.077471	-0.066553	-0.202549	-0.207927	-0.10362	-0.131897	-0.434837	0.276753	-0.51145	-0.014912	-0.124763	0.265698	-0.184582	
1.36719	0	0	1.70622	-0.013763	0.231565	0.269077	-0.061087	-0.197334	0.0113817	0.143986	-0.0458075	-0.330287	0.0791952	0.0316447	-0.021266	0.021995	-0.0664685	-0.0250462	-0.0433917	0.0363842	-0.034742	-0.077471	-0.070273	-0.204523	-0.207927	-0.10362	-0.131897	-0.434837	0.279348	-0.518782	-0.0179	-0.131757	0.262229	-0.187302	
1.36719	0	0	1.70622	-0.013763	0.230237	0.27283	-0.061087	-0.197334	0.023022	0.133985	-0.041503	-0.3331	0.085595	0.027463	-0.021266	0.021995	-0.060277	-0.029092	-0.046728	0.033839	-0.034742	-0.077471	-0.073993	-0.206498	-0.207927	-0.10362	-0.131897	-0.434837	0.281942	-0.526114	-0.020888	-0.13875	0.258761	-0.190022	
1.36719	0	0	1.70622	-0.013763	0.225369	0.273126	-0.0660523	-0.19409	0.0124843	0.140871	-0.0458912	-0.320698	0.0763677	0.0396362	-0.0275255	0.0260853	-0.0664685	-0.0250462	-0.045641	0.0307675	-0.0359467	-0.0740657	-0.0692593	-0.207389	-0.201175	-0.104197	-0.125276	-0.430973	0.286208	-0.523265	-0.0151547	-0.139516	0.257614	-0.18678	
1.36413	0	0	1.70622	-0.013763	0.2205	0.273421	-0.0710175	-0.190846	0.0019465	0.147756	-0.0502795	-0.308296	0.0671405	0.0518095	-0.033785	0.0301755	-0.07266	-0.0210005	-0.044554	0.027696	-0.0371515	-0.0706605	-0.0645255	-0.20828	-0.194422	-0.104775	-0.118655	-0.427109	0.290475	-0.520415	-0.0094215	-0.140282	0.256467	-0.183537	
1.36871	0	0	1.70622	-0.013763	0.215632	0.273716	-0.0759828	-0.187601	-0.00859125	0.154641	-0.0546678	-0.295894	0.0579132	0.0639828	-0.0400445	0.0342657	-0.0788515	-0.0169548	-0.043467	0.0246245	-0.0383563	-0.0672553	-0.0597918	-0.209171	-0.18767	-0.105353	-0.112034	-0.423244	0.294741	-0.517566	-0.00368825	-0.141047	0.255319	-0.180295	
1.36413	0	0	1.70622	-0.013763	0.210764	0.274012	-0.080948	-0.184357	-0.019129	0.161527	-0.059056	-0.283492	0.048686	0.076156	-0.046304	0.038356	-0.085043	-0.012909	-0.04238	0.021553	-0.039561	-0.06385	-0.055058	-0.210062	-0.180918	-0.10593	-0.105413	-0.41938	0.299007	-0.514717	0.002045	-0.141813	0.254172	-0.177053	
1.36719	0	0	1.70622	-0.013763	0.201039	0.274599	-0.0789538	-0.189993	-0.0210882	0.155627	-0.0564223	-0.290935	0.0515135	0.0681645	-0.0436417	0.0308322	-0.0912305	-0.008866	-0.0446293	0.0159432	-0.0430012	-0.0668373	-0.056753	-0.217759	-0.177389	-0.115903	-0.105413	-0.41938	0.299007	-0.514717	-0.00368825	-0.141047	0.247265	-0.170046	
1.36566	0	0	1.70622	-0.013763	0.191314	0.275187	-0.0769595	-0.195629	-0.0230475	0.149726	-0.0537885	-0.298378	0.054341	0.060173	-0.0409795	0.0233085	-0.097418	-0.004823	-0.0468785	0.0103335	-0.0464415	-0.0698245	-0.058448	-0.225457	-0.173861	-0.125876	-0.105413	-0.41938	0.299007	-0.514717	-0.0094215	-0.140282	0.240359	-0.16304	
1.36566	0	0	1.70622	-0.013763	0.18159	0.275774	-0.0749652	-0.201265	-0.0250068	0.143826	-0.0511547	-0.305822	0.0571685	0.0521815	-0.0383172	0.0157848	-0.103606	-0.00078	-0.0491277	0.00472375	-0.0498818	-0.0728118	-0.060143	-0.233155	-0.170332	-0.135848	-0.105413	-0.41938	0.299007	-0.514717	-0.0151547	-0.139516	0.233452	-0.156033	
1.36413	0	0	1.70622	-0.013763	0.171865	0.276361	-0.072971	-0.206901	-0.026966	0.137926	-0.048521	-0.313265	0.059996	0.04419	-0.035655	0.008261	-0.109793	0.003263	-0.051377	-0.000886	-0.053322	-0.075799	-0.061838	-0.240852	-0.166803	-0.145821	-0.105413	-0.41938	0.299007	-0.514717	-0.020888	-0.13875	0.226545	-0.149027	
1.36566	0	0	1.70622	-0.013763	0.176725	0.276068	-0.07	-0.204509	-0.0228033	0.137598	-0.0493988	-0.310785	0.059996	0.04419	-0.035655	0.008261	-0.109793	0.003263	-0.0502917	-0.00395325	-0.0545265	-0.0723948	-0.055078	-0.247469	-0.173557	-0.145238	-0.108725	-0.421313	0.307171	-0.52287	-0.020888	-0.13875	0.229987	-0.158753	
1.36413	0	0	1.70622	-0.013763	0.181586	0.275775	-0.067029	-0.202118	-0.0186405	0.137271	-0.0502765	-0.308304	0.059996	0.04419	-0.035655	0.008261	-0.109793	0.003263	-0.0492065	-0.0070205	-0.055731	-0.0689905	-0.048318	-0.254085	-0.180312	-0.144655	-0.112036	-0.423245	0.315335	-0.531023	-0.020888	-0.13875	0.233428	-0.16848	
1.36413	0	0	1.70622	-0.013763	0.186447	0.275482	-0.064058	-0.199726	-0.0144778	0.136943	-0.0511542	-0.305824	0.059996	0.04419	-0.035655	0.008261	-0.109793	0.003263	-0.0481213	-0.0100877	-0.0569355	-0.0655862	-0.041558	-0.260702	-0.187066	-0.144072	-0.115348	-0.425178	0.323498	-0.539177	-0.020888	-0.13875	0.23687	-0.178206	
1.36413	0	0	1.70622	-0.013763	0.191307	0.275189	-0.061087	-0.197334	-0.010315	0.136616	-0.052032	-0.303344	0.059996	0.04419	-0.035655	0.008261	-0.109793	0.003263	-0.047036	-0.013155	-0.05814	-0.062182	-0.034798	-0.267319	-0.19382	-0.143489	-0.118659	-0.427111	0.331662	-0.54733	-0.020888	-0.13875	0.240312	-0.187933	
1.36413	0	0	1.70622	-0.013763	0.178937	0.283272	-0.065055	-0.196908	-0.015579	0.140056	-0.053788	-0.298381	0.0571685	0.0521815	-0.0369857	0.012022	-0.109793	0.003263	-0.047036	-0.013155	-0.0534952	-0.062599	-0.036823	-0.261596	-0.187066	-0.144072	-0.114404	-0.427843	0.33464	-0.540815	-0.0080435	-0.144162	0.238018	-0.18145	
1.36108	0	0	1.70622	-0.013763	0.166567	0.291355	-0.069023	-0.196483	-0.020843	0.143495	-0.055544	-0.293418	0.054341	0.060173	-0.0383165	0.015783	-0.109793	0.003263	-0.047036	-0.013155	-0.0488505	-0.063016	-0.038848	-0.255873	-0.180312	-0.144655	-0.11015	-0.428575	0.337618	-0.5343	0.004801	-0.149574	0.235724	-0.174967	
1.36261	0	0	1.70622	-0.013763	0.154196	0.299438	-0.072991	-0.196057	-0.026107	0.146935	-0.0573	-0.288455	0.0515135	0.0681645	-0.0396473	0.019544	-0.109793	0.003263	-0.047036	-0.013155	-0.0442058	-0.063433	-0.040873	-0.25015	-0.173557	-0.145238	-0.105896	-0.429307	0.340595	-0.527785	0.0176455	-0.154987	0.23343	-0.168484	
1.36108	0	0	1.70622	-0.013763	0.141826	0.307521	-0.076959	-0.195631	-0.031371	0.150375	-0.059056	-0.283492	0.048686	0.076156	-0.040978	0.023305	-0.109793	0.003263	-0.047036	-0.013155	-0.039561	-0.06385	-0.042898	-0.244427	-0.166803	-0.145821	-0.101641	-0.430039	0.343573	-0.52127	0.03049	-0.160399	0.231136	-0.162001	
1.36413	0	0	1.70622	-0.013763	0.149336	0.299731	-0.075962	-0.198448	-0.0239048	0.140712	-0.0573	-0.288455	0.0501	0.0721593	-0.0396473	0.019544	-0.109793	0.003263	-0.045951	-0.0162212	-0.0442058	-0.063433	-0.040873	-0.25015	-0.163278	-0.155783	-0.104011	-0.434632	0.34617	-0.528608	0.0247508	-0.15963	0.225381	-0.15824	
1.36413	0	0	1.70622	-0.013763	0.156845	0.291941	-0.074965	-0.201266	-0.0164385	0.131049	-0.055544	-0.293418	0.051514	0.0681625	-0.0383165	0.015783	-0.109793	0.003263	-0.044866	-0.0192875	-0.0488505	-0.063016	-0.038848	-0.255873	-0.159753	-0.165745	-0.106381	-0.439225	0.348766	-0.535946	0.0190115	-0.15886	0.219626	-0.154479	
1.36413	0	0	1.70622	-0.013763	0.164355	0.284151	-0.073968	-0.204084	-0.00897225	0.121386	-0.053788	-0.298381	0.052928	0.0641657	-0.0369857	0.012022	-0.109793	0.003263	-0.043781	-0.0223538	-0.0534952	-0.062599	-0.036823	-0.261596	-0.156229	-0.175706	-0.108752	-0.443819	0.351363	-0.543285	0.0132723	-0.15809	0.21387	-0.150719	
1.36566	0	0	1.70622	-0.013763	0.171865	0.276361	-0.072971	-0.206901	-0.001506	0.111723	-0.052032	-0.303344	0.054342	0.060169	-0.035655	0.008261	-0.109793	0.003263	-0.042696	-0.02542	-0.05814	-0.062182	-0.034798	-0.267319	-0.152704	-0.185668	-0.111122	-0.448412	0.353959	-0.550623	0.007533	-0.157321	0.208115	-0.146958	
1.35956	0	0	1.70622	-0.013763	0.163028	0.287903	-0.0709977	-0.20169	-0.00480975	0.12106	-0.0494813	-0.301195	0.052928	0.0641657	-0.035655	0.008261	-0.11115	0.00709825	-0.0416115	-0.0284853	-0.059345	-0.0587768	-0.030059	-0.268216	-0.152704	-0.185668	-0.114432	-0.45034	0.362133	-0.558783	0.00890425	-0.161196	0.209262	-0.1502	
1.36413	0	0	1.70622	-0.013763	0.154191	0.299444	-0.0690245	-0.196479	-0.0081135	0.130396	-0.0469305	-0.299046	0.051514	0.0681625	-0.035655	0.008261	-0.112507	0.0109335	-0.040527	-0.0315505	-0.06055	-0.0553715	-0.02532	-0.269113	-0.152704	-0.185668	-0.117743	-0.452269	0.370308	-0.566944	0.0102755	-0.165071	0.210409	-0.153443	
1.36261	0	0	1.70622	-0.013763	0.145354	0.310986	-0.0670512	-0.191267	-0.0114173	0.139733	-0.0443797	-0.296898	0.0501	0.0721593	-0.035655	0.008261	-0.113864	0.0147687	-0.0394425	-0.0346158	-0.061755	-0.0519662	-0.020581	-0.27001	-0.152704	-0.185668	-0.121054	-0.454197	0.378482	-0.575105	0.0116468	-0.168947	0.211557	-0.156685	
1.36261	0	0	1.70622	-0.013763	0.136517	0.322527	-0.065078	-0.186056	-0.014721	0.14907	-0.041829	-0.294749	0.048686	0.076156	-0.035655	0.008261	-0.115221	0.018604	-0.038358	-0.037681	-0.06296	-0.048561	-0.015842	-0.270907	-0.152704	-0.185668	-0.124364	-0.456126	0.386657	-0.583265	0.013018	-0.172822	0.212704	-0.159927	
1.36719	0	0	1.70622	-0.013763	0.130338	0.326564	-0.0690455	-0.185631	-0.019985	0.15251	-0.044465	-0.287299	0.0458558	0.0841548	-0.035655	0.008261	-0.115221	0.018604	-0.0394425	-0.0346158	-0.0595217	-0.0455685	-0.0131257	-0.266079	-0.147703	-0.181277	-0.128132	-0.445478	0.382763	-0.57226	0.0146405	-0.161958	0.216164	-0.157202	
1.36261	0	0	1.70622	-0.013763	0.12416	0.330601	-0.073013	-0.185206	-0.025249	0.155949	-0.047101	-0.27985	0.0430255	0.0921535	-0.035655	0.008261	-0.115221	0.018604	-0.040527	-0.0315505	-0.0560835	-0.042576	-0.0104095	-0.261251	-0.142703	-0.176886	-0.131899	-0.434831	0.378869	-0.561255	0.016263	-0.151093	0.219625	-0.154477	
1.36413	0	0	1.70622	-0.013763	0.117982	0.334638	-0.0769805	-0.184782	-0.030513	0.159388	-0.049737	-0.2724	0.0401953	0.100152	-0.035655	0.008261	-0.115221	0.018604	-0.0416115	-0.0284853	-0.0526453	-0.0395835	-0.00769325	-0.256423	-0.137702	-0.172495	-0.135666	-0.424183	0.374975	-0.55025	0.0178855	-0.140229	0.223085	-0.151752	
1.36108	0	0	1.70622	-0.013763	0.111803	0.338675	-0.080948	-0.184357	-0.035777	0.162828	-0.052373	-0.264951	0.037365	0.108151	-0.035655	0.008261	-0.115221	0.018604	-0.042696	-0.02542	-0.049207	-0.036591	-0.004977	-0.251595	-0.132701	-0.168104	-0.139434	-0.413536	0.371081	-0.539245	0.019508	-0.129364	0.226545	-0.149027	
1.36261	0	0	1.70622	-0.013763	0.111803	0.338675	-0.0819458	-0.181537	-0.0410378	0.166266	-0.0471852	-0.27025	0.037365	0.108151	-0.0307263	0.007932	-0.115221	0.018604	-0.042696	-0.02542	-0.0504132	-0.0331817	-0.004977	-0.251595	-0.141227	-0.162533	-0.141799	-0.418131	0.38056	-0.55108	0.01377	-0.128598	0.223085	-0.151752	
1.36413	0	0	1.70622	-0.013763	0.111803	0.338675	-0.0829435	-0.178718	-0.0462985	0.169703	-0.0419975	-0.27555	0.037365	0.108151	-0.0257975	0.007603	-0.115221	0.018604	-0.042696	-0.02542	-0.0516195	-0.0297725	-0.004977	-0.251595	-0.149752	-0.156963	-0.144163	-0.422726	0.39004	-0.562916	0.008032	-0.127831	0.219625	-0.154477	
1.36261	0	0	1.70622	-0.013763	0.111803	0.338675	-0.0839412	-0.175899	-0.0515593	0.173141	-0.0368098	-0.280849	0.037365	0.108151	-0.0208687	0.007274	-0.115221	0.018604	-0.042696	-0.02542	-0.0528257	-0.0263632	-0.004977	-0.251595	-0.158278	-0.151392	-0.146528	-0.427321	0.39952	-0.574751	0.002294	-0.127065	0.216164	-0.157202	
1.36108	0	0	1.70622	-0.013763	0.111803	0.338675	-0.084939	-0.173079	-0.05682	0.176578	-0.031622	-0.286148	0.037365	0.108151	-0.01594	0.006945	-0.115221	0.018604	-0.042696	-0.02542	-0.054032	-0.022954	-0.004977	-0.251595	-0.166803	-0.145821	-0.148893	-0.431916	0.408999	-0.586587	-0.003444	-0.126299	0.212704	-0.159927	
1.36261	0	0	1.70622	-0.013763	0.112666	0.34966	-0.0799985	-0.165459	-0.051809	0.185284	-0.0317077	-0.276539	0.0395145	0.115981	-0.0199357	0.0182375	-0.11175	0.0222367	-0.0338477	-0.0264863	-0.0552387	-0.0195435	-0.00124525	-0.249628	-0.160041	-0.146407	-0.14701	-0.437237	0.403413	-0.585757	-0.003444	-0.126299	0.203498	-0.158894	
1.36108	0	0	1.70622	-0.013763	0.113529	0.360645	-0.075058	-0.157839	-0.046798	0.19399	-0.0317935	-0.26693	0.041664	0.123811	-0.0239315	0.02953	-0.108278	0.0258695	-0.0249995	-0.0275525	-0.0564455	-0.016133	0.0024865	-0.247661	-0.15328	-0.146993	-0.145127	-0.442558	0.397828	-0.584926	-0.003444	-0.126299	0.194293	-0.157861	
1.36261	0	0	1.70622	-0.013763	0.114392	0.37163	-0.0701175	-0.150219	-0.041787	0.202695	-0.0318792	-0.257321	0.0438135	0.13164	-0.0279273	0.0408225	-0.104807	0.0295022	-0.0161512	-0.0286187	-0.0576523	-0.0127225	0.00621825	-0.245694	-0.146518	-0.147579	-0.143245	-0.447878	0.392242	-0.584095	-0.003444	-0.126299	0.185087	-0.156829	
1.36108	0	0	1.70622	-0.013763	0.115255	0.382615	-0.065177	-0.142599	-0.036776	0.211401	-0.031965	-0.247712	0.045963	0.13947	-0.031923	0.052115	-0.101336	0.033135	-0.007303	-0.029685	-0.058859	-0.009312	0.00995	-0.243727	-0.139756	-0.148165	-0.141362	-0.453199	0.386657	-0.583265	-0.003444	-0.126299	0.175881	-0.155796	
1.36413	0	0	1.70622	-0.013763	0.109077	0.386652	-0.070145	-0.139353	-0.0389842	0.217642	-0.0328452	-0.245225	0.0431262	0.147487	-0.026992	0.0517895	-0.104054	0.0408172	-0.011648	-0.017405	-0.0554205	-0.00631175	0.012669	-0.238891	-0.134753	-0.143763	-0.143245	-0.447878	0.378482	-0.575105	-0.00619075	-0.118536	0.178188	-0.149828	
1.36108	0	0	1.70622	-0.013763	0.102899	0.390689	-0.075113	-0.136107	-0.0411925	0.223883	-0.0337255	-0.242737	0.0402895	0.155504	-0.022061	0.051464	-0.106772	0.0484995	-0.015993	-0.005125	-0.051982	-0.0033115	0.015388	-0.234054	-0.129749	-0.139361	-0.145127	-0.442558	0.370308	-0.566944	-0.0089375	-0.110774	0.180495	-0.143861	
1.36261	0	0	1.70622	-0.013763	0.0967202	0.394726	-0.080081	-0.13286	-0.0434008	0.230124	-0.0346057	-0.24025	0.0374527	0.16352	-0.01713	0.0511385	-0.109491	0.0561818	-0.020338	0.007155	-0.0485435	-0.00031125	0.018107	-0.229217	-0.124746	-0.134959	-0.14701	-0.437237	0.362133	-0.558783	-0.0116843	-0.103012	0.182802	-0.137894	
1.36261	0	0	1.70622	-0.013763	0.090542	0.398763	-0.085049	-0.129614	-0.045609	0.236365	-0.035486	-0.237763	0.034616	0.171537	-0.012199	0.050813	-0.112209	0.063864	-0.024683	0.019435	-0.045105	0.002689	0.020826	-0.224381	-0.119743	-0.130557	-0.148893	-0.431916	0.353959	-0.550623	-0.014431	-0.095249	0.185109	-0.131926	
1.36108	0	0	1.98118	-0.790825	0.0892118	0.402523	-0.085049	-0.129614	-0.045609	0.236365	-0.0389167	-0.237433	0.034616	0.171537	-0.008598	0.0542562	-0.118396	0.067907	-0.0191685	0.0158318	-0.045105	0.002689	0.015063	-0.220615	-0.119743	-0.130557	-0.152198	-0.433847	0.349682	-0.553465	-0.0215362	-0.0906062	0.178204	-0.137379	
1.36261	0	0	2.25613	-1.56789	0.0878815	0.406282	-0.085049	-0.129614	-0.045609	0.236365	-0.0423475	-0.237103	0.034616	0.171537	-0.004997	0.0576995	-0.124583	0.07195	-0.013654	0.0122285	-0.045105	0.002689	0.0093	-0.21685	-0.119743	-0.130557	-0.155503	-0.435778	0.345405	-0.556307	-0.0286415	-0.0859635	0.171299	-0.142832	
1.36413	0	0	2.53109	-2.34495	0.0865512	0.410041	-0.085049	-0.129614	-0.045609	0.236365	-0.0457782	-0.236774	0.034616	0.171537	-0.001396	0.0611428	-0.130771	0.075993	-0.0081395	0.00862525	-0.045105	0.002689	0.003537	-0.213084	-0.119743	-0.130557	-0.158808	-0.437709	0.341127	-0.559149	-0.0357468	-0.0813207	0.164395	-0.148285	
1.36108	0	0	2.80604	-3.12201	0.085221	0.413801	-0.085049	-0.129614	-0.045609	0.236365	-0.049209	-0.236444	0.034616	0.171537	0.002205	0.064586	-0.136958	0.080036	-0.002625	0.005022	-0.045105	0.002689	-0.002226	-0.209318	-0.119743	-0.130557	-0.162113	-0.43964	0.33685	-0.561991	-0.042852	-0.076678	0.15749	-0.153738	
1.35956	0	0	2.53109	-2.34495	0.0922555	0.420778	-0.0801108	-0.121976	-0.0480827	0.2548	-0.0441068	-0.232126	0.036761	0.179391	0.0071435	0.0642593	-0.133491	0.0836817	-0.0003695	0.0106373	-0.045105	0.002689	-0.000526	-0.201601	-0.123278	-0.120568	-0.166357	-0.438912	0.327389	-0.550172	-0.044226	-0.0727945	0.15175	-0.149987	
1.36108	0	0	2.25613	-1.56789	0.09929	0.427754	-0.0751725	-0.114337	-0.0505565	0.273236	-0.0390045	-0.227808	0.038906	0.187244	0.012082	0.0639325	-0.130024	0.0873275	0.001886	0.0162525	-0.045105	0.002689	0.001174	-0.193884	-0.126812	-0.110578	-0.1706	-0.438183	0.317929	-0.538354	-0.0456	-0.068911	0.14601	-0.146237	
1.36108	0	0	1.98118	-0.790825	0.106325	0.434731	-0.0702342	-0.106699	-0.0530303	0.291672	-0.0339023	-0.22349	0.041051	0.195098	0.0170205	0.0636058	-0.126558	0.0909732	0.0041415	0.0218677	-0.045105	0.002689	0.002874	-0.186167	-0.130347	-0.100588	-0.174843	-0.437454	0.308468	-0.526536	-0.046974	-0.0650275	0.14027	-0.142487	
1.36108	0	0	1.70622	-0.013763	0.113359	0.441708	-0.065296	-0.09906	-0.055504	0.310107	-0.0288	-0.219172	0.043196	0.202952	0.021959	0.063279	-0.123091	0.094619	0.006397	0.027483	-0.045105	0.002689	0.004574	-0.17845	-0.133882	-0.090599	-0.179087	-0.436726	0.299007	-0.514717	-0.048348	-0.061144	0.13453	-0.138736	
1.36261	0	0	1.70622	-0.013763	0.109841	0.438218	-0.0692663	-0.0986402	-0.0585577	0.307293	-0.0339943	-0.213864	0.0353702	0.211153	0.0156857	0.067378	-0.123091	0.094619	0.0053085	0.0305588	-0.0463133	0.0061035	0.00627275	-0.170721	-0.137421	-0.0805982	-0.179552	-0.424147	0.299378	-0.500847	-0.0467458	-0.050235	0.135684	-0.129525	
1.36108	0	0	1.70622	-0.013763	0.106323	0.434728	-0.0732365	-0.0982205	-0.0616115	0.304478	-0.0391885	-0.208556	0.0275445	0.219355	0.0094125	0.071477	-0.123091	0.094619	0.00422	0.0336345	-0.0475215	0.009518	0.0079715	-0.162992	-0.140959	-0.0705975	-0.180017	-0.411569	0.299749	-0.486976	-0.0451435	-0.039326	0.136837	-0.120313	
1.36413	0	0	1.70622	-0.013763	0.102804	0.431238	-0.0772068	-0.0978007	-0.0646653	0.301663	-0.0443827	-0.203247	0.0197188	0.227556	0.00313925	0.075576	-0.123091	0.094619	0.0031315	0.0367102	-0.0487298	0.0129325	0.00967025	-0.155263	-0.144498	-0.0605968	-0.180482	-0.39899	0.30012	-0.473106	-0.0435412	-0.028417	0.13799	-0.111102	
1.36108	0	0	1.70622	-0.013763	0.099286	0.427748	-0.081177	-0.097381	-0.067719	0.298849	-0.049577	-0.197939	0.011893	0.235757	-0.003134	0.079675	-0.123091	0.094619	0.002043	0.039786	-0.049938	0.016347	0.011369	-0.147534	-0.148036	-0.050596	-0.180947	-0.386411	0.300491	-0.459236	-0.041939	-0.017508	0.139144	-0.101891	
1.35956	0	0	1.70622	-0.013763	0.100617	0.423985	-0.0821777	-0.0945525	-0.0740895	0.305416	-0.0504583	-0.195448	0.011893	0.235757	-0.003134	0.079675	-0.124452	0.098466	0.002043	0.039786	-0.0545832	0.0167573	0.009333	-0.14178	-0.148036	-0.050596	-0.186132	-0.383023	0.293625	-0.454749	-0.0490442	-0.0128652	0.139144	-0.101891	
1.35803	0	0	1.70622	-0.013763	0.101948	0.420222	-0.0831785	-0.091724	-0.08046	0.311983	-0.0513395	-0.192958	0.011893	0.235757	-0.003134	0.079675	-0.125814	0.102313	0.002043	0.039786	-0.0592285	0.0171675	0.007297	-0.136025	-0.148036	-0.050596	-0.191316	-0.379636	0.286759	-0.450263	-0.0561495	-0.0082225	0.139144	-0.101891	
1.36108	0	0	1.70622	-0.013763	0.10328	0.41646	-0.0841793	-0.0888955	-0.0868305	0.318551	-0.0522208	-0.190467	0.011893	0.235757	-0.003134	0.079675	-0.127175	0.10616	0.002043	0.039786	-0.0638737	0.0175777	0.005261	-0.130271	-0.148036	-0.050596	-0.1965	-0.376248	0.279892	-0.445776	-0.0632547	-0.00357975	0.139144	-0.101891	
1.36108	0	0	1.70622	-0.013763	0.104611	0.412697	-0.08518	-0.086067	-0.093201	0.325118	-0.053102	-0.187976	0.011893	0.235757	-0.003134	0.079675	-0.128536	0.110007	0.002043	0.039786	-0.068519	0.017988	0.003225	-0.124517	-0.148036	-0.050596	-0.201685	-0.37286	0.273026	-0.441289	-0.07036	0.001063	0.139144	-0.101891	
1.35956	0	0	1.70622	-0.013763	0.0979485	0.431526	-0.0842153	-0.0779927	-0.0882088	0.33389	-0.0445663	-0.183971	0.0140303	0.243632	-0.003134	0.079675	-0.123706	0.10981	0.006476	0.039255	-0.0638737	0.0175777	0.00491975	-0.116768	-0.143036	-0.046166	-0.1965	-0.376248	0.270424	-0.433936	-0.073115	0.008849	0.139144	-0.101891	
1.36261	0	0	1.70622	-0.013763	0.091286	0.450355	-0.0832505	-0.0699185	-0.0832165	0.342663	-0.0360305	-0.179966	0.0161675	0.251507	-0.003134	0.079675	-0.118876	0.109613	0.010909	0.038724	-0.0592285	0.0171675	0.0066145	-0.109019	-0.138036	-0.041736	-0.191316	-0.379636	0.267822	-0.426582	-0.07587	0.016635	0.139144	-0.101891	
1.35956	0	0	1.70622	-0.013763	0.0846235	0.469184	-0.0822858	-0.0618443	-0.0782243	0.351436	-0.0274947	-0.175961	0.0183047	0.259383	-0.003134	0.079675	-0.114046	0.109415	0.015342	0.038193	-0.0545832	0.0167573	0.00830925	-0.10127	-0.133036	-0.037306	-0.186132	-0.383023	0.26522	-0.419229	-0.078625	0.024421	0.139144	-0.101891	
1.36108	0	0	1.70622	-0.013763	0.077961	0.488013	-0.081321	-0.05377	-0.073232	0.360208	-0.018959	-0.171956	0.020442	0.267258	-0.003134	0.079675	-0.109216	0.109218	0.019775	0.037662	-0.049938	0.016347	0.010004	-0.093521	-0.128036	-0.032876	-0.180947	-0.386411	0.262618	-0.411876	-0.08138	0.032207	0.139144	-0.101891	
1.35803	0	0	1.70622	-0.013763	0.0806277	0.480477	-0.0842883	-0.056185	-0.0815465	0.360824	-0.022394	-0.171629	0.0154605	0.267421	-0.00179925	0.0759027	-0.114046	0.109415	0.0142533	0.04127	-0.0511465	0.0197627	0.00694325	-0.0848715	-0.138352	-0.022284	-0.183776	-0.378417	0.258711	-0.400835	-0.085517	0.043899	0.139145	-0.0894155	
1.35956	0	0	1.70622	-0.013763	0.0832945	0.47294	-0.0872555	-0.0586	-0.089861	0.361441	-0.025829	-0.171302	0.010479	0.267584	-0.0004645	0.0721305	-0.118876	0.109613	0.0087315	0.044878	-0.052355	0.0231785	0.0038825	-0.076222	-0.148667	-0.011692	-0.186605	-0.370423	0.254804	-0.389794	-0.089654	0.055591	0.139147	-0.07694	
1.35803	0	0	1.70622	-0.013763	0.0859613	0.465404	-0.0902227	-0.061015	-0.0981755	0.362057	-0.029264	-0.170975	0.0054975	0.267747	0.00087025	0.0683583	-0.123706	0.10981	0.00320975	0.048486	-0.0535635	0.0265942	0.00082175	-0.0675725	-0.158982	-0.0011	-0.189433	-0.362429	0.250898	-0.378752	-0.093791	0.067283	0.139149	-0.0644645	
1.36261	0	0	1.70622	-0.013763	0.088628	0.457868	-0.09319	-0.06343	-0.10649	0.362674	-0.032699	-0.170648	0.000516	0.26791	0.002205	0.064586	-0.128536	0.110007	-0.002312	0.052094	-0.054772	0.03001	-0.002239	-0.058923	-0.169298	0.009492	-0.192262	-0.354435	0.246991	-0.367711	-0.097928	0.078975	0.13915	-0.051989	
1.35956	0	0	1.70622	-0.013763	0.0899605	0.454102	-0.09319	-0.06343	-0.10649	0.362674	-0.0300527	-0.178126	0.0019385	0.26389	0.002205	0.064586	-0.128536	0.110007	-0.003401	0.0551718	-0.054772	0.03001	-0.00698925	-0.0580365	-0.176059	0.0100583	-0.194618	-0.359041	0.24013	-0.363228	-0.0951692	0.0711787	0.132261	-0.0574708	
1.35956	0	0	1.70622	-0.013763	0.091293	0.450336	-0.09319	-0.06343	-0.10649	0.362674	-0.0274065	-0.185605	0.003361	0.25987	0.002205	0.064586	-0.128536	0.110007	-0.00449	0.0582495	-0.054772	0.03001	-0.0117395	-0.05715	-0.18282	0.0106245	-0.196973	-0.363648	0.233269	-0.358745	-0.0924105	0.0633825	0.125372	-0.0629525	
1.35956	0	0	1.70622	-0.013763	0.0926255	0.44657	-0.09319	-0.06343	-0.10649	0.362674	-0.0247603	-0.193083	0.0047835	0.25585	0.002205	0.064586	-0.128536	0.110007	-0.005579	0.0613272	-0.054772	0.03001	-0.0164897	-0.0562635	-0.189582	0.0111907	-0.199329	-0.368254	0.226409	-0.354262	-0.0896518	0.0555863	0.118483	-0.0684343	
1.35651	0	0	1.70622	-0.013763	0.093958	0.442804	-0.09319	-0.06343	-0.10649	0.362674	-0.022114	-0.200562	0.006206	0.25183	0.002205	0.064586	-0.128536	0.110007	-0.006668	0.064405	-0.054772	0.03001	-0.02124	-0.055377	-0.196343	0.011757	-0.201685	-0.37286	0.219548	-0.349779	-0.086893	0.04779	0.111594	-0.073916	
1.36108	0	0	1.70622	-0.013763	0.0886248	0.457877	-0.0951937	-0.057767	-0.110925	0.375208	-0.0247603	-0.193083	0.009765	0.255687	0.00087025	0.0683583	-0.129898	0.113855	-0.00223575	0.063876	-0.0559813	0.0334272	-0.0185315	-0.0504925	-0.198116	0.016767	-0.200743	-0.375523	0.216941	-0.342411	-0.096751	0.060225	0.111594	-0.073916	
1.35956	0	0	1.70622	-0.013763	0.0832915	0.472949	-0.0971975	-0.052104	-0.11536	0.387742	-0.0274065	-0.185605	0.013324	0.259544	-0.0004645	0.0721305	-0.13126	0.117704	0.0021965	0.063347	-0.0571905	0.0368445	-0.015823	-0.045608	-0.199888	0.021777	-0.1998	-0.378186	0.214334	-0.335042	-0.106609	0.07266	0.111594	-0.073916	
1.35803	0	0	1.70622	-0.013763	0.0779582	0.488022	-0.0992013	-0.046441	-0.119795	0.400277	-0.0300527	-0.178126	0.016883	0.263401	-0.00179925	0.0759027	-0.132621	0.121553	0.00662875	0.062818	-0.0583998	0.0402617	-0.0131145	-0.0407235	-0.201661	0.026787	-0.198858	-0.380849	0.211726	-0.327674	-0.116467	0.085095	0.111594	-0.073916	
1.36108	0	0	1.70622	-0.013763	0.072625	0.503095	-0.101205	-0.040778	-0.12423	0.412811	-0.032699	-0.170648	0.020442	0.267258	-0.003134	0.079675	-0.133983	0.125401	0.011061	0.062289	-0.059609	0.043679	-0.010406	-0.035839	-0.203434	0.031797	-0.197916	-0.383512	0.209119	-0.320305	-0.126325	0.09753	0.111594	-0.073916	
1.36261	0	0	1.98118	-0.790825	0.0629405	0.503627	-0.108133	-0.0427805	-0.131421	0.410281	-0.0351565	-0.18245	0.0183047	0.259383	-0.00179925	0.0759027	-0.1299	0.11386	0.00997125	0.065369	-0.0583998	0.0402617	-0.0151558	-0.0349543	-0.210187	0.0323577	-0.206392	-0.382067	0.202264	-0.315826	-0.126325	0.09753	0.103562	-0.0636777	
1.35956	0	0	2.25613	-1.56789	0.053256	0.504158	-0.115062	-0.044783	-0.138613	0.407752	-0.037614	-0.194252	0.0161675	0.251507	-0.0004645	0.0721305	-0.125816	0.10232	0.0088815	0.068449	-0.0571905	0.0368445	-0.0199055	-0.0340695	-0.21694	0.0329185	-0.214867	-0.380622	0.195408	-0.311346	-0.126325	0.09753	0.095529	-0.0534395	
1.35956	0	0	2.53109	-2.34495	0.0435715	0.50469	-0.12199	-0.0467855	-0.145805	0.405223	-0.0400715	-0.206054	0.0140303	0.243632	0.00087025	0.0683583	-0.121732	0.0907788	0.00779175	0.071529	-0.0559813	0.0334272	-0.0246553	-0.0331847	-0.223692	0.0334793	-0.223343	-0.379176	0.188553	-0.306867	-0.126325	0.09753	0.0874965	-0.0432012	
1.36108	0	0	2.80604	-3.12201	0.033887	0.505222	-0.128918	-0.048788	-0.152996	0.402693	-0.042529	-0.217856	0.011893	0.235757	0.002205	0.064586	-0.117649	0.079238	0.006702	0.074609	-0.054772	0.03001	-0.029405	-0.0323	-0.230445	0.03404	-0.231819	-0.377731	0.181698	-0.302388	-0.126325	0.09753	0.079464	-0.032963	
1.36261	0	0	2.53109	-2.34495	0.0427263	0.493655	-0.125916	-0.057273	-0.14663	0.396126	-0.045869	-0.227145	0.0133142	0.23174	0.00487275	0.0570465	-0.122476	0.0794375	0.006702	0.074609	-0.059417	0.030419	-0.0321102	-0.037184	-0.243928	0.035153	-0.24075	-0.386201	0.170611	-0.300808	-0.133614	0.0873185	0.0829083	-0.0426965	
1.35803	0	0	2.25613	-1.56789	0.0515655	0.482088	-0.122913	-0.065758	-0.140265	0.389559	-0.049209	-0.236434	0.0147355	0.227724	0.0075405	0.049507	-0.127304	0.079637	0.006702	0.074609	-0.064062	0.030828	-0.0348155	-0.042068	-0.257411	0.036266	-0.249682	-0.39467	0.159525	-0.299229	-0.140903	0.077107	0.0863525	-0.05243	
1.36108	0	0	1.98118	-0.790825	0.0604048	0.47052	-0.119911	-0.074243	-0.133899	0.382991	-0.052549	-0.245724	0.0161568	0.223708	0.0102083	0.0419675	-0.132131	0.0798365	0.006702	0.074609	-0.068707	0.031237	-0.0375207	-0.046952	-0.270894	0.037379	-0.258613	-0.40314	0.148438	-0.29765	-0.148192	0.0668955	0.0897968	-0.0621635	
1.35651	0	0	1.70622	-0.013763	0.069244	0.458953	-0.116908	-0.082728	-0.127533	0.376424	-0.055889	-0.255013	0.017578	0.219691	0.012876	0.034428	-0.136958	0.080036	0.006702	0.074609	-0.073352	0.031646	-0.040226	-0.051836	-0.284377	0.038492	-0.267545	-0.41161	0.137351	-0.29607	-0.155481	0.056684	0.093241	-0.071897	
1.35956	0	0	1.98118	-0.790825	0.0604048	0.47052	-0.12187	-0.0794855	-0.132791	0.37986	-0.0567685	-0.252528	0.0161568	0.223708	0.0115423	0.038197	-0.135599	0.076194	0.00779175	0.071529	-0.0792015	0.0354682	-0.040226	-0.051836	-0.284377	0.038492	-0.268954	-0.418851	0.129209	-0.287918	-0.154105	0.0527935	0.088656	-0.0713938	
1.35956	0	0	2.25613	-1.56789	0.0515655	0.482088	-0.126833	-0.076243	-0.138049	0.383295	-0.057648	-0.250043	0.0147355	0.227724	0.0102085	0.041966	-0.134239	0.072352	0.0088815	0.068449	-0.085051	0.0392905	-0.040226	-0.051836	-0.284377	0.038492	-0.270363	-0.426091	0.121066	-0.279766	-0.152728	0.048903	0.084071	-0.0708905	
1.35498	0	0	2.53109	-2.34495	0.0427263	0.493655	-0.131795	-0.0730005	-0.143306	0.38673	-0.0585275	-0.247557	0.0133142	0.23174	0.00887475	0.045735	-0.132879	0.06851	0.00997125	0.065369	-0.0909005	0.0431127	-0.040226	-0.051836	-0.284377	0.038492	-0.271773	-0.433331	0.112924	-0.271614	-0.151351	0.0450125	0.079486	-0.0703872	
1.35651	0	0	2.80604	-3.12201	0.033887	0.505222	-0.136758	-0.069758	-0.148564	0.390166	-0.059407	-0.245072	0.011893	0.235757	0.007541	0.049504	-0.13152	0.064668	0.011061	0.062289	-0.09675	0.046935	-0.040226	-0.051836	-0.284377	0.038492	-0.273182	-0.440572	0.104782	-0.263462	-0.149975	0.041122	0.074901	-0.069884	
1.36108	0	0	2.53109	-2.34495	0.0330462	0.494193	-0.13672	-0.0806415	-0.155747	0.387641	-0.0618677	-0.256827	0.0111743	0.223884	0.003939	0.0460638	-0.133628	0.057192	0.0032885	0.060269	-0.0955418	0.0435205	-0.0466522	-0.0587092	-0.287571	0.0290495	-0.283034	-0.446358	0.0950292	-0.265581	-0.167076	0.0433313	0.0703195	-0.069382	
1.35956	0	0	2.25613	-1.56789	0.0322055	0.483164	-0.136682	-0.091525	-0.16293	0.385116	-0.0643285	-0.268583	0.0104555	0.21201	0.000337	0.0426235	-0.135736	0.049716	-0.004484	0.058249	-0.0943335	0.040106	-0.0530785	-0.0655825	-0.290765	0.019607	-0.292886	-0.452145	0.0852765	-0.267701	-0.184178	0.0455405	0.065738	-0.06888	
1.35803	0	0	1.98118	-0.790825	0.0313647	0.472136	-0.136643	-0.102408	-0.170113	0.382592	-0.0667893	-0.280338	0.00973675	0.200137	-0.003265	0.0391832	-0.137844	0.04224	-0.0122565	0.056229	-0.0931252	0.0366915	-0.0595048	-0.0724557	-0.293959	0.0101645	-0.302739	-0.457931	0.0755238	-0.26982	-0.20128	0.0477498	0.0611565	-0.068378	
1.35956	0	0	1.70622	-0.013763	0.030524	0.461107	-0.136605	-0.113292	-0.177296	0.380067	-0.06925	-0.292093	0.009018	0.188264	-0.006867	0.035743	-0.139952	0.034764	-0.020029	0.054209	-0.091917	0.033277	-0.065931	-0.079329	-0.297153	0.000722	-0.312591	-0.463717	0.065771	-0.271939	-0.218381	0.049959	0.056575	-0.067876	
1.35956	0	0	1.98118	-0.790825	0.0318548	0.457346	-0.135607	-0.116114	-0.170938	0.373508	-0.0709203	-0.296721	0.0104365	0.184255	-0.0117985	0.0360702	-0.138595	0.0309288	-0.0178528	0.0480585	-0.0953475	0.0302715	-0.0676155	-0.087073	-0.302112	-0.00371325	-0.322426	-0.469493	0.0518233	-0.276955	-0.217209	0.031298	0.0497127	-0.0733498	
1.36108	0	0	2.25613	-1.56789	0.0331855	0.453585	-0.134608	-0.118936	-0.164581	0.366949	-0.0725905	-0.301349	0.011855	0.180246	-0.01673	0.0363975	-0.137238	0.0270935	-0.0156765	0.041908	-0.098778	0.027266	-0.0693	-0.094817	-0.307071	-0.0081485	-0.33226	-0.47527	0.0378755	-0.281971	-0.216037	0.012637	0.0428505	-0.0788235	
1.35803	0	0	2.53109	-2.34495	0.0345162	0.449824	-0.133609	-0.121758	-0.158223	0.360391	-0.0742608	-0.305976	0.0132735	0.176236	-0.0216615	0.0367248	-0.135881	0.0232583	-0.0135003	0.0357575	-0.102208	0.0242605	-0.0709845	-0.102561	-0.31203	-0.0125837	-0.342094	-0.481046	0.0239277	-0.286988	-0.214865	-0.006024	0.0359882	-0.0842973	
1.35651	0	0	2.80604	-3.12201	0.035847	0.446063	-0.132611	-0.12458	-0.151865	0.353832	-0.075931	-0.310604	0.014692	0.172227	-0.026593	0.037052	-0.134524	0.019423	-0.011324	0.029607	-0.105639	0.021255	-0.072669	-0.110305	-0.316989	-0.017019	-0.351929	-0.486822	0.00998	-0.292004	-0.213693	-0.024685	0.029126	-0.089771	
1.35956	0	0	2.53109	-2.34495	0.029682	0.450091	-0.136569	-0.124162	-0.157116	0.357263	-0.076808	-0.308125	0.008297	0.176405	-0.026593	0.037052	-0.139346	0.0196262	-0.0168387	0.0332102	-0.101001	0.0208472	-0.0774035	-0.109421	-0.318755	-0.0120285	-0.350994	-0.489464	0.0002685	-0.294122	-0.212322	-0.0285585	0.031415	-0.09624	
1.35498	0	0	2.25613	-1.56789	0.023517	0.45412	-0.140527	-0.123745	-0.162367	0.360695	-0.077685	-0.305646	0.001902	0.180584	-0.026593	0.037052	-0.144168	0.0198295	-0.0223535	0.0368135	-0.0963625	0.0204395	-0.082138	-0.108537	-0.32052	-0.007038	-0.350059	-0.492107	-0.009443	-0.296241	-0.210952	-0.032432	0.033704	-0.102709	
1.36108	0	0	1.98118	-0.790825	0.017352	0.458148	-0.144486	-0.123328	-0.167619	0.364126	-0.078562	-0.303167	-0.004493	0.184762	-0.026593	0.037052	-0.148989	0.0200328	-0.0278683	0.0404168	-0.0917242	0.0200318	-0.0868725	-0.107653	-0.322286	-0.0020475	-0.349124	-0.49475	-0.0191545	-0.298359	-0.209581	-0.0363055	0.035993	-0.109178	
1.36108	0	0	1.70622	-0.013763	0.011187	0.462176	-0.148444	-0.12291	-0.17287	0.367557	-0.079439	-0.300688	-0.010888	0.188941	-0.026593	0.037052	-0.153811	0.020236	-0.033383	0.04402	-0.087086	0.019624	-0.091607	-0.106769	-0.324052	0.002943	-0.348189	-0.497392	-0.028866	-0.300477	-0.20821	-0.040179	0.038282	-0.115647	
1.36108	0	0	1.70622	-0.013763	0.0090155	0.454928	-0.150405	-0.128132	-0.1748	0.36161	-0.083654	-0.307458	-0.00805275	0.180928	-0.026593	0.037052	-0.155919	0.012779	-0.031208	0.0378737	-0.0905175	0.0166213	-0.095989	-0.119351	-0.327241	-0.006477	-0.349596	-0.504593	-0.0359695	-0.309919	-0.218213	-0.0425693	0.0302825	-0.117873	
1.35803	0	0	1.70622	-0.013763	0.006844	0.44768	-0.152366	-0.133353	-0.176731	0.355664	-0.087869	-0.314227	-0.0052175	0.172915	-0.026593	0.037052	-0.158027	0.005322	-0.029033	0.0317275	-0.093949	0.0136185	-0.100371	-0.131934	-0.33043	-0.015897	-0.351002	-0.511795	-0.043073	-0.319361	-0.228216	-0.0449595	0.022283	-0.120099	
1.35956	0	0	1.70622	-0.013763	0.0046725	0.440432	-0.154327	-0.138575	-0.178661	0.349717	-0.092084	-0.320997	-0.00238225	0.164902	-0.026593	0.037052	-0.160135	-0.002135	-0.026858	0.0255812	-0.0973805	0.0106158	-0.104753	-0.144516	-0.333619	-0.025317	-0.352409	-0.518996	-0.0501765	-0.328804	-0.238218	-0.0473497	0.0142835	-0.122326	
1.35498	0	0	1.70622	-0.013763	0.002501	0.433184	-0.156288	-0.143796	-0.180591	0.34377	-0.096299	-0.327767	0.000453	0.156889	-0.026593	0.037052	-0.162243	-0.009592	-0.024683	0.019435	-0.100812	0.007613	-0.109135	-0.157099	-0.336808	-0.034737	-0.353815	-0.526197	-0.05728	-0.338246	-0.248221	-0.04974	0.006284	-0.124552	
1.35651	0	0	1.98118	-0.790825	0.0134975	0.428887	-0.158283	-0.138158	-0.177555	0.346591	-0.0945472	-0.332717	0.00186975	0.152885	-0.0229945	0.0404923	-0.162243	-0.009592	-0.024683	0.019435	-0.0996057	0.00420375	-0.11082	-0.164809	-0.335045	-0.0397192	-0.355223	-0.533388	-0.0588887	-0.348441	-0.249798	-0.060593	-0.001704	-0.126778	
1.35651	0	0	2.25613	-1.56789	0.024494	0.424589	-0.160278	-0.13252	-0.174518	0.349411	-0.0927955	-0.337668	0.0032865	0.148881	-0.019396	0.0439325	-0.162243	-0.009592	-0.024683	0.019435	-0.0983995	0.0007945	-0.112505	-0.172519	-0.333282	-0.0447015	-0.356631	-0.540579	-0.0604975	-0.358636	-0.251375	-0.071446	-0.009692	-0.129003	
1.35498	0	0	2.53109	-2.34495	0.0354905	0.420291	-0.162272	-0.126882	-0.171482	0.352231	-0.0910437	-0.342618	0.00470325	0.144878	-0.0157975	0.0473727	-0.162243	-0.009592	-0.024683	0.019435	-0.0971933	-0.00261475	-0.114189	-0.180229	-0.331519	-0.0496837	-0.358039	-0.54777	-0.0621062	-0.368831	-0.252953	-0.082299	-0.01768	-0.131229	
1.35803	0	0	2.80604	-3.12201	0.046487	0.415994	-0.164267	-0.121244	-0.168445	0.355052	-0.089292	-0.347569	0.00612	0.140874	-0.012199	0.050813	-0.162243	-0.009592	-0.024683	0.019435	-0.095987	-0.006024	-0.115874	-0.187939	-0.329756	-0.054666	-0.359447	-0.554961	-0.063715	-0.379026	-0.25453	-0.093152	-0.025668	-0.133455	
1.35193	0	0	2.80604	-3.12201	0.041651	0.416266	-0.161275	-0.129699	-0.177832	0.358783	-0.0953395	-0.339812	0.00470325	0.144878	-0.008598	0.0542562	-0.163598	-0.00576325	-0.0202557	0.0189043	-0.0971933	-0.00261475	-0.115874	-0.187939	-0.329756	-0.054666	-0.356172	-0.553047	-0.065008	-0.375371	-0.25453	-0.093152	-0.0199625	-0.137183	
1.35345	0	0	2.80604	-3.12201	0.036815	0.416538	-0.158283	-0.138155	-0.187219	0.362513	-0.101387	-0.332054	0.0032865	0.148881	-0.004997	0.0576995	-0.164953	-0.0019345	-0.0158285	0.0183735	-0.0983995	0.0007945	-0.115874	-0.187939	-0.329756	-0.054666	-0.352897	-0.551133	-0.066301	-0.371717	-0.25453	-0.093152	-0.014257	-0.140911	
1.35651	0	0	2.80604	-3.12201	0.031979	0.41681	-0.155292	-0.146611	-0.196605	0.366244	-0.107435	-0.324296	0.00186975	0.152885	-0.001396	0.0611428	-0.166307	0.00189425	-0.0114013	0.0178428	-0.0996057	0.00420375	-0.115874	-0.187939	-0.329756	-0.054666	-0.349622	-0.549218	-0.067594	-0.368062	-0.25453	-0.093152	-0.0085515	-0.144639	
1.35803	0	0	2.80604	-3.12201	0.027143	0.417082	-0.1523	-0.155066	-0.205992	0.369975	-0.113482	-0.316539	0.000453	0.156889	0.002205	0.064586	-0.167662	0.005723	-0.006974	0.017312	-0.100812	0.007613	-0.115874	-0.187939	-0.329756	-0.054666	-0.346347	-0.547304	-0.068887	-0.364407	-0.25453	-0.093152	-0.002846	-0.148367	
1.35956	0	0	0.339899	-1.51058	0.023639	0.4136	-0.155258	-0.157464	-0.202677	0.360606	-0.115149	-0.321158	-0.00310425	0.153058	0.00087025	0.0683583	-0.160133	-0.00214	-0.0080615	0.0203858	-0.0983997	0.00079575	-0.119585	-0.189916	-0.334708	-0.0590842	-0.343549	-0.555213	-0.0663013	-0.371715	-0.25884	-0.09627	-0.00398825	-0.157535	
1.35498	0	0	-2.12624	0.100846	0.020135	0.410117	-0.158216	-0.159861	-0.199362	0.351236	-0.116816	-0.325777	-0.0066615	0.149228	-0.0004645	0.0721305	-0.152605	-0.010003	-0.009149	0.0234595	-0.0959875	-0.0060215	-0.123295	-0.191892	-0.339661	-0.0635025	-0.34075	-0.563122	-0.0637155	-0.379023	-0.26315	-0.099388	-0.0051305	-0.166704	
1.35345	0	0	-4.59238	1.71227	0.016631	0.406635	-0.161173	-0.162259	-0.196046	0.341866	-0.118482	-0.330396	-0.0102188	0.145398	-0.00179925	0.0759027	-0.145076	-0.017866	-0.0102365	0.0265333	-0.0935752	-0.0128388	-0.127005	-0.193869	-0.344613	-0.0679208	-0.337951	-0.571031	-0.0611297	-0.386331	-0.26746	-0.102506	-0.00627275	-0.175872	
1.35345	0	0	-7.05852	3.3237	0.013127	0.403152	-0.164131	-0.164657	-0.192731	0.332497	-0.120149	-0.335015	-0.013776	0.141567	-0.003134	0.079675	-0.137547	-0.025729	-0.011324	0.029607	-0.091163	-0.019656	-0.130716	-0.195846	-0.349565	-0.072339	-0.335153	-0.57894	-0.058544	-0.393639	-0.27177	-0.105624	-0.007415	-0.18504	
1.3504	0	0	-4.59238	1.71227	0.016631	0.406635	-0.161173	-0.162259	-0.194941	0.338742	-0.116731	-0.335346	-0.015192	0.145569	0.001804	0.0793497	-0.138902	-0.0219	-0.00798225	0.0321517	-0.0957993	-0.0192457	-0.120253	-0.200483	-0.349565	-0.072339	-0.339362	-0.578215	-0.053052	-0.394419	-0.264729	-0.110225	-0.0131167	-0.181314	
1.35803	0	0	-2.12624	0.100846	0.020135	0.410117	-0.158216	-0.159861	-0.197151	0.344988	-0.113313	-0.335678	-0.016608	0.149571	0.006742	0.0790245	-0.140257	-0.018071	-0.0046405	0.0346965	-0.100435	-0.0188355	-0.109789	-0.20512	-0.349565	-0.072339	-0.343571	-0.577491	-0.04756	-0.395199	-0.257688	-0.114825	-0.0188185	-0.177589	
1.35803	0	0	0.339899	-1.51058	0.023639	0.4136	-0.155258	-0.157464	-0.19936	0.351233	-0.109894	-0.33601	-0.018024	0.153573	0.01168	0.0786992	-0.141611	-0.014242	-0.00129875	0.0372413	-0.105072	-0.0184253	-0.0993263	-0.209756	-0.349565	-0.072339	-0.347779	-0.576767	-0.042068	-0.395979	-0.250647	-0.119426	-0.0245203	-0.173863	
1.35651	0	0	2.80604	-3.12201	0.027143	0.417082	-0.1523	-0.155066	-0.20157	0.357478	-0.106476	-0.336341	-0.01944	0.157575	0.016618	0.078374	-0.142966	-0.010413	0.002043	0.039786	-0.109708	-0.018015	-0.088863	-0.214393	-0.349565	-0.072339	-0.351988	-0.576042	-0.036576	-0.396759	-0.243606	-0.124027	-0.030222	-0.170137	
