4.25262	0	0	0.019769	0.082717	-0.112229	0.062988	0.016461	0.007552	-0.025074	0.048364	0.019033	0.268333	0.059793	0.091753	-0.004634	0.194269	-0.068038	0.028888	0.085265	0.260039	0.056135	0.18701	0.095003	0.190678	-0.020519	0.211671	-0.05978	0.006284	0.023137	0.0811	-0.006393	0.030911	-0.141606	-0.161663	
4.24652	0	0	0.019769	0.082717	-0.112229	0.062988	0.0131725	0.00783225	-0.0224912	0.0410647	0.0184915	0.260797	0.0564822	0.0855687	-0.0038315	0.178861	-0.0711538	0.0291947	0.077355	0.260923	0.0512655	0.186919	0.0912007	0.187961	-0.0267847	0.211074	-0.0615335	0.01124	0.00713425	0.095154	-0.009981	0.0282107	-0.135163	-0.165873	
4.24652	0	0	0.019769	0.082717	-0.112229	0.062988	0.009884	0.0081125	-0.0199085	0.0337655	0.01795	0.253262	0.0531715	0.0793845	-0.003029	0.163453	-0.0742695	0.0295015	0.069445	0.261807	0.046396	0.186827	0.0873985	0.185244	-0.0330505	0.210477	-0.063287	0.016196	-0.0088685	0.109208	-0.013569	0.0255105	-0.12872	-0.170083	
4.24347	0	0	0.019769	0.082717	-0.112229	0.062988	0.0065955	0.00839275	-0.0173258	0.0264663	0.0174085	0.245726	0.0498608	0.0732003	-0.0022265	0.148045	-0.0773853	0.0298083	0.061535	0.262691	0.0415265	0.186735	0.0835963	0.182528	-0.0393162	0.20988	-0.0650405	0.021152	-0.0248713	0.123262	-0.017157	0.0228103	-0.122276	-0.174293	
4.24042	0	0	0.019769	0.082717	-0.112229	0.062988	0.003307	0.008673	-0.014743	0.019167	0.016867	0.23819	0.04655	0.067016	-0.001424	0.132637	-0.080501	0.030115	0.053625	0.263575	0.036657	0.186644	0.079794	0.179811	-0.045582	0.209283	-0.066794	0.026108	-0.040874	0.137316	-0.020745	0.02011	-0.115833	-0.178503	
4.23279	0	0	0.0220962	0.0905953	-0.11059	0.0710495	0.00487475	0.0132555	-0.0186177	0.0301182	0.0136037	0.238351	0.04655	0.067016	-0.006099	0.132719	-0.073539	0.0359475	0.0526285	0.255665	0.0332967	0.182298	0.0821863	0.17305	-0.0434242	0.203185	-0.067903	0.0192145	-0.043074	0.127967	-0.024331	0.0174123	-0.117812	-0.18691	
4.23889	0	0	0.0244235	0.0984735	-0.108952	0.079111	0.0064425	0.017838	-0.0224925	0.0410695	0.0103405	0.238513	0.04655	0.067016	-0.010774	0.132801	-0.066577	0.04178	0.051632	0.247756	0.0299365	0.177951	0.0845785	0.16629	-0.0412665	0.197087	-0.069012	0.012321	-0.045274	0.118617	-0.027917	0.0147145	-0.11979	-0.195317	
4.23279	0	0	0.0267508	0.106352	-0.107314	0.0871725	0.00801025	0.0224205	-0.0263673	0.0520208	0.00707725	0.238675	0.04655	0.067016	-0.015449	0.132883	-0.059615	0.0476125	0.0506355	0.239846	0.0265763	0.173605	0.0869707	0.159529	-0.0391087	0.190989	-0.070121	0.0054275	-0.047474	0.109268	-0.031503	0.0120167	-0.121769	-0.203723	
4.23279	0	0	0.029078	0.11423	-0.105675	0.095234	0.009578	0.027003	-0.030242	0.062972	0.003814	0.238836	0.04655	0.067016	-0.020124	0.132965	-0.052653	0.053445	0.049639	0.231936	0.023216	0.169259	0.089363	0.152769	-0.036951	0.184891	-0.07123	-0.001466	-0.049674	0.099919	-0.035089	0.009319	-0.123748	-0.21213	
4.22974	0	0	0.026191	0.122389	-0.10848	0.103162	0.0078565	0.0318685	-0.032828	0.07028	0.00109175	0.246529	0.0388615	0.088745	-0.0209277	0.148367	-0.0449538	0.065752	0.0595315	0.236175	0.0250698	0.177863	0.093167	0.155481	-0.0350038	0.197692	-0.072106	0.00101025	-0.0441635	0.099912	-0.035089	0.009319	-0.130186	-0.207923	
4.22821	0	0	0.023304	0.130549	-0.111286	0.11109	0.006135	0.036734	-0.035414	0.077588	-0.0016305	0.254223	0.031173	0.110474	-0.0217315	0.16377	-0.0372545	0.078059	0.069424	0.240414	0.0269235	0.186467	0.096971	0.158193	-0.0330565	0.210494	-0.072982	0.0034865	-0.038653	0.099905	-0.035089	0.009319	-0.136624	-0.203716	
4.22516	0	0	0.020417	0.138709	-0.114091	0.119017	0.0044135	0.0415995	-0.038	0.084896	-0.00435275	0.261916	0.0234845	0.132203	-0.0225352	0.179172	-0.0295552	0.090366	0.0793165	0.244652	0.0287772	0.195071	0.100775	0.160904	-0.0311092	0.223296	-0.073858	0.00596275	-0.0331425	0.099898	-0.035089	0.009319	-0.143063	-0.199509	
4.22516	0	0	0.01753	0.146868	-0.116896	0.126945	0.002692	0.046465	-0.040586	0.092204	-0.007075	0.269609	0.015796	0.153932	-0.023339	0.194574	-0.021856	0.102673	0.089209	0.248891	0.030631	0.203675	0.104579	0.163616	-0.029162	0.236097	-0.074734	0.008439	-0.027632	0.099891	-0.035089	0.009319	-0.149501	-0.195302	
4.21905	0	0	0.0227435	0.1466	-0.122737	0.130762	0.00355275	0.044032	-0.0392928	0.0885492	-0.00852125	0.264639	0.012496	0.147731	-0.0239035	0.183038	-0.01953	0.104626	0.0862215	0.235864	0.0287772	0.195071	0.103165	0.154149	-0.028953	0.217201	-0.0775945	0.006501	-0.0331425	0.099898	-0.0339295	0.00604225	-0.148014	-0.199504	
4.21905	0	0	0.027957	0.146332	-0.128579	0.134579	0.0044135	0.041599	-0.0379995	0.0848945	-0.0099675	0.25967	0.009196	0.14153	-0.024468	0.171503	-0.017204	0.106579	0.083234	0.222837	0.0269235	0.186467	0.101751	0.144682	-0.028744	0.198306	-0.080455	0.004563	-0.038653	0.099905	-0.03277	0.0027655	-0.146527	-0.203705	
4.21905	0	0	0.0331705	0.146063	-0.13442	0.138396	0.00527425	0.039166	-0.0367062	0.0812397	-0.0114138	0.2547	0.005896	0.135328	-0.0250325	0.159968	-0.014878	0.108533	0.0802465	0.20981	0.0250698	0.177863	0.100338	0.135214	-0.028535	0.179411	-0.0833155	0.002625	-0.0441635	0.099912	-0.0316105	-0.00051125	-0.145041	-0.207907	
4.21142	0	0	0.038384	0.145795	-0.140262	0.142213	0.006135	0.036733	-0.035413	0.077585	-0.01286	0.249731	0.002596	0.129127	-0.025597	0.148432	-0.012552	0.110486	0.077259	0.196783	0.023216	0.169259	0.098924	0.125747	-0.028326	0.160515	-0.086176	0.000687	-0.049674	0.099919	-0.030451	-0.003788	-0.143554	-0.212109	
4.2099	0	0	0.0340465	0.158054	-0.137228	0.146331	0.00684025	0.0437572	-0.0341163	0.0851705	-0.0086915	0.247007	0.00782	0.129891	-0.0209225	0.148352	-0.00556875	0.116352	0.079226	0.191224	0.023216	0.169259	0.10512	0.121698	-0.028326	0.160515	-0.0844248	-0.004262	-0.0535273	0.095255	-0.0410917	0.00064675	-0.143554	-0.212109	
4.20837	0	0	0.029709	0.170313	-0.134194	0.150448	0.0075455	0.0507815	-0.0328195	0.092756	-0.004523	0.244283	0.013044	0.130655	-0.016248	0.148272	0.0014145	0.122218	0.081193	0.185665	0.023216	0.169259	0.111316	0.117649	-0.028326	0.160515	-0.0826735	-0.009211	-0.0573805	0.090591	-0.0517325	0.0050815	-0.143554	-0.212109	
4.20532	0	0	0.0253715	0.182572	-0.13116	0.154566	0.00825075	0.0578058	-0.0315228	0.100342	-0.0003545	0.24156	0.018268	0.131419	-0.0115735	0.148191	0.00839775	0.128083	0.08316	0.180106	0.023216	0.169259	0.117513	0.113601	-0.028326	0.160515	-0.0809223	-0.01416	-0.0612338	0.085927	-0.0623732	0.00951625	-0.143554	-0.212109	
4.2038	0	0	0.021034	0.194831	-0.128126	0.158684	0.008956	0.06483	-0.030226	0.107927	0.003814	0.238836	0.023492	0.132183	-0.006899	0.148111	0.015381	0.133949	0.085127	0.174547	0.023216	0.169259	0.123709	0.109552	-0.028326	0.160515	-0.079171	-0.019109	-0.065087	0.081263	-0.073014	0.013951	-0.143554	-0.212109	
4.19464	0	0	0.0276972	0.190477	-0.120876	0.150896	0.00652875	0.0626725	-0.0392848	0.111034	-0.00126175	0.244123	0.0144213	0.14229	-0.0143117	0.15593	0.0215715	0.142091	0.089104	0.184778	0.0202053	0.177768	0.121319	0.116307	-0.0347993	0.178809	-0.0771857	-0.0146982	-0.0540693	0.0812455	-0.0635327	0.012793	-0.145041	-0.207907	
4.19464	0	0	0.0343605	0.186123	-0.113627	0.143108	0.0041015	0.060515	-0.0483435	0.114142	-0.0063375	0.249411	0.0053505	0.152397	-0.0217245	0.163749	0.027762	0.150234	0.093081	0.195008	0.0171945	0.186277	0.118928	0.123063	-0.0412725	0.197103	-0.0752005	-0.0102875	-0.0430515	0.081228	-0.0540515	0.011635	-0.146527	-0.203705	
4.19311	0	0	0.0410237	0.181769	-0.106377	0.13532	0.00167425	0.0583575	-0.0574023	0.117249	-0.0114133	0.254698	-0.00372025	0.162504	-0.0291372	0.171568	0.0339525	0.158376	0.097058	0.205238	0.0141838	0.194787	0.116538	0.129819	-0.0477458	0.215398	-0.0732153	-0.00587675	-0.0320337	0.0812105	-0.0445702	0.010477	-0.148014	-0.199504	
4.20685	0	0	0.047687	0.177415	-0.099128	0.127532	-0.000753	0.0562	-0.066461	0.120356	-0.016489	0.259986	-0.012791	0.172611	-0.03655	0.179387	0.040143	0.166518	0.101035	0.215469	0.011173	0.203296	0.114148	0.136574	-0.054219	0.233692	-0.07123	-0.001466	-0.021016	0.081193	-0.035089	0.009319	-0.149501	-0.195302	
4.18701	0	0	0.047687	0.177415	-0.100532	0.1315	-0.000753	0.0562	-0.0651673	0.1167	-0.0188413	0.257582	-0.016085	0.166406	-0.0398507	0.175594	0.0385385	0.171052	0.10003	0.20757	0.0141838	0.194787	0.117733	0.126443	-0.049902	0.221492	-0.0732153	-0.00587675	-0.0248753	0.076533	-0.0386723	0.00662325	-0.141576	-0.203711	
4.17786	0	0	0.047687	0.177415	-0.101936	0.135468	-0.000753	0.0562	-0.0638735	0.113043	-0.0211935	0.255178	-0.019379	0.1602	-0.0431515	0.171801	0.036934	0.175587	0.099026	0.199671	0.0171945	0.186277	0.121317	0.116311	-0.045585	0.209292	-0.0752005	-0.0102875	-0.0287345	0.071873	-0.0422555	0.0039275	-0.133652	-0.212119	
4.18091	0	0	0.047687	0.177415	-0.10334	0.139437	-0.000753	0.0562	-0.0625798	0.109386	-0.0235458	0.252773	-0.022673	0.153995	-0.0464523	0.168009	0.0353295	0.180121	0.0980215	0.191772	0.0202053	0.177768	0.124902	0.10618	-0.041268	0.197091	-0.0771857	-0.0146983	-0.0325937	0.067213	-0.0458387	0.00123175	-0.125727	-0.220527	
4.18091	0	0	0.047687	0.177415	-0.104744	0.143405	-0.000753	0.0562	-0.061286	0.10573	-0.025898	0.250369	-0.025967	0.14779	-0.049753	0.164216	0.033725	0.184656	0.097017	0.183873	0.023216	0.169259	0.128487	0.096049	-0.036951	0.184891	-0.079171	-0.019109	-0.036453	0.062553	-0.049422	-0.001464	-0.117802	-0.228936	
4.18854	0	0	0.0552365	0.185068	-0.101705	0.147525	0.00410275	0.0605165	-0.056111	0.113599	-0.024453	0.255337	-0.0155263	0.149325	-0.041779	0.167932	0.0423297	0.186011	0.099991	0.186206	0.0265763	0.173605	0.134687	0.0919975	-0.0306837	0.185484	-0.0745585	-0.022123	-0.0348015	0.0578857	-0.0482635	-0.00473825	-0.119289	-0.224735	
4.18396	0	0	0.062786	0.192721	-0.098665	0.151645	0.0089585	0.064833	-0.050936	0.121469	-0.023008	0.260306	-0.0050855	0.150861	-0.033805	0.171648	0.0509345	0.187366	0.102965	0.188539	0.0299365	0.177951	0.140888	0.087946	-0.0244165	0.186077	-0.069946	-0.025137	-0.03315	0.0532185	-0.047105	-0.0080125	-0.120775	-0.220533	
4.18396	0	0	0.0703355	0.200375	-0.0956255	0.155764	0.0138143	0.0691495	-0.045761	0.129338	-0.021563	0.265275	0.00535525	0.152397	-0.025831	0.175364	0.0595392	0.188721	0.105939	0.190872	0.0332967	0.182298	0.147089	0.0838945	-0.0181492	0.186669	-0.0653335	-0.028151	-0.0314985	0.0485512	-0.0459465	-0.0112867	-0.122261	-0.216332	
4.18548	0	0	0.077885	0.208028	-0.092586	0.159884	0.01867	0.073466	-0.040586	0.137207	-0.020118	0.270243	0.015796	0.153932	-0.017857	0.17908	0.068144	0.190076	0.108913	0.193205	0.036657	0.186644	0.153289	0.079843	-0.011882	0.187262	-0.060721	-0.031165	-0.029847	0.043884	-0.044788	-0.014561	-0.123748	-0.21213	
4.18243	0	0	0.0712113	0.212389	-0.0867325	0.156059	0.0153797	0.0737427	-0.037996	0.129887	-0.0242845	0.272966	0.00864925	0.158602	-0.025271	0.186902	0.0642035	0.192651	0.10696	0.20947	0.0370025	0.199521	0.1509	0.0865957	-0.00993075	0.200071	-0.0613625	-0.019325	-0.0292932	0.0578857	-0.039938	-0.002613	-0.121769	-0.203723	
4.18548	0	0	0.0645375	0.216749	-0.080879	0.152234	0.0120895	0.0740195	-0.035406	0.122567	-0.028451	0.275688	0.0015025	0.163272	-0.032685	0.194724	0.060263	0.195225	0.105007	0.225735	0.037348	0.212398	0.14851	0.0933485	-0.0079795	0.212879	-0.062004	-0.007485	-0.0287395	0.0718875	-0.035088	0.009335	-0.11979	-0.195317	
4.18396	0	0	0.0578637	0.22111	-0.0750255	0.14841	0.00879925	0.0742963	-0.032816	0.115247	-0.0326175	0.278411	-0.00564425	0.167941	-0.040099	0.202547	0.0563225	0.1978	0.103053	0.242	0.0376935	0.225274	0.146121	0.100101	-0.00602825	0.225688	-0.0626455	0.004355	-0.0281857	0.0858893	-0.030238	0.021283	-0.117812	-0.18691	
4.18243	0	0	0.05119	0.225471	-0.069172	0.144585	0.005509	0.074573	-0.030226	0.107927	-0.036784	0.281133	-0.012791	0.172611	-0.047513	0.210369	0.052382	0.200375	0.1011	0.258265	0.038039	0.238151	0.143732	0.106854	-0.004077	0.238497	-0.063287	0.016195	-0.027632	0.099891	-0.025388	0.033231	-0.115833	-0.178503	
4.18396	0	0	0.0601913	0.229044	-0.0675345	0.152683	0.007937	0.0767333	-0.0289305	0.115524	-0.0335252	0.280976	-0.00756925	0.173382	-0.047513	0.210369	0.0586577	0.199766	0.107035	0.252244	0.038039	0.238151	0.149937	0.1028	-0.001915	0.232386	-0.0624103	0.0137173	-0.0188073	0.0905312	-0.0242272	0.0299507	-0.109385	-0.182716	
4.19006	0	0	0.0691925	0.232618	-0.065897	0.160782	0.010365	0.0788935	-0.027635	0.123121	-0.0302665	0.280818	-0.0023475	0.174152	-0.047513	0.210369	0.0649335	0.199157	0.112969	0.246223	0.038039	0.238151	0.156143	0.098745	0.000247	0.226276	-0.0615335	0.0112395	-0.0099825	0.0811715	-0.0230665	0.0266705	-0.102938	-0.186929	
4.19617	0	0	0.0781937	0.236191	-0.0642595	0.16888	0.012793	0.0810537	-0.0263395	0.130718	-0.0270077	0.280661	0.00287425	0.174923	-0.047513	0.210369	0.0712093	0.198547	0.118903	0.240202	0.038039	0.238151	0.162348	0.0946905	0.002409	0.220165	-0.0606567	0.00876175	-0.00115775	0.0718118	-0.0219058	0.0233902	-0.0964897	-0.191142	
4.20074	0	0	0.087195	0.239764	-0.062622	0.176979	0.015221	0.083214	-0.025044	0.138315	-0.023749	0.280504	0.008096	0.175694	-0.047513	0.210369	0.077485	0.197938	0.124838	0.234181	0.038039	0.238151	0.168553	0.090636	0.004571	0.214055	-0.05978	0.006284	0.007667	0.062452	-0.020745	0.02011	-0.090042	-0.195355	
4.21295	0	0	0.0918472	0.255673	-0.0548937	0.193371	0.0174888	0.0948617	-0.0159688	0.14648	-0.0199522	0.287892	0.016625	0.182684	-0.0376065	0.221791	0.083692	0.206116	0.133776	0.24121	0.0432508	0.251159	0.178586	0.0892758	0.02343	0.215835	-0.0531732	0.007683	0.020372	0.0577437	-0.023067	0.0266718	-0.0964897	-0.191142	
4.22974	0	0	0.0964995	0.271581	-0.0471655	0.209762	0.0197565	0.10651	-0.0068935	0.154645	-0.0161555	0.29528	0.025154	0.189674	-0.0277	0.233214	0.089899	0.214294	0.142714	0.248239	0.0484625	0.264167	0.188618	0.0879155	0.042289	0.217615	-0.0465665	0.009082	0.033077	0.0530355	-0.025389	0.0332335	-0.102938	-0.186929	
4.24499	0	0	0.101152	0.28749	-0.0394373	0.226154	0.0220243	0.118157	0.00218175	0.16281	-0.0123587	0.302668	0.033683	0.196664	-0.0177935	0.244636	0.096106	0.222472	0.151652	0.255268	0.0536742	0.277176	0.198651	0.0865553	0.061148	0.219395	-0.0399598	0.010481	0.045782	0.0483273	-0.027711	0.0397953	-0.109385	-0.182716	
4.2572	0	0	0.105804	0.303399	-0.031709	0.242545	0.024292	0.129805	0.011257	0.170975	-0.008562	0.310056	0.042212	0.203654	-0.007887	0.256058	0.102313	0.23065	0.16059	0.262297	0.058886	0.290184	0.208683	0.085195	0.080007	0.221175	-0.033353	0.01188	0.058487	0.043619	-0.030033	0.046357	-0.115833	-0.178503	
4.27399	0	0	0.101434	0.315748	-0.0197293	0.246999	0.0267218	0.131973	0.0151517	0.171253	-0.0109148	0.307644	0.046068	0.192756	-0.007887	0.256058	0.107638	0.249948	0.156635	0.273474	0.0622495	0.294563	0.209879	0.0818155	0.0778405	0.227298	-0.0348772	0.0262317	0.0479938	0.0576685	-0.0346817	0.0594952	-0.117322	-0.174293	
4.28772	0	0	0.097065	0.328098	-0.0077495	0.251453	0.0291515	0.134141	0.0190465	0.17153	-0.0132675	0.305232	0.049924	0.181859	-0.007887	0.256058	0.112964	0.269246	0.15268	0.284652	0.065613	0.298941	0.211074	0.078436	0.075674	0.233422	-0.0364015	0.0405835	0.0375005	0.071718	-0.0393305	0.0726335	-0.118812	-0.170083	
4.31366	0	0	0.0926955	0.340448	0.00423025	0.255908	0.0315812	0.13631	0.0229412	0.171808	-0.0156202	0.30282	0.05378	0.170962	-0.007887	0.256058	0.11829	0.288544	0.148725	0.295829	0.0689765	0.30332	0.21227	0.0750565	0.0735075	0.239545	-0.0379258	0.0549353	0.0270072	0.0857675	-0.0439792	0.0857718	-0.120302	-0.165874	
4.32892	0	0	0.088326	0.352797	0.01621	0.260362	0.034011	0.138478	0.026836	0.172086	-0.017973	0.300408	0.057636	0.160064	-0.007887	0.256058	0.123615	0.307842	0.14477	0.307006	0.07234	0.307698	0.213466	0.071677	0.071341	0.245668	-0.03945	0.069287	0.016514	0.099817	-0.048628	0.09891	-0.121791	-0.161664	
4.35333	0	0	0.0906447	0.360789	0.0296327	0.260817	0.0364418	0.140647	0.0424365	0.161892	-0.0170645	0.297841	0.0595622	0.15462	-0.00926175	0.259943	0.133794	0.313488	0.14278	0.30186	0.0738537	0.30342	0.210837	0.0656063	0.0756727	0.233426	-0.0385713	0.0668033	0.0181698	0.0951378	-0.053371	0.0994827	-0.118813	-0.170081	
4.36706	0	0	0.0929635	0.368781	0.0430555	0.261273	0.0388725	0.142817	0.058037	0.151699	-0.016156	0.295273	0.0614885	0.149176	-0.0106365	0.263829	0.143973	0.319133	0.14079	0.296715	0.0753675	0.299142	0.208207	0.0595355	0.0800045	0.221184	-0.0376925	0.0643195	0.0198255	0.0904585	-0.058114	0.100055	-0.115835	-0.178499	
4.39453	0	0	0.0952822	0.376772	0.0564783	0.261728	0.0413032	0.144987	0.0736375	0.141505	-0.0152475	0.292706	0.0634147	0.143732	-0.0120113	0.267714	0.154152	0.324778	0.138801	0.29157	0.0768813	0.294864	0.205578	0.0534647	0.0843363	0.208942	-0.0368137	0.0618358	0.0214813	0.0857793	-0.062857	0.100628	-0.112856	-0.186916	
4.41589	0	0	0.097601	0.384764	0.069901	0.262184	0.043734	0.147156	0.089238	0.131311	-0.014339	0.290139	0.065341	0.138288	-0.013386	0.271599	0.164331	0.330424	0.136811	0.286424	0.078395	0.290586	0.202949	0.047394	0.088668	0.1967	-0.035935	0.059352	0.023137	0.0811	-0.0676	0.101201	-0.109878	-0.195333	
4.44183	0	0	0.1037	0.396654	0.073191	0.278524	0.0468662	0.156396	0.0892427	0.14261	-0.00963125	0.294961	0.068652	0.144498	-0.00484525	0.286964	0.17218	0.334092	0.147733	0.287883	0.0817618	0.294966	0.207969	0.0467093	0.0906348	0.209537	-0.033068	0.0612982	0.0303197	0.0764068	-0.0640203	0.103916	-0.109878	-0.195333	
4.46319	0	0	0.109798	0.408544	0.076481	0.294864	0.0499985	0.165635	0.0892475	0.153908	-0.0049235	0.299784	0.071963	0.150707	0.0036955	0.30233	0.18003	0.337759	0.158656	0.289342	0.0851285	0.299346	0.212988	0.0460245	0.0926015	0.222374	-0.030201	0.0632445	0.0375025	0.0717135	-0.0604405	0.106631	-0.109878	-0.195333	
4.49066	0	0	0.115897	0.420433	0.079771	0.311204	0.0531308	0.174874	0.0892523	0.165207	-0.00021575	0.304607	0.075274	0.156916	0.0122362	0.317695	0.187879	0.341427	0.169578	0.2908	0.0884952	0.303725	0.218008	0.0453397	0.0945682	0.235211	-0.027334	0.0651908	0.0446852	0.0670203	-0.0568608	0.109345	-0.109878	-0.195333	
4.52423	0	0	0.121996	0.432323	0.083061	0.327544	0.056263	0.184114	0.089257	0.176505	0.004492	0.309429	0.078585	0.163126	0.020777	0.33306	0.195728	0.345095	0.1805	0.292259	0.091862	0.308105	0.223028	0.044655	0.096535	0.248048	-0.024467	0.067137	0.051868	0.062327	-0.053281	0.11206	-0.109878	-0.195333	
4.56543	0	0	0.120533	0.436459	0.0875462	0.3277	0.0571292	0.181666	0.093159	0.165477	-0.00112425	0.307174	0.077199	0.151476	0.0188475	0.325336	0.185534	0.339444	0.172567	0.303896	0.0903468	0.312387	0.221833	0.0480322	0.096535	0.248048	-0.0242387	0.0765463	0.0540867	0.0716752	-0.0484453	0.124085	-0.111367	-0.191126	
4.59595	0	0	0.119069	0.440594	0.0920315	0.327855	0.0579955	0.179218	0.097061	0.15445	-0.0067405	0.304918	0.075813	0.139826	0.016918	0.317613	0.175341	0.333792	0.164635	0.315534	0.0888315	0.31667	0.220638	0.0514095	0.096535	0.248048	-0.0240105	0.0859555	0.0563055	0.0810235	-0.0436095	0.136109	-0.112855	-0.186918	
4.63562	0	0	0.117606	0.444729	0.0965167	0.32801	0.0588618	0.176769	0.100963	0.143422	-0.0123567	0.302663	0.074427	0.128176	0.0149885	0.309889	0.165147	0.328141	0.156702	0.327171	0.0873162	0.320952	0.219443	0.0547868	0.096535	0.248048	-0.0237822	0.0953647	0.0585242	0.0903718	-0.0387738	0.148134	-0.114344	-0.18271	
4.66766	0	0	0.116143	0.448865	0.101002	0.328166	0.059728	0.174321	0.104865	0.132394	-0.017973	0.300408	0.073041	0.116526	0.013059	0.302165	0.154953	0.322489	0.148769	0.338808	0.085801	0.325234	0.218248	0.058164	0.096535	0.248048	-0.023554	0.104774	0.060743	0.09972	-0.033938	0.160158	-0.115833	-0.178503	
4.70734	0	0	0.118459	0.456898	0.105491	0.328321	0.0588618	0.176769	0.115288	0.125584	-0.0161565	0.295274	0.0678062	0.115767	0.008376	0.302233	0.1472	0.310005	0.155712	0.329968	0.0839495	0.316572	0.224467	0.0541005	0.098703	0.241921	-0.0273012	0.10531	0.0695952	0.0903345	-0.036271	0.166751	-0.122276	-0.174293	
4.74243	0	0	0.120775	0.464931	0.109979	0.328476	0.0579955	0.179218	0.12571	0.118774	-0.01434	0.290141	0.0625715	0.115007	0.003693	0.3023	0.139447	0.29752	0.162655	0.321129	0.082098	0.30791	0.230685	0.050037	0.100871	0.235793	-0.0310485	0.105846	0.0784475	0.080949	-0.038604	0.173345	-0.12872	-0.170083	
4.77142	0	0	0.123092	0.472965	0.114468	0.32863	0.0571292	0.181666	0.136132	0.111963	-0.0125235	0.285007	0.0573367	0.114248	-0.00099	0.302368	0.131693	0.285035	0.169597	0.312289	0.0802465	0.299248	0.236904	0.0459735	0.103039	0.229666	-0.0347958	0.106381	0.0872998	0.0715635	-0.040937	0.179938	-0.135163	-0.165873	
4.79584	0	0	0.125408	0.480998	0.118957	0.328785	0.056263	0.184114	0.146555	0.105153	-0.010707	0.279873	0.052102	0.113488	-0.005673	0.302436	0.12394	0.272551	0.17654	0.303449	0.078395	0.290586	0.243123	0.04191	0.105207	0.223539	-0.038543	0.106917	0.096152	0.062178	-0.04327	0.186531	-0.141606	-0.161663	
4.82635	0	0	0.126255	0.493194	0.125098	0.337137	0.0569617	0.191192	0.14917	0.109095	-0.008353	0.282282	0.0573367	0.114248	0.0009395	0.310092	0.122406	0.268297	0.180515	0.303003	0.0832762	0.290686	0.248151	0.041222	0.111514	0.224128	-0.0376628	0.10443	0.096152	0.062178	-0.038519	0.185963	-0.141606	-0.161663	
4.84924	0	0	0.127103	0.50539	0.13124	0.34549	0.0576605	0.19827	0.151785	0.113037	-0.005999	0.28469	0.0625715	0.115007	0.007552	0.317748	0.120872	0.264043	0.184491	0.302557	0.0881575	0.290785	0.253179	0.040534	0.117821	0.224718	-0.0367825	0.101942	0.096152	0.062178	-0.033768	0.185394	-0.141606	-0.161663	
4.87366	0	0	0.12795	0.517587	0.137381	0.353843	0.0583593	0.205348	0.154401	0.11698	-0.003645	0.287099	0.0678062	0.115767	0.0141645	0.325404	0.119339	0.259789	0.188466	0.30211	0.0930388	0.290884	0.258206	0.039846	0.124128	0.225307	-0.0359022	0.0994552	0.096152	0.062178	-0.029017	0.184826	-0.141606	-0.161663	
4.8996	0	0	0.128798	0.529783	0.143522	0.362195	0.059058	0.212426	0.157016	0.120922	-0.001291	0.289508	0.073041	0.116526	0.020777	0.33306	0.117805	0.255535	0.192441	0.301664	0.09792	0.290984	0.263234	0.039158	0.130435	0.225897	-0.035022	0.096968	0.096152	0.062178	-0.024266	0.184257	-0.141606	-0.161663	
4.92248	0	0	0.12355	0.530022	0.141873	0.353996	0.0574927	0.207797	0.151787	0.113042	-0.0032765	0.277001	0.0683375	0.0987245	0.016917	0.317625	0.107725	0.241136	0.187476	0.304908	0.0911855	0.282238	0.263234	0.039158	0.126295	0.219184	-0.0367825	0.101943	0.092836	0.071549	-0.0289387	0.197463	-0.141606	-0.161663	
4.953	0	0	0.118303	0.530261	0.140224	0.345798	0.0559275	0.203169	0.146558	0.105161	-0.005262	0.264493	0.063634	0.080923	0.013057	0.302189	0.097645	0.226737	0.182511	0.308152	0.084451	0.273492	0.263234	0.039158	0.122154	0.212471	-0.038543	0.106918	0.08952	0.08092	-0.0336115	0.210669	-0.141606	-0.161663	
4.98352	0	0	0.113056	0.5305	0.138575	0.337599	0.0543623	0.19854	0.141328	0.0972812	-0.0072475	0.251986	0.0589305	0.0631215	0.009197	0.286754	0.087565	0.212337	0.177545	0.311397	0.0777165	0.264746	0.263234	0.039158	0.118014	0.205759	-0.0403035	0.111894	0.086204	0.090291	-0.0382843	0.223875	-0.141606	-0.161663	
5.02319	0	0	0.107808	0.530739	0.136926	0.329401	0.052797	0.193911	0.136099	0.089401	-0.009233	0.239479	0.054227	0.04532	0.005337	0.271319	0.077485	0.197938	0.17258	0.314641	0.070982	0.256	0.263234	0.039158	0.113874	0.199046	-0.042064	0.116869	0.082888	0.099662	-0.042957	0.237081	-0.141606	-0.161663	
5.05524	0	0	0.102565	0.530977	0.139769	0.321366	0.0503655	0.191735	0.138695	0.0820627	-0.0097745	0.231957	0.052831	0.0337375	0.00340525	0.26362	0.067421	0.183592	0.172565	0.303901	0.0706357	0.243105	0.264429	0.0357795	0.109736	0.192345	-0.043169	0.109943	0.0790093	0.0949923	-0.042957	0.237081	-0.146555	-0.161664	
5.09796	0	0	0.097322	0.531214	0.142612	0.313331	0.047934	0.189558	0.141292	0.0747245	-0.010316	0.224435	0.051435	0.022155	0.0014735	0.255921	0.057357	0.169247	0.17255	0.293161	0.0702895	0.23021	0.265625	0.032401	0.105598	0.185644	-0.044274	0.103017	0.0751305	0.0903225	-0.042957	0.237081	-0.151504	-0.161664	
5.15289	0	0	0.092079	0.531452	0.145455	0.305297	0.0455025	0.187382	0.143889	0.0673862	-0.0108575	0.216913	0.050039	0.0105725	-0.00045825	0.248222	0.047293	0.154901	0.172536	0.282422	0.0699433	0.217314	0.26682	0.0290225	0.10146	0.178942	-0.045379	0.0960918	0.0712518	0.0856527	-0.042957	0.237081	-0.156454	-0.161665	
5.20172	0	0	0.086836	0.53169	0.148298	0.297262	0.043071	0.185205	0.146485	0.060048	-0.011399	0.209391	0.048643	-0.00101	-0.00239	0.240523	0.037229	0.140555	0.172521	0.271682	0.069597	0.204419	0.268015	0.025644	0.097322	0.172241	-0.046484	0.089166	0.067373	0.080983	-0.042957	0.237081	-0.161403	-0.161666	
5.24444	0	0	0.086836	0.53169	0.142384	0.301126	0.0422045	0.187654	0.151698	0.056642	-0.0090445	0.211789	0.053874	-0.0002655	-0.00045825	0.248222	0.0279102	0.132732	0.181459	0.26799	0.0662315	0.200067	0.273047	0.024953	0.097322	0.172241	-0.0438467	0.0817125	0.067373	0.080983	-0.0311085	0.229339	-0.158427	-0.170075	
5.28259	0	0	0.086836	0.53169	0.13647	0.304991	0.041338	0.190102	0.156911	0.053236	-0.00669	0.214188	0.059105	0.000479	0.0014735	0.255921	0.0185915	0.124909	0.190398	0.264297	0.062866	0.195715	0.27808	0.024262	0.097322	0.172241	-0.0412095	0.074259	0.067373	0.080983	-0.01926	0.221596	-0.155452	-0.178484	
5.32074	0	0	0.086836	0.53169	0.130556	0.308855	0.0404715	0.192551	0.162123	0.04983	-0.0043355	0.216586	0.064336	0.0012235	0.00340525	0.26362	0.00927275	0.117085	0.199336	0.260605	0.0595005	0.191362	0.283112	0.023571	0.097322	0.172241	-0.0385723	0.0668055	0.067373	0.080983	-0.0074115	0.213854	-0.152476	-0.186893	
5.36041	0	0	0.086836	0.53169	0.124642	0.312719	0.039605	0.194999	0.167336	0.046424	-0.001981	0.218984	0.069567	0.001968	0.005337	0.271319	-4.6E-05	0.109262	0.208275	0.256913	0.056135	0.18701	0.288145	0.02288	0.097322	0.172241	-0.035935	0.059352	0.067373	0.080983	0.004437	0.206112	-0.149501	-0.195302	
5.39856	0	0	0.0859935	0.519502	0.125828	0.296525	0.0356117	0.188202	0.168605	0.031511	-0.00343	0.214027	0.0610233	-0.004929	0.002031	0.267504	-0.010875	0.0972543	0.205307	0.265302	0.0527715	0.182663	0.281917	0.0269495	0.0888638	0.177768	-0.037693	0.0643202	0.0712518	0.0856527	0.00568775	0.215463	-0.152476	-0.186893	
5.42755	0	0	0.085151	0.507315	0.127015	0.280332	0.0316185	0.181405	0.169875	0.016598	-0.004879	0.209069	0.0524795	-0.011826	-0.001275	0.263688	-0.021704	0.0852465	0.202338	0.273692	0.049408	0.178316	0.27569	0.031019	0.0804055	0.183294	-0.039451	0.0692885	0.0751305	0.0903225	0.0069385	0.224813	-0.155452	-0.178484	
5.46417	0	0	0.0843085	0.495127	0.128201	0.264138	0.0276253	0.174608	0.171144	0.001685	-0.006328	0.204112	0.0439358	-0.018723	-0.004581	0.259873	-0.032533	0.0732387	0.199369	0.282081	0.0460445	0.173968	0.269462	0.0350885	0.0719473	0.188821	-0.041209	0.0742568	0.0790093	0.0949923	0.00818925	0.234163	-0.158427	-0.170075	
5.49164	0	0	0.083466	0.48294	0.129387	0.247945	0.023632	0.167811	0.172413	-0.013228	-0.007777	0.199154	0.035392	-0.02562	-0.007887	0.256058	-0.043362	0.061231	0.196401	0.290471	0.042681	0.169621	0.263234	0.039158	0.063489	0.194348	-0.042967	0.079225	0.082888	0.099662	0.00944	0.243514	-0.161403	-0.161666	
5.513	0	0	0.0782303	0.48318	0.124898	0.247799	0.0220683	0.163195	0.168498	-0.0134833	-0.00506175	0.19148	0.0320805	-0.0317632	-0.009818	0.248366	-0.0518513	0.0512035	0.198358	0.274152	0.0423257	0.156781	0.266819	0.0290267	0.061521	0.18155	-0.0431962	0.0698297	0.0734773	0.0950075	0.00818925	0.234163	-0.159915	-0.165872	
5.52215	0	0	0.0729945	0.483421	0.12041	0.247652	0.0205045	0.158579	0.164583	-0.0137385	-0.0023465	0.183807	0.028769	-0.0379065	-0.011749	0.240675	-0.0603405	0.041176	0.200315	0.257833	0.0419705	0.143942	0.270404	0.0188955	0.059553	0.168752	-0.0434255	0.0604345	0.0640665	0.090353	0.0069385	0.224813	-0.158427	-0.170077	
5.52978	0	0	0.0677587	0.483661	0.115922	0.247505	0.0189407	0.153962	0.160669	-0.0139937	0.00036875	0.176133	0.0254575	-0.0440497	-0.01368	0.232983	-0.0688297	0.0311485	0.202272	0.241515	0.0416152	0.131103	0.273988	0.00876425	0.057585	0.155955	-0.0436547	0.0510393	0.0546558	0.0856985	0.00568775	0.215463	-0.156939	-0.174283	
5.53589	0	0	0.062523	0.483901	0.111433	0.247359	0.017377	0.149346	0.156754	-0.014249	0.003084	0.16846	0.022146	-0.050193	-0.015611	0.225291	-0.077319	0.021121	0.204229	0.225196	0.04126	0.118263	0.277573	-0.001367	0.055617	0.143157	-0.043884	0.041644	0.045245	0.081044	0.004437	0.206112	-0.155451	-0.178488	
5.54047	0	0	0.0558282	0.488276	0.110016	0.251365	0.0189407	0.153962	0.159374	-0.010333	0.00779825	0.173246	0.0325982	-0.0487155	-0.0062495	0.225142	-0.077319	0.021121	0.209194	0.221951	0.0476312	0.1141	0.283801	-0.00543625	0.070366	0.138211	-0.0412513	0.034203	0.0485555	0.0716878	-0.00157175	0.19735	-0.15199	-0.174282	
5.54047	0	0	0.0491335	0.49265	0.108599	0.255371	0.0205045	0.158579	0.161993	-0.006417	0.0125125	0.178033	0.0430505	-0.047238	0.003112	0.224992	-0.077319	0.021121	0.21416	0.218707	0.0540025	0.109937	0.290029	-0.0095055	0.085115	0.133265	-0.0386185	0.026762	0.051866	0.0623315	-0.0075805	0.188587	-0.148529	-0.170075	
5.54199	0	0	0.0424387	0.497025	0.107181	0.259376	0.0220683	0.163195	0.164612	-0.002501	0.0172267	0.182819	0.0535028	-0.0457605	0.0124735	0.224843	-0.077319	0.021121	0.219125	0.215463	0.0603737	0.105774	0.296256	-0.0135748	0.099864	0.128319	-0.0359857	0.019321	0.0551765	0.0529753	-0.0135893	0.179825	-0.145067	-0.165869	
5.54352	0	0	0.035744	0.501399	0.105764	0.263382	0.023632	0.167811	0.167232	0.001415	0.021941	0.187606	0.063955	-0.044283	0.021835	0.224694	-0.077319	0.021121	0.22409	0.212218	0.066745	0.101611	0.302484	-0.017644	0.114613	0.123373	-0.033353	0.01188	0.058487	0.043619	-0.019598	0.171063	-0.141606	-0.161663	
5.54199	0	0	0.0334425	0.493369	0.0996297	0.25508	0.0229328	0.160752	0.1607	-0.00275675	0.0177725	0.19033	0.0515917	-0.0403595	0.00835275	0.236489	-0.0812288	0.0236758	0.225105	0.220145	0.065242	0.105859	0.296256	-0.0135748	0.103994	0.135006	-0.0322415	0.0187823	0.0535197	0.0576573	-0.020765	0.174362	-0.146076	-0.149028	
5.54962	0	0	0.031141	0.48534	0.0934955	0.246779	0.0222335	0.153693	0.154168	-0.0069285	0.013604	0.193054	0.0392285	-0.036436	-0.0051295	0.248284	-0.0851385	0.0262305	0.226119	0.228073	0.063739	0.110106	0.290029	-0.0095055	0.0933755	0.14664	-0.03113	0.0256845	0.0485525	0.0716955	-0.021932	0.17766	-0.150547	-0.136394	
5.5603	0	0	0.0288395	0.47731	0.0873613	0.238477	0.0215342	0.146633	0.147637	-0.0111003	0.0094355	0.195778	0.0268653	-0.0325125	-0.0186117	0.26008	-0.0890482	0.0287852	0.227133	0.236001	0.062236	0.114353	0.283801	-0.00543625	0.0827567	0.158273	-0.0300185	0.0325868	0.0435852	0.0857337	-0.023099	0.180958	-0.155018	-0.123759	
5.57251	0	0	0.026538	0.46928	0.081227	0.230175	0.020835	0.139574	0.141105	-0.015272	0.005267	0.198502	0.014502	-0.028589	-0.032094	0.271875	-0.092958	0.03134	0.228148	0.243928	0.060733	0.118601	0.277573	-0.001367	0.072138	0.169906	-0.028907	0.039489	0.038618	0.099772	-0.024266	0.184257	-0.159488	-0.111124	
5.59845	0	0	0.0227757	0.46539	0.082642	0.226177	0.0175427	0.139848	0.147605	-0.0223305	0.00798275	0.190826	0.018323	-0.0393877	-0.0279732	0.260229	-0.0905722	0.0245975	0.223156	0.236454	0.0637382	0.110108	0.282347	-0.0148573	0.0764577	0.157697	-0.0300185	0.0325868	0.0364027	0.090427	-0.026684	0.178232	-0.162945	-0.115342	
5.62134	0	0	0.0190135	0.4615	0.084057	0.222178	0.0142505	0.140121	0.154106	-0.029389	0.0106985	0.18315	0.022144	-0.0501865	-0.0238525	0.248583	-0.0881865	0.017855	0.218164	0.22898	0.0667435	0.101614	0.28712	-0.0283475	0.0807775	0.145488	-0.03113	0.0256845	0.0341875	0.081082	-0.029102	0.172208	-0.166402	-0.119561	
5.64728	0	0	0.0152512	0.45761	0.085472	0.218179	0.0109582	0.140394	0.160606	-0.0364475	0.0134142	0.175475	0.025965	-0.0609853	-0.0197317	0.236937	-0.0858008	0.0111125	0.213172	0.221505	0.0697487	0.0931212	0.291894	-0.0418377	0.0850972	0.13328	-0.0322415	0.0187823	0.0319723	0.071737	-0.03152	0.166183	-0.169859	-0.123779	
5.66711	0	0	0.011489	0.45372	0.086887	0.214181	0.007666	0.140668	0.167106	-0.043506	0.01613	0.167799	0.029786	-0.071784	-0.015611	0.225291	-0.083415	0.00437	0.20818	0.214031	0.072754	0.084628	0.296667	-0.055328	0.089417	0.121071	-0.033353	0.01188	0.029757	0.062392	-0.033938	0.160158	-0.173316	-0.127997	
5.69	0	0	0.0167125	0.45348	0.0899545	0.218326	0.0142523	0.14012	0.168433	-0.0359365	0.0217532	0.170026	0.0350108	-0.0710483	-0.00762375	0.229025	-0.0803003	0.004062	0.213145	0.210786	0.0712518	0.0888738	0.296667	-0.055328	0.089417	0.121071	-0.0278532	0.0063805	0.029757	0.062392	-0.0316068	0.153569	-0.168368	-0.127992	
5.70831	0	0	0.021936	0.453241	0.093022	0.222471	0.0208385	0.139573	0.16976	-0.028367	0.0273765	0.172253	0.0402355	-0.0703125	0.0003635	0.23276	-0.0771855	0.003754	0.21811	0.207542	0.0697495	0.0931195	0.296667	-0.055328	0.089417	0.121071	-0.0223535	0.000881	0.029757	0.062392	-0.0292755	0.146981	-0.16342	-0.127988	
5.71747	0	0	0.0271595	0.453001	0.0960895	0.226616	0.0274247	0.139025	0.171086	-0.0207975	0.0329997	0.174479	0.0454603	-0.0695767	0.00835075	0.236494	-0.0740708	0.003446	0.223076	0.204298	0.0682472	0.0973653	0.296667	-0.055328	0.089417	0.121071	-0.0168538	-0.0046185	0.029757	0.062392	-0.0269442	0.140393	-0.158472	-0.127983	
5.73273	0	0	0.032383	0.452761	0.099157	0.230761	0.034011	0.138478	0.172413	-0.013228	0.038623	0.176706	0.050685	-0.068841	0.016338	0.240229	-0.070956	0.003138	0.228041	0.201053	0.066745	0.101611	0.296667	-0.055328	0.089417	0.121071	-0.011354	-0.010118	0.029757	0.062392	-0.024613	0.133804	-0.153524	-0.127978	
5.74036	0	0	0.0353035	0.444507	0.101987	0.222762	0.0315812	0.13631	0.175002	-0.0205453	0.037717	0.179266	0.0454603	-0.0695767	0.008907	0.248072	-0.0763895	0.00150725	0.227078	0.214567	0.065242	0.105859	0.299315	-0.0492815	0.0913932	0.133863	-0.0111172	-0.00073825	0.030315	0.0764212	-0.0162702	0.135952	-0.162945	-0.115342	
5.74798	0	0	0.038224	0.436254	0.104818	0.214763	0.0291515	0.134141	0.177591	-0.0278625	0.036811	0.181826	0.0402355	-0.0703125	0.001476	0.255914	-0.081823	-0.0001235	0.226116	0.228082	0.063739	0.110106	0.301963	-0.043235	0.0933695	0.146656	-0.0108805	0.0086415	0.030873	0.0904505	-0.0079275	0.138099	-0.172366	-0.102707	
5.76324	0	0	0.0411445	0.428	0.107648	0.206765	0.0267218	0.131973	0.18018	-0.0351797	0.035905	0.184386	0.0350108	-0.0710483	-0.005955	0.263757	-0.0872565	-0.00175425	0.225154	0.241596	0.062236	0.114353	0.304612	-0.0371885	0.0953458	0.159448	-0.0106438	0.0180212	0.031431	0.10448	0.00041525	0.140247	-0.181786	-0.0900708	
5.76935	0	0	0.044065	0.419746	0.110478	0.198766	0.024292	0.129805	0.182769	-0.042497	0.034999	0.186946	0.029786	-0.071784	-0.013386	0.271599	-0.09269	-0.003385	0.224191	0.255111	0.060733	0.118601	0.30726	-0.031142	0.097322	0.172241	-0.010407	0.027401	0.031989	0.118509	0.008758	0.142395	-0.191207	-0.077435	
5.77087	0	0	0.0402988	0.415868	0.105994	0.198623	0.0260198	0.124922	0.184063	-0.0461532	0.0335452	0.181993	0.02838	-0.0832995	-0.0092635	0.259948	-0.095737	-0.0117443	0.228146	0.243934	0.0637382	0.110108	0.309647	-0.0378872	0.0975035	0.153351	-0.010407	0.027401	0.0248062	0.123202	0.008758	0.142395	-0.184769	-0.0816417	
5.77392	0	0	0.0365325	0.411989	0.101511	0.19848	0.0277475	0.120039	0.185356	-0.0498095	0.0320915	0.17704	0.026974	-0.094815	-0.005141	0.248297	-0.098784	-0.0201035	0.232101	0.232756	0.0667435	0.101614	0.312033	-0.0446325	0.097685	0.13446	-0.010407	0.027401	0.0176235	0.127895	0.008758	0.142395	-0.178331	-0.0858485	
5.76935	0	0	0.0327662	0.40811	0.0970267	0.198337	0.0294753	0.115157	0.18665	-0.0534657	0.0306378	0.172088	0.025568	-0.106331	-0.0010185	0.236646	-0.101831	-0.0284628	0.236056	0.221579	0.0697487	0.0931212	0.31442	-0.0513777	0.0978665	0.11557	-0.010407	0.027401	0.0104407	0.132589	0.008758	0.142395	-0.171893	-0.0900553	
5.76172	0	0	0.029	0.404232	0.092543	0.198194	0.031203	0.110274	0.187944	-0.057122	0.029184	0.167135	0.024162	-0.117846	0.003104	0.224995	-0.104878	-0.036822	0.240011	0.210402	0.072754	0.084628	0.316807	-0.058123	0.098048	0.096679	-0.010407	0.027401	0.003258	0.137282	0.008758	0.142395	-0.165455	-0.094262	
5.75714	0	0	0.029	0.404232	0.095612	0.202336	0.0369297	0.112163	0.189274	-0.0495548	0.0366218	0.164242	0.0293843	-0.117116	0.0064125	0.228803	-0.104085	-0.039064	0.240999	0.20761	0.07913	0.080462	0.316807	-0.058123	0.098048	0.096679	-0.00952875	0.0249192	0.003258	0.137282	0.008758	0.142395	-0.163963	-0.0984775	
5.75104	0	0	0.029	0.404232	0.098681	0.206477	0.0426565	0.114053	0.190604	-0.0419875	0.0440595	0.161349	0.0346065	-0.116387	0.009721	0.232612	-0.103292	-0.041306	0.241986	0.204817	0.085506	0.076296	0.316807	-0.058123	0.098048	0.096679	-0.0086505	0.0224375	0.003258	0.137282	0.008758	0.142395	-0.162471	-0.102693	
5.73883	0	0	0.029	0.404232	0.10175	0.210619	0.0483833	0.115943	0.191934	-0.0344202	0.0514973	0.158456	0.0398287	-0.115657	0.0130295	0.236421	-0.102498	-0.043548	0.242974	0.202025	0.091882	0.07213	0.316807	-0.058123	0.098048	0.096679	-0.00777225	0.0199558	0.003258	0.137282	0.008758	0.142395	-0.16098	-0.106909	
5.72662	0	0	0.029	0.404232	0.104819	0.21476	0.05411	0.117832	0.193264	-0.026853	0.058935	0.155563	0.045051	-0.114927	0.016338	0.240229	-0.101705	-0.04579	0.243962	0.199233	0.098258	0.067964	0.316807	-0.058123	0.098048	0.096679	-0.006894	0.017474	0.003258	0.137282	0.008758	0.142395	-0.159488	-0.111124	
5.71136	0	0	0.0237788	0.404476	0.106234	0.210761	0.0490852	0.122994	0.188051	-0.0234467	0.0580295	0.158122	0.045051	-0.114927	0.0182722	0.24793	-0.110237	-0.047105	0.242011	0.215548	0.0922448	0.0849585	0.318264	-0.0486997	0.0915705	0.114986	0.000607	0.0163893	0.007123	0.141964	0.0135178	0.14182	-0.162472	-0.102691	
5.69763	0	0	0.0185575	0.40472	0.107649	0.206763	0.0440605	0.128155	0.182839	-0.0200405	0.057124	0.160682	0.045051	-0.114927	0.0202065	0.255632	-0.118769	-0.04842	0.24006	0.231863	0.0862315	0.101953	0.319721	-0.0392765	0.085093	0.133293	0.008108	0.0153045	0.010988	0.146647	0.0182775	0.141244	-0.165456	-0.094258	
5.68237	0	0	0.0133363	0.404964	0.109063	0.202765	0.0390358	0.133317	0.177626	-0.0166342	0.0562185	0.163241	0.045051	-0.114927	0.0221408	0.263333	-0.127301	-0.049735	0.238109	0.248178	0.0802182	0.118948	0.321178	-0.0298532	0.0786155	0.151599	0.015609	0.0142197	0.014853	0.15133	0.0230373	0.140669	-0.16844	-0.085825	
5.66864	0	0	0.008115	0.405208	0.110478	0.198766	0.034011	0.138478	0.172413	-0.013228	0.055313	0.1658	0.045051	-0.114927	0.024075	0.271034	-0.135833	-0.05105	0.236158	0.264493	0.074205	0.135942	0.322635	-0.02043	0.072138	0.169906	0.02311	0.013135	0.018718	0.156012	0.027797	0.140094	-0.171424	-0.077392	
5.66559	0	0	0.011029	0.396973	0.102927	0.194486	0.0315812	0.13631	0.175002	-0.0205453	0.0556657	0.155738	0.0365152	-0.121769	0.0188322	0.259524	-0.135771	-0.059693	0.237121	0.25097	0.07234	0.127359	0.319985	-0.0264813	0.0701655	0.157121	0.0176012	0.0186435	0.0131947	0.156016	0.0218705	0.143966	-0.172917	-0.0731725	
5.66254	0	0	0.013943	0.388738	0.095376	0.190207	0.0291515	0.134141	0.177591	-0.0278625	0.0560185	0.145675	0.0279795	-0.128611	0.0135895	0.248014	-0.135709	-0.068336	0.238085	0.237447	0.070475	0.118777	0.317334	-0.0325325	0.068193	0.144336	0.0120925	0.024152	0.0076715	0.156021	0.015944	0.147839	-0.17441	-0.068953	
5.66406	0	0	0.016857	0.380504	0.087825	0.185927	0.0267218	0.131973	0.18018	-0.0351797	0.0563712	0.135612	0.0194438	-0.135452	0.00834675	0.236505	-0.135647	-0.076979	0.239048	0.223925	0.06861	0.110194	0.314684	-0.0385837	0.0662205	0.13155	0.00658375	0.0296605	0.00214825	0.156025	0.0100175	0.151711	-0.175903	-0.0647335	
5.66559	0	0	0.019771	0.372269	0.080274	0.181647	0.024292	0.129805	0.182769	-0.042497	0.056724	0.12555	0.010908	-0.142294	0.003104	0.224995	-0.135585	-0.085622	0.240011	0.210402	0.066745	0.101611	0.312034	-0.044635	0.064248	0.118765	0.001075	0.035169	-0.003375	0.156029	0.004091	0.155584	-0.177396	-0.060514	
5.67474	0	0	0.014553	0.372515	0.0816863	0.177655	0.0284503	0.127088	0.181475	-0.0388392	0.0585322	0.120439	0.012811	-0.147672	0.0058495	0.217236	-0.13863	-0.0939415	0.238993	0.202485	0.0633777	0.0972848	0.315612	-0.054747	0.0601175	0.112097	0.004588	0.0252405	-0.0039235	0.141986	0.0004085	0.140265	-0.175903	-0.0647335	
5.6839	0	0	0.009335	0.372761	0.0830985	0.173664	0.0326085	0.12437	0.18018	-0.0351815	0.0603405	0.115329	0.014714	-0.153051	0.008595	0.209477	-0.141675	-0.102261	0.237975	0.194568	0.0600105	0.0929585	0.31919	-0.064859	0.055987	0.105429	0.008101	0.015312	-0.004472	0.127943	-0.003274	0.124947	-0.17441	-0.068953	
5.69153	0	0	0.004117	0.373008	0.0845107	0.169673	0.0367668	0.121653	0.178886	-0.0315238	0.0621488	0.110218	0.016617	-0.158429	0.0113405	0.201718	-0.144719	-0.11058	0.236956	0.186651	0.0566432	0.0886323	0.322768	-0.074971	0.0518565	0.0987617	0.011614	0.0053835	-0.0050205	0.1139	-0.0069565	0.109629	-0.172917	-0.0731725	
5.6961	0	0	-0.001101	0.373254	0.085923	0.165681	0.040925	0.118936	0.177592	-0.027866	0.063957	0.105108	0.01852	-0.163807	0.014086	0.193959	-0.147764	-0.1189	0.235938	0.178734	0.053276	0.084306	0.326346	-0.085083	0.047726	0.092094	0.015127	-0.004545	-0.005569	0.099857	-0.010639	0.09431	-0.171424	-0.077392	
5.70984	0	0	0.00180875	0.36503	0.0842665	0.157566	0.0376308	0.119211	0.176264	-0.0354307	0.0597865	0.107833	0.01852	-0.163807	0.0127135	0.197838	-0.153177	-0.120512	0.238932	0.181067	0.0547767	0.0800645	0.325154	-0.0817135	0.047726	0.092094	0.016882	-0.009505	-0.0110848	0.0998655	-0.0142262	0.0915983	-0.169932	-0.0816095	
5.71289	0	0	0.0047185	0.356807	0.08261	0.149452	0.0343365	0.119487	0.174935	-0.0429955	0.055616	0.110558	0.01852	-0.163807	0.011341	0.201716	-0.15859	-0.122123	0.241926	0.183401	0.0562775	0.075823	0.323962	-0.078344	0.047726	0.092094	0.018637	-0.014465	-0.0166005	0.099874	-0.0178135	0.0888865	-0.168439	-0.085827	
5.71136	0	0	0.00762825	0.348583	0.0809535	0.141337	0.0310423	0.119763	0.173607	-0.0505603	0.0514455	0.113283	0.01852	-0.163807	0.0099685	0.205595	-0.164003	-0.123735	0.244919	0.185735	0.0577782	0.0715815	0.322769	-0.0749745	0.047726	0.092094	0.020392	-0.019425	-0.0221163	0.0998825	-0.0214007	0.0861747	-0.166947	-0.0900445	
5.71442	0	0	0.010538	0.34036	0.079297	0.133222	0.027748	0.120038	0.172279	-0.058125	0.047275	0.116008	0.01852	-0.163807	0.008596	0.209474	-0.169416	-0.125347	0.247913	0.188068	0.059279	0.06734	0.321577	-0.071605	0.047726	0.092094	0.022147	-0.024385	-0.027632	0.099891	-0.024988	0.083463	-0.165455	-0.094262	
5.71747	0	0	0.0030175	0.332647	0.0701013	0.120873	0.0246162	0.110832	0.168327	-0.0695748	0.0461628	0.101042	0.01379	-0.181353	0.00745925	0.186398	-0.176286	-0.139703	0.239922	0.178287	0.0540443	0.0544795	0.320115	-0.0810058	0.0373233	0.0848653	0.0201503	-0.0287962	-0.025978	0.0952165	-0.023825	0.0801765	-0.16891	-0.0984842	
5.71899	0	0	-0.004503	0.324935	0.0609055	0.108524	0.0214845	0.101626	0.164376	-0.0810245	0.0450505	0.086075	0.00906	-0.198899	0.0063225	0.163322	-0.183156	-0.15406	0.231932	0.168506	0.0488095	0.041619	0.318654	-0.0904065	0.0269205	0.0776365	0.0181535	-0.0332075	-0.024324	0.090542	-0.022662	0.07689	-0.172366	-0.102707	
5.72052	0	0	-0.0120235	0.317222	0.0517098	0.096175	0.0183528	0.09242	0.160424	-0.0924743	0.0439382	0.0711085	0.00433	-0.216444	0.00518575	0.140245	-0.190027	-0.168416	0.223941	0.158725	0.0435747	0.0287585	0.317192	-0.0998073	0.0165178	0.0704077	0.0161568	-0.0376187	-0.02267	0.0858675	-0.021499	0.0736035	-0.175821	-0.106929	
5.72052	0	0	-0.019544	0.309509	0.042514	0.083826	0.015221	0.083214	0.156472	-0.103924	0.042826	0.056142	-0.0004	-0.23399	0.004049	0.117169	-0.196897	-0.182773	0.21595	0.148944	0.03834	0.015898	0.315731	-0.109208	0.006115	0.063179	0.01416	-0.04203	-0.021016	0.081193	-0.020336	0.070317	-0.179277	-0.111151	
5.71442	0	0	-0.0151925	0.297211	0.0422607	0.0717803	0.0145165	0.076183	0.155141	-0.111459	0.047332	0.0434077	-0.00182025	-0.245414	-0.001201	0.105755	-0.205334	-0.192641	0.206987	0.141967	0.0394585	-0.00107575	0.314267	-0.118591	-0.004268	0.0559658	0.0110425	-0.0533115	-0.0287318	0.0718788	-0.021599	0.0610455	-0.181242	-0.119576	
5.71136	0	0	-0.010841	0.284913	0.0420075	0.0597345	0.013812	0.069152	0.153809	-0.118995	0.051838	0.0306735	-0.0032405	-0.256839	-0.006451	0.09434	-0.21377	-0.202509	0.198024	0.134991	0.040577	-0.0180495	0.312803	-0.127974	-0.014651	0.0487525	0.007925	-0.064593	-0.0364475	0.0625645	-0.022862	0.051774	-0.183207	-0.128001	
5.70373	0	0	-0.0064895	0.272614	0.0417543	0.0476888	0.0131075	0.062121	0.152477	-0.12653	0.056344	0.0179393	-0.00466075	-0.268263	-0.011701	0.0829255	-0.222207	-0.212377	0.18906	0.128015	0.0416955	-0.0350233	0.311339	-0.137358	-0.025034	0.0415392	0.0048075	-0.0758745	-0.0441633	0.0532502	-0.024125	0.0425025	-0.185172	-0.136426	
5.69916	0	0	-0.002138	0.260316	0.041501	0.035643	0.012403	0.05509	0.151146	-0.134065	0.06085	0.005205	-0.006081	-0.279687	-0.016951	0.071511	-0.230644	-0.222245	0.180097	0.121038	0.042814	-0.051997	0.309875	-0.146741	-0.035417	0.034326	0.00169	-0.087156	-0.051879	0.043936	-0.025388	0.033231	-0.187137	-0.144851	
5.69458	0	0	-0.0044505	0.252385	0.0353763	0.0274555	0.010836	0.0505007	0.144619	-0.138195	0.055785	0.0104715	-0.00797475	-0.274335	-0.016951	0.071511	-0.240637	-0.227654	0.186034	0.115022	0.0379547	-0.0520658	0.309875	-0.146741	-0.024864	0.022771	0.0043135	-0.0945705	-0.0502293	0.0392738	-0.0183173	0.026089	-0.185649	-0.149057	
5.68848	0	0	-0.006763	0.244454	0.0292515	0.019268	0.009269	0.0459115	0.138092	-0.142325	0.05072	0.015738	-0.0098685	-0.268982	-0.016951	0.071511	-0.25063	-0.233064	0.191971	0.109006	0.0330955	-0.0521345	0.309875	-0.146741	-0.014311	0.011216	0.006937	-0.101985	-0.0485795	0.0346115	-0.0112465	0.018947	-0.184161	-0.153262	
5.68542	0	0	-0.0090755	0.236524	0.0231268	0.0110805	0.007702	0.0413223	0.131565	-0.146456	0.045655	0.0210045	-0.0117623	-0.263629	-0.016951	0.071511	-0.260622	-0.238474	0.197908	0.10299	0.0282362	-0.0522032	0.309875	-0.146741	-0.003758	-0.000339	0.0095605	-0.109399	-0.0469297	0.0299493	-0.00417575	0.011805	-0.182672	-0.157468	
5.68085	0	0	-0.011388	0.228593	0.017002	0.002893	0.006135	0.036733	0.125038	-0.150586	0.04059	0.026271	-0.013656	-0.258277	-0.016951	0.071511	-0.270615	-0.243883	0.203845	0.096974	0.023377	-0.052272	0.309875	-0.146741	0.006795	-0.011894	0.012184	-0.116814	-0.04528	0.025287	0.002895	0.004663	-0.181184	-0.161673	
5.67474	0	0	-0.0174595	0.216853	0.0092235	-0.0133043	0.00386025	0.0251398	0.117189	-0.162217	0.0394653	0.0113662	-0.0254783	-0.271102	-0.0241415	0.0525243	-0.279756	-0.260028	0.197871	0.0923383	0.018141	-0.0650475	0.307221	-0.152752	-0.005729	-0.01302	0.013058	-0.119284	-0.0524328	0.0299608	0.008809	0.00079875	-0.191062	-0.16168	
5.67016	0	0	-0.023531	0.205112	0.001445	-0.0295015	0.0015855	0.0135465	0.10934	-0.173847	0.0383405	-0.0035385	-0.0373005	-0.283927	-0.031332	0.0335375	-0.288897	-0.276172	0.191896	0.0877025	0.012905	-0.077823	0.304567	-0.158762	-0.018253	-0.014146	0.013932	-0.121754	-0.0595855	0.0346345	0.014723	-0.0030655	-0.200941	-0.161688	
5.65948	0	0	-0.0296025	0.193372	-0.0063335	-0.0456988	-0.00068925	0.00195325	0.10149	-0.185478	0.0372157	-0.0184433	-0.0491227	-0.296753	-0.0385225	0.0145508	-0.298037	-0.292317	0.185922	0.0830667	0.007669	-0.0905985	0.301912	-0.164772	-0.030777	-0.015272	0.014806	-0.124224	-0.0667382	0.0393083	0.020637	-0.00692975	-0.210819	-0.161695	
5.65338	0	0	-0.035674	0.181632	-0.014112	-0.061896	-0.002964	-0.00964	0.093641	-0.197109	0.036091	-0.033348	-0.060945	-0.309578	-0.045713	-0.004436	-0.307178	-0.308462	0.179948	0.078431	0.002433	-0.103374	0.299258	-0.170783	-0.043301	-0.016398	0.01568	-0.126694	-0.073891	0.043982	0.026551	-0.010794	-0.220697	-0.161702	
5.64117	0	0	-0.036545	0.169661	-0.0143785	-0.0738522	-0.00281525	-0.0190642	0.0910268	-0.200978	0.038786	-0.0409648	-0.0623655	-0.320951	-0.0449408	-0.0197025	-0.30796	-0.306252	0.175941	0.0682598	0.00204575	-0.116051	0.298976	-0.183487	-0.0452767	-0.0290478	0.0116815	-0.135464	-0.0728022	0.0253768	0.020524	-0.0194512	-0.211302	-0.174297	
5.63202	0	0	-0.037416	0.15769	-0.014645	-0.0858085	-0.0026665	-0.0284885	0.0884125	-0.204848	0.041481	-0.0485815	-0.063786	-0.332323	-0.0441685	-0.034969	-0.308742	-0.304042	0.171934	0.0580885	0.0016585	-0.128727	0.298694	-0.196191	-0.0472525	-0.0416975	0.007683	-0.144234	-0.0717135	0.0067715	0.014497	-0.0281085	-0.201907	-0.186891	
5.61828	0	0	-0.038287	0.145719	-0.0149115	-0.0977647	-0.00251775	-0.0379127	0.0857982	-0.208717	0.044176	-0.0561982	-0.0652065	-0.343695	-0.0433962	-0.0502355	-0.309523	-0.301833	0.167928	0.0479173	0.00127125	-0.141404	0.298411	-0.208896	-0.0492283	-0.0543472	0.0036845	-0.153005	-0.0706248	-0.0118337	0.00847	-0.0367657	-0.192512	-0.199486	
5.60303	0	0	-0.039158	0.133748	-0.015178	-0.109721	-0.002369	-0.047337	0.083184	-0.212586	0.046871	-0.063815	-0.066627	-0.355068	-0.042624	-0.065502	-0.310305	-0.299623	0.163921	0.037746	0.000884	-0.154081	0.298129	-0.2216	-0.051204	-0.066997	-0.000314	-0.161775	-0.069536	-0.030439	0.002443	-0.045423	-0.183117	-0.212081	
5.58929	0	0	-0.0429138	0.129941	-0.0182358	-0.11378	-0.002369	-0.047337	0.083184	-0.212586	0.0465385	-0.0538353	-0.0633183	-0.349032	-0.0406767	-0.057921	-0.307227	-0.299935	0.168866	0.0345148	0.00722225	-0.158223	0.303158	-0.22231	-0.0449492	-0.0664403	0.00230225	-0.169169	-0.0607448	-0.0397565	0.00475875	-0.051968	-0.192991	-0.212079	
5.57556	0	0	-0.0466695	0.126133	-0.0212935	-0.117839	-0.002369	-0.047337	0.083184	-0.212586	0.046206	-0.0438555	-0.0600095	-0.342996	-0.0387295	-0.05034	-0.304148	-0.300248	0.173811	0.0312835	0.0135605	-0.162364	0.308187	-0.223021	-0.0386945	-0.0658835	0.0049185	-0.176563	-0.0519535	-0.049074	0.0070745	-0.058513	-0.202865	-0.212077	
5.5603	0	0	-0.0504252	0.122326	-0.0243512	-0.121899	-0.002369	-0.047337	0.083184	-0.212586	0.0458735	-0.0338757	-0.0567008	-0.33696	-0.0367823	-0.042759	-0.301069	-0.30056	0.178756	0.0280523	0.0198987	-0.166506	0.313215	-0.223731	-0.0324398	-0.0653267	0.00753475	-0.183956	-0.0431622	-0.0583915	0.00939025	-0.065058	-0.212739	-0.212075	
5.54504	0	0	-0.054181	0.118518	-0.027409	-0.125958	-0.002369	-0.047337	0.083184	-0.212586	0.045541	-0.023896	-0.053392	-0.330924	-0.034835	-0.035178	-0.297991	-0.300872	0.183701	0.024821	0.026237	-0.170648	0.318244	-0.224441	-0.026185	-0.06477	0.010151	-0.19135	-0.034371	-0.067709	0.011706	-0.071603	-0.222613	-0.212073	
5.53131	0	0	-0.0550578	0.106585	-0.037963	-0.134181	-0.0063645	-0.0540407	0.0779585	-0.220313	0.0422797	-0.0237188	-0.0567008	-0.33696	-0.041443	-0.0426622	-0.307953	-0.306249	0.18174	0.0303628	0.0184122	-0.162305	0.317058	-0.221089	-0.0367157	-0.053242	0.0130245	-0.189439	-0.0376607	-0.0584113	0.0153002	-0.0689198	-0.217678	-0.212074	
5.51147	0	0	-0.0559345	0.0946515	-0.048517	-0.142404	-0.01036	-0.0607445	0.072733	-0.22804	0.0390185	-0.0235415	-0.0600095	-0.342996	-0.048051	-0.0501465	-0.317914	-0.311626	0.179779	0.0359045	0.0105875	-0.153962	0.315872	-0.217738	-0.0472465	-0.041714	0.015898	-0.187528	-0.0409505	-0.0491135	0.0188945	-0.0662365	-0.212743	-0.212074	
5.49011	0	0	-0.0568113	0.0827182	-0.059071	-0.150628	-0.0143555	-0.0674482	0.0675075	-0.235766	0.0357572	-0.0233642	-0.0633183	-0.349032	-0.054659	-0.0576308	-0.327875	-0.317003	0.177819	0.0414463	0.00276275	-0.145618	0.314686	-0.214386	-0.0577772	-0.030186	0.0187715	-0.185616	-0.0442403	-0.0398158	0.0224887	-0.0635533	-0.207808	-0.212074	
5.47485	0	0	-0.057688	0.070785	-0.069625	-0.158851	-0.018351	-0.074152	0.062282	-0.243493	0.032496	-0.023187	-0.066627	-0.355068	-0.061267	-0.065115	-0.337837	-0.32238	0.175858	0.046988	-0.005062	-0.137275	0.3135	-0.211034	-0.068308	-0.018658	0.021645	-0.183705	-0.04753	-0.030518	0.026083	-0.06087	-0.202873	-0.212075	
5.45807	0	0	-0.0562505	0.066723	-0.0740645	-0.15897	-0.016638	-0.0789938	0.067457	-0.246874	0.0357572	-0.0233642	-0.068513	-0.349738	-0.0645682	-0.0688513	-0.344712	-0.32806	0.174833	0.0391393	-0.0035755	-0.141477	0.314686	-0.214386	-0.064032	-0.0307427	0.0187715	-0.185616	-0.0513868	-0.035146	0.0283988	-0.067415	-0.201389	-0.216269	
5.45349	0	0	-0.054813	0.062661	-0.078504	-0.159089	-0.014925	-0.0838355	0.072632	-0.250256	0.0390185	-0.0235415	-0.070399	-0.344408	-0.0678695	-0.0725875	-0.351586	-0.333739	0.173808	0.0312905	-0.002089	-0.145678	0.315872	-0.217738	-0.059756	-0.0428275	0.015898	-0.187528	-0.0552435	-0.039774	0.0307145	-0.07396	-0.199906	-0.220463	
5.44586	0	0	-0.0533755	0.058599	-0.0829435	-0.159208	-0.013212	-0.0886772	0.077807	-0.253638	0.0422797	-0.0237188	-0.072285	-0.339078	-0.0711708	-0.0763238	-0.358461	-0.339419	0.172784	0.0234417	-0.0006025	-0.149879	0.317058	-0.221089	-0.05548	-0.0549123	0.0130245	-0.189439	-0.0591003	-0.044402	0.0330303	-0.080505	-0.198422	-0.224656	
5.44739	0	0	-0.051938	0.054537	-0.087383	-0.159327	-0.011499	-0.093519	0.082982	-0.257019	0.045541	-0.023896	-0.074171	-0.333748	-0.074472	-0.08006	-0.365335	-0.345099	0.171759	0.015593	0.000884	-0.154081	0.318244	-0.224441	-0.051204	-0.066997	0.010151	-0.19135	-0.062957	-0.04903	0.035346	-0.08705	-0.196938	-0.22885	
5.44739	0	0	-0.0533755	0.058599	-0.084334	-0.155278	-0.00664375	-0.089245	0.076571	-0.2389	0.051733	-0.0142518	-0.0656662	-0.326997	-0.0738855	-0.0686512	-0.363044	-0.343207	0.178712	0.0174373	0.00761425	-0.145549	0.32209	-0.2218	-0.0386877	-0.0658848	0.010151	-0.19135	-0.0503022	-0.0537257	0.0401025	-0.0876425	-0.203357	-0.224656	
5.45807	0	0	-0.054813	0.062661	-0.081285	-0.15123	-0.0017885	-0.084971	0.07016	-0.220782	0.057925	-0.0046075	-0.0571615	-0.320246	-0.073299	-0.0572425	-0.360754	-0.341314	0.185665	0.0192815	0.0143445	-0.137016	0.325937	-0.219159	-0.0261715	-0.0647725	0.010151	-0.19135	-0.0376475	-0.0584215	0.044859	-0.088235	-0.209776	-0.220462	
5.46417	0	0	-0.0562505	0.066723	-0.078236	-0.147181	0.00306675	-0.080697	0.063749	-0.202663	0.064117	0.00503675	-0.0486567	-0.313495	-0.0727125	-0.0458337	-0.358464	-0.339422	0.192619	0.0211257	0.0210747	-0.128484	0.329783	-0.216517	-0.0136553	-0.0636603	0.010151	-0.19135	-0.0249928	-0.0631172	0.0496155	-0.0888275	-0.216194	-0.216267	
5.47027	0	0	-0.057688	0.070785	-0.075187	-0.143132	0.007922	-0.076423	0.057338	-0.184545	0.070309	0.014681	-0.040152	-0.306744	-0.072126	-0.034425	-0.356173	-0.33753	0.199572	0.02297	0.027805	-0.119952	0.333629	-0.213876	-0.001139	-0.062548	0.010151	-0.19135	-0.012338	-0.067813	0.054372	-0.08942	-0.222613	-0.212073	
5.48553	0	0	-0.0562505	0.066723	-0.079626	-0.143253	0.004637	-0.0761388	0.0586212	-0.188171	0.0667028	0.024873	-0.0420425	-0.301401	-0.0775627	-0.0190607	-0.356173	-0.33753	0.196669	0.0419298	0.0281905	-0.107249	0.335102	-0.204518	-0.0097085	-0.0383295	0.015027	-0.185059	-0.0101183	-0.058533	0.0579735	-0.0867398	-0.214224	-0.207877	
5.48859	0	0	-0.054813	0.062661	-0.084065	-0.143373	0.001352	-0.0758545	0.0599045	-0.191798	0.0630965	0.035065	-0.043933	-0.296059	-0.0829995	-0.0036965	-0.356173	-0.33753	0.193767	0.0608895	0.028576	-0.094547	0.336576	-0.19516	-0.018278	-0.014111	0.019903	-0.178769	-0.0078985	-0.049253	0.061575	-0.0840595	-0.205836	-0.203682	
5.49927	0	0	-0.0533755	0.058599	-0.088504	-0.143494	-0.001933	-0.0755703	0.0611877	-0.195425	0.0594903	0.045257	-0.0458235	-0.290716	-0.0884362	0.0116678	-0.356173	-0.33753	0.190864	0.0798492	0.0289615	-0.0818445	0.338049	-0.185802	-0.0268475	0.0101075	0.024779	-0.172479	-0.00567875	-0.039973	0.0651765	-0.0813793	-0.197447	-0.199487	
5.50842	0	0	-0.051938	0.054537	-0.092943	-0.143615	-0.005218	-0.075286	0.062471	-0.199051	0.055884	0.055449	-0.047714	-0.285373	-0.093873	0.027032	-0.356173	-0.33753	0.187962	0.098809	0.029347	-0.069142	0.339522	-0.176444	-0.035417	0.034326	0.029655	-0.166188	-0.003459	-0.030693	0.068778	-0.078699	-0.189058	-0.195291	
5.51147	0	0	-0.042433	0.0420845	-0.0871135	-0.147424	-0.005218	-0.075286	0.062471	-0.199051	0.0600525	0.052725	-0.0548017	-0.280742	-0.092513	0.0231885	-0.356173	-0.33753	0.190909	0.0904795	0.029347	-0.069142	0.341898	-0.183159	-0.0395295	0.0276975	0.0287818	-0.163721	-0.0089705	-0.0306703	0.068778	-0.078699	-0.190544	-0.191091	
5.51147	0	0	-0.032928	0.029632	-0.081284	-0.151233	-0.005218	-0.075286	0.062471	-0.199051	0.064221	0.050001	-0.0618895	-0.27611	-0.091153	0.019345	-0.356173	-0.33753	0.193856	0.08215	0.029347	-0.069142	0.344274	-0.189873	-0.043642	0.021069	0.0279085	-0.161253	-0.014482	-0.0306475	0.068778	-0.078699	-0.19203	-0.186891	
5.50995	0	0	-0.023423	0.0171795	-0.0754545	-0.155042	-0.005218	-0.075286	0.062471	-0.199051	0.0683895	0.047277	-0.0689772	-0.271479	-0.089793	0.0155015	-0.356173	-0.33753	0.196804	0.0738205	0.029347	-0.069142	0.34665	-0.196587	-0.0477545	0.0144405	0.0270353	-0.158786	-0.0199935	-0.0306247	0.068778	-0.078699	-0.193516	-0.182692	
5.5069	0	0	-0.013918	0.004727	-0.069625	-0.158851	-0.005218	-0.075286	0.062471	-0.199051	0.072558	0.044553	-0.076065	-0.266848	-0.088433	0.011658	-0.356173	-0.33753	0.199751	0.065491	0.029347	-0.069142	0.349026	-0.203302	-0.051867	0.007812	0.026162	-0.156319	-0.025505	-0.030602	0.068778	-0.078699	-0.195002	-0.178492	
5.50232	0	0	-0.0167905	0.0128455	-0.0679648	-0.150868	0.00049625	-0.0734313	0.0676945	-0.191305	0.0740212	0.0494795	-0.070869	-0.266133	-0.0758102	0.0152375	-0.339282	-0.334995	0.203723	0.0650297	0.0327137	-0.0648557	0.349026	-0.203302	-0.0413253	-0.0037295	0.026162	-0.156319	-0.0238587	-0.0352545	0.0722523	-0.0885183	-0.19994	-0.178494	
5.49164	0	0	-0.019663	0.020964	-0.0663045	-0.142885	0.0062105	-0.0715765	0.072918	-0.183559	0.0754845	0.054406	-0.065673	-0.265419	-0.0631875	0.018817	-0.322391	-0.33246	0.207695	0.0645685	0.0360805	-0.0605695	0.349026	-0.203302	-0.0307835	-0.015271	0.026162	-0.156319	-0.0222125	-0.039907	0.0757265	-0.0983375	-0.204877	-0.178497	
5.48553	0	0	-0.0225355	0.0290825	-0.0646443	-0.134903	0.0119247	-0.0697217	0.0781415	-0.175812	0.0769477	0.0593325	-0.060477	-0.264704	-0.0505647	0.0223965	-0.3055	-0.329924	0.211666	0.0641072	0.0394473	-0.0562832	0.349026	-0.203302	-0.0202418	-0.0268125	0.026162	-0.156319	-0.0205663	-0.0445595	0.0792008	-0.108157	-0.209815	-0.178499	
5.47485	0	0	-0.025408	0.037201	-0.062984	-0.12692	0.017639	-0.067867	0.083365	-0.168066	0.078411	0.064259	-0.055281	-0.263989	-0.037942	0.025976	-0.288609	-0.327389	0.215638	0.063646	0.042814	-0.051997	0.349026	-0.203302	-0.0097	-0.038354	0.026162	-0.156319	-0.01892	-0.049212	0.082675	-0.117976	-0.214753	-0.178501	
5.47027	0	0	-0.0239715	0.0331407	-0.0585388	-0.126799	0.015923	-0.0630172	0.0768983	-0.161048	0.07897	0.0717447	-0.0590678	-0.253287	-0.0354252	0.0450785	-0.291737	-0.318549	0.217686	0.0794027	0.043192	-0.0392528	0.351689	-0.197298	-0.00557625	-0.031739	0.031915	-0.152485	-0.01892	-0.049212	0.0755992	-0.110837	-0.209815	-0.178499	
5.45349	0	0	-0.022535	0.0290805	-0.0540935	-0.126678	0.014207	-0.0581675	0.0704315	-0.15403	0.079529	0.0792305	-0.0628545	-0.242585	-0.0329085	0.064181	-0.294864	-0.309709	0.219734	0.0951595	0.04357	-0.0265085	0.354352	-0.191293	-0.0014525	-0.025124	0.037668	-0.148651	-0.01892	-0.049212	0.0685235	-0.103698	-0.204877	-0.178497	
5.44281	0	0	-0.0210985	0.0250203	-0.0496482	-0.126558	0.012491	-0.0533177	0.0639648	-0.147012	0.080088	0.0867162	-0.0666412	-0.231884	-0.0303917	0.0832835	-0.297992	-0.300869	0.221782	0.110916	0.043948	-0.0137642	0.357015	-0.185288	0.00267125	-0.018509	0.043421	-0.144818	-0.01892	-0.049212	0.0614477	-0.096559	-0.19994	-0.178494	
5.42755	0	0	-0.019662	0.02096	-0.045203	-0.126437	0.010775	-0.048468	0.057498	-0.139994	0.080647	0.094202	-0.070428	-0.221182	-0.027875	0.102386	-0.30112	-0.292029	0.22383	0.126673	0.044326	-0.00102	0.359678	-0.179284	0.006795	-0.011894	0.049174	-0.140984	-0.01892	-0.049212	0.054372	-0.08942	-0.195002	-0.178492	
5.41077	0	0	-0.0167905	0.012845	-0.0410278	-0.138237	0.00834675	-0.0506097	0.0600683	-0.147258	0.080088	0.0867162	-0.0718373	-0.232598	-0.029814	0.0947537	-0.30493	-0.298034	0.219855	0.127131	0.0458217	-0.0052475	0.355827	-0.181932	-0.0078705	-0.0069675	0.0428002	-0.13302	-0.01892	-0.049212	0.0614477	-0.096559	-0.2044	-0.165889	
5.39551	0	0	-0.013919	0.00473	-0.0368525	-0.150037	0.0059185	-0.0527515	0.0626385	-0.154521	0.079529	0.0792305	-0.0732465	-0.244015	-0.031753	0.0871215	-0.30874	-0.304038	0.215881	0.127589	0.0473175	-0.009475	0.351977	-0.18458	-0.022536	-0.002041	0.0364265	-0.125055	-0.01892	-0.049212	0.0685235	-0.103698	-0.213798	-0.153286	
5.3772	0	0	-0.0110475	-0.003385	-0.0326772	-0.161837	0.00349025	-0.0548933	0.0652088	-0.161784	0.07897	0.0717447	-0.0746557	-0.255431	-0.033692	0.0794893	-0.312551	-0.310042	0.211906	0.128047	0.0488133	-0.0137025	0.348126	-0.187228	-0.0372015	0.0028855	0.0300527	-0.117091	-0.01892	-0.049212	0.0755993	-0.110837	-0.223195	-0.140684	
5.36194	0	0	-0.008176	-0.0115	-0.028502	-0.173637	0.001062	-0.057035	0.067779	-0.169048	0.078411	0.064259	-0.076065	-0.266848	-0.035631	0.071857	-0.316361	-0.316047	0.207931	0.128505	0.050309	-0.01793	0.344275	-0.189876	-0.051867	0.007812	0.023679	-0.109127	-0.01892	-0.049212	0.082675	-0.117976	-0.232593	-0.128081	
5.34668	0	0	-0.00297375	-0.0117805	-0.028502	-0.173637	0.0093525	-0.0624523	0.0664943	-0.165417	0.0793137	0.0617077	-0.072285	-0.277531	-0.028232	0.0640585	-0.310204	-0.316673	0.210883	0.120163	0.0454473	-0.0180018	0.34665	-0.196588	-0.0454465	-0.0103335	0.0263017	-0.116539	-0.021139	-0.0584815	0.082539	-0.13045	-0.229619	-0.136486	
5.33447	0	0	0.0022285	-0.012061	-0.028502	-0.173637	0.017643	-0.0678695	0.0652095	-0.161786	0.0802165	0.0591565	-0.068505	-0.288213	-0.020833	0.05626	-0.304048	-0.3173	0.213834	0.11182	0.0405855	-0.0180735	0.349025	-0.2033	-0.039026	-0.028479	0.0289245	-0.123952	-0.023358	-0.067751	0.082403	-0.142925	-0.226645	-0.144892	
5.32226	0	0	0.00743075	-0.0123415	-0.028502	-0.173637	0.0259335	-0.0732867	0.0639248	-0.158155	0.0811193	0.0566052	-0.064725	-0.298895	-0.013434	0.0484615	-0.297892	-0.317926	0.216786	0.103478	0.0357237	-0.0181453	0.3514	-0.210012	-0.0326055	-0.0466245	0.0315472	-0.131364	-0.025577	-0.0770205	0.082267	-0.155399	-0.223671	-0.153297	
5.31006	0	0	0.012633	-0.012622	-0.028502	-0.173637	0.034224	-0.078704	0.06264	-0.154524	0.082022	0.054054	-0.060945	-0.309578	-0.006035	0.040663	-0.291735	-0.318552	0.219738	0.095135	0.030862	-0.018217	0.353775	-0.216724	-0.026185	-0.06477	0.03417	-0.138776	-0.027796	-0.08629	0.082131	-0.167873	-0.220697	-0.161702	
5.29785	0	0	0.00455925	-0.0042265	-0.028502	-0.173637	0.0316497	-0.0714285	0.0613545	-0.150892	0.082582	0.061537	-0.0576373	-0.303527	0.00058725	0.048199	-0.292517	-0.316342	0.226708	0.0969945	0.0420855	-0.0223022	0.353775	-0.216724	-0.0177848	-0.0702587	0.0350437	-0.141245	-0.027796	-0.08629	0.0773723	-0.167273	-0.220697	-0.161702	
5.2887	0	0	-0.0035145	0.004169	-0.028502	-0.173637	0.0290755	-0.064153	0.060069	-0.147259	0.083142	0.06902	-0.0543295	-0.297476	0.0072095	0.055735	-0.293299	-0.314133	0.233678	0.098854	0.053309	-0.0263875	0.353775	-0.216724	-0.0093845	-0.0757475	0.0359175	-0.143715	-0.027796	-0.08629	0.0726135	-0.166674	-0.220697	-0.161702	
5.27801	0	0	-0.0115882	0.0125645	-0.028502	-0.173637	0.0265013	-0.0568775	0.0587835	-0.143626	0.083702	0.076503	-0.0510217	-0.291424	0.0138317	0.063271	-0.294081	-0.311923	0.240648	0.100713	0.0645325	-0.0304727	0.353775	-0.216724	-0.00098425	-0.0812362	0.0367912	-0.146184	-0.027796	-0.08629	0.0678547	-0.166074	-0.220697	-0.161702	
5.27496	0	0	-0.019662	0.02096	-0.028502	-0.173637	0.023927	-0.049602	0.057498	-0.139994	0.084262	0.083986	-0.047714	-0.285373	0.020454	0.070807	-0.294863	-0.309713	0.247618	0.102573	0.075756	-0.034558	0.353775	-0.216724	0.007416	-0.086725	0.037665	-0.148653	-0.027796	-0.08629	0.063096	-0.165474	-0.220697	-0.161702	
5.26886	0	0	-0.0153557	0.00879025	-0.0287813	-0.185532	0.0232128	-0.056592	0.057458	-0.151132	0.081336	0.0741278	-0.0543283	-0.297467	0.0138318	0.063271	-0.308679	-0.312568	0.245648	0.108139	0.066027	-0.0346962	0.354962	-0.220078	-0.00098425	-0.0812362	0.0359172	-0.143714	-0.0294398	-0.0816448	0.057186	-0.161612	-0.220697	-0.161702	
5.27191	0	0	-0.0110495	-0.0033795	-0.0290605	-0.197426	0.0224985	-0.063582	0.057418	-0.16227	0.07841	0.0642695	-0.0609425	-0.309561	0.0072095	0.055735	-0.322496	-0.315423	0.243679	0.113705	0.056298	-0.0348345	0.356148	-0.223433	-0.0093845	-0.0757475	0.0341695	-0.138775	-0.0310835	-0.0769995	0.051276	-0.157751	-0.220697	-0.161702	
5.27801	0	0	-0.00674325	-0.0155493	-0.0293397	-0.20932	0.0217842	-0.070572	0.057378	-0.173407	0.075484	0.0544113	-0.0675567	-0.321654	0.00058725	0.048199	-0.336313	-0.318278	0.24171	0.119271	0.046569	-0.0349728	0.357335	-0.226787	-0.0177848	-0.0702587	0.0324217	-0.133835	-0.0327272	-0.0723543	0.045366	-0.153889	-0.220697	-0.161702	
5.28259	0	0	-0.002437	-0.027719	-0.029619	-0.221215	0.02107	-0.077562	0.057338	-0.184545	0.072558	0.044553	-0.074171	-0.333748	-0.006035	0.040663	-0.350129	-0.321133	0.23974	0.124837	0.03684	-0.035111	0.358522	-0.230141	-0.026185	-0.06477	0.030674	-0.128896	-0.034371	-0.067709	0.039456	-0.150027	-0.220697	-0.161702	
5.2948	0	0	0.0004305	-0.035823	-0.0357335	-0.229275	0.0236415	-0.0848295	0.0560112	-0.192039	0.0728967	0.034539	-0.0755922	-0.345105	-0.01265	0.0331425	-0.354662	-0.333419	0.235723	0.114632	0.0364582	-0.0478343	0.358227	-0.242827	-0.0260365	-0.0834233	0.026672	-0.137667	-0.034948	-0.081606	0.0440725	-0.163074	-0.221176	-0.174295	
5.30243	0	0	0.003298	-0.043927	-0.041848	-0.237336	0.026213	-0.092097	0.0546845	-0.199533	0.0732355	0.024525	-0.0770135	-0.356463	-0.019265	0.025622	-0.359194	-0.345705	0.231706	0.104428	0.0360765	-0.0605575	0.357931	-0.255513	-0.025888	-0.102077	0.02267	-0.146438	-0.035525	-0.095503	0.048689	-0.176121	-0.221655	-0.186888	
5.31311	0	0	0.0061655	-0.052031	-0.0479625	-0.245396	0.0287845	-0.0993645	0.0533578	-0.207027	0.0735743	0.014511	-0.0784347	-0.36782	-0.02588	0.0181015	-0.363727	-0.357992	0.227689	0.0942235	0.0356947	-0.0732808	0.357635	-0.268198	-0.0257395	-0.12073	0.018668	-0.155209	-0.036102	-0.1094	0.0533055	-0.189168	-0.222134	-0.19948	
5.32226	0	0	0.009033	-0.060135	-0.054077	-0.253457	0.031356	-0.106632	0.052031	-0.214521	0.073913	0.004497	-0.079856	-0.379177	-0.032495	0.010581	-0.36826	-0.370278	0.223672	0.084019	0.035313	-0.086004	0.35734	-0.280884	-0.025591	-0.139383	0.014666	-0.16398	-0.036679	-0.123297	0.057922	-0.202215	-0.222613	-0.212073	
5.33142	0	0	0.009033	-0.060135	-0.054077	-0.253457	0.029642	-0.101788	0.0507488	-0.210897	0.0780815	0.00177325	-0.07278	-0.3838	-0.027826	0.0104893	-0.358267	-0.373422	0.229614	0.0780002	0.0397835	-0.0986387	0.352305	-0.280167	-0.0234595	-0.145407	0.0181548	-0.17384	-0.0333993	-0.132566	0.049572	-0.204272	-0.22113	-0.216265	
5.33905	0	0	0.009033	-0.060135	-0.054077	-0.253457	0.027928	-0.0969435	0.0494665	-0.207273	0.08225	-0.0009505	-0.065704	-0.388424	-0.023157	0.0103975	-0.348275	-0.376565	0.235557	0.0719815	0.044254	-0.111273	0.347271	-0.279451	-0.021328	-0.151431	0.0216435	-0.183699	-0.0301195	-0.141835	0.041222	-0.206329	-0.219647	-0.220456	
5.3421	0	0	0.009033	-0.060135	-0.054077	-0.253457	0.026214	-0.0920992	0.0481842	-0.20365	0.0864185	-0.00367425	-0.058628	-0.393047	-0.018488	0.0103058	-0.338283	-0.379709	0.2415	0.0659628	0.0487245	-0.123908	0.342236	-0.278734	-0.0191965	-0.157455	0.0251323	-0.193559	-0.0268398	-0.151103	0.032872	-0.208387	-0.218163	-0.224648	
5.34515	0	0	0.009033	-0.060135	-0.054077	-0.253457	0.0245	-0.087255	0.046902	-0.200026	0.090587	-0.006398	-0.051552	-0.397671	-0.013819	0.010214	-0.32829	-0.382853	0.247442	0.059944	0.053195	-0.136543	0.337202	-0.278017	-0.017065	-0.163479	0.028621	-0.203419	-0.02356	-0.160372	0.024522	-0.210444	-0.21668	-0.22884	
5.35278	0	0	0.00812775	-0.071987	-0.058802	-0.265409	0.0246393	-0.096653	0.039081	-0.211614	0.0840532	-0.006042	-0.061934	-0.399066	-0.018488	0.0103058	-0.335947	-0.386311	0.245476	0.0655012	0.0468475	-0.132395	0.337202	-0.278017	-0.017065	-0.163479	0.0277492	-0.200955	-0.0180527	-0.160408	0.0292717	-0.211044	-0.215198	-0.23303	
5.35126	0	0	0.0072225	-0.083839	-0.063527	-0.277362	0.0247785	-0.106051	0.03126	-0.223202	0.0775195	-0.005686	-0.072316	-0.40046	-0.023157	0.0103975	-0.343604	-0.389768	0.243509	0.0710585	0.0405	-0.128248	0.337202	-0.278017	-0.017065	-0.163479	0.0268775	-0.198491	-0.0125455	-0.160445	0.0340215	-0.211644	-0.213715	-0.237219	
5.34668	0	0	0.00631725	-0.095691	-0.068252	-0.289315	0.0249177	-0.115449	0.023439	-0.23479	0.0709858	-0.00533	-0.082698	-0.401855	-0.027826	0.0104893	-0.35126	-0.393226	0.241542	0.0766157	0.0341525	-0.1241	0.337202	-0.278017	-0.017065	-0.163479	0.0260058	-0.196027	-0.00703825	-0.160481	0.0387712	-0.212244	-0.212232	-0.241409	
5.34363	0	0	0.005412	-0.107543	-0.072977	-0.301267	0.025057	-0.124847	0.015618	-0.246378	0.064452	-0.004974	-0.09308	-0.40325	-0.032495	0.010581	-0.358917	-0.396683	0.239576	0.082173	0.027805	-0.119952	0.337202	-0.278017	-0.017065	-0.163479	0.025134	-0.193563	-0.001531	-0.160518	0.043521	-0.212844	-0.21075	-0.245599	
5.3421	0	0	0.0045015	-0.119369	-0.073268	-0.313085	0.020197	-0.129108	0.0168457	-0.261065	0.0647858	-0.0149655	-0.0926292	-0.419872	-0.0317212	-0.00469925	-0.364231	-0.406726	0.243456	0.060433	0.0240462	-0.136882	0.336902	-0.290671	-0.016937	-0.182056	0.0231312	-0.197936	-0.0109027	-0.165075	0.0410745	-0.218753	-0.215682	-0.245596	
5.33447	0	0	0.003591	-0.131196	-0.073559	-0.324904	0.015337	-0.133369	0.0180735	-0.275751	0.0651195	-0.024957	-0.0921785	-0.436494	-0.0309475	-0.0199795	-0.369546	-0.416768	0.247336	0.038693	0.0202875	-0.153811	0.336602	-0.303326	-0.016809	-0.200634	0.0211285	-0.202309	-0.0202745	-0.169632	0.038628	-0.224662	-0.220614	-0.245592	
5.32837	0	0	0.0026805	-0.143022	-0.07385	-0.336722	0.010477	-0.13763	0.0193012	-0.290438	0.0654532	-0.0349485	-0.0917277	-0.453116	-0.0301737	-0.0352597	-0.37486	-0.426811	0.251215	0.016953	0.0165288	-0.170741	0.336302	-0.31598	-0.016681	-0.219211	0.0191258	-0.206681	-0.0296463	-0.174189	0.0361815	-0.230571	-0.225547	-0.245589	
5.32226	0	0	0.00177	-0.154848	-0.074141	-0.34854	0.005617	-0.141891	0.020529	-0.305124	0.065787	-0.04494	-0.091277	-0.469738	-0.0294	-0.05054	-0.380175	-0.436854	0.255095	-0.004787	0.01277	-0.187671	0.336002	-0.328634	-0.016553	-0.237788	0.017123	-0.211054	-0.039018	-0.178746	0.033735	-0.23648	-0.230479	-0.245586	
5.31463	0	0	0.0031975	-0.158883	-0.0785745	-0.348642	0.008902	-0.142179	0.020529	-0.305124	0.065787	-0.04494	-0.0894013	-0.47504	-0.0280417	-0.0543785	-0.389323	-0.444366	0.254059	-0.0126285	0.010888	-0.196114	0.340726	-0.341983	-0.0123057	-0.249791	0.015991	-0.217882	-0.04288	-0.183333	0.0289883	-0.235879	-0.232447	-0.25395	
5.30395	0	0	0.004625	-0.162917	-0.083008	-0.348744	0.012187	-0.142467	0.020529	-0.305124	0.065787	-0.04494	-0.0875255	-0.480341	-0.0266835	-0.058217	-0.398471	-0.451877	0.253023	-0.02047	0.009006	-0.204557	0.345449	-0.355332	-0.0080585	-0.261795	0.014859	-0.22471	-0.046742	-0.187921	0.0242415	-0.235279	-0.234415	-0.262313	
5.2948	0	0	0.0060525	-0.166952	-0.0874415	-0.348846	0.015472	-0.142755	0.020529	-0.305124	0.065787	-0.04494	-0.0856497	-0.485643	-0.0253253	-0.0620555	-0.407618	-0.459388	0.251987	-0.0283115	0.007124	-0.212999	0.350172	-0.368681	-0.00381125	-0.273799	0.013727	-0.231538	-0.050604	-0.192508	0.0194948	-0.234678	-0.236383	-0.270677	
5.28412	0	0	0.00748	-0.170986	-0.091875	-0.348948	0.018757	-0.143043	0.020529	-0.305124	0.065787	-0.04494	-0.083774	-0.490945	-0.023967	-0.065894	-0.416766	-0.4669	0.250951	-0.036153	0.005242	-0.221442	0.354896	-0.38203	0.000436	-0.285802	0.012595	-0.238366	-0.054466	-0.197096	0.014748	-0.234077	-0.238351	-0.279041	
5.27191	0	0	0.00228475	-0.170692	-0.0963052	-0.34905	0.015472	-0.142755	0.0230815	-0.312338	0.0672533	-0.0400358	-0.0856497	-0.485643	-0.022017	-0.058311	-0.41905	-0.468775	0.251987	-0.0283115	0.0164308	-0.22553	0.352535	-0.375358	0.0045725	-0.279276	0.0117245	-0.235906	-0.047331	-0.201758	0.014748	-0.234077	-0.233422	-0.279047	
5.26276	0	0	-0.0029105	-0.170397	-0.100736	-0.349153	0.012187	-0.142467	0.025634	-0.319551	0.0687195	-0.0351315	-0.0875255	-0.480341	-0.020067	-0.050728	-0.421335	-0.47065	0.253023	-0.02047	0.0276195	-0.229619	0.350174	-0.368686	0.008709	-0.272751	0.010854	-0.233446	-0.040196	-0.20642	0.014748	-0.234077	-0.228492	-0.279053	
5.24902	0	0	-0.00810575	-0.170103	-0.105166	-0.349255	0.008902	-0.142179	0.0281865	-0.326765	0.0701857	-0.0302272	-0.0894013	-0.47504	-0.018117	-0.043145	-0.42362	-0.472526	0.254059	-0.0126285	0.0388083	-0.233707	0.347813	-0.362014	0.0128455	-0.266226	0.0099835	-0.230986	-0.033061	-0.211082	0.014748	-0.234077	-0.223562	-0.279059	
5.23682	0	0	-0.013301	-0.169809	-0.109596	-0.349358	0.005617	-0.141891	0.030739	-0.333979	0.071652	-0.025323	-0.091277	-0.469738	-0.016167	-0.035562	-0.425904	-0.474401	0.255095	-0.004787	0.049997	-0.237795	0.345452	-0.355342	0.016982	-0.2597	0.009113	-0.228526	-0.025926	-0.215744	0.014748	-0.234077	-0.218633	-0.279065	
5.22919	0	0	-0.010449	-0.177869	-0.106839	-0.357151	0.00404325	-0.146435	0.02813	-0.337816	0.0710845	-0.0327675	-0.092711	-0.481021	-0.0167592	-0.046982	-0.415945	-0.47754	0.248125	-0.00662275	0.0402908	-0.237897	0.341603	-0.357957	0.0107225	-0.260226	0.0073715	-0.223604	-0.034697	-0.206458	0.014748	-0.234077	-0.226523	-0.270693	
5.22003	0	0	-0.007597	-0.185929	-0.104081	-0.364944	0.0024695	-0.150979	0.025521	-0.341652	0.070517	-0.040212	-0.094145	-0.492304	-0.0173515	-0.058402	-0.405986	-0.48068	0.241156	-0.0084585	0.0305845	-0.237998	0.337754	-0.360571	0.004463	-0.260752	0.00563	-0.218683	-0.043468	-0.197173	0.014748	-0.234077	-0.234413	-0.262321	
5.22003	0	0	-0.004745	-0.19399	-0.101324	-0.372737	0.00089575	-0.155522	0.022912	-0.345488	0.0699495	-0.0476565	-0.095579	-0.503588	-0.0179438	-0.069822	-0.396027	-0.483819	0.234187	-0.0102942	0.0208783	-0.238099	0.333906	-0.363185	-0.0017965	-0.261277	0.0038885	-0.213761	-0.052239	-0.187888	0.014748	-0.234077	-0.242302	-0.25395	
5.23224	0	0	-0.001893	-0.20205	-0.098567	-0.38053	-0.000678	-0.160066	0.020303	-0.349325	0.069382	-0.055101	-0.097013	-0.514871	-0.018536	-0.081242	-0.386068	-0.486958	0.227217	-0.01213	0.011172	-0.238201	0.330057	-0.3658	-0.008056	-0.261803	0.002147	-0.208839	-0.06101	-0.178602	0.014748	-0.234077	-0.250192	-0.245578	
5.23987	0	0	-0.00331875	-0.198021	-0.0999452	-0.376634	0.00346025	-0.16277	0.019028	-0.345722	0.069382	-0.055101	-0.088082	-0.524775	-0.0158225	-0.088911	-0.383003	-0.487276	0.229176	-0.0176668	0.011172	-0.238201	0.331237	-0.369134	-0.005933	-0.267803	0.00014625	-0.213207	-0.0577388	-0.187847	0.011155	-0.236728	-0.253637	-0.249759	
5.25665	0	0	-0.0047445	-0.193991	-0.101324	-0.372738	0.0075985	-0.165474	0.017753	-0.342118	0.069382	-0.055101	-0.079151	-0.53468	-0.013109	-0.09658	-0.379939	-0.487594	0.231135	-0.0232035	0.011172	-0.238201	0.332417	-0.372468	-0.00381	-0.273803	-0.0018545	-0.217575	-0.0544675	-0.197092	0.007562	-0.239379	-0.257081	-0.25394	
5.27496	0	0	-0.00617025	-0.189962	-0.102702	-0.368843	0.0117368	-0.168178	0.016478	-0.338515	0.069382	-0.055101	-0.07022	-0.544585	-0.0103955	-0.104249	-0.376875	-0.487911	0.233094	-0.0287403	0.011172	-0.238201	0.333596	-0.375803	-0.001687	-0.279802	-0.00385525	-0.221942	-0.0511962	-0.206336	0.003969	-0.24203	-0.260525	-0.258121	
5.29632	0	0	-0.007596	-0.185933	-0.10408	-0.364947	0.015875	-0.170882	0.015203	-0.334912	0.069382	-0.055101	-0.061289	-0.554489	-0.007682	-0.111918	-0.37381	-0.488229	0.235053	-0.034277	0.011172	-0.238201	0.334776	-0.379137	0.000436	-0.285802	-0.005856	-0.22631	-0.047925	-0.215581	0.000376	-0.244681	-0.26397	-0.262302	
5.31616	0	0	-0.003827	-0.182196	-0.101029	-0.360947	0.0174508	-0.16634	0.017811	-0.331072	0.0723157	-0.0452917	-0.0617218	-0.537917	-0.00377275	-0.0967695	-0.379201	-0.481336	0.243061	-0.0246	0.0193943	-0.233906	0.336264	-0.36985	0.0129645	-0.28476	-0.0029845	-0.224404	-0.0369208	-0.215664	-0.00077425	-0.24143	-0.257565	-0.266487	
5.336	0	0	-5.8E-05	-0.178459	-0.0979775	-0.356947	0.0190265	-0.161797	0.020419	-0.327233	0.0752495	-0.0354825	-0.0621545	-0.521346	0.0001365	-0.081621	-0.384592	-0.474443	0.251069	-0.014923	0.0276165	-0.22961	0.337752	-0.360564	0.025493	-0.283718	-0.000113	-0.222497	-0.0259165	-0.215747	-0.0019245	-0.23818	-0.251161	-0.270671	
5.36041	0	0	0.003711	-0.174723	-0.0949263	-0.352948	0.0206022	-0.157254	0.023027	-0.323394	0.0781832	-0.0256733	-0.0625873	-0.504774	0.00404575	-0.0664725	-0.389983	-0.46755	0.259076	-0.005246	0.0358388	-0.225315	0.33924	-0.351277	0.0380215	-0.282677	0.0027585	-0.22059	-0.0149123	-0.215831	-0.00307475	-0.23493	-0.244756	-0.274856	
5.38025	0	0	0.00748	-0.170986	-0.091875	-0.348948	0.022178	-0.152712	0.025635	-0.319554	0.081117	-0.015864	-0.06302	-0.488202	0.007955	-0.051324	-0.395374	-0.460657	0.267084	0.004431	0.044061	-0.22102	0.340728	-0.34199	0.05055	-0.281635	0.00563	-0.218684	-0.003908	-0.215914	-0.004225	-0.231679	-0.238351	-0.279041	
5.39398	0	0	0.00228475	-0.170692	-0.0963052	-0.34905	0.0197478	-0.154839	0.023027	-0.323394	0.0796502	-0.0207712	-0.06446	-0.499482	0.006001	-0.0589042	-0.396886	-0.464724	0.264138	0.0127552	0.0425765	-0.216824	0.340728	-0.34199	0.042158	-0.276151	0.00214525	-0.208835	-0.0071825	-0.206659	-0.00178425	-0.225772	-0.241311	-0.270675	
5.40924	0	0	-0.0029105	-0.170397	-0.100736	-0.349153	0.0173175	-0.156967	0.020419	-0.327233	0.0781835	-0.0256785	-0.0659	-0.510761	0.004047	-0.0664845	-0.398397	-0.468792	0.261193	0.0210795	0.041092	-0.212628	0.340728	-0.34199	0.033766	-0.270668	-0.0013395	-0.198986	-0.010457	-0.197405	0.0006565	-0.219865	-0.244272	-0.262309	
5.41839	0	0	-0.00810575	-0.170103	-0.105166	-0.349255	0.0148872	-0.159094	0.017811	-0.331072	0.0767168	-0.0305857	-0.06734	-0.522041	0.002093	-0.0740647	-0.399909	-0.472859	0.258247	0.0294038	0.0396075	-0.208433	0.340728	-0.34199	0.025374	-0.265184	-0.00482425	-0.189137	-0.0137315	-0.18815	0.00309725	-0.213957	-0.247232	-0.253944	
5.42602	0	0	-0.013301	-0.169809	-0.109596	-0.349358	0.012457	-0.161221	0.015203	-0.334912	0.07525	-0.035493	-0.06878	-0.53332	0.000139	-0.081645	-0.40142	-0.476927	0.255302	0.037728	0.038123	-0.204237	0.340728	-0.34199	0.016982	-0.2597	-0.008309	-0.179288	-0.017006	-0.178896	0.005538	-0.20805	-0.250192	-0.245578	
5.42755	0	0	-0.00667875	-0.174136	-0.103786	-0.353154	0.012457	-0.161221	0.019087	-0.334679	0.0770485	-0.0405757	-0.06878	-0.53332	0.0061695	-0.0855855	-0.398357	-0.477243	0.256284	0.0349525	0.038123	-0.204237	0.348123	-0.349388	0.0107225	-0.260226	-0.00656625	-0.184214	-0.0153682	-0.183524	0.0066895	-0.211304	-0.253637	-0.249759	
5.4306	0	0	-5.65E-05	-0.178463	-0.0979765	-0.356951	0.012457	-0.161221	0.022971	-0.334446	0.078847	-0.0456585	-0.06878	-0.53332	0.0122	-0.089526	-0.395294	-0.47756	0.257266	0.032177	0.038123	-0.204237	0.355518	-0.356787	0.004463	-0.260752	-0.0048235	-0.18914	-0.0137305	-0.188153	0.007841	-0.214558	-0.257081	-0.25394	
5.4306	0	0	0.00656575	-0.182791	-0.0921668	-0.360747	0.012457	-0.161221	0.026855	-0.334212	0.0806455	-0.0507413	-0.06878	-0.53332	0.0182305	-0.0934665	-0.392232	-0.477876	0.258249	0.0294015	0.038123	-0.204237	0.362914	-0.364186	-0.0017965	-0.261277	-0.00308075	-0.194065	-0.0120928	-0.192781	0.0089925	-0.217811	-0.260525	-0.258121	
5.42755	0	0	0.013188	-0.187118	-0.086357	-0.364544	0.012457	-0.161221	0.030739	-0.333979	0.082444	-0.055824	-0.06878	-0.53332	0.024261	-0.097407	-0.389169	-0.478193	0.259231	0.026626	0.038123	-0.204237	0.370309	-0.371584	-0.008056	-0.261803	-0.001338	-0.198991	-0.010455	-0.197409	0.010144	-0.221065	-0.26397	-0.262302	
5.42297	0	0	0.011761	-0.183085	-0.0904975	-0.352842	0.0131765	-0.154258	0.0359602	-0.326294	0.087181	-0.0511018	-0.06027	-0.52666	0.0281765	-0.0822398	-0.385367	-0.472248	0.263261	0.0368057	0.0400077	-0.195782	0.367947	-0.364907	-0.0017965	-0.261277	0.00327725	-0.202007	-0.00330825	-0.202079	0.010144	-0.221065	-0.26397	-0.262302	
5.42145	0	0	0.010334	-0.179052	-0.094638	-0.34114	0.013896	-0.147296	0.0411815	-0.318609	0.091918	-0.0463795	-0.05176	-0.520001	0.032092	-0.0670725	-0.381566	-0.466302	0.267292	0.0469855	0.0418925	-0.187328	0.365584	-0.35823	0.004463	-0.260752	0.0078925	-0.205022	0.0038385	-0.206749	0.010144	-0.221065	-0.26397	-0.262302	
5.41992	0	0	0.008907	-0.175019	-0.0987785	-0.329438	0.0146155	-0.140333	0.0464028	-0.310925	0.096655	-0.0416572	-0.04325	-0.513341	0.0360075	-0.0519052	-0.377764	-0.460357	0.271322	0.0571653	0.0437773	-0.178873	0.363221	-0.351553	0.0107225	-0.260226	0.0125077	-0.208038	0.0109853	-0.211419	0.010144	-0.221065	-0.26397	-0.262302	
5.41687	0	0	0.00748	-0.170986	-0.102919	-0.317736	0.015335	-0.133371	0.051624	-0.30324	0.101392	-0.036935	-0.03474	-0.506681	0.039923	-0.036738	-0.373962	-0.454412	0.275352	0.067345	0.045662	-0.170419	0.360859	-0.344876	0.016982	-0.2597	0.017123	-0.211054	0.018132	-0.216089	0.010144	-0.221065	-0.26397	-0.262302	
5.41077	0	0	0.003711	-0.174723	-0.0973995	-0.333335	0.0137605	-0.137917	0.0490128	-0.307084	0.093957	-0.034032	-0.0399342	-0.507363	0.0325223	-0.0289435	-0.377804	-0.451902	0.279383	0.0775485	0.0490343	-0.166157	0.36353	-0.338914	0.021121	-0.253164	0.0118912	-0.196268	0.0187285	-0.202235	0.0137385	-0.21841	-0.260525	-0.258121	
5.40161	0	0	-5.8E-05	-0.178459	-0.09188	-0.348935	0.012186	-0.142464	0.0464015	-0.310928	0.086522	-0.031129	-0.0451285	-0.508045	0.0251215	-0.021149	-0.381645	-0.449391	0.283413	0.087752	0.0524065	-0.161896	0.366201	-0.332952	0.02526	-0.246628	0.0066595	-0.181482	0.019325	-0.18838	0.017333	-0.215755	-0.257081	-0.25394	
5.39398	0	0	-0.003827	-0.182196	-0.0863605	-0.364534	0.0106115	-0.14701	0.0437903	-0.314773	0.079087	-0.028226	-0.0503227	-0.508726	0.0177208	-0.0133545	-0.385487	-0.446881	0.287444	0.0979555	0.0557788	-0.157635	0.368873	-0.326991	0.029399	-0.240092	0.00142775	-0.166697	0.0199215	-0.174526	0.0209275	-0.213099	-0.253637	-0.249759	
5.38177	0	0	-0.007596	-0.185933	-0.080841	-0.380133	0.009037	-0.151557	0.041179	-0.318617	0.071652	-0.025323	-0.055517	-0.509408	0.01032	-0.00556	-0.389328	-0.444371	0.291475	0.108159	0.059151	-0.153373	0.371544	-0.321029	0.033538	-0.233556	-0.003804	-0.151911	0.020518	-0.160671	0.024522	-0.210444	-0.250192	-0.245578	
5.37414	0	0	-0.00617025	-0.189962	-0.0866507	-0.376337	0.0107465	-0.156388	0.0437315	-0.325831	0.073451	-0.0304072	-0.053642	-0.514706	0.0116817	-0.0094085	-0.38471	-0.449075	0.290444	0.100272	0.0542915	-0.153431	0.375091	-0.331054	0.0315233	-0.246096	-0.00580225	-0.156291	0.0254363	-0.174571	0.0220785	-0.216352	-0.253637	-0.249759	
5.36651	0	0	-0.0047445	-0.193991	-0.0924605	-0.37254	0.012456	-0.16122	0.046284	-0.333044	0.07525	-0.0354915	-0.051767	-0.520005	0.0130435	-0.013257	-0.380092	-0.45378	0.289413	0.0923845	0.049432	-0.153489	0.378638	-0.341079	0.0295085	-0.258636	-0.0078005	-0.160671	0.0303545	-0.18847	0.019635	-0.22226	-0.257081	-0.25394	
5.35126	0	0	-0.00331875	-0.198021	-0.0982703	-0.368744	0.0141655	-0.166051	0.0488365	-0.340258	0.077049	-0.0405758	-0.049892	-0.525304	0.0144052	-0.0171055	-0.375475	-0.458484	0.288382	0.0844972	0.0445725	-0.153547	0.382186	-0.351104	0.0274938	-0.271175	-0.00979875	-0.165052	0.0352727	-0.20237	0.0171915	-0.228169	-0.260525	-0.258121	
5.34057	0	0	-0.001893	-0.20205	-0.10408	-0.364947	0.015875	-0.170882	0.051389	-0.347472	0.078848	-0.04566	-0.048017	-0.530602	0.015767	-0.020954	-0.370857	-0.463188	0.287351	0.07661	0.039713	-0.153605	0.385733	-0.361129	0.025479	-0.283715	-0.011797	-0.169432	0.040191	-0.21627	0.014748	-0.234077	-0.26397	-0.262302	
5.33142	0	0	0.00187725	-0.198317	-0.101029	-0.360947	0.0207377	-0.166629	0.0566165	-0.339792	0.0812155	-0.0432982	-0.0446977	-0.524622	0.017719	-0.0133493	-0.368607	-0.452842	0.296311	0.0728945	0.0509247	-0.157698	0.385733	-0.361129	0.027602	-0.289715	-0.0054385	-0.177375	0.037949	-0.225474	0.006415	-0.236129	-0.262491	-0.266482	
5.32074	0	0	0.0056475	-0.194584	-0.0979775	-0.356947	0.0256005	-0.162376	0.061844	-0.332111	0.083583	-0.0409365	-0.0413785	-0.518641	0.019671	-0.0057445	-0.366357	-0.442497	0.305272	0.069179	0.0621365	-0.161791	0.385733	-0.361129	0.029725	-0.295714	0.00092	-0.185317	0.035707	-0.234679	-0.001918	-0.238181	-0.261011	-0.270662	
5.31158	0	0	0.00941775	-0.190851	-0.0949263	-0.352948	0.0304633	-0.158123	0.0670715	-0.32443	0.0859505	-0.0385748	-0.0380593	-0.512661	0.021623	0.00186025	-0.364107	-0.432152	0.314232	0.0654635	0.0733483	-0.165883	0.385733	-0.361129	0.031848	-0.301714	0.0072785	-0.19326	0.033465	-0.243883	-0.010251	-0.240232	-0.259532	-0.274842	
5.3009	0	0	0.013188	-0.187118	-0.091875	-0.348948	0.035326	-0.15387	0.072299	-0.31675	0.088318	-0.036213	-0.03474	-0.506681	0.023575	0.009465	-0.361857	-0.421806	0.323192	0.061748	0.08456	-0.169976	0.385733	-0.361129	0.033971	-0.307714	0.013637	-0.201203	0.031223	-0.253087	-0.018584	-0.242284	-0.258053	-0.279022	
5.2948	0	0	0.007992	-0.186822	-0.0904955	-0.352847	0.0328942	-0.155997	0.0696848	-0.320592	0.088318	-0.036213	-0.036617	-0.501376	0.0208472	0.0171738	-0.363458	-0.408924	0.324228	0.0696347	0.0815817	-0.161559	0.390774	-0.361855	0.0381158	-0.301194	0.0165112	-0.199293	0.0240763	-0.248417	-0.021023	-0.248179	-0.251648	-0.283207	
5.28412	0	0	0.002796	-0.186526	-0.089116	-0.356746	0.0304625	-0.158124	0.0670705	-0.324434	0.088318	-0.036213	-0.038494	-0.496071	0.0181195	0.0248825	-0.365058	-0.396042	0.325263	0.0775215	0.0786035	-0.153142	0.395815	-0.362581	0.0422605	-0.294675	0.0193855	-0.197383	0.0169295	-0.243748	-0.023462	-0.254074	-0.245244	-0.287392	
5.27344	0	0	-0.0024	-0.186229	-0.0877365	-0.360645	0.0280308	-0.160251	0.0644563	-0.328277	0.088318	-0.036213	-0.040371	-0.490767	0.0153917	0.0325913	-0.366659	-0.38316	0.326299	0.0854083	0.0756253	-0.144725	0.400857	-0.363307	0.0464052	-0.288155	0.0222598	-0.195473	0.00978275	-0.239078	-0.025901	-0.259968	-0.238839	-0.291576	
5.26428	0	0	-0.007596	-0.185933	-0.086357	-0.364544	0.025599	-0.162378	0.061842	-0.332119	0.088318	-0.036213	-0.042248	-0.485462	0.012664	0.0403	-0.36826	-0.370278	0.327334	0.093295	0.072647	-0.136308	0.405898	-0.364033	0.05055	-0.281635	0.025134	-0.193563	0.002636	-0.234408	-0.02834	-0.265863	-0.232435	-0.295761	
5.2536	0	0	-0.00474525	-0.193989	-0.0894095	-0.36854	0.0198842	-0.164215	0.0592287	-0.335957	0.088647	-0.0461958	-0.0455653	-0.491449	0.012078	0.028835	-0.359826	-0.369016	0.325261	0.0775332	0.0786007	-0.153134	0.399361	-0.372593	0.0506467	-0.300142	0.0222598	-0.195473	-0.00510375	-0.243551	-0.0355097	-0.271151	-0.240806	-0.299923	
5.23987	0	0	-0.0018945	-0.202046	-0.092462	-0.372537	0.0141695	-0.166051	0.0566155	-0.339796	0.088976	-0.0561785	-0.0488825	-0.497435	0.011492	0.01737	-0.351393	-0.367754	0.323188	0.0617715	0.0845545	-0.169961	0.392825	-0.381153	0.0507435	-0.31865	0.0193855	-0.197383	-0.0128435	-0.252694	-0.0426795	-0.276438	-0.249177	-0.304084	
5.23071	0	0	0.00095625	-0.210102	-0.0955145	-0.376533	0.00845475	-0.167888	0.0540023	-0.343634	0.089305	-0.0661613	-0.0521997	-0.503421	0.010906	0.005905	-0.342959	-0.366491	0.321116	0.0460098	0.0905083	-0.186787	0.386288	-0.389712	0.0508403	-0.337157	0.0165112	-0.199293	-0.0205833	-0.261836	-0.0498492	-0.281726	-0.257549	-0.308246	
5.2185	0	0	0.003807	-0.218159	-0.098567	-0.38053	0.00274	-0.169725	0.051389	-0.347472	0.089634	-0.076144	-0.055517	-0.509408	0.01032	-0.00556	-0.334526	-0.365229	0.319043	0.030248	0.096462	-0.203613	0.379752	-0.398272	0.050937	-0.355664	0.013637	-0.201203	-0.028323	-0.270979	-0.057019	-0.287013	-0.26592	-0.312408	
5.2063	0	0	0.002382	-0.214132	-0.0941355	-0.380431	0.010164	-0.17272	0.0565548	-0.350847	0.0887355	-0.0736045	-0.055517	-0.509408	0.016359	-0.009506	-0.32608	-0.363969	0.318986	0.0196093	0.0930823	-0.207863	0.384468	-0.411601	0.044672	-0.356173	0.012506	-0.208034	-0.0360528	-0.280099	-0.052436	-0.299965	-0.261493	-0.324919	
5.20019	0	0	0.000957	-0.210104	-0.089704	-0.380331	0.017588	-0.175714	0.0617205	-0.354222	0.087837	-0.071065	-0.055517	-0.509408	0.022398	-0.013452	-0.317634	-0.362708	0.318928	0.0089705	0.0897025	-0.212114	0.389185	-0.42493	0.038407	-0.356683	0.011375	-0.214865	-0.0437825	-0.28922	-0.047853	-0.312918	-0.257066	-0.33743	
5.18646	0	5	-0.000468	-0.206077	-0.0852725	-0.380232	0.025012	-0.178709	0.0668863	-0.357598	0.0869385	-0.0685255	-0.055517	-0.509408	0.028437	-0.017398	-0.309188	-0.361447	0.318871	-0.00166825	0.0863228	-0.216365	0.393901	-0.43826	0.032142	-0.357193	0.010244	-0.221695	-0.0515123	-0.29834	-0.04327	-0.32587	-0.25264	-0.34994	
5.17883	0	5	-0.001893	-0.20205	-0.080841	-0.380133	0.032436	-0.181704	0.072052	-0.360973	0.08604	-0.065986	-0.055517	-0.509408	0.034476	-0.021344	-0.300742	-0.360187	0.318813	-0.012307	0.082943	-0.220615	0.398618	-0.451589	0.025877	-0.357702	0.009113	-0.228526	-0.059242	-0.30746	-0.038687	-0.338822	-0.248213	-0.362451	
5.16815	0	5	-0.00851	-0.197726	-0.0849797	-0.368436	0.0241575	-0.176295	0.0617238	-0.354224	0.084242	-0.0609045	-0.0521997	-0.503421	0.037794	-0.0175907	-0.295365	-0.358612	0.32182	-0.010003	0.0878095	-0.220566	0.398618	-0.451589	0.038414	-0.356684	0.013728	-0.231542	-0.059242	-0.30746	-0.0445605	-0.334984	-0.25166	-0.366603	
5.159	0	5	-0.015127	-0.193403	-0.0891185	-0.356739	0.015879	-0.170885	0.0513955	-0.347476	0.082444	-0.055823	-0.0488825	-0.497435	0.041112	-0.0138375	-0.289988	-0.357036	0.324826	-0.007699	0.092676	-0.220518	0.398618	-0.451589	0.050951	-0.355666	0.018343	-0.234557	-0.059242	-0.30746	-0.050434	-0.331146	-0.255107	-0.370756	
5.15137	0	5	-0.021744	-0.189079	-0.0932572	-0.345042	0.0076005	-0.165475	0.0410672	-0.340728	0.080646	-0.0507415	-0.0455653	-0.491449	0.04443	-0.0100842	-0.28461	-0.355461	0.327832	-0.005395	0.0975425	-0.220469	0.398618	-0.451589	0.063488	-0.354649	0.022958	-0.237572	-0.059242	-0.30746	-0.0563075	-0.327308	-0.258555	-0.374908	
5.13763	0	5	-0.028361	-0.184755	-0.097396	-0.333345	-0.000678	-0.160066	0.030739	-0.333979	0.078848	-0.04566	-0.042248	-0.485462	0.047748	-0.006331	-0.279233	-0.353886	0.330839	-0.003091	0.102409	-0.22042	0.398618	-0.451589	0.076025	-0.353631	0.027573	-0.240588	-0.059242	-0.30746	-0.062181	-0.32347	-0.262002	-0.37906	
5.13	0	5	-0.028361	-0.184755	-0.103206	-0.329549	0.00273825	-0.169721	0.0332892	-0.341187	0.0750143	-0.0529172	-0.038495	-0.496068	0.0438345	-0.0215225	-0.28383	-0.357667	0.323786	-0.01554	0.100513	-0.228862	0.394431	-0.46675	0.0656053	-0.360632	0.0192158	-0.237018	-0.0718415	-0.302765	-0.0574525	-0.324072	-0.268392	-0.374885	
5.12085	0	5	-0.028361	-0.184755	-0.109016	-0.325753	0.0061545	-0.179376	0.0358395	-0.348395	0.0711805	-0.0601745	-0.034742	-0.506675	0.039921	-0.036714	-0.288427	-0.361447	0.316732	-0.027989	0.098616	-0.237305	0.390244	-0.48191	0.0551855	-0.367633	0.0108585	-0.233449	-0.084441	-0.298071	-0.052724	-0.324673	-0.274783	-0.370709	
5.11474	0	5	-0.028361	-0.184755	-0.114825	-0.321956	0.00957075	-0.18903	0.0383898	-0.355602	0.0673467	-0.0674318	-0.030989	-0.517281	0.0360075	-0.0519055	-0.293024	-0.365228	0.309679	-0.040438	0.0967195	-0.245747	0.386057	-0.49707	0.0447657	-0.374635	0.00250125	-0.22988	-0.0970405	-0.293376	-0.0479955	-0.325275	-0.281173	-0.366534	
5.09643	0	5	-0.028361	-0.184755	-0.120635	-0.31816	0.012987	-0.198685	0.04094	-0.36281	0.063513	-0.074689	-0.027236	-0.527887	0.032094	-0.067097	-0.297621	-0.369009	0.302626	-0.052887	0.094823	-0.254189	0.38187	-0.512231	0.034346	-0.381636	-0.005856	-0.22631	-0.10964	-0.288681	-0.043267	-0.325877	-0.287563	-0.362358	
5.09186	0	5	-0.024596	-0.181018	-0.107338	-0.317844	0.0121332	-0.196272	0.0435523	-0.358976	0.0685733	-0.0799462	-0.0253613	-0.533185	0.0361705	-0.0786178	-0.288342	-0.378462	0.296557	-0.0680608	0.0944068	-0.266804	0.381535	-0.524767	0.0344253	-0.400058	-0.0061175	-0.235587	-0.10476	-0.302473	-0.0468507	-0.32851	-0.28609	-0.366521	
5.08118	0	5	-0.020831	-0.177282	-0.094041	-0.317528	0.0112795	-0.19386	0.0461645	-0.355141	0.0736335	-0.0852035	-0.0234865	-0.538484	0.040247	-0.0901385	-0.279062	-0.387915	0.290487	-0.0832345	0.0939905	-0.27942	0.3812	-0.537303	0.0345045	-0.41848	-0.006379	-0.244864	-0.0998795	-0.316265	-0.0504345	-0.331144	-0.284617	-0.370683	
5.06897	0	5	-0.017066	-0.173545	-0.080744	-0.317213	0.0104258	-0.191447	0.0487767	-0.351307	0.0786937	-0.0904608	-0.0216117	-0.543783	0.0443235	-0.101659	-0.269782	-0.397368	0.284417	-0.0984083	0.0935742	-0.292036	0.380865	-0.549838	0.0345837	-0.436901	-0.0066405	-0.254141	-0.0949993	-0.330058	-0.0540183	-0.333778	-0.283145	-0.374845	
5.06286	0	5	-0.013301	-0.169809	-0.067447	-0.316897	0.009572	-0.189034	0.051389	-0.347472	0.083754	-0.095718	-0.019737	-0.549081	0.0484	-0.11318	-0.260503	-0.406821	0.278348	-0.113582	0.093158	-0.304651	0.38053	-0.562374	0.034663	-0.455323	-0.006902	-0.263418	-0.090119	-0.34385	-0.057602	-0.336411	-0.281672	-0.379008	
5.05218	0	5	-0.0161555	-0.161742	-0.065775	-0.308974	0.0128565	-0.189325	0.0540023	-0.343634	0.0843255	-0.088285	-0.018289	-0.5378	0.0490025	-0.101762	-0.262063	-0.402412	0.283304	-0.116821	0.0946393	-0.308837	0.375502	-0.561637	0.0430385	-0.460796	-0.00603325	-0.265874	-0.083008	-0.348497	-0.0481407	-0.337618	-0.284618	-0.370681	
5.05371	0	5	-0.01901	-0.153674	-0.064103	-0.30105	0.016141	-0.189615	0.0566155	-0.339796	0.084897	-0.080852	-0.016841	-0.526519	0.049605	-0.0903435	-0.263623	-0.398003	0.288261	-0.12006	0.0961205	-0.313022	0.370474	-0.560899	0.051414	-0.466268	-0.0051645	-0.268329	-0.075897	-0.353143	-0.0386795	-0.338825	-0.287565	-0.362354	
5.05371	0	5	-0.0218645	-0.145607	-0.062431	-0.293126	0.0194255	-0.189906	0.0592287	-0.335957	0.0854685	-0.073419	-0.015393	-0.515237	0.0502075	-0.0789253	-0.265183	-0.393594	0.293218	-0.123298	0.0976018	-0.317208	0.365446	-0.560162	0.0597895	-0.471741	-0.00429575	-0.270785	-0.068786	-0.35779	-0.0292182	-0.340032	-0.290511	-0.354027	
5.06897	0	5	-0.024719	-0.13754	-0.060759	-0.285203	0.02271	-0.190197	0.061842	-0.332119	0.08604	-0.065986	-0.013945	-0.503956	0.05081	-0.067507	-0.266743	-0.389185	0.298174	-0.126537	0.099083	-0.321394	0.360418	-0.559425	0.068165	-0.477214	-0.003427	-0.273241	-0.061675	-0.362437	-0.019757	-0.341239	-0.293457	-0.3457	
5.09796	0	5	-0.0166693	-0.145901	-0.060759	-0.285203	0.0211327	-0.194731	0.0643945	-0.339332	0.0854685	-0.073419	-0.0172678	-0.509939	0.0441728	-0.074982	-0.266743	-0.389185	0.294195	-0.12606	0.0942205	-0.321434	0.366619	-0.563476	0.0556408	-0.478197	-0.000555	-0.271341	-0.0610668	-0.348693	-0.0196072	-0.328883	-0.291492	-0.337371	
5.14068	0	5	-0.0086195	-0.154263	-0.060759	-0.285203	0.0195555	-0.199265	0.066947	-0.346546	0.084897	-0.080852	-0.0205905	-0.515921	0.0375355	-0.082457	-0.266743	-0.389185	0.290215	-0.125583	0.089358	-0.321473	0.372819	-0.567528	0.0431165	-0.479181	0.002317	-0.269441	-0.0604585	-0.334948	-0.0194575	-0.316527	-0.289526	-0.329041	
5.19714	0	5	-0.00056975	-0.162625	-0.060759	-0.285203	0.0179783	-0.203799	0.0694995	-0.35376	0.0843255	-0.088285	-0.0239133	-0.521904	0.0308983	-0.089932	-0.266743	-0.389185	0.286236	-0.125106	0.0844955	-0.321512	0.37902	-0.57158	0.0305923	-0.480164	0.005189	-0.267541	-0.0598503	-0.321204	-0.0193078	-0.304171	-0.28756	-0.320711	
5.26276	0	5	0.00748	-0.170986	-0.060759	-0.285203	0.016401	-0.208333	0.072052	-0.360973	0.083754	-0.095718	-0.027236	-0.527887	0.024261	-0.097407	-0.266743	-0.389185	0.282257	-0.124629	0.079633	-0.321552	0.385221	-0.575631	0.018068	-0.481147	0.008061	-0.265641	-0.059242	-0.30746	-0.019158	-0.291815	-0.285595	-0.312382	
5.34515	0	5	0.0112515	-0.167245	-0.0563177	-0.285097	0.0172542	-0.210744	0.0759448	-0.360745	0.0846515	-0.0982548	-0.0253613	-0.533185	0.0330105	-0.109022	-0.262139	-0.385409	0.282185	-0.135189	0.0840702	-0.334092	0.387565	-0.582256	0.0160267	-0.49354	0.003187	-0.271894	-0.0647305	-0.307412	-0.012125	-0.298903	-0.29051	-0.312377	
5.43365	0	5	0.015023	-0.163505	-0.0518765	-0.284991	0.0181075	-0.213155	0.0798375	-0.360516	0.085549	-0.100792	-0.0234865	-0.538484	0.04176	-0.120638	-0.257535	-0.381633	0.282113	-0.145749	0.0885075	-0.346632	0.38991	-0.588881	0.0139855	-0.505933	-0.001687	-0.278147	-0.070219	-0.307364	-0.005092	-0.305991	-0.295424	-0.312372	
5.52063	0	5	0.0187945	-0.159765	-0.0474352	-0.284885	0.0189607	-0.215567	0.0837303	-0.360287	0.0864465	-0.103328	-0.0216117	-0.543783	0.0505095	-0.132253	-0.252931	-0.377856	0.282041	-0.156308	0.0929447	-0.359172	0.392254	-0.595506	0.0119443	-0.518326	-0.006561	-0.284399	-0.0757075	-0.307315	0.001941	-0.313079	-0.300339	-0.312366	
5.60303	0	5	0.022566	-0.156024	-0.042994	-0.284779	0.019814	-0.217978	0.087623	-0.360059	0.087344	-0.105865	-0.019737	-0.549081	0.059259	-0.143869	-0.248327	-0.37408	0.281969	-0.166868	0.097382	-0.371712	0.394598	-0.602131	0.009903	-0.530719	-0.011435	-0.290652	-0.081196	-0.307267	0.008974	-0.320167	-0.305254	-0.312361	
5.6839	0	5	0.0182775	-0.143904	-0.0396502	-0.268888	0.020538	-0.211033	0.0903033	-0.345153	0.092083	-0.101157	-0.0112073	-0.542427	0.0659095	-0.136413	-0.239108	-0.366515	0.289928	-0.167827	0.100767	-0.367499	0.400803	-0.606186	0.0077985	-0.524771	-0.00969925	-0.295558	-0.074079	-0.311918	0.008974	-0.320167	-0.305254	-0.312361	
5.76477	0	5	0.013989	-0.131783	-0.0363065	-0.252997	0.021262	-0.204088	0.0929835	-0.330246	0.096822	-0.0964495	-0.0026775	-0.535773	0.07256	-0.128957	-0.229888	-0.358951	0.297886	-0.168787	0.104153	-0.363285	0.407008	-0.61024	0.005694	-0.518824	-0.0079635	-0.300463	-0.066962	-0.316568	0.008974	-0.320167	-0.305254	-0.312361	
5.82886	0	5	0.0097005	-0.119663	-0.0329627	-0.237106	0.021986	-0.197142	0.0956638	-0.315339	0.101561	-0.0917417	0.00585225	-0.529119	0.0792105	-0.1215	-0.220669	-0.351387	0.305845	-0.169746	0.107538	-0.359071	0.413214	-0.614295	0.0035895	-0.512876	-0.00622775	-0.305368	-0.059845	-0.321219	0.008974	-0.320167	-0.305254	-0.312361	
5.89294	0	5	0.005412	-0.107543	-0.029619	-0.221215	0.02271	-0.190197	0.098344	-0.300433	0.1063	-0.087034	0.014382	-0.522465	0.085861	-0.114044	-0.21145	-0.343822	0.313803	-0.170706	0.110924	-0.354858	0.419419	-0.61835	0.001485	-0.506928	-0.004492	-0.310274	-0.052728	-0.325869	0.008974	-0.320167	-0.305254	-0.312361	
5.9494	0	5	0.005412	-0.107543	-0.0310075	-0.21729	0.0235638	-0.19261	0.094448	-0.300666	0.101235	-0.081772	0.0106248	-0.511846	0.0743765	-0.0947175	-0.209926	-0.339715	0.316884	-0.157856	0.111348	-0.342266	0.415902	-0.60841	0.00563075	-0.500483	-0.0024885	-0.305925	-0.0504927	-0.31671	0.0114208	-0.314285	-0.303293	-0.30402	
6.00586	0	5	0.005412	-0.107543	-0.032396	-0.213366	0.0244175	-0.195024	0.090552	-0.300899	0.09617	-0.07651	0.0068675	-0.501227	0.062892	-0.075391	-0.208402	-0.335608	0.319965	-0.145006	0.111773	-0.329674	0.412385	-0.598471	0.0097765	-0.494038	-0.000485	-0.301577	-0.0482575	-0.30755	0.0138675	-0.308403	-0.301331	-0.295679	
6.05621	0	5	0.005412	-0.107543	-0.0337845	-0.209442	0.0252712	-0.197437	0.086656	-0.301133	0.091105	-0.071248	0.00311025	-0.490608	0.0514075	-0.0560645	-0.206877	-0.331501	0.323046	-0.132156	0.112198	-0.317082	0.408868	-0.588531	0.0139223	-0.487592	0.0015185	-0.297228	-0.0460223	-0.298391	0.0163142	-0.302522	-0.29937	-0.287338	
6.09588	0	5	0.005412	-0.107543	-0.035173	-0.205517	0.026125	-0.19985	0.08276	-0.301366	0.08604	-0.065986	-0.000647	-0.479989	0.039923	-0.036738	-0.205353	-0.327394	0.326127	-0.119306	0.112622	-0.30449	0.405351	-0.578592	0.018068	-0.481147	0.003522	-0.292879	-0.043787	-0.289231	0.018761	-0.29664	-0.297408	-0.278997	
6.1264	0	5	0.0106135	-0.107833	-0.0307248	-0.205405	0.0228405	-0.199559	0.091834	-0.304516	0.088735	-0.0736025	0.00123225	-0.4853	0.0426448	-0.0444302	-0.202262	-0.327712	0.325076	-0.127116	0.112622	-0.30449	0.413906	-0.589277	0.0160267	-0.49354	-0.0010855	-0.289868	-0.043787	-0.289231	0.0200585	-0.287501	-0.298886	-0.274821	
6.1615	0	5	0.015815	-0.108123	-0.0262765	-0.205293	0.019556	-0.199267	0.100908	-0.307667	0.09143	-0.081219	0.0031115	-0.490611	0.0453665	-0.0521225	-0.19917	-0.328031	0.324024	-0.134927	0.112622	-0.30449	0.422461	-0.599962	0.0139855	-0.505933	-0.005693	-0.286857	-0.043787	-0.289231	0.021356	-0.278363	-0.300364	-0.270645	
6.17981	0	5	0.0210165	-0.108413	-0.0218283	-0.205181	0.0162715	-0.198976	0.109982	-0.310817	0.094125	-0.0888355	0.00499075	-0.495922	0.0480882	-0.0598147	-0.196078	-0.328349	0.322972	-0.142737	0.112622	-0.30449	0.431015	-0.610647	0.0119443	-0.518326	-0.0103005	-0.283847	-0.043787	-0.289231	0.0226535	-0.269224	-0.301841	-0.266469	
6.18896	0	5	0.026218	-0.108703	-0.01738	-0.205069	0.012987	-0.198685	0.119056	-0.313967	0.09682	-0.096452	0.00687	-0.501233	0.05081	-0.067507	-0.192987	-0.328667	0.321921	-0.150547	0.112622	-0.30449	0.43957	-0.621332	0.009903	-0.530719	-0.014908	-0.280836	-0.043787	-0.289231	0.023951	-0.260085	-0.303319	-0.262293	
6.19354	0	5	0.0285593	-0.100898	-0.005407	-0.200805	0.0178493	-0.19444	0.1243	-0.306266	0.100088	-0.0966362	0.0154097	-0.494557	0.0601793	-0.0677153	-0.189152	-0.322658	0.329894	-0.151509	0.116009	-0.300259	0.442266	-0.615449	0.0161577	-0.530233	-0.017777	-0.282734	-0.043787	-0.289231	0.0298488	-0.263939	-0.304797	-0.258115	
6.19659	0	5	0.0309005	-0.093093	0.006566	-0.196541	0.0227115	-0.190194	0.129545	-0.298565	0.103357	-0.0968205	0.0239495	-0.48788	0.0695485	-0.0679235	-0.185316	-0.316648	0.337867	-0.152471	0.119395	-0.296029	0.444962	-0.609567	0.0224125	-0.529748	-0.020646	-0.284632	-0.043787	-0.289231	0.0357465	-0.267792	-0.306276	-0.253937	
6.19354	0	5	0.0332418	-0.085288	0.018539	-0.192276	0.0275738	-0.185949	0.134789	-0.290864	0.106626	-0.0970048	0.0324893	-0.481204	0.0789178	-0.0681317	-0.181481	-0.310639	0.345839	-0.153434	0.122782	-0.291798	0.447658	-0.603684	0.0286672	-0.529262	-0.023515	-0.28653	-0.043787	-0.289231	0.0416443	-0.271646	-0.307754	-0.249758	
6.18133	0	5	0.035583	-0.077483	0.030512	-0.188012	0.032436	-0.181704	0.140033	-0.283163	0.109894	-0.097189	0.041029	-0.474527	0.088287	-0.06834	-0.177646	-0.30463	0.353812	-0.154396	0.126168	-0.287567	0.450354	-0.597802	0.034922	-0.528776	-0.026384	-0.288428	-0.043787	-0.289231	0.047542	-0.2755	-0.309232	-0.24558	
6.1737	0	5	0.0379235	-0.0696647	0.0263333	-0.176202	0.0340137	-0.177163	0.140091	-0.272055	0.110467	-0.089753	0.0458093	-0.457174	0.0908503	-0.0492767	-0.174594	-0.296392	0.360893	-0.142008	0.136339	-0.274846	0.4507	-0.585269	0.0348572	-0.510413	-0.0226468	-0.288984	-0.039921	-0.284668	0.0511433	-0.272854	-0.317101	-0.237225	
6.15539	0	5	0.040264	-0.0618465	0.0221545	-0.164392	0.0355915	-0.172621	0.140149	-0.260946	0.111041	-0.082317	0.0505895	-0.439821	0.0934135	-0.0302135	-0.171542	-0.288154	0.367975	-0.129619	0.14651	-0.262124	0.451046	-0.572735	0.0347925	-0.49205	-0.0189095	-0.28954	-0.036055	-0.280105	0.0547445	-0.270209	-0.32497	-0.228869	
6.14166	0	5	0.0426045	-0.0540282	0.0179757	-0.152581	0.0371693	-0.16808	0.140206	-0.249838	0.111615	-0.074881	0.0553698	-0.422468	0.0959767	-0.0111503	-0.16849	-0.279917	0.375057	-0.117231	0.156682	-0.249402	0.451392	-0.560202	0.0347278	-0.473686	-0.0151723	-0.290096	-0.032189	-0.275542	0.0583458	-0.267563	-0.33284	-0.220514	
6.12488	0	5	0.044945	-0.04621	0.013797	-0.140771	0.038747	-0.163539	0.140264	-0.23873	0.112188	-0.067445	0.06015	-0.405115	0.09854	0.007913	-0.165438	-0.271679	0.382138	-0.104842	0.166853	-0.236681	0.451738	-0.547669	0.034663	-0.455323	-0.011435	-0.290652	-0.028323	-0.270979	0.061947	-0.264917	-0.340709	-0.212158	
6.10962	0	5	0.044945	-0.04621	0.0182563	-0.140655	0.03546	-0.163249	0.145455	-0.242122	0.111615	-0.074881	0.054932	-0.405805	0.0918898	0.0004005	-0.16234	-0.271996	0.374223	-0.093278	0.163876	-0.228268	0.451738	-0.547669	0.0325512	-0.449355	-0.0131717	-0.285744	-0.038718	-0.25709	0.0525908	-0.251299	-0.337279	-0.207968	
6.09131	0	5	0.044945	-0.04621	0.0227155	-0.14054	0.032173	-0.162959	0.150645	-0.245513	0.111041	-0.082317	0.049714	-0.406496	0.0852395	-0.007112	-0.159243	-0.272313	0.366307	-0.081714	0.1609	-0.219855	0.451738	-0.547669	0.0304395	-0.443388	-0.0149085	-0.280836	-0.049113	-0.243202	0.0432345	-0.237681	-0.333849	-0.203778	
6.07452	0	0	0.044945	-0.04621	0.0271748	-0.140425	0.028886	-0.162668	0.155836	-0.248905	0.110467	-0.089753	0.044496	-0.407187	0.0785892	-0.0146245	-0.156145	-0.272631	0.358391	-0.07015	0.157923	-0.211442	0.451738	-0.547669	0.0283277	-0.43742	-0.0166453	-0.275927	-0.059508	-0.229313	0.0338782	-0.224062	-0.330419	-0.199587	
6.05621	0	0	0.044945	-0.04621	0.031634	-0.140309	0.025599	-0.162378	0.161027	-0.252297	0.109894	-0.097189	0.039278	-0.407877	0.071939	-0.022137	-0.153047	-0.272948	0.350476	-0.058586	0.154946	-0.203029	0.451738	-0.547669	0.026216	-0.431453	-0.018382	-0.271019	-0.069903	-0.215424	0.024522	-0.210444	-0.326989	-0.195397	
6.04553	0	0	0.053938	-0.042726	0.0288438	-0.132423	0.0297413	-0.165085	0.163653	-0.248433	0.112588	-0.104801	0.0463833	-0.41252	0.0699785	-0.029736	-0.154619	-0.268506	0.357411	-0.0673795	0.159828	-0.202982	0.459137	-0.555057	0.026216	-0.431453	-0.0203825	-0.275371	-0.072128	-0.224612	0.0173352	-0.215753	-0.325508	-0.199581	
6.02875	0	0	0.062931	-0.039242	0.0260535	-0.124537	0.0338835	-0.167791	0.166278	-0.244569	0.115281	-0.112414	0.0534885	-0.417162	0.068018	-0.037335	-0.156191	-0.264064	0.364347	-0.076173	0.164709	-0.202936	0.466535	-0.562445	0.026216	-0.431453	-0.022383	-0.279724	-0.074353	-0.2338	0.0101485	-0.221061	-0.324028	-0.203765	
6.01501	0	0	0.071924	-0.035758	0.0232633	-0.116652	0.0380257	-0.170498	0.168904	-0.240706	0.117974	-0.120027	0.0605937	-0.421805	0.0660575	-0.044934	-0.157762	-0.259622	0.371282	-0.0849665	0.16959	-0.20289	0.473934	-0.569834	0.026216	-0.431453	-0.0243835	-0.284076	-0.076578	-0.242988	0.00296175	-0.22637	-0.322547	-0.207949	
5.99518	0	0	0.080917	-0.032274	0.020473	-0.108766	0.042168	-0.173205	0.17153	-0.236842	0.120668	-0.127639	0.067699	-0.426448	0.064097	-0.052533	-0.159334	-0.25518	0.378217	-0.09376	0.174472	-0.202843	0.481333	-0.577222	0.026216	-0.431453	-0.026384	-0.288428	-0.078803	-0.252176	-0.004225	-0.231679	-0.321067	-0.212133	
5.9845	0	0	0.0780415	-0.0241477	0.0221405	-0.100752	0.0428905	-0.166243	0.172871	-0.22934	0.122143	-0.12275	0.0743718	-0.414393	0.0721092	-0.0488885	-0.159382	-0.246604	0.381232	-0.0914685	0.184248	-0.202753	0.48521	-0.574647	0.0324788	-0.430954	-0.0246488	-0.293332	-0.082659	-0.256742	-0.0102537	-0.240225	-0.322547	-0.207949	
5.96466	0	0	0.075166	-0.0160215	0.023808	-0.0927375	0.043613	-0.15928	0.174212	-0.221838	0.123618	-0.117862	0.0810445	-0.402338	0.0801215	-0.045244	-0.15943	-0.238028	0.384248	-0.089177	0.194023	-0.202663	0.489086	-0.572071	0.0387415	-0.430455	-0.0229135	-0.298237	-0.086515	-0.261308	-0.0162825	-0.248771	-0.324028	-0.203765	
5.9555	0	0	0.0722905	-0.00789525	0.0254755	-0.0847232	0.0443355	-0.152317	0.175553	-0.214337	0.125092	-0.112974	0.0877172	-0.390282	0.0881337	-0.0415995	-0.159477	-0.229452	0.387263	-0.0868855	0.203799	-0.202574	0.492962	-0.569495	0.0450042	-0.429956	-0.0211782	-0.303141	-0.090371	-0.265874	-0.0223113	-0.257317	-0.325508	-0.199581	
5.9433	0	0	0.069415	0.000231	0.027143	-0.076709	0.045058	-0.145355	0.176894	-0.206835	0.126567	-0.108085	0.09439	-0.378227	0.096146	-0.037955	-0.159525	-0.220876	0.390278	-0.084594	0.213575	-0.202484	0.496839	-0.56692	0.051267	-0.429457	-0.019443	-0.308045	-0.094227	-0.27044	-0.02834	-0.265863	-0.326989	-0.195397	
5.92499	0	0	0.0642	0.00051425	0.0285402	-0.080658	0.0443355	-0.152317	0.179465	-0.214102	0.121823	-0.112787	0.087273	-0.373576	0.0854095	-0.0339008	-0.159525	-0.220876	0.392313	-0.079526	0.212083	-0.198269	0.495663	-0.563596	0.0491525	-0.423481	-0.0183092	-0.301243	-0.097488	-0.261224	-0.0306375	-0.259371	-0.333379	-0.191221	
5.90362	0	0	0.058985	0.0007975	0.0299375	-0.084607	0.043613	-0.15928	0.182036	-0.221368	0.117079	-0.117489	0.080156	-0.368926	0.074673	-0.0298465	-0.159525	-0.220876	0.394348	-0.074458	0.210591	-0.194053	0.494486	-0.560272	0.047038	-0.417506	-0.0171755	-0.29444	-0.100749	-0.252007	-0.032935	-0.252878	-0.339769	-0.187046	
5.88837	0	0	0.05377	0.00108075	0.0313347	-0.088556	0.0428905	-0.166243	0.184608	-0.228634	0.112335	-0.122191	0.073039	-0.364275	0.0639365	-0.0257923	-0.159525	-0.220876	0.396383	-0.06939	0.2091	-0.189837	0.49331	-0.556947	0.0449235	-0.411531	-0.0160418	-0.287638	-0.10401	-0.242791	-0.0352325	-0.246386	-0.34616	-0.18287	
5.86395	0	0	0.048555	0.001364	0.032732	-0.092505	0.042168	-0.173205	0.187179	-0.235901	0.107591	-0.126893	0.065922	-0.359625	0.0532	-0.021738	-0.159525	-0.220876	0.398418	-0.064322	0.207608	-0.185622	0.492134	-0.553623	0.042809	-0.405555	-0.014908	-0.280836	-0.107271	-0.233575	-0.03753	-0.239893	-0.35255	-0.178695	
5.83496	0	0	0.048555	0.001364	0.032732	-0.092505	0.0405895	-0.177744	0.188464	-0.239532	0.107014	-0.134309	0.069702	-0.370308	0.0526025	-0.0331803	-0.160264	-0.22723	0.394348	-0.074452	0.2057	-0.194093	0.490609	-0.562843	0.0386608	-0.412029	-0.0169093	-0.285186	-0.118226	-0.233502	-0.0352325	-0.246386	-0.357455	-0.178706	
5.81207	0	0	0.048555	0.001364	0.032732	-0.092505	0.039011	-0.182283	0.189748	-0.243163	0.106436	-0.141725	0.073482	-0.380991	0.052005	-0.0446225	-0.161002	-0.233585	0.390278	-0.084582	0.203792	-0.202565	0.489083	-0.572064	0.0345125	-0.418504	-0.0189105	-0.289536	-0.129182	-0.233429	-0.032935	-0.252878	-0.36236	-0.178718	
5.78918	0	5	0.048555	0.001364	0.032732	-0.092505	0.0374325	-0.186823	0.191033	-0.246794	0.105858	-0.14914	0.077262	-0.391673	0.0514075	-0.0560647	-0.161741	-0.239939	0.386208	-0.094712	0.201884	-0.211036	0.487558	-0.581284	0.0303642	-0.424978	-0.0209117	-0.293887	-0.140137	-0.233356	-0.0306375	-0.259371	-0.367265	-0.17873	
5.7663	0	5	0.048555	0.001364	0.032732	-0.092505	0.035854	-0.191362	0.192318	-0.250425	0.105281	-0.156556	0.081042	-0.402356	0.05081	-0.067507	-0.162479	-0.246293	0.382138	-0.104842	0.199976	-0.219507	0.486032	-0.590504	0.026216	-0.431453	-0.022913	-0.298237	-0.151092	-0.233283	-0.02834	-0.265863	-0.37217	-0.178741	
5.74341	0	5	0.0494523	0.0132838	0.0374662	-0.0804055	0.0365772	-0.184406	0.195005	-0.235414	0.104385	-0.154023	0.084379	-0.396324	0.0554928	-0.0676105	-0.160167	-0.244386	0.389074	-0.113632	0.201465	-0.223717	0.486032	-0.590504	0.0345918	-0.436926	-0.020311	-0.30559	-0.149463	-0.237888	-0.0330737	-0.265265	-0.37069	-0.182923	
5.71594	0	5	0.0503495	0.0252035	0.0422005	-0.068306	0.0373005	-0.177451	0.197691	-0.220404	0.103488	-0.15149	0.087716	-0.390292	0.0601755	-0.067714	-0.157855	-0.24248	0.396011	-0.122422	0.202955	-0.227927	0.486032	-0.590504	0.0429675	-0.442399	-0.017709	-0.312944	-0.147834	-0.242492	-0.0378075	-0.264666	-0.36921	-0.187105	
5.69305	0	5	0.0512468	0.0371233	0.0469347	-0.0562065	0.0380237	-0.170495	0.200378	-0.205393	0.102592	-0.148957	0.091053	-0.384259	0.0648583	-0.0678175	-0.155542	-0.240573	0.402948	-0.131213	0.204445	-0.232136	0.486032	-0.590504	0.0513433	-0.447871	-0.015107	-0.320298	-0.146204	-0.247096	-0.0425413	-0.264068	-0.367731	-0.191287	
5.67016	0	5	0.052144	0.049043	0.051669	-0.044107	0.038747	-0.163539	0.203065	-0.190382	0.101696	-0.146424	0.09439	-0.378227	0.069541	-0.067921	-0.15323	-0.238666	0.409884	-0.140003	0.205934	-0.236346	0.486032	-0.590504	0.059719	-0.453344	-0.012505	-0.327651	-0.144575	-0.251701	-0.047275	-0.263469	-0.366251	-0.195469	
5.64728	0	5	0.0559203	0.052837	0.0460638	-0.0282655	0.0378918	-0.161122	0.205695	-0.186503	0.0999025	-0.141355	0.0939398	-0.361478	0.0715033	-0.060327	-0.15323	-0.238666	0.410943	-0.132177	0.202954	-0.227925	0.489909	-0.587931	0.0617595	-0.440895	-0.0142395	-0.32275	-0.147835	-0.242489	-0.0448387	-0.257575	-0.366251	-0.195469	
5.62439	0	5	0.0596965	0.056631	0.0404585	-0.012424	0.0370365	-0.158704	0.208325	-0.182623	0.098109	-0.136287	0.0934895	-0.344728	0.0734655	-0.052733	-0.15323	-0.238666	0.412002	-0.124351	0.199974	-0.219504	0.493787	-0.585358	0.0638	-0.428447	-0.015974	-0.317848	-0.151094	-0.233278	-0.0424025	-0.251681	-0.366251	-0.195469	
5.60608	0	5	0.0634728	0.060425	0.0348533	0.0034175	0.0361812	-0.156287	0.210956	-0.178744	0.0963155	-0.131219	0.0930393	-0.327979	0.0754278	-0.045139	-0.15323	-0.238666	0.413061	-0.116524	0.196995	-0.211082	0.497665	-0.582785	0.0658405	-0.415998	-0.0177085	-0.312947	-0.154354	-0.224067	-0.0399663	-0.245787	-0.366251	-0.195469	
5.58472	0	5	0.067249	0.064219	0.029248	0.019259	0.035326	-0.15387	0.213586	-0.174865	0.094522	-0.12615	0.092589	-0.31123	0.07739	-0.037545	-0.15323	-0.238666	0.41412	-0.108698	0.194015	-0.202661	0.501542	-0.580212	0.067881	-0.403549	-0.019443	-0.308045	-0.157613	-0.214855	-0.03753	-0.239893	-0.366251	-0.195469	
5.56183	0	5	0.065807	0.068294	0.0337148	0.0193885	0.0370365	-0.158704	0.216217	-0.170982	0.0939455	-0.133564	0.087361	-0.311932	0.0781485	-0.0528277	-0.145455	-0.243747	0.406048	-0.118323	0.199972	-0.219495	0.498839	-0.586104	0.0553517	-0.404553	-0.0240455	-0.305038	-0.166343	-0.205607	-0.0352325	-0.246386	-0.374111	-0.187118	
5.54504	0	5	0.064365	0.072369	0.0381815	0.019518	0.038747	-0.163538	0.218848	-0.167098	0.093369	-0.140979	0.082133	-0.312633	0.078907	-0.0681105	-0.137679	-0.248828	0.397975	-0.127949	0.205929	-0.23633	0.496136	-0.591997	0.0428225	-0.405558	-0.028648	-0.30203	-0.175073	-0.196358	-0.032935	-0.252878	-0.381972	-0.178766	
5.52521	0	5	0.062923	0.076444	0.0426482	0.0196475	0.0404575	-0.168371	0.221479	-0.163215	0.0927925	-0.148393	0.076905	-0.313334	0.0796655	-0.0833933	-0.129904	-0.253908	0.389902	-0.137574	0.211885	-0.253164	0.493433	-0.597889	0.0302933	-0.406562	-0.0332505	-0.299022	-0.183804	-0.18711	-0.0306375	-0.259371	-0.389833	-0.170415	
5.50842	0	5	0.061481	0.080519	0.047115	0.019777	0.042168	-0.173205	0.22411	-0.159332	0.092216	-0.155807	0.071677	-0.314036	0.080424	-0.098676	-0.122128	-0.258989	0.38183	-0.1472	0.217842	-0.269998	0.49073	-0.603781	0.017764	-0.407566	-0.037853	-0.296015	-0.192534	-0.177862	-0.02834	-0.265863	-0.397693	-0.162064	
5.49469	0	5	0.0638148	0.0884015	0.0532482	0.0279753	0.0446017	-0.171079	0.228083	-0.147902	0.0963782	-0.158527	0.0840338	-0.317993	0.080424	-0.098676	-0.116707	-0.257402	0.385742	-0.158256	0.21444	-0.274237	0.486854	-0.606349	0.0219887	-0.419505	-0.035252	-0.303366	-0.190903	-0.182472	-0.027192	-0.269107	-0.402589	-0.16208	
5.47943	0	5	0.0661485	0.096284	0.0593815	0.0361735	0.0470355	-0.168953	0.232056	-0.136472	0.100541	-0.161247	0.0963905	-0.321949	0.080424	-0.098676	-0.111285	-0.255815	0.389655	-0.169312	0.211039	-0.278477	0.482979	-0.608918	0.0262135	-0.431445	-0.032651	-0.310717	-0.189272	-0.187081	-0.026044	-0.272352	-0.407485	-0.162096	
5.46722	0	5	0.0684823	0.104166	0.0655148	0.0443718	0.0494692	-0.166827	0.23603	-0.125042	0.104703	-0.163966	0.108747	-0.325906	0.080424	-0.098676	-0.105863	-0.254228	0.393567	-0.180368	0.207637	-0.282716	0.479104	-0.611487	0.0304383	-0.443384	-0.03005	-0.318069	-0.187641	-0.19169	-0.024896	-0.275597	-0.412381	-0.162111	
5.45502	0	5	0.070816	0.112049	0.071648	0.05257	0.051903	-0.164701	0.240003	-0.113612	0.108865	-0.166686	0.121104	-0.329863	0.080424	-0.098676	-0.100442	-0.252641	0.397479	-0.191424	0.204235	-0.286955	0.475228	-0.614055	0.034663	-0.455323	-0.027449	-0.32542	-0.18601	-0.1963	-0.023748	-0.278841	-0.417277	-0.162127	
5.44128	0	5	0.073149	0.119945	0.0733098	0.0606527	0.0510475	-0.162283	0.241342	-0.106058	0.109444	-0.159273	0.125887	-0.312364	0.081028	-0.0872435	-0.103547	-0.252323	0.403518	-0.18687	0.202748	-0.282753	0.484157	-0.612237	0.038814	-0.448856	-0.023713	-0.325978	-0.182174	-0.191718	-0.022457	-0.269702	-0.410901	-0.166293	
5.43671	0	5	0.075482	0.127841	0.0749715	0.0687355	0.050192	-0.159865	0.242682	-0.098504	0.110022	-0.15186	0.13067	-0.294866	0.081632	-0.075811	-0.106652	-0.252004	0.409556	-0.182316	0.201261	-0.278552	0.493086	-0.610418	0.042965	-0.44239	-0.019977	-0.326535	-0.178337	-0.187136	-0.021166	-0.260563	-0.404525	-0.170459	
5.43365	0	5	0.077815	0.135737	0.0766332	0.0768183	0.0493365	-0.157448	0.244022	-0.09095	0.110601	-0.144447	0.135454	-0.277367	0.082236	-0.0643785	-0.109757	-0.251686	0.415594	-0.177761	0.199775	-0.27435	0.502014	-0.608599	0.047116	-0.435923	-0.016241	-0.327093	-0.174501	-0.182553	-0.019875	-0.251423	-0.39815	-0.174626	
5.43671	0	5	0.080148	0.143633	0.078295	0.084901	0.048481	-0.15503	0.245361	-0.083396	0.11118	-0.137034	0.140237	-0.259868	0.08284	-0.052946	-0.112862	-0.251367	0.421633	-0.173207	0.198288	-0.270148	0.510943	-0.606781	0.051267	-0.429457	-0.012505	-0.327651	-0.170664	-0.177971	-0.018584	-0.242284	-0.391774	-0.178792	
5.44739	0	5	0.080148	0.143633	0.0797023	0.0809238	0.0460475	-0.157157	0.241435	-0.083642	0.109705	-0.141914	0.138795	-0.271308	0.082236	-0.0643785	-0.119809	-0.25708	0.415677	-0.167189	0.199775	-0.27435	0.503541	-0.599391	0.0428912	-0.423984	-0.013372	-0.325201	-0.17393	-0.16874	-0.0091005	-0.243484	-0.394734	-0.170426	
5.46417	0	5	0.080148	0.143633	0.0811095	0.0769465	0.043614	-0.159284	0.23751	-0.083888	0.108231	-0.146795	0.137353	-0.282747	0.081632	-0.075811	-0.126756	-0.262794	0.409722	-0.161171	0.201261	-0.278552	0.496138	-0.592002	0.0345155	-0.418511	-0.014239	-0.32275	-0.177196	-0.15951	0.000383	-0.244683	-0.397694	-0.16206	
5.47943	0	5	0.080148	0.143633	0.0825167	0.0729692	0.0411805	-0.161412	0.233585	-0.084134	0.106756	-0.151675	0.135911	-0.294187	0.081028	-0.0872435	-0.133703	-0.268507	0.403767	-0.155153	0.202748	-0.282753	0.488735	-0.584612	0.0261397	-0.413039	-0.015106	-0.3203	-0.180462	-0.15028	0.0098665	-0.245883	-0.400654	-0.153694	
5.49316	0	5	0.080148	0.143633	0.083924	0.068992	0.038747	-0.163539	0.229659	-0.08438	0.105281	-0.156556	0.134469	-0.305627	0.080424	-0.098676	-0.14065	-0.27422	0.397811	-0.149135	0.204235	-0.286955	0.481333	-0.577222	0.017764	-0.407566	-0.015973	-0.317849	-0.183728	-0.141049	0.01935	-0.247083	-0.403614	-0.145328	
5.513	0	5	0.083928	0.14745	0.0884025	0.0691235	0.0428912	-0.166247	0.237513	-0.0838885	0.109446	-0.159277	0.130671	-0.294893	0.0817833	-0.102518	-0.136763	-0.27676	0.399768	-0.154666	0.204235	-0.286955	0.487561	-0.581291	0.017764	-0.407566	-0.017109	-0.324639	-0.182094	-0.145665	0.026398	-0.254187	-0.408509	-0.145346	
5.52826	0	5	0.087708	0.151267	0.092881	0.069255	0.0470355	-0.168955	0.245366	-0.083397	0.11361	-0.161998	0.126873	-0.28416	0.0831425	-0.10636	-0.132877	-0.2793	0.401726	-0.160198	0.204235	-0.286955	0.493788	-0.58536	0.017764	-0.407566	-0.018245	-0.331429	-0.180461	-0.150282	0.033446	-0.261292	-0.413405	-0.145364	
5.54352	0	5	0.091488	0.155085	0.0973595	0.0693865	0.0511797	-0.171663	0.253219	-0.0829055	0.117775	-0.16472	0.123075	-0.273426	0.0845018	-0.110202	-0.12899	-0.281839	0.403683	-0.16573	0.204235	-0.286955	0.500015	-0.58943	0.017764	-0.407566	-0.019381	-0.33822	-0.178828	-0.154898	0.040494	-0.268396	-0.418301	-0.145381	
5.55725	0	5	0.095268	0.158902	0.101838	0.069518	0.055324	-0.174371	0.261073	-0.082414	0.121939	-0.167441	0.119277	-0.262692	0.085861	-0.114044	-0.125103	-0.284379	0.40564	-0.171261	0.204235	-0.286955	0.506243	-0.593499	0.017764	-0.407566	-0.020517	-0.34501	-0.177194	-0.159514	0.047542	-0.2755	-0.423196	-0.145399	
5.56488	0	5	0.0976013	0.166819	0.110805	0.0697777	0.0560478	-0.167407	0.259819	-0.0675168	0.124892	-0.157677	0.133107	-0.255195	0.0897953	-0.0988735	-0.125146	-0.275808	0.409721	-0.161162	0.206149	-0.27851	0.519072	-0.589104	0.0197922	-0.3951	-0.0141823	-0.352912	-0.178828	-0.154898	0.047542	-0.2755	-0.423196	-0.145399	
5.57251	0	5	0.0999345	0.174736	0.119772	0.0700375	0.0567715	-0.160444	0.258566	-0.0526195	0.127845	-0.147914	0.146937	-0.247697	0.0937295	-0.083703	-0.125189	-0.267237	0.413802	-0.151063	0.208062	-0.270066	0.531902	-0.584708	0.0218205	-0.382634	-0.0078475	-0.360814	-0.180461	-0.150282	0.047542	-0.2755	-0.423196	-0.145399	
5.57709	0	5	0.102268	0.182654	0.128739	0.0702972	0.0574952	-0.15348	0.257312	-0.0377222	0.130798	-0.138151	0.160768	-0.2402	0.0976637	-0.0685325	-0.125232	-0.258666	0.417883	-0.140964	0.209975	-0.261621	0.544731	-0.580313	0.0238488	-0.370168	-0.00151275	-0.368717	-0.182094	-0.145665	0.047542	-0.2755	-0.423196	-0.145399	
5.57556	0	5	0.104601	0.190571	0.137706	0.070557	0.058219	-0.146516	0.256058	-0.022825	0.133751	-0.128387	0.174598	-0.232703	0.101598	-0.053362	-0.125275	-0.250095	0.421964	-0.130865	0.211889	-0.253176	0.55756	-0.575917	0.025877	-0.357702	0.004822	-0.376619	-0.183728	-0.141049	0.047542	-0.2755	-0.423196	-0.145399	
5.57709	0	5	0.111285	0.186203	0.14193	0.0586205	0.0607863	-0.153772	0.253426	-0.0267397	0.133751	-0.128387	0.16554	-0.222644	0.0941832	-0.0455557	-0.126062	-0.247871	0.425064	-0.117967	0.213801	-0.244717	0.552847	-0.562598	0.030022	-0.351201	0.001357	-0.366827	-0.181528	-0.131828	0.0440902	-0.265745	-0.421264	-0.137008	
5.57556	0	5	0.11797	0.181836	0.146153	0.046684	0.0633535	-0.161027	0.250794	-0.0306545	0.133751	-0.128387	0.156482	-0.212586	0.0867685	-0.0377495	-0.126849	-0.245647	0.428163	-0.105069	0.215714	-0.236257	0.548134	-0.549279	0.034167	-0.3447	-0.002108	-0.357035	-0.179329	-0.122607	0.0406385	-0.25599	-0.419331	-0.128616	
