2.25983	0	0	0.472477	0.410716	0.259699	0.546159	0.085347	0.286251	0.065144	0.620658	-0.025654	0.070448	-0.002728	0.465195	0.068485	0.240362	-0.004308	0.415671	0.227196	0.473677	-0.00389	0.24171	-0.020078	0.249594	-0.056404	0.332993	-0.177263	0.176914	-0.143375	0.504589	-0.325289	0.123857	-0.181811	0.218206	
2.26288	0	0	0.470486	0.416342	0.264244	0.546335	0.0842055	0.289477	0.0690907	0.620714	-0.0224013	0.0612555	0.0007675	0.455316	0.069796	0.236657	-0.002623	0.410909	0.225985	0.4771	-0.00251525	0.237824	-0.0245973	0.250148	-0.0630493	0.332892	-0.177303	0.166105	-0.149881	0.492862	-0.329103	0.120202	-0.185763	0.203738	
2.2644	0	0	0.468496	0.421967	0.268788	0.546512	0.083064	0.292702	0.0730375	0.620771	-0.0191485	0.052063	0.004263	0.445437	0.071107	0.232952	-0.000938	0.406147	0.224774	0.480522	-0.0011405	0.233939	-0.0291165	0.250703	-0.0696945	0.332792	-0.177343	0.155297	-0.156387	0.481135	-0.332917	0.116547	-0.189715	0.189269	
2.2644	0	0	0.466506	0.427592	0.273333	0.546688	0.0819225	0.295928	0.0769843	0.620827	-0.0158958	0.0428705	0.0077585	0.435558	0.072418	0.229247	0.000747	0.401386	0.223563	0.483944	0.00023425	0.230054	-0.0336357	0.251257	-0.0763398	0.332692	-0.177382	0.144488	-0.162893	0.469409	-0.33673	0.112893	-0.193667	0.1748	
2.26288	0	0	0.464515	0.433218	0.277878	0.546864	0.080781	0.299154	0.080931	0.620883	-0.012643	0.033678	0.011254	0.425679	0.073729	0.225542	0.002432	0.396624	0.222352	0.487367	0.001609	0.226168	-0.038155	0.251812	-0.082985	0.332591	-0.177422	0.13368	-0.169399	0.457682	-0.340544	0.109238	-0.197619	0.160332	
2.25983	0	0	0.46053	0.44448	0.276626	0.563433	0.083574	0.302292	0.0800225	0.634667	-0.0137267	0.0367413	0.012914	0.43599	0.073729	0.225542	0.002432	0.396624	0.225377	0.490656	0.00023425	0.230054	-0.0369498	0.260624	-0.0783858	0.338474	-0.176426	0.130864	-0.173384	0.453905	-0.332488	0.100903	-0.193702	0.149263	
2.25983	0	0	0.456545	0.455742	0.275373	0.580002	0.086367	0.30543	0.079114	0.648451	-0.0148105	0.0398045	0.014574	0.4463	0.073729	0.225542	0.002432	0.396624	0.228401	0.493945	-0.0011405	0.233939	-0.0357445	0.269435	-0.0737865	0.344356	-0.17543	0.128048	-0.177369	0.450128	-0.324431	0.092567	-0.189786	0.138194	
2.25983	0	0	0.452561	0.467003	0.27412	0.596572	0.08916	0.308567	0.0782055	0.662236	-0.0158942	0.0428677	0.016234	0.456611	0.073729	0.225542	0.002432	0.396624	0.231426	0.497233	-0.00251525	0.237824	-0.0345393	0.278246	-0.0691873	0.350239	-0.174433	0.125232	-0.181354	0.446351	-0.316375	0.0842315	-0.185869	0.127126	
2.25983	0	0	0.448576	0.478265	0.272868	0.613141	0.091953	0.311705	0.077297	0.67602	-0.016978	0.045931	0.017894	0.466922	0.073729	0.225542	0.002432	0.396624	0.234451	0.500522	-0.00389	0.24171	-0.033334	0.287058	-0.064588	0.356121	-0.173437	0.122416	-0.185339	0.442574	-0.308319	0.075896	-0.181953	0.116057	
2.2644	0	0	0.448576	0.478265	0.271223	0.604761	0.0903015	0.305341	0.0718328	0.669036	-0.0184495	0.03983	0.016234	0.456611	0.0719377	0.218175	0.005799	0.387108	0.235663	0.497097	-0.00526525	0.245597	-0.033334	0.287058	-0.0666353	0.361907	-0.171401	0.127582	-0.188276	0.450874	-0.304499	0.0795437	-0.185869	0.127126	
2.26288	0	0	0.448576	0.478265	0.269578	0.596382	0.08865	0.298978	0.0663685	0.662052	-0.019921	0.033729	0.014574	0.4463	0.0701465	0.210807	0.009166	0.377592	0.236874	0.493672	-0.0066405	0.249484	-0.033334	0.287058	-0.0686825	0.367693	-0.169364	0.132748	-0.191213	0.459174	-0.300679	0.0831915	-0.189786	0.138194	
2.26288	0	0	0.448576	0.478265	0.267932	0.588002	0.0869985	0.292614	0.0609043	0.655068	-0.0213925	0.027628	0.012914	0.43599	0.0683553	0.20344	0.012533	0.368077	0.238086	0.490247	-0.00801575	0.253371	-0.033334	0.287058	-0.0707297	0.373479	-0.167327	0.137914	-0.194149	0.467473	-0.296858	0.0868393	-0.193702	0.149263	
2.25525	0	0	0.448576	0.478265	0.266287	0.579622	0.085347	0.286251	0.05544	0.648084	-0.022864	0.021527	0.011254	0.425679	0.066564	0.196073	0.0159	0.358561	0.239298	0.486822	-0.009391	0.257258	-0.033334	0.287058	-0.072777	0.379265	-0.165291	0.14308	-0.197086	0.475773	-0.293038	0.090487	-0.197619	0.160332	
2.25983	0	0	0.448576	0.478265	0.270834	0.579801	0.0864878	0.283026	0.0502835	0.651453	-0.022864	0.021527	0.00950675	0.430617	0.062156	0.19611	0.009252	0.362905	0.235062	0.486958	-0.0124825	0.253302	-0.0367475	0.284487	-0.0773735	0.373375	-0.162301	0.13463	-0.191215	0.459181	-0.294453	0.0944855	-0.196988	0.145743	
2.26135	0	0	0.448576	0.478265	0.275381	0.57998	0.0876285	0.279802	0.045127	0.654822	-0.022864	0.021527	0.0077595	0.435555	0.057748	0.196147	0.002604	0.367248	0.230825	0.487094	-0.015574	0.249347	-0.040161	0.281917	-0.08197	0.367485	-0.159311	0.126179	-0.185344	0.442589	-0.295868	0.098484	-0.196357	0.131154	
2.26135	0	0	0.448576	0.478265	0.279928	0.580159	0.0887693	0.276578	0.0399705	0.658192	-0.022864	0.021527	0.00601225	0.440494	0.05334	0.196183	-0.004044	0.371592	0.226588	0.487231	-0.0186655	0.245392	-0.0435745	0.279346	-0.0865665	0.361595	-0.156321	0.117729	-0.179473	0.425997	-0.297283	0.102483	-0.195726	0.116564	
2.25677	0	0	0.448576	0.478265	0.284475	0.580338	0.08991	0.273353	0.034814	0.661561	-0.022864	0.021527	0.004265	0.445432	0.048932	0.19622	-0.010692	0.375936	0.222352	0.487367	-0.021757	0.241436	-0.046988	0.276775	-0.091163	0.355705	-0.153331	0.109279	-0.173602	0.409405	-0.298698	0.106481	-0.195095	0.101975	
2.2583	0	0	0.450924	0.489738	0.283216	0.596933	0.0915627	0.279713	0.0378405	0.675421	-0.0213925	0.027628	0.0128328	0.451236	0.050721	0.203585	-0.000758	0.376761	0.225377	0.490656	-0.0172903	0.241505	-0.0413647	0.273101	-0.0824732	0.350027	-0.15537	0.104121	-0.176122	0.401501	-0.292045	0.102134	-0.202962	0.0986235	
2.2583	0	0	0.453272	0.501212	0.281958	0.613528	0.0932155	0.286073	0.040867	0.689282	-0.019921	0.033729	0.0214005	0.457039	0.05251	0.21095	0.009176	0.377586	0.228401	0.493945	-0.0128235	0.241573	-0.0357415	0.269427	-0.0737835	0.344349	-0.157409	0.098963	-0.178643	0.393596	-0.285392	0.0977865	-0.210829	0.095272	
2.25372	0	0	0.455621	0.512685	0.280699	0.630122	0.0948683	0.292433	0.0438935	0.703143	-0.0184495	0.03983	0.0299683	0.462842	0.054299	0.218316	0.01911	0.37841	0.231426	0.497233	-0.00835675	0.241642	-0.0301182	0.265752	-0.0650938	0.338671	-0.159449	0.093805	-0.181163	0.385691	-0.278738	0.0934393	-0.218695	0.0919205	
2.25372	0	0	0.457969	0.524158	0.279441	0.646717	0.096521	0.298793	0.04692	0.717003	-0.016978	0.045931	0.038536	0.468646	0.056088	0.225681	0.029044	0.379235	0.234451	0.500522	-0.00389	0.24171	-0.024495	0.262078	-0.056404	0.332993	-0.161488	0.088647	-0.183683	0.377787	-0.272085	0.089092	-0.226562	0.088569	
2.25525	0	0	0.451631	0.523961	0.271986	0.654747	0.0886535	0.298973	0.0417605	0.720374	-0.020616	0.0459533	0.028122	0.483062	0.057876	0.233058	0.0256733	0.388761	0.236264	0.507243	-0.00079575	0.245666	-0.0188682	0.258401	-0.05845	0.338775	-0.162483	0.0914603	-0.178232	0.377407	-0.273501	0.0930923	-0.218695	0.0919205	
2.25372	0	0	0.445292	0.523764	0.264532	0.662777	0.080786	0.299153	0.036601	0.723745	-0.024254	0.0459755	0.017708	0.497478	0.059664	0.240434	0.0223025	0.398287	0.238077	0.513963	0.0022985	0.249623	-0.0132415	0.254725	-0.060496	0.344557	-0.163478	0.0942735	-0.17278	0.377027	-0.274916	0.0970925	-0.210829	0.095272	
2.2522	0	0	0.438954	0.523566	0.257077	0.670807	0.0729185	0.299333	0.0314415	0.727117	-0.027892	0.0459977	0.007294	0.511895	0.061452	0.24781	0.0189318	0.407813	0.23989	0.520683	0.00539275	0.253579	-0.00761475	0.251048	-0.062542	0.350339	-0.164474	0.0970867	-0.167328	0.376648	-0.276332	0.101093	-0.202962	0.0986235	
2.25067	0	0	0.432616	0.523369	0.249622	0.678837	0.065051	0.299513	0.026282	0.730488	-0.03153	0.04602	-0.00312	0.526311	0.06324	0.255187	0.015561	0.417339	0.241703	0.527404	0.008487	0.257535	-0.001988	0.247371	-0.064588	0.356121	-0.165469	0.0999	-0.161877	0.376268	-0.277747	0.105093	-0.195095	0.101975	
2.24457	0	0	0.424289	0.52881	0.243625	0.682756	0.0622615	0.296378	0.0235573	0.726985	-0.0366343	0.0399435	-0.0065215	0.520922	0.0663398	0.258864	0.015561	0.417339	0.247158	0.52384	-0.00044875	0.257396	-0.00772025	0.239128	-0.0758247	0.350136	-0.174517	0.10365	-0.168793	0.380787	-0.28539	0.0977938	-0.208174	0.113354	
2.24762	0	0	0.415963	0.534251	0.237629	0.686674	0.059472	0.293244	0.0208325	0.723482	-0.0417385	0.033867	-0.009923	0.515533	0.0694395	0.262541	0.015561	0.417339	0.252613	0.520276	-0.0093845	0.257256	-0.0134525	0.230886	-0.0870615	0.344151	-0.183566	0.1074	-0.175709	0.385306	-0.293033	0.0904945	-0.221253	0.124733	
2.24609	0	0	0.407636	0.539692	0.231632	0.690592	0.0566825	0.290109	0.0181077	0.719979	-0.0468428	0.0277905	-0.0133245	0.510144	0.0725392	0.266218	0.015561	0.417339	0.258068	0.516711	-0.0183202	0.257117	-0.0191848	0.222643	-0.0982983	0.338167	-0.192615	0.111149	-0.182625	0.389825	-0.300676	0.0831952	-0.234333	0.136113	
2.25372	0	0	0.399309	0.545133	0.225635	0.694511	0.053893	0.286975	0.015383	0.716476	-0.051947	0.021714	-0.016726	0.504755	0.075639	0.269895	0.015561	0.417339	0.263523	0.513147	-0.027256	0.256978	-0.024917	0.2144	-0.109535	0.332182	-0.201663	0.114899	-0.189541	0.394344	-0.308319	0.075896	-0.247412	0.147492	
2.24609	0	0	0.403641	0.550982	0.231811	0.703126	0.055541	0.293335	0.0144568	0.730298	-0.0504785	0.027812	-0.0133245	0.510144	0.0761118	0.281005	0.018845	0.422525	0.266553	0.516442	-0.0214145	0.253161	-0.021611	0.205057	-0.107493	0.326411	-0.197638	0.114432	-0.178635	0.393586	-0.306906	0.071903	-0.246108	0.143807	
2.24762	0	0	0.407973	0.556831	0.237986	0.71174	0.057189	0.299696	0.0135305	0.744119	-0.04901	0.03391	-0.009923	0.515533	0.0765845	0.292115	0.022129	0.42771	0.269584	0.519737	-0.015573	0.249344	-0.018305	0.195713	-0.105451	0.32064	-0.193613	0.113964	-0.167729	0.392829	-0.305493	0.06791	-0.244804	0.140122	
2.24762	0	0	0.412305	0.562681	0.244161	0.720355	0.058837	0.306056	0.0126042	0.75794	-0.0475415	0.040008	-0.0065215	0.520922	0.0770572	0.303226	0.025413	0.432895	0.272614	0.523032	-0.0097315	0.245527	-0.014999	0.18637	-0.103409	0.314869	-0.189588	0.113497	-0.156822	0.392072	-0.30408	0.063917	-0.2435	0.136437	
2.25067	0	0	0.416637	0.56853	0.250337	0.72897	0.060485	0.312416	0.011678	0.771762	-0.046073	0.046106	-0.00312	0.526311	0.07753	0.314336	0.028697	0.438081	0.275645	0.526327	-0.00389	0.24171	-0.011693	0.177027	-0.101367	0.309098	-0.185563	0.11303	-0.145916	0.391314	-0.302667	0.059924	-0.242196	0.132752	
2.25525	0	0	0.412637	0.579835	0.238503	0.749376	0.0609892	0.322016	0.0131822	0.778721	-0.0431385	0.0583253	-0.00498475	0.546596	0.0824162	0.325444	0.028601	0.45283	0.282927	0.529489	0.00058025	0.241778	-0.009376	0.182696	-0.0860382	0.303518	-0.180495	0.120543	-0.133928	0.402623	-0.295022	0.067216	-0.23564	0.139807	
2.2522	0	0	0.408637	0.591139	0.226669	0.769782	0.0614935	0.331615	0.0146865	0.78568	-0.040204	0.0705445	-0.0068495	0.566881	0.0873025	0.336552	0.028505	0.467579	0.290208	0.532652	0.0050505	0.241845	-0.007059	0.188365	-0.0707095	0.297939	-0.175427	0.128055	-0.121939	0.413933	-0.287376	0.074508	-0.229083	0.146862	
2.25677	0	0	0.404637	0.602443	0.214836	0.790187	0.0619978	0.341215	0.0161907	0.792639	-0.0372695	0.0827637	-0.00871425	0.587165	0.0921887	0.34766	0.028409	0.482327	0.29749	0.535815	0.00952075	0.241913	-0.004742	0.194034	-0.0553807	0.292359	-0.170359	0.135568	-0.109951	0.425242	-0.27973	0.0818	-0.222526	0.153917	
2.25525	0	0	0.400637	0.613748	0.203002	0.810593	0.062502	0.350814	0.017695	0.799598	-0.034335	0.094983	-0.010579	0.60745	0.097075	0.358768	0.028313	0.497076	0.304772	0.538977	0.013991	0.24198	-0.002425	0.199703	-0.040052	0.28678	-0.165291	0.14308	-0.097963	0.436551	-0.272085	0.089092	-0.21597	0.160972	
2.25525	0	0	0.400637	0.613748	0.204461	0.806469	0.0647878	0.344354	0.008598	0.802894	-0.0379715	0.095001	-0.0139765	0.602037	0.0983925	0.355045	0.028313	0.497076	0.299307	0.542548	0.0081455	0.2458	-0.0002205	0.193473	-0.0487418	0.292458	-0.164253	0.151073	-0.0983797	0.452816	-0.27067	0.0850935	-0.210714	0.171738	
2.25983	0	0	0.400637	0.613748	0.205921	0.802345	0.0670735	0.337894	-0.000499	0.80619	-0.041608	0.095019	-0.017374	0.596625	0.09971	0.351321	0.028313	0.497076	0.293841	0.54612	0.0023	0.249619	0.001984	0.187243	-0.0574315	0.298136	-0.163215	0.159067	-0.0987965	0.469081	-0.269255	0.081095	-0.205458	0.182503	
2.24914	0	0	0.400637	0.613748	0.20738	0.798221	0.0693592	0.331435	-0.009596	0.809485	-0.0452445	0.095037	-0.0207715	0.591212	0.101028	0.347598	0.028313	0.497076	0.288376	0.549691	-0.0035455	0.253439	0.0041885	0.181013	-0.0661212	0.303814	-0.162177	0.167061	-0.0992133	0.485347	-0.267841	0.0770965	-0.200202	0.193269	
2.25067	0	0	0.400637	0.613748	0.208839	0.794097	0.071645	0.324975	-0.018693	0.812781	-0.048881	0.095055	-0.024169	0.585799	0.102345	0.343875	0.028313	0.497076	0.282911	0.553262	-0.009391	0.257258	0.006393	0.174783	-0.074811	0.309492	-0.161139	0.175054	-0.09963	0.501612	-0.266426	0.073098	-0.194946	0.204035	
2.24762	0	0	0.400637	0.613748	0.20592	0.802347	0.0693592	0.331435	-0.0211313	0.819672	-0.044159	0.0919698	-0.024169	0.585799	0.097926	0.343901	0.024928	0.506643	0.282911	0.553262	-0.0138572	0.257188	-0.00154575	0.172792	-0.068689	0.29219	-0.161139	0.175054	-0.0901498	0.505031	-0.275486	0.0698045	-0.199536	0.204191	
2.24609	0	0	0.400637	0.613748	0.203001	0.810597	0.0670735	0.337894	-0.0235695	0.826563	-0.039437	0.0888845	-0.024169	0.585799	0.093507	0.343927	0.021543	0.51621	0.282911	0.553262	-0.0183235	0.257118	-0.0094845	0.170801	-0.062567	0.274888	-0.161139	0.175054	-0.0806695	0.50845	-0.284547	0.066511	-0.204126	0.204348	
2.23846	0	0	0.400637	0.613748	0.200081	0.818847	0.0647878	0.344354	-0.0260077	0.833454	-0.034715	0.0857992	-0.024169	0.585799	0.089088	0.343953	0.018158	0.525777	0.282911	0.553262	-0.0227897	0.257048	-0.0174232	0.168811	-0.056445	0.257587	-0.161139	0.175054	-0.0711892	0.511869	-0.293607	0.0632175	-0.208715	0.204505	
2.24151	0	0	0.400637	0.613748	0.197162	0.827097	0.062502	0.350814	-0.028446	0.840345	-0.029993	0.082714	-0.024169	0.585799	0.084669	0.343979	0.014773	0.535344	0.282911	0.553262	-0.027256	0.256978	-0.025362	0.16682	-0.050323	0.240285	-0.161139	0.175054	-0.061709	0.515288	-0.302667	0.059924	-0.213305	0.204661	
2.24609	0	0	0.396632	0.625067	0.189852	0.847755	0.0618575	0.363666	-0.0306157	0.85768	-0.0259722	0.0918855	-0.0173722	0.596632	0.0807165	0.355149	0.016357	0.545356	0.277449	0.556831	-0.0227897	0.257048	-0.025362	0.16682	-0.054403	0.251816	-0.163136	0.180699	-0.0481972	0.522512	-0.301255	0.0559327	-0.210024	0.208203	
2.24304	0	0	0.392626	0.636386	0.182542	0.868413	0.061213	0.376518	-0.0327855	0.875015	-0.0219515	0.101057	-0.0105755	0.607465	0.076764	0.36632	0.017941	0.555368	0.271987	0.560399	-0.0183235	0.257118	-0.025362	0.16682	-0.058483	0.263347	-0.165133	0.186344	-0.0346855	0.529737	-0.299843	0.0519415	-0.206743	0.211746	
2.24609	0	0	0.388621	0.647705	0.175233	0.889072	0.0605685	0.389371	-0.0349553	0.892351	-0.0179307	0.110229	-0.00377875	0.618299	0.0728115	0.37749	0.019525	0.56538	0.266525	0.563968	-0.0138572	0.257188	-0.025362	0.16682	-0.062563	0.274878	-0.167131	0.191989	-0.0211738	0.536961	-0.29843	0.0479502	-0.203462	0.215288	
2.24457	0	0	0.384616	0.659024	0.167923	0.90973	0.059924	0.402223	-0.037125	0.909686	-0.01391	0.1194	0.003018	0.629132	0.068859	0.38866	0.021109	0.575392	0.261063	0.567537	-0.009391	0.257258	-0.025362	0.16682	-0.066643	0.286409	-0.169128	0.197634	-0.007662	0.544185	-0.297018	0.043959	-0.200181	0.21883	
2.24151	0	0	0.384616	0.659024	0.170849	0.901461	0.055992	0.402304	-0.0425487	0.902614	-0.019724	0.125561	-0.00389825	0.633651	0.0618083	0.396132	0.0194125	0.580187	0.254389	0.574541	-0.009391	0.257258	-0.03659	0.174156	-0.0620387	0.292277	-0.169095	0.208474	-0.00407325	0.564377	-0.305073	0.0522907	-0.190327	0.229478	
2.24304	0	0	0.384616	0.659024	0.173775	0.893192	0.05206	0.402386	-0.0479725	0.895543	-0.025538	0.131723	-0.0108145	0.63817	0.0547575	0.403604	0.017716	0.584982	0.247714	0.581544	-0.009391	0.257258	-0.047818	0.181493	-0.0574345	0.298144	-0.169062	0.219314	-0.0004845	0.584569	-0.313128	0.0606225	-0.180474	0.240125	
2.24304	0	0	0.384616	0.659024	0.176701	0.884923	0.048128	0.402467	-0.0533962	0.888471	-0.031352	0.137884	-0.0177307	0.642689	0.0477067	0.411076	0.0160195	0.589776	0.241039	0.588548	-0.009391	0.257258	-0.059046	0.18883	-0.0528302	0.304011	-0.169029	0.230155	0.00310425	0.604761	-0.321183	0.0689542	-0.17062	0.250773	
2.24304	0	0	0.384616	0.659024	0.179627	0.876654	0.044196	0.402548	-0.05882	0.881399	-0.037166	0.144045	-0.024647	0.647208	0.040656	0.418548	0.014323	0.594571	0.234365	0.595551	-0.009391	0.257258	-0.070274	0.196166	-0.048226	0.309879	-0.168996	0.240995	0.006693	0.624953	-0.329238	0.077286	-0.160766	0.26142	
2.24457	0	0	0.392951	0.653578	0.181089	0.872522	0.049273	0.399231	-0.0485102	0.874663	-0.0408032	0.14406	-0.0280405	0.641784	0.0419745	0.414821	0.014323	0.594571	0.236797	0.588679	-0.0138572	0.257188	-0.0658745	0.183732	-0.0441405	0.298333	-0.168996	0.240995	0.0121978	0.624582	-0.335453	0.0660183	-0.166676	0.265282	
2.24457	0	0	0.401286	0.648132	0.182551	0.868391	0.05435	0.395913	-0.0382005	0.867926	-0.0444405	0.144074	-0.031434	0.63636	0.043293	0.411095	0.014323	0.594571	0.239229	0.581807	-0.0183235	0.257118	-0.061475	0.171299	-0.040055	0.286787	-0.168996	0.240995	0.0177025	0.624211	-0.341668	0.0547505	-0.172586	0.269143	
2.24762	0	0	0.409621	0.642685	0.184013	0.864259	0.059427	0.392595	-0.0278907	0.86119	-0.0480777	0.144089	-0.0348275	0.630936	0.0446115	0.407369	0.014323	0.594571	0.24166	0.574934	-0.0227897	0.257048	-0.0570755	0.158865	-0.0359695	0.275242	-0.168996	0.240995	0.0232073	0.623839	-0.347883	0.0434828	-0.178496	0.273005	
2.24457	0	0	0.417956	0.637239	0.185475	0.860127	0.064504	0.389278	-0.017581	0.854453	-0.051715	0.144103	-0.038221	0.625512	0.04593	0.403642	0.014323	0.594571	0.244092	0.568062	-0.027256	0.256978	-0.052676	0.146431	-0.031884	0.263696	-0.168996	0.240995	0.028712	0.623468	-0.354098	0.032215	-0.184406	0.276867	
2.25067	0	0	0.411939	0.654244	0.190165	0.872959	0.06779	0.402073	-0.0133677	0.864972	-0.041885	0.147134	-0.0348275	0.630936	0.0446115	0.407369	0.0176008	0.599808	0.242876	0.571497	-0.0258812	0.253092	-0.054875	0.152646	-0.0231855	0.258012	-0.170028	0.232979	0.0316805	0.615079	-0.3565	0.0246035	-0.183094	0.273159	
2.25372	0	0	0.405922	0.67125	0.194854	0.885792	0.071076	0.414868	-0.0091545	0.875491	-0.032055	0.150164	-0.031434	0.63636	0.043293	0.411095	0.0208785	0.605045	0.241661	0.574933	-0.0245065	0.249207	-0.057074	0.158861	-0.014487	0.252329	-0.171061	0.224963	0.034649	0.606689	-0.358901	0.016992	-0.181782	0.269451	
2.25372	0	0	0.399905	0.688255	0.199544	0.898624	0.074362	0.427662	-0.00494125	0.88601	-0.022225	0.153195	-0.0280405	0.641784	0.0419745	0.414821	0.0241563	0.610282	0.240445	0.578368	-0.0231317	0.245321	-0.059273	0.165075	-0.0057885	0.246645	-0.172093	0.216946	0.0376175	0.598299	-0.361303	0.0093805	-0.18047	0.265743	
2.25677	0	0	0.393888	0.70526	0.204234	0.911457	0.077648	0.440457	-0.000728	0.896529	-0.012395	0.156225	-0.024647	0.647208	0.040656	0.418548	0.027434	0.615519	0.239229	0.581804	-0.021757	0.241436	-0.061472	0.17129	0.00291	0.240961	-0.173125	0.20893	0.040586	0.58991	-0.363705	0.001769	-0.179158	0.262035	
2.26135	0	0	0.385553	0.710706	0.201157	0.907104	0.0737122	0.440536	-0.0125397	0.896281	-0.0171248	0.159315	-0.0297985	0.646753	0.0468442	0.425976	0.01579	0.619437	0.235579	0.592118	-0.0248468	0.237485	-0.0659808	0.171847	-0.0057885	0.246645	-0.178188	0.20139	0.0340222	0.578101	-0.371735	0.0100748	-0.167981	0.268997	
2.26898	0	0	0.377218	0.716152	0.19808	0.902751	0.0697765	0.440615	-0.0243515	0.896033	-0.0218545	0.162406	-0.03495	0.646297	0.0530325	0.433404	0.004146	0.623355	0.23193	0.602433	-0.0279365	0.233534	-0.0704895	0.172403	-0.014487	0.252329	-0.18325	0.19385	0.0274585	0.566292	-0.379765	0.0183805	-0.156805	0.275959	
2.27203	0	0	0.368883	0.721599	0.195004	0.898399	0.0658408	0.440695	-0.0361633	0.895784	-0.0265843	0.165496	-0.0401015	0.645841	0.0592207	0.440832	-0.007498	0.627273	0.22828	0.612748	-0.0310262	0.229582	-0.0749982	0.17296	-0.0231855	0.258012	-0.188313	0.18631	0.0208948	0.554483	-0.387796	0.0266863	-0.145628	0.282921	
2.27508	0	0	0.360548	0.727045	0.191927	0.894046	0.061905	0.440774	-0.047975	0.895536	-0.031314	0.168587	-0.045253	0.645386	0.065409	0.44826	-0.019142	0.631191	0.224631	0.623062	-0.034116	0.225631	-0.079507	0.173517	-0.031884	0.263696	-0.193376	0.17877	0.014331	0.542674	-0.395826	0.034992	-0.134451	0.289883	
2.28577	0	0	0.366565	0.71004	0.193236	0.877309	0.0586225	0.427982	-0.056105	0.884943	-0.0357058	0.150204	-0.0554178	0.629142	0.076028	0.455688	-0.0256788	0.620721	0.230089	0.619495	-0.046459	0.209867	-0.08643	0.156574	-0.0370305	0.240499	-0.204485	0.166545	-0.010803	0.507836	-0.392021	0.038628	-0.120652	0.263752	
2.28729	0	0	0.372582	0.693034	0.194545	0.860572	0.05534	0.415191	-0.064235	0.87435	-0.0400975	0.131821	-0.0655825	0.612897	0.086647	0.463116	-0.0322155	0.610251	0.235547	0.615928	-0.058802	0.194103	-0.093353	0.139631	-0.042177	0.217301	-0.215593	0.15432	-0.035937	0.472997	-0.388216	0.042264	-0.106852	0.237621	
2.29187	0	0	0.378599	0.676029	0.195853	0.843834	0.0520575	0.402399	-0.072365	0.863757	-0.0444893	0.113438	-0.0757473	0.596653	0.097266	0.470544	-0.0387523	0.599781	0.241006	0.612362	-0.071145	0.178339	-0.100276	0.122688	-0.0473235	0.194104	-0.226702	0.142095	-0.061071	0.438159	-0.384412	0.0459	-0.0930533	0.211489	
2.2995	0	0	0.384616	0.659024	0.197162	0.827097	0.048775	0.389607	-0.080495	0.853164	-0.048881	0.095055	-0.085912	0.580409	0.107885	0.477972	-0.045289	0.589311	0.246464	0.608795	-0.083488	0.162575	-0.107199	0.105745	-0.05247	0.170907	-0.237811	0.12987	-0.086205	0.403321	-0.380607	0.049536	-0.079254	0.185358	
2.30255	0	0	0.377974	0.64163	0.212256	0.823583	0.0471328	0.383224	-0.0756243	0.839398	-0.048179	0.0828177	-0.0926803	0.569616	0.113636	0.474214	-0.0501295	0.574091	0.251926	0.605226	-0.0811053	0.1432	-0.106223	0.0908335	-0.0530188	0.153616	-0.244888	0.117222	-0.0992685	0.380012	-0.3768	0.0531757	-0.0819293	0.167193	
2.30865	0	0	0.371332	0.624237	0.22735	0.820068	0.0454905	0.376841	-0.0707535	0.825632	-0.047477	0.0705805	-0.0994485	0.558824	0.119388	0.470456	-0.05497	0.558872	0.257388	0.601657	-0.0787225	0.123826	-0.105247	0.075922	-0.0535675	0.136325	-0.251965	0.104573	-0.112332	0.356703	-0.372993	0.0568155	-0.0846045	0.149028	
2.31628	0	0	0.364689	0.606843	0.242443	0.816554	0.0438482	0.370458	-0.0658827	0.811867	-0.046775	0.0583432	-0.106217	0.548032	0.125139	0.466698	-0.0598105	0.543653	0.26285	0.598088	-0.0763397	0.104451	-0.104272	0.0610105	-0.0541162	0.119033	-0.259041	0.0919245	-0.125395	0.333394	-0.369186	0.0604553	-0.0872797	0.130863	
2.31933	0	0	0.358047	0.589449	0.257537	0.81304	0.042206	0.364075	-0.061012	0.798101	-0.046073	0.046106	-0.112985	0.537239	0.13089	0.46294	-0.064651	0.528433	0.268312	0.594519	-0.073957	0.085076	-0.103296	0.046099	-0.054665	0.101742	-0.266118	0.079276	-0.138459	0.310085	-0.365379	0.064095	-0.089955	0.112698	
2.32391	0	0	0.334824	0.582958	0.268274	0.821921	0.0410625	0.367307	-0.067373	0.804901	-0.0435213	0.0491475	-0.112985	0.537239	0.13043	0.451745	-0.0629617	0.523659	0.265284	0.591211	-0.0725922	0.081219	-0.0998905	0.0486285	-0.0480218	0.101809	-0.268145	0.0741345	-0.144983	0.29848	-0.354932	0.0634015	-0.088648	0.109004	
2.32849	0	0	0.311601	0.576466	0.279011	0.830802	0.039919	0.370538	-0.073734	0.811702	-0.0409695	0.052189	-0.112985	0.537239	0.129969	0.440551	-0.0612725	0.518884	0.262255	0.587902	-0.0712275	0.077362	-0.096485	0.051158	-0.0413785	0.101877	-0.270172	0.068993	-0.151506	0.286876	-0.344484	0.062708	-0.087341	0.10531	
2.33307	0	0	0.288378	0.569975	0.289749	0.839683	0.0387755	0.37377	-0.080095	0.818503	-0.0384178	0.0552305	-0.112985	0.537239	0.129508	0.429356	-0.0595833	0.51411	0.259227	0.584593	-0.0698628	0.073505	-0.0930795	0.0536875	-0.0347352	0.101944	-0.272198	0.0638515	-0.158029	0.275271	-0.334037	0.0620145	-0.086034	0.101615	
2.33765	0	0	0.265155	0.563484	0.300486	0.848564	0.037632	0.377002	-0.086456	0.825303	-0.035866	0.058272	-0.112985	0.537239	0.129048	0.418161	-0.057894	0.509336	0.256199	0.581285	-0.068498	0.069648	-0.089674	0.056217	-0.028092	0.102011	-0.274225	0.05871	-0.164553	0.263666	-0.323589	0.061321	-0.084727	0.097921	
2.34527	0	0	0.247978	0.540185	0.306341	0.832018	0.0382742	0.364169	-0.0855165	0.811478	-0.0431342	0.0583122	-0.118114	0.536792	0.121519	0.414471	-0.0611605	0.504135	0.261661	0.577716	-0.0743118	0.073447	-0.091864	0.0624058	-0.0387945	0.113415	-0.275217	0.0615127	-0.168542	0.259935	-0.317366	0.072611	-0.0853498	0.11254	
2.35138	0	0	0.230801	0.516885	0.312195	0.815472	0.0389165	0.351336	-0.084577	0.797654	-0.0504025	0.0583525	-0.123243	0.536345	0.11399	0.410782	-0.064427	0.498935	0.267123	0.574147	-0.0801255	0.077246	-0.094054	0.0685945	-0.049497	0.124819	-0.276208	0.0643155	-0.17253	0.256205	-0.311144	0.083901	-0.0859725	0.127159	
2.3529	0	0	0.213624	0.493586	0.318049	0.798926	0.0395588	0.338503	-0.0836375	0.783829	-0.0576707	0.0583928	-0.128372	0.535898	0.106462	0.407093	-0.0676935	0.493734	0.272584	0.570578	-0.0859392	0.081045	-0.096244	0.0747832	-0.0601995	0.136224	-0.2772	0.0671182	-0.176518	0.252474	-0.304921	0.095191	-0.0865952	0.141778	
2.35748	0	0	0.196447	0.470287	0.323904	0.78238	0.040201	0.32567	-0.082698	0.770004	-0.064939	0.058433	-0.133501	0.535451	0.098933	0.403403	-0.07096	0.488533	0.278046	0.567009	-0.091753	0.084844	-0.098434	0.080972	-0.070902	0.147628	-0.278192	0.069921	-0.180507	0.248744	-0.298698	0.106481	-0.087218	0.156397	
2.36511	0	0	0.173398	0.463859	0.328468	0.782576	0.0424835	0.319219	-0.080269	0.76314	-0.065323	0.0492755	-0.130007	0.525578	0.0958317	0.399696	-0.0725403	0.478577	0.279262	0.563572	-0.0890255	0.0771353	-0.0951497	0.0716902	-0.0668428	0.136157	-0.279227	0.0619827	-0.195364	0.245796	-0.297283	0.102483	-0.0931363	0.160264	
2.36664	0	0	0.150349	0.45743	0.333032	0.782772	0.044766	0.312769	-0.07784	0.756275	-0.065707	0.040118	-0.126514	0.515704	0.0927305	0.395988	-0.0741205	0.468622	0.280479	0.560136	-0.086298	0.0694265	-0.0918655	0.0624085	-0.0627835	0.124685	-0.280262	0.0540445	-0.210221	0.242847	-0.295868	0.098484	-0.0990545	0.164131	
2.36816	0	0	0.1273	0.451001	0.337595	0.782968	0.0470485	0.306319	-0.075411	0.74941	-0.066091	0.0309605	-0.12302	0.50583	0.0896292	0.392281	-0.0757007	0.458666	0.281695	0.556699	-0.0835705	0.0617178	-0.0885813	0.0531268	-0.0587242	0.113213	-0.281297	0.0461063	-0.225077	0.239899	-0.294453	0.0944855	-0.104973	0.167998	
2.37121	0	0	0.104251	0.444573	0.342159	0.783164	0.049331	0.299868	-0.072982	0.742546	-0.066475	0.021803	-0.119526	0.495957	0.086528	0.388574	-0.077281	0.44871	0.282911	0.553262	-0.080843	0.054009	-0.085297	0.043845	-0.054665	0.101742	-0.282332	0.038168	-0.239934	0.236951	-0.293038	0.090487	-0.110891	0.171865	
2.37121	0	0	0.0980102	0.444361	0.346901	0.795977	0.0560517	0.302917	-0.0687728	0.752997	-0.0581263	0.0186988	-0.116142	0.501337	0.092268	0.384823	-0.0723282	0.449135	0.288376	0.549691	-0.080843	0.054009	-0.084203	0.0407533	-0.0526375	0.0960118	-0.289353	0.0363018	-0.246428	0.225407	-0.293038	0.090487	-0.109582	0.168165	
2.37427	0	0	0.0917695	0.444149	0.351643	0.80879	0.0627725	0.305965	-0.0645635	0.763447	-0.0497775	0.0155945	-0.112759	0.506717	0.098008	0.381073	-0.0673755	0.44956	0.293841	0.54612	-0.080843	0.054009	-0.083109	0.0376615	-0.05061	0.0902815	-0.296374	0.0344355	-0.252922	0.213863	-0.293038	0.090487	-0.108272	0.164465	
2.37732	0	0	0.0855288	0.443937	0.356385	0.821602	0.0694933	0.309013	-0.0603542	0.773898	-0.0414288	0.0124902	-0.109376	0.512096	0.103748	0.377323	-0.0624227	0.449984	0.299307	0.542548	-0.080843	0.054009	-0.082015	0.0345697	-0.0485825	0.0845512	-0.303395	0.0325693	-0.259415	0.20232	-0.293038	0.090487	-0.106963	0.160764	
2.37427	0	0	0.079288	0.443725	0.361127	0.834415	0.076214	0.312062	-0.056145	0.784348	-0.03308	0.009386	-0.105992	0.517476	0.109488	0.373572	-0.05747	0.450409	0.304772	0.538977	-0.080843	0.054009	-0.080921	0.031478	-0.046555	0.078821	-0.310416	0.030703	-0.265909	0.190776	-0.293038	0.090487	-0.105654	0.157064	
2.3819	0	0	0.0668265	0.443296	0.359826	0.851214	0.072786	0.32175	-0.0597962	0.794667	-0.0384955	0.0246913	-0.106108	0.532759	0.106849	0.38103	-0.0558875	0.460369	0.307808	0.542278	-0.0733038	0.0579743	-0.0797018	0.040194	-0.0439695	0.0903562	-0.303395	0.0325693	-0.263389	0.198598	-0.294453	0.0944855	-0.101678	0.171552	
2.37884	0	0	0.054365	0.442867	0.358525	0.868013	0.069358	0.331438	-0.0634475	0.804985	-0.043911	0.0399965	-0.106224	0.548041	0.10421	0.388487	-0.054305	0.470329	0.310844	0.54558	-0.0657645	0.0619395	-0.0784825	0.04891	-0.041384	0.101891	-0.296374	0.0344355	-0.26087	0.206419	-0.295868	0.098484	-0.097701	0.18604	
2.38037	0	0	0.0419035	0.442439	0.357224	0.884811	0.06593	0.341126	-0.0670987	0.815303	-0.0493265	0.0553018	-0.10634	0.563323	0.101572	0.395945	-0.0527225	0.480288	0.313881	0.548882	-0.0582252	0.0659047	-0.0772633	0.057626	-0.0387985	0.113427	-0.289353	0.0363018	-0.25835	0.214241	-0.297283	0.102483	-0.0937245	0.200527	
2.38037	0	0	0.029442	0.44201	0.355923	0.90161	0.062502	0.350814	-0.07075	0.825622	-0.054742	0.070607	-0.106456	0.578606	0.098933	0.403403	-0.05114	0.490248	0.316917	0.552183	-0.050686	0.06987	-0.076044	0.066342	-0.036213	0.124962	-0.282332	0.038168	-0.255831	0.222062	-0.298698	0.106481	-0.089748	0.215015	
2.38037	0	0	0.0251905	0.436227	0.357392	0.897457	0.063645	0.347584	-0.0670987	0.815303	-0.0562083	0.0645025	-0.109838	0.573208	0.101572	0.395945	-0.0494522	0.485479	0.316917	0.552183	-0.0520513	0.0737285	-0.076044	0.066342	-0.042855	0.124891	-0.286297	0.0493733	-0.251857	0.225784	-0.305346	0.110825	-0.093021	0.237142	
2.38495	0	0	0.020939	0.430444	0.358861	0.893304	0.064788	0.344353	-0.0634475	0.804985	-0.0576745	0.058398	-0.113219	0.56781	0.10421	0.388487	-0.0477645	0.48071	0.316917	0.552183	-0.0534165	0.077587	-0.076044	0.066342	-0.049497	0.12482	-0.290262	0.0605785	-0.247883	0.229507	-0.311994	0.115169	-0.096294	0.259268	
2.388	0	0	0.0166875	0.424661	0.360331	0.889151	0.065931	0.341122	-0.0597962	0.794667	-0.0591407	0.0522935	-0.1166	0.562412	0.106849	0.38103	-0.0460767	0.47594	0.316917	0.552183	-0.0547818	0.0814455	-0.076044	0.066342	-0.056139	0.124749	-0.294227	0.0717837	-0.243908	0.233229	-0.318641	0.119513	-0.099567	0.281394	
2.38953	0	0	0.012436	0.418878	0.3618	0.884998	0.067074	0.337892	-0.056145	0.784348	-0.060607	0.046189	-0.119982	0.557014	0.109488	0.373572	-0.044389	0.471171	0.316917	0.552183	-0.056147	0.085304	-0.076044	0.066342	-0.062781	0.124678	-0.298192	0.082989	-0.239934	0.236951	-0.325289	0.123857	-0.10284	0.303521	
2.38647	0	0	0.012436	0.418878	0.363433	0.893513	0.0698645	0.341037	-0.0522145	0.784423	-0.0558905	0.0431072	-0.113099	0.552516	0.109488	0.373572	-0.0377412	0.466827	0.321172	0.552047	-0.0588793	0.0930263	-0.076044	0.066342	-0.0541088	0.119011	-0.296209	0.0773848	-0.243908	0.233229	-0.323874	0.119858	-0.106135	0.299957	
2.388	0	0	0.012436	0.418878	0.365066	0.902029	0.072655	0.344181	-0.048284	0.784498	-0.051174	0.0400255	-0.106217	0.548019	0.109488	0.373572	-0.0310935	0.462483	0.325428	0.55191	-0.0616115	0.100749	-0.076044	0.066342	-0.0454365	0.113345	-0.294226	0.0717805	-0.247883	0.229507	-0.32246	0.11586	-0.10943	0.296394	
2.38647	0	0	0.012436	0.418878	0.366699	0.910544	0.0754455	0.347326	-0.0443535	0.784573	-0.0464575	0.0369438	-0.0993337	0.543521	0.109488	0.373572	-0.0244458	0.458139	0.329684	0.551774	-0.0643438	0.108471	-0.076044	0.066342	-0.0367642	0.107678	-0.292243	0.0661762	-0.251857	0.225784	-0.321045	0.111862	-0.112726	0.29283	
2.38647	0	0	0.012436	0.418878	0.368332	0.91906	0.078236	0.35047	-0.040423	0.784648	-0.041741	0.033862	-0.092451	0.539024	0.109488	0.373572	-0.017798	0.453795	0.333939	0.551638	-0.067076	0.116193	-0.076044	0.066342	-0.028092	0.102011	-0.29026	0.060572	-0.255831	0.222062	-0.31963	0.107863	-0.116021	0.289267	
2.38342	0	0	0.00031225	0.435361	0.36554	0.940089	0.080383	0.366484	-0.0347125	0.802099	-0.0340797	0.0429878	-0.077023	0.540357	0.112593	0.377277	-0.0112425	0.46419	0.327249	0.558654	-0.055071	0.120237	-0.0759242	0.0781732	-0.0234728	0.107818	-0.293235	0.0689798	-0.251857	0.225784	-0.331496	0.112544	-0.106795	0.288956	
2.38495	0	0	-0.0118115	0.451844	0.362749	0.961118	0.08253	0.382497	-0.029002	0.819551	-0.0264185	0.0521135	-0.061595	0.541691	0.115698	0.380981	-0.004687	0.474584	0.320559	0.565671	-0.043066	0.124281	-0.0758045	0.0900045	-0.0188535	0.113624	-0.29621	0.0773875	-0.247883	0.229507	-0.343362	0.117225	-0.0975695	0.288644	
2.388	0	0	-0.0239352	0.468327	0.359957	0.982147	0.084677	0.39851	-0.0232915	0.837002	-0.0187573	0.0612392	-0.046167	0.543025	0.118802	0.384686	0.0018685	0.484979	0.313869	0.572688	-0.031061	0.128326	-0.0756847	0.101836	-0.0142342	0.119431	-0.299185	0.0857952	-0.243908	0.233229	-0.355228	0.121906	-0.0883437	0.288332	
2.38647	0	0	-0.036059	0.48481	0.357166	1.00318	0.086824	0.414524	-0.017581	0.854453	-0.011096	0.070365	-0.030739	0.544358	0.121907	0.38839	0.008424	0.495374	0.307179	0.579704	-0.019056	0.13237	-0.075565	0.113667	-0.009615	0.125238	-0.30216	0.094203	-0.239934	0.236951	-0.367094	0.126587	-0.079118	0.288021	
2.38495	0	0	-0.044235	0.490152	0.351119	1.00713	0.0805943	0.421087	-0.0215173	0.854374	-0.0176135	0.088785	-0.0377572	0.564193	0.120587	0.392121	0.0100112	0.505367	0.315691	0.579436	-0.021448	0.151805	-0.0742422	0.134292	-0.0111023	0.148322	-0.296093	0.109667	-0.237812	0.2609	-0.366117	0.138247	-0.079112	0.313801	
2.37732	0	0	-0.052411	0.495495	0.345071	1.01108	0.0743645	0.427649	-0.0254535	0.854294	-0.024131	0.107205	-0.0447755	0.584027	0.119266	0.395852	0.0115985	0.515359	0.324202	0.579168	-0.02384	0.17124	-0.0729195	0.154917	-0.0125895	0.171405	-0.290026	0.125132	-0.235691	0.284849	-0.36514	0.149907	-0.079106	0.339581	
2.38037	0	0	-0.060587	0.500837	0.339023	1.01503	0.0681347	0.434211	-0.0293897	0.854214	-0.0306485	0.125625	-0.0517937	0.603862	0.117946	0.399584	0.0131857	0.525351	0.332714	0.578899	-0.026232	0.190675	-0.0715968	0.175541	-0.0140767	0.194489	-0.28396	0.140596	-0.233569	0.308797	-0.364163	0.161568	-0.0791	0.365362	
2.37884	0	0	-0.068763	0.506179	0.332976	1.01898	0.061905	0.440774	-0.033326	0.854135	-0.037166	0.144045	-0.058812	0.623697	0.116626	0.403315	0.014773	0.535344	0.341226	0.578631	-0.028624	0.21011	-0.070274	0.196166	-0.015564	0.217573	-0.277893	0.15606	-0.231447	0.332746	-0.363186	0.173228	-0.079094	0.391142	
2.37732	0	0	-0.068763	0.506179	0.325457	1.0271	0.0607577	0.444016	-0.0372593	0.854055	-0.036079	0.140973	-0.058812	0.623697	0.116626	0.403315	0.0197478	0.535774	0.337568	0.588969	-0.0269073	0.217942	-0.0679655	0.201836	-0.0176035	0.223336	-0.285885	0.167771	-0.223489	0.340249	-0.367438	0.185245	-0.0903215	0.409969	
2.37274	0	0	-0.068763	0.506179	0.317938	1.03522	0.0596105	0.447258	-0.0411925	0.853974	-0.034992	0.1379	-0.058812	0.623697	0.116626	0.403315	0.0247225	0.536204	0.33391	0.599307	-0.0251905	0.225773	-0.065657	0.207506	-0.019643	0.2291	-0.293877	0.179482	-0.215531	0.347751	-0.37169	0.197262	-0.101549	0.428796	
2.37579	0	0	-0.068763	0.506179	0.310419	1.04334	0.0584633	0.4505	-0.0451257	0.853894	-0.033905	0.134828	-0.058812	0.623697	0.116626	0.403315	0.0296973	0.536633	0.330252	0.609646	-0.0234737	0.233604	-0.0633485	0.213175	-0.0216825	0.234864	-0.301869	0.191192	-0.207574	0.355254	-0.375942	0.209279	-0.112777	0.447623	
2.37121	0	0	-0.068763	0.506179	0.3029	1.05146	0.057316	0.453742	-0.049059	0.853814	-0.032818	0.131755	-0.058812	0.623697	0.116626	0.403315	0.034672	0.537063	0.326594	0.619984	-0.021757	0.241436	-0.06104	0.218845	-0.023722	0.240627	-0.309861	0.202903	-0.199616	0.362757	-0.380194	0.221296	-0.124004	0.46645	
2.36969	0	0	-0.0583228	0.512219	0.307603	1.06444	0.064532	0.4665	-0.040916	0.864411	-0.026624	0.134797	-0.0467538	0.619635	0.11841	0.410762	0.0362585	0.547079	0.336936	0.626493	-0.0183278	0.257137	-0.0609382	0.230759	-0.0211493	0.252256	-0.306848	0.205263	-0.202543	0.37103	-0.381613	0.225305	-0.129939	0.470328	
2.37121	0	0	-0.0478825	0.518258	0.312306	1.07742	0.071748	0.479259	-0.032773	0.875007	-0.02043	0.137839	-0.0346955	0.615573	0.120193	0.41821	0.037845	0.557095	0.347278	0.633002	-0.0148985	0.272838	-0.0608365	0.242672	-0.0185765	0.263885	-0.303835	0.207623	-0.205471	0.379303	-0.383031	0.229314	-0.135873	0.474205	
2.36664	0	0	-0.0374422	0.524297	0.317008	1.0904	0.078964	0.492017	-0.02463	0.885604	-0.014236	0.14088	-0.0226372	0.611512	0.121976	0.425658	0.0394315	0.567112	0.357621	0.639512	-0.0114693	0.28854	-0.0607347	0.254586	-0.0160038	0.275515	-0.300821	0.209983	-0.208398	0.387576	-0.38445	0.233324	-0.141808	0.478083	
2.36816	0	0	-0.027002	0.530337	0.321711	1.10338	0.08618	0.504776	-0.016487	0.896201	-0.008042	0.143922	-0.010579	0.60745	0.12376	0.433105	0.041018	0.577128	0.367963	0.646021	-0.00804	0.304241	-0.060633	0.266499	-0.013431	0.287144	-0.297808	0.212343	-0.211325	0.395849	-0.385869	0.237333	-0.147742	0.481961	
2.36359	0	0	-0.024741	0.541745	0.318874	1.12455	0.0843622	0.520976	-0.0186675	0.91358	-0.00875525	0.15622	-0.0124627	0.6278	0.125543	0.440564	0.0426015	0.587164	0.370378	0.66306	-0.0015235	0.323979	-0.055928	0.289855	-0.01496	0.310384	-0.29579	0.217523	-0.211745	0.412049	-0.375418	0.236673	-0.151714	0.493188	
2.36664	0	0	-0.02248	0.553153	0.316037	1.14571	0.0825445	0.537176	-0.020848	0.930959	-0.0094685	0.168517	-0.0143465	0.648151	0.127325	0.448022	0.044185	0.597201	0.372792	0.6801	0.004993	0.343716	-0.051223	0.313211	-0.016489	0.333624	-0.293772	0.222703	-0.212164	0.42825	-0.364966	0.236012	-0.155687	0.504414	
2.36511	0	0	-0.020219	0.564561	0.3132	1.16688	0.0807268	0.553377	-0.0230285	0.948339	-0.0101817	0.180814	-0.0162303	0.668502	0.129108	0.455481	0.0457685	0.607237	0.375207	0.69714	0.0115095	0.363454	-0.046518	0.336566	-0.018018	0.356864	-0.291755	0.227883	-0.212584	0.44445	-0.354515	0.235351	-0.159659	0.51564	
2.36359	0	0	-0.017958	0.575969	0.310363	1.18805	0.078909	0.569577	-0.025209	0.965718	-0.010895	0.193112	-0.018114	0.688852	0.13089	0.46294	0.047352	0.617273	0.377622	0.714179	0.018026	0.383192	-0.041813	0.359922	-0.019547	0.380104	-0.289737	0.233063	-0.213003	0.46065	-0.344063	0.234691	-0.163631	0.526867	
2.36359	0	0	-0.017958	0.575969	0.307277	1.18362	0.0851568	0.56299	-0.0291465	0.965629	-0.0101817	0.180814	-0.021507	0.683415	0.126462	0.462958	0.047352	0.617273	0.376984	0.727925	0.015579	0.402843	-0.0518747	0.376133	-0.0257047	0.397507	-0.291733	0.238703	-0.22579	0.481773	-0.356397	0.255104	-0.167608	0.538107	
2.35748	0	0	-0.017958	0.575969	0.304191	1.17919	0.0914045	0.556404	-0.033084	0.96554	-0.0094685	0.168517	-0.0249	0.677978	0.122035	0.462975	0.047352	0.617273	0.376347	0.741671	0.013132	0.422494	-0.0619365	0.392344	-0.0318625	0.414909	-0.293728	0.244343	-0.238576	0.502895	-0.368731	0.275518	-0.171586	0.549348	
2.35748	0	0	-0.017958	0.575969	0.301104	1.17476	0.0976523	0.549817	-0.0370215	0.965452	-0.00875525	0.15622	-0.028293	0.672541	0.117607	0.462992	0.047352	0.617273	0.375709	0.755416	0.010685	0.442145	-0.0719982	0.408554	-0.0380203	0.432312	-0.295724	0.249982	-0.251363	0.524018	-0.381064	0.295931	-0.175563	0.560589	
2.35901	0	0	-0.017958	0.575969	0.298018	1.17034	0.1039	0.54323	-0.040959	0.965363	-0.008042	0.143922	-0.031686	0.667104	0.113179	0.46301	0.047352	0.617273	0.375071	0.769162	0.008238	0.461796	-0.08206	0.424765	-0.044178	0.449715	-0.297719	0.255622	-0.26415	0.545141	-0.393398	0.316344	-0.17954	0.571829	
2.35748	0	0	-0.0281287	0.586915	0.296536	1.17453	0.0976523	0.549817	-0.0357965	0.96199	-0.013149	0.137809	-0.0350777	0.661675	0.11893	0.459252	0.040673	0.621637	0.381159	0.775866	0.00546375	0.469637	-0.08428	0.431039	-0.0528855	0.455405	-0.303744	0.25089	-0.269585	0.545498	-0.391976	0.312324	-0.190693	0.56472	
2.35596	0	0	-0.0382995	0.597862	0.295053	1.17872	0.0914045	0.556404	-0.030634	0.958616	-0.018256	0.131695	-0.0384695	0.656245	0.124682	0.455494	0.033994	0.626001	0.387247	0.78257	0.0026895	0.477477	-0.0865	0.437312	-0.061593	0.461094	-0.309769	0.246158	-0.275019	0.545856	-0.390553	0.308304	-0.201846	0.557611	
2.3529	0	0	-0.0484702	0.608808	0.293571	1.18291	0.0851568	0.56299	-0.0254715	0.955243	-0.023363	0.125582	-0.0418613	0.650815	0.130433	0.451736	0.027315	0.630365	0.393335	0.789274	-8.475E-05	0.485318	-0.08872	0.443586	-0.0703005	0.466784	-0.315793	0.241425	-0.280454	0.546213	-0.389131	0.304284	-0.212999	0.550501	
2.35443	0	0	-0.058641	0.619754	0.292088	1.1871	0.078909	0.569577	-0.020309	0.95187	-0.02847	0.119468	-0.045253	0.645386	0.136184	0.447978	0.020636	0.634729	0.399423	0.795978	-0.002859	0.493159	-0.09094	0.44986	-0.079008	0.472474	-0.321818	0.236693	-0.285889	0.54657	-0.387709	0.300264	-0.224152	0.543392	
2.3529	0	0	-0.0606215	0.625352	0.284665	1.20808	0.0793895	0.57929	-0.0276665	0.972663	-0.02483	0.119451	-0.0418613	0.650815	0.13486	0.451719	0.0189358	0.639535	0.395731	0.806413	0.00332	0.501193	-0.0897575	0.458744	-0.0744125	0.478405	-0.324828	0.234329	-0.298213	0.55143	-0.386287	0.296245	-0.232015	0.539906	
2.35138	0	0	-0.062602	0.630949	0.277242	1.22905	0.07987	0.589002	-0.035024	0.993456	-0.02119	0.119434	-0.0384695	0.656245	0.133537	0.455459	0.0172355	0.64434	0.392038	0.816847	0.009499	0.509227	-0.088575	0.467628	-0.069817	0.484337	-0.327838	0.231966	-0.310536	0.556289	-0.384865	0.292227	-0.239878	0.536421	
2.3529	0	0	-0.0645825	0.636547	0.269819	1.25003	0.0803505	0.598715	-0.0423815	1.01425	-0.01755	0.119417	-0.0350777	0.661675	0.132214	0.459199	0.0155353	0.649145	0.388346	0.827282	0.015678	0.517262	-0.0873925	0.476512	-0.0652215	0.490268	-0.330847	0.229602	-0.32286	0.561149	-0.383443	0.288208	-0.247742	0.532936	
2.35443	0	0	-0.066563	0.642144	0.262396	1.27101	0.080831	0.608428	-0.049739	1.03504	-0.01391	0.1194	-0.031686	0.667104	0.13089	0.46294	0.013835	0.653951	0.384654	0.837717	0.021857	0.525296	-0.08621	0.485396	-0.060626	0.496199	-0.333857	0.227239	-0.335184	0.566009	-0.382021	0.28419	-0.255605	0.52945	
2.3529	0	0	-0.0727663	0.641894	0.256245	1.26212	0.0764113	0.598785	-0.0551543	1.02792	-0.020102	0.116364	-0.0455015	0.676131	0.126462	0.462958	0.0088615	0.653506	0.38893	0.8376	0.0176835	0.537091	-0.0873222	0.488539	-0.0668037	0.513659	-0.33585	0.232872	-0.339594	0.578473	-0.384865	0.292229	-0.254984	0.540545	
2.35748	0	0	-0.0789695	0.641644	0.250094	1.25324	0.0719915	0.589142	-0.0605695	1.0208	-0.026294	0.113328	-0.059317	0.685159	0.122035	0.462975	0.003888	0.653062	0.393205	0.837482	0.01351	0.548885	-0.0884345	0.491681	-0.0729815	0.531118	-0.337843	0.238504	-0.344004	0.590938	-0.38771	0.300267	-0.254363	0.55164	
2.35443	0	0	-0.0851727	0.641394	0.243943	1.24435	0.0675717	0.579499	-0.0659848	1.01367	-0.032486	0.110293	-0.0731325	0.694186	0.117607	0.462992	-0.0010855	0.652617	0.397481	0.837364	0.0093365	0.56068	-0.0895468	0.494824	-0.0791593	0.548578	-0.339836	0.244136	-0.348415	0.603402	-0.390554	0.308306	-0.253742	0.562734	
2.34985	0	0	-0.091376	0.641144	0.237792	1.23547	0.063152	0.569856	-0.0714	1.00655	-0.038678	0.107257	-0.086948	0.703213	0.113179	0.46301	-0.006059	0.652173	0.401757	0.837247	0.005163	0.572475	-0.090659	0.497967	-0.085337	0.566037	-0.341829	0.249769	-0.352825	0.615866	-0.393398	0.316344	-0.253121	0.573829	
2.35138	0	0	-0.0893967	0.63555	0.233236	1.23522	0.060367	0.56667	-0.0741057	1.00299	-0.044863	0.104224	-0.0903285	0.697776	0.110077	0.459289	-0.011028	0.651728	0.393208	0.837481	0.0020765	0.568445	-0.0951735	0.498501	-0.100682	0.571587	-0.347841	0.245039	-0.362186	0.6124	-0.402413	0.312967	-0.264236	0.566719	
2.34833	0	0	-0.0874175	0.629956	0.22868	1.23497	0.057582	0.563484	-0.0768115	0.999439	-0.051048	0.101191	-0.093709	0.692339	0.106975	0.455568	-0.015997	0.651282	0.38466	0.837716	-0.00101	0.564415	-0.099688	0.499035	-0.116028	0.577136	-0.353853	0.24031	-0.371547	0.608934	-0.411428	0.30959	-0.275351	0.55961	
2.34833	0	0	-0.0854383	0.624362	0.224124	1.23473	0.054797	0.560297	-0.0795173	0.995882	-0.057233	0.0981573	-0.0970895	0.686903	0.103872	0.451848	-0.020966	0.650837	0.376111	0.83795	-0.0040965	0.560386	-0.104203	0.499568	-0.131373	0.582686	-0.359866	0.23558	-0.380907	0.605468	-0.420443	0.306212	-0.286466	0.5525	
2.34833	0	0	-0.083459	0.618768	0.219568	1.23448	0.052012	0.557111	-0.082223	0.992326	-0.063418	0.095124	-0.10047	0.681466	0.10077	0.448127	-0.025935	0.650391	0.367563	0.838184	-0.007183	0.556356	-0.108717	0.500102	-0.146719	0.588236	-0.365878	0.230851	-0.390268	0.602002	-0.429458	0.302835	-0.297581	0.54539	
2.35138	0	0	-0.0854383	0.624362	0.227199	1.23917	0.0536443	0.563555	-0.0831965	1.00628	-0.0597838	0.0951068	-0.103989	0.691411	0.0994478	0.451865	-0.0276345	0.655194	0.3651	0.845145	-0.007183	0.556356	-0.113228	0.500635	-0.14466	0.582416	-0.370889	0.223319	-0.399613	0.598539	-0.43325	0.299141	-0.302779	0.534444	
2.34833	0	0	-0.0874175	0.629956	0.23483	1.24386	0.0552765	0.569999	-0.08417	1.02024	-0.0561495	0.0950895	-0.107508	0.701356	0.0981255	0.455602	-0.029334	0.659997	0.362637	0.852105	-0.007183	0.556356	-0.11774	0.501167	-0.1426	0.576596	-0.3759	0.215786	-0.408957	0.595077	-0.437042	0.295447	-0.307978	0.523499	
2.3468	0	0	-0.0893967	0.63555	0.24246	1.24854	0.0569088	0.576442	-0.0851435	1.03419	-0.0525152	0.0950722	-0.111026	0.711301	0.0968032	0.45934	-0.0310335	0.664799	0.360174	0.859066	-0.007183	0.556356	-0.122251	0.501699	-0.140541	0.570777	-0.380912	0.208254	-0.418302	0.591614	-0.440834	0.291754	-0.313177	0.512553	
2.3407	0	0	-0.091376	0.641144	0.250091	1.25323	0.058541	0.582886	-0.086117	1.04815	-0.048881	0.095055	-0.114545	0.721246	0.095481	0.463077	-0.032733	0.669602	0.357711	0.866027	-0.007183	0.556356	-0.126763	0.502232	-0.138482	0.564957	-0.385923	0.200721	-0.427647	0.588151	-0.444626	0.28806	-0.318375	0.501607	
2.34375	0	0	-0.0975727	0.640893	0.242562	1.26137	0.053452	0.586211	-0.0873445	1.05161	-0.0557713	0.104274	-0.111169	0.726694	0.0870907	0.474309	-0.0344332	0.674407	0.359517	0.872882	-0.009966	0.564221	-0.127875	0.505374	-0.144664	0.582428	-0.385923	0.200721	-0.434513	0.592637	-0.440834	0.291754	-0.32295	0.501731	
2.34375	0	0	-0.10377	0.640641	0.235034	1.26952	0.048363	0.589537	-0.088572	1.05508	-0.0626615	0.113493	-0.107792	0.732142	0.0787005	0.485542	-0.0361335	0.679212	0.361323	0.879737	-0.012749	0.572086	-0.128987	0.508516	-0.150845	0.599899	-0.385923	0.200721	-0.44138	0.597124	-0.437042	0.295447	-0.327526	0.501856	
2.34222	0	0	-0.109966	0.640389	0.227505	1.27767	0.043274	0.592862	-0.0897995	1.05855	-0.0695517	0.122713	-0.104415	0.737589	0.0703103	0.496775	-0.0378337	0.684018	0.363129	0.886592	-0.015532	0.579951	-0.130098	0.511657	-0.157027	0.61737	-0.385923	0.200721	-0.448246	0.601611	-0.43325	0.299141	-0.332101	0.501981	
2.33765	0	0	-0.116163	0.640138	0.219976	1.28581	0.038185	0.596187	-0.091027	1.06202	-0.076442	0.131932	-0.101039	0.743037	0.06192	0.508007	-0.039534	0.688823	0.364935	0.893447	-0.018315	0.587816	-0.13121	0.514799	-0.163209	0.634841	-0.385923	0.200721	-0.455112	0.606097	-0.429458	0.302835	-0.336676	0.502105	
2.33917	0	0	-0.122353	0.639885	0.218391	1.27717	0.0326243	0.589808	-0.0976557	1.05835	-0.0782805	0.116637	-0.10955	0.73712	0.0605958	0.511749	-0.0378337	0.684018	0.364935	0.893447	-0.0213975	0.583784	-0.141393	0.506973	-0.163659	0.617232	-0.392916	0.198814	-0.46443	0.60263	-0.439877	0.303472	-0.347133	0.506074	
2.33765	0	0	-0.128543	0.639632	0.216805	1.26853	0.0270635	0.58343	-0.104285	1.05469	-0.080119	0.101343	-0.11806	0.731202	0.0592715	0.515491	-0.0361335	0.679212	0.364935	0.893447	-0.02448	0.579751	-0.151576	0.499147	-0.164109	0.599623	-0.39991	0.196908	-0.473748	0.599163	-0.450296	0.304109	-0.35759	0.510044	
2.34222	0	0	-0.134733	0.639378	0.21522	1.25989	0.0215028	0.577052	-0.110913	1.05102	-0.0819575	0.0860485	-0.126571	0.725285	0.0579472	0.519233	-0.0344332	0.674407	0.364935	0.893447	-0.0275625	0.575719	-0.161759	0.491322	-0.164559	0.582014	-0.406903	0.195001	-0.483066	0.595695	-0.460716	0.304745	-0.368048	0.514013	
2.3407	0	0	-0.140923	0.639125	0.213635	1.25125	0.015942	0.570673	-0.117542	1.04736	-0.083796	0.070754	-0.135081	0.719368	0.056623	0.522975	-0.032733	0.669602	0.364935	0.893447	-0.030645	0.571687	-0.171942	0.483496	-0.165009	0.564405	-0.413896	0.193094	-0.492384	0.592228	-0.471135	0.305382	-0.378505	0.517982	
2.33765	0	0	-0.142901	0.644715	0.21819	1.2515	0.0198735	0.570606	-0.119995	1.05429	-0.088886	0.0646718	-0.138452	0.713929	0.0641385	0.526702	-0.032733	0.669602	0.361233	0.90391	-0.0292545	0.567757	-0.172008	0.471496	-0.169578	0.558457	-0.422882	0.186032	-0.4973	0.576369	-0.478701	0.297999	-0.382367	0.503349	
2.33917	0	0	-0.144879	0.650306	0.222745	1.25175	0.023805	0.570539	-0.122449	1.06122	-0.093976	0.0585895	-0.141823	0.708491	0.071654	0.530429	-0.032733	0.669602	0.35753	0.914373	-0.027864	0.563827	-0.172073	0.459496	-0.174147	0.552508	-0.431868	0.17897	-0.502216	0.560509	-0.486267	0.290617	-0.38623	0.488716	
2.33917	0	0	-0.146857	0.655897	0.227301	1.25199	0.0277365	0.570471	-0.124902	1.06816	-0.099066	0.0525072	-0.145195	0.703052	0.0791695	0.534157	-0.032733	0.669602	0.353828	0.924837	-0.0264735	0.559897	-0.172138	0.447495	-0.178716	0.546559	-0.440854	0.171907	-0.507133	0.54465	-0.493834	0.283235	-0.390093	0.474082	
2.33917	0	0	-0.148835	0.661487	0.231856	1.25224	0.031668	0.570404	-0.127356	1.07509	-0.104156	0.046425	-0.148566	0.697614	0.086685	0.537884	-0.032733	0.669602	0.350126	0.9353	-0.025083	0.555967	-0.172204	0.435495	-0.183285	0.540611	-0.44984	0.164845	-0.512049	0.528791	-0.5014	0.275852	-0.393955	0.459449	
2.33917	0	0	-0.156995	0.666819	0.23493	1.25669	0.0254333	0.576981	-0.128583	1.07856	-0.104156	0.046425	-0.152083	0.707553	0.0871278	0.549129	-0.0361345	0.679215	0.351927	0.942177	-0.025083	0.555967	-0.176701	0.436028	-0.183285	0.540611	-0.452832	0.162494	-0.515967	0.525006	-0.497152	0.263846	-0.401757	0.455984	
2.33459	0	0	-0.165156	0.672151	0.238003	1.26113	0.0191985	0.583557	-0.12981	1.08203	-0.104156	0.046425	-0.1556	0.717493	0.0875705	0.560374	-0.039536	0.688829	0.353727	0.949055	-0.025083	0.555967	-0.181198	0.43656	-0.183285	0.540611	-0.455824	0.160143	-0.519886	0.521221	-0.492903	0.25184	-0.409559	0.452519	
2.33917	0	0	-0.173316	0.677483	0.241076	1.26557	0.0129637	0.590133	-0.131038	1.0855	-0.104156	0.046425	-0.159117	0.727433	0.0880133	0.571619	-0.0429375	0.698442	0.355528	0.955932	-0.025083	0.555967	-0.185696	0.437092	-0.183285	0.540611	-0.458816	0.157793	-0.523804	0.517435	-0.488655	0.239834	-0.417362	0.449055	
2.33917	0	0	-0.181476	0.682815	0.24415	1.27002	0.006729	0.59671	-0.132265	1.08897	-0.104156	0.046425	-0.162634	0.737372	0.088456	0.582864	-0.046339	0.708055	0.357329	0.962809	-0.025083	0.555967	-0.190193	0.437625	-0.183285	0.540611	-0.461808	0.155442	-0.527722	0.51365	-0.484407	0.227828	-0.425164	0.44559	
2.33612	0	0	-0.177521	0.671638	0.244043	1.25719	0.00740375	0.583765	-0.133734	1.08193	-0.110703	0.0342693	-0.17112	0.731458	0.0942113	0.579103	-0.0496007	0.702796	0.354855	0.9698	-0.0295548	0.555869	-0.19586	0.42931	-0.198567	0.546134	-0.470757	0.159137	-0.533096	0.513991	-0.501399	0.232784	-0.427791	0.453014	
2.33459	0	0	-0.173567	0.66046	0.243937	1.24436	0.0080785	0.57082	-0.135204	1.07489	-0.11725	0.0221135	-0.179606	0.725544	0.0999665	0.575343	-0.0528625	0.697537	0.352382	0.97679	-0.0340265	0.555771	-0.201528	0.420995	-0.213848	0.551656	-0.479706	0.162832	-0.538471	0.514332	-0.51839	0.23774	-0.430418	0.460437	
2.33154	0	0	-0.169612	0.649283	0.243831	1.23153	0.00875325	0.557876	-0.136674	1.06785	-0.123798	0.00995775	-0.188092	0.71963	0.105722	0.571583	-0.0561243	0.692277	0.349909	0.98378	-0.0384982	0.555673	-0.207196	0.412681	-0.22913	0.557179	-0.488654	0.166528	-0.543845	0.514673	-0.535382	0.242696	-0.433044	0.467861	
2.33612	0	0	-0.165657	0.638106	0.243724	1.2187	0.009428	0.544931	-0.138143	1.06082	-0.130345	-0.002198	-0.196578	0.713716	0.111477	0.567822	-0.059386	0.687018	0.347435	0.990771	-0.04297	0.555575	-0.212863	0.404366	-0.244412	0.562702	-0.497603	0.170223	-0.549219	0.515014	-0.552374	0.247652	-0.435671	0.475285	
2.33307	0	0	-0.163681	0.632523	0.257298	1.20661	0.0105778	0.541682	-0.136917	1.05735	-0.13073	-0.0113197	-0.199939	0.708283	0.10882	0.575333	-0.0527227	0.682664	0.347435	0.990771	-0.051903	0.555376	-0.224112	0.39972	-0.246913	0.550965	-0.503572	0.165522	-0.551673	0.507115	-0.554732	0.239983	-0.440835	0.4644	
2.33002	0	0	-0.161706	0.626939	0.270871	1.19452	0.0117275	0.538433	-0.135691	1.05389	-0.131114	-0.0204415	-0.203299	0.702851	0.106162	0.582844	-0.0460595	0.67831	0.347435	0.990771	-0.060836	0.555178	-0.23536	0.395073	-0.249414	0.539229	-0.509541	0.160821	-0.554127	0.499216	-0.55709	0.232314	-0.445999	0.453516	
2.33307	0	0	-0.15973	0.621356	0.284444	1.18243	0.0128772	0.535183	-0.134465	1.05042	-0.131499	-0.0295632	-0.206659	0.697418	0.103504	0.590355	-0.0393963	0.673956	0.347435	0.990771	-0.069769	0.554979	-0.246609	0.390427	-0.251914	0.527493	-0.51551	0.15612	-0.556582	0.491317	-0.559448	0.224645	-0.451164	0.442631	
2.33307	0	0	-0.157754	0.615773	0.298018	1.17034	0.014027	0.531934	-0.133239	1.04696	-0.131884	-0.038685	-0.21002	0.691985	0.100847	0.597866	-0.032733	0.669602	0.347435	0.990771	-0.078702	0.55478	-0.257858	0.38578	-0.254415	0.515756	-0.521479	0.151419	-0.559036	0.483418	-0.561806	0.216976	-0.456328	0.431746	
2.32849	0	0	-0.15973	0.621356	0.298136	1.18315	0.0105767	0.541685	-0.134223	1.06093	-0.135119	-0.0295425	-0.206659	0.697418	0.107047	0.605378	-0.0378365	0.684026	0.350471	0.994166	-0.074237	0.55488	-0.257858	0.38578	-0.254415	0.515756	-0.52049	0.148624	-0.564402	0.48376	-0.568397	0.221283	-0.456945	0.420763	
2.32696	0	0	-0.161706	0.626939	0.298254	1.19597	0.0071265	0.551436	-0.135208	1.0749	-0.138354	-0.0204	-0.203299	0.702851	0.113247	0.61289	-0.04294	0.698449	0.353506	0.997561	-0.069772	0.554979	-0.257858	0.38578	-0.254415	0.515756	-0.519501	0.14583	-0.569767	0.484101	-0.574989	0.22559	-0.457562	0.40978	
2.32849	0	0	-0.163681	0.632523	0.298371	1.20879	0.00367625	0.561188	-0.136192	1.08887	-0.141588	-0.0112575	-0.199939	0.708283	0.119447	0.620402	-0.0480435	0.712873	0.356541	1.00096	-0.065307	0.555079	-0.257858	0.38578	-0.254415	0.515756	-0.518512	0.143035	-0.575133	0.484442	-0.581581	0.229898	-0.458179	0.398798	
2.32544	0	0	-0.165657	0.638106	0.298489	1.2216	0.000226	0.570939	-0.137177	1.10285	-0.144823	-0.002115	-0.196578	0.713716	0.125647	0.627914	-0.053147	0.727296	0.359577	1.00435	-0.060842	0.555179	-0.257858	0.38578	-0.254415	0.515756	-0.517523	0.14024	-0.580499	0.484784	-0.588172	0.234205	-0.458796	0.387815	
2.32544	0	0	-0.169859	0.63227	0.295405	1.21717	-0.0002515	0.561257	-0.145019	1.10264	-0.147362	-0.0051425	-0.20345	0.718206	0.11722	0.63921	-0.053147	0.727296	0.360135	1.01476	-0.0650118	0.566963	-0.260065	0.392018	-0.260569	0.533147	-0.52049	0.148627	-0.581956	0.4889	-0.584406	0.237882	-0.458179	0.398798	
2.32239	0	0	-0.174062	0.626434	0.292322	1.21273	-0.000729	0.551575	-0.152861	1.10243	-0.149901	-0.00817	-0.210321	0.722697	0.108792	0.650505	-0.053147	0.727296	0.360692	1.02516	-0.0691815	0.578748	-0.262273	0.398257	-0.266723	0.550539	-0.523458	0.157014	-0.583413	0.493017	-0.580639	0.241559	-0.457562	0.40978	
2.32391	0	0	-0.178264	0.620598	0.289239	1.2083	-0.0012065	0.541893	-0.160703	1.10222	-0.15244	-0.0111975	-0.217193	0.727187	0.100365	0.661801	-0.053147	0.727296	0.36125	1.03557	-0.0733513	0.590533	-0.264481	0.404496	-0.272877	0.567931	-0.526425	0.165401	-0.584869	0.497134	-0.576873	0.245237	-0.456945	0.420763	
2.31933	0	0	-0.182467	0.614762	0.286155	1.20386	-0.001684	0.532211	-0.168545	1.102	-0.154979	-0.014225	-0.224065	0.731677	0.091937	0.673097	-0.053147	0.727296	0.361808	1.04597	-0.077521	0.602317	-0.266688	0.410734	-0.279031	0.585322	-0.529393	0.173788	-0.586326	0.50125	-0.573106	0.248914	-0.456328	0.431746	
2.31628	0	0	-0.180494	0.609186	0.287638	1.19967	-0.000535	0.528964	-0.162171	1.09517	-0.160054	-0.0202727	-0.229175	0.731201	0.0950335	0.676868	-0.05485	0.732109	0.364845	1.04938	-0.077521	0.602317	-0.26896	0.405026	-0.283573	0.579373	-0.536342	0.17188	-0.588775	0.493361	-0.578285	0.249228	-0.471267	0.435812	
2.32391	0	0	-0.178521	0.603609	0.289122	1.19548	0.000614	0.525718	-0.155797	1.08834	-0.165129	-0.0263205	-0.234285	0.730724	0.09813	0.680638	-0.056553	0.736922	0.367881	1.05279	-0.077521	0.602317	-0.271232	0.399317	-0.288115	0.573425	-0.54329	0.169973	-0.591225	0.485472	-0.583464	0.249542	-0.486206	0.439879	
2.32086	0	0	-0.176548	0.598032	0.290605	1.19129	0.001763	0.522471	-0.149422	1.08151	-0.170203	-0.0323683	-0.239395	0.730248	0.101226	0.684409	-0.058256	0.741735	0.370918	1.05619	-0.077521	0.602317	-0.273505	0.393609	-0.292657	0.567476	-0.550238	0.168066	-0.593674	0.477582	-0.588642	0.249856	-0.501146	0.443945	
2.32239	0	0	-0.174575	0.592456	0.292088	1.1871	0.002912	0.519224	-0.143048	1.07468	-0.175278	-0.038416	-0.244505	0.729772	0.104323	0.68818	-0.059959	0.746548	0.373955	1.0596	-0.077521	0.602317	-0.275777	0.387901	-0.297199	0.561527	-0.557187	0.166158	-0.596123	0.469693	-0.593821	0.25017	-0.516085	0.448011	
2.32086	0	0	-0.17037	0.598285	0.295286	1.20437	0.00732025	0.528833	-0.141343	1.09225	-0.171664	-0.0384377	-0.236038	0.735692	0.111856	0.691958	-0.0517315	0.752285	0.374508	1.07003	-0.0713703	0.610396	-0.273505	0.393609	-0.297199	0.561527	-0.556199	0.163364	-0.602935	0.474144	-0.593821	0.25017	-0.518003	0.44073	
2.31933	0	0	-0.166164	0.604114	0.298485	1.22163	0.0117285	0.538443	-0.139638	1.10982	-0.16805	-0.0384595	-0.227571	0.741612	0.119389	0.695735	-0.043504	0.758022	0.375061	1.08047	-0.0652195	0.618475	-0.271232	0.399317	-0.297199	0.561527	-0.55521	0.160571	-0.609746	0.478595	-0.593821	0.25017	-0.51992	0.433449	
2.31933	0	0	-0.161959	0.609944	0.301683	1.2389	0.0161368	0.548053	-0.137934	1.12739	-0.164436	-0.0384813	-0.219105	0.747532	0.126923	0.699512	-0.0352765	0.763758	0.375615	1.0909	-0.0590688	0.626555	-0.26896	0.405026	-0.297199	0.561527	-0.554221	0.157777	-0.616558	0.483045	-0.593821	0.25017	-0.521837	0.426167	
2.32086	0	0	-0.157754	0.615773	0.304881	1.25617	0.020545	0.557662	-0.136229	1.14496	-0.160822	-0.038503	-0.210638	0.753452	0.134456	0.70329	-0.027049	0.769495	0.376168	1.10134	-0.052918	0.634634	-0.266688	0.410734	-0.297199	0.561527	-0.553233	0.154983	-0.62337	0.487496	-0.593821	0.25017	-0.523755	0.418886	
2.31781	0	0	-0.15973	0.621356	0.288309	1.2767	0.0182428	0.564169	-0.139921	1.15539	-0.165133	-0.0263195	-0.210803	0.768859	0.136221	0.710847	-0.0188087	0.775241	0.379754	1.11522	-0.0554233	0.654459	-0.266627	0.422699	-0.296766	0.579089	-0.5562	0.163367	-0.624825	0.491609	-0.592885	0.261846	-0.526373	0.426285	
2.31933	0	0	-0.161706	0.626939	0.271736	1.29723	0.0159405	0.570676	-0.143614	1.16583	-0.169444	-0.014136	-0.210967	0.784266	0.137987	0.718405	-0.0105685	0.780987	0.383341	1.1291	-0.0579285	0.674283	-0.266566	0.434665	-0.296334	0.596651	-0.559167	0.171751	-0.626281	0.495722	-0.591949	0.273522	-0.528991	0.433684	
2.32086	0	0	-0.163681	0.632523	0.255164	1.31776	0.0136383	0.577182	-0.147306	1.17626	-0.173755	-0.0019525	-0.211131	0.799674	0.139753	0.725962	-0.00232825	0.786734	0.386927	1.14298	-0.0604337	0.694107	-0.266504	0.44663	-0.295901	0.614213	-0.562133	0.180135	-0.627736	0.499834	-0.591013	0.285198	-0.531609	0.441083	
2.31781	0	0	-0.165657	0.638106	0.238592	1.33828	0.011336	0.583689	-0.150998	1.1867	-0.178066	0.010231	-0.211296	0.815081	0.141518	0.73352	0.005912	0.79248	0.390514	1.15686	-0.062939	0.713932	-0.266443	0.458595	-0.295468	0.631775	-0.5651	0.188519	-0.629191	0.503947	-0.590077	0.296874	-0.534227	0.448482	
2.31781	0	0	-0.157496	0.632774	0.244644	1.33433	0.011336	0.583689	-0.150998	1.1867	-0.178446	0.0011125	-0.216411	0.814595	0.140181	0.7373	-0.0024815	0.801679	0.393554	1.16029	-0.0598647	0.717996	-0.273136	0.465372	-0.304114	0.637424	-0.571043	0.194552	-0.637453	0.512509	-0.600917	0.313188	-0.544	0.463409	
2.31476	0	0	-0.149336	0.627442	0.250696	1.33038	0.011336	0.583689	-0.150998	1.1867	-0.178825	-0.008006	-0.221527	0.81411	0.138843	0.741081	-0.010875	0.810877	0.396593	1.16372	-0.0567905	0.72206	-0.279828	0.472148	-0.312759	0.643074	-0.576987	0.200586	-0.645715	0.52107	-0.611757	0.329501	-0.553773	0.478336	
2.31018	0	0	-0.141176	0.62211	0.256747	1.32642	0.011336	0.583689	-0.150998	1.1867	-0.179205	-0.0171245	-0.226642	0.813624	0.137506	0.744861	-0.0192685	0.820076	0.399632	1.16715	-0.0537163	0.726125	-0.286521	0.478925	-0.321405	0.648724	-0.58293	0.20662	-0.653977	0.529632	-0.622596	0.345815	-0.563545	0.493263	
2.31323	0	0	-0.133015	0.616778	0.262799	1.32247	0.011336	0.583689	-0.150998	1.1867	-0.179585	-0.026243	-0.231757	0.813138	0.136168	0.748641	-0.027662	0.829275	0.402672	1.17058	-0.050642	0.730189	-0.293214	0.485702	-0.330051	0.654373	-0.588873	0.212653	-0.662239	0.538194	-0.633436	0.362128	-0.573318	0.50819	
2.31476	0	0	-0.13697	0.627955	0.264385	1.33114	0.0157417	0.593332	-0.146846	1.19737	-0.175972	-0.0262637	-0.228405	0.818606	0.145052	0.748652	-0.0194225	0.835046	0.408755	1.17746	-0.048966	0.738214	-0.289841	0.488308	-0.330051	0.654373	-0.597782	0.216325	-0.666129	0.534411	-0.638606	0.362428	-0.581058	0.504706	
2.31323	0	0	-0.140925	0.639133	0.26597	1.33982	0.0201475	0.602975	-0.142694	1.20805	-0.172358	-0.0262845	-0.225052	0.824074	0.153936	0.748663	-0.011183	0.840817	0.414839	1.18433	-0.04729	0.746239	-0.286469	0.490914	-0.330051	0.654373	-0.606691	0.219996	-0.670019	0.530628	-0.643776	0.362727	-0.588798	0.501223	
2.30865	0	0	-0.14488	0.65031	0.267556	1.3485	0.0245532	0.612619	-0.138541	1.21873	-0.168744	-0.0263052	-0.2217	0.829542	0.16282	0.748674	-0.0029435	0.846588	0.420922	1.1912	-0.045614	0.754263	-0.283096	0.493519	-0.330051	0.654373	-0.615601	0.223668	-0.673908	0.526844	-0.648946	0.363027	-0.596538	0.497739	
2.31171	0	0	-0.148835	0.661487	0.269141	1.35718	0.028959	0.622262	-0.134389	1.22941	-0.165131	-0.026326	-0.218348	0.83501	0.171704	0.748685	0.005296	0.852359	0.427006	1.19807	-0.043938	0.762288	-0.279723	0.496125	-0.330051	0.654373	-0.62451	0.227339	-0.677798	0.523061	-0.654116	0.363327	-0.604278	0.494255	
2.31171	0	0	-0.144627	0.667341	0.267737	1.37431	0.0271182	0.638521	-0.137875	1.25048	-0.163292	-0.0111215	-0.220295	0.855465	0.166344	0.763834	0.0101153	0.867842	0.430593	1.21203	-0.0419945	0.782345	-0.275189	0.507612	-0.329639	0.671995	-0.621541	0.2297	-0.686049	0.531614	-0.6532	0.37505	-0.593917	0.490331	
2.31018	0	0	-0.140419	0.673195	0.266332	1.39145	0.0252775	0.65478	-0.141362	1.27155	-0.161453	0.004083	-0.222241	0.875921	0.160983	0.778984	0.0149345	0.883325	0.434179	1.22599	-0.040051	0.802402	-0.270656	0.519099	-0.329228	0.689618	-0.618573	0.232061	-0.6943	0.540167	-0.652284	0.386772	-0.583556	0.486406	
2.30713	0	0	-0.13621	0.679049	0.264927	1.40859	0.0234367	0.67104	-0.144848	1.29262	-0.159615	0.0192875	-0.224187	0.896377	0.155622	0.794133	0.0197538	0.898807	0.437766	1.23994	-0.0381075	0.82246	-0.266123	0.530586	-0.328817	0.707241	-0.615604	0.234421	-0.70255	0.54872	-0.651368	0.398494	-0.573194	0.482482	
2.30408	0	0	-0.132002	0.684903	0.263523	1.42573	0.021596	0.687299	-0.148334	1.31369	-0.157776	0.034492	-0.226134	0.916832	0.150262	0.809282	0.024573	0.91429	0.441353	1.2539	-0.036164	0.842517	-0.261589	0.542073	-0.328405	0.724863	-0.612636	0.236782	-0.710801	0.557273	-0.650452	0.410217	-0.562833	0.478557	
2.3056	0	0	-0.132002	0.684903	0.266511	1.41728	0.021596	0.687299	-0.15226	1.31357	-0.162472	0.0375603	-0.227903	0.921831	0.150262	0.809282	0.022855	0.919145	0.438848	1.26098	-0.0403802	0.854432	-0.264919	0.551485	-0.334595	0.742357	-0.616598	0.24798	-0.715171	0.569622	-0.650963	0.425983	-0.56939	0.497089	
2.3056	0	0	-0.132002	0.684903	0.269499	1.40884	0.021596	0.687299	-0.156185	1.31344	-0.167168	0.0406285	-0.229672	0.926829	0.150262	0.809282	0.021137	0.924	0.436343	1.26806	-0.0445965	0.866348	-0.26825	0.560897	-0.340785	0.75985	-0.62056	0.259178	-0.71954	0.581972	-0.651474	0.441749	-0.575948	0.515621	
2.30408	0	0	-0.132002	0.684903	0.272487	1.40039	0.021596	0.687299	-0.160111	1.31332	-0.171864	0.0436967	-0.23144	0.931828	0.150262	0.809282	0.019419	0.928855	0.433838	1.27514	-0.0488128	0.878264	-0.27158	0.570309	-0.346975	0.777344	-0.624523	0.270377	-0.723909	0.594321	-0.651985	0.457515	-0.582505	0.534153	
2.30255	0	0	-0.132002	0.684903	0.275475	1.39195	0.021596	0.687299	-0.164037	1.3132	-0.17656	0.046765	-0.233209	0.936827	0.150262	0.809282	0.017701	0.93371	0.431333	1.28222	-0.053029	0.890179	-0.27491	0.579721	-0.353165	0.794838	-0.628485	0.281575	-0.728279	0.60667	-0.652496	0.473281	-0.589062	0.552685	
2.30255	0	0	-0.135967	0.696108	0.273981	1.39617	0.0271548	0.693723	-0.161349	1.31682	-0.174025	0.049803	-0.234979	0.941829	0.150262	0.809282	0.019247	0.943909	0.43008	1.28576	-0.0426602	0.88646	-0.27491	0.579721	-0.353165	0.794838	-0.633433	0.284808	-0.73894	0.607305	-0.66051	0.481608	-0.587749	0.548975	
2.30102	0	0	-0.139931	0.707314	0.272487	1.40039	0.0327135	0.700147	-0.15866	1.32044	-0.17149	0.052841	-0.236749	0.94683	0.150262	0.809282	0.020793	0.954109	0.428827	1.2893	-0.0322915	0.882741	-0.27491	0.579721	-0.353165	0.794838	-0.638381	0.288042	-0.749601	0.60794	-0.668524	0.489935	-0.586437	0.545266	
2.30102	0	0	-0.143896	0.718519	0.270994	1.40461	0.0382723	0.70657	-0.155972	1.32406	-0.168954	0.055879	-0.238518	0.951832	0.150262	0.809282	0.022339	0.964308	0.427574	1.29285	-0.0219228	0.879022	-0.27491	0.579721	-0.353165	0.794838	-0.643329	0.291275	-0.760262	0.608576	-0.676539	0.498263	-0.585125	0.541556	
2.30408	0	0	-0.147861	0.729724	0.2695	1.40883	0.043831	0.712994	-0.153284	1.32768	-0.166419	0.058917	-0.240288	0.956834	0.150262	0.809282	0.023885	0.974507	0.426321	1.29639	-0.011554	0.875303	-0.27491	0.579721	-0.353165	0.794838	-0.648277	0.294508	-0.770923	0.609211	-0.684553	0.50659	-0.583812	0.537847	
2.30408	0	0	-0.139446	0.741487	0.277231	1.42654	0.047534	0.735779	-0.145005	1.34921	-0.15989	0.071107	-0.22847	0.968371	0.150679	0.820676	0.030419	0.985212	0.432407	1.30331	-0.0171868	0.891222	-0.273759	0.588629	-0.348644	0.800865	-0.645312	0.296879	-0.765595	0.608894	-0.679384	0.506305	-0.589649	0.541662	
2.2995	0	0	-0.131031	0.75325	0.284963	1.44425	0.051237	0.758565	-0.136725	1.37075	-0.153361	0.083297	-0.216653	0.979908	0.151095	0.83207	0.036953	0.995917	0.438493	1.31024	-0.0228195	0.907141	-0.272607	0.597537	-0.344122	0.806891	-0.642347	0.29925	-0.760267	0.608577	-0.674215	0.50602	-0.595487	0.545476	
2.2995	0	0	-0.122616	0.765013	0.292694	1.46196	0.05494	0.78135	-0.128445	1.39229	-0.146831	0.095487	-0.204836	0.991445	0.151512	0.843465	0.043487	1.00662	0.44458	1.31716	-0.0284522	0.92306	-0.271455	0.606444	-0.339601	0.812917	-0.639382	0.301622	-0.754939	0.608261	-0.669047	0.505734	-0.601325	0.54929	
2.2995	0	0	-0.114201	0.776776	0.300425	1.47967	0.058643	0.804135	-0.120166	1.41382	-0.140302	0.107677	-0.193018	1.00298	0.151929	0.854859	0.050021	1.01733	0.450666	1.32409	-0.034085	0.938979	-0.270304	0.615352	-0.33508	0.818944	-0.636417	0.303993	-0.749611	0.607944	-0.663878	0.505449	-0.607162	0.553105	
2.29797	0	0	-0.116191	0.782398	0.297426	1.48815	0.0539908	0.817283	-0.123896	1.42436	-0.142102	0.12299	-0.200127	1.02307	0.147896	0.866258	0.0498348	1.03246	0.44994	1.33821	-0.0324225	0.947086	-0.270269	0.627423	-0.332627	0.830834	-0.633463	0.317164	-0.747702	0.632067	-0.657805	0.516962	-0.592987	0.56383	
2.30102	0	0	-0.11818	0.78802	0.294426	1.49663	0.0493385	0.830431	-0.127626	1.4349	-0.143902	0.138303	-0.207236	1.04317	0.143863	0.877656	0.0496485	1.04758	0.449214	1.35234	-0.03076	0.955192	-0.270234	0.639495	-0.330174	0.842724	-0.630509	0.330335	-0.745793	0.656189	-0.651731	0.528474	-0.578812	0.574556	
2.30102	0	0	-0.120169	0.793642	0.291426	1.5051	0.0446862	0.843578	-0.131356	1.44545	-0.145703	0.153616	-0.214345	1.06326	0.13983	0.889054	0.0494622	1.06271	0.448488	1.36647	-0.0290975	0.963299	-0.2702	0.651566	-0.327721	0.854615	-0.627555	0.343506	-0.743884	0.680312	-0.645657	0.539986	-0.564638	0.585282	
2.30255	0	0	-0.122159	0.799264	0.288427	1.51358	0.040034	0.856726	-0.135086	1.45599	-0.147503	0.168929	-0.221454	1.08335	0.135797	0.900453	0.049276	1.07784	0.447762	1.3806	-0.027435	0.971406	-0.270165	0.663637	-0.325268	0.866505	-0.624601	0.356677	-0.741975	0.704435	-0.639584	0.551499	-0.550463	0.596007	
2.30102	0	0	-0.126141	0.810518	0.289927	1.50934	0.0416475	0.863263	-0.140261	1.45937	-0.152209	0.172004	-0.221454	1.08335	0.138896	0.904276	0.0475467	1.08273	0.450806	1.38407	-0.0319175	0.97127	-0.273539	0.661001	-0.325268	0.866505	-0.628579	0.367921	-0.742494	0.720678	-0.643867	0.563603	-0.566109	0.614814	
2.30255	0	0	-0.130124	0.821773	0.291427	1.5051	0.043261	0.869799	-0.145436	1.46275	-0.156915	0.175079	-0.221454	1.08335	0.141994	0.9081	0.0458175	1.08762	0.45385	1.38755	-0.0364	0.971133	-0.276912	0.658365	-0.325268	0.866505	-0.632558	0.379166	-0.743013	0.736922	-0.64815	0.575706	-0.581754	0.633622	
2.30102	0	0	-0.134106	0.833028	0.292927	1.50086	0.0448745	0.876335	-0.150611	1.46613	-0.161622	0.178155	-0.221454	1.08335	0.145092	0.911923	0.0440883	1.0925	0.456895	1.39103	-0.0408825	0.970996	-0.280285	0.655729	-0.325268	0.866505	-0.636536	0.39041	-0.743532	0.753165	-0.652433	0.58781	-0.5974	0.652429	
2.29797	0	0	-0.138088	0.844282	0.294427	1.49662	0.046488	0.882872	-0.155786	1.46951	-0.166328	0.18123	-0.221454	1.08335	0.148191	0.915747	0.042359	1.09739	0.459939	1.39451	-0.045365	0.97086	-0.283659	0.653093	-0.325268	0.866505	-0.640515	0.401654	-0.744051	0.769408	-0.656716	0.599914	-0.613046	0.671237	
2.30255	0	0	-0.137876	0.861482	0.2945	1.50962	0.0536613	0.895929	-0.141294	1.47357	-0.159085	0.181216	-0.21811	1.0889	0.155741	0.919595	0.0488908	1.10817	0.460464	1.40512	-0.046776	0.974848	-0.279172	0.652581	-0.33186	0.866312	-0.64151	0.404467	-0.745517	0.773551	-0.661004	0.612034	-0.611729	0.667513	
2.30408	0	0	-0.137664	0.878681	0.294573	1.52262	0.0608345	0.908986	-0.126802	1.47763	-0.151841	0.181202	-0.214765	1.09445	0.163292	0.923443	0.0554225	1.11895	0.460989	1.41573	-0.048187	0.978835	-0.274684	0.652068	-0.338452	0.866118	-0.642506	0.407281	-0.746983	0.777694	-0.665293	0.624154	-0.610411	0.66379	
2.30255	0	0	-0.137453	0.89588	0.294646	1.53562	0.0680078	0.922044	-0.112309	1.48169	-0.144597	0.181187	-0.211421	1.1	0.170843	0.927291	0.0619543	1.12973	0.461513	1.42633	-0.049598	0.982823	-0.270196	0.651556	-0.345044	0.865924	-0.643501	0.410094	-0.748449	0.781837	-0.669581	0.636275	-0.609094	0.660067	
2.30408	0	0	-0.137241	0.91308	0.294719	1.54862	0.075181	0.935101	-0.097817	1.48575	-0.137354	0.181173	-0.208077	1.10555	0.178393	0.931139	0.068486	1.14051	0.462038	1.43694	-0.051009	0.986811	-0.265709	0.651043	-0.351636	0.865731	-0.644497	0.412907	-0.749915	0.78598	-0.67387	0.648395	-0.607777	0.656343	
2.30408	0	0	-0.133039	0.91902	0.299365	1.56193	0.0732832	0.951587	-0.105305	1.50691	-0.139167	0.196533	-0.210086	1.12624	0.174346	0.942576	0.0700183	1.15082	0.469393	1.44036	-0.0479393	0.990941	-0.270168	0.663644	-0.347117	0.871783	-0.639563	0.420507	-0.746043	0.789825	-0.664945	0.651894	-0.597399	0.652425	
2.30102	0	0	-0.128837	0.924959	0.304011	1.57523	0.0713855	0.968073	-0.112793	1.52807	-0.14098	0.211894	-0.212094	1.14693	0.170299	0.954014	0.0715505	1.16112	0.476749	1.44378	-0.0448695	0.99507	-0.274626	0.676244	-0.342597	0.877834	-0.634629	0.428107	-0.742171	0.79367	-0.656021	0.655393	-0.587022	0.648506	
2.30255	0	0	-0.124635	0.930899	0.308657	1.58854	0.0694878	0.984559	-0.120281	1.54924	-0.142793	0.227254	-0.214103	1.16762	0.166252	0.965451	0.0730828	1.17143	0.484104	1.4472	-0.0417997	0.9992	-0.279084	0.688844	-0.338078	0.883885	-0.629694	0.435707	-0.738299	0.797514	-0.647096	0.658892	-0.576644	0.644588	
2.3056	0	0	-0.120433	0.936839	0.313303	1.60185	0.06759	1.00104	-0.127769	1.5704	-0.144606	0.242615	-0.216111	1.18831	0.162205	0.976888	0.074615	1.18174	0.491459	1.45061	-0.03873	1.00333	-0.283543	0.701445	-0.333559	0.889937	-0.62476	0.443307	-0.734427	0.801359	-0.638172	0.662391	-0.566266	0.64067	
2.30255	0	0	-0.128633	0.942197	0.316314	1.59334	0.06759	1.00104	-0.131704	1.57026	-0.146054	0.236469	-0.219451	1.18274	0.164904	0.969261	0.0678783	1.18614	0.488933	1.45775	-0.03873	1.00333	-0.283543	0.701445	-0.344297	0.90146	-0.628751	0.454587	-0.740303	0.817967	-0.645342	0.682656	-0.567008	0.655485	
2.3056	0	0	-0.136832	0.947554	0.319325	1.58483	0.06759	1.00104	-0.135639	1.57011	-0.147502	0.230324	-0.222791	1.17716	0.167602	0.961635	0.0611415	1.19054	0.486407	1.46489	-0.03873	1.00333	-0.283543	0.701445	-0.355034	0.912983	-0.632742	0.465866	-0.746179	0.834574	-0.652513	0.702921	-0.567751	0.670301	
2.30408	0	0	-0.145032	0.952912	0.322336	1.57632	0.06759	1.00104	-0.139575	1.56997	-0.148949	0.224178	-0.22613	1.17159	0.170301	0.954008	0.0544048	1.19494	0.483881	1.47203	-0.03873	1.00333	-0.283543	0.701445	-0.365771	0.924505	-0.636733	0.477146	-0.752056	0.851182	-0.659683	0.723185	-0.568493	0.685117	
2.30255	0	0	-0.153231	0.95827	0.325347	1.56781	0.06759	1.00104	-0.14351	1.56983	-0.150397	0.218032	-0.22947	1.16601	0.173	0.946382	0.047668	1.19935	0.481355	1.47917	-0.03873	1.00333	-0.283543	0.701445	-0.376509	0.936028	-0.640724	0.488425	-0.757932	0.867789	-0.666854	0.74345	-0.569235	0.699932	
2.3056	0	0	-0.147032	0.958566	0.329933	1.56808	0.0715415	1.00101	-0.139575	1.56997	-0.151484	0.221106	-0.22256	1.1615	0.167202	0.95017	0.052668	1.19985	0.477046	1.47924	-0.0446238	1.00718	-0.288029	0.701953	-0.376509	0.936028	-0.640724	0.488425	-0.756462	0.863634	-0.661673	0.743185	-0.572449	0.696296	
2.30102	0	0	-0.140833	0.958862	0.334518	1.56836	0.075493	1.00097	-0.135639	1.57011	-0.152572	0.22418	-0.215649	1.15698	0.161403	0.953959	0.057668	1.20036	0.472737	1.47931	-0.0505175	1.01103	-0.292515	0.702461	-0.376509	0.936028	-0.640724	0.488425	-0.754992	0.859479	-0.656492	0.742919	-0.575662	0.69266	
2.30713	0	0	-0.134634	0.959159	0.339104	1.56863	0.0794445	1.00093	-0.131704	1.57026	-0.15366	0.227253	-0.208738	1.15247	0.155605	0.957747	0.062668	1.20086	0.468429	1.47938	-0.0564112	1.01488	-0.297	0.702969	-0.376509	0.936028	-0.640724	0.488425	-0.753521	0.855325	-0.65131	0.742654	-0.578875	0.689024	
2.3056	0	0	-0.128435	0.959455	0.343689	1.5689	0.083396	1.00089	-0.127769	1.5704	-0.154747	0.230327	-0.201828	1.14795	0.149807	0.961536	0.067668	1.20137	0.46412	1.47945	-0.062305	1.01873	-0.301486	0.703477	-0.376509	0.936028	-0.640724	0.488425	-0.752051	0.85117	-0.646129	0.742388	-0.582089	0.685388	
2.29797	0	0	-0.13244	0.970774	0.339228	1.59476	0.085441	1.01739	-0.127403	1.59191	-0.147138	0.23955	-0.195136	1.1591	0.148458	0.965348	0.0674535	1.21663	0.462857	1.48302	-0.0592377	1.02287	-0.303717	0.709782	-0.363326	0.936436	-0.637759	0.490827	-0.753521	0.855325	-0.635753	0.741853	-0.583409	0.689118	
2.30255	0	0	-0.136445	0.982093	0.334767	1.62061	0.087486	1.03389	-0.127036	1.61343	-0.13953	0.248774	-0.188443	1.17025	0.147109	0.969161	0.067239	1.23188	0.461593	1.48659	-0.0561705	1.02701	-0.305948	0.716087	-0.350143	0.936843	-0.634794	0.49323	-0.754992	0.859479	-0.625378	0.741318	-0.584728	0.692847	
2.30408	0	0	-0.140451	0.993412	0.330306	1.64646	0.089531	1.05039	-0.12667	1.63494	-0.131921	0.257997	-0.18175	1.18141	0.14576	0.972974	0.0670245	1.24714	0.46033	1.49016	-0.0531032	1.03114	-0.308179	0.722391	-0.336959	0.937251	-0.63183	0.495633	-0.756462	0.863634	-0.615003	0.740783	-0.586048	0.696576	
2.30255	0	0	-0.144456	1.00473	0.325845	1.67231	0.091576	1.06689	-0.126304	1.65645	-0.124312	0.267221	-0.175058	1.19256	0.144411	0.976786	0.06681	1.26239	0.459067	1.49373	-0.050036	1.03528	-0.31041	0.728696	-0.323776	0.937659	-0.628865	0.498035	-0.757932	0.867789	-0.604627	0.740248	-0.587368	0.700306	
2.30255	0	0	-0.152655	1.01009	0.324334	1.67658	0.0829225	1.08021	-0.128812	1.66354	-0.128675	0.279552	-0.175292	1.20827	0.143062	0.9806	0.0700733	1.26783	0.459581	1.50439	-0.0512155	1.05143	-0.305906	0.740315	-0.3255	0.961393	-0.624931	0.508501	-0.757008	0.879976	-0.605191	0.756252	-0.577725	0.711234	
2.2995	0	0	-0.160855	1.01545	0.322823	1.68085	0.074269	1.09352	-0.13132	1.67063	-0.133039	0.291882	-0.175527	1.22398	0.141712	0.984414	0.0733365	1.27326	0.460095	1.51504	-0.052395	1.06758	-0.301402	0.751934	-0.327224	0.985127	-0.620998	0.518968	-0.756083	0.892163	-0.605755	0.772257	-0.568083	0.722163	
2.30255	0	0	-0.169054	1.0208	0.321312	1.68512	0.0656155	1.10683	-0.133827	1.67772	-0.137402	0.304213	-0.175761	1.2397	0.140363	0.988228	0.0765997	1.2787	0.460609	1.52569	-0.0535745	1.08372	-0.296898	0.763552	-0.328948	1.00886	-0.617065	0.529434	-0.755158	0.904351	-0.606319	0.788262	-0.55844	0.733091	
2.2995	0	0	-0.177253	1.02616	0.319801	1.68938	0.056962	1.12015	-0.136335	1.68481	-0.141765	0.316544	-0.175995	1.25541	0.139013	0.992042	0.079863	1.28414	0.461123	1.53635	-0.054754	1.09987	-0.292394	0.775171	-0.330672	1.03259	-0.613131	0.5399	-0.754234	0.916538	-0.606883	0.804266	-0.548797	0.744019	
2.2995	0	0	-0.177253	1.02616	0.313706	1.69337	0.0530117	1.12017	-0.140271	1.68465	-0.141029	0.304215	-0.17755	1.24475	0.137663	0.995858	0.079863	1.28414	0.464167	1.53986	-0.0533372	1.09587	-0.295763	0.772515	-0.335187	1.02649	-0.623064	0.546391	-0.752761	0.912376	-0.614957	0.812673	-0.56184	0.755417	
2.29797	0	0	-0.177253	1.02616	0.307612	1.69735	0.0490615	1.1202	-0.144208	1.6845	-0.140292	0.291886	-0.179104	1.23409	0.136313	0.999673	0.079863	1.28414	0.46721	1.54337	-0.0519205	1.09186	-0.299133	0.769859	-0.339702	1.02039	-0.632997	0.552882	-0.751289	0.908213	-0.623031	0.82108	-0.574882	0.766815	
2.29797	0	0	-0.177253	1.02616	0.301517	1.70133	0.0451113	1.12023	-0.148145	1.68435	-0.139555	0.279558	-0.180659	1.22344	0.134963	1.00349	0.079863	1.28414	0.470253	1.54689	-0.0505038	1.08786	-0.302502	0.767203	-0.344217	1.01429	-0.642931	0.559372	-0.749816	0.90405	-0.631104	0.829487	-0.587924	0.778213	
2.29797	0	0	-0.177253	1.02616	0.295422	1.70531	0.041161	1.12026	-0.152081	1.68419	-0.138819	0.267229	-0.182214	1.21278	0.133613	1.0073	0.079863	1.28414	0.473297	1.5504	-0.049087	1.08386	-0.305871	0.764547	-0.348732	1.00819	-0.652864	0.565863	-0.748343	0.899888	-0.639178	0.837894	-0.600967	0.789611	
2.2995	0	0	-0.179257	1.03183	0.295466	1.71843	0.0427592	1.12688	-0.147973	1.69515	-0.13773	0.26415	-0.182214	1.21278	0.136709	1.01115	0.0781195	1.28907	0.475075	1.5575	-0.049087	1.08386	-0.304754	0.76139	-0.346651	1.00231	-0.650863	0.560207	-0.753683	0.900178	-0.637737	0.833821	-0.602851	0.782219	
2.29797	0	0	-0.181262	1.03749	0.29551	1.73155	0.0443575	1.1335	-0.143864	1.7061	-0.13664	0.261071	-0.182214	1.21278	0.139805	1.015	0.076376	1.29399	0.476852	1.5646	-0.049087	1.08386	-0.303636	0.758232	-0.34457	0.996425	-0.648861	0.554551	-0.759022	0.900469	-0.636296	0.829748	-0.604736	0.774827	
2.2995	0	0	-0.183266	1.04316	0.295554	1.74467	0.0459558	1.14012	-0.139755	1.71705	-0.13555	0.257992	-0.182214	1.21278	0.142901	1.01885	0.0746325	1.29892	0.478629	1.5717	-0.049087	1.08386	-0.302519	0.755075	-0.342489	0.990543	-0.64686	0.548895	-0.764361	0.90076	-0.634854	0.825674	-0.606621	0.767435	
2.30102	0	0	-0.185271	1.04882	0.295598	1.75779	0.047554	1.14674	-0.135647	1.728	-0.134461	0.254913	-0.182214	1.21278	0.145997	1.02269	0.072889	1.30385	0.480407	1.57879	-0.049087	1.08386	-0.301402	0.751918	-0.340408	0.984662	-0.644859	0.543239	-0.769701	0.90105	-0.633413	0.821601	-0.608505	0.760043	
2.2995	0	0	-0.189284	1.06016	0.289536	1.77492	0.0491513	1.15336	-0.140677	1.74221	-0.137731	0.264153	-0.189379	1.23303	0.152194	1.0304	0.076152	1.3093	0.485229	1.58943	-0.0474373	1.09202	-0.29915	0.757731	-0.337974	0.996645	-0.647861	0.551724	-0.772646	0.909373	-0.634854	0.825674	-0.603974	0.759956	
2.2995	0	0	-0.193296	1.0715	0.283474	1.79205	0.0507485	1.15999	-0.145706	1.75643	-0.141	0.273393	-0.196545	1.25328	0.158391	1.03811	0.079415	1.31475	0.490052	1.60007	-0.0457875	1.10018	-0.296898	0.763545	-0.33554	1.00863	-0.650864	0.56021	-0.775591	0.917696	-0.636296	0.829748	-0.599443	0.759868	
2.29645	0	0	-0.197309	1.08284	0.277411	1.80919	0.0523457	1.16662	-0.150736	1.77065	-0.144269	0.282633	-0.203711	1.27353	0.164588	1.04582	0.082678	1.3202	0.494874	1.61071	-0.0441377	1.10834	-0.294646	0.769358	-0.333106	1.02061	-0.653867	0.568695	-0.778536	0.926019	-0.637737	0.833821	-0.594912	0.75978	
2.29797	0	0	-0.201322	1.09418	0.271349	1.82632	0.053943	1.17325	-0.155766	1.78486	-0.147539	0.291873	-0.210876	1.29378	0.170785	1.05352	0.085941	1.32565	0.499697	1.62135	-0.042488	1.1165	-0.292394	0.775171	-0.330672	1.03259	-0.656869	0.57718	-0.781481	0.934342	-0.639178	0.837894	-0.590381	0.759693	
2.30102	0	0	-0.199315	1.08851	0.269802	1.81745	0.0472202	1.16997	-0.162378	1.78098	-0.152606	0.285714	-0.212422	1.28311	0.170785	1.05352	0.0809337	1.32513	0.502745	1.62488	-0.0483897	1.12036	-0.293513	0.778332	-0.339353	1.03827	-0.664837	0.588916	-0.784429	0.942673	-0.642062	0.846046	-0.588494	0.767087	
2.29645	0	0	-0.197308	1.08284	0.268255	1.80858	0.0404975	1.16669	-0.168989	1.7771	-0.157673	0.279554	-0.213968	1.27244	0.170785	1.05352	0.0759265	1.32461	0.505793	1.62841	-0.0542915	1.12421	-0.294631	0.781492	-0.348034	1.04394	-0.672804	0.600652	-0.787376	0.951004	-0.644947	0.854199	-0.586607	0.774482	
2.30102	0	0	-0.195301	1.07717	0.266708	1.79971	0.0337747	1.16341	-0.1756	1.77323	-0.16274	0.273395	-0.215514	1.26177	0.170785	1.05352	0.0709193	1.32409	0.508841	1.63194	-0.0601933	1.12807	-0.295749	0.784652	-0.356715	1.04961	-0.680771	0.612387	-0.790324	0.959334	-0.647832	0.862351	-0.58472	0.781876	
2.29797	0	0	-0.193294	1.07149	0.265161	1.79084	0.027052	1.16013	-0.182212	1.76935	-0.167807	0.267236	-0.21706	1.2511	0.170785	1.05352	0.065912	1.32357	0.511889	1.63548	-0.066095	1.13192	-0.296868	0.787813	-0.365396	1.05528	-0.688739	0.624123	-0.793272	0.967665	-0.650716	0.870503	-0.582833	0.78927	
2.30102	0	0	-0.193294	1.07149	0.265161	1.79084	0.0333538	1.15346	-0.177021	1.76596	-0.16563	0.261083	-0.21527	1.24604	0.170785	1.05352	0.065912	1.32357	0.510617	1.63907	-0.0632598	1.12391	-0.302473	0.791475	-0.363312	1.04939	-0.686735	0.61846	-0.790324	0.959334	-0.647832	0.862351	-0.590574	0.785701	
2.29645	0	0	-0.193294	1.07149	0.265161	1.79084	0.0396555	1.14678	-0.17183	1.76256	-0.163453	0.254931	-0.21348	1.24099	0.170785	1.05352	0.065912	1.32357	0.509345	1.64267	-0.0604245	1.1159	-0.308078	0.795138	-0.361229	1.04351	-0.684732	0.612796	-0.787376	0.951004	-0.644947	0.854199	-0.598314	0.782131	
2.30102	0	0	-0.193294	1.07149	0.265161	1.79084	0.0459572	1.14011	-0.16664	1.75917	-0.161276	0.248779	-0.21169	1.23593	0.170785	1.05352	0.065912	1.32357	0.508073	1.64626	-0.0575892	1.10789	-0.313682	0.7988	-0.359145	1.03762	-0.682728	0.607133	-0.784429	0.942673	-0.642062	0.846046	-0.606054	0.778562	
2.30255	0	0	-0.193294	1.07149	0.265161	1.79084	0.052259	1.13344	-0.161449	1.75578	-0.159099	0.242626	-0.2099	1.23087	0.170785	1.05352	0.065912	1.32357	0.506801	1.64985	-0.054754	1.09987	-0.319287	0.802462	-0.357061	1.03173	-0.680724	0.60147	-0.781481	0.934342	-0.639178	0.837894	-0.613795	0.774992	
2.30408	0	0	-0.18911	1.07748	0.27129	1.80001	0.05268	1.14339	-0.159869	1.77389	-0.158743	0.251857	-0.210144	1.2466	0.166721	1.06501	0.0674255	1.33396	0.505529	1.65345	-0.0561712	1.10388	-0.310312	0.80146	-0.359145	1.03762	-0.676763	0.601059	-0.774669	0.929891	-0.632545	0.83356	-0.617	0.771341	
2.30255	0	0	-0.184925	1.08347	0.277419	1.80918	0.053101	1.15334	-0.158289	1.792	-0.158387	0.261088	-0.210388	1.26233	0.162656	1.0765	0.068939	1.34436	0.504256	1.65705	-0.0575885	1.10788	-0.301337	0.800458	-0.361229	1.04351	-0.672803	0.600648	-0.767857	0.92544	-0.625913	0.829227	-0.620205	0.76769	
2.30102	0	0	-0.180741	1.08946	0.283547	1.81836	0.053522	1.1633	-0.15671	1.81012	-0.158031	0.270319	-0.210632	1.27805	0.158592	1.08798	0.0704525	1.35475	0.502984	1.66064	-0.0590057	1.11189	-0.292361	0.799456	-0.363312	1.04939	-0.668843	0.600236	-0.761046	0.920989	-0.619281	0.824893	-0.623411	0.764039	
2.30408	0	0	-0.176557	1.09545	0.289676	1.82753	0.053943	1.17325	-0.15513	1.82823	-0.157675	0.27955	-0.210876	1.29378	0.154528	1.09947	0.071966	1.36514	0.501712	1.66424	-0.060423	1.1159	-0.283386	0.798454	-0.365396	1.05528	-0.664882	0.599825	-0.754234	0.916538	-0.612648	0.820559	-0.626616	0.760388	
2.3056	0	0	-0.182748	1.09514	0.286611	1.82294	0.0460435	1.1733	-0.157807	1.8245	-0.158414	0.29188	-0.207538	1.2994	0.153172	1.1033	0.0702177	1.37008	0.503486	1.67138	-0.064679	1.12792	-0.29011	0.817455	-0.362974	1.0673	-0.66493	0.610749	-0.754791	0.932925	-0.615533	0.828711	-0.61567	0.767608	
2.31018	0	0	-0.188939	1.09482	0.283546	1.81835	0.038144	1.17334	-0.160484	1.82078	-0.159153	0.304211	-0.204199	1.30501	0.151816	1.10713	0.0684695	1.37503	0.505259	1.67852	-0.068935	1.13995	-0.296833	0.836456	-0.360553	1.07932	-0.664978	0.621673	-0.755349	0.949313	-0.618417	0.836863	-0.604724	0.774829	
2.30713	0	0	-0.195131	1.0945	0.280481	1.81376	0.0302445	1.17339	-0.163161	1.81705	-0.159892	0.316542	-0.20086	1.31063	0.15046	1.11096	0.0667213	1.37997	0.507032	1.68566	-0.073191	1.15198	-0.303557	0.855458	-0.358132	1.09134	-0.665026	0.632598	-0.755907	0.9657	-0.621301	0.845015	-0.593779	0.78205	
2.31171	0	0	-0.201322	1.09418	0.277416	1.80917	0.022345	1.17343	-0.165838	1.81332	-0.160631	0.328872	-0.197522	1.31625	0.149104	1.1148	0.064973	1.38491	0.508806	1.6928	-0.077447	1.16401	-0.31028	0.874459	-0.35571	1.10336	-0.665074	0.643522	-0.756464	0.982087	-0.624186	0.853167	-0.582833	0.78927	
2.31476	0	0	-0.201322	1.09418	0.272837	1.80887	0.0235218	1.17011	-0.165838	1.81332	-0.158449	0.322705	-0.195727	1.31117	0.153557	1.11483	0.064973	1.38491	0.507532	1.69641	-0.0760278	1.15999	-0.306916	0.864953	-0.353622	1.09745	-0.663118	0.648788	-0.759419	0.990437	-0.632262	0.86158	-0.591341	0.800586	
2.31781	0	0	-0.201322	1.09418	0.268258	1.80857	0.0246985	1.16678	-0.165838	1.81332	-0.156267	0.316537	-0.193932	1.3061	0.15801	1.11487	0.064973	1.38491	0.506257	1.70001	-0.0746085	1.15598	-0.303553	0.855447	-0.351534	1.09155	-0.661162	0.654054	-0.762374	0.998787	-0.640338	0.869992	-0.599848	0.811903	
2.31933	0	5	-0.201322	1.09418	0.263679	1.80827	0.0258752	1.16346	-0.165838	1.81332	-0.154084	0.310369	-0.192137	1.30103	0.162464	1.11491	0.064973	1.38491	0.504983	1.70361	-0.0731892	1.15197	-0.300189	0.845942	-0.349447	1.08565	-0.659206	0.65932	-0.765328	1.00714	-0.648413	0.878405	-0.608356	0.823219	
2.31781	0	5	-0.201322	1.09418	0.2591	1.80797	0.027052	1.16013	-0.165838	1.81332	-0.151902	0.304202	-0.190342	1.29596	0.166917	1.11495	0.064973	1.38491	0.503708	1.70721	-0.07177	1.14796	-0.296826	0.836436	-0.347359	1.07975	-0.65725	0.664586	-0.768283	1.01549	-0.656489	0.886818	-0.616863	0.834536	
2.31933	0	5	-0.19714	1.10018	0.265226	1.81715	0.0325968	1.16674	-0.157803	1.82451	-0.148276	0.304203	-0.180062	1.29704	0.171758	1.12654	0.0714915	1.39586	0.515409	1.71065	-0.0731892	1.15197	-0.296826	0.836436	-0.353953	1.07953	-0.662218	0.667832	-0.766805	1.01131	-0.653603	0.878662	-0.620067	0.830872	
2.32391	0	5	-0.192959	1.10618	0.271352	1.82633	0.0381415	1.17335	-0.149769	1.8357	-0.144651	0.304204	-0.169782	1.29813	0.176598	1.13813	0.07801	1.40682	0.527109	1.71409	-0.0746085	1.15598	-0.296826	0.836436	-0.360548	1.0793	-0.667186	0.671079	-0.765328	1.00714	-0.650718	0.870507	-0.62327	0.827207	
2.32544	0	5	-0.188777	1.11217	0.277478	1.83551	0.0436862	1.17996	-0.141734	1.84689	-0.141025	0.304206	-0.159501	1.29921	0.181439	1.14973	0.0845285	1.41777	0.53881	1.71754	-0.0760278	1.15999	-0.296826	0.836436	-0.367142	1.07908	-0.672154	0.674325	-0.76385	1.00296	-0.647832	0.862351	-0.626474	0.823543	
2.33002	0	5	-0.184595	1.11817	0.283604	1.84469	0.049231	1.18657	-0.133699	1.85808	-0.137399	0.304207	-0.149221	1.30029	0.186279	1.16132	0.091047	1.42873	0.55051	1.72098	-0.077447	1.16401	-0.296826	0.836436	-0.373737	1.07885	-0.677122	0.677571	-0.762372	0.998783	-0.644946	0.854195	-0.629677	0.819879	
2.33307	0	5	-0.190631	1.13523	0.277524	1.86187	0.0445145	1.1999	-0.132133	1.87628	-0.13814	0.316555	-0.151272	1.32118	0.186657	1.1729	0.0925535	1.43918	0.552286	1.72815	-0.0713225	1.17235	-0.288961	0.838605	-0.36263	1.08521	-0.668187	0.673916	-0.757027	0.998501	-0.638313	0.849861	-0.622499	0.812312	
2.33154	0	5	-0.196667	1.15229	0.271444	1.87906	0.039798	1.21323	-0.130567	1.89449	-0.138881	0.328904	-0.153323	1.34206	0.187035	1.18448	0.09406	1.44963	0.554061	1.73531	-0.065198	1.1807	-0.281097	0.840774	-0.351522	1.09156	-0.659253	0.670261	-0.751683	0.99822	-0.631681	0.845527	-0.615322	0.804745	
2.32849	0	5	-0.202704	1.16935	0.265365	1.89624	0.0350815	1.22656	-0.129	1.91269	-0.139623	0.341253	-0.155374	1.36295	0.187413	1.19606	0.0955665	1.46008	0.555837	1.74248	-0.0590735	1.18905	-0.273232	0.842944	-0.340415	1.09791	-0.650319	0.666605	-0.746338	0.997938	-0.625049	0.841194	-0.608145	0.797178	
2.33154	0	5	-0.20874	1.18641	0.259285	1.91342	0.030365	1.23988	-0.127434	1.9309	-0.140364	0.353601	-0.157425	1.38383	0.187791	1.20764	0.097073	1.47053	0.557613	1.74965	-0.052949	1.19739	-0.265368	0.845113	-0.329308	1.10426	-0.641384	0.66295	-0.740993	0.997656	-0.618416	0.83686	-0.600967	0.789611	
2.33307	0	5	-0.212914	1.18039	0.254707	1.91311	0.033903	1.22989	-0.130112	1.92715	-0.145431	0.347419	-0.160768	1.37819	0.189153	1.20379	0.0903043	1.47495	0.555055	1.75688	-0.0543715	1.20141	-0.270984	0.848782	-0.337998	1.10994	-0.653333	0.675125	-0.749294	1.00629	-0.626491	0.845271	-0.61267	0.797258	
2.33307	0	5	-0.217088	1.17437	0.250128	1.9128	0.037441	1.21989	-0.132791	1.9234	-0.150498	0.341236	-0.164111	1.37255	0.190515	1.19994	0.0835355	1.47937	0.552498	1.7641	-0.055794	1.20543	-0.276599	0.852452	-0.346687	1.11562	-0.665282	0.687301	-0.757594	1.01493	-0.634566	0.853681	-0.624373	0.804905	
2.33002	0	5	-0.221262	1.16835	0.24555	1.91248	0.040979	1.20989	-0.135469	1.91965	-0.155564	0.335054	-0.167454	1.36691	0.191876	1.19609	0.0767668	1.4838	0.54994	1.77133	-0.0572165	1.20945	-0.282215	0.856121	-0.355377	1.12129	-0.677232	0.699476	-0.765895	1.02356	-0.642641	0.862092	-0.636076	0.812552	
2.33154	0	5	-0.225436	1.16233	0.240972	1.91217	0.044517	1.19989	-0.138148	1.9159	-0.160631	0.328872	-0.170797	1.36127	0.193238	1.19224	0.069998	1.48822	0.547382	1.77856	-0.058639	1.21347	-0.287831	0.859791	-0.364067	1.12697	-0.689181	0.711651	-0.774196	1.0322	-0.650716	0.870503	-0.647779	0.820199	
2.32696	0	5	-0.219249	1.16266	0.242492	1.90787	0.044517	1.19989	-0.134204	1.91607	-0.156268	0.316541	-0.175936	1.36072	0.193238	1.19224	0.068242	1.49318	0.552994	1.77489	-0.064545	1.21733	-0.29008	0.853952	-0.35989	1.11517	-0.689123	0.7007	-0.773628	1.01578	-0.658199	0.862864	-0.651533	0.805416	
2.32849	0	5	-0.213062	1.16299	0.244012	1.90358	0.044517	1.19989	-0.13026	1.91624	-0.151905	0.30421	-0.181076	1.36017	0.193238	1.19224	0.066486	1.49814	0.558606	1.77123	-0.070451	1.22119	-0.292328	0.848113	-0.355713	1.10336	-0.689065	0.689749	-0.77306	0.999367	-0.665682	0.855225	-0.655287	0.790633	
2.33154	0	5	-0.206874	1.16332	0.245533	1.89928	0.044517	1.19989	-0.126315	1.91642	-0.147542	0.29188	-0.186216	1.35962	0.193238	1.19224	0.06473	1.50311	0.564218	1.76756	-0.076357	1.22505	-0.294577	0.842275	-0.351536	1.09156	-0.689008	0.678797	-0.772493	0.982951	-0.673166	0.847585	-0.659041	0.775849	
2.32849	0	5	-0.200687	1.16365	0.247053	1.89498	0.044517	1.19989	-0.122371	1.91659	-0.143179	0.279549	-0.191355	1.35907	0.193238	1.19224	0.062974	1.50807	0.56983	1.76389	-0.082263	1.22891	-0.296826	0.836436	-0.347359	1.07975	-0.68895	0.667846	-0.771925	0.966534	-0.680649	0.839946	-0.662795	0.761066	
2.32849	0	5	-0.2027	1.16934	0.247066	1.9082	0.0461107	1.20654	-0.12476	1.93467	-0.14536	0.285712	-0.188016	1.36471	0.191876	1.19609	0.0662275	1.51358	0.56855	1.76751	-0.076357	1.22505	-0.296826	0.836436	-0.349447	1.08565	-0.691905	0.665417	-0.777262	0.966817	-0.688122	0.832323	-0.658836	0.749877	
2.33002	0	5	-0.204713	1.17503	0.24708	1.92141	0.0477045	1.21318	-0.127149	1.95274	-0.147541	0.291875	-0.184676	1.37034	0.190515	1.19994	0.069481	1.51909	0.567271	1.77112	-0.070451	1.22119	-0.296826	0.836436	-0.351534	1.09155	-0.69486	0.662987	-0.782598	0.9671	-0.695596	0.824701	-0.654877	0.738688	
2.32696	0	5	-0.206727	1.18072	0.247093	1.93462	0.0492983	1.21983	-0.129539	1.97082	-0.149721	0.298039	-0.181336	1.37598	0.189153	1.20379	0.0727345	1.5246	0.565991	1.77474	-0.064545	1.21733	-0.296826	0.836436	-0.353622	1.09745	-0.697816	0.660558	-0.787935	0.967382	-0.703069	0.817078	-0.650918	0.727499	
2.32391	0	5	-0.20874	1.18641	0.247107	1.94784	0.050892	1.22647	-0.131928	1.9889	-0.151902	0.304202	-0.177997	1.38162	0.187791	1.20764	0.075988	1.53011	0.564712	1.77836	-0.058639	1.21347	-0.296826	0.836436	-0.35571	1.10336	-0.700771	0.658128	-0.793272	0.967665	-0.710542	0.809455	-0.646959	0.71631	
2.32239	0	5	-0.212914	1.18039	0.245573	1.93892	0.046526	1.21652	-0.136014	1.9778	-0.159147	0.304198	-0.183136	1.38107	0.186053	1.1999	0.0709775	1.52957	0.5591	1.78202	-0.054152	1.21363	-0.296826	0.836436	-0.34911	1.10358	-0.69882	0.663395	-0.792364	0.979899	-0.70393	0.805135	-0.650918	0.727499	
2.32239	0	5	-0.217088	1.17437	0.244039	1.93	0.04216	1.20656	-0.1401	1.96671	-0.166391	0.304193	-0.188274	1.38051	0.184315	1.19217	0.065967	1.52902	0.553488	1.78569	-0.049665	1.21379	-0.296826	0.836436	-0.342509	1.10381	-0.696869	0.668662	-0.791456	0.992133	-0.697318	0.800814	-0.654877	0.738688	
2.32391	0	5	-0.221262	1.16835	0.242506	1.92109	0.037794	1.19661	-0.144186	1.95561	-0.173635	0.304188	-0.193412	1.37996	0.182577	1.18443	0.0609565	1.52848	0.547876	1.78936	-0.045178	1.21395	-0.296826	0.836436	-0.335908	1.10403	-0.694917	0.673928	-0.790548	1.00437	-0.690706	0.796493	-0.658836	0.749877	
2.32086	0	5	-0.225436	1.16233	0.240972	1.91217	0.033428	1.18666	-0.148272	1.94451	-0.18088	0.304184	-0.198551	1.37941	0.180839	1.17669	0.055946	1.52793	0.542264	1.79303	-0.040691	1.21411	-0.296826	0.836436	-0.329308	1.10426	-0.692966	0.679195	-0.78964	1.0166	-0.684094	0.792173	-0.662795	0.761066	
2.31781	0	5	-0.215226	1.15129	0.240954	1.89898	0.0369595	1.17668	-0.140531	1.93396	-0.18485	0.294947	-0.201887	1.37377	0.17774	1.17281	0.0509398	1.52738	0.543543	1.78941	-0.0496615	1.21379	-0.296837	0.82428	-0.333821	1.09813	-0.698874	0.674334	-0.793498	1.01271	-0.693003	0.78863	-0.670507	0.757503	
2.31933	0	5	-0.205016	1.14025	0.240936	1.88579	0.040491	1.1667	-0.132791	1.9234	-0.18882	0.285709	-0.205223	1.36813	0.174642	1.16892	0.0459335	1.52684	0.544823	1.78579	-0.058632	1.21347	-0.296847	0.812124	-0.338333	1.09201	-0.704781	0.669473	-0.797357	1.00881	-0.701912	0.785087	-0.678219	0.753941	
2.31933	0	5	-0.194805	1.12921	0.240918	1.87259	0.0440225	1.15672	-0.125051	1.91284	-0.192789	0.276472	-0.208558	1.3625	0.171544	1.16504	0.0409272	1.52629	0.546103	1.78218	-0.0676025	1.21315	-0.296857	0.799969	-0.342846	1.08588	-0.710689	0.664612	-0.801215	1.00491	-0.71082	0.781543	-0.685932	0.750378	
2.32086	0	5	-0.184595	1.11817	0.2409	1.8594	0.047554	1.14674	-0.11731	1.90228	-0.196759	0.267234	-0.211894	1.35686	0.168445	1.16116	0.035921	1.52575	0.547382	1.77856	-0.076573	1.21283	-0.296868	0.787813	-0.347359	1.07975	-0.716597	0.659751	-0.805074	1.00102	-0.719729	0.778	-0.693644	0.746815	
2.31628	0	5	-0.188618	1.12954	0.247017	1.86861	0.0491513	1.15336	-0.111945	1.90978	-0.194583	0.261086	-0.206759	1.35741	0.168445	1.16116	0.0409272	1.52629	0.552994	1.77489	-0.0751513	1.20881	-0.290141	0.780988	-0.343187	1.06796	-0.718546	0.654491	-0.805982	0.988797	-0.720593	0.766098	-0.698712	0.735814	
2.31933	0	5	-0.192641	1.14091	0.253135	1.87781	0.0507485	1.15999	-0.10658	1.91728	-0.192408	0.254937	-0.201624	1.35797	0.168445	1.16116	0.0459335	1.52684	0.558606	1.77123	-0.0737295	1.20479	-0.283415	0.774162	-0.339016	1.05617	-0.720496	0.649231	-0.80689	0.976575	-0.721457	0.754196	-0.70378	0.724813	
2.32086	0	5	-0.196664	1.15228	0.259252	1.88702	0.0523457	1.16662	-0.101216	1.92478	-0.190232	0.248788	-0.19649	1.35852	0.168445	1.16116	0.0509398	1.52738	0.564218	1.76756	-0.0723078	1.20077	-0.276688	0.767337	-0.334844	1.04438	-0.722446	0.643972	-0.807798	0.964353	-0.722322	0.742295	-0.708847	0.713811	
2.32086	0	5	-0.200687	1.16365	0.265369	1.89623	0.053943	1.17325	-0.095851	1.93227	-0.188057	0.24264	-0.191355	1.35907	0.168445	1.16116	0.055946	1.52793	0.56983	1.76389	-0.070886	1.19676	-0.269961	0.760512	-0.330672	1.03259	-0.724395	0.638712	-0.808706	0.952131	-0.723186	0.730393	-0.713915	0.70281	
2.32239	0	5	-0.208886	1.16901	0.25927	1.90021	0.0488142	1.1766	-0.10628	1.93909	-0.189144	0.245714	-0.194954	1.36924	0.16399	1.16112	0.0474248	1.53732	0.56983	1.76389	-0.0664018	1.19692	-0.272198	0.766834	-0.317455	1.03302	-0.723393	0.635881	-0.807233	0.947968	-0.729783	0.734703	-0.717105	0.699178	
2.32391	0	5	-0.217085	1.17436	0.253171	1.9042	0.0436855	1.17995	-0.116708	1.9459	-0.190232	0.248787	-0.198553	1.37941	0.159535	1.16107	0.0389035	1.54671	0.56983	1.76389	-0.0619175	1.19707	-0.274435	0.773157	-0.304239	1.03345	-0.722392	0.63305	-0.80576	0.943806	-0.736379	0.739014	-0.720296	0.695547	
2.32086	0	5	-0.225285	1.17972	0.247071	1.90818	0.0385568	1.1833	-0.127137	1.95272	-0.19132	0.251861	-0.202152	1.38958	0.15508	1.16103	0.0303822	1.55609	0.56983	1.76389	-0.0574333	1.19723	-0.276672	0.779479	-0.291022	1.03388	-0.72139	0.630219	-0.804287	0.939643	-0.742976	0.743325	-0.723487	0.691915	
2.31628	0	5	-0.233484	1.18508	0.240972	1.91217	0.033428	1.18666	-0.137566	1.95953	-0.192407	0.254935	-0.205751	1.39976	0.150625	1.16099	0.021861	1.56548	0.56983	1.76389	-0.052949	1.19739	-0.278909	0.785802	-0.277805	1.0343	-0.720388	0.627388	-0.802814	0.935481	-0.749573	0.747635	-0.726677	0.688283	
2.31781	0	5	-0.229461	1.17371	0.245531	1.89929	0.0278877	1.18005	-0.138977	1.9522	-0.19782	0.239591	-0.210621	1.3834	0.144439	1.15324	0.018618	1.55996	0.566776	1.76033	-0.0574333	1.19723	-0.281162	0.779984	-0.291022	1.03388	-0.729291	0.63103	-0.8052	0.927449	-0.756165	0.751942	-0.729866	0.684654	
2.31781	0	5	-0.225438	1.16234	0.25009	1.8864	0.0223475	1.17344	-0.140387	1.94487	-0.203234	0.224246	-0.215491	1.36705	0.138253	1.14548	0.015375	1.55445	0.563721	1.75677	-0.0619175	1.19707	-0.283416	0.774167	-0.304239	1.03345	-0.738195	0.634672	-0.807587	0.919417	-0.762757	0.75625	-0.733055	0.681026	
2.31476	0	5	-0.221416	1.15097	0.254648	1.87352	0.0168072	1.16683	-0.141798	1.93754	-0.208647	0.208902	-0.220361	1.3507	0.132066	1.13773	0.012132	1.54893	0.560667	1.75321	-0.0664018	1.19692	-0.28567	0.76835	-0.317455	1.03302	-0.747098	0.638313	-0.809974	0.911385	-0.769348	0.760557	-0.736244	0.677397	
2.31628	0	5	-0.217393	1.1396	0.259207	1.86063	0.011267	1.16022	-0.143209	1.9302	-0.21406	0.193557	-0.225231	1.33435	0.12588	1.12997	0.008889	1.54341	0.557613	1.74965	-0.070886	1.19676	-0.287923	0.762532	-0.330672	1.03259	-0.756001	0.641955	-0.81236	0.903353	-0.77594	0.764864	-0.739433	0.673769	
2.31323	0	5	-0.209194	1.13424	0.259207	1.86063	0.0175652	1.15355	-0.132787	1.92339	-0.213336	0.18131	-0.226771	1.32367	0.122789	1.1261	0.0124	1.53349	0.55456	1.74609	-0.073946	1.19258	-0.285688	0.756216	-0.326506	1.02082	-0.760892	0.634282	-0.813279	0.891186	-0.776799	0.752982	-0.738684	0.659021	
2.31018	0	5	-0.200994	1.12889	0.259207	1.86063	0.0238635	1.14688	-0.122365	1.91658	-0.212613	0.169063	-0.228311	1.31298	0.119698	1.12223	0.015911	1.52356	0.551507	1.74253	-0.077006	1.18841	-0.283453	0.7499	-0.32234	1.00905	-0.765783	0.626609	-0.814199	0.879019	-0.777659	0.7411	-0.737935	0.644272	
2.31018	0	5	-0.192795	1.12353	0.259207	1.86063	0.0301618	1.14021	-0.111942	1.90977	-0.21189	0.156815	-0.229851	1.30229	0.116608	1.11836	0.019422	1.51364	0.548454	1.73897	-0.080066	1.18423	-0.281218	0.743585	-0.318174	0.997272	-0.770673	0.618936	-0.815118	0.866852	-0.778518	0.729217	-0.737186	0.629523	
2.31171	0	5	-0.184595	1.11817	0.259207	1.86063	0.03646	1.13354	-0.10152	1.90296	-0.211166	0.144568	-0.231391	1.2916	0.113517	1.11449	0.022933	1.50372	0.545401	1.73542	-0.083126	1.18006	-0.278983	0.737269	-0.314008	0.985498	-0.775564	0.611263	-0.816037	0.854685	-0.779377	0.717335	-0.736437	0.614775	
2.31018	0	5	-0.192795	1.12353	0.260748	1.86953	0.0301618	1.14021	-0.105319	1.9137	-0.212249	0.147629	-0.226262	1.29215	0.111782	1.10679	0.0161805	1.50813	0.54235	1.73186	-0.0786447	1.18022	-0.2801	0.740426	-0.309484	0.991594	-0.771619	0.610858	-0.816037	0.854685	-0.77279	0.713031	-0.739626	0.611163	
2.3056	0	5	-0.200994	1.12889	0.262288	1.87843	0.0238635	1.14688	-0.109118	1.92443	-0.213332	0.15069	-0.221134	1.29269	0.110046	1.0991	0.009428	1.51254	0.539299	1.72831	-0.0741635	1.18037	-0.281218	0.743583	-0.30496	0.99769	-0.767674	0.610452	-0.816037	0.854685	-0.766204	0.708727	-0.742814	0.607551	
2.30865	0	0	-0.209194	1.13424	0.263829	1.88733	0.0175652	1.15355	-0.112916	1.93517	-0.214416	0.153751	-0.216005	1.29324	0.108311	1.09141	0.0026755	1.51695	0.536248	1.72475	-0.0696823	1.18053	-0.282335	0.746741	-0.300437	1.00379	-0.763728	0.610046	-0.816037	0.854685	-0.759618	0.704424	-0.746003	0.603939	
2.30865	0	0	-0.217393	1.1396	0.265369	1.89623	0.011267	1.16022	-0.116715	1.94591	-0.215499	0.156812	-0.210876	1.29378	0.106575	1.08372	-0.004077	1.52137	0.533197	1.7212	-0.065201	1.18069	-0.283452	0.749898	-0.295913	1.00988	-0.759783	0.609641	-0.816037	0.854685	-0.753031	0.70012	-0.749191	0.600327	
2.30408	0	0	-0.21956	1.12793	0.260769	1.88273	0.0120222	1.14697	-0.115599	1.93143	-0.221635	0.153764	-0.219338	1.28763	0.100399	1.076	-0.005565	1.51091	0.523274	1.72491	-0.0711027	1.18455	-0.283452	0.749898	-0.306688	1.02145	-0.758838	0.617719	-0.815118	0.866852	-0.755893	0.708209	-0.7415	0.603847	
2.30713	0	0	-0.221726	1.11625	0.256169	1.86924	0.0127775	1.13371	-0.114483	1.91695	-0.227771	0.150716	-0.2278	1.28148	0.0942235	1.06828	-0.007053	1.50046	0.513352	1.72862	-0.0770045	1.1884	-0.283452	0.749898	-0.317463	1.03302	-0.757892	0.625798	-0.814199	0.879019	-0.758756	0.716298	-0.733809	0.607366	
2.30713	0	0	-0.223893	1.10458	0.25157	1.85574	0.0135327	1.12045	-0.113367	1.90247	-0.233907	0.147667	-0.236262	1.27533	0.0880478	1.06057	-0.008541	1.49	0.503429	1.73233	-0.0829063	1.19226	-0.283452	0.749898	-0.328238	1.04459	-0.756946	0.633877	-0.813279	0.891186	-0.761618	0.724388	-0.726118	0.610885	
2.30255	0	0	-0.22606	1.0929	0.24697	1.84225	0.014288	1.10719	-0.112251	1.88799	-0.240043	0.144619	-0.244724	1.26918	0.081872	1.05285	-0.010029	1.47955	0.493507	1.73604	-0.088808	1.19612	-0.283452	0.749898	-0.339013	1.05617	-0.756001	0.641955	-0.81236	0.903353	-0.76448	0.732477	-0.718427	0.614405	
2.30408	0	0	-0.224054	1.08724	0.245427	1.83338	0.0126913	1.10059	-0.113669	1.88068	-0.240405	0.135457	-0.241145	1.25907	0.080136	1.04519	-0.0150198	1.479	0.491738	1.72889	-0.0859677	1.18809	-0.285706	0.744092	-0.334844	1.04438	-0.758947	0.639531	-0.81089	0.899198	-0.769635	0.732735	-0.72293	0.614497	
2.30102	0	0	-0.222049	1.08157	0.243885	1.8245	0.0110945	1.09399	-0.115088	1.87336	-0.240768	0.126296	-0.237567	1.24895	0.0784	1.03752	-0.0200105	1.47846	0.489969	1.72173	-0.0831275	1.18006	-0.287961	0.738285	-0.330675	1.0326	-0.761894	0.637106	-0.80942	0.895043	-0.77479	0.732994	-0.727432	0.61459	
2.30255	0	0	-0.220043	1.0759	0.242342	1.81563	0.00949775	1.08738	-0.116506	1.86605	-0.24113	0.117134	-0.233988	1.23884	0.076664	1.02985	-0.0250013	1.47792	0.4882	1.71458	-0.0802873	1.17203	-0.290216	0.732479	-0.326506	1.02082	-0.76484	0.634682	-0.80795	0.890889	-0.779945	0.733252	-0.731935	0.614683	
2.2995	0	0	-0.218037	1.07023	0.240799	1.80676	0.007901	1.08078	-0.117924	1.85874	-0.241492	0.107972	-0.230409	1.22872	0.074928	1.02219	-0.029992	1.47737	0.486431	1.70742	-0.077447	1.16401	-0.29247	0.726673	-0.322337	1.00904	-0.767786	0.632257	-0.80648	0.886734	-0.7851	0.73351	-0.736437	0.614775	
2.2995	0	0	-0.213858	1.07622	0.245401	1.82023	0.014617	1.08404	-0.104653	1.86656	-0.237885	0.107963	-0.227072	1.23432	0.0722285	1.02982	-0.02325	1.47297	0.485156	1.71103	-0.072965	1.16416	-0.29247	0.726673	-0.331018	1.01471	-0.768787	0.635085	-0.80262	0.890602	-0.779381	0.717346	-0.742247	0.618571	
2.29797	0	0	-0.20968	1.08221	0.250003	1.8337	0.021333	1.0873	-0.091383	1.87437	-0.234277	0.107955	-0.223735	1.23991	0.069529	1.03745	-0.016508	1.46856	0.483882	1.71463	-0.068483	1.16432	-0.29247	0.726673	-0.339699	1.02038	-0.769787	0.637914	-0.79876	0.89447	-0.773662	0.701182	-0.748057	0.622367	
2.2995	0	0	-0.205501	1.08819	0.254605	1.84716	0.028049	1.09055	-0.0781125	1.88218	-0.23067	0.107946	-0.220397	1.24551	0.0668295	1.04508	-0.009766	1.46416	0.482608	1.71823	-0.064001	1.16447	-0.29247	0.726673	-0.34838	1.02605	-0.770788	0.640742	-0.7949	0.898337	-0.767942	0.685018	-0.753866	0.626164	
2.29797	0	0	-0.201322	1.09418	0.259207	1.86063	0.034765	1.09381	-0.064842	1.89	-0.227063	0.107937	-0.21706	1.2511	0.06413	1.05271	-0.003024	1.45975	0.481333	1.72183	-0.059519	1.16463	-0.29247	0.726673	-0.357061	1.03173	-0.771789	0.64357	-0.79104	0.902205	-0.762223	0.668854	-0.759676	0.62996	
2.29645	0	0	-0.209513	1.09953	0.251593	1.86891	0.0284717	1.10048	-0.0713275	1.89699	-0.230308	0.117108	-0.213721	1.25671	0.0672143	1.05656	0.00022	1.46524	0.489974	1.72173	-0.0637825	1.17668	-0.284607	0.728815	-0.345946	1.03806	-0.765896	0.648424	-0.782396	0.922176	-0.770233	0.677193	-0.754615	0.640912	
2.29645	0	0	-0.217705	1.10489	0.24398	1.87718	0.0221785	1.10714	-0.077813	1.90397	-0.233553	0.126278	-0.210382	1.26231	0.0702985	1.06042	0.003464	1.47074	0.498615	1.72162	-0.068046	1.18873	-0.276745	0.730957	-0.334831	1.04438	-0.760004	0.653279	-0.773752	0.942146	-0.778243	0.685532	-0.749555	0.651864	
2.29492	0	5	-0.225897	1.11024	0.236366	1.88546	0.0158853	1.1138	-0.0842985	1.91096	-0.236798	0.135448	-0.207043	1.26791	0.0733827	1.06427	0.006708	1.47623	0.507255	1.72152	-0.0723095	1.20078	-0.268882	0.733098	-0.323715	1.05071	-0.754111	0.658134	-0.765108	0.962117	-0.786254	0.693871	-0.744494	0.662817	
2.29339	0	5	-0.234088	1.11559	0.228752	1.89373	0.009592	1.12047	-0.090784	1.91795	-0.240043	0.144619	-0.203704	1.27351	0.076467	1.06813	0.009952	1.48172	0.515896	1.72141	-0.076573	1.21283	-0.261019	0.73524	-0.3126	1.05704	-0.748218	0.662988	-0.756464	0.982087	-0.794264	0.70221	-0.739433	0.673769	
2.29187	0	5	-0.234088	1.11559	0.218094	1.8974	0.0119395	1.11383	-0.0947338	1.91778	-0.237879	0.138504	-0.207043	1.26791	0.072032	1.06809	0.006708	1.47623	0.515896	1.72141	-0.0796318	1.20865	-0.264393	0.732591	-0.319203	1.05682	-0.747276	0.671088	-0.750206	0.994058	-0.795694	0.70625	-0.738875	0.684833	
2.29645	0	5	-0.234088	1.11559	0.207436	1.90106	0.014287	1.1072	-0.0986835	1.91761	-0.235716	0.132389	-0.210382	1.26231	0.067597	1.06805	0.003464	1.47074	0.515896	1.72141	-0.0826905	1.20447	-0.267767	0.729942	-0.325806	1.0566	-0.746333	0.679188	-0.743947	1.00603	-0.797123	0.71029	-0.738317	0.695898	
2.29339	0	5	-0.234088	1.11559	0.196778	1.90473	0.0166345	1.10056	-0.102633	1.91744	-0.233552	0.126275	-0.213721	1.25671	0.063162	1.06801	0.00022	1.46524	0.515896	1.72141	-0.0857492	1.20029	-0.271142	0.727293	-0.33241	1.05638	-0.745391	0.687287	-0.737688	1.018	-0.798553	0.71433	-0.73776	0.706962	
2.29034	0	5	-0.234088	1.11559	0.18612	1.90839	0.018982	1.09393	-0.106583	1.91727	-0.231388	0.12016	-0.21706	1.2511	0.058727	1.06797	-0.003024	1.45975	0.515896	1.72141	-0.088808	1.19612	-0.274516	0.724644	-0.339013	1.05617	-0.744449	0.695387	-0.73143	1.02997	-0.799983	0.71837	-0.737202	0.718026	
2.29339	0	5	-0.227905	1.11592	0.189168	1.913	0.0166345	1.10056	-0.097414	1.91403	-0.230307	0.117104	-0.210138	1.24658	0.0645132	1.06419	-0.00477525	1.4647	0.515896	1.72141	-0.088808	1.19612	-0.279004	0.725151	-0.336928	1.05027	-0.751345	0.693355	-0.724597	1.0255	-0.810272	0.718883	-0.740389	0.714392	
2.29339	0	5	-0.221722	1.11624	0.192215	1.91761	0.014287	1.1072	-0.088245	1.91079	-0.229225	0.114048	-0.203217	1.24206	0.0702995	1.06041	-0.0065265	1.46965	0.515896	1.72141	-0.088808	1.19612	-0.283493	0.725658	-0.334843	1.04438	-0.75824	0.691323	-0.717763	1.02104	-0.820562	0.719395	-0.743575	0.710757	
2.29034	0	5	-0.215538	1.11656	0.195263	1.92222	0.0119395	1.11383	-0.079076	1.90755	-0.228144	0.110993	-0.196295	1.23753	0.0760858	1.05663	-0.00827775	1.4746	0.515896	1.72141	-0.088808	1.19612	-0.287982	0.726166	-0.332757	1.03849	-0.765135	0.689291	-0.710929	1.01657	-0.830852	0.719908	-0.746761	0.707122	
2.29339	0	5	-0.209355	1.11688	0.198311	1.92683	0.009592	1.12047	-0.069907	1.90431	-0.227063	0.107937	-0.189373	1.23301	0.081872	1.05285	-0.010029	1.47955	0.515896	1.72141	-0.088808	1.19612	-0.29247	0.726673	-0.330672	1.03259	-0.772031	0.687259	-0.704096	1.01211	-0.841141	0.720421	-0.749948	0.703488	
2.29339	0	5	-0.213375	1.12825	0.192225	1.94403	0.0100107	1.1304	-0.0670675	1.91899	-0.226699	0.117101	-0.187822	1.24368	0.0760858	1.05663	-0.00503375	1.48009	0.515896	1.72141	-0.0871717	1.20431	-0.284607	0.728815	-0.328242	1.04461	-0.773034	0.690093	-0.704096	1.01211	-0.835998	0.720165	-0.748633	0.699773	
2.29492	0	5	-0.217396	1.13961	0.18614	1.96123	0.0104295	1.14034	-0.064228	1.93366	-0.226336	0.126266	-0.18627	1.25434	0.0702995	1.06041	-3.85E-05	1.48063	0.515896	1.72141	-0.0855355	1.21251	-0.276745	0.730957	-0.325812	1.05662	-0.774037	0.692927	-0.704096	1.01211	-0.830855	0.719909	-0.747318	0.696057	
2.29645	0	5	-0.221416	1.15097	0.180055	1.97843	0.0108483	1.15028	-0.0613885	1.94834	-0.225972	0.135431	-0.184719	1.26501	0.0645132	1.06419	0.00495675	1.48118	0.515896	1.72141	-0.0838993	1.22071	-0.268882	0.733098	-0.323381	1.06863	-0.775039	0.69576	-0.704096	1.01211	-0.825713	0.719654	-0.746004	0.692341	
2.29339	0	5	-0.225436	1.16233	0.173969	1.99563	0.011267	1.16022	-0.058549	1.96301	-0.225609	0.144595	-0.183167	1.27568	0.058727	1.06797	0.009952	1.48172	0.515896	1.72141	-0.082263	1.22891	-0.261019	0.73524	-0.320951	1.08064	-0.776042	0.698594	-0.704096	1.01211	-0.82057	0.719398	-0.744689	0.688626	
2.29339	0	5	-0.223425	1.15665	0.170927	1.991	0.013618	1.15358	-0.0612365	1.95925	-0.229218	0.144601	-0.181374	1.27061	0.056995	1.06031	0.0032045	1.48613	0.511574	1.72147	-0.083686	1.23293	-0.268863	0.745223	-0.314342	1.08086	-0.774101	0.703866	-0.707058	1.02048	-0.816853	0.723183	-0.751268	0.70722	
2.29645	0	5	-0.221415	1.15097	0.167885	1.98637	0.015969	1.14693	-0.063924	1.9555	-0.232826	0.144607	-0.179581	1.26554	0.055263	1.05264	-0.003543	1.49054	0.507252	1.72152	-0.085109	1.23695	-0.276706	0.755205	-0.307732	1.08108	-0.772161	0.709137	-0.710019	1.02885	-0.813136	0.726967	-0.757848	0.725814	
2.29492	0	5	-0.219404	1.14528	0.164843	1.98175	0.01832	1.14029	-0.0666115	1.95174	-0.236434	0.144613	-0.177788	1.26048	0.053531	1.04497	-0.0102905	1.49495	0.50293	1.72157	-0.086532	1.24097	-0.28455	0.765188	-0.301123	1.0813	-0.77022	0.714409	-0.712981	1.03722	-0.80942	0.730752	-0.764427	0.744407	
2.29645	0	5	-0.217393	1.1396	0.161801	1.97712	0.020671	1.13364	-0.069299	1.94798	-0.240043	0.144619	-0.175995	1.25541	0.051799	1.0373	-0.017038	1.49935	0.498608	1.72162	-0.087955	1.245	-0.292394	0.775171	-0.294514	1.08153	-0.768279	0.719681	-0.715942	1.04559	-0.805703	0.734537	-0.771006	0.763001	
2.29797	0	5	-0.215384	1.13392	0.169408	1.96884	0.020671	1.13364	-0.0640735	1.94456	-0.236798	0.135448	-0.17934	1.24981	0.0500655	1.02964	-0.0152858	1.4944	0.501158	1.71442	-0.086532	1.24097	-0.290158	0.768853	-0.301123	1.0813	-0.774165	0.714809	-0.726642	1.04615	-0.814562	0.731008	-0.772871	0.755639	
2.30408	0	5	-0.213374	1.12824	0.177015	1.96057	0.020671	1.13364	-0.058848	1.94115	-0.233553	0.126278	-0.182684	1.24421	0.048332	1.02199	-0.0135335	1.48945	0.503707	1.70721	-0.085109	1.23695	-0.287923	0.762535	-0.307732	1.08108	-0.780052	0.709936	-0.737341	1.0467	-0.823422	0.727479	-0.774736	0.748277	
2.30255	0	5	-0.211365	1.12256	0.184623	1.95229	0.020671	1.13364	-0.0536225	1.93774	-0.230308	0.117108	-0.186029	1.23861	0.0465985	1.01433	-0.0117813	1.4845	0.506256	1.70001	-0.083686	1.23293	-0.285687	0.756216	-0.314342	1.08086	-0.785938	0.705064	-0.748041	1.04726	-0.832282	0.72395	-0.7766	0.740915	
2.29797	0	5	-0.209355	1.11688	0.19223	1.94402	0.020671	1.13364	-0.048397	1.93432	-0.227063	0.107937	-0.189373	1.23301	0.044865	1.00667	-0.010029	1.47955	0.508806	1.6928	-0.082263	1.22891	-0.283452	0.749898	-0.320951	1.08064	-0.791824	0.700192	-0.758741	1.04782	-0.841141	0.720421	-0.778465	0.733553	
2.30255	0	5	-0.215387	1.13393	0.190708	1.96155	0.0238602	1.1469	-0.042866	1.95279	-0.226699	0.117101	-0.187822	1.24368	0.0435173	1.01048	-0.006787	1.48505	0.506256	1.70001	-0.07778	1.22907	-0.280079	0.752551	-0.314342	1.08086	-0.78982	0.694527	-0.762605	1.04391	-0.841141	0.720421	-0.781645	0.729916	
2.30408	0	5	-0.221419	1.15098	0.189186	1.97909	0.0270495	1.16015	-0.037335	1.97126	-0.226336	0.126266	-0.18627	1.25434	0.0421695	1.01429	-0.003545	1.49054	0.503707	1.70721	-0.073297	1.22923	-0.276706	0.755205	-0.307732	1.08108	-0.787815	0.688862	-0.766468	1.04001	-0.841141	0.720421	-0.784825	0.726279	
2.30713	0	5	-0.227452	1.16803	0.187664	1.99662	0.0302387	1.1734	-0.031804	1.98973	-0.225972	0.135431	-0.184719	1.26501	0.0408218	1.0181	-0.000303	1.49604	0.501158	1.71442	-0.068814	1.2294	-0.273334	0.757858	-0.301123	1.0813	-0.78581	0.683197	-0.770332	1.0361	-0.841141	0.720421	-0.788004	0.722643	
2.31018	0	5	-0.233484	1.18508	0.186142	2.01416	0.033428	1.18666	-0.026273	2.00821	-0.225609	0.144595	-0.183167	1.27568	0.039474	1.02191	0.002939	1.50154	0.498608	1.72162	-0.064331	1.22956	-0.269961	0.760512	-0.294514	1.08153	-0.783806	0.677532	-0.774196	1.0322	-0.841141	0.720421	-0.791184	0.719006	
2.31171	0	5	-0.225285	1.17972	0.187661	2.02311	0.0310717	1.19332	-0.0288193	2.0154	-0.225249	0.153775	-0.181619	1.28636	0.0381255	1.02572	-0.00057	1.51146	0.507255	1.72152	-0.06412	1.2418	-0.269945	0.77266	-0.294177	1.09949	-0.783872	0.688468	-0.766466	1.04001	-0.836576	0.736087	-0.788004	0.722643	
2.31171	0	5	-0.217085	1.17436	0.189179	2.03206	0.0287155	1.19998	-0.0313655	2.0226	-0.224888	0.162954	-0.180071	1.29705	0.036777	1.02953	-0.004079	1.52137	0.515903	1.72141	-0.063909	1.25405	-0.269929	0.784807	-0.293841	1.11746	-0.783937	0.699404	-0.758736	1.04782	-0.832011	0.751753	-0.784825	0.726279	
2.31171	0	5	-0.208886	1.16901	0.190697	2.04101	0.0263593	1.20664	-0.0339117	2.02979	-0.224528	0.172133	-0.178523	1.30774	0.0354285	1.03334	-0.007588	1.53129	0.52455	1.7213	-0.063698	1.26629	-0.269912	0.796955	-0.293504	1.13543	-0.784002	0.710339	-0.751006	1.05564	-0.827446	0.767418	-0.781645	0.729916	
2.31628	0	5	-0.200687	1.16365	0.192216	2.04996	0.024003	1.2133	-0.036458	2.03699	-0.224168	0.181313	-0.176975	1.31843	0.03408	1.03715	-0.011097	1.54121	0.533197	1.7212	-0.063487	1.27854	-0.269896	0.809103	-0.293167	1.15339	-0.784068	0.721275	-0.743276	1.06345	-0.822881	0.783084	-0.778465	0.733553	
2.31933	0	5	-0.198675	1.15796	0.195268	2.04134	0.0263593	1.20664	-0.0351848	2.03339	-0.225611	0.175194	-0.175179	1.31335	0.0310018	1.03331	-0.009342	1.53625	0.527596	1.72486	-0.0679712	1.27837	-0.269896	0.809103	-0.297686	1.14725	-0.784138	0.732231	-0.747723	1.07602	-0.818319	0.798803	-0.782414	0.744714	
2.31933	0	5	-0.196663	1.15228	0.198319	2.03271	0.0287155	1.19998	-0.0339115	2.02979	-0.227054	0.169074	-0.173383	1.30828	0.0279235	1.02946	-0.007587	1.53129	0.521995	1.72852	-0.0724555	1.2782	-0.269896	0.809103	-0.302206	1.1411	-0.784209	0.743188	-0.752171	1.08859	-0.813757	0.814522	-0.786363	0.755875	
2.32086	0	5	-0.19465	1.14659	0.201371	2.02409	0.0310717	1.19332	-0.0326382	2.02619	-0.228497	0.162955	-0.171587	1.3032	0.0248452	1.02561	-0.005832	1.52633	0.516393	1.73218	-0.0769398	1.27803	-0.269896	0.809103	-0.306725	1.13495	-0.78428	0.754144	-0.756619	1.10116	-0.809196	0.83024	-0.790312	0.767035	
2.31933	0	5	-0.192638	1.1409	0.204423	2.01546	0.033428	1.18666	-0.031365	2.0226	-0.22994	0.156835	-0.169791	1.29813	0.021767	1.02177	-0.004077	1.52137	0.510792	1.73584	-0.081424	1.27787	-0.269896	0.809103	-0.311244	1.12881	-0.78435	0.7651	-0.761066	1.11373	-0.804634	0.845959	-0.794261	0.778196	
2.32239	0	5	-0.188456	1.14692	0.213574	2.01611	0.0298927	1.19665	-0.0299485	2.02997	-0.228857	0.153775	-0.169791	1.29813	0.021767	1.02177	-0.005832	1.52633	0.509516	1.73945	-0.079999	1.27384	-0.271016	0.812269	-0.317851	1.12858	-0.78435	0.7651	-0.766411	1.114	-0.799479	0.845712	-0.80773	0.778416	
2.32086	0	5	-0.184275	1.15293	0.222725	2.01676	0.0263575	1.20664	-0.028532	2.03735	-0.227774	0.150715	-0.169791	1.29813	0.021767	1.02177	-0.007587	1.53129	0.508239	1.74305	-0.078574	1.26981	-0.272137	0.815435	-0.324458	1.12835	-0.78435	0.7651	-0.771756	1.11427	-0.794324	0.845465	-0.821198	0.778636	
2.32391	0	5	-0.180093	1.15894	0.231876	2.01742	0.0228222	1.21663	-0.0271155	2.04473	-0.226692	0.147655	-0.169791	1.29813	0.021767	1.02177	-0.009342	1.53625	0.506962	1.74666	-0.077149	1.26578	-0.273257	0.818602	-0.331064	1.12812	-0.78435	0.7651	-0.7771	1.11454	-0.789169	0.845218	-0.834667	0.778857	
2.32086	0	5	-0.175911	1.16496	0.241027	2.01807	0.019287	1.22662	-0.025699	2.05211	-0.225609	0.144595	-0.169791	1.29813	0.021767	1.02177	-0.011097	1.54121	0.505686	1.75027	-0.075724	1.26176	-0.274377	0.821768	-0.337671	1.12789	-0.78435	0.7651	-0.782445	1.11481	-0.784014	0.844971	-0.848136	0.779077	
2.31933	0	5	-0.177926	1.17065	0.234915	2.03534	0.0196957	1.23661	-0.0268375	2.06671	-0.220553	0.150706	-0.168243	1.30883	0.020419	1.02558	-0.01461	1.55114	0.513059	1.75378	-0.0785747	1.26981	-0.26875	0.830275	-0.341856	1.13972	-0.781407	0.767546	-0.782445	1.11481	-0.777417	0.840661	-0.845506	0.771644	
2.32239	0	5	-0.179941	1.17634	0.228803	2.05261	0.0201045	1.2466	-0.027976	2.08132	-0.215497	0.156817	-0.166696	1.31953	0.019071	1.02939	-0.018123	1.56106	0.520432	1.75729	-0.0814255	1.27787	-0.263122	0.838782	-0.346042	1.15155	-0.778464	0.769992	-0.782445	1.11481	-0.770821	0.83635	-0.842876	0.764212	
2.32391	0	5	-0.181955	1.18204	0.222691	2.06989	0.0205133	1.25659	-0.0291145	2.09593	-0.21044	0.162928	-0.165149	1.33023	0.017723	1.0332	-0.021636	1.57099	0.527806	1.7608	-0.0842762	1.28593	-0.257495	0.847289	-0.350227	1.16338	-0.775521	0.772438	-0.782445	1.11481	-0.764224	0.83204	-0.840246	0.756779	
2.32239	0	5	-0.18397	1.18773	0.216579	2.08716	0.020922	1.26657	-0.030253	2.11053	-0.205384	0.169039	-0.163601	1.34093	0.016375	1.037	-0.025149	1.58092	0.535179	1.76431	-0.087127	1.29398	-0.251868	0.855796	-0.354412	1.17521	-0.772578	0.774884	-0.782445	1.11481	-0.757627	0.82773	-0.837616	0.749346	
2.31628	0	5	-0.181955	1.18204	0.222691	2.06989	0.0205133	1.25659	-0.0316647	2.10313	-0.21369	0.172111	-0.168741	1.34039	0.016375	1.037	-0.023392	1.57596	0.535179	1.76431	-0.087127	1.29398	-0.254114	0.862143	-0.356507	1.18113	-0.771647	0.783022	-0.788382	1.13158	-0.765661	0.836102	-0.832587	0.760355	
2.31933	0	5	-0.179941	1.17634	0.228803	2.05261	0.0201045	1.2466	-0.0330765	2.09574	-0.221995	0.175183	-0.173882	1.33984	0.016375	1.037	-0.021635	1.57099	0.535179	1.76431	-0.087127	1.29398	-0.256359	0.868491	-0.358602	1.18705	-0.770715	0.79116	-0.794319	1.14836	-0.773696	0.844475	-0.827559	0.771363	
2.31933	0	5	-0.177926	1.17065	0.234915	2.03534	0.0196957	1.23661	-0.0344882	2.08834	-0.230301	0.178255	-0.179023	1.33929	0.016375	1.037	-0.019878	1.56602	0.535179	1.76431	-0.087127	1.29398	-0.258605	0.874838	-0.360696	1.19297	-0.769784	0.799297	-0.800256	1.16514	-0.78173	0.852847	-0.82253	0.782372	
2.31781	0	5	-0.175911	1.16496	0.241027	2.01807	0.019287	1.22662	-0.0359	2.08094	-0.238606	0.181327	-0.184163	1.33874	0.016375	1.037	-0.018121	1.56106	0.535179	1.76431	-0.087127	1.29398	-0.260851	0.881185	-0.362791	1.19889	-0.768853	0.807435	-0.806193	1.18192	-0.789764	0.86122	-0.817501	0.793381	
2.31628	0	5	-0.173898	1.15927	0.237975	2.01343	0.0216442	1.21996	-0.0333497	2.07373	-0.23644	0.175204	-0.182366	1.33366	0.0106043	1.04077	-0.0248685	1.56547	0.535179	1.76431	-0.0901822	1.28979	-0.265347	0.881683	-0.367293	1.19273	-0.77675	0.808221	-0.804708	1.17772	-0.797197	0.853594	-0.823307	0.797175	
2.31476	0	5	-0.171884	1.15358	0.234924	2.00879	0.0240015	1.2133	-0.0307995	2.06652	-0.234273	0.169081	-0.180569	1.32859	0.0048335	1.04455	-0.031616	1.56988	0.535179	1.76431	-0.0932375	1.28559	-0.269844	0.882181	-0.371795	1.18657	-0.784647	0.809006	-0.803222	1.17353	-0.804629	0.845967	-0.829113	0.800968	
2.31476	0	0	-0.169871	1.14789	0.231872	2.00416	0.0263588	1.20663	-0.0282493	2.05932	-0.232106	0.162958	-0.178772	1.32351	-0.00093725	1.04832	-0.0383635	1.57429	0.535179	1.76431	-0.0962928	1.28139	-0.27434	0.882678	-0.376296	1.18041	-0.792544	0.809791	-0.801737	1.16933	-0.812062	0.83834	-0.834919	0.804762	
2.31323	0	0	-0.167858	1.1422	0.22882	1.99952	0.028716	1.19997	-0.025699	2.05211	-0.22994	0.156835	-0.176975	1.31843	-0.006708	1.05209	-0.045111	1.57869	0.535179	1.76431	-0.099348	1.27719	-0.278836	0.883176	-0.380798	1.17426	-0.800441	0.810577	-0.800252	1.16513	-0.819495	0.830714	-0.840725	0.808556	
