0.764	2.83813	0	0	2.12425	-1.82239	0.987303	-1.38213	3.24196	-2.48274	1.05864	-1.44568	0.820441	-1.21726	1.00347	-1.94545	1.04716	-0.89785	0.689282	-1.81127	1.06199	-1.11655	0.577502	-1.74583	0.228271	-2.40123	0.808826	-1.7127	1.1516	-1.50099	3.1732	-0.554014	2.23063	-1.62462	2.17752	-0.892273	
0.761277	2.83661	0	0	2.11531	-1.81655	0.977577	-1.38196	3.24375	-2.4878	1.05572	-1.448	0.793642	-1.22061	0.948289	-1.97143	1.01726	-0.913581	0.632234	-1.86154	1.0457	-1.1365	0.561624	-1.763	0.204049	-2.40733	0.783577	-1.73011	1.14329	-1.50547	3.14031	-0.576785	2.245	-1.63402	2.17414	-0.891994	
0.75937	2.83203	0	0	2.10636	-1.8107	0.96785	-1.38179	3.24554	-2.49286	1.05281	-1.45033	0.766842	-1.22396	0.893107	-1.99741	0.987359	-0.929311	0.575187	-1.91182	1.0294	-1.15645	0.545747	-1.78017	0.179827	-2.41343	0.758328	-1.74751	1.13498	-1.50995	3.10742	-0.599556	2.25937	-1.64341	2.17075	-0.891714	
0.758182	2.8305	0	0	2.09742	-1.80486	0.958124	-1.38162	3.24733	-2.49792	1.04989	-1.45265	0.740043	-1.22731	0.837924	-2.02339	0.957461	-0.945041	0.518139	-1.96209	1.0131	-1.1764	0.529869	-1.79734	0.155604	-2.41952	0.73308	-1.76492	1.12667	-1.51443	3.07454	-0.622326	2.27374	-1.6528	2.16736	-0.891435	
0.757616	2.82745	0	0	2.08848	-1.79901	0.948398	-1.38145	3.24912	-2.50299	1.04697	-1.45497	0.713244	-1.23066	0.782742	-2.04938	0.927562	-0.960772	0.461092	-2.01237	0.996805	-1.19635	0.513992	-1.81451	0.131382	-2.42562	0.707831	-1.78233	1.11836	-1.51891	3.04165	-0.645097	2.28812	-1.66219	2.16398	-0.891156	
0.757575	2.82593	0	0	2.09396	-1.79509	0.94895	-1.39211	3.2527	-2.5131	1.04989	-1.46322	0.70825	-1.24612	0.776116	-2.07586	0.918122	-0.967383	0.452688	-2.01603	0.985381	-1.20794	0.509559	-1.82851	0.124335	-2.44287	0.696231	-1.80849	1.1116	-1.54167	3.0049	-0.665062	2.28597	-1.67173	2.15827	-0.902878	
0.757963	2.82287	0	0	2.09945	-1.79116	0.949501	-1.40276	3.25628	-2.52321	1.05281	-1.47146	0.703256	-1.26158	0.76949	-2.10234	0.908683	-0.973995	0.444284	-2.01969	0.973957	-1.21953	0.505127	-1.84251	0.117288	-2.46012	0.684632	-1.83464	1.10484	-1.56444	2.96816	-0.685027	2.28382	-1.68128	2.15256	-0.9146	
0.758682	2.81372	0	0	2.10494	-1.78723	0.950052	-1.41342	3.25986	-2.53333	1.05572	-1.47971	0.698262	-1.27704	0.762864	-2.12882	0.899243	-0.980607	0.43588	-2.02335	0.962533	-1.23112	0.500695	-1.8565	0.110242	-2.47737	0.673032	-1.8608	1.09807	-1.5872	2.93141	-0.704992	2.28167	-1.69083	2.14686	-0.926322	
0.759636	2.81677	0	0	2.11042	-1.78331	0.950604	-1.42407	3.26343	-2.54344	1.05864	-1.48795	0.693268	-1.2925	0.756238	-2.1553	0.889803	-0.987218	0.427476	-2.02701	0.951109	-1.24272	0.496262	-1.8705	0.103195	-2.49462	0.661432	-1.88696	1.09131	-1.60997	2.89466	-0.724957	2.27952	-1.70037	2.14115	-0.938044	
0.760728	2.81677	0	0	2.11591	-1.77937	0.951551	-1.42675	3.26343	-2.54344	1.06643	-1.48881	0.691603	-1.29764	0.766635	-2.1621	0.891272	-0.991369	0.440083	-2.01693	0.95286	-1.24767	0.497233	-1.87325	0.104311	-2.49777	0.666076	-1.90009	1.08002	-1.61983	2.87096	-0.7459	2.27611	-1.70635	2.13279	-0.942219	
0.76186	2.81219	0	0	2.12141	-1.77544	0.952498	-1.42942	3.26343	-2.54344	1.07421	-1.48968	0.689938	-1.30278	0.777032	-2.16889	0.89274	-0.99552	0.45269	-2.00686	0.954611	-1.25261	0.498203	-1.87599	0.105427	-2.50092	0.670719	-1.91321	1.06873	-1.62969	2.84725	-0.766843	2.27271	-1.71232	2.12443	-0.946395	
0.762937	2.80914	0	0	2.1269	-1.77151	0.953445	-1.4321	3.26343	-2.54344	1.082	-1.49054	0.688273	-1.30792	0.787429	-2.17569	0.894209	-0.99967	0.465298	-1.99678	0.956363	-1.25756	0.499174	-1.87873	0.106542	-2.50408	0.675362	-1.92633	1.05744	-1.63955	2.82354	-0.787786	2.2693	-1.71829	2.11607	-0.95057	
0.763861	2.80609	0	0	2.13239	-1.76758	0.954392	-1.43478	3.26343	-2.54344	1.08978	-1.4914	0.686608	-1.31307	0.797826	-2.18248	0.895678	-1.00382	0.477905	-1.9867	0.958114	-1.26251	0.500145	-1.88148	0.107658	-2.50723	0.680006	-1.93946	1.04614	-1.64942	2.79984	-0.808729	2.26589	-1.72427	2.10771	-0.954746	
0.764549	2.80304	0	0	2.13239	-1.76758	0.953991	-1.44274	3.26701	-2.55354	1.09173	-1.4969	0.677551	-1.30715	0.793106	-2.16914	0.883319	-1.00212	0.483158	-1.97407	0.948035	-1.25593	0.5013	-1.8759	0.110122	-2.48942	0.679037	-1.922	1.04727	-1.65262	2.78802	-0.819153	2.279	-1.73011	2.10433	-0.954466	
0.76502	2.79999	0	0	2.13239	-1.76758	0.953591	-1.4507	3.27058	-2.56365	1.09367	-1.50239	0.668494	-1.30123	0.788386	-2.1558	0.87096	-1.00043	0.488411	-1.96143	0.937955	-1.24934	0.502455	-1.87033	0.112585	-2.47162	0.678068	-1.90454	1.04841	-1.65581	2.77621	-0.829578	2.29212	-1.73594	2.10096	-0.954187	
0.765333	2.79388	0	0	2.13239	-1.76758	0.953191	-1.45866	3.27416	-2.57375	1.09562	-1.50789	0.659437	-1.29531	0.783667	-2.14246	0.858601	-0.998728	0.493663	-1.9488	0.927876	-1.24275	0.503609	-1.86475	0.115048	-2.45381	0.677098	-1.88709	1.04954	-1.65901	2.76439	-0.840002	2.30523	-1.74178	2.09758	-0.953908	
0.765549	2.79999	0	0	2.13239	-1.76758	0.95279	-1.46662	3.27773	-2.58385	1.09756	-1.51338	0.65038	-1.28939	0.778947	-2.12912	0.846242	-0.99703	0.498916	-1.93617	0.917797	-1.23617	0.504764	-1.85918	0.117512	-2.43601	0.676129	-1.86963	1.05067	-1.66221	2.75258	-0.850426	2.31834	-1.74761	2.09421	-0.953628	
0.765726	2.79236	0	0	2.13239	-1.76758	0.950498	-1.46923	3.27952	-2.5889	1.09951	-1.51888	0.647059	-1.29966	0.781308	-2.1358	0.85064	-1.00946	0.509456	-1.92925	0.927876	-1.24275	0.508833	-1.86184	0.11863	-2.43917	0.674003	-1.87834	1.04053	-1.67523	2.73456	-0.869387	2.31618	-1.75713	2.08852	-0.965301	
0.765926	2.79236	0	0	2.13239	-1.76758	0.948206	-1.47184	3.2813	-2.59395	1.10145	-1.52437	0.643738	-1.30994	0.783668	-2.14247	0.855038	-1.02189	0.519996	-1.92234	0.937955	-1.24934	0.512903	-1.8645	0.119749	-2.44233	0.671878	-1.88705	1.03038	-1.68825	2.71654	-0.888347	2.31402	-1.76664	2.08283	-0.976973	
0.7662	2.78625	0	0	2.13239	-1.76758	0.945913	-1.47445	3.28309	-2.59899	1.10339	-1.52986	0.640417	-1.32021	0.786029	-2.14914	0.859436	-1.03432	0.530535	-1.91543	0.948035	-1.25593	0.516973	-1.86716	0.120867	-2.44549	0.669752	-1.89576	1.02024	-1.70126	2.69852	-0.907307	2.31186	-1.77615	2.07714	-0.988646	
0.76653	2.78625	0	0	2.13239	-1.76758	0.943621	-1.47706	3.28488	-2.60404	1.10533	-1.53535	0.637096	-1.33048	0.78839	-2.15581	0.863834	-1.04675	0.541075	-1.90851	0.958114	-1.26251	0.521042	-1.86981	0.121985	-2.44865	0.667626	-1.90447	1.0101	-1.71428	2.6805	-0.926268	2.3097	-1.78566	2.07145	-1.00032	
0.766851	2.78168	0	0	2.13066	-1.76269	0.949152	-1.47451	3.2813	-2.59394	1.11313	-1.53622	0.632822	-1.33804	0.78839	-2.15581	0.860589	-1.05417	0.550585	-1.90782	0.956363	-1.25756	0.525114	-1.87247	0.121985	-2.44865	0.667626	-1.90447	1.0041	-1.72505	2.66019	-0.947188	2.31221	-1.79276	2.0725	-1.01252	
0.767099	2.78015	0	0	2.12893	-1.75779	0.954684	-1.47196	3.27773	-2.58385	1.12093	-1.5371	0.628548	-1.3456	0.78839	-2.15581	0.857344	-1.06159	0.560094	-1.90712	0.954611	-1.25261	0.529185	-1.87513	0.121985	-2.44865	0.667626	-1.90447	0.998094	-1.73583	2.63988	-0.968107	2.31472	-1.79985	2.07355	-1.02473	
0.76721	2.79541	0	0	2.12719	-1.7529	0.960215	-1.46941	3.27416	-2.57375	1.12873	-1.53797	0.624274	-1.35315	0.78839	-2.15581	0.854099	-1.06901	0.569604	-1.90642	0.95286	-1.24767	0.533257	-1.8778	0.121985	-2.44865	0.667626	-1.90447	0.992092	-1.7466	2.61957	-0.989027	2.31723	-1.80695	2.07459	-1.03693	
0.76712	2.80151	0	0	2.12546	-1.748	0.965746	-1.46687	3.27059	-2.56365	1.13653	-1.53884	0.62	-1.36071	0.78839	-2.15581	0.850854	-1.07644	0.579114	-1.90573	0.951109	-1.24272	0.537328	-1.88046	0.121985	-2.44865	0.667626	-1.90447	0.98609	-1.75738	2.59926	-1.00995	2.31974	-1.81405	2.07564	-1.04914	
0.766766	2.81067	0	0	2.12343	-1.76171	0.969527	-1.47755	3.27594	-2.57879	1.13651	-1.54939	0.610267	-1.36262	0.786029	-2.14914	0.839986	-1.07886	0.579103	-1.89649	0.951109	-1.24272	0.538486	-1.87488	0.120974	-2.43339	0.668201	-1.89138	0.98609	-1.75738	2.58755	-1.02022	2.32568	-1.8152	2.07901	-1.04942	
0.766111	2.6474	0	0	2.1214	-1.77543	0.973308	-1.48824	3.2813	-2.59393	1.1365	-1.55993	0.600534	-1.36453	0.783668	-2.14247	0.829119	-1.08129	0.579091	-1.88726	0.951109	-1.24272	0.539643	-1.8693	0.119964	-2.41814	0.668776	-1.87828	0.98609	-1.75738	2.57585	-1.0305	2.33161	-1.81635	2.08238	-1.0497	
0.765139	2.83966	0	0	2.11937	-1.78914	0.977089	-1.49892	3.28666	-2.60907	1.13648	-1.57047	0.590802	-1.36644	0.781308	-2.1358	0.818252	-1.08372	0.579079	-1.87803	0.951109	-1.24272	0.540801	-1.86372	0.118953	-2.40289	0.669351	-1.86519	0.98609	-1.75738	2.56414	-1.04077	2.33754	-1.8175	2.08575	-1.04999	
0.763836	2.85187	0	0	2.11734	-1.80285	0.98087	-1.50961	3.29202	-2.62422	1.13646	-1.58101	0.581069	-1.36835	0.778947	-2.12912	0.807384	-1.08615	0.579068	-1.8688	0.951109	-1.24272	0.541959	-1.85814	0.117942	-2.38764	0.669926	-1.8521	0.98609	-1.75738	2.55243	-1.05105	2.34348	-1.81865	2.08912	-1.05027	
0.762186	2.8656	0	0	2.11907	-1.80774	0.982759	-1.51495	3.29558	-2.6343	1.1345	-1.58605	0.582261	-1.38152	0.781308	-2.1358	0.811764	-1.09853	0.586481	-1.87133	0.951109	-1.24272	0.542931	-1.86089	0.123651	-2.39137	0.671477	-1.85648	0.982339	-1.77447	2.5542	-1.06473	2.34975	-1.83637	2.08679	-1.06217	
0.760175	2.8656	0	0	2.1208	-1.81262	0.984648	-1.52029	3.29915	-2.64438	1.13255	-1.59109	0.583453	-1.39468	0.783668	-2.14247	0.816144	-1.1109	0.593894	-1.87387	0.951109	-1.24272	0.543903	-1.86364	0.12936	-2.3951	0.673028	-1.86086	0.978589	-1.79157	2.55598	-1.07841	2.35602	-1.85409	2.08447	-1.07407	
0.75779	2.87475	0	0	2.12252	-1.81751	0.986537	-1.52562	3.30271	-2.65445	1.13059	-1.59614	0.584646	-1.40785	0.786029	-2.14914	0.820523	-1.12328	0.601306	-1.8764	0.951109	-1.24272	0.544876	-1.86639	0.13507	-2.39883	0.674578	-1.86525	0.974838	-1.80867	2.55776	-1.09209	2.36229	-1.87181	2.08214	-1.08597	
0.75511	2.88086	0	0	2.12425	-1.82239	0.988426	-1.53096	3.30628	-2.66453	1.12863	-1.60118	0.585838	-1.42101	0.78839	-2.15581	0.824903	-1.13566	0.608719	-1.87894	0.951109	-1.24272	0.545848	-1.86913	0.140779	-2.40256	0.676129	-1.86963	0.971087	-1.82576	2.55953	-1.10577	2.36856	-1.88954	2.07981	-1.09786	
0.752301	2.89307	0	0	2.12975	-1.81847	0.993968	-1.52843	3.31367	-2.66549	1.13449	-1.59658	0.593908	-1.42422	0.802134	-2.14939	0.831067	-1.13652	0.617194	-1.87523	0.957695	-1.2394	0.547979	-1.8663	0.148845	-2.40052	0.683485	-1.86095	0.97033	-1.83746	2.56656	-1.09963	2.37482	-1.90722	2.07997	-1.10753	
0.749536	2.90222	0	0	2.13524	-1.81455	0.99951	-1.52589	3.32106	-2.66645	1.14035	-1.59197	0.601977	-1.42743	0.815879	-2.14297	0.837231	-1.13737	0.625669	-1.87153	0.964281	-1.23609	0.550109	-1.86347	0.156912	-2.39848	0.69084	-1.85226	0.969574	-1.84915	2.57359	-1.09349	2.38108	-1.92491	2.08012	-1.1172	
0.746987	2.91443	0	0	2.14074	-1.81063	1.00505	-1.52336	3.32845	-2.6674	1.14621	-1.58737	0.610046	-1.43064	0.829624	-2.13655	0.843395	-1.13823	0.634145	-1.86783	0.970867	-1.23278	0.552239	-1.86063	0.164979	-2.39645	0.698196	-1.84358	0.968817	-1.86084	2.58061	-1.08736	2.38734	-1.9426	2.08028	-1.12687	
0.744824	2.93274	0	0	2.14623	-1.80671	1.01059	-1.52082	3.33584	-2.66836	1.15207	-1.58277	0.618116	-1.43385	0.843368	-2.13014	0.849559	-1.13909	0.64262	-1.86413	0.977453	-1.22947	0.55437	-1.8578	0.173045	-2.39441	0.705552	-1.8349	0.96806	-1.87254	2.58764	-1.08122	2.3936	-1.96029	2.08043	-1.13654	
0.743213	2.94952	0	0	2.16244	-1.81353	1.01113	-1.53143	3.33023	-2.67244	1.15205	-1.59329	0.62596	-1.42659	0.846699	-2.11688	0.851345	-1.12756	0.645791	-1.85463	0.984047	-1.22615	0.551451	-1.84955	0.190337	-2.39351	0.713485	-1.81303	0.969939	-1.86402	2.61583	-1.05655	2.38047	-1.95443	2.08717	-1.13712	
0.742165	2.9541	0	0	2.17864	-1.82036	1.01166	-1.54203	3.32463	-2.67652	1.15203	-1.60382	0.633803	-1.41932	0.850031	-2.10362	0.853132	-1.11603	0.648963	-1.84513	0.990641	-1.22283	0.548532	-1.8413	0.207629	-2.39261	0.721418	-1.79115	0.971819	-1.8555	2.64402	-1.03188	2.36735	-1.94857	2.09391	-1.1377	
0.741556	2.96326	0	0	2.19485	-1.82719	1.01219	-1.55264	3.31902	-2.6806	1.152	-1.61434	0.641647	-1.41206	0.853362	-2.09036	0.854919	-1.1045	0.652135	-1.83564	0.997235	-1.21952	0.545613	-1.83305	0.224921	-2.39172	0.729352	-1.76928	0.973699	-1.84698	2.67221	-1.00721	2.35423	-1.94272	2.10065	-1.13828	
0.741253	2.96936	0	0	2.21105	-1.83402	1.01272	-1.56324	3.31341	-2.68468	1.15198	-1.62487	0.649491	-1.4048	0.856693	-2.0771	0.856705	-1.09297	0.655306	-1.82614	1.00383	-1.2162	0.542694	-1.8248	0.242213	-2.39082	0.737285	-1.7474	0.975578	-1.83845	2.70041	-0.982538	2.34111	-1.93686	2.10739	-1.13885	
0.741127	2.98004	0	0	2.2183	-1.835	1.01555	-1.57124	3.32436	-2.6957	1.15392	-1.63034	0.662107	-1.41097	0.867141	-2.08393	0.861416	-1.08969	0.668058	-1.82521	1.01394	-1.22281	0.545613	-1.83305	0.242095	-2.40294	0.738845	-1.75181	0.980065	-1.85114	2.72178	-0.973049	2.34736	-1.95451	2.10329	-1.14574	
0.741047	2.98614	0	0	2.22555	-1.83597	1.01838	-1.57924	3.33532	-2.70673	1.15586	-1.63582	0.674724	-1.41715	0.877589	-2.09076	0.866127	-1.08641	0.680809	-1.82427	1.02406	-1.22942	0.548532	-1.8413	0.241976	-2.41506	0.740404	-1.75622	0.984552	-1.86382	2.74315	-0.96356	2.3536	-1.97215	2.09919	-1.15262	
0.740889	2.99377	0	0	2.2328	-1.83695	1.02121	-1.58723	3.34627	-2.71776	1.1578	-1.6413	0.68734	-1.42333	0.888037	-2.09759	0.870838	-1.08313	0.693561	-1.82333	1.03417	-1.23603	0.551451	-1.84955	0.241858	-2.42718	0.741963	-1.76062	0.989039	-1.8765	2.76452	-0.95407	2.35984	-1.9898	2.09509	-1.1595	
0.740617	2.99988	0	0	2.24005	-1.83793	1.02404	-1.59523	3.35723	-2.72878	1.15973	-1.64678	0.699956	-1.4295	0.898485	-2.10441	0.875549	-1.07986	0.706312	-1.8224	1.04429	-1.24264	0.55437	-1.8578	0.241739	-2.4393	0.743523	-1.76503	0.993526	-1.88918	2.78589	-0.944581	2.36609	-2.00744	2.09099	-1.16638	
0.740267	3.00751	0	0	2.24384	-1.82911	1.02865	-1.59004	3.36463	-2.72975	1.16951	-1.64263	0.70711	-1.43004	0.909922	-2.09125	0.881729	-1.08071	0.714826	-1.81868	1.04429	-1.24264	0.549322	-1.85239	0.246223	-2.45197	0.74721	-1.76066	0.999897	-1.89334	2.81281	-0.924107	2.36609	-2.00744	2.097	-1.17413	
0.739874	3.01056	0	0	2.24763	-1.82029	1.03325	-1.58485	3.37203	-2.73072	1.17929	-1.63849	0.714263	-1.43058	0.921359	-2.07809	0.887908	-1.08157	0.723339	-1.81496	1.04429	-1.24264	0.544274	-1.84698	0.250707	-2.46464	0.750897	-1.75629	1.00627	-1.8975	2.83972	-0.903634	2.36609	-2.00744	2.103	-1.18188	
0.739473	3.01361	0	0	2.25143	-1.81147	1.03786	-1.57967	3.37943	-2.73169	1.18907	-1.63435	0.721417	-1.43112	0.932797	-2.06493	0.894088	-1.08243	0.731853	-1.81124	1.04429	-1.24264	0.539226	-1.84157	0.255191	-2.47731	0.754583	-1.75193	1.01264	-1.90167	2.86663	-0.883161	2.36609	-2.00744	2.10901	-1.18962	
0.739102	3.01666	0	0	2.25522	-1.80266	1.04247	-1.57448	3.38683	-2.73265	1.19884	-1.6302	0.72857	-1.43165	0.944234	-2.05177	0.900268	-1.08328	0.740366	-1.80752	1.04429	-1.24264	0.534178	-1.83615	0.259675	-2.48998	0.75827	-1.74756	1.01901	-1.90583	2.89354	-0.862687	2.36609	-2.00744	2.11502	-1.19737	
0.738806	3.02276	0	0	2.26248	-1.80363	1.04111	-1.57974	3.38121	-2.73672	1.19981	-1.63294	0.728338	-1.42115	0.955694	-2.03856	0.909713	-1.07672	0.752085	-1.79425	1.04604	-1.2476	0.540384	-1.83598	0.258424	-2.4989	0.765651	-1.7388	1.02616	-1.89831	2.90194	-0.833559	2.36952	-2.00155	2.11824	-1.18801	
0.738755	3.03039	0	0	2.26975	-1.80461	1.03975	-1.585	3.37559	-2.74078	1.20078	-1.63569	0.728106	-1.41065	0.967154	-2.02536	0.919158	-1.07015	0.763803	-1.78098	1.0478	-1.25256	0.54659	-1.83581	0.257173	-2.50781	0.773031	-1.73005	1.0333	-1.89079	2.91034	-0.804431	2.37296	-1.99566	2.12147	-1.17865	
0.739189	3.03497	0	0	2.27701	-1.80559	1.03839	-1.59026	3.36997	-2.74484	1.20175	-1.63843	0.727874	-1.40015	0.978614	-2.01215	0.928604	-1.06359	0.775521	-1.76771	1.04955	-1.25752	0.552797	-1.83563	0.255922	-2.51672	0.780412	-1.7213	1.04045	-1.88328	2.91873	-0.775303	2.3764	-1.98977	2.1247	-1.16929	
0.740349	3.05023	0	0	2.28428	-1.80657	1.03703	-1.59552	3.36434	-2.7489	1.20272	-1.64117	0.727642	-1.38965	0.990074	-1.99894	0.938049	-1.05702	0.78724	-1.75444	1.05131	-1.26248	0.559003	-1.83546	0.254671	-2.52563	0.787792	-1.71255	1.0476	-1.87576	2.92713	-0.746175	2.37984	-1.98388	2.12792	-1.15993	
0.742478	3.05023	0	0	2.28221	-1.82028	1.04447	-1.59833	3.36612	-2.75393	1.20566	-1.63887	0.736482	-1.38505	1.00156	-1.98569	0.943099	-1.03797	0.812905	-1.73384	1.04295	-1.26083	0.562109	-1.83537	0.254671	-2.52563	0.798881	-1.69938	1.05286	-1.87675	2.9469	-0.722465	2.37765	-1.9933	2.11781	-1.15905	
0.745816	3.05023	0	0	2.28015	-1.834	1.05191	-1.60114	3.3679	-2.75896	1.2086	-1.63658	0.745321	-1.38046	1.01304	-1.97243	0.948148	-1.01892	0.838571	-1.71325	1.03459	-1.25918	0.565214	-1.83529	0.254671	-2.52563	0.809969	-1.68621	1.05812	-1.87775	2.96667	-0.698754	2.37546	-2.00271	2.1077	-1.15818	
0.75055	3.05023	0	0	2.27808	-1.84771	1.05935	-1.60396	3.36968	-2.76398	1.21154	-1.63428	0.754161	-1.37587	1.02452	-1.95918	0.953197	-0.999871	0.864236	-1.69265	1.02623	-1.25752	0.568319	-1.8352	0.254671	-2.52563	0.821057	-1.67304	1.06338	-1.87875	2.98644	-0.675044	2.37327	-2.01213	2.09758	-1.15731	
0.756333	3.05176	0	0	2.27601	-1.86143	1.06679	-1.60677	3.37146	-2.76901	1.21448	-1.63199	0.763	-1.37128	1.03601	-1.94592	0.958247	-0.980822	0.889901	-1.67206	1.01787	-1.25587	0.571425	-1.83511	0.254671	-2.52563	0.832146	-1.65987	1.06865	-1.87975	3.00621	-0.651333	2.37108	-2.02154	2.08747	-1.15644	
0.762519	3.05023	0	0	2.27048	-1.86533	1.0816	-1.59386	3.36968	-2.76398	1.22531	-1.60948	0.773532	-1.36155	1.05327	-1.92595	0.974247	-0.959224	0.908117	-1.63932	1.01787	-1.25587	0.578008	-1.81822	0.26739	-2.52421	0.855963	-1.63785	1.07694	-1.8754	3.03083	-0.623214	2.35798	-2.01569	2.08074	-1.15586	
0.768462	3.05023	0	0	2.26495	-1.86924	1.0964	-1.58096	3.3679	-2.75896	1.23614	-1.58697	0.784064	-1.35181	1.07054	-1.90598	0.990248	-0.937626	0.926333	-1.60659	1.01787	-1.25587	0.584591	-1.80134	0.280109	-2.52279	0.87978	-1.61583	1.08522	-1.87104	3.05546	-0.595095	2.34488	-2.00984	2.074	-1.15529	
0.773512	3.05176	0	0	2.25942	-1.87315	1.11121	-1.56805	3.36612	-2.75393	1.24697	-1.56446	0.794597	-1.34207	1.08781	-1.886	1.00625	-0.916028	0.944549	-1.57386	1.01787	-1.25587	0.591175	-1.78445	0.292828	-2.52138	0.903597	-1.59381	1.09351	-1.86669	3.08009	-0.566976	2.33177	-2.00399	2.06727	-1.15471	
0.777021	3.05481	0	0	2.25389	-1.87705	1.12602	-1.55515	3.36434	-2.7489	1.25779	-1.54195	0.805129	-1.33233	1.10507	-1.86603	1.02225	-0.89443	0.962765	-1.54112	1.01787	-1.25587	0.597758	-1.76756	0.305547	-2.51996	0.927414	-1.57179	1.1018	-1.86233	3.10472	-0.538857	2.31867	-1.99814	2.06054	-1.15413	
0.778365	3.06091	0	0	2.24113	-1.87998	1.12875	-1.54458	3.36256	-2.74387	1.26271	-1.53457	0.800339	-1.3188	1.1012	-1.8321	1.02255	-0.878545	0.981078	-1.52711	1.02096	-1.24264	0.605498	-1.74497	0.315059	-2.49691	0.938086	-1.52718	1.10974	-1.84304	3.12534	-0.507828	2.31368	-1.98404	2.0595	-1.14198	
0.777504	3.06854	0	0	2.22836	-1.8829	1.13149	-1.53402	3.36078	-2.73884	1.26763	-1.52718	0.795549	-1.30526	1.09732	-1.79817	1.02286	-0.862661	0.999391	-1.5131	1.02405	-1.2294	0.613238	-1.72238	0.324571	-2.47385	0.948759	-1.48257	1.11769	-1.82374	3.14595	-0.4768	2.30869	-1.96993	2.05847	-1.12983	
0.774981	3.06702	0	0	2.21559	-1.88582	1.13422	-1.52346	3.359	-2.73381	1.27255	-1.5198	0.790759	-1.29172	1.09345	-1.76424	1.02316	-0.846776	1.0177	-1.4991	1.02714	-1.21616	0.620978	-1.69979	0.334083	-2.4508	0.959431	-1.43796	1.12563	-1.80445	3.16657	-0.445771	2.3037	-1.95583	2.05743	-1.11769	
0.771368	3.06702	0	0	2.20282	-1.88874	1.13695	-1.5129	3.35723	-2.72878	1.27747	-1.51242	0.785969	-1.27818	1.08957	-1.73031	1.02346	-0.830892	1.03602	-1.48509	1.03024	-1.20293	0.628718	-1.6772	0.343595	-2.42775	0.970103	-1.39335	1.13358	-1.78515	3.18718	-0.414742	2.29871	-1.94173	2.0564	-1.10554	
0.767236	3.06854	0	0	2.19008	-1.89166	1.14949	-1.50252	3.35544	-2.72375	1.29026	-1.50591	0.783318	-1.32006	1.09825	-1.77781	1.03382	-0.860166	1.05664	-1.52454	1.02714	-1.21616	0.647269	-1.68506	0.31439	-2.45737	0.967305	-1.46021	1.13809	-1.79791	3.09127	-0.471927	2.31743	-1.93222	2.05039	-1.09779	
0.763157	3.07312	0	0	2.17734	-1.89458	1.16202	-1.49215	3.35366	-2.71872	1.30305	-1.4994	0.780667	-1.36193	1.10693	-1.82531	1.04418	-0.889439	1.07726	-1.56399	1.02405	-1.2294	0.66582	-1.69292	0.285185	-2.487	0.964508	-1.52708	1.1426	-1.81066	2.99535	-0.529111	2.33614	-1.92271	2.04439	-1.09003	
0.759694	3.07159	0	0	2.1646	-1.89751	1.17455	-1.48177	3.35188	-2.71369	1.31583	-1.49289	0.778016	-1.4038	1.11561	-1.87282	1.05454	-0.918713	1.09789	-1.60344	1.02096	-1.24264	0.684372	-1.70078	0.25598	-2.51663	0.96171	-1.59394	1.14712	-1.82341	2.89944	-0.586296	2.35486	-1.91321	2.03838	-1.08228	
0.757112	3.07464	0	0	2.15186	-1.90043	1.18709	-1.4714	3.3501	-2.70865	1.32862	-1.48639	0.775365	-1.44568	1.12428	-1.92032	1.0649	-0.947987	1.11851	-1.64289	1.01787	-1.25587	0.702923	-1.70864	0.226775	-2.54626	0.958912	-1.66081	1.15163	-1.83617	2.80353	-0.64348	2.37357	-1.9037	2.03237	-1.07453	
0.755298	3.07312	0	0	2.15014	-1.89556	1.18465	-1.45533	3.34858	-2.6844	1.265	-1.50829	0.738407	-1.46897	1.07829	-1.97318	1.03938	-0.976106	1.06674	-1.7027	1.00118	-1.25258	0.713291	-1.71115	0.193281	-2.56309	0.94658	-1.70043	1.14219	-1.83735	2.71641	-0.702563	2.39202	-1.87755	2.03381	-1.06013	
0.754115	3.07464	0	0	2.14842	-1.89068	1.18221	-1.43926	3.34706	-2.66014	1.20138	-1.53019	0.70145	-1.49227	1.0323	-2.02604	1.01387	-1.00422	1.01497	-1.76251	0.984487	-1.24929	0.723659	-1.71365	0.159788	-2.57993	0.934249	-1.74005	1.13276	-1.83853	2.6293	-0.761645	2.41047	-1.8514	2.03524	-1.04573	
0.753425	3.07007	0	0	2.14669	-1.88581	1.17977	-1.42319	3.34553	-2.63589	1.13776	-1.5521	0.664492	-1.51556	0.986316	-2.07889	0.988351	-1.03234	0.963198	-1.82231	0.967798	-1.24601	0.734027	-1.71616	0.126295	-2.59677	0.921917	-1.77967	1.12333	-1.83971	2.54219	-0.820728	2.42892	-1.82525	2.03668	-1.03133	
0.753089	3.06549	0	0	2.14497	-1.88094	1.17733	-1.40712	3.34401	-2.61163	1.07414	-1.574	0.627535	-1.53885	0.940327	-2.13175	0.962836	-1.06046	0.911427	-1.88212	0.951109	-1.24272	0.744395	-1.71867	0.092801	-2.6136	0.909585	-1.81929	1.11389	-1.84089	2.45508	-0.879811	2.44737	-1.79911	2.03811	-1.01694	
0.752972	3.06091	0	0	2.13979	-1.8663	1.1806	-1.40719	3.34963	-2.60753	1.02569	-1.5948	0.584953	-1.53565	0.893339	-2.15747	0.950121	-1.07444	0.862288	-1.90097	0.959448	-1.24436	0.752999	-1.70721	0.0689815	-2.59563	0.901184	-1.81041	1.11579	-1.83233	2.41371	-0.892206	2.46841	-1.77994	2.03936	-0.992765	
0.75296	3.05633	0	0	2.13461	-1.85166	1.18387	-1.40726	3.35524	-2.60343	0.977248	-1.61559	0.54237	-1.53245	0.846351	-2.1832	0.937407	-1.08842	0.813149	-1.91983	0.967788	-1.246	0.761603	-1.69574	0.045162	-2.57765	0.892783	-1.80152	1.11769	-1.82378	2.37234	-0.904602	2.48945	-1.76076	2.04061	-0.968591	
0.752973	3.05786	0	0	2.12943	-1.83703	1.18714	-1.40733	3.36086	-2.59933	0.928801	-1.63639	0.499788	-1.52925	0.799363	-2.20892	0.924692	-1.1024	0.764009	-1.93868	0.976127	-1.24764	0.770208	-1.68427	0.0213425	-2.55967	0.884381	-1.79264	1.11958	-1.81522	2.33097	-0.916997	2.51048	-1.74159	2.04186	-0.944418	
0.752933	3.05023	0	0	2.12425	-1.82239	1.19041	-1.40739	3.36648	-2.59523	0.880355	-1.65718	0.457206	-1.52605	0.752375	-2.23464	0.911977	-1.11637	0.71487	-1.95753	0.984466	-1.24928	0.778812	-1.6728	-0.002477	-2.54169	0.87598	-1.78375	1.12148	-1.80667	2.2896	-0.929392	2.53152	-1.72242	2.04311	-0.920245	
0.752762	3.05023	0	0	2.12252	-1.81751	1.20119	-1.41029	3.37773	-2.58701	0.845714	-1.69489	0.425004	-1.54178	0.710452	-2.27334	0.897495	-1.14179	0.680925	-1.99967	0.982713	-1.24433	0.782133	-1.66427	-0.0150275	-2.54314	0.866417	-1.80123	1.11318	-1.81104	2.24982	-0.970973	2.565	-1.72227	2.04223	-0.91774	
0.752383	3.05023	0	0	2.1208	-1.81262	1.21197	-1.41319	3.38898	-2.57879	0.811072	-1.7326	0.392802	-1.55751	0.668528	-2.31203	0.883012	-1.1672	0.64698	-2.0418	0.980959	-1.23937	0.785454	-1.65574	-0.027578	-2.54459	0.856854	-1.81871	1.10489	-1.81542	2.21004	-1.01255	2.59849	-1.72212	2.04134	-0.915234	
0.751718	3.04413	0	0	2.11907	-1.80774	1.22275	-1.41609	3.40023	-2.57057	0.776431	-1.77031	0.360599	-1.57324	0.626605	-2.35073	0.868529	-1.19261	0.613034	-2.08394	0.979206	-1.23442	0.788774	-1.6472	-0.0401285	-2.54604	0.847291	-1.83619	1.09659	-1.81979	2.17026	-1.05414	2.63198	-1.72197	2.04046	-0.912729	
0.750781	3.03497	0	0	2.11734	-1.80285	1.23352	-1.419	3.41148	-2.56235	0.74179	-1.80802	0.328397	-1.58896	0.584681	-2.38943	0.854047	-1.21803	0.579089	-2.12608	0.977453	-1.22947	0.792095	-1.63867	-0.052679	-2.54749	0.837728	-1.85367	1.0883	-1.82416	2.13048	-1.09572	2.66546	-1.72182	2.03957	-0.910224	
0.749709	3.03345	0	0	2.12833	-1.795	1.23531	-1.40564	3.41915	-2.54395	0.72744	-1.809	0.314351	-1.58793	0.567805	-2.40869	0.844638	-1.22452	0.552716	-2.15215	0.972188	-1.21459	0.797571	-1.62724	-0.0583357	-2.54379	0.837728	-1.85367	1.09167	-1.83371	2.10775	-1.12496	2.67718	-1.70737	2.04791	-0.906032	
0.748649	3.02734	0	0	2.13933	-1.78714	1.23709	-1.39229	3.42683	-2.52555	0.71309	-1.80997	0.300305	-1.5869	0.550928	-2.42795	0.835228	-1.23101	0.526342	-2.17822	0.966923	-1.19971	0.803046	-1.6158	-0.0639925	-2.54009	0.837728	-1.85367	1.09505	-1.84325	2.08501	-1.1542	2.68891	-1.69293	2.05624	-0.90184	
0.747747	3.02276	0	0	2.15032	-1.77928	1.23888	-1.37894	3.43451	-2.50714	0.698741	-1.81095	0.286259	-1.58586	0.534052	-2.44722	0.825819	-1.2375	0.499969	-2.20429	0.961657	-1.18483	0.808522	-1.60437	-0.0696492	-2.5364	0.837728	-1.85367	1.09842	-1.85279	2.06228	-1.18344	2.70063	-1.67849	2.06458	-0.897648	
0.747151	3.01666	0	0	2.16131	-1.77143	1.24066	-1.36559	3.44218	-2.48874	0.684391	-1.81192	0.272213	-1.58483	0.517175	-2.46648	0.816409	-1.24399	0.473596	-2.23036	0.956392	-1.16995	0.813998	-1.59294	-0.075306	-2.5327	0.837728	-1.85367	1.1018	-1.86233	2.03955	-1.21269	2.71236	-1.66404	2.07291	-0.893456	
0.747004	3.00903	0	0	2.17028	-1.77729	1.24394	-1.36566	3.44218	-2.48874	0.679607	-1.81913	0.256328	-1.57852	0.485516	-2.46591	0.808806	-1.23902	0.447388	-2.22912	0.961221	-1.16164	0.823615	-1.58417	-0.0774258	-2.51442	0.847291	-1.83619	1.09617	-1.84642	2.03727	-1.21471	2.72666	-1.65676	2.0793	-0.874441	
0.747355	3.0014	0	0	2.17926	-1.78315	1.24722	-1.36572	3.44218	-2.48874	0.674823	-1.82634	0.240443	-1.57221	0.453858	-2.46535	0.801203	-1.23405	0.421181	-2.22788	0.966051	-1.15334	0.833232	-1.57541	-0.0795455	-2.49614	0.856854	-1.81871	1.09054	-1.83051	2.03498	-1.21673	2.74096	-1.64949	2.08569	-0.855425	
0.748123	2.9953	0	0	2.18823	-1.78901	1.25051	-1.36579	3.44218	-2.48874	0.670039	-1.83355	0.224558	-1.5659	0.422199	-2.46478	0.793599	-1.22908	0.394973	-2.22664	0.97088	-1.14503	0.842848	-1.56665	-0.0816652	-2.47786	0.866417	-1.80123	1.08491	-1.8146	2.0327	-1.21876	2.75526	-1.64221	2.09207	-0.83641	
0.749217	2.98614	0	0	2.1972	-1.79487	1.25379	-1.36586	3.44218	-2.48874	0.665255	-1.84076	0.208673	-1.55959	0.39054	-2.46421	0.785996	-1.22411	0.368765	-2.2254	0.975709	-1.13673	0.852465	-1.55789	-0.083785	-2.45958	0.87598	-1.78375	1.07928	-1.79869	2.03042	-1.22078	2.76956	-1.63493	2.09846	-0.817395	
0.750549	2.98157	0	0	2.21344	-1.80172	1.26035	-1.366	3.45143	-2.49478	0.667171	-1.83581	0.207737	-1.55694	0.392851	-2.47074	0.7784	-1.21915	0.360406	-2.21994	0.980541	-1.12841	0.855792	-1.5493	-0.0814633	-2.45384	0.878127	-1.77496	1.07852	-1.81042	2.04051	-1.22386	2.76956	-1.63493	2.10273	-0.820185	
0.752029	2.97394	0	0	2.22968	-1.80857	1.26692	-1.36613	3.46067	-2.50082	0.669087	-1.83086	0.2068	-1.5543	0.395161	-2.47727	0.770803	-1.21419	0.352047	-2.21448	0.985374	-1.12009	0.85912	-1.54071	-0.0791415	-2.4481	0.880274	-1.76617	1.07775	-1.82215	2.0506	-1.22694	2.76956	-1.63493	2.107	-0.822975	
0.753567	2.96936	0	0	2.24591	-1.81541	1.27349	-1.36627	3.46991	-2.50686	0.671003	-1.82592	0.205864	-1.55165	0.397472	-2.4838	0.763207	-1.20922	0.343687	-2.20901	0.990206	-1.11177	0.862447	-1.53212	-0.0768197	-2.44237	0.882421	-1.75738	1.07699	-1.83389	2.06069	-1.23001	2.76956	-1.63493	2.11127	-0.825766	
0.75505	2.96173	0	0	2.26215	-1.82226	1.28005	-1.3664	3.47915	-2.5129	0.672919	-1.82097	0.204928	-1.549	0.399783	-2.49033	0.755611	-1.20426	0.335328	-2.20355	0.995038	-1.10345	0.865774	-1.52352	-0.074498	-2.43663	0.884568	-1.74859	1.07622	-1.84562	2.07078	-1.23309	2.76956	-1.63493	2.11554	-0.828556	
0.756337	2.95868	0	0	2.26768	-1.81833	1.28609	-1.35578	3.48661	-2.51386	0.683455	-1.79885	0.214496	-1.54711	0.415595	-2.49062	0.761754	-1.20512	0.344739	-2.2029	1.00164	-1.1001	0.866942	-1.51782	-0.0677207	-2.44348	0.889847	-1.74864	1.0796	-1.85515	2.07468	-1.23564	2.77084	-1.63853	2.11981	-0.831347	
0.757282	2.95105	0	0	2.27322	-1.81441	1.29212	-1.34516	3.49406	-2.51482	0.693991	-1.77673	0.224063	-1.54522	0.431407	-2.49091	0.767898	-1.20597	0.35415	-2.20224	1.00824	-1.09675	0.868109	-1.51211	-0.0609435	-2.45033	0.895126	-1.74869	1.08297	-1.86468	2.07859	-1.2382	2.77211	-1.64214	2.12409	-0.834139	
0.757739	2.9541	0	0	2.27875	-1.81049	1.29815	-1.33454	3.50151	-2.51577	0.704527	-1.75461	0.23363	-1.54333	0.447218	-2.49119	0.774041	-1.20683	0.36356	-2.20159	1.01484	-1.0934	0.869277	-1.50641	-0.0541662	-2.45717	0.900404	-1.74873	1.08634	-1.87422	2.0825	-1.24075	2.77339	-1.64575	2.12836	-0.836931	
0.757564	2.94189	0	0	2.28428	-1.80657	1.30418	-1.32392	3.50896	-2.51673	0.715063	-1.73249	0.243198	-1.54144	0.46303	-2.49148	0.780184	-1.20769	0.372971	-2.20093	1.02144	-1.09005	0.870444	-1.5007	-0.047389	-2.46402	0.905683	-1.74878	1.08971	-1.88375	2.0864	-1.2433	2.77467	-1.64936	2.13263	-0.839722	
0.756613	2.93884	0	0	2.30231	-1.81835	1.31035	-1.33212	3.51256	-2.5269	0.731351	-1.7369	0.245765	-1.53904	0.4584	-2.47839	0.781637	-1.21179	0.367744	-2.19525	1.02805	-1.0867	0.873597	-1.5006	-0.0450622	-2.45828	0.909979	-1.73114	1.09274	-1.8784	2.10164	-1.22683	2.76606	-1.64096	2.13066	-0.824873	
0.75494	2.93274	0	0	2.32033	-1.83013	1.31651	-1.34031	3.51616	-2.53708	0.74764	-1.74131	0.248333	-1.53665	0.45377	-2.46531	0.78309	-1.2159	0.362517	-2.18956	1.03465	-1.08334	0.87675	-1.50051	-0.0427355	-2.45254	0.914274	-1.71351	1.09576	-1.87304	2.11687	-1.21036	2.75746	-1.63257	2.1287	-0.810024	
0.752917	2.93121	0	0	2.33836	-1.84191	1.32268	-1.3485	3.51976	-2.54725	0.763928	-1.74572	0.250901	-1.53425	0.44914	-2.45223	0.784543	-1.22001	0.357289	-2.18388	1.04126	-1.07999	0.879904	-1.50041	-0.0404088	-2.4468	0.91857	-1.69587	1.09878	-1.86769	2.1321	-1.19389	2.74886	-1.62418	2.12673	-0.795176	
0.750944	2.92511	0	0	2.35639	-1.85369	1.32885	-1.35669	3.52336	-2.55742	0.780216	-1.75013	0.253468	-1.53185	0.44451	-2.43914	0.785996	-1.22411	0.352062	-2.1782	1.04787	-1.07664	0.883057	-1.50031	-0.038082	-2.44107	0.922865	-1.67823	1.1018	-1.86233	2.14733	-1.17742	2.74026	-1.61578	2.12476	-0.780327	
0.749425	2.92053	0	0	2.36368	-1.85468	1.3298	-1.3594	3.52516	-2.5625	0.790784	-1.74872	0.258851	-1.53741	0.44451	-2.43914	0.7784	-1.21915	0.346836	-2.17251	1.0514	-1.08661	0.887027	-1.51153	-0.0405125	-2.45882	0.93384	-1.70925	1.09688	-1.87621	2.13439	-1.19187	2.73677	-1.62182	2.12316	-0.785099	
0.748759	2.91595	0	0	2.37098	-1.85568	1.33076	-1.36211	3.52696	-2.56758	0.801351	-1.74731	0.264234	-1.54296	0.44451	-2.43914	0.770803	-1.21419	0.341611	-2.16683	1.05493	-1.09659	0.890997	-1.52275	-0.042943	-2.47657	0.944815	-1.74027	1.09196	-1.89008	2.12145	-1.20632	2.73328	-1.62786	2.12156	-0.789871	
0.749346	2.91595	0	0	2.37827	-1.85667	1.33172	-1.36481	3.52875	-2.57266	0.811918	-1.7459	0.269616	-1.54852	0.44451	-2.43914	0.763207	-1.20922	0.336386	-2.16114	1.05846	-1.10657	0.894967	-1.53397	-0.0453735	-2.49432	0.95579	-1.77128	1.08704	-1.90395	2.1085	-1.22077	2.7298	-1.63389	2.11997	-0.794643	
0.751267	2.91138	0	0	2.38556	-1.85766	1.33268	-1.36752	3.53055	-2.57774	0.822486	-1.74449	0.274999	-1.55407	0.44451	-2.43914	0.755611	-1.20426	0.33116	-2.15546	1.06199	-1.11655	0.898937	-1.54519	-0.047804	-2.51207	0.966765	-1.8023	1.08212	-1.91783	2.09556	-1.23522	2.72631	-1.63993	2.11837	-0.799415	
0.754102	2.90985	0	0	2.39113	-1.85375	1.3416	-1.36503	3.53802	-2.57871	0.827305	-1.73722	0.282959	-1.55724	0.452428	-2.43928	0.757064	-1.20837	0.333249	-2.16136	1.06376	-1.12153	0.897765	-1.55089	-0.0433625	-2.52463	0.964602	-1.81108	1.08436	-1.92417	2.09165	-1.23266	2.7349	-1.64832	2.10983	-0.793833	
0.757386	2.9068	0	0	2.39669	-1.84984	1.35053	-1.36253	3.54548	-2.57969	0.832124	-1.72996	0.290918	-1.5604	0.460346	-2.43942	0.758516	-1.21247	0.335338	-2.16727	1.06552	-1.12652	0.896593	-1.55658	-0.038921	-2.53718	0.962438	-1.81986	1.08661	-1.93051	2.08774	-1.23011	2.74349	-1.6567	2.10128	-0.788251	
0.760652	2.90527	0	0	2.40225	-1.84592	1.35946	-1.36004	3.55294	-2.58066	0.836943	-1.7227	0.298878	-1.56356	0.468265	-2.43956	0.759969	-1.21657	0.337428	-2.17317	1.06729	-1.1315	0.89542	-1.56228	-0.0344795	-2.54973	0.960275	-1.82864	1.08885	-1.93685	2.08384	-1.22755	2.75208	-1.66509	2.09274	-0.782669	
0.763435	2.89917	0	0	2.40782	-1.84201	1.36838	-1.35754	3.56041	-2.58163	0.841762	-1.71544	0.306837	-1.56673	0.476183	-2.43969	0.761421	-1.22068	0.339517	-2.17908	1.06905	-1.13649	0.894248	-1.56798	-0.030038	-2.56228	0.958111	-1.83742	1.09109	-1.94319	2.07993	-1.225	2.76068	-1.67347	2.0842	-0.777087	
0.765269	2.90222	0	0	2.4186	-1.85283	1.36605	-1.36018	3.564	-2.59179	0.845596	-1.72627	0.301449	-1.56117	0.463628	-2.42645	0.759969	-1.21657	0.332204	-2.16749	1.06729	-1.1315	0.892266	-1.56237	-0.0275952	-2.54456	0.962436	-1.81984	1.09187	-1.9315	2.10056	-1.20674	2.7435	-1.6567	2.08898	-0.762747	
0.765909	2.89917	0	0	2.42939	-1.86365	1.36371	-1.36282	3.5676	-2.60195	0.84943	-1.73711	0.296061	-1.55561	0.451073	-2.41321	0.758516	-1.21247	0.324891	-2.1559	1.06552	-1.12652	0.890283	-1.55677	-0.0251525	-2.52685	0.966762	-1.80227	1.09265	-1.91982	2.12119	-1.18849	2.72632	-1.63994	2.09376	-0.748408	
0.765594	2.89459	0	0	2.44017	-1.87448	1.36137	-1.36545	3.57119	-2.61211	0.853263	-1.74794	0.290674	-1.55005	0.438518	-2.39997	0.757064	-1.20837	0.317578	-2.14431	1.06376	-1.12153	0.888301	-1.55117	-0.0227098	-2.50913	0.971087	-1.78469	1.09343	-1.90814	2.14182	-1.17023	2.70914	-1.62317	2.09854	-0.734069	
0.76463	2.89001	0	0	2.45096	-1.8853	1.35903	-1.36809	3.57479	-2.62227	0.857097	-1.75878	0.285286	-1.54449	0.425963	-2.38672	0.755611	-1.20426	0.310265	-2.13272	1.06199	-1.11655	0.886318	-1.54557	-0.020267	-2.49141	0.975412	-1.76711	1.09421	-1.89645	2.16245	-1.15197	2.69196	-1.6064	2.10332	-0.719729	
0.763322	2.89154	0	0	2.45828	-1.88631	1.3652	-1.37629	3.58765	-2.63847	0.860926	-1.7696	0.284589	-1.55219	0.422692	-2.39969	0.755611	-1.20426	0.31131	-2.13567	1.06199	-1.11655	0.886318	-1.54557	-0.0191545	-2.49456	0.97325	-1.77591	1.09231	-1.90497	2.16651	-1.16346	2.69323	-1.61001	2.09567	-0.716671	
0.761978	2.88696	0	0	2.46559	-1.88731	1.37137	-1.38448	3.60052	-2.65468	0.864755	-1.78042	0.283892	-1.55988	0.419421	-2.41266	0.755611	-1.20426	0.312356	-2.13863	1.06199	-1.11655	0.886318	-1.54557	-0.018042	-2.4977	0.971089	-1.78471	1.09041	-1.91348	2.17058	-1.17495	2.69451	-1.61361	2.08801	-0.713613	
0.760902	2.88238	0	0	2.47291	-1.88832	1.37754	-1.39268	3.61338	-2.67089	0.868584	-1.79124	0.283196	-1.56757	0.41615	-2.42563	0.755611	-1.20426	0.313401	-2.14158	1.06199	-1.11655	0.886318	-1.54557	-0.0169295	-2.50085	0.968927	-1.7935	1.08851	-1.92199	2.17464	-1.18643	2.69579	-1.61722	2.08036	-0.710555	
0.760304	2.87628	0	0	2.48023	-1.88933	1.38372	-1.40087	3.62624	-2.6871	0.872413	-1.80207	0.282499	-1.57527	0.412879	-2.4386	0.755611	-1.20426	0.314446	-2.14453	1.06199	-1.11655	0.886318	-1.54557	-0.015817	-2.50399	0.966765	-1.8023	1.08661	-1.93051	2.17871	-1.19792	2.69706	-1.62082	2.07271	-0.707497	
0.760112	2.87933	0	0	2.48408	-1.8805	1.38222	-1.3874	3.63014	-2.67793	0.87533	-1.7894	0.286707	-1.56783	0.426386	-2.43232	0.758846	-1.1969	0.314442	-2.13544	1.05846	-1.10657	0.886496	-1.53706	-0.011151	-2.49252	0.967359	-1.78907	1.08549	-1.92734	2.18412	-1.19616	2.70054	-1.61478	2.0743	-0.702707	
0.760206	2.87475	0	0	2.48793	-1.87168	1.38073	-1.37393	3.63403	-2.66877	0.878248	-1.77675	0.290915	-1.56039	0.439893	-2.42604	0.76208	-1.18953	0.314438	-2.12635	1.05493	-1.09659	0.886674	-1.52855	-0.006485	-2.48106	0.967953	-1.77584	1.08436	-1.92417	2.18953	-1.1944	2.70403	-1.60874	2.07589	-0.697916	
0.760467	2.86865	0	0	2.49178	-1.86285	1.37924	-1.36046	3.63793	-2.65961	0.881165	-1.76409	0.295123	-1.55295	0.453399	-2.41976	0.765315	-1.18217	0.314434	-2.11726	1.0514	-1.08661	0.886851	-1.52005	-0.001819	-2.46959	0.968547	-1.76262	1.08324	-1.921	2.19494	-1.19264	2.70751	-1.6027	2.07748	-0.693126	
0.760772	2.87018	0	0	2.49562	-1.85403	1.37774	-1.34699	3.64182	-2.65045	0.884082	-1.75143	0.299331	-1.54551	0.466906	-2.41348	0.76855	-1.17481	0.31443	-2.10817	1.04787	-1.07664	0.887029	-1.51154	0.002847	-2.45812	0.969141	-1.74939	1.08212	-1.91783	2.20036	-1.19088	2.71099	-1.59666	2.07906	-0.688335	
0.761004	2.86407	0	0	2.50122	-1.85011	1.3787	-1.3497	3.65111	-2.65652	0.882145	-1.75641	0.297696	-1.55056	0.469225	-2.42003	0.767095	-1.1707	0.31443	-2.10817	1.04257	-1.06165	0.889365	-1.50011	0.001924	-2.43083	0.971882	-1.72729	1.08065	-1.89977	2.21038	-1.18505	2.7132	-1.58699	2.08294	-0.671398	
0.761064	2.86255	0	0	2.50681	-1.8462	1.37966	-1.35241	3.66041	-2.66259	0.880208	-1.76139	0.29606	-1.55561	0.471545	-2.42659	0.76564	-1.16658	0.31443	-2.10817	1.03726	-1.04666	0.891701	-1.48868	0.001001	-2.40353	0.974623	-1.70518	1.07917	-1.88172	2.22041	-1.17923	2.71541	-1.57733	2.08681	-0.65446	
0.760949	2.85797	0	0	2.5124	-1.84228	1.38062	-1.35512	3.6697	-2.66867	0.878271	-1.76637	0.294425	-1.56065	0.473864	-2.43314	0.764184	-1.16247	0.31443	-2.10817	1.03196	-1.03167	0.894038	-1.47726	7.8E-05	-2.37624	0.977364	-1.68308	1.0777	-1.86367	2.23043	-1.1734	2.71761	-1.56767	2.09068	-0.637522	
0.760672	2.85492	0	0	2.51799	-1.83837	1.38158	-1.35783	3.67899	-2.67474	0.876334	-1.77135	0.292789	-1.5657	0.476183	-2.43969	0.762729	-1.15836	0.31443	-2.10817	1.02666	-1.01668	0.896374	-1.46583	-0.000845	-2.34895	0.980105	-1.66098	1.07622	-1.84562	2.24046	-1.16758	2.71982	-1.558	2.09455	-0.620585	
0.760251	2.85492	0	0	2.52359	-1.83444	1.38392	-1.35519	3.69401	-2.67674	0.880188	-1.77178	0.292789	-1.5657	0.476183	-2.43969	0.765962	-1.15098	0.312337	-2.10226	1.03989	-1.00993	0.901867	-1.45427	0.004932	-2.34055	0.982258	-1.65212	1.07735	-1.8488	2.24127	-1.16988	2.72586	-1.55917	2.09455	-0.620585	
0.7597	2.85034	0	0	2.52919	-1.83052	1.38626	-1.35255	3.70903	-2.67873	0.884041	-1.77222	0.292789	-1.5657	0.476183	-2.43969	0.769196	-1.14359	0.310243	-2.09634	1.05311	-1.00318	0.90736	-1.44272	0.010709	-2.33216	0.984411	-1.64326	1.07847	-1.85198	2.24209	-1.17218	2.73191	-1.56034	2.09455	-0.620585	
0.759035	2.84729	0	0	2.53479	-1.8266	1.3886	-1.34991	3.72405	-2.68073	0.887895	-1.77266	0.292789	-1.5657	0.476183	-2.43969	0.772429	-1.13621	0.308149	-2.09043	1.06634	-0.996431	0.912853	-1.43116	0.016486	-2.32377	0.986563	-1.6344	1.0796	-1.85516	2.2429	-1.17448	2.73795	-1.56152	2.09455	-0.620585	
0.758289	2.84576	0	0	2.54039	-1.82268	1.39094	-1.34728	3.73907	-2.68273	0.891749	-1.7731	0.292789	-1.5657	0.476183	-2.43969	0.775663	-1.12883	0.306056	-2.08451	1.07957	-0.989681	0.918346	-1.41961	0.022263	-2.31538	0.988716	-1.62555	1.08072	-1.85833	2.24372	-1.17679	2.744	-1.56269	2.09455	-0.620585	
0.757578	2.84271	0	0	2.54249	-1.80888	1.39178	-1.33112	3.73938	-2.66336	0.890824	-1.74955	0.297695	-1.55054	0.485078	-2.42027	0.778897	-1.12144	0.315453	-2.07471	1.08087	-0.971237	0.921843	-1.40237	0.0292517	-2.29799	0.996747	-1.60334	1.08487	-1.85615	2.26301	-1.16281	2.73667	-1.5579	2.09883	-0.623382	
0.757041	2.83966	0	0	2.5446	-1.79508	1.39262	-1.31497	3.73969	-2.64398	0.889898	-1.72601	0.302601	-1.53539	0.493973	-2.40085	0.782131	-1.11404	0.32485	-2.0649	1.08216	-0.952792	0.925339	-1.38514	0.0362405	-2.2806	1.00478	-1.58114	1.08901	-1.85397	2.28231	-1.14882	2.72935	-1.55312	2.10311	-0.626179	
0.756817	2.84271	0	0	2.54671	-1.78127	1.39346	-1.29882	3.74	-2.62461	0.888973	-1.70247	0.307506	-1.52023	0.502867	-2.38143	0.785365	-1.10665	0.334247	-2.0551	1.08346	-0.934347	0.928836	-1.3679	0.0432292	-2.26321	1.01281	-1.55894	1.09316	-1.85179	2.3016	-1.13484	2.72203	-1.54833	2.10739	-0.628977	
0.757045	2.84119	0	0	2.54882	-1.76747	1.3943	-1.28267	3.74032	-2.60524	0.888048	-1.67892	0.312412	-1.50508	0.511762	-2.36201	0.788599	-1.09926	0.343644	-2.0453	1.08476	-0.915903	0.932333	-1.35067	0.050218	-2.24582	1.02084	-1.53674	1.0973	-1.84961	2.32089	-1.12086	2.7147	-1.54354	2.11167	-0.631774	
0.757865	2.83661	0	0	2.54882	-1.76747	1.39334	-1.27995	3.74032	-2.60524	0.898668	-1.6775	0.321328	-1.5109	0.515046	-2.34897	0.791834	-1.09185	0.355149	-2.03226	1.09624	-0.90406	0.935822	-1.33337	0.0549515	-2.22199	1.02569	-1.50544	1.09694	-1.83469	2.34244	-1.09576	2.70866	-1.54238	2.11734	-0.619866	
0.759367	2.84119	0	0	2.54882	-1.76747	1.39238	-1.27723	3.74032	-2.60524	0.909289	-1.67608	0.330244	-1.51673	0.518331	-2.33594	0.795069	-1.08444	0.366654	-2.01923	1.10772	-0.892217	0.939311	-1.31607	0.059685	-2.19815	1.03054	-1.47415	1.09658	-1.81977	2.36398	-1.07065	2.70263	-1.54121	2.12301	-0.607957	
0.761369	2.83813	0	0	2.54882	-1.76747	1.39141	-1.27451	3.74032	-2.60524	0.919909	-1.67466	0.339159	-1.52256	0.521615	-2.3229	0.798304	-1.07704	0.37816	-2.00619	1.1192	-0.880375	0.942801	-1.29878	0.0644185	-2.17431	1.03539	-1.44285	1.09622	-1.80485	2.38552	-1.04555	2.69659	-1.54004	2.12868	-0.596049	
0.763593	2.83661	0	0	2.54882	-1.76747	1.39045	-1.27179	3.74032	-2.60524	0.93053	-1.67324	0.348075	-1.52838	0.524899	-2.30986	0.801539	-1.06963	0.389665	-1.99316	1.13069	-0.868532	0.94629	-1.28148	0.069152	-2.15048	1.04025	-1.41155	1.09586	-1.78993	2.40707	-1.02044	2.69055	-1.53888	2.13435	-0.584141	
0.76576	2.83661	0	0	2.54882	-1.76747	1.38756	-1.26363	3.73851	-2.60014	0.93248	-1.65776	0.355119	-1.5289	0.546449	-2.30364	0.813868	-1.07133	0.400137	-1.97709	1.13733	-0.865119	0.95062	-1.27559	0.085185	-2.1585	1.04079	-1.39807	1.09397	-1.79849	2.42665	-1.01535	2.68835	-1.54855	2.13276	-0.588961	
0.767593	2.83661	0	0	2.54882	-1.76747	1.38468	-1.25547	3.73671	-2.59503	0.934429	-1.64229	0.362163	-1.52941	0.567998	-2.29743	0.826197	-1.07303	0.410609	-1.96103	1.14397	-0.861706	0.954951	-1.2697	0.101218	-2.16652	1.04134	-1.3846	1.09208	-1.80705	2.44623	-1.01026	2.68615	-1.55821	2.13117	-0.593781	
0.768815	2.83356	0	0	2.54882	-1.76747	1.38179	-1.24731	3.7349	-2.58993	0.936379	-1.62681	0.369207	-1.52993	0.589548	-2.29121	0.838525	-1.07474	0.421082	-1.94496	1.15062	-0.858293	0.959282	-1.26381	0.117251	-2.17455	1.04189	-1.37112	1.09019	-1.8156	2.46581	-1.00518	2.68395	-1.56788	2.12958	-0.5986	
0.769181	2.8305	0	0	2.54882	-1.76747	1.3789	-1.23915	3.7331	-2.58483	0.938328	-1.61133	0.376251	-1.53045	0.611097	-2.28499	0.850854	-1.07644	0.431554	-1.92889	1.15726	-0.85488	0.963612	-1.25792	0.133284	-2.18257	1.04244	-1.35764	1.0883	-1.82416	2.4854	-1.00009	2.68175	-1.57755	2.12799	-0.60342	
0.768769	2.82898	0	0	2.54532	-1.75758	1.38165	-1.22838	3.73881	-2.58072	0.947047	-1.59393	0.383064	-1.52057	0.615338	-2.2521	0.855564	-1.07315	0.44522	-1.92174	1.16391	-0.851463	0.962608	-1.25509	0.137883	-2.18312	1.04991	-1.34866	1.09055	-1.83053	2.49707	-0.989781	2.68558	-1.58837	2.12799	-0.60342	
0.767825	2.8244	0	0	2.54182	-1.74769	1.3844	-1.21761	3.74453	-2.5766	0.955766	-1.57653	0.389877	-1.5107	0.619579	-2.2192	0.860274	-1.06987	0.458886	-1.91459	1.17056	-0.848047	0.961604	-1.25225	0.142482	-2.18367	1.05738	-1.33968	1.0928	-1.83689	2.50873	-0.979475	2.6894	-1.59919	2.12799	-0.60342	
0.766598	2.81982	0	0	2.53832	-1.7378	1.38715	-1.20684	3.75025	-2.57249	0.964486	-1.55913	0.39669	-1.50083	0.62382	-2.1863	0.864983	-1.06659	0.472552	-1.90744	1.17721	-0.844631	0.9606	-1.24941	0.14708	-2.18422	1.06484	-1.33069	1.09505	-1.84325	2.5204	-0.969169	2.69323	-1.61	2.12799	-0.60342	
0.765336	2.82135	0	0	2.53482	-1.72791	1.3899	-1.19606	3.75597	-2.56838	0.973205	-1.54173	0.403503	-1.49096	0.628061	-2.15341	0.869693	-1.0633	0.486218	-1.90028	1.18386	-0.841214	0.959596	-1.24657	0.151679	-2.18477	1.07231	-1.32171	1.0973	-1.84961	2.53207	-0.958863	2.69706	-1.62082	2.12799	-0.60342	
0.764288	2.81525	0	0	2.53832	-1.7378	1.38426	-1.19867	3.75959	-2.57859	0.969331	-1.5413	0.400215	-1.50109	0.63276	-2.16669	0.869369	-1.07898	0.480973	-1.91294	1.17543	-0.839584	0.951099	-1.24974	0.14587	-2.19324	1.05846	-1.31266	1.0928	-1.83688	2.53344	-0.945376	2.68848	-1.61244	2.12688	-0.590973	
0.763686	2.81372	0	0	2.54182	-1.74769	1.37862	-1.20127	3.7632	-2.5888	0.965457	-1.54087	0.396927	-1.51122	0.637458	-2.17997	0.869045	-1.09466	0.475728	-1.92559	1.16699	-0.837953	0.942601	-1.25291	0.140061	-2.20171	1.04462	-1.30361	1.08829	-1.82415	2.5348	-0.931889	2.6799	-1.60407	2.12577	-0.578526	
0.76355	2.80914	0	0	2.54532	-1.75758	1.37298	-1.20387	3.76681	-2.59901	0.961584	-1.54044	0.39364	-1.52135	0.642157	-2.19325	0.868721	-1.11034	0.470483	-1.93825	1.15855	-0.836322	0.934103	-1.25608	0.134252	-2.21017	1.03077	-1.29456	1.08379	-1.81142	2.53617	-0.918401	2.67132	-1.59569	2.12466	-0.566078	
0.763743	2.80914	0	0	2.54882	-1.76747	1.36734	-1.20647	3.77043	-2.60922	0.95771	-1.54001	0.390352	-1.53148	0.646856	-2.20653	0.868397	-1.12602	0.465238	-1.9509	1.15011	-0.834692	0.925606	-1.25925	0.128443	-2.21864	1.01692	-1.28551	1.07928	-1.79869	2.53753	-0.904914	2.66274	-1.58731	2.12355	-0.553631	
0.764126	2.80914	0	0	2.55617	-1.76847	1.36734	-1.20647	3.77796	-2.61022	0.961584	-1.54044	0.389648	-1.53919	0.638868	-2.20641	0.858982	-1.13255	0.459994	-1.96352	1.15547	-0.849824	0.923287	-1.2708	0.126015	-2.23663	1.01106	-1.29901	1.07852	-1.81042	2.53203	-0.906717	2.65672	-1.58615	2.12196	-0.558457	
0.764559	2.80762	0	0	2.56353	-1.76948	1.36734	-1.20647	3.7855	-2.61123	0.965457	-1.54087	0.388943	-1.54691	0.630881	-2.20629	0.849567	-1.13908	0.45475	-1.97614	1.16082	-0.864957	0.920967	-1.28234	0.123587	-2.25461	1.00521	-1.31251	1.07775	-1.82215	2.52653	-0.908519	2.65069	-1.58498	2.12038	-0.563284	
0.764905	2.80456	0	0	2.57089	-1.77049	1.36734	-1.20647	3.79304	-2.61223	0.969331	-1.5413	0.388239	-1.55462	0.622893	-2.20617	0.840152	-1.14561	0.449506	-1.98876	1.16618	-0.880089	0.918648	-1.29389	0.121158	-2.2726	0.999359	-1.32602	1.07699	-1.83389	2.52103	-0.910322	2.64467	-1.58382	2.11879	-0.56811	
0.765027	2.80609	0	0	2.57824	-1.77149	1.36734	-1.20647	3.80057	-2.61323	0.973205	-1.54173	0.387535	-1.56234	0.614906	-2.20605	0.830737	-1.15215	0.444262	-2.00137	1.17153	-0.895221	0.916328	-1.30543	0.11873	-2.29059	0.993506	-1.33952	1.07622	-1.84562	2.51553	-0.912124	2.63865	-1.58265	2.1172	-0.572936	
0.764908	2.80151	0	0	2.57474	-1.7616	1.36541	-1.20102	3.80812	-2.61423	0.972236	-1.52846	0.387298	-1.55196	0.628542	-2.19965	0.832195	-1.15627	0.44111	-2.0016	1.16489	-0.898623	0.913006	-1.31413	0.123225	-2.30329	0.989785	-1.344	1.07735	-1.8488	2.52021	-0.907981	2.63865	-1.58265	2.1163	-0.570394	
0.764641	2.79999	0	0	2.57124	-1.7517	1.36348	-1.19557	3.81567	-2.61523	0.971266	-1.51519	0.387061	-1.54159	0.642177	-2.19325	0.833652	-1.16039	0.437959	-2.00183	1.15824	-0.902025	0.909684	-1.32282	0.12772	-2.316	0.986064	-1.34849	1.07847	-1.85198	2.52488	-0.903838	2.63865	-1.58265	2.1154	-0.567852	
0.764326	2.79693	0	0	2.56774	-1.74181	1.36155	-1.19012	3.82321	-2.61624	0.970297	-1.50193	0.386824	-1.53122	0.655813	-2.18685	0.83511	-1.16451	0.434807	-2.00206	1.15159	-0.905426	0.906362	-1.33152	0.132215	-2.3287	0.982343	-1.35297	1.0796	-1.85516	2.52955	-0.899694	2.63865	-1.58265	2.1145	-0.56531	
0.764063	2.79236	0	0	2.56424	-1.73191	1.35962	-1.18467	3.83076	-2.61724	0.969327	-1.48866	0.386587	-1.52084	0.669449	-2.18045	0.836568	-1.16863	0.431655	-2.00229	1.14495	-0.908828	0.90304	-1.34021	0.13671	-2.3414	0.978622	-1.35746	1.08072	-1.85833	2.53422	-0.895551	2.63865	-1.58265	2.1136	-0.562768	
0.763952	2.79388	0	0	2.56424	-1.73191	1.35303	-1.18455	3.82502	-2.62134	0.967391	-1.49372	0.389643	-1.53918	0.668493	-2.20023	0.836231	-1.18422	0.431666	-2.02058	1.14186	-0.922277	0.897559	-1.35181	0.123971	-2.355	0.962176	-1.37087	1.07847	-1.85198	2.51262	-0.877838	2.63008	-1.57428	2.10143	-0.546995	
0.764089	2.79083	0	0	2.56424	-1.73191	1.34643	-1.18443	3.81928	-2.62544	0.965455	-1.49877	0.392698	-1.55752	0.667536	-2.22001	0.835894	-1.19982	0.431677	-2.03887	1.13878	-0.935727	0.892077	-1.36341	0.111231	-2.3686	0.94573	-1.38428	1.07622	-1.84562	2.49102	-0.860126	2.62151	-1.56591	2.08927	-0.531222	
0.76449	2.78473	0	0	2.56424	-1.73191	1.33983	-1.18431	3.81354	-2.62954	0.963518	-1.50382	0.395754	-1.57586	0.66658	-2.23979	0.835557	-1.21542	0.431688	-2.05717	1.1357	-0.949176	0.886596	-1.37501	0.0984923	-2.3822	0.929284	-1.39769	1.07397	-1.83926	2.46942	-0.842414	2.61294	-1.55754	2.0771	-0.515449	
0.765062	2.78473	0	0	2.56424	-1.73191	1.33323	-1.18419	3.8078	-2.63365	0.961582	-1.50888	0.398809	-1.5942	0.665624	-2.25957	0.83522	-1.23101	0.431699	-2.07546	1.13262	-0.962626	0.881115	-1.38661	0.085753	-2.3958	0.912838	-1.41111	1.07172	-1.8329	2.44783	-0.824701	2.60437	-1.54917	2.06493	-0.499676	
0.765703	2.78625	0	0	2.57335	-1.73787	1.33613	-1.19235	3.81141	-2.64385	0.965458	-1.5093	0.3981	-1.60189	0.655289	-2.25282	0.836674	-1.23512	0.431699	-2.07546	1.13794	-0.977682	0.87879	-1.39808	0.0856472	-2.40788	0.907007	-1.4245	1.06457	-1.84044	2.447	-0.822358	2.60091	-1.55522	2.06087	-0.506799	
0.766313	2.78473	0	0	2.58247	-1.74382	1.33902	-1.20052	3.81502	-2.65405	0.969333	-1.50973	0.39739	-1.60958	0.644955	-2.24606	0.838127	-1.23923	0.431699	-2.07546	1.14327	-0.992737	0.876464	-1.40955	0.0855415	-2.41996	0.901176	-1.43789	1.05741	-1.84798	2.44617	-0.820016	2.59745	-1.56127	2.05681	-0.513923	
0.766791	2.78168	0	0	2.59158	-1.74978	1.34191	-1.20869	3.81863	-2.66425	0.973208	-1.51016	0.39668	-1.61728	0.634621	-2.23931	0.839581	-1.24334	0.431699	-2.07546	1.1486	-1.00779	0.874139	-1.42102	0.0854358	-2.43204	0.895345	-1.45128	1.05026	-1.85552	2.44534	-0.817674	2.59399	-1.56732	2.05275	-0.521046	
0.767035	2.77862	0	0	2.60069	-1.75573	1.3448	-1.21686	3.82224	-2.67445	0.977084	-1.51058	0.395971	-1.62497	0.624286	-2.23256	0.841035	-1.24745	0.431699	-2.07546	1.15393	-1.02285	0.871814	-1.43249	0.08533	-2.44413	0.889514	-1.46468	1.0431	-1.86306	2.44451	-0.815331	2.59053	-1.57337	2.04869	-0.528169	
0.76701	2.7771	0	0	2.58807	-1.73987	1.3448	-1.21686	3.8147	-2.67344	0.973204	-1.49962	0.394802	-1.61197	0.633225	-2.21288	0.839581	-1.24334	0.436947	-2.06289	1.1557	-1.02786	0.866504	-1.4355	0.0887923	-2.44153	0.896386	-1.46917	1.04949	-1.86723	2.45465	-0.809338	2.57852	-1.57106	2.04959	-0.53071	
0.766797	2.77862	0	0	2.57545	-1.72401	1.3448	-1.21686	3.80716	-2.67243	0.969324	-1.48866	0.393633	-1.59896	0.642163	-2.19321	0.838127	-1.23923	0.442194	-2.05032	1.15747	-1.03287	0.861193	-1.43851	0.0922545	-2.43893	0.903257	-1.47366	1.05588	-1.8714	2.46479	-0.803345	2.56651	-1.56875	2.05049	-0.533251	
0.766494	2.77252	0	0	2.56284	-1.70815	1.3448	-1.21686	3.79962	-2.67142	0.965445	-1.47769	0.392464	-1.58596	0.651102	-2.17354	0.836674	-1.23512	0.447441	-2.03776	1.15925	-1.03789	0.855883	-1.44153	0.0957168	-2.43634	0.910129	-1.47815	1.06226	-1.87558	2.47493	-0.797351	2.55451	-1.56644	2.05139	-0.535792	
0.766199	2.77099	0	0	2.55022	-1.69229	1.3448	-1.21686	3.79208	-2.67041	0.961565	-1.46673	0.391295	-1.57296	0.660041	-2.15386	0.83522	-1.23101	0.452689	-2.02519	1.16102	-1.0429	0.850573	-1.44454	0.099179	-2.43375	0.917	-1.48264	1.06865	-1.87975	2.48507	-0.791358	2.5425	-1.56412	2.05228	-0.538333	
0.766007	2.76642	0	0	2.56108	-1.7032	1.34535	-1.22768	3.79748	-2.68568	0.966414	-1.48043	0.391526	-1.58331	0.654396	-2.16039	0.836674	-1.23512	0.453742	-2.02816	1.15615	-1.05127	0.850231	-1.46158	0.100183	-2.44896	0.905877	-1.49596	1.06226	-1.87558	2.48408	-0.779873	2.53778	-1.56657	2.03699	-0.532244	
0.766016	2.76642	0	0	2.57195	-1.71411	1.3459	-1.23849	3.80288	-2.70095	0.971263	-1.49413	0.391757	-1.59366	0.648751	-2.16692	0.838127	-1.23923	0.454794	-2.03114	1.15128	-1.05963	0.849889	-1.47862	0.101187	-2.46418	0.894753	-1.50927	1.05588	-1.8714	2.48308	-0.768388	2.53305	-1.56901	2.02169	-0.526154	
0.766274	2.76337	0	0	2.58282	-1.72502	1.34645	-1.24931	3.80829	-2.71622	0.976112	-1.50784	0.391988	-1.60401	0.643107	-2.17345	0.839581	-1.24334	0.455847	-2.03411	1.14641	-1.068	0.849547	-1.49566	0.102191	-2.4794	0.88363	-1.52259	1.04949	-1.86723	2.48209	-0.756903	2.52833	-1.57146	2.0064	-0.520065	
0.7667	2.75879	0	0	2.59369	-1.73593	1.34701	-1.26013	3.81369	-2.73149	0.980961	-1.52154	0.392219	-1.61436	0.637462	-2.17998	0.841035	-1.24745	0.4569	-2.03709	1.14153	-1.07636	0.849205	-1.5127	0.103195	-2.49462	0.872507	-1.53591	1.0431	-1.86306	2.48109	-0.745418	2.52361	-1.5739	1.9911	-0.513976	
0.76719	2.76184	0	0	2.59193	-1.73097	1.34659	-1.26821	3.81729	-2.74166	0.980961	-1.52154	0.390571	-1.6194	0.63981	-2.18662	0.841035	-1.24745	0.4569	-2.03709	1.1349	-1.07972	0.846872	-1.52409	0.108769	-2.51037	0.871953	-1.54924	1.04009	-1.86841	2.48742	-0.745936	2.51418	-1.57879	1.98459	-0.523371	
0.76764	2.76031	0	0	2.59018	-1.72602	1.34618	-1.27629	3.82088	-2.75182	0.980961	-1.52154	0.388923	-1.62444	0.642159	-2.19325	0.841035	-1.24745	0.4569	-2.03709	1.12826	-1.08307	0.844538	-1.53548	0.114343	-2.52612	0.871398	-1.56257	1.03708	-1.87376	2.49374	-0.746453	2.50474	-1.58367	1.97807	-0.532766	
0.767945	2.75574	0	0	2.58843	-1.72106	1.34577	-1.28437	3.82448	-2.76199	0.980961	-1.52154	0.387275	-1.62947	0.644508	-2.19989	0.841035	-1.24745	0.4569	-2.03709	1.12162	-1.08642	0.842205	-1.54688	0.119918	-2.54188	0.870844	-1.5759	1.03407	-1.87911	2.50007	-0.74697	2.49531	-1.58855	1.97156	-0.54216	
0.768002	2.75268	0	0	2.58667	-1.71611	1.34535	-1.29246	3.82808	-2.77215	0.980961	-1.52154	0.385627	-1.63451	0.646856	-2.20653	0.841035	-1.24745	0.4569	-2.03709	1.11499	-1.08977	0.839872	-1.55827	0.125492	-2.55763	0.87029	-1.58923	1.03106	-1.88446	2.50639	-0.747488	2.48588	-1.59344	1.96504	-0.551555	
0.76774	2.75421	0	0	2.58843	-1.72106	1.33685	-1.2869	3.82054	-2.77113	0.98193	-1.52428	0.386336	-1.62682	0.650152	-2.19336	0.839581	-1.24334	0.457948	-2.03091	1.12516	-1.09642	0.832591	-1.55566	0.133548	-2.55563	0.872421	-1.58035	1.03744	-1.88863	2.51506	-0.745915	2.4944	-1.60177	1.96683	-0.556622	
0.767235	2.75421	0	0	2.59018	-1.72602	1.32834	-1.28134	3.81301	-2.77011	0.982899	-1.52702	0.387046	-1.61913	0.653448	-2.1802	0.838127	-1.23923	0.458996	-2.02473	1.13534	-1.10307	0.825311	-1.55306	0.141604	-2.55363	0.874551	-1.57148	1.04382	-1.8928	2.52373	-0.744341	2.50293	-1.6101	1.96863	-0.561689	
0.766598	2.75421	0	0	2.59193	-1.73097	1.31983	-1.27578	3.80547	-2.76909	0.983867	-1.52975	0.387756	-1.61144	0.656745	-2.16703	0.836674	-1.23512	0.460044	-2.01855	1.14551	-1.10972	0.81803	-1.55045	0.149661	-2.55163	0.876682	-1.56261	1.0502	-1.89697	2.5324	-0.742768	2.51145	-1.61842	1.97042	-0.566756	
0.765943	2.75574	0	0	2.59369	-1.73593	1.31132	-1.27022	3.79793	-2.76808	0.984836	-1.53249	0.388465	-1.60376	0.660041	-2.15386	0.83522	-1.23101	0.461092	-2.01237	1.15569	-1.11637	0.810749	-1.54784	0.157717	-2.54963	0.878813	-1.55373	1.05658	-1.90114	2.54106	-0.741195	2.51998	-1.62675	1.97221	-0.571823	
0.765382	2.75879	0	0	2.59544	-1.74088	1.31091	-1.27829	3.80332	-2.78329	0.982896	-1.53754	0.388693	-1.61409	0.664743	-2.16715	0.836674	-1.23512	0.466355	-2.0181	1.14905	-1.11971	0.809585	-1.55353	0.155359	-2.55535	0.871406	-1.56258	1.04607	-1.89914	2.5419	-0.743549	2.51055	-1.63162	1.95876	-0.570818	
0.765026	2.76184	0	0	2.59719	-1.74583	1.3105	-1.28636	3.8087	-2.79851	0.980957	-1.54258	0.388921	-1.62443	0.669445	-2.18044	0.838127	-1.23923	0.471618	-2.02383	1.14241	-1.12305	0.80842	-1.55922	0.153	-2.56108	0.863999	-1.57142	1.03555	-1.89715	2.54273	-0.745903	2.50112	-1.63648	1.94531	-0.569813	
0.764963	2.76794	0	0	2.59894	-1.75078	1.31008	-1.29444	3.81409	-2.81373	0.979017	-1.54762	0.389148	-1.63477	0.674148	-2.19373	0.839581	-1.24334	0.47688	-2.02955	1.13577	-1.12639	0.807256	-1.5649	0.150641	-2.5668	0.856591	-1.58026	1.02504	-1.89515	2.54356	-0.748257	2.49169	-1.64134	1.93186	-0.568807	
0.765115	2.77099	0	0	2.60069	-1.75573	1.30967	-1.30251	3.81947	-2.82895	0.977077	-1.55267	0.389376	-1.6451	0.67885	-2.20702	0.841035	-1.24745	0.482143	-2.03528	1.12913	-1.12973	0.806091	-1.57059	0.148283	-2.57252	0.849184	-1.58911	1.01453	-1.89316	2.5444	-0.750611	2.48226	-1.6462	1.91841	-0.567802	
0.765347	2.77252	0	0	2.6042	-1.76563	1.31392	-1.30529	3.82881	-2.83505	0.984833	-1.55353	0.390313	-1.64775	0.668503	-2.20026	0.839581	-1.24334	0.482143	-2.03528	1.13753	-1.13138	0.803937	-1.57348	0.149397	-2.57567	0.849184	-1.58911	1.01789	-1.90266	2.55141	-0.744327	2.48135	-1.65937	1.91616	-0.579937	
0.765522	2.77405	0	0	2.6077	-1.77552	1.31818	-1.30807	3.83814	-2.84114	0.992588	-1.55439	0.39125	-1.6504	0.658156	-2.1935	0.838127	-1.23923	0.482143	-2.03528	1.14594	-1.13304	0.801784	-1.57636	0.15051	-2.57882	0.849184	-1.58911	1.02125	-1.91216	2.55842	-0.738044	2.48043	-1.67253	1.91392	-0.592072	
0.765505	2.77252	0	0	2.6112	-1.78542	1.32243	-1.31084	3.84747	-2.84724	1.00034	-1.55525	0.392187	-1.65305	0.647809	-2.18674	0.836674	-1.23512	0.482143	-2.03528	1.15435	-1.13469	0.799631	-1.57925	0.151624	-2.58196	0.849184	-1.58911	1.02461	-1.92166	2.56544	-0.73176	2.47952	-1.68569	1.91167	-0.604207	
0.765158	2.77405	0	0	2.6147	-1.79531	1.32668	-1.31362	3.85681	-2.85334	1.0081	-1.55611	0.393124	-1.6557	0.637462	-2.17998	0.83522	-1.23101	0.482143	-2.03528	1.16276	-1.13635	0.797477	-1.58214	0.152738	-2.58511	0.849184	-1.58911	1.02798	-1.93117	2.57245	-0.725476	2.47861	-1.69885	1.90943	-0.616342	
0.764372	2.77405	0	0	2.60908	-1.79924	1.31489	-1.308	3.85285	-2.86244	1.00907	-1.55885	0.398072	-1.64058	0.654412	-2.16036	0.844638	-1.22452	0.495835	-2.01901	1.16764	-1.12801	0.794511	-1.57376	0.166647	-2.57482	0.855562	-1.56245	1.03099	-1.92583	2.59992	-0.707079	2.47769	-1.71198	1.91368	-0.61912	
0.763274	2.77252	0	0	2.60347	-1.80317	1.3031	-1.30239	3.84889	-2.87153	1.01004	-1.56158	0.40302	-1.62547	0.671362	-2.14074	0.854055	-1.21802	0.509527	-2.00273	1.17252	-1.11967	0.791546	-1.56538	0.180557	-2.56453	0.86194	-1.53579	1.034	-1.92049	2.62739	-0.688683	2.47677	-1.7251	1.91793	-0.621897	
0.762111	2.77252	0	0	2.59785	-1.8071	1.29131	-1.29677	3.84493	-2.88062	1.011	-1.56432	0.407968	-1.61036	0.688313	-2.12112	0.863473	-1.21152	0.523219	-1.98646	1.1774	-1.11133	0.78858	-1.557	0.194466	-2.55423	0.868317	-1.50913	1.03702	-1.91516	2.65486	-0.670286	2.47585	-1.73823	1.92218	-0.624675	
0.761135	2.77252	0	0	2.59223	-1.81103	1.27953	-1.29115	3.84097	-2.88972	1.01197	-1.56706	0.412916	-1.59525	0.705263	-2.10149	0.872891	-1.20503	0.536911	-1.97019	1.18228	-1.10299	0.785614	-1.54861	0.208375	-2.54394	0.874695	-1.48247	1.04003	-1.90982	2.68233	-0.651889	2.47493	-1.75136	1.92643	-0.627453	
0.760596	2.76337	0	0	2.59572	-1.8209	1.27816	-1.2965	3.83702	-2.89879	1.01392	-1.56201	0.427044	-1.59631	0.727	-2.09516	0.889969	-1.20351	0.562289	-1.95915	1.19071	-1.10465	0.785614	-1.54861	0.216324	-2.55399	0.881561	-1.48696	1.04339	-1.91932	2.70285	-0.639743	2.45361	-1.75387	1.92418	-0.639556	
0.760745	2.76337	0	0	2.59922	-1.83078	1.27679	-1.30186	3.83306	-2.90787	1.01586	-1.55697	0.441171	-1.59738	0.748738	-2.08882	0.907046	-1.202	0.587668	-1.94811	1.19914	-1.10631	0.785614	-1.54861	0.224274	-2.56403	0.888427	-1.49144	1.04675	-1.92883	2.72338	-0.627598	2.43229	-1.75637	1.92193	-0.651658	
0.761804	2.76031	0	0	2.60271	-1.84065	1.27542	-1.30721	3.82911	-2.91694	1.01781	-1.55193	0.455299	-1.59844	0.770475	-2.08248	0.924124	-1.20048	0.613047	-1.93707	1.20757	-1.10797	0.785614	-1.54861	0.232223	-2.57408	0.895294	-1.49593	1.05012	-1.93833	2.7439	-0.615452	2.41097	-1.75888	1.91968	-0.66376	
0.763662	2.75879	0	0	2.60621	-1.85052	1.27405	-1.31256	3.82515	-2.92602	1.01975	-1.54689	0.469427	-1.5995	0.792213	-2.07615	0.941202	-1.19897	0.638425	-1.92604	1.216	-1.10963	0.785614	-1.54861	0.240172	-2.58412	0.90216	-1.50042	1.05348	-1.94783	2.76443	-0.603306	2.38965	-1.76139	1.91742	-0.675863	
0.765989	2.75574	0	0	2.60795	-1.85546	1.27077	-1.3125	3.82694	-2.93107	1.03142	-1.53764	0.483363	-1.59019	0.806906	-2.04965	0.94774	-1.18419	0.658597	-1.90917	1.216	-1.10963	0.779337	-1.54881	0.256229	-2.59219	0.900579	-1.49595	1.0546	-1.951	2.79706	-0.589788	2.37685	-1.77215	1.90825	-0.677616	
0.768449	2.75268	0	0	2.6097	-1.86039	1.26748	-1.31243	3.82872	-2.93612	1.04308	-1.5284	0.497299	-1.58088	0.821598	-2.02316	0.954279	-1.16941	0.678768	-1.8923	1.216	-1.10963	0.77306	-1.549	0.272287	-2.60025	0.898999	-1.49148	1.05572	-1.95416	2.82968	-0.576269	2.36405	-1.78292	1.89908	-0.679369	
0.770706	2.75116	0	0	2.61144	-1.86532	1.2642	-1.31237	3.83051	-2.94117	1.05475	-1.51916	0.511235	-1.57157	0.836291	-1.99666	0.960817	-1.15463	0.69894	-1.87544	1.216	-1.10963	0.766782	-1.5492	0.288345	-2.60832	0.897419	-1.48702	1.05684	-1.95733	2.86231	-0.562751	2.35125	-1.79368	1.88991	-0.681122	
0.772424	2.74658	0	0	2.61319	-1.87026	1.26091	-1.3123	3.8323	-2.94622	1.06641	-1.50992	0.525171	-1.56227	0.850984	-1.97017	0.967356	-1.13984	0.719112	-1.85857	1.216	-1.10963	0.760505	-1.54939	0.304402	-2.61639	0.895838	-1.48255	1.05796	-1.96049	2.89494	-0.549232	2.33845	-1.80445	1.88074	-0.682875	
0.773279	2.74505	0	0	2.60196	-1.87807	1.25202	-1.31482	3.83012	-2.9603	1.06641	-1.50992	0.532038	-1.5524	0.841452	-1.94323	0.972091	-1.13658	0.726562	-1.85185	1.216	-1.10963	0.756209	-1.55517	0.306784	-2.61067	0.897964	-1.47363	1.06434	-1.96466	2.91736	-0.541791	2.34097	-1.81155	1.88074	-0.682875	
0.773229	2.74505	0	0	2.59073	-1.88588	1.24314	-1.31733	3.82795	-2.97439	1.06641	-1.50992	0.538906	-1.54253	0.831919	-1.91629	0.976827	-1.13331	0.734012	-1.84512	1.216	-1.10963	0.751914	-1.56095	0.309165	-2.60494	0.900089	-1.46471	1.07072	-1.96883	2.93979	-0.53435	2.34348	-1.81864	1.88074	-0.682875	
0.772538	2.73895	0	0	2.5795	-1.89369	1.23425	-1.31984	3.82577	-2.98847	1.06641	-1.50992	0.545773	-1.53266	0.822386	-1.88935	0.981563	-1.13004	0.741462	-1.8384	1.216	-1.10963	0.747618	-1.56673	0.311547	-2.59922	0.902215	-1.45578	1.0771	-1.973	2.96222	-0.52691	2.34599	-1.82574	1.88074	-0.682875	
0.771482	2.73895	0	0	2.56827	-1.9015	1.22537	-1.32235	3.82359	-3.00256	1.06641	-1.50992	0.55264	-1.52279	0.812854	-1.86241	0.986298	-1.12677	0.748912	-1.83168	1.216	-1.10963	0.743323	-1.57251	0.313929	-2.5935	0.904341	-1.44686	1.08348	-1.97717	2.98464	-0.519469	2.3485	-1.83283	1.88074	-0.682875	
0.770341	2.73743	0	0	2.56267	-1.9054	1.224	-1.3277	3.81785	-3.00655	1.07031	-1.51035	0.552867	-1.53319	0.828085	-1.88272	0.983026	-1.13417	0.753181	-1.84374	1.21111	-1.11797	0.735726	-1.58682	0.317123	-2.61498	0.893227	-1.46021	1.08269	-1.98881	2.99435	-0.520278	2.33572	-1.84355	1.87337	-0.689656	
0.769393	2.73437	0	0	2.55706	-1.90929	1.22263	-1.33304	3.81211	-3.01054	1.0742	-1.51078	0.553095	-1.5436	0.843315	-1.90304	0.979753	-1.14158	0.757449	-1.8558	1.20622	-1.12631	0.728128	-1.60113	0.320318	-2.63646	0.882113	-1.47355	1.08191	-2.00045	3.00406	-0.521087	2.32295	-1.85426	1.86599	-0.696437	
0.768912	2.73437	0	0	2.55146	-1.91319	1.22127	-1.33838	3.80637	-3.01453	1.07809	-1.51122	0.553322	-1.55401	0.858545	-1.92335	0.976481	-1.14898	0.761718	-1.86787	1.20133	-1.13465	0.72053	-1.61544	0.323512	-2.65794	0.871	-1.4869	1.08112	-2.01209	3.01377	-0.521895	2.31017	-1.86497	1.85862	-0.703218	
0.768989	2.73285	0	0	2.54585	-1.91709	1.2199	-1.34372	3.80063	-3.01852	1.08198	-1.51165	0.553549	-1.56441	0.873776	-1.94367	0.973209	-1.15639	0.765987	-1.87993	1.19644	-1.14299	0.712933	-1.62976	0.326706	-2.67943	0.859886	-1.50024	1.08033	-2.02373	3.02347	-0.522704	2.2974	-1.87569	1.85124	-0.709999	
0.769414	2.73132	0	0	2.54411	-1.91218	1.21895	-1.34102	3.80241	-3.02355	1.09368	-1.50238	0.557818	-1.55694	0.874702	-1.92353	0.973209	-1.15639	0.769184	-1.87043	1.1982	-1.14799	0.707485	-1.64115	0.328934	-2.68572	0.859886	-1.50024	1.08257	-2.03004	3.04278	-0.514987	2.29273	-1.87807	1.85056	-0.717278	
0.769949	2.73285	0	0	2.54237	-1.90726	1.21799	-1.33832	3.80419	-3.02858	1.10538	-1.49312	0.562087	-1.54948	0.875629	-1.9034	0.973209	-1.15639	0.772382	-1.86092	1.19997	-1.15298	0.702037	-1.65255	0.331161	-2.69202	0.859886	-1.50024	1.0848	-2.03636	3.06208	-0.507269	2.28806	-1.88046	1.84988	-0.724557	
0.770361	2.73132	0	0	2.54063	-1.90234	1.21703	-1.33561	3.80597	-3.03361	1.11708	-1.48385	0.566357	-1.54201	0.876556	-1.88326	0.973209	-1.15639	0.775579	-1.85141	1.20174	-1.15798	0.696589	-1.66394	0.333389	-2.69831	0.859886	-1.50024	1.08704	-2.04268	3.08139	-0.499551	2.28339	-1.88284	1.8492	-0.731836	
0.77041	2.73437	0	0	2.53889	-1.89743	1.21608	-1.33291	3.80775	-3.03864	1.12878	-1.47459	0.570626	-1.53454	0.877482	-1.86312	0.973209	-1.15639	0.778776	-1.84191	1.20351	-1.16298	0.691141	-1.67534	0.335617	-2.70461	0.859886	-1.50024	1.08927	-2.04899	3.1007	-0.491834	2.27872	-1.88523	1.84852	-0.739115	
0.769863	2.73895	0	0	2.54063	-1.90234	1.21144	-1.33818	3.81131	-3.04869	1.12878	-1.47459	0.571343	-1.52679	0.872698	-1.8496	0.971746	-1.15225	0.77984	-1.83564	1.20704	-1.17296	0.685875	-1.6783	0.334504	-2.70146	0.858307	-1.49578	1.10284	-2.04571	3.11184	-0.478725	2.27622	-1.87816	1.84319	-0.724042	
0.768615	2.742	0	0	2.54237	-1.90726	1.2068	-1.34346	3.81487	-3.05874	1.12878	-1.47459	0.572059	-1.51904	0.867914	-1.83608	0.970282	-1.14811	0.780903	-1.82936	1.21057	-1.18294	0.680609	-1.68126	0.33339	-2.69831	0.856729	-1.49132	1.11641	-2.04243	3.12299	-0.465616	2.27372	-1.87109	1.83785	-0.70897	
0.766899	2.742	0	0	2.54411	-1.91218	1.20216	-1.34873	3.81842	-3.06879	1.12878	-1.47459	0.572776	-1.51129	0.863129	-1.82256	0.968819	-1.14398	0.781967	-1.82309	1.21411	-1.19293	0.675344	-1.68422	0.332276	-2.69517	0.85515	-1.48686	1.12997	-2.03915	3.13414	-0.452508	2.27122	-1.86401	1.83252	-0.693897	
0.764994	2.74811	0	0	2.54585	-1.91709	1.19752	-1.354	3.82198	-3.07884	1.12878	-1.47459	0.573493	-1.50354	0.858345	-1.80904	0.967356	-1.13984	0.783031	-1.81682	1.21764	-1.20291	0.670078	-1.68718	0.331163	-2.69202	0.853571	-1.4824	1.14354	-2.03587	3.14528	-0.439399	2.26871	-1.85694	1.82719	-0.678824	
0.763184	2.75116	0	0	2.54585	-1.91709	1.19752	-1.354	3.81269	-3.07277	1.13757	-1.47821	0.569225	-1.51102	0.852656	-1.81571	0.964086	-1.14724	0.779835	-1.82634	1.20257	-1.20456	0.666778	-1.69567	0.319554	-2.69652	0.842483	-1.49571	1.13188	-2.03068	3.13946	-0.431882	2.2628	-1.8558	1.82139	-0.680834	
0.761749	2.75268	0	0	2.54585	-1.91709	1.19752	-1.354	3.80339	-3.0667	1.14635	-1.48183	0.564956	-1.5185	0.846967	-1.82239	0.960816	-1.15464	0.776639	-1.83586	1.1875	-1.20621	0.663477	-1.70417	0.307944	-2.70103	0.831395	-1.50902	1.12023	-2.0255	3.13364	-0.424365	2.25689	-1.85465	1.8156	-0.682844	
0.760972	2.75574	0	0	2.54585	-1.91709	1.19752	-1.354	3.7941	-3.06062	1.15513	-1.48545	0.560688	-1.52599	0.841278	-1.82907	0.957547	-1.16203	0.773443	-1.84538	1.17243	-1.20786	0.660177	-1.71266	0.296335	-2.70553	0.820306	-1.52233	1.10857	-2.02031	3.12782	-0.416848	2.25097	-1.85351	1.8098	-0.684854	
0.761045	2.75574	0	0	2.54585	-1.91709	1.19752	-1.354	3.78481	-3.05455	1.16392	-1.48908	0.556419	-1.53347	0.835589	-1.83575	0.954277	-1.16943	0.770247	-1.8549	1.15736	-1.20951	0.656877	-1.72116	0.284726	-2.71004	0.809218	-1.53564	1.09691	-2.01512	3.122	-0.409331	2.24506	-1.85236	1.80401	-0.686864	
0.761877	2.75421	0	0	2.54237	-1.90726	1.19697	-1.34326	3.78303	-3.04953	1.16882	-1.47107	0.565188	-1.52893	0.838883	-1.8223	0.95901	-1.16617	0.783057	-1.84468	1.16088	-1.21947	0.661957	-1.72661	0.290447	-2.71377	0.810792	-1.54009	1.10441	-2.02246	3.1179	-0.406646	2.25348	-1.86058	1.80067	-0.686613	
0.763317	2.75421	0	0	2.53889	-1.89742	1.19642	-1.33252	3.78125	-3.0445	1.17371	-1.45307	0.573958	-1.52439	0.842178	-1.80886	0.963743	-1.16291	0.795866	-1.83447	1.1644	-1.22942	0.667037	-1.73206	0.296168	-2.71751	0.812366	-1.54454	1.11192	-2.02979	3.11379	-0.403961	2.26189	-1.86879	1.79733	-0.686362	
0.765215	2.75421	0	0	2.53541	-1.88759	1.19587	-1.32178	3.77947	-3.03948	1.17861	-1.43507	0.582728	-1.51985	0.845472	-1.79541	0.968476	-1.15965	0.808675	-1.82426	1.16793	-1.23938	0.672118	-1.73751	0.301888	-2.72125	0.81394	-1.54899	1.11942	-2.03712	3.10968	-0.401277	2.27031	-1.87701	1.79399	-0.686111	
0.767423	2.74963	0	0	2.53193	-1.87775	1.19532	-1.31104	3.7777	-3.03446	1.18351	-1.41707	0.591497	-1.51531	0.848766	-1.78197	0.973209	-1.15639	0.821485	-1.81405	1.17145	-1.24934	0.677198	-1.74295	0.307609	-2.72499	0.815514	-1.55343	1.12693	-2.04446	3.10557	-0.398592	2.27872	-1.88523	1.79065	-0.68586	
0.769789	2.75421	0	0	2.52459	-1.87674	1.19724	-1.31644	3.77947	-3.03948	1.18449	-1.41983	0.584389	-1.51477	0.840688	-1.78189	0.973209	-1.15639	0.814004	-1.81149	1.16305	-1.24767	0.673098	-1.74027	0.299664	-2.71496	0.808675	-1.54897	1.12772	-2.03282	3.09513	-0.404764	2.27372	-1.87108	1.79288	-0.67379	
0.772162	2.74811	0	0	2.51726	-1.87573	1.19915	-1.32185	3.78125	-3.0445	1.18547	-1.42259	0.577281	-1.51424	0.832609	-1.78181	0.973209	-1.15639	0.806523	-1.80893	1.15464	-1.246	0.668997	-1.7376	0.291718	-2.70494	0.801837	-1.5445	1.12852	-2.02118	3.0847	-0.410937	2.26871	-1.85693	1.79511	-0.661719	
0.774376	2.74811	0	0	2.50992	-1.87472	1.20106	-1.32725	3.78303	-3.04953	1.18644	-1.42535	0.570172	-1.5137	0.82453	-1.78174	0.973209	-1.15639	0.799043	-1.80636	1.14624	-1.24433	0.664897	-1.73492	0.283773	-2.69491	0.794998	-1.54003	1.12931	-2.00954	3.07426	-0.41711	2.2637	-1.84279	1.79735	-0.649648	
0.776261	2.742	0	0	2.50259	-1.8737	1.20297	-1.33266	3.78481	-3.05455	1.18742	-1.42811	0.563064	-1.51317	0.816452	-1.78166	0.973209	-1.15639	0.791562	-1.8038	1.13784	-1.24267	0.660796	-1.73224	0.275828	-2.68489	0.788159	-1.53556	1.1301	-1.9979	3.06383	-0.423282	2.2587	-1.82864	1.79958	-0.637578	
0.777646	2.742	0	0	2.50259	-1.8737	1.20393	-1.33536	3.78481	-3.05455	1.1884	-1.43087	0.562348	-1.52091	0.813165	-1.7951	0.967014	-1.15552	0.787297	-1.81031	1.14135	-1.25261	0.662754	-1.73777	0.267734	-2.68685	0.780786	-1.5444	1.12595	-2.00005	3.05358	-0.438798	2.25279	-1.8275	1.7998	-0.647387	
0.778362	2.73895	0	0	2.50259	-1.8737	1.20488	-1.33806	3.78481	-3.05455	1.18938	-1.43363	0.561631	-1.52866	0.809878	-1.80854	0.960819	-1.15465	0.783032	-1.81681	1.14487	-1.26255	0.664713	-1.74331	0.25964	-2.68881	0.773413	-1.55325	1.1218	-2.00221	3.04333	-0.454314	2.24687	-1.82635	1.80001	-0.657196	
0.778237	2.74048	0	0	2.50259	-1.8737	1.20584	-1.34076	3.78481	-3.05455	1.19035	-1.4364	0.560914	-1.5364	0.806591	-1.82198	0.954625	-1.15378	0.778767	-1.82332	1.14839	-1.27249	0.666671	-1.74884	0.251547	-2.69077	0.766041	-1.5621	1.11765	-2.00436	3.03308	-0.469829	2.24096	-1.82521	1.80023	-0.667005	
0.777135	2.73743	0	0	2.50259	-1.8737	1.2068	-1.34346	3.78481	-3.05455	1.19133	-1.43916	0.560198	-1.54415	0.803304	-1.83542	0.94843	-1.15291	0.774502	-1.82983	1.1519	-1.28243	0.668629	-1.75438	0.243453	-2.69273	0.758668	-1.57094	1.1135	-2.00651	3.02283	-0.485345	2.23505	-1.82407	1.80045	-0.676814	
0.775252	2.742	0	0	2.50085	-1.86879	1.20106	-1.32724	3.77947	-3.03947	1.18742	-1.41747	0.56186	-1.53907	0.811375	-1.8355	0.945504	-1.14464	0.773433	-1.82681	1.14839	-1.27249	0.66765	-1.75161	0.246942	-2.69018	0.758668	-1.57094	1.11877	-2.00753	3.02607	-0.485614	2.24221	-1.82875	1.79889	-0.681586	
0.772993	2.74963	0	0	2.49911	-1.86387	1.19532	-1.31103	3.77414	-3.02439	1.18351	-1.39579	0.563522	-1.534	0.819446	-1.83558	0.942578	-1.13637	0.772365	-1.82379	1.14487	-1.26255	0.666671	-1.74884	0.250432	-2.68763	0.758668	-1.57094	1.12404	-2.00854	3.02931	-0.485882	2.24938	-1.83343	1.79733	-0.686359	
0.770766	2.75116	0	0	2.49737	-1.85895	1.18958	-1.29481	3.7688	-3.00931	1.17959	-1.37411	0.565183	-1.52893	0.827518	-1.83566	0.939652	-1.1281	0.771296	-1.82077	1.14135	-1.25261	0.665692	-1.74608	0.253921	-2.68507	0.758668	-1.57094	1.12931	-2.00955	3.03255	-0.486151	2.25654	-1.83811	1.79577	-0.691132	
0.768979	2.75879	0	0	2.49562	-1.85403	1.18384	-1.27859	3.76346	-2.99423	1.17568	-1.35242	0.566845	-1.52385	0.835589	-1.83575	0.936726	-1.11983	0.770227	-1.81774	1.13784	-1.24267	0.664713	-1.74331	0.25741	-2.68252	0.758668	-1.57094	1.13458	-2.01056	3.03579	-0.48642	2.26371	-1.84279	1.79421	-0.695904	
0.768038	2.76642	0	0	2.49737	-1.85895	1.18671	-1.2867	3.77276	-3.0003	1.17177	-1.35199	0.571344	-1.52679	0.837978	-1.8425	0.947654	-1.11742	0.783041	-1.81682	1.14624	-1.24433	0.661774	-1.735	0.257561	-2.67053	0.750805	-1.54872	1.13425	-1.99573	3.04365	-0.473047	2.26245	-1.83925	1.79065	-0.685855	
0.768326	2.77405	0	0	2.49911	-1.86387	1.18958	-1.29481	3.78205	-3.00637	1.16786	-1.35156	0.575843	-1.52973	0.840367	-1.84925	0.958581	-1.11502	0.795856	-1.8159	1.15464	-1.246	0.658835	-1.7267	0.257711	-2.65853	0.742943	-1.5265	1.13392	-1.9809	3.05152	-0.459674	2.2612	-1.83572	1.78709	-0.675807	
0.769779	2.77862	0	0	2.50085	-1.86879	1.19245	-1.30293	3.79134	-3.01244	1.16395	-1.35114	0.580342	-1.53267	0.842757	-1.85601	0.969509	-1.11261	0.808671	-1.81497	1.16305	-1.24767	0.655896	-1.71839	0.257862	-2.64653	0.73508	-1.50428	1.13359	-1.96607	3.05938	-0.446301	2.25995	-1.83218	1.78354	-0.665759	
0.771928	2.78625	0	0	2.50259	-1.8737	1.19532	-1.31104	3.80063	-3.01852	1.16003	-1.35071	0.584841	-1.53561	0.845146	-1.86276	0.980437	-1.1102	0.821485	-1.81405	1.17145	-1.24934	0.652957	-1.71008	0.258012	-2.63454	0.727217	-1.48206	1.13326	-1.95124	3.06724	-0.432928	2.2587	-1.82864	1.77998	-0.65571	
0.774293	2.79693	0	0	2.50433	-1.87862	1.19532	-1.31104	3.78956	-3.00741	1.16688	-1.3488	0.594568	-1.53375	0.861325	-1.86294	0.989918	-1.10365	0.834325	-1.80381	1.16793	-1.23938	0.655097	-1.70722	0.261503	-2.63198	0.73247	-1.48207	1.14078	-1.95859	3.07614	-0.431321	2.25529	-1.83457	1.77931	-0.662997	
0.776394	2.79693	0	0	2.50607	-1.88354	1.19532	-1.31104	3.77849	-2.99631	1.17373	-1.34688	0.604296	-1.53188	0.877504	-1.86313	0.999399	-1.09709	0.847165	-1.79357	1.1644	-1.22942	0.657237	-1.70436	0.264995	-2.62941	0.737723	-1.48208	1.1483	-1.96595	3.08503	-0.429713	2.25188	-1.8405	1.77864	-0.670284	
0.77775	2.80151	0	0	2.50781	-1.88845	1.19532	-1.31104	3.76741	-2.9852	1.18057	-1.34497	0.614023	-1.53002	0.893683	-1.86331	1.00888	-1.09054	0.860005	-1.78333	1.16088	-1.21947	0.659376	-1.7015	0.268487	-2.62685	0.742977	-1.48209	1.15583	-1.9733	3.09392	-0.428106	2.24847	-1.84643	1.77797	-0.677572	
0.777884	2.79846	0	0	2.50955	-1.89337	1.19532	-1.31104	3.75634	-2.9741	1.18742	-1.34306	0.62375	-1.52816	0.909862	-1.8635	1.01836	-1.08398	0.872845	-1.77308	1.15736	-1.20951	0.661516	-1.69863	0.271978	-2.62429	0.74823	-1.4821	1.16335	-1.98065	3.10282	-0.426499	2.24506	-1.85236	1.7773	-0.684859	
0.776654	2.80304	0	0	2.50048	-1.88745	1.19573	-1.30299	3.76028	-2.96505	1.18937	-1.32727	0.633268	-1.51585	0.916487	-1.83657	1.02017	-1.07239	0.887867	-1.76889	1.16401	-1.20619	0.664816	-1.69013	0.283583	-2.61975	0.754016	-1.46875	1.16335	-1.98065	3.11669	-0.429996	2.25473	-1.86411	1.78242	-0.690131	
0.774452	2.80151	0	0	2.49141	-1.88152	1.19613	-1.29493	3.76423	-2.95601	1.19131	-1.31149	0.642787	-1.50353	0.923113	-1.80964	1.02197	-1.0608	0.902889	-1.7647	1.17065	-1.20287	0.668115	-1.68162	0.295188	-2.61521	0.759802	-1.45539	1.16335	-1.98065	3.13057	-0.433493	2.26439	-1.87586	1.78753	-0.695402	
0.77172	2.79846	0	0	2.48235	-1.8756	1.19654	-1.28688	3.76817	-2.94697	1.19326	-1.2957	0.652305	-1.49122	0.929739	-1.78272	1.02378	-1.0492	0.917911	-1.76051	1.1773	-1.19956	0.671415	-1.67311	0.306793	-2.61067	0.765588	-1.44204	1.16335	-1.98065	3.14444	-0.43699	2.27406	-1.88761	1.79264	-0.700674	
0.768899	2.79236	0	0	2.47328	-1.86967	1.19694	-1.27883	3.77212	-2.93792	1.19521	-1.27992	0.661823	-1.47891	0.936364	-1.75579	1.02558	-1.03761	0.932933	-1.75632	1.18395	-1.19624	0.674715	-1.66461	0.318398	-2.60613	0.771374	-1.42869	1.16335	-1.98065	3.15832	-0.440487	2.28372	-1.89936	1.79776	-0.705946	
0.766428	2.79388	0	0	2.46943	-1.87849	1.19462	-1.28147	3.76639	-2.94193	1.19717	-1.28547	0.660153	-1.484	0.930654	-1.7625	1.02705	-1.04177	0.930785	-1.75959	1.17378	-1.18959	0.671592	-1.6647	0.310287	-2.6081	0.759281	-1.42421	1.1547	-1.97013	3.15335	-0.435384	2.27065	-1.89353	1.79264	-0.700674	
0.764748	2.79083	0	0	2.46559	-1.8873	1.19231	-1.28412	3.76067	-2.94594	1.19913	-1.29102	0.658483	-1.48909	0.924945	-1.7692	1.02853	-1.04592	0.928638	-1.76286	1.1636	-1.18294	0.66847	-1.66479	0.302176	-2.61008	0.747187	-1.41974	1.14606	-1.9596	3.14838	-0.430281	2.25758	-1.88771	1.78753	-0.695402	
0.764099	2.78931	0	0	2.46175	-1.89612	1.18999	-1.28676	3.75494	-2.94995	1.2011	-1.29657	0.656814	-1.49418	0.919235	-1.7759	1.03	-1.05008	0.92649	-1.76612	1.15343	-1.17629	0.665347	-1.66489	0.294064	-2.61206	0.735093	-1.41527	1.13742	-1.94908	3.14341	-0.425177	2.2445	-1.88188	1.78242	-0.690131	
0.76428	2.7832	0	0	2.4579	-1.90493	1.18767	-1.28941	3.74921	-2.95396	1.20306	-1.30212	0.655144	-1.49928	0.913526	-1.78261	1.03147	-1.05424	0.924342	-1.76939	1.14325	-1.16964	0.662225	-1.66498	0.285953	-2.61403	0.723	-1.4108	1.12877	-1.93856	3.13845	-0.420074	2.23143	-1.87605	1.7773	-0.684859	
0.765027	2.78473	0	0	2.45233	-1.90883	1.19286	-1.29488	3.74171	-2.95293	1.20698	-1.30255	0.656092	-1.50196	0.915925	-1.78939	1.03294	-1.05839	0.926491	-1.77547	1.14325	-1.16964	0.660086	-1.66785	0.289299	-2.62349	0.726155	-1.41972	1.12798	-1.95022	3.13861	-0.429461	2.22927	-1.88549	1.7784	-0.697151	
0.766078	2.7771	0	0	2.44675	-1.91273	1.19805	-1.30035	3.73421	-2.9519	1.2109	-1.30298	0.657039	-1.50463	0.918323	-1.79616	1.03441	-1.06255	0.92864	-1.78154	1.14325	-1.16964	0.657946	-1.67072	0.292644	-2.63294	0.72931	-1.42863	1.1272	-1.96189	3.13877	-0.438849	2.22711	-1.89493	1.7795	-0.709442	
0.767169	2.78015	0	0	2.44117	-1.91662	1.20324	-1.30582	3.72671	-2.95087	1.21482	-1.30341	0.657987	-1.50731	0.920721	-1.80294	1.03588	-1.0667	0.930789	-1.78761	1.14325	-1.16964	0.655807	-1.67359	0.29599	-2.6424	0.732466	-1.43755	1.12641	-1.97356	3.13893	-0.448236	2.22495	-1.90437	1.78061	-0.721734	
0.768038	2.77557	0	0	2.4356	-1.92052	1.20843	-1.31129	3.71921	-2.94984	1.21874	-1.30384	0.658935	-1.50999	0.92312	-1.80972	1.03735	-1.07086	0.932938	-1.79369	1.14325	-1.16964	0.653668	-1.67645	0.299335	-2.65185	0.735621	-1.44647	1.12562	-1.98523	3.13909	-0.457624	2.22279	-1.91381	1.78171	-0.734025	
0.768493	2.76947	0	0	2.4356	-1.92052	1.20747	-1.30858	3.70994	-2.94378	1.21481	-1.29272	0.658708	-1.49954	0.926431	-1.79624	1.03113	-1.06999	0.932938	-1.79369	1.15519	-1.18128	0.654649	-1.67923	0.303949	-2.65245	0.735621	-1.44647	1.12674	-1.9884	3.14406	-0.462722	2.20975	-1.908	1.78259	-0.736531	
0.768575	2.76642	0	0	2.4356	-1.92052	1.20651	-1.30588	3.70066	-2.93772	1.21088	-1.28161	0.658481	-1.48909	0.929742	-1.78276	1.02492	-1.06912	0.932938	-1.79369	1.16713	-1.19291	0.65563	-1.682	0.308562	-2.65304	0.735621	-1.44647	1.12786	-1.99157	3.14902	-0.467821	2.19671	-1.90219	1.78348	-0.739038	
0.768377	2.76489	0	0	2.4356	-1.92052	1.20556	-1.30318	3.69139	-2.93166	1.20695	-1.2705	0.658254	-1.47863	0.933053	-1.76927	1.0187	-1.06825	0.932938	-1.79369	1.17907	-1.20454	0.656611	-1.68477	0.313175	-2.65363	0.735621	-1.44647	1.12898	-1.99473	3.15398	-0.472919	2.18367	-1.89638	1.78437	-0.741544	
0.767993	2.76337	0	0	2.4356	-1.92052	1.2046	-1.30047	3.68212	-2.9256	1.20302	-1.25939	0.658027	-1.46818	0.936364	-1.75579	1.01249	-1.06738	0.932938	-1.79369	1.19101	-1.21618	0.657592	-1.68755	0.317789	-2.65422	0.735621	-1.44647	1.1301	-1.9979	3.15895	-0.478018	2.17063	-1.89057	1.78526	-0.74405	
0.767515	2.75726	0	0	2.43733	-1.92542	1.20324	-1.30582	3.68568	-2.93566	1.19715	-1.2641	0.659202	-1.48131	0.927345	-1.77596	1.01214	-1.0831	0.925419	-1.80974	1.17771	-1.2228	0.655273	-1.69881	0.316356	-2.67506	0.732989	-1.46869	1.12483	-1.99689	3.14678	-0.479336	2.17063	-1.89057	1.77681	-0.738534	
0.767036	2.75574	0	0	2.43906	-1.93032	1.20187	-1.31116	3.68924	-2.94573	1.19128	-1.2688	0.660377	-1.49444	0.918327	-1.79612	1.0118	-1.09882	0.917901	-1.8258	1.16442	-1.22942	0.652955	-1.71007	0.314922	-2.69589	0.730357	-1.49091	1.11956	-1.99588	3.13462	-0.480654	2.17063	-1.89057	1.76837	-0.733018	
0.766648	2.75726	0	0	2.4408	-1.93522	1.20051	-1.31651	3.6928	-2.95579	1.18541	-1.27351	0.661551	-1.50757	0.909309	-1.81628	1.01146	-1.11454	0.910382	-1.84186	1.15113	-1.23605	0.650636	-1.72133	0.313489	-2.71672	0.727726	-1.51313	1.11429	-1.99487	3.12245	-0.481972	2.17063	-1.89057	1.75993	-0.727502	
0.76645	2.75421	0	0	2.44253	-1.94012	1.19915	-1.32185	3.69636	-2.96585	1.17954	-1.27822	0.662726	-1.52071	0.90029	-1.83645	1.01112	-1.13025	0.902863	-1.85792	1.13784	-1.24267	0.648318	-1.7326	0.312055	-2.73755	0.725094	-1.53535	1.10902	-1.99386	3.11029	-0.48329	2.17063	-1.89057	1.75149	-0.721986	
0.766541	2.75268	0	0	2.4408	-1.93522	1.20434	-1.32732	3.69992	-2.9759	1.18737	-1.27907	0.65749	-1.52551	0.905074	-1.84997	1.00931	-1.14179	0.896426	-1.86766	1.14311	-1.25757	0.645996	-1.74383	0.30728	-2.74891	0.719312	-1.54862	1.1135	-2.00651	3.10549	-0.487561	2.18027	-1.90228	1.74993	-0.726744	
0.767019	2.75116	0	0	2.43906	-1.93032	1.20953	-1.33278	3.70348	-2.98595	1.19521	-1.27992	0.652254	-1.53032	0.909859	-1.86349	1.00749	-1.15333	0.889989	-1.8774	1.14838	-1.27248	0.643675	-1.75507	0.302504	-2.76026	0.713531	-1.56189	1.11797	-2.01916	3.1007	-0.491832	2.1899	-1.91399	1.74837	-0.731502	
0.767982	2.75268	5	0	2.43733	-1.92542	1.21471	-1.33825	3.70703	-2.996	1.20305	-1.28077	0.647019	-1.53513	0.914643	-1.87701	1.00568	-1.16488	0.883552	-1.88714	1.15366	-1.28738	0.641354	-1.76631	0.297729	-2.77162	0.707749	-1.57517	1.12245	-2.03181	3.0959	-0.496103	2.19954	-1.92571	1.74681	-0.736261	
0.769531	2.74658	5	0	2.4356	-1.92052	1.2199	-1.34372	3.71059	-3.00606	1.21088	-1.28162	0.641783	-1.53994	0.919427	-1.89053	1.00387	-1.17642	0.877115	-1.89688	1.15893	-1.30229	0.639032	-1.77754	0.292953	-2.78297	0.701967	-1.58844	1.12693	-2.04446	3.09111	-0.500374	2.20917	-1.93742	1.74525	-0.741019	
0.771731	2.74353	5	0	2.44464	-1.92643	1.21471	-1.33825	3.71236	-3.01108	1.205	-1.27564	0.641558	-1.5295	0.912248	-1.87024	0.997664	-1.17554	0.872834	-1.89408	1.15054	-1.30062	0.635916	-1.77763	0.289624	-2.77356	0.700399	-1.58401	1.12357	-2.03497	3.09675	-0.498512	2.20418	-1.92332	1.74348	-0.73601	
0.774383	2.74353	5	0	2.45369	-1.93234	1.20953	-1.33278	3.71414	-3.0161	1.19911	-1.26966	0.641333	-1.51907	0.905069	-1.84995	0.991462	-1.17467	0.868553	-1.89128	1.14214	-1.29895	0.632801	-1.77772	0.286295	-2.76415	0.698832	-1.57958	1.12021	-2.02548	3.1024	-0.496649	2.19919	-1.90922	1.74171	-0.731001	
0.777157	2.74048	5	0	2.46274	-1.93825	1.20434	-1.32732	3.71592	-3.02112	1.19323	-1.26368	0.641108	-1.50863	0.89789	-1.82966	0.985261	-1.17379	0.864272	-1.88849	1.13375	-1.29728	0.629686	-1.77781	0.282965	-2.75474	0.697264	-1.57514	1.11686	-2.016	3.10805	-0.494787	2.1942	-1.89513	1.73994	-0.725993	
0.779717	2.742	5	0	2.47179	-1.94417	1.19915	-1.32185	3.71769	-3.02614	1.18734	-1.25769	0.640883	-1.4982	0.890711	-1.80937	0.979059	-1.17292	0.859991	-1.88569	1.12535	-1.29561	0.62657	-1.77789	0.279636	-2.74534	0.695696	-1.57071	1.1135	-2.00651	3.1137	-0.492925	2.18922	-1.88103	1.73816	-0.720984	
0.781732	2.73743	5	0	2.47179	-1.94417	1.20011	-1.32455	3.71021	-3.02511	1.18931	-1.26325	0.638267	-1.50061	0.893106	-1.81614	0.980521	-1.17705	0.865347	-1.88222	1.13061	-1.31048	0.626385	-1.78626	0.282965	-2.75474	0.701963	-1.58842	1.1135	-2.00651	3.11439	-0.485968	2.17619	-1.87523	1.73395	-0.718229	
0.782867	2.73132	5	0	2.47179	-1.94417	1.20106	-1.32725	3.70272	-3.02407	1.19127	-1.2688	0.635652	-1.50301	0.895501	-1.82291	0.981983	-1.18118	0.870704	-1.87875	1.13588	-1.32535	0.6262	-1.79462	0.286295	-2.76415	0.70823	-1.60614	1.1135	-2.00651	3.11509	-0.479011	2.16316	-1.86943	1.72973	-0.715475	
0.782806	2.73285	5	0	2.47179	-1.94417	1.20202	-1.32996	3.69523	-3.02304	1.19324	-1.27436	0.633037	-1.50542	0.897895	-1.82968	0.983445	-1.18531	0.876061	-1.87528	1.14114	-1.34022	0.626015	-1.80299	0.289624	-2.77356	0.714496	-1.62385	1.1135	-2.00651	3.11578	-0.472054	2.15013	-1.86362	1.72552	-0.71272	
0.781618	2.72827	5	0	2.47179	-1.94417	1.20297	-1.33266	3.68775	-3.02201	1.19521	-1.27992	0.630421	-1.50783	0.90029	-1.83645	0.984907	-1.18945	0.881417	-1.87181	1.1464	-1.3551	0.62583	-1.81136	0.292953	-2.78297	0.720763	-1.64156	1.1135	-2.00651	3.11647	-0.465097	2.13711	-1.85782	1.7213	-0.709966	
0.779764	2.73285	5	0	2.47005	-1.93926	1.21048	-1.33549	3.69523	-3.02304	1.20599	-1.27842	0.636602	-1.50569	0.905998	-1.82976	0.988183	-1.18205	0.890001	-1.8588	1.1464	-1.3551	0.62583	-1.81136	0.297561	-2.78357	0.720763	-1.64156	1.11238	-2.00335	3.12608	-0.456529	2.14424	-1.86248	1.71797	-0.709718	
0.777721	2.7359	5	0	2.46832	-1.93436	1.21799	-1.33832	3.70272	-3.02407	1.21677	-1.27692	0.642783	-1.50355	0.911705	-1.82308	0.991459	-1.17466	0.898585	-1.84579	1.1464	-1.3551	0.62583	-1.81136	0.302168	-2.78417	0.720763	-1.64156	1.11126	-2.00019	3.13569	-0.44796	2.15137	-1.86715	1.71465	-0.709469	
0.775967	2.7298	5	0	2.46658	-1.92946	1.22551	-1.34115	3.71021	-3.02511	1.22756	-1.27542	0.648963	-1.50141	0.917413	-1.8164	0.994736	-1.16727	0.907169	-1.83278	1.1464	-1.3551	0.62583	-1.81136	0.306776	-2.78477	0.720763	-1.64156	1.11014	-1.99702	3.14529	-0.439391	2.15851	-1.87181	1.71132	-0.709221	
0.774978	2.72674	5	0	2.46485	-1.92456	1.23302	-1.34398	3.71769	-3.02614	1.23834	-1.27392	0.655144	-1.49928	0.92312	-1.80972	0.998012	-1.15987	0.915753	-1.81977	1.1464	-1.3551	0.62583	-1.81136	0.311383	-2.78537	0.720763	-1.64156	1.10902	-1.99386	3.1549	-0.430823	2.16565	-1.87647	1.70799	-0.708972	
0.775229	2.72827	5	0	2.46658	-1.92946	1.23069	-1.34661	3.71947	-3.03116	1.23736	-1.28183	0.654915	-1.48882	0.924027	-1.78944	1.00129	-1.15247	0.925424	-1.80976	1.14465	-1.35014	0.623877	-1.80584	0.32078	-2.77462	0.721308	-1.6283	1.1162	-1.98638	3.16521	-0.415236	2.16904	-1.87055	1.71287	-0.704457	
0.776872	2.73132	5	0	2.46832	-1.93436	1.22837	-1.34925	3.72125	-3.03618	1.23639	-1.28974	0.654686	-1.47836	0.924934	-1.76917	1.00457	-1.14506	0.935094	-1.79974	1.14289	-1.34519	0.621925	-1.80032	0.330178	-2.76386	0.721853	-1.61504	1.12339	-1.97889	3.17553	-0.399649	2.17244	-1.86464	1.71776	-0.699941	
0.779508	2.74505	0	5	2.47005	-1.93926	1.22605	-1.35189	3.72302	-3.0412	1.23541	-1.29764	0.654458	-1.46791	0.925842	-1.74889	1.00784	-1.13766	0.944765	-1.78973	1.14114	-1.34023	0.619973	-1.7948	0.339575	-2.75311	0.722397	-1.60178	1.13057	-1.97141	3.18584	-0.384061	2.17583	-1.85872	1.72264	-0.695426	
0.782686	2.76337	0	5	2.47179	-1.94417	1.22372	-1.35452	3.7248	-3.04622	1.23444	-1.30555	0.654229	-1.45745	0.926749	-1.72862	1.01112	-1.13025	0.954435	-1.77971	1.13939	-1.33528	0.61802	-1.78929	0.348972	-2.74235	0.722942	-1.58852	1.13775	-1.96393	3.19616	-0.368474	2.17923	-1.8528	1.72752	-0.69091	
0.785954	2.78625	0	5	2.48258	-1.95498	1.22468	-1.35722	3.7248	-3.04622	1.24131	-1.31431	0.654229	-1.45745	0.929153	-1.73541	1.01587	-1.12698	0.959815	-1.77622	1.13276	-1.33856	0.614908	-1.78937	0.339743	-2.74115	0.719265	-1.59293	1.13472	-1.96925	3.20682	-0.371713	2.17119	-1.86111	1.72774	-0.700683	
0.78886	2.81067	0	5	2.49337	-1.9658	1.22564	-1.35992	3.7248	-3.04622	1.24818	-1.32307	0.654229	-1.45745	0.931557	-1.7422	1.02061	-1.12371	0.965194	-1.77272	1.12612	-1.34184	0.611795	-1.78946	0.330514	-2.73995	0.715588	-1.59733	1.13169	-1.97458	3.21748	-0.374952	2.16316	-1.86941	1.72796	-0.710456	
0.790952	2.83356	0	5	2.50416	-1.97662	1.22659	-1.36262	3.7248	-3.04622	1.25506	-1.33183	0.654229	-1.45745	0.93396	-1.749	1.02536	-1.12044	0.970574	-1.76922	1.11949	-1.34512	0.608683	-1.78955	0.321284	-2.73875	0.711912	-1.60174	1.12865	-1.97991	3.22815	-0.378191	2.15512	-1.87771	1.72817	-0.720228	
0.791878	2.85644	0	5	2.51495	-1.98744	1.22755	-1.36532	3.7248	-3.04622	1.26193	-1.34059	0.654229	-1.45745	0.936364	-1.75579	1.0301	-1.11717	0.975954	-1.76573	1.11285	-1.3484	0.60557	-1.78964	0.312055	-2.73755	0.708235	-1.60615	1.12562	-1.98523	3.23881	-0.38143	2.14708	-1.88602	1.72839	-0.730001	
0.791733	2.87628	0	5	2.50936	-1.99131	1.22796	-1.35728	3.73052	-3.04223	1.26487	-1.32756	0.660417	-1.4553	0.942079	-1.74908	1.02717	-1.10887	0.981339	-1.76223	1.11285	-1.3484	0.607706	-1.78679	0.321284	-2.73875	0.71348	-1.60617	1.12898	-1.99473	3.23857	-0.416613	2.14245	-1.8884	1.73349	-0.735259	
0.790728	2.89459	0	5	2.50377	-1.99519	1.22837	-1.34925	3.73624	-3.03825	1.26782	-1.31453	0.666605	-1.45315	0.947794	-1.74236	1.02423	-1.10058	0.986724	-1.75873	1.11285	-1.3484	0.609842	-1.78394	0.330514	-2.73995	0.718724	-1.6062	1.13234	-2.00422	3.23834	-0.451797	2.13781	-1.89079	1.73859	-0.740517	
0.78908	2.90527	0	5	2.49817	-1.99906	1.22878	-1.34121	3.74196	-3.03427	1.27076	-1.30151	0.672794	-1.451	0.95351	-1.73564	1.0213	-1.09228	0.992109	-1.75523	1.11285	-1.3484	0.611978	-1.78109	0.339743	-2.74115	0.723969	-1.60622	1.1357	-2.01372	3.2381	-0.48698	2.13317	-1.89317	1.74369	-0.745774	
0.787001	2.91748	0	5	2.49258	-2.00294	1.22919	-1.33317	3.74768	-3.03029	1.27371	-1.28848	0.678982	-1.44886	0.959225	-1.72893	1.01836	-1.08398	0.997494	-1.75173	1.11285	-1.3484	0.614114	-1.77824	0.348972	-2.74235	0.729214	-1.60624	1.13906	-2.02322	3.23786	-0.522163	2.12853	-1.89556	1.7488	-0.751032	
0.784707	2.92816	0	5	2.48141	-2.01067	1.23206	-1.34127	3.74018	-3.02925	1.26585	-1.2983	0.664715	-1.44779	0.9478	-1.74235	1.01215	-1.08312	0.984578	-1.75264	1.11285	-1.3484	0.61216	-1.77272	0.339905	-2.72917	0.729214	-1.60624	1.13043	-2.01271	3.22666	-0.535218	2.12729	-1.89204	1.7528	-0.744022	
0.782406	2.93732	0	5	2.47025	-2.01841	1.23493	-1.34938	3.73269	-3.02822	1.258	-1.30812	0.650448	-1.44672	0.936376	-1.75577	1.00594	-1.08225	0.971662	-1.75356	1.11285	-1.3484	0.610205	-1.7672	0.330838	-2.71599	0.729214	-1.60624	1.1218	-2.00221	3.21545	-0.548273	2.12604	-1.88851	1.75681	-0.737011	
0.780241	2.95105	0	5	2.45908	-2.02614	1.23779	-1.35748	3.72519	-3.02718	1.25015	-1.31794	0.63618	-1.44565	0.924951	-1.76919	0.999731	-1.08138	0.958746	-1.75448	1.11285	-1.3484	0.608251	-1.76168	0.321771	-2.70282	0.729214	-1.60624	1.11317	-1.9917	3.20425	-0.561328	2.1248	-1.88499	1.76081	-0.730001	
0.778318	2.95715	0	5	2.44791	-2.03388	1.24066	-1.36559	3.71769	-3.02614	1.2423	-1.32776	0.621913	-1.44458	0.913526	-1.78261	0.993521	-1.08051	0.94583	-1.7554	1.11285	-1.3484	0.606297	-1.75615	0.312704	-2.68964	0.729214	-1.60624	1.10454	-1.9812	3.19305	-0.574383	2.12355	-1.88147	1.76482	-0.72299	
0.776741	2.96783	0	5	2.44964	-2.03876	1.24162	-1.36829	3.71769	-3.02614	1.24524	-1.33608	0.621197	-1.45236	0.902124	-1.79598	0.993521	-1.08051	0.939385	-1.7652	1.1111	-1.34345	0.603185	-1.75624	0.316043	-2.69907	0.725536	-1.61065	1.10152	-1.98652	3.18979	-0.574102	2.12853	-1.89555	1.76592	-0.735259	
0.775615	2.98309	0	5	2.45137	-2.04364	1.24257	-1.37099	3.71769	-3.02614	1.24818	-1.3444	0.620481	-1.46014	0.890721	-1.80935	0.993521	-1.08051	0.93294	-1.775	1.10935	-1.3385	0.600073	-1.75633	0.319381	-2.70851	0.721858	-1.61505	1.09849	-1.99184	3.18653	-0.573822	2.13351	-1.90962	1.76702	-0.747528	
0.775044	2.98462	5	0	2.45309	-2.04852	1.24353	-1.37369	3.71769	-3.02614	1.25113	-1.35273	0.619765	-1.46792	0.879319	-1.82272	0.993521	-1.08051	0.926495	-1.7848	1.1076	-1.33355	0.596962	-1.75642	0.322719	-2.71794	0.718179	-1.61945	1.09546	-1.99716	3.18327	-0.573542	2.13849	-1.9237	1.76811	-0.759797	
0.775128	2.99835	5	0	2.45482	-2.0534	1.24448	-1.37639	3.71769	-3.02614	1.25407	-1.36105	0.619049	-1.47569	0.867917	-1.83609	0.993521	-1.08051	0.92005	-1.7946	1.10585	-1.3286	0.59385	-1.75651	0.326058	-2.72738	0.714501	-1.62386	1.09244	-2.00248	3.18001	-0.573261	2.14347	-1.93777	1.76921	-0.772066	
0.77584	2.9953	5	0	2.44407	-2.04262	1.24394	-1.36565	3.71414	-3.0161	1.25309	-1.3476	0.631412	-1.4714	0.873616	-1.82941	0.996793	-1.07308	0.923272	-1.79437	1.11072	-1.32035	0.599097	-1.75357	0.322719	-2.71794	0.711368	-1.615	1.09355	-2.00564	3.18724	-0.56688	2.14596	-1.9448	1.77363	-0.784569	
0.777027	2.99225	5	0	2.43331	-2.03184	1.2434	-1.35491	3.71059	-3.00605	1.25211	-1.33416	0.643776	-1.46711	0.879314	-1.82273	1.00006	-1.06564	0.926494	-1.79414	1.1156	-1.3121	0.604345	-1.75063	0.319381	-2.70851	0.708234	-1.60615	1.09467	-2.0088	3.19446	-0.560499	2.14845	-1.95183	1.77806	-0.797071	
0.778528	2.98309	5	0	2.42255	-2.02106	1.24285	-1.34417	3.70703	-2.996	1.25112	-1.32072	0.656139	-1.46281	0.885012	-1.81605	1.00334	-1.05821	0.929716	-1.79391	1.12048	-1.30385	0.609592	-1.74768	0.316043	-2.69907	0.705101	-1.59729	1.09579	-2.01196	3.20169	-0.554117	2.15093	-1.95886	1.78248	-0.809574	
0.780184	2.97851	5	0	2.4118	-2.01028	1.24231	-1.33343	3.70348	-2.98596	1.25014	-1.30727	0.668502	-1.45852	0.890711	-1.80937	1.00661	-1.05077	0.932938	-1.79369	1.12535	-1.29561	0.614839	-1.74474	0.312704	-2.68964	0.701967	-1.58844	1.09691	-2.01512	3.20892	-0.547736	2.15342	-1.96589	1.7869	-0.822076	
0.781835	2.96783	5	0	2.42083	-2.01618	1.24518	-1.34154	3.70525	-2.99098	1.25505	-1.32115	0.674921	-1.46684	0.89789	-1.82966	1.01282	-1.05164	0.936162	-1.79346	1.12008	-1.28071	0.611904	-1.73644	0.308247	-2.67704	0.697261	-1.57514	1.09243	-2.00247	3.21686	-0.534379	2.13918	-1.95659	1.78514	-0.817077	
0.783322	2.96326	5	0	2.42986	-2.02208	1.24805	-1.34964	3.70703	-2.99601	1.25996	-1.33503	0.68134	-1.47516	0.905069	-1.84995	1.01904	-1.0525	0.939385	-1.79323	1.11481	-1.26581	0.608968	-1.72815	0.30379	-2.66444	0.692555	-1.56184	1.08796	-1.98982	3.2248	-0.521022	2.12494	-1.94728	1.78337	-0.812079	
0.784525	2.948	5	0	2.43888	-2.02798	1.25092	-1.35775	3.70881	-3.00103	1.26487	-1.34891	0.687759	-1.48348	0.912248	-1.87024	1.02525	-1.05337	0.942609	-1.793	1.10954	-1.25092	0.606032	-1.71985	0.299333	-2.65185	0.68785	-1.54854	1.08348	-1.97716	3.23274	-0.507665	2.1107	-1.93798	1.7816	-0.80708	
0.785402	2.94189	5	0	2.44791	-2.03388	1.25379	-1.36586	3.71059	-3.00606	1.26978	-1.36278	0.694178	-1.4918	0.919427	-1.89053	1.03147	-1.05424	0.945833	-1.79278	1.10427	-1.23602	0.603097	-1.71156	0.294876	-2.63925	0.683144	-1.53524	1.079	-1.96451	3.24068	-0.494308	2.09646	-1.92867	1.77983	-0.802081	
0.785924	2.93732	5	0	2.44273	-2.01922	1.24955	-1.36309	3.71059	-3.00606	1.26487	-1.35958	0.696801	-1.48939	0.919427	-1.89053	1.03474	-1.04679	0.95121	-1.78928	1.1109	-1.23271	0.604252	-1.70593	0.299489	-2.63984	0.686814	-1.53081	1.08124	-1.97084	3.25035	-0.48575	2.09895	-1.93569	1.7716	-0.806309	
0.786059	2.93274	5	0	2.43754	-2.00456	1.24531	-1.36032	3.71059	-3.00606	1.25997	-1.35637	0.699425	-1.48698	0.919427	-1.89053	1.03802	-1.03934	0.956588	-1.78579	1.11753	-1.2294	0.605406	-1.7003	0.304103	-2.64044	0.690485	-1.52639	1.08348	-1.97717	3.26001	-0.477191	2.10143	-1.94272	1.76338	-0.810538	
0.785777	2.92816	5	0	2.43235	-1.9899	1.24108	-1.35755	3.71059	-3.00606	1.25506	-1.35316	0.702048	-1.48457	0.919427	-1.89053	1.0413	-1.03189	0.961966	-1.7823	1.12416	-1.22609	0.606561	-1.69467	0.308716	-2.64103	0.694155	-1.52196	1.08572	-1.9835	3.26968	-0.468633	2.10392	-1.94974	1.75515	-0.814766	
0.785047	2.90985	5	0	2.42716	-1.97524	1.23684	-1.35479	3.71059	-3.00606	1.25015	-1.34996	0.704672	-1.48216	0.919427	-1.89053	1.04458	-1.02444	0.967343	-1.7788	1.1308	-1.22277	0.607716	-1.68904	0.313329	-2.64162	0.697826	-1.51753	1.08796	-1.98982	3.27934	-0.460074	2.1064	-1.95677	1.74692	-0.818994	
0.783876	2.90832	5	0	2.431	-1.96646	1.23916	-1.35215	3.70703	-2.996	1.25211	-1.34484	0.714226	-1.4698	0.92035	-1.87033	1.05408	-1.01784	0.973803	-1.76899	1.13391	-1.20949	0.61314	-1.67766	0.323837	-2.63393	0.696776	-1.49976	1.08684	-1.98666	3.28887	-0.442061	2.1064	-1.95677	1.74359	-0.818739	
0.782448	2.90527	5	0	2.43485	-1.95768	1.24149	-1.34951	3.70348	-2.98595	1.25407	-1.33972	0.72378	-1.45745	0.921274	-1.85012	1.06359	-1.01124	0.980263	-1.75917	1.13702	-1.19621	0.618564	-1.66629	0.334346	-2.62624	0.695727	-1.48198	1.08572	-1.9835	3.29839	-0.424048	2.1064	-1.95677	1.74027	-0.818483	
0.780999	2.90069	5	0	2.43869	-1.9489	1.24381	-1.34688	3.69992	-2.9759	1.25604	-1.3346	0.733335	-1.44509	0.922197	-1.82992	1.0731	-1.00465	0.986723	-1.74936	1.14014	-1.18293	0.623988	-1.65491	0.344854	-2.61855	0.694678	-1.4642	1.0846	-1.98033	3.30792	-0.406034	2.1064	-1.95677	1.73694	-0.818227	
0.779763	2.89612	5	0	2.44253	-1.94012	1.24614	-1.34424	3.69636	-2.96585	1.258	-1.32949	0.742889	-1.43274	0.92312	-1.80972	1.08261	-0.998053	0.993183	-1.73954	1.14325	-1.16964	0.629412	-1.64354	0.355362	-2.61086	0.693628	-1.44642	1.08348	-1.97717	3.31744	-0.388021	2.1064	-1.95677	1.73361	-0.817972	
0.778977	2.89307	5	0	2.4408	-1.93522	1.24381	-1.34688	3.69814	-2.97088	1.25113	-1.3314	0.747424	-1.4357	0.925517	-1.81649	1.08885	-0.998922	0.998572	-1.73604	1.14149	-1.16466	0.629582	-1.63511	0.359988	-2.61145	0.70045	-1.45088	1.079	-1.9645	3.31868	-0.364507	2.09094	-1.94397	1.72431	-0.809976	
0.778874	2.88544	5	0	2.43906	-1.93032	1.24149	-1.34951	3.69992	-2.97591	1.24426	-1.33331	0.751958	-1.43866	0.927914	-1.82327	1.09509	-0.999791	1.00396	-1.73253	1.13972	-1.15967	0.629752	-1.62668	0.364614	-2.61204	0.707273	-1.45534	1.07452	-1.95183	3.31992	-0.340992	2.07549	-1.93117	1.71501	-0.80198	
0.779658	2.88086	5	0	2.43733	-1.92542	1.23916	-1.35215	3.7017	-2.98093	1.2374	-1.33522	0.756493	-1.44162	0.93031	-1.83004	1.10132	-1.00066	1.00935	-1.72902	1.13796	-1.15468	0.629923	-1.61826	0.369239	-2.61264	0.714095	-1.4598	1.07003	-1.93917	3.32116	-0.317477	2.06003	-1.91836	1.70571	-0.793984	
0.781213	2.88086	5	0	2.4356	-1.92052	1.23684	-1.35479	3.70348	-2.98596	1.23053	-1.33713	0.761027	-1.44459	0.932707	-1.83681	1.10756	-1.00153	1.01474	-1.72552	1.13619	-1.14969	0.630093	-1.60983	0.373865	-2.61323	0.720918	-1.46426	1.06555	-1.9265	3.3224	-0.293963	2.04457	-1.90556	1.69641	-0.785988	
0.783248	2.88391	5	0	2.43213	-1.91071	1.23356	-1.35472	3.70348	-2.98596	1.23543	-1.34034	0.768198	-1.44513	0.940822	-1.83691	1.10461	-0.993184	1.01797	-1.7159	1.14283	-1.14636	0.633381	-1.60129	0.371628	-2.60691	0.717766	-1.45535	1.06667	-1.92967	3.32707	-0.280129	2.04581	-1.90908	1.69397	-0.788232	
0.785468	2.87628	5	0	2.42865	-1.9009	1.23028	-1.35465	3.70348	-2.98596	1.24034	-1.34354	0.775369	-1.44568	0.948937	-1.837	1.10165	-0.984838	1.02121	-1.70628	1.14947	-1.14302	0.636668	-1.59274	0.369391	-2.60059	0.714614	-1.44644	1.06779	-1.93284	3.33175	-0.266296	2.04705	-1.91259	1.69153	-0.790477	
0.78758	2.87628	5	0	2.42518	-1.89109	1.227	-1.35459	3.70348	-2.98596	1.24524	-1.34675	0.78254	-1.44623	0.957053	-1.8371	1.0987	-0.976491	1.02444	-1.69666	1.15612	-1.13969	0.639956	-1.5842	0.367153	-2.59426	0.711461	-1.43753	1.06892	-1.936	3.33643	-0.252462	2.04829	-1.9161	1.68909	-0.792721	
0.78929	2.87781	5	0	2.42171	-1.88129	1.22372	-1.35452	3.70348	-2.98596	1.25015	-1.34996	0.789711	-1.44677	0.965168	-1.83719	1.09575	-0.968145	1.02768	-1.68705	1.16276	-1.13635	0.643243	-1.57566	0.364916	-2.58794	0.708309	-1.42862	1.07004	-1.93917	3.34111	-0.238628	2.04954	-1.91961	1.68665	-0.794965	
0.790309	2.87781	5	0	2.41824	-1.87147	1.21526	-1.34899	3.69421	-2.97991	1.23838	-1.34866	0.78853	-1.43356	0.955563	-1.81005	1.09279	-0.959791	1.03091	-1.67741	1.15922	-1.12635	0.643408	-1.56721	0.368573	-2.57329	0.714076	-1.41524	1.07306	-1.93384	3.34318	-0.217398	2.04581	-1.90907	1.6798	-0.78473	
0.790575	2.88238	5	0	2.41476	-1.86165	1.2068	-1.34346	3.68495	-2.97385	1.22662	-1.34737	0.787349	-1.42036	0.945959	-1.78291	1.08983	-0.951437	1.03414	-1.66777	1.15569	-1.11636	0.643573	-1.55875	0.372229	-2.55864	0.719843	-1.40186	1.07608	-1.9285	3.34525	-0.196169	2.04208	-1.89853	1.67295	-0.774494	
0.790317	2.88696	5	0	2.41129	-1.85183	1.19834	-1.33793	3.67569	-2.9678	1.21485	-1.34607	0.786167	-1.40715	0.936354	-1.75576	1.08688	-0.943082	1.03738	-1.65813	1.15215	-1.10637	0.643738	-1.5503	0.375885	-2.54399	0.725611	-1.38847	1.0791	-1.92316	3.34733	-0.17494	2.03835	-1.888	1.6661	-0.764258	
0.789786	2.88849	5	0	2.40782	-1.84201	1.18988	-1.3324	3.66643	-2.96175	1.20309	-1.34478	0.784986	-1.39395	0.926749	-1.72862	1.08392	-0.934728	1.04061	-1.6485	1.14861	-1.09637	0.643903	-1.54184	0.379542	-2.52934	0.731378	-1.37509	1.08212	-1.91783	3.3494	-0.15371	2.03462	-1.87746	1.65924	-0.754023	
0.789229	2.88696	5	0	2.40782	-1.84201	1.19083	-1.3351	3.6682	-2.96677	1.20113	-1.34989	0.786895	-1.39934	0.933955	-1.74898	1.0854	-0.938906	1.03953	-1.64544	1.15038	-1.10137	0.643903	-1.54184	0.382906	-2.53884	0.729283	-1.38402	1.07272	-1.91899	3.34506	-0.141441	2.03001	-1.87985	1.64929	-0.753281	
0.788897	2.88849	5	0	2.40782	-1.84201	1.19179	-1.3378	3.66998	-2.9718	1.19917	-1.355	0.788803	-1.40474	0.941161	-1.76935	1.08688	-0.943084	1.03844	-1.64238	1.15215	-1.10637	0.643903	-1.54184	0.386269	-2.54835	0.727189	-1.39294	1.06332	-1.92016	3.34072	-0.129172	2.0254	-1.88223	1.63935	-0.752538	
0.789038	2.89001	0	5	2.40782	-1.84201	1.19274	-1.3405	3.67176	-2.97682	1.19722	-1.3601	0.790712	-1.41013	0.948368	-1.78972	1.08836	-0.947262	1.03736	-1.63932	1.15392	-1.11137	0.643903	-1.54184	0.389632	-2.55786	0.725094	-1.40187	1.05392	-1.92133	3.33638	-0.116903	2.02078	-1.88462	1.6294	-0.751796	
0.789774	2.88544	0	5	2.40782	-1.84201	1.1937	-1.3432	3.67354	-2.98185	1.19526	-1.36521	0.792621	-1.41552	0.955574	-1.81008	1.08984	-0.95144	1.03628	-1.63626	1.15569	-1.11637	0.643903	-1.54184	0.392996	-2.56736	0.723	-1.4108	1.04451	-1.9225	3.33204	-0.104634	2.01617	-1.88701	1.61945	-0.751053	
0.790837	2.88391	0	5	2.40608	-1.83709	1.19602	-1.34057	3.66251	-2.97078	1.19525	-1.35456	0.789758	-1.40743	0.958893	-1.79659	1.09755	-0.956484	1.03518	-1.62377	1.14551	-1.10972	0.642917	-1.53905	0.390754	-2.56103	0.719842	-1.40187	1.04451	-1.9225	3.34086	-0.0933893	2.01493	-1.8835	1.61526	-0.748312	
0.791881	2.88238	0	5	2.40434	-1.83218	1.19834	-1.33793	3.65148	-2.95971	1.19525	-1.34391	0.786894	-1.39934	0.962211	-1.7831	1.10527	-0.961529	1.03409	-1.61128	1.13534	-1.10307	0.641931	-1.53627	0.388512	-2.55469	0.716684	-1.39295	1.04451	-1.9225	3.34969	-0.0821445	2.01368	-1.87998	1.61106	-0.745571	
0.792562	2.87933	0	5	2.4026	-1.82727	1.20065	-1.33529	3.64045	-2.94864	1.19525	-1.33326	0.78403	-1.39125	0.96553	-1.76961	1.11299	-0.966573	1.03299	-1.59879	1.12516	-1.09642	0.640945	-1.53348	0.38627	-2.54835	0.713525	-1.38402	1.04451	-1.9225	3.35851	-0.0708997	2.01244	-1.87647	1.60687	-0.74283	
0.792534	2.8717	0	5	2.40086	-1.82235	1.20297	-1.33266	3.62942	-2.93757	1.19524	-1.3226	0.781167	-1.38315	0.968848	-1.75612	1.12071	-0.971617	1.0319	-1.5863	1.11499	-1.08977	0.639959	-1.53069	0.384028	-2.54202	0.710367	-1.37509	1.04451	-1.9225	3.36733	-0.059655	2.0112	-1.87296	1.60267	-0.740089	
0.791454	2.8656	0	5	2.41165	-1.83318	1.19834	-1.33793	3.63119	-2.94259	1.19427	-1.33049	0.779257	-1.37775	0.95351	-1.73564	1.11776	-0.963259	1.02864	-1.57709	1.11676	-1.09477	0.635852	-1.52801	0.380662	-2.53251	0.712457	-1.36615	1.05055	-1.91181	3.3718	-0.0360292	2.01208	-1.86001	1.60245	-0.730345	
0.789037	2.86255	0	5	2.42243	-1.844	1.1937	-1.3432	3.63297	-2.94761	1.19329	-1.33837	0.777346	-1.37235	0.938172	-1.71516	1.1148	-0.9549	1.02539	-1.56789	1.11852	-1.09976	0.631746	-1.52533	0.377296	-2.52299	0.714546	-1.35721	1.05658	-1.90112	3.37627	-0.0124035	2.01295	-1.84707	1.60223	-0.720601	
0.785509	2.85644	0	5	2.43322	-1.85483	1.18906	-1.34847	3.63475	-2.95264	1.19232	-1.34626	0.775435	-1.36695	0.922833	-1.69468	1.11184	-0.946542	1.02213	-1.55869	1.12029	-1.10476	0.62764	-1.52264	0.373931	-2.51348	0.716636	-1.34827	1.06261	-1.89044	3.38074	0.0112223	2.01383	-1.83413	1.602	-0.710857	
0.781349	2.85187	0	5	2.44401	-1.86566	1.18443	-1.35374	3.63653	-2.95766	1.19134	-1.35414	0.773525	-1.36156	0.907495	-1.6742	1.10888	-0.938184	1.01887	-1.54949	1.12206	-1.10976	0.623533	-1.51996	0.370565	-2.50397	0.718726	-1.33933	1.06865	-1.87975	3.38521	0.034848	2.01471	-1.82118	1.60178	-0.701113	
0.777041	2.84881	0	5	2.44401	-1.86566	1.18538	-1.35644	3.63653	-2.95766	1.19232	-1.35691	0.779025	-1.36722	0.907495	-1.6742	1.1074	-0.934002	1.02211	-1.54924	1.12383	-1.11475	0.617298	-1.52017	0.3693	-2.51289	0.715056	-1.34381	1.06037	-1.8841	3.38501	0.044483	1.99592	-1.81431	1.59604	-0.703125	
0.773067	2.84576	0	5	2.44401	-1.86566	1.18633	-1.35914	3.63653	-2.95766	1.1933	-1.35968	0.784524	-1.37289	0.907495	-1.6742	1.10592	-0.92982	1.02535	-1.549	1.12559	-1.11974	0.611063	-1.52038	0.368036	-2.52181	0.711386	-1.34828	1.0521	-1.88845	3.38481	0.054118	1.97713	-1.80745	1.59031	-0.705137	
0.76991	2.83508	0	5	2.44401	-1.86566	1.18729	-1.36184	3.63653	-2.95766	1.19428	-1.36245	0.790023	-1.37856	0.907495	-1.6742	1.10444	-0.925639	1.02859	-1.54876	1.12736	-1.12474	0.604827	-1.52059	0.366772	-2.53074	0.707715	-1.35275	1.04382	-1.89279	3.38461	0.063753	1.95834	-1.80058	1.58457	-0.70715	
0.768022	2.83203	0	5	2.44401	-1.86566	1.18824	-1.36454	3.63653	-2.95766	1.19526	-1.36521	0.795523	-1.38423	0.907495	-1.6742	1.10296	-0.921457	1.03184	-1.54852	1.12913	-1.12973	0.598592	-1.5208	0.365507	-2.53966	0.704045	-1.35723	1.03554	-1.89714	3.38442	0.073388	1.93955	-1.79371	1.57883	-0.709162	
0.767416	2.83203	0	5	2.44227	-1.86074	1.18442	-1.35374	3.644	-2.95868	1.19819	-1.35222	0.801751	-1.38207	0.923737	-1.67434	1.10773	-0.918136	1.0329	-1.54213	1.12073	-1.12808	0.597447	-1.52647	0.362001	-2.54224	0.697217	-1.35277	1.03253	-1.90248	3.38927	0.0778295	1.94204	-1.80074	1.5731	-0.711173	
0.767775	2.8305	0	5	2.44053	-1.85583	1.1806	-1.34294	3.65148	-2.95971	1.20112	-1.33922	0.80798	-1.37991	0.939979	-1.67448	1.11249	-0.914814	1.03397	-1.53574	1.11233	-1.12643	0.596302	-1.53215	0.358494	-2.54482	0.690389	-1.34831	1.02952	-1.90782	3.39412	0.082271	1.94452	-1.80777	1.56737	-0.713185	
0.768774	2.82898	0	5	2.43879	-1.85091	1.17678	-1.33215	3.65895	-2.96073	1.20406	-1.32622	0.814208	-1.37775	0.95622	-1.67462	1.11726	-0.911493	1.03504	-1.52936	1.10394	-1.12478	0.595156	-1.53782	0.354988	-2.54739	0.683561	-1.34384	1.02651	-1.91316	3.39898	0.0867125	1.94701	-1.81481	1.56164	-0.715197	
0.770087	2.8183	0	5	2.43705	-1.846	1.17296	-1.32135	3.66643	-2.96175	1.20699	-1.31322	0.820436	-1.37559	0.972462	-1.67476	1.12202	-0.908172	1.03611	-1.52297	1.09554	-1.12313	0.594011	-1.54349	0.351481	-2.54997	0.676733	-1.33938	1.02349	-1.9185	3.40383	0.091154	1.9495	-1.82184	1.55591	-0.717208	
0.771389	2.81372	0	5	2.43322	-1.85482	1.17487	-1.32675	3.65149	-2.95971	1.20503	-1.31834	0.815163	-1.38045	0.977283	-1.68838	1.1235	-0.912358	1.03828	-1.52912	1.09907	-1.1331	0.587784	-1.5437	0.346857	-2.54938	0.669911	-1.33492	1.02013	-1.909	3.40694	0.100562	1.93534	-1.81259	1.54908	-0.706985	
0.772361	2.81372	0	5	2.42938	-1.86364	1.17678	-1.33215	3.63655	-2.95767	1.20308	-1.32346	0.80989	-1.38531	0.982104	-1.70201	1.12499	-0.916543	1.04045	-1.53526	1.1026	-1.14307	0.581558	-1.54391	0.342234	-2.5488	0.663088	-1.33047	1.01677	-1.89949	3.41004	0.109971	1.92119	-1.80334	1.54224	-0.696762	
0.77287	2.80762	0	5	2.42555	-1.87246	1.17869	-1.33755	3.62161	-2.95563	1.20112	-1.32858	0.804616	-1.39017	0.986924	-1.71563	1.12647	-0.920729	1.04263	-1.5414	1.10612	-1.15305	0.575331	-1.54412	0.33761	-2.54821	0.656265	-1.32601	1.0134	-1.88998	3.41315	0.11938	1.90703	-1.79408	1.53541	-0.68654	
0.773007	2.80914	0	5	2.42171	-1.88129	1.1806	-1.34295	3.60667	-2.95359	1.19917	-1.33369	0.799343	-1.39503	0.991745	-1.72925	1.12795	-0.924915	1.0448	-1.54755	1.10965	-1.16302	0.569105	-1.54433	0.332987	-2.54762	0.649443	-1.32155	1.01004	-1.88048	3.41625	0.128788	1.89287	-1.78483	1.52857	-0.676317	
0.772877	2.80762	0	5	2.42171	-1.88129	1.17829	-1.34559	3.60667	-2.95359	1.20015	-1.33646	0.806753	-1.40609	0.994153	-1.73606	1.12647	-0.920729	1.04265	-1.55086	1.10126	-1.16137	0.562725	-1.55298	0.328222	-2.55909	0.648943	-1.33495	1.00291	-1.88799	3.41207	0.131523	1.88371	-1.78965	1.5255	-0.685817	
0.772585	2.79999	0	5	2.42171	-1.88129	1.17597	-1.34822	3.60667	-2.95359	1.20113	-1.33924	0.814163	-1.41716	0.99656	-1.74286	1.12499	-0.916543	1.04049	-1.55417	1.09288	-1.15972	0.556346	-1.56163	0.323458	-2.57056	0.648443	-1.34835	0.995772	-1.89551	3.40788	0.134257	1.87454	-1.79446	1.52243	-0.695317	
0.772236	2.80151	0	5	2.42171	-1.88129	1.17366	-1.35086	3.60667	-2.95359	1.20211	-1.34201	0.821573	-1.42822	0.998968	-1.74967	1.1235	-0.912358	1.03834	-1.55748	1.08449	-1.15807	0.549967	-1.57028	0.318694	-2.58203	0.647942	-1.36174	0.988638	-1.90302	3.4037	0.136991	1.86538	-1.79927	1.51935	-0.704817	
0.771932	2.79846	0	5	2.42171	-1.88129	1.17134	-1.35349	3.60667	-2.95359	1.20309	-1.34478	0.828983	-1.43928	1.00138	-1.75647	1.12202	-0.908172	1.03618	-1.56079	1.0761	-1.15642	0.543587	-1.57892	0.313929	-2.5935	0.647442	-1.37514	0.981504	-1.91053	3.39951	0.139726	1.85621	-1.80408	1.51628	-0.714317	
0.771716	2.79693	0	5	2.42171	-1.88129	1.17079	-1.34276	3.60667	-2.95359	1.2021	-1.33134	0.833309	-1.43174	1.00229	-1.73612	1.12679	-0.904848	1.03618	-1.56079	1.0761	-1.15642	0.542444	-1.58458	0.315046	-2.59665	0.647442	-1.37514	0.982624	-1.9137	3.40768	0.143934	1.85288	-1.80999	1.51057	-0.716329	
0.771506	2.79388	0	5	2.42171	-1.88129	1.17024	-1.33202	3.60667	-2.95359	1.20111	-1.3179	0.837635	-1.42419	1.00319	-1.71576	1.13156	-0.901523	1.03618	-1.56079	1.0761	-1.15642	0.5413	-1.59023	0.316164	-2.59981	0.647442	-1.37514	0.983743	-1.91686	3.41585	0.148143	1.84954	-1.8159	1.50485	-0.718341	
0.77121	2.79083	0	5	2.42171	-1.88129	1.16969	-1.32129	3.60667	-2.95359	1.20012	-1.30446	0.841962	-1.41665	1.0041	-1.69541	1.13633	-0.898198	1.03618	-1.56079	1.0761	-1.15642	0.540156	-1.59588	0.317281	-2.60297	0.647442	-1.37514	0.984862	-1.92003	3.42401	0.152352	1.84621	-1.82181	1.49914	-0.720354	
0.770733	2.78931	0	5	2.42171	-1.88129	1.16914	-1.31055	3.60667	-2.95359	1.19913	-1.29102	0.846288	-1.4091	1.00501	-1.67505	1.1411	-0.894874	1.03618	-1.56079	1.0761	-1.15642	0.539013	-1.60153	0.318398	-2.60613	0.647442	-1.37514	0.985982	-1.92319	3.43218	0.15656	1.84287	-1.82772	1.49343	-0.722366	
0.769982	2.78778	0	5	2.41441	-1.88029	1.1701	-1.31325	3.59921	-2.95258	1.2011	-1.29657	0.844602	-1.41422	1.01225	-1.6955	1.14258	-0.899064	1.03511	-1.56717	1.07786	-1.1614	0.533784	-1.60451	0.309171	-2.60495	0.635401	-1.3707	0.981502	-1.91053	3.43109	0.168743	1.82753	-1.815	1.4866	-0.712163	
0.768864	2.78931	0	5	2.40711	-1.87929	1.17105	-1.31595	3.59175	-2.95156	1.20306	-1.30212	0.842916	-1.41935	1.01948	-1.71594	1.14406	-0.903253	1.03404	-1.57354	1.07963	-1.16638	0.528555	-1.60749	0.299944	-2.60377	0.623361	-1.36626	0.977021	-1.89786	3.43	0.180926	1.81219	-1.80228	1.47978	-0.701959	
0.767371	2.79846	0	5	2.39981	-1.87828	1.17201	-1.31865	3.58429	-2.95055	1.20503	-1.30767	0.84123	-1.42447	1.02671	-1.73639	1.14555	-0.907443	1.03297	-1.57992	1.08139	-1.17136	0.523325	-1.61047	0.290716	-2.6026	0.611321	-1.36182	0.972541	-1.8852	3.42891	0.193109	1.79685	-1.78956	1.47296	-0.691755	
0.765755	2.7832	0	5	2.3925	-1.87729	1.17296	-1.32135	3.57684	-2.94954	1.20699	-1.31322	0.839544	-1.4296	1.03395	-1.75683	1.14703	-0.911633	1.0319	-1.5863	1.08315	-1.17633	0.518096	-1.61344	0.281489	-2.60142	0.59928	-1.35738	0.96806	-1.87254	3.42782	0.205292	1.78151	-1.77684	1.46614	-0.681552	
0.764312	2.79236	0	5	2.39077	-1.87238	1.17105	-1.31595	3.5584	-2.93749	1.20895	-1.3081	0.84314	-1.42987	1.02913	-1.74321	1.14406	-0.903251	1.03514	-1.58606	1.08315	-1.17633	0.517116	-1.61067	0.287217	-2.60516	0.604509	-1.35737	0.966179	-1.88104	3.43114	0.205042	1.77819	-1.78275	1.46044	-0.683572	
0.763338	2.78625	0	5	2.38903	-1.86747	1.16914	-1.31055	3.53997	-2.92544	1.2109	-1.30298	0.846737	-1.43015	1.02431	-1.72958	1.1411	-0.89487	1.03838	-1.58582	1.08315	-1.17633	0.516135	-1.6079	0.292945	-2.6089	0.609738	-1.35736	0.964298	-1.88955	3.43445	0.204792	1.77487	-1.78867	1.45473	-0.685593	
0.763131	2.79083	0	5	2.3873	-1.86257	1.16723	-1.30515	3.52153	-2.9134	1.21286	-1.29785	0.850333	-1.43042	1.01949	-1.71596	1.13813	-0.886489	1.04162	-1.58558	1.08315	-1.17633	0.515154	-1.60513	0.298674	-2.61265	0.614967	-1.35735	0.962416	-1.89806	3.43776	0.204541	1.77155	-1.79458	1.44903	-0.687613	
0.763988	2.78931	0	5	2.38556	-1.85766	1.16532	-1.29974	3.5031	-2.90135	1.21482	-1.29273	0.85393	-1.4307	1.01466	-1.70233	1.13517	-0.878107	1.04486	-1.58534	1.08315	-1.17633	0.514174	-1.60236	0.304402	-2.61639	0.620196	-1.35734	0.960535	-1.90656	3.44107	0.204291	1.76823	-1.80049	1.44333	-0.689633	
0.766073	2.79083	0	5	2.36404	-1.83605	1.16668	-1.2944	3.49212	-2.89032	1.20891	-1.27605	0.858035	-1.4126	1.02372	-1.682	1.13845	-0.870578	1.05134	-1.57541	1.07962	-1.16637	0.517438	-1.59383	0.313787	-2.60552	0.625927	-1.34392	0.960535	-1.90656	3.44506	0.211265	1.76823	-1.80049	1.44333	-0.689633	
0.769009	2.79236	0	5	2.34252	-1.81444	1.16803	-1.28905	3.48114	-2.87929	1.20301	-1.25938	0.862139	-1.3945	1.03278	-1.66166	1.14174	-0.863048	1.05781	-1.56548	1.0761	-1.15641	0.520703	-1.5853	0.323172	-2.59466	0.631657	-1.33051	0.960535	-1.90656	3.44904	0.218239	1.76823	-1.80049	1.44333	-0.689633	
0.772281	2.79083	0	5	2.321	-1.79283	1.16939	-1.2837	3.47016	-2.86825	1.19711	-1.2427	0.866243	-1.3764	1.04183	-1.64132	1.14503	-0.855518	1.06429	-1.55555	1.07257	-1.14645	0.523967	-1.57677	0.332557	-2.58379	0.637388	-1.31709	0.960535	-1.90656	3.45303	0.225212	1.76823	-1.80049	1.44333	-0.689633	
0.775373	2.78931	0	5	2.29948	-1.77122	1.17075	-1.27835	3.45918	-2.85722	1.19121	-1.22602	0.870348	-1.35831	1.05089	-1.62098	1.14831	-0.847989	1.07076	-1.54561	1.06905	-1.13649	0.527231	-1.56824	0.341942	-2.57293	0.643119	-1.30368	0.960535	-1.90656	3.45701	0.232186	1.76823	-1.80049	1.44333	-0.689633	
0.777769	2.78778	0	5	2.30676	-1.7722	1.16325	-1.27553	3.44999	-2.85122	1.1922	-1.2288	0.872993	-1.35587	1.05906	-1.62106	1.14683	-0.843789	1.07292	-1.5423	1.06729	-1.1315	0.529355	-1.56536	0.336202	-2.56918	0.6447	-1.30815	0.956055	-1.8939	3.45679	0.241917	1.75747	-1.78538	1.43651	-0.679434	
0.778953	2.79236	0	5	2.31404	-1.77317	1.15576	-1.27271	3.4408	-2.84521	1.19318	-1.23159	0.875638	-1.35343	1.06723	-1.62113	1.14534	-0.839589	1.07508	-1.53898	1.06552	-1.12652	0.531478	-1.56247	0.330462	-2.56543	0.646281	-1.31261	0.951574	-1.88124	3.45658	0.251648	1.74672	-1.77027	1.4297	-0.669234	
0.778496	2.79388	0	5	2.32132	-1.77415	1.14826	-1.26989	3.4316	-2.8392	1.19416	-1.23437	0.878282	-1.351	1.07539	-1.6212	1.14385	-0.83539	1.07724	-1.53567	1.06376	-1.12153	0.533602	-1.55959	0.324722	-2.56168	0.647862	-1.31708	0.947094	-1.86857	3.45636	0.261378	1.73596	-1.75516	1.42288	-0.659035	
0.776683	2.79693	0	5	2.3286	-1.77513	1.14076	-1.26707	3.42241	-2.8332	1.19515	-1.23715	0.880927	-1.34856	1.08356	-1.62128	1.14237	-0.83119	1.0794	-1.53235	1.06199	-1.11655	0.535726	-1.55671	0.318982	-2.55793	0.649443	-1.32155	0.942613	-1.85591	3.45615	0.271109	1.72521	-1.74005	1.41607	-0.648835	
0.77416	2.79236	0	5	2.32512	-1.7653	1.14307	-1.26443	3.42063	-2.82817	1.19612	-1.22922	0.884301	-1.33826	1.08931	-1.6145	1.14714	-0.827847	1.08263	-1.52263	1.07038	-1.11819	0.539976	-1.55094	0.327107	-2.55594	0.653103	-1.31707	0.937377	-1.85492	3.45593	0.280856	1.72521	-1.74005	1.4119	-0.646111	
0.771576	2.79846	0	5	2.32164	-1.75546	1.14539	-1.26178	3.41886	-2.82315	1.19708	-1.2213	0.887674	-1.32796	1.09507	-1.60772	1.15192	-0.824504	1.08586	-1.51291	1.07877	-1.11984	0.544226	-1.54517	0.335232	-2.55395	0.656762	-1.31259	0.932141	-1.85394	3.45571	0.290603	1.72521	-1.74005	1.40773	-0.643388	
0.76958	2.79693	0	5	2.31816	-1.74563	1.1477	-1.25913	3.41708	-2.81813	1.19805	-1.21337	0.891047	-1.31766	1.10082	-1.60094	1.15669	-0.821161	1.08909	-1.50319	1.08715	-1.12148	0.548475	-1.5394	0.343356	-2.55196	0.660421	-1.30811	0.926904	-1.85295	3.45549	0.30035	1.72521	-1.74005	1.40356	-0.640664	
0.76882	2.79388	0	5	2.31467	-1.73579	1.15001	-1.25648	3.4153	-2.81311	1.19901	-1.20544	0.894421	-1.30736	1.10657	-1.59416	1.16146	-0.817818	1.09232	-1.49347	1.09554	-1.12313	0.552725	-1.53363	0.351481	-2.54997	0.664081	-1.30363	0.921668	-1.85197	3.45527	0.310097	1.72521	-1.74005	1.3994	-0.63794	
0.769894	2.79236	0	5	2.31293	-1.73087	1.14195	-1.24289	3.40256	-2.79706	1.19017	-1.19109	0.892017	-1.2807	1.11078	-1.5599	1.15551	-0.800984	1.09553	-1.47422	1.09201	-1.11315	0.558119	-1.52217	0.362148	-2.53012	0.673485	-1.28566	0.928779	-1.84443	3.46656	0.323895	1.72024	-1.72602	1.40156	-0.625924	
0.772672	2.79236	0	5	2.31119	-1.72595	1.13389	-1.2293	3.38982	-2.78101	1.18132	-1.17674	0.889613	-1.25405	1.11499	-1.52564	1.14955	-0.78415	1.09873	-1.45496	1.08847	-1.10316	0.563513	-1.51071	0.372816	-2.51026	0.682889	-1.2677	0.93589	-1.83689	3.47785	0.337693	1.71528	-1.71198	1.40371	-0.613909	
0.776475	2.78931	0	5	2.30945	-1.72103	1.12584	-1.21571	3.37708	-2.76495	1.17247	-1.16239	0.887208	-1.2274	1.1192	-1.49138	1.14359	-0.767315	1.10194	-1.43571	1.08494	-1.09318	0.568907	-1.49925	0.383483	-2.49041	0.692293	-1.24973	0.943001	-1.82935	3.48915	0.351492	1.71031	-1.69794	1.40587	-0.601893	
0.780609	2.79236	0	5	2.30771	-1.7161	1.11778	-1.20212	3.36434	-2.7489	1.16362	-1.14804	0.884804	-1.20075	1.12341	-1.45711	1.13764	-0.750481	1.10515	-1.41646	1.08141	-1.08319	0.574301	-1.48779	0.394151	-2.47056	0.701697	-1.23177	0.950112	-1.82181	3.50044	0.36529	1.70534	-1.68391	1.40803	-0.589878	
0.784381	2.7832	0	5	2.30597	-1.71118	1.12105	-1.20218	3.35339	-2.73788	1.16754	-1.14845	0.889131	-1.1931	1.11608	-1.4364	1.14241	-0.747119	1.10728	-1.40358	1.07964	-1.0782	0.579544	-1.48478	0.397664	-2.46796	0.701697	-1.23177	0.940381	-1.80814	3.49356	0.375569	1.69005	-1.67121	1.40121	-0.579658	
0.787099	2.7832	0	5	2.30422	-1.70626	1.12431	-1.20223	3.34244	-2.72686	1.17146	-1.14887	0.893457	-1.18545	1.10875	-1.41569	1.14718	-0.743757	1.10941	-1.3907	1.07787	-1.0732	0.584788	-1.48178	0.401177	-2.46537	0.701697	-1.23177	0.930649	-1.79446	3.48669	0.385848	1.67475	-1.65852	1.39439	-0.569438	
0.788075	2.77405	0	5	2.30248	-1.70133	1.12758	-1.20228	3.33148	-2.71583	1.17537	-1.14929	0.897783	-1.1778	1.10142	-1.39498	1.15195	-0.740395	1.11154	-1.37783	1.0761	-1.06821	0.590031	-1.47877	0.404691	-2.46278	0.701697	-1.23177	0.920918	-1.78078	3.47981	0.396126	1.65945	-1.64582	1.38757	-0.559217	
0.78708	2.7771	0	5	2.30074	-1.69641	1.13085	-1.20233	3.32053	-2.70481	1.17929	-1.1497	0.90211	-1.17015	1.0941	-1.37426	1.15672	-0.737033	1.11367	-1.36495	1.07434	-1.06321	0.595274	-1.47577	0.408204	-2.46019	0.701697	-1.23177	0.911187	-1.7671	3.47294	0.406405	1.64416	-1.63313	1.38074	-0.548997	
0.784651	2.76947	0	5	2.30453	-1.68752	1.13028	-1.19154	3.32436	-2.69569	1.1822	-1.13658	0.904505	-1.15702	1.10805	-1.36742	1.15851	-0.725222	1.1147	-1.34894	1.08096	-1.05985	0.599534	-1.46997	0.404826	-2.45064	0.706953	-1.23175	0.910063	-1.76392	3.47448	0.411186	1.64994	-1.6342	1.37986	-0.546497	
0.781401	2.76642	0	5	2.30833	-1.67863	1.12971	-1.18074	3.32819	-2.68658	1.1851	-1.12345	0.9069	-1.14389	1.122	-1.36057	1.1603	-0.713412	1.11573	-1.33293	1.08759	-1.05649	0.603794	-1.46416	0.401448	-2.44109	0.712209	-1.23174	0.908939	-1.76074	3.47603	0.415968	1.65572	-1.63528	1.37897	-0.543997	
0.777939	2.76794	0	5	2.31212	-1.66974	1.12914	-1.16995	3.33202	-2.67747	1.188	-1.11032	0.909296	-1.13076	1.13595	-1.35373	1.16209	-0.701601	1.11676	-1.31691	1.09421	-1.05313	0.608054	-1.45836	0.39807	-2.43155	0.717465	-1.23172	0.907815	-1.75757	3.47757	0.420749	1.6615	-1.63635	1.37809	-0.541497	
0.774878	2.76642	0	5	2.31592	-1.66084	1.12857	-1.15915	3.33584	-2.66836	1.19091	-1.09719	0.911691	-1.11763	1.1499	-1.34689	1.16387	-0.68979	1.11778	-1.3009	1.10083	-1.04977	0.612314	-1.45256	0.394692	-2.422	0.722721	-1.2317	0.906691	-1.75439	3.47912	0.42553	1.66728	-1.63743	1.37721	-0.538997	
0.772827	2.76337	0	5	2.3267	-1.67168	1.12953	-1.16187	3.33406	-2.66332	1.19387	-1.10557	0.907557	-1.09599	1.13762	-1.31218	1.15939	-0.677107	1.11554	-1.2851	1.10083	-1.04977	0.612466	-1.44407	0.396074	-2.40084	0.723209	-1.2182	0.912667	-1.74363	3.47978	0.432831	1.67058	-1.63147	1.38618	-0.53717	
0.772184	2.76489	0	5	2.33749	-1.68252	1.13049	-1.16458	3.33228	-2.65827	1.19684	-1.11395	0.903423	-1.07435	1.12534	-1.27747	1.1549	-0.664425	1.1133	-1.26931	1.10083	-1.04977	0.612618	-1.43557	0.397457	-2.37968	0.723698	-1.2047	0.918643	-1.73286	3.48043	0.440132	1.67387	-1.62551	1.39516	-0.535343	
0.77274	2.76337	5	0	2.34827	-1.69336	1.13145	-1.16729	3.33049	-2.65323	1.19981	-1.12234	0.899288	-1.0527	1.11306	-1.24276	1.15041	-0.651743	1.11106	-1.25351	1.10083	-1.04977	0.612771	-1.42707	0.39884	-2.35852	0.724186	-1.1912	0.92462	-1.72209	3.48109	0.447433	1.67717	-1.61956	1.40414	-0.533516	
0.774184	2.76337	5	0	2.35905	-1.7042	1.13241	-1.17	3.32871	-2.64819	1.20277	-1.13072	0.895154	-1.03106	1.10078	-1.20805	1.14593	-0.63906	1.10882	-1.23771	1.10083	-1.04977	0.612923	-1.41858	0.400222	-2.33735	0.724675	-1.17769	0.930596	-1.71133	3.48175	0.454734	1.68047	-1.6136	1.41311	-0.531689	
0.776206	2.75879	5	0	2.35001	-1.69829	1.13568	-1.17006	3.31775	-2.63715	1.20277	-1.13072	0.897799	-1.02858	1.09832	-1.20109	1.1522	-0.639905	1.10552	-1.22837	1.10083	-1.04977	0.613912	-1.42137	0.401352	-2.34055	0.727857	-1.18669	0.928732	-1.7199	3.48198	0.444921	1.67139	-1.61848	1.41577	-0.539195	
0.778492	2.75879	5	0	2.34098	-1.69239	1.13895	-1.17011	3.30679	-2.62612	1.20277	-1.13072	0.900444	-1.02609	1.09586	-1.19413	1.15847	-0.640749	1.10222	-1.21904	1.10083	-1.04977	0.614902	-1.42417	0.402482	-2.34374	0.731039	-1.19568	0.926869	-1.72846	3.48221	0.435109	1.66231	-1.62336	1.41842	-0.546701	
