2.58942	0	0	-0.201336	0.134183	-0.187573	0.122564	-0.092528	0.387973	-0.116665	-0.051435	-0.122268	0.17594	-0.077297	-0.067444	-0.047869	0.118814	-0.098923	-0.025312	-0.02289	0.122873	-0.018012	0.070779	-0.097043	0.01068	-0.071221	0.021973	-0.142039	0.221333	-0.153777	-0.105628	-0.252167	0.17983	-0.203885	0.126598	
2.58636	0	0	-0.202426	0.154615	-0.184056	0.120266	-0.102457	0.397959	-0.115239	-0.0407253	-0.117972	0.183509	-0.0730978	-0.0533533	-0.0522265	0.131129	-0.0959052	-0.0173865	-0.0185418	0.131383	-0.01489	0.0785262	-0.0914273	0.0179032	-0.0589713	0.0321805	-0.137557	0.223177	-0.14506	-0.0945823	-0.254404	0.186152	-0.193666	0.11992	
2.58636	0	0	-0.203517	0.175047	-0.180539	0.117968	-0.112386	0.407946	-0.113812	-0.0300155	-0.113676	0.191078	-0.0688985	-0.0392625	-0.056584	0.143445	-0.0928875	-0.009461	-0.0141935	0.139894	-0.011768	0.0862735	-0.0858115	0.0251265	-0.0467215	0.042388	-0.133074	0.225021	-0.136343	-0.0835365	-0.256641	0.192475	-0.183446	0.113242	
2.58484	0	0	-0.204607	0.19548	-0.177022	0.11567	-0.122315	0.417932	-0.112385	-0.0193058	-0.10938	0.198647	-0.0646992	-0.0251717	-0.0609415	0.15576	-0.0898697	-0.0015355	-0.00984525	0.148404	-0.008646	0.0940208	-0.0801957	0.0323497	-0.0344718	0.0525955	-0.128592	0.226865	-0.127626	-0.0724907	-0.258878	0.198797	-0.173227	0.106565	
2.58484	0	0	-0.205698	0.215912	-0.173505	0.113372	-0.132244	0.427918	-0.110959	-0.008596	-0.105084	0.206216	-0.0605	-0.011081	-0.065299	0.168075	-0.086852	0.00639	-0.005497	0.156914	-0.005524	0.101768	-0.07458	0.039573	-0.022222	0.062803	-0.12411	0.228709	-0.118909	-0.061445	-0.261115	0.20512	-0.163007	0.099887	
2.58179	0	0	-0.207213	0.220194	-0.176258	0.113511	-0.132244	0.427918	-0.116403	-0.007951	-0.105084	0.206216	-0.063087	-0.00377	-0.065299	0.168075	-0.087764	0.008967	-0.0072405	0.161841	0.000306	0.101877	-0.0819037	0.0487207	-0.028523	0.0806107	-0.128508	0.241138	-0.121505	-0.0362413	-0.258987	0.213461	-0.159598	0.0976595	
2.58179	0	0	-0.208728	0.224476	-0.179011	0.113649	-0.132244	0.427918	-0.121847	-0.007306	-0.105084	0.206216	-0.065674	0.003541	-0.065299	0.168075	-0.088676	0.011544	-0.008984	0.166768	0.006136	0.101987	-0.0892275	0.0578685	-0.034824	0.0984185	-0.132906	0.253568	-0.124102	-0.0110375	-0.25686	0.221803	-0.156189	0.095432	
2.58026	0	0	-0.210244	0.228759	-0.181764	0.113787	-0.132244	0.427918	-0.127292	-0.006661	-0.105084	0.206216	-0.068261	0.010852	-0.065299	0.168075	-0.089588	0.014121	-0.0107275	0.171696	0.011966	0.102097	-0.0965512	0.0670162	-0.041125	0.116226	-0.137304	0.265997	-0.126698	0.0141663	-0.254732	0.230145	-0.152779	0.0932045	
2.57873	0	0	-0.211759	0.233041	-0.184517	0.113926	-0.132244	0.427918	-0.132736	-0.006016	-0.105084	0.206216	-0.070848	0.018163	-0.065299	0.168075	-0.0905	0.016698	-0.012471	0.176623	0.017796	0.102206	-0.103875	0.076164	-0.047426	0.134034	-0.141702	0.278427	-0.129294	0.03937	-0.252604	0.238486	-0.14937	0.090977	
2.57873	0	0	-0.206799	0.236389	-0.181	0.111628	-0.125536	0.427035	-0.121843	-0.007308	-0.102457	0.208654	-0.0614727	0.0176625	-0.0606245	0.17134	-0.082778	0.019583	-0.0159607	0.186485	0.0227287	0.104865	-0.100568	0.0783675	-0.0453243	0.128094	-0.136118	0.277169	-0.117968	0.0252448	-0.244872	0.230999	-0.14937	0.090977	
2.57568	0	0	-0.201839	0.239737	-0.177483	0.10933	-0.118829	0.426153	-0.11095	-0.0086	-0.09983	0.211093	-0.0520975	0.017162	-0.05595	0.174604	-0.075056	0.022468	-0.0194505	0.196348	0.0276615	0.107524	-0.0972605	0.080571	-0.0432225	0.122154	-0.130534	0.275912	-0.106643	0.0111195	-0.23714	0.223513	-0.14937	0.090977	
2.57721	0	0	-0.196878	0.243085	-0.173966	0.107032	-0.112121	0.42527	-0.100056	-0.009892	-0.097203	0.213531	-0.0427223	0.0166615	-0.0512755	0.177869	-0.067334	0.025353	-0.0229402	0.20621	0.0325942	0.110184	-0.0939533	0.0827745	-0.0411207	0.116214	-0.124951	0.274655	-0.0953167	-0.00300575	-0.229407	0.216026	-0.14937	0.090977	
2.57416	0	0	-0.191918	0.246433	-0.170449	0.104734	-0.105413	0.424387	-0.089163	-0.011184	-0.094576	0.215969	-0.033347	0.016161	-0.046601	0.181134	-0.059612	0.028238	-0.02643	0.216073	0.037527	0.112843	-0.090646	0.084978	-0.039019	0.110274	-0.119367	0.273397	-0.083991	-0.017131	-0.221675	0.208539	-0.14937	0.090977	
2.5711	0	0	-0.183504	0.257435	-0.166931	0.102435	-0.098698	0.423501	-0.0918465	-0.00359975	-0.0967362	0.231942	-0.041127	0.0381485	-0.0509688	0.193477	-0.0593352	0.0439455	-0.012494	0.218356	0.0435785	0.120669	-0.0850315	0.0922335	-0.0371	0.127304	-0.122671	0.282734	-0.0819452	-0.005012	-0.219542	0.216887	-0.145959	0.0887485	
2.5711	0	0	-0.17509	0.268437	-0.163412	0.100136	-0.091983	0.422616	-0.09453	0.0039845	-0.0988965	0.247916	-0.048907	0.060136	-0.0553365	0.205821	-0.0590585	0.059653	0.001442	0.220639	0.04963	0.128495	-0.079417	0.099489	-0.035181	0.144335	-0.125974	0.292071	-0.0798995	0.007107	-0.217409	0.225236	-0.142549	0.08652	
2.56805	0	0	-0.166676	0.27944	-0.159894	0.097837	-0.085268	0.42173	-0.0972135	0.0115687	-0.101057	0.263889	-0.056687	0.0821235	-0.0597043	0.218164	-0.0587818	0.0753605	0.015378	0.222923	0.0556815	0.13632	-0.0738025	0.106745	-0.033262	0.161365	-0.129278	0.301407	-0.0778537	0.019226	-0.215275	0.233584	-0.139138	0.0842915	
2.56805	0	0	-0.158262	0.290442	-0.156376	0.095538	-0.078553	0.420844	-0.099897	0.019153	-0.103217	0.279862	-0.064467	0.104111	-0.064072	0.230508	-0.058505	0.091068	0.029314	0.225206	0.061733	0.144146	-0.068188	0.114	-0.031343	0.178396	-0.132582	0.310744	-0.075808	0.031345	-0.213142	0.241932	-0.135728	0.082063	
2.56653	0	0	-0.16627	0.295675	-0.156376	0.095538	-0.0868798	0.426285	-0.099897	0.019153	-0.101301	0.274446	-0.0524857	0.0962822	-0.0550257	0.221432	-0.0547075	0.0885867	0.0328095	0.215327	0.061733	0.144146	-0.070493	0.10895	-0.037467	0.173249	-0.1292	0.31572	-0.078909	0.0401092	-0.216509	0.251448	-0.132316	0.0798335	
2.56195	0	0	-0.174278	0.300907	-0.156376	0.095538	-0.0952065	0.431726	-0.099897	0.019153	-0.0993845	0.269031	-0.0405045	0.0884535	-0.0459795	0.212357	-0.05091	0.0861055	0.036305	0.205448	0.061733	0.144146	-0.072798	0.1039	-0.043591	0.168102	-0.125817	0.320695	-0.08201	0.0488735	-0.219876	0.260964	-0.128904	0.077604	
2.56348	0	0	-0.182285	0.30614	-0.156376	0.095538	-0.103533	0.437167	-0.099897	0.019153	-0.0974683	0.263615	-0.0285232	0.0806247	-0.0369333	0.203282	-0.0471125	0.0836243	0.0398005	0.195569	0.061733	0.144146	-0.075103	0.0988492	-0.049715	0.162956	-0.122435	0.32567	-0.085111	0.0576378	-0.223243	0.270479	-0.125492	0.0753745	
2.56195	0	0	-0.190293	0.311373	-0.156376	0.095538	-0.11186	0.442608	-0.099897	0.019153	-0.095552	0.258199	-0.016542	0.072796	-0.027887	0.194206	-0.043315	0.081143	0.043296	0.18569	0.061733	0.144146	-0.077408	0.093799	-0.055839	0.157809	-0.119053	0.330646	-0.088212	0.066402	-0.22661	0.279995	-0.12208	0.073145	
2.54669	0	0	-0.196773	0.312304	-0.145812	0.0886355	-0.106759	0.446284	-0.10803	0.0273845	-0.102718	0.25872	-0.0097415	0.079645	-0.0369333	0.203282	-0.038462	0.0839395	0.035448	0.187024	0.061733	0.144146	-0.0850293	0.0922285	-0.061956	0.15267	-0.123537	0.328785	-0.0969348	0.0552695	-0.230982	0.277974	-0.125492	0.0753745	
2.56195	0	0	-0.203253	0.313235	-0.135248	0.081733	-0.101658	0.449961	-0.116163	0.035616	-0.109883	0.259242	-0.002941	0.086494	-0.0459795	0.212357	-0.033609	0.086736	0.0276	0.188358	0.061733	0.144146	-0.0926505	0.090658	-0.068073	0.147531	-0.128022	0.326924	-0.105658	0.044137	-0.235354	0.275952	-0.128904	0.077604	
2.56348	0	0	-0.209734	0.314166	-0.124685	0.0748305	-0.0965577	0.453638	-0.124295	0.0438475	-0.117049	0.259763	0.0038595	0.093343	-0.0550258	0.221432	-0.028756	0.0895325	0.019752	0.189691	0.061733	0.144146	-0.100272	0.0890875	-0.07419	0.142392	-0.132506	0.325063	-0.11438	0.0330045	-0.239726	0.273931	-0.132316	0.0798335	
2.56195	0	0	-0.216214	0.315097	-0.114121	0.067928	-0.091457	0.457314	-0.132428	0.052079	-0.124215	0.260284	0.01066	0.100192	-0.064072	0.230508	-0.023903	0.092329	0.011904	0.191025	0.061733	0.144146	-0.107893	0.087517	-0.080307	0.137253	-0.13699	0.323202	-0.123103	0.021872	-0.244098	0.27191	-0.135728	0.082063	
2.56958	0	0	-0.217734	0.319393	-0.110597	0.0656252	-0.0930715	0.461876	-0.135115	0.059673	-0.128752	0.263248	0.005454	0.114904	-0.0579395	0.229667	-0.0257355	0.0975075	0.00581025	0.187424	0.060619	0.138982	-0.110194	0.0824765	-0.0678848	0.124572	-0.135888	0.320087	-0.126687	0.0141342	-0.241855	0.26557	-0.135728	0.082063	
2.57721	0	0	-0.219254	0.32369	-0.107073	0.0633225	-0.094686	0.466438	-0.137802	0.067267	-0.133289	0.266213	0.000248	0.129617	-0.051807	0.228826	-0.027568	0.102686	-0.0002835	0.183824	0.059505	0.133817	-0.112495	0.077436	-0.0554625	0.111892	-0.134786	0.316973	-0.130271	0.0063965	-0.239611	0.259229	-0.135728	0.082063	
2.60315	0	0	-0.220775	0.327987	-0.103548	0.0610197	-0.0963005	0.471001	-0.140489	0.074861	-0.137826	0.269178	-0.004958	0.144329	-0.0456745	0.227986	-0.0294005	0.107865	-0.00637725	0.180224	0.058391	0.128653	-0.114796	0.0723955	-0.0430403	0.0992115	-0.133684	0.313859	-0.133854	-0.00134125	-0.237368	0.252888	-0.135728	0.082063	
2.61993	0	0	-0.222295	0.332283	-0.100024	0.058717	-0.097915	0.475563	-0.143176	0.082455	-0.142363	0.272142	-0.010164	0.159042	-0.039542	0.227145	-0.031233	0.113043	-0.012471	0.176623	0.057277	0.123488	-0.117097	0.067355	-0.030618	0.086531	-0.132582	0.310744	-0.137438	-0.009079	-0.235124	0.246548	-0.135728	0.082063	
2.64435	0	0	-0.219255	0.323692	-0.100024	0.058717	-0.094687	0.466441	-0.139146	0.0710662	-0.146647	0.264549	-0.016956	0.152169	-0.0442178	0.223869	-0.0351687	0.107655	-0.0168162	0.168104	0.0503238	0.118222	-0.117393	0.0566555	-0.0552542	0.0889565	-0.142642	0.310139	-0.137438	-0.009079	-0.238374	0.241366	-0.142548	0.086519	
2.67334	0	0	-0.216215	0.315101	-0.100024	0.058717	-0.091459	0.457319	-0.135117	0.0596775	-0.15093	0.256957	-0.023748	0.145296	-0.0488935	0.220593	-0.0391045	0.102266	-0.0211615	0.159586	0.0433705	0.112956	-0.11769	0.045956	-0.0798905	0.091382	-0.152701	0.309534	-0.137438	-0.009079	-0.241623	0.236184	-0.149367	0.090975	
2.71149	0	0	-0.213175	0.306509	-0.100024	0.058717	-0.088231	0.448197	-0.131087	0.0482888	-0.155214	0.249364	-0.03054	0.138423	-0.0535692	0.217318	-0.0430403	0.0968775	-0.0255068	0.151068	0.0364172	0.107689	-0.117986	0.0352565	-0.104527	0.0938075	-0.162761	0.308929	-0.137438	-0.009079	-0.244873	0.231003	-0.156187	0.095431	
2.73743	0	0	-0.210135	0.297918	-0.100024	0.058717	-0.085003	0.439075	-0.127057	0.0369	-0.159498	0.241772	-0.037332	0.13155	-0.058245	0.214042	-0.046976	0.091489	-0.029852	0.142549	0.029464	0.102423	-0.118282	0.024557	-0.129163	0.096233	-0.17282	0.308324	-0.137438	-0.009079	-0.248123	0.225821	-0.163007	0.099887	
2.76489	0	0	-0.205581	0.285047	-0.100024	0.058717	-0.0884945	0.43085	-0.123033	0.025526	-0.161871	0.228801	-0.029539	0.109526	-0.0600085	0.20255	-0.0528755	0.0834205	-0.0324578	0.129137	0.0252218	0.0895288	-0.123886	0.0173432	-0.124813	0.0615943	-0.171798	0.290937	-0.134855	-0.034228	-0.243548	0.198537	-0.169821	0.10434	
2.79999	0	0	-0.201026	0.272176	-0.100024	0.058717	-0.091986	0.422625	-0.119008	0.014152	-0.164245	0.21583	-0.021746	0.087503	-0.061772	0.191059	-0.058775	0.075352	-0.0350635	0.115726	0.0209795	0.0766345	-0.129489	0.0101295	-0.120464	0.0269555	-0.170777	0.27355	-0.132272	-0.059377	-0.238973	0.171252	-0.176636	0.108793	
2.83966	0	0	-0.196472	0.259304	-0.100024	0.058717	-0.0954775	0.4144	-0.114984	0.002778	-0.166618	0.202858	-0.013953	0.0654795	-0.0635355	0.179567	-0.0646745	0.0672835	-0.0376693	0.102314	0.0167372	0.0637402	-0.135093	0.00291575	-0.116115	-0.00768325	-0.169756	0.256163	-0.129689	-0.084526	-0.234398	0.143967	-0.18345	0.113245	
2.88086	0	0	-0.191918	0.246433	-0.100024	0.058717	-0.098969	0.406175	-0.110959	-0.008596	-0.168991	0.189887	-0.00616	0.043456	-0.065299	0.168075	-0.070574	0.059215	-0.040275	0.088902	0.012495	0.050846	-0.140697	-0.004298	-0.111765	-0.042322	-0.168734	0.238776	-0.127106	-0.109675	-0.229823	0.116683	-0.190264	0.117698	
2.93579	0	0	-0.193435	0.250721	-0.100024	0.058717	-0.10246	0.397966	-0.121843	-0.00730775	-0.172562	0.190148	-0.00616	0.043456	-0.0699695	0.164813	-0.073591	0.0512662	-0.046354	0.0853292	0.0131787	0.0406255	-0.134394	-0.0105898	-0.10148	-0.0490425	-0.169917	0.227632	-0.115812	-0.123743	-0.224247	0.100924	-0.197835	0.124301	
2.99682	0	0	-0.194953	0.25501	-0.100024	0.058717	-0.10595	0.389757	-0.132726	-0.0060195	-0.176133	0.19041	-0.00616	0.043456	-0.07464	0.161552	-0.076608	0.0433175	-0.052433	0.0817565	0.0138625	0.030405	-0.12809	-0.0168815	-0.091195	-0.055763	-0.171101	0.216487	-0.104519	-0.137811	-0.21867	0.085165	-0.205406	0.130904	
3.06396	0	0	-0.19647	0.259298	-0.100024	0.058717	-0.10944	0.381547	-0.14361	-0.00473125	-0.179705	0.190671	-0.00616	0.043456	-0.0793105	0.15829	-0.079625	0.0353687	-0.058512	0.0781837	0.0145463	0.0201845	-0.121787	-0.0231733	-0.08091	-0.0624835	-0.172285	0.205343	-0.0932255	-0.151879	-0.213094	0.069406	-0.212978	0.137508	
3.12347	0	0	-0.197987	0.263586	-0.100024	0.058717	-0.112931	0.373338	-0.154494	-0.003443	-0.183276	0.190932	-0.00616	0.043456	-0.083981	0.155028	-0.082642	0.02742	-0.064591	0.074611	0.01523	0.009964	-0.115484	-0.029465	-0.070625	-0.069204	-0.173468	0.194199	-0.081932	-0.165947	-0.207518	0.053647	-0.220549	0.144111	
3.17078	0	0	-0.202946	0.260234	-0.104312	0.0631792	-0.121514	0.361498	-0.151816	-0.0110113	-0.187555	0.183377	-0.022332	0.0371327	-0.0933097	0.148514	-0.0867122	0.014237	-0.0576572	0.0550155	0.0138935	-0.002822	-0.111487	-0.0407625	-0.0828502	-0.0793193	-0.183503	0.193615	-0.094766	-0.147526	-0.217376	0.0528293	-0.223189	0.14418	
3.22418	0	0	-0.207905	0.256882	-0.108601	0.0676415	-0.130097	0.349658	-0.149138	-0.0185795	-0.191833	0.175822	-0.038504	0.0308095	-0.102638	0.142001	-0.0907825	0.001054	-0.0507235	0.03542	0.012557	-0.015608	-0.10749	-0.05206	-0.0950755	-0.0894345	-0.193538	0.193032	-0.1076	-0.129105	-0.227234	0.0520115	-0.22583	0.144249	
3.24707	0	0	-0.212864	0.25353	-0.112889	0.0721037	-0.13868	0.337819	-0.14646	-0.0261478	-0.196112	0.168267	-0.054676	0.0244863	-0.111967	0.135488	-0.0948527	-0.012129	-0.0437898	0.0158245	0.0112205	-0.028394	-0.103492	-0.0633575	-0.107301	-0.0995497	-0.203573	0.192448	-0.120434	-0.110683	-0.237091	0.0511937	-0.22847	0.144318	
3.28064	0	0	-0.217823	0.250178	-0.117177	0.076566	-0.147263	0.325979	-0.143782	-0.033716	-0.200391	0.160712	-0.070848	0.018163	-0.121296	0.128974	-0.098923	-0.025312	-0.036856	-0.003771	0.009884	-0.04118	-0.099495	-0.074655	-0.119526	-0.109665	-0.213608	0.191864	-0.133268	-0.092262	-0.246949	0.050376	-0.23111	0.144387	
3.30505	0	0	-0.207901	0.256885	-0.117177	0.076566	-0.144057	0.316917	-0.134236	-0.0312243	-0.198487	0.155332	-0.073437	0.0254802	-0.119847	0.124878	-0.0990672	-0.0331253	-0.035125	-0.008663	0.00966175	-0.0488278	-0.0941885	-0.0781223	-0.109254	-0.116377	-0.205855	0.18442	-0.126594	-0.0932747	-0.238127	0.0397762	-0.23111	0.144387	
3.32489	0	0	-0.197979	0.263593	-0.117177	0.076566	-0.14085	0.307855	-0.124689	-0.0287325	-0.196584	0.149952	-0.076026	0.0327975	-0.118398	0.120783	-0.0992115	-0.0409385	-0.033394	-0.013555	0.0094395	-0.0564755	-0.088882	-0.0815895	-0.098981	-0.123089	-0.198103	0.176975	-0.11992	-0.0942875	-0.229305	0.0291765	-0.23111	0.144387	
3.34015	0	0	-0.188056	0.2703	-0.117177	0.076566	-0.137644	0.298793	-0.115143	-0.0262408	-0.19468	0.144572	-0.078615	0.0401148	-0.116948	0.116687	-0.0993558	-0.0487517	-0.031663	-0.018447	0.00921725	-0.0641232	-0.0835755	-0.0850568	-0.0887085	-0.129802	-0.19035	0.169531	-0.113246	-0.0953003	-0.220483	0.0185767	-0.23111	0.144387	
3.35235	0	0	-0.178134	0.277008	-0.117177	0.076566	-0.134437	0.289731	-0.105597	-0.023749	-0.192776	0.139192	-0.081204	0.047432	-0.115499	0.112591	-0.0995	-0.056565	-0.029932	-0.023339	0.008995	-0.071771	-0.078269	-0.088524	-0.078436	-0.136514	-0.182597	0.162086	-0.106572	-0.096313	-0.211661	0.007977	-0.23111	0.144387	
3.35541	0	0	-0.174687	0.284665	-0.117177	0.076566	-0.141129	0.290623	-0.111042	-0.0231022	-0.191112	0.14431	-0.0744242	0.0542665	-0.120159	0.109343	-0.102373	-0.0566632	-0.031663	-0.018447	0.0080985	-0.069238	-0.0736445	-0.0785135	-0.06214	-0.115449	-0.177028	0.160826	-0.089596	-0.0906393	-0.206172	0.00680725	-0.227708	0.142164	
3.36304	0	0	-0.17124	0.292322	-0.117177	0.076566	-0.147822	0.291516	-0.116487	-0.0224555	-0.189447	0.149427	-0.0676445	0.061101	-0.124818	0.106095	-0.105246	-0.0567615	-0.033394	-0.013555	0.007202	-0.066705	-0.06902	-0.068503	-0.045844	-0.094385	-0.171459	0.159566	-0.07262	-0.0849655	-0.200682	0.0056375	-0.224305	0.13994	
3.37372	0	0	-0.167793	0.29998	-0.117177	0.076566	-0.154514	0.292408	-0.121932	-0.0218088	-0.187783	0.154545	-0.0608648	0.0679355	-0.129478	0.102846	-0.10812	-0.0568598	-0.035125	-0.008663	0.0063055	-0.064172	-0.0643955	-0.0584925	-0.029548	-0.0733205	-0.165891	0.158306	-0.055644	-0.0792917	-0.195192	0.00446775	-0.220903	0.137717	
3.37067	0	0	-0.164346	0.307637	-0.117177	0.076566	-0.161207	0.2933	-0.127377	-0.021162	-0.186119	0.159662	-0.054085	0.07477	-0.134138	0.099598	-0.110993	-0.056958	-0.036856	-0.003771	0.005409	-0.061639	-0.059771	-0.048482	-0.013252	-0.052256	-0.160322	0.157046	-0.038668	-0.073618	-0.189703	0.003298	-0.2175	0.135494	
3.36609	0	0	-0.159375	0.311003	-0.116413	0.0744065	-0.158005	0.284252	-0.120592	-0.0255952	-0.188735	0.157234	-0.0514915	0.067441	-0.131244	0.0914198	-0.111139	-0.0647585	-0.0429358	-0.00731825	0.00608075	-0.0718095	-0.0587705	-0.0513095	-0.0069885	-0.0699577	-0.158133	0.150859	-0.0340358	-0.0867095	-0.184145	-0.012411	-0.220903	0.137717	
3.35998	0	0	-0.154404	0.314369	-0.115649	0.072247	-0.154804	0.275204	-0.113807	-0.0300285	-0.191351	0.154806	-0.048898	0.060112	-0.128351	0.0832415	-0.111285	-0.072559	-0.0490155	-0.0108655	0.0067525	-0.08198	-0.05777	-0.054137	-0.000725	-0.0876595	-0.155944	0.144672	-0.0294035	-0.099801	-0.178586	-0.02812	-0.224305	0.13994	
3.35083	0	0	-0.149433	0.317736	-0.114885	0.0700875	-0.151603	0.266156	-0.107023	-0.0344617	-0.193967	0.152378	-0.0463045	0.052783	-0.125457	0.0750632	-0.111432	-0.0803595	-0.0550952	-0.0144128	0.00742425	-0.0921505	-0.0567695	-0.0569645	0.0055385	-0.105361	-0.153755	0.138486	-0.0247713	-0.112893	-0.173028	-0.043829	-0.227708	0.142164	
3.35235	0	0	-0.144462	0.321102	-0.114121	0.067928	-0.148401	0.257108	-0.100238	-0.038895	-0.196583	0.14995	-0.043711	0.045454	-0.122563	0.066885	-0.111578	-0.08816	-0.061175	-0.01796	0.008096	-0.102321	-0.055769	-0.059792	0.011802	-0.123063	-0.151566	0.132299	-0.020139	-0.125984	-0.167469	-0.059538	-0.23111	0.144387	
3.36151	0	0	-0.141011	0.328781	-0.111361	0.0677848	-0.146801	0.252587	-0.0961282	-0.035757	-0.195631	0.147261	-0.04112	0.0381307	-0.127221	0.0636473	-0.11369	-0.098607	-0.0577177	-0.027731	0.00585275	-0.112515	-0.0527695	-0.068269	0.0138873	-0.128956	-0.149378	0.126116	-0.0304428	-0.132648	-0.163029	-0.0720853	-0.234511	0.14661	
3.35998	0	0	-0.13756	0.33646	-0.108601	0.0676415	-0.145201	0.248066	-0.0920185	-0.032619	-0.19468	0.144571	-0.038529	0.0308075	-0.13188	0.0604095	-0.115803	-0.109054	-0.0542605	-0.037502	0.0036095	-0.122709	-0.04977	-0.076746	0.0159725	-0.134849	-0.147191	0.119934	-0.0407465	-0.139312	-0.158589	-0.0846325	-0.237912	0.148832	
3.34778	0	0	-0.134109	0.344138	-0.105841	0.0674982	-0.143602	0.243546	-0.0879087	-0.029481	-0.193728	0.141881	-0.035938	0.0234842	-0.136539	0.0571718	-0.117915	-0.119501	-0.0508033	-0.047273	0.00136625	-0.132904	-0.0467705	-0.085223	0.0180578	-0.140742	-0.145003	0.113752	-0.0510503	-0.145975	-0.15415	-0.0971798	-0.241313	0.151054	
3.33404	0	0	-0.130658	0.351817	-0.103081	0.067355	-0.142002	0.239025	-0.083799	-0.026343	-0.192776	0.139192	-0.033347	0.016161	-0.141197	0.053934	-0.120028	-0.129948	-0.047346	-0.057044	-0.000877	-0.143098	-0.043771	-0.0937	0.020143	-0.146635	-0.142815	0.107569	-0.061354	-0.152639	-0.14971	-0.109727	-0.244714	0.153277	
3.32489	0	0	-0.123042	0.330292	-0.109364	0.0698	-0.143898	0.22638	-0.0893397	-0.040178	-0.199907	0.139718	-0.0427223	0.0166615	-0.144408	0.0466208	-0.127877	-0.140558	-0.061217	-0.0592328	-0.00602975	-0.153309	-0.0500835	-0.0874038	0.0159712	-0.134845	-0.13724	0.106302	-0.0515835	-0.162368	-0.136491	-0.118364	-0.248114	0.155498	
3.31573	0	0	-0.115426	0.308767	-0.115646	0.072245	-0.145795	0.213734	-0.0948805	-0.054013	-0.207037	0.140244	-0.0520975	0.017162	-0.14762	0.0393075	-0.135726	-0.151167	-0.075088	-0.0614215	-0.0111825	-0.163521	-0.056396	-0.0811075	0.0117995	-0.123055	-0.131665	0.105036	-0.041813	-0.172098	-0.123273	-0.127002	-0.251514	0.15772	
3.30658	0	0	-0.107809	0.287243	-0.121928	0.07469	-0.147692	0.201089	-0.100421	-0.067848	-0.214168	0.140769	-0.0614727	0.0176625	-0.150831	0.0319943	-0.143575	-0.161777	-0.088959	-0.0636102	-0.0163352	-0.173733	-0.0627085	-0.0748113	0.00762775	-0.111266	-0.12609	0.103769	-0.0320425	-0.181827	-0.110054	-0.135639	-0.254913	0.159941	
3.29895	0	0	-0.100193	0.265718	-0.128211	0.077135	-0.149588	0.188444	-0.105962	-0.081683	-0.221299	0.141295	-0.070848	0.018163	-0.154042	0.024681	-0.151424	-0.172386	-0.10283	-0.065799	-0.021488	-0.183944	-0.069021	-0.068515	0.003456	-0.099476	-0.120515	0.102502	-0.022272	-0.191556	-0.096835	-0.144277	-0.258313	0.162162	
3.28522	0	0	-0.092595	0.244245	-0.131732	0.079436	-0.153082	0.180333	-0.100617	-0.0967875	-0.225571	0.133764	-0.0724603	-0.00323875	-0.163341	0.0182285	-0.161221	-0.185607	-0.103726	-0.083926	-0.030662	-0.199233	-0.072647	-0.081333	0.00564475	-0.128062	-0.121719	0.0914167	-0.0315862	-0.218832	-0.100087	-0.163807	-0.265109	0.166602	
3.27301	0	0	-0.084997	0.222772	-0.135253	0.081737	-0.156577	0.172221	-0.095273	-0.111892	-0.229844	0.126233	-0.0740725	-0.0246405	-0.172641	0.011776	-0.171018	-0.198827	-0.104623	-0.102053	-0.039836	-0.214522	-0.076273	-0.094151	0.0078335	-0.156647	-0.122924	0.0803315	-0.0409005	-0.246107	-0.10334	-0.183337	-0.271904	0.171043	
3.26691	0	0	-0.077399	0.2013	-0.138775	0.084038	-0.160071	0.164109	-0.0899285	-0.126997	-0.234117	0.118702	-0.0756847	-0.0460423	-0.18194	0.0053235	-0.180815	-0.212048	-0.10552	-0.12018	-0.04901	-0.22981	-0.079899	-0.106969	0.0100222	-0.185233	-0.124129	0.0692462	-0.0502148	-0.273382	-0.106592	-0.202866	-0.278699	0.175484	
3.2547	0	0	-0.069801	0.179827	-0.142296	0.086339	-0.163565	0.155998	-0.084584	-0.142101	-0.238389	0.111171	-0.077297	-0.067444	-0.191239	-0.001129	-0.190612	-0.225269	-0.106416	-0.138307	-0.058184	-0.245099	-0.083525	-0.119787	0.012211	-0.213819	-0.125333	0.058161	-0.059529	-0.300658	-0.109844	-0.222396	-0.285495	0.179924	
3.23944	0	0	-0.0717588	0.167928	-0.14306	0.0884985	-0.158788	0.142497	-0.0873608	-0.148983	-0.238153	0.10071	-0.0934133	-0.073707	-0.191569	-0.0165425	-0.191985	-0.245892	-0.116814	-0.150175	-0.0664605	-0.262834	-0.0838447	-0.130406	0.0020065	-0.229699	-0.120968	0.0458257	-0.0570322	-0.325546	-0.107613	-0.243045	-0.29907	0.188794	
3.22723	0	0	-0.0737165	0.156029	-0.143825	0.090658	-0.154011	0.128997	-0.0901375	-0.155865	-0.237918	0.090248	-0.10953	-0.07997	-0.191898	-0.031956	-0.193357	-0.266514	-0.127211	-0.162044	-0.074737	-0.280569	-0.0841645	-0.141024	-0.008198	-0.245578	-0.116603	0.0334905	-0.0545355	-0.350435	-0.105381	-0.263695	-0.312644	0.197664	
3.21503	0	0	-0.0756742	0.14413	-0.144589	0.0928175	-0.149234	0.115497	-0.0929143	-0.162747	-0.237682	0.0797865	-0.125646	-0.086233	-0.192228	-0.0473695	-0.194729	-0.287137	-0.137608	-0.173912	-0.0830135	-0.298304	-0.0844843	-0.151643	-0.0184025	-0.261458	-0.112239	0.0211553	-0.0520388	-0.375324	-0.10315	-0.284345	-0.326219	0.206534	
3.20434	0	0	-0.077632	0.132231	-0.145353	0.094977	-0.144457	0.101996	-0.095691	-0.169629	-0.237446	0.069325	-0.141762	-0.092496	-0.192558	-0.062783	-0.196102	-0.30776	-0.148006	-0.18578	-0.09129	-0.316039	-0.084804	-0.162262	-0.028607	-0.277338	-0.107874	0.00882	-0.049542	-0.400212	-0.100919	-0.304994	-0.339794	0.215404	
3.19061	0	0	-0.078543	0.0999912	-0.155144	0.0997143	-0.153044	0.0903435	-0.0931455	-0.191541	-0.240772	0.0591498	-0.138258	-0.12825	-0.200408	-0.0732475	-0.207842	-0.323488	-0.148918	-0.203796	-0.0975532	-0.331173	-0.0914193	-0.166589	-0.0265355	-0.283192	-0.111268	0.003934	-0.0480158	-0.404525	-0.107499	-0.315053	-0.345811	0.21768	
3.18146	0	0	-0.079454	0.0677515	-0.164935	0.104452	-0.161632	0.078691	-0.0906	-0.213453	-0.244098	0.0489745	-0.134754	-0.164004	-0.208257	-0.083712	-0.219583	-0.339216	-0.149829	-0.221812	-0.103817	-0.346307	-0.0980345	-0.170916	-0.024464	-0.289046	-0.114662	-0.000952	-0.0464895	-0.408838	-0.114079	-0.325113	-0.351828	0.219956	
3.17383	0	0	-0.080365	0.0355117	-0.174726	0.109189	-0.170219	0.0670385	-0.0880545	-0.235365	-0.247424	0.0387992	-0.13125	-0.199759	-0.216106	-0.0941765	-0.231323	-0.354945	-0.15074	-0.239828	-0.11008	-0.361441	-0.10465	-0.175244	-0.0223925	-0.294901	-0.118056	-0.005838	-0.0449633	-0.413152	-0.120659	-0.335172	-0.357846	0.222232	
3.16467	0	0	-0.081276	0.003272	-0.184517	0.113926	-0.178807	0.055386	-0.085509	-0.257277	-0.25075	0.028624	-0.127746	-0.235513	-0.223956	-0.104641	-0.243063	-0.370673	-0.151652	-0.257844	-0.116343	-0.376575	-0.111265	-0.179571	-0.020321	-0.300755	-0.12145	-0.010724	-0.043437	-0.417465	-0.127239	-0.345231	-0.363863	0.224508	
3.15552	0	0	-0.074236	-0.0340068	-0.188032	0.116223	-0.177553	0.0339072	-0.0775427	-0.279791	-0.254077	0.0184713	-0.12685	-0.263862	-0.231795	-0.115077	-0.247304	-0.391222	-0.160327	-0.274443	-0.12461	-0.394174	-0.110596	-0.192963	-0.0263917	-0.328211	-0.120493	-0.0278967	-0.0446065	-0.449773	-0.122842	-0.371969	-0.374784	0.2333	
3.14331	0	0	-0.067196	-0.0712855	-0.191547	0.11852	-0.176299	0.0124285	-0.0695765	-0.302306	-0.257404	0.0083185	-0.125953	-0.29221	-0.239635	-0.125512	-0.251544	-0.411771	-0.169002	-0.291042	-0.132877	-0.411774	-0.109927	-0.206354	-0.0324625	-0.355666	-0.119535	-0.0450695	-0.045776	-0.482081	-0.118445	-0.398706	-0.385705	0.242092	
3.13873	0	0	-0.060156	-0.108564	-0.195063	0.120817	-0.175046	-0.00905025	-0.0616102	-0.32482	-0.26073	-0.00183425	-0.125057	-0.320559	-0.247474	-0.135948	-0.255785	-0.43232	-0.177678	-0.30764	-0.141143	-0.429373	-0.109258	-0.219746	-0.0385332	-0.383122	-0.118578	-0.0622422	-0.0469455	-0.514389	-0.114048	-0.425443	-0.396626	0.250883	
3.125	0	0	-0.053116	-0.145843	-0.198578	0.123114	-0.173792	-0.030529	-0.053644	-0.347334	-0.264057	-0.011987	-0.12416	-0.348908	-0.255313	-0.146384	-0.260025	-0.452869	-0.186353	-0.324239	-0.14941	-0.446972	-0.108589	-0.233137	-0.044604	-0.410578	-0.11762	-0.079415	-0.048115	-0.546697	-0.109651	-0.452181	-0.407547	0.259675	
3.11737	0	0	-0.0571135	-0.169263	-0.202092	0.12541	-0.174137	-0.0474723	-0.0483442	-0.362312	-0.26289	-0.0250535	-0.128383	-0.362753	-0.257086	-0.157646	-0.269789	-0.465862	-0.195019	-0.340772	-0.154789	-0.464474	-0.107928	-0.246499	-0.052744	-0.432079	-0.118844	-0.0904097	-0.05235	-0.570273	-0.112956	-0.471428	-0.413551	0.261942	
3.10974	0	0	-0.061111	-0.192682	-0.205606	0.127707	-0.174482	-0.0644155	-0.0430445	-0.377289	-0.261724	-0.03812	-0.132606	-0.376598	-0.25886	-0.168908	-0.279553	-0.478855	-0.203686	-0.357304	-0.160169	-0.481976	-0.107267	-0.25986	-0.060884	-0.453579	-0.120068	-0.101405	-0.056585	-0.593849	-0.116261	-0.490676	-0.419554	0.264209	
3.10211	0	0	-0.0651085	-0.216102	-0.20912	0.130003	-0.174826	-0.0813588	-0.0377448	-0.392267	-0.260557	-0.0511865	-0.136829	-0.390442	-0.260633	-0.180171	-0.289317	-0.491848	-0.212352	-0.373837	-0.165548	-0.499477	-0.106606	-0.273222	-0.069024	-0.475079	-0.121293	-0.112399	-0.06082	-0.617426	-0.119567	-0.509923	-0.425558	0.266477	
3.09753	0	0	-0.069106	-0.239521	-0.212634	0.132299	-0.175171	-0.098302	-0.032445	-0.407245	-0.259391	-0.064253	-0.141052	-0.404287	-0.262406	-0.191433	-0.299081	-0.504841	-0.221019	-0.390369	-0.170928	-0.516979	-0.105945	-0.286584	-0.077164	-0.49658	-0.122517	-0.123394	-0.065055	-0.641002	-0.122872	-0.529171	-0.431562	0.268744	
3.08838	0	0	-0.0751312	-0.274447	-0.216147	0.134594	-0.173953	-0.119644	-0.0367235	-0.424554	-0.260842	-0.0796765	-0.152037	-0.424694	-0.268811	-0.205838	-0.303329	-0.525241	-0.229677	-0.406836	-0.18469	-0.527037	-0.111565	-0.293668	-0.085335	-0.495701	-0.119264	-0.132586	-0.0671782	-0.652749	-0.118503	-0.541519	-0.438323	0.273162	
3.08075	0	0	-0.0811565	-0.309373	-0.21966	0.136889	-0.172736	-0.140985	-0.041002	-0.441863	-0.262292	-0.0951	-0.163022	-0.4451	-0.275215	-0.220243	-0.307578	-0.54564	-0.238335	-0.423303	-0.198451	-0.537095	-0.117184	-0.300753	-0.093506	-0.494822	-0.116012	-0.141779	-0.0693015	-0.664495	-0.114133	-0.553867	-0.445083	0.277579	
3.07312	0	0	-0.0871818	-0.344299	-0.223172	0.139185	-0.171519	-0.162327	-0.0452805	-0.459172	-0.263743	-0.110523	-0.174007	-0.465506	-0.28162	-0.234647	-0.311827	-0.56604	-0.246993	-0.439769	-0.212212	-0.547154	-0.122804	-0.307837	-0.101677	-0.493942	-0.112759	-0.150972	-0.0714248	-0.676242	-0.109764	-0.566214	-0.451844	0.281996	
3.06549	0	0	-0.093207	-0.379225	-0.226685	0.14148	-0.170301	-0.183669	-0.049559	-0.476481	-0.265194	-0.125947	-0.184992	-0.485913	-0.288025	-0.249052	-0.316075	-0.58644	-0.255651	-0.456236	-0.225974	-0.557212	-0.128424	-0.314922	-0.109848	-0.493063	-0.109507	-0.160164	-0.073548	-0.687989	-0.105395	-0.578562	-0.458605	0.286414	
3.06091	0	0	-0.0942827	-0.410741	-0.23645	0.146201	-0.178896	-0.195128	-0.0564767	-0.486285	-0.26947	-0.133365	-0.189215	-0.499651	-0.289804	-0.260254	-0.320153	-0.599182	-0.256595	-0.474001	-0.228473	-0.574577	-0.133051	-0.324784	-0.117971	-0.514453	-0.109659	-0.174177	-0.074799	-0.719897	-0.108725	-0.597698	-0.46536	0.290828	
3.05939	0	0	-0.0953585	-0.442256	-0.246215	0.150922	-0.187491	-0.206586	-0.0633945	-0.49609	-0.273746	-0.140784	-0.193437	-0.51339	-0.291584	-0.271457	-0.324232	-0.611924	-0.25754	-0.491766	-0.230972	-0.591942	-0.137677	-0.334646	-0.126094	-0.535844	-0.109812	-0.18819	-0.07605	-0.751805	-0.112054	-0.616834	-0.472116	0.295242	
3.05481	0	0	-0.0964342	-0.473772	-0.255981	0.155643	-0.196086	-0.218045	-0.0703122	-0.505895	-0.278022	-0.148202	-0.19766	-0.527128	-0.293363	-0.28266	-0.32831	-0.624667	-0.258484	-0.509532	-0.233471	-0.609307	-0.142303	-0.344509	-0.134217	-0.557234	-0.109965	-0.202203	-0.077301	-0.783713	-0.115383	-0.635969	-0.478871	0.299656	
3.05023	0	0	-0.09751	-0.505288	-0.265746	0.160364	-0.204681	-0.229503	-0.07723	-0.515699	-0.282298	-0.15562	-0.201883	-0.540867	-0.295143	-0.293862	-0.332388	-0.637409	-0.259428	-0.527297	-0.23597	-0.626672	-0.14693	-0.354371	-0.14234	-0.578624	-0.110117	-0.216216	-0.078552	-0.815621	-0.118713	-0.655105	-0.485626	0.30407	
3.04413	0	0	-0.107473	-0.511623	-0.265746	0.160364	-0.20819	-0.237434	-0.081344	-0.518733	-0.28042	-0.160928	-0.211156	-0.540299	-0.299765	-0.297016	-0.331503	-0.639911	-0.26207	-0.540241	-0.239966	-0.631645	-0.139679	-0.363399	-0.136214	-0.595937	-0.113517	-0.22104	-0.0939605	-0.825113	-0.120925	-0.66311	-0.492376	0.308481	
3.03802	0	0	-0.117435	-0.517958	-0.265746	0.160364	-0.211699	-0.245366	-0.085458	-0.521766	-0.278542	-0.166236	-0.220428	-0.53973	-0.304388	-0.30017	-0.330618	-0.642413	-0.264713	-0.553184	-0.243962	-0.636618	-0.132428	-0.372426	-0.130088	-0.61325	-0.116917	-0.225863	-0.109369	-0.834606	-0.123137	-0.671115	-0.499126	0.312891	
3.0365	0	0	-0.127398	-0.524294	-0.265746	0.160364	-0.215209	-0.253298	-0.089572	-0.524799	-0.276664	-0.171544	-0.229701	-0.539161	-0.30901	-0.303324	-0.329732	-0.644915	-0.267356	-0.566128	-0.247958	-0.641592	-0.125176	-0.381454	-0.123962	-0.630562	-0.120317	-0.230687	-0.124777	-0.844098	-0.125348	-0.679121	-0.505876	0.317302	
3.03192	0	0	-0.137361	-0.530629	-0.265746	0.160364	-0.218718	-0.261229	-0.093686	-0.527833	-0.274786	-0.176852	-0.238974	-0.538593	-0.313632	-0.306478	-0.328847	-0.647417	-0.269998	-0.579072	-0.251954	-0.646565	-0.117925	-0.390482	-0.117836	-0.647875	-0.123717	-0.235511	-0.140186	-0.85359	-0.12756	-0.687126	-0.512626	0.321713	
3.02887	0	0	-0.141415	-0.553598	-0.272758	0.164946	-0.220662	-0.273568	-0.100591	-0.537604	-0.277393	-0.179226	-0.236449	-0.545729	-0.310793	-0.314502	-0.327962	-0.649918	-0.276012	-0.582466	-0.253951	-0.649049	-0.124189	-0.384244	-0.121918	-0.636337	-0.117074	-0.239851	-0.14681	-0.852517	-0.125388	-0.693266	-0.511864	0.31956	
3.02276	0	0	-0.14547	-0.576568	-0.27977	0.169527	-0.222606	-0.285907	-0.107496	-0.547375	-0.280001	-0.1816	-0.233924	-0.552864	-0.307953	-0.322526	-0.327077	-0.652419	-0.282025	-0.585861	-0.255948	-0.651533	-0.130453	-0.378007	-0.126001	-0.624799	-0.110431	-0.244192	-0.153434	-0.851444	-0.123215	-0.699406	-0.511102	0.317407	
3.01819	0	0	-0.149525	-0.599537	-0.286782	0.174109	-0.224549	-0.298246	-0.114401	-0.557146	-0.282609	-0.183975	-0.231399	-0.56	-0.305114	-0.330549	-0.326192	-0.65492	-0.288038	-0.589255	-0.257945	-0.654018	-0.136717	-0.37177	-0.130084	-0.61326	-0.103789	-0.248533	-0.160057	-0.85037	-0.121042	-0.705546	-0.51034	0.315253	
3.01208	0	0	-0.153579	-0.622506	-0.293794	0.178691	-0.226493	-0.310585	-0.121306	-0.566917	-0.285216	-0.186349	-0.228874	-0.567136	-0.302275	-0.338573	-0.325307	-0.657421	-0.294052	-0.592649	-0.259942	-0.656502	-0.142981	-0.365532	-0.134166	-0.601722	-0.097146	-0.252873	-0.166681	-0.849297	-0.11887	-0.711686	-0.509578	0.3131	
3.01056	0	0	-0.155612	-0.633951	-0.297298	0.180981	-0.231565	-0.314065	-0.11868	-0.574337	-0.28334	-0.191651	-0.235614	-0.573691	-0.308314	-0.337709	-0.323356	-0.65485	-0.300059	-0.59604	-0.259942	-0.656502	-0.13573	-0.374558	-0.138231	-0.612367	-0.096066	-0.255926	-0.172435	-0.868277	-0.115614	-0.720888	-0.517084	0.31966	
3.00751	0	0	-0.157645	-0.645396	-0.300802	0.183271	-0.236638	-0.317546	-0.116055	-0.581758	-0.281465	-0.196952	-0.242353	-0.580246	-0.314353	-0.336846	-0.321404	-0.652278	-0.306065	-0.59943	-0.259942	-0.656502	-0.128479	-0.383584	-0.142296	-0.623012	-0.094986	-0.258978	-0.17819	-0.887257	-0.112357	-0.73009	-0.524591	0.326221	
3.01666	0	0	-0.159678	-0.656842	-0.304306	0.18556	-0.24171	-0.321026	-0.113429	-0.589179	-0.279589	-0.202254	-0.249092	-0.586802	-0.320392	-0.335983	-0.319453	-0.649707	-0.312072	-0.602821	-0.259942	-0.656502	-0.121229	-0.392611	-0.146362	-0.633658	-0.093906	-0.26203	-0.183945	-0.906236	-0.109101	-0.739293	-0.532098	0.332781	
3.02582	0	0	-0.161711	-0.668287	-0.30781	0.18785	-0.246782	-0.324506	-0.110803	-0.596599	-0.277713	-0.207556	-0.255832	-0.593357	-0.326431	-0.335119	-0.317502	-0.647136	-0.318079	-0.606212	-0.259942	-0.656502	-0.113978	-0.401637	-0.150427	-0.644303	-0.092826	-0.265083	-0.189699	-0.925216	-0.105845	-0.748495	-0.539604	0.339341	
3.04108	0	0	-0.169616	-0.663122	-0.30781	0.18785	-0.248345	-0.320088	-0.114742	-0.585466	-0.276981	-0.19988	-0.249092	-0.586802	-0.321812	-0.331971	-0.312532	-0.636904	-0.308705	-0.612337	-0.255947	-0.651532	-0.105388	-0.402962	-0.150427	-0.644303	-0.0872583	-0.266374	-0.188206	-0.929434	-0.10693	-0.745429	-0.536995	0.339292	
3.06244	0	0	-0.17752	-0.657957	-0.30781	0.18785	-0.249909	-0.315671	-0.118681	-0.574332	-0.276249	-0.192204	-0.242353	-0.580246	-0.317192	-0.328824	-0.307562	-0.626672	-0.299331	-0.618462	-0.251953	-0.646562	-0.096798	-0.404286	-0.150427	-0.644303	-0.0816905	-0.267666	-0.186714	-0.933651	-0.108015	-0.742362	-0.534385	0.339243	
3.08533	0	0	-0.185424	-0.652792	-0.30781	0.18785	-0.251472	-0.311253	-0.122621	-0.563199	-0.275518	-0.184528	-0.235614	-0.573691	-0.312572	-0.325677	-0.302591	-0.616441	-0.289958	-0.624587	-0.247958	-0.641592	-0.088208	-0.40561	-0.150427	-0.644303	-0.0761228	-0.268957	-0.185222	-0.937868	-0.1091	-0.739295	-0.531775	0.339193	
3.10516	0	0	-0.193329	-0.647627	-0.30781	0.18785	-0.253035	-0.306835	-0.12656	-0.552066	-0.274786	-0.176852	-0.228874	-0.567136	-0.307953	-0.322529	-0.297621	-0.606209	-0.280584	-0.630712	-0.243963	-0.636622	-0.079618	-0.406935	-0.150427	-0.644303	-0.070555	-0.270248	-0.183729	-0.942086	-0.110185	-0.736229	-0.529166	0.339144	
3.12195	0	0	-0.198291	-0.650763	-0.30781	0.18785	-0.261227	-0.301482	-0.125247	-0.555779	-0.273116	-0.171821	-0.231399	-0.56	-0.303329	-0.319379	-0.29638	-0.593514	-0.282267	-0.625955	-0.237966	-0.629155	-0.073981	-0.399886	-0.140251	-0.628769	-0.0671445	-0.265431	-0.189702	-0.925204	-0.106881	-0.731311	-0.525793	0.33694	
3.13873	0	0	-0.203253	-0.653898	-0.30781	0.18785	-0.269418	-0.29613	-0.123933	-0.559492	-0.271447	-0.16679	-0.233924	-0.552864	-0.298705	-0.316229	-0.295138	-0.58082	-0.28395	-0.621199	-0.231969	-0.621687	-0.068344	-0.392836	-0.130074	-0.613235	-0.063734	-0.260614	-0.195676	-0.908322	-0.103577	-0.726394	-0.52242	0.334736	
3.15552	0	0	-0.208214	-0.657034	-0.30781	0.18785	-0.27761	-0.290778	-0.122619	-0.563204	-0.269778	-0.161758	-0.236449	-0.545729	-0.294082	-0.313078	-0.293897	-0.568126	-0.285633	-0.616443	-0.225971	-0.61422	-0.062707	-0.385786	-0.119898	-0.597701	-0.0603235	-0.255797	-0.20165	-0.89144	-0.100272	-0.721476	-0.519047	0.332532	
3.16925	0	0	-0.213176	-0.66017	-0.30781	0.18785	-0.285801	-0.285425	-0.121306	-0.566917	-0.268108	-0.156727	-0.238974	-0.538593	-0.289458	-0.309928	-0.292655	-0.555431	-0.287316	-0.611686	-0.219974	-0.606753	-0.05707	-0.378737	-0.109721	-0.582167	-0.056913	-0.25098	-0.207623	-0.874558	-0.096968	-0.716558	-0.515674	0.330328	
3.17383	0	0	-0.219599	-0.65916	-0.311312	0.190138	-0.287365	-0.281005	-0.122619	-0.563204	-0.265499	-0.154348	-0.229701	-0.539161	-0.292301	-0.301893	-0.283949	-0.547587	-0.287316	-0.611686	-0.215973	-0.601766	-0.05707	-0.378737	-0.105633	-0.59372	-0.0579947	-0.247923	-0.209118	-0.870332	-0.096968	-0.716558	-0.508924	0.325917	
3.17688	0	0	-0.226023	-0.658149	-0.314815	0.192427	-0.288929	-0.276585	-0.123933	-0.559492	-0.262889	-0.151969	-0.220428	-0.53973	-0.295144	-0.293859	-0.275243	-0.539743	-0.287316	-0.611686	-0.211971	-0.59678	-0.05707	-0.378737	-0.101545	-0.605274	-0.0590765	-0.244866	-0.210614	-0.866107	-0.096968	-0.716558	-0.502174	0.321507	
3.18146	0	0	-0.232446	-0.657139	-0.318317	0.194716	-0.290493	-0.272165	-0.125247	-0.555779	-0.260279	-0.149589	-0.211156	-0.540299	-0.297987	-0.285824	-0.266536	-0.5319	-0.287316	-0.611686	-0.20797	-0.591793	-0.05707	-0.378737	-0.097457	-0.616827	-0.0601583	-0.24181	-0.212109	-0.861881	-0.096968	-0.716558	-0.495424	0.317096	
3.18451	0	0	-0.238869	-0.656129	-0.32182	0.197004	-0.292057	-0.267745	-0.12656	-0.552066	-0.25767	-0.14721	-0.201883	-0.540867	-0.30083	-0.277789	-0.25783	-0.524056	-0.287316	-0.611686	-0.203968	-0.586807	-0.05707	-0.378737	-0.093369	-0.62838	-0.06124	-0.238753	-0.213604	-0.857656	-0.096968	-0.716558	-0.488674	0.312685	
3.1723	0	0	-0.23685	-0.644693	-0.318317	0.194716	-0.296754	-0.254472	-0.133136	-0.53348	-0.253389	-0.139786	-0.195127	-0.534288	-0.299053	-0.266579	-0.248044	-0.511072	-0.281301	-0.608297	-0.194204	-0.58177	-0.0504378	-0.374472	-0.085201	-0.629278	-0.058912	-0.230866	-0.218094	-0.844967	-0.0947497	-0.70856	-0.481919	0.308271	
3.17078	0	0	-0.234831	-0.633256	-0.314815	0.192427	-0.30145	-0.241199	-0.139713	-0.514894	-0.249108	-0.132362	-0.188371	-0.527708	-0.297276	-0.25537	-0.238258	-0.498088	-0.275286	-0.604907	-0.184439	-0.576732	-0.0438055	-0.370208	-0.077033	-0.630175	-0.056584	-0.222978	-0.222583	-0.832279	-0.0925315	-0.700562	-0.475163	0.303857	
3.16772	0	0	-0.232812	-0.621819	-0.311312	0.190138	-0.306146	-0.227925	-0.14629	-0.496308	-0.244826	-0.124938	-0.181616	-0.521128	-0.295499	-0.24416	-0.228472	-0.485104	-0.26927	-0.601518	-0.174675	-0.571695	-0.0371732	-0.365943	-0.068865	-0.631073	-0.054256	-0.215091	-0.227073	-0.81959	-0.0903133	-0.692565	-0.468408	0.299443	
3.16009	0	0	-0.230793	-0.610383	-0.30781	0.18785	-0.310843	-0.214652	-0.152866	-0.477722	-0.240545	-0.117514	-0.17486	-0.514549	-0.293722	-0.23295	-0.218686	-0.47212	-0.263255	-0.598129	-0.16491	-0.566658	-0.030541	-0.361678	-0.060697	-0.63197	-0.051928	-0.207204	-0.231563	-0.806902	-0.088095	-0.684567	-0.461653	0.295029	
3.15399	0	0	-0.241093	-0.581273	-0.30781	0.18785	-0.317116	-0.196924	-0.160776	-0.455368	-0.235534	-0.102351	-0.178256	-0.479241	-0.285893	-0.222571	-0.212469	-0.44896	-0.249516	-0.596113	-0.157763	-0.554166	-0.0278678	-0.346196	-0.056632	-0.599006	-0.041687	-0.19268	-0.220728	-0.784633	-0.0781708	-0.669748	-0.444742	0.283979	
3.14484	0	0	-0.251393	-0.552163	-0.30781	0.18785	-0.323388	-0.179196	-0.168685	-0.433013	-0.230523	-0.087188	-0.181653	-0.443933	-0.278064	-0.212191	-0.206253	-0.425801	-0.235776	-0.594096	-0.150616	-0.541674	-0.0251945	-0.330713	-0.052567	-0.566042	-0.031446	-0.178155	-0.209894	-0.762365	-0.0682465	-0.654929	-0.42783	0.272929	
3.12958	0	0	-0.261694	-0.523052	-0.30781	0.18785	-0.329661	-0.161467	-0.176595	-0.410659	-0.225513	-0.072025	-0.18505	-0.408626	-0.270235	-0.201812	-0.200036	-0.402641	-0.222037	-0.592079	-0.143468	-0.529182	-0.0225212	-0.315231	-0.048502	-0.533078	-0.021205	-0.16363	-0.199059	-0.740097	-0.0583222	-0.640109	-0.410918	0.261878	
3.12195	0	0	-0.271994	-0.493942	-0.30781	0.18785	-0.335934	-0.143739	-0.184505	-0.388305	-0.220502	-0.056862	-0.188446	-0.373318	-0.262406	-0.191433	-0.193819	-0.379481	-0.208298	-0.590063	-0.136321	-0.51669	-0.019848	-0.299749	-0.044437	-0.500114	-0.010964	-0.149106	-0.188224	-0.717828	-0.048398	-0.62529	-0.394007	0.250828	
3.10974	0	0	-0.268522	-0.486597	-0.301565	0.185429	-0.340647	-0.13042	-0.181731	-0.381509	-0.219777	-0.0491253	-0.172375	-0.367215	-0.260633	-0.180171	-0.187773	-0.363921	-0.213366	-0.57574	-0.132057	-0.504185	-0.018514	-0.29199	-0.052666	-0.476857	-0.00739575	-0.130155	-0.1804	-0.686899	-0.0527417	-0.598703	-0.383844	0.244187	
3.09906	0	0	-0.265049	-0.479252	-0.295319	0.183007	-0.34536	-0.1171	-0.178957	-0.374712	-0.219052	-0.0413885	-0.156303	-0.361113	-0.25886	-0.168908	-0.181726	-0.348361	-0.218434	-0.561416	-0.127793	-0.49168	-0.01718	-0.284231	-0.060895	-0.4536	-0.0038275	-0.111205	-0.172577	-0.655971	-0.0570855	-0.572115	-0.373681	0.237546	
3.0899	0	0	-0.261576	-0.471908	-0.289074	0.180586	-0.350073	-0.103781	-0.176182	-0.367916	-0.218328	-0.0336518	-0.140232	-0.355011	-0.257086	-0.157646	-0.175679	-0.332802	-0.223502	-0.547093	-0.123529	-0.479175	-0.015846	-0.276472	-0.069124	-0.430344	-0.00025925	-0.0922545	-0.164753	-0.625042	-0.0614292	-0.545528	-0.363518	0.230906	
3.07922	0	0	-0.258104	-0.464563	-0.282829	0.178165	-0.354786	-0.090462	-0.173408	-0.361119	-0.217603	-0.025915	-0.12416	-0.348908	-0.255313	-0.146384	-0.169633	-0.317242	-0.22857	-0.53277	-0.119265	-0.46667	-0.014512	-0.268713	-0.077353	-0.407087	0.003309	-0.073304	-0.15693	-0.594113	-0.065773	-0.518941	-0.353355	0.224265	
3.07007	0	0	-0.259068	-0.444666	-0.275814	0.173581	-0.352889	-0.0780245	-0.167858	-0.347495	-0.209755	-0.0187095	-0.117384	-0.342244	-0.24604	-0.139999	-0.159819	-0.304089	-0.224231	-0.524576	-0.113237	-0.459118	-0.0174945	-0.260284	-0.0712278	-0.402132	0.0034515	-0.0591722	-0.156346	-0.578049	-0.058064	-0.512073	-0.346573	0.219833	
3.05939	0	0	-0.260031	-0.424768	-0.268798	0.168997	-0.350992	-0.065587	-0.162309	-0.333871	-0.201906	-0.011504	-0.110607	-0.33558	-0.236768	-0.133614	-0.150004	-0.290936	-0.219892	-0.516382	-0.107209	-0.451566	-0.020477	-0.251854	-0.0651025	-0.397177	0.003594	-0.0450405	-0.155762	-0.561986	-0.050355	-0.505205	-0.339791	0.215402	
3.05481	0	0	-0.260995	-0.404871	-0.261783	0.164414	-0.349096	-0.0531495	-0.156759	-0.320246	-0.194058	-0.0042985	-0.103831	-0.328916	-0.227495	-0.12723	-0.140189	-0.277782	-0.215554	-0.508187	-0.101181	-0.444014	-0.0234595	-0.243425	-0.0589773	-0.392223	0.0037365	-0.0309087	-0.155179	-0.545922	-0.042646	-0.498337	-0.333009	0.210971	
3.05023	0	0	-0.261958	-0.384974	-0.254768	0.15983	-0.347199	-0.040712	-0.151209	-0.306622	-0.18621	0.002907	-0.097054	-0.322252	-0.218222	-0.120845	-0.130375	-0.264629	-0.211215	-0.499993	-0.095153	-0.436462	-0.026442	-0.234996	-0.052852	-0.387268	0.003879	-0.016777	-0.154595	-0.529858	-0.034937	-0.491469	-0.326227	0.206539	
3.04108	0	0	-0.262939	-0.365011	-0.251258	0.157537	-0.345307	-0.0282442	-0.146987	-0.2892	-0.184767	0.0184433	-0.0860402	-0.301641	-0.217886	-0.105478	-0.125225	-0.246407	-0.199135	-0.493153	-0.0850925	-0.423841	-0.0194675	-0.220076	-0.0467908	-0.359785	-0.006089	-0.0031405	-0.12528	-0.506071	-0.0338243	-0.48027	-0.309248	0.195445	
3.04413	0	0	-0.263921	-0.345047	-0.247748	0.155244	-0.343415	-0.0157765	-0.142765	-0.271778	-0.183323	0.0339795	-0.0750265	-0.281029	-0.21755	-0.0901115	-0.120075	-0.228185	-0.187055	-0.486313	-0.075032	-0.41122	-0.012493	-0.205155	-0.0407295	-0.332303	-0.016057	0.010496	-0.0959655	-0.482284	-0.0327115	-0.469071	-0.29227	0.184351	
3.04565	0	0	-0.264902	-0.325084	-0.244239	0.15295	-0.341523	-0.00330875	-0.138542	-0.254356	-0.181879	0.0495157	-0.0640128	-0.260418	-0.217213	-0.0747447	-0.114925	-0.209962	-0.174974	-0.479473	-0.0649715	-0.3986	-0.0055185	-0.190235	-0.0346682	-0.30482	-0.026025	0.0241325	-0.0666508	-0.458496	-0.0315988	-0.457873	-0.275292	0.173256	
3.05023	0	0	-0.265883	-0.305121	-0.240729	0.150657	-0.339631	0.009159	-0.13432	-0.236934	-0.180436	0.065052	-0.052999	-0.239807	-0.216877	-0.059378	-0.109775	-0.19174	-0.162894	-0.472633	-0.054911	-0.385979	0.001456	-0.175315	-0.028607	-0.277338	-0.035993	0.037769	-0.037336	-0.434709	-0.030486	-0.446674	-0.258313	0.162162	
3.06091	0	0	-0.263906	-0.293501	-0.237218	0.148363	-0.364499	0.0082825	-0.130215	-0.233839	-0.162079	0.0819918	-0.0300067	-0.226909	-0.202938	-0.0497358	-0.0843233	-0.164991	-0.151541	-0.443079	-0.040798	-0.368239	0.0374562	-0.137886	-0.0205912	-0.232872	-0.0694665	0.0454017	0.00308225	-0.38783	-0.034884	-0.434245	-0.227667	0.142137	
3.06091	0	0	-0.261929	-0.28188	-0.233707	0.146068	-0.389367	0.007406	-0.126111	-0.230745	-0.143722	0.0989315	-0.0070145	-0.214012	-0.188999	-0.0400935	-0.0588715	-0.138242	-0.140188	-0.413525	-0.026685	-0.350498	0.0734565	-0.100458	-0.0125755	-0.188407	-0.10294	0.0530345	0.0435005	-0.340951	-0.039282	-0.421815	-0.19702	0.122112	
3.07007	0	0	-0.259953	-0.27026	-0.230196	0.143774	-0.414236	0.0065295	-0.122007	-0.22765	-0.125364	0.115871	0.0159778	-0.201115	-0.17506	-0.0304512	-0.0334197	-0.111493	-0.128834	-0.383971	-0.012572	-0.332757	0.109457	-0.0630288	-0.00455975	-0.143942	-0.136414	0.0606672	0.0839188	-0.294072	-0.04368	-0.409385	-0.166374	0.102088	
3.07159	0	0	-0.257976	-0.25864	-0.226685	0.14148	-0.439104	0.005653	-0.117902	-0.224555	-0.107007	0.132811	0.03897	-0.188217	-0.161121	-0.020809	-0.007968	-0.084744	-0.117481	-0.354417	0.001541	-0.315017	0.145457	-0.0256	0.003456	-0.099476	-0.169887	0.0683	0.124337	-0.247193	-0.048078	-0.396956	-0.135728	0.082063	
3.07464	0	0	-0.26393	-0.241813	-0.219658	0.136888	-0.460438	0.0127545	-0.104237	-0.219021	-0.0974453	0.145229	0.0432155	-0.174184	-0.148924	-0.0225173	0.00266925	-0.0817973	-0.103638	-0.352331	0.0140683	-0.317411	0.160188	-0.00893675	-0.000721	-0.087671	-0.178826	0.0646647	0.153454	-0.239373	-0.0535798	-0.395751	-0.115236	0.068673	
3.07464	0	0	-0.269884	-0.224987	-0.212632	0.132297	-0.481772	0.019856	-0.090572	-0.213486	-0.0878835	0.157647	0.047461	-0.160151	-0.136727	-0.0242255	0.0133065	-0.0788505	-0.0897955	-0.350245	0.0265955	-0.319805	0.17492	0.0077265	-0.004898	-0.075866	-0.187766	0.0610295	0.182571	-0.231553	-0.0590815	-0.394547	-0.094744	0.055283	
3.07312	0	0	-0.275838	-0.20816	-0.205605	0.127705	-0.503105	0.0269575	-0.076907	-0.207952	-0.0783217	0.170064	0.0517065	-0.146117	-0.124529	-0.0259337	0.0239438	-0.0759037	-0.0759527	-0.34816	0.0391227	-0.322199	0.189651	0.0243897	-0.009075	-0.064061	-0.196705	0.0573943	0.211689	-0.223734	-0.0645832	-0.393342	-0.074252	0.041893	
3.07464	0	0	-0.281792	-0.191334	-0.198578	0.123114	-0.524439	0.034059	-0.063242	-0.202417	-0.06876	0.182482	0.055952	-0.132084	-0.112332	-0.027642	0.034581	-0.072957	-0.06211	-0.346074	0.05165	-0.324593	0.204382	0.041053	-0.013252	-0.052256	-0.205644	0.053759	0.240806	-0.215914	-0.070085	-0.392137	-0.05376	0.028503	
3.07312	0	0	-0.278338	-0.183873	-0.195063	0.120817	-0.526012	0.0385055	-0.057674	-0.188659	-0.0680417	0.190325	0.043971	-0.124256	-0.113774	-0.023567	0.0297152	-0.0757178	-0.0672413	-0.331572	0.0469603	-0.319597	0.198315	0.0581998	-0.0071125	-0.0471797	-0.220113	0.051386	0.270076	-0.208089	-0.0733837	-0.397147	-0.0400715	0.0195587	
3.09143	0	0	-0.274884	-0.176411	-0.191547	0.11852	-0.527586	0.042952	-0.052106	-0.174901	-0.0673235	0.198167	0.03199	-0.116427	-0.115216	-0.019492	0.0248495	-0.0784785	-0.0723725	-0.317071	0.0422705	-0.314601	0.192248	0.0753465	-0.000973	-0.0421035	-0.234582	0.049013	0.299347	-0.200263	-0.0766825	-0.402157	-0.026383	0.0106145	
3.05939	0	0	-0.271431	-0.16895	-0.188032	0.116223	-0.529159	0.0473985	-0.046538	-0.161143	-0.0666053	0.206009	0.020009	-0.108599	-0.116658	-0.015417	0.0199838	-0.0812392	-0.0775037	-0.302569	0.0375807	-0.309605	0.18618	0.0924932	0.0051665	-0.0370272	-0.249052	0.04664	0.328617	-0.192438	-0.0799813	-0.407167	-0.0126945	0.00167025	
3.04565	0	0	-0.267977	-0.161489	-0.184517	0.113926	-0.530732	0.051845	-0.04097	-0.147385	-0.065887	0.213852	0.008028	-0.10077	-0.1181	-0.011342	0.015118	-0.084	-0.082635	-0.288068	0.032891	-0.304609	0.180113	0.10964	0.011306	-0.031951	-0.263521	0.044267	0.357887	-0.184613	-0.08328	-0.412177	0.000994	-0.007274	
3.03497	0	0	-0.27786	-0.167986	-0.188032	0.116223	-0.529159	0.0473985	-0.046424	-0.146724	-0.0742613	0.227646	0.0028605	-0.0861655	-0.119542	-0.007265	0.004642	-0.0791335	-0.078276	-0.279749	0.0322428	-0.29452	0.186114	0.127746	0.0215065	-0.0158443	-0.281213	0.051102	0.389468	-0.164622	-0.08328	-0.412177	0.0147045	-0.0162328	
3.03192	0	0	-0.287744	-0.174482	-0.191547	0.11852	-0.527586	0.042952	-0.051878	-0.146062	-0.0826355	0.241441	-0.002307	-0.071561	-0.120985	-0.003188	-0.005834	-0.074267	-0.073917	-0.271431	0.0315945	-0.28443	0.192115	0.145851	0.031707	0.0002625	-0.298905	0.057937	0.421048	-0.144631	-0.08328	-0.412177	0.028415	-0.0251915	
3.02429	0	0	-0.297627	-0.180978	-0.195063	0.120817	-0.526012	0.0385055	-0.057332	-0.1454	-0.0910098	0.255235	-0.0074745	-0.0569565	-0.122427	0.000889	-0.01631	-0.0694005	-0.069558	-0.263112	0.0309462	-0.27434	0.198117	0.163957	0.0419075	0.0163692	-0.316596	0.064772	0.452628	-0.124641	-0.08328	-0.412177	0.0421255	-0.0341503	
3.0365	0	0	-0.30751	-0.187475	-0.198578	0.123114	-0.524439	0.034059	-0.062786	-0.144739	-0.099384	0.269029	-0.012642	-0.042352	-0.12387	0.004966	-0.026786	-0.064534	-0.065199	-0.254793	0.030298	-0.264251	0.204118	0.182062	0.052108	0.032476	-0.334288	0.071607	0.484209	-0.10465	-0.08328	-0.412177	0.055836	-0.043109	
3.01819	0	0	-0.304533	-0.195888	-0.198578	0.123114	-0.522867	0.0296147	-0.055996	-0.149176	-0.104884	0.274705	-0.0220215	-0.0418395	-0.132856	0.0139735	-0.0334585	-0.0621525	-0.0556897	-0.261006	0.0361232	-0.264187	0.212863	0.180762	0.04386	0.033305	-0.340992	0.061831	0.496342	-0.102384	-0.0909693	-0.419079	0.0626995	-0.0475938	
3.01208	0	0	-0.301557	-0.204301	-0.198578	0.123114	-0.521294	0.0251705	-0.049206	-0.153612	-0.110384	0.280381	-0.031401	-0.041327	-0.141842	0.022981	-0.040131	-0.059771	-0.0461805	-0.26722	0.0419485	-0.264123	0.221607	0.179462	0.035612	0.034134	-0.347695	0.052055	0.508476	-0.100118	-0.0986585	-0.42598	0.069563	-0.0520785	
3.00598	0	0	-0.29858	-0.212714	-0.198578	0.123114	-0.519721	0.0207263	-0.042416	-0.158049	-0.115884	0.286056	-0.0407805	-0.0408145	-0.150828	0.0319885	-0.0468035	-0.0573895	-0.0366712	-0.273433	0.0477738	-0.264059	0.230351	0.178162	0.027364	0.034963	-0.354398	0.042279	0.520609	-0.097852	-0.106348	-0.432881	0.0764265	-0.0565632	
3.0014	0	0	-0.295603	-0.221127	-0.198578	0.123114	-0.518149	0.016282	-0.035626	-0.162486	-0.121384	0.291732	-0.05016	-0.040302	-0.159814	0.040996	-0.053476	-0.055008	-0.027162	-0.279647	0.053599	-0.263995	0.239096	0.176862	0.019116	0.035792	-0.361102	0.032503	0.532742	-0.095586	-0.114037	-0.439783	0.08329	-0.061048	
2.99377	0	0	-0.29364	-0.209467	-0.198578	0.123114	-0.518149	0.016282	-0.0382982	-0.154934	-0.119975	0.307491	-0.0459568	-0.0261862	-0.156605	0.048315	-0.0530427	-0.0315135	-0.0184165	-0.262973	0.0578863	-0.251294	0.263994	0.200446	0.0335213	0.0400698	-0.37439	0.0270585	0.548637	-0.0855383	-0.123906	-0.44048	0.0901588	-0.0655363	
2.9892	0	0	-0.291678	-0.197807	-0.198578	0.123114	-0.518149	0.016282	-0.0409705	-0.147381	-0.118566	0.32325	-0.0417535	-0.0120705	-0.153396	0.055634	-0.0526095	-0.008019	-0.009671	-0.2463	0.0621735	-0.238592	0.288892	0.22403	0.0479265	0.0443475	-0.387678	0.021614	0.564533	-0.0754905	-0.133775	-0.441177	0.0970275	-0.0700245	
2.98462	0	0	-0.289716	-0.186148	-0.198578	0.123114	-0.518149	0.016282	-0.0436428	-0.139829	-0.117157	0.33901	-0.0375503	0.00204525	-0.150187	0.062953	-0.0521763	0.0154755	-0.0009255	-0.229626	0.0664607	-0.22589	0.313791	0.247614	0.0623317	0.0486252	-0.400967	0.0161695	0.580428	-0.0654427	-0.143645	-0.441874	0.103896	-0.0745128	
2.97851	0	0	-0.287753	-0.174488	-0.198578	0.123114	-0.518149	0.016282	-0.046315	-0.132277	-0.115748	0.354769	-0.033347	0.016161	-0.146978	0.070272	-0.051743	0.03897	0.00782	-0.212952	0.070748	-0.213189	0.338689	0.271198	0.076737	0.052903	-0.414255	0.010725	0.596323	-0.055395	-0.153514	-0.442571	0.110765	-0.079001	
2.97394	0	0	-0.298654	-0.160885	-0.206369	0.129865	-0.523151	0.0127225	-0.0517688	-0.131617	-0.108834	0.364879	-0.0317435	0.037661	-0.142321	0.0735135	-0.0350637	0.0579097	0.012196	-0.20459	0.0777178	-0.208036	0.343396	0.281459	0.0807955	0.063969	-0.416421	0.0168463	0.594753	-0.0509575	-0.153514	-0.442571	0.110765	-0.079001	
2.96326	0	0	-0.309556	-0.147281	-0.21416	0.136616	-0.528153	0.009163	-0.0572225	-0.130958	-0.101919	0.374989	-0.03014	0.059161	-0.137664	0.076755	-0.0183845	0.0768495	0.016572	-0.196227	0.0846875	-0.202883	0.348102	0.29172	0.084854	0.075035	-0.418586	0.0229675	0.593182	-0.04652	-0.153514	-0.442571	0.110765	-0.079001	
2.96326	0	0	-0.320458	-0.133678	-0.22195	0.143367	-0.533155	0.0056035	-0.0626762	-0.130298	-0.0950052	0.385099	-0.0285365	0.080661	-0.133007	0.0799965	-0.00170525	0.0957892	0.020948	-0.187865	0.0916573	-0.197731	0.352809	0.30198	0.0889125	0.086101	-0.420752	0.0290887	0.591612	-0.0420825	-0.153514	-0.442571	0.110765	-0.079001	
2.95563	0	0	-0.331359	-0.120074	-0.229741	0.150118	-0.538157	0.002044	-0.06813	-0.129638	-0.088091	0.395209	-0.026933	0.102161	-0.12835	0.083238	0.014974	0.114729	0.025324	-0.179503	0.098627	-0.192578	0.357515	0.312241	0.092971	0.097167	-0.422918	0.03521	0.590042	-0.037645	-0.153514	-0.442571	0.110765	-0.079001	
2.9541	0	0	-0.331359	-0.120074	-0.228977	0.147958	-0.544724	0.00292325	-0.066794	-0.133413	-0.0907175	0.392742	-0.033721	0.0953133	-0.126903	0.0791498	0.0245707	0.112447	0.020948	-0.187865	0.0907643	-0.195207	0.336267	0.301696	0.0766047	0.0758952	-0.42617	0.0443993	0.562601	-0.0333507	-0.166652	-0.433986	0.0970328	-0.070028	
2.94647	0	0	-0.331359	-0.120074	-0.228213	0.145799	-0.551291	0.0038025	-0.065458	-0.137188	-0.093344	0.390276	-0.040509	0.0884655	-0.125456	0.0750615	0.0341675	0.110164	0.016572	-0.196227	0.0829015	-0.197836	0.315018	0.29115	0.0602385	0.0546235	-0.429422	0.0535885	0.535161	-0.0290565	-0.17979	-0.425402	0.0833005	-0.061055	
2.94342	0	0	-0.331359	-0.120074	-0.227449	0.14364	-0.557858	0.00468175	-0.064122	-0.140964	-0.0959705	0.387809	-0.047297	0.0816178	-0.12401	0.0709733	0.0437642	0.107881	0.012196	-0.20459	0.0750388	-0.200465	0.29377	0.280604	0.0438723	0.0333518	-0.432673	0.0627777	0.507721	-0.0247622	-0.192928	-0.416818	0.0695682	-0.052082	
2.93732	0	0	-0.331359	-0.120074	-0.226685	0.14148	-0.564425	0.005561	-0.062786	-0.144739	-0.098597	0.385343	-0.054085	0.07477	-0.122563	0.066885	0.053361	0.105599	0.00782	-0.212952	0.067176	-0.203094	0.272522	0.270059	0.027506	0.01208	-0.435925	0.071967	0.48028	-0.020468	-0.206066	-0.408233	0.055836	-0.043109	
2.93579	0	0	-0.330908	-0.104141	-0.216143	0.134592	-0.564715	-0.0112818	-0.055996	-0.149176	-0.0914168	0.384834	-0.0498968	0.088965	-0.12401	0.0709733	0.0495485	0.10809	0.00265525	-0.198356	0.0618125	-0.187936	0.28937	0.281255	0.031556	0.023115	-0.457982	0.0628585	0.492416	-0.0181733	-0.211523	-0.421312	0.059267	-0.045351	
2.92969	0	0	-0.330458	-0.088208	-0.205601	0.127703	-0.565006	-0.0281245	-0.049206	-0.153612	-0.0842365	0.384325	-0.0457085	0.10316	-0.125456	0.0750615	0.045736	0.110581	-0.0025095	-0.183759	0.056449	-0.172778	0.306219	0.292451	0.035606	0.03415	-0.480038	0.05375	0.504552	-0.0158785	-0.21698	-0.43439	0.062698	-0.047593	
2.92663	0	0	-0.330008	-0.072275	-0.195059	0.120814	-0.565296	-0.0449673	-0.042416	-0.158049	-0.0770562	0.383816	-0.0415202	0.117355	-0.126903	0.0791498	0.0419235	0.113073	-0.00767425	-0.169162	0.0510855	-0.15762	0.323067	0.303647	0.039656	0.045185	-0.502095	0.0446415	0.516687	-0.0135838	-0.222437	-0.447468	0.066129	-0.049835	
2.92206	0	0	-0.329557	-0.056342	-0.184517	0.113926	-0.565586	-0.06181	-0.035626	-0.162486	-0.069876	0.383307	-0.037332	0.13155	-0.12835	0.083238	0.038111	0.115564	-0.012839	-0.154566	0.045722	-0.142462	0.339915	0.314843	0.043706	0.05622	-0.524152	0.035533	0.528823	-0.011289	-0.227894	-0.460547	0.06956	-0.052077	
2.92053	0	0	-0.334047	-0.0436535	-0.181	0.111628	-0.572142	-0.0609275	-0.0205702	-0.160707	-0.0720667	0.399398	-0.0263502	0.152687	-0.125137	0.0905762	0.028787	0.133635	0.0054605	-0.144025	0.0511187	-0.124572	0.35977	0.353215	0.0724325	0.087849	-0.552589	0.0447285	0.565977	0.0123505	-0.228987	-0.457457	0.0867358	-0.0633	
2.9129	0	0	-0.338537	-0.030965	-0.177483	0.10933	-0.578699	-0.060045	-0.0055145	-0.158927	-0.0742575	0.415489	-0.0153685	0.173824	-0.121924	0.0979145	0.019463	0.151706	0.02376	-0.133484	0.0565155	-0.106682	0.379626	0.391587	0.101159	0.119478	-0.581026	0.053924	0.603132	0.03599	-0.230081	-0.454367	0.103911	-0.074523	
2.91138	0	0	-0.343026	-0.0182765	-0.173966	0.107032	-0.585255	-0.0591625	0.00954125	-0.157147	-0.0764482	0.43158	-0.00438675	0.194961	-0.118712	0.105253	0.010139	0.169778	0.0420595	-0.122942	0.0619122	-0.0887928	0.399482	0.429958	0.129886	0.151107	-0.609463	0.0631195	0.640286	0.0596295	-0.231174	-0.451278	0.121087	-0.085746	
2.90069	0	0	-0.347516	-0.005588	-0.170449	0.104734	-0.591811	-0.05828	0.024597	-0.155368	-0.078639	0.447671	0.006595	0.216098	-0.115499	0.112591	0.000815	0.187849	0.060359	-0.112401	0.067309	-0.070903	0.419337	0.46833	0.158612	0.182736	-0.6379	0.072315	0.67744	0.083269	-0.232267	-0.448188	0.138263	-0.096969	
2.89917	0	0	-0.353938	-0.004645	-0.17473	0.109191	-0.593376	-0.0538558	0.0328698	-0.149137	-0.0740805	0.444692	0.0092055	0.20872	-0.116948	0.116687	0.002786	0.190558	0.0647415	-0.103988	0.074502	-0.0580312	0.439698	0.481968	0.158434	0.205884	-0.645516	0.0796365	0.694021	0.11032	-0.248647	-0.430354	0.141703	-0.0992163	
2.89917	0	0	-0.360359	-0.003702	-0.179011	0.113649	-0.594942	-0.0494315	0.0411425	-0.142906	-0.069522	0.441713	0.011816	0.201343	-0.118398	0.120783	0.004757	0.193268	0.069124	-0.0955745	0.081695	-0.0451595	0.460059	0.495606	0.158256	0.229032	-0.653131	0.086958	0.710603	0.13737	-0.265026	-0.412521	0.145142	-0.101463	
2.89459	0	0	-0.366781	-0.002759	-0.183292	0.118107	-0.596507	-0.0450072	0.0494153	-0.136674	-0.0649635	0.438735	0.0144265	0.193965	-0.119847	0.124878	0.006728	0.195977	0.0735065	-0.0871612	0.088888	-0.0322878	0.48042	0.509244	0.158078	0.252181	-0.660747	0.0942795	0.727184	0.16442	-0.281406	-0.394688	0.148581	-0.103711	
2.89001	0	0	-0.373203	-0.001816	-0.187573	0.122564	-0.598073	-0.040583	0.057688	-0.130443	-0.060405	0.435756	0.017037	0.186587	-0.121296	0.128974	0.008699	0.198687	0.077889	-0.078748	0.096081	-0.019416	0.500781	0.522882	0.1579	0.275329	-0.668363	0.101601	0.743765	0.191471	-0.297786	-0.376854	0.152021	-0.105958	
2.89154	0	0	-0.368279	0.0014745	-0.184056	0.120266	-0.604343	-0.0228635	0.0646308	-0.120405	-0.0623353	0.441211	0.026458	0.186103	-0.122746	0.133072	0.0088285	0.206604	0.077889	-0.078748	0.0992295	-0.0116915	0.501816	0.519956	0.155776	0.281333	-0.662907	0.100381	0.747518	0.199387	-0.304327	-0.37258	0.155462	-0.108206	
2.89459	0	0	-0.363355	0.004765	-0.180539	0.117968	-0.610613	-0.005144	0.0715735	-0.110368	-0.0642655	0.446667	0.035879	0.185619	-0.124196	0.137169	0.008958	0.214522	0.077889	-0.078748	0.102378	-0.003967	0.502851	0.517031	0.153651	0.287336	-0.65745	0.099162	0.751271	0.207303	-0.310868	-0.368306	0.158902	-0.110454	
2.89459	0	0	-0.358432	0.0080555	-0.177022	0.11567	-0.616882	0.0125755	0.0785162	-0.100331	-0.0661957	0.452122	0.0453	0.185135	-0.125646	0.141266	0.0090875	0.22244	0.077889	-0.078748	0.105526	0.0037575	0.503886	0.514105	0.151527	0.29334	-0.651994	0.0979425	0.755025	0.215219	-0.31741	-0.364031	0.162343	-0.112703	
2.89764	0	0	-0.353508	0.011346	-0.173505	0.113372	-0.623152	0.030295	0.085459	-0.090293	-0.068126	0.457578	0.054721	0.184651	-0.127096	0.145364	0.009217	0.230357	0.077889	-0.078748	0.108675	0.011482	0.504921	0.51118	0.149403	0.299344	-0.646537	0.096723	0.758778	0.223135	-0.323951	-0.359757	0.165783	-0.114951	
2.90222	0	0	-0.353082	0.0273645	-0.173505	0.113372	-0.619741	0.0383007	0.0842243	-0.0719565	-0.0628657	0.462537	0.0468765	0.206821	-0.123887	0.152726	0.0084215	0.240893	0.076157	-0.0738532	0.110921	0.0217705	0.50285	0.517032	0.143021	0.317379	-0.643237	0.10161	0.771075	0.225484	-0.327236	-0.350472	0.165783	-0.114951	
2.90985	0	0	-0.352656	0.043383	-0.173505	0.113372	-0.616329	0.0463065	0.0829895	-0.05362	-0.0576055	0.467495	0.039032	0.22899	-0.120677	0.160088	0.007626	0.251428	0.074425	-0.0689585	0.113168	0.032059	0.500779	0.522884	0.136639	0.335415	-0.639938	0.106497	0.783373	0.227833	-0.330522	-0.341187	0.165783	-0.114951	
2.91595	0	0	-0.35223	0.0594015	-0.173505	0.113372	-0.612918	0.0543122	0.0817547	-0.0352835	-0.0523453	0.472454	0.0311875	0.251159	-0.117468	0.167451	0.0068305	0.261964	0.072693	-0.0640638	0.115415	0.0423475	0.498709	0.528737	0.130258	0.353451	-0.636638	0.111384	0.79567	0.230183	-0.333807	-0.331902	0.165783	-0.114951	
2.92663	0	0	-0.351804	0.07542	-0.173505	0.113372	-0.609507	0.062318	0.08052	-0.016947	-0.047085	0.477413	0.023343	0.273329	-0.114259	0.174813	0.006035	0.272499	0.070961	-0.059169	0.117661	0.052636	0.496638	0.534589	0.123876	0.371486	-0.633338	0.116271	0.807967	0.232532	-0.337093	-0.322617	0.165783	-0.114951	
2.93884	0	0	-0.351804	0.07542	-0.173505	0.113372	-0.611079	0.06676	0.0860122	-0.0176098	-0.048052	0.480145	0.023343	0.273329	-0.115711	0.178918	0.00615825	0.280442	0.0579215	-0.0431162	0.113145	0.0653995	0.489097	0.544018	0.117482	0.389558	-0.639831	0.134622	0.805338	0.258541	-0.337133	-0.308292	0.169225	-0.1172	
2.95105	0	0	-0.351804	0.07542	-0.173505	0.113372	-0.61265	0.071202	0.0915045	-0.0182725	-0.049019	0.482877	0.023343	0.273329	-0.117164	0.183023	0.0062815	0.288384	0.044882	-0.0270635	0.108629	0.078163	0.481556	0.553448	0.111087	0.40763	-0.646324	0.152972	0.802709	0.28455	-0.337172	-0.293967	0.172667	-0.11945	
2.95715	0	0	-0.351804	0.07542	-0.173505	0.113372	-0.614222	0.075644	0.0969967	-0.0189353	-0.049986	0.48561	0.023343	0.273329	-0.118616	0.187128	0.00640475	0.296327	0.0318425	-0.0110107	0.104112	0.0909265	0.474015	0.562878	0.104692	0.425702	-0.652817	0.171322	0.80008	0.31056	-0.337212	-0.279643	0.176109	-0.121699	
2.97241	0	0	-0.351804	0.07542	-0.173505	0.113372	-0.615794	0.080086	0.102489	-0.019598	-0.050953	0.488342	0.023343	0.273329	-0.120069	0.191233	0.006528	0.30427	0.018803	0.005042	0.099596	0.10369	0.466474	0.572307	0.098298	0.443774	-0.65931	0.189673	0.797451	0.336569	-0.337252	-0.265318	0.179551	-0.123948	
2.98004	0	0	-0.348379	0.0829785	-0.173505	0.113372	-0.622089	0.097876	0.0984455	-0.0081705	-0.0456888	0.493311	0.030151	0.280266	-0.109285	0.193663	0.0144105	0.315194	0.018803	0.005042	0.0959785	0.113914	0.457619	0.573591	0.0878755	0.450584	-0.650548	0.193369	0.795293	0.324087	-0.33835	-0.262215	0.171906	-0.117296	
2.98309	0	0	-0.344954	0.090537	-0.173505	0.113372	-0.628383	0.115666	0.094402	0.003257	-0.0404245	0.498281	0.036959	0.287204	-0.098501	0.196093	0.022293	0.326118	0.018803	0.005042	0.092361	0.124138	0.448764	0.574875	0.077453	0.457395	-0.641787	0.197066	0.793136	0.311606	-0.339448	-0.259111	0.164261	-0.110645	
2.98309	0	0	-0.34153	0.0980955	-0.173505	0.113372	-0.634678	0.133456	0.0903585	0.0146845	-0.0351602	0.50325	0.043767	0.294142	-0.087717	0.198523	0.0301755	0.337041	0.018803	0.005042	0.0887435	0.134362	0.439909	0.576159	0.0670305	0.464205	-0.633026	0.200762	0.790979	0.299125	-0.340546	-0.256007	0.156616	-0.103993	
2.98614	0	0	-0.338105	0.105654	-0.173505	0.113372	-0.640973	0.151246	0.086315	0.026112	-0.029896	0.508219	0.050575	0.301079	-0.076933	0.200953	0.038058	0.347965	0.018803	0.005042	0.085126	0.144586	0.431054	0.577443	0.056608	0.471015	-0.624264	0.204458	0.788821	0.286643	-0.341644	-0.252904	0.148971	-0.097341	
2.98462	0	0	-0.339201	0.126005	-0.169987	0.111073	-0.639151	0.16376	0.0919065	0.040063	-0.0275362	0.521417	0.045326	0.315914	-0.0751747	0.21246	0.0460673	0.366914	0.0153325	0.0148505	0.087356	0.154936	0.417795	0.579359	0.064896	0.470237	-0.61327	0.216156	0.774936	0.28878	-0.348241	-0.23426	0.148971	-0.097341	
2.98157	0	0	-0.340297	0.146357	-0.166468	0.108774	-0.637329	0.176273	0.097498	0.054014	-0.0251765	0.534615	0.040077	0.330749	-0.0734165	0.223967	0.0540765	0.385863	0.011862	0.024659	0.089586	0.165286	0.404535	0.581276	0.073184	0.469459	-0.602276	0.227854	0.761051	0.290918	-0.354838	-0.215616	0.148971	-0.097341	
2.97699	0	0	-0.341393	0.166709	-0.16295	0.106475	-0.635507	0.188787	0.10309	0.067965	-0.0228168	0.547814	0.034828	0.345584	-0.0716583	0.235474	0.0620858	0.404812	0.0083915	0.0344675	0.091816	0.175635	0.391276	0.583192	0.081472	0.468681	-0.591282	0.239552	0.747167	0.293055	-0.361435	-0.196971	0.148971	-0.097341	
2.97851	0	0	-0.342489	0.18706	-0.159432	0.104176	-0.633685	0.201301	0.108681	0.081916	-0.020457	0.561012	0.029579	0.360419	-0.0699	0.246981	0.070095	0.423761	0.004921	0.044276	0.094046	0.185985	0.378017	0.585108	0.08976	0.467903	-0.580288	0.25125	0.733282	0.295193	-0.368032	-0.178327	0.148971	-0.097341	
2.97394	0	0	-0.345507	0.19559	-0.155912	0.101876	-0.630287	0.209377	0.105976	0.089562	-0.0207362	0.571742	0.0337542	0.374834	-0.0681463	0.258514	0.0742678	0.445302	0.0014465	0.0540953	0.0924372	0.198864	0.365819	0.584091	0.085487	0.47998	-0.571455	0.269153	0.713048	0.31535	-0.363752	-0.161966	0.148971	-0.097341	
2.97851	0	0	-0.348525	0.20412	-0.152392	0.0995765	-0.626888	0.217452	0.10327	0.097208	-0.0210155	0.582473	0.0379295	0.389248	-0.0663925	0.270047	0.0784405	0.466843	-0.002028	0.0639145	0.0908285	0.211743	0.353622	0.583075	0.081214	0.492056	-0.562622	0.287057	0.692813	0.335506	-0.359472	-0.145604	0.148971	-0.097341	
2.98614	0	0	-0.351543	0.212649	-0.148873	0.0972768	-0.62349	0.225527	0.100565	0.104854	-0.0212948	0.593203	0.0421048	0.403663	-0.0646387	0.281581	0.0826132	0.488385	-0.0055025	0.0737338	0.0892198	0.224621	0.341425	0.582058	0.076941	0.504132	-0.553789	0.30496	0.672578	0.355663	-0.355192	-0.129242	0.148971	-0.097341	
3.00751	0	0	-0.354561	0.221179	-0.145353	0.094977	-0.620092	0.233603	0.097859	0.1125	-0.021574	0.603934	0.04628	0.418078	-0.062885	0.293114	0.086786	0.509926	-0.008977	0.083553	0.087611	0.2375	0.329227	0.581042	0.072668	0.516209	-0.544956	0.322864	0.652344	0.37582	-0.350912	-0.112881	0.148971	-0.097341	
3.03192	0	0	-0.351145	0.228795	-0.142596	0.094836	-0.616693	0.241694	0.100652	0.119502	-0.0120045	0.616709	0.0572678	0.439565	-0.0564592	0.307978	0.103743	0.5456	-0.0124553	0.093383	0.0898325	0.247896	0.320421	0.582307	0.0748052	0.510169	-0.541646	0.327819	0.652344	0.37582	-0.35312	-0.10664	0.146294	-0.097248	
3.06702	0	0	-0.34773	0.236411	-0.139839	0.094695	-0.613294	0.249784	0.103444	0.126504	-0.002435	0.629483	0.0682555	0.461053	-0.0500335	0.322842	0.120701	0.581275	-0.0159335	0.103213	0.092054	0.258292	0.311615	0.583572	0.0769425	0.504128	-0.538336	0.332774	0.652344	0.37582	-0.355328	-0.1004	0.143617	-0.097155	
3.10974	0	0	-0.344314	0.244027	-0.137082	0.094554	-0.609895	0.257875	0.106236	0.133506	0.0071345	0.642258	0.0792433	0.482541	-0.0436078	0.337706	0.137658	0.61695	-0.0194117	0.113043	0.0942755	0.268688	0.302809	0.584837	0.0790798	0.498088	-0.535025	0.33773	0.652344	0.37582	-0.357537	-0.0941587	0.14094	-0.097062	
3.14484	0	0	-0.340898	0.251643	-0.134325	0.094413	-0.606496	0.265965	0.109029	0.140508	0.016704	0.655033	0.090231	0.504028	-0.037182	0.35257	0.154615	0.652624	-0.02289	0.122873	0.096497	0.279084	0.294003	0.586102	0.081217	0.492048	-0.531715	0.342685	0.652344	0.37582	-0.359745	-0.087918	0.138263	-0.096969	
3.18756	0	0	-0.340135	0.284074	-0.123753	0.0875047	-0.616009	0.292851	0.113256	0.158386	0.0276598	0.68396	0.105406	0.54023	-0.0275385	0.374963	0.183418	0.697329	-0.0107017	0.130048	0.0989125	0.297297	0.291937	0.591941	0.0830942	0.509415	-0.525089	0.352615	0.654983	0.405391	-0.359822	-0.0734535	0.152029	-0.105964	
3.22113	0	0	-0.339371	0.316504	-0.11318	0.0805965	-0.625522	0.319737	0.117484	0.176264	0.0386155	0.712886	0.120582	0.576433	-0.017895	0.397355	0.21222	0.742034	0.0014865	0.137224	0.101328	0.315511	0.289871	0.59778	0.0849715	0.526782	-0.518464	0.362545	0.657622	0.434962	-0.3599	-0.058989	0.165794	-0.114959	
3.24859	0	0	-0.338607	0.348935	-0.102608	0.0736883	-0.635036	0.346623	0.121712	0.194142	0.0495712	0.741813	0.135757	0.612635	-0.0082515	0.419748	0.241022	0.786739	0.0136748	0.144399	0.103744	0.333724	0.287805	0.603619	0.0868488	0.544149	-0.511839	0.372475	0.660261	0.464532	-0.359978	-0.0445245	0.179559	-0.123953	
3.27606	0	0	-0.337844	0.381366	-0.092035	0.06678	-0.644549	0.373509	0.125939	0.21202	0.060527	0.77074	0.150932	0.648837	0.001392	0.442141	0.269825	0.831444	0.025863	0.151575	0.106159	0.351938	0.285739	0.609458	0.088726	0.561516	-0.505213	0.382405	0.6629	0.494103	-0.360055	-0.03006	0.193325	-0.132948	
3.30505	0	0	-0.340526	0.406263	-0.0814498	0.0598633	-0.644346	0.390649	0.127369	0.222907	0.0671762	0.791982	0.159272	0.67818	0.00313475	0.453794	0.284792	0.856752	0.0171315	0.176252	0.104715	0.37273	0.276172	0.624696	0.0841418	0.597172	-0.511778	0.415302	0.67778	0.52633	-0.362461	0.0052625	0.200216	-0.137451	
3.34015	0	0	-0.343208	0.431161	-0.0708645	0.0529465	-0.644143	0.407788	0.1288	0.233795	0.0738255	0.813224	0.167612	0.707523	0.0048775	0.465446	0.299759	0.882059	0.0084	0.200929	0.103272	0.393523	0.266605	0.639934	0.0795575	0.632829	-0.518343	0.448199	0.692659	0.558557	-0.364866	0.040585	0.207107	-0.141954	
3.37219	0	0	-0.34589	0.456058	-0.0602793	0.0460298	-0.64394	0.424928	0.13023	0.244683	0.0804747	0.834466	0.175953	0.736867	0.00662025	0.477098	0.314726	0.907367	-0.0003315	0.225606	0.101828	0.414316	0.257039	0.655171	0.0749732	0.668486	-0.524907	0.481096	0.707539	0.590784	-0.367272	0.0759075	0.213998	-0.146456	
3.39813	0	0	-0.348572	0.480955	-0.049694	0.039113	-0.643737	0.442068	0.131661	0.25557	0.087124	0.855708	0.184293	0.76621	0.008363	0.488751	0.329693	0.932675	-0.009063	0.250283	0.100384	0.435108	0.247472	0.670409	0.070389	0.704142	-0.531472	0.513993	0.722419	0.623011	-0.369678	0.11123	0.220889	-0.150959	
3.4256	0	0	-0.341768	0.49641	-0.0426298	0.0344973	-0.64674	0.468285	0.142765	0.269053	0.0940793	0.866133	0.188459	0.780951	0.0162692	0.499608	0.340615	0.944187	0.0031335	0.257528	0.107544	0.448343	0.248761	0.678565	0.0743852	0.715576	-0.524857	0.524019	0.726627	0.648371	-0.365441	0.127822	0.233926	-0.157821	
3.46222	0	0	-0.334963	0.511864	-0.0355655	0.0298815	-0.649743	0.494501	0.153868	0.282536	0.101034	0.876558	0.192624	0.795691	0.0241755	0.510464	0.351537	0.955699	0.01533	0.264774	0.114703	0.461578	0.250051	0.686721	0.0783815	0.72701	-0.518242	0.534045	0.730834	0.673732	-0.361204	0.144414	0.246962	-0.164683	
3.51715	0	0	-0.328159	0.527319	-0.0285013	0.0252658	-0.652746	0.520718	0.164971	0.296018	0.10799	0.886983	0.19679	0.810432	0.0320817	0.521321	0.362459	0.96721	0.0275265	0.272019	0.121862	0.474813	0.25134	0.694877	0.0823777	0.738444	-0.511627	0.544072	0.735042	0.699093	-0.356967	0.161006	0.259999	-0.171545	
3.54156	0	0	-0.321355	0.542774	-0.021437	0.02065	-0.655749	0.546935	0.176075	0.309501	0.114945	0.897408	0.200955	0.825173	0.039988	0.532178	0.373381	0.978722	0.039723	0.279265	0.129022	0.488048	0.252629	0.703033	0.086374	0.749878	-0.505012	0.554098	0.739249	0.724453	-0.35273	0.177598	0.273035	-0.178407	
3.55377	0	0	-0.328687	0.580862	-0.0108298	0.013719	-0.655421	0.581519	0.180343	0.34241	0.11266	0.913903	0.214664	0.839568	0.0402467	0.548069	0.370515	0.986822	0.0327048	0.2991	0.135268	0.503926	0.250556	0.708891	0.100856	0.754489	-0.507222	0.57472	0.745064	0.745344	-0.350736	0.200573	0.286856	-0.187438	
3.5614	0	0	-0.336018	0.61895	-0.0002225	0.006788	-0.655093	0.616104	0.184611	0.375318	0.110376	0.930399	0.228374	0.853963	0.0405055	0.563961	0.367649	0.994923	0.0256865	0.318935	0.141514	0.519803	0.248483	0.714749	0.115338	0.7591	-0.509432	0.595342	0.75088	0.766235	-0.348741	0.223548	0.300677	-0.196469	
3.55682	0	0	-0.34335	0.657037	0.0103848	-0.000143	-0.654765	0.650689	0.18888	0.408226	0.108091	0.946894	0.242084	0.868358	0.0407643	0.579852	0.364782	1.00302	0.0186683	0.338769	0.14776	0.535681	0.246411	0.720607	0.12982	0.763712	-0.511641	0.615964	0.756695	0.787126	-0.346747	0.246522	0.314498	-0.2055	
3.55072	0	0	-0.350682	0.695125	0.020992	-0.007074	-0.654437	0.685273	0.193148	0.441135	0.105806	0.96339	0.255793	0.882753	0.041023	0.595743	0.361916	1.01112	0.01165	0.358604	0.154006	0.551558	0.244338	0.726465	0.144302	0.768323	-0.513851	0.636586	0.76251	0.808017	-0.344753	0.269497	0.328319	-0.214531	
3.54462	0	0	-0.362996	0.729925	0.0245308	-0.00938625	-0.650934	0.71095	0.194596	0.467084	0.110456	0.990455	0.273713	0.912103	0.0444818	0.619258	0.364214	1.04711	0.0168088	0.385833	0.159506	0.578012	0.255954	0.752746	0.154149	0.809011	-0.522678	0.647157	0.788126	0.848051	-0.347275	0.305279	0.35256	-0.23037	
3.53851	0	0	-0.375309	0.764725	0.0280695	-0.0116985	-0.64743	0.736627	0.196044	0.493034	0.115105	1.01752	0.291633	0.941454	0.0479405	0.642773	0.366511	1.08309	0.0219675	0.413061	0.165005	0.604465	0.26757	0.779028	0.163996	0.8497	-0.531506	0.657728	0.813743	0.888084	-0.349796	0.34106	0.3768	-0.246209	
3.53088	0	0	-0.387623	0.799526	0.0316082	-0.0140108	-0.643926	0.762305	0.197492	0.518983	0.119755	1.04459	0.309554	0.970804	0.0513992	0.666288	0.368808	1.11907	0.0271263	0.44029	0.170505	0.630918	0.279186	0.80531	0.173844	0.890389	-0.540334	0.668299	0.839359	0.928117	-0.352318	0.376842	0.401041	-0.262048	
3.5202	0	0	-0.399937	0.834326	0.035147	-0.016323	-0.640423	0.787982	0.19894	0.544932	0.124405	1.07165	0.327474	1.00015	0.054858	0.689803	0.371106	1.15505	0.032285	0.467519	0.176005	0.657372	0.290802	0.831591	0.183691	0.931077	-0.549161	0.67887	0.864975	0.968151	-0.35484	0.412624	0.425281	-0.277887	
3.5141	0	0	-0.393195	0.850055	0.042993	-0.0231105	-0.640295	0.805435	0.204509	0.559282	0.142969	1.08976	0.333096	1.03779	0.073676	0.703379	0.398994	1.18713	0.0453103	0.493596	0.189249	0.678897	0.313605	0.862115	0.200072	0.953553	-0.57779	0.702384	0.887379	1.01795	-0.356289	0.44542	0.44959	-0.293771	
3.50494	0	0	-0.386454	0.865784	0.050839	-0.029898	-0.640167	0.822889	0.210079	0.573631	0.161533	1.10786	0.338718	1.07542	0.092494	0.716955	0.426882	1.21921	0.0583355	0.519674	0.202493	0.700423	0.336407	0.892639	0.216453	0.976028	-0.60642	0.725897	0.909782	1.06774	-0.357739	0.478216	0.4739	-0.309655	
3.49426	0	0	-0.379713	0.881513	0.058685	-0.0366855	-0.640039	0.840342	0.215648	0.587981	0.180097	1.12597	0.344339	1.11306	0.111312	0.73053	0.454771	1.25128	0.0713608	0.545751	0.215738	0.721948	0.35921	0.923163	0.232835	0.998504	-0.63505	0.74941	0.932186	1.11754	-0.359189	0.511011	0.498209	-0.32554	
3.48053	0	0	-0.372971	0.897242	0.066531	-0.043473	-0.639911	0.857796	0.221217	0.602331	0.198661	1.14408	0.349961	1.15069	0.13013	0.744106	0.482659	1.28336	0.084386	0.571828	0.228982	0.743474	0.382013	0.953687	0.249216	1.02098	-0.663679	0.772924	0.954589	1.16733	-0.360638	0.543807	0.522518	-0.341424	
3.46527	0	0	-0.378907	0.931434	0.0807123	-0.0527393	-0.644661	0.889053	0.233746	0.627246	0.208298	1.15729	0.366483	1.15767	0.139564	0.750915	0.495586	1.28965	0.096636	0.579252	0.231177	0.754148	0.379915	0.959617	0.253225	1.03263	-0.663728	0.787395	0.953349	1.18976	-0.358731	0.567161	0.532957	-0.348245	
3.45306	0	0	-0.384843	0.965625	0.0948935	-0.0620055	-0.649412	0.92031	0.246276	0.652162	0.217935	1.1705	0.383004	1.16466	0.148997	0.757723	0.508513	1.29595	0.108886	0.586677	0.233372	0.764823	0.377816	0.965547	0.257235	1.04428	-0.663777	0.801866	0.952109	1.21218	-0.356824	0.590514	0.543397	-0.355067	
3.44238	0	0	-0.390779	0.999816	0.109075	-0.0712717	-0.654162	0.951566	0.258806	0.677077	0.227571	1.18371	0.399526	1.17164	0.158431	0.764532	0.52144	1.30224	0.121136	0.594102	0.235568	0.775497	0.375718	0.971477	0.261244	1.05593	-0.663826	0.816337	0.950869	1.2346	-0.354917	0.613868	0.553836	-0.361888	
3.43933	0	0	-0.396715	1.03401	0.123256	-0.080538	-0.658912	0.982823	0.271335	0.701993	0.237208	1.19692	0.416048	1.17862	0.167864	0.771341	0.534367	1.30853	0.133386	0.601526	0.237763	0.786172	0.37362	0.977407	0.265254	1.06758	-0.663875	0.830808	0.949629	1.25703	-0.35301	0.637221	0.564275	-0.368709	
3.44696	0	0	-0.397797	1.07195	0.129591	-0.0830168	-0.66045	1.00502	0.267164	0.728894	0.250186	1.22108	0.421647	1.21663	0.17282	0.790864	0.538505	1.33117	0.135961	0.615307	0.241051	0.802227	0.380382	0.982116	0.264868	1.09168	-0.661774	0.853568	0.957091	1.27383	-0.353401	0.667113	0.577452	-0.375662	
3.45459	0	0	-0.39888	1.10989	0.135926	-0.0854955	-0.661987	1.02721	0.262992	0.755795	0.263164	1.24524	0.427247	1.25464	0.177777	0.810387	0.542643	1.35381	0.138536	0.629088	0.244338	0.818283	0.387143	0.986824	0.264482	1.11578	-0.659672	0.876327	0.964554	1.29064	-0.353792	0.697005	0.590628	-0.382615	
3.479	0	0	-0.399962	1.14782	0.142261	-0.0879743	-0.663525	1.04941	0.258821	0.782696	0.276142	1.26939	0.432847	1.29264	0.182733	0.82991	0.54678	1.37645	0.14111	0.642869	0.247625	0.834338	0.393904	0.991533	0.264095	1.13988	-0.65757	0.899087	0.972016	1.30744	-0.354182	0.726897	0.603804	-0.389569	
3.49884	0	0	-0.401045	1.18576	0.148596	-0.090453	-0.665063	1.07161	0.25465	0.809597	0.28912	1.29355	0.438446	1.33065	0.187689	0.849433	0.550918	1.39909	0.143685	0.65665	0.250913	0.850393	0.400666	0.996242	0.263709	1.16398	-0.655469	0.921847	0.979479	1.32425	-0.354573	0.756789	0.616981	-0.396522	
3.5141	0	0	-0.400827	1.20261	0.156466	-0.0972558	-0.663359	1.08466	0.251862	0.817476	0.286107	1.30207	0.443937	1.31513	0.181468	0.850241	0.540954	1.39292	0.141903	0.661686	0.244998	0.850209	0.388429	0.995111	0.253119	1.1709	-0.647881	0.943533	0.960743	1.35824	-0.367129	0.792273	0.617744	-0.398677	
3.53393	0	0	-0.400609	1.21946	0.164335	-0.104058	-0.661655	1.09771	0.249074	0.825354	0.283095	1.31058	0.449427	1.29961	0.175248	0.85105	0.53099	1.38674	0.140122	0.666721	0.239083	0.850024	0.376192	0.99398	0.24253	1.17782	-0.640292	0.965219	0.942007	1.39223	-0.379684	0.827756	0.618506	-0.400832	
3.55377	0	0	-0.40039	1.23631	0.172205	-0.110861	-0.659951	1.11076	0.246287	0.833233	0.280082	1.31909	0.454918	1.28409	0.169027	0.851858	0.521025	1.38057	0.13834	0.671757	0.233167	0.84984	0.363954	0.99285	0.23194	1.18474	-0.632704	0.986905	0.923272	1.42622	-0.39224	0.86324	0.619268	-0.402986	
3.56598	0	0	-0.400172	1.25315	0.180074	-0.117664	-0.658247	1.12381	0.243499	0.841112	0.277069	1.32761	0.460409	1.26858	0.162806	0.852667	0.511061	1.3744	0.136558	0.676793	0.227252	0.849656	0.351717	0.991719	0.22135	1.19166	-0.625116	1.00859	0.904536	1.46022	-0.404795	0.898723	0.620031	-0.405141	
3.58276	0	0	-0.390561	1.24347	0.180074	-0.117664	-0.661456	1.15076	0.261607	0.820196	0.255092	1.32888	0.43149	1.26962	0.153375	0.845819	0.47832	1.35579	0.122528	0.674353	0.21249	0.849189	0.331275	0.966422	0.19885	1.16349	-0.607525	1.01654	0.852724	1.34325	-0.415758	0.900919	0.592176	-0.38694	
3.5965	0	0	-0.38095	1.23379	0.180074	-0.117664	-0.664666	1.17771	0.279716	0.79928	0.233116	1.33016	0.402572	1.27066	0.143945	0.838972	0.445578	1.33717	0.108497	0.671914	0.197728	0.848721	0.310832	0.941124	0.176351	1.13533	-0.589933	1.02449	0.800912	1.22628	-0.426721	0.903114	0.564321	-0.368738	
3.60107	0	0	-0.371339	1.22411	0.180074	-0.117664	-0.667875	1.20467	0.297824	0.778364	0.21114	1.33143	0.373654	1.2717	0.134515	0.832125	0.412837	1.31855	0.0944665	0.669474	0.182966	0.848254	0.290389	0.915826	0.153852	1.10716	-0.572341	1.03244	0.7491	1.10931	-0.437684	0.905309	0.536465	-0.350537	
3.60412	0	0	-0.361728	1.21443	0.180074	-0.117664	-0.671084	1.23162	0.315932	0.757448	0.189163	1.33271	0.344735	1.27274	0.125084	0.825277	0.380096	1.29994	0.080436	0.667034	0.168204	0.847787	0.269947	0.890529	0.131352	1.079	-0.55475	1.04038	0.697288	0.992343	-0.448647	0.907505	0.50861	-0.332336	
3.59955	0	0	-0.381368	1.20011	0.141068	-0.0921768	-0.646226	1.25104	0.186403	0.689472	0.104898	1.24971	0.310437	1.23596	0.097898	0.768711	0.335353	1.22292	0.074505	0.620836	0.163512	0.810549	0.208013	0.818553	0.105973	0.968562	-0.523759	1.03963	0.560749	0.844184	-0.44522	0.897821	0.446265	-0.291598	
3.59955	0	0	-0.401009	1.18579	0.102062	-0.0666895	-0.621368	1.27047	0.0568745	0.621497	0.0206325	1.16672	0.276138	1.19918	0.070712	0.712144	0.290611	1.1459	0.068574	0.574639	0.15882	0.773311	0.146079	0.746576	0.0805935	0.858128	-0.492768	1.03888	0.42421	0.696025	-0.441794	0.888136	0.383919	-0.250861	
3.6026	0	0	-0.42065	1.17148	0.063056	-0.0412022	-0.596511	1.28989	-0.0726543	0.553521	-0.0636327	1.08373	0.24184	1.16241	0.043526	0.655577	0.245868	1.06888	0.062643	0.528441	0.154128	0.736073	0.0841443	0.6746	0.0552142	0.747694	-0.461778	1.03813	0.287672	0.547865	-0.438367	0.878452	0.321574	-0.210123	
3.60107	0	0	-0.44029	1.15716	0.02405	-0.015715	-0.571653	1.30932	-0.202183	0.485545	-0.147898	1.00073	0.207541	1.12563	0.01634	0.599011	0.201126	0.991863	0.056712	0.482243	0.149436	0.698835	0.02221	0.602623	0.029835	0.63726	-0.430787	1.03738	0.151133	0.399706	-0.43494	0.868768	0.259228	-0.169385	
3.59192	0	0	-0.46985	1.11913	-0.0393977	0.0257433	-0.560029	1.31246	-0.296668	0.429917	-0.235745	0.903983	0.188322	1.07366	-0.0215605	0.540708	0.150758	0.907933	0.0323265	0.467543	0.132556	0.687798	-0.0416077	0.562283	-0.0126923	0.577054	-0.411858	1.02745	0.0490675	0.364227	-0.441557	0.873092	0.217915	-0.14239	
3.58734	0	0	-0.499409	1.0811	-0.102845	0.0672015	-0.548405	1.3156	-0.391153	0.374289	-0.323593	0.807233	0.169103	1.0217	-0.059461	0.482405	0.100391	0.824003	0.007941	0.452843	0.115676	0.676761	-0.105425	0.521942	-0.0552195	0.516848	-0.392929	1.01752	-0.052998	0.328747	-0.448174	0.877416	0.176602	-0.115396	
3.57513	0	0	-0.528969	1.04308	-0.166293	0.10866	-0.536782	1.31874	-0.485637	0.31866	-0.41144	0.710483	0.149884	0.969733	-0.0973615	0.424103	0.0500235	0.740073	-0.0164445	0.438144	0.0987953	0.665724	-0.169243	0.481602	-0.0977467	0.456642	-0.374	1.00759	-0.155063	0.293268	-0.454791	0.881739	0.135289	-0.0884008	
3.56445	0	0	-0.558528	1.00505	-0.229741	0.150118	-0.525158	1.32188	-0.580122	0.263032	-0.499288	0.613733	0.130665	0.917768	-0.135262	0.3658	-0.000344	0.656143	-0.04083	0.423444	0.081915	0.654687	-0.233061	0.441262	-0.140274	0.396436	-0.355071	0.997667	-0.257129	0.257788	-0.461408	0.886063	0.093976	-0.061406	
3.5553	0	0	-0.566974	0.97706	-0.268285	0.175303	-0.52351	1.31722	-0.551949	0.270857	-0.536455	0.592233	0.136035	0.902593	-0.146299	0.347654	-0.0247843	0.625524	-0.042589	0.428415	0.08426	0.673212	-0.245948	0.443074	-0.154305	0.368888	-0.341677	0.988915	-0.27198	0.264112	-0.464597	0.88071	0.080249	-0.0524365	
3.54767	0	0	-0.575419	0.949071	-0.306829	0.200489	-0.521862	1.31257	-0.523777	0.278681	-0.573622	0.570732	0.141404	0.887418	-0.157336	0.329508	-0.0492245	0.594905	-0.044348	0.433386	0.086605	0.691738	-0.258835	0.444885	-0.168335	0.341341	-0.328282	0.980163	-0.286831	0.270436	-0.467786	0.875356	0.066522	-0.043467	
3.54156	0	0	-0.583865	0.921081	-0.345372	0.225674	-0.520214	1.30791	-0.495605	0.286505	-0.610789	0.549232	0.146774	0.872243	-0.168374	0.311361	-0.0736648	0.564286	-0.046107	0.438357	0.08895	0.710264	-0.271723	0.446697	-0.182365	0.313793	-0.314887	0.97141	-0.301682	0.276761	-0.470975	0.870003	0.052795	-0.0344975	
3.53393	0	0	-0.59231	0.893092	-0.383916	0.250859	-0.518566	1.30325	-0.467432	0.29433	-0.647956	0.527732	0.152143	0.857068	-0.179411	0.293215	-0.098105	0.533667	-0.047866	0.443328	0.091295	0.728789	-0.28461	0.448509	-0.196396	0.286245	-0.301493	0.962658	-0.316533	0.283085	-0.474164	0.864649	0.039068	-0.025528	
3.52478	0	0	-0.571009	0.919403	-0.394398	0.257708	-0.528501	1.31332	-0.418799	0.34777	-0.630354	0.555755	0.163125	0.879096	-0.169836	0.315493	-0.0988482	0.552345	-0.028795	0.473047	0.103698	0.760977	-0.245133	0.475766	-0.17627	0.319019	-0.289174	0.942411	-0.258313	0.333459	-0.460935	0.856005	0.05623	-0.036742	
3.52173	0	0	-0.549708	0.945713	-0.40488	0.264557	-0.538435	1.3234	-0.370167	0.401209	-0.612752	0.583778	0.174107	0.901123	-0.160261	0.337771	-0.0995915	0.571024	-0.009724	0.502766	0.116101	0.793165	-0.205655	0.503023	-0.156143	0.351793	-0.276856	0.922165	-0.200093	0.383833	-0.447706	0.84736	0.073392	-0.047956	
3.52783	0	0	-0.528407	0.972024	-0.415362	0.271406	-0.548369	1.33347	-0.321534	0.454649	-0.59515	0.6118	0.185089	0.923151	-0.150685	0.360049	-0.100335	0.589702	0.009347	0.532485	0.128504	0.825353	-0.166178	0.530279	-0.136017	0.384568	-0.264537	0.901919	-0.141872	0.434208	-0.434477	0.838716	0.090554	-0.05917	
3.53393	0	0	-0.507106	0.998335	-0.425844	0.278255	-0.558304	1.34354	-0.272901	0.508089	-0.577548	0.639823	0.196071	0.945179	-0.14111	0.382327	-0.101078	0.60838	0.028418	0.562204	0.140907	0.857541	-0.126701	0.557536	-0.115891	0.417342	-0.252218	0.881672	-0.083652	0.484582	-0.421248	0.830072	0.107716	-0.070384	
3.54309	0	0	-0.479765	0.990564	-0.429335	0.280536	-0.559953	1.3482	-0.210102	0.538389	-0.550249	0.670137	0.20977	0.959681	-0.139126	0.409684	-0.086453	0.625188	0.05208	0.558292	0.16857	0.863755	-0.09202	0.55265	-0.0871785	0.426284	-0.247752	0.88363	-0.0879848	0.514849	-0.411421	0.831088	0.121471	-0.0793715	
3.55072	0	0	-0.452425	0.982793	-0.432826	0.282817	-0.561602	1.35286	-0.147304	0.568688	-0.52295	0.700451	0.223468	0.974182	-0.137141	0.437041	-0.071828	0.641995	0.075742	0.554379	0.196233	0.869968	-0.057339	0.547764	-0.058466	0.435226	-0.243285	0.885588	-0.0923175	0.545115	-0.401595	0.832105	0.135225	-0.088359	
3.56293	0	0	-0.425084	0.975023	-0.436317	0.285099	-0.563251	1.35752	-0.0845055	0.598988	-0.495651	0.730765	0.237167	0.988684	-0.135157	0.464399	-0.057203	0.658803	0.099404	0.550466	0.223896	0.876182	-0.022658	0.542879	-0.0297535	0.444168	-0.238819	0.887546	-0.0966503	0.575382	-0.391769	0.833121	0.148979	-0.0973465	
3.57208	0	0	-0.397743	0.967252	-0.439808	0.28738	-0.5649	1.36218	-0.021707	0.629287	-0.468352	0.761079	0.250866	1.00319	-0.133172	0.491756	-0.042578	0.675611	0.123066	0.546554	0.251559	0.882396	0.012023	0.537993	-0.001041	0.45311	-0.234353	0.889504	-0.100983	0.605649	-0.381942	0.834137	0.162734	-0.106334	
3.57666	0	0	-0.412728	0.940103	-0.450273	0.294218	-0.548273	1.36925	-0.0655015	0.634043	-0.487315	0.746212	0.250866	1.00319	-0.134893	0.480131	-0.0504065	0.66449	0.114359	0.529165	0.252329	0.871761	-0.0101708	0.519204	-0.0149427	0.402311	-0.218672	0.874382	-0.133673	0.572247	-0.389489	0.826677	0.159293	-0.104086	
3.58124	0	0	-0.427713	0.912955	-0.460738	0.301056	-0.531646	1.37633	-0.109296	0.638799	-0.506277	0.731345	0.250866	1.00319	-0.136615	0.468506	-0.058235	0.65337	0.105651	0.511776	0.2531	0.861126	-0.0323645	0.500414	-0.0288445	0.351511	-0.202991	0.859259	-0.166363	0.538845	-0.397035	0.819218	0.155853	-0.101837	
3.57818	0	0	-0.442698	0.885807	-0.471202	0.307894	-0.51502	1.38341	-0.15309	0.643555	-0.52524	0.716478	0.250866	1.00319	-0.138337	0.456881	-0.0660635	0.64225	0.0969442	0.494388	0.25387	0.850492	-0.0545583	0.481625	-0.0427462	0.300712	-0.187311	0.844137	-0.199053	0.505443	-0.404581	0.811759	0.152412	-0.0995892	
3.57513	0	0	-0.457683	0.858658	-0.481667	0.314732	-0.498393	1.39048	-0.196885	0.648311	-0.544203	0.701611	0.250866	1.00319	-0.140058	0.445256	-0.073892	0.631129	0.088237	0.476999	0.254641	0.839857	-0.076752	0.462835	-0.056648	0.249912	-0.17163	0.829015	-0.231743	0.472041	-0.412128	0.804299	0.148971	-0.097341	
3.56903	0	0	-0.474174	0.836023	-0.488637	0.319286	-0.483374	1.40226	-0.220034	0.654511	-0.565019	0.692233	0.257728	1.01046	-0.150823	0.442743	-0.0787345	0.628215	0.074249	0.474629	0.248887	0.847668	-0.0930255	0.462407	-0.0728725	0.228484	-0.16154	0.829737	-0.255646	0.450262	-0.405506	0.799972	0.146294	-0.097248	
3.55987	0	0	-0.490665	0.813389	-0.495606	0.32384	-0.468355	1.41404	-0.243183	0.660711	-0.585835	0.682854	0.264589	1.01773	-0.161588	0.44023	-0.083577	0.6253	0.060261	0.472259	0.243132	0.855479	-0.109299	0.461979	-0.089097	0.207056	-0.151449	0.830459	-0.279548	0.428484	-0.398884	0.795644	0.143617	-0.097155	
3.55835	0	0	-0.507156	0.790754	-0.502576	0.328394	-0.453335	1.42581	-0.266332	0.666911	-0.606651	0.673476	0.271451	1.025	-0.172353	0.437718	-0.0884195	0.622386	0.046273	0.469889	0.237377	0.86329	-0.125573	0.461551	-0.105322	0.185627	-0.141358	0.831182	-0.303451	0.406705	-0.392262	0.791317	0.14094	-0.097062	
3.54767	0	0	-0.523647	0.768119	-0.509545	0.332948	-0.438316	1.43759	-0.289481	0.673111	-0.627467	0.664098	0.278313	1.03228	-0.183118	0.435205	-0.093262	0.619471	0.032285	0.467519	0.231623	0.871101	-0.141846	0.461123	-0.121546	0.164199	-0.131268	0.831904	-0.327354	0.384926	-0.38564	0.78699	0.138263	-0.096969	
3.53699	0	0	-0.536201	0.786328	-0.506061	0.330672	-0.443296	1.45166	-0.275939	0.694061	-0.628754	0.677464	0.286623	1.06224	-0.181402	0.446816	-0.0940223	0.63822	0.0269875	0.482491	0.237857	0.887317	-0.136018	0.479455	-0.115656	0.19238	-0.127912	0.851705	-0.310121	0.407655	-0.383796	0.810589	0.158157	-0.108312	
3.53241	0	0	-0.548755	0.804537	-0.502577	0.328395	-0.448276	1.46574	-0.262396	0.715012	-0.630041	0.69083	0.294932	1.0922	-0.179685	0.458427	-0.0947825	0.656969	0.02169	0.497462	0.244091	0.903532	-0.13019	0.497788	-0.109766	0.220561	-0.124557	0.871506	-0.292888	0.430384	-0.381953	0.834189	0.178052	-0.119655	
3.51868	0	0	-0.561308	0.822746	-0.499093	0.326119	-0.453257	1.47981	-0.248854	0.735962	-0.631328	0.704196	0.303241	1.12216	-0.177969	0.470037	-0.0955427	0.675717	0.0163925	0.512433	0.250325	0.919747	-0.124361	0.51612	-0.103876	0.248742	-0.121201	0.891308	-0.275656	0.453113	-0.380109	0.857788	0.197946	-0.130998	
3.5141	0	0	-0.573862	0.840955	-0.495609	0.323842	-0.458237	1.49389	-0.235312	0.756913	-0.632615	0.717562	0.311551	1.15212	-0.176253	0.481648	-0.096303	0.694466	0.011095	0.527405	0.256559	0.935963	-0.118533	0.534452	-0.097986	0.276923	-0.117845	0.911109	-0.258423	0.475842	-0.378265	0.881388	0.21784	-0.142341	
3.50036	0	0	-0.55588	0.859311	-0.478168	0.312445	-0.456555	1.50724	-0.202605	0.783491	-0.622384	0.727612	0.330772	1.1514	-0.174541	0.493285	-0.0884878	0.705624	0.009327	0.532401	0.259676	0.944093	-0.108615	0.54129	-0.089763	0.276138	-0.112241	0.924602	-0.237226	0.523599	-0.368647	0.897504	0.235092	-0.153614	
3.49121	0	0	-0.537897	0.877667	-0.460727	0.301048	-0.454873	1.5206	-0.169898	0.810069	-0.612153	0.737662	0.349993	1.15068	-0.172829	0.504922	-0.0806725	0.716782	0.007559	0.537397	0.262794	0.952223	-0.0986965	0.548128	-0.08154	0.275353	-0.106636	0.938095	-0.21603	0.571356	-0.359028	0.91362	0.252344	-0.164886	
3.48205	0	0	-0.519915	0.896023	-0.443285	0.289652	-0.45319	1.53395	-0.13719	0.836648	-0.601921	0.747713	0.369213	1.14996	-0.171117	0.516559	-0.0728572	0.727941	0.005791	0.542394	0.265911	0.960353	-0.0887783	0.554966	-0.073317	0.274568	-0.101032	0.951589	-0.194833	0.619113	-0.34941	0.929735	0.269596	-0.176159	
3.47137	0	0	-0.501933	0.914379	-0.425844	0.278255	-0.451508	1.54731	-0.104483	0.863226	-0.59169	0.757763	0.388434	1.14924	-0.169405	0.528196	-0.065042	0.739099	0.004023	0.54739	0.269028	0.968483	-0.07886	0.561804	-0.065094	0.273783	-0.095428	0.965082	-0.173636	0.66687	-0.339792	0.945851	0.286848	-0.187432	
3.45917	0	0	-0.478986	0.936361	-0.408367	0.266835	-0.456507	1.56144	-0.0757633	0.901838	-0.568601	0.780481	0.406428	1.17907	-0.152255	0.545778	-0.0482193	0.783286	0.0241137	0.5535	0.278232	0.98489	-0.0577017	0.583622	-0.0488365	0.295361	-0.10444	0.97588	-0.137327	0.708781	-0.338881	0.957732	0.317989	-0.20778	
3.44543	0	0	-0.45604	0.958344	-0.39089	0.255416	-0.461506	1.57556	-0.0470435	0.940451	-0.545511	0.803198	0.424422	1.20891	-0.135106	0.563359	-0.0313965	0.827474	0.0442045	0.559609	0.287435	1.0013	-0.0365435	0.60544	-0.032579	0.31694	-0.113453	0.986679	-0.101018	0.750691	-0.33797	0.969614	0.34913	-0.228129	
3.4378	0	0	-0.433093	0.980326	-0.373413	0.243996	-0.466504	1.58969	-0.0183237	0.979064	-0.522421	0.825916	0.442415	1.23874	-0.117956	0.58094	-0.0145737	0.871661	0.0642952	0.565719	0.296639	1.0177	-0.0153853	0.627258	-0.0163215	0.338518	-0.122465	0.997477	-0.0647083	0.792602	-0.33706	0.981495	0.380271	-0.248478	
3.4256	0	0	-0.410147	1.00231	-0.355936	0.232576	-0.471503	1.60382	0.010396	1.01768	-0.499332	0.848634	0.460409	1.26858	-0.100807	0.598522	0.002249	0.915849	0.084386	0.571828	0.305843	1.03411	0.005773	0.649076	-6.4E-05	0.360096	-0.131477	1.00828	-0.028399	0.834513	-0.336149	0.993377	0.411412	-0.268826	
3.41034	0	0	-0.396711	1.03409	-0.342693	0.225583	-0.483175	1.61869	0.0406575	1.05271	-0.478727	0.868951	0.475687	1.30644	-0.0882807	0.612811	0.033538	0.944828	0.0895188	0.599367	0.315057	1.05058	0.0282785	0.679187	0.0159802	0.405169	-0.128117	1.01345	0.0165553	0.871408	-0.323063	0.999828	0.439188	-0.286975	
3.40118	0	0	-0.383275	1.06588	-0.32945	0.218591	-0.494847	1.63357	0.070919	1.08774	-0.458123	0.889267	0.490965	1.3443	-0.0757545	0.6271	0.064827	0.973807	0.0946515	0.626905	0.324272	1.06706	0.050784	0.709297	0.0320245	0.450241	-0.124756	1.01863	0.0615095	0.908303	-0.309978	1.00628	0.466965	-0.305125	
3.38745	0	0	-0.369839	1.09767	-0.316207	0.211598	-0.506518	1.64845	0.101181	1.12277	-0.437519	0.909584	0.506242	1.38216	-0.0632282	0.641389	0.096116	1.00279	0.0997842	0.654443	0.333486	1.08353	0.0732895	0.739407	0.0480688	0.495314	-0.121396	1.0238	0.106464	0.945198	-0.296892	1.01273	0.494742	-0.323275	
3.37829	0	0	-0.356403	1.12946	-0.302964	0.204605	-0.51819	1.66332	0.131442	1.1578	-0.416914	0.929901	0.52152	1.42003	-0.050702	0.655678	0.127405	1.03177	0.104917	0.681982	0.342701	1.1	0.095795	0.769518	0.064113	0.540386	-0.118035	1.02897	0.151418	0.982093	-0.283806	1.01918	0.522518	-0.341424	
3.36914	0	0	-0.343186	1.14459	-0.291679	0.195571	-0.526517	1.66877	0.161945	1.17773	-0.400433	0.942453	0.547913	1.42683	-0.0428305	0.666632	0.144198	1.06017	0.10569	0.700855	0.348801	1.10832	0.112728	0.792258	0.0635285	0.587411	-0.127051	1.03978	0.183363	1.03876	-0.285207	1.03764	0.546896	-0.357353	
3.35541	0	0	-0.32997	1.15973	-0.280394	0.186536	-0.534844	1.67421	0.192447	1.19765	-0.383953	0.955005	0.574307	1.43363	-0.034959	0.677587	0.160992	1.08858	0.106463	0.719728	0.354902	1.11663	0.129661	0.814999	0.062944	0.634436	-0.136068	1.05059	0.215308	1.09543	-0.286608	1.0561	0.571275	-0.373282	
3.34625	0	0	-0.316753	1.17487	-0.26911	0.177502	-0.54317	1.67965	0.22295	1.21757	-0.367472	0.967556	0.6007	1.44043	-0.0270875	0.688542	0.177785	1.11699	0.107236	0.738602	0.361003	1.12495	0.146594	0.83774	0.0623595	0.68146	-0.145084	1.0614	0.247253	1.15209	-0.288008	1.07456	0.595653	-0.389212	
3.34015	0	0	-0.303536	1.19001	-0.257825	0.168468	-0.551497	1.68509	0.253453	1.2375	-0.350991	0.980108	0.627093	1.44724	-0.019216	0.699496	0.194578	1.1454	0.108009	0.757475	0.367103	1.13326	0.163527	0.86048	0.061775	0.728485	-0.1541	1.07221	0.279198	1.20876	-0.289409	1.09302	0.620031	-0.405141	
3.33252	0	0	-0.293433	1.2141	-0.243778	0.159289	-0.559816	1.69052	0.277093	1.26214	-0.323434	1.01112	0.632696	1.48586	0.00125225	0.724912	0.225328	1.20265	0.143084	0.785198	0.374441	1.15519	0.226423	0.908062	0.0860787	0.773718	-0.178739	1.06866	0.328073	1.23735	-0.283885	1.09192	0.644479	-0.421116	
3.31879	0	0	-0.28333	1.23818	-0.22973	0.15011	-0.568134	1.69596	0.300733	1.28678	-0.295876	1.04213	0.638298	1.52449	0.0217205	0.750327	0.256078	1.2599	0.178158	0.812921	0.381779	1.17712	0.289319	0.955645	0.110382	0.81895	-0.203378	1.06511	0.376947	1.26594	-0.278362	1.09082	0.668926	-0.43709	
3.31268	0	0	-0.273227	1.26227	-0.215682	0.140931	-0.576453	1.70139	0.324374	1.31142	-0.268319	1.07314	0.6439	1.56312	0.0421887	0.775743	0.286827	1.31715	0.213233	0.840644	0.389117	1.19906	0.352216	1.00323	0.134686	0.864182	-0.228017	1.06156	0.425822	1.29452	-0.272838	1.08972	0.693374	-0.453065	
3.30353	0	0	-0.263124	1.28636	-0.201635	0.131752	-0.584772	1.70683	0.348014	1.33606	-0.240762	1.10416	0.649503	1.60175	0.062657	0.801158	0.317577	1.3744	0.248308	0.868367	0.396455	1.22099	0.415112	1.05081	0.15899	0.909415	-0.252656	1.05801	0.474697	1.32311	-0.267314	1.08862	0.717822	-0.46904	
3.29285	0	0	-0.261123	1.31588	-0.19812	0.129455	-0.606343	1.71368	0.359062	1.36605	-0.215685	1.13283	0.677464	1.63213	0.0814795	0.814841	0.353328	1.41865	0.279219	0.88738	0.415622	1.2353	0.482777	1.0756	0.193954	0.948231	-0.262707	1.05722	0.511729	1.34916	-0.261785	1.08752	0.745085	-0.485198	
3.28674	0	0	-0.259121	1.3454	-0.194604	0.127158	-0.627914	1.72052	0.370111	1.39605	-0.190608	1.16151	0.705425	1.66251	0.100302	0.828524	0.38908	1.46289	0.31013	0.906393	0.434789	1.2496	0.550442	1.10039	0.228917	0.987047	-0.272759	1.05643	0.548761	1.37521	-0.256256	1.08642	0.772349	-0.501356	
3.27759	0	0	-0.25712	1.37492	-0.191088	0.124861	-0.649485	1.72737	0.381159	1.42604	-0.165531	1.19019	0.733386	1.69289	0.119124	0.842208	0.424831	1.50713	0.34104	0.925406	0.453956	1.26391	0.618108	1.12518	0.26388	1.02586	-0.28281	1.05564	0.585793	1.40126	-0.250728	1.08531	0.799613	-0.517514	
3.27301	0	0	-0.255118	1.40443	-0.187573	0.122564	-0.671056	1.73421	0.392207	1.45603	-0.140454	1.21887	0.761347	1.72327	0.137947	0.855891	0.460582	1.55137	0.371951	0.944419	0.473123	1.27822	0.685773	1.14997	0.298844	1.06468	-0.292861	1.05486	0.622825	1.42731	-0.245199	1.08421	0.826876	-0.533672	
3.2608	0	0	-0.251755	1.41254	-0.18482	0.122426	-0.672679	1.72079	0.418959	1.45724	-0.127017	1.22086	0.761347	1.72327	0.139444	0.85166	0.467506	1.54897	0.368329	0.954655	0.475026	1.27284	0.701871	1.16493	0.291855	1.10747	-0.302895	1.05407	0.651431	1.45923	-0.240822	1.08638	0.83741	-0.540555	
3.25317	0	0	-0.248392	1.42065	-0.182068	0.122288	-0.674303	1.70738	0.445711	1.45844	-0.113579	1.22286	0.761347	1.72327	0.140941	0.847428	0.474429	1.54657	0.364707	0.96489	0.476929	1.26746	0.717969	1.17988	0.284865	1.15026	-0.312929	1.05327	0.680036	1.49116	-0.236446	1.08854	0.847943	-0.547438	
3.24859	0	0	-0.245029	1.42876	-0.179315	0.12215	-0.675926	1.69396	0.472462	1.45964	-0.100142	1.22485	0.761347	1.72327	0.142439	0.843196	0.481352	1.54417	0.361086	0.975126	0.478832	1.26208	0.734068	1.19484	0.277876	1.19305	-0.322963	1.05248	0.708641	1.52308	-0.232069	1.09071	0.858476	-0.55432	
3.24097	0	0	-0.241666	1.43687	-0.176563	0.122012	-0.67755	1.68054	0.499214	1.46084	-0.086705	1.22684	0.761347	1.72327	0.143936	0.838965	0.488276	1.54177	0.357464	0.985362	0.480735	1.25671	0.750166	1.2098	0.270887	1.23584	-0.332997	1.05169	0.737247	1.55501	-0.227692	1.09287	0.86901	-0.561203	
3.23028	0	0	-0.241666	1.43687	-0.173044	0.119713	-0.675886	1.67584	0.518978	1.46666	-0.0919405	1.22164	0.757146	1.70773	0.136008	0.827903	0.472268	1.50989	0.361086	0.975126	0.472418	1.23738	0.751467	1.21823	0.270887	1.23584	-0.347397	1.03423	0.763662	1.55592	-0.229758	1.08418	0.872524	-0.563499	
3.22723	0	0	-0.241666	1.43687	-0.169526	0.117414	-0.674222	1.67114	0.538741	1.47248	-0.097176	1.21644	0.752946	1.69219	0.128079	0.816841	0.456259	1.478	0.364707	0.96489	0.464101	1.21806	0.752768	1.22667	0.270887	1.23584	-0.361797	1.01677	0.790077	1.55682	-0.231824	1.07548	0.876038	-0.565796	
3.21808	0	0	-0.241666	1.43687	-0.166008	0.115115	-0.672559	1.66644	0.558505	1.4783	-0.102412	1.21124	0.748746	1.67665	0.120151	0.805779	0.44025	1.44612	0.368329	0.954655	0.455784	1.19874	0.754069	1.23511	0.270887	1.23584	-0.376198	0.999306	0.816491	1.55773	-0.23389	1.06678	0.879552	-0.568092	
3.21503	0	0	-0.241666	1.43687	-0.162489	0.112816	-0.670895	1.66174	0.578269	1.48412	-0.107647	1.20605	0.744545	1.66111	0.112222	0.794717	0.424242	1.41424	0.371951	0.944419	0.447467	1.17942	0.75537	1.24355	0.270887	1.23584	-0.390598	0.981843	0.842906	1.55864	-0.235956	1.05809	0.883066	-0.570388	
3.2074	0	0	-0.233352	1.44865	-0.158969	0.110516	-0.687402	1.65448	0.585294	1.49518	-0.082693	1.21563	0.748746	1.67665	0.124638	0.793096	0.428229	1.42008	0.384365	0.952055	0.441343	1.17107	0.789866	1.26763	0.287301	1.25873	-0.418274	0.97316	0.871119	1.55478	-0.239177	1.05267	0.893617	-0.577282	
3.19824	0	0	-0.225039	1.46043	-0.155449	0.108216	-0.703909	1.64722	0.592319	1.50624	-0.057739	1.22522	0.752946	1.69219	0.137054	0.791476	0.432217	1.42592	0.396779	0.959691	0.43522	1.16273	0.824362	1.29172	0.303715	1.28163	-0.445951	0.964477	0.899331	1.55091	-0.242399	1.04725	0.904168	-0.584176	
3.19977	0	0	-0.216725	1.47221	-0.15193	0.105917	-0.720416	1.63996	0.599344	1.5173	-0.032785	1.23481	0.757146	1.70773	0.149471	0.789856	0.436204	1.43177	0.409193	0.967326	0.429096	1.15439	0.858858	1.3158	0.320129	1.30453	-0.473627	0.955795	0.927544	1.54704	-0.24562	1.04183	0.914718	-0.59107	
3.19061	0	0	-0.208411	1.48399	-0.14841	0.103617	-0.736923	1.63271	0.606369	1.52836	-0.007831	1.24439	0.761347	1.72327	0.161887	0.788235	0.440191	1.43761	0.421607	0.974962	0.422973	1.14604	0.893354	1.33989	0.336543	1.32742	-0.501303	0.947112	0.955757	1.54318	-0.248841	1.03641	0.925269	-0.597964	
3.18603	0	0	-0.211777	1.47586	-0.147646	0.101457	-0.746769	1.60678	0.617816	1.51149	0.0145963	1.25139	0.773981	1.71501	0.168104	0.787421	0.456071	1.44416	0.426008	0.98392	0.422824	1.13792	0.920027	1.36235	0.344544	1.35114	-0.520049	0.942381	0.9669	1.56879	-0.23985	1.02553	0.928789	-0.600264	
3.18298	0	0	-0.215143	1.46772	-0.146881	0.099297	-0.756615	1.58085	0.629263	1.49461	0.0370235	1.25839	0.786616	1.70676	0.174322	0.786607	0.47195	1.45071	0.430409	0.992878	0.422674	1.1298	0.9467	1.3848	0.352544	1.37486	-0.538795	0.93765	0.978043	1.59441	-0.230859	1.01464	0.932308	-0.602564	
3.1784	0	0	-0.21851	1.45959	-0.146117	0.097137	-0.766462	1.55493	0.640709	1.47774	0.0594508	1.26538	0.79925	1.6985	0.180539	0.785793	0.48783	1.45726	0.43481	1.00184	0.422525	1.12168	0.973373	1.40726	0.360544	1.39859	-0.55754	0.93292	0.989186	1.62002	-0.221869	1.00375	0.935828	-0.604864	
3.17535	0	0	-0.221876	1.45146	-0.145353	0.094977	-0.776308	1.529	0.652156	1.46087	0.081878	1.27238	0.811884	1.69025	0.186756	0.784979	0.50371	1.46381	0.439211	1.0108	0.422376	1.11356	1.00005	1.42971	0.368545	1.42231	-0.576286	0.928189	1.00033	1.64563	-0.212878	0.992867	0.939348	-0.607164	
3.16772	0	0	-0.209006	1.43273	-0.142596	0.094836	-0.771359	1.49713	0.664979	1.45562	0.105398	1.27656	0.821727	1.68992	0.200706	0.779114	0.51768	1.4759	0.445434	1.01463	0.423168	1.10279	1.02313	1.4382	0.374773	1.42791	-0.587245	0.915996	1.0037	1.63611	-0.224855	0.983182	0.939348	-0.607164	
3.16009	0	0	-0.196136	1.414	-0.139839	0.094695	-0.766409	1.46526	0.677802	1.45037	0.128918	1.28074	0.83157	1.68959	0.214656	0.773249	0.531651	1.48799	0.451657	1.01846	0.423959	1.09201	1.04621	1.44669	0.381001	1.43352	-0.598204	0.903803	1.00707	1.62658	-0.236833	0.973496	0.939348	-0.607164	
3.15704	0	0	-0.183266	1.39528	-0.137082	0.094554	-0.761459	1.43339	0.690625	1.44512	0.152437	1.28491	0.841413	1.68927	0.228606	0.767383	0.545621	1.50008	0.457879	1.0223	0.424751	1.08124	1.06929	1.45518	0.38723	1.43913	-0.609163	0.89161	1.01044	1.61705	-0.24881	0.963811	0.939348	-0.607164	
3.15552	0	0	-0.170396	1.37655	-0.134325	0.094413	-0.75651	1.40151	0.703448	1.43987	0.175957	1.28909	0.851256	1.68894	0.242556	0.761518	0.559591	1.51216	0.464102	1.02613	0.425543	1.07046	1.09237	1.46366	0.393458	1.44474	-0.620122	0.879417	1.01381	1.60753	-0.260787	0.954126	0.939348	-0.607164	
3.14484	0	0	-0.175356	1.37292	-0.130802	0.0921113	-0.759804	1.39296	0.710522	1.45092	0.17861	1.29171	0.851256	1.68894	0.245547	0.753065	0.560569	1.5094	0.475791	1.01454	0.425387	1.06237	1.10503	1.46484	0.399693	1.45035	-0.63106	0.867265	1.02259	1.60179	-0.267227	0.94336	0.93231	-0.602565	
3.14484	0	0	-0.180316	1.3693	-0.127279	0.0898095	-0.763099	1.3844	0.717597	1.46197	0.181262	1.29433	0.851256	1.68894	0.248538	0.744612	0.561546	1.50664	0.48748	1.00296	0.425231	1.05427	1.1177	1.46601	0.405929	1.45597	-0.641998	0.855112	1.03137	1.59606	-0.273667	0.932593	0.925272	-0.597966	
3.13568	0	0	-0.185276	1.36567	-0.123757	0.0875077	-0.766394	1.37585	0.724672	1.47302	0.183915	1.29694	0.851256	1.68894	0.251529	0.736159	0.562524	1.50387	0.499169	0.991366	0.425076	1.04618	1.13036	1.46719	0.412164	1.46158	-0.652937	0.84296	1.04015	1.59032	-0.280107	0.921826	0.918234	-0.593367	
3.13415	0	0	-0.190236	1.36204	-0.120234	0.085206	-0.769688	1.36729	0.731746	1.48407	0.186567	1.29956	0.851256	1.68894	0.25452	0.727706	0.563502	1.50111	0.510858	0.979777	0.42492	1.03809	1.14303	1.46836	0.4184	1.4672	-0.663875	0.830808	1.04893	1.58458	-0.286547	0.91106	0.911196	-0.588768	
3.12958	0	0	-0.190696	1.3281	-0.11671	0.0829032	-0.769706	1.34949	0.740343	1.47531	0.180263	1.29715	0.834391	1.68166	0.243555	0.725134	0.556511	1.49506	0.512676	0.97464	0.425862	1.03542	1.14653	1.47081	0.424642	1.47283	-0.668255	0.828854	1.04556	1.59411	-0.290911	0.908927	0.904164	-0.584173	
3.12805	0	0	-0.191156	1.29415	-0.113186	0.0806005	-0.769724	1.33169	0.748939	1.46656	0.173959	1.29475	0.817527	1.67438	0.232591	0.722562	0.54952	1.48902	0.514493	0.969503	0.426805	1.03276	1.15003	1.47325	0.430885	1.47845	-0.672635	0.826899	1.04218	1.60364	-0.295275	0.906795	0.897131	-0.579578	
3.12347	0	0	-0.191616	1.26021	-0.109662	0.0782977	-0.769742	1.3139	0.757536	1.4578	0.167654	1.29234	0.800663	1.6671	0.221626	0.719991	0.542529	1.48297	0.516311	0.964366	0.427747	1.0301	1.15353	1.47569	0.437128	1.48408	-0.677015	0.824944	1.03881	1.61316	-0.299639	0.904663	0.890099	-0.574983	
3.1189	0	0	-0.192076	1.22627	-0.106138	0.075995	-0.76976	1.2961	0.766132	1.44905	0.16135	1.28994	0.783798	1.65982	0.210661	0.717419	0.535538	1.47693	0.518129	0.959229	0.428689	1.02744	1.15703	1.47813	0.44337	1.4897	-0.681395	0.82299	1.03544	1.62269	-0.304003	0.90253	0.883066	-0.570388	
3.11127	0	0	-0.19728	1.2058	-0.105374	0.073835	-0.761584	1.27299	0.776177	1.43622	0.168003	1.28124	0.776785	1.65223	0.207423	0.709812	0.533535	1.474	0.521761	0.948964	0.432455	1.01679	1.15921	1.47198	0.441588	1.47147	-0.692303	0.810886	1.028	1.60561	-0.314787	0.889676	0.869781	-0.563364	
3.10821	0	0	-0.202483	1.18533	-0.104609	0.071675	-0.753408	1.24989	0.786221	1.42338	0.174656	1.27255	0.769772	1.64464	0.204186	0.702205	0.531532	1.47106	0.525393	0.938699	0.436221	1.00615	1.16139	1.46583	0.439805	1.45324	-0.703211	0.798782	1.02055	1.58853	-0.325572	0.876822	0.856496	-0.556339	
3.10516	0	0	-0.207687	1.16486	-0.103845	0.069515	-0.745233	1.22678	0.796265	1.41055	0.18131	1.26385	0.762759	1.63705	0.200949	0.694598	0.529528	1.46813	0.529025	0.928434	0.439988	0.995502	1.16356	1.45967	0.438023	1.43501	-0.71412	0.786678	1.0131	1.57144	-0.336357	0.863967	0.843211	-0.549315	
3.09753	0	0	-0.212891	1.14439	-0.103081	0.067355	-0.737057	1.20367	0.80631	1.39772	0.187963	1.25516	0.755746	1.62946	0.197711	0.686991	0.527525	1.4652	0.532657	0.918169	0.443754	0.984857	1.16574	1.45352	0.436241	1.41678	-0.725028	0.774574	1.00565	1.55436	-0.347141	0.851113	0.829926	-0.542291	
3.09448	0	0	-0.211325	1.13997	-0.0995553	0.0650513	-0.735424	1.19906	0.809145	1.40527	0.198275	1.24625	0.758544	1.62155	0.200691	0.67857	0.530504	1.46537	0.530841	0.9233	0.446741	0.98495	1.17954	1.4516	0.44472	1.41608	-0.73376	0.770683	1.00901	1.54487	-0.350351	0.845762	0.819406	-0.535417	
3.0838	0	0	-0.209759	1.13554	-0.0960295	0.0627475	-0.733791	1.19444	0.81198	1.41283	0.208588	1.23734	0.761341	1.61364	0.203671	0.670149	0.533483	1.46555	0.529026	0.928431	0.449728	0.985044	1.19333	1.44969	0.4532	1.41539	-0.742491	0.766793	1.01237	1.53537	-0.35356	0.840411	0.808885	-0.528542	
3.08227	0	0	-0.208192	1.13111	-0.0925037	0.0604437	-0.732159	1.18983	0.814815	1.42038	0.2189	1.22843	0.764138	1.60573	0.20665	0.661727	0.536463	1.46572	0.527211	0.933562	0.452714	0.985137	1.20712	1.44777	0.46168	1.41469	-0.751223	0.762903	1.01573	1.52588	-0.356769	0.835061	0.798365	-0.521668	
3.07922	0	0	-0.206626	1.12669	-0.088978	0.05814	-0.730526	1.18522	0.81765	1.42794	0.229213	1.21952	0.766936	1.59783	0.20963	0.653306	0.539442	1.46589	0.525395	0.938693	0.455701	0.985231	1.22092	1.44585	0.470159	1.41399	-0.759954	0.759012	1.01909	1.51638	-0.359979	0.82971	0.787844	-0.514794	
3.07617	0	0	-0.20689	1.10987	-0.093268	0.0626037	-0.724004	1.16678	0.820537	1.41978	0.226212	1.228	0.751541	1.61397	0.20963	0.653306	0.536513	1.47417	0.531643	0.942507	0.455863	0.993311	1.22358	1.46307	0.471948	1.43223	-0.766521	0.763302	1.01946	1.53441	-0.362264	0.836167	0.783578	-0.51035	
3.06702	0	0	-0.207153	1.09305	-0.097558	0.0670675	-0.717481	1.14835	0.823424	1.41162	0.223212	1.23648	0.736146	1.6301	0.20963	0.653306	0.533584	1.48245	0.53789	0.946321	0.456025	1.00139	1.22625	1.48029	0.473738	1.45047	-0.773087	0.767593	1.01982	1.55244	-0.364549	0.842625	0.779311	-0.505906	
3.06702	0	0	-0.207417	1.07623	-0.101848	0.0715312	-0.710959	1.12992	0.826311	1.40346	0.220212	1.24496	0.720751	1.64624	0.20963	0.653306	0.530655	1.49073	0.544137	0.950135	0.456187	1.00947	1.22891	1.49751	0.475527	1.46871	-0.779653	0.771884	1.02018	1.57046	-0.366834	0.849082	0.775045	-0.501461	
3.06549	0	0	-0.20768	1.05941	-0.106138	0.075995	-0.704437	1.11149	0.829198	1.3953	0.217211	1.25344	0.705356	1.66238	0.20963	0.653306	0.527726	1.49901	0.550385	0.953949	0.456349	1.01755	1.23158	1.51473	0.477317	1.48695	-0.78622	0.776174	1.02055	1.58849	-0.369119	0.85554	0.770779	-0.497017	
3.05939	0	0	-0.209514	1.04705	-0.105374	0.073835	-0.702809	1.10688	0.832083	1.38715	0.212897	1.24539	0.713742	1.63868	0.19869	0.650755	0.521722	1.49021	0.545953	0.945004	0.455245	1.01213	1.21971	1.49879	0.464819	1.47571	-0.793885	0.78358	0.99763	1.59615	-0.380094	0.857747	0.760275	-0.490154	
3.05176	0	0	-0.211348	1.03469	-0.104609	0.071675	-0.70118	1.10228	0.834967	1.37899	0.208584	1.23735	0.722128	1.61498	0.18775	0.648204	0.515718	1.48141	0.541521	0.936059	0.454142	1.00671	1.20785	1.48285	0.45232	1.46447	-0.80155	0.790987	0.974713	1.60382	-0.391068	0.859954	0.749772	-0.48329	
3.0487	0	0	-0.213182	1.02232	-0.103845	0.069515	-0.699552	1.09768	0.837851	1.37084	0.20427	1.22931	0.730513	1.59128	0.17681	0.645652	0.509714	1.47261	0.537089	0.927114	0.453039	1.00129	1.19598	1.46691	0.439821	1.45322	-0.809214	0.798393	0.951795	1.61148	-0.402043	0.86216	0.739268	-0.476427	
3.04565	0	0	-0.215016	1.00996	-0.103081	0.067355	-0.697924	1.09308	0.840736	1.36269	0.199957	1.22126	0.738899	1.56758	0.16587	0.643101	0.50371	1.46381	0.532657	0.918169	0.451935	0.995873	1.18412	1.45097	0.427323	1.44198	-0.816879	0.805799	0.928878	1.61914	-0.413018	0.864367	0.728765	-0.469564	
3.04108	0	0	-0.213458	1.00555	-0.0987912	0.0628917	-0.691337	1.09231	0.843579	1.37024	0.196643	1.21042	0.734684	1.55217	0.162636	0.635528	0.495713	1.45211	0.527415	0.890118	0.445801	0.987617	1.15456	1.41141	0.428168	1.39315	-0.800493	0.80229	0.883968	1.5758	-0.421693	0.860117	0.704307	-0.453583	
3.0365	0	0	-0.211899	1.00115	-0.0945015	0.0584285	-0.684751	1.09155	0.846422	1.37778	0.193329	1.19957	0.730468	1.53675	0.159403	0.627955	0.487716	1.44041	0.522173	0.862067	0.439668	0.979361	1.125	1.37186	0.429012	1.34431	-0.784107	0.798781	0.839058	1.53245	-0.430368	0.855867	0.679849	-0.437601	
3.02887	0	0	-0.21034	0.996745	-0.0902118	0.0539652	-0.678164	1.09078	0.849265	1.38533	0.190014	1.18872	0.726252	1.52133	0.156169	0.620382	0.479719	1.42871	0.51693	0.834016	0.433534	0.971105	1.09543	1.3323	0.429856	1.29548	-0.76772	0.795272	0.794147	1.4891	-0.439042	0.851617	0.655392	-0.42162	
3.02887	0	0	-0.208782	0.99234	-0.085922	0.049502	-0.671577	1.09001	0.852108	1.39287	0.1867	1.17788	0.722037	1.50591	0.152935	0.612809	0.471722	1.41701	0.511688	0.805965	0.427401	0.962849	1.06587	1.29274	0.430701	1.24664	-0.751334	0.791763	0.749237	1.44575	-0.447717	0.847367	0.630934	-0.405639	
3.02429	0	0	-0.225466	0.96947	-0.0894475	0.0518057	-0.671509	1.10769	0.849325	1.35404	0.157904	1.13844	0.70384	1.47559	0.144716	0.585991	0.452547	1.36015	0.474377	0.783399	0.410304	0.951593	1.01247	1.24837	0.393348	1.21356	-0.720651	0.790946	0.704686	1.40293	-0.446577	0.844145	0.607308	-0.391858	
3.01666	0	0	-0.24215	0.9466	-0.092973	0.0541095	-0.67144	1.12536	0.846542	1.3152	0.129108	1.09901	0.685643	1.44527	0.136496	0.559173	0.433373	1.3033	0.437067	0.760833	0.393207	0.940338	0.959071	1.204	0.355995	1.18047	-0.689967	0.790129	0.660135	1.36011	-0.445437	0.840923	0.583682	-0.378077	
3.01361	0	0	-0.258833	0.923729	-0.0964985	0.0564132	-0.671372	1.14304	0.843759	1.27637	0.100312	1.05958	0.667446	1.41494	0.128277	0.532355	0.414198	1.24644	0.399756	0.738266	0.376109	0.929082	0.905671	1.15962	0.318642	1.14738	-0.659284	0.789311	0.615584	1.31729	-0.444296	0.8377	0.560057	-0.364296	
3.01056	0	0	-0.275517	0.900859	-0.100024	0.058717	-0.671304	1.16071	0.840976	1.23753	0.071516	1.02015	0.649249	1.38462	0.120058	0.505537	0.395024	1.18959	0.362445	0.7157	0.359012	0.917826	0.852271	1.11525	0.281289	1.11429	-0.628601	0.788494	0.571033	1.27447	-0.443156	0.834478	0.536431	-0.350515	
3.00445	0	0	-0.302301	0.854648	-0.11763	0.0702212	-0.644872	1.15765	0.784139	1.18176	0.024792	0.952562	0.612992	1.32465	0.0945098	0.461485	0.346228	1.10737	0.328128	0.664443	0.331487	0.877034	0.776281	1.04086	0.226083	1.0415	-0.607687	0.786876	0.464861	1.22327	-0.45842	0.834552	0.491322	-0.32104	
2.99988	0	0	-0.329086	0.808437	-0.135236	0.0817255	-0.61844	1.15458	0.727302	1.12599	-0.021932	0.884977	0.576735	1.26469	0.0689615	0.417434	0.297432	1.02515	0.29381	0.613187	0.303963	0.836242	0.70029	0.966471	0.170876	0.968699	-0.586774	0.785258	0.358689	1.17206	-0.473684	0.834626	0.446213	-0.291565	
2.9953	0	0	-0.35587	0.762227	-0.152843	0.0932298	-0.592008	1.15152	0.670464	1.07022	-0.068656	0.817393	0.540479	1.20472	0.0434132	0.373383	0.248637	0.942927	0.259493	0.56193	0.276439	0.795449	0.6243	0.892083	0.115669	0.895902	-0.56586	0.78364	0.252518	1.12085	-0.488948	0.834699	0.401103	-0.262089	
2.99377	0	0	-0.382654	0.716016	-0.170449	0.104734	-0.565576	1.14845	0.613627	1.01445	-0.11538	0.749809	0.504222	1.14476	0.017865	0.329331	0.199841	0.860707	0.225175	0.510674	0.248914	0.754657	0.548309	0.817694	0.060463	0.823105	-0.544947	0.782022	0.146346	1.06965	-0.504212	0.834773	0.355994	-0.232614	
2.99072	0	0	-0.402599	0.685794	-0.191529	0.118508	-0.545678	1.14613	0.547548	0.926617	-0.184434	0.669026	0.468148	1.08568	-0.00324275	0.273451	0.154268	0.780271	0.191036	0.460083	0.223347	0.709083	0.464567	0.746101	0.00816	0.722425	-0.518407	0.76468	0.0364473	0.981622	-0.51149	0.812377	0.304238	-0.198796	
2.98614	0	0	-0.422545	0.655573	-0.212608	0.132282	-0.525779	1.1438	0.48147	0.838782	-0.253489	0.588243	0.432073	1.0266	-0.0243505	0.217572	0.108696	0.699836	0.156897	0.409492	0.197779	0.66351	0.380826	0.674507	-0.044143	0.621746	-0.491867	0.747338	-0.0734515	0.893593	-0.518768	0.78998	0.252482	-0.164977	
2.98614	0	0	-0.442491	0.625352	-0.233688	0.146056	-0.50588	1.14147	0.415392	0.750946	-0.322543	0.507461	0.395999	0.967521	-0.0454582	0.161692	0.0631228	0.6194	0.122758	0.358901	0.172211	0.617936	0.297084	0.602913	-0.096446	0.521066	-0.465327	0.729996	-0.18335	0.805565	-0.526047	0.767583	0.200727	-0.131159	
2.98157	0	0	-0.462436	0.59513	-0.254768	0.15983	-0.485982	1.13915	0.349313	0.66311	-0.391597	0.426678	0.359925	0.908442	-0.066566	0.105813	0.01755	0.538964	0.088619	0.30831	0.146644	0.572363	0.213342	0.53132	-0.148749	0.420387	-0.438787	0.712654	-0.293249	0.717537	-0.533325	0.745187	0.148971	-0.097341	
2.98004	0	0	-0.474071	0.576249	-0.268792	0.168994	-0.474419	1.12447	0.307583	0.645257	-0.434479	0.382306	0.351526	0.878811	-0.0930865	0.0823023	-0.0139503	0.487042	0.075541	0.282593	0.126655	0.5535	0.161968	0.489318	-0.172803	0.376501	-0.414385	0.701534	-0.350854	0.666454	-0.533111	0.730282	0.118067	-0.0771475	
2.98309	0	0	-0.485705	0.557368	-0.282817	0.178158	-0.462857	1.1098	0.265852	0.627404	-0.47736	0.337934	0.343127	0.84918	-0.119607	0.0587915	-0.0454505	0.435119	0.062463	0.256876	0.106665	0.534637	0.110593	0.447316	-0.196857	0.332615	-0.389983	0.690414	-0.408459	0.61537	-0.532897	0.715377	0.087163	-0.056954	
2.97699	0	0	-0.49734	0.538486	-0.296841	0.187322	-0.451294	1.09512	0.224122	0.609552	-0.520242	0.293562	0.334727	0.819549	-0.146127	0.0352807	-0.0769507	0.383197	0.049385	0.23116	0.0866755	0.515774	0.0592193	0.405314	-0.220911	0.288729	-0.365581	0.679295	-0.466065	0.564286	-0.532683	0.700472	0.056259	-0.0367605	
2.98004	0	0	-0.508974	0.519605	-0.310866	0.196486	-0.439731	1.08045	0.182392	0.591699	-0.563124	0.24919	0.326328	0.789918	-0.172648	0.01177	-0.108451	0.331275	0.036307	0.205443	0.066686	0.496911	0.007845	0.363312	-0.244965	0.244843	-0.341179	0.668175	-0.52367	0.513203	-0.532469	0.685567	0.025355	-0.016567	
2.98004	0	0	-0.499863	0.493856	-0.320605	0.20119	-0.434823	1.06658	0.169945	0.596834	-0.579867	0.219104	0.317917	0.760474	-0.185142	-0.00195675	-0.125367	0.288448	0.0180258	0.194641	0.0509628	0.491278	-0.024273	0.338035	-0.273351	0.236056	-0.31223	0.658919	-0.558804	0.488857	-0.529076	0.67598	0.00899625	-0.00753425	
2.98004	0	0	-0.490752	0.468108	-0.330345	0.205894	-0.429914	1.05271	0.157498	0.60197	-0.59661	0.189018	0.309505	0.731029	-0.197636	-0.0156835	-0.142284	0.24562	-0.0002555	0.18384	0.0352395	0.485645	-0.056391	0.312757	-0.301737	0.227268	-0.283281	0.649663	-0.593939	0.46451	-0.525684	0.666392	-0.0073625	0.0014985	
2.98309	0	0	-0.481641	0.442359	-0.340085	0.210598	-0.425006	1.03884	0.145051	0.607106	-0.613354	0.158931	0.301094	0.701585	-0.21013	-0.0294103	-0.1592	0.202793	-0.0185367	0.173038	0.0195162	0.480012	-0.088509	0.287479	-0.330124	0.218481	-0.254332	0.640407	-0.629074	0.440164	-0.522292	0.656805	-0.0237212	0.0105312	
2.98614	0	0	-0.47253	0.41661	-0.349824	0.215302	-0.420098	1.02497	0.132604	0.612241	-0.630097	0.128845	0.292683	0.672141	-0.222624	-0.043137	-0.176117	0.159966	-0.036818	0.162237	0.003793	0.474379	-0.120627	0.262202	-0.35851	0.209694	-0.225383	0.631151	-0.664208	0.415818	-0.518899	0.647218	-0.04008	0.019564	
2.99225	0	0	-0.464596	0.411426	-0.354086	0.219747	-0.410169	1.01493	0.139526	0.622718	-0.635897	0.116293	0.288473	0.657488	-0.228697	-0.0422903	-0.191724	0.138433	-0.0489715	0.155055	-0.008971	0.468831	-0.138399	0.243144	-0.370329	0.176617	-0.205284	0.618018	-0.679925	0.372423	-0.510998	0.624887	-0.0545145	0.030652	
2.99988	0	0	-0.456662	0.406241	-0.358348	0.224191	-0.40024	1.00489	0.146449	0.633196	-0.641697	0.10374	0.284262	0.642836	-0.23477	-0.0414435	-0.207332	0.1169	-0.061125	0.147873	-0.021735	0.463283	-0.15617	0.224085	-0.382149	0.143539	-0.185184	0.604885	-0.695643	0.329028	-0.503097	0.602557	-0.068949	0.04174	
3.00598	0	0	-0.448729	0.401057	-0.36261	0.228636	-0.390312	0.99485	0.153371	0.643673	-0.647497	0.0911882	0.280052	0.628183	-0.240843	-0.0405968	-0.222939	0.095367	-0.0732785	0.140692	-0.034499	0.457736	-0.173941	0.205027	-0.393968	0.110462	-0.165084	0.591751	-0.711361	0.285632	-0.495195	0.580226	-0.0833835	0.052828	
3.00751	0	0	-0.440795	0.395873	-0.366872	0.233081	-0.380383	0.984811	0.160294	0.65415	-0.653297	0.078636	0.275842	0.61353	-0.246916	-0.03975	-0.238546	0.073834	-0.085432	0.13351	-0.047263	0.452188	-0.191713	0.185969	-0.405787	0.077384	-0.144985	0.578618	-0.727078	0.242237	-0.487294	0.557896	-0.097818	0.063916	
3.01819	0	0	-0.416577	0.396541	-0.356373	0.226221	-0.37208	0.979386	0.16861	0.6758	-0.649798	0.0783902	0.275842	0.61353	-0.240843	-0.0405968	-0.238805	0.0581928	-0.0836942	0.128599	-0.0474425	0.444381	-0.190986	0.172391	-0.397477	0.053898	-0.121451	0.570494	-0.735897	0.214671	-0.468494	0.533376	-0.101233	0.0661473	
3.02276	0	0	-0.392359	0.397208	-0.345874	0.219361	-0.363777	0.973961	0.176926	0.69745	-0.646299	0.0781445	0.275842	0.61353	-0.23477	-0.0414435	-0.239065	0.0425515	-0.0819565	0.123688	-0.047622	0.436575	-0.190258	0.158813	-0.389166	0.030412	-0.0979165	0.56237	-0.744717	0.187105	-0.449694	0.508855	-0.104647	0.0683785	
3.03345	0	0	-0.368141	0.397876	-0.335375	0.2125	-0.355475	0.968536	0.185243	0.7191	-0.6428	0.0778988	0.275842	0.61353	-0.228697	-0.0422903	-0.239324	0.0269102	-0.0802187	0.118777	-0.0478015	0.428768	-0.189531	0.145236	-0.380856	0.006926	-0.0743823	0.554246	-0.753536	0.159538	-0.430894	0.484335	-0.108062	0.0706097	
