2.31171	0	0	0.173561	0.266397	0.068234	0.122886	-0.164362	-0.226462	0.028451	0.109569	0.161861	0.242478	0.240372	0.463904	0.037163	0.143672	0.321617	0.292359	0.158027	0.368833	0.269023	0.16521	0.137517	0.212781	0.259934	0.258379	0.030711	0.15704	-0.022507	0.132749	0.066364	0.277513	0.146322	0.137352	
2.31171	0	0	0.168528	0.280621	0.0707772	0.132358	-0.168342	-0.215215	0.0160165	0.12208	0.166847	0.254978	0.260337	0.483761	0.0504803	0.164332	0.342785	0.331388	0.164567	0.3871	0.287195	0.178637	0.139525	0.217107	0.269072	0.261977	0.0332322	0.161331	-0.0263572	0.14363	0.0734522	0.281058	0.15317	0.143071	
2.31171	0	0	0.163494	0.294846	0.0733205	0.141829	-0.172322	-0.203967	0.003582	0.134591	0.171832	0.267477	0.280303	0.503618	0.0637975	0.184993	0.363953	0.370417	0.171106	0.405367	0.305368	0.192063	0.141533	0.221433	0.278211	0.265575	0.0357535	0.165622	-0.0302075	0.154511	0.0805405	0.284602	0.160019	0.14879	
2.31323	0	0	0.158461	0.309071	0.0758638	0.151301	-0.176302	-0.192719	-0.0088525	0.147101	0.176817	0.279977	0.300268	0.523476	0.0771147	0.205653	0.385122	0.409447	0.177645	0.423635	0.323541	0.205489	0.14354	0.225758	0.287349	0.269173	0.0382747	0.169913	-0.0340577	0.165392	0.0876288	0.288146	0.166867	0.15451	
2.30865	0	0	0.153428	0.323295	0.078407	0.160773	-0.180282	-0.181472	-0.021287	0.159612	0.181803	0.292477	0.320234	0.543333	0.090432	0.226314	0.40629	0.448476	0.184185	0.441902	0.341713	0.218916	0.145548	0.230084	0.296488	0.272771	0.040796	0.174204	-0.037908	0.176273	0.094717	0.291691	0.173715	0.160229	
2.31018	0	0	0.150281	0.350936	0.0792363	0.175104	-0.188257	-0.158934	-0.0243172	0.168176	0.187721	0.329043	0.323415	0.585372	0.0949832	0.26022	0.428493	0.493412	0.187155	0.458047	0.347212	0.232242	0.154724	0.254235	0.306542	0.288581	0.0440142	0.187962	-0.011115	0.192329	0.0980425	0.305899	0.182075	0.170086	
2.31476	0	0	0.147135	0.378576	0.0800655	0.189435	-0.196232	-0.136397	-0.0273475	0.176739	0.193639	0.36561	0.326596	0.627412	0.0995345	0.294125	0.450697	0.538348	0.190126	0.474191	0.35271	0.245568	0.1639	0.278385	0.316595	0.304391	0.0472325	0.20172	0.015678	0.208386	0.101368	0.320107	0.190436	0.179943	
2.31018	0	0	0.143988	0.406217	0.0808948	0.203767	-0.204206	-0.113859	-0.0303778	0.185303	0.199558	0.402176	0.329777	0.669451	0.104086	0.328031	0.472901	0.583284	0.193097	0.490336	0.358208	0.258895	0.173075	0.302535	0.326649	0.320202	0.0504508	0.215478	0.042471	0.224442	0.104693	0.334316	0.198796	0.1898	
2.31171	0	0	0.140841	0.433858	0.081724	0.218098	-0.212181	-0.091321	-0.033408	0.193867	0.205476	0.438743	0.332958	0.71149	0.108637	0.361937	0.495104	0.62822	0.196067	0.506481	0.363707	0.272221	0.182251	0.326686	0.336703	0.336012	0.053669	0.229236	0.069264	0.240498	0.108019	0.348524	0.207156	0.199657	
2.30865	0	0	0.147996	0.451188	0.088105	0.225104	-0.208339	-0.0808075	-0.0270367	0.198492	0.207982	0.449459	0.337077	0.725416	0.115726	0.377055	0.503831	0.653468	0.202162	0.513826	0.373112	0.27455	0.18627	0.335399	0.339074	0.344077	0.0463522	0.249914	0.079382	0.252838	0.104953	0.369003	0.210163	0.207925	
2.30255	0	0	0.155151	0.468519	0.094486	0.232111	-0.204496	-0.070294	-0.0206655	0.203117	0.210487	0.460175	0.341196	0.739342	0.122815	0.392174	0.512558	0.678716	0.208258	0.52117	0.382518	0.27688	0.190288	0.344112	0.341444	0.352141	0.0390355	0.270593	0.0895	0.265179	0.101887	0.389482	0.21317	0.216192	
2.30102	0	0	0.162306	0.485849	0.100867	0.239118	-0.200654	-0.0597805	-0.0142943	0.207742	0.212993	0.470891	0.345315	0.753268	0.129905	0.407292	0.521286	0.703963	0.214354	0.528515	0.391923	0.279209	0.194307	0.352826	0.343815	0.360206	0.0317188	0.291272	0.099618	0.27752	0.0988217	0.409961	0.216176	0.224459	
2.30408	0	0	0.169461	0.50318	0.107248	0.246124	-0.196812	-0.049267	-0.007923	0.212367	0.215499	0.481607	0.349434	0.767194	0.136994	0.42241	0.530013	0.729211	0.220449	0.53586	0.401328	0.281539	0.198326	0.361539	0.346186	0.368271	0.024402	0.31195	0.109736	0.28986	0.095756	0.43044	0.219183	0.232727	
2.3056	0	0	0.180198	0.529306	0.114047	0.260349	-0.189128	-0.0281657	-0.00559925	0.228459	0.214716	0.492725	0.362791	0.780686	0.145229	0.434358	0.534875	0.74882	0.228035	0.551341	0.411945	0.294986	0.197721	0.373292	0.355362	0.371902	0.0374555	0.309392	0.11612	0.302578	0.10546	0.438504	0.229919	0.235959	
2.29797	0	0	0.190935	0.555431	0.120845	0.274574	-0.181444	-0.0070645	-0.0032755	0.244551	0.213933	0.503842	0.376147	0.794177	0.153464	0.446306	0.539737	0.768429	0.235621	0.566821	0.422561	0.308432	0.197116	0.385045	0.364538	0.375534	0.050509	0.306833	0.122504	0.315297	0.115164	0.446568	0.240656	0.239192	
2.27814	0	0	0.201672	0.581557	0.127644	0.288798	-0.17376	0.0140368	-0.00095175	0.260643	0.213151	0.51496	0.389504	0.807669	0.161698	0.458253	0.544599	0.788038	0.243206	0.582302	0.433177	0.321878	0.196511	0.396798	0.373714	0.379165	0.0635625	0.304275	0.128888	0.328016	0.124868	0.454631	0.251393	0.242424	
2.2583	0	0	0.212409	0.607683	0.134443	0.303023	-0.166076	0.035138	0.001372	0.276735	0.212368	0.526078	0.40286	0.821161	0.169933	0.470201	0.549461	0.807647	0.250792	0.597782	0.443794	0.335325	0.195906	0.408551	0.38289	0.382796	0.076616	0.301717	0.135272	0.340734	0.134572	0.462695	0.262129	0.245656	
2.27356	0	0	0.214452	0.63965	0.138251	0.317379	-0.164246	0.0514125	0.0119628	0.280844	0.238025	0.569727	0.412645	0.870633	0.186127	0.506876	0.565923	0.853142	0.257333	0.616287	0.445971	0.350935	0.214868	0.445596	0.394754	0.423383	0.082581	0.307783	0.176533	0.347679	0.140734	0.468976	0.284453	0.249896	
2.25372	0	0	0.216496	0.671617	0.14206	0.331734	-0.162417	0.067687	0.0225535	0.284953	0.263682	0.613376	0.42243	0.920104	0.20232	0.543551	0.582386	0.898637	0.263875	0.634793	0.448149	0.366544	0.233831	0.482641	0.406618	0.46397	0.088546	0.313848	0.217794	0.354623	0.146897	0.475256	0.306778	0.254135	
2.27356	0	0	0.218539	0.703584	0.145869	0.346089	-0.160587	0.0839615	0.0331443	0.289063	0.289339	0.657024	0.432215	0.969576	0.218513	0.580226	0.598848	0.944131	0.270417	0.653299	0.450326	0.382154	0.252794	0.519686	0.418483	0.504557	0.094511	0.319914	0.259054	0.361567	0.15306	0.481537	0.329102	0.258375	
2.28271	0	0	0.220583	0.735551	0.149677	0.360445	-0.158757	0.100236	0.043735	0.293172	0.314996	0.700673	0.442	1.01905	0.234707	0.616901	0.61531	0.989626	0.276958	0.671804	0.452503	0.397764	0.271756	0.556731	0.430347	0.545144	0.100476	0.32598	0.300315	0.368512	0.159222	0.487818	0.351426	0.262614	
2.28119	0	0	0.227729	0.753173	0.159073	0.367435	-0.147043	0.110097	0.0501287	0.29783	0.339893	0.729168	0.456923	1.05432	0.259525	0.653296	0.649244	1.03684	0.280967	0.685175	0.460377	0.404566	0.294042	0.574686	0.452666	0.556481	0.0926775	0.325096	0.319097	0.377515	0.155666	0.486017	0.373108	0.260455	
2.28577	0	0	0.234876	0.770795	0.168469	0.374425	-0.135329	0.119957	0.0565225	0.302489	0.364789	0.757664	0.471846	1.08959	0.284342	0.689691	0.683178	1.08405	0.284977	0.698546	0.468252	0.411369	0.316327	0.592641	0.474985	0.567819	0.084879	0.324211	0.33788	0.386518	0.152109	0.484216	0.394789	0.258295	
2.29797	0	0	0.242022	0.788416	0.177865	0.381414	-0.123616	0.129818	0.0629163	0.307148	0.389686	0.786159	0.486769	1.12486	0.30916	0.726086	0.717112	1.13126	0.288986	0.711917	0.476127	0.418172	0.338612	0.610595	0.497303	0.579156	0.0770805	0.323327	0.356662	0.395522	0.148553	0.482415	0.41647	0.256135	
2.30102	0	0	0.249168	0.806038	0.187261	0.388404	-0.111902	0.139679	0.06931	0.311806	0.414583	0.814654	0.501692	1.16013	0.333978	0.762481	0.751046	1.17847	0.292996	0.725288	0.484001	0.424974	0.360898	0.62855	0.519622	0.590494	0.069282	0.322443	0.375445	0.404525	0.144996	0.480614	0.438152	0.253976	
2.30255	0	0	0.263331	0.822882	0.194075	0.402752	-0.104212	0.16101	0.077895	0.321687	0.439587	0.843373	0.528591	1.18787	0.362054	0.802224	0.789084	1.22371	0.301646	0.737957	0.488536	0.433979	0.374793	0.650216	0.533644	0.61061	0.065845	0.320705	0.39626	0.407993	0.146893	0.475252	0.454477	0.25018	
2.31018	0	0	0.277495	0.839726	0.200889	0.4171	-0.0965215	0.182341	0.08648	0.331568	0.464592	0.872092	0.555491	1.21561	0.39013	0.841967	0.827122	1.26894	0.310296	0.750625	0.493071	0.442985	0.388687	0.671883	0.547667	0.630726	0.062408	0.318967	0.417075	0.411461	0.14879	0.46989	0.470802	0.246383	
2.32391	0	0	0.291658	0.85657	0.207703	0.431447	-0.0888313	0.203673	0.095065	0.341449	0.489596	0.90081	0.582391	1.24336	0.418206	0.881711	0.865161	1.31418	0.318946	0.763294	0.497607	0.45199	0.402582	0.693549	0.561689	0.650841	0.058971	0.31723	0.437889	0.414928	0.150688	0.464528	0.487127	0.242587	
2.32086	0	0	0.305822	0.873414	0.214517	0.445795	-0.081141	0.225004	0.10365	0.35133	0.514601	0.929529	0.60929	1.2711	0.446282	0.921454	0.903199	1.35942	0.327596	0.775963	0.502142	0.460995	0.416477	0.715215	0.575711	0.670957	0.055534	0.315492	0.458704	0.418396	0.152585	0.459166	0.503452	0.238791	
2.31476	0	0	0.302382	0.883137	0.219661	0.448084	-0.0831672	0.230731	0.104669	0.348449	0.533009	0.968319	0.612272	1.31477	0.47566	0.958285	0.927669	1.40993	0.332664	0.786424	0.505692	0.465524	0.427728	0.744553	0.586749	0.6997	0.0580538	0.319822	0.474663	0.435795	0.155193	0.463646	0.515116	0.239768	
2.31323	0	0	0.298941	0.89286	0.224804	0.450373	-0.0851935	0.236457	0.105689	0.345568	0.551416	1.00711	0.615255	1.35844	0.505038	0.995116	0.952139	1.46044	0.337732	0.796885	0.509243	0.470052	0.438978	0.773891	0.597787	0.728442	0.0605735	0.324152	0.490623	0.453194	0.157802	0.468126	0.52678	0.240745	
2.31323	0	0	0.295501	0.902583	0.229947	0.452663	-0.0872198	0.242183	0.106709	0.342686	0.569824	1.0459	0.618237	1.40211	0.534415	1.03195	0.97661	1.51096	0.3428	0.807347	0.512794	0.474581	0.450229	0.80323	0.608825	0.757185	0.0630933	0.328481	0.506582	0.470592	0.160411	0.472606	0.538445	0.241721	
2.31323	0	0	0.292061	0.912306	0.235091	0.454952	-0.089246	0.24791	0.107728	0.339805	0.588232	1.08469	0.621219	1.44578	0.563793	1.06878	1.00108	1.56147	0.347868	0.817808	0.516344	0.47911	0.46148	0.832568	0.619863	0.785928	0.065613	0.332811	0.522541	0.487991	0.163019	0.477086	0.550109	0.242698	
2.32696	0	0	0.29736	0.916327	0.237231	0.457323	-0.081346	0.247153	0.106709	0.342686	0.608373	1.10073	0.629425	1.47484	0.586925	1.09984	1.02567	1.59516	0.350403	0.823048	0.513978	0.485797	0.471125	0.835954	0.620735	0.79848	0.066757	0.318127	0.529319	0.479274	0.159697	0.462777	0.539235	0.239486	
2.33307	0	0	0.302658	0.920347	0.23937	0.459695	-0.073446	0.246397	0.105689	0.345568	0.628514	1.11678	0.637632	1.50389	0.610058	1.13091	1.05026	1.62885	0.352938	0.828289	0.511611	0.492484	0.480769	0.839339	0.621606	0.811033	0.067901	0.303443	0.536096	0.470557	0.156376	0.448468	0.528362	0.236274	
2.32086	0	0	0.307957	0.924368	0.24151	0.462066	-0.065546	0.24564	0.104669	0.348449	0.648656	1.13283	0.645838	1.53294	0.63319	1.16198	1.07485	1.66254	0.355473	0.83353	0.509245	0.499171	0.490414	0.842725	0.622478	0.823585	0.069045	0.288759	0.542874	0.46184	0.153054	0.434158	0.517489	0.233063	
2.32086	0	0	0.313256	0.928389	0.24365	0.464437	-0.057646	0.244884	0.10365	0.35133	0.668797	1.14888	0.654045	1.56199	0.656323	1.19305	1.09944	1.69624	0.358008	0.83877	0.506879	0.505858	0.500058	0.846111	0.623349	0.836137	0.070189	0.274075	0.549651	0.453123	0.149732	0.419849	0.506615	0.229851	
2.32239	0	0	0.309808	0.938133	0.244054	0.471718	-0.0537975	0.255603	0.106855	0.353668	0.6831	1.17254	0.667555	1.57621	0.677529	1.21791	1.1112	1.73212	0.360544	0.844017	0.507075	0.512591	0.505008	0.852578	0.631136	0.844195	0.0720193	0.268902	0.555318	0.458	0.142625	0.416268	0.504295	0.227931	
2.31781	0	0	0.30636	0.947877	0.244457	0.478998	-0.049949	0.266321	0.11006	0.356007	0.697402	1.1962	0.681065	1.59042	0.698735	1.24278	1.12296	1.768	0.363079	0.849264	0.50727	0.519324	0.509958	0.859045	0.638923	0.852253	0.0738495	0.26373	0.560985	0.462877	0.135518	0.412687	0.501976	0.226012	
2.30865	0	0	0.302912	0.957622	0.244861	0.486279	-0.0461005	0.277039	0.113264	0.358345	0.711705	1.21987	0.694575	1.60463	0.719942	1.26765	1.13472	1.80388	0.365615	0.854511	0.507466	0.526057	0.514907	0.865513	0.64671	0.860312	0.0756797	0.258557	0.566652	0.467753	0.128411	0.409106	0.499656	0.224092	
2.30102	0	0	0.299464	0.967366	0.245265	0.49356	-0.042252	0.287758	0.116469	0.360684	0.726008	1.24353	0.708085	1.61884	0.741148	1.29252	1.14647	1.83976	0.368151	0.859758	0.507662	0.53279	0.519857	0.87198	0.654497	0.86837	0.07751	0.253384	0.572319	0.47263	0.121304	0.405525	0.497336	0.222172	
2.30255	0	0	0.299334	0.948738	0.253023	0.488491	-0.042252	0.287758	0.117489	0.357801	0.726844	1.25034	0.705428	1.62635	0.752788	1.30825	1.15832	1.8583	0.36921	0.856764	0.505292	0.539489	0.519202	0.884068	0.648435	0.885503	0.0807267	0.267203	0.583671	0.482404	0.122963	0.412666	0.491856	0.229189	
2.2995	0	0	0.299204	0.93011	0.26078	0.483422	-0.042252	0.287758	0.11851	0.354917	0.72768	1.25715	0.702771	1.63386	0.764428	1.32398	1.17016	1.87683	0.37027	0.853769	0.502922	0.546188	0.518547	0.896156	0.642372	0.902636	0.0839435	0.281022	0.595023	0.492177	0.124622	0.419807	0.486375	0.236205	
2.3056	0	0	0.299073	0.911482	0.268538	0.478353	-0.042252	0.287758	0.11953	0.352034	0.728515	1.26396	0.700115	1.64137	0.776069	1.33972	1.182	1.89537	0.37133	0.850774	0.500551	0.552886	0.517892	0.908244	0.636309	0.919769	0.0871602	0.294841	0.606374	0.501951	0.126281	0.426948	0.480895	0.243222	
2.30713	0	0	0.298943	0.892854	0.276296	0.473284	-0.042252	0.287758	0.12055	0.349151	0.729351	1.27077	0.697458	1.64887	0.787709	1.35545	1.19385	1.9139	0.372389	0.84778	0.498181	0.559585	0.517237	0.920332	0.630247	0.936902	0.090377	0.30866	0.617726	0.511725	0.12794	0.434089	0.475415	0.250238	
2.30713	0	0	0.28664	0.88969	0.277571	0.478115	-0.0343342	0.287001	0.123757	0.351489	0.726823	1.26874	0.697458	1.64887	0.797353	1.36475	1.20276	1.92344	0.37133	0.850774	0.504294	0.564183	0.51521	0.915824	0.630247	0.936902	0.090377	0.30866	0.608221	0.507186	0.12084	0.430503	0.471517	0.252785	
2.32239	0	0	0.274338	0.886526	0.278845	0.482946	-0.0264165	0.286244	0.126965	0.353827	0.724295	1.26672	0.697458	1.64887	0.806996	1.37406	1.21168	1.93299	0.37027	0.853769	0.510407	0.56878	0.513183	0.911316	0.630247	0.936902	0.090377	0.30866	0.598717	0.502647	0.11374	0.426918	0.46762	0.255332	
2.32696	0	0	0.262035	0.883361	0.28012	0.487777	-0.0184988	0.285487	0.130172	0.356166	0.721766	1.26469	0.697458	1.64887	0.816639	1.38336	1.2206	1.94253	0.36921	0.856764	0.51652	0.573377	0.511156	0.906808	0.630247	0.936902	0.090377	0.30866	0.589213	0.498108	0.10664	0.423333	0.463722	0.257878	
2.33307	0	0	0.249732	0.880197	0.281395	0.492608	-0.010581	0.28473	0.133379	0.358504	0.719238	1.26266	0.697458	1.64887	0.826283	1.39266	1.22952	1.95208	0.368151	0.859758	0.522633	0.577975	0.509129	0.9023	0.630247	0.936902	0.090377	0.30866	0.579708	0.493569	0.09954	0.419747	0.459825	0.260425	
2.34375	0	0	0.251449	0.875345	0.277916	0.502441	-0.0146505	0.296231	0.131337	0.364275	0.724306	1.25751	0.700115	1.64137	0.829501	1.39577	1.23449	1.95543	0.367091	0.862753	0.52105	0.582449	0.51587	0.903728	0.627212	0.945481	0.0938195	0.310396	0.579575	0.504405	0.09954	0.419747	0.459825	0.260425	
2.35138	0	0	0.253166	0.870493	0.274436	0.512274	-0.01872	0.307732	0.129295	0.370046	0.729375	1.25236	0.702771	1.63386	0.83272	1.39888	1.23946	1.95878	0.366031	0.865749	0.519467	0.586923	0.522611	0.905156	0.624176	0.95406	0.097262	0.312133	0.579442	0.515242	0.09954	0.419747	0.459825	0.260425	
2.3529	0	0	0.254883	0.86564	0.270957	0.522106	-0.0227895	0.319233	0.127253	0.375817	0.734443	1.24721	0.705428	1.62635	0.835938	1.40198	1.24443	1.96213	0.364971	0.868744	0.517883	0.591398	0.529352	0.906583	0.62114	0.962638	0.100705	0.31387	0.579309	0.526078	0.09954	0.419747	0.459825	0.260425	
2.36206	0	0	0.2566	0.860788	0.267478	0.531939	-0.026859	0.330734	0.125211	0.381588	0.739511	1.24206	0.708085	1.61884	0.839156	1.40509	1.2494	1.96548	0.363911	0.871739	0.5163	0.595872	0.536093	0.908011	0.618105	0.971217	0.104147	0.315606	0.579176	0.536914	0.09954	0.419747	0.459825	0.260425	
2.36206	0	0	0.247747	0.847951	0.271361	0.529402	-0.0227895	0.319233	0.123025	0.376362	0.725194	1.22755	0.697221	1.59715	0.831524	1.40226	1.24443	1.96213	0.360317	0.869482	0.511961	0.593548	0.529588	0.916153	0.615067	0.979804	0.107362	0.329472	0.583718	0.555496	0.0948073	0.433122	0.455869	0.271606	
2.36816	0	0	0.238893	0.835114	0.275245	0.526865	-0.01872	0.307732	0.12084	0.371136	0.710876	1.21305	0.686356	1.57547	0.823891	1.39944	1.23946	1.95878	0.356724	0.867225	0.507623	0.591223	0.523084	0.924294	0.612029	0.988391	0.110576	0.343338	0.588259	0.574078	0.0900745	0.446497	0.451912	0.282787	
2.37121	0	0	0.23004	0.822277	0.279129	0.524327	-0.0146505	0.296231	0.118654	0.36591	0.696558	1.19854	0.675491	1.55378	0.816259	1.39661	1.23449	1.95543	0.353131	0.864969	0.503285	0.588899	0.516579	0.932435	0.60899	0.996979	0.113791	0.357205	0.592801	0.592661	0.0853417	0.459872	0.447955	0.293969	
2.37427	0	0	0.221187	0.80944	0.283012	0.52179	-0.010581	0.28473	0.116469	0.360684	0.682241	1.18403	0.664627	1.53209	0.808627	1.39379	1.22952	1.95208	0.349537	0.862712	0.498946	0.586575	0.510074	0.940577	0.605952	1.00557	0.117006	0.371071	0.597343	0.611243	0.080609	0.473247	0.443999	0.30515	
2.37579	0	0	0.20893	0.806301	0.282141	0.52425	-0.012615	0.290479	0.116469	0.360684	0.67888	1.17525	0.660519	1.51756	0.808627	1.39379	1.22354	1.95159	0.345946	0.860457	0.495401	0.582018	0.512996	0.942561	0.604432	1.00986	0.117006	0.371071	0.604866	0.621452	0.0761185	0.474123	0.443207	0.307388	
2.37732	0	0	0.196673	0.803161	0.281271	0.526709	-0.014649	0.296227	0.116469	0.360684	0.675519	1.16646	0.65641	1.50303	0.808627	1.39379	1.21756	1.9511	0.342354	0.858202	0.491857	0.577462	0.515918	0.944545	0.602911	1.01416	0.117006	0.371071	0.612389	0.631662	0.071628	0.475	0.442415	0.309626	
2.37884	0	0	0.184416	0.800021	0.2804	0.529169	-0.016683	0.301976	0.116469	0.360684	0.672158	1.15767	0.652301	1.4885	0.808627	1.39379	1.21159	1.95061	0.338762	0.855947	0.488312	0.572905	0.51884	0.946529	0.601391	1.01846	0.117006	0.371071	0.619913	0.641872	0.0671375	0.475876	0.441624	0.311864	
2.3819	0	0	0.172159	0.796882	0.27953	0.531629	-0.018717	0.307725	0.116469	0.360684	0.668797	1.14888	0.648193	1.47397	0.808627	1.39379	1.20561	1.95012	0.335171	0.853692	0.484768	0.568349	0.521762	0.948513	0.59987	1.02275	0.117006	0.371071	0.627436	0.652081	0.062647	0.476753	0.440832	0.314102	
2.38342	0	0	0.17045	0.801713	0.280803	0.536474	-0.0207525	0.313477	0.117633	0.368797	0.679739	1.15454	0.652301	1.4885	0.809444	1.40367	1.20556	1.95894	0.335171	0.853692	0.481416	0.570539	0.526714	0.95502	0.603754	1.02683	0.120453	0.372816	0.635817	0.670441	0.0671375	0.475876	0.439248	0.31858	
2.39105	0	0	0.16874	0.806544	0.282075	0.541319	-0.022788	0.319229	0.118797	0.37691	0.690682	1.16021	0.65641	1.50303	0.810261	1.41356	1.20551	1.96777	0.335171	0.853692	0.478064	0.57273	0.531665	0.961528	0.607639	1.0309	0.1239	0.374561	0.644197	0.688801	0.071628	0.475	0.437663	0.323057	
2.39563	0	0	0.16703	0.811376	0.283347	0.546164	-0.0248235	0.324982	0.119961	0.385022	0.701624	1.16588	0.660519	1.51756	0.811078	1.42344	1.20547	1.97659	0.335171	0.853692	0.474712	0.57492	0.536617	0.968035	0.611523	1.03497	0.127347	0.376307	0.652578	0.70716	0.0761185	0.474123	0.436078	0.327534	
2.40936	0	0	0.165321	0.816207	0.28462	0.551009	-0.026859	0.330734	0.121125	0.393135	0.712567	1.17155	0.664627	1.53209	0.811895	1.43333	1.20542	1.98542	0.335171	0.853692	0.47136	0.57711	0.541569	0.974542	0.615408	1.03904	0.130794	0.378052	0.660958	0.72552	0.080609	0.473247	0.434494	0.332012	
2.43072	0	0	0.168739	0.806547	0.285491	0.548547	-0.026859	0.330734	0.121125	0.393135	0.734519	1.17372	0.67403	1.53169	0.823951	1.43588	1.2044	1.98828	0.331582	0.851438	0.466051	0.570283	0.544495	0.976531	0.615408	1.03904	0.12619	0.391065	0.665494	0.744297	0.065946	0.491065	0.432909	0.336492	
2.44903	0	0	0.172157	0.796887	0.286362	0.546086	-0.026859	0.330734	0.121125	0.393135	0.756471	1.17589	0.683433	1.5313	0.836007	1.43844	1.20339	1.99114	0.327993	0.849185	0.460742	0.563456	0.547422	0.978519	0.615408	1.03904	0.121585	0.404077	0.670029	0.763075	0.051283	0.508884	0.431324	0.340972	
2.45972	0	0	0.175575	0.787227	0.287233	0.543624	-0.026859	0.330734	0.121125	0.393135	0.778422	1.17806	0.692836	1.5309	0.848063	1.441	1.20238	1.99401	0.324405	0.846932	0.455433	0.556629	0.550348	0.980508	0.615408	1.03904	0.116981	0.41709	0.674565	0.781852	0.03662	0.526703	0.429739	0.345452	
2.47345	0	0	0.178993	0.777567	0.288104	0.541162	-0.026859	0.330734	0.121125	0.393135	0.800374	1.18023	0.702239	1.5305	0.860119	1.44355	1.20137	1.99687	0.320816	0.844678	0.450124	0.549802	0.553274	0.982497	0.615408	1.03904	0.112376	0.430103	0.6791	0.800629	0.021957	0.544521	0.428154	0.349932	
2.48413	0	0	0.177285	0.782396	0.287233	0.543624	-0.0109978	0.329223	0.12331	0.39837	0.821562	1.18479	0.706355	1.54509	0.870997	1.44951	1.2043	2.00596	0.321874	0.841689	0.443243	0.547443	0.560031	0.983938	0.612362	1.04765	0.110773	0.423146	0.688652	0.805284	0.0203175	0.537355	0.425051	0.350237	
2.49328	0	0	0.175576	0.787224	0.286362	0.546086	0.0048635	0.327712	0.125494	0.403606	0.84275	1.18934	0.710471	1.55967	0.881876	1.45547	1.20724	2.01505	0.322931	0.838699	0.436362	0.545083	0.566787	0.985379	0.609317	1.05626	0.109171	0.416189	0.698203	0.80994	0.018678	0.530189	0.421948	0.350542	
2.49786	0	0	0.173868	0.792053	0.285491	0.548547	0.0207248	0.326202	0.127679	0.408841	0.863937	1.19389	0.714586	1.57425	0.892754	1.46142	1.21017	2.02415	0.323989	0.835709	0.429482	0.542723	0.573543	0.98682	0.606271	1.06487	0.107568	0.409231	0.707755	0.814595	0.0170385	0.523023	0.418845	0.350848	
2.49634	0	0	0.172159	0.796882	0.28462	0.551009	0.036586	0.324691	0.129863	0.414076	0.885125	1.19844	0.718702	1.58884	0.903632	1.46738	1.21311	2.03324	0.325047	0.83272	0.422601	0.540364	0.5803	0.988261	0.603225	1.07348	0.105965	0.402274	0.717307	0.81925	0.015399	0.515857	0.415742	0.351153	
2.49328	0	0	0.175717	0.805705	0.282005	0.558399	0.0404495	0.335468	0.13	0.425105	0.905548	1.21464	0.732253	1.60308	0.912119	1.48017	1.213	2.05097	0.318288	0.839435	0.421813	0.542593	0.589099	0.994237	0.610996	1.08165	0.111252	0.398819	0.729733	0.826414	0.0144515	0.518535	0.415742	0.351153	
2.49634	0	0	0.179276	0.814529	0.27939	0.565789	0.044313	0.346245	0.130137	0.436134	0.925971	1.23083	0.745804	1.61732	0.920606	1.49296	1.21288	2.0687	0.311528	0.84615	0.421024	0.544821	0.597899	1.00021	0.618767	1.08983	0.116539	0.395365	0.74216	0.833579	0.013504	0.521212	0.415742	0.351153	
2.49481	0	0	0.182835	0.823353	0.276776	0.573179	0.0481765	0.357023	0.130274	0.447163	0.946393	1.24703	0.759355	1.63156	0.929093	1.50574	1.21277	2.08643	0.304768	0.852865	0.420235	0.547049	0.606699	1.00619	0.626538	1.09801	0.121825	0.391911	0.754586	0.840743	0.0125565	0.52389	0.415742	0.351153	
2.49634	0	0	0.186393	0.832176	0.274161	0.580569	0.05204	0.3678	0.130411	0.458192	0.966816	1.26322	0.772906	1.64581	0.93758	1.51853	1.21265	2.10416	0.298009	0.85958	0.419447	0.549278	0.615498	1.01217	0.634309	1.10618	0.127112	0.388456	0.767012	0.847907	0.011609	0.526567	0.415742	0.351153	
2.49634	0	0	0.195092	0.826492	0.270276	0.583108	0.057949	0.372821	0.134644	0.457652	0.987312	1.27021	0.779694	1.65295	0.948497	1.52452	1.21564	2.10442	0.301181	0.850615	0.412386	0.540197	0.620235	1.00907	0.634309	1.10618	0.125271	0.39366	0.763826	0.867498	0.00428625	0.53547	0.411055	0.355938	
2.50549	0	0	0.20379	0.820808	0.26639	0.585646	0.063858	0.377841	0.138877	0.457112	1.00781	1.2772	0.786482	1.66009	0.959415	1.53051	1.21864	2.10467	0.304353	0.84165	0.405326	0.531117	0.624973	1.00598	0.634309	1.10618	0.123429	0.398865	0.760639	0.88709	-0.0030365	0.544374	0.406369	0.360722	
2.51007	0	0	0.212488	0.815124	0.262505	0.588184	0.069767	0.382862	0.14311	0.456572	1.0283	1.28419	0.793269	1.66724	0.970332	1.53651	1.22163	2.10493	0.307526	0.832685	0.398266	0.522037	0.629711	1.00288	0.634309	1.10618	0.121588	0.404069	0.757452	0.906682	-0.0103592	0.553278	0.401682	0.365506	
2.5177	0	0	0.221187	0.80944	0.25862	0.590723	0.075676	0.387883	0.147343	0.456032	1.0488	1.29117	0.800057	1.67438	0.98125	1.5425	1.22462	2.10518	0.310698	0.82372	0.391205	0.512956	0.634448	0.999785	0.634309	1.10618	0.119746	0.409273	0.754266	0.926273	-0.017682	0.562181	0.396995	0.370291	
2.52838	0	0	0.226469	0.813431	0.264648	0.590575	0.0875132	0.397947	0.150554	0.458388	1.07281	1.29779	0.804181	1.68909	0.990977	1.55192	1.22857	2.11145	0.306057	0.824457	0.385129	0.508381	0.645974	0.998124	0.631254	1.11482	0.119061	0.399722	0.769745	0.92493	-0.0103593	0.553278	0.39548	0.366115	
2.53754	0	0	0.231751	0.817423	0.270676	0.590426	0.0993505	0.40801	0.153765	0.460744	1.09681	1.30441	0.808304	1.7038	1.0007	1.56135	1.23252	2.11772	0.301415	0.825194	0.379053	0.503807	0.657501	0.996463	0.6282	1.12345	0.118376	0.390172	0.785224	0.923587	-0.0030365	0.544374	0.393965	0.361939	
2.54669	0	0	0.237033	0.821414	0.276703	0.590278	0.111188	0.418074	0.156976	0.4631	1.12082	1.31103	0.812428	1.71851	1.01043	1.57078	1.23647	2.12398	0.296774	0.82593	0.372977	0.499232	0.669027	0.994803	0.625145	1.13208	0.117691	0.380622	0.800703	0.922244	0.00428625	0.53547	0.392451	0.357764	
2.55279	0	0	0.242315	0.825405	0.282731	0.590129	0.123025	0.428138	0.160187	0.465456	1.14483	1.31764	0.816552	1.73322	1.02016	1.58021	1.24042	2.13025	0.292133	0.826667	0.366901	0.494657	0.680553	0.993142	0.62209	1.14071	0.117006	0.371071	0.816182	0.920901	0.011609	0.526567	0.390936	0.353588	
2.5589	0	0	0.238886	0.835097	0.278366	0.602466	0.128953	0.433181	0.162374	0.470714	1.15603	1.34205	0.817991	1.75555	1.0299	1.58966	1.24431	2.14544	0.297831	0.822944	0.366901	0.494657	0.687588	1.00422	0.626802	1.15758	0.122293	0.367617	0.823771	0.931319	0.014196	0.531056	0.387046	0.35613	
2.56805	0	0	0.235457	0.844788	0.274	0.614803	0.134881	0.438224	0.16456	0.475971	1.16722	1.36645	0.81943	1.77788	1.03965	1.59911	1.2482	2.16063	0.303528	0.819221	0.366901	0.494657	0.694624	1.01531	0.631514	1.17445	0.12758	0.364162	0.83136	0.941737	0.016783	0.535544	0.383155	0.358673	
2.57721	0	0	0.232027	0.85448	0.269635	0.62714	0.14081	0.443267	0.166746	0.481228	1.17841	1.39086	0.820869	1.80022	1.04939	1.60856	1.25209	2.17582	0.309226	0.815498	0.366901	0.494657	0.701659	1.02639	0.636227	1.19132	0.132866	0.360707	0.838949	0.952155	0.01937	0.540033	0.379265	0.361215	
2.58942	0	0	0.228598	0.864171	0.26527	0.639477	0.146738	0.44831	0.168933	0.486486	1.18961	1.41527	0.822308	1.82255	1.05914	1.61802	1.25598	2.191	0.314924	0.811775	0.366901	0.494657	0.708694	1.03747	0.640939	1.20819	0.138153	0.357253	0.846538	0.962573	0.021957	0.544521	0.375375	0.363757	
2.60467	0	0	0.221606	0.865013	0.261383	0.642017	0.142629	0.459923	0.167907	0.489387	1.20945	1.41541	0.829106	1.82978	1.07012	1.62405	1.26395	2.19467	0.310283	0.812513	0.364353	0.494614	0.714353	1.03181	0.646362	1.20798	0.131946	0.363307	0.847381	0.970824	0.0165262	0.548069	0.366807	0.371077	
2.62604	0	0	0.214614	0.865856	0.257496	0.644556	0.13852	0.471537	0.16688	0.492288	1.22929	1.41555	0.835905	1.837	1.0811	1.63009	1.27193	2.19834	0.305641	0.81325	0.361806	0.494571	0.720012	1.02615	0.651784	1.20777	0.12574	0.369361	0.848224	0.979075	0.0110955	0.551618	0.35824	0.378397	
2.6474	0	0	0.207621	0.866699	0.253609	0.647096	0.13441	0.48315	0.165853	0.495189	1.24913	1.41569	0.842704	1.84422	1.09208	1.63613	1.27991	2.20201	0.300999	0.813988	0.359258	0.494528	0.72567	1.02049	0.657207	1.20756	0.119534	0.375415	0.849068	0.987327	0.00566475	0.555167	0.349672	0.385716	
2.66266	0	0	0.200629	0.867541	0.249722	0.649636	0.130301	0.494763	0.164827	0.49809	1.26898	1.41583	0.849502	1.85145	1.10306	1.64216	1.28788	2.20568	0.296358	0.814726	0.35671	0.494485	0.731329	1.01483	0.662629	1.20734	0.113327	0.381469	0.849911	0.995578	0.000234	0.558715	0.341104	0.393036	
2.67944	0	0	0.205905	0.871548	0.257017	0.654367	0.144227	0.499078	0.171256	0.502818	1.28023	1.42161	0.853616	1.8663	1.11406	1.64821	1.2928	2.21804	0.298469	0.808758	0.357496	0.492264	0.732232	1.01228	0.666522	1.21147	0.116085	0.373673	0.85278	0.998108	0.00118225	0.556035	0.341896	0.390797	
2.6947	0	0	0.211181	0.875555	0.264312	0.659098	0.158153	0.503393	0.177684	0.507545	1.29147	1.42738	0.85773	1.88115	1.12506	1.65426	1.29772	2.2304	0.300581	0.802791	0.358282	0.490043	0.733135	1.00973	0.670415	1.21559	0.118844	0.365876	0.85565	1.00064	0.0021305	0.553356	0.342689	0.388558	
2.70538	0	0	0.216458	0.879562	0.271606	0.663829	0.172078	0.507707	0.184113	0.512273	1.30272	1.43316	0.861844	1.896	1.13606	1.66031	1.30263	2.24276	0.302693	0.796824	0.359068	0.487823	0.734037	1.00718	0.674308	1.21971	0.121603	0.35808	0.858519	1.00317	0.00307875	0.550676	0.343481	0.386318	
2.71149	0	0	0.221734	0.883569	0.278901	0.66856	0.186004	0.512022	0.190542	0.517001	1.31397	1.43894	0.865958	1.91084	1.14706	1.66636	1.30755	2.25512	0.304804	0.790856	0.359854	0.485602	0.73494	1.00463	0.678201	1.22383	0.124361	0.350284	0.861389	1.0057	0.004027	0.547996	0.344273	0.384079	
2.71606	0	0	0.209592	0.898966	0.2754	0.678456	0.181882	0.523673	0.19273	0.522275	1.32352	1.45904	0.879587	1.92539	1.15442	1.68278	1.31547	2.26778	0.303749	0.793839	0.360043	0.49231	0.740847	1.00862	0.679023	1.23664	0.132179	0.351169	0.865101	1.01651	0.0011815	0.556038	0.346575	0.386018	
2.71911	0	0	0.19745	0.914362	0.271898	0.688351	0.177759	0.535324	0.194918	0.527548	1.33306	1.47914	0.893216	1.93994	1.16177	1.69921	1.3234	2.28044	0.302693	0.796822	0.360233	0.499018	0.746754	1.01261	0.679844	1.24946	0.139997	0.352054	0.868813	1.02731	-0.001664	0.56408	0.348877	0.387957	
2.71606	0	0	0.185308	0.929759	0.268396	0.698246	0.173636	0.546976	0.197107	0.532822	1.3426	1.49924	0.906845	1.95449	1.16913	1.71563	1.33133	2.2931	0.301638	0.799806	0.360422	0.505726	0.752662	1.0166	0.680666	1.26227	0.147816	0.35294	0.872525	1.03812	-0.0045095	0.572122	0.351179	0.389896	
2.70996	0	0	0.173166	0.945156	0.264895	0.708142	0.169514	0.558627	0.199295	0.538096	1.35215	1.51934	0.920474	1.96903	1.17649	1.73206	1.33925	2.30576	0.300582	0.802789	0.360611	0.512434	0.758569	1.02059	0.681488	1.27509	0.155634	0.353825	0.876237	1.04893	-0.007355	0.580164	0.353481	0.391835	
2.70691	0	0	0.181873	0.939466	0.265771	0.705667	0.167451	0.564458	0.197236	0.543914	1.35909	1.51857	0.932712	1.96104	1.18548	1.7315	1.34425	2.3092	0.302693	0.796823	0.35885	0.510168	0.758323	1.01094	0.677595	1.27095	0.149424	0.359882	0.869302	1.05788	-0.00830425	0.582846	0.350387	0.392135	
2.7008	0	0	0.19058	0.933777	0.266647	0.703192	0.165387	0.57029	0.195178	0.549732	1.36604	1.5178	0.944949	1.95304	1.19447	1.73094	1.34924	2.31263	0.304804	0.790857	0.357089	0.507902	0.758077	1.00129	0.673702	1.26682	0.143214	0.365938	0.862366	1.06683	-0.0092535	0.585529	0.347293	0.392435	
2.6947	0	0	0.199288	0.928088	0.267522	0.700717	0.163323	0.576121	0.193119	0.55555	1.37298	1.51703	0.957186	1.94504	1.20345	1.73039	1.35424	2.31607	0.306914	0.784892	0.355328	0.505636	0.75783	0.99164	0.66981	1.26268	0.137004	0.371995	0.85543	1.07578	-0.0102028	0.588211	0.344198	0.392736	
2.6886	0	0	0.207995	0.922398	0.268398	0.698242	0.16126	0.581952	0.19106	0.561368	1.37993	1.51626	0.969424	1.93705	1.21244	1.72983	1.35923	2.31951	0.309025	0.778926	0.353567	0.50337	0.757584	0.981991	0.665917	1.25855	0.130794	0.378052	0.848495	1.08472	-0.011152	0.590893	0.341104	0.393036	
2.68707	0	0	0.202836	0.936979	0.26577	0.705669	0.167197	0.587048	0.192216	0.569567	1.39385	1.52416	0.973559	1.95199	1.21654	1.74313	1.36217	2.32877	0.31008	0.775945	0.354353	0.501149	0.756682	0.984541	0.664381	1.26289	0.130794	0.378052	0.852197	1.09557	-0.0121013	0.593576	0.335634	0.400054	
2.68097	0	0	0.197677	0.951559	0.263143	0.713095	0.173134	0.592143	0.193372	0.577767	1.40777	1.53206	0.977694	1.96693	1.22064	1.75644	1.36511	2.33803	0.311135	0.772964	0.355139	0.498927	0.755779	0.987092	0.662844	1.26723	0.130794	0.378052	0.8559	1.10642	-0.0130505	0.596259	0.330163	0.407073	
2.67334	0	0	0.192518	0.96614	0.260515	0.720522	0.179071	0.597239	0.194527	0.585966	1.42169	1.53995	0.98183	1.98187	1.22474	1.76974	1.36805	2.3473	0.31219	0.769982	0.355924	0.496706	0.754877	0.989642	0.661307	1.27157	0.130794	0.378052	0.859602	1.11727	-0.0139998	0.598942	0.324693	0.414091	
2.66418	0	0	0.187359	0.98072	0.257887	0.727949	0.185008	0.602334	0.195683	0.594165	1.43561	1.54785	0.985965	1.99681	1.22884	1.78304	1.37099	2.35656	0.313245	0.767001	0.35671	0.494485	0.753974	0.992193	0.659771	1.27592	0.130794	0.378052	0.863304	1.12812	-0.014949	0.601625	0.319223	0.421109	
2.65503	0	0	0.180467	1.0002	0.251366	0.737924	0.180872	0.614023	0.192588	0.602911	1.4452	1.5681	0.984658	2.02717	1.23744	1.7961	1.36885	2.3714	0.31219	0.769982	0.355924	0.496706	0.764901	1.00273	0.660584	1.28876	0.140226	0.385899	0.872751	1.14411	-0.00978625	0.610641	0.319935	0.427537	
2.6535	0	0	0.173575	1.01968	0.244846	0.747899	0.176735	0.625713	0.189494	0.611656	1.45479	1.58835	0.983351	2.05753	1.24605	1.80917	1.36671	2.38625	0.311135	0.772964	0.355139	0.498927	0.775828	1.01326	0.661396	1.3016	0.149657	0.393745	0.882197	1.16011	-0.0046235	0.619657	0.320648	0.433965	
2.64282	0	0	0.166683	1.03915	0.238325	0.757873	0.172599	0.637402	0.186399	0.620402	1.46439	1.60859	0.982044	2.08789	1.25466	1.82224	1.36457	2.40109	0.31008	0.775945	0.354353	0.501149	0.786754	1.02379	0.662209	1.31444	0.159089	0.401592	0.891644	1.17611	0.00053925	0.628673	0.32136	0.440393	
2.63367	0	0	0.159791	1.05863	0.231805	0.767848	0.168463	0.649091	0.183305	0.629147	1.47398	1.62884	0.980737	2.11824	1.26326	1.8353	1.36243	2.41594	0.309025	0.778926	0.353567	0.50337	0.797681	1.03432	0.663022	1.32727	0.168521	0.409439	0.901091	1.1921	0.005702	0.637689	0.322073	0.446821	
2.62604	0	0	0.168507	1.05294	0.231805	0.767848	0.186563	0.641762	0.187553	0.628614	1.47485	1.63587	0.980737	2.11824	1.26408	1.84547	1.35829	2.42761	0.309025	0.778926	0.349261	0.501062	0.800642	1.03632	0.664562	1.32292	0.167599	0.412046	0.904988	1.19178	0.006653	0.635001	0.321279	0.449064	
2.61841	0	0	0.177223	1.04724	0.231805	0.767848	0.204664	0.634432	0.191801	0.628081	1.47572	1.6429	0.980737	2.11824	1.2649	1.85564	1.35416	2.43929	0.309025	0.778926	0.344954	0.498754	0.803603	1.03832	0.666102	1.31857	0.166677	0.414652	0.908886	1.19145	0.007604	0.632313	0.320485	0.451307	
2.6123	0	0	0.18594	1.04155	0.231805	0.767848	0.222765	0.627103	0.196049	0.627547	1.47659	1.64992	0.980737	2.11824	1.26572	1.86581	1.35003	2.45097	0.309025	0.778926	0.340648	0.496446	0.806565	1.04032	0.667641	1.31422	0.165754	0.417258	0.912783	1.19112	0.008555	0.629625	0.319692	0.45355	
2.6062	0	0	0.194656	1.03585	0.231805	0.767848	0.240865	0.619774	0.200297	0.627014	1.47746	1.65695	0.980737	2.11824	1.26653	1.87598	1.3459	2.46265	0.309025	0.778926	0.336342	0.494138	0.809526	1.04232	0.669181	1.30987	0.164832	0.419865	0.916681	1.1908	0.009506	0.626937	0.318898	0.455793	
2.59704	0	0	0.192931	1.04073	0.233063	0.772745	0.238793	0.625628	0.206735	0.631785	1.47746	1.65695	0.975289	2.13364	1.26982	1.87919	1.35391	2.4664	0.306914	0.784892	0.334771	0.498579	0.806809	1.05	0.667641	1.31422	0.165754	0.417258	0.909716	1.19979	0.0104568	0.62425	0.318898	0.455793	
2.59552	0	0	0.191206	1.0456	0.234322	0.777642	0.236722	0.631482	0.213174	0.636556	1.47746	1.65695	0.96984	2.14904	1.2731	1.8824	1.36193	2.47015	0.304804	0.790857	0.333199	0.50302	0.804091	1.05768	0.666102	1.31857	0.166677	0.414652	0.902751	1.20879	0.0114075	0.621563	0.318898	0.455793	
2.58636	0	0	0.18948	1.05048	0.23558	0.782539	0.234651	0.637336	0.219612	0.641327	1.47746	1.65695	0.964392	2.16444	1.27638	1.88562	1.36994	2.47391	0.302693	0.796823	0.331628	0.50746	0.801373	1.06536	0.664562	1.32292	0.167599	0.412046	0.895787	1.21778	0.0123582	0.618876	0.318898	0.455793	
2.58636	0	0	0.187755	1.05535	0.236838	0.787436	0.232579	0.64319	0.22605	0.646098	1.47746	1.65695	0.958944	2.17984	1.27966	1.88883	1.37795	2.47766	0.300582	0.802789	0.330057	0.511901	0.798656	1.07304	0.663022	1.32727	0.168521	0.409439	0.888822	1.22678	0.013309	0.616189	0.318898	0.455793	
2.57721	0	0	0.18948	1.05048	0.236838	0.787436	0.242682	0.636589	0.227083	0.643177	1.47308	1.66931	0.968507	2.17951	1.28047	1.89903	1.37485	2.48644	0.303111	0.808022	0.330057	0.511901	0.800041	1.08988	0.661482	1.33163	0.173587	0.41816	0.889647	1.23514	0.01399	0.62608	0.31731	0.460281	
2.57263	0	0	0.191206	1.0456	0.236838	0.787436	0.252785	0.629987	0.228117	0.640257	1.46871	1.68168	0.978069	2.17919	1.28129	1.90922	1.37174	2.49522	0.30564	0.813254	0.330057	0.511901	0.801426	1.10671	0.659941	1.33598	0.178652	0.426882	0.890472	1.24349	0.014671	0.63597	0.315722	0.464769	
2.565	0	0	0.192931	1.04073	0.236838	0.787436	0.262888	0.623386	0.229151	0.637336	1.46433	1.69404	0.987631	2.17887	1.2821	1.91942	1.36863	2.504	0.308169	0.818487	0.330057	0.511901	0.802811	1.12355	0.658401	1.34033	0.183718	0.435603	0.891297	1.25185	0.015352	0.64586	0.314134	0.469256	
2.565	0	0	0.194656	1.03585	0.236838	0.787436	0.272991	0.616784	0.230184	0.634415	1.45996	1.7064	0.997194	2.17855	1.28292	1.92961	1.36553	2.51278	0.310698	0.82372	0.330057	0.511901	0.804196	1.14039	0.656861	1.34469	0.188783	0.444324	0.892122	1.26021	0.016033	0.655751	0.312546	0.473744	
2.56195	0	0	0.198104	1.02611	0.232568	0.782602	0.277133	0.605079	0.227996	0.629112	1.45997	1.69689	0.990357	2.17117	1.28991	1.92236	1.36561	2.50372	0.310698	0.82372	0.324783	0.50511	0.804196	1.14039	0.647552	1.34074	0.181873	0.440816	0.890274	1.25474	0.015352	0.64586	0.307159	0.472089	
2.55432	0	0	0.201551	1.01636	0.228298	0.777767	0.281274	0.593375	0.225807	0.62381	1.45998	1.68738	0.983519	2.16379	1.2969	1.91511	1.3657	2.49467	0.310698	0.82372	0.31951	0.498318	0.804196	1.14039	0.638243	1.33678	0.174963	0.437308	0.888425	1.24928	0.014671	0.63597	0.301772	0.470434	
2.55279	0	0	0.204999	1.00662	0.224028	0.772933	0.285415	0.58167	0.223619	0.618507	1.45999	1.67787	0.976682	2.15641	1.30389	1.90786	1.36579	2.48561	0.310698	0.82372	0.314236	0.491527	0.804196	1.14039	0.628934	1.33283	0.168052	0.433801	0.886577	1.24381	0.01399	0.62608	0.296386	0.46878	
2.54516	0	0	0.208447	0.996873	0.219758	0.768099	0.289557	0.569966	0.221431	0.613205	1.46	1.66836	0.969845	2.14903	1.31088	1.90061	1.36588	2.47655	0.310698	0.82372	0.308962	0.484736	0.804196	1.14039	0.619625	1.32888	0.161142	0.430293	0.884729	1.23835	0.013309	0.616189	0.290999	0.467125	
2.55279	0	0	0.206724	1.00174	0.223647	0.765558	0.299672	0.563357	0.224652	0.615587	1.46	1.66836	0.957572	2.15705	1.31088	1.90061	1.3608	2.48213	0.308584	0.829696	0.307205	0.482475	0.806249	1.14498	0.621163	1.32453	0.162987	0.425079	0.886775	1.23256	0.0107255	0.611683	0.293379	0.460399	
2.54822	0	0	0.205001	1.00661	0.227536	0.763017	0.309787	0.556747	0.227874	0.61797	1.46	1.66836	0.9453	2.16506	1.31088	1.90061	1.35571	2.4877	0.306469	0.835672	0.305449	0.480214	0.808302	1.14956	0.622702	1.32018	0.164832	0.419866	0.888821	1.22678	0.008142	0.607177	0.295759	0.453674	
2.55127	0	0	0.203277	1.01149	0.231424	0.760476	0.319902	0.550138	0.231096	0.620353	1.46	1.66836	0.933028	2.17308	1.31088	1.90061	1.35063	2.49327	0.304354	0.841647	0.303692	0.477953	0.810355	1.15414	0.62424	1.31584	0.166676	0.414652	0.890867	1.221	0.0055585	0.602672	0.298138	0.446948	
2.55279	0	0	0.201554	1.01636	0.235313	0.757935	0.330017	0.543529	0.234317	0.622735	1.46	1.66836	0.920755	2.1811	1.31088	1.90061	1.34554	2.49884	0.30224	0.847623	0.301935	0.475692	0.812408	1.15873	0.625778	1.31149	0.168521	0.409439	0.892913	1.21522	0.002975	0.598166	0.300518	0.440222	
2.56195	0	0	0.199726	1.00258	0.231918	0.750634	0.326104	0.53261	0.233159	0.614519	1.44866	1.67197	0.926198	2.16572	1.30636	1.90088	1.33651	2.498	0.300124	0.853603	0.296071	0.47782	0.810818	1.17361	0.614206	1.32908	0.169207	0.419015	0.887795	1.22968	0.00460775	0.605359	0.29505	0.447242	
2.565	0	0	0.197898	0.988813	0.228524	0.743334	0.322191	0.521691	0.232002	0.606303	1.43732	1.67558	0.931642	2.15033	1.30184	1.90115	1.32747	2.49716	0.298009	0.859582	0.290208	0.479947	0.809229	1.18849	0.602634	1.34667	0.169893	0.428592	0.882678	1.24414	0.0062405	0.612551	0.289582	0.454261	
2.56805	0	0	0.196069	0.975041	0.225129	0.736034	0.318279	0.510772	0.230845	0.598088	1.42599	1.67919	0.937086	2.13495	1.29732	1.90142	1.31843	2.49632	0.295893	0.865561	0.284344	0.482075	0.80764	1.20337	0.591063	1.36426	0.170579	0.438168	0.87756	1.2586	0.00787325	0.619744	0.284115	0.46128	
2.57416	0	0	0.194241	0.961269	0.221735	0.728733	0.314366	0.499853	0.229687	0.589872	1.41465	1.68279	0.942529	2.11957	1.29279	1.90169	1.3094	2.49548	0.293777	0.871541	0.27848	0.484202	0.80605	1.21826	0.579491	1.38186	0.171265	0.447744	0.872443	1.27307	0.009506	0.626937	0.278647	0.4683	
2.58331	0	0	0.188972	0.957241	0.2196	0.726324	0.316431	0.494018	0.230718	0.586957	1.41204	1.6807	0.930274	2.12757	1.29403	1.89821	1.31147	2.48964	0.293777	0.871541	0.275942	0.484157	0.805139	1.22083	0.579491	1.38186	0.165282	0.441629	0.875514	1.26439	0.00787325	0.619744	0.277939	0.461871	
2.58484	0	0	0.183703	0.953213	0.217466	0.723915	0.318495	0.488183	0.23175	0.584042	1.40943	1.67861	0.918018	2.13558	1.29526	1.89472	1.31353	2.4838	0.293777	0.871541	0.273404	0.484112	0.804228	1.22341	0.579491	1.38186	0.1593	0.435513	0.878586	1.25571	0.0062405	0.612551	0.277231	0.455442	
2.58789	0	0	0.178435	0.949184	0.215332	0.721505	0.32056	0.482348	0.232782	0.581127	1.40682	1.67652	0.905763	2.14359	1.2965	1.89123	1.3156	2.47795	0.293777	0.871541	0.270866	0.484067	0.803316	1.22598	0.579491	1.38186	0.153317	0.429398	0.881657	1.24703	0.00460775	0.605359	0.276523	0.449013	
2.58789	0	0	0.173166	0.945156	0.213197	0.719096	0.322625	0.476513	0.233813	0.578212	1.40421	1.67443	0.893508	2.1516	1.29773	1.88774	1.31767	2.47211	0.293777	0.871541	0.268328	0.484022	0.802405	1.22856	0.579491	1.38186	0.147335	0.423283	0.884729	1.23835	0.002975	0.598166	0.275815	0.442584	
2.58636	0	0	0.178435	0.949184	0.21057	0.726519	0.32056	0.482348	0.236004	0.583506	1.4016	1.67234	0.890787	2.15929	1.29198	1.8915	1.31457	2.48088	0.296302	0.876792	0.269481	0.495202	0.803087	1.21624	0.586446	1.37731	0.144807	0.418927	0.867526	1.22296	-0.004086	0.59453	0.273521	0.440639	
2.58789	0	0	0.183703	0.953213	0.207944	0.733942	0.318495	0.488183	0.238196	0.588799	1.399	1.67025	0.888067	2.16697	1.28623	1.89526	1.31147	2.48964	0.298828	0.882044	0.270634	0.506381	0.803768	1.20392	0.593401	1.37277	0.142279	0.414571	0.850324	1.20757	-0.011147	0.590894	0.271228	0.438694	
2.58942	0	0	0.188972	0.957241	0.205318	0.741364	0.316431	0.494018	0.240387	0.594093	1.39639	1.66816	0.885347	2.17466	1.28048	1.89902	1.30836	2.49841	0.301353	0.887296	0.271787	0.51756	0.80445	1.19161	0.600357	1.36822	0.13975	0.410216	0.833121	1.19218	-0.018208	0.587259	0.268935	0.43675	
2.58789	0	0	0.194241	0.961269	0.202691	0.748787	0.314366	0.499853	0.242578	0.599387	1.39378	1.66607	0.882626	2.18235	1.27473	1.90278	1.30526	2.50717	0.303878	0.892547	0.27294	0.52874	0.805131	1.17929	0.607312	1.36368	0.137222	0.40586	0.815918	1.17679	-0.025269	0.583623	0.266641	0.434805	
2.58636	0	0	0.192407	0.947534	0.205318	0.741364	0.318494	0.488187	0.236134	0.594631	1.37296	1.63996	0.866323	2.17529	1.27186	1.88591	1.30432	2.50105	0.306404	0.897805	0.281713	0.540091	0.787621	1.17691	0.594946	1.36841	0.137222	0.40586	0.793886	1.16466	-0.0297445	0.584487	0.266641	0.434805	
2.58484	0	0	0.190573	0.933798	0.207944	0.733942	0.322622	0.476521	0.229691	0.589875	1.35215	1.61384	0.85002	2.16822	1.26899	1.86904	1.30338	2.49493	0.308929	0.903063	0.290486	0.551441	0.770112	1.17452	0.582581	1.37315	0.137222	0.40586	0.771853	1.15253	-0.03422	0.58535	0.266641	0.434805	
2.58484	0	0	0.188739	0.920063	0.21057	0.726519	0.32675	0.464854	0.223247	0.58512	1.33133	1.58773	0.833717	2.16116	1.26613	1.85217	1.30244	2.4888	0.311455	0.908321	0.29926	0.562792	0.752603	1.17214	0.570215	1.37788	0.137222	0.40586	0.749821	1.1404	-0.0386955	0.586213	0.266641	0.434805	
2.57568	0	0	0.186905	0.906328	0.213197	0.719096	0.330878	0.453188	0.216804	0.580364	1.31052	1.56162	0.817414	2.15409	1.26326	1.8353	1.3015	2.48268	0.313981	0.913579	0.308033	0.574143	0.735093	1.16976	0.55785	1.38262	0.137222	0.40586	0.727789	1.12827	-0.043171	0.587077	0.266641	0.434805	
2.57263	0	0	0.176375	0.898307	0.211064	0.716688	0.326957	0.442319	0.213585	0.577989	1.29322	1.54469	0.816051	2.13143	1.2522	1.82918	1.29952	2.47948	0.309336	0.914311	0.309789	0.576417	0.72511	1.15658	0.551654	1.36996	0.129642	0.392821	0.714565	1.11269	-0.0527905	0.578954	0.26364	0.426447	
2.57263	0	0	0.165845	0.890286	0.20893	0.714281	0.323036	0.431449	0.210366	0.575614	1.27593	1.52776	0.814689	2.10876	1.24114	1.82305	1.29755	2.47628	0.30469	0.915042	0.311546	0.578691	0.715128	1.1434	0.545458	1.35731	0.122063	0.379782	0.70134	1.0971	-0.06241	0.570831	0.260638	0.418089	
2.565	0	0	0.155315	0.882265	0.206796	0.711874	0.319114	0.420579	0.207147	0.573238	1.25864	1.51084	0.813327	2.0861	1.23008	1.81692	1.29557	2.47308	0.300045	0.915774	0.313302	0.580966	0.705145	1.13022	0.539263	1.34466	0.114484	0.366743	0.688115	1.08152	-0.0720295	0.562707	0.257637	0.409731	
2.565	0	0	0.144785	0.874244	0.204663	0.709466	0.315193	0.40971	0.203928	0.570863	1.24135	1.49391	0.811964	2.06344	1.21902	1.81079	1.2936	2.46988	0.2954	0.916506	0.315058	0.58324	0.695163	1.11705	0.533067	1.33201	0.106904	0.353704	0.674891	1.06594	-0.081649	0.554584	0.254636	0.401373	
2.5589	0	0	0.132677	0.889603	0.202913	0.714411	0.313134	0.41553	0.202898	0.573775	1.23444	1.49466	0.814669	2.0558	1.21329	1.81454	1.2936	2.46988	0.297519	0.910516	0.310759	0.580917	0.690178	1.11047	0.522276	1.33239	0.101855	0.345035	0.673059	1.06054	-0.0877375	0.548289	0.253135	0.3972	
2.55127	0	0	0.120568	0.904961	0.201163	0.719356	0.311075	0.42135	0.201867	0.576688	1.22754	1.49542	0.817373	2.04815	1.20756	1.81828	1.2936	2.46988	0.299639	0.904527	0.306461	0.578594	0.685193	1.1039	0.511486	1.33277	0.096806	0.336365	0.671226	1.05515	-0.093826	0.541994	0.251634	0.393027	
2.54974	0	0	0.10846	0.920319	0.199414	0.724301	0.309015	0.42717	0.200837	0.5796	1.22063	1.49618	0.820078	2.04051	1.20183	1.82202	1.2936	2.46988	0.301758	0.898537	0.302162	0.576271	0.680208	1.09733	0.500695	1.33315	0.091757	0.327696	0.669393	1.04975	-0.0999145	0.535699	0.250134	0.388853	
2.54516	0	0	0.096352	0.935678	0.197664	0.729246	0.306956	0.43299	0.199806	0.582512	1.21373	1.49693	0.822782	2.03287	1.1961	1.82577	1.2936	2.46988	0.303878	0.892547	0.297863	0.573948	0.675223	1.09076	0.489904	1.33353	0.086708	0.319027	0.667561	1.04436	-0.106003	0.529404	0.248633	0.38468	
2.53906	0	0	0.0928192	0.92682	0.193401	0.72443	0.303039	0.422135	0.19762	0.577226	1.21287	1.48999	0.813299	2.03319	1.19856	1.81883	1.28965	2.46349	0.296713	0.888028	0.293567	0.571627	0.670472	1.09386	0.484516	1.33372	0.083955	0.326808	0.669393	1.04975	-0.107894	0.534747	0.250924	0.386618	
2.53754	0	0	0.0892865	0.917961	0.189138	0.719615	0.299122	0.411281	0.195433	0.57194	1.21201	1.48305	0.803815	2.03352	1.20101	1.81189	1.2857	2.4571	0.289547	0.88351	0.289272	0.569305	0.665722	1.09697	0.479128	1.33391	0.081202	0.334588	0.671226	1.05515	-0.109784	0.54009	0.253216	0.388556	
2.53448	0	0	0.0857538	0.909103	0.184875	0.714799	0.295204	0.400426	0.193247	0.566654	1.21115	1.47611	0.794331	2.03385	1.20347	1.80495	1.28175	2.45072	0.282382	0.878991	0.284977	0.566983	0.660971	1.10007	0.47374	1.3341	0.078449	0.342368	0.673059	1.06054	-0.111674	0.545432	0.255507	0.390494	
2.52991	0	0	0.082221	0.900244	0.180612	0.709983	0.291287	0.389572	0.19106	0.561368	1.21029	1.46917	0.784848	2.03417	1.20592	1.79801	1.27781	2.44433	0.275217	0.874473	0.280681	0.564662	0.65622	1.10317	0.468352	1.33429	0.075696	0.350149	0.674891	1.06594	-0.113565	0.550775	0.257799	0.392432	
2.52533	0	0	0.0839325	0.895408	0.17586	0.714988	0.301378	0.382978	0.189	0.56719	1.21288	1.47123	0.784848	2.03417	1.2047	1.80148	1.27574	2.45016	0.273752	0.866242	0.27796	0.557901	0.649438	1.10171	0.464501	1.33014	0.068822	0.346666	0.674891	1.06594	-0.114244	0.540955	0.255507	0.390494	
2.5238	0	0	0.085644	0.890571	0.171107	0.719993	0.311469	0.376385	0.18694	0.573012	1.21546	1.47329	0.784848	2.03417	1.20347	1.80495	1.27368	2.45599	0.272286	0.858011	0.27524	0.551141	0.642656	1.10026	0.46065	1.326	0.061948	0.343184	0.674891	1.06594	-0.114923	0.531134	0.253216	0.388556	
2.5177	0	0	0.0873555	0.885734	0.166355	0.724998	0.32156	0.369791	0.18488	0.578833	1.21805	1.47535	0.784848	2.03417	1.20224	1.80842	1.27162	2.46182	0.270821	0.849781	0.27252	0.54438	0.635874	1.0988	0.456799	1.32186	0.055074	0.339701	0.674891	1.06594	-0.115603	0.521313	0.250924	0.386618	
2.5177	0	0	0.089067	0.880898	0.161603	0.730003	0.331651	0.363197	0.18282	0.584655	1.22064	1.47741	0.784848	2.03417	1.20101	1.81189	1.26955	2.46765	0.269356	0.84155	0.269799	0.537619	0.629092	1.09734	0.452948	1.31772	0.0482	0.336219	0.674891	1.06594	-0.116282	0.511493	0.248633	0.38468	
2.51312	0	0	0.0891732	0.89944	0.161106	0.739833	0.325477	0.380645	0.182941	0.595778	1.23013	1.48811	0.788921	2.04914	1.20183	1.82203	1.26946	2.47669	0.264722	0.842283	0.262368	0.544181	0.63203	1.09934	0.451416	1.32205	0.0543872	0.330184	0.676723	1.07134	-0.116282	0.511493	0.244762	0.387209	
2.51312	0	0	0.0892795	0.917982	0.160609	0.749663	0.319303	0.398093	0.183063	0.606901	1.23963	1.49881	0.792993	2.0641	1.20264	1.83218	1.26937	2.48572	0.260088	0.843016	0.254937	0.550744	0.634968	1.10135	0.449883	1.32638	0.0605745	0.324149	0.678556	1.07674	-0.116282	0.511493	0.240891	0.389739	
2.51007	0	0	0.0893857	0.936524	0.160112	0.759493	0.31313	0.415542	0.183184	0.618024	1.24912	1.50951	0.797065	2.07907	1.20346	1.84232	1.26927	2.49476	0.255454	0.843748	0.247506	0.557306	0.637906	1.10336	0.448351	1.33071	0.0667618	0.318114	0.680388	1.08214	-0.116282	0.511493	0.23702	0.392269	
2.50702	0	0	0.089492	0.955066	0.159615	0.769323	0.306956	0.43299	0.183305	0.629147	1.25862	1.52021	0.801138	2.09404	1.20427	1.85247	1.26918	2.5038	0.25082	0.844481	0.240075	0.563868	0.640844	1.10536	0.446819	1.33504	0.072949	0.312079	0.68222	1.08754	-0.116282	0.511493	0.233149	0.394798	
2.50091	0	0	0.085962	0.946199	0.160491	0.766849	0.298924	0.433764	0.184337	0.626231	1.2543	1.51363	0.803845	2.08639	1.201	1.84926	1.27218	2.50408	0.252932	0.838514	0.242611	0.563918	0.635195	1.11102	0.439909	1.33955	0.0699615	0.331981	0.676137	1.10473	-0.121006	0.524844	0.229194	0.405974	
2.49939	0	0	0.082432	0.937333	0.161366	0.764374	0.290892	0.434538	0.185369	0.623314	1.24998	1.50706	0.806551	2.07874	1.19773	1.84606	1.27519	2.50436	0.255043	0.832546	0.245148	0.563968	0.629545	1.11667	0.432998	1.34407	0.066974	0.351883	0.670054	1.12192	-0.12573	0.538196	0.22524	0.417149	
2.49939	0	0	0.078902	0.928466	0.162242	0.7619	0.28286	0.435311	0.186401	0.620398	1.24566	1.50048	0.809257	2.07109	1.19446	1.84286	1.27819	2.50464	0.257155	0.826578	0.247684	0.564018	0.623896	1.12233	0.426088	1.34858	0.0639865	0.371785	0.663972	1.13911	-0.130455	0.551547	0.221285	0.428325	
2.49481	0	0	0.075372	0.9196	0.163117	0.759426	0.274828	0.436085	0.187433	0.617482	1.24135	1.49391	0.811964	2.06344	1.19119	1.83965	1.2812	2.50492	0.259267	0.820611	0.25022	0.564068	0.618247	1.12799	0.419177	1.3531	0.060999	0.391687	0.657889	1.1563	-0.135179	0.564898	0.217331	0.439501	
2.49328	0	0	0.075372	0.9196	0.162242	0.7619	0.284919	0.429491	0.191681	0.616948	1.23358	1.48772	0.811964	2.06344	1.19242	1.83618	1.28317	2.50813	0.259267	0.820611	0.249434	0.566289	0.615312	1.12598	0.420709	1.34877	0.0566443	0.392536	0.654034	1.15662	-0.138688	0.563084	0.214253	0.439793	
2.49176	0	0	0.075372	0.9196	0.161366	0.764374	0.295011	0.422898	0.195929	0.616414	1.22582	1.48154	0.811964	2.06344	1.19365	1.83271	1.28515	2.51133	0.259267	0.820611	0.248648	0.568511	0.612377	1.12397	0.422242	1.34444	0.0522895	0.393385	0.650179	1.15693	-0.142197	0.561269	0.211175	0.440085	
2.49023	0	0	0.075372	0.9196	0.160491	0.766849	0.305102	0.416304	0.200178	0.61588	1.21805	1.47535	0.811964	2.06344	1.19488	1.82924	1.28712	2.51454	0.259267	0.820611	0.247862	0.570732	0.609442	1.12196	0.423774	1.34011	0.0479347	0.394233	0.646325	1.15725	-0.145707	0.559454	0.208097	0.440377	
2.48871	0	0	0.075372	0.9196	0.159615	0.769323	0.315193	0.40971	0.204426	0.615346	1.21029	1.46917	0.811964	2.06344	1.1961	1.82577	1.28909	2.51774	0.259267	0.820611	0.247076	0.572953	0.606507	1.11995	0.425306	1.33578	0.04358	0.395082	0.64247	1.15756	-0.149216	0.55764	0.205019	0.440669	
2.48871	0	0	0.0736587	0.924442	0.159991	0.776691	0.313134	0.41553	0.195015	0.63047	1.20857	1.46467	0.82146	2.06311	1.19733	1.8223	1.29407	2.52123	0.261789	0.825846	0.250755	0.584226	0.599739	1.11848	0.426837	1.33145	0.0470155	0.396831	0.631934	1.15563	-0.140303	0.555924	0.204228	0.442905	
2.4826	0	0	0.0719455	0.929283	0.160367	0.78406	0.311075	0.42135	0.185604	0.645594	1.20684	1.46017	0.830956	2.06279	1.19856	1.81883	1.29906	2.52472	0.264312	0.83108	0.254434	0.595499	0.592971	1.11702	0.428369	1.32712	0.050451	0.398581	0.621398	1.15371	-0.13139	0.554207	0.203437	0.445141	
2.47803	0	0	0.0702322	0.934125	0.160742	0.791428	0.309015	0.42717	0.176193	0.660719	1.20512	1.45568	0.840453	2.06247	1.19979	1.81536	1.30404	2.52821	0.266834	0.836315	0.258113	0.606772	0.586204	1.11555	0.4299	1.32279	0.0538865	0.40033	0.610861	1.15178	-0.122478	0.552491	0.202645	0.447378	
2.47497	0	0	0.068519	0.938967	0.161118	0.798797	0.306956	0.43299	0.166782	0.675843	1.2034	1.45118	0.849949	2.06214	1.20101	1.81189	1.30902	2.5317	0.269356	0.84155	0.261792	0.618045	0.579436	1.11408	0.431431	1.31847	0.057322	0.402079	0.600325	1.14986	-0.113565	0.550775	0.201854	0.449614	
2.47497	0	0	0.0580482	0.930932	0.159867	0.793903	0.300982	0.427948	0.160362	0.671063	1.18876	1.42711	0.839071	2.0399	1.18795	1.79912	1.31118	2.5168	0.267242	0.847524	0.266084	0.620376	0.563219	1.1188	0.415323	1.31902	0.049958	0.42289	0.586772	1.15651	-0.122753	0.565001	0.196403	0.456616	
2.47192	0	0	0.0475775	0.922897	0.158616	0.789009	0.295008	0.422905	0.153942	0.666283	1.17413	1.40303	0.828192	2.01765	1.17488	1.78635	1.31334	2.5019	0.265129	0.853498	0.270376	0.622708	0.547003	1.12351	0.399214	1.31957	0.042594	0.443701	0.573218	1.16317	-0.131941	0.579227	0.190952	0.463617	
2.46734	0	0	0.0371068	0.914861	0.157364	0.784116	0.289034	0.417863	0.147522	0.661503	1.15949	1.37896	0.817314	1.99541	1.16181	1.77359	1.31551	2.48701	0.263016	0.859471	0.274668	0.625039	0.530786	1.12823	0.383105	1.32013	0.03523	0.464512	0.559665	1.16982	-0.141128	0.593453	0.185502	0.470618	
2.46734	0	0	0.026636	0.906826	0.156113	0.779222	0.28306	0.412821	0.141102	0.656723	1.14486	1.35488	0.806436	1.97316	1.14874	1.76082	1.31767	2.47211	0.260902	0.865445	0.27896	0.627371	0.51457	1.13294	0.366997	1.32068	0.027866	0.485323	0.546111	1.17648	-0.150316	0.607679	0.180051	0.47762	
2.46429	0	0	0.0196995	0.907644	0.153986	0.776807	0.277093	0.407786	0.138926	0.651421	1.1337	1.34914	0.799656	1.96588	1.1467	1.75418	1.31569	2.46891	0.258787	0.871422	0.281501	0.627423	0.515472	1.13039	0.361637	1.32086	0.0235137	0.486165	0.544298	1.17106	-0.153823	0.605858	0.181634	0.473146	
2.46277	0	0	0.012763	0.908462	0.151859	0.774392	0.271126	0.402751	0.13675	0.64612	1.12253	1.3434	0.792876	1.95861	1.14466	1.74754	1.31371	2.46572	0.256672	0.8774	0.284042	0.627476	0.516374	1.12784	0.356278	1.32104	0.0191615	0.487007	0.542485	1.16565	-0.15733	0.604038	0.183217	0.468672	
2.46277	0	0	0.0058265	0.909281	0.149732	0.771977	0.265158	0.397717	0.134574	0.640818	1.11137	1.33765	0.786095	1.95133	1.14262	1.7409	1.31174	2.46252	0.254556	0.883378	0.286584	0.627528	0.517276	1.12529	0.350918	1.32122	0.0148092	0.487849	0.540672	1.16024	-0.160838	0.602217	0.184801	0.464197	
2.45666	0	0	-0.00111	0.910099	0.147605	0.769562	0.259191	0.392682	0.132398	0.635517	1.10021	1.33191	0.779315	1.94406	1.14058	1.73426	1.30976	2.45932	0.252441	0.889355	0.289125	0.62758	0.518178	1.12274	0.345558	1.32141	0.010457	0.488691	0.538859	1.15482	-0.164345	0.600396	0.186384	0.459723	
2.45819	0	0	-0.0028195	0.91493	0.142853	0.774569	0.249123	0.39926	0.132398	0.635517	1.09421	1.33955	0.773927	1.95928	1.13487	1.73799	1.30769	2.46516	0.258539	0.896873	0.289301	0.634321	0.518393	1.13241	0.349389	1.32555	0.0148092	0.487849	0.537847	1.15768	-0.160838	0.602217	0.185592	0.46196	
2.45514	0	0	-0.004529	0.919762	0.138101	0.779576	0.239056	0.405838	0.132398	0.635517	1.08821	1.34719	0.768539	1.97451	1.12917	1.74172	1.30563	2.471	0.264637	0.904391	0.289477	0.641061	0.518607	1.14207	0.35322	1.32969	0.0191615	0.487007	0.536835	1.16054	-0.15733	0.604038	0.184801	0.464197	
2.44751	0	0	-0.0062385	0.924593	0.13335	0.784583	0.228989	0.412417	0.132398	0.635517	1.08221	1.35483	0.763152	1.98974	1.12346	1.74545	1.30356	2.47684	0.270735	0.911909	0.289653	0.647801	0.518822	1.15174	0.35705	1.33383	0.0235137	0.486165	0.535823	1.1634	-0.153823	0.605858	0.184009	0.466433	
2.44903	0	0	-0.007948	0.929424	0.128598	0.78959	0.218921	0.418995	0.132398	0.635517	1.07622	1.36248	0.757764	2.00496	1.11776	1.74917	1.3015	2.48268	0.276833	0.919427	0.289829	0.654542	0.519037	1.1614	0.360881	1.33797	0.027866	0.485323	0.534811	1.16626	-0.150316	0.607679	0.183218	0.46867	
2.44903	0	0	-0.0114595	0.920582	0.127349	0.784701	0.210919	0.419761	0.125988	0.630751	1.07108	1.35839	0.763152	1.98974	1.11898	1.74572	1.30356	2.47684	0.273652	0.928416	0.286498	0.656718	0.51431	1.16449	0.360881	1.33797	0.022332	0.500963	0.528951	1.17229	-0.158557	0.619237	0.180842	0.475384	
2.44598	0	0	-0.014971	0.91174	0.1261	0.779813	0.202918	0.420527	0.119578	0.625985	1.06594	1.35431	0.768539	1.97451	1.1202	1.74227	1.30563	2.471	0.270471	0.937405	0.283166	0.658895	0.509583	1.16758	0.360881	1.33797	0.016798	0.516603	0.523092	1.17832	-0.166799	0.630796	0.178467	0.482097	
2.4414	0	0	-0.0184825	0.902897	0.124851	0.774924	0.194916	0.421293	0.113168	0.621219	1.0608	1.35022	0.773927	1.95928	1.12142	1.73881	1.30769	2.46516	0.267291	0.946394	0.279835	0.661071	0.504856	1.17067	0.360881	1.33797	0.011264	0.532244	0.517232	1.18435	-0.17504	0.642354	0.176091	0.488811	
2.43835	0	0	-0.021994	0.894055	0.123602	0.770035	0.186914	0.422059	0.106758	0.616453	1.05566	1.34614	0.779315	1.94406	1.12265	1.73536	1.30976	2.45932	0.26411	0.955383	0.276504	0.663248	0.500129	1.17375	0.360881	1.33797	0.00573	0.547884	0.511372	1.19038	-0.183281	0.653912	0.173715	0.495525	
2.43988	0	0	-0.021994	0.894055	0.119729	0.772566	0.188966	0.416258	0.105728	0.619363	1.05481	1.33926	0.779315	1.94406	1.12265	1.73536	1.30873	2.46224	0.265566	0.963657	0.280009	0.66782	0.501032	1.1712	0.359351	1.34229	-0.002046	0.54695	0.512384	1.18752	-0.181387	0.648558	0.170641	0.495812	
2.43988	0	0	-0.021994	0.894055	0.115857	0.775096	0.191019	0.410457	0.104698	0.622274	1.05395	1.33239	0.779315	1.94406	1.12265	1.73536	1.3077	2.46516	0.267022	0.971931	0.283514	0.672392	0.501935	1.16865	0.357821	1.34661	-0.009822	0.546017	0.513397	1.18465	-0.179492	0.643204	0.167568	0.4961	
2.43835	0	0	-0.021994	0.894055	0.111984	0.777626	0.193072	0.404656	0.103669	0.625184	1.05309	1.32551	0.779315	1.94406	1.12265	1.73536	1.30666	2.46808	0.268478	0.980204	0.287019	0.676965	0.502838	1.1661	0.356291	1.35094	-0.017598	0.545083	0.514409	1.18179	-0.177597	0.63785	0.164494	0.496387	
2.4353	0	0	-0.021994	0.894055	0.108111	0.780157	0.195124	0.398855	0.102639	0.628094	1.05224	1.31864	0.779315	1.94406	1.12265	1.73536	1.30563	2.471	0.269934	0.988478	0.290524	0.681537	0.503741	1.16355	0.354761	1.35526	-0.025374	0.544149	0.515421	1.17893	-0.175703	0.632496	0.16142	0.496675	
2.43683	0	0	-0.0323303	0.904519	0.107236	0.78263	0.18508	0.405418	0.0973782	0.631532	1.04796	1.33073	0.773927	1.95928	1.1202	1.74227	1.30253	2.47976	0.272451	0.99376	0.291487	0.686059	0.504854	1.17067	0.36396	1.35923	-0.025374	0.544149	0.513396	1.18465	-0.177597	0.63785	0.163701	0.498627	
2.43988	0	0	-0.0426665	0.914983	0.106361	0.785103	0.175036	0.41198	0.0921175	0.634969	1.04368	1.34282	0.768539	1.97451	1.11776	1.74918	1.29943	2.48852	0.274969	0.999042	0.29245	0.690581	0.505968	1.17779	0.373159	1.3632	-0.025374	0.544149	0.511371	1.19038	-0.179492	0.643204	0.165983	0.500579	
2.43988	0	0	-0.0530028	0.925448	0.105486	0.787576	0.164993	0.418543	0.0868567	0.638406	1.0394	1.35491	0.763152	1.98974	1.11531	1.75609	1.29633	2.49729	0.277486	1.00432	0.293412	0.695104	0.507081	1.18492	0.382358	1.36717	-0.025374	0.544149	0.509346	1.1961	-0.181387	0.648558	0.168265	0.50253	
2.4414	0	0	-0.063339	0.935912	0.104611	0.790049	0.154949	0.425106	0.081596	0.641844	1.03512	1.367	0.757764	2.00496	1.11287	1.763	1.29323	2.50605	0.280003	1.00961	0.294375	0.699626	0.508195	1.19204	0.391557	1.37115	-0.025374	0.544149	0.507321	1.20182	-0.183281	0.653912	0.170546	0.504482	
2.4414	0	0	-0.0668388	0.927074	0.101615	0.790106	0.154949	0.425106	0.0794268	0.636551	1.02487	1.36812	0.751001	1.99768	1.11164	1.76645	1.29022	2.50577	0.280003	1.00961	0.293412	0.695104	0.508195	1.19204	0.391557	1.37115	-0.0359052	0.55103	0.502476	1.20499	-0.195018	0.663641	0.170546	0.504482	
2.43988	0	0	-0.0703385	0.918236	0.098619	0.790162	0.154949	0.425106	0.0772575	0.631258	1.01461	1.36924	0.744238	1.99039	1.11042	1.76991	1.28721	2.50549	0.280003	1.00961	0.29245	0.690581	0.508195	1.19204	0.391557	1.37115	-0.0464365	0.557912	0.497632	1.20815	-0.206756	0.673369	0.170546	0.504482	
2.43988	0	0	-0.0738383	0.909398	0.095623	0.790218	0.154949	0.425106	0.0750882	0.625965	1.00436	1.37037	0.737475	1.9831	1.1092	1.77337	1.28421	2.5052	0.280003	1.00961	0.291487	0.686059	0.508195	1.19204	0.391557	1.37115	-0.0569678	0.564794	0.492788	1.21132	-0.218494	0.683098	0.170546	0.504482	
2.43835	0	0	-0.077338	0.90056	0.092627	0.790275	0.154949	0.425106	0.072919	0.620672	0.994099	1.37149	0.730712	1.97581	1.10797	1.77682	1.2812	2.50492	0.280003	1.00961	0.290524	0.681537	0.508195	1.19204	0.391557	1.37115	-0.067499	0.571675	0.487943	1.21449	-0.230231	0.692826	0.170546	0.504482	
2.43835	0	0	-0.077338	0.90056	0.092627	0.790275	0.164993	0.418543	0.072919	0.620672	0.993243	1.37391	0.730712	1.97581	1.11123	1.78001	1.2812	2.50492	0.284649	1.00888	0.287192	0.683715	0.510002	1.18693	0.391557	1.37115	-0.0681512	0.562088	0.488161	1.20335	-0.227389	0.684794	0.164401	0.505055	
2.4353	0	0	-0.077338	0.90056	0.092627	0.790275	0.175036	0.41198	0.072919	0.620672	0.992388	1.37633	0.730712	1.97581	1.11449	1.7832	1.2812	2.50492	0.289295	1.00816	0.28386	0.685892	0.51181	1.18182	0.391557	1.37115	-0.0688035	0.552502	0.488379	1.19221	-0.224546	0.676762	0.158255	0.505629	
2.4353	0	0	-0.077338	0.90056	0.092627	0.790275	0.18508	0.405418	0.072919	0.620672	0.991533	1.37874	0.730712	1.97581	1.11775	1.78639	1.2812	2.50492	0.29394	1.00743	0.280527	0.68807	0.513617	1.17672	0.391557	1.37115	-0.0694558	0.542916	0.488598	1.18108	-0.221704	0.668729	0.15211	0.506202	
2.43072	0	0	-0.077338	0.90056	0.092627	0.790275	0.195124	0.398855	0.072919	0.620672	0.990677	1.38116	0.730712	1.97581	1.12101	1.78958	1.2812	2.50492	0.298586	1.00671	0.277195	0.690247	0.515424	1.17161	0.391557	1.37115	-0.070108	0.533329	0.488816	1.16994	-0.218862	0.660697	0.145964	0.506775	
2.43072	0	0	-0.0945518	0.911808	0.0857648	0.792858	0.187132	0.399621	0.064471	0.621722	0.986396	1.39326	0.725324	1.99104	1.11285	1.80023	1.2781	2.51369	0.296458	1.01272	0.278157	0.69477	0.518347	1.17363	0.388491	1.37981	-0.0639265	0.527289	0.492646	1.16963	-0.215363	0.662527	0.145172	0.509014	
2.42767	0	0	-0.111765	0.923056	0.0789025	0.795441	0.179139	0.400386	0.056023	0.622773	0.982115	1.40536	0.719936	2.00627	1.10469	1.81088	1.275	2.52246	0.29433	1.01873	0.279118	0.699293	0.521269	1.17564	0.385425	1.38848	-0.057745	0.521249	0.496477	1.16933	-0.211865	0.664357	0.14438	0.511252	
2.42309	0	0	-0.128979	0.934303	0.0720403	0.798025	0.171146	0.401152	0.047575	0.623824	0.977833	1.41746	0.714548	2.0215	1.09654	1.82153	1.27189	2.53123	0.292202	1.02475	0.280079	0.703816	0.524191	1.17766	0.382358	1.39714	-0.0515635	0.515208	0.500308	1.16902	-0.208366	0.666187	0.143588	0.51349	
2.42309	0	0	-0.146193	0.945551	0.065178	0.800608	0.163154	0.401918	0.039127	0.624874	0.973552	1.42956	0.70916	2.03672	1.08838	1.83218	1.26879	2.54	0.290074	1.03076	0.281041	0.708339	0.527114	1.17968	0.379292	1.40581	-0.045382	0.509168	0.504138	1.16872	-0.204867	0.668017	0.142796	0.515729	
2.42615	0	0	-0.142784	0.935917	0.065178	0.800608	0.163154	0.401918	0.040155	0.621968	0.976967	1.42919	0.711855	2.02911	1.09735	1.83165	1.26579	2.53971	0.286493	1.02848	0.278499	0.708282	0.528705	1.1649	0.387731	1.39696	-0.0540592	0.510838	0.496694	1.15821	-0.208366	0.666187	0.139726	0.516014	
2.42767	0	0	-0.139375	0.926284	0.065178	0.800608	0.163154	0.401918	0.041183	0.619063	0.980383	1.42882	0.71455	2.02149	1.10631	1.83112	1.26278	2.53943	0.282911	1.02619	0.275957	0.708225	0.530296	1.15013	0.396169	1.38812	-0.0627365	0.512509	0.489249	1.14771	-0.211865	0.664357	0.136655	0.5163	
2.43072	0	0	-0.135966	0.91665	0.065178	0.800608	0.163154	0.401918	0.042211	0.616157	0.983799	1.42845	0.717245	2.01387	1.11527	1.83059	1.25978	2.53914	0.27933	1.02391	0.273415	0.708169	0.531888	1.13536	0.404608	1.37927	-0.0714137	0.514179	0.481804	1.13721	-0.215363	0.662527	0.133584	0.516585	
2.43378	0	0	-0.132557	0.907016	0.065178	0.800608	0.163154	0.401918	0.043239	0.613251	0.987214	1.42808	0.71994	2.00625	1.12424	1.83006	1.25677	2.53886	0.275749	1.02163	0.270873	0.708112	0.533479	1.12058	0.413046	1.37043	-0.080091	0.515849	0.47436	1.12671	-0.218862	0.660697	0.130514	0.51687	
2.43683	0	0	-0.127363	0.911029	0.0664208	0.8055	0.16704	0.412758	0.0443757	0.621448	0.990631	1.42771	0.717245	2.01387	1.12178	1.837	1.2547	2.54471	0.276813	1.01862	0.271833	0.712638	0.530556	1.11858	0.407674	1.37061	-0.079171	0.513249	0.470535	1.12701	-0.225199	0.666895	0.129722	0.519108	
2.4414	0	0	-0.12217	0.915042	0.0676635	0.810391	0.170926	0.423598	0.0455125	0.629645	0.994049	1.42734	0.71455	2.02149	1.11933	1.84393	1.25263	2.55055	0.277876	1.01562	0.272794	0.717165	0.527632	1.11657	0.402301	1.37079	-0.078251	0.510649	0.466711	1.12732	-0.231536	0.673094	0.12893	0.521347	
2.44598	0	0	-0.116976	0.919054	0.0689063	0.815282	0.174812	0.434438	0.0466493	0.637843	0.997466	1.42697	0.711855	2.02911	1.11688	1.85087	1.25056	2.5564	0.27894	1.01261	0.273755	0.721692	0.524709	1.11456	0.396929	1.37097	-0.077331	0.508048	0.462886	1.12763	-0.237873	0.679292	0.128138	0.523586	
2.45514	0	0	-0.111782	0.923067	0.070149	0.820174	0.178698	0.445278	0.047786	0.64604	1.00088	1.4266	0.70916	2.03672	1.11442	1.8578	1.24849	2.56225	0.280003	1.00961	0.274715	0.726218	0.521785	1.11255	0.391557	1.37115	-0.076411	0.505448	0.459061	1.12793	-0.24421	0.685491	0.127346	0.525824	
2.45819	0	0	-0.122091	0.933509	0.070149	0.820174	0.168654	0.451841	0.047786	0.64604	0.999153	1.44078	0.703763	2.05198	1.11197	1.86474	1.24839	2.57132	0.27894	1.01261	0.276466	0.728512	0.521098	1.12476	0.393861	1.37964	-0.0695745	0.508981	0.4665	1.13843	-0.233719	0.690995	0.128831	0.530019	
2.45819	0	0	-0.132399	0.943951	0.070149	0.820174	0.15861	0.458403	0.047786	0.64604	0.997422	1.45496	0.698366	2.06723	1.10951	1.87168	1.24829	2.58039	0.277876	1.01562	0.278218	0.730805	0.520411	1.13697	0.396166	1.38813	-0.062738	0.512513	0.473938	1.14894	-0.223228	0.6965	0.130316	0.534215	
2.46277	0	0	-0.142708	0.954393	0.070149	0.820174	0.148566	0.464966	0.047786	0.64604	0.995692	1.46914	0.692969	2.08248	1.10706	1.87862	1.24818	2.58946	0.276813	1.01862	0.279969	0.733099	0.519724	1.14919	0.39847	1.39662	-0.0559015	0.516045	0.481377	1.15944	-0.212737	0.702005	0.131801	0.53841	
2.46429	0	0	-0.153016	0.964835	0.070149	0.820174	0.138522	0.471529	0.047786	0.64604	0.993962	1.48332	0.687572	2.09773	1.1046	1.88556	1.24808	2.59853	0.275749	1.02163	0.28172	0.735393	0.519037	1.1614	0.400774	1.40511	-0.049065	0.519578	0.488816	1.16994	-0.202246	0.707509	0.133286	0.542605	
2.46124	0	0	-0.14612	0.964037	0.0692735	0.822648	0.146511	0.470775	0.0520108	0.645516	0.992244	1.48818	0.68487	2.10537	1.10786	1.88877	1.24704	2.60146	0.27217	1.01935	0.279178	0.735335	0.520152	1.16852	0.399239	1.40945	-0.0481442	0.516976	0.494455	1.17505	-0.202246	0.707509	0.133286	0.542605	
2.46429	0	0	-0.139224	0.96324	0.068398	0.825122	0.1545	0.47002	0.0562355	0.644992	0.990525	1.49304	0.682168	2.11301	1.11111	1.89198	1.24601	2.60439	0.268591	1.01706	0.276635	0.735277	0.521267	1.17565	0.397704	1.41378	-0.0472235	0.514373	0.500094	1.18016	-0.202246	0.707509	0.133286	0.542605	
2.46277	0	0	-0.132328	0.962442	0.0675225	0.827596	0.162488	0.469266	0.0604603	0.644468	0.988807	1.49789	0.679466	2.12064	1.11437	1.89519	1.24497	2.60732	0.265012	1.01478	0.274093	0.735219	0.522383	1.18277	0.396169	1.41812	-0.0463027	0.51177	0.505733	1.18527	-0.202246	0.707509	0.133286	0.542605	
2.45972	0	0	-0.125432	0.961644	0.066647	0.83007	0.170477	0.468512	0.064685	0.643944	0.987089	1.50275	0.676764	2.12828	1.11763	1.8984	1.24393	2.61025	0.261433	1.0125	0.27155	0.735161	0.523498	1.1899	0.394634	1.42246	-0.045382	0.509168	0.511372	1.19038	-0.202246	0.707509	0.133286	0.542605	
2.45972	0	0	-0.121946	0.970503	0.0717595	0.832439	0.174359	0.479389	0.071082	0.648718	0.999917	1.50371	0.683504	2.13563	1.12414	1.90483	1.25087	2.61698	0.266076	1.01178	0.272509	0.739693	0.531156	1.18882	0.400008	1.42229	-0.043541	0.503965	0.512384	1.18752	-0.202246	0.707509	0.134079	0.540365	
2.45514	0	0	-0.118461	0.979363	0.076872	0.834808	0.17824	0.490267	0.077479	0.653493	1.01275	1.50467	0.690244	2.14298	1.13066	1.91126	1.25781	2.62372	0.270718	1.01105	0.273469	0.744225	0.538814	1.18775	0.405383	1.42211	-0.0417	0.498762	0.513397	1.18465	-0.202246	0.707509	0.134871	0.538125	
2.45056	0	0	-0.114976	0.988222	0.0819845	0.837177	0.182122	0.501144	0.083876	0.658268	1.02557	1.50563	0.696984	2.15034	1.13718	1.9177	1.26475	2.63046	0.275361	1.01033	0.274428	0.748758	0.546473	1.18668	0.410757	1.42194	-0.039859	0.49356	0.514409	1.18179	-0.202246	0.707509	0.135664	0.535884	
2.44446	0	0	-0.11149	0.997081	0.087097	0.839546	0.186004	0.512022	0.090273	0.663042	1.0384	1.50659	0.703724	2.15769	1.1437	1.92413	1.27169	2.6372	0.280003	1.00961	0.275387	0.75329	0.554131	1.1856	0.416132	1.42176	-0.038018	0.488357	0.515421	1.17893	-0.202246	0.707509	0.136457	0.533644	
2.44598	0	0	-0.109781	0.99225	0.087097	0.839546	0.194011	0.511267	0.0850123	0.66648	1.04351	1.5201	0.707758	2.17272	1.14449	1.93431	1.26453	2.64865	0.275361	1.01033	0.272845	0.753231	0.559292	1.20191	0.416897	1.43463	-0.041701	0.498766	0.527734	1.1863	-0.200644	0.714715	0.137942	0.537841	
2.44293	0	0	-0.108071	0.987418	0.087097	0.839546	0.202018	0.510513	0.0797515	0.669917	1.04863	1.5336	0.711793	2.18776	1.14529	1.9445	1.25737	2.6601	0.270718	1.01105	0.270303	0.753171	0.564452	1.21822	0.417662	1.44749	-0.045384	0.509174	0.540046	1.19366	-0.199042	0.72192	0.139427	0.542039	
2.44293	0	0	-0.106361	0.982587	0.087097	0.839546	0.210025	0.509759	0.0744907	0.673354	1.05374	1.54711	0.715827	2.2028	1.14609	1.95469	1.25021	2.67155	0.266076	1.01178	0.267761	0.753112	0.569612	1.23454	0.418428	1.46035	-0.049067	0.519583	0.552359	1.20103	-0.19744	0.729125	0.140913	0.546237	
2.44293	0	0	-0.104652	0.977756	0.087097	0.839546	0.218032	0.509004	0.06923	0.676792	1.05886	1.56062	0.719861	2.21783	1.14688	1.96487	1.24305	2.683	0.261433	1.0125	0.265219	0.753053	0.574773	1.25085	0.419193	1.47322	-0.05275	0.529992	0.564672	1.2084	-0.195838	0.736331	0.142398	0.550434	
2.44751	0	0	-0.0977417	0.976955	0.087097	0.839546	0.223986	0.514077	0.0744907	0.673354	1.06656	1.56684	0.719861	2.21783	1.15464	1.96784	1.24709	2.68036	0.257857	1.01022	0.259972	0.74617	0.574979	1.26058	0.419193	1.47322	-0.055248	0.525622	0.567501	1.21096	-0.202837	0.732652	0.143191	0.548192	
2.44751	0	0	-0.0908315	0.976153	0.087097	0.839546	0.22994	0.519149	0.0797515	0.669917	1.07427	1.57306	0.719861	2.21783	1.1624	1.97081	1.25114	2.67772	0.25428	1.00794	0.254725	0.739287	0.575185	1.27031	0.419193	1.47322	-0.057746	0.521251	0.570329	1.21352	-0.209835	0.728973	0.143985	0.545951	
2.45514	0	0	-0.0839213	0.975352	0.087097	0.839546	0.235894	0.524222	0.0850123	0.66648	1.08198	1.57928	0.719861	2.21783	1.17016	1.97378	1.25518	2.67507	0.250704	1.00566	0.249477	0.732404	0.575391	1.28004	0.419193	1.47322	-0.060244	0.516881	0.573158	1.21608	-0.216834	0.725293	0.144778	0.543709	
2.45819	0	0	-0.077011	0.974551	0.087097	0.839546	0.241848	0.529294	0.090273	0.663042	1.08969	1.5855	0.719861	2.21783	1.17792	1.97676	1.25923	2.67243	0.247127	1.00338	0.24423	0.725521	0.575597	1.28976	0.419193	1.47322	-0.062742	0.512511	0.575987	1.21864	-0.223832	0.721614	0.145571	0.541468	
2.46277	0	0	-0.0735165	0.983422	0.0862205	0.842023	0.23565	0.546811	0.0924425	0.668348	1.09913	1.58684	0.72933	2.21755	1.18569	1.97973	1.26015	2.6786	0.250704	1.00566	0.240901	0.727696	0.58055	1.29641	0.419193	1.47322	-0.0618218	0.50991	0.580848	1.21546	-0.213984	0.717241	0.141707	0.543993	
2.46277	0	0	-0.070022	0.992294	0.085344	0.8445	0.229452	0.564328	0.094612	0.673654	1.10858	1.58818	0.7388	2.21726	1.19346	1.9827	1.26108	2.68478	0.25428	1.00794	0.237573	0.729871	0.585502	1.30305	0.419193	1.47322	-0.0609015	0.507309	0.585709	1.21229	-0.204137	0.712869	0.137843	0.546518	
2.46582	0	0	-0.0665275	1.00117	0.0844675	0.846977	0.223253	0.581844	0.0967815	0.678959	1.11803	1.58952	0.74827	2.21697	1.20123	1.98568	1.262	2.69095	0.257857	1.01022	0.234245	0.732046	0.590454	1.30969	0.419193	1.47322	-0.0599812	0.504708	0.59057	1.20911	-0.19429	0.708496	0.133978	0.549043	
2.46429	0	0	-0.063033	1.01004	0.083591	0.849454	0.217055	0.599361	0.098951	0.684265	1.12748	1.59085	0.757739	2.21669	1.209	1.98865	1.26293	2.69712	0.261433	1.0125	0.230916	0.734221	0.595407	1.31633	0.419193	1.47322	-0.059061	0.502107	0.595431	1.20594	-0.184442	0.704124	0.130114	0.551568	
2.46734	0	0	-0.068238	1.006	0.0823485	0.844555	0.229214	0.586925	0.0967815	0.678959	1.12145	1.59856	0.742835	2.23233	1.209	1.98865	1.26386	2.7033	0.259306	1.01851	0.231081	0.740986	0.593785	1.33124	0.421494	1.48175	-0.0559065	0.516059	0.599065	1.21681	-0.192045	0.725611	0.130805	0.558012	
2.46887	0	0	-0.073443	1.00196	0.081106	0.839655	0.241372	0.574488	0.094612	0.673654	1.11541	1.60626	0.727931	2.24798	1.209	1.98865	1.26478	2.70949	0.25718	1.02452	0.231247	0.74775	0.592162	1.34615	0.423794	1.49029	-0.052752	0.530011	0.602699	1.22768	-0.199648	0.747098	0.131495	0.564455	
2.47345	0	0	-0.078648	0.997924	0.0798635	0.834756	0.25353	0.562051	0.0924425	0.668348	1.10938	1.61397	0.713028	2.26362	1.209	1.98865	1.26571	2.71567	0.255054	1.03053	0.231413	0.754514	0.590539	1.36107	0.426095	1.49883	-0.0495975	0.543964	0.606333	1.23855	-0.207251	0.768586	0.132186	0.570899	
2.47497	0	0	-0.083853	0.993887	0.078621	0.829857	0.265689	0.549615	0.090273	0.663042	1.10334	1.62167	0.698124	2.27927	1.209	1.98865	1.26663	2.72185	0.252927	1.03654	0.231578	0.761279	0.588917	1.37598	0.428396	1.50737	-0.046443	0.557916	0.609967	1.24942	-0.214854	0.790073	0.132877	0.577343	
2.47955	0	0	-0.0907623	0.994686	0.078621	0.829857	0.265689	0.549615	0.090273	0.663042	1.10678	1.6213	0.707589	2.27899	1.21227	1.99188	1.27265	2.72244	0.25544	1.04183	0.234117	0.76134	0.586181	1.38371	0.426854	1.51172	-0.046443	0.557916	0.610984	1.24655	-0.214854	0.790073	0.13367	0.5751	
2.48718	0	0	-0.0976715	0.995484	0.078621	0.829857	0.265689	0.549615	0.090273	0.663042	1.11022	1.62094	0.717054	2.27872	1.21555	1.99512	1.27867	2.72304	0.257953	1.04713	0.236655	0.761401	0.583445	1.39145	0.425312	1.51608	-0.046443	0.557916	0.612	1.24367	-0.214854	0.790073	0.134464	0.572857	
2.49634	0	0	-0.104581	0.996282	0.078621	0.829857	0.265689	0.549615	0.090273	0.663042	1.11366	1.62057	0.726519	2.27845	1.21882	1.99835	1.28469	2.72363	0.260466	1.05242	0.239194	0.761461	0.580708	1.39918	0.42377	1.52044	-0.046443	0.557916	0.613017	1.2408	-0.214854	0.790073	0.135258	0.570614	
2.50854	0	0	-0.11149	0.997081	0.078621	0.829857	0.265689	0.549615	0.090273	0.663042	1.1171	1.6202	0.735984	2.27817	1.22209	2.00159	1.29071	2.72423	0.262979	1.05772	0.241732	0.761522	0.577972	1.40691	0.422228	1.52479	-0.046443	0.557916	0.614034	1.23793	-0.214854	0.790073	0.136051	0.568371	
2.5238	0	0	-0.102803	1.01001	0.07811	0.839712	0.267514	0.566407	0.090378	0.674183	1.12396	1.6289	0.742738	2.2856	1.2274	2.01157	1.29662	2.73396	0.26336	1.06904	0.246185	0.770659	0.582921	1.4136	0.42298	1.53772	-0.0492112	0.565739	0.613816	1.24912	-0.208805	0.796465	0.132875	0.577346	
2.54059	0	0	-0.094116	1.02293	0.077599	0.849568	0.26934	0.583199	0.090483	0.685324	1.13082	1.6376	0.749493	2.29302	1.23271	2.02155	1.30252	2.7437	0.263742	1.08037	0.250637	0.779797	0.587869	1.42029	0.423733	1.55064	-0.0519795	0.573563	0.613598	1.26032	-0.202756	0.802858	0.129699	0.586322	
2.5589	0	0	-0.085429	1.03586	0.077088	0.859423	0.271166	0.599992	0.090588	0.696465	1.13768	1.6463	0.756247	2.30044	1.23801	2.03153	1.30843	2.75344	0.264124	1.0917	0.255089	0.788934	0.592817	1.42697	0.424486	1.56357	-0.0547477	0.581387	0.613379	1.27152	-0.196707	0.80925	0.126524	0.595297	
2.56805	0	0	-0.076742	1.04878	0.076577	0.869278	0.272991	0.616784	0.090693	0.707606	1.14454	1.65499	0.763002	2.30787	1.24332	2.04151	1.31434	2.76318	0.264505	1.10302	0.259542	0.798071	0.597766	1.43366	0.425238	1.57649	-0.057516	0.58921	0.613161	1.28271	-0.190658	0.815642	0.123348	0.604273	
2.57568	0	0	-0.080173	1.05848	0.0786953	0.871706	0.268844	0.628504	0.0949272	0.707083	1.1393	1.67918	0.764297	2.33076	1.24288	2.05528	1.31711	2.78182	0.268461	1.11668	0.264157	0.814029	0.601989	1.45277	0.433667	1.5979	-0.0543722	0.603221	0.618607	1.2991	-0.187467	0.830141	0.129385	0.61242	
2.58179	0	0	-0.083604	1.06817	0.0808135	0.874134	0.264697	0.640224	0.0991615	0.70656	1.13405	1.70337	0.765592	2.35365	1.24243	2.06904	1.31989	2.80046	0.272417	1.13033	0.268772	0.829987	0.606213	1.47189	0.442097	1.6193	-0.0512285	0.617231	0.624053	1.31548	-0.184276	0.844639	0.135423	0.620567	
2.58484	5	0	-0.087035	1.07787	0.0829317	0.876562	0.26055	0.651944	0.103396	0.706038	1.12881	1.72756	0.766888	2.37654	1.24198	2.08281	1.32266	2.8191	0.276372	1.14399	0.273387	0.845945	0.610437	1.491	0.450526	1.6407	-0.0480848	0.631242	0.629499	1.33187	-0.181085	0.859138	0.14146	0.628715	
2.58789	5	0	-0.090466	1.08757	0.08505	0.87899	0.256403	0.663664	0.10763	0.705515	1.12357	1.75175	0.768183	2.39943	1.24154	2.09658	1.32543	2.83774	0.280328	1.15764	0.278002	0.861903	0.61466	1.51012	0.458955	1.66211	-0.044941	0.645253	0.634945	1.34825	-0.177894	0.873637	0.147497	0.636862	
2.59704	5	0	-0.088702	1.10135	0.0854125	0.886384	0.260288	0.674664	0.108766	0.713757	1.13645	1.76225	0.774944	2.40691	1.24888	2.1134	1.32833	2.84724	0.28177	1.166	0.278161	0.868712	0.61576	1.51737	0.461248	1.67073	-0.046792	0.650485	0.642437	1.35891	-0.181717	0.884443	0.140443	0.648391	
2.59399	5	0	-0.086938	1.11513	0.085775	0.893778	0.264172	0.685663	0.109901	0.721998	1.14934	1.77276	0.781705	2.41439	1.25622	2.13022	1.33122	2.85673	0.283212	1.17435	0.278319	0.87552	0.61686	1.52463	0.46354	1.67935	-0.048643	0.655717	0.64993	1.36956	-0.18554	0.895248	0.133389	0.659919	
2.59094	5	0	-0.085174	1.12891	0.0861375	0.901172	0.268056	0.696662	0.111037	0.73024	1.16223	1.78327	0.788467	2.42187	1.26356	2.14704	1.33411	2.86623	0.284653	1.18271	0.278477	0.882329	0.61796	1.53188	0.465832	1.68797	-0.050494	0.660948	0.657422	1.38022	-0.189364	0.906053	0.126335	0.671448	
2.59247	5	0	-0.08341	1.14269	0.0865	0.908566	0.271941	0.707662	0.112173	0.738481	1.17511	1.79378	0.795228	2.42935	1.2709	2.16386	1.337	2.87573	0.286095	1.19106	0.278636	0.889138	0.61906	1.53913	0.468125	1.69659	-0.052345	0.66618	0.664914	1.39087	-0.193187	0.916859	0.119281	0.682977	
2.59094	5	0	-0.0712375	1.1647	0.086338	0.925872	0.287771	0.729009	0.119718	0.751553	1.19834	1.82234	0.790996	2.46794	1.28152	2.18403	1.33779	2.89119	0.283953	1.19712	0.277044	0.893637	0.622175	1.55107	0.475821	1.70508	-0.050777	0.673207	0.67115	1.41577	-0.191598	0.924138	0.123833	0.686929	
2.59094	5	0	-0.059065	1.18671	0.086176	0.943178	0.303602	0.750357	0.127264	0.764626	1.22157	1.8509	0.786765	2.50653	1.29215	2.2042	1.33858	2.90665	0.281811	1.20317	0.275452	0.898136	0.62529	1.56301	0.483517	1.71357	-0.049209	0.680233	0.677387	1.44067	-0.190009	0.931416	0.128386	0.690881	
2.58484	5	0	-0.0468925	1.20873	0.086014	0.960485	0.319433	0.771705	0.134809	0.777699	1.2448	1.87946	0.782533	2.54511	1.30278	2.22438	1.33937	2.92211	0.27967	1.20922	0.273861	0.902635	0.628405	1.57495	0.491212	1.72205	-0.047641	0.68726	0.683623	1.46557	-0.18842	0.938695	0.132939	0.694832	
2.58484	5	0	-0.03472	1.23074	0.085852	0.977791	0.335263	0.793052	0.142354	0.790771	1.26804	1.90801	0.778301	2.5837	1.3134	2.24455	1.34016	2.93757	0.277528	1.21527	0.272269	0.907134	0.63152	1.58688	0.498908	1.73054	-0.046073	0.694287	0.689859	1.49047	-0.186831	0.945974	0.137491	0.698784	
2.58179	5	0	-0.0346915	1.26836	0.084443	0.990202	0.346935	0.826388	0.141409	0.804922	1.29042	1.94893	0.801366	2.59862	1.32278	2.26837	1.33384	2.95542	0.274313	1.22436	0.266539	0.916069	0.646397	1.6072	0.500369	1.7567	-0.0376568	0.704919	0.706693	1.51754	-0.179189	0.959731	0.137375	0.707528	
2.57721	5	0	-0.034663	1.30598	0.083034	1.00261	0.358607	0.859724	0.140464	0.819072	1.31281	1.98985	0.824432	2.61355	1.33217	2.29219	1.32752	2.97327	0.271098	1.23345	0.26081	0.925005	0.661274	1.62752	0.501831	1.78285	-0.0292405	0.71555	0.723528	1.54462	-0.171547	0.973488	0.137258	0.716272	
2.57263	5	0	-0.0346345	1.34361	0.081625	1.01502	0.370279	0.89306	0.139519	0.833223	1.33519	2.03077	0.847498	2.62847	1.34155	2.31601	1.32121	2.99112	0.267883	1.24253	0.25508	0.93394	0.676152	1.64784	0.503292	1.80901	-0.0208243	0.726182	0.740363	1.57169	-0.163906	0.987245	0.137141	0.725016	
2.56805	5	0	-0.034606	1.38123	0.080216	1.02744	0.381951	0.926396	0.138574	0.847374	1.35758	2.07169	0.870563	2.64339	1.35093	2.33983	1.31489	3.00897	0.264668	1.25162	0.249351	0.942875	0.691029	1.66815	0.504753	1.83516	-0.012408	0.736814	0.757197	1.59877	-0.156264	1.001	0.137025	0.73376	
2.56653	5	0	-0.0137222	1.39785	0.0853332	1.02984	0.395732	0.954009	0.141782	0.849795	1.38716	2.09287	0.881366	2.66646	1.35703	2.36045	1.30675	3.01429	0.264668	1.25162	0.24586	0.938235	0.698944	1.67704	0.514023	1.8393	-0.01084	0.743869	0.770433	1.61487	-0.147652	1.01209	0.135428	0.738274	
2.56653	5	0	0.0071615	1.41446	0.0904505	1.03225	0.409513	0.981622	0.144989	0.852216	1.41674	2.11405	0.89217	2.68953	1.36312	2.38107	1.29861	3.01961	0.264668	1.25162	0.242369	0.933595	0.706859	1.68594	0.523292	1.84344	-0.009272	0.750924	0.783668	1.63097	-0.13904	1.02317	0.133831	0.742787	
2.57416	5	0	0.0280452	1.43108	0.0955677	1.03466	0.423294	1.00923	0.148197	0.854636	1.44632	2.13523	0.902973	2.71259	1.36922	2.4017	1.29047	3.02493	0.264668	1.25162	0.238878	0.928955	0.714773	1.69483	0.532562	1.84757	-0.007704	0.75798	0.796903	1.64707	-0.130429	1.03425	0.132233	0.747301	
2.58179	5	0	0.048929	1.4477	0.100685	1.03707	0.437075	1.03685	0.151405	0.857057	1.47589	2.15641	0.913777	2.73566	1.37531	2.42232	1.28233	3.03024	0.264668	1.25162	0.235387	0.924315	0.722688	1.70372	0.541832	1.85171	-0.006136	0.765035	0.810139	1.66317	-0.121817	1.04533	0.130636	0.751815	
2.59704	5	0	0.0786483	1.47774	0.103155	1.04698	0.452642	1.08197	0.151492	0.868306	1.50916	2.17736	0.934194	2.75865	1.39432	2.43184	1.28218	3.03951	0.26574	1.24859	0.230307	0.924176	0.733568	1.71473	0.547981	1.86472	-0.00270675	0.766838	0.818459	1.68258	-0.111264	1.051	0.128239	0.75859	
2.62909	5	0	0.108368	1.50778	0.105625	1.05688	0.468209	1.12709	0.151578	0.879555	1.54243	2.19832	0.954612	2.78163	1.41333	2.44137	1.28203	3.04877	0.266812	1.24556	0.225228	0.924037	0.744447	1.72575	0.55413	1.87772	0.0007225	0.768641	0.826779	1.70198	-0.10071	1.05666	0.125841	0.765365	
2.65198	5	0	0.138087	1.53783	0.108095	1.06679	0.483775	1.17222	0.151665	0.890803	1.5757	2.21928	0.975029	2.80462	1.43234	2.45089	1.28188	3.05803	0.267884	1.24253	0.220148	0.923898	0.755327	1.73676	0.56028	1.89073	0.00415175	0.770443	0.835099	1.72138	-0.0901572	1.06233	0.123444	0.77214	
2.67792	5	0	0.167806	1.56787	0.110565	1.07669	0.499342	1.21734	0.151751	0.902052	1.60896	2.24023	0.995447	2.8276	1.45135	2.46041	1.28174	3.06729	0.268956	1.2395	0.215068	0.923759	0.766206	1.74778	0.566429	1.90374	0.007581	0.772246	0.843419	1.74079	-0.079604	1.06799	0.121047	0.778915	
2.70233	5	0	0.176545	1.60045	0.107025	1.0867	0.51919	1.25079	0.149668	0.907941	1.63264	2.26968	1.01594	2.85074	1.45873	2.4776	1.27857	3.07624	0.262163	1.24627	0.210939	0.928186	0.770586	1.77725	0.569434	1.92568	0.0116485	0.783759	0.855654	1.75999	-0.075455	1.07996	0.125599	0.782892	
2.71911	5	0	0.185285	1.63303	0.103486	1.0967	0.539038	1.28425	0.147584	0.91383	1.65631	2.29913	1.03643	2.87387	1.46611	2.4948	1.2754	3.08519	0.255371	1.25304	0.20681	0.932613	0.774967	1.80673	0.572439	1.94762	0.015716	0.795272	0.86789	1.7792	-0.071306	1.09193	0.130151	0.786868	
2.73743	5	0	0.194024	1.66562	0.0999465	1.10671	0.558887	1.3177	0.1455	0.919719	1.67998	2.32858	1.05692	2.897	1.47349	2.51199	1.27224	3.09414	0.248578	1.2598	0.20268	0.93704	0.779347	1.8362	0.575444	1.96956	0.0197835	0.806785	0.880126	1.7984	-0.067157	1.1039	0.134702	0.790845	
2.75116	5	0	0.202763	1.6982	0.096407	1.11671	0.578735	1.35115	0.143417	0.925608	1.70366	2.35803	1.07741	2.92013	1.48087	2.52918	1.26907	3.10309	0.241785	1.26657	0.198551	0.941467	0.783727	1.86568	0.578449	1.9915	0.023851	0.818298	0.892361	1.81761	-0.063008	1.11587	0.139254	0.794822	
2.75879	5	0	0.20453	1.6932	0.096407	1.11671	0.572297	1.36935	0.142374	0.928554	1.70366	2.35803	1.07741	2.92013	1.4796	2.53277	1.27616	3.10075	0.238212	1.26425	0.198551	0.941467	0.784659	1.86305	0.580023	1.98705	0.020118	0.828848	0.892089	1.82915	-0.0639745	1.1186	0.130703	0.802148	
2.76947	5	0	0.206297	1.68821	0.096407	1.11671	0.565859	1.38754	0.141332	0.9315	1.70366	2.35803	1.07741	2.92013	1.47833	2.53635	1.28325	3.09841	0.234639	1.26193	0.198551	0.941467	0.785591	1.86041	0.581597	1.9826	0.016385	0.839398	0.891818	1.84069	-0.064941	1.12133	0.122151	0.809475	
2.77405	5	0	0.208064	1.68322	0.096407	1.11671	0.559421	1.40574	0.14029	0.934446	1.70366	2.35803	1.07741	2.92013	1.47706	2.53994	1.29034	3.09608	0.231066	1.2596	0.198551	0.941467	0.786524	1.85778	0.583172	1.97815	0.012652	0.849948	0.891547	1.85223	-0.0659075	1.12407	0.1136	0.816801	
2.7771	5	0	0.209831	1.67822	0.096407	1.11671	0.552983	1.42393	0.139247	0.937392	1.70366	2.35803	1.07741	2.92013	1.47579	2.54352	1.29742	3.09374	0.227493	1.25728	0.198551	0.941467	0.787456	1.85514	0.584746	1.97371	0.008919	0.860498	0.891275	1.86378	-0.066874	1.1268	0.105049	0.824127	
2.7771	5	0	0.206296	1.68821	0.0985243	1.11917	0.556866	1.43541	0.145664	0.942266	1.70811	2.35513	1.08988	2.91198	1.48291	2.53612	1.30346	3.09439	0.223922	1.25496	0.201885	0.939289	0.786524	1.85778	0.583172	1.97815	0.008919	0.860498	0.895963	1.8721	-0.0758475	1.12846	0.107323	0.826121	
2.77862	5	0	0.202761	1.6982	0.100641	1.12164	0.56075	1.44689	0.152081	0.94714	1.71255	2.35222	1.10235	2.90384	1.49002	2.52871	1.3095	3.09503	0.220352	1.25264	0.205218	0.93711	0.785591	1.86041	0.581597	1.9826	0.008919	0.860498	0.900651	1.88042	-0.084821	1.13013	0.109596	0.828114	
2.7771	5	0	0.199227	1.70819	0.102759	1.1241	0.564633	1.45837	0.158497	0.952013	1.717	2.34931	1.11481	2.89569	1.49714	2.52131	1.31554	3.09568	0.216781	1.25031	0.208552	0.934932	0.784659	1.86305	0.580023	1.98705	0.008919	0.860498	0.905339	1.88874	-0.0937945	1.13179	0.111869	0.830107	
2.76794	5	0	0.195692	1.71818	0.104876	1.12657	0.568516	1.46985	0.164914	0.956887	1.72145	2.34641	1.12728	2.88754	1.50425	2.5139	1.32158	3.09633	0.21321	1.24799	0.211886	0.932754	0.783727	1.86568	0.578449	1.9915	0.008919	0.860498	0.910027	1.89706	-0.102768	1.13346	0.114143	0.832101	
2.76031	5	0	0.179875	1.72468	0.100987	1.12911	0.558181	1.4766	0.164914	0.956887	1.71784	2.35661	1.12166	2.90343	1.50425	2.5139	1.32657	3.09996	0.212139	1.25102	0.208701	0.941754	0.776259	1.88679	0.584597	2.00461	0.017349	0.87124	0.919412	1.91375	-0.101183	1.14082	0.113211	0.843158	
2.75574	5	0	0.164058	1.73117	0.0970985	1.13165	0.547847	1.48335	0.164914	0.956887	1.71423	2.36681	1.11604	2.91932	1.50425	2.5139	1.33155	3.1036	0.211068	1.25405	0.205516	0.950754	0.76879	1.90789	0.590745	2.01772	0.025779	0.881982	0.928796	1.93045	-0.0995985	1.14819	0.112279	0.854214	
2.74963	5	0	0.148242	1.73766	0.0932097	1.13419	0.537513	1.49011	0.164914	0.956887	1.71062	2.37701	1.11041	2.93521	1.50425	2.5139	1.33654	3.10723	0.209997	1.25707	0.202332	0.959755	0.761322	1.929	0.596893	2.03083	0.034209	0.892724	0.93818	1.94714	-0.0980137	1.15555	0.111346	0.865271	
2.74353	5	0	0.132425	1.74416	0.089321	1.13673	0.527178	1.49686	0.164914	0.956887	1.70701	2.38721	1.10479	2.9511	1.50425	2.5139	1.34153	3.11087	0.208926	1.2601	0.199147	0.968755	0.753854	1.95011	0.603041	2.04393	0.042639	0.903466	0.947565	1.96383	-0.096429	1.16292	0.110414	0.876328	
2.73285	5	0	0.127179	1.73991	0.088435	1.13924	0.525025	1.50294	0.162826	0.96279	1.70707	2.37737	1.1076	2.94315	1.50552	2.51032	1.34047	3.11386	0.209997	1.25707	0.202482	0.966576	0.756807	1.95224	0.608486	2.04381	0.0382685	0.904289	0.948333	1.97248	-0.109873	1.1654	0.112687	0.878328	
2.72369	5	0	0.121933	1.73566	0.087549	1.14174	0.522872	1.50903	0.160737	0.968692	1.70714	2.36752	1.11042	2.93521	1.50679	2.50673	1.33941	3.11685	0.211068	1.25405	0.205817	0.964397	0.75976	1.95437	0.613931	2.04368	0.033898	0.905111	0.9491	1.98113	-0.123316	1.16788	0.114961	0.880329	
2.71759	5	0	0.116687	1.73141	0.086663	1.14424	0.520718	1.51512	0.158648	0.974595	1.7072	2.35768	1.11323	2.92726	1.50805	2.50315	1.33835	3.11984	0.212139	1.25102	0.209152	0.962218	0.762713	1.9565	0.619376	2.04355	0.0295275	0.905933	0.949867	1.98978	-0.13676	1.17036	0.117235	0.882329	
2.71149	5	0	0.111441	1.72717	0.085777	1.14675	0.518565	1.5212	0.15656	0.980498	1.70726	2.34784	1.11604	2.91931	1.50932	2.49956	1.33729	3.12283	0.21321	1.24799	0.212487	0.960039	0.765666	1.95864	0.624821	2.04343	0.025157	0.906756	0.950635	1.99843	-0.150204	1.17285	0.119508	0.88433	
2.7008	5	0	0.113206	1.72218	0.0900095	1.15169	0.51641	1.52729	0.164027	0.982431	1.70192	2.35329	1.11323	2.92726	1.50552	2.51032	1.34016	3.13247	0.209996	1.25708	0.208502	0.971302	0.760987	1.97186	0.623944	2.06117	0.025157	0.906756	0.954275	2.0098	-0.147306	1.16466	0.12098	0.888601	
2.69317	5	0	0.114971	1.71719	0.094242	1.15663	0.514255	1.53338	0.171495	0.984364	1.69657	2.35874	1.11042	2.93521	1.50171	2.52108	1.34304	3.1421	0.206782	1.26616	0.204516	0.982565	0.756307	1.98509	0.623068	2.07892	0.025157	0.906756	0.957915	2.02118	-0.144408	1.15647	0.122452	0.892872	
2.68707	5	0	0.116735	1.7122	0.0984745	1.16157	0.512101	1.53947	0.178963	0.986297	1.69122	2.3642	1.1076	2.94315	1.4979	2.53184	1.34591	3.15174	0.203568	1.27524	0.200531	0.993829	0.751627	1.99831	0.622192	2.09668	0.025157	0.906756	0.961554	2.03255	-0.141511	1.14828	0.123923	0.897142	
2.67792	5	0	0.1185	1.70722	0.102707	1.16651	0.509946	1.54556	0.18643	0.98823	1.68588	2.36965	1.10479	2.9511	1.4941	2.54259	1.34878	3.16137	0.200354	1.28433	0.196545	1.00509	0.746948	2.01154	0.621315	2.11443	0.025157	0.906756	0.965194	2.04392	-0.138613	1.14009	0.125395	0.901413	
2.66876	5	0	0.115019	1.698	0.104481	1.1615	0.514254	1.53339	0.187476	0.985275	1.67519	2.38055	1.08951	2.96721	1.49156	2.54977	1.34453	3.17337	0.196063	1.29645	0.197631	1.01652	0.750039	2.02378	0.625878	2.13211	0.0282782	0.921	0.968533	2.06702	-0.142477	1.15101	0.124455	0.912504	
2.66418	5	0	0.111538	1.68878	0.106255	1.15648	0.518562	1.52121	0.188521	0.982321	1.6645	2.39146	1.07422	2.98331	1.48902	2.55695	1.34029	3.18536	0.191773	1.30858	0.198717	1.02795	0.75313	2.03602	0.630441	2.1498	0.0313995	0.935245	0.971871	2.09012	-0.146342	1.16193	0.123514	0.923596	
2.65503	0	0	0.108057	1.67957	0.108028	1.15147	0.52287	1.50903	0.189566	0.979366	1.65381	2.40236	1.05894	2.99941	1.48648	2.56413	1.33604	3.19736	0.187482	1.3207	0.199803	1.03939	0.756221	2.04826	0.635004	2.16749	0.0345208	0.949489	0.975209	2.11321	-0.150206	1.17285	0.122574	0.934687	
2.65808	0	0	0.104576	1.67035	0.109802	1.14646	0.527178	1.49686	0.190612	0.976411	1.64313	2.41326	1.04366	3.01552	1.48394	2.57131	1.3318	3.20935	0.183191	1.33283	0.200889	1.05082	0.759312	2.06049	0.639567	2.18518	0.037642	0.963734	0.978548	2.13631	-0.15407	1.18377	0.121633	0.945778	
2.64587	0	0	0.108097	1.6604	0.109802	1.14646	0.52933	1.49078	0.190612	0.976411	1.6423	2.40597	1.04647	3.00756	1.48267	2.5749	1.32453	3.22103	0.185683	1.3382	0.198491	1.05759	0.754484	2.06365	0.636389	2.19416	0.0298388	0.962722	0.982485	2.13604	-0.160119	1.17723	0.124712	0.945514	
2.63824	0	0	0.111618	1.65045	0.109802	1.14646	0.531482	1.4847	0.190612	0.976411	1.64146	2.39867	1.04929	2.9996	1.48139	2.57849	1.31725	3.23271	0.188174	1.34357	0.196093	1.06437	0.749656	2.0668	0.633212	2.20314	0.0220355	0.961709	0.986422	2.13577	-0.166168	1.17069	0.127791	0.94525	
2.63672	0	0	0.115138	1.6405	0.109802	1.14646	0.533634	1.47862	0.190612	0.976411	1.64063	2.39138	1.0521	2.99165	1.48012	2.58208	1.30998	3.24438	0.190665	1.34895	0.193695	1.07115	0.744827	2.06996	0.630035	2.21212	0.0142323	0.960697	0.99036	2.1355	-0.172217	1.16415	0.13087	0.944985	
2.62909	0	0	0.118659	1.63055	0.109802	1.14646	0.535786	1.47253	0.190612	0.976411	1.6398	2.38408	1.05492	2.98369	1.47885	2.58568	1.30271	3.25606	0.193157	1.35432	0.191297	1.07793	0.739999	2.07311	0.626857	2.2211	0.006429	0.959685	0.994297	2.13523	-0.178266	1.15761	0.133949	0.944721	
2.62604	0	0	0.111657	1.6313	0.110146	1.15394	0.537936	1.46646	0.191735	0.984768	1.62838	2.37786	1.06457	2.9835	1.47631	2.59286	1.31055	3.26944	0.197064	1.36813	0.202542	1.08971	0.735173	2.07627	0.632999	2.23437	0.006429	0.959685	0.991115	2.14423	-0.1837	1.16116	0.131535	0.951545	
2.61993	0	0	0.104655	1.63206	0.110489	1.16143	0.540086	1.46038	0.192857	0.993126	1.61695	2.37163	1.07422	2.98331	1.47377	2.60005	1.31839	3.28282	0.200971	1.38193	0.213786	1.1015	0.730348	2.07942	0.639141	2.24765	0.006429	0.959685	0.987934	2.15322	-0.189134	1.16471	0.12912	0.958368	
2.61536	0	0	0.0976537	1.63281	0.110833	1.16891	0.542237	1.4543	0.193979	1.00148	1.60552	2.3654	1.08388	2.98312	1.47122	2.60724	1.32622	3.2962	0.204879	1.39574	0.225031	1.11329	0.725523	2.08257	0.645283	2.26093	0.006429	0.959685	0.984752	2.16221	-0.194569	1.16826	0.126706	0.965191	
2.61078	0	0	0.090652	1.63356	0.111177	1.1764	0.544387	1.44823	0.195102	1.00984	1.5941	2.35917	1.09353	2.98293	1.46868	2.61443	1.33406	3.30957	0.208786	1.40955	0.236276	1.12508	0.720697	2.08573	0.651425	2.2742	0.006429	0.959685	0.98157	2.1712	-0.200003	1.17181	0.124292	0.972015	
2.6123	0	0	0.0767085	1.61598	0.106056	1.17396	0.544795	1.42464	0.192934	1.00444	1.57572	2.34387	1.07424	2.98331	1.46538	2.61106	1.33389	3.31896	0.208042	1.42409	0.240034	1.14356	0.711993	2.08937	0.646641	2.28773	0.00765975	0.979272	0.975197	2.18921	-0.209297	1.18628	0.126423	0.982878	
2.60773	0	0	0.062765	1.5984	0.100935	1.17153	0.545203	1.40107	0.190766	0.999035	1.55735	2.32857	1.05495	2.98368	1.46208	2.60769	1.33371	3.32834	0.207297	1.43863	0.243792	1.16205	0.703288	2.09302	0.641857	2.30125	0.0088905	0.99886	0.968824	2.20722	-0.21859	1.20075	0.128554	0.993741	
2.60925	0	0	0.0488215	1.58082	0.0958148	1.16909	0.545611	1.37749	0.188598	0.993633	1.53898	2.31327	1.03566	2.98406	1.45877	2.60432	1.33354	3.33772	0.206553	1.45317	0.24755	1.18053	0.694584	2.09667	0.637072	2.31477	0.0101212	1.01845	0.962451	2.22523	-0.227884	1.21521	0.130686	1.0046	
2.60467	0	0	0.034878	1.56323	0.090694	1.16665	0.546019	1.3539	0.18643	0.98823	1.52061	2.29796	1.01636	2.98444	1.45547	2.60095	1.33337	3.3471	0.205809	1.46771	0.251308	1.19901	0.68588	2.10032	0.632288	2.32829	0.011352	1.03803	0.956078	2.24325	-0.237178	1.22968	0.132817	1.01547	
2.60315	0	0	0.0279292	1.54498	0.0915808	1.16414	0.53397	1.34318	0.183218	0.985787	1.49701	2.28812	1.00674	2.98462	1.44506	2.60499	1.33622	3.35684	0.206137	1.47923	0.25667	1.213	0.672251	2.09701	0.629095	2.33731	0.0044935	1.03435	0.949275	2.24076	-0.243201	1.22312	0.132817	1.01547	
2.6062	0	0	0.0209805	1.52672	0.0924675	1.16164	0.521921	1.33246	0.180005	0.983344	1.47341	2.27828	0.997117	2.9848	1.43465	2.60903	1.33907	3.36658	0.206464	1.49075	0.262033	1.227	0.658622	2.09369	0.625901	2.34634	-0.002365	1.03067	0.942472	2.23828	-0.249224	1.21657	0.132817	1.01547	
2.6062	5	0	0.0140317	1.50846	0.0933542	1.15913	0.509872	1.32174	0.176793	0.9809	1.44982	2.26844	0.987495	2.98499	1.42425	2.61307	1.34192	3.37632	0.206792	1.50227	0.267396	1.24099	0.644994	2.09038	0.622707	2.35536	-0.0092235	1.02699	0.935669	2.2358	-0.255248	1.21001	0.132817	1.01547	
2.60773	5	0	0.007083	1.49021	0.094241	1.15663	0.497823	1.31102	0.17358	0.978457	1.42622	2.2586	0.977872	2.98517	1.41384	2.61711	1.34477	3.38606	0.20712	1.5138	0.272758	1.25498	0.631365	2.08706	0.619514	2.36439	-0.016082	1.0233	0.928866	2.23332	-0.261271	1.20346	0.132817	1.01547	
2.60773	5	0	-0.00337075	1.50083	0.0958108	1.1691	0.495686	1.31706	0.169398	0.990278	1.41662	2.25712	0.990305	2.97704	1.4113	2.6243	1.35065	3.39617	0.214261	1.51853	0.277992	1.26208	0.629367	2.08227	0.620175	2.37786	-0.024808	1.02493	0.927804	2.23632	-0.269215	1.20236	0.135092	1.01749	
2.60773	5	0	-0.0138245	1.51146	0.0973805	1.18157	0.493549	1.3231	0.165215	1.0021	1.40701	2.25564	1.00274	2.96892	1.40875	2.63148	1.35653	3.40628	0.221402	1.52327	0.283226	1.26918	0.627368	2.07747	0.620837	2.39132	-0.033534	1.02655	0.926741	2.23932	-0.27716	1.20127	0.137367	1.01951	
2.61383	5	0	-0.0242783	1.52208	0.0989503	1.19404	0.491411	1.32914	0.161032	1.01392	1.39741	2.25416	1.01517	2.9608	1.40621	2.63867	1.36242	3.41639	0.228542	1.528	0.288459	1.27628	0.62537	2.07267	0.621499	2.40479	-0.04226	1.02818	0.925678	2.24233	-0.285104	1.20017	0.139642	1.02152	
2.61383	5	0	-0.034732	1.53271	0.10052	1.20652	0.489274	1.33518	0.15685	1.02574	1.38781	2.25269	1.0276	2.95267	1.40367	2.64585	1.3683	3.42649	0.235683	1.53274	0.293693	1.28338	0.623372	2.06788	0.62216	2.41825	-0.050986	1.0298	0.924616	2.24533	-0.293048	1.19908	0.141917	1.02354	
2.61536	5	0	-0.039939	1.52852	0.104414	1.20397	0.483262	1.32983	0.157896	1.02278	1.38699	2.24548	1.01798	2.95286	1.4024	2.64945	1.36331	3.42277	0.229947	1.53649	0.29114	1.28329	0.615638	2.06886	0.620559	2.42278	-0.053802	1.03776	0.922164	2.26311	-0.295941	1.20725	0.140303	1.02811	
2.6123	5	0	-0.045146	1.52434	0.108308	1.20143	0.477251	1.32447	0.158942	1.01983	1.38616	2.23827	1.00835	2.95305	1.40112	2.65304	1.35831	3.41906	0.224211	1.54023	0.288588	1.28321	0.607904	2.06985	0.618958	2.4273	-0.056618	1.04572	0.919712	2.28089	-0.298835	1.21543	0.138688	1.03267	
2.61383	5	0	-0.050353	1.52016	0.112202	1.19888	0.471239	1.31911	0.159988	1.01687	1.38534	2.23106	0.998728	2.95324	1.39985	2.65664	1.35332	3.41534	0.218475	1.54398	0.286035	1.28312	0.60017	2.07084	0.617357	2.43183	-0.059434	1.05367	0.917259	2.29867	-0.301728	1.22361	0.137074	1.03723	
2.61383	5	0	-0.05556	1.51597	0.116096	1.19634	0.465227	1.31376	0.161034	1.01391	1.38452	2.22385	0.989103	2.95343	1.39858	2.66023	1.34833	3.41162	0.212739	1.54773	0.283483	1.28303	0.592436	2.07183	0.615756	2.43635	-0.06225	1.06163	0.914807	2.31646	-0.304621	1.23179	0.13546	1.04179	
2.6062	5	0	-0.050353	1.52016	0.11343	1.20387	0.471239	1.31911	0.164245	1.01636	1.39762	2.22497	0.998728	2.95324	1.4006	2.66721	1.34121	3.41395	0.213821	1.54467	0.274091	1.28041	0.593371	2.06919	0.612551	2.44541	-0.0734377	1.05875	0.921607	2.31896	-0.306177	1.22442	0.131572	1.04433	
2.60162	5	0	-0.045146	1.52434	0.110764	1.21141	0.477251	1.32447	0.167455	1.01881	1.41072	2.2261	1.00835	2.95305	1.40262	2.67419	1.33408	3.41629	0.214904	1.54161	0.264699	1.27778	0.594306	2.06654	0.609346	2.45447	-0.0846255	1.05586	0.928408	2.32146	-0.307734	1.21706	0.127683	1.04687	
2.6001	5	0	-0.039939	1.52852	0.108097	1.21894	0.483262	1.32983	0.170665	1.02126	1.42382	2.22722	1.01798	2.95286	1.40464	2.68116	1.32695	3.41862	0.215987	1.53855	0.255308	1.27515	0.595241	2.0639	0.606141	2.46353	-0.0958133	1.05298	0.935208	2.32396	-0.30929	1.2097	0.123795	1.04941	
2.59857	5	0	-0.034732	1.53271	0.105431	1.22648	0.489274	1.33518	0.173876	1.02371	1.43693	2.22834	1.0276	2.95267	1.40666	2.68814	1.31983	3.42095	0.217069	1.5355	0.245916	1.27252	0.596176	2.06126	0.602936	2.47258	-0.107001	1.0501	0.942008	2.32646	-0.310847	1.20233	0.119906	1.05195	
2.58942	5	0	-0.0347708	1.55174	0.106658	1.23148	0.49315	1.3466	0.170734	1.03259	1.44469	2.24461	1.01917	2.97652	1.4158	2.68771	1.31164	3.4263	0.213501	1.53313	0.244981	1.26788	0.603911	2.06027	0.612257	2.47695	-0.107939	1.05275	0.948485	2.34079	-0.311811	1.20506	0.122987	1.0517	
2.58636	5	0	-0.0348095	1.57076	0.107885	1.23647	0.497027	1.35802	0.167593	1.04147	1.45246	2.26089	1.01073	3.00037	1.42493	2.68727	1.30345	3.43165	0.209932	1.53076	0.244046	1.26324	0.611646	2.05928	0.621578	2.48132	-0.108877	1.0554	0.954962	2.35511	-0.312774	1.20778	0.126068	1.05144	
2.58179	5	0	-0.0348482	1.58979	0.109113	1.24147	0.500903	1.36943	0.164451	1.05035	1.46023	2.27716	1.00229	3.02421	1.43407	2.68684	1.29527	3.437	0.206364	1.52839	0.243111	1.25859	0.61938	2.05829	0.630899	2.48569	-0.109815	1.05805	0.961439	2.36944	-0.313738	1.2105	0.129149	1.05118	
2.58026	5	0	-0.034887	1.60882	0.11034	1.24646	0.50478	1.38085	0.161309	1.05923	1.468	2.29344	0.993852	3.04806	1.44321	2.6864	1.28708	3.44235	0.202795	1.52602	0.242176	1.25395	0.627115	2.0573	0.64022	2.49005	-0.110753	1.0607	0.967916	2.38376	-0.314702	1.21323	0.13223	1.05092	
2.57873	5	0	-0.029676	1.61303	0.105554	1.25152	0.502637	1.38691	0.157054	1.05973	1.47853	2.29239	1.00349	3.04789	1.44321	2.6864	1.28211	3.43863	0.201389	1.51754	0.234411	1.24678	0.626051	2.04987	0.64022	2.49005	-0.116637	1.05436	0.964707	2.39283	-0.322628	1.21213	0.130763	1.04662	
2.57721	5	0	-0.024465	1.61724	0.100768	1.25659	0.500494	1.39296	0.152798	1.06023	1.48906	2.29134	1.01312	3.04772	1.44321	2.6864	1.27713	3.43491	0.199984	1.50907	0.226647	1.23961	0.624987	2.04244	0.64022	2.49005	-0.122521	1.04802	0.961499	2.4019	-0.330554	1.21103	0.129296	1.04231	
2.58026	5	0	-0.019254	1.62145	0.0959828	1.26165	0.498351	1.39902	0.148542	1.06074	1.4996	2.29029	1.02275	3.04754	1.44321	2.6864	1.27216	3.43119	0.198578	1.5006	0.218882	1.23244	0.623922	2.03501	0.64022	2.49005	-0.128404	1.04169	0.95829	2.41097	-0.338481	1.20992	0.12783	1.03801	
2.58026	5	0	-0.014043	1.62566	0.091197	1.26671	0.496208	1.40508	0.144287	1.06124	1.51013	2.28924	1.03239	3.04737	1.44321	2.6864	1.26719	3.42747	0.197173	1.49212	0.211117	1.22527	0.622858	2.02758	0.64022	2.49005	-0.134288	1.03535	0.955081	2.42003	-0.346407	1.20882	0.126363	1.03371	
2.58026	5	0	-0.01234	1.63981	0.092421	1.27171	0.50008	1.41654	0.146447	1.06666	1.51799	2.29579	1.03921	3.05517	1.44321	2.6864	1.26417	3.42712	0.199332	1.48602	0.210182	1.22064	0.627662	2.02444	0.644083	2.49451	-0.135824	1.02822	0.96477	2.42534	-0.349885	1.20691	0.122476	1.03625	
2.58331	5	0	-0.010637	1.65395	0.093645	1.27672	0.503951	1.42799	0.148606	1.07208	1.52586	2.30233	1.04604	3.06297	1.44321	2.6864	1.26115	3.42677	0.201491	1.47992	0.209248	1.21601	0.632466	2.0213	0.647946	2.49897	-0.13736	1.02109	0.974459	2.43064	-0.353363	1.205	0.118589	1.03879	
2.58026	5	0	-0.008934	1.6681	0.094869	1.28172	0.507823	1.43945	0.150765	1.0775	1.53372	2.30888	1.05286	3.07077	1.44321	2.6864	1.25813	3.42642	0.20365	1.47382	0.208313	1.21138	0.637269	2.01816	0.651808	2.50343	-0.138897	1.01396	0.984147	2.43595	-0.35684	1.20309	0.114702	1.04133	
2.58636	5	0	-0.007231	1.68224	0.096093	1.28673	0.511695	1.45091	0.152925	1.08292	1.54158	2.31542	1.05969	3.07857	1.44321	2.6864	1.25512	3.42607	0.205809	1.46771	0.207378	1.20675	0.642073	2.01502	0.655671	2.50788	-0.140433	1.00683	0.993836	2.44125	-0.360318	1.20118	0.110815	1.04387	
2.58331	5	0	-0.003718	1.67231	0.0930882	1.28675	0.513842	1.44484	0.153973	1.07996	1.5451	2.31507	1.05404	3.09455	1.44449	2.6828	1.24802	3.42839	0.202242	1.46536	0.203229	1.21121	0.64314	2.02245	0.661794	2.52136	-0.138897	1.01396	0.995293	2.45895	-0.358767	1.20853	0.109201	1.04843	
2.57873	5	0	-0.000205	1.66239	0.0900835	1.28678	0.515989	1.43877	0.155022	1.077	1.54862	2.31472	1.04838	3.11052	1.44576	2.6792	1.24092	3.43071	0.198676	1.463	0.19908	1.21567	0.644207	2.02988	0.667917	2.53485	-0.13736	1.02109	0.99675	2.47666	-0.357217	1.21589	0.107587	1.05299	
2.58789	5	0	0.003308	1.65246	0.0870787	1.28681	0.518137	1.4327	0.15607	1.07403	1.55214	2.31437	1.04273	3.1265	1.44703	2.6756	1.23382	3.43303	0.195109	1.46064	0.19493	1.22013	0.645274	2.03731	0.674039	2.54833	-0.135824	1.02822	0.998207	2.49436	-0.355666	1.22325	0.105972	1.05755	
2.58484	5	0	0.006821	1.64253	0.084074	1.28684	0.520284	1.42663	0.157118	1.07107	1.55566	2.31402	1.03708	3.14247	1.44831	2.672	1.22672	3.43535	0.191542	1.45828	0.190781	1.22458	0.646341	2.04474	0.680162	2.56181	-0.134288	1.03535	0.999664	2.51207	-0.354115	1.2306	0.104358	1.06211	
2.57721	5	0	0.001605	1.63831	0.0870787	1.28681	0.520284	1.42663	0.157118	1.07107	1.55393	2.3093	1.03991	3.13448	1.44958	2.6684	1.22672	3.43535	0.183338	1.45662	0.192389	1.22004	0.647276	2.04209	0.67855	2.56637	-0.144504	1.02983	1.00362	2.51182	-0.360104	1.22406	0.105165	1.05983	
2.58026	5	0	-0.003611	1.6341	0.0900835	1.28678	0.520284	1.42663	0.157118	1.07107	1.55221	2.30458	1.04273	3.12649	1.45086	2.6648	1.22672	3.43535	0.175134	1.45495	0.193996	1.2155	0.648212	2.03945	0.676938	2.57092	-0.154721	1.0243	1.00757	2.51158	-0.366092	1.21751	0.105972	1.05755	
2.57568	5	0	-0.008827	1.62988	0.0930882	1.28675	0.520284	1.42663	0.157118	1.07107	1.55048	2.29987	1.04556	3.1185	1.45213	2.6612	1.22672	3.43535	0.166931	1.45329	0.195603	1.21096	0.649147	2.03681	0.675326	2.57548	-0.164938	1.01878	1.01152	2.51133	-0.37208	1.21096	0.10678	1.05527	
2.56958	5	0	-0.014043	1.62566	0.096093	1.28673	0.520284	1.42663	0.157118	1.07107	1.54875	2.29515	1.04839	3.11051	1.45341	2.6576	1.22672	3.43535	0.158727	1.45162	0.197211	1.20641	0.650082	2.03416	0.673714	2.58004	-0.175154	1.01326	1.01547	2.51109	-0.378069	1.20441	0.107587	1.05299	
2.565	5	0	-0.010583	1.63484	0.095533	1.29678	0.518137	1.4327	0.163539	1.07599	1.55317	2.29226	1.04556	3.1185	1.45341	2.6576	1.23275	3.43605	0.159804	1.44858	0.196407	1.20869	0.653021	2.03631	0.675967	2.58908	-0.178555	1.01142	1.0162	2.51996	-0.382503	1.20522	0.111474	1.05045	
2.565	5	0	-0.007123	1.64402	0.094973	1.30683	0.515989	1.43877	0.169959	1.08091	1.55759	2.28938	1.04273	3.12649	1.45341	2.6576	1.23878	3.43675	0.160882	1.44553	0.195603	1.21096	0.655959	2.03845	0.678221	2.59812	-0.181957	1.00958	1.01692	2.52884	-0.386937	1.20603	0.115361	1.04791	
2.56195	5	0	-0.003663	1.6532	0.094413	1.31688	0.513842	1.44484	0.17638	1.08583	1.56201	2.28649	1.03991	3.13448	1.45341	2.6576	1.24481	3.43745	0.161959	1.44249	0.1948	1.21323	0.658898	2.0406	0.680474	2.60717	-0.185358	1.00774	1.01765	2.53771	-0.391372	1.20683	0.119248	1.04537	
2.55737	5	0	-0.000203	1.66238	0.093853	1.32693	0.511695	1.45091	0.182801	1.09075	1.56642	2.2836	1.03708	3.14247	1.45341	2.6576	1.25084	3.43815	0.163036	1.43944	0.193996	1.2155	0.661836	2.04274	0.682727	2.61621	-0.188759	1.0059	1.01837	2.54659	-0.395806	1.20764	0.123135	1.04283	
2.55432	5	0	0.003308	1.65246	0.0956368	1.32189	0.515988	1.43878	0.17959	1.08829	1.56649	2.27383	1.04273	3.1265	1.45722	2.6468	1.24996	3.43176	0.164113	1.4364	0.190652	1.21768	0.658091	2.05333	0.679496	2.62535	-0.184762	1.01751	1.02089	2.56134	-0.406013	1.22477	0.116018	1.0545	
2.54822	5	0	0.006819	1.64254	0.0974205	1.31685	0.520282	1.42664	0.176378	1.08583	1.56655	2.26406	1.04838	3.11052	1.46104	2.63601	1.24908	3.42538	0.165189	1.43336	0.187308	1.21987	0.654346	2.06391	0.676265	2.63448	-0.180765	1.02913	1.02342	2.57608	-0.416219	1.24189	0.1089	1.06617	
2.54669	5	0	0.01033	1.63261	0.0992042	1.31181	0.524575	1.41451	0.173167	1.08337	1.56661	2.25429	1.05404	3.09455	1.46486	2.62522	1.2482	3.41899	0.166266	1.43031	0.183964	1.22205	0.6506	2.0745	0.673033	2.64361	-0.176768	1.04074	1.02594	2.59083	-0.426426	1.25902	0.101783	1.07784	
2.54364	5	0	0.013841	1.62269	0.100988	1.30676	0.528868	1.40237	0.169956	1.08091	1.56667	2.24452	1.05969	3.07857	1.46868	2.61443	1.24732	3.4126	0.167343	1.42727	0.18062	1.22424	0.646855	2.08508	0.669802	2.65274	-0.172771	1.05236	1.02846	2.60558	-0.436633	1.27615	0.094666	1.0895	
2.54211	5	0	0.013841	1.62269	0.100096	1.30929	0.528868	1.40237	0.174217	1.0804	1.56846	2.23946	1.05686	3.08655	1.46283	2.61825	1.24732	3.4126	0.166266	1.43031	0.182356	1.2266	0.644981	2.09038	0.673667	2.65724	-0.178045	1.0558	1.02522	2.61473	-0.43567	1.27343	0.094666	1.0895	
2.54211	5	0	0.013841	1.62269	0.0992045	1.31181	0.528868	1.40237	0.178478	1.0799	1.57025	2.2344	1.05404	3.09454	1.45699	2.62207	1.24732	3.4126	0.165189	1.43336	0.184092	1.22896	0.643107	2.09567	0.677532	2.66174	-0.183318	1.05925	1.02198	2.62389	-0.434706	1.2707	0.094666	1.0895	
2.53754	5	0	0.013841	1.62269	0.0983127	1.31433	0.528868	1.40237	0.182738	1.07939	1.57204	2.22934	1.05121	3.10252	1.45114	2.62589	1.24732	3.4126	0.164113	1.4364	0.185829	1.23131	0.641232	2.10097	0.681397	2.66625	-0.188592	1.06269	1.01874	2.63304	-0.433743	1.26798	0.094666	1.0895	
2.54211	5	0	0.013841	1.62269	0.097421	1.31685	0.528868	1.40237	0.186999	1.07889	1.57383	2.22428	1.04839	3.11051	1.4453	2.6297	1.24732	3.4126	0.163036	1.43944	0.187565	1.23367	0.639358	2.10627	0.685262	2.67075	-0.193866	1.06614	1.0155	2.6422	-0.43278	1.26526	0.094666	1.0895	
2.53906	5	0	0.005056	1.64752	0.100759	1.32436	0.524575	1.41451	0.188113	1.08728	1.5755	2.23876	1.05239	3.12634	1.45317	2.63286	1.24908	3.42538	0.169084	1.4472	0.191972	1.24303	0.644294	2.11323	0.689755	2.68894	-0.194215	1.07858	1.02197	2.65677	-0.432206	1.27536	0.0945105	1.09839	
2.53906	5	0	-0.003729	1.67234	0.104096	1.33188	0.520282	1.42664	0.189226	1.09568	1.57717	2.25323	1.05638	3.14218	1.46105	2.63601	1.25084	3.43817	0.175131	1.45496	0.196378	1.25239	0.64923	2.1202	0.694249	2.70713	-0.194564	1.09103	1.02844	2.67135	-0.431632	1.28545	0.094355	1.10727	
2.54059	0	0	-0.012514	1.69717	0.107433	1.33939	0.515988	1.43878	0.190339	1.10407	1.57884	2.26771	1.06038	3.15802	1.46893	2.63916	1.2526	3.45095	0.181179	1.46272	0.200785	1.26175	0.654166	2.12717	0.698742	2.72532	-0.194913	1.10347	1.03491	2.68593	-0.431058	1.29555	0.0941995	1.11616	
2.54211	0	0	-0.021299	1.722	0.110771	1.34691	0.511695	1.45091	0.191453	1.11247	1.58052	2.28219	1.06438	3.17385	1.4768	2.64231	1.25436	3.46373	0.187227	1.47048	0.205191	1.27111	0.659102	2.13413	0.703235	2.7435	-0.195262	1.11592	1.04138	2.70051	-0.430484	1.30564	0.094044	1.12504	
2.54211	0	0	-0.014325	1.72127	0.10809	1.35448	0.509546	1.45698	0.18509	1.11891	1.58315	2.28437	1.06154	3.18187	1.47298	2.65311	1.25933	3.46746	0.186148	1.47353	0.205317	1.27804	0.66298	2.13364	0.699987	2.75268	-0.202775	1.13715	1.03379	2.72196	-0.446093	1.32633	0.0891862	1.13877	
2.53906	0	0	-0.007351	1.72053	0.10541	1.36206	0.507397	1.46306	0.178726	1.12535	1.58577	2.28655	1.0587	3.18988	1.46916	2.66392	1.2643	3.47119	0.185069	1.47658	0.205443	1.28496	0.666859	2.13314	0.69674	2.76186	-0.210288	1.15838	1.02619	2.74342	-0.461703	1.34702	0.0843285	1.1525	
2.53906	0	0	-0.000377	1.7198	0.10273	1.36963	0.505248	1.46913	0.172363	1.13179	1.5884	2.28873	1.05587	3.19789	1.46533	2.67472	1.26927	3.47492	0.18399	1.47963	0.205568	1.29188	0.670737	2.13265	0.693493	2.77104	-0.2178	1.17961	1.0186	2.76488	-0.477313	1.3677	0.0794708	1.16623	
2.53906	0	0	0.006597	1.71907	0.100049	1.37721	0.503099	1.4752	0.165999	1.13824	1.59103	2.29091	1.05303	3.20591	1.46151	2.68553	1.27424	3.47865	0.182911	1.48267	0.205694	1.2988	0.674616	2.13216	0.690245	2.78022	-0.225313	1.20085	1.01101	2.78633	-0.492922	1.38839	0.074613	1.17996	
2.53601	0	0	0.0065255	1.73827	0.102488	1.38728	0.506965	1.4867	0.172422	1.14318	1.59539	2.29781	1.05702	3.22182	1.46556	2.69953	1.27385	3.49754	0.182153	1.49725	0.209292	1.31048	0.674737	2.14229	0.696351	2.7939	-0.227194	1.20616	1.01567	2.79509	-0.496789	1.39932	0.0721813	1.18683	
2.53448	0	0	0.006454	1.75746	0.104928	1.39735	0.510832	1.4982	0.178845	1.14812	1.59976	2.30472	1.061	3.23773	1.46961	2.71352	1.27345	3.51643	0.181396	1.51183	0.212891	1.32216	0.674859	2.15242	0.702457	2.80758	-0.229075	1.21148	1.02033	2.80385	-0.500656	1.41024	0.0697495	1.1937	
2.52991	0	0	0.0063825	1.77666	0.107367	1.40742	0.514699	1.5097	0.185267	1.15306	1.60412	2.31162	1.06499	3.25364	1.47366	2.72752	1.27306	3.53533	0.180639	1.52641	0.21649	1.33384	0.67498	2.16255	0.708563	2.82127	-0.230956	1.21679	1.025	2.81261	-0.504522	1.42117	0.0673177	1.20058	
2.52685	0	0	0.006311	1.79586	0.109806	1.41749	0.518565	1.5212	0.19169	1.158	1.60848	2.31852	1.06897	3.26955	1.47771	2.74152	1.27267	3.55422	0.179881	1.54099	0.220088	1.34552	0.675101	2.17268	0.714669	2.83495	-0.232837	1.22211	1.02966	2.82137	-0.508389	1.4321	0.064886	1.20745	
2.52533	0	0	-0.00950125	1.82155	0.100524	1.43524	0.51641	1.52729	0.184269	1.16743	1.60661	2.33342	1.0758	3.27746	1.47718	2.75577	1.27529	3.57354	0.191666	1.54505	0.229714	1.36209	0.675218	2.18282	0.720778	2.84868	-0.234152	1.23729	1.02818	2.83654	-0.504384	1.44421	0.0639057	1.21867	
2.51922	0	0	-0.0253135	1.84724	0.0912425	1.45298	0.514255	1.53338	0.176847	1.17685	1.60475	2.34832	1.08263	3.28537	1.47664	2.77002	1.27791	3.59285	0.203451	1.54911	0.239339	1.37866	0.675334	2.19297	0.726887	2.8624	-0.235467	1.25247	1.0267	2.8517	-0.500379	1.45632	0.0629255	1.22989	
2.52228	0	0	-0.0411258	1.87294	0.0819607	1.47073	0.512101	1.53947	0.169426	1.18628	1.60288	2.36322	1.08946	3.29327	1.4761	2.78427	1.28053	3.61217	0.215235	1.55316	0.248964	1.39523	0.675451	2.20312	0.732996	2.87613	-0.236782	1.26766	1.02522	2.86686	-0.496374	1.46843	0.0619453	1.24111	
2.52075	0	0	-0.056938	1.89863	0.072679	1.48848	0.509946	1.54556	0.162004	1.1957	1.60101	2.37812	1.09629	3.30118	1.47557	2.79853	1.28314	3.63149	0.22702	1.55722	0.25859	1.4118	0.675568	2.21327	0.739105	2.88986	-0.238097	1.28284	1.02374	2.88202	-0.492369	1.48054	0.060965	1.25233	
2.51465	0	0	-0.0587078	1.90363	0.0747893	1.491	0.50779	1.55165	0.155638	1.20215	1.59928	2.37338	1.09914	3.29313	1.473	2.80577	1.28704	3.63831	0.229508	1.56266	0.264625	1.41667	0.672628	2.2111	0.739105	2.88986	-0.242432	1.28362	1.02304	2.87301	-0.497762	1.48406	0.0578883	1.25257	
2.52075	0	0	-0.0604775	1.90863	0.0768995	1.49352	0.505634	1.55775	0.149272	1.20859	1.59755	2.36865	1.10199	3.28508	1.47044	2.81301	1.29094	3.64513	0.231996	1.5681	0.27066	1.42153	0.669689	2.20893	0.739105	2.88986	-0.246766	1.28441	1.02235	2.864	-0.503155	1.48759	0.0548115	1.25282	
2.52685	5	0	-0.0622473	1.91363	0.0790097	1.49604	0.503477	1.56384	0.142906	1.21504	1.59582	2.36391	1.10483	3.27704	1.46788	2.82025	1.29483	3.65195	0.234485	1.57354	0.276696	1.4264	0.666749	2.20676	0.739105	2.88986	-0.251101	1.28519	1.02165	2.85499	-0.508548	1.49111	0.0517347	1.25307	
2.53296	5	0	-0.064017	1.91864	0.08112	1.49856	0.501321	1.56994	0.13654	1.22149	1.5941	2.35917	1.10768	3.26899	1.46531	2.8275	1.29873	3.65877	0.236973	1.57898	0.282731	1.43127	0.66381	2.20458	0.739105	2.88986	-0.255435	1.28598	1.02096	2.84598	-0.513941	1.49463	0.048658	1.25331	
2.54822	5	0	-0.0553863	1.93225	0.083545	1.50868	0.497004	1.58214	0.140843	1.23242	1.59582	2.36391	1.11453	3.2769	1.4732	2.83071	1.3035	3.67208	0.239462	1.58442	0.287147	1.44074	0.66381	2.20458	0.741343	2.89905	-0.255435	1.28598	1.01373	2.85543	-0.51588	1.50012	0.0462212	1.2602	
2.55585	5	0	-0.0467555	1.94587	0.08597	1.51881	0.492687	1.59434	0.145145	1.24336	1.59755	2.36865	1.12137	3.28481	1.48109	2.83391	1.30826	3.68539	0.241951	1.58987	0.291563	1.45021	0.66381	2.20458	0.74358	2.90824	-0.255435	1.28598	1.0065	2.86488	-0.517819	1.5056	0.0437845	1.26708	
2.56042	5	0	-0.0381247	1.95949	0.088395	1.52894	0.48837	1.60654	0.149448	1.25429	1.59928	2.37338	1.12821	3.29272	1.48897	2.83712	1.31303	3.6987	0.244439	1.59532	0.295979	1.45968	0.66381	2.20458	0.745818	2.91743	-0.255435	1.28598	0.999272	2.87434	-0.519759	1.51108	0.0413478	1.27397	
2.57263	5	0	-0.029494	1.97311	0.09082	1.53906	0.484053	1.61874	0.153751	1.26523	1.60101	2.37812	1.13505	3.30063	1.49686	2.84033	1.3178	3.712	0.246928	1.60076	0.300395	1.46916	0.66381	2.20458	0.748056	2.92662	-0.255435	1.28598	0.992044	2.88379	-0.521698	1.51656	0.038911	1.28086	
2.58179	5	0	-0.027719	1.9681	0.091719	1.53652	0.484053	1.61874	0.160126	1.25877	1.59831	2.38575	1.1168	3.32496	1.49429	2.84759	1.3165	3.72461	0.24367	1.60997	0.300625	1.48315	0.668748	2.21159	0.747014	2.94509	-0.249033	1.3023	0.998477	2.89855	-0.521595	1.53971	0.0379208	1.2921	
2.59552	5	0	-0.025944	1.96308	0.092618	1.53398	0.484053	1.61874	0.166501	1.25231	1.59561	2.39339	1.09855	3.34929	1.49173	2.85484	1.3152	3.73721	0.240412	1.61918	0.300855	1.49715	0.673687	2.2186	0.745972	2.96356	-0.242631	1.31862	1.00491	2.91331	-0.521493	1.56286	0.0369305	1.30335	
2.60162	5	0	-0.024169	1.95806	0.093517	1.53144	0.484053	1.61874	0.172876	1.24585	1.59291	2.40103	1.0803	3.37362	1.48916	2.8621	1.31391	3.74981	0.237153	1.62839	0.301085	1.51115	0.678625	2.22561	0.74493	2.98204	-0.236228	1.33495	1.01134	2.92806	-0.52139	1.58602	0.0359402	1.3146	
2.61688	5	0	-0.022394	1.95305	0.094416	1.5289	0.484053	1.61874	0.179251	1.23939	1.5902	2.40866	1.06205	3.39795	1.48659	2.86936	1.31261	3.76241	0.233895	1.63759	0.301315	1.52515	0.683563	2.23261	0.743888	3.00051	-0.229826	1.35127	1.01778	2.94282	-0.521288	1.60917	0.03495	1.32585	
2.61688	5	0	-0.008414	1.95163	0.0947288	1.53651	0.492227	1.61809	0.181407	1.24486	1.5884	2.41376	1.07173	3.39783	1.48402	2.87662	1.3113	3.77504	0.238556	1.63691	0.305617	1.52765	0.68262	2.23528	0.746117	3.00975	-0.233219	1.34938	1.02174	2.9426	-0.522261	1.61192	0.0372123	1.32791	
2.62604	5	0	0.005566	1.95021	0.0950415	1.54412	0.500401	1.61744	0.183563	1.25034	1.5866	2.41885	1.08142	3.39771	1.48145	2.88389	1.31	3.78767	0.243217	1.63623	0.309918	1.53016	0.681677	2.23794	0.748347	3.01899	-0.236613	1.34749	1.02571	2.94238	-0.523235	1.61467	0.0394745	1.32997	
2.63977	5	0	0.019546	1.94879	0.0953543	1.55173	0.508574	1.6168	0.185719	1.25581	1.5848	2.42394	1.0911	3.3976	1.47888	2.89115	1.30869	3.80029	0.247877	1.63554	0.31422	1.53266	0.680734	2.24061	0.750576	3.02823	-0.240007	1.3456	1.02968	2.94216	-0.524208	1.61742	0.0417368	1.33203	
2.63824	5	0	0.033526	1.94737	0.095667	1.55934	0.516748	1.61615	0.187875	1.26128	1.58299	2.42904	1.10078	3.39748	1.47631	2.89841	1.30739	3.81292	0.252538	1.63486	0.318522	1.53516	0.679791	2.24327	0.752805	3.03747	-0.2434	1.34371	1.03364	2.94195	-0.525181	1.62017	0.043999	1.33408	
2.63824	5	0	0.0298463	1.97684	0.102314	1.57458	0.518437	1.63386	0.192187	1.27224	1.58735	2.436	1.09219	3.42176	1.4842	2.90164	1.31323	3.82326	0.256115	1.63725	0.321195	1.54228	0.685676	2.24763	0.753387	3.05138	-0.242455	1.34104	1.03542	2.94791	-0.530052	1.63394	0.0454475	1.33845	
2.63519	5	0	0.0261665	2.00631	0.108961	1.58981	0.520127	1.65156	0.196499	1.28321	1.5917	2.44295	1.0836	3.44604	1.49209	2.90487	1.31907	3.8336	0.259691	1.63964	0.323867	1.5494	0.691561	2.25198	0.753969	3.06529	-0.241511	1.33838	1.03721	2.95387	-0.534923	1.64771	0.046896	1.34281	
2.63367	5	0	0.0224867	2.03579	0.115608	1.60505	0.521817	1.66927	0.200812	1.29417	1.59606	2.44991	1.07501	3.47032	1.49998	2.9081	1.32491	3.84394	0.263267	1.64202	0.32654	1.55652	0.697446	2.25634	0.754552	3.0792	-0.240567	1.33571	1.03899	2.95983	-0.539795	1.66147	0.0483445	1.34717	
2.62909	5	0	0.018807	2.06526	0.122255	1.62028	0.523506	1.68698	0.205124	1.30514	1.60041	2.45687	1.06642	3.4946	1.50788	2.91133	1.33075	3.85428	0.266844	1.64441	0.329213	1.56364	0.703331	2.26069	0.755134	3.0931	-0.239622	1.33304	1.04077	2.96579	-0.544666	1.67524	0.049793	1.35154	
2.62146	5	0	0.025811	2.06456	0.125271	1.62027	0.525673	1.68085	0.204066	1.30813	1.60575	2.45142	1.08185	3.47829	1.50788	2.91133	1.32966	3.85736	0.261093	1.64817	0.32001	1.57497	0.699552	2.27137	0.753488	3.09776	-0.240956	1.34829	1.03927	2.98105	-0.537243	1.68948	0.047978	1.36513	
2.61536	5	0	0.032815	2.06386	0.128287	1.62026	0.52784	1.67473	0.203008	1.31112	1.61109	2.44597	1.09728	3.46198	1.50788	2.91133	1.32857	3.86043	0.255341	1.65193	0.310806	1.58631	0.695774	2.28205	0.751842	3.10241	-0.242291	1.36354	1.03776	2.99631	-0.529821	1.70372	0.046163	1.37872	
2.60925	5	0	0.039819	2.06316	0.131304	1.62025	0.530006	1.66861	0.201949	1.31411	1.61643	2.44052	1.1127	3.44567	1.50788	2.91133	1.32749	3.8635	0.24959	1.65569	0.301603	1.59765	0.691995	2.29273	0.750195	3.10706	-0.243625	1.37879	1.03626	3.01156	-0.522398	1.71797	0.044348	1.39231	
2.6062	5	0	0.046823	2.06246	0.13432	1.62024	0.532173	1.66248	0.200891	1.3171	1.62176	2.43507	1.12813	3.42937	1.50788	2.91133	1.3264	3.86657	0.243839	1.65944	0.2924	1.60899	0.688216	2.30341	0.748549	3.11171	-0.244959	1.39404	1.03475	3.02682	-0.514975	1.73221	0.042533	1.4059	
2.60162	5	0	0.0502622	2.07185	0.131611	1.62789	0.540366	1.66184	0.204106	1.3196	1.6262	2.43217	1.12526	3.43747	1.50788	2.91133	1.32943	3.86695	0.244926	1.65637	0.295776	1.60678	0.692104	2.30292	0.746902	3.11637	-0.24835	1.39214	1.03982	3.02351	-0.523316	1.74404	0.0408997	1.41051	
