2.27356	0	0	-0.826717	0.840485	-0.830651	0.687727	-2.09223	2.07902	-0.622381	0.502756	0.104057	0.881587	-0.446734	1.02684	-0.320327	0.514113	-0.521642	0.71055	-0.504501	-0.511255	-0.106749	-0.423913	-0.044888	-0.228177	-0.335169	-0.258181	-0.606678	0.410361	-0.594809	1.06635	-1.08486	0.512971	-1.37615	0.870376	
2.27508	0	0	-0.826717	0.840485	-0.831507	0.690145	-2.09223	2.07902	-0.621306	0.499718	0.105011	0.878889	-0.453143	1.01994	-0.320327	0.514113	-0.518538	0.71078	-0.506139	-0.506626	-0.108527	-0.418889	-0.0423982	-0.222996	-0.336705	-0.253841	-0.60879	0.402128	-0.594809	1.06635	-1.09614	0.51193	-1.37895	0.861675	
2.27661	0	0	-0.826717	0.840485	-0.832363	0.692563	-2.09223	2.07902	-0.620231	0.496679	0.105966	0.876192	-0.459553	1.01303	-0.320327	0.514113	-0.515433	0.71101	-0.507776	-0.501998	-0.110304	-0.413864	-0.0399085	-0.217815	-0.33824	-0.2495	-0.610903	0.393896	-0.594809	1.06635	-1.10741	0.510889	-1.38175	0.852973	
2.27661	0	0	-0.826717	0.840485	-0.833218	0.694981	-2.09223	2.07902	-0.619156	0.493641	0.106921	0.873495	-0.465962	1.00613	-0.320327	0.514113	-0.512328	0.711241	-0.509414	-0.49737	-0.112082	-0.40884	-0.0374188	-0.212634	-0.339776	-0.24516	-0.613015	0.385663	-0.594809	1.06635	-1.11869	0.509848	-1.38456	0.844272	
2.27661	0	0	-0.826717	0.840485	-0.834074	0.697399	-2.09223	2.07902	-0.618081	0.490603	0.107875	0.870797	-0.472371	0.999225	-0.320327	0.514113	-0.509224	0.711471	-0.511052	-0.492741	-0.11386	-0.403816	-0.034929	-0.207453	-0.341312	-0.240819	-0.615127	0.377431	-0.594809	1.06635	-1.12996	0.508807	-1.38736	0.83557	
2.27814	0	0	-0.832108	0.855721	-0.828498	0.706782	-2.09586	2.08927	-0.615785	0.50781	0.108663	0.878582	-0.477476	1.01365	-0.313995	0.513189	-0.512345	0.720291	-0.506054	-0.485321	-0.112645	-0.398812	-0.0313928	-0.205221	-0.338865	-0.232397	-0.614022	0.374308	-0.58794	1.06874	-1.12867	0.505164	-1.39177	0.831442	
2.27356	0	0	-0.837499	0.870957	-0.822922	0.716164	-2.09948	2.09952	-0.613488	0.525018	0.109451	0.886367	-0.482581	1.02808	-0.307663	0.512266	-0.515466	0.729111	-0.501057	-0.477901	-0.111431	-0.393807	-0.0278565	-0.202989	-0.336419	-0.223975	-0.612916	0.371185	-0.581072	1.07112	-1.12739	0.501521	-1.39619	0.827314	
2.27508	0	0	-0.84289	0.886192	-0.817346	0.725547	-2.10311	2.10977	-0.611192	0.542226	0.110238	0.894151	-0.487686	1.04251	-0.301332	0.511342	-0.518586	0.737932	-0.496059	-0.47048	-0.110216	-0.388803	-0.0243203	-0.200758	-0.333973	-0.215552	-0.611811	0.368061	-0.574204	1.07351	-1.1261	0.497878	-1.40061	0.823187	
2.27814	0	0	-0.848281	0.901428	-0.81177	0.73493	-2.10674	2.12001	-0.608896	0.559433	0.111026	0.901936	-0.492791	1.05693	-0.295	0.510418	-0.521707	0.746752	-0.491061	-0.46306	-0.109001	-0.383799	-0.020784	-0.198526	-0.331526	-0.20713	-0.610706	0.364938	-0.567335	1.07589	-1.12481	0.494235	-1.40502	0.819059	
2.27814	0	0	-0.842434	0.905427	-0.807052	0.729985	-2.09765	2.11408	-0.600206	0.546733	0.106418	0.904947	-0.499185	1.05002	-0.302811	0.515522	-0.52273	0.74064	-0.492702	-0.458422	-0.112562	-0.373733	-0.0305963	-0.183021	-0.334604	-0.19843	-0.611913	0.382552	-0.564685	1.09023	-1.1261	0.497878	-1.40443	0.825684	
2.27661	0	0	-0.836586	0.909426	-0.802334	0.72504	-2.08856	2.10814	-0.591516	0.534034	0.101811	0.907957	-0.505579	1.04311	-0.310621	0.520625	-0.523754	0.734527	-0.494343	-0.453784	-0.116124	-0.363668	-0.0404085	-0.167515	-0.337683	-0.18973	-0.613121	0.400166	-0.562036	1.10456	-1.12739	0.501521	-1.40384	0.83231	
2.27661	0	0	-0.830739	0.913425	-0.797617	0.720094	-2.07948	2.1022	-0.582826	0.521334	0.0972035	0.910968	-0.511973	1.03619	-0.318432	0.525729	-0.524778	0.728415	-0.495984	-0.449145	-0.119686	-0.353602	-0.0502208	-0.15201	-0.340761	-0.18103	-0.614328	0.41778	-0.559386	1.1189	-1.12867	0.505164	-1.40324	0.838936	
2.27508	0	0	-0.824892	0.917424	-0.792899	0.715149	-2.07039	2.09627	-0.574136	0.508634	0.092596	0.913979	-0.518367	1.02928	-0.326243	0.530833	-0.525801	0.722303	-0.497625	-0.444507	-0.123247	-0.343537	-0.060033	-0.136505	-0.34384	-0.17233	-0.615536	0.435394	-0.556736	1.13323	-1.12996	0.508807	-1.40265	0.845561	
2.27814	0	0	-0.815435	0.911245	-0.790751	0.717471	-2.07948	2.1022	-0.569751	0.508109	0.096248	0.913669	-0.518367	1.02928	-0.318432	0.525729	-0.525801	0.722303	-0.497625	-0.444507	-0.123247	-0.343537	-0.0568933	-0.145378	-0.350899	-0.167718	-0.613321	0.429136	-0.555679	1.13024	-1.12739	0.501522	-1.40405	0.841215	
2.28271	0	0	-0.805979	0.905066	-0.788604	0.719793	-2.08856	2.10814	-0.565366	0.507583	0.0999	0.913359	-0.518367	1.02928	-0.310621	0.520625	-0.525801	0.722303	-0.497625	-0.444507	-0.123247	-0.343537	-0.0537535	-0.154251	-0.357957	-0.163106	-0.611107	0.422878	-0.554621	1.12725	-1.12481	0.494238	-1.40545	0.836869	
2.29034	0	0	-0.796523	0.898886	-0.786456	0.722115	-2.09765	2.11408	-0.560981	0.507057	0.103552	0.91305	-0.518367	1.02928	-0.302811	0.515522	-0.525801	0.722303	-0.497625	-0.444507	-0.123247	-0.343537	-0.0506137	-0.163124	-0.365015	-0.158494	-0.608893	0.416619	-0.553564	1.12427	-1.12223	0.486954	-1.40685	0.832524	
2.29645	0	0	-0.787066	0.892707	-0.784308	0.724437	-2.10674	2.12001	-0.556596	0.506532	0.107204	0.91274	-0.518367	1.02928	-0.295	0.510418	-0.525801	0.722303	-0.497625	-0.444507	-0.123247	-0.343537	-0.047474	-0.171997	-0.372074	-0.153882	-0.606678	0.410361	-0.552507	1.12128	-1.11965	0.479669	-1.40825	0.828178	
2.30865	0	0	-0.798324	0.903976	-0.778719	0.73384	-2.10128	2.12434	-0.554289	0.523771	0.107031	0.923245	-0.514529	1.04342	-0.299441	0.52297	-0.524778	0.728415	-0.509183	-0.433387	-0.121144	-0.341039	-0.047474	-0.171997	-0.368097	-0.149785	-0.611001	0.408378	-0.548538	1.12098	-1.12094	0.48331	-1.40744	0.825898	
2.31781	0	0	-0.809581	0.915246	-0.77313	0.743243	-2.09582	2.12866	-0.551983	0.541011	0.106858	0.933749	-0.51069	1.05755	-0.303882	0.535521	-0.523754	0.734527	-0.520741	-0.422268	-0.119041	-0.338541	-0.047474	-0.171997	-0.36412	-0.145689	-0.615325	0.406395	-0.544569	1.12069	-1.12223	0.486952	-1.40664	0.823619	
2.33154	0	0	-0.820839	0.926516	-0.76754	0.752645	-2.09037	2.13298	-0.549677	0.55825	0.106686	0.944253	-0.506852	1.07169	-0.308324	0.548073	-0.52273	0.74064	-0.5323	-0.411148	-0.116939	-0.336042	-0.047474	-0.171997	-0.360143	-0.141593	-0.619649	0.404412	-0.5406	1.12039	-1.12352	0.490594	-1.40583	0.821339	
2.33765	0	0	-0.832097	0.937785	-0.761951	0.762048	-2.08491	2.1373	-0.54737	0.575489	0.106513	0.954758	-0.503013	1.08583	-0.312765	0.560625	-0.521707	0.746752	-0.543858	-0.400028	-0.114836	-0.333544	-0.047474	-0.171997	-0.356166	-0.137496	-0.623972	0.402429	-0.536631	1.12009	-1.12481	0.494235	-1.40502	0.819059	
2.3468	0	0	-0.828496	0.927607	-0.765819	0.764575	-2.0831	2.13217	-0.55068	0.57296	0.10286	0.955065	-0.511957	1.08612	-0.312765	0.560625	-0.523771	0.743579	-0.542216	-0.404668	-0.121713	-0.330987	-0.046034	-0.163841	-0.357708	-0.133138	-0.624079	0.416933	-0.535835	1.12877	-1.1261	0.497878	-1.40222	0.827751	
2.35443	0	0	-0.824894	0.91743	-0.769686	0.767102	-2.08128	2.12704	-0.55399	0.570431	0.099207	0.955372	-0.5209	1.08641	-0.312765	0.560625	-0.525834	0.740406	-0.540574	-0.409309	-0.12859	-0.32843	-0.044594	-0.155685	-0.359249	-0.128781	-0.624186	0.431437	-0.535038	1.13745	-1.12739	0.501521	-1.39942	0.836444	
2.35596	0	0	-0.821293	0.907253	-0.773554	0.769629	-2.07947	2.12191	-0.557299	0.567903	0.095554	0.95568	-0.529844	1.0867	-0.312765	0.560625	-0.527898	0.737232	-0.538932	-0.41395	-0.135468	-0.325872	-0.043154	-0.147529	-0.360791	-0.124424	-0.624293	0.445941	-0.534242	1.14613	-1.12867	0.505164	-1.39662	0.845136	
2.35596	0	0	-0.817692	0.897075	-0.777422	0.772156	-2.07765	2.11678	-0.560609	0.565374	0.091901	0.955987	-0.538787	1.08699	-0.312765	0.560625	-0.529961	0.734059	-0.53729	-0.41859	-0.142345	-0.323315	-0.041714	-0.139373	-0.362333	-0.120066	-0.6244	0.460445	-0.533446	1.1548	-1.12996	0.508807	-1.39382	0.853828	
2.36206	0	0	-0.814095	0.886909	-0.770544	0.769529	-2.07584	2.11165	-0.549668	0.558225	0.0892068	0.95359	-0.533682	1.07256	-0.306429	0.559705	-0.532023	0.730889	-0.535649	-0.423228	-0.142664	-0.330847	-0.0410628	-0.153439	-0.363229	-0.132871	-0.631931	0.453335	-0.532128	1.14015	-1.1298	0.491914	-1.39522	0.84948	
2.36053	0	0	-0.810498	0.876743	-0.763667	0.766902	-2.07402	2.10652	-0.538726	0.551076	0.0865125	0.951194	-0.528577	1.05814	-0.300092	0.558784	-0.534086	0.727718	-0.534007	-0.427866	-0.142983	-0.338379	-0.0404115	-0.167506	-0.364124	-0.145676	-0.639461	0.446225	-0.530809	1.1255	-1.12964	0.47502	-1.39662	0.845132	
2.35901	0	0	-0.806901	0.866578	-0.756789	0.764275	-2.07221	2.10139	-0.527785	0.543926	0.0838182	0.948797	-0.523472	1.04371	-0.293756	0.557863	-0.536149	0.724548	-0.532366	-0.432504	-0.143302	-0.345911	-0.0397602	-0.181572	-0.365019	-0.158481	-0.646992	0.439116	-0.529491	1.11084	-1.12947	0.458126	-1.39802	0.840783	
2.35901	0	0	-0.803304	0.856412	-0.749911	0.761648	-2.07039	2.09627	-0.516844	0.536777	0.081124	0.9464	-0.518367	1.02928	-0.28742	0.556943	-0.538211	0.721377	-0.530725	-0.437142	-0.143621	-0.353443	-0.039109	-0.195638	-0.365915	-0.171286	-0.654523	0.432006	-0.528173	1.09619	-1.12931	0.441233	-1.39942	0.836435	
2.35138	0	0	-0.810953	0.857506	-0.747328	0.771173	-2.06674	2.10572	-0.515617	0.557111	0.084775	0.946093	-0.511973	1.03619	-0.290386	0.565325	-0.537172	0.71844	-0.530725	-0.437142	-0.145721	-0.355938	-0.0426422	-0.19787	-0.371429	-0.171027	-0.645779	0.421486	-0.528173	1.09619	-1.13687	0.44617	-1.39861	0.834154	
2.3529	0	0	-0.818603	0.8586	-0.744744	0.780697	-2.0631	2.11517	-0.51439	0.577446	0.088426	0.945785	-0.505579	1.04311	-0.293351	0.573706	-0.536133	0.715503	-0.530725	-0.437142	-0.147821	-0.358433	-0.0461755	-0.200103	-0.376942	-0.170768	-0.637036	0.410967	-0.528173	1.09619	-1.14442	0.451107	-1.39781	0.831874	
2.34833	0	0	-0.826252	0.859694	-0.742161	0.790221	-2.05945	2.12462	-0.513162	0.59778	0.092077	0.945477	-0.499185	1.05002	-0.296317	0.582087	-0.535093	0.712565	-0.530725	-0.437142	-0.149921	-0.360927	-0.0497087	-0.202335	-0.382456	-0.170508	-0.628293	0.400448	-0.528173	1.09619	-1.15198	0.456045	-1.397	0.829593	
2.33612	0	0	-0.833901	0.860788	-0.739578	0.799746	-2.0558	2.13407	-0.511935	0.618115	0.095728	0.94517	-0.492791	1.05693	-0.299283	0.590469	-0.534054	0.709628	-0.530725	-0.437142	-0.152021	-0.363422	-0.053242	-0.204567	-0.38797	-0.170249	-0.619549	0.389928	-0.528173	1.09619	-1.15953	0.460982	-1.39619	0.827312	
2.32544	0	0	-0.837952	0.851735	-0.737857	0.794882	-2.06308	2.13487	-0.50537	0.611473	0.0893842	0.943082	-0.499185	1.05002	-0.304135	0.587196	-0.537141	0.700366	-0.53899	-0.435306	-0.160093	-0.365875	-0.0609512	-0.194989	-0.393479	-0.169991	-0.62619	0.408696	-0.527374	1.10486	-1.1634	0.471893	-1.39339	0.836009	
2.3468	0	0	-0.842003	0.842683	-0.736136	0.790018	-2.07036	2.13568	-0.498805	0.604831	0.0830405	0.940994	-0.505579	1.04311	-0.308987	0.583923	-0.540229	0.691104	-0.547254	-0.433469	-0.168165	-0.368328	-0.0686605	-0.185411	-0.398987	-0.169734	-0.632831	0.427465	-0.526575	1.11353	-1.16726	0.482804	-1.39059	0.844706	
2.34527	0	0	-0.846054	0.83363	-0.734414	0.785154	-2.07763	2.13649	-0.49224	0.59819	0.0766967	0.938907	-0.511973	1.03619	-0.31384	0.580649	-0.543316	0.681841	-0.555519	-0.431633	-0.176238	-0.37078	-0.0763698	-0.175832	-0.404496	-0.169476	-0.639471	0.446233	-0.525776	1.1222	-1.17112	0.493715	-1.38779	0.853403	
2.33307	0	0	-0.850105	0.824577	-0.732693	0.78029	-2.08491	2.1373	-0.485675	0.591548	0.070353	0.936819	-0.518367	1.02928	-0.318692	0.577376	-0.546403	0.672579	-0.563783	-0.429797	-0.18431	-0.373233	-0.084079	-0.166254	-0.410005	-0.169218	-0.646112	0.465001	-0.524977	1.13087	-1.17498	0.504626	-1.38498	0.8621	
2.32544	0	0	-0.857738	0.825669	-0.732693	0.78029	-2.094	2.14324	-0.486757	0.594607	0.073219	0.928719	-0.515818	1.02208	-0.31721	0.573188	-0.546392	0.663562	-0.573676	-0.423333	-0.188501	-0.378213	-0.0900848	-0.173676	-0.413972	-0.173305	-0.649321	0.45988	-0.523919	1.12788	-1.1724	0.497351	-1.39102	0.86253	
2.32086	0	0	-0.865371	0.826761	-0.732693	0.78029	-2.10308	2.14918	-0.487839	0.597666	0.076085	0.920619	-0.513268	1.01487	-0.315728	0.569001	-0.546381	0.654545	-0.583569	-0.416868	-0.192693	-0.383193	-0.0960905	-0.181098	-0.41794	-0.177391	-0.652531	0.454759	-0.522861	1.12489	-1.16983	0.490075	-1.39705	0.862959	
2.31628	0	0	-0.873003	0.827852	-0.732693	0.78029	-2.11217	2.15511	-0.488922	0.600725	0.078951	0.912518	-0.510718	1.00766	-0.314247	0.564813	-0.546371	0.645528	-0.593462	-0.410403	-0.196885	-0.388173	-0.102096	-0.188521	-0.421907	-0.181478	-0.65574	0.449637	-0.521803	1.1219	-1.16726	0.482799	-1.40308	0.863389	
2.31628	0	0	-0.880636	0.828944	-0.732693	0.78029	-2.12126	2.16105	-0.490004	0.603784	0.081817	0.904418	-0.508169	1.00046	-0.312765	0.560625	-0.54636	0.636511	-0.603355	-0.403939	-0.201076	-0.393153	-0.108102	-0.195943	-0.425874	-0.185564	-0.658949	0.444516	-0.520745	1.11891	-1.16468	0.475524	-1.40911	0.863819	
2.31628	0	0	-0.880636	0.828944	-0.732262	0.787489	-2.12307	2.16618	-0.492105	0.621641	0.0816438	0.914914	-0.49281	1.00705	-0.312765	0.560625	-0.55153	0.642141	-0.601716	-0.408572	-0.204058	-0.393133	-0.108102	-0.195943	-0.431373	-0.185308	-0.656736	0.438262	-0.516771	1.11861	-1.16597	0.479161	-1.41293	0.866316	
2.32239	0	0	-0.880636	0.828944	-0.731831	0.794689	-2.12489	2.17132	-0.494205	0.639498	0.0814705	0.925409	-0.477452	1.01365	-0.312765	0.560625	-0.556701	0.647771	-0.600077	-0.413206	-0.207039	-0.393113	-0.108102	-0.195943	-0.436873	-0.185051	-0.654524	0.432008	-0.512796	1.11831	-1.16725	0.482798	-1.41675	0.868812	
2.32086	0	0	-0.880636	0.828944	-0.731399	0.801888	-2.12671	2.17645	-0.496306	0.657356	0.0812973	0.935905	-0.462093	1.02025	-0.312765	0.560625	-0.561872	0.6534	-0.598437	-0.417839	-0.210021	-0.393093	-0.108102	-0.195943	-0.442373	-0.184795	-0.652311	0.425754	-0.508822	1.11801	-1.16854	0.486435	-1.42057	0.871309	
2.31476	0	0	-0.880636	0.828944	-0.730968	0.809087	-2.12852	2.18159	-0.498407	0.675213	0.081124	0.9464	-0.446734	1.02684	-0.312765	0.560625	-0.567042	0.65903	-0.596798	-0.422472	-0.213003	-0.393073	-0.108102	-0.195943	-0.447872	-0.184538	-0.650098	0.4195	-0.504848	1.11771	-1.16983	0.490072	-1.42439	0.873806	
2.31628	0	0	-0.880636	0.828944	-0.736993	0.809282	-2.12671	2.17645	-0.506122	0.673185	0.083992	0.938295	-0.455695	1.02715	-0.316134	0.553177	-0.568067	0.652948	-0.596798	-0.422472	-0.218962	-0.393034	-0.120359	-0.185666	-0.453366	-0.184283	-0.647994	0.427744	-0.504049	1.1264	-1.16356	0.488773	-1.42763	0.882942	
2.31628	0	0	-0.880636	0.828944	-0.743019	0.809478	-2.12489	2.17132	-0.513837	0.671156	0.08686	0.93019	-0.464655	1.02745	-0.319504	0.545729	-0.569092	0.646865	-0.596798	-0.422472	-0.224921	-0.392995	-0.132615	-0.17539	-0.458861	-0.184028	-0.64589	0.435989	-0.503249	1.13508	-1.15729	0.487474	-1.43086	0.892078	
2.31476	0	0	-0.880636	0.828944	-0.749044	0.809673	-2.12307	2.16618	-0.521553	0.669128	0.089728	0.922084	-0.473616	1.02776	-0.322874	0.538281	-0.570116	0.640783	-0.596798	-0.422472	-0.23088	-0.392956	-0.144872	-0.165113	-0.464355	-0.183774	-0.643785	0.444234	-0.50245	1.14376	-1.15102	0.486175	-1.43409	0.901215	
2.31476	0	0	-0.880636	0.828944	-0.755069	0.809868	-2.12126	2.16105	-0.529268	0.6671	0.092596	0.913979	-0.482577	1.02807	-0.326243	0.530833	-0.571141	0.6347	-0.596798	-0.422472	-0.236839	-0.392917	-0.157129	-0.154836	-0.469849	-0.183519	-0.641681	0.452478	-0.501651	1.15244	-1.14475	0.484876	-1.43732	0.910351	
2.31628	0	0	-0.873003	0.827852	-0.753348	0.805004	-2.12852	2.16185	-0.522701	0.660454	0.0945065	0.908579	-0.482577	1.02807	-0.33109	0.527574	-0.573201	0.631549	-0.595159	-0.427103	-0.241906	-0.395385	-0.158557	-0.16297	-0.47929	-0.187346	-0.642679	0.441108	-0.503509	1.14675	-1.14347	0.481238	-1.44334	0.910772	
2.30865	0	0	-0.865371	0.826761	-0.751627	0.80014	-2.13578	2.16265	-0.516134	0.653809	0.096417	0.90318	-0.482577	1.02807	-0.335936	0.524315	-0.575261	0.628397	-0.593521	-0.431734	-0.246973	-0.397852	-0.159986	-0.171104	-0.488731	-0.191174	-0.643677	0.429739	-0.505367	1.14106	-1.14218	0.477599	-1.44936	0.911193	
2.30713	0	0	-0.857738	0.825669	-0.749906	0.795276	-2.14304	2.16345	-0.509568	0.647163	0.0983275	0.89778	-0.482577	1.02807	-0.340782	0.521057	-0.577322	0.625246	-0.591882	-0.436365	-0.25204	-0.40032	-0.161414	-0.179237	-0.498172	-0.195001	-0.644676	0.418369	-0.507224	1.13537	-1.14089	0.473961	-1.45538	0.911613	
2.30408	0	0	-0.850105	0.824577	-0.748185	0.790412	-2.1503	2.16425	-0.503001	0.640517	0.100238	0.892381	-0.482577	1.02807	-0.345629	0.517798	-0.579382	0.622094	-0.590243	-0.440996	-0.257107	-0.402788	-0.162842	-0.187371	-0.507613	-0.198829	-0.645674	0.406999	-0.509082	1.12968	-1.1396	0.470323	-1.46141	0.912034	
2.30713	0	0	-0.853694	0.83472	-0.754638	0.800238	-2.16118	2.1753	-0.511737	0.653292	0.0991105	0.905578	-0.487686	1.04251	-0.350471	0.514542	-0.584545	0.627716	-0.600125	-0.434539	-0.256221	-0.405292	-0.158283	-0.188084	-0.506081	-0.203159	-0.644568	0.403875	-0.510141	1.13267	-1.1396	0.470323	-1.46302	0.916603	
2.2995	0	0	-0.857283	0.844863	-0.761091	0.810065	-2.17206	2.18636	-0.520473	0.666067	0.097983	0.918775	-0.492795	1.05695	-0.355313	0.511286	-0.589708	0.633339	-0.610007	-0.428082	-0.255335	-0.407796	-0.153725	-0.188797	-0.504549	-0.207489	-0.643463	0.400751	-0.5112	1.13566	-1.1396	0.470323	-1.46464	0.921172	
2.29797	0	0	-0.860872	0.855005	-0.767544	0.819891	-2.18295	2.19741	-0.529208	0.678842	0.0968555	0.931973	-0.497904	1.07139	-0.360155	0.508031	-0.594872	0.638961	-0.619889	-0.421625	-0.254449	-0.4103	-0.149166	-0.189509	-0.503016	-0.211818	-0.642358	0.397626	-0.512258	1.13866	-1.1396	0.470323	-1.46626	0.925742	
2.2995	0	0	-0.864461	0.865148	-0.773997	0.829718	-2.19383	2.20847	-0.537944	0.691617	0.095728	0.94517	-0.503013	1.08583	-0.364997	0.504775	-0.600035	0.644583	-0.629771	-0.415168	-0.253563	-0.412804	-0.144608	-0.190222	-0.501484	-0.216148	-0.641252	0.394502	-0.513317	1.14165	-1.1396	0.470323	-1.46787	0.930311	
2.29339	0	0	-0.866257	0.870224	-0.775284	0.824949	-2.19201	2.20334	-0.539087	0.682943	0.097641	0.939764	-0.500457	1.0786	-0.366886	0.493188	-0.601058	0.638508	-0.628133	-0.419797	-0.259511	-0.412766	-0.153721	-0.188798	-0.512441	-0.215642	-0.646783	0.410134	-0.525497	1.15421	-1.13719	0.479944	-1.46891	0.941538	
2.29492	0	0	-0.868053	0.875299	-0.776571	0.82018	-2.1902	2.19821	-0.54023	0.674268	0.099554	0.934358	-0.497902	1.07138	-0.368774	0.4816	-0.60208	0.632433	-0.626495	-0.424425	-0.265459	-0.412728	-0.162835	-0.187373	-0.523397	-0.215136	-0.652315	0.425766	-0.537678	1.16677	-1.13478	0.489565	-1.46995	0.952765	
2.29339	0	0	-0.869848	0.880374	-0.777859	0.815412	-2.18838	2.19308	-0.541373	0.665594	0.101467	0.928952	-0.495347	1.06416	-0.370663	0.470013	-0.603102	0.626358	-0.624858	-0.429053	-0.271407	-0.41269	-0.171949	-0.185948	-0.534354	-0.214629	-0.657846	0.441398	-0.549858	1.17934	-1.13237	0.499186	-1.47099	0.963993	
2.28729	0	0	-0.871644	0.88545	-0.779146	0.810643	-2.18656	2.18795	-0.542516	0.65692	0.10338	0.923546	-0.492791	1.05693	-0.372551	0.458426	-0.604125	0.620283	-0.62322	-0.433682	-0.277355	-0.412652	-0.181062	-0.184524	-0.545311	-0.214123	-0.663377	0.45703	-0.562038	1.1919	-1.12996	0.508807	-1.47202	0.97522	
2.28729	0	0	-0.867602	0.894529	-0.776137	0.810547	-2.18656	2.18795	-0.539204	0.659465	0.10338	0.923546	-0.492791	1.05693	-0.371078	0.454261	-0.607216	0.620056	-0.631454	-0.431859	-0.278241	-0.410149	-0.183531	-0.189701	-0.549253	-0.218194	-0.668797	0.458166	-0.564946	1.18919	-1.12739	0.501522	-1.47584	0.977715	
2.28271	0	0	-0.86356	0.903607	-0.773128	0.81045	-2.18656	2.18795	-0.535892	0.66201	0.10338	0.923546	-0.492791	1.05693	-0.369604	0.450097	-0.610306	0.619829	-0.639687	-0.430035	-0.279126	-0.407647	-0.185999	-0.194878	-0.553195	-0.222265	-0.674216	0.459302	-0.567854	1.18649	-1.12481	0.494238	-1.47966	0.980209	
2.28577	0	0	-0.859519	0.912686	-0.77012	0.810353	-2.18656	2.18795	-0.53258	0.664555	0.10338	0.923546	-0.492791	1.05693	-0.368131	0.445933	-0.613397	0.619602	-0.647921	-0.428211	-0.280012	-0.405144	-0.188468	-0.200055	-0.557136	-0.226335	-0.679635	0.460438	-0.570761	1.18379	-1.12223	0.486954	-1.48348	0.982703	
2.28577	0	0	-0.855477	0.921765	-0.767111	0.810257	-2.18656	2.18795	-0.529268	0.6671	0.10338	0.923546	-0.492791	1.05693	-0.366657	0.441768	-0.616487	0.619375	-0.656154	-0.426388	-0.280897	-0.402641	-0.190937	-0.205232	-0.561078	-0.230406	-0.685055	0.461574	-0.573669	1.18108	-1.11965	0.479669	-1.48729	0.985198	
2.28424	0	0	-0.857277	0.926852	-0.768833	0.815122	-2.1902	2.19821	-0.536916	0.67681	0.104944	0.939163	-0.500464	1.07862	-0.37444	0.446853	-0.615465	0.625449	-0.657791	-0.421762	-0.28147	-0.392639	-0.187043	-0.191923	-0.565668	-0.217435	-0.676427	0.465563	-0.572881	1.18978	-1.12223	0.486954	-1.48591	0.989572	
2.27966	0	0	-0.859077	0.931939	-0.770554	0.819987	-2.19383	2.20847	-0.544565	0.686519	0.106509	0.954781	-0.508137	1.10031	-0.382222	0.451939	-0.614444	0.631522	-0.659428	-0.417135	-0.282042	-0.382637	-0.183148	-0.178614	-0.570257	-0.204464	-0.6678	0.469552	-0.572094	1.19847	-1.12481	0.494238	-1.48452	0.993946	
2.27814	0	0	-0.860877	0.937027	-0.772276	0.824853	-2.19746	2.21874	-0.552213	0.696229	0.108073	0.970398	-0.51581	1.12199	-0.390004	0.457024	-0.613422	0.637595	-0.661064	-0.412509	-0.282614	-0.372635	-0.179253	-0.165305	-0.574847	-0.191493	-0.659173	0.47354	-0.571306	1.20717	-1.12739	0.501522	-1.48313	0.998321	
2.27661	0	0	-0.862677	0.942114	-0.773997	0.829718	-2.20109	2.229	-0.559861	0.705939	0.109637	0.986015	-0.523483	1.14367	-0.397787	0.462109	-0.6124	0.643669	-0.662701	-0.407883	-0.283187	-0.362633	-0.175359	-0.151996	-0.579437	-0.178522	-0.650545	0.477529	-0.570518	1.21586	-1.12996	0.508807	-1.48175	1.00269	
2.27508	0	0	-0.855032	0.941032	-0.777866	0.832247	-2.20109	2.229	-0.557692	0.699809	0.110595	0.983307	-0.518366	1.12921	-0.397787	0.462109	-0.614456	0.640517	-0.662701	-0.407883	-0.283187	-0.362633	-0.174701	-0.166017	-0.583371	-0.182601	-0.657077	0.481797	-0.579507	1.21943	-1.12867	0.505164	-1.48637	1.00748	
2.27203	0	0	-0.847387	0.939949	-0.781736	0.834775	-2.20109	2.229	-0.555524	0.69368	0.111553	0.980598	-0.513248	1.11475	-0.397787	0.462109	-0.616512	0.637366	-0.662701	-0.407883	-0.283187	-0.362633	-0.174043	-0.180038	-0.587306	-0.186679	-0.663608	0.486065	-0.588497	1.22301	-1.12739	0.501521	-1.491	1.01227	
2.27051	0	0	-0.839742	0.938867	-0.785605	0.837303	-2.20109	2.229	-0.553355	0.687551	0.112512	0.97789	-0.508131	1.10029	-0.397787	0.462109	-0.618567	0.634214	-0.662701	-0.407883	-0.283187	-0.362633	-0.173385	-0.194059	-0.591241	-0.190758	-0.670139	0.490332	-0.597487	1.22658	-1.1261	0.497878	-1.49563	1.01705	
2.27356	0	0	-0.832097	0.937785	-0.789474	0.839832	-2.20109	2.229	-0.551186	0.681421	0.11347	0.975182	-0.503013	1.08583	-0.397787	0.462109	-0.620623	0.631062	-0.662701	-0.407883	-0.283187	-0.362633	-0.172727	-0.20808	-0.595175	-0.194837	-0.676671	0.4946	-0.606476	1.23015	-1.12481	0.494235	-1.50026	1.02184	
2.26745	0	0	-0.835702	0.947974	-0.787327	0.842172	-2.19748	2.2385	-0.551131	0.693172	0.117127	0.974874	-0.503013	1.08583	-0.392952	0.465355	-0.623711	0.630834	-0.654469	-0.409704	-0.281101	-0.360141	-0.176238	-0.21031	-0.58818	-0.199408	-0.677779	0.497733	-0.606476	1.23015	-1.13108	0.495535	-1.49945	1.01955	
2.26593	0	0	-0.839307	0.958163	-0.785181	0.844512	-2.19387	2.248	-0.551077	0.704924	0.120783	0.974567	-0.503013	1.08583	-0.388118	0.4686	-0.6268	0.630606	-0.646236	-0.411525	-0.279014	-0.357649	-0.17975	-0.21254	-0.581185	-0.203979	-0.678888	0.500866	-0.606476	1.23015	-1.13736	0.496835	-1.49864	1.01726	
2.26593	0	0	-0.842913	0.968351	-0.783034	0.846851	-2.19026	2.25749	-0.551022	0.716675	0.12444	0.97426	-0.503013	1.08583	-0.383283	0.471845	-0.629889	0.630378	-0.638003	-0.413347	-0.276928	-0.355158	-0.183261	-0.21477	-0.57419	-0.208549	-0.679997	0.503999	-0.606476	1.23015	-1.14363	0.498136	-1.49783	1.01496	
2.26288	0	0	-0.846518	0.97854	-0.780887	0.849191	-2.18665	2.26699	-0.550968	0.728426	0.128097	0.973952	-0.503013	1.08583	-0.378448	0.475091	-0.632977	0.63015	-0.629771	-0.415168	-0.274842	-0.352666	-0.186773	-0.217	-0.567195	-0.21312	-0.681105	0.507132	-0.606476	1.23015	-1.1499	0.499436	-1.49701	1.01267	
2.2644	0	0	-0.852359	0.974523	-0.786901	0.849378	-2.18483	2.26184	-0.552107	0.719739	0.116952	0.985401	-0.514512	1.09334	-0.386231	0.480176	-0.636064	0.629922	-0.633049	-0.405904	-0.273643	-0.347663	-0.182876	-0.203698	-0.573319	-0.195813	-0.673586	0.514274	-0.602793	1.24157	-1.13993	0.504123	-1.49725	1.02164	
2.26593	0	0	-0.8582	0.970507	-0.792915	0.849565	-2.18301	2.2567	-0.553246	0.711052	0.105807	0.996849	-0.526011	1.10085	-0.394013	0.485262	-0.63915	0.629693	-0.636327	-0.396639	-0.272444	-0.34266	-0.178979	-0.190395	-0.579443	-0.178505	-0.666067	0.521417	-0.59911	1.253	-1.12995	0.508809	-1.49749	1.0306	
2.25983	0	0	-0.864041	0.966491	-0.79893	0.849753	-2.18119	2.25156	-0.554384	0.702365	0.094662	1.0083	-0.53751	1.10837	-0.401795	0.490347	-0.642237	0.629464	-0.639605	-0.387375	-0.271245	-0.337656	-0.175082	-0.177093	-0.585567	-0.161197	-0.658548	0.52856	-0.595427	1.26442	-1.11998	0.513496	-1.49773	1.03957	
2.25983	0	0	-0.869882	0.962474	-0.804944	0.84994	-2.17937	2.24641	-0.555523	0.693678	0.083517	1.01975	-0.549009	1.11588	-0.409578	0.495432	-0.645324	0.629236	-0.642883	-0.378111	-0.270046	-0.332653	-0.171185	-0.163791	-0.591691	-0.14389	-0.651029	0.535702	-0.591744	1.27585	-1.11	0.518183	-1.49796	1.04853	
2.25983	0	0	-0.866281	0.952297	-0.803222	0.845075	-2.18662	2.2472	-0.552271	0.684489	0.0854345	1.01433	-0.555384	1.10894	-0.404746	0.498685	-0.648409	0.629007	-0.644523	-0.373475	-0.273908	-0.330129	-0.175739	-0.163081	-0.590159	-0.14822	-0.653126	0.527426	-0.588559	1.26685	-1.11	0.518183	-1.49472	1.03937	
2.25983	0	0	-0.86268	0.942119	-0.801501	0.840209	-2.19387	2.24798	-0.549019	0.675299	0.087352	1.00891	-0.561758	1.10201	-0.399914	0.501939	-0.651495	0.628778	-0.646164	-0.36884	-0.277771	-0.327605	-0.180293	-0.162372	-0.588626	-0.15255	-0.655222	0.519149	-0.585374	1.25785	-1.11	0.518183	-1.49148	1.0302	
2.25525	0	0	-0.859078	0.931942	-0.79978	0.835344	-2.20112	2.24877	-0.545768	0.666109	0.0892695	1.00349	-0.568132	1.09507	-0.395082	0.505192	-0.65458	0.628549	-0.647804	-0.364205	-0.281633	-0.325082	-0.184848	-0.161663	-0.587094	-0.15688	-0.657318	0.510873	-0.582189	1.24885	-1.11	0.518183	-1.48823	1.02103	
2.25677	0	0	-0.855477	0.921765	-0.798058	0.830478	-2.20836	2.24955	-0.542516	0.65692	0.091187	0.998071	-0.574507	1.08814	-0.39025	0.508445	-0.657665	0.62832	-0.649444	-0.359569	-0.285495	-0.322558	-0.189402	-0.160953	-0.585562	-0.16121	-0.659415	0.502597	-0.579004	1.23985	-1.11	0.518183	-1.48499	1.01186	
2.25677	0	0	-0.864913	0.92793	-0.795912	0.832817	-2.21018	2.25469	-0.541373	0.665594	0.0902285	1.00078	-0.563024	1.08063	-0.393203	0.516792	-0.656632	0.625401	-0.649444	-0.359569	-0.28758	-0.325054	-0.183805	-0.16461	-0.585562	-0.16121	-0.657197	0.49633	-0.581909	1.23714	-1.10871	0.514537	-1.48256	1.00499	
2.25372	0	0	-0.874348	0.934096	-0.793766	0.835155	-2.212	2.25983	-0.54023	0.674268	0.08927	1.00349	-0.55154	1.07313	-0.396157	0.525138	-0.6556	0.622482	-0.649444	-0.359569	-0.289664	-0.32755	-0.178207	-0.168268	-0.585562	-0.16121	-0.65498	0.490063	-0.584814	1.23442	-1.10742	0.510892	-1.48013	0.998117	
2.2522	0	0	-0.883784	0.940261	-0.79162	0.837494	-2.21382	2.26497	-0.539087	0.682943	0.0883115	1.0062	-0.540056	1.06563	-0.39911	0.533484	-0.654567	0.619563	-0.649444	-0.359569	-0.291749	-0.330046	-0.17261	-0.171926	-0.585562	-0.16121	-0.652763	0.483796	-0.587719	1.23171	-1.10613	0.507246	-1.47769	0.991247	
2.25067	0	0	-0.89322	0.946427	-0.789474	0.839832	-2.21564	2.27011	-0.537944	0.691617	0.087353	1.00891	-0.528573	1.05812	-0.402063	0.541831	-0.653534	0.616644	-0.649444	-0.359569	-0.293834	-0.332542	-0.167013	-0.175583	-0.585562	-0.16121	-0.650545	0.477529	-0.590624	1.229	-1.10484	0.5036	-1.47526	0.984376	
2.25067	0	0	-0.895456	0.932266	-0.793765	0.835157	-2.21924	2.26062	-0.544563	0.686521	0.08849	0.995677	-0.541331	1.04431	-0.402063	0.541831	-0.653523	0.607668	-0.659314	-0.35312	-0.301857	-0.33501	-0.178204	-0.16827	-0.598015	-0.1564	-0.651653	0.480662	-0.594587	1.22929	-1.09856	0.502296	-1.47908	0.98687	
2.25067	0	0	-0.897692	0.918105	-0.798056	0.830482	-2.22285	2.25113	-0.551182	0.681425	0.089627	0.982447	-0.554089	1.0305	-0.402063	0.541831	-0.653511	0.598691	-0.669185	-0.34667	-0.30988	-0.337477	-0.189395	-0.160958	-0.610469	-0.151591	-0.652762	0.483795	-0.59855	1.22957	-1.09227	0.500991	-1.4829	0.989365	
2.24609	0	0	-0.899927	0.903944	-0.802348	0.825806	-2.22645	2.24163	-0.557801	0.676328	0.090764	0.969217	-0.566847	1.01669	-0.402063	0.541831	-0.653499	0.589714	-0.679055	-0.34022	-0.317903	-0.339945	-0.200586	-0.153645	-0.622922	-0.146781	-0.653871	0.486928	-0.602513	1.22986	-1.08599	0.499687	-1.48672	0.99186	
2.24609	0	0	-0.902163	0.889783	-0.806639	0.821131	-2.23006	2.23214	-0.56442	0.671232	0.091901	0.955987	-0.579605	1.00288	-0.402063	0.541831	-0.653488	0.580738	-0.688925	-0.333771	-0.325926	-0.342413	-0.211777	-0.146333	-0.635375	-0.141971	-0.654979	0.490061	-0.606476	1.23015	-1.0797	0.498382	-1.49053	0.994354	
2.25372	0	0	-0.906196	0.880725	-0.80406	0.813842	-2.23547	2.22779	-0.565562	0.66257	0.088425	0.945794	-0.583434	0.988816	-0.400586	0.537657	-0.65451	0.574687	-0.685645	-0.34304	-0.334245	-0.352371	-0.216702	-0.156697	-0.648663	-0.1499	-0.661391	0.479812	-0.61016	1.21875	-1.09098	0.497345	-1.4903	0.985408	
2.24609	0	0	-0.91023	0.871668	-0.801481	0.806553	-2.24089	2.22345	-0.566704	0.653908	0.084949	0.935601	-0.587263	0.974754	-0.399109	0.533482	-0.655531	0.568636	-0.682365	-0.352309	-0.342564	-0.362329	-0.221628	-0.167061	-0.661951	-0.15783	-0.667803	0.469562	-0.613845	1.20735	-1.10225	0.496308	-1.49007	0.976463	
2.24457	0	0	-0.914263	0.86261	-0.798901	0.799263	-2.24631	2.2191	-0.567846	0.645246	0.081473	0.925408	-0.591093	0.960693	-0.397632	0.529308	-0.656553	0.562584	-0.679086	-0.361577	-0.350883	-0.372288	-0.226553	-0.177424	-0.675239	-0.165759	-0.674216	0.459313	-0.617529	1.19595	-1.11353	0.495272	-1.48984	0.967517	
2.24609	0	0	-0.918296	0.853552	-0.796322	0.791974	-2.25172	2.21475	-0.568988	0.636584	0.077997	0.915215	-0.594922	0.946631	-0.396155	0.525134	-0.657575	0.556533	-0.675806	-0.370846	-0.359202	-0.382246	-0.231479	-0.187788	-0.688527	-0.173688	-0.680628	0.449064	-0.621213	1.18455	-1.12481	0.494235	-1.48961	0.958571	
2.24304	0	0	-0.924118	0.849572	-0.800186	0.794499	-2.25714	2.21041	-0.567907	0.633527	0.078952	0.912516	-0.594922	0.946631	-0.396155	0.525134	-0.659628	0.553398	-0.684026	-0.369035	-0.365434	-0.389697	-0.233941	-0.19296	-0.689391	-0.186385	-0.682727	0.440826	-0.624898	1.17318	-1.12851	0.488257	-1.49481	0.956698	
2.24762	0	0	-0.92994	0.845592	-0.80405	0.797023	-2.26255	2.20607	-0.566825	0.63047	0.079907	0.909817	-0.594922	0.946631	-0.396155	0.525134	-0.661681	0.550264	-0.692247	-0.367224	-0.371665	-0.397149	-0.236403	-0.198132	-0.690254	-0.199082	-0.684826	0.432589	-0.628583	1.16182	-1.13221	0.482279	-1.50001	0.954825	
2.24609	0	0	-0.935762	0.841612	-0.807914	0.799548	-2.26796	2.20173	-0.565743	0.627413	0.080862	0.907117	-0.594922	0.946631	-0.396155	0.525134	-0.663733	0.547129	-0.700468	-0.365412	-0.377897	-0.4046	-0.238865	-0.203305	-0.691117	-0.211778	-0.686925	0.424351	-0.632269	1.15045	-1.13591	0.476301	-1.50521	0.952952	
2.24151	0	0	-0.941584	0.837632	-0.811778	0.802073	-2.27337	2.19738	-0.564662	0.624356	0.081817	0.904418	-0.594922	0.946631	-0.396155	0.525134	-0.665786	0.543994	-0.708688	-0.363601	-0.384128	-0.412051	-0.241327	-0.208477	-0.691981	-0.224475	-0.689024	0.416113	-0.635954	1.13908	-1.1396	0.470323	-1.51041	0.951079	
2.24609	0	0	-0.971055	0.798786	-0.809201	0.79479	-2.27335	2.17772	-0.569114	0.613182	0.052263	0.878233	-0.615301	0.905021	-0.413981	0.507968	-0.668859	0.516981	-0.71199	-0.375666	-0.389784	-0.429431	-0.261259	-0.22476	-0.723866	-0.239976	-0.71273	0.412425	-0.666181	1.12679	-1.16832	0.469538	-1.5178	0.94713	
2.24762	0	0	-1.00053	0.759941	-0.806624	0.787506	-2.27334	2.15805	-0.573566	0.602008	0.022709	0.852048	-0.63568	0.86341	-0.431807	0.490802	-0.671932	0.489968	-0.715292	-0.38773	-0.39544	-0.44681	-0.281191	-0.241044	-0.755751	-0.255478	-0.736436	0.408737	-0.696408	1.1145	-1.19704	0.468754	-1.52519	0.943181	
2.24457	0	0	-1.03	0.721095	-0.804047	0.780223	-2.27332	2.13838	-0.578019	0.590833	-0.006845	0.825862	-0.656059	0.8218	-0.449633	0.473635	-0.675005	0.462954	-0.718594	-0.399795	-0.401096	-0.46419	-0.301123	-0.257327	-0.787636	-0.270979	-0.760143	0.405049	-0.726635	1.10221	-1.22575	0.46797	-1.53257	0.939232	
2.24609	0	0	-1.05947	0.682249	-0.80147	0.77294	-2.2733	2.11871	-0.582471	0.579659	-0.036399	0.799677	-0.676438	0.780189	-0.467459	0.456469	-0.678078	0.435941	-0.721896	-0.41186	-0.406752	-0.48157	-0.321055	-0.27361	-0.819521	-0.28648	-0.783849	0.401361	-0.756862	1.08992	-1.25447	0.467185	-1.53996	0.935283	
2.24151	0	0	-1.07103	0.674393	-0.800611	0.770513	-2.2751	2.10421	-0.575927	0.573038	-0.0461605	0.78753	-0.677759	0.759204	-0.463051	0.444011	-0.681159	0.426825	-0.720262	-0.416479	-0.413852	-0.486489	-0.32596	-0.283889	-0.820383	-0.299082	-0.799886	0.390328	-0.768379	1.0792	-1.27061	0.463801	-1.53973	0.926369	
2.24457	0	0	-1.08259	0.666537	-0.799753	0.768087	-2.2769	2.0897	-0.569382	0.566418	-0.055922	0.775383	-0.67908	0.738219	-0.458643	0.431552	-0.68424	0.417708	-0.718627	-0.421098	-0.420952	-0.491409	-0.330865	-0.294168	-0.821246	-0.311684	-0.815923	0.379296	-0.779896	1.06848	-1.28675	0.460417	-1.5395	0.917455	
2.24304	0	0	-1.09416	0.658681	-0.798894	0.76566	-2.2787	2.07519	-0.562837	0.559797	-0.0656835	0.763236	-0.680402	0.717234	-0.454234	0.419094	-0.687321	0.408591	-0.716993	-0.425716	-0.428051	-0.496328	-0.335771	-0.304448	-0.822108	-0.324286	-0.83196	0.368263	-0.791413	1.05777	-1.30289	0.457032	-1.53928	0.90854	
2.24457	0	0	-1.10572	0.650825	-0.798035	0.763234	-2.2805	2.06068	-0.556293	0.553176	-0.075445	0.751089	-0.681723	0.696249	-0.449826	0.406635	-0.690402	0.399475	-0.715359	-0.430335	-0.435151	-0.501247	-0.340676	-0.314727	-0.82297	-0.336888	-0.847997	0.35723	-0.80293	1.04705	-1.31902	0.453648	-1.53905	0.899626	
2.24151	0	0	-1.10926	0.660842	-0.8049	0.765854	-2.28771	2.06148	-0.565063	0.55422	-0.0737162	0.756129	-0.689262	0.717554	-0.451295	0.410786	-0.693474	0.408158	-0.718629	-0.421095	-0.43986	-0.496259	-0.340293	-0.303742	-0.820592	-0.32857	-0.846899	0.354127	-0.797175	1.05241	-1.3128	0.452361	-1.54066	0.904185	
2.24457	0	0	-1.11281	0.67086	-0.811764	0.768475	-2.29492	2.06227	-0.573833	0.555264	-0.0719875	0.761169	-0.6968	0.73886	-0.452763	0.414937	-0.696546	0.416841	-0.721898	-0.411855	-0.444569	-0.491272	-0.339911	-0.292757	-0.818213	-0.320253	-0.8458	0.351023	-0.791419	1.05776	-1.30657	0.451075	-1.54227	0.908744	
2.23999	0	0	-1.11635	0.680878	-0.818629	0.771095	-2.30212	2.06306	-0.582604	0.556308	-0.0702587	0.766209	-0.704339	0.760166	-0.454232	0.419088	-0.699619	0.425525	-0.725167	-0.402615	-0.449278	-0.486285	-0.339528	-0.281772	-0.815835	-0.311935	-0.844702	0.347919	-0.785664	1.06311	-1.30034	0.449789	-1.54389	0.913302	
2.24304	0	0	-1.1199	0.690895	-0.825494	0.773716	-2.30933	2.06386	-0.591374	0.557352	-0.06853	0.771249	-0.711878	0.781471	-0.455701	0.423239	-0.702691	0.434208	-0.728437	-0.393375	-0.453987	-0.481297	-0.339145	-0.270787	-0.813457	-0.303617	-0.843604	0.344816	-0.779908	1.06847	-1.29411	0.448502	-1.5455	0.917861	
2.24304	0	0	-1.1159	0.699851	-0.826779	0.768964	-2.31653	2.06465	-0.592523	0.548739	-0.0630125	0.765586	-0.709363	0.774363	-0.457171	0.427392	-0.704741	0.440001	-0.730073	-0.388751	-0.453987	-0.481297	-0.337075	-0.276636	-0.814973	-0.299333	-0.844591	0.333543	-0.781738	1.06283	-1.29906	0.446169	-1.54227	0.908746	
2.23999	0	0	-1.1119	0.708806	-0.828064	0.764212	-2.32373	2.06544	-0.593672	0.540126	-0.057495	0.759924	-0.706848	0.767256	-0.45864	0.431544	-0.706791	0.445795	-0.731709	-0.384127	-0.453987	-0.481297	-0.335006	-0.282484	-0.816489	-0.295049	-0.845579	0.322271	-0.783567	1.05719	-1.30401	0.443836	-1.53905	0.89963	
2.23999	0	0	-1.1079	0.717761	-0.82935	0.75946	-2.33093	2.06623	-0.594821	0.531514	-0.0519775	0.754262	-0.704334	0.760149	-0.46011	0.435697	-0.708841	0.451589	-0.733345	-0.379504	-0.453987	-0.481297	-0.332937	-0.288332	-0.818005	-0.290764	-0.846566	0.310998	-0.785397	1.05154	-1.30895	0.441503	-1.53582	0.890515	
2.24151	0	0	-1.1039	0.726717	-0.830635	0.754708	-2.33812	2.06702	-0.59597	0.522901	-0.04646	0.748599	-0.701819	0.753041	-0.461579	0.43985	-0.710891	0.457382	-0.734981	-0.37488	-0.453987	-0.481297	-0.330867	-0.294181	-0.819521	-0.28648	-0.847553	0.299725	-0.787227	1.0459	-1.3139	0.43917	-1.5326	0.8814	
2.23999	0	0	-1.10168	0.740721	-0.828492	0.757035	-2.34712	2.07289	-0.594821	0.531514	-0.039205	0.747974	-0.706851	0.767262	-0.455288	0.438933	-0.706792	0.46362	-0.72677	-0.376689	-0.454558	-0.471363	-0.319748	-0.301446	-0.814111	-0.28672	-0.851829	0.297758	-0.783299	1.04561	-1.30639	0.434263	-1.5364	0.883886	
2.24151	0	0	-1.09946	0.754725	-0.826348	0.759362	-2.35611	2.07877	-0.593672	0.540126	-0.03195	0.747348	-0.711882	0.781482	-0.448997	0.438017	-0.702692	0.469858	-0.71856	-0.378497	-0.455128	-0.461429	-0.30863	-0.308712	-0.8087	-0.28696	-0.856105	0.295791	-0.779371	1.04533	-1.29888	0.429356	-1.54021	0.886371	
2.24151	0	0	-1.09724	0.768729	-0.824205	0.761689	-2.3651	2.08464	-0.592523	0.548739	-0.024695	0.746722	-0.716914	0.795703	-0.442705	0.4371	-0.698593	0.476095	-0.710349	-0.380306	-0.455699	-0.451494	-0.297512	-0.315977	-0.803289	-0.2872	-0.860381	0.293823	-0.775443	1.04504	-1.29137	0.424449	-1.54401	0.888857	
2.23846	0	0	-1.09502	0.782733	-0.822061	0.764016	-2.37409	2.09052	-0.591374	0.557352	-0.01744	0.746097	-0.721946	0.809924	-0.436414	0.436183	-0.694493	0.482333	-0.702138	-0.382115	-0.45627	-0.44156	-0.286393	-0.323242	-0.797879	-0.28744	-0.864657	0.291856	-0.771515	1.04475	-1.28386	0.419542	-1.54781	0.891343	
2.23846	0	0	-1.0968	0.787766	-0.823347	0.759266	-2.37229	2.08543	-0.592523	0.548739	-0.020283	0.754131	-0.724465	0.817043	-0.436414	0.436183	-0.69347	0.48836	-0.705414	-0.372856	-0.453013	-0.434114	-0.288077	-0.306392	-0.791602	-0.275041	-0.856102	0.295792	-0.761815	1.04981	-1.27891	0.421871	-1.54343	0.895486	
2.23389	0	0	-1.09859	0.792798	-0.824633	0.754516	-2.37049	2.08034	-0.593672	0.540126	-0.023126	0.762166	-0.726984	0.824161	-0.436414	0.436183	-0.692447	0.494386	-0.708691	-0.363596	-0.449755	-0.426669	-0.289761	-0.289542	-0.785325	-0.262643	-0.847546	0.299728	-0.752116	1.05488	-1.27395	0.4242	-1.53905	0.899628	
2.23236	0	0	-1.10037	0.797831	-0.825919	0.749766	-2.36869	2.07526	-0.594821	0.531514	-0.025969	0.770201	-0.729502	0.83128	-0.436414	0.436183	-0.691424	0.500412	-0.711967	-0.354337	-0.446497	-0.419223	-0.291445	-0.272691	-0.779048	-0.250244	-0.838991	0.303663	-0.742416	1.05994	-1.269	0.426528	-1.53466	0.903771	
2.23083	0	0	-1.10215	0.802864	-0.827205	0.745016	-2.36689	2.07017	-0.59597	0.522901	-0.028812	0.778235	-0.732021	0.838399	-0.436414	0.436183	-0.690401	0.506439	-0.715243	-0.345078	-0.44324	-0.411777	-0.293129	-0.255841	-0.772771	-0.237845	-0.830436	0.307599	-0.732717	1.06501	-1.26405	0.428857	-1.53028	0.907914	
2.23236	0	0	-1.09637	0.806833	-0.829348	0.742692	-2.36689	2.07017	-0.598197	0.517342	-0.027864	0.775556	-0.729502	0.83128	-0.436414	0.436183	-0.690401	0.506439	-0.705384	-0.35152	-0.444122	-0.409284	-0.296621	-0.258063	-0.77667	-0.241902	-0.833619	0.302533	-0.729567	1.05611	-1.269	0.426528	-1.53247	0.905842	
2.22931	0	0	-1.09059	0.810802	-0.831491	0.740368	-2.36689	2.07017	-0.600423	0.511783	-0.026916	0.772877	-0.726984	0.824161	-0.436414	0.436183	-0.690401	0.506439	-0.695524	-0.357962	-0.445004	-0.406791	-0.300113	-0.260285	-0.780568	-0.24596	-0.836802	0.297467	-0.726417	1.04721	-1.27395	0.4242	-1.53466	0.90377	
2.22626	0	0	-1.08481	0.814771	-0.833634	0.738044	-2.36689	2.07017	-0.602649	0.506223	-0.025968	0.770198	-0.724465	0.817043	-0.436414	0.436183	-0.690401	0.506439	-0.685665	-0.364404	-0.445886	-0.404299	-0.303605	-0.262506	-0.784466	-0.250018	-0.839986	0.292402	-0.723267	1.0383	-1.27891	0.421871	-1.53685	0.901698	
2.22931	0	0	-1.07903	0.81874	-0.835777	0.73572	-2.36689	2.07017	-0.604876	0.500664	-0.02502	0.767519	-0.721946	0.809924	-0.436414	0.436183	-0.690401	0.506439	-0.675806	-0.370846	-0.446768	-0.401806	-0.307097	-0.264728	-0.788365	-0.254075	-0.843169	0.287336	-0.720117	1.0294	-1.28386	0.419542	-1.53905	0.899626	
2.22778	0	0	-1.0826	0.828825	-0.834491	0.740467	-2.37229	2.08544	-0.604803	0.512311	-0.0187063	0.769574	-0.715609	0.816734	-0.437885	0.44034	-0.692457	0.51225	-0.677446	-0.366213	-0.441744	-0.399336	-0.300496	-0.271292	-0.782946	-0.254314	-0.836697	0.283107	-0.721167	1.03237	-1.28258	0.415924	-1.54205	0.899833	
2.22626	0	0	-1.08617	0.838911	-0.833206	0.745214	-2.37769	2.10071	-0.604731	0.523958	-0.0123925	0.771629	-0.709272	0.823543	-0.439356	0.444496	-0.694513	0.51806	-0.679085	-0.361579	-0.436721	-0.396865	-0.293895	-0.277856	-0.777527	-0.254553	-0.830224	0.278878	-0.722217	1.03533	-1.2813	0.412307	-1.54504	0.90004	
2.22626	0	0	-1.08974	0.848996	-0.831921	0.749961	-2.3831	2.11598	-0.604658	0.535605	-0.00607875	0.773685	-0.702935	0.830352	-0.440826	0.448653	-0.696568	0.52387	-0.680724	-0.356946	-0.431698	-0.394395	-0.287295	-0.284419	-0.772109	-0.254793	-0.823752	0.274649	-0.723266	1.0383	-1.28002	0.408689	-1.54804	0.900247	
2.23083	0	0	-1.09331	0.859081	-0.830635	0.754708	-2.3885	2.13125	-0.604586	0.547252	0.000235	0.77574	-0.696598	0.837162	-0.442297	0.45281	-0.698624	0.529681	-0.682364	-0.352313	-0.426674	-0.391925	-0.280694	-0.290983	-0.76669	-0.255032	-0.81728	0.27042	-0.724316	1.04127	-1.27874	0.405071	-1.55104	0.900454	
2.23236	0	0	-1.09152	0.854037	-0.82892	0.749863	-2.3867	2.12616	-0.607887	0.544729	0.0040275	0.765022	-0.702935	0.830352	-0.439356	0.444499	-0.699645	0.523649	-0.682364	-0.352313	-0.428441	-0.386933	-0.290405	-0.275631	-0.77667	-0.241903	-0.819581	0.290995	-0.728518	1.05314	-1.2813	0.412308	-1.55507	0.911852	
2.23541	0	0	-1.08974	0.848993	-0.827206	0.745017	-2.3849	2.12106	-0.611187	0.542206	0.00782	0.754304	-0.709272	0.823543	-0.436415	0.436187	-0.700667	0.517616	-0.682364	-0.352313	-0.430207	-0.381941	-0.300115	-0.260278	-0.78665	-0.228773	-0.821881	0.31157	-0.73272	1.06502	-1.28386	0.419545	-1.55911	0.92325	
2.23999	0	0	-1.08795	0.843949	-0.825491	0.740171	-2.38309	2.11597	-0.614488	0.539682	0.0116125	0.743587	-0.715609	0.816734	-0.433475	0.427875	-0.701688	0.511584	-0.682364	-0.352313	-0.431974	-0.376949	-0.309825	-0.244926	-0.796629	-0.215644	-0.824182	0.332145	-0.736922	1.07689	-1.28643	0.426782	-1.56314	0.934649	
2.23999	0	0	-1.08617	0.838905	-0.823776	0.735326	-2.38129	2.11088	-0.617789	0.537159	0.015405	0.732869	-0.721946	0.809924	-0.430534	0.419564	-0.702709	0.505552	-0.682364	-0.352313	-0.43374	-0.371957	-0.319536	-0.229574	-0.806609	-0.202515	-0.826483	0.35272	-0.741124	1.08877	-1.28899	0.434019	-1.56717	0.946047	
2.24762	0	0	-1.07681	0.832793	-0.825491	0.740171	-2.38309	2.11597	-0.60903	0.536116	0.0163522	0.730191	-0.710569	0.80249	-0.424235	0.418643	-0.698605	0.50287	-0.684004	-0.347677	-0.434623	-0.36946	-0.321987	-0.234729	-0.79967	-0.207049	-0.825384	0.349615	-0.740073	1.0858	-1.30272	0.44021	-1.56636	0.943766	
2.24914	0	0	-1.06746	0.826682	-0.827206	0.745017	-2.3849	2.12106	-0.600271	0.535072	0.0172995	0.727514	-0.699192	0.795057	-0.417937	0.417721	-0.6945	0.500188	-0.685644	-0.343042	-0.435507	-0.366963	-0.324438	-0.239883	-0.792732	-0.211583	-0.824286	0.34651	-0.739022	1.08283	-1.31645	0.4464	-1.56556	0.941485	
2.24762	0	0	-1.05811	0.82057	-0.82892	0.749863	-2.3867	2.12616	-0.591511	0.534029	0.0182467	0.724836	-0.687815	0.787623	-0.411638	0.4168	-0.690395	0.497506	-0.687285	-0.338406	-0.436391	-0.364466	-0.32689	-0.245038	-0.785794	-0.216116	-0.823187	0.343406	-0.737971	1.07986	-1.33018	0.452591	-1.56475	0.939205	
2.24762	0	0	-1.04875	0.814458	-0.830635	0.754708	-2.3885	2.13125	-0.582752	0.532985	0.019194	0.722159	-0.676438	0.780189	-0.40534	0.415879	-0.686291	0.494824	-0.688925	-0.333771	-0.437274	-0.361969	-0.329341	-0.250193	-0.778855	-0.22065	-0.822089	0.340301	-0.73692	1.07689	-1.34391	0.458782	-1.56394	0.936924	
2.25067	0	0	-1.05054	0.819502	-0.826348	0.759363	-2.37412	2.12969	-0.584841	0.550756	0.0272617	0.729247	-0.666254	0.800943	-0.408282	0.424194	-0.68424	0.497949	-0.680696	-0.335583	-0.434319	-0.361979	-0.325853	-0.247969	-0.774955	-0.216584	-0.817804	0.342276	-0.731147	1.08225	-1.3289	0.448972	-1.56775	0.939408	
2.24762	0	0	-1.05232	0.824546	-0.82206	0.764019	-2.35973	2.12813	-0.58693	0.568526	0.0353295	0.736335	-0.656069	0.821696	-0.411224	0.432509	-0.682188	0.501074	-0.672467	-0.337394	-0.431365	-0.361989	-0.322364	-0.245745	-0.771056	-0.212518	-0.81352	0.344251	-0.725374	1.08762	-1.31389	0.439162	-1.57155	0.941893	
2.24609	0	0	-1.05411	0.82959	-0.817773	0.768674	-2.34535	2.12657	-0.589018	0.586296	0.0433972	0.743423	-0.645885	0.84245	-0.414167	0.440825	-0.680137	0.5042	-0.664237	-0.339205	-0.428411	-0.362	-0.318876	-0.24352	-0.767156	-0.208451	-0.809235	0.346226	-0.7196	1.09299	-1.29888	0.429352	-1.57535	0.944377	
2.24762	0	0	-1.05589	0.834634	-0.813485	0.773329	-2.33097	2.12501	-0.591107	0.604067	0.051465	0.750511	-0.635701	0.863203	-0.417109	0.44914	-0.678085	0.507325	-0.656008	-0.341017	-0.425456	-0.36201	-0.315388	-0.241296	-0.763256	-0.204385	-0.804951	0.348201	-0.713827	1.09835	-1.28386	0.419542	-1.57915	0.946862	
2.24304	0	0	-1.05411	0.82959	-0.816487	0.773426	-2.33097	2.12501	-0.590027	0.601016	0.0543105	0.742469	-0.639533	0.849249	-0.417109	0.44914	-0.678083	0.498395	-0.654367	-0.345655	-0.426644	-0.366993	-0.314735	-0.255225	-0.767156	-0.208451	-0.814732	0.36176	-0.720924	1.10757	-1.29265	0.428069	-1.58077	0.951424	
2.24304	0	0	-1.05232	0.824546	-0.819489	0.773523	-2.33097	2.12501	-0.588947	0.597964	0.057156	0.734427	-0.643366	0.835295	-0.417109	0.44914	-0.67808	0.489465	-0.652726	-0.350293	-0.427831	-0.371976	-0.314082	-0.269154	-0.771056	-0.212518	-0.824513	0.37532	-0.72802	1.11678	-1.30144	0.436595	-1.58238	0.955987	
2.23694	0	0	-1.05054	0.819502	-0.822492	0.773619	-2.33097	2.12501	-0.587868	0.594912	0.0600015	0.726385	-0.647198	0.821341	-0.417109	0.44914	-0.678077	0.480535	-0.651085	-0.354931	-0.429018	-0.37696	-0.313428	-0.283083	-0.774955	-0.216584	-0.834294	0.388879	-0.735116	1.12599	-1.31023	0.445122	-1.584	0.960549	
2.23846	0	0	-1.04875	0.814458	-0.825494	0.773716	-2.33097	2.12501	-0.586788	0.591861	0.062847	0.718343	-0.65103	0.807387	-0.417109	0.44914	-0.678075	0.471605	-0.649444	-0.359569	-0.430206	-0.381943	-0.312775	-0.297012	-0.778855	-0.22065	-0.844075	0.402438	-0.742213	1.1352	-1.31902	0.453648	-1.58561	0.965111	
2.23694	0	0	-1.03939	0.808339	-0.825494	0.773716	-2.33458	2.13521	-0.584563	0.597448	0.0674375	0.715343	-0.65103	0.807387	-0.410806	0.44822	-0.678075	0.471605	-0.659314	-0.35312	-0.432277	-0.384427	-0.314196	-0.30507	-0.784272	-0.220415	-0.840776	0.393114	-0.742213	1.1352	-1.31774	0.450028	-1.5916	0.965515	
2.23389	0	0	-1.03003	0.802221	-0.825494	0.773716	-2.33819	2.14542	-0.582338	0.603034	0.072028	0.712344	-0.65103	0.807387	-0.404502	0.447299	-0.678075	0.471605	-0.669185	-0.34667	-0.434347	-0.38691	-0.315618	-0.313128	-0.78969	-0.22018	-0.837477	0.383791	-0.742213	1.1352	-1.31646	0.446409	-1.59758	0.965919	
2.23236	0	0	-1.02066	0.796103	-0.825494	0.773716	-2.3418	2.15563	-0.580114	0.608621	0.0766185	0.709345	-0.65103	0.807387	-0.398199	0.446379	-0.678075	0.471605	-0.679055	-0.34022	-0.436418	-0.389394	-0.31704	-0.321185	-0.795108	-0.219945	-0.834178	0.374467	-0.742213	1.1352	-1.31518	0.44279	-1.60357	0.966322	
2.23083	0	0	-1.0113	0.789984	-0.825494	0.773716	-2.34541	2.16583	-0.577889	0.614208	0.081209	0.706345	-0.65103	0.807387	-0.391896	0.445459	-0.678075	0.471605	-0.688925	-0.333771	-0.438489	-0.391878	-0.318461	-0.329243	-0.800525	-0.21971	-0.830879	0.365143	-0.742213	1.1352	-1.3139	0.43917	-1.60955	0.966726	
2.23083	0	0	-1.02066	0.796103	-0.829353	0.776237	-2.34361	2.16073	-0.581194	0.611673	0.0774143	0.717069	-0.656078	0.821653	-0.391896	0.445459	-0.686282	0.476968	-0.687285	-0.338406	-0.437606	-0.394372	-0.316005	-0.324109	-0.795108	-0.219945	-0.825496	0.364014	-0.739328	1.13789	-1.3139	0.43917	-1.60656	0.966524	
2.23083	0	0	-1.03003	0.802221	-0.833211	0.778759	-2.3418	2.15562	-0.584498	0.609137	0.0736195	0.727793	-0.661126	0.835919	-0.391896	0.445459	-0.694489	0.48233	-0.685644	-0.343042	-0.436724	-0.396867	-0.313549	-0.318975	-0.78969	-0.22018	-0.820113	0.362885	-0.736444	1.14058	-1.3139	0.43917	-1.60357	0.966322	
2.22931	0	0	-1.03939	0.808339	-0.83707	0.781281	-2.33999	2.15052	-0.587803	0.606602	0.0698248	0.738518	-0.666174	0.850185	-0.391896	0.445459	-0.702697	0.487693	-0.684004	-0.347677	-0.435841	-0.399361	-0.311093	-0.313841	-0.784272	-0.220415	-0.814731	0.361757	-0.733559	1.14328	-1.3139	0.43917	-1.60058	0.966121	
2.22778	0	0	-1.04875	0.814458	-0.840929	0.783802	-2.33819	2.14541	-0.591107	0.604067	0.06603	0.749242	-0.671222	0.864451	-0.391896	0.445459	-0.710904	0.493056	-0.682364	-0.352313	-0.434958	-0.401855	-0.308637	-0.308707	-0.778855	-0.22065	-0.809348	0.360628	-0.730674	1.14597	-1.3139	0.43917	-1.59758	0.965919	
2.22473	0	0	-1.04875	0.814458	-0.842213	0.779049	-2.34538	2.14619	-0.599868	0.605101	0.067928	0.743878	-0.65729	0.849861	-0.390424	0.441298	-0.707825	0.484356	-0.680724	-0.356946	-0.438217	-0.409305	-0.31006	-0.316761	-0.788165	-0.224476	-0.815717	0.350471	-0.727515	1.13704	-1.31134	0.431936	-1.59896	0.961561	
2.22778	0	0	-1.04875	0.814458	-0.843496	0.774296	-2.35258	2.14697	-0.60863	0.606134	0.069826	0.738514	-0.643358	0.835272	-0.388952	0.437138	-0.704747	0.475656	-0.679085	-0.361579	-0.441476	-0.416756	-0.311482	-0.324815	-0.797476	-0.228303	-0.822086	0.340314	-0.724356	1.12811	-1.30878	0.424702	-1.60034	0.957202	
2.21863	0	0	-1.04875	0.814458	-0.84478	0.769543	-2.35977	2.14775	-0.617391	0.607167	0.071724	0.733151	-0.629425	0.820682	-0.387479	0.432978	-0.701669	0.466956	-0.677446	-0.366213	-0.444734	-0.424207	-0.312905	-0.332869	-0.806786	-0.232129	-0.828455	0.330157	-0.721196	1.11918	-1.30622	0.417468	-1.60172	0.952844	
2.2232	0	0	-1.04875	0.814458	-0.846063	0.76479	-2.36697	2.14853	-0.626152	0.608201	0.073622	0.727787	-0.615493	0.806093	-0.386007	0.428817	-0.69859	0.458256	-0.675806	-0.370846	-0.447993	-0.431657	-0.314328	-0.340923	-0.816096	-0.235955	-0.834824	0.32	-0.718037	1.11025	-1.30366	0.410234	-1.6031	0.948486	
2.22015	0	0	-1.03939	0.808339	-0.846921	0.767214	-2.36516	2.14343	-0.622853	0.610737	0.0782147	0.724786	-0.618018	0.813229	-0.384535	0.424658	-0.700642	0.464055	-0.684026	-0.369035	-0.453892	-0.431631	-0.314328	-0.340923	-0.814577	-0.240248	-0.83691	0.311834	-0.716985	1.10728	-1.30366	0.410234	-1.60229	0.946207	
2.22015	0	0	-1.03003	0.802221	-0.847778	0.769637	-2.36336	2.13833	-0.619554	0.613272	0.0828075	0.721785	-0.620543	0.820365	-0.383064	0.4205	-0.702694	0.469855	-0.692247	-0.367224	-0.45979	-0.431604	-0.314328	-0.340923	-0.813059	-0.24454	-0.838996	0.303668	-0.715932	1.1043	-1.30366	0.410234	-1.60148	0.943928	
2.2171	0	0	-1.02066	0.796103	-0.848636	0.772061	-2.36155	2.13323	-0.616254	0.615807	0.0874003	0.718784	-0.623068	0.827501	-0.381593	0.416342	-0.704746	0.475654	-0.700468	-0.365412	-0.465689	-0.431578	-0.314328	-0.340923	-0.81154	-0.248832	-0.841083	0.295502	-0.71488	1.10133	-1.30366	0.410234	-1.60068	0.941649	
2.21863	0	0	-1.0113	0.789984	-0.849494	0.774485	-2.35975	2.12814	-0.612955	0.618343	0.091993	0.715783	-0.625593	0.834637	-0.380121	0.412183	-0.706798	0.481453	-0.708688	-0.363601	-0.471588	-0.431551	-0.314328	-0.340923	-0.810021	-0.253125	-0.843169	0.287336	-0.713827	1.09835	-1.30366	0.410234	-1.59987	0.93937	
2.21557	0	0	-1.0171	0.786023	-0.849063	0.764892	-2.36333	2.11873	-0.61194	0.603615	0.0856545	0.713744	-0.631952	0.827824	-0.389786	0.405725	-0.706798	0.481453	-0.705414	-0.372856	-0.476297	-0.426561	-0.310449	-0.327728	-0.818467	-0.244306	-0.839986	0.292402	-0.716985	1.10728	-1.29871	0.412561	-1.60391	0.950771	
2.21863	0	0	-1.02289	0.782061	-0.848633	0.755298	-2.36692	2.10933	-0.610926	0.588888	0.079316	0.711705	-0.638311	0.821012	-0.399451	0.399267	-0.706798	0.481453	-0.702139	-0.38211	-0.481005	-0.42157	-0.306569	-0.314534	-0.826913	-0.235487	-0.836802	0.297467	-0.720144	1.11621	-1.29376	0.414888	-1.60794	0.962173	
2.21557	0	0	-1.02869	0.7781	-0.848202	0.745705	-2.3705	2.09992	-0.609911	0.57416	0.0729775	0.709666	-0.644671	0.814199	-0.409116	0.392808	-0.706798	0.481453	-0.698864	-0.391365	-0.485714	-0.416579	-0.30269	-0.301339	-0.835359	-0.226668	-0.833619	0.302533	-0.723302	1.12513	-1.28881	0.417215	-1.61197	0.973574	
2.21863	0	0	-1.03449	0.774139	-0.847772	0.736112	-2.37409	2.09052	-0.608896	0.559433	0.066639	0.707627	-0.65103	0.807387	-0.418781	0.38635	-0.706798	0.481453	-0.69559	-0.400619	-0.490423	-0.411589	-0.298811	-0.288145	-0.843805	-0.217849	-0.830436	0.307599	-0.72646	1.13406	-1.28386	0.419542	-1.61601	0.984975	
2.21252	0	0	-1.03271	0.769104	-0.846915	0.733691	-2.37049	2.08035	-0.607819	0.556388	0.0675868	0.704949	-0.65103	0.807387	-0.425074	0.387273	-0.705776	0.487478	-0.703802	-0.398808	-0.490423	-0.411589	-0.303337	-0.287437	-0.842286	-0.222141	-0.826051	0.295208	-0.723302	1.12513	-1.28753	0.4136	-1.61359	0.978133	
2.211	0	0	-1.03092	0.764068	-0.846059	0.73127	-2.36689	2.07017	-0.606741	0.553342	0.0685345	0.702271	-0.65103	0.807387	-0.431368	0.388195	-0.704754	0.493503	-0.712014	-0.396997	-0.490423	-0.411589	-0.307863	-0.286729	-0.840768	-0.226434	-0.821667	0.282817	-0.720144	1.11621	-1.2912	0.407658	-1.61117	0.97129	
2.20947	0	0	-1.02914	0.759032	-0.845203	0.72885	-2.36329	2.06	-0.605663	0.550297	0.0694823	0.699592	-0.65103	0.807387	-0.437661	0.389118	-0.703731	0.499527	-0.720225	-0.395186	-0.490423	-0.411589	-0.312389	-0.286021	-0.839249	-0.230727	-0.817283	0.270427	-0.716985	1.10728	-1.29488	0.401716	-1.60875	0.964448	
2.21252	0	0	-1.02736	0.753997	-0.844346	0.726429	-2.35969	2.04983	-0.604586	0.547252	0.07043	0.696914	-0.65103	0.807387	-0.443954	0.39004	-0.702709	0.505552	-0.728437	-0.393375	-0.490423	-0.411589	-0.316915	-0.285313	-0.83773	-0.235019	-0.812898	0.258036	-0.713827	1.09835	-1.29855	0.395774	-1.60632	0.957605	
2.211	0	0	-1.02914	0.759032	-0.843061	0.731174	-2.36867	2.0557	-0.602361	0.552824	0.0758208	0.701631	-0.633248	0.806736	-0.442487	0.385893	-0.69553	0.512031	-0.726802	-0.397996	-0.488357	-0.40911	-0.309932	-0.280874	-0.839249	-0.230727	-0.812898	0.258036	-0.715932	1.1043	-1.29232	0.394482	-1.60794	0.962166	
2.211	0	0	-1.03092	0.764068	-0.841776	0.735918	-2.37765	2.06157	-0.600136	0.558397	0.0812115	0.706349	-0.615467	0.806084	-0.44102	0.381746	-0.688351	0.518509	-0.725167	-0.402617	-0.486292	-0.40663	-0.302949	-0.276436	-0.840768	-0.226434	-0.812898	0.258036	-0.718037	1.11025	-1.28609	0.39319	-1.60955	0.966727	
2.21252	0	0	-1.03271	0.769104	-0.84049	0.740663	-2.38663	2.06744	-0.597912	0.56397	0.0866023	0.711066	-0.597685	0.805433	-0.439552	0.377599	-0.681172	0.524987	-0.723531	-0.407239	-0.484227	-0.40415	-0.295966	-0.271998	-0.842286	-0.222141	-0.812898	0.258036	-0.720143	1.1162	-1.27985	0.391898	-1.61117	0.971288	
2.20795	0	0	-1.03449	0.774139	-0.839205	0.745407	-2.39561	2.07331	-0.595687	0.569542	0.091993	0.715783	-0.579904	0.804782	-0.438085	0.373452	-0.673993	0.531466	-0.721896	-0.41186	-0.482161	-0.401671	-0.288983	-0.267559	-0.843805	-0.217849	-0.812898	0.258036	-0.722248	1.12215	-1.27362	0.390606	-1.61278	0.975849	
2.20642	0	0	-1.03449	0.774139	-0.836635	0.738144	-2.39202	2.06315	-0.602289	0.564489	0.0911925	0.708066	-0.586278	0.79798	-0.441441	0.366089	-0.672964	0.528558	-0.718628	-0.421095	-0.485989	-0.39917	-0.294548	-0.263923	-0.843805	-0.217849	-0.810805	0.266194	-0.726463	1.13407	-1.27123	0.400169	-1.61221	0.982496	
2.20642	0	0	-1.03449	0.774139	-0.834064	0.73088	-2.38842	2.05299	-0.608892	0.559437	0.090392	0.700349	-0.592653	0.791177	-0.444798	0.358727	-0.671936	0.525651	-0.715361	-0.430331	-0.489817	-0.396668	-0.300113	-0.260286	-0.843805	-0.217849	-0.808712	0.274352	-0.730677	1.14598	-1.26883	0.409732	-1.61164	0.989143	
2.20337	0	0	-1.03449	0.774139	-0.831494	0.723616	-2.38483	2.04283	-0.615495	0.554385	0.0895915	0.692633	-0.599027	0.784374	-0.448154	0.351364	-0.670907	0.522744	-0.712093	-0.439566	-0.493645	-0.394167	-0.305677	-0.25665	-0.843805	-0.217849	-0.80662	0.282511	-0.734892	1.15789	-1.26644	0.419294	-1.61107	0.995789	
2.20795	0	0	-1.03449	0.774139	-0.828924	0.716353	-2.38124	2.03267	-0.622097	0.549332	0.088791	0.684916	-0.605401	0.777572	-0.45151	0.344001	-0.669878	0.519836	-0.708825	-0.448801	-0.497473	-0.391666	-0.311242	-0.253014	-0.843805	-0.217849	-0.804527	0.290669	-0.739107	1.1698	-1.26405	0.428857	-1.6105	1.00244	
2.211	0	0	-1.03627	0.779178	-0.825924	0.716253	-2.39021	2.03853	-0.617719	0.548812	0.0924362	0.684593	-0.607924	0.784702	-0.452975	0.348142	-0.668855	0.525875	-0.718662	-0.442374	-0.49629	-0.386691	-0.306714	-0.253721	-0.846845	-0.209258	-0.812101	0.298002	-0.741216	1.17576	-1.25909	0.431187	-1.6105	1.00244	
2.21405	0	0	-1.03805	0.784216	-0.822923	0.716153	-2.39918	2.04439	-0.613341	0.548292	0.0960815	0.684271	-0.610447	0.791832	-0.454441	0.352283	-0.667832	0.531915	-0.728498	-0.435947	-0.495108	-0.381715	-0.302185	-0.254428	-0.849885	-0.200666	-0.819676	0.305335	-0.743326	1.18172	-1.25413	0.433518	-1.6105	1.00244	
2.2171	0	0	-1.03984	0.789254	-0.819922	0.716053	-2.40815	2.05025	-0.608964	0.547772	0.0997268	0.683948	-0.61297	0.798963	-0.455906	0.356425	-0.666809	0.537955	-0.738335	-0.429519	-0.493926	-0.37674	-0.297657	-0.255134	-0.852925	-0.192075	-0.82725	0.312667	-0.745436	1.18768	-1.24917	0.435848	-1.6105	1.00244	
2.22015	0	0	-1.04162	0.794293	-0.816922	0.715953	-2.41712	2.05612	-0.604586	0.547252	0.103372	0.683625	-0.615493	0.806093	-0.457371	0.360566	-0.665786	0.543994	-0.748171	-0.423092	-0.492743	-0.371765	-0.293129	-0.255841	-0.855965	-0.183484	-0.834824	0.32	-0.747545	1.19365	-1.24421	0.438178	-1.6105	1.00244	
2.2232	0	0	-1.05276	0.805446	-0.819493	0.723219	-2.41712	2.05612	-0.608964	0.547772	0.100376	0.702077	-0.611652	0.820054	-0.451083	0.359642	-0.662712	0.55318	-0.741602	-0.420284	-0.489199	-0.356808	-0.286797	-0.237416	-0.844304	-0.171251	-0.823068	0.329026	-0.739948	1.20475	-1.24181	0.447767	-1.61075	1.01138	
2.2232	0	0	-1.06389	0.816599	-0.822064	0.730484	-2.41712	2.05612	-0.613341	0.548292	0.097379	0.72053	-0.607811	0.834016	-0.444794	0.358718	-0.659637	0.562366	-0.735034	-0.417476	-0.485655	-0.341851	-0.280466	-0.21899	-0.832642	-0.159018	-0.811311	0.338052	-0.732351	1.21585	-1.23942	0.457357	-1.61099	1.02032	
2.22626	0	0	-1.07503	0.827752	-0.824634	0.73775	-2.41712	2.05612	-0.617719	0.548812	0.0943825	0.738982	-0.603969	0.847977	-0.438506	0.357795	-0.656562	0.571552	-0.728465	-0.414668	-0.482111	-0.326895	-0.274135	-0.200564	-0.820981	-0.146785	-0.799555	0.347079	-0.724754	1.22695	-1.23702	0.466947	-1.61123	1.02926	
2.22626	0	0	-1.08617	0.838905	-0.827205	0.745016	-2.41712	2.05612	-0.622097	0.549332	0.091386	0.757434	-0.600128	0.861938	-0.432218	0.356871	-0.653488	0.580738	-0.721896	-0.41186	-0.478567	-0.311938	-0.267803	-0.182139	-0.80932	-0.134552	-0.787799	0.356105	-0.717157	1.23805	-1.23463	0.476536	-1.61147	1.0382	
2.22626	0	0	-1.0786	0.837837	-0.828062	0.747439	-2.41892	2.06119	-0.615565	0.542724	0.0950335	0.757115	-0.602659	0.869091	-0.433685	0.361016	-0.652467	0.586796	-0.723531	-0.407239	-0.475321	-0.304445	-0.263264	-0.182844	-0.805427	-0.130465	-0.793186	0.357236	-0.717157	1.23805	-1.22709	0.471612	-1.60985	1.03363	
2.22473	0	0	-1.07103	0.836769	-0.82892	0.749862	-2.42072	2.06627	-0.609034	0.536116	0.098681	0.756797	-0.60519	0.876244	-0.435152	0.365162	-0.651446	0.592855	-0.725167	-0.402617	-0.472075	-0.296951	-0.258725	-0.18355	-0.801535	-0.126378	-0.798574	0.358367	-0.717157	1.23805	-1.21955	0.466687	-1.60824	1.02906	
2.22473	0	0	-1.06346	0.835702	-0.829778	0.752285	-2.42251	2.07135	-0.602502	0.529509	0.102329	0.756478	-0.607721	0.883397	-0.436618	0.369307	-0.650425	0.598913	-0.726802	-0.397996	-0.468829	-0.289457	-0.254187	-0.184255	-0.797643	-0.12229	-0.803961	0.359497	-0.717157	1.23805	-1.21202	0.461763	-1.60662	1.02449	
2.22168	0	0	-1.05589	0.834634	-0.830635	0.754708	-2.42431	2.07643	-0.59597	0.522901	0.105976	0.756159	-0.610252	0.89055	-0.438085	0.373452	-0.649404	0.604972	-0.728437	-0.393375	-0.465583	-0.281964	-0.249648	-0.18496	-0.79375	-0.118203	-0.809348	0.360628	-0.717157	1.23805	-1.20448	0.456838	-1.605	1.01991	
2.22168	0	0	-1.05589	0.834634	-0.826348	0.759363	-2.40995	2.07486	-0.595899	0.534561	0.111375	0.760896	-0.59243	0.889916	-0.44102	0.381748	-0.641175	0.608573	-0.721862	-0.39056	-0.459382	-0.274461	-0.242643	-0.180488	-0.787487	-0.105691	-0.803961	0.359497	-0.713212	1.23777	-1.20577	0.460469	-1.6012	1.01743	
2.21863	0	0	-1.05589	0.834634	-0.82206	0.764019	-2.3956	2.0733	-0.595828	0.546221	0.116775	0.765632	-0.574607	0.889282	-0.443956	0.390043	-0.632945	0.612173	-0.715288	-0.387745	-0.45318	-0.266957	-0.235639	-0.176017	-0.781224	-0.09318	-0.798574	0.358367	-0.709267	1.23749	-1.20705	0.464101	-1.5974	1.01494	
2.21557	0	0	-1.05589	0.834634	-0.817773	0.768674	-2.38124	2.07173	-0.595758	0.557882	0.122174	0.770369	-0.556785	0.888649	-0.446891	0.398339	-0.624716	0.615774	-0.708713	-0.38493	-0.446979	-0.259454	-0.228634	-0.171545	-0.774961	-0.0806685	-0.793186	0.357236	-0.705321	1.23721	-1.20834	0.467732	-1.59359	1.01246	
2.21557	0	0	-1.05589	0.834634	-0.813485	0.773329	-2.36689	2.07017	-0.595687	0.569542	0.127573	0.775106	-0.538963	0.888015	-0.449826	0.406635	-0.616487	0.619375	-0.702138	-0.382115	-0.440778	-0.251951	-0.221629	-0.167073	-0.768698	-0.068157	-0.787799	0.356105	-0.701376	1.23693	-1.20962	0.471363	-1.58979	1.00998	
2.21405	0	0	-1.05232	0.824549	-0.812627	0.770903	-2.37407	2.07095	-0.592453	0.560403	0.125669	0.780486	-0.544039	0.902362	-0.446473	0.414022	-0.617536	0.631299	-0.703775	-0.377487	-0.439306	-0.239407	-0.214238	-0.151499	-0.760898	-0.0599417	-0.781417	0.366288	-0.698487	1.23964	-1.20465	0.473701	-1.58841	1.01435	
2.211	0	0	-1.04876	0.814464	-0.811768	0.768478	-2.38125	2.07174	-0.58922	0.551264	0.123766	0.785865	-0.549115	0.916708	-0.44312	0.421409	-0.618584	0.643223	-0.705413	-0.372858	-0.437833	-0.226863	-0.206848	-0.135925	-0.753097	-0.0517265	-0.775035	0.376472	-0.695597	1.24236	-1.19968	0.476038	-1.58704	1.01872	
2.20947	0	0	-1.04519	0.804378	-0.810909	0.766052	-2.38843	2.07252	-0.585986	0.542124	0.121862	0.791245	-0.554192	0.931055	-0.439767	0.428796	-0.619633	0.655146	-0.707051	-0.368229	-0.436361	-0.214319	-0.199457	-0.12035	-0.745297	-0.0435113	-0.768652	0.386655	-0.692708	1.24507	-1.1947	0.478376	-1.58566	1.02309	
2.211	0	0	-1.04162	0.794293	-0.810051	0.763626	-2.39561	2.07331	-0.582752	0.532985	0.119958	0.796625	-0.559268	0.945401	-0.436414	0.436183	-0.620681	0.66707	-0.708688	-0.363601	-0.434889	-0.201775	-0.192067	-0.104776	-0.737496	-0.035296	-0.76227	0.396838	-0.689819	1.24778	-1.18973	0.480714	-1.58428	1.02747	
2.20642	0	0	-1.04741	0.790331	-0.810051	0.763626	-2.40279	2.07409	-0.589288	0.539597	0.119958	0.796625	-0.559268	0.945401	-0.43306	0.443583	-0.615534	0.670459	-0.708688	-0.363601	-0.428972	-0.201778	-0.19662	-0.104071	-0.73903	-0.0309617	-0.758965	0.387498	-0.690593	1.23909	-1.18716	0.473447	-1.58485	1.02081	
2.20642	0	0	-1.0532	0.786369	-0.810051	0.763626	-2.40996	2.07487	-0.595824	0.546209	0.119958	0.796625	-0.559268	0.945401	-0.429706	0.450982	-0.610387	0.673848	-0.708688	-0.363601	-0.423055	-0.201781	-0.201172	-0.103367	-0.740563	-0.0266275	-0.75566	0.378158	-0.691367	1.2304	-1.18459	0.466181	-1.58542	1.01415	
2.20337	0	0	-1.05899	0.782406	-0.810051	0.763626	-2.41714	2.07565	-0.60236	0.552821	0.119958	0.796625	-0.559268	0.945401	-0.426352	0.458382	-0.60524	0.677237	-0.708688	-0.363601	-0.417138	-0.201783	-0.205725	-0.102662	-0.742097	-0.0222933	-0.752355	0.368818	-0.692142	1.22171	-1.18202	0.458915	-1.58599	1.00749	
2.20642	0	0	-1.06477	0.778444	-0.810051	0.763626	-2.42431	2.07643	-0.608896	0.559433	0.119958	0.796625	-0.559268	0.945401	-0.422998	0.465782	-0.600093	0.680626	-0.708688	-0.363601	-0.411221	-0.201786	-0.210278	-0.101957	-0.74363	-0.017959	-0.74905	0.359478	-0.692916	1.21302	-1.17945	0.451648	-1.58656	1.00084	
2.20032	0	0	-1.07412	0.784549	-0.810483	0.773238	-2.42791	2.08659	-0.609911	0.57416	0.12536	0.801375	-0.552884	0.952277	-0.419643	0.473194	-0.593904	0.681087	-0.711966	-0.354337	-0.41211	-0.199272	-0.200124	-0.106321	-0.74363	-0.017959	-0.746849	0.353257	-0.690802	1.20705	-1.18442	0.449316	-1.58114	0.993782	
2.20184	0	0	-1.08346	0.790654	-0.810914	0.782849	-2.4315	2.09676	-0.610926	0.588888	0.130763	0.806125	-0.546501	0.959153	-0.416288	0.480607	-0.587714	0.681548	-0.715244	-0.345073	-0.413	-0.196758	-0.18997	-0.110686	-0.74363	-0.017959	-0.744648	0.347035	-0.688689	1.20108	-1.1894	0.446984	-1.57572	0.986729	
2.20184	0	0	-1.0928	0.796759	-0.811346	0.792461	-2.4351	2.10693	-0.61194	0.603615	0.136165	0.810874	-0.540117	0.966028	-0.412933	0.488019	-0.581525	0.682009	-0.718522	-0.335809	-0.41389	-0.194244	-0.179817	-0.11505	-0.74363	-0.017959	-0.742446	0.340814	-0.686575	1.1951	-1.19437	0.444652	-1.5703	0.979675	
2.20184	0	0	-1.10215	0.802864	-0.811778	0.802073	-2.4387	2.11709	-0.612955	0.618343	0.141567	0.815624	-0.533733	0.972904	-0.409578	0.495432	-0.575336	0.68247	-0.7218	-0.326545	-0.414779	-0.19173	-0.169663	-0.119415	-0.74363	-0.017959	-0.740245	0.334593	-0.684461	1.18913	-1.19934	0.44232	-1.56488	0.972621	
2.20184	0	0	-1.1097	0.80393	-0.81006	0.797217	-2.4387	2.11709	-0.611875	0.615291	0.141722	0.805175	-0.540117	0.966028	-0.40327	0.494515	-0.576359	0.676382	-0.7218	-0.326545	-0.420696	-0.191729	-0.179817	-0.11505	-0.74753	-0.0220732	-0.73925	0.345906	-0.685518	1.19212	-1.19437	0.444652	-1.57191	0.984245	
2.20337	0	0	-1.11725	0.804995	-0.808342	0.792361	-2.4387	2.11709	-0.610796	0.61224	0.141877	0.794726	-0.546501	0.959153	-0.396963	0.493598	-0.577381	0.670293	-0.7218	-0.326545	-0.426612	-0.191727	-0.18997	-0.110686	-0.751431	-0.0261875	-0.738254	0.357218	-0.686574	1.1951	-1.1894	0.446984	-1.57895	0.995869	
2.19879	0	0	-1.1248	0.806061	-0.806623	0.787505	-2.4387	2.11709	-0.609716	0.609189	0.142032	0.784277	-0.552884	0.952277	-0.390656	0.492682	-0.578404	0.664205	-0.7218	-0.326545	-0.432528	-0.191726	-0.200124	-0.106321	-0.755331	-0.0303018	-0.737259	0.368531	-0.687631	1.19809	-1.18442	0.449316	-1.58599	1.00749	
2.20184	0	0	-1.13236	0.807127	-0.804905	0.782649	-2.4387	2.11709	-0.608636	0.606137	0.142187	0.773828	-0.559268	0.945401	-0.384348	0.491765	-0.579427	0.658117	-0.7218	-0.326545	-0.438445	-0.191725	-0.210278	-0.101957	-0.759231	-0.034416	-0.736263	0.379844	-0.688688	1.20107	-1.17945	0.451648	-1.59303	1.01912	
2.19879	0	0	-1.12302	0.801029	-0.804905	0.782649	-2.4387	2.11709	-0.604254	0.605619	0.143139	0.771138	-0.559268	0.945401	-0.37951	0.495017	-0.579427	0.658117	-0.711941	-0.332987	-0.438736	-0.199258	-0.210653	-0.113051	-0.761598	-0.0428513	-0.738359	0.371641	-0.689466	1.1924	-1.18442	0.449316	-1.5868	1.00978	
2.20032	0	0	-1.11369	0.79493	-0.804905	0.782649	-2.4387	2.11709	-0.599872	0.605102	0.14409	0.768448	-0.559268	0.945401	-0.374673	0.49827	-0.579427	0.658117	-0.702082	-0.339429	-0.439026	-0.206792	-0.211027	-0.124145	-0.763964	-0.0512865	-0.740455	0.363438	-0.690244	1.18373	-1.1894	0.446984	-1.58057	1.00044	
2.20337	0	0	-1.10436	0.788832	-0.804905	0.782649	-2.4387	2.11709	-0.595489	0.604585	0.145042	0.765759	-0.559268	0.945401	-0.369835	0.501522	-0.579427	0.658117	-0.692223	-0.345871	-0.439316	-0.214325	-0.211402	-0.135239	-0.766331	-0.0597217	-0.742551	0.355236	-0.691023	1.17506	-1.19437	0.444652	-1.57434	0.991096	
2.19879	0	0	-1.09502	0.782733	-0.804905	0.782649	-2.4387	2.11709	-0.591107	0.604067	0.145993	0.763069	-0.559268	0.945401	-0.364997	0.504775	-0.579427	0.658117	-0.682364	-0.352313	-0.439607	-0.221858	-0.211777	-0.146333	-0.768698	-0.068157	-0.744647	0.347033	-0.691801	1.16639	-1.19934	0.44232	-1.56811	0.981756	
2.20032	0	0	-1.10614	0.793864	-0.803619	0.787409	-2.4423	2.12727	-0.597593	0.622399	0.148543	0.77589	-0.557977	0.966669	-0.360155	0.508031	-0.582537	0.666905	-0.682364	-0.352313	-0.437831	-0.226877	-0.207226	-0.14704	-0.768698	-0.068157	-0.744647	0.347033	-0.68891	1.16909	-1.19934	0.44232	-1.56592	0.983838	
2.20032	0	0	-1.11725	0.804995	-0.802333	0.792169	-2.4459	2.13745	-0.60408	0.640731	0.151093	0.78871	-0.556685	0.987937	-0.355313	0.511286	-0.585646	0.675694	-0.682364	-0.352313	-0.436056	-0.231896	-0.202676	-0.147747	-0.768698	-0.068157	-0.744647	0.347033	-0.686018	1.17179	-1.19934	0.44232	-1.56373	0.985921	
2.20032	0	0	-1.12837	0.816127	-0.801046	0.79693	-2.4495	2.14762	-0.610567	0.659062	0.153644	0.801531	-0.555394	1.00921	-0.350471	0.514542	-0.588755	0.684482	-0.682364	-0.352313	-0.43428	-0.236914	-0.198126	-0.148455	-0.768698	-0.068157	-0.744647	0.347033	-0.683127	1.17449	-1.19934	0.44232	-1.56154	0.988004	
2.19879	0	0	-1.13948	0.827258	-0.79976	0.80169	-2.4531	2.1578	-0.617053	0.677394	0.156194	0.814352	-0.554103	1.03047	-0.345629	0.517798	-0.591865	0.693271	-0.682364	-0.352313	-0.432504	-0.241933	-0.193575	-0.149162	-0.768698	-0.068157	-0.744647	0.347033	-0.680236	1.17719	-1.19934	0.44232	-1.55935	0.990086	
2.20642	0	0	-1.13015	0.82116	-0.801905	0.799357	-2.4531	2.1578	-0.61267	0.676882	0.155395	0.806592	-0.551556	1.02327	-0.345629	0.517798	-0.588755	0.684482	-0.684004	-0.347677	-0.437527	-0.244434	-0.192915	-0.163179	-0.769538	-0.0808943	-0.753346	0.357501	-0.680236	1.17719	-1.20688	0.447244	-1.56259	0.999232	
2.20489	0	0	-1.12081	0.815061	-0.804051	0.797025	-2.4531	2.1578	-0.608287	0.67637	0.154597	0.798831	-0.549009	1.01608	-0.345629	0.517798	-0.585646	0.675694	-0.685644	-0.343042	-0.44255	-0.246935	-0.192256	-0.177197	-0.770379	-0.0936315	-0.762045	0.36797	-0.680236	1.17719	-1.21442	0.452168	-1.56582	1.00838	
2.20337	0	0	-1.11148	0.808963	-0.806196	0.794693	-2.4531	2.1578	-0.603904	0.675857	0.153799	0.791071	-0.546461	1.00888	-0.345629	0.517798	-0.582537	0.666905	-0.687285	-0.338406	-0.447573	-0.249436	-0.191597	-0.191215	-0.771219	-0.106369	-0.770743	0.378439	-0.680236	1.17719	-1.22195	0.457093	-1.56906	1.01752	
2.20795	0	0	-1.10215	0.802864	-0.808341	0.79236	-2.4531	2.1578	-0.599521	0.675345	0.153	0.783311	-0.543914	1.00168	-0.345629	0.517798	-0.579427	0.658117	-0.688925	-0.333771	-0.452596	-0.251937	-0.190937	-0.205232	-0.772059	-0.119106	-0.779442	0.388907	-0.680236	1.17719	-1.22949	0.462017	-1.5723	1.02667	
2.21252	0	0	-1.10393	0.8079	-0.807055	0.797122	-2.44593	2.15703	-0.599469	0.687082	0.156658	0.78299	-0.546461	1.00888	-0.345629	0.517798	-0.580463	0.661045	-0.688925	-0.333771	-0.452596	-0.251937	-0.195486	-0.204521	-0.777482	-0.11888	-0.778341	0.385795	-0.676287	1.1769	-1.22821	0.458389	-1.57311	1.02896	
2.211	0	0	-1.10571	0.812936	-0.80577	0.801885	-2.43876	2.15626	-0.599418	0.698819	0.160315	0.78267	-0.549009	1.01608	-0.345629	0.517798	-0.5815	0.663974	-0.688925	-0.333771	-0.452596	-0.251937	-0.200035	-0.203811	-0.782905	-0.118654	-0.777239	0.382683	-0.672337	1.17662	-1.22692	0.454761	-1.57392	1.03124	
2.21252	0	0	-1.10749	0.817971	-0.804485	0.806647	-2.43159	2.15549	-0.599367	0.710556	0.163973	0.78235	-0.551556	1.02327	-0.345629	0.517798	-0.582536	0.666902	-0.688925	-0.333771	-0.452596	-0.251937	-0.204584	-0.2031	-0.788327	-0.118429	-0.776138	0.37957	-0.668387	1.17633	-1.22564	0.451133	-1.57473	1.03353	
2.20947	0	0	-1.10927	0.823007	-0.803199	0.811409	-2.42442	2.15472	-0.599315	0.722293	0.167631	0.782029	-0.554103	1.03047	-0.345629	0.517798	-0.583572	0.669831	-0.688925	-0.333771	-0.452596	-0.251937	-0.209133	-0.202389	-0.79375	-0.118203	-0.775037	0.376458	-0.664438	1.17605	-1.22435	0.447505	-1.57553	1.03582	
2.211	0	0	-1.10927	0.823007	-0.807923	0.816365	-2.42442	2.15472	-0.599315	0.722293	0.166522	0.795184	-0.550274	1.0446	-0.345629	0.517798	-0.585645	0.675691	-0.682338	-0.330942	-0.447573	-0.249436	-0.197176	-0.18755	-0.788327	-0.118429	-0.766446	0.38042	-0.663658	1.18472	-1.21939	0.449838	-1.57497	1.04249	
2.211	0	0	-1.10927	0.823007	-0.812647	0.82132	-2.42442	2.15472	-0.599315	0.722293	0.165413	0.808339	-0.546445	1.05873	-0.345629	0.517798	-0.587719	0.681551	-0.675751	-0.328113	-0.44255	-0.246935	-0.18522	-0.172711	-0.782905	-0.118654	-0.757855	0.384382	-0.662878	1.1934	-1.21442	0.452172	-1.5744	1.04916	
2.20947	0	0	-1.10927	0.823007	-0.817371	0.826276	-2.42442	2.15472	-0.599315	0.722293	0.164305	0.821494	-0.542616	1.07286	-0.345629	0.517798	-0.589792	0.687411	-0.669163	-0.325284	-0.437527	-0.244434	-0.173263	-0.157872	-0.777482	-0.11888	-0.749264	0.388344	-0.662098	1.20208	-1.20945	0.454505	-1.57383	1.05583	
2.21405	0	0	-1.10927	0.823007	-0.822095	0.831231	-2.42442	2.15472	-0.599315	0.722293	0.163196	0.834649	-0.538787	1.08699	-0.345629	0.517798	-0.591865	0.693271	-0.662576	-0.322455	-0.432504	-0.241933	-0.161306	-0.143033	-0.772059	-0.119106	-0.740673	0.392306	-0.661318	1.21076	-1.20448	0.456838	-1.57327	1.0625	
2.21252	0	0	-1.10927	0.823007	-0.820375	0.826371	-2.42442	2.15472	-0.599315	0.722293	0.159538	0.834966	-0.536234	1.07977	-0.350471	0.514542	-0.590828	0.690341	-0.664219	-0.317812	-0.430435	-0.239427	-0.158836	-0.137837	-0.772059	-0.119106	-0.738468	0.386076	-0.658146	1.2018	-1.20945	0.454505	-1.56865	1.05772	
2.21405	0	0	-1.10927	0.823007	-0.818655	0.821511	-2.42442	2.15472	-0.599315	0.722293	0.15588	0.835283	-0.53368	1.07256	-0.355313	0.511286	-0.589792	0.68741	-0.665862	-0.313169	-0.428366	-0.236921	-0.156365	-0.132641	-0.772059	-0.119106	-0.736264	0.379846	-0.654973	1.19283	-1.21442	0.452172	-1.56403	1.05294	
2.21405	0	0	-1.10927	0.823007	-0.816936	0.81665	-2.42442	2.15472	-0.599315	0.722293	0.152221	0.8356	-0.531126	1.06534	-0.360155	0.508031	-0.588755	0.684479	-0.667504	-0.308526	-0.426296	-0.234414	-0.153894	-0.127445	-0.772059	-0.119106	-0.73406	0.373617	-0.651801	1.18386	-1.21939	0.449838	-1.55941	1.04816	
2.21405	0	0	-1.10927	0.823007	-0.815216	0.81179	-2.42442	2.15472	-0.599315	0.722293	0.148563	0.835917	-0.528573	1.05812	-0.364997	0.504775	-0.587718	0.681549	-0.669147	-0.303883	-0.424227	-0.231908	-0.151424	-0.122249	-0.772059	-0.119106	-0.731855	0.367387	-0.648629	1.1749	-1.22435	0.447505	-1.55479	1.04338	
2.21252	0	0	-1.10927	0.823007	-0.813932	0.816556	-2.42623	2.15982	-0.593794	0.730476	0.151267	0.838298	-0.531126	1.06534	-0.362045	0.496432	-0.588755	0.684479	-0.672435	-0.29459	-0.423935	-0.224376	-0.144388	-0.117756	-0.773587	-0.114789	-0.731855	0.367387	-0.647572	1.17191	-1.22307	0.443878	-1.55398	1.04109	
2.211	0	0	-1.10927	0.823007	-0.812648	0.821322	-2.42803	2.16492	-0.588272	0.738659	0.153971	0.840678	-0.53368	1.07256	-0.359093	0.48809	-0.589792	0.68741	-0.675724	-0.285297	-0.423643	-0.216844	-0.137351	-0.113263	-0.775115	-0.110472	-0.731855	0.367387	-0.646516	1.16893	-1.22179	0.440252	-1.55317	1.0388	
2.211	0	0	-1.10927	0.823007	-0.811364	0.826089	-2.42983	2.17001	-0.58275	0.746842	0.156674	0.843059	-0.536234	1.07977	-0.356141	0.479747	-0.590828	0.690341	-0.679012	-0.276004	-0.42335	-0.209312	-0.130314	-0.10877	-0.776642	-0.106154	-0.731855	0.367387	-0.645459	1.16594	-1.2205	0.436625	-1.55236	1.03651	
2.21252	0	0	-1.10927	0.823007	-0.81008	0.830855	-2.43164	2.17511	-0.577229	0.755025	0.159378	0.845439	-0.538787	1.08699	-0.353189	0.471405	-0.591865	0.693271	-0.6823	-0.266711	-0.423058	-0.20178	-0.123278	-0.104277	-0.77817	-0.101837	-0.731855	0.367387	-0.644403	1.16295	-1.21922	0.432998	-1.55155	1.03422	
2.211	0	0	-1.11326	0.814007	-0.809645	0.821231	-2.437	2.17078	-0.578363	0.746331	0.15572	0.845756	-0.55027	1.09449	-0.356556	0.463996	-0.59805	0.692807	-0.672418	-0.273168	-0.420988	-0.199267	-0.122527	-0.081988	-0.779699	-0.0975175	-0.725455	0.377584	-0.643346	1.15997	-1.2205	0.436625	-1.54936	1.03631	
2.21252	0	0	-1.11726	0.805008	-0.809211	0.811608	-2.44237	2.16646	-0.579496	0.737638	0.152062	0.846072	-0.561754	1.102	-0.359923	0.456587	-0.604235	0.692344	-0.662537	-0.279625	-0.418918	-0.196755	-0.121777	-0.059699	-0.781227	-0.093198	-0.719054	0.38778	-0.64229	1.15698	-1.22179	0.440252	-1.54717	1.0384	
2.211	0	0	-1.12125	0.796008	-0.808776	0.801984	-2.44774	2.16213	-0.58063	0.728944	0.148404	0.846388	-0.573238	1.1095	-0.36329	0.449177	-0.610421	0.69188	-0.652655	-0.286082	-0.416849	-0.194243	-0.121026	-0.03741	-0.782755	-0.0888785	-0.712654	0.397977	-0.641234	1.154	-1.22307	0.443878	-1.54498	1.04049	
2.20795	0	0	-1.12524	0.787008	-0.808341	0.79236	-2.4531	2.1578	-0.581764	0.720251	0.144746	0.846705	-0.584721	1.117	-0.366657	0.441768	-0.616606	0.691416	-0.642773	-0.292539	-0.414779	-0.19173	-0.120275	-0.015121	-0.784284	-0.084559	-0.706253	0.408173	-0.640177	1.15101	-1.22435	0.447505	-1.54279	1.04258	
2.20947	0	0	-1.12346	0.781981	-0.810485	0.790029	-2.46026	2.15857	-0.585068	0.717697	0.14109	0.84702	-0.577067	1.09537	-0.377799	0.439453	-0.621749	0.688025	-0.641128	-0.297187	-0.416849	-0.194243	-0.114652	-0.0187952	-0.779701	-0.0975112	-0.709454	0.403072	-0.648864	1.14293	-1.22675	0.437927	-1.54255	1.03363	
2.21252	0	0	-1.12168	0.776954	-0.81263	0.787697	-2.46743	2.15933	-0.588372	0.715143	0.137435	0.847336	-0.569412	1.07374	-0.38894	0.437137	-0.626892	0.684633	-0.639484	-0.301835	-0.418918	-0.196755	-0.109029	-0.0224695	-0.775118	-0.110463	-0.712655	0.39797	-0.657551	1.13486	-1.22915	0.428349	-1.54231	1.02467	
2.20795	0	0	-1.1199	0.771926	-0.814774	0.785366	-2.47459	2.1601	-0.591675	0.71259	0.133779	0.847651	-0.561758	1.05211	-0.400081	0.434821	-0.632035	0.681241	-0.63784	-0.306482	-0.420988	-0.199267	-0.103406	-0.0261438	-0.770535	-0.123416	-0.715856	0.392868	-0.666238	1.12678	-1.23155	0.418772	-1.54207	1.01572	
2.20337	0	0	-1.11812	0.766899	-0.816919	0.783035	-2.48175	2.16087	-0.594979	0.710036	0.130123	0.847966	-0.554103	1.03047	-0.411223	0.432506	-0.637178	0.67785	-0.636195	-0.31113	-0.423058	-0.20178	-0.097783	-0.029818	-0.765952	-0.136368	-0.719057	0.387767	-0.674925	1.1187	-1.23395	0.409194	-1.54183	1.00676	
2.20795	0	0	-1.12745	0.772991	-0.814774	0.785366	-2.48535	2.17105	-0.589456	0.718214	0.132824	0.850348	-0.547721	1.03739	-0.408282	0.424195	-0.635108	0.672	-0.644433	-0.309318	-0.422169	-0.204292	-0.099884	-0.0238802	-0.772901	-0.131827	-0.712545	0.383512	-0.671764	1.10977	-1.23139	0.401954	-1.54321	1.00239	
2.20795	0	0	-1.13677	0.779083	-0.81263	0.787697	-2.48895	2.18123	-0.583932	0.726392	0.135525	0.852731	-0.541338	1.0443	-0.405342	0.415883	-0.633038	0.666149	-0.652671	-0.307507	-0.42128	-0.206805	-0.101985	-0.0179425	-0.779851	-0.127285	-0.706034	0.379257	-0.668604	1.10084	-1.22883	0.394714	-1.54459	0.998019	
2.20795	0	0	-1.14609	0.785175	-0.810485	0.790029	-2.49256	2.19142	-0.578408	0.734569	0.138227	0.855113	-0.534955	1.05121	-0.402401	0.407571	-0.630968	0.660299	-0.660909	-0.305695	-0.420391	-0.209317	-0.104086	-0.0120047	-0.786801	-0.122744	-0.699523	0.375002	-0.665443	1.0919	-1.22627	0.387474	-1.54598	0.993648	
2.20642	0	0	-1.15541	0.791267	-0.808341	0.79236	-2.49616	2.2016	-0.572885	0.742747	0.140928	0.857495	-0.528573	1.05812	-0.39946	0.39926	-0.628898	0.654449	-0.669147	-0.303883	-0.419502	-0.21183	-0.106187	-0.006067	-0.79375	-0.118203	-0.693011	0.370747	-0.662283	1.08297	-1.22371	0.380234	-1.54736	0.989277	
2.20642	0	0	-1.15186	0.781221	-0.806623	0.787505	-2.49256	2.19142	-0.57619	0.740189	0.141088	0.847027	-0.541331	1.04431	-0.402822	0.391883	-0.630938	0.642307	-0.667504	-0.308526	-0.424528	-0.214337	-0.116379	-0.00169025	-0.804581	-0.117757	-0.699636	0.38947	-0.671227	1.08653	-1.22243	0.376616	-1.54897	0.99385	
2.20642	0	0	-1.14831	0.771176	-0.804906	0.78265	-2.48895	2.18123	-0.579495	0.737631	0.141247	0.83656	-0.554089	1.0305	-0.406185	0.384507	-0.632979	0.630165	-0.665862	-0.313169	-0.429555	-0.216844	-0.126571	0.0026865	-0.815412	-0.11731	-0.70626	0.408192	-0.680171	1.09009	-1.22114	0.372999	-1.55059	0.998422	
2.20947	0	0	-1.14475	0.76113	-0.803188	0.777795	-2.48535	2.17105	-0.582799	0.735074	0.141407	0.826092	-0.566847	1.01669	-0.409547	0.377131	-0.635019	0.618022	-0.664219	-0.317812	-0.434581	-0.219351	-0.136762	0.00706325	-0.826243	-0.116864	-0.712885	0.426914	-0.689116	1.09364	-1.21986	0.369381	-1.55221	1.003	
2.20489	0	0	-1.1412	0.751084	-0.80147	0.77294	-2.48175	2.16087	-0.586104	0.732516	0.141567	0.815624	-0.579605	1.00288	-0.412909	0.369754	-0.63706	0.60588	-0.662576	-0.322455	-0.439607	-0.221858	-0.146954	0.01144	-0.837074	-0.116417	-0.71951	0.445637	-0.69806	1.0972	-1.21859	0.365763	-1.55383	1.00757	
2.20337	0	0	-1.13942	0.746066	-0.80147	0.77294	-2.48175	2.16087	-0.581713	0.732005	0.143473	0.810238	-0.565594	0.988197	-0.417736	0.366533	-0.639114	0.602736	-0.667523	-0.329919	-0.443741	-0.226871	-0.152934	0.00394425	-0.840958	-0.120503	-0.716196	0.436271	-0.698847	1.08857	-1.22099	0.356222	-1.55902	1.00568	
2.20489	0	0	-1.13764	0.741047	-0.80147	0.77294	-2.48175	2.16087	-0.577323	0.731494	0.145378	0.804852	-0.551583	0.973516	-0.422563	0.363313	-0.641168	0.599592	-0.67247	-0.337384	-0.447875	-0.231884	-0.158913	-0.0035515	-0.844842	-0.124589	-0.712881	0.426905	-0.699633	1.07994	-1.2234	0.346681	-1.5642	1.0038	
2.20795	0	0	-1.13587	0.736028	-0.80147	0.77294	-2.48175	2.16087	-0.572932	0.730984	0.147284	0.799465	-0.537571	0.958835	-0.427391	0.360092	-0.643221	0.596448	-0.677417	-0.344849	-0.45201	-0.236897	-0.164893	-0.0110472	-0.848726	-0.128675	-0.709567	0.417539	-0.700419	1.07131	-1.22581	0.33714	-1.56939	1.00192	
2.20032	0	0	-1.13409	0.73101	-0.80147	0.77294	-2.48175	2.16087	-0.568542	0.730473	0.14919	0.794079	-0.52356	0.944154	-0.432218	0.356871	-0.645275	0.593304	-0.682364	-0.352313	-0.456144	-0.24191	-0.170873	-0.018543	-0.85261	-0.132761	-0.706253	0.408173	-0.701206	1.06269	-1.22822	0.327599	-1.57458	1.00003	
2.20489	0	0	-1.14163	0.732079	-0.799324	0.77527	-2.4907	2.16672	-0.57619	0.740189	0.148079	0.807235	-0.519712	0.95823	-0.432218	0.356871	-0.643221	0.596448	-0.688945	-0.355135	-0.45437	-0.246923	-0.162793	-0.0169833	-0.845677	-0.137291	-0.707358	0.411294	-0.706197	1.06595	-1.23318	0.325291	-1.56996	0.995262	
2.20489	0	0	-1.14917	0.733148	-0.797177	0.7776	-2.49965	2.17257	-0.583838	0.749905	0.146968	0.820392	-0.515864	0.972307	-0.432218	0.356871	-0.641168	0.599592	-0.695526	-0.357957	-0.452596	-0.251936	-0.154713	-0.0154235	-0.838745	-0.141821	-0.708462	0.414415	-0.711189	1.06921	-1.23814	0.322982	-1.56535	0.99049	
2.20184	0	0	-1.15671	0.734218	-0.795031	0.77993	-2.50861	2.17842	-0.591485	0.759621	0.145857	0.833549	-0.512017	0.986383	-0.432218	0.356871	-0.639114	0.602736	-0.702107	-0.360779	-0.450823	-0.256949	-0.146633	-0.0138638	-0.831812	-0.146351	-0.709566	0.417535	-0.71618	1.07247	-1.2431	0.320674	-1.56073	0.985718	
2.20184	0	0	-1.16424	0.735287	-0.792885	0.78226	-2.51756	2.18427	-0.599133	0.769337	0.144746	0.846705	-0.508169	1.00046	-0.432218	0.356871	-0.63706	0.60588	-0.708688	-0.363601	-0.449049	-0.261962	-0.138553	-0.012304	-0.824879	-0.150881	-0.710671	0.420656	-0.721171	1.07573	-1.24806	0.318366	-1.55612	0.980947	
2.20184	0	0	-1.1607	0.725264	-0.795031	0.77993	-2.51396	2.17409	-0.596961	0.763199	0.142044	0.844324	-0.517105	1.00076	-0.433685	0.361016	-0.638093	0.608799	-0.713625	-0.371044	-0.452297	-0.269465	-0.141393	-0.0286718	-0.83265	-0.159032	-0.713871	0.415551	-0.726943	1.07037	-1.25302	0.316059	-1.56211	0.981351	
2.20489	0	0	-1.15715	0.715241	-0.797177	0.7776	-2.51036	2.16392	-0.59479	0.757062	0.139343	0.841943	-0.526042	1.00107	-0.435152	0.365162	-0.639126	0.611718	-0.718562	-0.378488	-0.455545	-0.276968	-0.144234	-0.0450395	-0.840422	-0.167183	-0.71707	0.410446	-0.732714	1.06501	-1.25798	0.313753	-1.56811	0.981756	
2.20184	0	0	-1.15361	0.705218	-0.799324	0.77527	-2.50676	2.15375	-0.592618	0.750924	0.136641	0.839563	-0.534978	1.00137	-0.436618	0.369307	-0.640159	0.614637	-0.7235	-0.385931	-0.458793	-0.284472	-0.147074	-0.0614073	-0.848194	-0.175333	-0.72027	0.405342	-0.738485	1.05966	-1.26293	0.311447	-1.5741	0.98216	
2.20642	0	0	-1.15006	0.695195	-0.80147	0.77294	-2.50316	2.14358	-0.590446	0.744786	0.133939	0.837182	-0.543914	1.00168	-0.438085	0.373452	-0.641192	0.617556	-0.728437	-0.393375	-0.462041	-0.291975	-0.149914	-0.077775	-0.855965	-0.183484	-0.72347	0.400237	-0.744257	1.0543	-1.26789	0.30914	-1.58009	0.982564	
2.20337	0	0	-1.15006	0.695195	-0.797606	0.770415	-2.50136	2.1385	-0.587142	0.747346	0.139503	0.831475	-0.543914	1.00168	-0.439552	0.377599	-0.638105	0.617784	-0.735004	-0.396188	-0.466172	-0.296966	-0.151337	-0.0859387	-0.852925	-0.192075	-0.732068	0.396273	-0.745043	1.04569	-1.26534	0.301932	-1.58228	0.980483	
2.20642	5	0	-1.15006	0.695195	-0.793741	0.767891	-2.49957	2.13342	-0.583838	0.749905	0.145066	0.825767	-0.543914	1.00168	-0.44102	0.381746	-0.635018	0.618011	-0.741571	-0.399	-0.470304	-0.301956	-0.15276	-0.0941025	-0.849885	-0.200666	-0.740666	0.392309	-0.745829	1.03709	-1.26279	0.294724	-1.58447	0.978401	
2.20642	5	0	-1.15006	0.695195	-0.789877	0.765366	-2.49777	2.12834	-0.580533	0.752465	0.15063	0.820059	-0.543914	1.00168	-0.442487	0.385893	-0.63193	0.618238	-0.748138	-0.401813	-0.474436	-0.306947	-0.154183	-0.102266	-0.846845	-0.209258	-0.749264	0.388344	-0.746616	1.02848	-1.26024	0.287516	-1.58665	0.97632	
2.20184	5	0	-1.15006	0.695195	-0.786013	0.762841	-2.49597	2.12325	-0.577229	0.755025	0.156194	0.814352	-0.543914	1.00168	-0.443954	0.39004	-0.628843	0.618466	-0.754705	-0.404626	-0.478567	-0.311938	-0.155606	-0.11043	-0.843805	-0.217849	-0.757862	0.38438	-0.747402	1.01988	-1.25769	0.280308	-1.58884	0.974239	
2.20337	5	0	-1.13897	0.684103	-0.789018	0.762939	-2.50132	2.11894	-0.578363	0.746331	0.153332	0.82244	-0.534978	1.00137	-0.445422	0.394189	-0.628843	0.618466	-0.753072	-0.409243	-0.483579	-0.314426	-0.159792	-0.0986015	-0.849208	-0.217619	-0.750259	0.377019	-0.747402	1.01988	-1.25018	0.275401	-1.58504	0.971754	
2.20642	5	0	-1.12789	0.67301	-0.792024	0.763038	-2.50667	2.11463	-0.579496	0.737638	0.15047	0.830529	-0.526042	1.00107	-0.44689	0.398338	-0.628843	0.618466	-0.751438	-0.413859	-0.488591	-0.316913	-0.163977	-0.086773	-0.85461	-0.217388	-0.742656	0.369657	-0.747402	1.01988	-1.24267	0.270494	-1.58123	0.96927	
2.20642	5	0	-1.1168	0.661917	-0.79503	0.763136	-2.51202	2.11032	-0.58063	0.728944	0.147608	0.838617	-0.517105	1.00076	-0.448358	0.402486	-0.628843	0.618466	-0.749804	-0.418476	-0.493603	-0.3194	-0.168162	-0.0749445	-0.860013	-0.217158	-0.735052	0.362295	-0.747402	1.01988	-1.23516	0.265587	-1.57743	0.966785	
2.20184	5	0	-1.10572	0.650825	-0.798035	0.763234	-2.51737	2.10601	-0.581764	0.720251	0.144746	0.846705	-0.508169	1.00046	-0.449826	0.406635	-0.628843	0.618466	-0.748171	-0.423092	-0.498615	-0.321888	-0.172348	-0.063116	-0.865416	-0.216928	-0.727449	0.354934	-0.747402	1.01988	-1.22765	0.26068	-1.57363	0.964301	
2.20489	5	0	-1.11503	0.65691	-0.798466	0.756058	-2.51379	2.09587	-0.587286	0.712085	0.143951	0.838935	-0.526028	1.00106	-0.449826	0.406635	-0.630897	0.61532	-0.746538	-0.427706	-0.499211	-0.336841	-0.175188	-0.0794355	-0.866264	-0.229558	-0.733846	0.34477	-0.742164	1.00508	-1.23261	0.258385	-1.5742	0.957661	
2.20337	5	0	-1.12435	0.662996	-0.798896	0.748883	-2.5102	2.08573	-0.592808	0.703918	0.143157	0.831165	-0.543887	1.00167	-0.449826	0.406635	-0.632952	0.612173	-0.744905	-0.43232	-0.499807	-0.351794	-0.178029	-0.095755	-0.867112	-0.242189	-0.740243	0.334606	-0.736926	0.990274	-1.23757	0.25609	-1.57478	0.951021	
2.20184	5	0	-1.13366	0.669081	-0.799327	0.741707	-2.50661	2.07559	-0.59833	0.695751	0.142362	0.823394	-0.561746	1.00227	-0.449826	0.406635	-0.635006	0.609026	-0.743273	-0.436934	-0.500403	-0.366747	-0.18087	-0.112075	-0.86796	-0.25482	-0.746639	0.324442	-0.731688	0.975471	-1.24254	0.253795	-1.57535	0.944381	
2.20184	5	0	-1.14297	0.675166	-0.799757	0.734532	-2.50302	2.06544	-0.603852	0.687585	0.141567	0.815624	-0.579605	1.00288	-0.449826	0.406635	-0.63706	0.60588	-0.74164	-0.441548	-0.500999	-0.3817	-0.18371	-0.128394	-0.868808	-0.26745	-0.753036	0.314278	-0.72645	0.960668	-1.2475	0.2515	-1.57593	0.937741	
2.20489	5	0	-1.13543	0.674088	-0.796752	0.734432	-2.50481	2.07051	-0.597246	0.692686	0.14252	0.812931	-0.579605	1.00288	-0.442065	0.401564	-0.636027	0.602962	-0.749834	-0.43974	-0.503062	-0.384182	-0.182666	-0.131345	-0.874203	-0.267217	-0.755134	0.306103	-0.727497	0.963627	-1.2475	0.2515	-1.57351	0.930904	
2.20184	5	0	-1.12789	0.67301	-0.793748	0.734333	-2.50661	2.07558	-0.590639	0.697788	0.143473	0.810237	-0.579605	1.00288	-0.434304	0.396493	-0.634995	0.600044	-0.758027	-0.437932	-0.505126	-0.386664	-0.181622	-0.134296	-0.879598	-0.266984	-0.757232	0.297929	-0.728544	0.966585	-1.2475	0.2515	-1.57109	0.924067	
2.20184	5	0	-1.12035	0.671932	-0.790743	0.734233	-2.5084	2.08065	-0.584032	0.702889	0.144426	0.807543	-0.579605	1.00288	-0.426542	0.391421	-0.633962	0.597126	-0.76622	-0.436123	-0.507189	-0.389146	-0.180578	-0.137246	-0.884994	-0.26675	-0.759331	0.289755	-0.729591	0.969544	-1.2475	0.2515	-1.56867	0.917229	
2.20337	5	0	-1.11281	0.670854	-0.787738	0.734133	-2.51019	2.08572	-0.577426	0.70799	0.145379	0.80485	-0.579605	1.00288	-0.418781	0.38635	-0.63293	0.594208	-0.774414	-0.434315	-0.509252	-0.391628	-0.179534	-0.140197	-0.890389	-0.266517	-0.761429	0.28158	-0.730638	0.972503	-1.2475	0.2515	-1.56625	0.910392	
2.20184	5	0	-1.10348	0.664762	-0.784309	0.724441	-2.50482	2.07052	-0.581867	0.69677	0.139976	0.800103	-0.574521	0.988509	-0.425074	0.387273	-0.634985	0.591066	-0.776046	-0.429704	-0.512195	-0.391619	-0.185804	-0.122477	-0.884994	-0.26675	-0.753933	0.288616	-0.725909	0.980797	-1.24636	0.264609	-1.56348	0.919102	
2.20489	5	0	-1.09416	0.65867	-0.780879	0.71475	-2.49944	2.05532	-0.586309	0.68555	0.134573	0.795357	-0.569437	0.974139	-0.431368	0.388195	-0.637039	0.587924	-0.777678	-0.425092	-0.515138	-0.39161	-0.192074	-0.104758	-0.879598	-0.266984	-0.746438	0.295652	-0.721181	0.989092	-1.24523	0.277718	-1.56072	0.927812	
2.20337	5	0	-1.08484	0.652579	-0.77745	0.705059	-2.49406	2.04012	-0.590751	0.674329	0.129169	0.79061	-0.564352	0.95977	-0.437661	0.389118	-0.639093	0.584781	-0.779309	-0.42048	-0.518082	-0.391602	-0.198343	-0.0870385	-0.874203	-0.267217	-0.738942	0.302689	-0.716453	0.997387	-1.24409	0.290827	-1.55795	0.936521	
2.211	5	0	-1.07552	0.646487	-0.774021	0.695367	-2.48868	2.02492	-0.595192	0.663109	0.123766	0.785864	-0.559268	0.945401	-0.443954	0.39004	-0.641148	0.581639	-0.780941	-0.415869	-0.521025	-0.391593	-0.204613	-0.069319	-0.868808	-0.26745	-0.731446	0.309725	-0.711724	1.00568	-1.24296	0.303936	-1.55518	0.945231	
2.20947	5	0	-1.07374	0.64148	-0.772308	0.690525	-2.48689	2.01986	-0.586478	0.650365	0.122018	0.780805	-0.565644	0.938538	-0.44102	0.381748	-0.641148	0.581639	-0.782574	-0.411255	-0.520144	-0.394082	-0.205659	-0.0663625	-0.870324	-0.263166	-0.729248	0.303512	-0.707785	1.00539	-1.22039	0.289189	-1.55818	0.945435	
2.20795	5	0	-1.07197	0.636472	-0.770595	0.685684	-2.4851	2.0148	-0.577765	0.637621	0.120269	0.775747	-0.572021	0.931675	-0.438086	0.373455	-0.641148	0.581639	-0.784206	-0.40664	-0.519263	-0.396572	-0.206705	-0.063406	-0.87184	-0.258881	-0.72705	0.2973	-0.703846	1.00509	-1.19782	0.274442	-1.56118	0.945639	
2.21252	5	0	-1.0702	0.631465	-0.768882	0.680842	-2.48331	2.00973	-0.569051	0.624877	0.118521	0.770688	-0.578398	0.924812	-0.435152	0.365163	-0.641148	0.581639	-0.785838	-0.402026	-0.518383	-0.399061	-0.207752	-0.0604495	-0.873356	-0.254597	-0.724851	0.291087	-0.699906	1.0048	-1.17525	0.259695	-1.56417	0.945843	
2.21252	5	0	-1.06843	0.626458	-0.767169	0.676	-2.48152	2.00467	-0.560337	0.612133	0.116772	0.765629	-0.584774	0.917949	-0.432218	0.356871	-0.641148	0.581639	-0.787471	-0.397412	-0.517502	-0.40155	-0.208798	-0.057493	-0.874872	-0.250313	-0.722653	0.284875	-0.695967	1.0045	-1.15268	0.244948	-1.56717	0.946047	
2.211	5	0	-1.07197	0.636475	-0.766732	0.683161	-2.4851	2.0148	-0.561358	0.626908	0.120424	0.765309	-0.578398	0.924812	-0.439972	0.361938	-0.638062	0.581864	-0.780914	-0.394597	-0.517203	-0.394088	-0.20178	-0.0529785	-0.877906	-0.241738	-0.721554	0.28177	-0.690181	1.00984	-1.15779	0.259387	-1.56417	0.945843	
2.21405	5	0	-1.07552	0.646493	-0.766296	0.690322	-2.48868	2.02492	-0.562379	0.641683	0.124075	0.76499	-0.572021	0.931675	-0.447727	0.367005	-0.634975	0.582089	-0.774357	-0.391782	-0.516903	-0.386625	-0.194763	-0.048464	-0.88094	-0.233164	-0.720456	0.278666	-0.684395	1.01519	-1.1629	0.273826	-1.56118	0.945639	
2.21863	5	0	-1.07906	0.65651	-0.765859	0.697484	-2.49226	2.03505	-0.563399	0.656457	0.127726	0.764671	-0.565644	0.938538	-0.455481	0.372072	-0.631888	0.582315	-0.767799	-0.388966	-0.516603	-0.379162	-0.187745	-0.0439495	-0.883974	-0.224589	-0.719357	0.275561	-0.678608	1.02053	-1.16801	0.288265	-1.55818	0.945435	
2.22015	5	0	-1.08261	0.666528	-0.765422	0.704645	-2.49585	2.04517	-0.56442	0.671232	0.131378	0.764351	-0.559268	0.945401	-0.463235	0.377139	-0.628802	0.58254	-0.761242	-0.386151	-0.516304	-0.3717	-0.180727	-0.039435	-0.887008	-0.216014	-0.718259	0.272456	-0.672822	1.02587	-1.17312	0.302704	-1.55518	0.945231	
2.2232	5	0	-1.08261	0.666528	-0.763708	0.699801	-2.49405	2.04011	-0.571031	0.666143	0.131528	0.753927	-0.563109	0.931374	-0.460304	0.368854	-0.628795	0.573572	-0.761242	-0.386151	-0.516304	-0.3717	-0.186332	-0.0357727	-0.887008	-0.216014	-0.718354	0.286852	-0.673082	1.03747	-1.17696	0.313549	-1.55841	0.954362	
2.2232	5	0	-1.08261	0.666528	-0.761993	0.694956	-2.49226	2.03505	-0.577642	0.661055	0.131678	0.743503	-0.566951	0.917346	-0.457373	0.36057	-0.628788	0.564604	-0.761242	-0.386151	-0.516304	-0.3717	-0.191937	-0.0321105	-0.887008	-0.216014	-0.718449	0.301248	-0.673342	1.04906	-1.18079	0.324394	-1.56165	0.963494	
2.22168	5	0	-1.08261	0.666528	-0.760279	0.690112	-2.49047	2.02998	-0.584253	0.655967	0.131828	0.733079	-0.570793	0.903319	-0.454441	0.352286	-0.628781	0.555637	-0.761242	-0.386151	-0.516304	-0.3717	-0.197541	-0.0284482	-0.887008	-0.216014	-0.718545	0.315644	-0.673602	1.06065	-1.18463	0.335238	-1.56488	0.972625	
2.22473	5	0	-1.08261	0.666528	-0.758565	0.685268	-2.48868	2.02492	-0.590864	0.650878	0.131978	0.722655	-0.574634	0.889291	-0.45151	0.344001	-0.628774	0.546669	-0.761242	-0.386151	-0.516304	-0.3717	-0.203146	-0.024786	-0.887008	-0.216014	-0.71864	0.33004	-0.673862	1.07224	-1.18847	0.346083	-1.56811	0.981756	
2.21863	5	0	-1.07327	0.66043	-0.757708	0.682847	-2.49047	2.02998	-0.585395	0.647304	0.135775	0.711924	-0.56957	0.874979	-0.448582	0.335724	-0.627744	0.543757	-0.764513	-0.376906	-0.517186	-0.369208	-0.201051	-0.0307063	-0.887008	-0.216014	-0.724041	0.331178	-0.674914	1.07522	-1.17211	0.332614	-1.56649	0.977189	
2.21863	5	0	-1.06394	0.654331	-0.756852	0.680426	-2.49226	2.03505	-0.579926	0.643731	0.139572	0.701194	-0.564505	0.860668	-0.445653	0.327448	-0.626713	0.540844	-0.767784	-0.367661	-0.518068	-0.366715	-0.198956	-0.0366265	-0.887008	-0.216014	-0.729442	0.332317	-0.675967	1.07819	-1.15575	0.319144	-1.56488	0.972622	
2.2171	5	0	-1.05461	0.648232	-0.755995	0.678004	-2.49405	2.04011	-0.574457	0.640158	0.143369	0.690463	-0.559441	0.846356	-0.442725	0.319171	-0.625683	0.537932	-0.771056	-0.358416	-0.518949	-0.364223	-0.196862	-0.0425468	-0.887008	-0.216014	-0.734844	0.333455	-0.677019	1.08116	-1.13939	0.305674	-1.56326	0.968056	
2.2171	5	0	-1.04527	0.642134	-0.755138	0.675583	-2.49585	2.04517	-0.568988	0.636584	0.147166	0.679732	-0.554377	0.832044	-0.439796	0.310894	-0.624652	0.53502	-0.774327	-0.349171	-0.519831	-0.361731	-0.194767	-0.048467	-0.887008	-0.216014	-0.740245	0.334593	-0.678072	1.08414	-1.12303	0.292205	-1.56164	0.963489	
2.21557	5	0	-1.05283	0.643222	-0.757709	0.682848	-2.4869	2.03933	-0.581004	0.646787	0.146071	0.692825	-0.561976	0.85352	-0.439796	0.310894	-0.626713	0.540846	-0.774327	-0.349171	-0.517769	-0.359245	-0.187745	-0.0439498	-0.884648	-0.207655	-0.731641	0.33854	-0.672283	1.08951	-1.12431	0.295822	-1.55865	0.963285	
2.21557	5	0	-1.06039	0.644311	-0.76028	0.690114	-2.47796	2.03349	-0.59302	0.656989	0.144977	0.705919	-0.569576	0.874996	-0.439796	0.310894	-0.628775	0.546671	-0.774327	-0.349171	-0.515707	-0.356758	-0.180723	-0.0394325	-0.882289	-0.199297	-0.723037	0.342487	-0.666493	1.09488	-1.12559	0.299438	-1.55565	0.963082	
2.211	5	0	-1.06796	0.645399	-0.762851	0.69738	-2.46902	2.02764	-0.605037	0.667192	0.143882	0.719013	-0.577175	0.896473	-0.439796	0.310894	-0.630836	0.552496	-0.774327	-0.349171	-0.513646	-0.354272	-0.1737	-0.0349153	-0.87993	-0.190939	-0.714433	0.346434	-0.660703	1.10025	-1.12687	0.303055	-1.55265	0.962878	
2.21252	5	0	-1.07552	0.646487	-0.765422	0.704645	-2.46007	2.0218	-0.617053	0.677394	0.142788	0.732106	-0.584774	0.917949	-0.439796	0.310894	-0.632897	0.558322	-0.774327	-0.349171	-0.511584	-0.351786	-0.166678	-0.030398	-0.87757	-0.18258	-0.705829	0.350381	-0.654914	1.10562	-1.12815	0.306671	-1.54965	0.962674	
2.211	5	0	-1.07374	0.64148	-0.762851	0.69738	-2.46722	2.02258	-0.613808	0.668224	0.141985	0.724376	-0.579706	0.903626	-0.438333	0.306758	-0.630836	0.552496	-0.772691	-0.353795	-0.510702	-0.354279	-0.166002	-0.0444937	-0.873013	-0.195458	-0.710133	0.348407	-0.656756	1.09996	-1.12303	0.292214	-1.55783	0.961002	
2.211	5	0	-1.07197	0.636472	-0.76028	0.690114	-2.47438	2.02336	-0.610564	0.659053	0.141181	0.716646	-0.574638	0.889302	-0.436869	0.302623	-0.628775	0.546671	-0.771055	-0.358418	-0.50982	-0.356773	-0.165326	-0.0585895	-0.868457	-0.208335	-0.714437	0.346433	-0.658598	1.0943	-1.11792	0.277757	-1.56602	0.95933	
2.20642	5	0	-1.0702	0.631465	-0.757709	0.682848	-2.48153	2.02414	-0.607319	0.649882	0.140377	0.708917	-0.569569	0.874979	-0.435406	0.298488	-0.626713	0.540846	-0.769419	-0.363042	-0.508937	-0.359267	-0.16465	-0.0726853	-0.8639	-0.221212	-0.71874	0.344459	-0.660441	1.08864	-1.1128	0.263301	-1.5742	0.957658	
2.20642	5	0	-1.06843	0.626458	-0.755138	0.675583	-2.48868	2.02492	-0.604074	0.640712	0.139574	0.701187	-0.564501	0.860656	-0.433942	0.294352	-0.624652	0.53502	-0.767783	-0.367666	-0.508055	-0.36176	-0.163974	-0.086781	-0.859344	-0.23409	-0.723044	0.342485	-0.662283	1.08297	-1.10769	0.248844	-1.58238	0.955986	
2.20795	5	0	-1.06489	0.616452	-0.755995	0.678004	-2.48868	2.02492	-0.59969	0.640196	0.144177	0.698179	-0.56197	0.853503	-0.435406	0.298488	-0.621564	0.535241	-0.766148	-0.372287	-0.505109	-0.361768	-0.169953	-0.0942325	-0.860862	-0.229799	-0.727344	0.340512	-0.660178	1.07702	-1.1114	0.242946	-1.57915	0.946866	
2.20795	5	0	-1.06135	0.606445	-0.756852	0.680426	-2.48868	2.02492	-0.595306	0.639681	0.14878	0.695172	-0.559439	0.84635	-0.436869	0.302623	-0.618476	0.535462	-0.764512	-0.376908	-0.502163	-0.361776	-0.175931	-0.101684	-0.86238	-0.225509	-0.731645	0.338539	-0.658073	1.07107	-1.11511	0.237047	-1.57593	0.937746	
2.20184	5	0	-1.05781	0.596439	-0.757708	0.682847	-2.48868	2.02492	-0.590921	0.639166	0.153382	0.692165	-0.556908	0.839197	-0.438333	0.306758	-0.615388	0.535684	-0.762877	-0.38153	-0.499218	-0.361783	-0.18191	-0.109135	-0.863898	-0.221219	-0.735945	0.336566	-0.655967	1.06512	-1.11882	0.231149	-1.5727	0.928626	
2.20032	5	0	-1.05427	0.586433	-0.758565	0.685268	-2.48868	2.02492	-0.586537	0.63865	0.157985	0.689157	-0.554377	0.832044	-0.439796	0.310894	-0.6123	0.535905	-0.761242	-0.386151	-0.496272	-0.361791	-0.187888	-0.116587	-0.865416	-0.216928	-0.740245	0.334593	-0.653862	1.05917	-1.12254	0.22525	-1.56947	0.919506	
2.20642	5	0	-1.0472	0.566454	-0.759004	0.678112	-2.48152	2.00469	-0.589903	0.624422	0.149731	0.692488	-0.565815	0.839518	-0.44608	0.311821	-0.6123	0.535905	-0.767799	-0.388966	-0.496272	-0.361791	-0.185422	-0.111385	-0.866935	-0.212636	-0.730539	0.335426	-0.653862	1.05917	-1.12126	0.221644	-1.56867	0.917228	
2.19574	0	0	-1.04013	0.546475	-0.759443	0.670956	-2.47436	1.98446	-0.59327	0.610193	0.141477	0.69582	-0.577252	0.846991	-0.452364	0.312748	-0.6123	0.535905	-0.774357	-0.391782	-0.496272	-0.361791	-0.182956	-0.106184	-0.868454	-0.208343	-0.720834	0.33626	-0.653862	1.05917	-1.11998	0.218038	-1.56786	0.914949	
2.19726	0	0	-1.03306	0.526496	-0.759881	0.6638	-2.46721	1.96423	-0.596636	0.595965	0.133224	0.699151	-0.58869	0.854464	-0.458648	0.313674	-0.6123	0.535905	-0.780914	-0.394597	-0.496272	-0.361791	-0.180491	-0.100983	-0.869973	-0.20405	-0.711128	0.337093	-0.653862	1.05917	-1.11871	0.214432	-1.56705	0.91267	
2.19726	0	0	-1.02599	0.506517	-0.76032	0.656644	-2.46005	1.94401	-0.600002	0.581736	0.12497	0.702482	-0.600128	0.861938	-0.464932	0.314601	-0.6123	0.535905	-0.787471	-0.397412	-0.496272	-0.361791	-0.178025	-0.095781	-0.871492	-0.199758	-0.701422	0.337927	-0.653862	1.05917	-1.11743	0.210826	-1.56625	0.910392	
2.19879	0	0	-1.03178	0.502636	-0.758609	0.651807	-2.46541	1.93975	-0.601148	0.573115	0.12227	0.700124	-0.606494	0.855113	-0.464932	0.314601	-0.6123	0.535905	-0.794021	-0.400225	-0.498335	-0.364276	-0.183999	-0.103227	-0.868455	-0.208341	-0.707829	0.32777	-0.652555	1.04461	-1.1274	0.20626	-1.56821	0.899425	
2.19726	0	0	-1.03758	0.498755	-0.756897	0.646971	-2.47077	1.93549	-0.602294	0.564494	0.119569	0.697766	-0.612861	0.848287	-0.464932	0.314601	-0.6123	0.535905	-0.80057	-0.403038	-0.500399	-0.366761	-0.189974	-0.110674	-0.865418	-0.216924	-0.714236	0.317612	-0.651247	1.03006	-1.13737	0.201694	-1.57017	0.888458	
2.19726	0	0	-1.04337	0.494874	-0.755185	0.642135	-2.47614	1.93123	-0.60344	0.555873	0.116869	0.695408	-0.619227	0.841462	-0.464932	0.314601	-0.6123	0.535905	-0.807119	-0.405852	-0.502463	-0.369246	-0.195948	-0.118121	-0.862381	-0.225507	-0.720642	0.307455	-0.64994	1.0155	-1.14733	0.197129	-1.57213	0.87749	
2.19726	0	0	-1.04917	0.490993	-0.753474	0.637298	-2.4815	1.92697	-0.604586	0.547252	0.114168	0.69305	-0.625593	0.834637	-0.464932	0.314601	-0.6123	0.535905	-0.813669	-0.408665	-0.504526	-0.371731	-0.201923	-0.125567	-0.859344	-0.23409	-0.727049	0.297298	-0.648633	1.00094	-1.1573	0.192563	-1.5741	0.866523	
2.19421	0	0	-1.05848	0.497078	-0.758192	0.64224	-2.47971	1.92193	-0.601283	0.549777	0.118766	0.690046	-0.625593	0.834637	-0.460112	0.317812	-0.607149	0.5303	-0.820211	-0.411476	-0.505707	-0.376705	-0.203344	-0.133705	-0.857827	-0.238378	-0.729152	0.289127	-0.645484	0.992039	-1.15973	0.183092	-1.57468	0.859912	
2.19421	0	0	-1.06779	0.503163	-0.76291	0.647181	-2.47793	1.91688	-0.59798	0.552302	0.123364	0.687042	-0.625593	0.834637	-0.455292	0.321022	-0.601998	0.524695	-0.826753	-0.414287	-0.506889	-0.381679	-0.204765	-0.141844	-0.856309	-0.242667	-0.731255	0.280955	-0.642335	0.98314	-1.16216	0.173621	-1.57526	0.853302	
2.19574	0	0	-1.0771	0.509249	-0.767628	0.652122	-2.47614	1.91184	-0.594677	0.554827	0.127961	0.684037	-0.625593	0.834637	-0.450472	0.324233	-0.596848	0.519091	-0.833294	-0.417098	-0.508071	-0.386654	-0.206186	-0.149982	-0.854791	-0.246956	-0.733359	0.272784	-0.639186	0.974241	-1.1646	0.16415	-1.57584	0.846691	
2.19421	0	0	-1.08642	0.515334	-0.772346	0.657064	-2.47436	1.9068	-0.591374	0.557352	0.132559	0.681033	-0.625593	0.834637	-0.445652	0.327444	-0.591697	0.513486	-0.839836	-0.419909	-0.509252	-0.391628	-0.207607	-0.15812	-0.853274	-0.251244	-0.735462	0.264612	-0.636037	0.965341	-1.16703	0.154679	-1.57642	0.84008	
2.19116	0	0	-1.08289	0.505372	-0.768925	0.647396	-2.47793	1.89751	-0.595825	0.54622	0.134593	0.665295	-0.624395	0.806468	-0.444188	0.323306	-0.595817	0.50723	-0.836578	-0.429116	-0.512496	-0.399075	-0.218117	-0.16483	-0.865584	-0.246496	-0.743051	0.271956	-0.646028	0.971869	-1.17328	0.155997	-1.57262	0.837599	
2.19269	0	0	-1.07937	0.49541	-0.765505	0.637728	-2.48151	1.88823	-0.600276	0.535088	0.136627	0.649558	-0.623198	0.778299	-0.442724	0.319169	-0.599938	0.500973	-0.833321	-0.438322	-0.515741	-0.406521	-0.228628	-0.17154	-0.877894	-0.241748	-0.750641	0.279301	-0.656019	0.978398	-1.17952	0.157315	-1.56882	0.835117	
2.19269	0	0	-1.07584	0.485449	-0.762084	0.628061	-2.48509	1.87894	-0.604728	0.523957	0.138661	0.63382	-0.622	0.75013	-0.44126	0.315032	-0.604058	0.494717	-0.830063	-0.447529	-0.518985	-0.413968	-0.239138	-0.17825	-0.890204	-0.236999	-0.75823	0.286645	-0.666011	0.984927	-1.18576	0.158634	-1.56502	0.832636	
2.19269	0	0	-1.07232	0.475487	-0.758663	0.618393	-2.48866	1.86966	-0.609179	0.512825	0.140695	0.618082	-0.620803	0.721961	-0.439796	0.310894	-0.608178	0.488461	-0.826805	-0.456736	-0.522229	-0.421415	-0.249648	-0.18496	-0.902514	-0.232251	-0.76582	0.29399	-0.676002	0.991455	-1.19201	0.159952	-1.56123	0.830155	
2.19116	0	0	-1.08162	0.481566	-0.757808	0.615978	-2.4958	1.87045	-0.608103	0.509785	0.138937	0.613064	-0.624656	0.708099	-0.439796	0.310894	-0.610237	0.485337	-0.825177	-0.461336	-0.526351	-0.426365	-0.254566	-0.195298	-0.907903	-0.232023	-0.761431	0.281586	-0.674953	0.98849	-1.1882	0.149182	-1.56721	0.830574	
2.19116	5	0	-1.09092	0.487645	-0.756954	0.613563	-2.50293	1.87125	-0.607028	0.506744	0.13718	0.608046	-0.62851	0.694238	-0.439796	0.310894	-0.612296	0.482212	-0.823549	-0.465935	-0.530474	-0.431314	-0.259484	-0.205635	-0.913292	-0.231796	-0.757042	0.269183	-0.673904	0.985526	-1.18439	0.138411	-1.5732	0.830993	
2.19421	5	0	-1.10023	0.493723	-0.756099	0.611147	-2.51007	1.87204	-0.605952	0.503704	0.135423	0.603029	-0.632363	0.680376	-0.439796	0.310894	-0.614355	0.479087	-0.821922	-0.470535	-0.534596	-0.436264	-0.264402	-0.215973	-0.918681	-0.231569	-0.752654	0.256779	-0.672855	0.982562	-1.18058	0.12764	-1.57918	0.831411	
2.19269	5	0	-1.10953	0.499802	-0.755244	0.608732	-2.5172	1.87283	-0.604876	0.500664	0.133665	0.598011	-0.636216	0.666514	-0.439796	0.310894	-0.616414	0.475963	-0.820294	-0.475135	-0.538718	-0.441214	-0.26932	-0.22631	-0.92407	-0.231341	-0.748265	0.244376	-0.671806	0.979597	-1.17677	0.11687	-1.58517	0.83183	
2.19269	5	0	-1.11129	0.504781	-0.763818	0.616192	-2.5172	1.87283	-0.6147	0.504747	0.135423	0.603029	-0.632363	0.680376	-0.44126	0.315032	-0.616414	0.475963	-0.818667	-0.479733	-0.538718	-0.441214	-0.266861	-0.221145	-0.918681	-0.231569	-0.748265	0.244376	-0.666013	0.984932	-1.18428	0.121777	-1.58137	0.82935	
2.19116	5	0	-1.11305	0.509761	-0.772392	0.623651	-2.5172	1.87283	-0.624524	0.50883	0.13718	0.608046	-0.62851	0.694238	-0.442724	0.319169	-0.616414	0.475963	-0.817041	-0.48433	-0.538718	-0.441214	-0.264402	-0.215979	-0.913292	-0.231796	-0.748265	0.244376	-0.660219	0.990268	-1.19179	0.126684	-1.57758	0.82687	
2.19269	5	0	-1.11481	0.51474	-0.780966	0.631111	-2.5172	1.87283	-0.634349	0.512912	0.138937	0.613064	-0.624656	0.708099	-0.444188	0.323306	-0.616414	0.475963	-0.815414	-0.488927	-0.538718	-0.441214	-0.261944	-0.210813	-0.907903	-0.232023	-0.748265	0.244376	-0.654426	0.995604	-1.1993	0.131591	-1.57378	0.82439	
2.19421	5	0	-1.11658	0.51972	-0.78954	0.63857	-2.5172	1.87283	-0.644173	0.516995	0.140695	0.618082	-0.620803	0.721961	-0.445652	0.327444	-0.616414	0.475963	-0.813787	-0.493525	-0.538718	-0.441214	-0.259485	-0.205648	-0.902514	-0.232251	-0.748265	0.244376	-0.648633	1.00094	-1.2068	0.136498	-1.56999	0.82191	
2.19879	5	0	-1.11834	0.524702	-0.787831	0.63374	-2.51542	1.8678	-0.64532	0.508406	0.138937	0.613064	-0.624656	0.708099	-0.444188	0.323306	-0.618472	0.472841	-0.821953	-0.491722	-0.536082	-0.448663	-0.260906	-0.213748	-0.904873	-0.240586	-0.751464	0.239323	-0.65258	1.00124	-1.2068	0.136498	-1.57677	0.824599	
2.19574	5	0	-1.1201	0.529684	-0.786122	0.62891	-2.51364	1.86277	-0.646467	0.499818	0.13718	0.608046	-0.62851	0.694238	-0.442724	0.319169	-0.620531	0.469719	-0.830118	-0.48992	-0.533446	-0.456113	-0.262326	-0.221848	-0.907232	-0.24892	-0.754663	0.23427	-0.656527	1.00153	-1.2068	0.136498	-1.58356	0.827287	
2.19879	5	0	-1.12187	0.534666	-0.784413	0.62408	-2.51186	1.85774	-0.647613	0.491229	0.135423	0.603029	-0.632363	0.680376	-0.44126	0.315032	-0.62259	0.466597	-0.838284	-0.488117	-0.530811	-0.463562	-0.263746	-0.229947	-0.909592	-0.257255	-0.757863	0.229218	-0.660474	1.00183	-1.2068	0.136498	-1.59035	0.829976	
2.19574	5	0	-1.12363	0.539648	-0.782704	0.61925	-2.51009	1.85271	-0.64876	0.48264	0.133665	0.598011	-0.636216	0.666514	-0.439796	0.310894	-0.624648	0.463475	-0.84645	-0.486314	-0.528175	-0.471012	-0.265167	-0.238047	-0.911951	-0.26559	-0.761062	0.224165	-0.664421	1.00213	-1.2068	0.136498	-1.59713	0.832665	
2.19726	5	0	-1.11785	0.543542	-0.783558	0.621664	-2.51009	1.85271	-0.645463	0.485154	0.13826	0.595008	-0.638727	0.67361	-0.439796	0.310894	-0.624648	0.463475	-0.838284	-0.488117	-0.526113	-0.468542	-0.260629	-0.238756	-0.90656	-0.265822	-0.765354	0.222212	-0.661524	1.0048	-1.20935	0.143677	-1.59334	0.830186	
2.19726	5	0	-1.11208	0.547436	-0.784413	0.624079	-2.51009	1.85271	-0.642167	0.487667	0.142855	0.592006	-0.641238	0.680706	-0.439796	0.310894	-0.624648	0.463475	-0.830118	-0.48992	-0.52405	-0.466072	-0.256092	-0.239465	-0.90117	-0.266053	-0.769647	0.220258	-0.658628	1.00747	-1.21189	0.150856	-1.58954	0.827707	
2.19421	5	0	-1.10631	0.551331	-0.785268	0.626494	-2.51009	1.85271	-0.638871	0.490181	0.147451	0.589004	-0.643749	0.687802	-0.439796	0.310894	-0.624648	0.463475	-0.821953	-0.491722	-0.521988	-0.463602	-0.251555	-0.240174	-0.895779	-0.266285	-0.773939	0.218304	-0.655731	1.01014	-1.21443	0.158035	-1.58575	0.825228	
2.19574	5	0	-1.10053	0.555225	-0.786122	0.628908	-2.51009	1.85271	-0.635574	0.492694	0.152046	0.586001	-0.64626	0.694898	-0.439796	0.310894	-0.624648	0.463475	-0.813787	-0.493525	-0.519926	-0.461132	-0.247017	-0.240883	-0.890389	-0.266517	-0.778231	0.216351	-0.652834	1.01281	-1.21697	0.165214	-1.58196	0.822749	
2.19726	5	0	-1.10807	0.556316	-0.784413	0.62408	-2.51721	1.85351	-0.635651	0.481081	0.147451	0.589004	-0.657637	0.702332	-0.444617	0.307687	-0.62876	0.466162	-0.815414	-0.488927	-0.518742	-0.456175	-0.244173	-0.224667	-0.894937	-0.253664	-0.768547	0.217162	-0.653091	1.0244	-1.20703	0.169771	-1.58138	0.829354	
2.19421	5	0	-1.11561	0.557406	-0.782705	0.619251	-2.52434	1.8543	-0.635728	0.469469	0.142855	0.592006	-0.669013	0.709766	-0.449439	0.304481	-0.632873	0.46885	-0.817041	-0.48433	-0.517559	-0.451218	-0.24133	-0.208452	-0.899485	-0.240812	-0.758864	0.217973	-0.653348	1.03599	-1.19709	0.174327	-1.5808	0.835959	
2.19269	5	0	-1.12315	0.558497	-0.780996	0.614422	-2.53147	1.85509	-0.635804	0.457856	0.13826	0.595008	-0.68039	0.7172	-0.45426	0.301274	-0.636985	0.471537	-0.818667	-0.479733	-0.516375	-0.446262	-0.238486	-0.192236	-0.904032	-0.227959	-0.74918	0.218783	-0.653605	1.04758	-1.18715	0.178884	-1.58021	0.842563	
2.19116	5	0	-1.13068	0.559588	-0.779288	0.609594	-2.53859	1.85588	-0.635881	0.446244	0.133665	0.598011	-0.691767	0.724634	-0.459081	0.298067	-0.641098	0.474224	-0.820294	-0.475135	-0.515191	-0.441305	-0.235643	-0.17602	-0.90858	-0.215106	-0.739496	0.219594	-0.653862	1.05917	-1.17721	0.183441	-1.57963	0.849168	
2.19269	5	0	-1.12892	0.554603	-0.77758	0.604768	-2.53504	1.84584	-0.638106	0.44071	0.131908	0.592999	-0.686747	0.710447	-0.456158	0.289806	-0.64007	0.47132	-0.820294	-0.475135	-0.511368	-0.443803	-0.235643	-0.17602	-0.905548	-0.223677	-0.742698	0.214548	-0.651758	1.05323	-1.17096	0.182123	-1.58102	0.844834	
2.19116	5	0	-1.12716	0.549618	-0.775872	0.599942	-2.53149	1.83579	-0.640331	0.435175	0.13015	0.587987	-0.681728	0.69626	-0.453235	0.281544	-0.639043	0.468417	-0.820294	-0.475135	-0.507545	-0.4463	-0.235643	-0.17602	-0.902515	-0.232247	-0.745899	0.209502	-0.649655	1.04728	-1.16471	0.180804	-1.5824	0.840499	
2.18811	5	0	-1.12539	0.544633	-0.774165	0.595116	-2.52793	1.82575	-0.642556	0.429641	0.128392	0.582975	-0.676708	0.682074	-0.450312	0.273283	-0.638015	0.465513	-0.820294	-0.475135	-0.503723	-0.448798	-0.235643	-0.17602	-0.899482	-0.240817	-0.749101	0.204455	-0.647551	1.04134	-1.15846	0.179486	-1.58379	0.836164	
2.19116	5	0	-1.12363	0.539648	-0.772457	0.59029	-2.52438	1.8157	-0.644781	0.424107	0.126635	0.577963	-0.671688	0.667887	-0.447389	0.265022	-0.636988	0.462609	-0.820294	-0.475135	-0.4999	-0.451296	-0.235643	-0.17602	-0.89645	-0.249388	-0.752302	0.199409	-0.645447	1.03539	-1.15221	0.178168	-1.58517	0.83183	
2.18963	5	0	-1.12539	0.544633	-0.775873	0.599944	-2.51903	1.81993	-0.64907	0.436229	0.130283	0.577632	-0.674197	0.674978	-0.452209	0.261826	-0.635961	0.459706	-0.821922	-0.470535	-0.50166	-0.446323	-0.232139	-0.173783	-0.897966	-0.245104	-0.752302	0.199409	-0.640444	1.03212	-1.14722	0.180447	-1.58437	0.82956	
2.18353	5	0	-1.12716	0.549618	-0.779289	0.609599	-2.51367	1.82415	-0.653359	0.44835	0.133931	0.577302	-0.676705	0.682068	-0.457029	0.258629	-0.634934	0.456804	-0.823549	-0.465935	-0.503419	-0.441351	-0.228636	-0.171546	-0.899482	-0.24082	-0.752302	0.199409	-0.635441	1.02885	-1.14224	0.182726	-1.58356	0.82729	
2.18658	5	0	-1.12892	0.554603	-0.782706	0.619254	-2.50832	1.82838	-0.657648	0.460471	0.137579	0.576971	-0.679214	0.689159	-0.461848	0.255433	-0.633907	0.453901	-0.825177	-0.461336	-0.505178	-0.436379	-0.225132	-0.16931	-0.900998	-0.236535	-0.752302	0.199409	-0.630438	1.02558	-1.13726	0.185005	-1.58276	0.825019	
2.18658	5	0	-1.13068	0.559588	-0.786122	0.628908	-2.50297	1.83261	-0.661937	0.472593	0.141227	0.57664	-0.681723	0.696249	-0.466668	0.252237	-0.63288	0.450998	-0.826805	-0.456736	-0.506938	-0.431406	-0.221629	-0.167073	-0.902514	-0.232251	-0.752302	0.199409	-0.625435	1.02231	-1.13228	0.187284	-1.58196	0.822749	
2.18201	5	0	-1.13068	0.559588	-0.783559	0.621666	-2.50119	1.82758	-0.662014	0.460997	0.137709	0.566631	-0.683061	0.675345	-0.470026	0.244924	-0.635968	0.441868	-0.825177	-0.461336	-0.509881	-0.431395	-0.228258	-0.160478	-0.907903	-0.232023	-0.75239	0.21375	-0.634647	1.03748	-1.12984	0.196775	-1.58437	0.829562	
2.18201	5	0	-1.13068	0.559588	-0.780997	0.614424	-2.49941	1.82256	-0.662092	0.4494	0.13419	0.556622	-0.684399	0.65444	-0.473384	0.237611	-0.639056	0.432739	-0.823549	-0.465935	-0.512823	-0.431384	-0.234886	-0.153883	-0.913292	-0.231796	-0.752477	0.228091	-0.643859	1.05264	-1.12741	0.206267	-1.58678	0.836375	
2.18048	5	0	-1.13068	0.559588	-0.778435	0.607182	-2.49764	1.81753	-0.662169	0.437804	0.130672	0.546613	-0.685737	0.633536	-0.476741	0.230297	-0.642145	0.423609	-0.821922	-0.470535	-0.515766	-0.431372	-0.241514	-0.147287	-0.918681	-0.231569	-0.752564	0.242432	-0.653071	1.06781	-1.12497	0.215759	-1.58919	0.843187	
2.18201	5	0	-1.13068	0.559588	-0.775872	0.59994	-2.49586	1.81251	-0.662246	0.426208	0.127154	0.536604	-0.687075	0.612631	-0.480099	0.222984	-0.645233	0.414479	-0.820294	-0.475135	-0.518709	-0.431361	-0.248143	-0.140692	-0.92407	-0.231341	-0.752652	0.256773	-0.662283	1.08297	-1.12254	0.22525	-1.5916	0.85	
2.18353	5	0	-1.13068	0.559588	-0.775872	0.59994	-2.49764	1.81753	-0.662246	0.426208	0.12904	0.531274	-0.684574	0.605563	-0.477185	0.214749	-0.643183	0.408686	-0.820294	-0.475135	-0.514887	-0.433859	-0.250601	-0.145876	-0.925586	-0.227057	-0.751555	0.253674	-0.66123	1.08	-1.12625	0.219361	-1.5908	0.847728	
2.17895	5	0	-1.13068	0.559588	-0.775872	0.59994	-2.49941	1.82256	-0.662246	0.426208	0.130926	0.525944	-0.682073	0.598495	-0.474272	0.206514	-0.641133	0.402892	-0.820294	-0.475135	-0.511064	-0.436357	-0.253058	-0.15106	-0.927102	-0.222772	-0.750458	0.250574	-0.660177	1.07702	-1.12996	0.213471	-1.58999	0.845457	
2.17895	5	0	-1.13068	0.559588	-0.775872	0.59994	-2.50119	1.82758	-0.662246	0.426208	0.132812	0.520614	-0.679572	0.591426	-0.471358	0.19828	-0.639083	0.397099	-0.820294	-0.475135	-0.507241	-0.438854	-0.255516	-0.156244	-0.928617	-0.218488	-0.749362	0.247475	-0.659125	1.07405	-1.13367	0.207582	-1.58919	0.843186	
2.18201	5	0	-1.13068	0.559588	-0.775872	0.59994	-2.50297	1.83261	-0.662246	0.426208	0.134698	0.515284	-0.677071	0.584358	-0.468444	0.190045	-0.637033	0.391306	-0.820294	-0.475135	-0.503419	-0.441352	-0.257974	-0.161428	-0.930133	-0.214204	-0.748265	0.244376	-0.658072	1.07107	-1.13738	0.201692	-1.58838	0.840914	
2.18048	5	0	-1.13645	0.555693	-0.77543	0.607076	-2.50475	1.83763	-0.663242	0.440837	0.135515	0.522948	-0.675725	0.60524	-0.474715	0.190979	-0.633941	0.400426	-0.820294	-0.475135	-0.496342	-0.436413	-0.254474	-0.159189	-0.927781	-0.20585	-0.755848	0.251714	-0.659125	1.07405	-1.15612	0.205638	-1.59218	0.843393	
2.18201	5	0	-1.14222	0.551798	-0.774989	0.614212	-2.50653	1.84266	-0.664238	0.455466	0.136332	0.530612	-0.674379	0.626123	-0.480985	0.191914	-0.63085	0.409546	-0.820294	-0.475135	-0.489265	-0.431473	-0.250974	-0.15695	-0.925428	-0.197497	-0.763432	0.259051	-0.660177	1.07702	-1.17487	0.209584	-1.59597	0.845872	
2.17895	5	0	-1.14798	0.547903	-0.774547	0.621348	-2.50831	1.84769	-0.665234	0.470096	0.137149	0.538276	-0.673034	0.647005	-0.487256	0.192848	-0.627758	0.418666	-0.820294	-0.475135	-0.482189	-0.426534	-0.247475	-0.154711	-0.923075	-0.189144	-0.771016	0.266389	-0.66123	1.08	-1.19362	0.21353	-1.59977	0.848351	
2.17743	5	0	-1.15375	0.544008	-0.774105	0.628484	-2.51009	1.85271	-0.66623	0.484725	0.137966	0.54594	-0.671688	0.667887	-0.493526	0.193782	-0.624667	0.427786	-0.820294	-0.475135	-0.475112	-0.421594	-0.243975	-0.152472	-0.920723	-0.18079	-0.778599	0.273727	-0.662283	1.08297	-1.21236	0.217476	-1.60356	0.85083	
2.17895	5	0	-1.15775	0.535143	-0.774105	0.628484	-2.50831	1.84769	-0.667304	0.487759	0.135263	0.543606	-0.666676	0.653723	-0.493526	0.193782	-0.622608	0.430902	-0.818667	-0.479733	-0.469213	-0.421619	-0.243313	-0.166473	-0.912294	-0.189596	-0.789365	0.275998	-0.669123	1.08058	-1.21975	0.205723	-1.60954	0.851244	
2.17743	5	0	-1.16175	0.526279	-0.774105	0.628484	-2.50653	1.84266	-0.668377	0.490793	0.13256	0.541272	-0.661664	0.639559	-0.493526	0.193782	-0.620548	0.434018	-0.817041	-0.48433	-0.463315	-0.421644	-0.242651	-0.180474	-0.903865	-0.198402	-0.800131	0.278268	-0.675963	1.07819	-1.22713	0.19397	-1.61551	0.851657	
2.17895	5	0	-1.16575	0.517414	-0.774105	0.628484	-2.50475	1.83763	-0.66945	0.493827	0.129857	0.538938	-0.656652	0.625394	-0.493526	0.193782	-0.618489	0.437133	-0.815414	-0.488927	-0.457417	-0.421669	-0.241989	-0.194476	-0.895437	-0.207208	-0.810898	0.280538	-0.682802	1.0758	-1.23451	0.182217	-1.62149	0.85207	
2.17743	5	0	-1.16975	0.50855	-0.774105	0.628484	-2.50297	1.83261	-0.670524	0.496861	0.127154	0.536604	-0.65164	0.61123	-0.493526	0.193782	-0.61643	0.440249	-0.813787	-0.493525	-0.451518	-0.421694	-0.241327	-0.208477	-0.887008	-0.216014	-0.821664	0.282809	-0.689642	1.07341	-1.2419	0.170464	-1.62746	0.852484	
2.17743	5	0	-1.1587	0.497513	-0.77496	0.6309	-2.49583	1.83181	-0.662861	0.498856	0.129857	0.538938	-0.645275	0.61796	-0.488712	0.196964	-0.61437	0.443367	-0.813787	-0.493525	-0.45033	-0.416722	-0.238209	-0.217289	-0.884648	-0.207655	-0.825945	0.280845	-0.690694	1.07638	-1.24686	0.168187	-1.62207	0.845468	
2.17895	5	0	-1.14766	0.486476	-0.775815	0.633316	-2.4887	1.83101	-0.655199	0.500852	0.13256	0.541272	-0.63891	0.624691	-0.483898	0.200147	-0.61231	0.446485	-0.813787	-0.493525	-0.449143	-0.41175	-0.235091	-0.2261	-0.882289	-0.199297	-0.830225	0.27888	-0.691746	1.07936	-1.25181	0.165909	-1.61667	0.838453	
2.1759	5	0	-1.13662	0.47544	-0.776669	0.635732	-2.48156	1.83021	-0.647536	0.502847	0.135263	0.543606	-0.632545	0.631421	-0.479084	0.203329	-0.61025	0.449604	-0.813787	-0.493525	-0.447956	-0.406778	-0.231973	-0.234912	-0.87993	-0.190939	-0.834506	0.276916	-0.692798	1.08233	-1.25677	0.163631	-1.61127	0.831437	
2.17438	5	0	-1.12558	0.464403	-0.777524	0.638148	-2.47442	1.82941	-0.639873	0.504842	0.137966	0.54594	-0.62618	0.638151	-0.47427	0.206511	-0.60819	0.452722	-0.813787	-0.493525	-0.446768	-0.401806	-0.228855	-0.243724	-0.87757	-0.18258	-0.838787	0.274952	-0.69385	1.0853	-1.26173	0.161354	-1.60588	0.824421	
2.17743	5	0	-1.1331	0.4655	-0.776669	0.635732	-2.48156	1.83021	-0.641021	0.496258	0.129598	0.559616	-0.640066	0.652675	-0.475727	0.210629	-0.609218	0.455627	-0.803984	-0.49993	-0.446464	-0.394333	-0.230552	-0.226798	-0.878257	-0.165599	-0.830222	0.278881	-0.687011	1.0877	-1.27049	0.169836	-1.60289	0.824212	
2.17285	0	0	-1.14063	0.466597	-0.775815	0.633316	-2.4887	1.83101	-0.642169	0.487673	0.121231	0.573291	-0.653952	0.6672	-0.477185	0.214747	-0.610246	0.458531	-0.794182	-0.506336	-0.44616	-0.38686	-0.232249	-0.209872	-0.878945	-0.148618	-0.821657	0.28281	-0.680173	1.09009	-1.27925	0.178317	-1.5999	0.824003	
2.17438	0	0	-1.14815	0.467695	-0.77496	0.6309	-2.49583	1.83181	-0.643317	0.479088	0.112863	0.586966	-0.667837	0.681725	-0.478642	0.218866	-0.611274	0.461436	-0.78438	-0.512741	-0.445856	-0.379388	-0.233946	-0.192946	-0.879632	-0.131636	-0.813092	0.28674	-0.673334	1.09248	-1.28801	0.186799	-1.59691	0.823795	
2.17438	0	0	-1.15568	0.468792	-0.774105	0.628484	-2.50297	1.83261	-0.644465	0.470504	0.104495	0.600642	-0.681723	0.696249	-0.480099	0.222984	-0.612302	0.464341	-0.774577	-0.519146	-0.445552	-0.371915	-0.235643	-0.17602	-0.880319	-0.114655	-0.804527	0.290669	-0.666496	1.09488	-1.29676	0.19528	-1.59392	0.823586	
