2.19574	0	0	-0.244805	-0.578326	-0.056509	0.033633	0.011474	0.0436	0.175365	0.160383	0.357619	0.321541	0.263609	0.248996	0.535782	0.224906	0.542679	-0.032607	0.614791	0.539598	0.40293	-0.131904	0.588331	0.243777	0.559476	0.204234	0.259897	0.045861	0.269586	-0.055017	0.343545	-0.088376	0.179681	-0.37275	
2.19574	0	0	-0.254986	-0.571673	-0.059008	0.0336203	0.011474	0.0436	0.17454	0.162714	0.357619	0.321541	0.271581	0.240487	0.530488	0.225567	0.546112	-0.042309	0.616097	0.535907	0.410492	-0.141909	0.589337	0.240935	0.568245	0.191037	0.263184	0.0365702	0.277841	-0.0783465	0.352923	-0.104992	0.186884	-0.393106	
2.19269	0	0	-0.265167	-0.56502	-0.061507	0.0336075	0.011474	0.0436	0.173715	0.165046	0.357619	0.321541	0.279552	0.231978	0.525195	0.226227	0.549545	-0.052011	0.617403	0.532216	0.418054	-0.151913	0.590342	0.238094	0.577015	0.17784	0.266471	0.0272795	0.286096	-0.101676	0.362301	-0.121607	0.194086	-0.413462	
2.19574	0	0	-0.275348	-0.558368	-0.064006	0.0335947	0.011474	0.0436	0.172891	0.167378	0.357619	0.321541	0.287523	0.223469	0.519902	0.226887	0.552978	-0.061713	0.618709	0.528525	0.425617	-0.161918	0.591348	0.235252	0.585785	0.164643	0.269759	0.0179887	0.294351	-0.125005	0.37168	-0.138222	0.201289	-0.433818	
2.19421	0	0	-0.285529	-0.551715	-0.066505	0.033582	0.011474	0.0436	0.172066	0.169709	0.357619	0.321541	0.295495	0.21496	0.514608	0.227548	0.556411	-0.071415	0.620015	0.524834	0.433179	-0.171923	0.592353	0.23241	0.594554	0.151446	0.273046	0.008698	0.302606	-0.148335	0.381058	-0.154838	0.208492	-0.454174	
2.19269	0	0	-0.289581	-0.573395	-0.0697602	0.035709	0.00887975	0.0298143	0.164044	0.140975	0.35235	0.314481	0.283735	0.206168	0.506606	0.221594	0.55611	-0.0811508	0.614647	0.525505	0.430276	-0.175086	0.595976	0.234413	0.592263	0.15792	0.276504	0.010009	0.305127	-0.146399	0.385612	-0.157813	0.217914	-0.455118	
2.18811	0	0	-0.293634	-0.595074	-0.0730155	0.037836	0.0062855	0.0160285	0.156023	0.11224	0.347081	0.307421	0.271975	0.197376	0.498605	0.215641	0.55581	-0.0908865	0.609279	0.526177	0.427372	-0.178248	0.599599	0.236417	0.589973	0.164393	0.279962	0.01132	0.307648	-0.144463	0.390165	-0.160789	0.227336	-0.456063	
2.19116	0	0	-0.297686	-0.616753	-0.0762707	0.039963	0.00369125	0.00224275	0.148001	0.0835063	0.341811	0.300361	0.260214	0.188583	0.490603	0.209687	0.555509	-0.100622	0.60391	0.526848	0.424469	-0.18141	0.603221	0.23842	0.587682	0.170867	0.28342	0.012631	0.31017	-0.142528	0.394719	-0.163765	0.236759	-0.457007	
2.19116	0	0	-0.301739	-0.638433	-0.079526	0.04209	0.001097	-0.011543	0.139979	0.054772	0.336542	0.293301	0.248454	0.179791	0.482602	0.203733	0.555208	-0.110358	0.598542	0.527519	0.421566	-0.184573	0.606844	0.240423	0.585391	0.177341	0.286878	0.013942	0.312691	-0.140592	0.399273	-0.16674	0.246181	-0.457951	
2.18658	0	0	-0.301739	-0.649462	-0.0762707	0.039963	-0.000202	-0.0184218	0.13801	0.034686	0.333206	0.280803	0.254111	0.149814	0.482457	0.189876	0.547453	-0.120162	0.602455	0.516459	0.422152	-0.197588	0.612874	0.22338	0.589211	0.154958	0.291805	1.7E-05	0.309246	-0.158026	0.404092	-0.180361	0.247834	-0.471187	
2.19116	0	0	-0.30174	-0.660491	-0.0730155	0.037836	-0.001501	-0.0253005	0.136042	0.0146	0.32987	0.268306	0.259769	0.119837	0.482312	0.176018	0.539698	-0.129967	0.606369	0.5054	0.422737	-0.210603	0.618905	0.206336	0.593031	0.132576	0.296733	-0.013908	0.305801	-0.17546	0.408912	-0.193981	0.249486	-0.484424	
2.18506	0	0	-0.30174	-0.671519	-0.0697602	0.035709	-0.0028	-0.0321792	0.134074	-0.005486	0.326534	0.255808	0.265427	0.08986	0.482167	0.162161	0.531943	-0.139771	0.610282	0.49434	0.423322	-0.223618	0.624936	0.189293	0.596851	0.110193	0.30166	-0.027833	0.302355	-0.192895	0.413732	-0.207601	0.251139	-0.49766	
2.18353	0	0	-0.301741	-0.682548	-0.066505	0.033582	-0.004099	-0.039058	0.132105	-0.025572	0.323198	0.243311	0.271084	0.059883	0.482022	0.148304	0.524188	-0.149576	0.614195	0.48328	0.423908	-0.236633	0.630966	0.17225	0.600671	0.087811	0.306587	-0.041758	0.29891	-0.210329	0.418551	-0.221222	0.252792	-0.510896	
2.18353	0	0	-0.298694	-0.68013	-0.0672622	0.0357225	0.00205825	-0.035354	0.135878	-0.0191405	0.327052	0.23242	0.279031	0.0514122	0.479307	0.14172	0.52988	-0.165664	0.612737	0.472913	0.428551	-0.249757	0.63498	0.160906	0.606378	0.071682	0.305586	-0.0500125	0.302139	-0.228504	0.417206	-0.227316	0.25364	-0.521853	
2.18048	0	0	-0.295646	-0.677712	-0.0680195	0.037863	0.0082155	-0.03165	0.139651	-0.012709	0.330905	0.221529	0.286977	0.0429415	0.476592	0.135136	0.535573	-0.181752	0.611279	0.462545	0.433195	-0.26288	0.638994	0.149562	0.612085	0.055553	0.304585	-0.058267	0.305369	-0.246678	0.415861	-0.233409	0.254487	-0.532809	
2.17743	0	0	-0.292599	-0.675293	-0.0687767	0.0400035	0.0143727	-0.027946	0.143425	-0.0062775	0.334759	0.210638	0.294924	0.0344708	0.473878	0.128553	0.541266	-0.197841	0.60982	0.452178	0.437839	-0.276004	0.643008	0.138218	0.617792	0.039424	0.303584	-0.0665215	0.308598	-0.264853	0.414517	-0.239503	0.255335	-0.543766	
2.17895	0	0	-0.289552	-0.672875	-0.069534	0.042144	0.02053	-0.024242	0.147198	0.000154	0.338613	0.199747	0.302871	0.026	0.471163	0.121969	0.546958	-0.213929	0.608362	0.441811	0.442482	-0.289127	0.647022	0.126874	0.623499	0.023295	0.302583	-0.074776	0.311827	-0.283028	0.413172	-0.245596	0.256182	-0.554722	
2.1759	0	0	-0.288537	-0.675743	-0.069534	0.042144	0.0192282	-0.0311188	0.136543	-0.0124418	0.333344	0.192738	0.299448	0.0216852	0.469728	0.111779	0.542921	-0.223638	0.6056	0.435137	0.440735	-0.295543	0.647022	0.126874	0.624267	0.0327112	0.312788	-0.0814442	0.318516	-0.283832	0.42148	-0.249282	0.263267	-0.557619	
2.17438	0	0	-0.287522	-0.678611	-0.069534	0.042144	0.0179265	-0.0379955	0.125887	-0.0250375	0.328075	0.185729	0.296025	0.0173705	0.468294	0.101588	0.538884	-0.233346	0.602839	0.428463	0.438987	-0.301958	0.647022	0.126874	0.625035	0.0421275	0.322993	-0.0881125	0.325206	-0.284637	0.429788	-0.252968	0.270352	-0.560516	
2.17285	0	0	-0.286507	-0.68148	-0.069534	0.042144	0.0166248	-0.0448723	0.115232	-0.0376333	0.322806	0.17872	0.292603	0.0130558	0.466859	0.0913983	0.534848	-0.243055	0.600077	0.42179	0.43724	-0.308373	0.647022	0.126874	0.625803	0.0515437	0.333199	-0.0947807	0.331895	-0.285441	0.438096	-0.256655	0.277438	-0.563413	
2.1759	0	0	-0.285492	-0.684348	-0.069534	0.042144	0.015323	-0.051749	0.104577	-0.050229	0.317537	0.171711	0.28918	0.008741	0.465424	0.081208	0.530811	-0.252763	0.597316	0.415116	0.435493	-0.314789	0.647022	0.126874	0.626571	0.06096	0.343404	-0.101449	0.338584	-0.286245	0.446404	-0.260341	0.284523	-0.56631	
2.17132	0	0	-0.275329	-0.690989	-0.0687767	0.0400035	0.0219582	-0.0599448	0.109627	-0.0730313	0.317069	0.151161	0.278508	-0.0169492	0.465263	0.067429	0.529041	-0.268854	0.603809	0.396767	0.437216	-0.331004	0.649401	0.10791	0.627309	0.0357097	0.337294	-0.106353	0.329311	-0.296221	0.445855	-0.26869	0.271954	-0.565025	
2.1698	0	0	-0.265166	-0.697629	-0.0680195	0.037863	0.0285935	-0.0681405	0.114677	-0.0958335	0.3166	0.130611	0.267837	-0.0426395	0.465102	0.05365	0.52727	-0.284945	0.610302	0.378417	0.438939	-0.34722	0.651779	0.088947	0.628046	0.0104595	0.331183	-0.111257	0.320037	-0.306196	0.445307	-0.277039	0.259384	-0.56374	
2.16522	0	0	-0.255003	-0.70427	-0.0672622	0.0357225	0.0352288	-0.0763362	0.119727	-0.118636	0.316132	0.110062	0.257165	-0.0683298	0.46494	0.039871	0.5255	-0.301036	0.616794	0.360068	0.440661	-0.363436	0.654157	0.0699835	0.628783	-0.0147908	0.325072	-0.116162	0.310764	-0.316172	0.444758	-0.285388	0.246815	-0.562455	
2.16522	0	0	-0.24484	-0.710911	-0.066505	0.033582	0.041864	-0.084532	0.124777	-0.141438	0.315663	0.089512	0.246494	-0.09402	0.464779	0.026092	0.52373	-0.317127	0.623287	0.341719	0.442384	-0.379651	0.656536	0.05102	0.629521	-0.040041	0.318962	-0.121066	0.301491	-0.326148	0.444209	-0.293737	0.234245	-0.56117	
2.1637	0	0	-0.238727	-0.706081	-0.0632487	0.0314543	0.0489233	-0.0833532	0.130185	-0.139659	0.314465	0.08197	0.258906	-0.115152	0.468607	0.0152738	0.527126	-0.326725	0.620518	0.335078	0.441786	-0.389302	0.655903	0.0405753	0.631015	-0.0558353	0.322234	-0.130313	0.303878	-0.34193	0.442858	-0.299812	0.228813	-0.571456	
2.1637	0	0	-0.232614	-0.70125	-0.0599925	0.0293265	0.0559825	-0.0821745	0.135594	-0.137879	0.313268	0.074428	0.271319	-0.136285	0.472435	0.0044555	0.530522	-0.336322	0.617749	0.328437	0.441188	-0.398953	0.65527	0.0301305	0.632509	-0.0716295	0.325506	-0.139561	0.306266	-0.357712	0.441507	-0.305887	0.223381	-0.581742	
2.16217	0	0	-0.2265	-0.69642	-0.0567363	0.0271988	0.0630417	-0.0809958	0.141002	-0.136099	0.31207	0.066886	0.283731	-0.157417	0.476263	-0.00636275	0.533918	-0.34592	0.61498	0.321797	0.440591	-0.408603	0.654637	0.0196858	0.634003	-0.0874238	0.328778	-0.148808	0.308654	-0.373495	0.440155	-0.311962	0.217949	-0.592028	
2.15759	0	0	-0.220387	-0.69159	-0.05348	0.025071	0.070101	-0.079817	0.14641	-0.13432	0.310872	0.059344	0.296143	-0.178549	0.480091	-0.017181	0.537314	-0.355518	0.612211	0.315156	0.439993	-0.418254	0.654004	0.009241	0.635497	-0.103218	0.33205	-0.158055	0.311041	-0.389277	0.438804	-0.318037	0.212517	-0.602314	
2.15912	0	0	-0.222429	-0.696875	-0.0567363	0.0271988	0.0679028	-0.0841723	0.141149	-0.145042	0.313742	0.0512315	0.284807	-0.174393	0.48264	-0.024386	0.534726	-0.358741	0.620165	0.307144	0.439993	-0.418254	0.66427	0.0047035	0.638551	-0.100278	0.33205	-0.158055	0.314382	-0.389684	0.439604	-0.320298	0.213312	-0.604561	
2.15912	0	0	-0.224471	-0.70216	-0.0599925	0.0293265	0.0657045	-0.0885275	0.135888	-0.155765	0.316613	0.043119	0.273471	-0.170237	0.48519	-0.031591	0.532138	-0.361965	0.628118	0.299133	0.439993	-0.418254	0.674536	0.000166	0.641606	-0.097338	0.33205	-0.158055	0.317723	-0.390091	0.440404	-0.322559	0.214107	-0.606807	
2.15759	0	0	-0.226514	-0.707446	-0.0632487	0.0314543	0.0635063	-0.0928828	0.130627	-0.166487	0.319483	0.0350065	0.262134	-0.166082	0.487739	-0.038796	0.52955	-0.365189	0.636071	0.291121	0.439993	-0.418254	0.684802	-0.0043715	0.64466	-0.094398	0.33205	-0.158055	0.321063	-0.390498	0.441204	-0.32482	0.214902	-0.609054	
2.15454	0	0	-0.228556	-0.712731	-0.066505	0.033582	0.061308	-0.097238	0.125366	-0.177209	0.322354	0.026894	0.250798	-0.161926	0.490289	-0.046001	0.526962	-0.368412	0.644025	0.28311	0.439993	-0.418254	0.695068	-0.008909	0.647714	-0.091458	0.33205	-0.158055	0.324404	-0.390905	0.442004	-0.327081	0.215697	-0.611301	
2.15759	0	0	-0.223467	-0.716056	-0.059991	0.0293258	0.0630837	-0.102257	0.124839	-0.19276	0.32497	0.00858075	0.251421	-0.191529	0.494109	-0.0567978	0.530352	-0.377993	0.644025	0.28311	0.443455	-0.428038	0.694425	-0.0193338	0.648408	-0.116555	0.333685	-0.162675	0.317653	-0.398917	0.434503	-0.325655	0.203168	-0.610019	
2.15759	0	0	-0.218378	-0.719382	-0.053477	0.0250695	0.0648595	-0.107275	0.124312	-0.20831	0.327585	-0.0097325	0.252045	-0.221131	0.497929	-0.0675945	0.533742	-0.387573	0.644025	0.28311	0.446917	-0.437821	0.693782	-0.0297585	0.649101	-0.141652	0.335319	-0.167295	0.310902	-0.406929	0.427003	-0.32423	0.190638	-0.608738	
2.16522	0	0	-0.213289	-0.722707	-0.046963	0.0208132	0.0666353	-0.112294	0.123784	-0.223861	0.330201	-0.0280457	0.252668	-0.250734	0.50175	-0.0783912	0.537132	-0.397153	0.644025	0.28311	0.450378	-0.447605	0.693139	-0.0401833	0.649794	-0.166749	0.336954	-0.171916	0.304151	-0.414942	0.419502	-0.322805	0.178109	-0.607457	
2.1637	0	0	-0.2082	-0.726032	-0.040449	0.016557	0.068411	-0.117312	0.123257	-0.239411	0.332817	-0.046359	0.253291	-0.280337	0.50557	-0.089188	0.540522	-0.406734	0.644025	0.28311	0.45384	-0.457388	0.692496	-0.050608	0.650488	-0.191846	0.338589	-0.176536	0.2974	-0.422954	0.412001	-0.321379	0.16558	-0.606175	
2.16827	0	0	-0.2082	-0.726032	-0.0241422	0.00590175	0.0803465	-0.119323	0.123257	-0.239411	0.335678	-0.0544448	0.254332	-0.297183	0.513394	-0.0970648	0.550225	-0.413074	0.649393	0.282417	0.45384	-0.457388	0.699128	-0.057108	0.650824	-0.204355	0.335942	-0.18013	0.292285	-0.435552	0.409853	-0.325185	0.163291	-0.616748	
2.17132	0	0	-0.2082	-0.726032	-0.0078355	-0.0047535	0.092282	-0.121333	0.123257	-0.239411	0.338539	-0.0625305	0.255373	-0.314029	0.521218	-0.104941	0.559927	-0.419414	0.654761	0.281724	0.45384	-0.457388	0.705759	-0.063608	0.651161	-0.216863	0.333294	-0.183725	0.287171	-0.448151	0.407704	-0.328991	0.161002	-0.62732	
2.17743	0	0	-0.2082	-0.726032	0.00847125	-0.0154088	0.104218	-0.123344	0.123257	-0.239411	0.3414	-0.0706162	0.256413	-0.330876	0.529041	-0.112818	0.56963	-0.425754	0.660129	0.28103	0.45384	-0.457388	0.712391	-0.070108	0.651497	-0.229372	0.330646	-0.187319	0.282057	-0.460749	0.405556	-0.332797	0.158714	-0.637892	
2.17743	0	0	-0.2082	-0.726032	0.024778	-0.026064	0.116153	-0.125355	0.123257	-0.239411	0.344261	-0.078702	0.257454	-0.347722	0.536865	-0.120695	0.579333	-0.432094	0.665497	0.280337	0.45384	-0.457388	0.719022	-0.076608	0.651833	-0.241881	0.327999	-0.190913	0.276942	-0.473347	0.403407	-0.336603	0.156425	-0.648465	
2.18201	0	0	-0.212274	-0.725575	0.034577	-0.0324668	0.111708	-0.112793	0.118526	-0.234556	0.352409	-0.079883	0.259391	-0.339293	0.535593	-0.117099	0.580799	-0.425686	0.673653	0.286277	0.457906	-0.457538	0.726311	-0.0726987	0.659083	-0.239248	0.333097	-0.194244	0.27857	-0.477948	0.407155	-0.337315	0.161889	-0.646866	
2.18658	0	0	-0.216348	-0.725118	0.044376	-0.0388695	0.107263	-0.100231	0.113795	-0.2297	0.360558	-0.081064	0.261329	-0.330864	0.53432	-0.113503	0.582264	-0.419278	0.681809	0.292218	0.461971	-0.457688	0.733599	-0.0687895	0.666334	-0.236614	0.338195	-0.197576	0.280198	-0.482549	0.410902	-0.338027	0.167353	-0.645266	
2.18963	0	0	-0.220422	-0.724661	0.054175	-0.0452722	0.102818	-0.0876683	0.109065	-0.224845	0.368706	-0.082245	0.263267	-0.322435	0.533048	-0.109907	0.58373	-0.412871	0.689964	0.298158	0.466037	-0.457839	0.740887	-0.0648803	0.673584	-0.233981	0.343293	-0.200907	0.281826	-0.48715	0.41465	-0.33874	0.172816	-0.643667	
2.18963	0	0	-0.224496	-0.724204	0.063974	-0.051675	0.098373	-0.075106	0.104334	-0.219989	0.376855	-0.083426	0.265204	-0.314006	0.531775	-0.106311	0.585196	-0.406463	0.69812	0.304098	0.470103	-0.457989	0.748176	-0.060971	0.680834	-0.231347	0.348391	-0.204238	0.283454	-0.491751	0.418397	-0.339452	0.17828	-0.642068	
2.19269	0	0	-0.227553	-0.726615	0.0664855	-0.0516708	0.105913	-0.085829	0.102992	-0.233214	0.381621	-0.0968938	0.267722	-0.335028	0.54362	-0.111285	0.594915	-0.412814	0.714277	0.302005	0.478243	-0.458292	0.748176	-0.060971	0.677773	-0.234262	0.342477	-0.198599	0.281012	-0.484849	0.419747	-0.333386	0.175851	-0.626677	
2.19421	0	0	-0.23061	-0.729025	0.068997	-0.0516665	0.113453	-0.096552	0.10165	-0.246439	0.386386	-0.110362	0.270241	-0.35605	0.555465	-0.116259	0.604634	-0.419165	0.730434	0.299911	0.486382	-0.458596	0.748176	-0.060971	0.674712	-0.237177	0.336562	-0.19296	0.27857	-0.477946	0.421098	-0.327319	0.173422	-0.611285	
2.20032	0	0	-0.233668	-0.731436	0.0715085	-0.0516622	0.120993	-0.107275	0.100308	-0.259664	0.391151	-0.123829	0.27276	-0.377072	0.567309	-0.121233	0.614354	-0.425515	0.746591	0.297818	0.494522	-0.458899	0.748176	-0.060971	0.671651	-0.240091	0.330647	-0.187321	0.276127	-0.471044	0.422449	-0.321252	0.170993	-0.595894	
2.20032	0	0	-0.236725	-0.733847	0.07402	-0.051658	0.128533	-0.117998	0.098966	-0.272889	0.395917	-0.137297	0.275278	-0.398094	0.579154	-0.126207	0.624073	-0.431866	0.762748	0.295725	0.502661	-0.459203	0.748176	-0.060971	0.66859	-0.243006	0.324733	-0.181682	0.273685	-0.464141	0.423799	-0.315186	0.168564	-0.580503	
2.19879	0	0	-0.229594	-0.731893	0.0715085	-0.0516622	0.135618	-0.116831	0.106662	-0.269108	0.405985	-0.143875	0.281678	-0.402276	0.596321	-0.13189	0.624411	-0.422254	0.768143	0.295023	0.50558	-0.456091	0.755818	-0.0703012	0.665531	-0.245918	0.327182	-0.188604	0.268651	-0.467926	0.42005	-0.314474	0.170948	-0.587241	
2.20184	0	0	-0.222463	-0.729939	0.068997	-0.0516665	0.142703	-0.115664	0.114359	-0.265327	0.416052	-0.150454	0.288077	-0.406458	0.613488	-0.137572	0.62475	-0.412643	0.773538	0.294322	0.508498	-0.452979	0.763459	-0.0796315	0.662471	-0.248831	0.329631	-0.195526	0.263616	-0.471711	0.416301	-0.313762	0.173332	-0.593978	
2.20032	0	0	-0.215331	-0.727986	0.0664855	-0.0516708	0.149787	-0.114497	0.122055	-0.261545	0.426119	-0.157033	0.294477	-0.410639	0.630655	-0.143255	0.625088	-0.403031	0.778933	0.293621	0.511417	-0.449868	0.7711	-0.0889618	0.659412	-0.251743	0.332081	-0.202448	0.258582	-0.475496	0.412552	-0.313051	0.175716	-0.600715	
2.20032	0	0	-0.2082	-0.726032	0.063974	-0.051675	0.156872	-0.11333	0.129751	-0.257764	0.436187	-0.163611	0.300877	-0.414821	0.647822	-0.148937	0.625426	-0.393419	0.784328	0.292919	0.514336	-0.446756	0.778742	-0.098292	0.656353	-0.254655	0.33453	-0.20937	0.253547	-0.479281	0.408803	-0.312339	0.1781	-0.607453	
2.20032	0	0	-0.206155	-0.720749	0.0607063	-0.04954	0.15951	-0.099573	0.132434	-0.231248	0.439593	-0.151336	0.310155	-0.385317	0.650579	-0.142428	0.628361	-0.380561	0.792529	0.298866	0.519021	-0.437254	0.783052	-0.085916	0.667467	-0.239789	0.332897	-0.204756	0.257691	-0.481989	0.419256	-0.312215	0.184318	-0.599424	
2.19726	0	0	-0.204109	-0.715466	0.0574385	-0.047405	0.162149	-0.085816	0.135116	-0.204732	0.442998	-0.139061	0.319433	-0.355814	0.653336	-0.135919	0.631297	-0.367704	0.800731	0.304814	0.523705	-0.427752	0.787361	-0.07354	0.678581	-0.224923	0.331264	-0.200141	0.261835	-0.484696	0.42971	-0.31209	0.190536	-0.591395	
2.19879	0	0	-0.202064	-0.710182	0.0541707	-0.04527	0.164788	-0.072059	0.137798	-0.178216	0.446404	-0.126786	0.32871	-0.326311	0.656092	-0.12941	0.634232	-0.354846	0.808932	0.310762	0.52839	-0.41825	0.791671	-0.061164	0.689694	-0.210057	0.329632	-0.195527	0.26598	-0.487404	0.440163	-0.311966	0.196754	-0.583365	
2.19421	0	0	-0.200019	-0.704899	0.050903	-0.043135	0.167426	-0.058302	0.140481	-0.1517	0.44981	-0.114511	0.337988	-0.296807	0.658849	-0.122901	0.637167	-0.341988	0.817133	0.316709	0.533075	-0.408748	0.79598	-0.048788	0.700808	-0.195191	0.327999	-0.190913	0.270124	-0.490112	0.450616	-0.311842	0.202972	-0.575336	
2.19726	0	0	-0.208169	-0.703988	0.050903	-0.043135	0.167426	-0.058302	0.145224	-0.156569	0.451989	-0.109712	0.342919	-0.296787	0.662883	-0.119991	0.642372	-0.335521	0.824042	0.326354	0.538921	-0.402501	0.796633	-0.0383422	0.69706	-0.173013	0.333295	-0.183721	0.269456	-0.470203	0.445007	-0.29599	0.209889	-0.552136	
2.19574	0	0	-0.216318	-0.703077	0.050903	-0.043135	0.167426	-0.058302	0.149966	-0.161438	0.454169	-0.104912	0.347851	-0.296767	0.666918	-0.117081	0.647578	-0.329054	0.830951	0.335998	0.544768	-0.396254	0.797286	-0.0278965	0.693312	-0.150835	0.338591	-0.176529	0.268788	-0.450295	0.439397	-0.280137	0.216806	-0.528936	
2.19421	0	0	-0.224467	-0.702165	0.050903	-0.043135	0.167426	-0.058302	0.154708	-0.166307	0.456348	-0.100113	0.352782	-0.296747	0.670952	-0.114171	0.652783	-0.322587	0.83786	0.345643	0.550615	-0.390007	0.797938	-0.0174508	0.689565	-0.128656	0.343888	-0.169336	0.268121	-0.430387	0.433788	-0.264285	0.223723	-0.505737	
2.19269	0	0	-0.232617	-0.701254	0.050903	-0.043135	0.167426	-0.058302	0.159451	-0.171176	0.458528	-0.095314	0.357713	-0.296727	0.674986	-0.111261	0.657988	-0.31612	0.844769	0.355287	0.556461	-0.38376	0.798591	-0.007005	0.685817	-0.106478	0.349184	-0.162144	0.267453	-0.410478	0.428179	-0.248433	0.23064	-0.482537	
2.19421	0	0	-0.229559	-0.698838	0.050903	-0.043135	0.168743	-0.0514093	0.164052	-0.167099	0.463845	-0.088403	0.361155	-0.292486	0.681784	-0.101819	0.66206	-0.306425	0.857109	0.364253	0.562313	-0.377502	0.806909	-0.0059085	0.690016	-0.106752	0.339803	-0.157791	0.265752	-0.414682	0.433537	-0.253676	0.229896	-0.488991	
2.18506	0	0	-0.226502	-0.696422	0.050903	-0.043135	0.170061	-0.0445165	0.168653	-0.163021	0.469162	-0.081492	0.364596	-0.288246	0.688582	-0.0923765	0.666131	-0.296731	0.86945	0.37322	0.568165	-0.371244	0.815227	-0.004812	0.694215	-0.107025	0.330421	-0.153438	0.26405	-0.418886	0.438895	-0.258919	0.229152	-0.495445	
2.18963	0	0	-0.223444	-0.694006	0.050903	-0.043135	0.171378	-0.0376237	0.173253	-0.158944	0.47448	-0.074581	0.368038	-0.284006	0.69538	-0.0829343	0.670203	-0.287036	0.881791	0.382186	0.574018	-0.364986	0.823545	-0.0037155	0.698415	-0.107299	0.321039	-0.149084	0.262348	-0.423091	0.444253	-0.264163	0.228407	-0.501899	
2.18506	0	0	-0.220387	-0.69159	0.050903	-0.043135	0.172695	-0.030731	0.177854	-0.154867	0.479797	-0.06767	0.37148	-0.279765	0.702178	-0.073492	0.674274	-0.277341	0.894131	0.391152	0.57987	-0.358728	0.831863	-0.002619	0.702614	-0.107573	0.311658	-0.144731	0.260647	-0.427295	0.449611	-0.269406	0.227663	-0.508353	
2.18811	0	0	-0.223434	-0.671915	0.0607095	-0.0495427	0.16954	-0.0111918	0.186101	-0.135405	0.487302	-0.0559245	0.386767	-0.266992	0.702377	-0.0597093	0.682095	-0.267595	0.907811	0.396437	0.586891	-0.355745	0.837181	0.00698775	0.712952	-0.101964	0.321039	-0.149084	0.261462	-0.429599	0.457929	-0.273099	0.231602	-0.510927	
2.18048	0	0	-0.226481	-0.65224	0.070516	-0.0559505	0.166384	0.0083475	0.194348	-0.115944	0.494807	-0.044179	0.402053	-0.254219	0.702576	-0.0459265	0.689916	-0.25785	0.92149	0.401722	0.593912	-0.352761	0.842499	0.0165945	0.723289	-0.0963545	0.330421	-0.153438	0.262277	-0.431902	0.466247	-0.276791	0.23554	-0.513501	
2.18201	0	0	-0.229528	-0.632565	0.0803225	-0.0623582	0.163229	0.0278868	0.202594	-0.0964818	0.502313	-0.0324335	0.41734	-0.241447	0.702774	-0.0321437	0.697736	-0.248105	0.935169	0.407008	0.600933	-0.349777	0.847818	0.0262013	0.733627	-0.0907452	0.339803	-0.157791	0.263093	-0.434206	0.474564	-0.280484	0.239479	-0.516074	
2.17895	0	0	-0.232575	-0.61289	0.090129	-0.068766	0.160074	0.047426	0.210841	-0.07702	0.509818	-0.020688	0.432627	-0.228674	0.702973	-0.018361	0.705557	-0.238359	0.948849	0.412293	0.607954	-0.346794	0.853136	0.035808	0.743965	-0.085136	0.349184	-0.162144	0.263908	-0.43651	0.482882	-0.284177	0.243418	-0.518648	
2.17438	0	0	-0.236649	-0.612441	0.0934003	-0.0709035	0.161863	0.042369	0.208686	-0.088048	0.50284	-0.01196	0.419736	-0.220251	0.707015	-0.0154292	0.697244	-0.225487	0.9558	0.422005	0.609723	-0.340371	0.852779	0.0491482	0.746683	-0.069565	0.344274	-0.148266	0.267312	-0.428101	0.486392	-0.274261	0.251999	-0.508629	
2.17438	0	0	-0.240722	-0.611993	0.0966715	-0.073041	0.163652	0.037312	0.206531	-0.099076	0.495862	-0.003232	0.406845	-0.211828	0.711056	-0.0124975	0.688931	-0.212616	0.96275	0.431716	0.611492	-0.333947	0.852421	0.0624885	0.749402	-0.053994	0.339363	-0.134388	0.270717	-0.419692	0.489903	-0.264346	0.26058	-0.498611	
2.17285	0	0	-0.244795	-0.611544	0.0999427	-0.0751785	0.165442	0.032255	0.204376	-0.110104	0.488885	0.005496	0.393954	-0.203404	0.715098	-0.00956575	0.680618	-0.199744	0.969701	0.441428	0.613261	-0.327523	0.852064	0.0758288	0.75212	-0.038423	0.334452	-0.12051	0.274122	-0.411283	0.493413	-0.254431	0.26916	-0.488592	
2.17438	0	0	-0.248869	-0.611095	0.103214	-0.077316	0.167231	0.027198	0.202221	-0.121132	0.481907	0.014224	0.381063	-0.194981	0.71914	-0.006634	0.672305	-0.186872	0.976651	0.451139	0.61503	-0.3211	0.851707	0.089169	0.754838	-0.022852	0.329542	-0.106632	0.277526	-0.402874	0.496923	-0.244515	0.277741	-0.478573	
2.17285	0	0	-0.249887	-0.619275	0.103214	-0.077316	0.167231	0.027198	0.204671	-0.128056	0.485046	0.016344	0.385557	-0.207681	0.717857	-0.0030075	0.677194	-0.190066	0.978157	0.461579	0.619127	-0.321249	0.862062	0.0845895	0.752909	-0.0290318	0.330361	-0.108947	0.277454	-0.41169	0.497726	-0.246786	0.287238	-0.488254	
2.16827	0	0	-0.250906	-0.627454	0.103214	-0.077316	0.167231	0.027198	0.20712	-0.13498	0.488185	0.018464	0.390051	-0.220382	0.716573	0.000619	0.682083	-0.193261	0.979662	0.47202	0.623224	-0.321398	0.872418	0.08001	0.750981	-0.0352115	0.331179	-0.111261	0.277383	-0.420505	0.49853	-0.249056	0.296735	-0.497935	
2.16827	0	0	-0.251924	-0.635633	0.103214	-0.077316	0.167231	0.027198	0.20957	-0.141904	0.491325	0.020584	0.394545	-0.233082	0.71529	0.0042455	0.686971	-0.196456	0.981167	0.48246	0.627321	-0.321546	0.882773	0.0754305	0.749052	-0.0413913	0.331998	-0.113576	0.277311	-0.429321	0.499333	-0.251327	0.306232	-0.507615	
2.1637	0	0	-0.252942	-0.643813	0.103214	-0.077316	0.167231	0.027198	0.21202	-0.148828	0.494464	0.022704	0.399039	-0.245783	0.714007	0.007872	0.69186	-0.19965	0.982673	0.4929	0.631418	-0.321695	0.893128	0.070851	0.747123	-0.047571	0.332817	-0.11589	0.27724	-0.438137	0.500136	-0.253597	0.315729	-0.517296	
2.1637	0	0	-0.264128	-0.634293	0.106487	-0.0794543	0.165855	0.0417138	0.215517	-0.124456	0.4969	0.0378223	0.401434	-0.224544	0.711439	0.0151298	0.697075	-0.193125	0.990949	0.498935	0.633189	-0.315261	0.899468	0.0776537	0.762845	-0.0454398	0.335464	-0.11228	0.280575	-0.438545	0.500136	-0.253597	0.318081	-0.515357	
2.16217	0	0	-0.275314	-0.624774	0.10976	-0.0815925	0.16448	0.0562295	0.219014	-0.100085	0.499336	0.0529405	0.403829	-0.203304	0.708871	0.0223875	0.702289	-0.1866	0.999225	0.50497	0.634959	-0.308827	0.905807	0.0844565	0.778567	-0.0433085	0.33811	-0.10867	0.28391	-0.438952	0.500136	-0.253597	0.320433	-0.513418	
2.16217	0	0	-0.2865	-0.615255	0.113032	-0.0837307	0.163105	0.0707453	0.222511	-0.0757135	0.501772	0.0680588	0.406224	-0.182064	0.706303	0.0296452	0.707503	-0.180074	1.0075	0.511006	0.636729	-0.302393	0.912146	0.0912593	0.79429	-0.0411772	0.340757	-0.105059	0.287245	-0.43936	0.500136	-0.253597	0.322784	-0.51148	
2.15912	0	0	-0.297686	-0.605735	0.116305	-0.085869	0.161729	0.085261	0.226008	-0.051342	0.504208	0.083177	0.408619	-0.160825	0.703735	0.036903	0.712718	-0.173549	1.01578	0.517041	0.6385	-0.295959	0.918486	0.098062	0.810012	-0.039046	0.343404	-0.101449	0.29058	-0.439768	0.500136	-0.253597	0.325136	-0.509541	
2.16064	0	0	-0.299721	-0.599983	0.119579	-0.0880082	0.153251	0.098594	0.220424	-0.0441315	0.503495	0.096202	0.409491	-0.13524	0.706491	0.0434802	0.709285	-0.163847	1.02539	0.519357	0.64848	-0.289811	0.92079	0.116301	0.812376	-0.010729	0.352993	-0.0952395	0.296582	-0.420617	0.514959	-0.245808	0.33691	-0.499831	
2.15912	0	0	-0.301757	-0.59423	0.122853	-0.0901475	0.144773	0.111927	0.214841	-0.036921	0.502783	0.109227	0.410363	-0.109655	0.709247	0.0500575	0.705852	-0.154145	1.03499	0.521674	0.658461	-0.283662	0.923095	0.134541	0.814741	0.017588	0.362582	-0.08903	0.302585	-0.401467	0.529783	-0.238019	0.348684	-0.490121	
2.16217	0	0	-0.303793	-0.588478	0.126126	-0.0922868	0.136294	0.12526	0.209257	-0.0297105	0.50207	0.122252	0.411236	-0.0840693	0.712003	0.0566348	0.702419	-0.144443	1.0446	0.523991	0.668441	-0.277514	0.925399	0.15278	0.817106	0.045905	0.372171	-0.0828205	0.308587	-0.382317	0.544606	-0.230231	0.360458	-0.48041	
2.16064	0	0	-0.305828	-0.582726	0.1294	-0.094426	0.127816	0.138593	0.203674	-0.0225	0.501358	0.135277	0.412108	-0.058484	0.714759	0.063212	0.698986	-0.134741	1.05421	0.526307	0.678421	-0.271365	0.927703	0.171019	0.81947	0.074222	0.38176	-0.076611	0.314589	-0.363166	0.559429	-0.222442	0.372232	-0.4707	
2.15912	0	0	-0.30482	-0.574531	0.126126	-0.0922868	0.134011	0.142347	0.205157	-0.0181227	0.499429	0.140729	0.408664	-0.0627817	0.72009	0.0625238	0.703883	-0.137941	1.05704	0.533064	0.681363	-0.268213	0.933405	0.167294	0.821765	0.0677365	0.377653	-0.0650025	0.313017	-0.349683	0.553787	-0.206496	0.368968	-0.452866	
2.1637	0	0	-0.303812	-0.566337	0.122853	-0.0901475	0.140206	0.146101	0.206641	-0.0137455	0.4975	0.146181	0.40522	-0.0670795	0.725421	0.0618355	0.708781	-0.141141	1.05987	0.539821	0.684304	-0.26506	0.939107	0.163568	0.824059	0.061251	0.373545	-0.053394	0.311445	-0.3362	0.548145	-0.190551	0.365704	-0.435032	
2.16522	0	0	-0.302803	-0.558142	0.119579	-0.0880082	0.146401	0.149855	0.208124	-0.00936825	0.495571	0.151633	0.401777	-0.0713773	0.730751	0.0611473	0.713678	-0.144341	1.0627	0.546578	0.687245	-0.261908	0.944808	0.159842	0.826354	0.0547655	0.369437	-0.0417855	0.309872	-0.322717	0.542503	-0.174605	0.362439	-0.417197	
2.16675	0	0	-0.301795	-0.549947	0.116305	-0.085869	0.152596	0.153609	0.209607	-0.004991	0.493642	0.157085	0.398333	-0.075675	0.736082	0.060459	0.718575	-0.147541	1.06553	0.553335	0.690187	-0.258755	0.95051	0.156117	0.828649	0.04828	0.36533	-0.030177	0.3083	-0.309234	0.536861	-0.15866	0.359175	-0.399363	
2.16522	0	0	-0.293671	-0.539734	0.119579	-0.0880082	0.149399	0.173285	0.21768	0.0236918	0.498959	0.164101	0.40867	-0.0627665	0.738842	0.0670473	0.720038	-0.14103	1.071	0.552629	0.700191	-0.252589	0.95889	0.157236	0.835962	0.050982	0.367156	-0.0242223	0.311705	-0.300764	0.53902	-0.15481	0.357567	-0.394818	
2.16827	0	0	-0.285548	-0.529521	0.122853	-0.0901475	0.146201	0.192962	0.225754	0.0523745	0.504275	0.171117	0.419007	-0.049858	0.741602	0.0736355	0.721502	-0.13452	1.07648	0.551923	0.710195	-0.246424	0.96727	0.158355	0.843275	0.053684	0.368982	-0.0182675	0.31511	-0.292295	0.54118	-0.150961	0.355959	-0.390274	
2.1698	0	0	-0.277425	-0.519309	0.126126	-0.0922868	0.143004	0.212638	0.233827	0.0810572	0.509592	0.178133	0.429345	-0.0369495	0.744362	0.0802237	0.722965	-0.128009	1.08195	0.551217	0.720199	-0.240258	0.975649	0.159473	0.850588	0.056386	0.370809	-0.0123128	0.318514	-0.283825	0.543339	-0.147112	0.35435	-0.385729	
2.17285	0	0	-0.269301	-0.509096	0.1294	-0.094426	0.139807	0.232314	0.241901	0.10974	0.514909	0.185149	0.439682	-0.024041	0.747122	0.086812	0.724428	-0.121498	1.08742	0.550511	0.730203	-0.234092	0.984029	0.160592	0.857901	0.059088	0.372635	-0.006358	0.321919	-0.275355	0.545498	-0.143262	0.352742	-0.381184	
2.17285	0	0	-0.275437	-0.491755	0.122853	-0.0901485	0.137494	0.249496	0.230335	0.142427	0.507169	0.207025	0.440935	0.0146368	0.744544	0.0940962	0.723595	-0.108491	1.09706	0.552832	0.73141	-0.214507	0.987351	0.176037	0.860251	0.0875558	0.371989	0.0065915	0.330433	-0.254109	0.557379	-0.136978	0.351071	-0.367849	
2.16827	0	0	-0.281573	-0.474414	0.116307	-0.085871	0.135182	0.266678	0.218769	0.175115	0.499428	0.2289	0.442188	0.0533145	0.741967	0.10138	0.722762	-0.0954835	1.1067	0.555153	0.732616	-0.194922	0.990673	0.191482	0.862601	0.116024	0.371343	0.019541	0.338946	-0.232863	0.56926	-0.130693	0.349401	-0.354514	
2.1698	0	0	-0.287709	-0.457073	0.10976	-0.0815935	0.132869	0.28386	0.207203	0.207802	0.491688	0.250775	0.443442	0.0919922	0.73939	0.108665	0.721928	-0.0824763	1.11634	0.557474	0.733823	-0.175337	0.993996	0.206927	0.864951	0.144491	0.370697	0.0324905	0.347459	-0.211617	0.581142	-0.124409	0.34773	-0.341179	
2.17438	0	0	-0.293845	-0.439732	0.103214	-0.077316	0.130556	0.301042	0.195637	0.240489	0.483948	0.272651	0.444695	0.13067	0.736812	0.115949	0.721095	-0.069469	1.12598	0.559795	0.735029	-0.155752	0.997318	0.222372	0.867301	0.172959	0.370051	0.04544	0.355973	-0.190371	0.593023	-0.118125	0.346059	-0.327844	
2.17132	0	0	-0.290798	-0.437273	0.0999427	-0.0751785	0.12875	0.306145	0.198766	0.240243	0.482979	0.275389	0.44125	0.126323	0.7289	0.12392	0.721095	-0.069469	1.13696	0.558373	0.737977	-0.152576	0.997318	0.222372	0.863065	0.173222	0.370223	0.0560833	0.346894	-0.164712	0.587355	-0.102106	0.34438	-0.314482	
2.17285	0	0	-0.287751	-0.434815	0.0966715	-0.073041	0.126945	0.311248	0.201895	0.239997	0.48201	0.278127	0.437805	0.121975	0.720989	0.131892	0.721095	-0.069469	1.14794	0.55695	0.740925	-0.149399	0.997318	0.222372	0.858828	0.173486	0.370395	0.0667265	0.337815	-0.139053	0.581687	-0.086087	0.342701	-0.30112	
2.1698	0	0	-0.284703	-0.432357	0.0934003	-0.0709035	0.125139	0.316352	0.205024	0.23975	0.481041	0.280865	0.434359	0.117628	0.713077	0.139864	0.721095	-0.069469	1.15893	0.555527	0.743873	-0.146223	0.997318	0.222372	0.854591	0.173749	0.370567	0.0773697	0.328735	-0.113393	0.576019	-0.070068	0.341022	-0.287758	
2.16827	0	0	-0.281656	-0.429898	0.090129	-0.068766	0.123333	0.321455	0.208153	0.239504	0.480072	0.283603	0.430914	0.11328	0.705165	0.147835	0.721095	-0.069469	1.16991	0.554105	0.746821	-0.143046	0.997318	0.222372	0.850355	0.174012	0.370739	0.088013	0.319656	-0.087734	0.570351	-0.054049	0.339343	-0.274396	
2.1698	0	0	-0.28271	-0.415843	0.090129	-0.068766	0.122812	0.333579	0.213218	0.259618	0.476193	0.294564	0.434359	0.117628	0.709207	0.150801	0.722554	-0.0629337	1.16726	0.561594	0.753898	-0.140009	0.994272	0.23098	0.859985	0.170225	0.373386	0.0916675	0.327184	-0.090857	0.573322	-0.052468	0.336991	-0.276365	
2.16522	0	0	-0.283764	-0.401788	0.090129	-0.068766	0.122292	0.345702	0.218283	0.279732	0.472315	0.305526	0.437805	0.121975	0.713248	0.153767	0.724012	-0.0563985	1.16461	0.569083	0.760974	-0.136972	0.991226	0.239588	0.869614	0.166438	0.376034	0.095322	0.334713	-0.09398	0.576294	-0.050887	0.334639	-0.278335	
2.16827	0	0	-0.284817	-0.387734	0.090129	-0.068766	0.121772	0.357825	0.223348	0.299846	0.468437	0.316487	0.44125	0.126323	0.71729	0.156733	0.725471	-0.0498632	1.16196	0.576572	0.768051	-0.133934	0.98818	0.248196	0.879244	0.16265	0.378682	0.0989765	0.342242	-0.097103	0.579265	-0.049306	0.332287	-0.280305	
2.16827	0	0	-0.285871	-0.373679	0.090129	-0.068766	0.121251	0.369949	0.228413	0.31996	0.464558	0.327448	0.444695	0.13067	0.721331	0.159699	0.72693	-0.043328	1.15931	0.584061	0.775128	-0.130897	0.985134	0.256804	0.888874	0.158863	0.381329	0.102631	0.34977	-0.100226	0.582236	-0.047725	0.329935	-0.282274	
2.16675	0	0	-0.286897	-0.370778	0.0934003	-0.0709035	0.116724	0.382742	0.224061	0.340876	0.463809	0.340597	0.442445	0.165229	0.718749	0.166998	0.728388	-0.0367837	1.16765	0.590138	0.781036	-0.12453	0.989461	0.269442	0.890431	0.177921	0.381495	0.113303	0.354868	-0.087371	0.577367	-0.0339645	0.337802	-0.278645	
2.1637	0	0	-0.287924	-0.367877	0.0966715	-0.073041	0.112198	0.395535	0.219709	0.361793	0.463059	0.353747	0.440195	0.199787	0.716166	0.174297	0.729846	-0.0302395	1.17599	0.596216	0.786945	-0.118162	0.993788	0.282081	0.891988	0.19698	0.381662	0.123976	0.359967	-0.074516	0.572498	-0.020204	0.345669	-0.275016	
2.16064	0	0	-0.28895	-0.364976	0.0999427	-0.0751785	0.107672	0.408327	0.215357	0.382709	0.46231	0.366897	0.437944	0.234345	0.713584	0.181597	0.731304	-0.0236953	1.18434	0.602293	0.792853	-0.111795	0.998115	0.29472	0.893544	0.216038	0.381828	0.134648	0.365065	-0.061661	0.567629	-0.0064435	0.353537	-0.271387	
2.16064	0	0	-0.289977	-0.362075	0.103214	-0.077316	0.103145	0.42112	0.211005	0.403625	0.46156	0.380046	0.435694	0.268904	0.711001	0.188896	0.732762	-0.017151	1.19268	0.60837	0.798761	-0.105427	1.00244	0.307358	0.895101	0.235096	0.381995	0.14532	0.370163	-0.048806	0.56276	0.007317	0.361404	-0.267758	
2.16064	0	0	-0.289946	-0.373239	0.115555	-0.083734	0.103145	0.42112	0.211201	0.394455	0.457455	0.380617	0.438348	0.247297	0.704379	0.193223	0.731611	-0.0138982	1.1942	0.618927	0.801718	-0.102239	0.999387	0.315994	0.896258	0.231828	0.377025	0.159365	0.370204	-0.0398233	0.561665	0.0203953	0.365236	-0.252689	
2.15912	0	0	-0.289915	-0.384404	0.127895	-0.090152	0.103145	0.42112	0.211396	0.385285	0.45335	0.381188	0.441003	0.225691	0.697757	0.197551	0.73046	-0.0106455	1.19572	0.629484	0.804674	-0.099051	0.996331	0.324629	0.897414	0.228559	0.372055	0.173411	0.370244	-0.0308405	0.560571	0.0334735	0.369068	-0.237619	
2.16064	0	0	-0.289884	-0.395568	0.140235	-0.09657	0.103145	0.42112	0.211592	0.376115	0.449244	0.381758	0.443657	0.204085	0.691134	0.201878	0.729309	-0.00739275	1.19724	0.640041	0.807631	-0.095863	0.993275	0.333264	0.898571	0.225291	0.367086	0.187456	0.370285	-0.0218577	0.559476	0.0465518	0.3729	-0.22255	
2.1637	0	0	-0.289853	-0.406732	0.152576	-0.102988	0.103145	0.42112	0.211788	0.366945	0.445139	0.382329	0.446311	0.182478	0.684512	0.206205	0.728158	-0.00414	1.19876	0.650598	0.810588	-0.092675	0.99022	0.3419	0.899727	0.222023	0.362116	0.201502	0.370325	-0.012875	0.558381	0.05963	0.376732	-0.207481	
2.15759	0	0	-0.291875	-0.412089	0.159132	-0.107272	0.104425	0.428162	0.224975	0.372802	0.445354	0.392753	0.441346	0.182416	0.687256	0.212838	0.73568	-0.00405075	1.20578	0.66047	0.813546	-0.089484	1.0013	0.34796	0.899727	0.222023	0.365589	0.202836	0.371984	-0.0175643	0.565137	0.0605205	0.383806	-0.201538	
2.16217	0	0	-0.293897	-0.417446	0.165688	-0.111556	0.105705	0.435204	0.238162	0.378659	0.445569	0.403177	0.436381	0.182354	0.69	0.219471	0.743202	-0.0039615	1.21281	0.670343	0.816504	-0.086293	1.01237	0.354019	0.899727	0.222023	0.369062	0.204169	0.373644	-0.0222535	0.571894	0.061411	0.39088	-0.195595	
2.15912	0	0	-0.295918	-0.422802	0.172245	-0.11584	0.106984	0.442246	0.251348	0.384515	0.445783	0.413602	0.431416	0.182292	0.692744	0.226103	0.750724	-0.00387225	1.21983	0.680215	0.819462	-0.083102	1.02345	0.360079	0.899727	0.222023	0.372536	0.205502	0.375303	-0.0269428	0.57865	0.0623015	0.397953	-0.189651	
2.15759	0	0	-0.29794	-0.428159	0.178801	-0.120124	0.108264	0.449288	0.264535	0.390372	0.445998	0.424026	0.426451	0.18223	0.695488	0.232736	0.758246	-0.003783	1.22686	0.690087	0.82242	-0.079911	1.03453	0.366139	0.899727	0.222023	0.376009	0.206836	0.376962	-0.031632	0.585406	0.063192	0.405027	-0.183708	
2.15607	0	0	-0.312152	-0.432208	0.185362	-0.124411	0.105908	0.466611	0.26457	0.424846	0.453659	0.446564	0.432588	0.221328	0.695641	0.246702	0.761163	0.00934575	1.23256	0.70376	0.830121	-0.0669798	1.04051	0.386677	0.910938	0.237344	0.38047	0.216547	0.387088	-0.0238168	0.58512	0.0740018	0.418463	-0.178375	
2.15607	0	0	-0.326364	-0.436257	0.191924	-0.128699	0.103552	0.483934	0.264604	0.459321	0.46132	0.469102	0.438724	0.260427	0.695794	0.260668	0.76408	0.0224745	1.23826	0.717433	0.837822	-0.0540485	1.04649	0.407215	0.922149	0.252666	0.384932	0.226258	0.397213	-0.0160015	0.584834	0.0848115	0.431899	-0.173042	
2.15454	0	0	-0.340576	-0.440307	0.198486	-0.132987	0.101196	0.501256	0.264638	0.493795	0.468981	0.491639	0.44486	0.299526	0.695948	0.274635	0.766996	0.0356032	1.24395	0.731106	0.845523	-0.0411173	1.05247	0.427752	0.933359	0.267987	0.389394	0.235968	0.407338	-0.00818625	0.584547	0.0956212	0.445335	-0.167708	
2.15301	0	0	-0.354788	-0.444356	0.205047	-0.137274	0.09884	0.518579	0.264673	0.528269	0.476642	0.514177	0.450997	0.338624	0.696101	0.288601	0.769913	0.048732	1.24965	0.744779	0.853224	-0.028186	1.05845	0.44829	0.94457	0.283309	0.393855	0.245679	0.417464	-0.000371	0.584261	0.106431	0.458771	-0.162375	
2.15454	0	0	-0.357799	-0.457915	0.195207	-0.130844	0.0966578	0.514082	0.264041	0.521405	0.477823	0.521902	0.445644	0.325509	0.698843	0.295263	0.767603	0.05526	1.25384	0.747852	0.857967	-0.018426	1.05702	0.464825	0.938765	0.299716	0.393174	0.258773	0.420104	0.0286725	0.583152	0.119569	0.457803	-0.14229	
2.15607	0	0	-0.360811	-0.471473	0.185366	-0.124414	0.0944755	0.509585	0.26341	0.514541	0.479004	0.529628	0.440292	0.312395	0.701585	0.301925	0.765293	0.061788	1.25803	0.750924	0.862711	-0.008666	1.05559	0.48136	0.932959	0.316124	0.392493	0.271867	0.422743	0.057716	0.582044	0.132707	0.456836	-0.122206	
2.14844	0	0	-0.363822	-0.485031	0.175526	-0.117984	0.0922932	0.505088	0.262779	0.507676	0.480186	0.537354	0.434939	0.29928	0.704326	0.308588	0.762984	0.068316	1.26221	0.753996	0.867455	0.001094	1.05416	0.497896	0.927153	0.332531	0.391812	0.284961	0.425382	0.0867595	0.580936	0.145846	0.455869	-0.102122	
2.14691	0	0	-0.366833	-0.49859	0.165686	-0.111554	0.090111	0.500591	0.262147	0.500812	0.481367	0.545079	0.429586	0.286165	0.707068	0.31525	0.760674	0.074844	1.2664	0.757069	0.872198	0.010854	1.05273	0.514431	0.921348	0.348939	0.391131	0.298055	0.428022	0.115803	0.579827	0.158984	0.454901	-0.082037	
2.14996	0	0	-0.366833	-0.49859	0.156614	-0.107272	0.0941107	0.499951	0.272218	0.506972	0.489806	0.554461	0.429586	0.286165	0.716453	0.317582	0.765897	0.08148	1.27746	0.755654	0.875757	0.0239922	1.0554	0.519382	0.915934	0.352476	0.390298	0.300408	0.434764	0.115026	0.577672	0.155069	0.450988	-0.0883292	
2.14996	0	0	-0.366833	-0.49859	0.147543	-0.10299	0.0981105	0.499311	0.282288	0.513131	0.498244	0.563842	0.429586	0.286165	0.725838	0.319914	0.771119	0.088116	1.28853	0.754239	0.879315	0.0371305	1.05808	0.524332	0.91052	0.356014	0.389466	0.302761	0.441507	0.114249	0.575516	0.151154	0.447075	-0.0946215	
2.15454	0	0	-0.366833	-0.49859	0.138471	-0.098708	0.10211	0.498671	0.292359	0.51929	0.506683	0.573223	0.429586	0.286165	0.735222	0.322246	0.776342	0.094752	1.29959	0.752825	0.882873	0.0502688	1.06075	0.529283	0.905107	0.359552	0.388634	0.305114	0.44825	0.113472	0.573361	0.14724	0.443163	-0.100914	
2.15149	0	0	-0.366833	-0.49859	0.1294	-0.094426	0.10611	0.498031	0.302429	0.52545	0.515121	0.582605	0.429586	0.286165	0.744607	0.324578	0.781565	0.101388	1.31065	0.75141	0.886432	0.063407	1.06342	0.534234	0.899693	0.363089	0.387801	0.307467	0.454992	0.112695	0.571206	0.143325	0.43925	-0.107206	
2.15301	0	0	-0.361779	-0.490806	0.1294	-0.094426	0.103744	0.515387	0.30726	0.555161	0.513545	0.609245	0.437222	0.321113	0.744752	0.338614	0.784474	0.114588	1.31351	0.758271	0.895337	0.0730868	1.06877	0.544153	0.901212	0.382327	0.389613	0.313524	0.461774	0.12098	0.561187	0.151646	0.441613	-0.105212	
2.15454	0	0	-0.356724	-0.483023	0.1294	-0.094426	0.101378	0.532744	0.312092	0.584872	0.511969	0.635886	0.444858	0.35606	0.744896	0.352649	0.787383	0.127788	1.31637	0.765132	0.904242	0.0827665	1.07412	0.554073	0.902732	0.401564	0.391424	0.31958	0.468556	0.129265	0.551168	0.159967	0.443976	-0.103218	
2.15607	0	0	-0.35167	-0.475239	0.1294	-0.094426	0.0990127	0.5501	0.316924	0.614583	0.510393	0.662527	0.452493	0.391007	0.74504	0.366684	0.790292	0.140988	1.31923	0.771994	0.913147	0.0924462	1.07947	0.563993	0.904251	0.420802	0.393235	0.325637	0.475337	0.137549	0.541148	0.168287	0.44634	-0.101224	
2.16522	0	0	-0.346615	-0.467455	0.1294	-0.094426	0.096647	0.567457	0.321755	0.644294	0.508817	0.689167	0.460129	0.425955	0.745185	0.38072	0.793201	0.154188	1.32209	0.778855	0.922052	0.102126	1.08481	0.573912	0.905771	0.44004	0.395047	0.331694	0.482119	0.145834	0.531129	0.176608	0.448703	-0.09923	
2.1637	0	0	-0.343553	-0.47611	0.126126	-0.0922868	0.0935567	0.56552	0.323651	0.630255	0.511958	0.691392	0.459756	0.41286	0.74258	0.388082	0.790881	0.160745	1.32915	0.788813	0.921448	0.115462	1.07286	0.59516	0.898769	0.459827	0.387536	0.352921	0.477134	0.178246	0.534611	0.186763	0.447721	-0.0790957	
2.16827	0	0	-0.34049	-0.484765	0.122853	-0.0901475	0.0904665	0.563584	0.325547	0.616215	0.5151	0.693617	0.459384	0.399766	0.739975	0.395445	0.78856	0.167302	1.33622	0.798772	0.920845	0.128799	1.06092	0.616408	0.891768	0.479614	0.380026	0.374147	0.472149	0.210657	0.538093	0.196917	0.446739	-0.0589615	
2.1759	0	0	-0.337427	-0.49342	0.119579	-0.0880082	0.0873763	0.561647	0.327443	0.602175	0.518242	0.695842	0.459011	0.386672	0.73737	0.402807	0.78624	0.173859	1.34328	0.808731	0.920241	0.142135	1.04897	0.637656	0.884767	0.499401	0.372515	0.395374	0.467164	0.243068	0.541575	0.207072	0.445756	-0.0388273	
2.17743	0	0	-0.334365	-0.502075	0.116305	-0.085869	0.084286	0.55971	0.329339	0.588136	0.521383	0.698067	0.458638	0.373577	0.734765	0.41017	0.78392	0.180416	1.35034	0.818689	0.919637	0.155472	1.03702	0.658904	0.877765	0.519188	0.365004	0.416601	0.462179	0.27548	0.545057	0.217227	0.444774	-0.018693	
2.18201	0	0	-0.331323	-0.499627	0.115547	-0.0837288	0.0913795	0.56101	0.337124	0.59219	0.521569	0.708652	0.45557	0.382247	0.738811	0.413191	0.781598	0.186978	1.35186	0.829379	0.917251	0.162215	1.03865	0.666812	0.875428	0.525794	0.369316	0.4156	0.463859	0.270731	0.540454	0.220234	0.447223	-0.025615	
2.18811	0	0	-0.328282	-0.497179	0.11479	-0.0815885	0.098473	0.56231	0.344909	0.596244	0.521755	0.719237	0.452502	0.390918	0.742857	0.416212	0.779276	0.19354	1.35338	0.840069	0.914865	0.168957	1.04028	0.674721	0.87309	0.532399	0.373627	0.414598	0.46554	0.265981	0.535851	0.223242	0.449673	-0.032537	
2.19116	0	0	-0.325241	-0.494732	0.114033	-0.0794482	0.105566	0.56361	0.352695	0.600298	0.52194	0.729821	0.449434	0.399589	0.746902	0.419233	0.776955	0.200101	1.35489	0.850759	0.91248	0.1757	1.04191	0.682629	0.870753	0.539004	0.377938	0.413596	0.467221	0.261232	0.531249	0.226249	0.452122	-0.039459	
2.19421	0	0	-0.322199	-0.492284	0.113275	-0.077308	0.11266	0.56491	0.36048	0.604352	0.522126	0.740406	0.446366	0.408259	0.750948	0.422254	0.774633	0.206663	1.35641	0.861449	0.910094	0.182443	1.04355	0.690537	0.868416	0.54561	0.38225	0.412595	0.468901	0.256483	0.526646	0.229257	0.454572	-0.046381	
2.19879	0	0	-0.329325	-0.48319	0.123857	-0.0858683	0.110281	0.582316	0.36215	0.634432	0.520331	0.756595	0.460503	0.439153	0.754997	0.425278	0.777243	0.210006	1.35658	0.87597	0.905317	0.195943	1.04311	0.704309	0.875321	0.561449	0.383219	0.421048	0.47314	0.262845	0.523372	0.238509	0.457753	-0.0466862	
2.20184	0	0	-0.33645	-0.474096	0.13444	-0.0944285	0.107902	0.599722	0.363819	0.664511	0.518536	0.772784	0.47464	0.470047	0.759046	0.428302	0.779853	0.213348	1.35674	0.890492	0.90054	0.209444	1.04267	0.71808	0.882227	0.577287	0.384187	0.4295	0.477379	0.269206	0.520099	0.247761	0.460934	-0.0469915	
2.19879	0	0	-0.343575	-0.465002	0.145022	-0.102989	0.105523	0.617129	0.365488	0.694591	0.516741	0.788974	0.488777	0.500941	0.763094	0.431326	0.782464	0.216691	1.35691	0.905014	0.895763	0.222944	1.04223	0.731851	0.889132	0.593125	0.385155	0.437952	0.481618	0.275567	0.516825	0.257013	0.464115	-0.0472967	
2.19574	0	0	-0.350701	-0.455908	0.155605	-0.111549	0.103144	0.634535	0.367158	0.724671	0.514946	0.805163	0.502914	0.531835	0.767143	0.43435	0.785074	0.220034	1.35708	0.919535	0.890986	0.236445	1.04179	0.745623	0.896037	0.608964	0.386124	0.446405	0.485857	0.281929	0.513551	0.266265	0.467296	-0.047602	
2.20184	0	0	-0.353738	-0.458361	0.162161	-0.115833	0.104969	0.629376	0.36675	0.708418	0.516922	0.799578	0.499105	0.514229	0.759179	0.44239	0.778694	0.216632	1.35993	0.92646	0.886828	0.236565	1.03395	0.755246	0.888264	0.61914	0.375949	0.463972	0.483345	0.298206	0.514876	0.272519	0.466394	-0.0363622	
2.20489	0	0	-0.356776	-0.460815	0.168718	-0.120117	0.106795	0.624216	0.366341	0.692165	0.518898	0.793993	0.495295	0.496623	0.751216	0.450431	0.772314	0.21323	1.36279	0.933385	0.88267	0.236686	1.02611	0.764868	0.880491	0.629317	0.365773	0.481539	0.480833	0.314482	0.516202	0.278774	0.465491	-0.0251225	
2.19879	0	0	-0.359813	-0.463268	0.175274	-0.124402	0.108621	0.619057	0.365932	0.675912	0.520875	0.788408	0.491486	0.479017	0.743252	0.458471	0.765934	0.209827	1.36565	0.940311	0.878512	0.236807	1.01828	0.77449	0.872717	0.639493	0.355598	0.499106	0.478321	0.330759	0.517528	0.285028	0.464588	-0.0138827	
2.20032	0	0	-0.36285	-0.465721	0.181831	-0.128686	0.110446	0.613898	0.365524	0.659659	0.522851	0.782823	0.487677	0.461411	0.735288	0.466511	0.759554	0.206425	1.36851	0.947236	0.874354	0.236927	1.01044	0.784113	0.864944	0.64967	0.345423	0.516673	0.475809	0.347036	0.518853	0.291282	0.463686	-0.002643	
2.20489	0	0	-0.356749	-0.471925	0.190917	-0.132978	0.111358	0.61132	0.368897	0.650126	0.521683	0.775007	0.488842	0.443949	0.731245	0.463481	0.758107	0.199808	1.36716	0.951052	0.867241	0.233792	1.00099	0.785787	0.866553	0.633339	0.348774	0.507203	0.472401	0.329147	0.52213	0.28202	0.462224	-0.0158838	
2.20642	0	0	-0.350649	-0.47813	0.200004	-0.137269	0.112271	0.608741	0.372271	0.640592	0.520516	0.76719	0.490008	0.426486	0.727203	0.46045	0.756659	0.193191	1.36581	0.954867	0.860127	0.230658	0.991536	0.787462	0.868162	0.617007	0.352125	0.497732	0.468994	0.311258	0.525408	0.272759	0.460761	-0.0291245	
2.20032	0	0	-0.344548	-0.484335	0.209091	-0.141561	0.113184	0.606163	0.375644	0.631058	0.519348	0.759374	0.491173	0.409023	0.723161	0.457419	0.755211	0.186574	1.36446	0.958683	0.853014	0.227523	0.982085	0.789137	0.86977	0.600676	0.355476	0.488262	0.465587	0.293369	0.528685	0.263497	0.459298	-0.0423653	
2.20337	0	0	-0.338447	-0.490539	0.218177	-0.145853	0.114096	0.603584	0.379017	0.621525	0.518181	0.751557	0.492338	0.391561	0.719118	0.454389	0.753764	0.179957	1.36311	0.962499	0.845901	0.224388	0.972634	0.790811	0.871379	0.584345	0.358827	0.478791	0.462179	0.27548	0.531962	0.254235	0.457836	-0.055606	
2.20642	0	0	-0.342506	-0.490104	0.224746	-0.150145	0.111358	0.611322	0.373956	0.635829	0.518181	0.751557	0.491173	0.409023	0.720422	0.450703	0.747393	0.176565	1.36041	0.970135	0.839989	0.217888	0.977357	0.789975	0.875632	0.58411	0.355354	0.477423	0.463839	0.261625	0.531962	0.254235	0.465832	-0.0608313	
2.20642	0	0	-0.346566	-0.489669	0.231315	-0.154438	0.10862	0.619059	0.368895	0.650133	0.518181	0.751557	0.490008	0.426486	0.721727	0.447016	0.741022	0.173174	1.3577	0.977772	0.834076	0.211388	0.982081	0.789138	0.879885	0.583876	0.351881	0.476055	0.465499	0.247771	0.531962	0.254235	0.473829	-0.0660565	
2.20947	0	0	-0.350625	-0.489233	0.237884	-0.15873	0.105882	0.626797	0.363833	0.664438	0.518181	0.751557	0.488842	0.443949	0.723032	0.443329	0.734652	0.169782	1.355	0.985408	0.828163	0.204887	0.986804	0.788301	0.884138	0.583642	0.348408	0.474686	0.467158	0.233916	0.531962	0.254235	0.481826	-0.0712818	
2.20337	0	0	-0.354685	-0.488798	0.244453	-0.163022	0.103144	0.634535	0.358772	0.678742	0.518181	0.751557	0.487677	0.461411	0.724336	0.439643	0.728281	0.16639	1.3523	0.993044	0.822251	0.198387	0.991528	0.787465	0.888391	0.583407	0.344935	0.473318	0.468818	0.220061	0.531962	0.254235	0.489822	-0.076507	
2.20337	0	0	-0.35972	-0.507641	0.241925	-0.163016	0.106434	0.614555	0.357091	0.648728	0.514856	0.738741	0.480417	0.439453	0.7229	0.429256	0.722784	0.149877	1.35365	0.989225	0.811015	0.195381	0.986804	0.788301	0.879888	0.583875	0.349245	0.47232	0.463763	0.225187	0.535748	0.253541	0.492191	-0.0745085	
2.20947	0	0	-0.364755	-0.526485	0.239397	-0.16301	0.109724	0.594575	0.355409	0.618714	0.51153	0.725926	0.473158	0.417494	0.721464	0.418869	0.717287	0.133364	1.355	0.985406	0.799779	0.192375	0.982081	0.789138	0.871386	0.584344	0.353556	0.471322	0.458709	0.230312	0.539535	0.252846	0.49456	-0.07251	
2.20337	0	0	-0.36979	-0.545328	0.23687	-0.163003	0.113013	0.574594	0.353728	0.5887	0.508205	0.71311	0.465898	0.395535	0.720029	0.408482	0.71179	0.116852	1.35635	0.981587	0.788544	0.189369	0.977357	0.789975	0.862883	0.584812	0.357866	0.470325	0.453655	0.235437	0.543321	0.252151	0.496929	-0.0705115	
2.20184	0	0	-0.374825	-0.564172	0.234342	-0.162997	0.116303	0.554614	0.352047	0.558686	0.50488	0.700294	0.458638	0.373577	0.718593	0.398095	0.706293	0.100339	1.3577	0.977768	0.777308	0.186363	0.972634	0.790811	0.85438	0.58528	0.362176	0.469327	0.4486	0.240563	0.547107	0.251457	0.499298	-0.068513	
2.20184	0	0	-0.378862	-0.57478	0.231058	-0.160852	0.111028	0.548175	0.354768	0.542316	0.506656	0.684177	0.456344	0.351797	0.710516	0.392066	0.702243	0.0904495	1.3535	0.974647	0.767282	0.180001	0.971017	0.782875	0.852898	0.565935	0.362047	0.458507	0.446855	0.218044	0.545262	0.236664	0.498708	-0.0929138	
2.19726	0	0	-0.382898	-0.585388	0.227774	-0.158706	0.105753	0.541736	0.357488	0.525945	0.508433	0.668061	0.454051	0.330016	0.70244	0.386037	0.698193	0.08056	1.3493	0.971526	0.757257	0.173639	0.969401	0.774938	0.851417	0.54659	0.361919	0.447688	0.44511	0.195525	0.543417	0.221872	0.498118	-0.117315	
2.19421	0	0	-0.386935	-0.595997	0.224491	-0.15656	0.100478	0.535296	0.360208	0.509575	0.510209	0.651944	0.451757	0.308235	0.694364	0.380009	0.694143	0.0706705	1.34509	0.968405	0.747232	0.167276	0.967785	0.767002	0.849935	0.527245	0.36179	0.436868	0.443365	0.173006	0.541573	0.207079	0.497528	-0.141715	
2.19269	0	0	-0.390971	-0.606605	0.221207	-0.154415	0.095203	0.528857	0.362929	0.493205	0.511985	0.635828	0.449463	0.286455	0.686287	0.37398	0.690093	0.060781	1.34089	0.965284	0.737206	0.160914	0.966168	0.759066	0.848453	0.5079	0.361661	0.426048	0.44162	0.150487	0.539728	0.192287	0.496938	-0.166116	
2.19116	0	0	-0.395018	-0.606166	0.224491	-0.15656	0.0992047	0.528218	0.361049	0.5072	0.513949	0.630277	0.457884	0.29092	0.688886	0.366636	0.688644	0.0542173	1.34224	0.96147	0.735451	0.154325	0.966168	0.759066	0.851952	0.498012	0.365002	0.416605	0.447468	0.13396	0.546781	0.182354	0.495449	-0.179266	
2.18811	0	0	-0.399065	-0.605727	0.227774	-0.158706	0.103207	0.52758	0.359169	0.521196	0.515913	0.624727	0.466305	0.295384	0.691485	0.359291	0.687195	0.0476535	1.34359	0.957655	0.733695	0.147736	0.966168	0.759066	0.855451	0.488124	0.368344	0.407162	0.453315	0.117432	0.553834	0.172421	0.493961	-0.192417	
2.18353	0	0	-0.403112	-0.605287	0.231058	-0.160852	0.107208	0.526941	0.357288	0.535192	0.517877	0.619177	0.474725	0.299849	0.694083	0.351947	0.685746	0.0410898	1.34494	0.953841	0.73194	0.141148	0.966168	0.759066	0.85895	0.478236	0.371685	0.397719	0.459163	0.100905	0.560887	0.162487	0.492472	-0.205568	
2.17895	0	0	-0.407159	-0.604848	0.234342	-0.162997	0.11121	0.526302	0.355408	0.549187	0.519841	0.613626	0.483146	0.304314	0.696682	0.344603	0.684297	0.034526	1.34629	0.950027	0.730184	0.134559	0.966168	0.759066	0.862449	0.468348	0.375026	0.388276	0.465011	0.084378	0.56794	0.152554	0.490983	-0.218718	
2.17743	0	0	-0.411191	-0.61543	0.230301	-0.158711	0.112659	0.511535	0.3497	0.521953	0.51552	0.603664	0.466317	0.29539	0.700576	0.333598	0.67535	0.0278733	1.34208	0.946912	0.721933	0.134798	0.966168	0.759066	0.855873	0.475178	0.374191	0.390636	0.461671	0.0938182	0.570095	0.156471	0.49254	-0.214443	
2.17438	0	0	-0.415223	-0.626011	0.22626	-0.154425	0.114109	0.496767	0.343992	0.494718	0.5112	0.593702	0.449489	0.286466	0.70447	0.322593	0.666403	0.0212205	1.33788	0.943797	0.713682	0.135037	0.966168	0.759066	0.849297	0.482008	0.373356	0.392995	0.45833	0.103259	0.57225	0.160387	0.494098	-0.210168	
2.1698	0	0	-0.419256	-0.636593	0.222218	-0.150139	0.115559	0.482	0.338284	0.467484	0.506879	0.58374	0.432661	0.277543	0.708364	0.311588	0.657456	0.0145677	1.33368	0.940682	0.70543	0.135276	0.966168	0.759066	0.84272	0.488838	0.372521	0.395355	0.45499	0.112699	0.574404	0.164303	0.495656	-0.205893	
2.16827	0	0	-0.423288	-0.647174	0.218177	-0.145853	0.117008	0.467232	0.332576	0.44025	0.502558	0.573778	0.415832	0.268619	0.712258	0.300583	0.648509	0.007915	1.32948	0.937567	0.697179	0.135515	0.966168	0.759066	0.836144	0.495668	0.371686	0.397715	0.45165	0.122139	0.576559	0.16822	0.497213	-0.201618	
2.16522	0	0	-0.418232	-0.650478	0.212371	-0.143705	0.120637	0.456976	0.323326	0.431771	0.498238	0.563839	0.412005	0.251257	0.714851	0.293254	0.647061	0.00137225	1.33217	0.929951	0.695426	0.128939	0.967647	0.742391	0.834649	0.476407	0.373216	0.382215	0.447379	0.1068	0.569281	0.158786	0.489425	-0.222953	
2.16217	0	0	-0.413176	-0.653782	0.206564	-0.141556	0.124266	0.446719	0.314076	0.423291	0.493918	0.553899	0.408177	0.233895	0.717445	0.285925	0.645614	-0.0051705	1.33487	0.922334	0.693674	0.122362	0.969125	0.725716	0.833153	0.457146	0.374746	0.366716	0.443107	0.0914615	0.562004	0.149352	0.481637	-0.244287	
2.15759	0	0	-0.40812	-0.657085	0.200758	-0.139407	0.127895	0.436463	0.304827	0.414812	0.489599	0.54396	0.40435	0.216534	0.720038	0.278595	0.644166	-0.0117132	1.33756	0.914718	0.691922	0.115785	0.970603	0.709042	0.831657	0.437885	0.376275	0.351216	0.438835	0.0761227	0.554727	0.139919	0.473848	-0.265622	
2.15454	0	0	-0.403064	-0.660389	0.194951	-0.137259	0.131524	0.426207	0.295577	0.406333	0.485279	0.534021	0.400523	0.199172	0.722631	0.271266	0.642718	-0.018256	1.34026	0.907101	0.690169	0.109209	0.972082	0.692367	0.830162	0.418624	0.377805	0.335717	0.434564	0.060784	0.547449	0.130485	0.46606	-0.286957	
2.15454	0	0	-0.399026	-0.649811	0.185115	-0.130831	0.133714	0.430689	0.296019	0.422384	0.494494	0.530125	0.413892	0.203672	0.727972	0.270593	0.640421	-0.0117633	1.34295	0.899491	0.688985	0.112556	0.976206	0.680712	0.827086	0.415583	0.375996	0.329661	0.438728	0.0490162	0.550709	0.121271	0.452623	-0.292229	
2.15301	0	0	-0.394987	-0.639234	0.175278	-0.124404	0.135904	0.435171	0.296462	0.438436	0.503709	0.526229	0.427262	0.208171	0.733313	0.269919	0.638124	-0.0052705	1.34564	0.891881	0.687801	0.115902	0.98033	0.669057	0.824011	0.412543	0.374186	0.323604	0.442891	0.0372485	0.55397	0.112057	0.439187	-0.2975	
2.15301	0	0	-0.390949	-0.628657	0.165441	-0.117976	0.138094	0.439653	0.296904	0.454487	0.512924	0.522333	0.440631	0.21267	0.738655	0.269246	0.635826	0.00122225	1.34834	0.88427	0.686616	0.119248	0.984454	0.657402	0.820936	0.409502	0.372377	0.317548	0.447055	0.0254807	0.55723	0.102843	0.425751	-0.302772	
2.14844	0	0	-0.386911	-0.618079	0.155605	-0.111549	0.140284	0.444135	0.297347	0.470539	0.522139	0.518437	0.454	0.21717	0.743996	0.268573	0.633529	0.007715	1.35103	0.87666	0.685432	0.122595	0.988578	0.645747	0.81786	0.406462	0.370568	0.311492	0.451219	0.013713	0.56049	0.093629	0.412314	-0.308043	
2.14386	0	0	-0.38893	-0.623371	0.148296	-0.105128	0.139907	0.434529	0.292285	0.450256	0.518019	0.519004	0.436063	0.225579	0.743996	0.268573	0.63238	0.010963	1.34968	0.880464	0.681877	0.132643	0.992268	0.647814	0.81321	0.419605	0.368903	0.316198	0.452128	0.029412	0.563461	0.095229	0.411506	-0.30576	
2.14538	0	0	-0.39095	-0.628663	0.140987	-0.098707	0.13953	0.424924	0.287224	0.429972	0.513899	0.51957	0.418127	0.233988	0.743996	0.268573	0.631231	0.014211	1.34834	0.884269	0.678322	0.14269	0.995958	0.649882	0.808559	0.432748	0.367237	0.320905	0.453038	0.045111	0.566431	0.096829	0.410699	-0.303478	
2.14386	0	0	-0.392969	-0.633954	0.133679	-0.092286	0.139153	0.415318	0.282162	0.409689	0.50978	0.520137	0.40019	0.242397	0.743996	0.268573	0.630081	0.017459	1.34699	0.888073	0.674766	0.152738	0.999649	0.651949	0.803909	0.44589	0.365571	0.325611	0.453948	0.06081	0.569402	0.098429	0.409892	-0.301196	
2.14081	0	0	-0.394988	-0.639246	0.12637	-0.085865	0.138776	0.405712	0.277101	0.389406	0.50566	0.520704	0.382253	0.250806	0.743996	0.268573	0.628932	0.020707	1.34564	0.891877	0.671211	0.162786	1.00334	0.654017	0.799258	0.459033	0.363906	0.330318	0.454857	0.076509	0.572372	0.100029	0.409084	-0.298913	
2.13776	0	0	-0.393974	-0.642111	0.120581	-0.0837277	0.141493	0.398032	0.277292	0.380229	0.510758	0.517373	0.376912	0.237763	0.749342	0.267898	0.630376	0.0272602	1.34699	0.888073	0.674145	0.166023	0.999649	0.651949	0.797762	0.439817	0.36293	0.321914	0.448914	0.0659075	0.561313	0.0913355	0.402067	-0.313607	
2.13928	0	0	-0.39296	-0.644975	0.114792	-0.0815905	0.144211	0.390352	0.277483	0.371053	0.515856	0.514042	0.371572	0.224721	0.754687	0.267223	0.631819	0.0338135	1.34834	0.884269	0.67708	0.16926	0.995958	0.649882	0.796266	0.420601	0.361954	0.313509	0.442971	0.055306	0.550254	0.082642	0.39505	-0.3283	
2.13623	0	0	-0.391947	-0.64784	0.109003	-0.0794533	0.146929	0.382672	0.277674	0.361876	0.520954	0.51071	0.366232	0.211678	0.760033	0.266547	0.633263	0.0403668	1.34968	0.880464	0.680014	0.172498	0.992268	0.647814	0.794771	0.401384	0.360978	0.305105	0.437028	0.0447045	0.539195	0.0739485	0.388034	-0.342994	
2.13318	0	0	-0.390933	-0.650705	0.103214	-0.077316	0.149646	0.374992	0.277865	0.3527	0.526052	0.507379	0.360891	0.198636	0.765379	0.265872	0.634707	0.04692	1.35103	0.87666	0.682948	0.175735	0.988578	0.645747	0.793275	0.382168	0.360002	0.2967	0.431085	0.034103	0.528136	0.065255	0.381017	-0.357688	
2.13318	0	0	-0.388913	-0.645416	0.0999427	-0.0751785	0.152746	0.376902	0.282293	0.366108	0.532343	0.511774	0.3628	0.207303	0.768133	0.272533	0.639898	0.0535368	1.35524	0.879762	0.683507	0.18569	0.993299	0.644901	0.795594	0.375613	0.366803	0.288643	0.433582	0.027048	0.523021	0.0597687	0.380269	-0.364197	
2.13165	0	0	-0.386893	-0.640127	0.0966715	-0.073041	0.155845	0.378812	0.286721	0.379517	0.538633	0.516169	0.364709	0.21597	0.770887	0.279195	0.645088	0.0601535	1.35944	0.882864	0.684067	0.195645	0.99802	0.644056	0.797913	0.369059	0.373604	0.280585	0.436078	0.019993	0.517906	0.0542825	0.379522	-0.370705	
2.13318	0	0	-0.384873	-0.634837	0.0934003	-0.0709035	0.158945	0.380723	0.291149	0.392925	0.544924	0.520563	0.366618	0.224637	0.773641	0.285856	0.650279	0.0667703	1.36365	0.885966	0.684627	0.2056	1.00274	0.64321	0.800233	0.362505	0.380405	0.272527	0.438574	0.012938	0.512791	0.0487962	0.378775	-0.377213	
2.13165	0	0	-0.382853	-0.629548	0.090129	-0.068766	0.162045	0.382633	0.295577	0.406333	0.551215	0.524958	0.368527	0.233304	0.776395	0.292517	0.65547	0.073387	1.36786	0.889068	0.685186	0.215555	1.00746	0.642364	0.802552	0.35595	0.387206	0.26447	0.441071	0.005883	0.507676	0.04331	0.378027	-0.383722	
2.12707	0	0	-0.393964	-0.664038	0.0861018	-0.064489	0.162565	0.370493	0.291982	0.390572	0.588127	0.554236	0.336612	0.211298	0.814302	0.315889	0.66008	0.103003	1.36213	0.875269	0.716358	0.254833	1.00806	0.653179	0.792935	0.359716	0.397796	0.27926	0.445314	0.012153	0.513604	0.0464983	0.374866	-0.383405	
2.12555	0	0	-0.405076	-0.698529	0.0820745	-0.060212	0.163085	0.358353	0.288386	0.37481	0.625039	0.583514	0.304696	0.189293	0.852209	0.339261	0.664691	0.132619	1.35641	0.861471	0.74753	0.294111	1.00866	0.663995	0.783318	0.363482	0.408386	0.29405	0.449557	0.018423	0.519532	0.0496865	0.371704	-0.383087	
2.1286	0	0	-0.416187	-0.73302	0.0780472	-0.055935	0.163605	0.346213	0.28479	0.359049	0.661952	0.612792	0.272781	0.167287	0.890116	0.362633	0.669301	0.162234	1.35069	0.847673	0.778702	0.333389	1.00926	0.67481	0.773701	0.367248	0.418976	0.308841	0.453799	0.024693	0.525461	0.0528747	0.368543	-0.382769	
2.12707	0	0	-0.427298	-0.76751	0.07402	-0.051658	0.164125	0.334073	0.281195	0.343288	0.698864	0.64207	0.240866	0.145281	0.928023	0.386005	0.673912	0.19185	1.34497	0.833874	0.809874	0.372667	1.00985	0.685625	0.764084	0.371014	0.429566	0.323631	0.458042	0.030963	0.531389	0.056063	0.365382	-0.382452	
2.12402	0	0	-0.447501	-0.819719	0.0747773	-0.0537983	0.162832	0.327062	0.28933	0.328935	0.752791	0.669299	0.221942	0.115053	0.975743	0.411896	0.707764	0.235456	1.33371	0.820826	0.845386	0.41226	1.02611	0.677246	0.746865	0.349613	0.453017	0.324635	0.461372	0.0215525	0.534107	0.0384085	0.351318	-0.402913	
2.12707	0	0	-0.467704	-0.871927	0.0755345	-0.0559385	0.16154	0.320052	0.297465	0.314582	0.806717	0.696527	0.203018	0.084824	1.02346	0.437787	0.741616	0.279062	1.32245	0.807778	0.880898	0.451852	1.04237	0.668867	0.729645	0.328212	0.476469	0.325639	0.464701	0.012142	0.536825	0.020754	0.337254	-0.423373	
2.1225	0	0	-0.487907	-0.924135	0.0762918	-0.0580787	0.160247	0.313041	0.305599	0.30023	0.860644	0.723756	0.184094	0.0545955	1.07118	0.463679	0.775469	0.322669	1.3112	0.794731	0.91641	0.491445	1.05862	0.660488	0.712426	0.306811	0.49992	0.326643	0.468031	0.0027315	0.539542	0.0030995	0.32319	-0.443833	
2.12707	0	0	-0.50811	-0.976344	0.077049	-0.060219	0.158954	0.30603	0.313734	0.285877	0.91457	0.750985	0.16517	0.024367	1.1189	0.48957	0.809321	0.366275	1.29994	0.781683	0.951922	0.531038	1.07488	0.652109	0.695207	0.28541	0.523372	0.327647	0.471361	-0.006679	0.54226	-0.014555	0.309126	-0.464294	
2.11944	0	0	-0.529199	-0.992876	0.086863	-0.0666315	0.161151	0.310485	0.317993	0.308429	0.930807	0.77291	0.167453	0.045778	1.12863	0.50618	0.839292	0.400241	1.30414	0.784764	0.968545	0.554433	1.07118	0.650042	0.69215	0.282398	0.533877	0.33169	0.471361	-0.006679	0.537949	-0.022304	0.305227	-0.470443	
2.1225	0	0	-0.550289	-1.00941	0.096677	-0.073044	0.163348	0.314941	0.322252	0.330981	0.947043	0.794835	0.169735	0.067189	1.13835	0.522791	0.869264	0.434206	1.30833	0.787845	0.985169	0.577827	1.06747	0.647976	0.689092	0.279386	0.544382	0.335732	0.471361	-0.006679	0.533639	-0.030053	0.301329	-0.476592	
2.12097	0	0	-0.571379	-1.02594	0.106491	-0.0794565	0.165545	0.319396	0.32651	0.353534	0.96328	0.81676	0.172018	0.0886	1.14807	0.539401	0.899235	0.468172	1.31253	0.790926	1.00179	0.601222	1.06377	0.645909	0.686035	0.276373	0.554888	0.339774	0.471361	-0.006679	0.529328	-0.037802	0.297431	-0.482742	
2.12097	0	0	-0.592468	-1.04247	0.116305	-0.085869	0.167742	0.323851	0.330769	0.376086	0.979517	0.838685	0.1743	0.110011	1.15779	0.556011	0.929207	0.502138	1.31673	0.794007	1.01842	0.624617	1.06007	0.643842	0.682978	0.273361	0.565393	0.343817	0.471361	-0.006679	0.525018	-0.045551	0.293532	-0.488891	
2.12097	0	0	-0.595532	-1.06635	0.122854	-0.0901482	0.171356	0.313636	0.334105	0.366658	0.978516	0.841513	0.165237	0.135624	1.14558	0.561114	0.937086	0.512366	1.31556	0.812272	1.01355	0.638372	1.05534	0.644691	0.677952	0.299218	0.570731	0.351253	0.468903	0.009404	0.520435	-0.0425563	0.305339	-0.487909	
2.11792	0	0	-0.598596	-1.09022	0.129403	-0.0944275	0.174971	0.30342	0.33744	0.35723	0.977515	0.844342	0.156174	0.161238	1.13337	0.566217	0.944965	0.522595	1.31438	0.830538	1.00868	0.652127	1.05061	0.645541	0.672926	0.325075	0.576069	0.358689	0.466445	0.025487	0.515852	-0.0395615	0.317145	-0.486928	
2.11944	0	0	-0.601661	-1.1141	0.135951	-0.0987067	0.178586	0.293205	0.340776	0.347802	0.976514	0.84717	0.147111	0.186852	1.12116	0.57132	0.952844	0.532824	1.31321	0.848804	1.00381	0.665883	1.04588	0.646391	0.6679	0.350931	0.581406	0.366125	0.463987	0.04157	0.511269	-0.0365667	0.328952	-0.485946	
2.11792	0	0	-0.604725	-1.13797	0.1425	-0.102986	0.1822	0.28299	0.344112	0.338374	0.975513	0.849998	0.138048	0.212465	1.10895	0.576423	0.960723	0.543052	1.31204	0.867069	0.998946	0.679638	1.04115	0.64724	0.662874	0.376788	0.586744	0.373561	0.461529	0.057653	0.506686	-0.033572	0.340758	-0.484964	
2.11792	0	0	-0.597718	-1.13609	0.145776	-0.105127	0.184006	0.277887	0.349763	0.33106	0.968098	0.848322	0.144467	0.208271	1.11028	0.572686	0.959542	0.54639	1.3191	0.877077	0.991787	0.676383	1.03315	0.63232	0.663287	0.363969	0.584913	0.367473	0.464863	0.0482325	0.503191	-0.0435943	0.335252	-0.486585	
2.11487	0	0	-0.590712	-1.13421	0.149052	-0.107267	0.185812	0.272784	0.355414	0.323746	0.960684	0.846645	0.150886	0.204076	1.1116	0.568949	0.958361	0.549728	1.32615	0.887085	0.984628	0.673129	1.02516	0.617399	0.6637	0.35115	0.583081	0.361386	0.468196	0.038812	0.499696	-0.0536165	0.329746	-0.488206	
2.11639	0	0	-0.583705	-1.13232	0.152329	-0.109408	0.187617	0.26768	0.361066	0.316433	0.953269	0.844969	0.157305	0.199882	1.11292	0.565211	0.95718	0.553066	1.3332	0.897093	0.977469	0.669874	1.01716	0.602479	0.664113	0.33833	0.581249	0.355298	0.471529	0.0293915	0.496202	-0.0636387	0.32424	-0.489828	
2.11334	0	0	-0.576699	-1.13044	0.155605	-0.111549	0.189423	0.262577	0.366717	0.309119	0.945855	0.843293	0.163724	0.195688	1.11424	0.561474	0.955999	0.556404	1.34026	0.907101	0.97031	0.666619	1.00917	0.587558	0.664526	0.325511	0.579418	0.34921	0.474863	0.019971	0.492707	-0.073661	0.318734	-0.491449	
2.11487	0	0	-0.56965	-1.11779	0.158883	-0.113691	0.190722	0.269577	0.366996	0.334325	0.946855	0.840467	0.177323	0.213145	1.10881	0.562154	0.954818	0.559743	1.34311	0.91402	0.96491	0.670147	1.00753	0.579693	0.66758	0.328533	0.579418	0.34921	0.477404	0.021931	0.494323	-0.0782293	0.321887	-0.49177	
2.10876	0	0	-0.562601	-1.10514	0.16216	-0.115833	0.192021	0.276578	0.367275	0.359532	0.947855	0.837641	0.190922	0.230603	1.10337	0.562833	0.953636	0.563082	1.34597	0.92094	0.95951	0.673675	1.0059	0.571827	0.670633	0.331554	0.579418	0.34921	0.479945	0.023891	0.495939	-0.0827975	0.32504	-0.49209	
2.10876	0	0	-0.555552	-1.09249	0.165438	-0.117974	0.193319	0.283578	0.367555	0.384738	0.948854	0.834816	0.204522	0.24806	1.09794	0.563513	0.952454	0.566421	1.34883	0.927859	0.95411	0.677204	1.00426	0.563962	0.673687	0.334575	0.579418	0.34921	0.482486	0.025851	0.497556	-0.0873658	0.328192	-0.492411	
2.11182	0	0	-0.548503	-1.07984	0.168716	-0.120116	0.194618	0.290578	0.367834	0.409944	0.949854	0.83199	0.218121	0.265518	1.0925	0.564193	0.951273	0.56976	1.35168	0.934778	0.94871	0.680732	1.00263	0.556097	0.676741	0.337597	0.579418	0.34921	0.485027	0.027811	0.499172	-0.091934	0.331345	-0.492732	
2.10724	0	0	-0.553477	-1.06578	0.172752	-0.124398	0.189707	0.293787	0.361528	0.410432	0.941449	0.833139	0.21579	0.300113	1.08296	0.561816	0.943662	0.5696	1.3601	0.94101	0.945745	0.677386	0.999542	0.564811	0.681279	0.359772	0.576065	0.358685	0.490152	0.0407765	0.499708	-0.0835007	0.343122	-0.483011	
2.10876	0	0	-0.558451	-1.05173	0.176787	-0.128681	0.184796	0.296996	0.355221	0.410919	0.933045	0.834288	0.21346	0.334708	1.07342	0.559439	0.936051	0.56944	1.36851	0.947242	0.94278	0.67404	0.996459	0.573525	0.685817	0.381947	0.572712	0.368161	0.495278	0.053742	0.500243	-0.0750675	0.354899	-0.473289	
2.10876	0	0	-0.563425	-1.03767	0.180823	-0.132963	0.179884	0.300206	0.348915	0.411407	0.92464	0.835438	0.211129	0.369304	1.06389	0.557062	0.928439	0.56928	1.37693	0.953474	0.939815	0.670694	0.993375	0.58224	0.690354	0.404123	0.56936	0.377637	0.500404	0.0667075	0.500779	-0.0666343	0.366676	-0.463568	
2.10419	0	0	-0.568399	-1.02361	0.184859	-0.137245	0.174973	0.303415	0.342609	0.411895	0.916235	0.836587	0.208798	0.403899	1.05435	0.554685	0.920828	0.56912	1.38535	0.959706	0.93685	0.667348	0.990292	0.590954	0.694892	0.426298	0.566007	0.387112	0.505529	0.079673	0.501315	-0.058201	0.378453	-0.453846	
2.10724	0	0	-0.561356	-1.01089	0.184859	-0.137245	0.174069	0.305969	0.343445	0.409533	0.908636	0.824209	0.218301	0.391062	1.04073	0.549258	0.917943	0.555628	1.38956	0.962827	0.929177	0.653902	0.984972	0.581038	0.697209	0.419748	0.560825	0.390497	0.497939	0.0828177	0.488923	-0.0430695	0.376794	-0.440544	
2.10571	0	0	-0.554314	-0.998162	0.184859	-0.137245	0.173165	0.308523	0.34428	0.407172	0.901037	0.811831	0.227804	0.378225	1.02711	0.543832	0.915058	0.542137	1.39377	0.965947	0.921504	0.640456	0.979653	0.571122	0.699527	0.413199	0.555644	0.393883	0.490349	0.0859625	0.476532	-0.027938	0.375134	-0.427241	
2.10724	0	0	-0.547271	-0.985437	0.184859	-0.137245	0.172262	0.311077	0.345116	0.404811	0.893437	0.799453	0.237307	0.365389	1.0135	0.538405	0.912173	0.528645	1.39799	0.969067	0.913831	0.627009	0.974333	0.561205	0.701844	0.406649	0.550463	0.397269	0.48276	0.0891072	0.464141	-0.0128065	0.373475	-0.413938	
2.10419	0	0	-0.540228	-0.972712	0.184859	-0.137245	0.171358	0.313631	0.345952	0.402449	0.885838	0.787075	0.24681	0.352552	0.99988	0.532978	0.909288	0.515153	1.4022	0.972188	0.906158	0.613563	0.969013	0.551289	0.704162	0.400099	0.545281	0.400654	0.47517	0.092252	0.451749	0.002325	0.371816	-0.400636	
2.10419	0	0	-0.529145	-0.949526	0.187382	-0.137248	0.17485	0.32511	0.35503	0.420158	0.879449	0.782594	0.257038	0.36577	0.998418	0.522495	0.901428	0.504946	1.40506	0.979137	0.898493	0.600162	0.965329	0.549238	0.711441	0.402897	0.537443	0.400311	0.473465	0.087925	0.455515	0.001624	0.370207	-0.39609	
2.10419	0	0	-0.518061	-0.926341	0.189905	-0.137252	0.178341	0.33659	0.364109	0.437866	0.873061	0.778113	0.267266	0.378987	0.996957	0.512011	0.893568	0.49474	1.40792	0.986085	0.890827	0.58676	0.961645	0.547187	0.71872	0.405695	0.529605	0.399969	0.47176	0.083598	0.45928	0.000923	0.368599	-0.391544	
2.10266	0	0	-0.506978	-0.903155	0.192428	-0.137256	0.181833	0.34807	0.373188	0.455574	0.866673	0.773633	0.277494	0.392205	0.995495	0.501528	0.885707	0.484534	1.41079	0.993034	0.883162	0.573358	0.95796	0.545136	0.725999	0.408494	0.521766	0.399626	0.470055	0.079271	0.463046	0.000222	0.36699	-0.386998	
2.10113	0	0	-0.495895	-0.879969	0.194951	-0.137259	0.185325	0.359549	0.382266	0.473283	0.860284	0.769152	0.287722	0.405423	0.994033	0.491045	0.877847	0.474327	1.41365	0.999983	0.875496	0.559957	0.954276	0.543085	0.733278	0.411292	0.513928	0.399284	0.46835	0.074944	0.466812	-0.000479	0.365382	-0.382452	
2.10266	0	0	-0.498899	-0.84963	0.191671	-0.135116	0.177693	0.370442	0.370921	0.487986	0.84455	0.768629	0.288417	0.431593	0.991255	0.484294	0.868824	0.467464	1.41229	1.00381	0.869585	0.553321	0.952224	0.548884	0.743213	0.430042	0.508756	0.402663	0.470088	0.0883272	0.465715	0.0125693	0.369291	-0.376261	
2.10419	0	0	-0.501904	-0.819292	0.188391	-0.132972	0.170061	0.381335	0.359576	0.50269	0.828816	0.768106	0.289112	0.457763	0.988476	0.477544	0.859801	0.4606	1.41094	1.00764	0.863675	0.546685	0.950173	0.554683	0.753147	0.448792	0.503584	0.406043	0.471826	0.101711	0.464617	0.0256175	0.3732	-0.37007	
2.10571	0	0	-0.504908	-0.788954	0.185111	-0.130829	0.162428	0.392229	0.348232	0.517393	0.813082	0.767583	0.289808	0.483933	0.985698	0.470793	0.850778	0.453736	1.40959	1.01146	0.857764	0.540049	0.948121	0.560482	0.763082	0.467543	0.498413	0.409423	0.473565	0.115094	0.463519	0.0386658	0.377108	-0.363879	
2.10419	0	0	-0.507912	-0.758615	0.181831	-0.128686	0.154796	0.403122	0.336887	0.532096	0.797348	0.76706	0.290503	0.510103	0.98292	0.464042	0.841755	0.446873	1.40823	1.01529	0.851853	0.533413	0.946069	0.566281	0.773017	0.486293	0.493241	0.412802	0.475303	0.128477	0.462422	0.051714	0.381017	-0.357688	
2.11029	0	0	-0.497848	-0.743283	0.176032	-0.126542	0.154796	0.403122	0.333099	0.525459	0.791772	0.749147	0.290159	0.497003	0.982765	0.44989	0.837428	0.426793	1.41938	1.01389	0.84005	0.520177	0.939736	0.559279	0.777669	0.473145	0.479419	0.418193	0.467718	0.131616	0.459174	0.0608925	0.371472	-0.34795	
2.11029	0	0	-0.487784	-0.727952	0.170233	-0.124397	0.154796	0.403122	0.329311	0.518822	0.786197	0.731233	0.289815	0.483903	0.982609	0.435739	0.833101	0.406714	1.43053	1.0125	0.828247	0.506941	0.933403	0.552277	0.782322	0.459997	0.465597	0.423584	0.460133	0.134756	0.455927	0.070071	0.361926	-0.338211	
2.11487	0	0	-0.47772	-0.712621	0.164433	-0.122253	0.154796	0.403122	0.325523	0.512186	0.780621	0.71332	0.289471	0.470802	0.982453	0.421587	0.828774	0.386634	1.44168	1.0111	0.816444	0.493705	0.927069	0.545274	0.786974	0.44685	0.451776	0.428975	0.452549	0.137896	0.45268	0.0792495	0.352381	-0.328473	
2.11639	0	0	-0.467656	-0.697289	0.158634	-0.120109	0.154796	0.403122	0.321735	0.505549	0.775046	0.695407	0.289127	0.457702	0.982298	0.407435	0.824447	0.366554	1.45283	1.0097	0.804641	0.480469	0.920736	0.538272	0.791626	0.433702	0.437954	0.434366	0.444964	0.141035	0.449432	0.088428	0.342836	-0.318735	
2.11792	0	0	-0.459604	-0.676169	0.154601	-0.115828	0.152075	0.410811	0.323004	0.519305	0.775825	0.681997	0.302086	0.449234	0.984918	0.40003	0.82039	0.356511	1.464	1.0083	0.805299	0.466979	0.91706	0.536223	0.791626	0.433702	0.431823	0.429279	0.443264	0.136699	0.445666	0.0891238	0.342094	-0.325251	
2.1225	0	0	-0.451552	-0.655049	0.150567	-0.111547	0.149355	0.4185	0.324273	0.53306	0.776603	0.668586	0.315045	0.440767	0.987538	0.392625	0.816334	0.346469	1.47517	1.00689	0.805958	0.453488	0.913384	0.534174	0.791626	0.433702	0.425692	0.424193	0.441563	0.132363	0.4419	0.0898195	0.341352	-0.331766	
2.12097	0	0	-0.4435	-0.633929	0.146533	-0.107267	0.146634	0.426188	0.325542	0.546816	0.777381	0.655176	0.328004	0.432299	0.990159	0.38522	0.812277	0.336427	1.48634	1.00549	0.806616	0.439998	0.909708	0.532125	0.791626	0.433702	0.419561	0.419106	0.439862	0.128028	0.438134	0.0905153	0.34061	-0.338282	
2.12707	0	0	-0.435448	-0.612809	0.1425	-0.102986	0.143913	0.433877	0.326811	0.560571	0.77816	0.641766	0.340963	0.423831	0.992779	0.377815	0.80822	0.326384	1.49751	1.00408	0.807274	0.426508	0.906032	0.530076	0.791626	0.433702	0.41343	0.41402	0.438162	0.123692	0.434368	0.091211	0.339868	-0.344798	
2.12555	0	0	-0.445574	-0.59517	0.133436	-0.0987082	0.136814	0.432605	0.315891	0.556765	0.76348	0.638481	0.336365	0.436827	0.984598	0.371789	0.795453	0.319526	1.49615	1.00792	0.802578	0.416541	0.903983	0.535866	0.795442	0.446376	0.409949	0.412661	0.439862	0.128028	0.437321	0.0928112	0.340673	-0.347073	
2.13013	0	0	-0.4557	-0.577531	0.124371	-0.0944305	0.129715	0.431332	0.304971	0.55296	0.7488	0.635196	0.331766	0.449824	0.976416	0.365763	0.782686	0.312667	1.4948	1.01175	0.797882	0.406574	0.901935	0.541656	0.799257	0.459051	0.406469	0.411301	0.441563	0.132363	0.440275	0.0944115	0.341478	-0.349348	
2.12555	0	0	-0.465826	-0.559892	0.115307	-0.0901528	0.122616	0.430059	0.29405	0.549154	0.73412	0.63191	0.327167	0.46282	0.968234	0.359737	0.769918	0.305808	1.49344	1.01559	0.793186	0.396607	0.899887	0.547445	0.803073	0.471725	0.402988	0.409942	0.443264	0.136699	0.443229	0.0960118	0.342283	-0.351623	
2.13013	0	0	-0.475952	-0.542253	0.106243	-0.085875	0.115517	0.428787	0.28313	0.545348	0.71944	0.628625	0.322569	0.475816	0.960053	0.353711	0.757151	0.29895	1.49208	1.01942	0.78849	0.38664	0.897838	0.553235	0.806889	0.484399	0.399507	0.408583	0.444964	0.141035	0.446182	0.097612	0.343088	-0.353898	
2.13013	0	0	-0.467874	-0.543117	0.0956758	-0.077325	0.114235	0.421751	0.274742	0.534449	0.709719	0.61143	0.325277	0.454078	0.953189	0.344008	0.749059	0.278977	1.49768	1.01872	0.776714	0.373529	0.896213	0.545397	0.804235	0.468441	0.389078	0.404508	0.438195	0.132756	0.444852	0.0914227	0.336032	-0.359772	
2.12707	0	0	-0.459797	-0.543982	0.0851085	-0.068775	0.112954	0.414715	0.266354	0.52355	0.699999	0.594236	0.327986	0.43234	0.946325	0.334305	0.740967	0.259004	1.50327	1.01801	0.764939	0.360418	0.894589	0.537559	0.801581	0.452483	0.378648	0.400433	0.431425	0.124476	0.443523	0.0852335	0.328976	-0.365646	
2.13013	0	0	-0.451719	-0.544846	0.0745413	-0.060225	0.111673	0.407679	0.257967	0.512651	0.690279	0.577041	0.330695	0.410602	0.93946	0.324601	0.732875	0.239031	1.50886	1.01731	0.753164	0.347306	0.892964	0.529722	0.798928	0.436525	0.368219	0.396359	0.424655	0.116197	0.442194	0.0790443	0.32192	-0.371521	
2.12707	0	0	-0.443642	-0.54571	0.063974	-0.051675	0.110391	0.400643	0.249579	0.501752	0.680558	0.559847	0.333403	0.388864	0.932596	0.314898	0.724783	0.219058	1.51445	1.01661	0.741388	0.334195	0.891339	0.521884	0.796274	0.420567	0.357789	0.392284	0.417886	0.107918	0.440864	0.072855	0.314864	-0.377395	
2.13165	0	0	-0.443642	-0.54571	0.0607063	-0.04954	0.102399	0.401932	0.255027	0.503647	0.681322	0.546539	0.339885	0.384628	0.929818	0.308214	0.716979	0.209045	1.51173	1.02428	0.737895	0.320914	0.885622	0.52562	0.800918	0.407443	0.352514	0.384858	0.417819	0.0898557	0.444109	0.0636835	0.313375	-0.390377	
2.1286	0	0	-0.443642	-0.54571	0.0574385	-0.047405	0.094406	0.40322	0.260476	0.505543	0.682086	0.53323	0.346367	0.380393	0.92704	0.30153	0.709175	0.199033	1.50902	1.03196	0.734403	0.307634	0.879905	0.529355	0.805561	0.39432	0.34724	0.377433	0.417752	0.0717935	0.447354	0.054512	0.311886	-0.403358	
2.12555	0	0	-0.443642	-0.54571	0.0541707	-0.04527	0.0864135	0.404509	0.265925	0.507438	0.682849	0.519922	0.352849	0.376157	0.924263	0.294846	0.701372	0.18902	1.5063	1.03964	0.73091	0.294354	0.874188	0.533091	0.810204	0.381196	0.341965	0.370008	0.417685	0.0537312	0.450599	0.0453405	0.310397	-0.41634	
2.1286	0	0	-0.443642	-0.54571	0.050903	-0.043135	0.078421	0.405798	0.271373	0.509333	0.683613	0.506614	0.359331	0.371922	0.921485	0.288162	0.693568	0.179007	1.50358	1.04732	0.727417	0.281073	0.868471	0.536826	0.814848	0.368072	0.33669	0.362582	0.417618	0.035669	0.453844	0.036169	0.308908	-0.429322	
2.12555	0	0	-0.452711	-0.553018	0.045129	-0.041007	0.0780453	0.39622	0.262153	0.500819	0.679466	0.507191	0.35627	0.380571	0.917406	0.285167	0.688371	0.172347	1.51342	1.04976	0.72035	0.277923	0.870092	0.544666	0.813276	0.384239	0.342661	0.35687	0.41932	0.039984	0.4568	0.037762	0.311258	-0.427372	
2.12707	0	0	-0.461779	-0.560325	0.039355	-0.038879	0.0776695	0.386642	0.252933	0.492306	0.675319	0.507769	0.35321	0.389221	0.913327	0.282172	0.683175	0.165686	1.52326	1.0522	0.713283	0.274772	0.871713	0.552507	0.811705	0.400405	0.348632	0.351159	0.421021	0.044299	0.459756	0.039355	0.313609	-0.425422	
2.12402	0	0	-0.470847	-0.567632	0.033581	-0.036751	0.0772937	0.377064	0.243712	0.483793	0.671172	0.508346	0.350149	0.397871	0.909248	0.279178	0.677978	0.159025	1.53309	1.05463	0.706216	0.271622	0.873334	0.560347	0.810134	0.416571	0.354603	0.345447	0.422723	0.048614	0.462712	0.040948	0.31596	-0.423472	
2.1225	0	0	-0.479916	-0.57494	0.027807	-0.034623	0.076918	0.367486	0.234492	0.475279	0.667025	0.508923	0.347088	0.40652	0.905169	0.276183	0.672781	0.152365	1.54293	1.05707	0.699149	0.268471	0.874955	0.568187	0.808562	0.432738	0.360574	0.339735	0.424424	0.052929	0.465668	0.042541	0.31831	-0.421522	
2.12402	0	0	-0.475862	-0.586397	0.0205232	-0.0282188	0.075636	0.360475	0.234058	0.459244	0.672908	0.492297	0.344828	0.384751	0.901093	0.273191	0.668743	0.142454	1.54157	1.06092	0.69447	0.258601	0.874357	0.557455	0.80706	0.413541	0.358767	0.333679	0.421853	0.0419532	0.46729	0.0379568	0.309659	-0.422839	
2.12097	0	0	-0.471808	-0.597854	0.0132395	-0.0218145	0.074354	0.353463	0.233624	0.443208	0.67879	0.475672	0.342568	0.362982	0.897017	0.270199	0.664705	0.132544	1.54021	1.06477	0.68979	0.248731	0.87376	0.546723	0.805557	0.394344	0.35696	0.327623	0.419281	0.0309775	0.468913	0.0333725	0.301007	-0.424156	
2.11792	0	0	-0.467754	-0.609311	0.00595575	-0.0154103	0.073072	0.346452	0.23319	0.427172	0.684673	0.459047	0.340307	0.341213	0.892941	0.267207	0.660667	0.122633	1.53885	1.06861	0.68511	0.238862	0.873162	0.535992	0.804055	0.375147	0.355153	0.321567	0.41671	0.0200017	0.470535	0.0287883	0.292355	-0.425474	
2.11487	0	0	-0.4637	-0.620768	-0.001328	-0.009006	0.07179	0.339441	0.232756	0.411137	0.690556	0.442421	0.338047	0.319444	0.888865	0.264215	0.656629	0.112722	1.53748	1.07246	0.680431	0.228992	0.872564	0.52526	0.802552	0.35595	0.353346	0.315511	0.414139	0.009026	0.472157	0.024204	0.283704	-0.426791	
2.11029	0	0	-0.45865	-0.624068	-0.001328	-0.009006	0.0815815	0.333043	0.238001	0.422214	0.690556	0.442421	0.34948	0.31529	0.888865	0.264215	0.655187	0.106146	1.54445	1.06791	0.679873	0.219032	0.873587	0.522369	0.80487	0.3494	0.351538	0.309463	0.409905	0.002767	0.473778	0.0196218	0.279813	-0.432951	
2.11334	0	0	-0.4536	-0.627367	-0.001328	-0.009006	0.091373	0.326645	0.243245	0.433291	0.690556	0.442421	0.360913	0.311135	0.888865	0.264215	0.653744	0.0995695	1.55142	1.06336	0.679315	0.209072	0.87461	0.519479	0.807187	0.342851	0.349731	0.303415	0.405671	-0.003492	0.475399	0.0150395	0.275921	-0.439111	
2.10876	0	0	-0.44855	-0.630667	-0.001328	-0.009006	0.101165	0.320247	0.24849	0.444368	0.690556	0.442421	0.372346	0.30698	0.888865	0.264215	0.652302	0.0929932	1.55838	1.0588	0.678758	0.199112	0.875632	0.516589	0.809505	0.336301	0.347923	0.297367	0.401437	-0.009751	0.477021	0.0104573	0.272029	-0.445271	
2.11334	0	0	-0.4435	-0.633967	-0.001328	-0.009006	0.110956	0.313849	0.253734	0.455445	0.690556	0.442421	0.383779	0.302826	0.888865	0.264215	0.65086	0.086417	1.56535	1.05425	0.6782	0.189152	0.876655	0.513698	0.811823	0.329751	0.346116	0.291319	0.397203	-0.01601	0.478642	0.005875	0.268138	-0.451431	
2.10876	0	0	-0.44349	-0.644967	-0.0078495	-0.00474475	0.106962	0.314499	0.249959	0.448843	0.689576	0.44519	0.364708	0.328568	0.890166	0.260539	0.65086	0.086417	1.56263	1.06195	0.675825	0.195864	0.878279	0.521531	0.807936	0.352455	0.349587	0.292664	0.400605	-0.007401	0.483751	0.011347	0.26808	-0.44269	
2.10571	0	0	-0.44348	-0.655968	-0.014371	-0.0004835	0.102967	0.315148	0.246185	0.442241	0.688597	0.447959	0.345637	0.354309	0.891466	0.256863	0.65086	0.086417	1.5599	1.06965	0.67345	0.202576	0.879903	0.529363	0.804048	0.375159	0.353059	0.29401	0.404008	0.001208	0.488859	0.016819	0.268022	-0.433949	
2.10266	0	0	-0.44347	-0.666969	-0.0208925	0.00377775	0.0989725	0.315797	0.24241	0.435639	0.687617	0.450727	0.326565	0.380051	0.892767	0.253187	0.65086	0.086417	1.55718	1.07735	0.671075	0.209289	0.881526	0.537195	0.800161	0.397863	0.35653	0.295355	0.407411	0.009817	0.493968	0.022291	0.267964	-0.425209	
2.10724	0	0	-0.44346	-0.677969	-0.027414	0.008039	0.094978	0.316447	0.238635	0.429037	0.686637	0.453496	0.307494	0.405793	0.894068	0.249511	0.65086	0.086417	1.55445	1.08505	0.6687	0.216001	0.88315	0.545028	0.796274	0.420567	0.360002	0.2967	0.410813	0.018426	0.499076	0.027763	0.267906	-0.416468	
2.10419	0	0	-0.440428	-0.686538	-0.027414	0.008039	0.100777	0.310697	0.24197	0.419612	0.687617	0.450727	0.315132	0.384206	0.894068	0.249511	0.652012	0.0831595	1.56006	1.08434	0.664581	0.216112	0.884174	0.542134	0.802077	0.404166	0.357362	0.293006	0.402389	0.014902	0.499888	0.02547	0.262416	-0.418104	
2.10419	0	0	-0.437396	-0.695107	-0.027414	0.008039	0.106577	0.304947	0.245306	0.410186	0.688597	0.447959	0.32277	0.362619	0.894068	0.249511	0.653165	0.079902	1.56567	1.08364	0.660462	0.216222	0.885197	0.539241	0.807881	0.387764	0.354722	0.289311	0.393965	0.011378	0.500699	0.023177	0.256927	-0.41974	
2.10266	0	0	-0.434364	-0.703677	-0.027414	0.008039	0.112376	0.299198	0.248641	0.40076	0.689576	0.44519	0.330409	0.341031	0.894068	0.249511	0.654317	0.0766445	1.57128	1.08293	0.656344	0.216332	0.886221	0.536347	0.813684	0.371363	0.352081	0.285616	0.385542	0.007854	0.501511	0.020884	0.251437	-0.421377	
2.09808	0	0	-0.431332	-0.712246	-0.027414	0.008039	0.118175	0.293448	0.251976	0.391335	0.690556	0.442421	0.338047	0.319444	0.894068	0.249511	0.65547	0.073387	1.57689	1.08223	0.652225	0.216443	0.887245	0.533454	0.819487	0.354961	0.349441	0.281922	0.377118	0.00433	0.502322	0.018591	0.245948	-0.423013	
2.09503	0	0	-0.428303	-0.709834	-0.0208925	0.00377775	0.123464	0.299799	0.259536	0.404525	0.697876	0.444026	0.344524	0.315212	0.898145	0.2525	0.662972	0.0734942	1.57416	1.08994	0.656344	0.216332	0.891942	0.532609	0.821805	0.348409	0.345971	0.280579	0.378737	-0.00934725	0.501511	0.020884	0.249894	-0.425591	
2.09656	0	0	-0.425274	-0.707422	-0.014371	-0.0004835	0.128753	0.306149	0.267096	0.417715	0.705197	0.44563	0.351001	0.310979	0.902222	0.255489	0.670475	0.0736015	1.57144	1.09765	0.660462	0.216222	0.896638	0.531765	0.824124	0.341857	0.342501	0.279235	0.380356	-0.0230245	0.500699	0.023177	0.253839	-0.428169	
2.09503	0	0	-0.422245	-0.70501	-0.0078495	-0.00474475	0.134042	0.3125	0.274656	0.430905	0.712517	0.447234	0.357479	0.306747	0.906299	0.258478	0.677978	0.0737088	1.56871	1.10536	0.664581	0.216112	0.901335	0.530921	0.826442	0.335304	0.339031	0.277892	0.381976	-0.0367017	0.499888	0.02547	0.257785	-0.430748	
2.09656	0	0	-0.419216	-0.702598	-0.001328	-0.009006	0.139331	0.318851	0.282216	0.444095	0.719837	0.448839	0.363956	0.302515	0.910376	0.261467	0.68548	0.073816	1.56598	1.11306	0.6687	0.216001	0.906032	0.530076	0.828761	0.328752	0.335561	0.276549	0.383595	-0.050379	0.499076	0.027763	0.261731	-0.433326	
2.0935	0	0	-0.429307	-0.706977	-0.001328	-0.009006	0.140234	0.316298	0.276962	0.43302	0.717875	0.454383	0.355953	0.31106	0.909074	0.265146	0.689235	0.0738688	1.56886	1.12008	0.673377	0.225862	0.912361	0.537074	0.826036	0.348179	0.339031	0.277892	0.379448	-0.0386575	0.50878	0.0302443	0.269512	-0.420985	
2.09045	0	0	-0.439398	-0.711356	-0.001328	-0.009006	0.141137	0.313746	0.271708	0.421945	0.715914	0.459926	0.34795	0.319606	0.907772	0.268825	0.69299	0.0739215	1.57174	1.1271	0.678055	0.235724	0.91869	0.544072	0.823311	0.367607	0.342501	0.279235	0.3753	-0.026936	0.518483	0.0327255	0.277294	-0.408643	
2.09198	0	0	-0.449489	-0.715736	-0.001328	-0.009006	0.142041	0.311194	0.266454	0.410871	0.713952	0.465469	0.339946	0.328152	0.906471	0.272504	0.696745	0.0739742	1.57463	1.13411	0.682732	0.245585	0.925019	0.551069	0.820585	0.387035	0.345971	0.280579	0.371152	-0.0152145	0.528187	0.0352068	0.285075	-0.396302	
2.08893	0	0	-0.45958	-0.720115	-0.001328	-0.009006	0.142944	0.308641	0.2612	0.399796	0.711991	0.471013	0.331943	0.336697	0.905169	0.276183	0.7005	0.074027	1.57751	1.14113	0.687409	0.255447	0.931348	0.558067	0.81786	0.406462	0.349441	0.281922	0.367005	-0.003493	0.537891	0.037688	0.292857	-0.383961	
2.08893	0	0	-0.456554	-0.728668	-0.001328	-0.009006	0.142041	0.311194	0.26056	0.392972	0.716144	0.470431	0.333094	0.319381	0.903867	0.279864	0.704257	0.074079	1.58313	1.14043	0.690344	0.258703	0.936054	0.557221	0.822504	0.393338	0.347778	0.286621	0.357769	-0.00466825	0.531675	0.0452812	0.289643	-0.374878	
2.09503	0	0	-0.453527	-0.737221	-0.001328	-0.009006	0.141137	0.313746	0.25992	0.386147	0.720298	0.469849	0.334245	0.302065	0.902564	0.283544	0.708014	0.074131	1.58874	1.13973	0.693279	0.261959	0.94076	0.556374	0.827147	0.380215	0.346116	0.29132	0.348534	-0.0058435	0.525459	0.0528745	0.28643	-0.365795	
2.09656	0	0	-0.4505	-0.745773	-0.001328	-0.009006	0.140234	0.316298	0.25928	0.379323	0.724452	0.469267	0.335397	0.284748	0.901262	0.287224	0.711772	0.074183	1.59436	1.13903	0.696214	0.265215	0.945467	0.555527	0.83179	0.367091	0.344453	0.29602	0.339298	-0.00701875	0.519243	0.0604678	0.283216	-0.356713	
2.09961	0	0	-0.447474	-0.754326	-0.001328	-0.009006	0.139331	0.318851	0.25864	0.372499	0.728605	0.468685	0.336548	0.267432	0.89996	0.290905	0.715529	0.074235	1.59998	1.13832	0.699149	0.268471	0.950173	0.554681	0.836434	0.353967	0.34279	0.300719	0.330062	-0.008194	0.513027	0.068061	0.280002	-0.34763	
2.10266	0	0	-0.453524	-0.748182	0.0051985	-0.0132705	0.140621	0.325864	0.267039	0.383317	0.734956	0.47307	0.347974	0.263275	0.897354	0.29827	0.716979	0.0808147	1.60286	1.14535	0.700893	0.275099	0.95283	0.559636	0.839513	0.356998	0.341958	0.303069	0.326711	-0.00780525	0.512214	0.0703587	0.275245	-0.342775	
2.10724	0	0	-0.459573	-0.742038	0.011725	-0.017535	0.141911	0.332877	0.275439	0.394134	0.741306	0.477454	0.359401	0.259119	0.894748	0.305636	0.718428	0.0873945	1.60575	1.15238	0.702638	0.281728	0.955487	0.56459	0.842592	0.360029	0.341126	0.30542	0.323359	-0.0074165	0.511401	0.0726565	0.270487	-0.337919	
2.11334	0	0	-0.465623	-0.735894	0.0182515	-0.0217995	0.143201	0.339889	0.283838	0.404952	0.747657	0.481839	0.370827	0.254962	0.892141	0.313002	0.719878	0.0939743	1.60864	1.15941	0.704382	0.288357	0.958143	0.569545	0.845671	0.36306	0.340295	0.307771	0.320008	-0.00702775	0.510588	0.0749543	0.26573	-0.333064	
2.11792	0	0	-0.471673	-0.72975	0.024778	-0.026064	0.144491	0.346902	0.292238	0.41577	0.754008	0.486223	0.382253	0.250806	0.889535	0.320367	0.721328	0.100554	1.61152	1.16644	0.706126	0.294985	0.9608	0.5745	0.84875	0.366091	0.339463	0.310121	0.316656	-0.006639	0.509775	0.077252	0.260973	-0.328209	
2.12097	0	0	-0.472682	-0.726899	0.028043	-0.0281975	0.143968	0.359044	0.28241	0.434901	0.757413	0.498958	0.379949	0.285496	0.892306	0.327059	0.72654	0.107197	1.61304	1.17735	0.713746	0.308166	0.964057	0.590246	0.85334	0.388362	0.345574	0.31517	0.32509	0.0058845	0.517041	0.086653	0.26083	-0.310623	
2.12402	0	0	-0.473691	-0.724048	0.031308	-0.030331	0.143446	0.371186	0.272582	0.454033	0.760819	0.511694	0.377644	0.320186	0.895077	0.333751	0.731751	0.11384	1.61456	1.18827	0.721367	0.321346	0.967314	0.605992	0.85793	0.410632	0.351685	0.320219	0.333525	0.018408	0.524307	0.096054	0.260688	-0.293037	
2.12555	0	0	-0.474699	-0.721197	0.034573	-0.0324645	0.142924	0.383327	0.262753	0.473164	0.764225	0.524429	0.37534	0.354875	0.897848	0.340442	0.736962	0.120484	1.61607	1.19918	0.728987	0.334527	0.970571	0.621737	0.86252	0.432902	0.357795	0.325269	0.341959	0.0309315	0.531574	0.105455	0.260545	-0.275452	
2.12707	0	0	-0.475708	-0.718346	0.037838	-0.034598	0.142401	0.395469	0.252925	0.492296	0.76763	0.537164	0.373036	0.389565	0.900619	0.347134	0.742174	0.127127	1.61759	1.21009	0.736607	0.347708	0.973828	0.637483	0.86711	0.455173	0.363906	0.330318	0.350393	0.043455	0.53884	0.114856	0.260402	-0.257866	
2.13165	0	0	-0.475716	-0.707372	0.037838	-0.034598	0.1455	0.397382	0.256904	0.489696	0.768615	0.534381	0.372667	0.376513	0.899313	0.350824	0.742174	0.127127	1.62322	1.20939	0.737154	0.357749	0.972798	0.640393	0.863613	0.465058	0.359739	0.342095	0.341237	0.0693305	0.532315	0.133298	0.255479	-0.235356	
2.1347	0	0	-0.475723	-0.696398	0.037838	-0.034598	0.148598	0.399296	0.260883	0.487096	0.769599	0.531599	0.372298	0.363461	0.898008	0.354514	0.742174	0.127127	1.62885	1.20869	0.7377	0.367791	0.971769	0.643304	0.860115	0.474942	0.355572	0.353872	0.332082	0.095206	0.525789	0.151741	0.250557	-0.212846	
2.13776	0	0	-0.475731	-0.685423	0.037838	-0.034598	0.151697	0.401209	0.264861	0.484496	0.770584	0.528817	0.37193	0.350409	0.896702	0.358203	0.742174	0.127127	1.63448	1.208	0.738247	0.377833	0.970739	0.646214	0.856618	0.484826	0.351405	0.365649	0.322926	0.121082	0.519263	0.170183	0.245634	-0.190336	
2.13928	0	0	-0.475738	-0.674449	0.037838	-0.034598	0.154796	0.403122	0.26884	0.481896	0.771569	0.526034	0.371561	0.337357	0.895397	0.361893	0.742174	0.127127	1.64011	1.2073	0.738794	0.387874	0.969709	0.649124	0.85312	0.494711	0.347238	0.377426	0.31377	0.146957	0.512738	0.188625	0.240711	-0.167826	
2.14386	0	0	-0.462626	-0.66763	0.037838	-0.034598	0.154266	0.415295	0.280181	0.501799	0.773764	0.531019	0.379952	0.341841	0.904861	0.364226	0.748549	0.130508	1.643	1.21435	0.738137	0.401324	0.972365	0.654106	0.855032	0.501069	0.341266	0.38314	0.30875	0.152049	0.515702	0.190237	0.239094	-0.163255	
2.14691	0	0	-0.449513	-0.660811	0.037838	-0.034598	0.153736	0.427469	0.291521	0.521703	0.77596	0.536004	0.388343	0.346326	0.914326	0.366558	0.754923	0.133889	1.64588	1.22141	0.73748	0.414774	0.975021	0.659087	0.856944	0.507427	0.335294	0.388855	0.303729	0.157141	0.518667	0.19185	0.237477	-0.158685	
2.14996	0	0	-0.4364	-0.653993	0.037838	-0.034598	0.153207	0.439642	0.302862	0.541606	0.778155	0.540989	0.396735	0.35081	0.92379	0.368891	0.761297	0.13727	1.64877	1.22847	0.736824	0.428223	0.977677	0.664069	0.858857	0.513785	0.329322	0.394569	0.298709	0.162232	0.521631	0.193462	0.235859	-0.154115	
2.15149	0	0	-0.423288	-0.647174	0.037838	-0.034598	0.152677	0.451815	0.314203	0.56151	0.780351	0.545974	0.405126	0.355294	0.933254	0.371223	0.767672	0.140651	1.65166	1.23553	0.736167	0.441673	0.980333	0.66905	0.860769	0.520143	0.32335	0.400284	0.293689	0.167324	0.524595	0.195074	0.234242	-0.149544	
2.14996	0	0	-0.426345	-0.627549	0.0418615	-0.038872	0.154331	0.468514	0.305349	0.603884	0.778599	0.562121	0.412726	0.390342	0.929329	0.382315	0.766803	0.153814	1.66157	1.23801	0.746191	0.448168	0.985648	0.679031	0.865331	0.542582	0.320012	0.40972	0.297907	0.182707	0.52429	0.205932	0.237305	-0.140993	
2.15454	0	0	-0.429402	-0.607924	0.045885	-0.043146	0.155984	0.485213	0.296494	0.646258	0.776848	0.578268	0.420326	0.425391	0.925404	0.393406	0.765934	0.166978	1.67148	1.24049	0.756215	0.454664	0.990962	0.689011	0.869893	0.56502	0.316673	0.419155	0.302125	0.198091	0.523985	0.216789	0.240367	-0.132443	
2.15607	0	0	-0.432459	-0.5883	0.0499085	-0.04742	0.157637	0.501912	0.28764	0.688632	0.775096	0.594415	0.427926	0.46044	0.92148	0.404498	0.765066	0.180141	1.68139	1.24298	0.76624	0.461159	0.996277	0.698992	0.874455	0.587458	0.313335	0.42859	0.306342	0.213475	0.523679	0.227647	0.243429	-0.123892	
2.15301	0	0	-0.435516	-0.568675	0.053932	-0.051694	0.159291	0.518611	0.278786	0.731006	0.773344	0.610562	0.435526	0.495488	0.917555	0.415589	0.764197	0.193304	1.69129	1.24546	0.776264	0.467655	1.00159	0.708973	0.879017	0.609897	0.309996	0.438026	0.31056	0.228858	0.523374	0.238505	0.246492	-0.115341	
2.15454	0	0	-0.433505	-0.563368	0.0506658	-0.0495597	0.164213	0.515394	0.28447	0.723625	0.774332	0.607772	0.441677	0.478105	0.922945	0.414911	0.764197	0.193304	1.68992	1.24935	0.772656	0.477851	0.994804	0.715653	0.871248	0.620069	0.305818	0.449834	0.304705	0.254514	0.513041	0.257713	0.241531	-0.0927122	
2.15454	0	0	-0.431493	-0.55806	0.0473995	-0.0474255	0.169136	0.512178	0.290153	0.716244	0.775319	0.604981	0.447828	0.460722	0.928336	0.414234	0.764197	0.193304	1.68854	1.25324	0.769048	0.488048	0.988015	0.722334	0.863479	0.63024	0.30164	0.461643	0.298851	0.28017	0.502708	0.27692	0.23657	-0.0700835	
2.15301	0	0	-0.429482	-0.552752	0.0441332	-0.0452912	0.174059	0.508962	0.295837	0.708862	0.776307	0.602191	0.453978	0.443338	0.933727	0.413556	0.764197	0.193304	1.68717	1.25712	0.76544	0.498245	0.981227	0.729015	0.855711	0.640412	0.297461	0.473451	0.292996	0.305827	0.492375	0.296127	0.23161	-0.0474548	
2.15149	0	0	-0.427471	-0.547445	0.040867	-0.043157	0.178981	0.505745	0.301521	0.701481	0.777294	0.5994	0.460129	0.425955	0.939117	0.412879	0.764197	0.193304	1.68579	1.26101	0.761832	0.508441	0.974438	0.735695	0.847942	0.650584	0.293283	0.485259	0.287141	0.331483	0.482042	0.315335	0.226649	-0.024826	
2.14996	0	0	-0.421412	-0.542565	0.037602	-0.0410235	0.17716	0.510892	0.308452	0.707961	0.773128	0.599978	0.461665	0.421615	0.939117	0.412879	0.759269	0.196524	1.6774	1.26948	0.761832	0.508441	0.973405	0.738616	0.849115	0.64727	0.28982	0.483889	0.285463	0.327115	0.4845	0.308388	0.221974	-0.0288275	
2.14996	0	0	-0.415353	-0.537684	0.034337	-0.03889	0.175339	0.51604	0.315383	0.714441	0.768962	0.600556	0.463201	0.417274	0.939117	0.412879	0.754341	0.199744	1.669	1.27796	0.761832	0.508441	0.972371	0.741537	0.850287	0.643955	0.286358	0.482518	0.283785	0.322748	0.486959	0.301441	0.217299	-0.032829	
2.14996	0	0	-0.409295	-0.532804	0.031072	-0.0367565	0.173517	0.521188	0.322314	0.72092	0.764795	0.601133	0.464736	0.412933	0.939117	0.412879	0.749412	0.202964	1.66061	1.28643	0.761832	0.508441	0.971338	0.744458	0.85146	0.64064	0.282895	0.481148	0.282107	0.31838	0.489417	0.294494	0.212624	-0.0368305	
2.14691	0	0	-0.403236	-0.527924	0.027807	-0.034623	0.171696	0.526335	0.329245	0.7274	0.760629	0.601711	0.466272	0.408593	0.939117	0.412879	0.744484	0.206184	1.65222	1.29491	0.761832	0.508441	0.970304	0.747379	0.852633	0.637326	0.279432	0.479778	0.280429	0.314012	0.491875	0.287547	0.207949	-0.040832	
2.14844	0	0	-0.410337	-0.51886	0.0212805	-0.0303585	0.168962	0.534061	0.331101	0.748257	0.761832	0.609507	0.467002	0.434857	0.931107	0.420959	0.743323	0.209464	1.65222	1.29491	0.752346	0.512025	0.967201	0.756147	0.853363	0.647047	0.27776	0.484503	0.282107	0.31838	0.491875	0.287547	0.210286	-0.0388317	
2.14386	0	0	-0.417438	-0.509796	0.014754	-0.026094	0.166228	0.541788	0.332958	0.769115	0.763035	0.617303	0.467732	0.461121	0.923098	0.429038	0.742163	0.212745	1.65222	1.29491	0.74286	0.51561	0.964098	0.764916	0.854094	0.656767	0.276088	0.489228	0.283785	0.322748	0.491875	0.287547	0.212623	-0.0368315	
2.14233	0	0	-0.424539	-0.500732	0.0082275	-0.0218295	0.163494	0.549515	0.334815	0.789972	0.764239	0.625099	0.468463	0.487385	0.915088	0.437117	0.741002	0.216026	1.65222	1.29491	0.733375	0.519194	0.960996	0.773684	0.854824	0.666488	0.274416	0.493954	0.285463	0.327115	0.491875	0.287547	0.21496	-0.0348313	
2.13928	0	0	-0.43164	-0.491668	0.001701	-0.017565	0.16076	0.557241	0.336671	0.810829	0.765442	0.632895	0.469193	0.513649	0.907079	0.445197	0.739841	0.219306	1.65222	1.29491	0.723889	0.522778	0.957893	0.782452	0.855554	0.676209	0.272744	0.498679	0.287141	0.331483	0.491875	0.287547	0.217297	-0.032831	
2.13928	0	0	-0.43464	-0.505178	-0.0023175	-0.0132943	0.158571	0.552731	0.336281	0.794525	0.759088	0.628464	0.466927	0.491726	0.897623	0.442842	0.734633	0.212627	1.6452	1.29949	0.71682	0.519561	0.952142	0.78621	0.847057	0.67666	0.271071	0.503407	0.28714	0.340601	0.491875	0.287547	0.214048	-0.023648	
2.13623	0	0	-0.437641	-0.518689	-0.006336	-0.0090235	0.156383	0.54822	0.335891	0.77822	0.752735	0.624034	0.464661	0.469802	0.888166	0.440487	0.729426	0.205948	1.63819	1.30407	0.709751	0.516343	0.946391	0.789968	0.838561	0.677111	0.269398	0.508134	0.287139	0.349718	0.491875	0.287547	0.210798	-0.014465	
2.13776	0	0	-0.440642	-0.5322	-0.0103545	-0.00475275	0.154195	0.54371	0.335501	0.761915	0.746382	0.619603	0.462395	0.447878	0.87871	0.438131	0.724218	0.199268	1.63118	1.30865	0.702682	0.513126	0.940639	0.793726	0.830064	0.677562	0.267726	0.512862	0.287138	0.358835	0.491875	0.287547	0.207549	-0.005282	
2.13013	0	0	-0.443642	-0.54571	-0.014373	-0.000482	0.152006	0.5392	0.335111	0.745611	0.740028	0.615172	0.460129	0.425955	0.869254	0.435776	0.719011	0.192589	1.62417	1.31323	0.695613	0.509909	0.934888	0.797484	0.821567	0.678013	0.266053	0.51759	0.287137	0.367953	0.491875	0.287547	0.2043	0.003901	
2.13165	0	0	-0.447661	-0.556318	-0.0176332	0.00164825	0.149818	0.534695	0.342498	0.733437	0.742987	0.606809	0.462821	0.404198	0.858507	0.437115	0.71265	0.189194	1.61429	1.31073	0.695083	0.499821	0.937991	0.788716	0.817769	0.665215	0.264266	0.51149	0.282944	0.352471	0.483818	0.280366	0.202876	-0.00928125	
2.13013	0	0	-0.451679	-0.566925	-0.0208935	0.0037785	0.14763	0.530189	0.349884	0.721264	0.745947	0.598445	0.465514	0.382442	0.847759	0.438453	0.70629	0.185798	1.6044	1.30822	0.694553	0.489733	0.941093	0.779948	0.813971	0.652416	0.262479	0.50539	0.278752	0.336989	0.47576	0.273184	0.201453	-0.0224635	
2.12707	0	0	-0.455697	-0.577533	-0.0241538	0.00590875	0.145442	0.525684	0.35727	0.709091	0.748906	0.590082	0.468206	0.360685	0.837012	0.439792	0.699929	0.182402	1.59452	1.30571	0.694022	0.479646	0.944195	0.771179	0.810173	0.639618	0.260692	0.499291	0.27456	0.321507	0.467703	0.266003	0.200029	-0.0356458	
2.1286	0	0	-0.459716	-0.58814	-0.027414	0.008039	0.143254	0.521179	0.364657	0.696917	0.751865	0.581719	0.470898	0.338929	0.826265	0.441131	0.693568	0.179007	1.58464	1.3032	0.693492	0.469558	0.947298	0.762411	0.806375	0.62682	0.258905	0.493191	0.270367	0.306025	0.459645	0.258822	0.198605	-0.048828	
2.12402	0	0	-0.468778	-0.595426	-0.027414	0.008039	0.142344	0.523752	0.365906	0.710803	0.749893	0.587294	0.474722	0.356428	0.816843	0.438771	0.689812	0.178946	1.58177	1.29612	0.691759	0.462875	0.944195	0.771179	0.816034	0.623053	0.259741	0.490829	0.272879	0.298927	0.467507	0.246583	0.204996	-0.0582888	
2.12097	0	0	-0.477841	-0.602712	-0.027414	0.008039	0.141433	0.526324	0.367154	0.724689	0.74792	0.592869	0.478546	0.373926	0.80742	0.436412	0.686055	0.178885	1.57889	1.28905	0.690027	0.456191	0.941093	0.779948	0.825694	0.619285	0.260576	0.488467	0.27539	0.291829	0.475368	0.234345	0.211387	-0.0677495	
2.12555	0	0	-0.486903	-0.609998	-0.027414	0.008039	0.140523	0.528897	0.368403	0.738575	0.745947	0.598443	0.482371	0.391424	0.797998	0.434052	0.682299	0.178824	1.57602	1.28197	0.688295	0.449508	0.937991	0.788716	0.835353	0.615518	0.261412	0.486106	0.277902	0.284731	0.483229	0.222106	0.217777	-0.0772103	
2.12097	0	0	-0.495965	-0.617284	-0.027414	0.008039	0.139613	0.53147	0.369652	0.752461	0.743975	0.604018	0.486195	0.408923	0.788575	0.431692	0.678543	0.178763	1.57315	1.2749	0.686562	0.442825	0.934888	0.797484	0.845013	0.61175	0.262248	0.483744	0.280414	0.277633	0.491091	0.209867	0.224168	-0.086671	
2.11487	0	0	-0.500974	-0.635968	-0.0306727	0.0101685	0.139245	0.521827	0.375788	0.726411	0.736642	0.602382	0.475864	0.395676	0.777864	0.433019	0.672194	0.175371	1.56055	1.28015	0.683631	0.439535	0.932818	0.803334	0.841498	0.621686	0.265708	0.485115	0.282096	0.291096	0.48864	0.216795	0.227224	-0.0780943	
2.11639	0	0	-0.505983	-0.654651	-0.0339315	0.012298	0.138877	0.512185	0.381923	0.70036	0.72931	0.600746	0.465533	0.382429	0.767153	0.434346	0.665845	0.171979	1.54794	1.2854	0.680701	0.436244	0.930748	0.809185	0.837982	0.631622	0.269168	0.486486	0.283778	0.304558	0.486189	0.223722	0.230281	-0.0695175	
2.11182	0	0	-0.510992	-0.673335	-0.0371903	0.0144275	0.138508	0.502542	0.388059	0.67431	0.721977	0.599109	0.455203	0.369182	0.756441	0.435674	0.659496	0.168586	1.53534	1.29065	0.677771	0.432953	0.928678	0.815036	0.834466	0.641557	0.272628	0.487857	0.285459	0.318021	0.483737	0.23065	0.233338	-0.0609408	
2.11487	0	0	-0.516001	-0.692018	-0.040449	0.016557	0.13814	0.492899	0.394195	0.648259	0.714644	0.597473	0.444872	0.355935	0.74573	0.437001	0.653147	0.165194	1.52274	1.29591	0.67484	0.429663	0.926608	0.820886	0.830951	0.651493	0.276088	0.489228	0.287141	0.331483	0.481286	0.237577	0.236394	-0.052364	
2.11334	0	0	-0.507941	-0.703858	-0.040449	0.016557	0.143057	0.489686	0.403902	0.63825	0.710488	0.598047	0.439523	0.34281	0.747035	0.433314	0.650553	0.161866	1.52686	1.28428	0.673107	0.422994	0.929712	0.812112	0.830221	0.641787	0.275134	0.480776	0.28965	0.315282	0.486186	0.223728	0.232619	-0.0675112	
2.11487	0	0	-0.49988	-0.715699	-0.040449	0.016557	0.147974	0.486474	0.413609	0.628241	0.706333	0.598621	0.434174	0.329685	0.748339	0.429627	0.64796	0.158539	1.53097	1.27265	0.671375	0.416326	0.932817	0.803338	0.82949	0.632082	0.274179	0.472324	0.292159	0.299081	0.491087	0.209878	0.228845	-0.0826585	
2.11944	0	0	-0.49182	-0.727539	-0.040449	0.016557	0.152891	0.483261	0.423315	0.618232	0.702178	0.599195	0.428825	0.31656	0.749643	0.425941	0.645366	0.155212	1.53508	1.26103	0.669643	0.409658	0.935922	0.794563	0.828759	0.622376	0.273224	0.463872	0.294668	0.28288	0.495988	0.196028	0.22507	-0.0978057	
2.11487	0	0	-0.483759	-0.739379	-0.040449	0.016557	0.157808	0.480048	0.433022	0.608223	0.698022	0.599769	0.423476	0.303435	0.750948	0.422254	0.642772	0.151884	1.5392	1.2494	0.66791	0.402989	0.939026	0.785789	0.828029	0.612671	0.27227	0.45542	0.297177	0.266679	0.500888	0.182179	0.221295	-0.112953	
2.11029	0	0	-0.481746	-0.734121	-0.0306688	0.0101662	0.160369	0.494194	0.445928	0.632861	0.703377	0.606983	0.430733	0.325305	0.749643	0.425941	0.649118	0.155273	1.53783	1.25328	0.672037	0.402892	0.940637	0.793732	0.83418	0.618835	0.277402	0.452067	0.306402	0.258833	0.505483	0.179176	0.229299	-0.126973	
2.11487	0	0	-0.479734	-0.728862	-0.0208885	0.0037755	0.16293	0.508341	0.458833	0.657498	0.708731	0.614197	0.43799	0.347174	0.748339	0.429627	0.655463	0.158662	1.53646	1.25715	0.676163	0.402795	0.942249	0.801674	0.840331	0.624999	0.282533	0.448713	0.315627	0.250988	0.510078	0.176174	0.237303	-0.140993	
2.11029	0	0	-0.477721	-0.723604	-0.0111083	-0.00261525	0.165491	0.522487	0.471739	0.682136	0.714085	0.621411	0.445247	0.369044	0.747035	0.433314	0.661809	0.16205	1.53509	1.26102	0.680289	0.402698	0.94386	0.809617	0.846482	0.631162	0.287665	0.44536	0.324851	0.243143	0.514674	0.173171	0.245307	-0.155013	
2.11182	0	0	-0.475708	-0.718346	-0.001328	-0.009006	0.168052	0.536634	0.484644	0.706774	0.71944	0.628625	0.452504	0.390914	0.74573	0.437001	0.668155	0.165439	1.53371	1.2649	0.684416	0.402601	0.945471	0.81756	0.852633	0.637326	0.292797	0.442007	0.334076	0.235297	0.519269	0.170168	0.253311	-0.169033	
2.11639	0	0	-0.468649	-0.727341	-0.00383225	-0.00901475	0.169874	0.531485	0.487394	0.690259	0.712321	0.637566	0.439496	0.399414	0.744425	0.440689	0.66209	0.171915	1.53371	1.2649	0.68615	0.409271	0.95284	0.821752	0.849838	0.657008	0.293754	0.450457	0.338296	0.250742	0.522749	0.180318	0.259533	-0.160789	
2.11334	0	0	-0.461591	-0.736336	-0.0063365	-0.0090235	0.171696	0.526336	0.490144	0.673744	0.705203	0.646507	0.426488	0.407913	0.74312	0.444377	0.656025	0.178392	1.53371	1.2649	0.687885	0.415941	0.960209	0.825944	0.847044	0.676691	0.294712	0.458907	0.342515	0.266186	0.526229	0.190468	0.265755	-0.152546	
2.11487	0	0	-0.454533	-0.745331	-0.00884075	-0.00903225	0.173517	0.521188	0.492894	0.65723	0.698084	0.655448	0.413479	0.416413	0.741815	0.448065	0.649959	0.184868	1.53371	1.2649	0.68962	0.422611	0.967577	0.830137	0.844249	0.696373	0.295669	0.467357	0.346735	0.281631	0.529709	0.200617	0.271976	-0.144302	
2.11639	0	0	-0.447474	-0.754326	-0.011345	-0.009041	0.175339	0.516039	0.495644	0.640715	0.690966	0.664389	0.400471	0.424913	0.74051	0.451753	0.643894	0.191345	1.53371	1.2649	0.691354	0.429281	0.974946	0.834329	0.841454	0.716056	0.296627	0.475807	0.350955	0.297075	0.533189	0.210767	0.278198	-0.136058	
2.11792	0	0	-0.4394	-0.755219	-0.005578	-0.011164	0.182459	0.517325	0.495644	0.640715	0.68899	0.669972	0.397041	0.420492	0.745863	0.451092	0.651398	0.191471	1.53658	1.27196	0.694287	0.432572	0.973909	0.83726	0.84263	0.712734	0.298298	0.471083	0.355984	0.282862	0.534824	0.206147	0.279091	-0.147193	
2.12097	0	0	-0.431327	-0.756112	0.000189	-0.013287	0.18958	0.518611	0.495644	0.640715	0.687015	0.675556	0.39361	0.416071	0.751216	0.450431	0.658903	0.191597	1.53945	1.27903	0.69722	0.435863	0.972872	0.840192	0.843805	0.709413	0.29997	0.466359	0.361013	0.268649	0.536458	0.201527	0.279983	-0.158329	
2.12097	0	0	-0.423253	-0.757005	0.005956	-0.01541	0.1967	0.519896	0.495644	0.640715	0.68504	0.68114	0.39018	0.41165	0.756568	0.449769	0.666407	0.191724	1.54232	1.2861	0.700153	0.439154	0.971834	0.843124	0.844981	0.706091	0.301642	0.461635	0.366043	0.254436	0.538093	0.196907	0.280876	-0.169464	
2.12097	0	0	-0.415179	-0.757898	0.011723	-0.017533	0.20382	0.521182	0.495644	0.640715	0.683064	0.686723	0.386749	0.407229	0.761921	0.449108	0.673912	0.19185	1.54519	1.29317	0.703086	0.442445	0.970797	0.846055	0.846156	0.702769	0.303313	0.456911	0.371072	0.240223	0.539728	0.192287	0.281768	-0.180599	
2.12097	0	0	-0.412146	-0.744517	0.0182518	-0.0217992	0.207298	0.532786	0.507102	0.66085	0.68544	0.702367	0.40202	0.420598	0.770026	0.45517	0.677948	0.201804	1.54806	1.30025	0.70482	0.44913	0.982906	0.849422	0.853487	0.705643	0.307615	0.455916	0.372746	0.23549	0.541362	0.187669	0.288965	-0.192328	
2.12555	0	0	-0.409114	-0.731136	0.0247805	-0.0260655	0.210777	0.544389	0.51856	0.680984	0.687817	0.718011	0.417291	0.433967	0.77813	0.461233	0.681984	0.211757	1.55092	1.30733	0.706554	0.455815	0.995016	0.852789	0.860818	0.708517	0.311917	0.45492	0.374421	0.230758	0.542995	0.183052	0.296163	-0.204057	
2.13318	0	0	-0.406081	-0.717756	0.0313092	-0.0303317	0.214255	0.555993	0.530017	0.701119	0.690193	0.733655	0.432562	0.447336	0.786234	0.467295	0.68602	0.221711	1.55379	1.3144	0.708289	0.4625	1.00712	0.856156	0.868148	0.711391	0.31622	0.453925	0.376096	0.226025	0.544629	0.178434	0.303361	-0.215785	
2.13318	0	0	-0.403048	-0.704375	0.037838	-0.034598	0.217733	0.567596	0.541475	0.721254	0.692569	0.749299	0.447833	0.460705	0.794339	0.473357	0.690056	0.231665	1.55666	1.32148	0.710023	0.469185	1.01923	0.859523	0.875479	0.714265	0.320522	0.452929	0.37777	0.221292	0.546263	0.173816	0.310558	-0.227514	
2.13165	0	0	-0.403048	-0.704375	0.037838	-0.034598	0.214625	0.565659	0.533835	0.70782	0.692569	0.749299	0.42985	0.469115	0.791722	0.480753	0.693815	0.23173	1.55815	1.33246	0.710555	0.479276	1.01877	0.873387	0.875025	0.727354	0.321481	0.461388	0.384521	0.229624	0.542177	0.185365	0.31364	-0.218987	
2.13623	0	0	-0.403048	-0.704375	0.037838	-0.034598	0.211518	0.563723	0.526195	0.694385	0.692569	0.749299	0.411868	0.477525	0.789105	0.488149	0.697574	0.231794	1.55965	1.34345	0.711087	0.489367	1.0183	0.887252	0.874572	0.740443	0.322441	0.469846	0.391271	0.237956	0.538091	0.196914	0.316723	-0.210459	
2.13776	0	0	-0.403048	-0.704375	0.037838	-0.034598	0.20841	0.561786	0.518554	0.680951	0.692569	0.749299	0.393885	0.485935	0.786488	0.495545	0.701334	0.231858	1.56114	1.35443	0.711619	0.499457	1.01784	0.901117	0.874118	0.753532	0.3234	0.478305	0.398022	0.246288	0.534004	0.208462	0.319805	-0.201932	
2.13318	0	0	-0.403048	-0.704375	0.037838	-0.034598	0.205302	0.559849	0.510914	0.667517	0.692569	0.749299	0.375903	0.494345	0.783871	0.502941	0.705093	0.231923	1.56263	1.36541	0.712151	0.509548	1.01737	0.914981	0.873664	0.766621	0.324359	0.486763	0.404773	0.25462	0.529918	0.220011	0.322887	-0.193405	
2.13165	0	0	-0.393944	-0.708126	0.0411042	-0.0367322	0.207127	0.554691	0.512811	0.653408	0.693559	0.7465	0.375548	0.481232	0.789235	0.502281	0.705093	0.231923	1.56688	1.36862	0.713353	0.506151	1.01737	0.914981	0.874118	0.753532	0.321728	0.48303	0.405572	0.234084	0.534004	0.208462	0.319878	-0.210752	
2.13318	0	0	-0.384841	-0.711877	0.0443705	-0.0388665	0.208952	0.549534	0.514709	0.639298	0.69455	0.743701	0.375193	0.46812	0.7946	0.50162	0.705093	0.231923	1.57112	1.37183	0.714554	0.502755	1.01737	0.914981	0.874572	0.740443	0.319097	0.479297	0.406371	0.213548	0.538091	0.196914	0.316869	-0.228099	
2.1347	0	0	-0.375737	-0.715629	0.0476367	-0.0410008	0.210777	0.544376	0.516606	0.625189	0.695541	0.740901	0.374839	0.455007	0.799964	0.50096	0.705093	0.231923	1.57537	1.37504	0.715756	0.499359	1.01737	0.914981	0.875025	0.727354	0.316465	0.475563	0.40717	0.193011	0.542177	0.185365	0.31386	-0.245445	
2.13165	0	0	-0.366633	-0.71938	0.050903	-0.043135	0.212602	0.539218	0.518504	0.61108	0.696531	0.738102	0.374484	0.441894	0.805329	0.500299	0.705093	0.231923	1.57961	1.37825	0.716958	0.495962	1.01737	0.914981	0.875479	0.714265	0.313834	0.47183	0.407969	0.172475	0.546263	0.173816	0.310851	-0.262792	
2.1286	0	0	-0.369669	-0.7108	0.050903	-0.043135	0.216623	0.538573	0.522327	0.617772	0.702671	0.731939	0.379446	0.441985	0.804019	0.504001	0.705093	0.231923	1.57548	1.38995	0.718159	0.492567	1.02315	0.911205	0.873576	0.707844	0.317177	0.462382	0.406247	0.159081	0.544928	0.167594	0.308572	-0.273565	
2.12707	0	0	-0.372706	-0.702219	0.050903	-0.043135	0.220645	0.537928	0.52615	0.624464	0.708811	0.725776	0.384408	0.442076	0.802709	0.507702	0.705093	0.231923	1.57134	1.40164	0.719361	0.489172	1.02893	0.907429	0.871672	0.701424	0.32052	0.452934	0.404525	0.145686	0.543594	0.161372	0.306292	-0.284338	
2.12707	0	0	-0.375742	-0.693639	0.050903	-0.043135	0.224666	0.537282	0.529974	0.631155	0.714952	0.719612	0.389371	0.442168	0.8014	0.511404	0.705093	0.231923	1.5672	1.41333	0.720562	0.485777	1.0347	0.903654	0.869768	0.695003	0.323863	0.443486	0.402804	0.132292	0.542259	0.155149	0.304013	-0.29511	
2.12402	0	0	-0.378778	-0.685059	0.050903	-0.043135	0.228687	0.536637	0.533797	0.637847	0.721092	0.713449	0.394333	0.442259	0.80009	0.515106	0.705093	0.231923	1.56307	1.42502	0.721763	0.482382	1.04048	0.899878	0.867865	0.688583	0.327206	0.434038	0.401082	0.118898	0.540924	0.148927	0.301734	-0.305883	
2.1225	0	0	-0.382824	-0.695602	0.041108	-0.0367345	0.226114	0.522476	0.524018	0.613041	0.713763	0.711788	0.384412	0.442076	0.802709	0.507704	0.703653	0.225304	1.56169	1.42892	0.721763	0.482382	1.03944	0.902821	0.870945	0.691679	0.331512	0.43304	0.404448	0.118512	0.54634	0.143616	0.304889	-0.306194	
2.12097	0	0	-0.386869	-0.706144	0.031313	-0.030334	0.223541	0.508315	0.51424	0.588234	0.706434	0.710126	0.374492	0.441892	0.805328	0.500302	0.702213	0.218685	1.56031	1.43282	0.721763	0.482382	1.0384	0.905764	0.874024	0.694775	0.335817	0.432042	0.407815	0.118125	0.551756	0.138304	0.308044	-0.306505	
2.1225	0	0	-0.390915	-0.716687	0.021518	-0.0239335	0.220968	0.494153	0.504462	0.563428	0.699106	0.708465	0.364571	0.441709	0.807947	0.4929	0.700773	0.212066	1.55893	1.43672	0.721763	0.482382	1.03736	0.908707	0.877104	0.697872	0.340122	0.431044	0.411182	0.117738	0.557172	0.132992	0.311199	-0.306816	
2.11639	0	0	-0.394961	-0.72723	0.011723	-0.017533	0.218395	0.479992	0.494683	0.538622	0.691777	0.706804	0.354651	0.441525	0.810566	0.485498	0.699333	0.205447	1.55755	1.44062	0.721763	0.482382	1.03632	0.91165	0.880184	0.700968	0.344428	0.430046	0.414548	0.117352	0.562588	0.127681	0.314354	-0.307127	
2.11334	0	0	-0.394965	-0.738197	0.005199	-0.0132703	0.218924	0.467788	0.491896	0.520333	0.691574	0.6962	0.353924	0.415401	0.811875	0.481799	0.697892	0.198837	1.56593	1.43214	0.715895	0.475786	1.0347	0.903659	0.881064	0.674889	0.342628	0.423965	0.405259	0.10712	0.557466	0.122172	0.310461	-0.31333	
2.11487	0	0	-0.394969	-0.749164	-0.001325	-0.0090075	0.219454	0.455584	0.489109	0.502044	0.691372	0.685596	0.353197	0.389277	0.813184	0.4781	0.69645	0.192227	1.57432	1.42367	0.710027	0.46919	1.03309	0.895669	0.881944	0.648809	0.340827	0.417883	0.395969	0.096888	0.552343	0.116664	0.306567	-0.319534	
2.11182	0	0	-0.394974	-0.76013	-0.007849	-0.00474475	0.219983	0.44338	0.486321	0.483755	0.691169	0.674993	0.35247	0.363154	0.814492	0.474402	0.695009	0.185617	1.58271	1.41519	0.704158	0.462595	1.03147	0.887679	0.882825	0.62273	0.339027	0.411802	0.38668	0.086656	0.547221	0.111155	0.302674	-0.325738	
2.10876	0	0	-0.394978	-0.771097	-0.014373	-0.000482	0.220513	0.431176	0.483534	0.465466	0.690966	0.664389	0.351743	0.33703	0.815801	0.470703	0.693568	0.179007	1.59109	1.40671	0.69829	0.455999	1.02986	0.879688	0.883705	0.59665	0.337226	0.405721	0.377391	0.076424	0.542099	0.105646	0.298781	-0.331941	
2.10876	0	0	-0.394978	-0.771097	-0.0176332	0.00164825	0.22635	0.425388	0.487357	0.472102	0.702244	0.654874	0.363184	0.332873	0.817109	0.467006	0.692126	0.172406	1.58547	1.40739	0.703083	0.442452	1.03772	0.870035	0.887218	0.586722	0.344036	0.397645	0.382383	0.0623158	0.545356	0.0964415	0.298845	-0.340719	
2.10724	0	0	-0.394978	-0.771097	-0.0208935	0.0037785	0.232186	0.4196	0.49118	0.478737	0.713523	0.64536	0.374625	0.328716	0.818418	0.463309	0.690684	0.165804	1.57984	1.40807	0.707877	0.428906	1.04557	0.860382	0.890731	0.576793	0.350846	0.38957	0.387375	0.0482075	0.548613	0.087237	0.298909	-0.349497	
2.10724	0	0	-0.394978	-0.771097	-0.0241538	0.00590875	0.238023	0.413811	0.495003	0.485373	0.724801	0.635845	0.386067	0.32456	0.819726	0.459611	0.689242	0.159203	1.57421	1.40875	0.71267	0.415359	1.05343	0.850728	0.894244	0.566864	0.357655	0.381495	0.392367	0.0340992	0.55187	0.0780325	0.298973	-0.358275	
2.10571	0	0	-0.394978	-0.771097	-0.027414	0.008039	0.24386	0.408023	0.498826	0.492009	0.73608	0.62633	0.397508	0.320403	0.821034	0.455914	0.6878	0.152602	1.56858	1.40942	0.717463	0.401813	1.06129	0.841075	0.897757	0.556936	0.364465	0.373419	0.397359	0.019991	0.555127	0.068828	0.299037	-0.367053	
2.10724	0	0	-0.404066	-0.76735	-0.0299155	0.0080285	0.234007	0.414461	0.489116	0.502011	0.733117	0.634704	0.395179	0.355205	0.816975	0.452885	0.686643	0.155871	1.57559	1.40485	0.716265	0.405197	1.06187	0.851997	0.905846	0.569474	0.367105	0.377133	0.402459	0.0329345	0.556468	0.0750283	0.302127	-0.358587	
2.10876	0	0	-0.413155	-0.763603	-0.032417	0.008018	0.224153	0.420899	0.479406	0.512012	0.730154	0.643077	0.39285	0.390008	0.812916	0.449856	0.685486	0.159141	1.5826	1.40027	0.715067	0.408582	1.06245	0.86292	0.913935	0.582012	0.369746	0.380848	0.407559	0.045878	0.557809	0.0812285	0.305217	-0.350121	
2.10876	0	0	-0.422243	-0.759857	-0.0349185	0.0080075	0.214299	0.427338	0.469697	0.522014	0.727191	0.651451	0.390522	0.42481	0.808857	0.446827	0.684329	0.16241	1.5896	1.39569	0.71387	0.411967	1.06303	0.873842	0.922024	0.594549	0.372386	0.384562	0.412659	0.0588215	0.559149	0.0874287	0.308306	-0.341656	
2.10266	0	0	-0.431332	-0.75611	-0.03742	0.007997	0.204446	0.433776	0.459987	0.532015	0.724228	0.659825	0.388193	0.459612	0.804798	0.443798	0.683172	0.16568	1.59661	1.39111	0.712672	0.415351	1.06361	0.884764	0.930113	0.607087	0.375026	0.388276	0.417759	0.071765	0.56049	0.093629	0.311396	-0.33319	
2.10724	0	0	-0.427294	-0.756557	-0.03742	0.007997	0.212096	0.422858	0.455333	0.527744	0.729165	0.645873	0.387832	0.446516	0.811472	0.439437	0.686642	0.155875	1.59937	1.38332	0.703214	0.418929	1.06569	0.878881	0.932459	0.600457	0.377668	0.391994	0.409415	0.0953472	0.560199	0.104447	0.312067	-0.317871	
2.10876	0	0	-0.423256	-0.757004	-0.03742	0.007997	0.219746	0.41194	0.45068	0.523473	0.734101	0.631922	0.387471	0.43342	0.818145	0.435076	0.690111	0.14607	1.60213	1.37553	0.693756	0.422507	1.06778	0.872998	0.934805	0.593827	0.380309	0.395712	0.40107	0.118929	0.559907	0.115266	0.312737	-0.302551	
2.11029	0	0	-0.419217	-0.757451	-0.03742	0.007997	0.227396	0.401022	0.446026	0.519202	0.739038	0.61797	0.38711	0.420325	0.824819	0.430716	0.69358	0.136266	1.60488	1.36773	0.684298	0.426085	1.06986	0.867115	0.937151	0.587197	0.38295	0.39943	0.392726	0.142512	0.559616	0.126084	0.313408	-0.287232	
2.11487	0	0	-0.415179	-0.757898	-0.03742	0.007997	0.235046	0.390104	0.441372	0.514931	0.743975	0.604018	0.386749	0.407229	0.831493	0.426355	0.69705	0.126461	1.60764	1.35994	0.67484	0.429663	1.07194	0.861232	0.939497	0.580567	0.385592	0.403148	0.384382	0.166094	0.559324	0.136903	0.314078	-0.271913	
2.11639	0	0	-0.411135	-0.747375	-0.03742	0.007997	0.236341	0.397152	0.451327	0.530385	0.749125	0.600653	0.401653	0.407486	0.8328	0.422662	0.695894	0.129728	1.60201	1.36063	0.680166	0.426183	1.07298	0.858292	0.938324	0.583881	0.387263	0.398427	0.381854	0.164116	0.556876	0.143823	0.304616	-0.270987	
2.12097	0	0	-0.407092	-0.736851	-0.03742	0.007997	0.237635	0.404199	0.461282	0.545839	0.754276	0.597287	0.416558	0.407744	0.834107	0.418969	0.694738	0.132995	1.59638	1.36131	0.685493	0.422702	1.07402	0.855352	0.937152	0.587195	0.388933	0.393706	0.379325	0.162138	0.554427	0.150744	0.295154	-0.270061	
2.12707	0	0	-0.403048	-0.726328	-0.03742	0.007997	0.23893	0.411247	0.471238	0.561293	0.759426	0.593922	0.431462	0.408002	0.835413	0.415277	0.693582	0.136262	1.59075	1.36199	0.690819	0.419222	1.07506	0.852411	0.935979	0.59051	0.390604	0.388984	0.376796	0.160161	0.551978	0.157664	0.285692	-0.269134	
2.13013	0	0	-0.399004	-0.715805	-0.03742	0.007997	0.240225	0.418295	0.481193	0.576747	0.764576	0.590557	0.446366	0.408259	0.83672	0.411584	0.692426	0.139529	1.58513	1.36268	0.696145	0.415742	1.0761	0.849471	0.934806	0.593824	0.392275	0.384263	0.374268	0.158183	0.54953	0.164584	0.27623	-0.268208	
2.13165	0	0	-0.391924	-0.702838	-0.0349185	0.0080075	0.242811	0.432421	0.478663	0.618841	0.763804	0.603935	0.455515	0.439059	0.840785	0.414606	0.697628	0.146186	1.59777	1.35741	0.696681	0.425806	1.08351	0.853673	0.941732	0.609718	0.389769	0.391346	0.379347	0.171214	0.56387	0.16409	0.276155	-0.259396	
2.13776	0	0	-0.384845	-0.68987	-0.032417	0.008018	0.245397	0.446546	0.476133	0.660935	0.763033	0.617312	0.464664	0.469859	0.84485	0.417629	0.70283	0.152842	1.61041	1.35215	0.697218	0.43587	1.09093	0.857875	0.948657	0.625611	0.387262	0.398429	0.384425	0.184244	0.57821	0.163597	0.276081	-0.250584	
2.14081	0	0	-0.377765	-0.676903	-0.0299155	0.0080285	0.247982	0.460672	0.473604	0.703029	0.762261	0.630689	0.473813	0.500659	0.848916	0.420652	0.708033	0.159499	1.62305	1.34688	0.697754	0.445935	1.09834	0.862077	0.955583	0.641505	0.384756	0.405512	0.389504	0.197275	0.592551	0.163103	0.276006	-0.241773	
