0.695	3.70178	0	0	-0.573604	-0.996689	0.411107	-0.227426	0.114994	0.025437	0.389821	0.690478	1.95014	2.40348	0.038746	1.05655	1.95039	1.80131	1.44392	2.2194	0.957099	0.399551	0.886009	1.10857	0.340989	0.47754	-0.49747	-0.000619	0.54722	0.623505	0.670727	0.841011	0.02041	-0.036886	0.68131	0.93333	
0.696829	3.6972	0	0	-0.575463	-1.00273	0.413811	-0.227543	0.110756	0.0258633	0.398233	0.687423	1.96315	2.40625	0.0371752	1.04565	1.96845	1.79593	1.44509	2.22836	0.961786	0.386304	0.884497	1.11284	0.339625	0.467593	-0.504919	-0.015261	0.544658	0.619246	0.666515	0.833308	0.010574	-0.0402602	0.680395	0.935915	
0.697471	3.69415	0	0	-0.577322	-1.00878	0.416515	-0.22766	0.106518	0.0262895	0.406645	0.684367	1.97616	2.40902	0.0356045	1.03475	1.98651	1.79056	1.44626	2.23732	0.966473	0.373057	0.882985	1.11711	0.33826	0.457647	-0.512367	-0.029903	0.542095	0.614987	0.662303	0.825605	0.000738	-0.0436345	0.67948	0.9385	
0.697115	3.68957	0	0	-0.579182	-1.01482	0.419218	-0.227778	0.10228	0.0267157	0.415057	0.681311	1.98917	2.41179	0.0340338	1.02386	2.00457	1.78519	1.44744	2.24628	0.971161	0.359811	0.881472	1.12139	0.336896	0.447701	-0.519815	-0.044545	0.539532	0.610728	0.658092	0.817902	-0.009098	-0.0470088	0.678566	0.941086	
0.69595	3.6911	0	0	-0.581041	-1.02086	0.421922	-0.227895	0.098042	0.027142	0.423469	0.678256	2.00217	2.41456	0.032463	1.01296	2.02263	1.77982	1.44861	2.25524	0.975848	0.346564	0.87996	1.12566	0.335532	0.437754	-0.527264	-0.059187	0.53697	0.606469	0.65388	0.810199	-0.018934	-0.050383	0.677651	0.943671	
0.694165	3.68347	0	0	-0.577323	-1.00877	0.419643	-0.221455	0.097963	0.038916	0.434108	0.710481	2.00783	2.42498	0.0340338	1.02386	2.02778	1.79577	1.45244	2.26898	0.988646	0.358584	0.893498	1.12668	0.344501	0.44002	-0.524703	-0.066424	0.53788	0.603898	0.659352	0.804535	-0.0171315	-0.0554775	0.682722	0.93837	
0.691947	3.68194	0	0	-0.573605	-0.996672	0.417365	-0.215016	0.097884	0.05069	0.444747	0.742707	2.01348	2.43539	0.0356045	1.03475	2.03293	1.81173	1.45628	2.28272	1.00144	0.370605	0.907035	1.1277	0.35347	0.442287	-0.522142	-0.073661	0.53879	0.601327	0.664824	0.79887	-0.015329	-0.060572	0.687793	0.933069	
0.689487	3.67889	0	0	-0.569887	-0.984576	0.415086	-0.208576	0.097805	0.062464	0.455387	0.774933	2.01914	2.44581	0.0371752	1.04565	2.03808	1.82769	1.46011	2.29645	1.01424	0.382626	0.920573	1.12873	0.362439	0.444553	-0.519582	-0.080898	0.539699	0.598756	0.670297	0.793206	-0.0135265	-0.0656665	0.692864	0.927767	
0.686973	3.68042	0	0	-0.566169	-0.97248	0.412807	-0.202137	0.097726	0.074238	0.466026	0.807158	2.0248	2.45623	0.038746	1.05655	2.04323	1.84365	1.46394	2.31019	1.02704	0.394646	0.934111	1.12975	0.371408	0.446819	-0.517021	-0.088135	0.540609	0.596185	0.675769	0.787541	-0.011724	-0.070761	0.697935	0.922466	
0.684592	3.68347	0	0	-0.57472	-0.959618	0.412047	-0.199989	0.0955655	0.0803443	0.451053	0.839078	2.02697	2.46329	0.041595	1.09458	2.0458	1.85165	1.46095	2.31866	1.04844	0.414772	0.938601	1.14329	0.380512	0.462589	-0.510849	-0.0698855	0.546647	0.602128	0.685835	0.808171	-0.013258	-0.0560408	0.699845	0.935143	
0.682535	3.68805	0	0	-0.583271	-0.946756	0.411288	-0.197842	0.093405	0.0864505	0.43608	0.870997	2.02915	2.47034	0.044444	1.13261	2.04838	1.85965	1.45795	2.32712	1.06983	0.434899	0.943092	1.15683	0.389615	0.47836	-0.504676	-0.051636	0.552686	0.608071	0.695901	0.828801	-0.014792	-0.0413205	0.701755	0.94782	
0.68099	3.6911	0	0	-0.591823	-0.933894	0.410528	-0.195694	0.0912445	0.0925567	0.421106	0.902917	2.03133	2.4774	0.047293	1.17065	2.05095	1.86765	1.45496	2.33559	1.09123	0.455026	0.947582	1.17037	0.398719	0.49413	-0.498504	-0.0333865	0.558725	0.614014	0.705968	0.849432	-0.016326	-0.0266003	0.703665	0.960496	
0.680109	3.69415	0	0	-0.600374	-0.921032	0.409768	-0.193546	0.089084	0.098663	0.406133	0.934836	2.03351	2.48446	0.050142	1.20868	2.05352	1.87565	1.45196	2.34405	1.11263	0.475152	0.952073	1.18392	0.407822	0.5099	-0.492332	-0.015137	0.564763	0.619957	0.716034	0.870062	-0.01786	-0.01188	0.705575	0.973173	
0.6799	3.70178	0	0	-0.609655	-0.917393	0.406305	-0.191283	0.0806152	0.099502	0.405883	0.925153	2.02785	2.47403	0.0433532	1.19713	2.05501	1.87145	1.4493	2.33928	1.13024	0.473911	0.959605	1.1889	0.405318	0.516976	-0.502004	-0.0116067	0.560205	0.632838	0.713483	0.89694	-0.0155235	0.0023045	0.702397	0.991198	
0.680336	3.70331	0	0	-0.618935	-0.913755	0.402842	-0.18902	0.0721465	0.100341	0.405633	0.915469	2.0222	2.46359	0.0365645	1.18558	2.05649	1.86725	1.44664	2.33451	1.14784	0.47267	0.967137	1.19388	0.402814	0.524053	-0.511675	-0.0080765	0.555647	0.64572	0.710932	0.923817	-0.013187	0.016489	0.699219	1.00922	
0.681392	3.70788	0	0	-0.628216	-0.910116	0.399379	-0.186758	0.0636778	0.10118	0.405382	0.905785	2.01654	2.45316	0.0297758	1.17403	2.05798	1.86305	1.44398	2.32974	1.16545	0.47143	0.97467	1.19887	0.40031	0.53113	-0.521346	-0.00454625	0.551089	0.658601	0.708381	0.950695	-0.0108505	0.0306735	0.696042	1.02725	
0.683041	3.71094	0	0	-0.637497	-0.906478	0.395916	-0.184495	0.055209	0.102019	0.405132	0.896102	2.01088	2.44272	0.022987	1.16248	2.05947	1.85885	1.44132	2.32497	1.18306	0.470189	0.982202	1.20385	0.397806	0.538206	-0.531018	-0.001016	0.546531	0.671482	0.70583	0.977573	-0.008514	0.044858	0.692864	1.04527	
0.685248	3.71246	0	0	-0.629333	-0.90696	0.398619	-0.18461	0.0583615	0.104654	0.412434	0.896252	2.00611	2.44302	0.0337295	1.14748	2.05798	1.86305	1.43567	2.32867	1.18421	0.483151	0.99431	1.19594	0.397806	0.538206	-0.53008	-0.0155587	0.546531	0.671482	0.707416	0.953423	-0.00787425	0.0326533	0.691456	1.04021	
0.68782	3.70941	0	0	-0.621169	-0.907442	0.401322	-0.184725	0.061514	0.107289	0.419736	0.896402	2.00134	2.44332	0.044472	1.13248	2.05649	1.86725	1.43001	2.33236	1.18536	0.496112	1.00642	1.18803	0.397806	0.538206	-0.529141	-0.0301015	0.546531	0.671482	0.709001	0.929274	-0.0072345	0.0204485	0.690049	1.03514	
0.690423	3.71246	0	0	-0.613006	-0.907925	0.404025	-0.184839	0.0646665	0.109923	0.427039	0.896553	1.99656	2.44362	0.0552145	1.11749	2.05501	1.87145	1.42436	2.33606	1.1865	0.509074	1.01853	1.18011	0.397806	0.538206	-0.528202	-0.0446442	0.546531	0.671482	0.710587	0.905124	-0.00659475	0.00824375	0.688641	1.03008	
0.692714	3.70788	0	0	-0.604842	-0.908407	0.406728	-0.184954	0.067819	0.112558	0.434341	0.896703	1.99179	2.44391	0.065957	1.10249	2.05352	1.87565	1.41871	2.33975	1.18765	0.522035	1.03063	1.1722	0.397806	0.538206	-0.527264	-0.059187	0.546531	0.671482	0.712173	0.880974	-0.005955	-0.003961	0.687233	1.02501	
0.694354	3.70788	0	0	-0.605622	-0.883585	0.408671	-0.18292	0.0666443	0.127429	0.427778	0.925653	1.99309	2.44024	0.0675228	1.11344	2.05758	1.87946	1.4202	2.33552	1.19037	0.530557	1.03365	1.17684	0.396553	0.541746	-0.523073	-0.059142	0.551831	0.668019	0.71729	0.856685	-0.005955	-0.003961	0.690477	1.02489	
0.695	3.70026	0	0	-0.606402	-0.858764	0.410615	-0.180886	0.0654695	0.142299	0.421215	0.954603	1.99438	2.43657	0.0690885	1.12438	2.06165	1.88326	1.4217	2.33129	1.1931	0.539079	1.03667	1.18148	0.3953	0.545287	-0.518881	-0.059097	0.55713	0.664556	0.722408	0.832396	-0.005955	-0.003961	0.693721	1.02476	
0.694444	3.69263	0	0	-0.607181	-0.833942	0.412558	-0.178852	0.0642947	0.15717	0.414653	0.983553	1.99568	2.4329	0.0706543	1.13533	2.06571	1.88707	1.4232	2.32706	1.19582	0.547601	1.03969	1.18612	0.394048	0.548828	-0.51469	-0.059052	0.56243	0.661093	0.727526	0.808108	-0.005955	-0.003961	0.696966	1.02463	
0.693048	3.68652	0	0	-0.607961	-0.80912	0.414502	-0.176818	0.06312	0.17204	0.40809	1.0125	1.99698	2.42923	0.07222	1.14628	2.06977	1.89088	1.42469	2.32283	1.19854	0.556123	1.0427	1.19076	0.392795	0.552368	-0.510499	-0.059007	0.56773	0.65763	0.732643	0.783819	-0.005955	-0.003961	0.70021	1.02451	
0.691327	3.68042	0	0	-0.607568	-0.821544	0.415262	-0.178967	0.0610508	0.166337	0.400935	0.970397	1.98485	2.43716	0.0457893	1.15956	2.06828	1.89509	1.42054	2.3223	1.20012	0.551655	1.04725	1.1911	0.39541	0.558831	-0.507242	-0.04441	0.576514	0.655855	0.734276	0.789028	-0.002712	0.00767325	0.710447	1.0318	
0.689797	3.67126	0	0	-0.607174	-0.833967	0.416023	-0.181116	0.0589815	0.160634	0.39378	0.92829	1.97271	2.44509	0.0193585	1.17284	2.06679	1.89929	1.41639	2.32176	1.20171	0.547186	1.05179	1.19144	0.398025	0.565295	-0.503985	-0.029813	0.585299	0.654081	0.73591	0.794238	0.000531	0.0193075	0.720684	1.03909	
0.688972	3.66363	0	0	-0.606781	-0.846391	0.416784	-0.183265	0.0569122	0.154931	0.386624	0.886184	1.96058	2.45302	-0.00707225	1.18612	2.0653	1.9035	1.41223	2.32122	1.20329	0.542717	1.05633	1.19178	0.400639	0.571758	-0.500727	-0.015216	0.594083	0.652306	0.737544	0.799447	0.003774	0.0309418	0.730921	1.04637	
0.689344	3.656	0	0	-0.606388	-0.858815	0.417544	-0.185414	0.054843	0.149228	0.379469	0.844078	1.94845	2.46095	-0.033503	1.19939	2.06381	1.9077	1.40808	2.32069	1.20487	0.538249	1.06087	1.19212	0.403254	0.578221	-0.49747	-0.000619	0.602868	0.650531	0.739177	0.804656	0.007017	0.042576	0.741158	1.05366	
0.69074	3.65295	0	0	-0.611202	-0.867815	0.412137	-0.185184	0.0538545	0.140479	0.370285	0.818253	1.95711	2.44965	-0.03998	1.17177	2.06828	1.89509	1.40692	2.31171	1.18338	0.518029	1.06089	1.17888	0.40952	0.560512	-0.507827	-0.0189245	0.598474	0.651419	0.727543	0.808073	0.00430025	0.0502537	0.729572	1.05923	
0.692262	3.64227	0	0	-0.616015	-0.876815	0.40673	-0.184954	0.052866	0.131729	0.3611	0.792429	1.96577	2.43835	-0.046457	1.14414	2.07274	1.88248	1.40576	2.30272	1.16189	0.497808	1.06092	1.16565	0.415786	0.542803	-0.518183	-0.03723	0.594081	0.652307	0.715909	0.811489	0.0015835	0.0579315	0.717986	1.06481	
0.692974	3.65143	0	0	-0.620829	-0.885816	0.401323	-0.184725	0.0518775	0.122979	0.351916	0.766605	1.97443	2.42705	-0.052934	1.11651	2.0772	1.86987	1.40459	2.29374	1.14041	0.477587	1.06094	1.15241	0.422052	0.525095	-0.52854	-0.0555355	0.589687	0.653195	0.704274	0.814906	-0.00113325	0.0656093	0.706401	1.07038	
0.691938	3.64685	0	0	-0.625642	-0.894816	0.395916	-0.184495	0.050889	0.11423	0.342732	0.74078	1.98309	2.41575	-0.059411	1.08888	2.08166	1.85726	1.40343	2.28476	1.11892	0.457367	1.06096	1.13918	0.428318	0.507386	-0.538896	-0.073841	0.585293	0.654083	0.69264	0.818323	-0.00385	0.073287	0.694815	1.07595	
0.688218	3.64227	0	0	-0.617473	-0.895298	0.402083	-0.186873	0.0551215	0.113812	0.346369	0.740846	1.98698	2.40476	-0.0536712	1.05737	2.08464	1.84886	1.39663	2.27948	1.11662	0.431583	1.05794	1.13455	0.425696	0.500944	-0.539961	-0.106434	0.588941	0.643774	0.686126	0.797522	-0.0020385	0.0681677	0.701739	1.06543	
0.681306	3.63922	0	0	-0.609305	-0.89578	0.40825	-0.189252	0.059354	0.113394	0.350005	0.740913	1.99087	2.39377	-0.0479315	1.02587	2.08761	1.84046	1.38983	2.2742	1.11432	0.405799	1.05491	1.12992	0.423073	0.494502	-0.541025	-0.139028	0.592589	0.633464	0.679612	0.776722	-0.000227	0.0630485	0.708664	1.05492	
0.672622	3.63464	0	0	-0.601136	-0.896262	0.414418	-0.19163	0.0635865	0.112976	0.353642	0.74098	1.99475	2.38278	-0.0421918	0.994361	2.09058	1.83207	1.38302	2.26891	1.11202	0.380016	1.05189	1.12529	0.420451	0.488059	-0.54209	-0.171621	0.596237	0.623155	0.673097	0.755921	0.0015845	0.0579293	0.715588	1.0444	
0.664133	3.64075	0	0	-0.592967	-0.896744	0.420585	-0.194009	0.067819	0.112558	0.357279	0.741046	1.99864	2.37179	-0.036452	0.962854	2.09355	1.82367	1.37622	2.26363	1.10973	0.354232	1.04887	1.12067	0.417829	0.481617	-0.543154	-0.204214	0.599885	0.612846	0.666583	0.73512	0.003396	0.05281	0.722512	1.03388	
0.657801	3.65143	0	0	-0.602645	-0.880699	0.414418	-0.19163	0.064575	0.121726	0.341005	0.766356	1.99994	2.36813	-0.0262758	0.979989	2.09652	1.81528	1.38069	2.251	1.09531	0.346651	1.05039	1.11638	0.417829	0.481617	-0.544428	-0.200614	0.603368	0.614532	0.678196	0.731702	0.00728075	0.052239	0.721593	1.03648	
0.655593	3.66058	0	0	-0.612322	-0.864654	0.40825	-0.189252	0.061331	0.130893	0.324731	0.791665	2.00123	2.36447	-0.0160995	0.997124	2.09949	1.80689	1.38516	2.23836	1.0809	0.33907	1.05191	1.11209	0.417829	0.481617	-0.545702	-0.197013	0.606851	0.616217	0.689808	0.728284	0.0111655	0.051668	0.720674	1.03908	
0.65922	3.66821	0	0	-0.622	-0.848609	0.402083	-0.186873	0.058087	0.140061	0.308456	0.816975	2.00253	2.36081	-0.00592325	1.01426	2.10245	1.7985	1.38963	2.22573	1.06648	0.33149	1.05342	1.1078	0.417829	0.481617	-0.546976	-0.193413	0.610334	0.617903	0.701421	0.724866	0.0150503	0.051097	0.719755	1.04168	
0.667886	3.68042	0	0	-0.631678	-0.832564	0.395916	-0.184495	0.054843	0.149228	0.292182	0.842285	2.00382	2.35715	0.004253	1.03139	2.10542	1.79011	1.3941	2.21309	1.05207	0.323909	1.05494	1.10351	0.417829	0.481617	-0.54825	-0.189812	0.613817	0.619589	0.713033	0.721448	0.018935	0.050526	0.718836	1.04427	
0.679361	3.68042	0	0	-0.632404	-0.841811	0.387055	-0.182007	0.049625	0.140895	0.278303	0.819596	1.9947	2.34344	-0.00071	1.01481	2.09877	1.77836	1.38879	2.20363	1.05248	0.306688	1.04587	1.10284	0.407591	0.482875	-0.558806	-0.171832	0.615476	0.626435	0.709563	0.750882	0.020362	0.067327	0.719813	1.05963	
0.6914	3.685	0	0	-0.633129	-0.851058	0.378194	-0.179519	0.044407	0.132562	0.264424	0.796907	1.98557	2.32974	-0.005673	0.998227	2.09211	1.76661	1.38348	2.19418	1.05288	0.289466	1.03679	1.10218	0.397354	0.484133	-0.569362	-0.153852	0.617136	0.633281	0.706093	0.780315	0.021789	0.084128	0.720791	1.07499	
0.701756	3.68957	0	0	-0.633855	-0.860306	0.369334	-0.177031	0.039189	0.12423	0.250545	0.774218	1.97644	2.31603	-0.010636	0.981644	2.08546	1.75487	1.37816	2.18472	1.05329	0.272245	1.02772	1.10152	0.387117	0.48539	-0.579917	-0.135872	0.618795	0.640127	0.702622	0.809749	0.023216	0.100929	0.721769	1.09034	
0.708186	3.69263	0	0	-0.634581	-0.869553	0.360473	-0.174543	0.033971	0.115897	0.236666	0.751529	1.96731	2.30233	-0.015599	0.965061	2.0788	1.74312	1.37285	2.17526	1.05369	0.255024	1.01865	1.10085	0.376879	0.486648	-0.590473	-0.117892	0.620455	0.646973	0.699152	0.839183	0.024643	0.11773	0.722746	1.1057	
0.709165	3.69873	0	0	-0.630499	-0.869791	0.360473	-0.174543	0.0392805	0.112427	0.23615	0.732396	1.96552	2.28109	-0.025772	0.947992	2.07363	1.72723	1.36754	2.16583	1.03505	0.243535	1.01261	1.09163	0.372895	0.470274	-0.596624	-0.136021	0.614401	0.641018	0.690718	0.823788	0.0216628	0.115733	0.715763	1.09826	
0.70568	3.71399	0	0	-0.626417	-0.87003	0.360473	-0.174543	0.04459	0.108958	0.235633	0.713263	1.96374	2.25984	-0.035945	0.930924	2.06845	1.71134	1.36223	2.15639	1.01641	0.232046	1.00658	1.08241	0.36891	0.4539	-0.602774	-0.154149	0.608347	0.635062	0.682284	0.808392	0.0186825	0.113735	0.708781	1.09082	
0.699257	3.7323	0	0	-0.622335	-0.870268	0.360473	-0.174543	0.0498995	0.105488	0.235117	0.694129	1.96195	2.2386	-0.046118	0.913855	2.06328	1.69545	1.35692	2.14695	0.997767	0.220558	1.00055	1.07318	0.364926	0.437525	-0.608925	-0.172278	0.602292	0.629107	0.673849	0.792996	0.0157023	0.111738	0.701798	1.08339	
0.691425	3.74603	0	0	-0.618253	-0.870506	0.360473	-0.174543	0.055209	0.102019	0.234601	0.674996	1.96017	2.21736	-0.056291	0.896786	2.05811	1.67957	1.35161	2.13752	0.979126	0.209069	0.99452	1.06396	0.360941	0.421151	-0.615076	-0.190407	0.596238	0.623151	0.665415	0.777601	0.012722	0.10974	0.694815	1.07595	
0.683711	3.76434	0	0	-0.614559	-0.858327	0.359713	-0.172396	0.0551175	0.113821	0.232873	0.700472	1.96146	2.21372	-0.044296	0.908706	2.06253	1.66706	1.35309	2.13333	0.970605	0.201148	0.997545	1.05541	0.355834	0.421781	-0.609631	-0.193964	0.595326	0.625728	0.664748	0.769692	0.0138858	0.116872	0.692975	1.08115	
0.677568	3.7857	0	0	-0.610866	-0.846148	0.358953	-0.170249	0.055026	0.125623	0.231145	0.725948	1.96274	2.21008	-0.032301	0.920626	2.06696	1.65456	1.35457	2.12913	0.962084	0.193227	1.00057	1.04686	0.350728	0.422411	-0.604186	-0.197522	0.594415	0.628305	0.66408	0.761783	0.0150495	0.124003	0.691135	1.08635	
0.673348	3.79791	0	0	-0.607172	-0.833968	0.358194	-0.168102	0.0549345	0.137426	0.229416	0.751424	1.96403	2.20645	-0.020306	0.932546	2.07138	1.64205	1.35606	2.12494	0.953562	0.185306	1.0036	1.03831	0.345622	0.423041	-0.598742	-0.20108	0.593503	0.630882	0.663412	0.753875	0.0162132	0.131134	0.689296	1.09155	
0.670552	3.81164	0	0	-0.603478	-0.821789	0.357434	-0.165955	0.054843	0.149228	0.227688	0.7769	1.96532	2.20281	-0.008311	0.944466	2.0758	1.62955	1.35754	2.12075	0.945041	0.177385	1.00662	1.02976	0.340515	0.423671	-0.593297	-0.204637	0.592591	0.633459	0.662745	0.745966	0.017377	0.138266	0.687456	1.09675	
0.66866	3.82538	0	0	-0.60837	-0.796646	0.362073	-0.164031	0.0494295	0.164528	0.198624	0.817877	1.94374	2.21132	-0.00726875	0.987453	2.0592	1.63079	1.34631	2.12809	0.94349	0.181768	0.99907	1.03798	0.339385	0.440666	-0.58969	-0.179298	0.592421	0.645469	0.665704	0.767006	0.0256653	0.15658	0.691186	1.10431	
0.667153	3.83453	0	0	-0.613261	-0.771502	0.366711	-0.162108	0.044016	0.179828	0.169561	0.858854	1.92217	2.21983	-0.0062265	1.03044	2.0426	1.63204	1.33507	2.13543	0.941939	0.186151	0.991518	1.0462	0.338256	0.457661	-0.586083	-0.15396	0.592251	0.657479	0.668662	0.788045	0.0339535	0.174894	0.694917	1.11188	
0.665512	3.83911	0	0	-0.618153	-0.746359	0.37135	-0.160185	0.0386025	0.195128	0.140497	0.899831	1.90059	2.22834	-0.00518425	1.07343	2.026	1.63329	1.32384	2.14277	0.940389	0.190534	0.983966	1.05442	0.337126	0.474656	-0.582475	-0.128621	0.59208	0.66949	0.671621	0.809085	0.0422418	0.193208	0.698647	1.11945	
0.663389	3.83911	0	0	-0.623045	-0.721216	0.375989	-0.158261	0.033189	0.210428	0.111433	0.940808	1.87902	2.23685	-0.004142	1.11641	2.0094	1.63454	1.3126	2.15012	0.938838	0.194917	0.976415	1.06264	0.335996	0.491651	-0.578868	-0.103283	0.59191	0.6815	0.674579	0.830125	0.05053	0.211522	0.702378	1.12701	
0.660747	3.84216	0	0	-0.628671	-0.705317	0.380632	-0.156337	0.0299363	0.21962	0.113007	0.956929	1.86697	2.24472	0.0008025	1.13312	2.00646	1.64286	1.31112	2.15431	0.947356	0.202847	0.968867	1.07086	0.338711	0.511613	-0.589103	-0.074358	0.594116	0.709897	0.678515	0.877945	0.057469	0.254695	0.698264	1.16584	
0.657584	3.84216	0	0	-0.634297	-0.689418	0.385274	-0.154413	0.0266835	0.228813	0.114582	0.973049	1.85492	2.25259	0.005747	1.14983	2.00351	1.65118	1.30963	2.1585	0.955874	0.210777	0.961319	1.07907	0.341426	0.531575	-0.599338	-0.045433	0.596321	0.738294	0.68245	0.925764	0.064408	0.297868	0.69415	1.20466	
0.653895	3.84369	0	0	-0.639922	-0.673518	0.389916	-0.152488	0.0234308	0.238006	0.116156	0.98917	1.84287	2.26046	0.0106915	1.16654	2.00057	1.6595	1.30815	2.16269	0.964392	0.218706	0.953772	1.08729	0.34414	0.551537	-0.609572	-0.016508	0.598527	0.766691	0.686385	0.973584	0.071347	0.34104	0.690036	1.24349	
0.649679	3.84827	0	0	-0.645548	-0.657619	0.394559	-0.150564	0.020178	0.247198	0.11773	1.00529	1.83082	2.26834	0.015636	1.18325	1.99762	1.66783	1.30667	2.16688	0.97291	0.226636	0.946224	1.09551	0.346855	0.571499	-0.619807	0.012417	0.600733	0.795088	0.690321	1.0214	0.078286	0.384213	0.685922	1.28231	
0.644989	3.85284	0	0	-0.645271	-0.635743	0.405039	-0.142517	0.016804	0.268284	0.121057	1.04741	1.82696	2.27924	0.025815	1.20061	1.98658	1.66864	1.31048	2.18053	0.972503	0.243808	0.93565	1.11229	0.348208	0.581509	-0.623981	0.0123608	0.594499	0.801155	0.68838	1.02689	0.0815065	0.396086	0.687786	1.2952	
0.640073	3.85284	0	0	-0.644993	-0.613868	0.415519	-0.13447	0.01343	0.28937	0.124383	1.08953	1.8231	2.29015	0.035994	1.21797	1.97554	1.66946	1.31428	2.19418	0.972096	0.260981	0.925076	1.12908	0.349561	0.591519	-0.628154	0.0123045	0.588265	0.807222	0.68644	1.03237	0.084727	0.407959	0.68965	1.30808	
0.635214	3.85437	0	0	-0.644716	-0.591992	0.426	-0.126423	0.010056	0.310457	0.12771	1.13166	1.81924	2.30106	0.046173	1.23532	1.9645	1.67027	1.31809	2.20782	0.971688	0.278153	0.914502	1.14586	0.350913	0.601528	-0.632328	0.0122482	0.582032	0.81329	0.6845	1.03786	0.0879475	0.419831	0.691513	1.32097	
0.630696	3.85437	0	0	-0.644439	-0.570116	0.43648	-0.118376	0.006682	0.331543	0.131036	1.17378	1.81538	2.31196	0.056352	1.25268	1.95346	1.67109	1.3219	2.22147	0.971281	0.295326	0.903928	1.16264	0.352266	0.611538	-0.636502	0.012192	0.575798	0.819357	0.682559	1.04334	0.091168	0.431704	0.693377	1.33386	
0.626803	3.86047	0	0	-0.643493	-0.538748	0.454361	-0.108488	0.00546825	0.346531	0.140009	1.20008	1.81023	2.32653	0.064693	1.27534	1.95456	1.68317	1.32836	2.23991	0.988764	0.294067	0.908406	1.1762	0.35352	0.607994	-0.632328	0.0122482	0.57488	0.821951	0.681911	1.03533	0.0854198	0.437459	0.698025	1.33889	
0.62375	3.86352	0	0	-0.642548	-0.507381	0.472243	-0.0985995	0.0042545	0.361519	0.148983	1.22639	1.80508	2.34109	0.073034	1.298	1.95566	1.69526	1.33481	2.25835	1.00625	0.292807	0.912884	1.18975	0.354774	0.604449	-0.628154	0.0123045	0.573962	0.824545	0.681264	1.02733	0.0796715	0.443214	0.702673	1.34393	
0.621515	3.87115	0	0	-0.641602	-0.476013	0.490124	-0.0887113	0.00304075	0.376508	0.157956	1.2527	1.79993	2.35565	0.081375	1.32067	1.95675	1.70735	1.34126	2.27678	1.02373	0.291547	0.917363	1.20331	0.356028	0.600904	-0.623981	0.0123608	0.573044	0.82714	0.680616	1.01932	0.0739232	0.448969	0.707321	1.34896	
0.620026	3.88489	0	0	-0.640656	-0.444646	0.508006	-0.078823	0.001827	0.391496	0.166929	1.279	1.79477	2.37021	0.089716	1.34333	1.95785	1.71943	1.34772	2.29522	1.04121	0.290288	0.921841	1.21687	0.357282	0.59736	-0.619807	0.012417	0.572126	0.829734	0.679968	1.01131	0.068175	0.454724	0.711969	1.354	
0.619213	3.9032	0	0	-0.653375	-0.431401	0.513442	-0.0790505	-0.00240275	0.391892	0.150934	1.26223	1.80812	2.398	0.0841542	1.35905	1.98325	1.75429	1.35832	2.31427	1.05207	0.324002	0.923319	1.22581	0.361239	0.613873	-0.63232	0.0122455	0.583296	0.844412	0.686116	1.01362	0.0831278	0.464976	0.741803	1.36081	
0.619004	3.93066	0	0	-0.666094	-0.418156	0.518879	-0.079278	-0.0066325	0.392288	0.13494	1.24545	1.82147	2.42579	0.0785925	1.37477	2.00866	1.78914	1.36892	2.33333	1.06292	0.357716	0.924797	1.23476	0.365197	0.630385	-0.644832	0.012074	0.594466	0.85909	0.692264	1.01592	0.0980805	0.475228	0.771637	1.36761	
0.619346	3.9566	0	0	-0.678812	-0.404912	0.524315	-0.0795055	-0.0108622	0.392684	0.118945	1.22867	1.83482	2.45359	0.0730308	1.39049	2.03406	1.82399	1.37952	2.35239	1.07378	0.39143	0.926276	1.2437	0.369154	0.646898	-0.657344	0.0119025	0.605636	0.873769	0.698411	1.01823	0.113033	0.485481	0.801472	1.37442	
0.620236	3.9917	0	0	-0.691531	-0.391667	0.529751	-0.079733	-0.015092	0.39308	0.102951	1.21189	1.84816	2.48138	0.067469	1.4062	2.05947	1.85885	1.39012	2.37144	1.08463	0.425144	0.927754	1.25265	0.373111	0.66341	-0.669857	0.011731	0.616806	0.888447	0.704559	1.02053	0.127986	0.495733	0.831306	1.38123	
0.621682	4.02374	0	0	-0.692892	-0.410493	0.523127	-0.083714	-0.0223257	0.378892	0.0915288	1.18239	1.87064	2.48361	0.052069	1.3881	2.08687	1.8733	1.39958	2.38155	1.07564	0.434429	0.927754	1.25265	0.370595	0.67052	-0.695124	0.000489	0.625428	0.898841	0.70132	1.03953	0.126361	0.510846	0.843945	1.39124	
0.623692	4.05884	0	0	-0.694254	-0.429318	0.516504	-0.087695	-0.0295595	0.364705	0.0801065	1.1529	1.89311	2.48584	0.036669	1.37	2.11428	1.88774	1.40904	2.39165	1.06665	0.443715	0.927754	1.25265	0.36808	0.677631	-0.720391	-0.010753	0.634049	0.909234	0.698081	1.05853	0.124736	0.525958	0.856584	1.40125	
0.626273	4.07257	0	0	-0.695615	-0.448144	0.50988	-0.091676	-0.0367932	0.350518	0.0686843	1.1234	1.91558	2.48808	0.021269	1.3519	2.14169	1.90219	1.41851	2.40176	1.05767	0.453	0.927754	1.25265	0.365564	0.684741	-0.745657	-0.021995	0.64267	0.919628	0.694842	1.07754	0.123111	0.541071	0.869223	1.41126	
0.62939	4.09851	0	0	-0.696976	-0.46697	0.503257	-0.095657	-0.044027	0.33633	0.057262	1.0939	1.93806	2.49031	0.005869	1.3338	2.16909	1.91664	1.42797	2.41187	1.04868	0.462285	0.927754	1.25265	0.363048	0.691851	-0.770924	-0.033237	0.651292	0.930022	0.691603	1.09654	0.121486	0.556184	0.881862	1.42127	
0.632885	4.11987	0	0	-0.697222	-0.488922	0.499355	-0.0997475	-0.0385985	0.320988	0.0629118	1.07794	1.94976	2.49679	0.0150953	1.30773	2.18135	1.92811	1.4401	2.42681	1.04911	0.444963	0.923236	1.25229	0.360445	0.685354	-0.779864	-0.0550355	0.649647	0.923079	0.690959	1.08851	0.126107	0.543126	0.886536	1.40806	
0.636576	4.13208	0	0	-0.697467	-0.510873	0.495452	-0.103838	-0.03317	0.305646	0.0685615	1.06197	1.96146	2.50328	0.0243215	1.28165	2.19361	1.93959	1.45224	2.44174	1.04954	0.42764	0.918718	1.25194	0.357842	0.678856	-0.788803	-0.076834	0.648001	0.916136	0.690314	1.08048	0.130727	0.530067	0.891209	1.39485	
0.640278	4.14276	0	0	-0.697712	-0.532825	0.49155	-0.107928	-0.0277415	0.290304	0.0742113	1.046	1.97317	2.50976	0.0335478	1.25558	2.20587	1.95107	1.46438	2.45668	1.04997	0.410318	0.9142	1.25159	0.355239	0.672359	-0.797743	-0.0986325	0.646355	0.909193	0.68967	1.07246	0.135348	0.517008	0.895883	1.38164	
0.643811	4.15192	0	0	-0.697958	-0.554777	0.487648	-0.112019	-0.022313	0.274962	0.079861	1.03004	1.98487	2.51624	0.042774	1.2295	2.21813	1.96254	1.47652	2.47162	1.0504	0.392996	0.909682	1.25124	0.352636	0.665862	-0.806683	-0.120431	0.64471	0.90225	0.689026	1.06443	0.139968	0.50395	0.900557	1.36843	
0.647018	4.15344	0	0	-0.694573	-0.564344	0.488412	-0.114177	-0.0265347	0.275364	0.084809	1.03662	1.98704	2.52332	0.0424768	1.24573	2.21922	1.97485	1.48601	2.4818	1.03332	0.376977	0.911202	1.24694	0.352544	0.652281	-0.809885	-0.13487	0.650238	0.886628	0.693879	1.05071	0.143426	0.483657	0.898664	1.35548	
0.649875	4.16412	0	0	-0.691188	-0.57391	0.489175	-0.116334	-0.0307565	0.275766	0.089757	1.04321	1.98921	2.53039	0.0421795	1.26196	2.22032	1.98716	1.49551	2.49198	1.01625	0.360958	0.912722	1.24264	0.352451	0.6387	-0.813087	-0.149308	0.655766	0.871006	0.698732	1.037	0.146885	0.463364	0.896771	1.34252	
0.652394	4.16717	0	0	-0.687802	-0.583477	0.489939	-0.118492	-0.0349783	0.276168	0.094705	1.04979	1.99138	2.53747	0.0418822	1.27818	2.22141	1.99946	1.50501	2.50215	0.999168	0.344938	0.914243	1.23835	0.352359	0.625119	-0.816289	-0.163747	0.661293	0.855384	0.703586	1.02328	0.150343	0.443071	0.894877	1.32957	
0.654589	4.1748	0	0	-0.684417	-0.593044	0.490703	-0.12065	-0.0392	0.27657	0.099653	1.05638	1.99355	2.54454	0.041585	1.29441	2.22251	2.01177	1.51451	2.51233	0.982091	0.328919	0.915763	1.23405	0.352266	0.611538	-0.819491	-0.178185	0.666821	0.839762	0.708439	1.00957	0.153801	0.422778	0.892984	1.31661	
0.656474	4.18091	0	0	-0.684417	-0.593044	0.491466	-0.122807	-0.0402845	0.279635	0.095333	1.07888	1.99702	2.54794	0.0551612	1.31771	2.2322	2.01522	1.52251	2.52681	0.976686	0.312138	0.920282	1.2344	0.352266	0.611538	-0.816289	-0.163747	0.668661	0.834561	0.721728	1.01143	0.155642	0.417573	0.903273	1.30584	
0.658067	4.19006	0	0	-0.684417	-0.593044	0.492229	-0.124965	-0.041369	0.282701	0.091013	1.10138	2.00049	2.55133	0.0687375	1.34102	2.24189	2.01867	1.5305	2.5413	0.97128	0.295357	0.9248	1.23475	0.352266	0.611538	-0.813087	-0.149308	0.670501	0.82936	0.735018	1.01329	0.157484	0.412369	0.913562	1.29507	
0.659461	4.19769	0	0	-0.684417	-0.593044	0.492993	-0.127122	-0.0424535	0.285766	0.086693	1.12389	2.00397	2.55473	0.0823138	1.36433	2.25158	2.02212	1.5385	2.55578	0.965874	0.278576	0.929319	1.2351	0.352266	0.611538	-0.809885	-0.13487	0.672342	0.824158	0.748308	1.01515	0.159326	0.407164	0.92385	1.2843	
0.660792	4.2038	0	0	-0.684417	-0.593044	0.493756	-0.12928	-0.043538	0.288831	0.082373	1.14639	2.00744	2.55813	0.09589	1.38763	2.26127	2.02557	1.5465	2.57026	0.960469	0.261795	0.933838	1.23545	0.352266	0.611538	-0.806683	-0.120431	0.674182	0.818957	0.761597	1.01701	0.161167	0.40196	0.934139	1.27352	
0.662196	4.22516	0	0	-0.69734	-0.601731	0.48833	-0.12905	-0.0466722	0.286167	0.0645725	1.15556	2.00222	2.57289	0.0881217	1.42504	2.26386	2.03367	1.55603	2.58051	0.944602	0.258654	0.932317	1.23975	0.359991	0.617401	-0.799018	-0.0950292	0.675836	0.825876	0.774279	1.04046	0.165326	0.411253	0.940264	1.2837	
0.66381	4.24194	0	0	-0.710262	-0.610418	0.482903	-0.128821	-0.0498065	0.283502	0.046772	1.16472	1.997	2.58765	0.0803535	1.46244	2.26646	2.04177	1.56555	2.59075	0.928735	0.255514	0.930796	1.24405	0.367717	0.623264	-0.791353	-0.0696275	0.67749	0.832795	0.78696	1.0639	0.169484	0.420546	0.946389	1.29388	
0.665767	4.24347	0	0	-0.723185	-0.619105	0.477477	-0.128591	-0.0529408	0.280838	0.0289715	1.17389	1.99177	2.60241	0.0725853	1.49985	2.26906	2.04987	1.57508	2.601	0.912868	0.252373	0.929275	1.24835	0.375442	0.629128	-0.783688	-0.0442257	0.679145	0.839713	0.799642	1.08735	0.173643	0.429838	0.952515	1.30407	
0.66807	4.2511	0	0	-0.736107	-0.627792	0.472051	-0.128361	-0.056075	0.278174	0.011171	1.18306	1.98655	2.61718	0.064817	1.53725	2.27165	2.05797	1.5846	2.61124	0.897001	0.249232	0.927754	1.25265	0.383167	0.634991	-0.776023	-0.018824	0.680799	0.846632	0.812324	1.11079	0.177802	0.439131	0.95864	1.31425	
0.670536	4.25567	0	0	-0.736383	-0.649574	0.472814	-0.130517	-0.0539077	0.272049	0.0109742	1.17335	1.98916	2.60979	0.058049	1.52549	2.28438	2.05293	1.59147	2.61666	0.882728	0.24171	0.932276	1.253	0.378047	0.635607	-0.782405	-0.000786	0.683374	0.850955	0.813929	1.14589	0.173415	0.462061	0.9568	1.3378	
0.672966	4.2572	0	0	-0.73666	-0.671357	0.473577	-0.132673	-0.0517405	0.265923	0.0107775	1.16363	1.99177	2.60241	0.051281	1.51373	2.2971	2.04788	1.59834	2.62207	0.868455	0.234187	0.936797	1.25335	0.372927	0.636223	-0.788788	0.017252	0.685949	0.855279	0.815534	1.18098	0.169027	0.484992	0.954961	1.36135	
0.675163	4.25873	0	0	-0.736936	-0.693139	0.474339	-0.134829	-0.0495732	0.259798	0.0105807	1.15392	1.99439	2.59502	0.044513	1.50197	2.30983	2.04284	1.6052	2.62748	0.854181	0.226665	0.941318	1.2537	0.367808	0.636839	-0.795171	0.03529	0.688525	0.859602	0.817139	1.21607	0.16464	0.507922	0.953121	1.3849	
0.676929	4.25262	0	0	-0.737212	-0.714921	0.475102	-0.136985	-0.047406	0.253673	0.010384	1.1442	1.997	2.58764	0.037745	1.49021	2.32255	2.03779	1.61207	2.6329	0.839908	0.219143	0.94584	1.25405	0.362688	0.637455	-0.801553	0.053328	0.6911	0.863925	0.818744	1.25116	0.160253	0.530852	0.951281	1.40845	
0.678126	4.25262	0	0	-0.727949	-0.718537	0.48248	-0.135174	-0.0422175	0.262062	0.0213752	1.15425	1.997	2.58764	0.057218	1.48153	2.33228	2.04125	1.62582	2.64375	0.839908	0.219143	0.942794	1.26266	0.366453	0.626813	-0.796129	0.049784	0.68576	0.867414	0.818744	1.25116	0.158179	0.526182	0.946121	1.41385	
0.678881	4.23889	0	0	-0.718686	-0.722152	0.489859	-0.133363	-0.037029	0.27045	0.0323665	1.16431	1.997	2.58764	0.076691	1.47284	2.34202	2.0447	1.63958	2.6546	0.839908	0.219143	0.939748	1.27127	0.370219	0.61617	-0.790706	0.04624	0.680421	0.870903	0.818744	1.25116	0.156105	0.521512	0.94096	1.41926	
0.679398	4.22516	0	0	-0.709423	-0.725768	0.497237	-0.131553	-0.0318405	0.278838	0.0433578	1.17436	1.997	2.58764	0.096164	1.46416	2.35175	2.04816	1.65334	2.66546	0.839908	0.219143	0.936703	1.27988	0.373984	0.605528	-0.785282	0.042696	0.675082	0.874392	0.818744	1.25116	0.154031	0.516842	0.9358	1.42467	
0.679885	4.20837	0	0	-0.70016	-0.729384	0.504616	-0.129742	-0.026652	0.287227	0.054349	1.18441	1.997	2.58764	0.115637	1.45548	2.36149	2.05161	1.6671	2.67631	0.839908	0.219143	0.933657	1.28849	0.37775	0.594886	-0.779858	0.039152	0.669742	0.877881	0.818744	1.25116	0.151957	0.512172	0.930639	1.43007	
0.680545	4.19311	0	0	-0.689465	-0.714402	0.51668	-0.126003	-0.016264	0.304057	0.0693597	1.21416	1.99871	2.60926	0.127371	1.4843	2.37536	2.05893	1.67515	2.69095	0.835257	0.232286	0.942708	1.2892	0.377848	0.608464	-0.767402	0.0393465	0.674889	0.886546	0.823952	1.25629	0.160959	0.518346	0.931113	1.43791	
0.681576	4.1748	0	0	-0.67877	-0.69942	0.528744	-0.122265	-0.005876	0.320888	0.0843705	1.24391	2.00043	2.63087	0.139104	1.51312	2.38924	2.06625	1.68319	2.7056	0.830607	0.245429	0.951758	1.28991	0.377945	0.622042	-0.754945	0.039541	0.680035	0.895211	0.829159	1.26142	0.16996	0.52452	0.931588	1.44575	
0.68301	4.15649	0	0	-0.668075	-0.684437	0.540809	-0.118527	0.004512	0.337719	0.0993813	1.27366	2.00214	2.65249	0.150838	1.54194	2.40312	2.07357	1.69124	2.72024	0.825956	0.258572	0.960809	1.29062	0.378042	0.63562	-0.742488	0.0397355	0.685181	0.903875	0.834367	1.26655	0.178961	0.530695	0.932062	1.45359	
0.68471	4.13666	0	0	-0.65738	-0.669455	0.552873	-0.114788	0.0149	0.354549	0.114392	1.30341	2.00385	2.6741	0.162572	1.57076	2.417	2.0809	1.69929	2.73488	0.821306	0.271715	0.96986	1.29133	0.37814	0.649198	-0.730032	0.03993	0.690328	0.91254	0.839574	1.27168	0.187963	0.536869	0.932536	1.46142	
0.686532	4.11682	0	0	-0.669346	-0.64695	0.551343	-0.110464	0.00836	0.373032	0.0993513	1.33559	2.01165	2.69181	0.161499	1.62042	2.41659	2.09759	1.71003	2.75448	0.823985	0.280083	0.974342	1.30498	0.397496	0.663915	-0.716913	0.0620028	0.70877	0.918571	0.854878	1.29806	0.191411	0.558791	0.940059	1.47692	
0.688335	4.10004	0	0	-0.681311	-0.624445	0.549813	-0.10614	0.00182	0.391516	0.0843105	1.36777	2.01945	2.70953	0.160425	1.67007	2.41618	2.11429	1.72078	2.77409	0.826664	0.288452	0.978824	1.31864	0.416853	0.678632	-0.703794	0.0840755	0.727212	0.924602	0.870181	1.32444	0.194859	0.580713	0.947582	1.49241	
0.689976	4.07715	0	0	-0.693277	-0.601941	0.548284	-0.101817	-0.00472	0.409999	0.0692697	1.39995	2.02725	2.72724	0.159352	1.71973	2.41577	2.13099	1.73152	2.79369	0.829343	0.29682	0.983306	1.3323	0.43621	0.693348	-0.690676	0.106148	0.745654	0.930632	0.885485	1.35081	0.198307	0.602636	0.955105	1.5079	
0.691324	4.05884	0	0	-0.705243	-0.579436	0.546754	-0.097493	-0.01126	0.428482	0.054229	1.43213	2.03505	2.74496	0.158279	1.76938	2.41536	2.14768	1.74227	2.8133	0.832022	0.305189	0.987788	1.34596	0.455566	0.708065	-0.677557	0.128221	0.764096	0.936663	0.900789	1.37719	0.201755	0.624558	0.962628	1.5234	
0.692308	4.0451	0	0	-0.702988	-0.585808	0.545989	-0.0953305	-0.01126	0.428482	0.0506233	1.432	2.03505	2.74496	0.151496	1.75746	2.42817	2.1426	1.74918	2.81879	0.837811	0.304783	0.987731	1.3593	0.456919	0.718158	-0.685277	0.150038	0.761115	0.95674	0.903941	1.41818	0.200319	0.649757	0.956497	1.54992	
0.692871	4.02222	0	0	-0.700733	-0.59218	0.545223	-0.093168	-0.01126	0.428482	0.0470175	1.43187	2.03505	2.74496	0.144713	1.74554	2.44098	2.13752	1.7561	2.82428	0.8436	0.304377	0.987675	1.37264	0.458271	0.72825	-0.692997	0.171855	0.758134	0.976816	0.907093	1.45916	0.198884	0.674956	0.950366	1.57645	
0.692954	4.00848	0	0	-0.698479	-0.598552	0.544458	-0.0910055	-0.01126	0.428482	0.0434117	1.43174	2.03505	2.74496	0.13793	1.73361	2.45379	2.13244	1.76301	2.82977	0.849388	0.303971	0.987619	1.38597	0.459624	0.738343	-0.700717	0.193673	0.755153	0.996892	0.910245	1.50015	0.197448	0.700154	0.944235	1.60298	
0.692501	3.99322	0	0	-0.696224	-0.604924	0.543693	-0.088843	-0.01126	0.428482	0.039806	1.43161	2.03505	2.74496	0.131147	1.72169	2.4666	2.12737	1.76993	2.83527	0.855177	0.303565	0.987562	1.39931	0.460976	0.748435	-0.708437	0.21549	0.752172	1.01697	0.913397	1.54114	0.196013	0.725353	0.938104	1.62951	
0.691458	3.97949	0	0	-0.689191	-0.60217	0.544883	-0.0846303	-0.0134433	0.434652	0.0519495	1.43861	2.03853	2.7484	0.133026	1.71637	2.47074	2.13125	1.77108	2.84454	0.856731	0.299173	0.992099	1.39967	0.46224	0.744864	-0.711313	0.211774	0.748665	1.01523	0.910786	1.53853	0.193941	0.720633	0.931525	1.6297	
0.689881	3.96881	0	0	-0.682157	-0.599417	0.546073	-0.0804175	-0.0156265	0.440821	0.064093	1.44561	2.04201	2.75184	0.134906	1.71106	2.47488	2.13513	1.77223	2.85381	0.858285	0.294781	0.996636	1.40004	0.463503	0.741292	-0.714189	0.208058	0.745159	1.01349	0.908176	1.53592	0.19187	0.715914	0.924945	1.6299	
0.687957	3.96118	0	0	-0.675124	-0.596663	0.547263	-0.0762048	-0.0178097	0.446991	0.0762365	1.45261	2.04548	2.75528	0.136785	1.70575	2.47902	2.13901	1.77338	2.86308	0.859838	0.29039	1.00117	1.4004	0.464767	0.737721	-0.717065	0.204341	0.741652	1.01175	0.905565	1.5333	0.189799	0.711194	0.918365	1.6301	
0.685877	3.9566	0	0	-0.668091	-0.593909	0.548453	-0.071992	-0.019993	0.453161	0.08838	1.45962	2.04896	2.75872	0.138664	1.70044	2.48316	2.14289	1.77454	2.87236	0.861392	0.285998	1.00571	1.40077	0.466031	0.734149	-0.719941	0.200625	0.738145	1.01	0.902954	1.53069	0.187727	0.706474	0.911786	1.6303	
0.683832	3.95965	0	0	-0.665569	-0.578377	0.548876	-0.0656093	-0.0148083	0.461645	0.097266	1.48628	2.05112	2.76589	0.141683	1.723	2.48578	2.15107	1.77414	2.886	0.856728	0.29918	1.00872	1.40546	0.473703	0.726391	-0.70744	0.200852	0.738145	1.01	0.913145	1.52188	0.189589	0.701212	0.913672	1.62497	
0.682013	3.96423	0	0	-0.663048	-0.562845	0.5493	-0.0592265	-0.0096235	0.47013	0.106152	1.51295	2.05329	2.77306	0.144702	1.74557	2.48841	2.15924	1.77375	2.89965	0.852064	0.312361	1.01172	1.41016	0.481376	0.718633	-0.694939	0.201078	0.738145	1.01	0.923336	1.51306	0.191451	0.695949	0.915558	1.61964	
0.680568	3.97339	0	0	-0.660526	-0.547313	0.549723	-0.0528438	-0.00443875	0.478614	0.115038	1.53962	2.05545	2.78022	0.147721	1.76813	2.49103	2.16742	1.77336	2.91329	0.8474	0.325543	1.01473	1.41486	0.489048	0.710875	-0.682438	0.201305	0.738145	1.01	0.933526	1.50425	0.193314	0.690686	0.917444	1.61431	
0.679457	3.98559	0	0	-0.658004	-0.531781	0.550146	-0.046461	0.000746	0.487099	0.123924	1.56629	2.05761	2.78739	0.15074	1.79069	2.49365	2.17559	1.77297	2.92694	0.842736	0.338725	1.01774	1.41956	0.496721	0.703117	-0.669937	0.201532	0.738145	1.01	0.943717	1.49543	0.195176	0.685424	0.91933	1.60898	
0.678594	4.00543	0	0	-0.662783	-0.540934	0.544704	-0.0462355	-0.00553075	0.481701	0.108149	1.55909	2.04539	2.79537	0.141299	1.81737	2.49365	2.17559	1.77297	2.92694	0.831167	0.339527	1.02075	1.42426	0.494194	0.710259	-0.669337	0.223577	0.740723	1.01437	0.948585	1.51169	0.192382	0.693319	0.921676	1.61155	
0.677892	4.02527	0	0	-0.667562	-0.550087	0.539262	-0.04601	-0.0118075	0.476303	0.092373	1.55189	2.03317	2.80336	0.131858	1.84406	2.49365	2.17559	1.77297	2.92694	0.819599	0.340328	1.02375	1.42896	0.491667	0.7174	-0.668736	0.245621	0.743302	1.01873	0.953453	1.52795	0.189588	0.701214	0.924022	1.61411	
0.677265	4.04663	0	0	-0.67234	-0.55924	0.533819	-0.0457845	-0.0180842	0.470905	0.0765975	1.5447	2.02095	2.81134	0.122416	1.87074	2.49365	2.17559	1.77297	2.92694	0.80803	0.341129	1.02676	1.43367	0.48914	0.724541	-0.668135	0.267666	0.74588	1.0231	0.95832	1.54421	0.186795	0.709109	0.926369	1.61668	
0.676631	4.05884	0	0	-0.677119	-0.568393	0.528377	-0.045559	-0.024361	0.465507	0.060822	1.5375	2.00873	2.81933	0.112975	1.89742	2.49365	2.17559	1.77297	2.92694	0.796461	0.341931	1.02977	1.43837	0.486613	0.731683	-0.667535	0.289711	0.748458	1.02747	0.963188	1.56047	0.184001	0.717004	0.928715	1.61924	
0.675997	4.07257	0	0	-0.684845	-0.580493	0.527189	-0.0497758	-0.02736	0.450874	0.04853	1.5206	2.00921	2.80472	0.0994688	1.87346	2.49103	2.16742	1.77182	2.91765	0.796893	0.324784	1.01922	1.4286	0.489039	0.7109	-0.676473	0.267516	0.738664	1.03185	0.948377	1.57231	0.172211	0.718638	0.916025	1.62753	
0.675442	4.08478	0	0	-0.692572	-0.592594	0.526002	-0.0539925	-0.030359	0.436241	0.036238	1.5037	2.00968	2.79012	0.0859625	1.84949	2.48841	2.15924	1.77067	2.90835	0.797325	0.307636	1.00867	1.41884	0.491465	0.690118	-0.68541	0.24532	0.72887	1.03623	0.933566	1.58415	0.160422	0.720271	0.903334	1.63582	
0.675046	4.09241	0	0	-0.700299	-0.604695	0.524814	-0.0582093	-0.033358	0.421608	0.023946	1.4868	2.01016	2.77551	0.0724562	1.82552	2.48578	2.15107	1.76953	2.89906	0.797758	0.290488	0.998114	1.40907	0.493892	0.669336	-0.694348	0.223125	0.719077	1.04061	0.918755	1.59599	0.148633	0.721905	0.890643	1.64412	
0.67489	4.09546	0	0	-0.708025	-0.616795	0.523627	-0.062426	-0.036357	0.406975	0.011654	1.46991	2.01064	2.76091	0.05895	1.80156	2.48316	2.14289	1.76838	2.88976	0.79819	0.273341	0.987562	1.39931	0.496318	0.648553	-0.703285	0.20093	0.709283	1.04499	0.903944	1.60783	0.136843	0.723539	0.877953	1.65241	
0.675056	4.09393	0	0	-0.704649	-0.626338	0.520143	-0.0601495	-0.036357	0.406975	0.0222977	1.46046	2.00848	2.75376	0.0593345	1.78497	2.47599	2.14758	1.75839	2.89294	0.788197	0.269771	0.981558	1.38993	0.494951	0.6385	-0.708061	0.178917	0.708565	1.03539	0.896494	1.58894	0.129722	0.712033	0.87704	1.63663	
0.675558	4.09393	0	0	-0.701272	-0.635881	0.516659	-0.057873	-0.036357	0.406975	0.0329415	1.45102	2.00632	2.7466	0.059719	1.76838	2.46882	2.15226	1.7484	2.89613	0.778204	0.266202	0.975554	1.38056	0.493585	0.628447	-0.712837	0.156904	0.707847	1.02578	0.889044	1.57005	0.122601	0.700526	0.876127	1.62085	
0.676261	4.08783	0	0	-0.697896	-0.645424	0.513175	-0.0555965	-0.036357	0.406975	0.0435852	1.44158	2.00416	2.73945	0.0601035	1.75179	2.46165	2.15695	1.73841	2.89931	0.76821	0.262632	0.96955	1.37118	0.492219	0.618394	-0.717613	0.13489	0.707129	1.01617	0.881594	1.55116	0.11548	0.68902	0.875215	1.60507	
0.677004	4.0741	0	0	-0.694519	-0.654967	0.509691	-0.05332	-0.036357	0.406975	0.054229	1.43213	2.002	2.7323	0.060488	1.7352	2.45447	2.16163	1.72842	2.90249	0.758217	0.259063	0.963546	1.3618	0.490852	0.608341	-0.722389	0.112877	0.706411	1.00656	0.874144	1.53226	0.108359	0.677513	0.874302	1.58929	
0.677629	4.06647	0	0	-0.704916	-0.648173	0.506974	-0.053208	-0.0427597	0.413526	0.0437488	1.45143	2.002	2.7323	0.071006	1.73649	2.45447	2.16163	1.7242	2.90191	0.754001	0.255093	0.956021	1.35676	0.497256	0.604156	-0.721106	0.109252	0.707338	1.00394	0.882704	1.51805	0.109078	0.664948	0.877124	1.58131	
0.677975	4.05121	0	0	-0.715313	-0.641379	0.504257	-0.053096	-0.0491625	0.420078	0.0332685	1.47073	2.002	2.7323	0.081524	1.73778	2.45447	2.16163	1.71998	2.90132	0.749785	0.251124	0.948496	1.35172	0.503661	0.599971	-0.719823	0.105627	0.708265	1.00132	0.891264	1.50384	0.109798	0.652384	0.879946	1.57334	
0.677912	4.03747	0	0	-0.72571	-0.634586	0.50154	-0.052984	-0.0555653	0.426629	0.0227882	1.49003	2.002	2.7323	0.092042	1.73907	2.45447	2.16163	1.71576	2.90073	0.745568	0.247154	0.940971	1.34668	0.510065	0.595787	-0.718541	0.102002	0.709191	0.998702	0.899824	1.48962	0.110518	0.639819	0.882768	1.56536	
0.677536	4.02527	0	0	-0.736107	-0.627792	0.498823	-0.052872	-0.061968	0.433181	0.012308	1.50932	2.002	2.7323	0.10256	1.74036	2.45447	2.16163	1.71154	2.90015	0.741352	0.243185	0.933446	1.34164	0.51647	0.591602	-0.717258	0.098377	0.710118	0.996083	0.908384	1.47541	0.111237	0.627254	0.88559	1.55739	
0.677065	4.01153	0	0	-0.737089	-0.658852	0.494923	-0.056973	-0.0574827	0.408968	-0.00388425	1.47272	1.9916	2.722	0.0796672	1.74308	2.44208	2.14999	1.70771	2.88595	0.722978	0.231707	0.924407	1.34092	0.510065	0.595787	-0.725265	0.109184	0.715474	0.992583	0.907026	1.48923	0.111237	0.627254	0.884649	1.56005	
0.676717	3.99933	0	0	-0.73807	-0.689912	0.491022	-0.061074	-0.0529975	0.384756	-0.0200765	1.43611	1.98119	2.71171	0.0567745	1.7458	2.42969	2.13835	1.70389	2.87176	0.704604	0.220228	0.915368	1.34019	0.503661	0.599971	-0.733272	0.119991	0.720831	0.989084	0.905669	1.50305	0.111237	0.627254	0.883709	1.56271	
0.67671	3.98559	0	0	-0.739051	-0.720972	0.487121	-0.065175	-0.0485122	0.360543	-0.0362687	1.3995	1.97079	2.70141	0.0338818	1.74851	2.4173	2.12671	1.70006	2.85757	0.68623	0.20875	0.906328	1.33947	0.497256	0.604156	-0.741279	0.130798	0.726187	0.985584	0.904312	1.51687	0.111237	0.627254	0.882768	1.56536	
0.677258	3.97339	0	0	-0.740033	-0.752032	0.483221	-0.069276	-0.044027	0.33633	-0.052461	1.36289	1.96039	2.69112	0.010989	1.75123	2.40491	2.11506	1.69624	2.84337	0.667856	0.197272	0.897289	1.33875	0.490852	0.608341	-0.749286	0.141605	0.731543	0.982084	0.902954	1.53069	0.111237	0.627254	0.881828	1.56802	
0.678385	3.96118	0	0	-0.740337	-0.773695	0.4828	-0.0756442	-0.041736	0.318326	-0.05186	1.3304	1.95392	2.66979	0.006499	1.71757	2.40119	2.09454	1.69088	2.83355	0.658342	0.176748	0.886801	1.32905	0.489363	0.584749	-0.762353	0.119536	0.725464	0.975996	0.889549	1.52867	0.104118	0.615812	0.868713	1.56842	
0.679818	3.9505	0	0	-0.740641	-0.795359	0.48238	-0.0820125	-0.039445	0.300322	-0.051259	1.29791	1.94745	2.64845	0.002009	1.68391	2.39747	2.07401	1.68552	2.82372	0.648827	0.156224	0.876313	1.31936	0.487874	0.561157	-0.775419	0.0974665	0.719385	0.969908	0.876144	1.52665	0.0969995	0.60437	0.855598	1.56882	
0.681261	3.93829	0	0	-0.740945	-0.817022	0.481959	-0.0883808	-0.037154	0.282318	-0.050658	1.26541	1.94098	2.62712	-0.002481	1.65024	2.39375	2.05349	1.68017	2.8139	0.639312	0.135699	0.865824	1.30966	0.486385	0.537566	-0.788486	0.0753972	0.713306	0.963821	0.86274	1.52463	0.0898808	0.592929	0.842482	1.56922	
0.682415	3.93371	0	0	-0.741249	-0.838685	0.481538	-0.094749	-0.034863	0.264314	-0.050057	1.23292	1.93451	2.60579	-0.006971	1.61658	2.39003	2.03296	1.67481	2.80408	0.629798	0.115175	0.855336	1.29997	0.484896	0.513974	-0.801553	0.053328	0.707227	0.957733	0.849335	1.52261	0.082762	0.581487	0.829367	1.56962	
0.682985	3.92456	0	0	-0.740133	-0.841839	0.480774	-0.0925895	-0.034863	0.264314	-0.044014	1.23637	1.92889	2.5953	-0.00510525	1.61131	2.37877	2.03377	1.66907	2.80783	0.617231	0.103399	0.858378	1.29137	0.486021	0.496912	-0.803459	0.0351665	0.69232	0.953415	0.83732	1.5068	0.0726673	0.568019	0.814889	1.56481	
0.682726	3.92151	0	0	-0.739017	-0.844993	0.480009	-0.09043	-0.034863	0.264314	-0.037971	1.23981	1.92328	2.58481	-0.0032395	1.60604	2.36752	2.03458	1.66333	2.81158	0.604663	0.091623	0.861419	1.28277	0.487146	0.479849	-0.805365	0.017005	0.677413	0.949097	0.825306	1.491	0.0625725	0.554551	0.80041	1.56	
0.681715	3.91235	0	0	-0.737901	-0.848147	0.479245	-0.0882705	-0.034863	0.264314	-0.031928	1.24326	1.91766	2.57432	-0.00137375	1.60076	2.35627	2.03538	1.65759	2.81533	0.592095	0.079847	0.86446	1.27418	0.48827	0.462786	-0.80727	-0.0011565	0.662506	0.944778	0.813291	1.47519	0.0524777	0.541084	0.785932	1.55519	
0.680147	3.90472	0	0	-0.736785	-0.851301	0.478481	-0.086111	-0.034863	0.264314	-0.025885	1.2467	1.91204	2.56383	0.000492	1.59549	2.34502	2.03619	1.65185	2.81908	0.579528	0.068071	0.867502	1.26558	0.489395	0.445724	-0.809176	-0.019318	0.647599	0.94046	0.801276	1.45939	0.042383	0.527616	0.771454	1.55038	
0.678215	3.89557	0	0	-0.748254	-0.841382	0.479666	-0.0819022	-0.0370318	0.270443	-0.036117	1.27562	1.90728	2.56411	0.00536775	1.6126	2.34502	2.03619	1.64458	2.82716	0.575345	0.0641545	0.859955	1.27382	0.495785	0.441549	-0.814277	-0.00490225	0.650368	0.932634	0.801276	1.45939	0.0403225	0.522955	0.772391	1.54773	
0.676113	3.88946	0	0	-0.759723	-0.831463	0.480851	-0.0776935	-0.0392005	0.276572	-0.046349	1.30454	1.90253	2.56439	0.0102435	1.62971	2.34502	2.03619	1.63731	2.83523	0.571163	0.060238	0.852409	1.28205	0.502175	0.437373	-0.819377	0.0095135	0.653138	0.924808	0.801276	1.45939	0.038262	0.518293	0.773328	1.54508	
0.674032	3.87878	0	0	-0.771193	-0.821544	0.482036	-0.0734848	-0.0413692	0.282702	-0.056581	1.33346	1.89777	2.56467	0.0151192	1.64682	2.34502	2.03619	1.63004	2.84331	0.56698	0.0563215	0.844862	1.29029	0.508566	0.433198	-0.824478	0.0239292	0.655907	0.916982	0.801276	1.45939	0.0362015	0.513632	0.774266	1.54243	
0.672118	3.87573	0	0	-0.782662	-0.811625	0.483221	-0.069276	-0.043538	0.288831	-0.066813	1.36237	1.89301	2.56495	0.019995	1.66393	2.34502	2.03619	1.62278	2.85139	0.562797	0.052405	0.837315	1.29852	0.514956	0.429022	-0.829579	0.038345	0.658676	0.909156	0.801276	1.45939	0.034141	0.508971	0.775203	1.53978	
0.670465	3.87115	0	0	-0.791076	-0.832752	0.480507	-0.0691643	-0.047639	0.277384	-0.0720598	1.33618	1.89215	2.55421	0.0009265	1.65609	2.35215	2.03153	1.62278	2.85139	0.561267	0.0567288	0.834272	1.30712	0.506063	0.440271	-0.835967	0.0563975	0.651494	0.917859	0.797937	1.47876	0.032298	0.51418	0.768636	1.55834	
0.669165	3.87268	0	0	-0.799491	-0.85388	0.477793	-0.0690525	-0.05174	0.265936	-0.0773065	1.30998	1.8913	2.54347	-0.018142	1.64826	2.35928	2.02687	1.62278	2.85139	0.559737	0.0610525	0.83123	1.31572	0.497169	0.45152	-0.842354	0.07445	0.644312	0.926562	0.794598	1.49814	0.030455	0.519389	0.762069	1.5769	
0.66831	3.87115	0	0	-0.807906	-0.875007	0.47508	-0.0689407	-0.055841	0.254489	-0.0825532	1.28378	1.89044	2.53272	-0.0372105	1.64042	2.36641	2.02222	1.62278	2.85139	0.558208	0.0653762	0.828187	1.32432	0.488276	0.46277	-0.848742	0.0925025	0.63713	0.935266	0.791258	1.51752	0.028612	0.524597	0.755503	1.59546	
0.667992	3.88031	0	0	-0.81632	-0.896134	0.472366	-0.068829	-0.059942	0.243041	-0.0878	1.25758	1.88959	2.52198	-0.056279	1.63258	2.37353	2.01756	1.62278	2.85139	0.556678	0.0697	0.825144	1.33292	0.479383	0.474019	-0.85513	0.110555	0.629948	0.943969	0.787919	1.5369	0.026769	0.529806	0.748936	1.61402	
0.668259	3.89252	0	0	-0.819972	-0.908228	0.47355	-0.064617	-0.056696	0.233868	-0.087982	1.24785	1.89089	2.51831	-0.061135	1.61552	2.37615	2.02567	1.62851	2.84764	0.559327	0.0779507	0.820643	1.33255	0.488276	0.46277	-0.86655	0.0958245	0.627383	0.93963	0.773968	1.52667	0.018755	0.521037	0.742409	1.6142	
0.669038	3.91235	0	0	-0.823623	-0.920322	0.474734	-0.060405	-0.05345	0.224694	-0.088164	1.23813	1.89219	2.51464	-0.065991	1.59846	2.37877	2.03378	1.63425	2.84389	0.561976	0.0862015	0.816143	1.33219	0.497169	0.45152	-0.877969	0.081094	0.624819	0.935291	0.760017	1.51645	0.010741	0.512268	0.735882	1.61439	
0.670235	3.93066	0	0	-0.827275	-0.932415	0.475917	-0.056193	-0.050204	0.215521	-0.088346	1.2284	1.89349	2.51097	-0.070847	1.5814	2.38138	2.04189	1.63998	2.84014	0.564625	0.0944523	0.811643	1.33182	0.506063	0.440271	-0.889389	0.0663635	0.622254	0.930952	0.746066	1.50622	0.002727	0.503499	0.729356	1.61457	
0.671757	3.95508	0	0	-0.830926	-0.944509	0.477101	-0.051981	-0.046958	0.206347	-0.088528	1.21867	1.89479	2.5073	-0.075703	1.56434	2.384	2.05	1.64572	2.8364	0.567274	0.102703	0.807142	1.33146	0.514956	0.429022	-0.900809	0.051633	0.61969	0.926613	0.732115	1.49599	-0.005287	0.49473	0.722829	1.61476	
0.67351	3.97339	0	0	-0.832036	-0.941373	0.483717	-0.0479868	-0.050204	0.215521	-0.078727	1.23197	1.903	2.5104	-0.0652558	1.5656	2.3851	2.06239	1.64532	2.84999	0.566852	0.119648	0.804098	1.34006	0.518848	0.431917	-0.895714	0.0372347	0.616205	0.924883	0.725339	1.48541	-0.0103173	0.48803	0.721444	1.60955	
0.675404	3.99628	0	0	-0.833146	-0.938237	0.490333	-0.0439925	-0.05345	0.224694	-0.068926	1.24528	1.91122	2.5135	-0.0548085	1.56686	2.3862	2.07479	1.64493	2.86358	0.566429	0.136592	0.801054	1.34866	0.52274	0.434813	-0.89062	0.0228365	0.612719	0.923154	0.718563	1.47483	-0.0153475	0.48133	0.72006	1.60434	
0.677358	4.00543	0	0	-0.834255	-0.9351	0.496948	-0.0399982	-0.056696	0.233868	-0.059125	1.25858	1.91944	2.5166	-0.0443613	1.56812	2.38731	2.08718	1.64453	2.87717	0.566007	0.153536	0.798009	1.35727	0.526632	0.437708	-0.885525	0.00843825	0.609234	0.921425	0.711787	1.46425	-0.0203778	0.474631	0.718675	1.59913	
0.679303	4.01306	0	0	-0.835365	-0.931964	0.503564	-0.036004	-0.059942	0.243041	-0.049324	1.27189	1.92766	2.5197	-0.033914	1.56938	2.38841	2.09958	1.64413	2.89076	0.565585	0.170481	0.794965	1.36587	0.530524	0.440603	-0.880431	-0.00596	0.605749	0.919695	0.705011	1.45367	-0.025408	0.467931	0.71729	1.59392	
0.681167	4.01611	0	0	-0.853036	-0.915593	0.497016	-0.0250643	-0.0674042	0.252623	-0.0667232	1.30055	1.92591	2.53782	-0.0327827	1.59702	2.38951	2.112	1.64794	2.90497	0.568229	0.178774	0.796415	1.37486	0.537062	0.449945	-0.880122	0.00490775	0.610156	0.918818	0.704638	1.46463	-0.0224337	0.469981	0.718675	1.59913	
0.682879	4.02679	0	0	-0.870707	-0.899221	0.490468	-0.0141245	-0.0748665	0.262205	-0.0841225	1.32921	1.92416	2.55593	-0.0316515	1.62466	2.39061	2.12442	1.65174	2.91919	0.570872	0.187067	0.797866	1.38384	0.5436	0.459288	-0.879814	0.0157755	0.614564	0.917941	0.704264	1.47559	-0.0194595	0.47203	0.72006	1.60434	
0.684368	4.01916	0	0	-0.888378	-0.882849	0.483919	-0.00318475	-0.0823288	0.271787	-0.101522	1.35787	1.92242	2.57405	-0.0305202	1.6523	2.39171	2.13684	1.65555	2.9334	0.573515	0.195361	0.799316	1.39283	0.550138	0.46863	-0.879505	0.0266433	0.618972	0.917065	0.70389	1.48655	-0.0164852	0.474079	0.721444	1.60955	
0.685601	4.01153	0	0	-0.906049	-0.866478	0.477371	0.007755	-0.089791	0.281369	-0.118921	1.38653	1.92067	2.59216	-0.029389	1.67994	2.39281	2.14926	1.65935	2.94762	0.576159	0.203654	0.800766	1.40182	0.556676	0.477972	-0.879196	0.037511	0.623379	0.916188	0.703517	1.49751	-0.013511	0.476129	0.722829	1.61476	
0.686619	4.00543	0	0	-0.908569	-0.881704	0.478904	0.003422	-0.090754	0.27259	-0.123969	1.37007	1.92327	2.5848	-0.0413343	1.66746	2.39996	2.14459	1.65781	2.95197	0.57462	0.208003	0.797714	1.41044	0.549017	0.485703	-0.895102	0.0589918	0.615282	0.927492	0.700773	1.52509	-0.012375	0.48338	0.721394	1.62794	
0.687467	3.99475	0	0	-0.911088	-0.89693	0.480437	-0.000911	-0.091717	0.263811	-0.129018	1.35361	1.92588	2.57743	-0.0532795	1.65498	2.40711	2.13992	1.65627	2.95632	0.573082	0.212351	0.794663	1.41906	0.541357	0.493433	-0.911008	0.0804725	0.607185	0.938796	0.698029	1.55267	-0.011239	0.49063	0.719959	1.64112	
0.688194	3.98559	0	0	-0.913608	-0.912156	0.481971	-0.005244	-0.09268	0.255031	-0.134066	1.33715	1.92849	2.57007	-0.0652247	1.64251	2.41427	2.13524	1.65473	2.96067	0.571543	0.2167	0.791611	1.42769	0.533698	0.501164	-0.926915	0.101953	0.599088	0.950099	0.695285	1.58025	-0.010103	0.497881	0.718524	1.65431	
0.688845	3.97491	0	0	-0.916127	-0.927382	0.483504	-0.009577	-0.093643	0.246252	-0.139115	1.32069	1.93109	2.5627	-0.07717	1.63003	2.42142	2.13057	1.65319	2.96502	0.570004	0.221049	0.788559	1.43631	0.526039	0.508895	-0.942821	0.123434	0.590991	0.961403	0.692541	1.60783	-0.008967	0.505131	0.717089	1.66749	
0.689454	3.97034	0	0	-0.907664	-0.94013	0.482737	-0.00741075	-0.0872683	0.239736	-0.12969	1.31453	1.92633	2.56298	-0.0786638	1.61886	2.42142	2.13057	1.65165	2.96938	0.566924	0.229753	0.787032	1.44063	0.522148	0.505986	-0.947233	0.112461	0.590276	0.951852	0.680241	1.60296	-0.0188052	0.50157	0.713386	1.6597	
0.689932	3.96271	0	0	-0.899201	-0.952878	0.481971	-0.0052445	-0.0808935	0.233221	-0.120264	1.30837	1.92157	2.56326	-0.0801575	1.6077	2.42142	2.13057	1.65011	2.97373	0.563844	0.238458	0.785505	1.44494	0.518258	0.503077	-0.951646	0.101488	0.589561	0.9423	0.667942	1.5981	-0.0286435	0.498009	0.709683	1.65192	
0.690131	3.96118	0	0	-0.890738	-0.965627	0.481204	-0.00307825	-0.0745187	0.226706	-0.110839	1.30221	1.91681	2.56355	-0.0816512	1.59653	2.42142	2.13057	1.64857	2.97808	0.560765	0.247163	0.783978	1.44926	0.514367	0.500169	-0.956058	0.0905143	0.588846	0.932748	0.655643	1.59323	-0.0384817	0.494448	0.705981	1.64413	
0.689899	3.96271	0	0	-0.882275	-0.978375	0.480438	-0.000912	-0.068144	0.22019	-0.101414	1.29606	1.91204	2.56383	-0.083145	1.58537	2.42142	2.13057	1.64703	2.98244	0.557685	0.255867	0.782451	1.45357	0.510476	0.49726	-0.96047	0.079541	0.588131	0.923197	0.643343	1.58836	-0.04832	0.490887	0.702278	1.63634	
0.689085	3.96423	0	0	-0.88267	-0.966082	0.485519	0.00743725	-0.0693427	0.235086	-0.0937355	1.32565	1.92589	2.57745	-0.069335	1.59254	2.4323	2.14651	1.65813	2.98859	0.571775	0.263418	0.785421	1.45827	0.513112	0.503716	-0.96047	0.079541	0.58373	0.924071	0.638192	1.58313	-0.0446465	0.480506	0.706477	1.6336	
0.687542	3.97034	0	0	-0.883065	-0.95379	0.4906	0.0157865	-0.0705415	0.249982	-0.086057	1.35525	1.93975	2.59107	-0.055525	1.59971	2.44318	2.16246	1.66923	2.99474	0.585866	0.270969	0.788392	1.46297	0.515748	0.510173	-0.96047	0.079541	0.579328	0.924945	0.633041	1.57791	-0.040973	0.470124	0.710676	1.63086	
0.685283	3.97339	0	0	-0.88346	-0.941497	0.495681	0.0241358	-0.0717403	0.264878	-0.0783785	1.38484	1.9536	2.60468	-0.041715	1.60688	2.45407	2.17841	1.68033	3.00089	0.599957	0.278519	0.791362	1.46767	0.518383	0.516629	-0.96047	0.079541	0.574926	0.925819	0.627889	1.57268	-0.0372995	0.459742	0.714875	1.62811	
0.682643	3.97339	0	0	-0.883855	-0.929204	0.500762	0.032485	-0.072939	0.279774	-0.0707	1.41444	1.96745	2.6183	-0.027905	1.61404	2.46495	2.19435	1.69142	3.00705	0.614047	0.28607	0.794333	1.47237	0.521019	0.523085	-0.96047	0.079541	0.570525	0.926693	0.622738	1.56746	-0.033626	0.449361	0.719074	1.62537	
0.679994	3.97644	0	0	-0.897468	-0.913078	0.498457	0.038998	-0.0772768	0.292033	-0.0845667	1.44336	1.9774	2.64309	-0.0324098	1.65764	2.47585	2.21036	1.69213	3.0301	0.617784	0.307159	0.800277	1.48179	0.531447	0.535393	-0.955769	0.101431	0.571238	0.936243	0.632055	1.58072	-0.0315715	0.454004	0.725105	1.63572	
0.677708	3.98102	0	0	-0.91108	-0.896952	0.496153	0.045511	-0.0816145	0.304292	-0.0984335	1.47228	1.98735	2.66788	-0.0369145	1.70123	2.48675	2.22637	1.69283	3.05316	0.621521	0.328247	0.806221	1.4912	0.541874	0.5477	-0.951068	0.12332	0.571951	0.945793	0.641372	1.59397	-0.029517	0.458646	0.731137	1.64607	
0.676155	3.97339	0	0	-0.924693	-0.880826	0.493849	0.052024	-0.0859522	0.31655	-0.1123	1.5012	1.9973	2.69267	-0.0414192	1.74483	2.49765	2.24238	1.69354	3.07622	0.625258	0.349335	0.812166	1.50062	0.552302	0.560007	-0.946367	0.14521	0.572664	0.955342	0.650689	1.60723	-0.0274625	0.463288	0.737168	1.65643	
0.675652	3.96881	0	0	-0.938306	-0.8647	0.491544	0.058537	-0.09029	0.328809	-0.126167	1.53011	2.00725	2.71746	-0.045924	1.78842	2.50855	2.2584	1.69424	3.09928	0.628995	0.370424	0.81811	1.51003	0.562729	0.572315	-0.941666	0.1671	0.573377	0.964892	0.660006	1.62048	-0.025408	0.467931	0.743199	1.66678	
0.676141	3.95965	0	0	-0.937899	-0.877013	0.492312	0.0563655	-0.0934167	0.326138	-0.13104	1.52336	2.01204	2.71718	-0.0455322	1.77187	2.5127	2.26231	1.69536	3.10865	0.637381	0.378426	0.815045	1.51869	0.56021	0.579434	-0.951184	0.170541	0.568761	0.977939	0.649091	1.65133	-0.0261125	0.480377	0.748292	1.67982	
0.677417	3.95813	0	0	-0.937492	-0.889327	0.493081	0.054194	-0.0965435	0.323468	-0.135913	1.51661	2.01683	2.71691	-0.0451405	1.75533	2.51684	2.26623	1.69648	3.11802	0.645768	0.386429	0.81198	1.52736	0.557691	0.586553	-0.960702	0.173982	0.564145	0.990986	0.638176	1.68218	-0.026817	0.492823	0.753386	1.69287	
0.679274	3.94592	0	0	-0.937085	-0.90164	0.493849	0.0520225	-0.0996703	0.320798	-0.140786	1.50986	2.02161	2.71663	-0.0447488	1.73878	2.52099	2.27014	1.6976	3.12739	0.654154	0.394431	0.808915	1.53602	0.555172	0.593671	-0.97022	0.177424	0.559528	1.00403	0.62726	1.71303	-0.0275215	0.505269	0.758479	1.70591	
0.681507	3.93524	0	0	-0.936678	-0.913953	0.494618	0.049851	-0.102797	0.318127	-0.145659	1.50311	2.0264	2.71636	-0.044357	1.72224	2.52514	2.27406	1.69872	3.13677	0.66254	0.402434	0.80585	1.54468	0.552653	0.60079	-0.979738	0.180865	0.554912	1.01708	0.616345	1.74388	-0.028226	0.517715	0.763572	1.71895	
0.683911	3.92456	0	0	-0.932648	-0.914178	0.498105	0.0475727	-0.103882	0.321192	-0.134915	1.50354	2.02988	2.71979	-0.0353803	1.71231	2.52928	2.27798	1.70295	3.13738	0.666738	0.406442	0.80288	1.53996	0.553913	0.59723	-0.985412	0.173472	0.561162	1.01099	0.616753	1.73282	-0.0293593	0.510463	0.770613	1.70821	
0.686306	3.91235	0	0	-0.928619	-0.914403	0.501591	0.0452945	-0.104966	0.324257	-0.124171	1.50397	2.03335	2.72323	-0.0264035	1.70238	2.53343	2.28189	1.70717	3.13799	0.670936	0.41045	0.79991	1.53524	0.555172	0.59367	-0.991085	0.166078	0.567411	1.0049	0.61716	1.72176	-0.0304925	0.503211	0.777655	1.69746	
0.688546	3.90015	0	0	-0.92459	-0.914629	0.505078	0.0430163	-0.106051	0.327323	-0.113427	1.5044	2.03683	2.72666	-0.0174267	1.69244	2.53758	2.28581	1.71139	3.1386	0.675133	0.414458	0.796941	1.53052	0.556432	0.590109	-0.996759	0.158685	0.573661	0.998806	0.617568	1.71071	-0.0316258	0.495958	0.784696	1.68672	
0.69049	3.89099	0	0	-0.92056	-0.914854	0.508565	0.040738	-0.107136	0.330388	-0.102683	1.50483	2.04031	2.7301	-0.00845	1.68251	2.54173	2.28973	1.71562	3.13921	0.679331	0.418466	0.793971	1.5258	0.557692	0.586549	-1.00243	0.151291	0.579911	0.992715	0.617975	1.69965	-0.032759	0.488706	0.791737	1.67597	
0.691993	3.88336	0	0	-0.915822	-0.905898	0.509748	0.0449748	-0.100882	0.335736	-0.0916142	1.52498	2.04943	2.74415	-0.00546725	1.705	2.54435	2.29798	1.71673	3.14861	0.677776	0.42286	0.793971	1.5258	0.559069	0.596604	-0.997043	0.147769	0.579911	0.992715	0.628087	1.69089	-0.03184	0.486109	0.799228	1.67312	
0.692913	3.87421	0	0	-0.911084	-0.896943	0.51093	0.0492115	-0.0946275	0.341083	-0.0805455	1.54514	2.05856	2.7582	-0.0024845	1.72748	2.54698	2.30622	1.71785	3.158	0.676222	0.427254	0.793971	1.5258	0.560446	0.606659	-0.991653	0.144248	0.579911	0.992715	0.638199	1.68212	-0.030921	0.483511	0.806719	1.67028	
0.693134	3.86352	0	0	-0.906345	-0.887988	0.512112	0.0534483	-0.0883733	0.34643	-0.0694768	1.5653	2.06768	2.77225	0.00049825	1.74997	2.5496	2.31446	1.71897	3.16739	0.674667	0.431648	0.793971	1.5258	0.561823	0.616714	-0.986264	0.140726	0.579911	0.992715	0.648311	1.67336	-0.030002	0.480914	0.81421	1.66743	
0.692721	3.85895	0	0	-0.901607	-0.879032	0.513295	0.057685	-0.082119	0.351778	-0.058408	1.58545	2.07681	2.7863	0.003481	1.77245	2.55223	2.32271	1.72009	3.17678	0.673112	0.436042	0.793971	1.5258	0.5632	0.626769	-0.980874	0.137204	0.579911	0.992715	0.658423	1.6646	-0.029083	0.478317	0.821701	1.66458	
0.691812	3.84979	0	0	-0.912591	-0.881498	0.508626	0.0557265	-0.0894583	0.349497	-0.0691775	1.58501	2.07634	2.80094	-0.00780475	1.80435	2.54917	2.33135	1.7112	3.18935	0.671557	0.440438	0.792439	1.53013	0.560781	0.647562	-0.976191	0.159146	0.588511	1.00317	0.674908	1.67758	-0.0219985	0.489678	0.830099	1.67755	
0.690544	3.84674	0	0	-0.923576	-0.883963	0.503956	0.053768	-0.0967975	0.347216	-0.079947	1.58457	2.07586	2.81558	-0.0190905	1.83624	2.54611	2.34	1.70231	3.20192	0.670001	0.444834	0.790906	1.53446	0.558362	0.668355	-0.971508	0.181088	0.597112	1.01362	0.691392	1.69056	-0.014914	0.501039	0.838498	1.69051	
0.689055	3.83301	0	0	-0.934561	-0.886428	0.499287	0.0518095	-0.104137	0.344934	-0.0907165	1.58412	2.07539	2.83022	-0.0303762	1.86814	2.54305	2.34864	1.69343	3.21448	0.668446	0.44923	0.789374	1.53879	0.555943	0.689149	-0.966826	0.203031	0.605712	1.02408	0.707877	1.70354	-0.0078295	0.5124	0.846896	1.70348	
0.687484	3.82843	0	0	-0.945545	-0.888894	0.494618	0.049851	-0.111476	0.342653	-0.101486	1.58368	2.07491	2.84486	-0.041662	1.90003	2.53999	2.35729	1.68454	3.22705	0.66689	0.453626	0.787842	1.54312	0.553524	0.709942	-0.962143	0.224973	0.614312	1.03453	0.724362	1.71652	-0.000745	0.523761	0.855294	1.71645	
0.685965	3.82385	0	0	-0.946248	-0.898064	0.493437	0.045617	-0.116638	0.334247	-0.107656	1.57029	2.07623	2.84113	-0.0412507	1.8834	2.53584	2.35335	1.68609	3.22265	0.67	0.444836	0.783343	1.54273	0.562482	0.698594	-0.974769	0.213769	0.61246	1.03977	0.713807	1.73641	-0.0101707	0.539933	0.849619	1.73249	
0.684625	3.81317	0	0	-0.946951	-0.907234	0.492255	0.041383	-0.1218	0.325842	-0.113826	1.5569	2.07755	2.8374	-0.0408395	1.86678	2.53169	2.34941	1.68765	3.21826	0.67311	0.436046	0.778845	1.54235	0.571439	0.687246	-0.987395	0.202566	0.610607	1.045	0.703253	1.7563	-0.0195965	0.556105	0.843944	1.74852	
0.683592	3.80554	0	0	-0.947653	-0.916404	0.491073	0.037149	-0.126962	0.317436	-0.119997	1.5435	2.07887	2.83367	-0.0404282	1.85015	2.52755	2.34548	1.6892	3.21386	0.676221	0.427256	0.774347	1.54196	0.580396	0.675898	-1.00002	0.191362	0.608755	1.05024	0.692698	1.77619	-0.0290222	0.572276	0.83827	1.76456	
0.682993	3.79944	0	0	-0.948356	-0.925574	0.489892	0.032915	-0.132124	0.30903	-0.126167	1.53011	2.08019	2.82993	-0.040017	1.83353	2.5234	2.34154	1.69076	3.20946	0.679331	0.418466	0.769848	1.54157	0.589354	0.66455	-1.01265	0.180158	0.606903	1.05547	0.682143	1.79607	-0.038448	0.588448	0.832595	1.7806	
0.682955	3.79181	0	0	-0.941407	-0.922894	0.489124	0.035085	-0.127917	0.308636	-0.11885	1.54026	2.08151	2.82621	-0.0381377	1.82822	2.52493	2.33722	1.6892	3.21386	0.68399	0.405297	0.771379	1.53724	0.584189	0.665179	-1.01165	0.165647	0.599938	1.05198	0.678978	1.78515	-0.0366038	0.583236	0.830262	1.77801	
0.683554	3.78723	0	0	-0.934458	-0.920214	0.488356	0.037255	-0.123711	0.308241	-0.111533	1.55041	2.08283	2.82248	-0.0362585	1.82291	2.52646	2.3329	1.68765	3.21826	0.68865	0.392128	0.772911	1.53291	0.579025	0.665808	-1.01066	0.151136	0.592972	1.04848	0.675814	1.77423	-0.0347595	0.578024	0.827929	1.77542	
0.684553	3.78113	0	0	-0.927509	-0.917534	0.487589	0.039425	-0.119504	0.307847	-0.104216	1.56056	2.08415	2.81875	-0.0343793	1.8176	2.52798	2.32858	1.68609	3.22265	0.69331	0.37896	0.774443	1.52858	0.57386	0.666437	-1.00967	0.136625	0.586006	1.04499	0.672649	1.7633	-0.0329153	0.572813	0.825595	1.77284	
0.685602	3.7735	0	0	-0.92056	-0.914854	0.486821	0.041595	-0.115298	0.307452	-0.096899	1.57071	2.08547	2.81502	-0.0325	1.81228	2.52951	2.32426	1.68454	3.22705	0.697969	0.365791	0.775974	1.52425	0.568695	0.667066	-1.00867	0.122114	0.579041	1.04149	0.669484	1.75238	-0.031071	0.567601	0.823262	1.77025	
0.686346	3.76587	0	0	-0.926107	-0.899178	0.482979	0.0524527	-0.119636	0.319711	-0.100064	1.60024	2.08283	2.82248	-0.0205388	1.82491	2.52951	2.32426	1.6872	3.23207	0.697969	0.365791	0.772911	1.53291	0.575123	0.662865	-1.00839	0.133016	0.580891	1.03626	0.673059	1.75221	-0.031071	0.567601	0.819038	1.77301	
0.686434	3.76282	0	0	-0.931654	-0.883502	0.479137	0.0633105	-0.123973	0.33197	-0.10323	1.62977	2.08019	2.82994	-0.0085775	1.83753	2.52951	2.32426	1.68987	3.23709	0.697969	0.365791	0.769847	1.54157	0.581552	0.658665	-1.00811	0.143918	0.582742	1.03104	0.676634	1.75204	-0.031071	0.567601	0.814814	1.77577	
0.685519	3.75671	0	0	-0.9372	-0.867826	0.475295	0.0741683	-0.128311	0.344229	-0.106395	1.65929	2.07755	2.8374	0.00338375	1.85016	2.52951	2.32426	1.69253	3.24212	0.697969	0.365791	0.766783	1.55023	0.587981	0.654465	-1.00782	0.15482	0.584592	1.02581	0.680209	1.75186	-0.031071	0.567601	0.81059	1.77853	
0.683524	3.75366	0	0	-0.942747	-0.85215	0.471453	0.085026	-0.132649	0.356488	-0.10956	1.68882	2.07491	2.84486	0.015345	1.86278	2.52951	2.32426	1.6952	3.24714	0.697969	0.365791	0.76372	1.55889	0.594409	0.650264	-1.00754	0.165722	0.586442	1.02058	0.683784	1.75169	-0.031071	0.567601	0.806366	1.78129	
0.680748	3.74451	0	0	-0.949281	-0.867153	0.466024	0.0852335	-0.136721	0.345017	-0.121731	1.67181	2.06663	2.84167	-0.0164738	1.87539	2.53257	2.31563	1.6852	3.25029	0.697969	0.365791	0.762187	1.56322	0.593145	0.653836	-1.01804	0.183687	0.589924	1.02232	0.689534	1.76527	-0.028098	0.569665	0.809134	1.79182	
0.677515	3.74451	0	0	-0.955815	-0.882156	0.460595	0.085441	-0.140794	0.333546	-0.133901	1.65479	2.05835	2.83847	-0.0482925	1.888	2.53562	2.307	1.67521	3.25344	0.697969	0.365791	0.760655	1.56755	0.591881	0.657407	-1.02853	0.201651	0.593407	1.02407	0.695283	1.77884	-0.025125	0.571729	0.811902	1.80236	
0.674149	3.73993	0	0	-0.962349	-0.897159	0.455165	0.0856485	-0.144866	0.322075	-0.146071	1.63778	2.05008	2.83528	-0.0801112	1.9006	2.53868	2.29837	1.66521	3.25658	0.697969	0.365791	0.759122	1.57188	0.590618	0.660978	-1.03903	0.219616	0.59689	1.02581	0.701032	1.79242	-0.022152	0.573793	0.814671	1.8129	
0.670976	3.75061	0	0	-0.968883	-0.912162	0.449736	0.085856	-0.148939	0.310604	-0.158242	1.62076	2.0418	2.83209	-0.11193	1.91321	2.54173	2.28973	1.65521	3.25973	0.697969	0.365791	0.757589	1.57621	0.589354	0.66455	-1.04953	0.23758	0.600372	1.02755	0.706782	1.80599	-0.019179	0.575857	0.817439	1.82343	
0.668262	3.76129	0	0	-0.967375	-0.927566	0.447023	0.085959	-0.149894	0.301823	-0.153804	1.59796	2.03353	2.8289	-0.116727	1.89593	2.5402	2.29405	1.651	3.25911	0.702175	0.369791	0.760654	1.56755	0.580292	0.662238	-1.05291	0.212057	0.59689	1.02581	0.694469	1.80103	-0.0299355	0.574874	0.808989	1.82895	
0.666044	3.78113	0	0	-0.965868	-0.94297	0.44431	0.086062	-0.150848	0.293041	-0.149365	1.57515	2.02527	2.82571	-0.121523	1.87865	2.53868	2.29836	1.64678	3.25848	0.70638	0.373791	0.763718	1.55889	0.571229	0.659925	-1.05628	0.186534	0.593407	1.02407	0.682157	1.79608	-0.040692	0.573891	0.800539	1.83447	
0.664301	3.81317	0	0	-0.96436	-0.958374	0.441597	0.086165	-0.151803	0.28426	-0.144927	1.55234	2.017	2.82252	-0.12632	1.86137	2.53715	2.30268	1.64257	3.25785	0.710586	0.37779	0.766783	1.55023	0.562167	0.657613	-1.05966	0.16101	0.589924	1.02232	0.669844	1.79112	-0.0514485	0.572909	0.792089	1.84	
0.663015	3.84827	0	0	-0.962852	-0.973778	0.438884	0.086268	-0.152758	0.275479	-0.140489	1.52953	2.00873	2.81933	-0.131116	1.84408	2.53562	2.307	1.63836	3.25722	0.714792	0.38179	0.769848	1.54157	0.553104	0.655301	-1.06303	0.135487	0.586442	1.02058	0.657531	1.78616	-0.062205	0.571926	0.783639	1.84552	
0.662166	3.88489	0	0	-0.96104	-0.967757	0.439291	0.0926827	-0.15384	0.278536	-0.129591	1.53983	2.01089	2.82651	-0.125899	1.84475	2.53671	2.31957	1.64257	3.25785	0.719001	0.385794	0.766884	1.53685	0.564694	0.650472	-1.07024	0.120851	0.577635	1.02231	0.656359	1.76963	-0.0720218	0.568339	0.781312	1.84292	
0.661736	3.92151	0	0	-0.959228	-0.961735	0.439697	0.0990975	-0.154921	0.281593	-0.118694	1.55012	2.01304	2.8337	-0.120683	1.84542	2.53781	2.33214	1.64678	3.25848	0.72321	0.389799	0.763919	1.53213	0.576283	0.645643	-1.07745	0.106215	0.568828	1.02405	0.655187	1.75309	-0.0818385	0.564752	0.778985	1.84032	
0.661716	3.95965	0	0	-0.957416	-0.955713	0.440104	0.105512	-0.156002	0.284649	-0.107797	1.56042	2.01519	2.84088	-0.115466	1.84609	2.5389	2.34471	1.651	3.25911	0.727418	0.393803	0.760955	1.52742	0.587873	0.640813	-1.08465	0.0915798	0.560022	1.02579	0.654015	1.73656	-0.0916553	0.561166	0.776659	1.83773	
0.662102	3.99017	0	0	-0.955604	-0.949692	0.440511	0.111927	-0.157084	0.287706	-0.096899	1.57071	2.01735	2.84807	-0.11025	1.84676	2.53999	2.35729	1.65521	3.25973	0.731627	0.397807	0.757991	1.5227	0.599462	0.635984	-1.09186	0.076944	0.551215	1.02753	0.652843	1.72003	-0.101472	0.557579	0.774332	1.83513	
0.662892	4.01916	0	0	-0.966964	-0.939865	0.434722	0.120724	-0.164529	0.297273	-0.114397	1.59961	2.01818	2.85899	-0.10022	1.86473	2.54414	2.36123	1.65631	3.26917	0.735839	0.401816	0.751969	1.52664	0.599574	0.649645	-1.08903	0.0806193	0.560022	1.02579	0.65542	1.72266	-0.093702	0.556501	0.778987	1.84032	
0.664082	4.03747	0	0	-0.978325	-0.930038	0.428932	0.129522	-0.171974	0.30684	-0.131895	1.6285	2.01901	2.86992	-0.09019	1.8827	2.54829	2.36517	1.65742	3.2786	0.740051	0.405825	0.745947	1.53057	0.599687	0.663306	-1.08621	0.0842945	0.568828	1.02405	0.657998	1.7253	-0.085932	0.555422	0.783641	1.84552	
0.665668	4.05121	0	0	-0.989685	-0.920212	0.423143	0.138319	-0.179418	0.316407	-0.149394	1.6574	2.01985	2.88085	-0.08016	1.90067	2.55244	2.36911	1.65852	3.28804	0.744263	0.409833	0.739925	1.53451	0.599799	0.676967	-1.08338	0.0879697	0.577635	1.02231	0.660575	1.72794	-0.078162	0.554343	0.788296	1.85072	
0.667608	4.06189	0	0	-1.00104	-0.910385	0.417354	0.147117	-0.186863	0.325974	-0.166892	1.68629	2.02068	2.89178	-0.07013	1.91863	2.55659	2.37305	1.65962	3.29747	0.748475	0.413842	0.733903	1.53844	0.599911	0.690628	-1.08056	0.091645	0.586442	1.02058	0.663152	1.73057	-0.070392	0.553265	0.79295	1.85591	
0.669804	4.06647	0	0	-1.01157	-0.925107	0.421605	0.142668	-0.187813	0.317193	-0.168307	1.66975	2.02679	2.88778	-0.08016	1.90067	2.55353	2.38171	1.65806	3.30188	0.739594	0.423028	0.732372	1.54277	0.596112	0.701364	-1.0951	0.109439	0.587147	1.03017	0.659753	1.7501	-0.0701885	0.563139	0.793808	1.87186	
0.672159	4.06799	0	0	-1.0221	-0.939828	0.425855	0.138218	-0.188762	0.308412	-0.169722	1.65322	2.03291	2.88378	-0.09019	1.8827	2.55046	2.39037	1.6565	3.30628	0.730714	0.432214	0.730841	1.54709	0.592313	0.7121	-1.10965	0.127233	0.587853	1.03976	0.656354	1.76964	-0.069985	0.573013	0.794666	1.8878	
0.674572	4.05884	0	0	-1.03263	-0.95455	0.430106	0.133768	-0.189712	0.29963	-0.171137	1.63668	2.03903	2.87979	-0.10022	1.86473	2.5474	2.39904	1.65494	3.31069	0.721833	0.441399	0.729311	1.55142	0.588515	0.722836	-1.12419	0.145028	0.588558	1.04936	0.652955	1.78917	-0.0697815	0.582887	0.795524	1.90374	
0.676944	4.04816	0	0	-1.04316	-0.969272	0.434357	0.129319	-0.190662	0.290849	-0.172552	1.62015	2.04515	2.87579	-0.11025	1.84676	2.54433	2.4077	1.65338	3.3151	0.712952	0.450585	0.72778	1.55575	0.584716	0.733572	-1.13874	0.162822	0.589263	1.05895	0.649556	1.8087	-0.069578	0.592761	0.796382	1.91969	
0.679189	4.0451	0	0	-1.04276	-0.981505	0.43707	0.129218	-0.190662	0.290849	-0.160808	1.60749	2.05127	2.87179	-0.102748	1.82556	2.54433	2.4077	1.65916	3.31132	0.712952	0.450585	0.718809	1.55496	0.592421	0.725785	-1.14337	0.14101	0.584856	1.05982	0.641836	1.80076	-0.074588	0.586028	0.794055	1.91708	
0.681271	4.02984	0	0	-1.04236	-0.993738	0.439783	0.129117	-0.190662	0.290849	-0.149064	1.59484	2.05739	2.86779	-0.095247	1.80436	2.54433	2.4077	1.66494	3.30755	0.712952	0.450585	0.709838	1.55417	0.600126	0.717998	-1.14801	0.119197	0.58045	1.06068	0.634116	1.79281	-0.079598	0.579295	0.791728	1.91447	
0.68317	4.01764	0	0	-1.04196	-1.00597	0.442496	0.129017	-0.190662	0.290849	-0.137321	1.58218	2.06351	2.86379	-0.0877455	1.78316	2.54433	2.4077	1.67072	3.30377	0.712952	0.450585	0.700867	1.55338	0.60783	0.710211	-1.15264	0.0973853	0.576043	1.06155	0.626395	1.78487	-0.084608	0.572561	0.7894	1.91186	
0.684864	4.00238	0	0	-1.04156	-1.0182	0.445209	0.128916	-0.190662	0.290849	-0.125577	1.56953	2.06963	2.85979	-0.080244	1.76196	2.54433	2.4077	1.6765	3.3	0.712952	0.450585	0.691896	1.55259	0.615535	0.702424	-1.15728	0.075573	0.571636	1.06242	0.618675	1.77693	-0.089618	0.565828	0.787073	1.90925	
0.686332	3.99017	0	0	-1.02992	-1.00664	0.449099	0.133066	-0.184432	0.29618	-0.115822	1.5831	2.06963	2.85979	-0.068308	1.77454	2.54433	2.4077	1.67337	3.30882	0.716065	0.441787	0.687416	1.5522	0.610363	0.703052	-1.16136	0.0754853	0.573487	1.05719	0.622653	1.76569	-0.082971	0.557486	0.784747	1.90664	
0.687554	3.97339	0	0	-1.01829	-0.995085	0.452989	0.137217	-0.178202	0.301511	-0.106067	1.59667	2.06963	2.85979	-0.056372	1.78712	2.54433	2.4077	1.67025	3.31764	0.719178	0.432988	0.682935	1.5518	0.605192	0.703681	-1.16544	0.0753975	0.575338	1.05196	0.626632	1.75444	-0.076324	0.549144	0.78242	1.90404	
0.688505	3.96118	0	0	-1.00665	-0.983525	0.456878	0.141367	-0.171972	0.306842	-0.0963128	1.61024	2.06963	2.85979	-0.044436	1.7997	2.54433	2.4077	1.66713	3.32646	0.722292	0.424189	0.678455	1.55141	0.60002	0.704309	-1.16952	0.0753097	0.57719	1.04672	0.63061	1.7432	-0.069677	0.540802	0.780093	1.90143	
0.689156	3.94745	0	0	-0.995008	-0.971965	0.460768	0.145517	-0.165742	0.312173	-0.086558	1.62381	2.06963	2.85979	-0.0325	1.81228	2.54433	2.4077	1.66401	3.33528	0.725405	0.415391	0.673975	1.55102	0.594848	0.704937	-1.1736	0.075222	0.579041	1.04149	0.634589	1.73195	-0.06303	0.53246	0.777767	1.89882	
0.689478	3.92761	0	0	-0.993606	-0.953663	0.455741	0.15215	-0.170075	0.324419	-0.102807	1.65944	2.06699	2.86726	-0.0228395	1.84691	2.5428	2.41203	1.66667	3.34033	0.726961	0.410995	0.676925	1.55573	0.596218	0.715054	-1.16489	0.097122	0.575338	1.05196	0.642902	1.74815	-0.0637453	0.54493	0.786651	1.90128	
0.689443	3.9154	0	0	-0.992203	-0.935361	0.450715	0.158782	-0.174408	0.336665	-0.119056	1.69507	2.06434	2.87473	-0.013179	1.88154	2.54127	2.41637	1.66933	3.34538	0.728516	0.406599	0.679876	1.56045	0.597588	0.72517	-1.15617	0.119022	0.571634	1.06243	0.651214	1.76435	-0.0644605	0.557401	0.795535	1.90373	
0.68902	3.90167	0	0	-0.9908	-0.917059	0.445688	0.165415	-0.178742	0.348912	-0.135306	1.7307	2.0617	2.8822	-0.0035185	1.91617	2.53973	2.4207	1.67199	3.35043	0.730071	0.402203	0.682827	1.56517	0.598958	0.735287	-1.14745	0.140922	0.567931	1.07289	0.659526	1.78055	-0.0651758	0.569872	0.804419	1.90618	
0.688213	3.88489	0	0	-0.989398	-0.898757	0.440661	0.172048	-0.183075	0.361158	-0.151555	1.76633	2.05906	2.88967	0.006142	1.9508	2.5382	2.42503	1.67464	3.35548	0.731627	0.397807	0.685777	1.56989	0.600328	0.745403	-1.13874	0.162822	0.564227	1.08336	0.667839	1.79675	-0.065891	0.582342	0.813303	1.90863	
0.687157	3.87421	0	0	-0.984972	-0.911265	0.442202	0.167693	-0.185105	0.355422	-0.155261	1.75623	2.0521	2.88273	-0.002457	1.94411	2.53973	2.4207	1.66886	3.35926	0.730071	0.402203	0.682715	1.57854	0.592621	0.753194	-1.14893	0.191642	0.563997	1.0956	0.668146	1.83566	-0.0645693	0.599522	0.807061	1.93547	
0.686025	3.86047	0	0	-0.980546	-0.923773	0.443744	0.163337	-0.187134	0.349686	-0.158967	1.74614	2.04515	2.8758	-0.011056	1.93742	2.54127	2.41637	1.66308	3.36304	0.728516	0.406599	0.679653	1.5872	0.584915	0.760986	-1.15913	0.220462	0.563766	1.10784	0.668454	1.87457	-0.0632475	0.616703	0.800818	1.96231	
0.684991	3.84674	0	0	-0.976121	-0.936281	0.445285	0.158981	-0.189164	0.34395	-0.162673	1.73604	2.0382	2.86886	-0.019655	1.93073	2.5428	2.41203	1.6573	3.36681	0.726961	0.410995	0.676591	1.59585	0.577209	0.768777	-1.16933	0.249282	0.563535	1.12007	0.668762	1.91348	-0.0619258	0.633884	0.794576	1.98914	
0.684227	3.83606	0	0	-0.971695	-0.948789	0.446826	0.154626	-0.191194	0.338214	-0.166379	1.72595	2.03124	2.86192	-0.028254	1.92404	2.54433	2.4077	1.65152	3.37059	0.725405	0.415391	0.673529	1.6045	0.569502	0.776568	-1.17953	0.278102	0.563305	1.13231	0.669069	1.95239	-0.060604	0.651064	0.788334	2.01598	
0.683901	3.8269	0	0	-0.962541	-0.952368	0.449541	0.154526	-0.185914	0.334764	-0.154477	1.72317	2.03124	2.86192	-0.026368	1.91871	2.53973	2.42071	1.65152	3.37059	0.728058	0.423807	0.671997	1.60883	0.564337	0.777187	-1.18106	0.270786	0.559828	1.13055	0.663919	1.94704	-0.0644948	0.651599	0.789287	2.01328	
0.684003	3.8147	0	0	-0.953386	-0.955947	0.452256	0.154426	-0.180634	0.331314	-0.142576	1.7204	2.03124	2.86192	-0.024482	1.91338	2.53513	2.43372	1.65152	3.37059	0.730711	0.432223	0.670465	1.61316	0.559172	0.777807	-1.18259	0.263469	0.55635	1.12879	0.65877	1.94169	-0.0683855	0.652134	0.790241	2.01059	
0.684354	3.81164	0	0	-0.944232	-0.959525	0.454971	0.154326	-0.175353	0.327863	-0.130674	1.71763	2.03124	2.86192	-0.022596	1.90805	2.53052	2.44672	1.65152	3.37059	0.733363	0.440638	0.668932	1.61749	0.554007	0.778426	-1.18412	0.256153	0.552873	1.12703	0.65362	1.93635	-0.0722763	0.652669	0.791195	2.00789	
0.684763	3.81164	0	0	-0.935077	-0.963104	0.457686	0.154226	-0.170073	0.324413	-0.118773	1.71486	2.03124	2.86192	-0.02071	1.90272	2.52592	2.45973	1.65152	3.37059	0.736016	0.449054	0.6674	1.62182	0.548842	0.779045	-1.18565	0.248836	0.549396	1.12527	0.64847	1.931	-0.076167	0.653204	0.792148	2.0052	
0.68504	3.81775	0	0	-0.927415	-0.951268	0.461981	0.164826	-0.167092	0.338956	-0.110058	1.74178	2.03555	2.87633	-0.0125312	1.92611	2.53114	2.47637	1.66105	3.38136	0.748662	0.461134	0.674831	1.62696	0.543766	0.793391	-1.17876	0.252648	0.544067	1.12876	0.649471	1.92817	-0.0752435	0.650594	0.794475	2.00782	
0.684996	3.83148	0	0	-0.919754	-0.939431	0.466275	0.175427	-0.164112	0.353498	-0.101344	1.7687	2.03986	2.89075	-0.0043525	1.9495	2.53636	2.49301	1.67059	3.39213	0.761308	0.473214	0.682262	1.63211	0.53869	0.807737	-1.17186	0.25646	0.538737	1.13224	0.650473	1.92534	-0.07432	0.647984	0.796801	2.01045	
0.684519	3.84064	0	0	-0.912092	-0.927595	0.470569	0.186028	-0.161131	0.36804	-0.0926288	1.79562	2.04417	2.90516	0.00382625	1.9729	2.54157	2.50964	1.68012	3.4029	0.773954	0.485293	0.689692	1.63725	0.533613	0.822084	-1.16497	0.260273	0.533408	1.13572	0.651474	1.92251	-0.0733965	0.645374	0.799128	2.01307	
0.683796	3.85284	0	0	-0.90443	-0.915759	0.474864	0.196628	-0.15815	0.382583	-0.083914	1.82255	2.04847	2.91958	0.012005	1.99629	2.54679	2.52628	1.68966	3.41366	0.7866	0.497373	0.697123	1.64239	0.528537	0.83643	-1.15807	0.264085	0.528078	1.1392	0.652476	1.91968	-0.072473	0.642764	0.801455	2.0157	
0.683085	3.862	0	0	-0.919844	-0.905687	0.474864	0.196628	-0.163437	0.386038	-0.100474	1.8384	2.04185	2.9383	0.00921825	2.03523	2.54786	2.53898	1.68338	3.43139	0.787691	0.510255	0.698538	1.65147	0.529886	0.846596	-1.1481	0.28258	0.528767	1.14884	0.65261	1.9392	-0.074129	0.657905	0.802288	2.03176	
0.682642	3.86963	0	0	-0.935257	-0.895616	0.474864	0.196628	-0.168724	0.389492	-0.117034	1.85425	2.03523	2.95701	0.0064315	2.07418	2.54892	2.55168	1.67711	3.44912	0.788783	0.523138	0.699952	1.66056	0.531235	0.856761	-1.13813	0.301075	0.529455	1.15847	0.652745	1.95872	-0.075785	0.673046	0.803121	2.04782	
0.682724	3.87878	0	0	-0.95067	-0.885544	0.474864	0.196628	-0.17401	0.392946	-0.133593	1.8701	2.0286	2.97573	0.00364475	2.11312	2.54999	2.56438	1.67084	3.46685	0.789874	0.536021	0.701367	1.66965	0.532583	0.866927	-1.12816	0.319571	0.530143	1.1681	0.652879	1.97824	-0.077441	0.688187	0.803954	2.06388	
0.683574	3.88031	0	0	-0.966084	-0.875473	0.474864	0.196628	-0.179297	0.396401	-0.150153	1.88595	2.02198	2.99445	0.000858	2.15206	2.55105	2.57708	1.66457	3.48458	0.790966	0.548903	0.702781	1.67873	0.533932	0.877093	-1.11818	0.338066	0.530832	1.17774	0.653014	1.99776	-0.079097	0.703328	0.804787	2.07994	
0.685133	3.88183	0	0	-0.966784	-0.884645	0.475636	0.194446	-0.176042	0.387202	-0.153849	1.8758	2.02678	2.9942	-0.005836	2.13991	2.55675	2.57672	1.66457	3.48458	0.786265	0.562189	0.696759	1.68267	0.527499	0.881297	-1.12637	0.33785	0.521785	1.19173	0.642957	2.02618	-0.0903955	0.724798	0.80561	2.09604	
0.687083	3.87878	0	0	-0.967484	-0.893817	0.476408	0.192265	-0.172788	0.378003	-0.157546	1.86564	2.03158	2.99394	-0.01253	2.12777	2.56244	2.57635	1.66457	3.48458	0.781563	0.575476	0.690737	1.6866	0.521065	0.885501	-1.13456	0.337633	0.512738	1.20572	0.632899	2.05461	-0.101694	0.746269	0.806432	2.11215	
0.689097	3.87878	0	0	-0.968183	-0.90299	0.47718	0.190083	-0.169533	0.368805	-0.161242	1.85548	2.03638	2.99369	-0.019224	2.11562	2.56813	2.57598	1.66457	3.48458	0.776862	0.588762	0.684715	1.69054	0.514632	0.889704	-1.14274	0.337417	0.503691	1.21971	0.622842	2.08303	-0.112992	0.76774	0.807255	2.12826	
0.690849	3.87573	0	0	-0.968883	-0.912162	0.477952	0.187901	-0.166278	0.359606	-0.164938	1.84533	2.04118	2.99343	-0.025918	2.10346	2.57383	2.57561	1.66457	3.48458	0.772161	0.602048	0.678693	1.69447	0.508199	0.893908	-1.15093	0.337201	0.494644	1.23369	0.612785	2.11145	-0.124291	0.78921	0.808078	2.14436	
0.692012	3.86658	0	0	-0.964859	-0.912386	0.478354	0.19435	-0.168448	0.365737	-0.153023	1.84257	2.04465	2.99693	-0.0221222	2.09274	2.57798	2.57961	1.66879	3.48523	0.772161	0.602048	0.674212	1.69406	0.503042	0.894514	-1.15527	0.326141	0.496503	1.22844	0.606094	2.10052	-0.12151	0.781352	0.800553	2.1472	
0.692338	3.862	0	0	-0.960835	-0.912609	0.478756	0.200798	-0.170617	0.371869	-0.141108	1.83981	2.04813	3.00043	-0.0183265	2.08201	2.58214	2.58361	1.67301	3.48588	0.772161	0.602048	0.669731	1.69365	0.497885	0.89512	-1.15961	0.315082	0.498362	1.22318	0.599403	2.08959	-0.11873	0.773494	0.793028	2.15003	
0.691881	3.85437	0	0	-0.95681	-0.912832	0.479158	0.207247	-0.172787	0.378	-0.129194	1.83705	2.0516	3.00392	-0.0145308	2.07128	2.58629	2.5876	1.67724	3.48653	0.772161	0.602048	0.665249	1.69324	0.492729	0.895726	-1.16395	0.304022	0.500222	1.21793	0.592712	2.07866	-0.11595	0.765636	0.785504	2.15287	
0.690767	3.84369	0	0	-0.952786	-0.913056	0.47956	0.213695	-0.174956	0.384132	-0.117279	1.83429	2.05508	3.00742	-0.010735	2.06055	2.59045	2.5916	1.68146	3.48718	0.772161	0.602048	0.660768	1.69283	0.487572	0.896332	-1.16829	0.292963	0.502081	1.21267	0.586021	2.06773	-0.113169	0.757778	0.777979	2.1557	
0.689122	3.83301	0	0	-0.952497	-0.891552	0.481907	0.222241	-0.176187	0.399097	-0.116943	1.8643	2.06204	3.01442	-0.00258225	2.08414	2.5889	2.59597	1.68097	3.50117	0.772161	0.602048	0.665249	1.69324	0.490183	0.902919	-1.16267	0.300405	0.501151	1.2153	0.587026	2.06489	-0.107428	0.752014	0.784545	2.15558	
0.687072	3.82538	0	5	-0.952209	-0.870047	0.484255	0.230787	-0.177418	0.414063	-0.116607	1.89432	2.06899	3.02143	0.0055705	2.10772	2.58736	2.60034	1.68048	3.51515	0.772161	0.602048	0.669731	1.69365	0.492795	0.909506	-1.15705	0.307847	0.500222	1.21793	0.588031	2.06205	-0.101688	0.74625	0.791111	2.15545	
0.684741	3.81775	0	5	-0.951921	-0.848542	0.486602	0.239332	-0.178649	0.429028	-0.11627	1.92433	2.07595	3.02843	0.0137233	2.1313	2.58581	2.60471	1.67999	3.52914	0.772161	0.602048	0.674212	1.69406	0.495407	0.916094	-1.15143	0.315288	0.499293	1.22056	0.589036	2.05921	-0.0959467	0.740487	0.797677	2.15533	
0.682202	3.81012	0	5	-0.951632	-0.827038	0.48895	0.247878	-0.17988	0.443994	-0.115934	1.95435	2.08291	3.03543	0.021876	2.15488	2.58426	2.60907	1.6795	3.54312	0.772161	0.602048	0.678693	1.69447	0.498018	0.922681	-1.14581	0.32273	0.498363	1.22318	0.590041	2.05637	-0.090206	0.734723	0.804243	2.1552	
0.679483	3.80249	0	5	-0.952329	-0.836233	0.483511	0.248071	-0.175533	0.43171	-0.118585	1.93088	2.07677	3.03944	0.00184525	2.1804	2.57857	2.60944	1.67527	3.54246	0.762219	0.646128	0.678693	1.69447	0.489042	0.934081	-1.14403	0.341062	0.502511	1.23463	0.607566	2.08652	-0.0898435	0.754638	0.808341	2.1713	
0.676609	3.79944	0	5	-0.953026	-0.845427	0.478071	0.248263	-0.171187	0.419426	-0.121236	1.9074	2.07063	3.04345	-0.0181855	2.20591	2.57287	2.6098	1.67105	3.5418	0.752276	0.690209	0.678693	1.69447	0.480066	0.94548	-1.14226	0.359394	0.506659	1.24607	0.625092	2.11667	-0.089481	0.774554	0.812439	2.18741	
0.673605	3.79944	0	5	-0.953722	-0.854622	0.472632	0.248456	-0.16684	0.407141	-0.123888	1.88393	2.06449	3.04746	-0.0382163	2.23143	2.56717	2.61017	1.66682	3.54115	0.742333	0.734289	0.678693	1.69447	0.47109	0.95688	-1.14048	0.377725	0.510806	1.25751	0.642617	2.14683	-0.0891185	0.794469	0.816536	2.20351	
0.670497	3.79944	0	5	-0.954419	-0.863816	0.467193	0.248649	-0.162493	0.394857	-0.126539	1.86046	2.05835	3.05147	-0.058247	2.25694	2.56147	2.61053	1.6626	3.54049	0.732391	0.778369	0.678693	1.69447	0.462114	0.96828	-1.1387	0.396057	0.514954	1.26896	0.660142	2.17698	-0.088756	0.814384	0.820634	2.21961	
0.667331	3.79791	0	5	-0.951092	-0.873218	0.473406	0.24627	-0.164524	0.389109	-0.119476	1.85081	2.05917	3.06251	-0.0677735	2.22183	2.56098	2.62766	1.64944	3.5525	0.765585	0.829006	0.674079	1.70751	0.471204	0.984524	-1.14866	0.377509	0.50869	1.27508	0.661703	2.18255	-0.0878272	0.811759	0.810214	2.2306	
0.664208	3.79791	0	5	-0.947765	-0.882621	0.479619	0.243891	-0.166554	0.383362	-0.112413	1.84117	2.05998	3.07355	-0.0773	2.18672	2.56049	2.64479	1.63628	3.56452	0.798779	0.879642	0.669465	1.72055	0.480295	1.00077	-1.15861	0.358961	0.502425	1.28119	0.663264	2.18812	-0.0868985	0.809134	0.799794	2.24159	
0.661237	3.80096	0	5	-0.944438	-0.892023	0.485832	0.241511	-0.168585	0.377615	-0.10535	1.83152	2.0608	3.08458	-0.0868265	2.15161	2.56	2.66192	1.62313	3.57654	0.831972	0.930279	0.66485	1.73359	0.489385	1.01701	-1.16856	0.340413	0.496161	1.28731	0.664826	2.1937	-0.0859698	0.80651	0.789374	2.25257	
0.658526	3.80401	0	5	-0.941111	-0.901425	0.492045	0.239132	-0.170616	0.371867	-0.098287	1.82188	2.06161	3.09562	-0.096353	2.1165	2.5595	2.67905	1.60997	3.58855	0.865166	0.980916	0.660236	1.74663	0.498475	1.03326	-1.17852	0.321865	0.489896	1.29343	0.666387	2.19927	-0.085041	0.803885	0.778954	2.26356	
0.656185	3.81317	0	5	-0.936379	-0.892466	0.49167	0.247786	-0.166414	0.371479	-0.076449	1.8429	2.075	3.1246	-0.104908	2.10974	2.57405	2.71682	1.60209	3.61082	0.925719	1.05305	0.662886	1.77843	0.519259	1.05867	-1.18949	0.317926	0.491759	1.28816	0.669421	2.19069	-0.088185	0.791831	0.771994	2.25558	
0.654287	3.83148	0	5	-0.931647	-0.883506	0.491295	0.25644	-0.162212	0.37109	-0.054611	1.86391	2.0884	3.15358	-0.113462	2.10297	2.5886	2.7546	1.59421	3.63308	0.986272	1.12518	0.665535	1.81022	0.540042	1.08408	-1.20045	0.313987	0.493622	1.2829	0.672455	2.18212	-0.091329	0.779776	0.765034	2.24759	
0.652727	3.84521	0	5	-0.926915	-0.874547	0.490921	0.265093	-0.158011	0.370702	-0.032773	1.88493	2.10179	3.18256	-0.122017	2.09621	2.60315	2.79237	1.58633	3.65535	1.04682	1.19731	0.668185	1.84201	0.560826	1.1095	-1.21142	0.310048	0.495486	1.27763	0.675489	2.17354	-0.094473	0.767722	0.758074	2.23961	
0.651345	3.8681	0	5	-0.922183	-0.865587	0.490546	0.273747	-0.153809	0.370314	-0.010935	1.90595	2.11518	3.21155	-0.130572	2.08945	2.61769	2.83015	1.57846	3.67761	1.10738	1.26944	0.670834	1.87381	0.58161	1.13491	-1.22239	0.306109	0.497349	1.27237	0.678523	2.16497	-0.097617	0.755668	0.751114	2.23162	
0.649976	3.90015	0	5	-0.933993	-0.84338	0.490168	0.282413	-0.158153	0.38259	-0.00444	1.94989	2.12724	3.24453	-0.127713	2.11231	2.62808	2.86415	1.58056	3.69683	1.16321	1.32507	0.679322	1.91547	0.60376	1.15685	-1.22039	0.335383	0.492951	1.27322	0.681098	2.16768	-0.105573	0.746787	0.749756	2.22625	
0.64846	3.92761	0	5	-0.945803	-0.821174	0.489789	0.291079	-0.162496	0.394865	0.002055	1.99382	2.1393	3.27752	-0.124853	2.13517	2.63847	2.89815	1.58266	3.71606	1.21905	1.3807	0.687809	1.95714	0.62591	1.17878	-1.21838	0.364657	0.488553	1.27407	0.683674	2.17039	-0.113529	0.737906	0.748398	2.22088	
0.646655	3.96881	0	5	-0.957613	-0.798967	0.489411	0.299745	-0.16684	0.407141	0.00855	2.03776	2.15136	3.31051	-0.121994	2.15802	2.64885	2.93215	1.58477	3.73528	1.27489	1.43632	0.696297	1.9988	0.648059	1.20072	-1.21638	0.393931	0.484154	1.27492	0.686249	2.1731	-0.121484	0.729025	0.747039	2.21551	
0.644645	4.01001	0	5	-0.969423	-0.77676	0.489033	0.308411	-0.171183	0.419417	0.015045	2.0817	2.16342	3.3435	-0.119134	2.18088	2.65924	2.96615	1.58687	3.7545	1.33072	1.49195	0.704785	2.04047	0.670209	1.22265	-1.21438	0.423205	0.479756	1.27577	0.688824	2.17581	-0.12944	0.720144	0.745681	2.21014	
0.64263	4.05121	0	5	-0.969697	-0.798304	0.485141	0.304218	-0.178495	0.417115	0.0268523	2.05873	2.17898	3.38034	-0.139999	2.17802	2.66803	3.00487	1.58738	3.77828	1.3544	1.54098	0.728337	2.07943	0.67548	1.25017	-1.2137	0.456278	0.480427	1.28545	0.689925	2.1927	-0.137022	0.731129	0.742801	2.21828	
0.640812	4.08935	0	5	-0.969971	-0.819848	0.481249	0.300025	-0.185807	0.414814	0.0386595	2.03576	2.19453	3.41718	-0.160863	2.17516	2.67683	3.04358	1.58788	3.80206	1.37808	1.59001	0.751889	2.1184	0.680751	1.27768	-1.21301	0.489352	0.481098	1.29514	0.691025	2.20958	-0.144604	0.742113	0.73992	2.22642	
0.639395	4.1214	0	5	-0.970246	-0.841393	0.477358	0.295832	-0.193119	0.412513	0.0504668	2.0128	2.21009	3.45402	-0.181728	2.1723	2.68562	3.08229	1.58839	3.82584	1.40175	1.63904	0.775441	2.15737	0.686022	1.3052	-1.21233	0.522425	0.481768	1.30482	0.692125	2.22647	-0.152186	0.753098	0.73704	2.23456	
0.638566	4.15039	0	5	-0.97052	-0.862937	0.473466	0.291639	-0.200431	0.410211	0.062274	1.98983	2.22565	3.49086	-0.202593	2.16944	2.69441	3.12101	1.58889	3.84962	1.42543	1.68807	0.798993	2.19633	0.691293	1.33271	-1.21165	0.555499	0.482439	1.3145	0.693226	2.24336	-0.159768	0.764083	0.73416	2.2427	
0.638295	4.1748	0	5	-0.966087	-0.875467	0.469972	0.293922	-0.201517	0.413279	0.0766535	1.98043	2.25155	3.51236	-0.205903	2.16337	2.71688	3.13728	1.60523	3.8666	1.44214	1.72412	0.824403	2.21735	0.697833	1.34255	-1.20907	0.548218	0.478042	1.31535	0.684492	2.23806	-0.161796	0.759378	0.72761	2.24281	
0.638395	4.19617	0	5	-0.961653	-0.887996	0.466478	0.296205	-0.202603	0.416347	0.091033	1.97104	2.27746	3.53387	-0.209214	2.1573	2.73935	3.15355	1.62157	3.88358	1.45884	1.76017	0.849813	2.23837	0.704373	1.3524	-1.2065	0.540936	0.473645	1.3162	0.675758	2.23275	-0.163824	0.754672	0.721059	2.24292	
0.638672	4.20837	0	5	-0.95722	-0.900526	0.462984	0.298488	-0.203688	0.419416	0.105412	1.96164	2.30336	3.55537	-0.212525	2.15123	2.76182	3.16982	1.63791	3.90056	1.47555	1.79622	0.875223	2.25939	0.710913	1.36225	-1.20392	0.533655	0.469247	1.31705	0.667023	2.22745	-0.165853	0.749967	0.714508	2.24303	
0.638935	4.21905	0	5	-0.952786	-0.913056	0.45949	0.300771	-0.204774	0.422484	0.119792	1.95225	2.32927	3.57687	-0.215835	2.14516	2.78429	3.18609	1.65425	3.91754	1.49226	1.83227	0.900633	2.2804	0.717453	1.37209	-1.20135	0.526374	0.46485	1.3179	0.658289	2.22215	-0.167881	0.745262	0.707958	2.24313	
0.639002	4.22974	0	5	-0.946947	-0.907238	0.464155	0.302775	-0.199638	0.430935	0.129756	1.97627	2.3504	3.59873	-0.209213	2.15731	2.80105	3.20276	1.66319	3.94294	1.50966	1.84995	0.917044	2.30061	0.720074	1.37886	-1.19188	0.522986	0.46325	1.31084	0.656181	2.20815	-0.177656	0.74161	0.70525	2.2324	
0.638972	4.22974	0	5	-0.941108	-0.901421	0.468819	0.304779	-0.194502	0.439386	0.13972	2.0003	2.37153	3.62059	-0.202591	2.16946	2.81782	3.21943	1.67214	3.96834	1.52706	1.86764	0.933455	2.32083	0.722695	1.38563	-1.18241	0.519597	0.46165	1.30379	0.654072	2.19414	-0.187431	0.737958	0.702541	2.22167	
0.639211	4.23126	0	5	-0.935269	-0.895603	0.473484	0.306782	-0.189366	0.447837	0.149685	2.02433	2.39265	3.64245	-0.195968	2.18161	2.83459	3.2361	1.68108	3.99375	1.54447	1.88533	0.949866	2.34104	0.725317	1.39241	-1.17294	0.516209	0.460051	1.29674	0.651963	2.18014	-0.197206	0.734306	0.699833	2.21094	
0.640101	4.22211	0	5	-0.92943	-0.889786	0.478148	0.308786	-0.18423	0.456288	0.159649	2.04835	2.41378	3.66432	-0.189346	2.19375	2.85136	3.25278	1.69003	4.01915	1.56187	1.90302	0.966277	2.36125	0.727938	1.39918	-1.16347	0.512821	0.458451	1.28969	0.649855	2.16614	-0.206981	0.730654	0.697125	2.2002	
0.642024	4.21448	0	5	-0.933175	-0.868033	0.47699	0.319657	-0.185473	0.471296	0.167361	2.08937	2.42378	3.69064	-0.179902	2.22894	2.85077	3.27048	1.70058	4.04015	1.57496	1.91635	0.988899	2.37754	0.735791	1.40538	-1.15073	0.535349	0.458451	1.28969	0.656011	2.1687	-0.202185	0.72752	0.692897	2.20297	
0.645346	4.20227	5	0	-0.93692	-0.846279	0.475832	0.330527	-0.186717	0.486303	0.175073	2.1304	2.43378	3.71697	-0.170459	2.26413	2.85018	3.28819	1.71113	4.06115	1.58805	1.92967	1.01152	2.39384	0.743645	1.41158	-1.13798	0.557878	0.458451	1.28969	0.662167	2.17127	-0.197389	0.724387	0.688669	2.20573	
0.649772	4.19159	5	0	-0.940664	-0.824526	0.474673	0.341398	-0.18796	0.501311	0.182786	2.17142	2.44378	3.74329	-0.161015	2.29932	2.8496	3.3059	1.72168	4.08215	1.60114	1.94299	1.03414	2.41013	0.751498	1.41777	-1.12523	0.580407	0.458451	1.28969	0.668323	2.17383	-0.192594	0.721253	0.684441	2.20849	
0.654022	4.18243	5	0	-0.944409	-0.802773	0.473515	0.352269	-0.189203	0.516319	0.190498	2.21244	2.45377	3.76962	-0.151571	2.33451	2.84901	3.32361	1.73223	4.10316	1.61423	1.95632	1.05676	2.42642	0.759351	1.42397	-1.11249	0.602935	0.458451	1.28969	0.674479	2.1764	-0.187798	0.718119	0.680213	2.21125	
0.65674	4.16717	5	0	-0.947748	-0.793338	0.473515	0.352269	-0.193247	0.504766	0.190596	2.22266	2.43845	3.78562	-0.163048	2.36695	2.84681	3.3459	1.72579	4.12135	1.6408	2.01608	1.05496	2.44493	0.758054	1.45607	-1.11314	0.640012	0.458186	1.30201	0.696676	2.20377	-0.18652	0.735365	0.680036	2.23013	
0.656568	4.15344	5	0	-0.951086	-0.783902	0.473515	0.352269	-0.19729	0.493212	0.190693	2.23287	2.42312	3.80163	-0.174525	2.39938	2.84461	3.36818	1.71935	4.13955	1.66737	2.07585	1.05315	2.46343	0.756757	1.48817	-1.1138	0.677089	0.457921	1.31433	0.718873	2.23113	-0.185242	0.752611	0.679859	2.24901	
0.652152	4.13666	5	0	-0.954425	-0.774466	0.473515	0.352269	-0.201333	0.481659	0.190791	2.24309	2.40779	3.81763	-0.186002	2.43182	2.8424	3.39047	1.71292	4.15775	1.69393	2.13561	1.05135	2.48193	0.755461	1.52027	-1.11446	0.714166	0.457656	1.32665	0.741071	2.2585	-0.183964	0.769858	0.679682	2.26789	
0.643149	4.11987	5	0	-0.957764	-0.765031	0.473515	0.352269	-0.205377	0.470106	0.190888	2.2533	2.39247	3.83364	-0.197479	2.46425	2.8402	3.41275	1.70648	4.17595	1.7205	2.19537	1.04955	2.50044	0.754164	1.55238	-1.11512	0.751243	0.457391	1.33898	0.763268	2.28587	-0.182686	0.787104	0.679505	2.28676	
0.631993	4.10461	5	0	-0.961791	-0.764818	0.475067	0.347882	-0.218886	0.462409	0.217755	2.26151	2.38343	3.84554	-0.204075	2.45193	2.84636	3.44362	1.71174	4.18652	1.7498	2.26544	1.04452	2.52805	0.751527	1.57406	-1.12312	0.762132	0.449921	1.36009	0.765979	2.32845	-0.191958	0.813309	0.674115	2.31119	
0.62159	4.0863	5	0	-0.965819	-0.764606	0.476619	0.343495	-0.232395	0.454712	0.244621	2.26972	2.37439	3.85744	-0.21067	2.4396	2.85253	3.47448	1.71701	4.1971	1.7791	2.33551	1.0395	2.55566	0.748891	1.59575	-1.13113	0.773022	0.44245	1.3812	0.768691	2.37103	-0.20123	0.839514	0.668725	2.33562	
0.614844	4.07562	5	0	-0.969847	-0.764393	0.478172	0.339107	-0.245905	0.447015	0.271487	2.27792	2.36535	3.86935	-0.217266	2.42728	2.85869	3.50534	1.72228	4.20768	1.8084	2.40558	1.03448	2.58327	0.746255	1.61743	-1.13914	0.783911	0.434979	1.40231	0.771402	2.41361	-0.210503	0.865718	0.663335	2.36005	
0.614653	4.05731	5	0	-0.973874	-0.76418	0.479724	0.33472	-0.259414	0.439318	0.298354	2.28613	2.35632	3.88125	-0.223862	2.41496	2.86485	3.5362	1.72754	4.21826	1.8377	2.47565	1.02945	2.61088	0.743618	1.63912	-1.14715	0.7948	0.427509	1.42343	0.774114	2.45619	-0.219775	0.891923	0.657945	2.38448	
0.622131	4.04205	5	0	-0.970275	-0.752006	0.48167	0.336821	-0.264844	0.454666	0.335412	2.31894	2.35707	3.89276	-0.211523	2.41105	2.88425	3.5621	1.72694	4.2327	1.85994	2.53258	1.03837	2.62597	0.747521	1.65659	-1.14155	0.802463	0.419663	1.42246	0.776161	2.4504	-0.230458	0.890838	0.642955	2.39009	
0.634601	4.02984	5	0	-0.966675	-0.739833	0.483616	0.338923	-0.270274	0.470013	0.37247	2.35175	2.35782	3.90428	-0.199183	2.40714	2.90365	3.58801	1.72634	4.24714	1.88218	2.58951	1.04729	2.64107	0.751424	1.67406	-1.13594	0.810126	0.411818	1.4215	0.778209	2.44462	-0.241142	0.889754	0.627965	2.39569	
0.648897	4.01459	5	0	-0.963075	-0.727659	0.485562	0.341025	-0.275705	0.485361	0.409527	2.38455	2.35857	3.9158	-0.186843	2.40323	2.92305	3.61391	1.72574	4.26158	1.90442	2.64644	1.05621	2.65616	0.755327	1.69153	-1.13034	0.817788	0.403973	1.42053	0.780257	2.43883	-0.251825	0.888669	0.612976	2.4013	
0.661855	4.00085	5	0	-0.959476	-0.715485	0.487508	0.343126	-0.281135	0.500708	0.446585	2.41736	2.35932	3.92732	-0.174504	2.39932	2.94245	3.63982	1.72514	4.27602	1.92666	2.70337	1.06513	2.67125	0.75923	1.709	-1.12474	0.825451	0.396127	1.41957	0.782304	2.43305	-0.262508	0.887584	0.597986	2.40691	
0.670308	3.98559	5	0	-0.951607	-0.681741	0.487123	0.351817	-0.283656	0.530755	0.475427	2.47441	2.36923	3.95398	-0.159882	2.43564	2.94697	3.67567	1.72879	4.29123	1.9612	2.72632	1.06786	2.69046	0.773639	1.72541	-1.11201	0.848378	0.389873	1.42568	0.783865	2.4387	-0.273947	0.89909	0.593762	2.40967	
0.671657	3.97186	0	5	-0.943738	-0.647997	0.486738	0.360509	-0.286177	0.560803	0.504269	2.53146	2.37914	3.98063	-0.14526	2.47195	2.95148	3.71152	1.73243	4.30645	1.99573	2.74928	1.07059	2.70966	0.788048	1.74182	-1.09929	0.871304	0.38362	1.4318	0.785426	2.44435	-0.285386	0.910596	0.589538	2.41243	
0.666887	3.96271	0	5	-0.935869	-0.614252	0.486354	0.3692	-0.288697	0.59085	0.53311	2.5885	2.38905	4.00729	-0.130638	2.50827	2.956	3.74737	1.73607	4.32167	2.03027	2.77223	1.07332	2.72886	0.802457	1.75824	-1.08656	0.894231	0.377366	1.43792	0.786987	2.45001	-0.296825	0.922102	0.585314	2.41519	
0.65839	3.95813	0	5	-0.928	-0.580508	0.485969	0.377891	-0.291218	0.620897	0.561952	2.64555	2.39895	4.03395	-0.116016	2.54458	2.96051	3.78322	1.73971	4.33689	2.0648	2.79518	1.07605	2.74806	0.816866	1.77465	-1.07384	0.917157	0.371112	1.44403	0.788548	2.45566	-0.308264	0.933608	0.58109	2.41795	
0.648558	3.9505	0	5	-0.932288	-0.545948	0.47586	0.391256	-0.288493	0.647635	0.558574	2.69794	2.40467	4.07261	-0.0980712	2.58746	2.95657	3.8106	1.7401	4.36136	2.07641	2.81429	1.07876	2.76734	0.820721	1.80672	-1.05001	0.944417	0.375849	1.46534	0.794287	2.48985	-0.291569	0.948962	0.580256	2.44786	
0.639786	3.94592	0	5	-0.936577	-0.511389	0.465751	0.40462	-0.285768	0.674373	0.555195	2.75033	2.41039	4.11128	-0.0801265	2.63035	2.95262	3.83798	1.74048	4.38583	2.08801	2.8334	1.08148	2.78661	0.824577	1.83879	-1.02618	0.971677	0.380585	1.48665	0.800026	2.52404	-0.274874	0.964317	0.579421	2.47776	
0.634244	3.94134	0	5	-0.940865	-0.476829	0.455642	0.417985	-0.283043	0.701111	0.551816	2.80272	2.41611	4.14994	-0.0621817	2.67323	2.94867	3.86537	1.74087	4.41029	2.09961	2.85251	1.0842	2.80588	0.828433	1.87086	-1.00235	0.998937	0.385321	1.50796	0.805764	2.55823	-0.258179	0.979671	0.578587	2.50766	
0.632123	3.93982	0	5	-0.945153	-0.442269	0.445533	0.43135	-0.280318	0.727849	0.548438	2.85512	2.42182	4.1886	-0.044237	2.71611	2.94473	3.89275	1.74125	4.43476	2.11122	2.87162	1.08692	2.82516	0.832288	1.90293	-0.978521	1.0262	0.390058	1.52927	0.811503	2.59242	-0.241484	0.995025	0.577752	2.53757	
0.632582	3.93829	0	5	-0.949664	-0.42952	0.436603	0.433805	-0.281611	0.742998	0.544724	2.85489	2.42607	4.20408	-0.04481	2.73337	2.94146	3.90199	1.73962	4.43936	2.1077	2.88157	1.08827	2.83482	0.828232	1.92873	-0.97932	1.06406	0.388507	1.55682	0.821348	2.63539	-0.24387	1.03311	0.574935	2.57312	
0.634766	3.93524	0	5	-0.954175	-0.416771	0.427673	0.43626	-0.282905	0.758147	0.54101	2.85467	2.43031	4.21956	-0.045383	2.75064	2.93819	3.91123	1.73799	4.44396	2.10418	2.89152	1.08963	2.84449	0.824177	1.95454	-0.980119	1.10192	0.386956	1.58437	0.831193	2.67837	-0.246256	1.0712	0.572118	2.60866	
0.637824	3.93371	0	5	-0.958686	-0.404022	0.418742	0.438714	-0.284198	0.773295	0.537296	2.85444	2.43455	4.23504	-0.045956	2.7679	2.93492	3.92047	1.73636	4.44856	2.10066	2.90146	1.09098	2.85415	0.820121	1.98034	-0.980917	1.13978	0.385404	1.61192	0.841038	2.72135	-0.248641	1.10929	0.569301	2.64421	
0.640938	3.92609	0	5	-0.963197	-0.391273	0.409812	0.441169	-0.285491	0.788444	0.533582	2.85422	2.4388	4.25052	-0.046529	2.78517	2.93165	3.92971	1.73473	4.45317	2.09714	2.9114	1.09234	2.86382	0.816065	2.00615	-0.981716	1.17764	0.383853	1.63947	0.850883	2.76433	-0.251027	1.14738	0.566484	2.67976	
0.643753	3.92761	0	5	-0.959635	-0.378873	0.407478	0.447765	-0.281498	0.800169	0.536076	2.85789	2.43739	4.25448	-0.043216	2.79146	2.93492	3.92047	1.73799	4.44396	2.09093	2.91164	1.09557	2.85467	0.806867	2.00347	-0.976247	1.17406	0.374753	1.6536	0.83791	2.79086	-0.268149	1.17487	0.557386	2.69627	
0.646241	3.92609	0	5	-0.956073	-0.366472	0.405143	0.454362	-0.277505	0.811893	0.538569	2.86157	2.43599	4.25845	-0.039903	2.79776	2.93819	3.91123	1.74125	4.43476	2.08472	2.91187	1.09881	2.84552	0.79767	2.00079	-0.970778	1.17049	0.365652	1.66773	0.824936	2.81739	-0.285272	1.20236	0.548288	2.71279	
0.648382	3.92456	0	5	-0.952511	-0.354071	0.402809	0.460958	-0.273513	0.823618	0.541063	2.86524	2.43459	4.26241	-0.03659	2.80406	2.94146	3.90199	1.7445	4.42556	2.07851	2.91211	1.10205	2.83637	0.788472	1.9981	-0.96531	1.16692	0.356552	1.68187	0.811963	2.84393	-0.302395	1.22984	0.53919	2.7293	
0.650154	3.92151	0	5	-0.948949	-0.341671	0.400475	0.467555	-0.26952	0.835342	0.543557	2.86891	2.43319	4.26637	-0.033277	2.81035	2.94473	3.89275	1.74776	4.41636	2.0723	2.91234	1.10529	2.82721	0.779274	1.99542	-0.959841	1.16334	0.347452	1.696	0.79899	2.87046	-0.319517	1.25733	0.530092	2.74581	
0.651538	3.9154	0	5	-0.942967	-0.31356	0.400452	0.482807	-0.264636	0.856107	0.552361	2.89772	2.43811	4.2662	-0.0102392	2.80801	2.93726	3.89763	1.74776	4.41636	2.07582	2.9024	1.10529	2.82721	0.781938	1.98789	-0.950219	1.15993	0.343065	1.69682	0.791752	2.87067	-0.320456	1.25999	0.52586	2.74858	
0.652509	3.91235	0	5	-0.936986	-0.285448	0.400429	0.498058	-0.259753	0.876872	0.561166	2.92653	2.44304	4.26603	0.0127985	2.80567	2.92979	3.90251	1.74776	4.41636	2.07933	2.89246	1.10529	2.82721	0.784603	1.98036	-0.940596	1.15653	0.338677	1.69764	0.784513	2.87088	-0.321395	1.26264	0.521628	2.75134	
0.653043	3.90777	0	5	-0.931004	-0.257337	0.400405	0.51331	-0.25487	0.897637	0.569971	2.95534	2.44796	4.26586	0.0358363	2.80332	2.92232	3.9074	1.74776	4.41636	2.08285	2.88252	1.10529	2.82721	0.787268	1.97283	-0.930974	1.15312	0.33429	1.69846	0.777275	2.87109	-0.322334	1.26529	0.517395	2.75411	
0.653114	3.9032	0	5	-0.925022	-0.229226	0.400382	0.528562	-0.249986	0.918402	0.578775	2.98414	2.45289	4.26569	0.058874	2.80098	2.91485	3.91228	1.74776	4.41636	2.08637	2.87258	1.10529	2.82721	0.789932	1.9653	-0.921351	1.14971	0.329903	1.69928	0.770037	2.8713	-0.323273	1.26795	0.513163	2.75687	
0.652695	3.90015	0	5	-0.92945	-0.194163	0.398785	0.548274	-0.256849	0.949335	0.58387	3.02359	2.46207	4.28107	0.0722062	2.82628	2.91905	3.91664	1.75465	4.42247	2.07478	2.85348	1.10988	2.82773	0.795197	1.96475	-0.907208	1.16934	0.327075	1.70727	0.777775	2.87981	-0.316359	1.27977	0.516758	2.76511	
0.651763	3.89252	0	5	-0.933878	-0.1591	0.397188	0.567986	-0.263713	0.980268	0.588965	3.06304	2.47125	4.29645	0.0855385	2.85158	2.92325	3.92099	1.76154	4.42858	2.06319	2.83437	1.11448	2.82824	0.800461	1.96421	-0.893064	1.18898	0.324248	1.71526	0.785513	2.88832	-0.309445	1.29159	0.520354	2.77334	
0.650357	3.89099	0	5	-0.938306	-0.124036	0.395591	0.587699	-0.270576	1.0112	0.594059	3.10249	2.48042	4.31183	0.0988708	2.87688	2.92745	3.92535	1.76843	4.43469	2.0516	2.81527	1.11907	2.82876	0.805726	1.96366	-0.87892	1.20861	0.32142	1.72325	0.79325	2.89683	-0.30253	1.30342	0.523949	2.78158	
0.648665	3.88489	0	5	-0.942734	-0.088973	0.393994	0.607411	-0.277439	1.04214	0.599154	3.14194	2.4896	4.3272	0.112203	2.90217	2.93165	3.92971	1.77532	4.44081	2.04001	2.79616	1.12367	2.82927	0.810991	1.96311	-0.864777	1.22824	0.318592	1.73124	0.800988	2.90534	-0.295616	1.31524	0.527544	2.78981	
0.646894	3.87421	0	5	-0.954874	-0.0884777	0.389713	0.611908	-0.278548	1.04527	0.589232	3.14842	2.49525	4.33882	0.103734	2.94189	2.92745	3.92535	1.77795	4.44617	2.02401	2.77247	1.12827	2.82978	0.817532	1.97333	-0.854776	1.24779	0.326092	1.74481	0.813908	2.91956	-0.276935	1.33584	0.533427	2.80081	
0.64525	3.87268	0	5	-0.967013	-0.0879825	0.385433	0.616404	-0.279657	1.0484	0.57931	3.1549	2.50091	4.35043	0.095264	2.9816	2.92325	3.92099	1.78058	4.45154	2.008	2.74878	1.13287	2.8303	0.824072	1.98354	-0.844774	1.26734	0.333592	1.75837	0.826827	2.93379	-0.258254	1.35643	0.539311	2.81181	
0.643939	3.86352	0	5	-0.979153	-0.0874873	0.381153	0.6209	-0.280766	1.05154	0.569388	3.16139	2.50656	4.36205	0.0867945	3.02131	2.91905	3.91664	1.78322	4.4569	1.992	2.72509	1.13747	2.83081	0.830613	1.99376	-0.834773	1.2869	0.341092	1.77193	0.839747	2.94801	-0.239572	1.37703	0.545194	2.82281	
0.643133	3.862	0	5	-0.991293	-0.086992	0.376872	0.625397	-0.281875	1.05467	0.559466	3.16787	2.51222	4.37366	0.078325	3.06103	2.91485	3.91228	1.78585	4.46227	1.976	2.7014	1.14207	2.83132	0.837154	2.00397	-0.824772	1.30645	0.348592	1.7855	0.852666	2.96224	-0.220891	1.39762	0.551077	2.83381	
0.642886	3.86047	0	5	-0.991916	-0.0964887	0.374157	0.625471	-0.283859	1.04874	0.547031	3.14923	2.50797	4.35807	0.073649	3.0427	2.91228	3.90331	1.78648	4.44769	1.96714	2.69206	1.13449	2.82572	0.826614	2.00506	-0.838612	1.30969	0.352649	1.79724	0.840101	2.99775	-0.226476	1.42391	0.547493	2.85316	
0.643226	3.85132	0	5	-0.992539	-0.105986	0.371443	0.625545	-0.285843	1.04281	0.534597	3.13059	2.50372	4.34248	0.068973	3.02438	2.90971	3.89435	1.7871	4.43312	1.95829	2.68272	1.12691	2.82012	0.816074	2.00615	-0.852451	1.31293	0.356705	1.80899	0.827537	3.03325	-0.232061	1.45021	0.54391	2.87251	
0.644181	3.84064	0	5	-0.993162	-0.115482	0.368728	0.62562	-0.287827	1.03688	0.522162	3.11194	2.49947	4.32689	0.064297	3.00605	2.90715	3.88538	1.78773	4.41855	1.94943	2.67339	1.11933	2.81453	0.805534	2.00724	-0.866291	1.31616	0.360761	1.82073	0.814972	3.06876	-0.237645	1.4765	0.540326	2.89185	
0.64578	3.84827	0	5	-0.993785	-0.124979	0.366013	0.625694	-0.289811	1.03095	0.509727	3.0933	2.49523	4.3113	0.059621	2.98772	2.90458	3.87642	1.78835	4.40398	1.94057	2.66405	1.11176	2.80893	0.794994	2.00832	-0.880131	1.3194	0.364818	1.83248	0.802407	3.10427	-0.24323	1.50279	0.536742	2.9112	
0.647994	3.84674	0	5	-0.986837	-0.122092	0.367945	0.627831	-0.285609	1.03062	0.510927	3.07917	2.48112	4.2961	0.0674717	2.96553	2.89525	3.85421	1.78897	4.38944	1.92636	2.63567	1.1058	2.79878	0.793788	1.98308	-0.883118	1.30396	0.360761	1.82073	0.800953	3.07792	-0.244371	1.485	0.532824	2.89463	
0.650485	3.84521	5	0	-0.97989	-0.119206	0.369877	0.629968	-0.281408	1.03028	0.512126	3.06505	2.46701	4.28091	0.0753225	2.94335	2.88592	3.83201	1.78958	4.37491	1.91215	2.6073	1.09985	2.78863	0.792582	1.95783	-0.886105	1.28853	0.356705	1.80899	0.799499	3.05157	-0.245512	1.46722	0.528905	2.87807	
0.652803	3.83911	5	0	-0.972942	-0.116319	0.37181	0.632106	-0.277207	1.02994	0.513325	3.05092	2.4529	4.26572	0.0831733	2.92116	2.8766	3.80981	1.7902	4.36037	1.89794	2.57892	1.0939	2.77848	0.791376	1.93259	-0.889092	1.27309	0.352649	1.79724	0.798045	3.02523	-0.246653	1.44943	0.524987	2.8615	
0.654498	3.84216	5	0	-0.965994	-0.113432	0.373742	0.634243	-0.273005	1.0296	0.514525	3.03679	2.4388	4.25052	0.091024	2.89897	2.86727	3.78761	1.79081	4.34583	1.88373	2.55055	1.08795	2.76833	0.79017	1.90734	-0.892079	1.25765	0.348592	1.7855	0.796591	2.99888	-0.247794	1.43165	0.521068	2.84493	
0.65512	3.84369	5	0	-0.962463	-0.100862	0.374109	0.640808	-0.267923	1.03833	0.517012	3.0405	2.43387	4.25069	0.0982797	2.89423	2.86308	3.78329	1.78655	4.34509	1.85387	2.5326	1.09415	2.76427	0.78629	1.88969	-0.883922	1.24653	0.352372	1.77482	0.796649	2.97844	-0.248841	1.42411	0.527898	2.82563	
0.65426	3.84521	5	0	-0.958932	-0.0882925	0.374475	0.647373	-0.26284	1.04706	0.519499	3.04421	2.42895	4.25086	0.105536	2.88949	2.85888	3.77897	1.78229	4.34434	1.824	2.51466	1.10036	2.76022	0.78241	1.87205	-0.875765	1.23542	0.356152	1.76413	0.796706	2.95799	-0.249889	1.41658	0.534728	2.80633	
0.651992	3.84216	5	0	-0.955401	-0.0757228	0.374841	0.653938	-0.257757	1.05579	0.521986	3.04792	2.42403	4.25104	0.112791	2.88475	2.85469	3.77465	1.77803	4.3436	1.79414	2.49671	1.10656	2.75616	0.77853	1.8544	-0.867609	1.2243	0.359932	1.75345	0.796763	2.93755	-0.250937	1.40904	0.541559	2.78702	
0.648722	3.84369	5	0	-0.95187	-0.063153	0.375208	0.660503	-0.252675	1.06452	0.524473	3.05163	2.41911	4.25121	0.120047	2.88001	2.8505	3.77034	1.77377	4.34285	1.76428	2.47877	1.11277	2.75211	0.77465	1.83676	-0.859452	1.21318	0.363712	1.74277	0.796821	2.91711	-0.251984	1.40151	0.548389	2.76772	
0.644861	3.84979	5	0	-0.96629	-0.056212	0.368213	0.665074	-0.256881	1.06486	0.498561	3.07123	2.42755	4.25483	0.11023	2.90775	2.84469	3.77061	1.7764	4.34819	1.75455	2.45531	1.11115	2.75667	0.782556	1.82871	-0.85245	1.21729	0.369051	1.73928	0.802528	2.91112	-0.243265	1.39786	0.548389	2.76772	
0.640821	3.84979	5	0	-0.980711	-0.049271	0.361217	0.669644	-0.261088	1.0652	0.47265	3.09083	2.436	4.25845	0.100414	2.93549	2.83889	3.77088	1.77904	4.35353	1.74482	2.43185	1.10954	2.76123	0.790462	1.82067	-0.845449	1.2214	0.374391	1.73579	0.808235	2.90513	-0.234546	1.39422	0.548389	2.76772	
0.637007	3.84369	5	0	-0.995132	-0.04233	0.354222	0.674215	-0.265294	1.06553	0.446738	3.11043	2.44444	4.26207	0.0905968	2.96324	2.83308	3.77115	1.78168	4.35887	1.73509	2.40839	1.10792	2.76579	0.798369	1.81262	-0.838447	1.22551	0.379731	1.7323	0.813942	2.89913	-0.225827	1.39058	0.548389	2.76772	
0.633712	3.84674	5	0	-1.00955	-0.035389	0.347227	0.678786	-0.2695	1.06587	0.420827	3.13003	2.45289	4.26569	0.08078	2.99098	2.82727	3.77142	1.78431	4.3642	1.72536	2.38492	1.10631	2.77036	0.806275	1.80458	-0.831445	1.22961	0.38507	1.72881	0.819649	2.89314	-0.217108	1.38693	0.548389	2.76772	
0.631127	3.84216	5	0	-1.01028	-0.0670982	0.34921	0.665586	-0.265946	1.04428	0.404739	3.09001	2.45497	4.24607	0.0582983	2.97583	2.82956	3.7488	1.78492	4.34969	1.71052	2.37605	1.10172	2.76985	0.794441	1.80944	-0.843776	1.24057	0.386633	1.736	0.822732	2.90472	-0.213111	1.39666	0.558186	2.76767	
0.62944	3.84216	5	0	-1.011	-0.0988075	0.351193	0.652387	-0.262391	1.0227	0.388651	3.04999	2.45705	4.22644	0.0358165	2.96068	2.83185	3.72619	1.78553	4.33518	1.69567	2.36718	1.09713	2.76934	0.782607	1.81429	-0.856106	1.25152	0.388196	1.7432	0.825815	2.9163	-0.209114	1.40638	0.567982	2.76763	
0.628838	3.84216	5	0	-1.01172	-0.130517	0.353177	0.639188	-0.258837	1.00111	0.372563	3.00997	2.45913	4.20681	0.0133347	2.94552	2.83415	3.70358	1.78614	4.32067	1.68083	2.35831	1.09254	2.76883	0.770773	1.81915	-0.868436	1.26247	0.389758	1.75039	0.828898	2.92787	-0.205116	1.41611	0.577778	2.76758	
0.629492	3.83301	5	0	-1.01244	-0.162226	0.35516	0.625988	-0.255283	0.979519	0.356475	2.96995	2.46121	4.18719	-0.009147	2.93037	2.83644	3.68097	1.78675	4.30616	1.66599	2.34943	1.08795	2.76833	0.758939	1.824	-0.880767	1.27343	0.391321	1.75758	0.831981	2.93945	-0.201119	1.42583	0.587575	2.76754	
0.631196	3.8269	5	0	-1.00854	-0.184509	0.357505	0.61936	-0.250859	0.967016	0.355111	2.9312	2.45203	4.17193	-0.0171285	2.90588	2.83548	3.66755	1.78411	4.30084	1.65289	2.33577	1.08819	2.75415	0.757693	1.79898	-0.88676	1.24267	0.386307	1.74854	0.818573	2.91654	-0.211946	1.41441	0.578412	2.75659	
0.633375	3.82538	5	0	-1.00463	-0.206792	0.35985	0.612733	-0.246435	0.954512	0.353746	2.89246	2.44285	4.15668	-0.02511	2.88138	2.83453	3.65414	1.78147	4.29552	1.63979	2.32212	1.08844	2.73998	0.756447	1.77395	-0.892753	1.21191	0.381293	1.7395	0.805165	2.89363	-0.222772	1.40299	0.569249	2.74564	
0.635433	3.8208	5	0	-1.00072	-0.229075	0.362195	0.606105	-0.242011	0.942009	0.352382	2.85372	2.43367	4.14142	-0.0330915	2.85688	2.83357	3.64072	1.77883	4.2902	1.62669	2.30846	1.08869	2.7258	0.755202	1.74893	-0.898746	1.18115	0.376279	1.73046	0.791758	2.87072	-0.233598	1.39156	0.560085	2.73469	
0.63678	3.8147	5	0	-0.99681	-0.251358	0.36454	0.599478	-0.237587	0.929505	0.351018	2.81498	2.4245	4.12617	-0.041073	2.83238	2.83261	3.6273	1.7762	4.28488	1.61359	2.2948	1.08894	2.71163	0.753956	1.72391	-0.904739	1.15039	0.371265	1.72142	0.77835	2.84781	-0.244425	1.38014	0.550922	2.72374	
0.636834	3.81317	5	0	-0.982418	-0.258299	0.373467	0.597041	-0.233379	0.929158	0.353442	2.80813	2.42098	4.12241	-0.0280173	2.81116	2.83261	3.6273	1.77782	4.2803	1.60222	2.2764	1.09377	2.69799	0.756613	1.70214	-0.89698	1.11655	0.372529	1.70626	0.771676	2.81615	-0.245588	1.36245	0.554464	2.70453	
0.635467	3.80707	5	0	-0.968027	-0.26524	0.382395	0.594604	-0.229172	0.92881	0.355866	2.80128	2.41745	4.11865	-0.0149615	2.78993	2.83261	3.6273	1.77944	4.27572	1.59084	2.258	1.09859	2.68434	0.75927	1.68037	-0.889221	1.08272	0.373792	1.69109	0.765003	2.7845	-0.24675	1.34476	0.558005	2.68532	
0.633129	3.80096	5	0	-0.953635	-0.27218	0.391323	0.592168	-0.224965	0.928463	0.358291	2.79443	2.41393	4.11489	-0.00190575	2.76871	2.83261	3.6273	1.78106	4.27114	1.57947	2.2396	1.10342	2.67069	0.761928	1.65861	-0.881462	1.04889	0.375056	1.67592	0.758329	2.75284	-0.247913	1.32708	0.561547	2.66611	
0.630308	3.79944	5	0	-0.939244	-0.279121	0.40025	0.589731	-0.220757	0.928116	0.360715	2.78757	2.41041	4.11113	0.01115	2.74748	2.83261	3.6273	1.78268	4.26656	1.56809	2.22119	1.10825	2.65705	0.764585	1.63684	-0.873703	1.01505	0.37632	1.66076	0.751656	2.72118	-0.249076	1.30939	0.565089	2.6469	
0.627488	3.79791	5	0	-0.942647	-0.269503	0.397904	0.596362	-0.222969	0.934368	0.352184	2.80105	2.42378	4.11452	0.019751	2.75455	2.83842	3.62702	1.79282	4.26345	1.55505	2.20765	1.10825	2.65705	0.771146	1.63256	-0.875218	1.00744	0.384481	1.64929	0.7563	2.69797	-0.246251	1.3014	0.571264	2.63865	
0.625151	3.79791	5	0	-0.94605	-0.259885	0.395558	0.602993	-0.225181	0.940619	0.343653	2.81453	2.43714	4.11791	0.028352	2.76163	2.84422	3.62673	1.80297	4.26034	1.542	2.19411	1.10825	2.65705	0.777707	1.62827	-0.876734	0.999823	0.392641	1.63782	0.760944	2.67476	-0.243425	1.29342	0.57744	2.6304	
0.623528	3.79791	5	0	-0.949454	-0.250266	0.393211	0.609623	-0.227393	0.946871	0.335121	2.828	2.4505	4.12131	0.036953	2.7687	2.85003	3.62645	1.81312	4.25723	1.52896	2.18057	1.10825	2.65705	0.784269	1.62398	-0.878249	0.992208	0.400801	1.62635	0.765588	2.65155	-0.2406	1.28543	0.583615	2.62215	
0.622526	3.79333	5	0	-0.952857	-0.240648	0.390865	0.616254	-0.229605	0.953122	0.32659	2.84148	2.46387	4.1247	0.045554	2.77578	2.85583	3.62616	1.82326	4.25412	1.51591	2.16703	1.10825	2.65705	0.79083	1.61969	-0.879764	0.984592	0.408962	1.61488	0.770232	2.62834	-0.237775	1.27745	0.589791	2.61389	
0.62203	3.79486	5	0	-0.960447	-0.25293	0.392057	0.605283	-0.227183	0.934732	0.310551	2.81254	2.46387	4.1247	0.019996	2.80095	2.85744	3.6216	1.82326	4.25412	1.50723	2.15803	1.10986	2.65251	0.797397	1.6154	-0.876928	0.988475	0.41336	1.61406	0.777458	2.62809	-0.226239	1.26582	0.597295	2.6111	
0.621926	3.79181	5	0	-0.968036	-0.265212	0.39325	0.594313	-0.22476	0.916342	0.294512	2.7836	2.46387	4.1247	-0.005562	2.82613	2.85906	3.61704	1.82326	4.25412	1.49855	2.14903	1.11147	2.64796	0.803963	1.61111	-0.874092	0.992358	0.417759	1.61323	0.784685	2.62785	-0.214704	1.2542	0.6048	2.6083	
0.622103	3.78876	5	0	-0.975626	-0.277494	0.394442	0.583342	-0.222337	0.897951	0.278473	2.75466	2.46387	4.1247	-0.03112	2.85131	2.86067	3.61248	1.82326	4.25412	1.48987	2.14004	1.11307	2.64342	0.81053	1.60682	-0.871256	0.99624	0.422157	1.6124	0.791911	2.62761	-0.203169	1.24257	0.612305	2.60551	
0.622524	3.79028	5	0	-0.983216	-0.289776	0.395634	0.572371	-0.219915	0.879561	0.262434	2.72572	2.46387	4.1247	-0.056678	2.87648	2.86229	3.60791	1.82326	4.25412	1.4812	2.13104	1.11468	2.63888	0.817096	1.60253	-0.86842	1.00012	0.426555	1.61157	0.799137	2.62736	-0.191633	1.23094	0.619809	2.60271	
0.623249	3.78723	5	0	-0.980469	-0.308769	0.392545	0.565908	-0.222814	0.864689	0.25368	2.68703	2.45255	4.10182	-0.0535677	2.83639	2.85133	3.59057	1.81694	4.23365	1.47589	2.11255	1.10574	2.6238	0.806604	1.58942	-0.883707	0.995781	0.429378	1.60359	0.789333	2.64498	-0.206109	1.2404	0.619809	2.60271	
0.624342	3.78876	0	5	-0.977723	-0.327762	0.389457	0.559444	-0.225714	0.849818	0.244926	2.64835	2.44123	4.07895	-0.0504575	2.7963	2.84037	3.57323	1.81062	4.21318	1.47059	2.09407	1.09679	2.60872	0.796111	1.5763	-0.898994	0.991439	0.4322	1.59561	0.779529	2.66259	-0.220585	1.24986	0.619809	2.60271	
0.625867	3.7857	0	5	-0.974976	-0.346755	0.386369	0.55298	-0.228613	0.834946	0.236173	2.60966	2.42992	4.05607	-0.0473473	2.7562	2.82941	3.55589	1.8043	4.1927	1.46529	2.07559	1.08784	2.59365	0.785618	1.56319	-0.91428	0.987097	0.435023	1.58764	0.769724	2.68021	-0.235062	1.25932	0.619809	2.60271	
0.627877	3.7857	0	5	-0.972229	-0.365748	0.38328	0.546517	-0.231512	0.820074	0.227419	2.57098	2.4186	4.03319	-0.044237	2.71611	2.81845	3.53855	1.79798	4.17223	1.45998	2.05711	1.0789	2.57857	0.775126	1.55007	-0.929567	0.982755	0.437846	1.57966	0.75992	2.69783	-0.249538	1.26878	0.619809	2.60271	
0.629969	3.7796	0	5	-0.969971	-0.372129	0.381346	0.544391	-0.232414	0.811101	0.223697	2.5604	2.42202	4.00985	-0.052245	2.69188	2.82327	3.52493	1.79269	4.16167	1.45468	2.0387	1.07294	2.56855	0.765959	1.53331	-0.932792	0.956291	0.429353	1.56888	0.75579	2.66918	-0.257533	1.24952	0.614854	2.5891	
0.631167	3.77807	0	5	-0.967713	-0.37851	0.379413	0.542265	-0.233316	0.802128	0.219975	2.54983	2.42543	3.9865	-0.060253	2.66766	2.82809	3.5113	1.7874	4.15111	1.44937	2.02029	1.06698	2.55853	0.756792	1.51654	-0.936017	0.929827	0.420859	1.5581	0.751659	2.64054	-0.265528	1.23026	0.6099	2.57549	
0.630455	3.77807	0	5	-0.965455	-0.384892	0.377479	0.540139	-0.234218	0.793155	0.216252	2.53926	2.42885	3.96316	-0.068261	2.64343	2.83291	3.49768	1.78211	4.14055	1.44406	2.00188	1.06102	2.54851	0.747626	1.49978	-0.939243	0.903362	0.412365	1.54732	0.747529	2.6119	-0.273523	1.211	0.604945	2.56188	
0.626818	3.77655	0	5	-0.963197	-0.391273	0.375545	0.538013	-0.23512	0.784182	0.21253	2.52868	2.43226	3.93982	-0.076269	2.61921	2.83773	3.48406	1.77682	4.12999	1.43875	1.98347	1.05507	2.53849	0.738459	1.48302	-0.942468	0.876898	0.403872	1.53655	0.743398	2.58326	-0.281518	1.19174	0.59999	2.54827	
0.619291	3.77655	0	5	-0.965455	-0.384892	0.373985	0.542422	-0.23622	0.78729	0.22111	2.53608	2.44487	3.93158	-0.0690863	2.61452	2.84834	3.47015	1.77682	4.12999	1.4421	1.97401	1.05666	2.53397	0.750223	1.46398	-0.945503	0.861795	0.40323	1.52678	0.740795	2.56044	-0.284579	1.1795	0.593103	2.54016	
0.60859	3.7796	0	5	-0.967713	-0.37851	0.372425	0.546831	-0.23732	0.790398	0.229691	2.54348	2.45748	3.92334	-0.0619035	2.60982	2.85896	3.45624	1.77682	4.12999	1.44545	1.96454	1.05826	2.52946	0.761988	1.44495	-0.948539	0.846692	0.402589	1.51702	0.738193	2.53761	-0.287639	1.16725	0.586216	2.53205	
0.597481	3.78723	0	5	-0.969971	-0.372129	0.370864	0.55124	-0.238419	0.793506	0.238271	2.55088	2.47008	3.9151	-0.0547207	2.60513	2.86958	3.44233	1.77682	4.12999	1.4488	1.95508	1.05986	2.52494	0.773752	1.42591	-0.951574	0.83159	0.401947	1.50725	0.735591	2.51479	-0.2907	1.15501	0.579329	2.52394	
0.588853	3.80859	0	5	-0.972229	-0.365748	0.369304	0.555649	-0.239519	0.796614	0.246852	2.55828	2.48269	3.90687	-0.047538	2.60044	2.88019	3.42842	1.77682	4.12999	1.45215	1.94561	1.06146	2.52042	0.785516	1.40688	-0.95461	0.816487	0.401305	1.49748	0.732988	2.49196	-0.293761	1.14277	0.572442	2.51583	
0.585599	3.82233	0	5	-0.980144	-0.343378	0.366182	0.564474	-0.243922	0.809057	0.232393	2.58859	2.48623	3.91058	-0.0447722	2.62387	2.88019	3.42842	1.7752	4.13454	1.45717	1.93143	1.06466	2.51139	0.792063	1.4026	-0.94764	0.82047	0.406635	1.494	0.736591	2.49184	-0.291891	1.13748	0.573408	2.5131	
0.590198	3.84216	0	5	-0.98806	-0.321008	0.363059	0.573298	-0.248324	0.821499	0.217934	2.6189	2.48976	3.9143	-0.0420065	2.64731	2.88019	3.42842	1.77359	4.1391	1.46218	1.91725	1.06785	2.50236	0.798609	1.39832	-0.94067	0.824454	0.411964	1.49052	0.740194	2.49171	-0.290021	1.1322	0.574375	2.51037	
0.601394	3.87115	0	5	-0.995976	-0.298637	0.359936	0.582123	-0.252727	0.833942	0.203474	2.64921	2.4933	3.91801	-0.0392407	2.67074	2.88019	3.42842	1.77198	4.14365	1.4672	1.90307	1.07105	2.49333	0.805156	1.39404	-0.9337	0.828437	0.417294	1.48704	0.743797	2.49158	-0.28815	1.12691	0.575341	2.50764	
0.615932	3.89099	0	5	-1.00389	-0.276267	0.356814	0.590948	-0.257129	0.846384	0.189015	2.67951	2.49684	3.92172	-0.036475	2.69417	2.88019	3.42842	1.77037	4.14821	1.47222	1.88889	1.07424	2.4843	0.811702	1.38976	-0.92673	0.832421	0.422623	1.48355	0.7474	2.49145	-0.28628	1.12163	0.576307	2.50491	
0.630537	3.91235	0	5	-1.01372	-0.282131	0.345975	0.591246	-0.262223	0.837758	0.168278	2.6644	2.48208	3.92233	-0.0494945	2.71534	2.8718	3.41997	1.76773	4.14293	1.46688	1.87063	1.06807	2.48833	0.805156	1.39404	-0.922173	0.85512	0.421686	1.4862	0.752062	2.50847	-0.290022	1.1322	0.57244	2.51584	
