0.692	4.74396	0	0	-0.216059	0.543979	-0.155016	0.567635	-0.199491	0.78878	-0.145047	0.552901	-0.190694	0.816063	-0.232857	0.614762	-0.034496	0.578172	-0.02196	0.727023	0.159699	0.420508	0.093368	0.684303	0.026798	0.65048	0.081753	0.661347	-0.212951	0.748798	-0.037124	0.681924	-0.127358	0.526809	-0.228797	0.89843	
0.690422	4.73938	0	0	-0.209303	0.537225	-0.165782	0.561576	-0.201976	0.783822	-0.145964	0.555492	-0.193301	0.810581	-0.234595	0.619673	-0.0254797	0.579802	-0.0238732	0.720464	0.163519	0.422805	0.0949865	0.679729	0.026798	0.65048	0.0831473	0.657407	-0.212878	0.736129	-0.0384165	0.666084	-0.130262	0.515138	-0.228206	0.887622	
0.689468	4.73785	0	0	-0.202547	0.530471	-0.176547	0.555516	-0.204462	0.778865	-0.14688	0.558082	-0.195908	0.805099	-0.236333	0.624584	-0.0164635	0.581432	-0.0257865	0.713904	0.16734	0.425101	0.096605	0.675156	0.026798	0.65048	0.0845415	0.653466	-0.212805	0.723461	-0.039709	0.650243	-0.133165	0.503467	-0.227615	0.876815	
0.689064	4.7348	0	0	-0.195792	0.523716	-0.187313	0.549457	-0.206947	0.773907	-0.147796	0.560672	-0.198515	0.799617	-0.23807	0.629495	-0.00744725	0.583062	-0.0276998	0.707345	0.17116	0.427397	0.0982235	0.670582	0.026798	0.65048	0.0859358	0.649526	-0.212733	0.710792	-0.0410015	0.634403	-0.136069	0.491795	-0.227024	0.866007	
0.689138	4.7287	0	0	-0.189036	0.516962	-0.198079	0.543398	-0.209432	0.768949	-0.148713	0.563263	-0.201122	0.794135	-0.239808	0.634406	0.001569	0.584692	-0.029613	0.700786	0.17498	0.429694	0.099842	0.666008	0.026798	0.65048	0.08733	0.645586	-0.21266	0.698124	-0.042294	0.618563	-0.138973	0.480124	-0.226433	0.8552	
0.689616	4.7287	0	0	-0.188262	0.502435	-0.19959	0.529451	-0.208894	0.755453	-0.151843	0.55138	-0.206334	0.783192	-0.251195	0.630526	-0.002364	0.582247	-0.043237	0.691501	0.17116	0.427397	0.0896133	0.662153	0.0235155	0.643179	0.0834115	0.642092	-0.210726	0.692658	-0.0433692	0.611863	-0.141985	0.478704	-0.222441	0.84392	
0.690425	4.72107	0	0	-0.187488	0.487908	-0.201101	0.515505	-0.208355	0.741957	-0.154973	0.539497	-0.211546	0.772249	-0.262582	0.626646	-0.006297	0.579801	-0.056861	0.682215	0.16734	0.425101	0.0793845	0.658299	0.020233	0.635877	0.079493	0.638598	-0.208792	0.687193	-0.0444445	0.605163	-0.144996	0.477283	-0.21845	0.832639	
0.691492	4.71802	0	0	-0.186713	0.47338	-0.202611	0.501558	-0.207816	0.72846	-0.158104	0.527613	-0.216758	0.761306	-0.273969	0.622766	-0.01023	0.577356	-0.070485	0.672929	0.163519	0.422805	0.0691558	0.654444	0.0169505	0.628576	0.0755745	0.635104	-0.206859	0.681728	-0.0455197	0.598464	-0.148007	0.475863	-0.214458	0.821359	
0.692743	4.71649	0	0	-0.185939	0.458853	-0.204122	0.487611	-0.207278	0.714964	-0.161234	0.51573	-0.22197	0.750363	-0.285356	0.618886	-0.014163	0.574911	-0.084109	0.663644	0.159699	0.420508	0.058927	0.650589	0.013668	0.621275	0.071656	0.63161	-0.204925	0.676262	-0.046595	0.591764	-0.151019	0.474443	-0.210467	0.810079	
0.694106	4.71039	0	0	-0.187319	0.450423	-0.201453	0.470966	-0.208759	0.707183	-0.164366	0.503877	-0.226082	0.736348	-0.278423	0.599291	-0.0180932	0.572467	-0.0855455	0.643856	0.149863	0.422145	0.0535527	0.633072	0.0118322	0.6099	0.0693835	0.60893	-0.211556	0.670102	-0.0551505	0.577039	-0.150136	0.462021	-0.215899	0.798046	
0.695507	4.70428	0	0	-0.188699	0.441994	-0.198783	0.45432	-0.210239	0.699401	-0.167499	0.492023	-0.230195	0.722333	-0.271489	0.579696	-0.0220235	0.570024	-0.086982	0.624068	0.140027	0.423783	0.0481785	0.615555	0.0099965	0.598525	0.067111	0.586251	-0.218187	0.663941	-0.063706	0.562313	-0.149253	0.449599	-0.22133	0.786013	
0.696873	4.70123	0	0	-0.19008	0.433564	-0.196113	0.437674	-0.21172	0.691619	-0.170631	0.48017	-0.234308	0.708318	-0.264555	0.5601	-0.0259537	0.567581	-0.0884185	0.60428	0.130192	0.42542	0.0428043	0.598039	0.00816075	0.587149	0.0648385	0.563571	-0.224817	0.65778	-0.0722615	0.547587	-0.148369	0.437177	-0.226762	0.773979	
0.698134	4.69665	0	0	-0.19146	0.425134	-0.193444	0.421029	-0.213201	0.683838	-0.173764	0.468316	-0.23842	0.694303	-0.257622	0.540505	-0.029884	0.565137	-0.089855	0.584492	0.120356	0.427057	0.03743	0.580522	0.006325	0.575774	0.062566	0.540891	-0.231448	0.65162	-0.080817	0.532862	-0.147486	0.424755	-0.232194	0.761946	
0.699231	4.69208	0	0	-0.199582	0.423451	-0.193352	0.411672	-0.212195	0.680995	-0.169	0.465203	-0.231426	0.68735	-0.257622	0.540505	-0.0287315	0.561879	-0.0929575	0.581347	0.110536	0.428688	0.0256233	0.581241	0.00448525	0.564424	0.053353	0.537871	-0.23235	0.641732	-0.0829732	0.519533	-0.152727	0.419731	-0.230824	0.748956	
0.700112	4.69055	0	0	-0.207704	0.421767	-0.19326	0.402315	-0.211189	0.678152	-0.164237	0.462091	-0.224431	0.680397	-0.257622	0.540505	-0.027579	0.558622	-0.09606	0.578202	0.100715	0.430319	0.0138165	0.581961	0.0026455	0.553075	0.04414	0.534852	-0.233253	0.631844	-0.0851295	0.506205	-0.157968	0.414708	-0.229455	0.735966	
0.700725	4.68445	0	0	-0.215826	0.420083	-0.193167	0.392957	-0.210183	0.67531	-0.159473	0.458978	-0.217436	0.673444	-0.257622	0.540505	-0.0264265	0.555365	-0.0991625	0.575058	0.0908952	0.431949	0.00200975	0.582681	0.00080575	0.541725	0.034927	0.531832	-0.234155	0.621957	-0.0872857	0.492876	-0.163209	0.409685	-0.228085	0.722975	
0.701016	4.68292	0	0	-0.223948	0.4184	-0.193075	0.3836	-0.209177	0.672467	-0.154709	0.455865	-0.210442	0.666491	-0.257622	0.540505	-0.025274	0.552107	-0.102265	0.571913	0.081075	0.43358	-0.009797	0.5834	-0.001034	0.530376	0.025714	0.528812	-0.235058	0.612069	-0.089442	0.479548	-0.16845	0.404661	-0.226715	0.709985	
0.700934	4.67987	0	0	-0.234201	0.422771	-0.200682	0.396008	-0.213676	0.673222	-0.164234	0.462089	-0.211539	0.66959	-0.254526	0.549778	-0.0264265	0.555365	-0.0979722	0.571693	0.0772712	0.431283	-0.00658075	0.57431	-0.0133625	0.532164	0.0337838	0.520528	-0.229333	0.608329	-0.088595	0.477155	-0.164664	0.403876	-0.221951	0.696522	
0.700509	4.67377	0	0	-0.244453	0.427142	-0.20829	0.408415	-0.218174	0.673976	-0.173759	0.468313	-0.212635	0.672689	-0.25143	0.55905	-0.027579	0.558622	-0.0936795	0.571474	0.0734675	0.428985	-0.0033645	0.565221	-0.025691	0.533953	0.0418535	0.512244	-0.223609	0.604588	-0.087748	0.474761	-0.160878	0.403091	-0.217187	0.683059	
0.69991	4.67529	0	0	-0.254706	0.431512	-0.215898	0.420822	-0.222672	0.674731	-0.183284	0.474536	-0.213732	0.675789	-0.248334	0.568322	-0.0287315	0.561879	-0.0893868	0.571254	0.0696637	0.426687	-0.00014825	0.556131	-0.0380195	0.535741	0.0499233	0.503961	-0.217884	0.600847	-0.086901	0.472368	-0.157091	0.402305	-0.212423	0.669595	
0.69932	4.67834	0	0	-0.264958	0.435883	-0.223505	0.43323	-0.227171	0.675485	-0.192809	0.48076	-0.214829	0.678888	-0.245238	0.577595	-0.029884	0.565137	-0.085094	0.571035	0.06586	0.42439	0.003068	0.547041	-0.050348	0.537529	0.057993	0.495677	-0.21216	0.597107	-0.086054	0.469975	-0.153305	0.40152	-0.207659	0.656132	
0.698925	4.68292	0	0	-0.259298	0.432185	-0.218464	0.428076	-0.224156	0.666965	-0.194829	0.476132	-0.205638	0.665737	-0.243144	0.553654	-0.0224945	0.557804	-0.0846315	0.557815	0.06696	0.421281	0.003068	0.547041	-0.047466	0.529385	0.0513088	0.500045	-0.208359	0.598813	-0.084127	0.474237	-0.149517	0.400734	-0.209475	0.652149	
0.698906	4.6875	0	0	-0.253638	0.428486	-0.213423	0.422922	-0.221141	0.658444	-0.19685	0.471504	-0.196447	0.652586	-0.241049	0.529713	-0.015105	0.550472	-0.084169	0.544595	0.06806	0.418172	0.003068	0.547041	-0.044584	0.52124	0.0446245	0.504412	-0.204559	0.600518	-0.0822	0.478499	-0.145728	0.399948	-0.21129	0.648166	
0.699422	4.70123	0	0	-0.247977	0.424787	-0.208383	0.417769	-0.218127	0.649924	-0.198871	0.466875	-0.187257	0.639435	-0.238955	0.505772	-0.0077155	0.543139	-0.0837065	0.531375	0.06916	0.415063	0.003068	0.547041	-0.041702	0.513096	0.0379403	0.50878	-0.200759	0.602224	-0.080273	0.482761	-0.14194	0.399161	-0.213106	0.644183	
0.700361	4.70428	0	0	-0.242317	0.421089	-0.203342	0.412615	-0.215112	0.641404	-0.200891	0.462247	-0.178066	0.626284	-0.236861	0.481831	-0.000326	0.535806	-0.083244	0.518155	0.07026	0.411954	0.003068	0.547041	-0.03882	0.504951	0.031256	0.513147	-0.196958	0.60393	-0.078346	0.487023	-0.138152	0.398375	-0.214922	0.6402	
0.701455	4.71954	0	0	-0.242317	0.421089	-0.206578	0.403581	-0.218604	0.639323	-0.197244	0.451941	-0.171065	0.619329	-0.231679	0.467187	0.00082625	0.53255	-0.0851615	0.511669	0.072459	0.405739	0.003068	0.547041	-0.039223	0.489586	0.0354095	0.501409	-0.19214	0.590314	-0.0749583	0.477448	-0.139609	0.392573	-0.207795	0.620058	
0.702433	4.72717	0	0	-0.242317	0.421089	-0.209815	0.394547	-0.222097	0.637241	-0.193597	0.441634	-0.164063	0.612374	-0.226497	0.452543	0.0019785	0.529294	-0.087079	0.505182	0.074658	0.399525	0.003068	0.547041	-0.039626	0.47422	0.039563	0.489672	-0.187323	0.576699	-0.0715705	0.467874	-0.141066	0.386771	-0.200668	0.599917	
0.703026	4.74548	0	0	-0.242317	0.421089	-0.213051	0.385513	-0.225589	0.635159	-0.189951	0.431327	-0.157061	0.605419	-0.221316	0.437898	0.00313075	0.526037	-0.0889965	0.498696	0.076857	0.39331	0.003068	0.547041	-0.040029	0.458855	0.0437165	0.477934	-0.182505	0.563083	-0.0681828	0.458299	-0.142523	0.380968	-0.193542	0.579775	
0.702965	4.75616	0	0	-0.242317	0.421089	-0.216287	0.376479	-0.229081	0.633078	-0.186304	0.421021	-0.15006	0.598464	-0.216134	0.423254	0.004283	0.522781	-0.090914	0.49221	0.079056	0.387095	0.003068	0.547041	-0.040432	0.443489	0.04787	0.466196	-0.177687	0.549467	-0.064795	0.448725	-0.14398	0.375166	-0.186415	0.559634	
0.702049	4.76074	0	0	-0.237725	0.420417	-0.215524	0.383411	-0.228077	0.630242	-0.182457	0.420487	-0.146342	0.600796	-0.211293	0.427594	0.00150025	0.517094	-0.0866212	0.491984	0.0763507	0.381702	0.003068	0.547041	-0.0375595	0.43537	0.04787	0.466196	-0.177687	0.549467	-0.0586318	0.44102	-0.133293	0.364808	-0.180883	0.543999	
0.700306	4.77295	0	0	-0.233133	0.419744	-0.214761	0.390343	-0.227073	0.627405	-0.17861	0.419953	-0.142623	0.603127	-0.206452	0.431935	-0.0012825	0.511408	-0.0823285	0.491758	0.0736455	0.37631	0.003068	0.547041	-0.034687	0.427252	0.04787	0.466196	-0.177687	0.549467	-0.0524685	0.433316	-0.122606	0.35445	-0.175351	0.528365	
0.697805	4.77753	0	0	-0.22854	0.419072	-0.213998	0.397275	-0.22607	0.624568	-0.174762	0.41942	-0.138904	0.605459	-0.201611	0.436276	-0.00406525	0.505721	-0.0780358	0.491532	0.0709403	0.370917	0.003068	0.547041	-0.0318145	0.419133	0.04787	0.466196	-0.177687	0.549467	-0.0463052	0.425611	-0.111918	0.344092	-0.169819	0.51273	
0.694619	4.78363	0	0	-0.223948	0.4184	-0.213235	0.404207	-0.225066	0.621732	-0.170915	0.418886	-0.135186	0.60779	-0.19677	0.440616	-0.006848	0.500034	-0.073743	0.491306	0.068235	0.365524	0.003068	0.547041	-0.028942	0.411014	0.04787	0.466196	-0.177687	0.549467	-0.040142	0.417907	-0.101231	0.333734	-0.164287	0.497096	
0.690816	4.7821	0	0	-0.22854	0.419072	-0.211525	0.399373	-0.221054	0.610395	-0.164542	0.400873	-0.135186	0.60779	-0.185014	0.42543	-0.00733175	0.48786	-0.0792225	0.494886	0.0644332	0.363239	-0.00014825	0.556131	-0.0365315	0.415973	0.0504008	0.473566	-0.169109	0.55014	-0.0354267	0.424023	-0.0928635	0.329954	-0.156146	0.483204	
0.686482	4.78515	0	0	-0.233133	0.419744	-0.209815	0.394539	-0.217043	0.599058	-0.158168	0.38286	-0.135186	0.60779	-0.173258	0.410245	-0.0078155	0.475686	-0.084702	0.498467	0.0606315	0.360953	-0.0033645	0.565221	-0.044121	0.420932	0.0529315	0.480936	-0.160531	0.550814	-0.0307115	0.43014	-0.084496	0.326174	-0.148006	0.469313	
0.681962	4.79126	0	0	-0.237725	0.420417	-0.208104	0.389706	-0.213032	0.587722	-0.151794	0.364847	-0.135186	0.60779	-0.161501	0.39506	-0.00829925	0.463512	-0.0901815	0.502047	0.0568297	0.358667	-0.00658075	0.57431	-0.0517105	0.425891	0.0554623	0.488307	-0.151952	0.551487	-0.0259962	0.436256	-0.0761285	0.322393	-0.139866	0.455421	
0.677812	4.78973	0	0	-0.242317	0.421089	-0.206394	0.384872	-0.20902	0.576385	-0.145421	0.346834	-0.135186	0.60779	-0.149745	0.379874	-0.008783	0.451338	-0.095661	0.505627	0.053028	0.356382	-0.009797	0.5834	-0.0593	0.43085	0.057993	0.495677	-0.143374	0.55216	-0.021281	0.442372	-0.067761	0.318613	-0.131725	0.441529	
0.6746	4.78821	0	0	-0.246454	0.395911	-0.214488	0.362353	-0.20551	0.554522	-0.15173	0.323344	-0.106223	0.603169	-0.14802	0.374998	0.00762925	0.445607	-0.0643622	0.500668	0.0476235	0.345625	0.0251622	0.599119	-0.0634192	0.393109	0.068605	0.494765	-0.14141	0.534146	-0.00480525	0.444503	-0.0858582	0.31022	-0.117551	0.428841	
0.672889	4.7821	0	0	-0.250591	0.370733	-0.222583	0.339834	-0.202	0.532658	-0.158039	0.299853	-0.077261	0.598548	-0.146294	0.370122	0.0240415	0.439877	-0.0330635	0.49571	0.042219	0.334867	0.0601215	0.614838	-0.0675385	0.355368	0.079217	0.493854	-0.139446	0.516132	0.0116705	0.446634	-0.103956	0.301826	-0.103377	0.416154	
0.673245	4.77905	0	0	-0.254728	0.345554	-0.230678	0.317315	-0.19849	0.510795	-0.164349	0.276362	-0.0482985	0.593927	-0.144569	0.365246	0.0404537	0.434146	-0.00176475	0.490751	0.0368145	0.32411	0.0950807	0.630557	-0.0716577	0.317627	0.089829	0.492943	-0.137481	0.498118	0.0281463	0.448766	-0.122053	0.293433	-0.0892022	0.403466	
0.675865	4.77447	0	0	-0.258865	0.320376	-0.238772	0.294796	-0.19498	0.488931	-0.170658	0.252872	-0.019336	0.589306	-0.142844	0.36037	0.056866	0.428415	0.029534	0.485792	0.03141	0.313353	0.13004	0.646276	-0.075777	0.279886	0.100441	0.492031	-0.135517	0.480104	0.044622	0.450897	-0.14015	0.28504	-0.075028	0.390778	
0.680095	4.76532	0	0	-0.274293	0.302688	-0.246097	0.279261	-0.193993	0.46228	-0.174041	0.231502	0.0226138	0.600185	-0.12449	0.344631	0.0914735	0.425811	0.0593557	0.497396	0.045005	0.313992	0.17501	0.684013	-0.082344	0.265596	0.110836	0.50636	-0.122099	0.454647	0.0667467	0.456756	-0.161873	0.267344	-0.0589912	0.382012	
0.685156	4.76074	0	0	-0.289721	0.285	-0.253422	0.263726	-0.193007	0.435628	-0.177424	0.210132	0.0645635	0.611063	-0.106136	0.328891	0.126081	0.423207	0.0891775	0.509	0.0586	0.314632	0.21998	0.72175	-0.088911	0.251306	0.12123	0.520689	-0.108682	0.42919	0.0888715	0.462615	-0.183596	0.249647	-0.0429545	0.373246	
0.690273	4.75006	0	0	-0.305148	0.267313	-0.260747	0.248192	-0.192021	0.408977	-0.180807	0.188763	0.106513	0.621942	-0.087782	0.313152	0.160689	0.420604	0.118999	0.520605	0.072195	0.315271	0.26495	0.759488	-0.095478	0.237015	0.131625	0.535018	-0.0952645	0.403733	0.110996	0.468474	-0.20532	0.231951	-0.0269178	0.36448	
0.694668	4.74243	0	0	-0.320576	0.249625	-0.268072	0.232657	-0.191034	0.382326	-0.18419	0.167393	0.148463	0.632821	-0.069428	0.297412	0.195296	0.418	0.148821	0.532209	0.08579	0.31591	0.30992	0.797225	-0.102045	0.222725	0.142019	0.549347	-0.081847	0.378276	0.133121	0.474333	-0.227043	0.214254	-0.010881	0.355714	
0.697616	4.73785	0	0	-0.326845	0.230666	-0.277933	0.224359	-0.195089	0.346149	-0.185553	0.150651	0.192951	0.637431	-0.0746043	0.31204	0.234099	0.41774	0.179561	0.553797	0.112498	0.331892	0.3399	0.84542	-0.0836298	0.219976	0.140119	0.58391	-0.068446	0.365353	0.157544	0.493608	-0.243471	0.201584	0.0165553	0.351504	
0.699107	4.73022	0	0	-0.333114	0.211708	-0.287793	0.21606	-0.199144	0.309972	-0.186915	0.133909	0.23744	0.642041	-0.0797805	0.326669	0.272902	0.41748	0.210302	0.575385	0.139205	0.347874	0.36988	0.893615	-0.0652145	0.217228	0.138219	0.618473	-0.055045	0.35243	0.181966	0.512883	-0.259899	0.188914	0.0439915	0.347295	
0.69966	4.71954	0	0	-0.339384	0.19275	-0.297654	0.207762	-0.203198	0.273794	-0.188277	0.117167	0.281929	0.64665	-0.0849567	0.341297	0.311704	0.417219	0.241042	0.596973	0.165913	0.363856	0.399859	0.94181	-0.0467992	0.214479	0.136319	0.653036	-0.041644	0.339508	0.206388	0.532157	-0.276327	0.176245	0.0714277	0.343085	
0.699807	4.72259	0	0	-0.345653	0.173791	-0.307515	0.199464	-0.207253	0.237617	-0.18964	0.100425	0.326417	0.65126	-0.090133	0.355925	0.350507	0.416959	0.271782	0.618561	0.192621	0.379838	0.429839	0.990005	-0.028384	0.21173	0.134419	0.687599	-0.028243	0.326585	0.230811	0.551432	-0.292755	0.163575	0.098864	0.338876	
0.700081	4.71649	0	0	-0.358918	0.150311	-0.31229	0.176863	-0.215826	0.202472	-0.191254	0.0741418	0.364218	0.636213	-0.081806	0.350484	0.382676	0.408521	0.296349	0.633931	0.218936	0.384222	0.45828	1.0435	-0.0160768	0.209885	0.13387	0.718392	-0.00618825	0.314257	0.250797	0.573788	-0.303169	0.153711	0.126705	0.343034	
0.701011	4.71496	0	0	-0.372182	0.126831	-0.317065	0.154261	-0.2244	0.167328	-0.192868	0.0478585	0.402019	0.621166	-0.073479	0.345044	0.414844	0.400083	0.320916	0.649301	0.245252	0.388606	0.486722	1.097	-0.0037695	0.208039	0.13332	0.749184	0.0158665	0.301929	0.270783	0.596143	-0.313582	0.143846	0.154547	0.347192	
0.702933	4.71191	0	0	-0.385446	0.10335	-0.32184	0.13166	-0.232973	0.132184	-0.194483	0.0215753	0.43982	0.60612	-0.065152	0.339603	0.447013	0.391645	0.345482	0.66467	0.271568	0.392991	0.515163	1.1505	0.00853775	0.206194	0.132771	0.779977	0.0379213	0.2896	0.290769	0.618499	-0.323995	0.133982	0.182389	0.35135	
0.705405	4.70428	0	0	-0.398711	0.07987	-0.326615	0.109059	-0.241546	0.097039	-0.196097	-0.004708	0.477621	0.591073	-0.056825	0.334162	0.479181	0.383207	0.370049	0.68004	0.297883	0.397375	0.543604	1.204	0.020845	0.204349	0.132221	0.81077	0.059976	0.277272	0.310755	0.640854	-0.334409	0.124118	0.21023	0.355508	
0.707797	4.69818	0	0	-0.403926	0.0581243	-0.330625	0.0933655	-0.237725	0.0625438	-0.192762	-0.0244047	0.534408	0.575736	-0.056825	0.334162	0.507463	0.372287	0.409924	0.70139	0.32046	0.399454	0.579929	1.25311	0.046961	0.19659	0.139788	0.833332	0.0695718	0.262675	0.325143	0.659542	-0.349309	0.117226	0.232067	0.358481	
0.709479	4.69665	0	0	-0.409141	0.0363785	-0.334635	0.077672	-0.233904	0.0280485	-0.189426	-0.0441015	0.591195	0.560399	-0.056825	0.334162	0.535745	0.361367	0.449798	0.72274	0.343037	0.401532	0.616254	1.30222	0.073077	0.188831	0.147354	0.855893	0.0791675	0.248078	0.33953	0.678229	-0.364209	0.110334	0.253904	0.361454	
0.709821	4.69665	0	0	-0.414357	0.0146327	-0.338645	0.0619785	-0.230083	-0.00644675	-0.186091	-0.0637983	0.647982	0.545063	-0.056825	0.334162	0.564027	0.350447	0.489673	0.74409	0.365614	0.40361	0.652578	1.35133	0.099193	0.181071	0.15492	0.878455	0.0887633	0.233481	0.353917	0.696917	-0.379109	0.103441	0.275742	0.364427	
0.708204	4.69665	0	0	-0.419572	-0.007113	-0.342655	0.046285	-0.226262	-0.040942	-0.182756	-0.083495	0.704769	0.529726	-0.056825	0.334162	0.592309	0.339527	0.529548	0.76544	0.388191	0.405689	0.688903	1.40044	0.125309	0.173312	0.162487	0.901017	0.098359	0.218884	0.368305	0.715604	-0.394009	0.096549	0.297579	0.3674	
0.704534	4.70276	0	0	-0.424452	-0.017606	-0.348481	0.0537507	-0.227374	-0.0614647	-0.18301	-0.0930412	0.733615	0.527857	-0.0439065	0.352033	0.610262	0.330318	0.566041	0.797317	0.408092	0.402321	0.718248	1.43642	0.148179	0.158368	0.163597	0.912552	0.103143	0.205363	0.378781	0.725667	-0.4059	0.091045	0.303211	0.379275	
0.699533	4.71191	0	0	-0.429331	-0.028099	-0.354307	0.0612165	-0.228487	-0.0819875	-0.183264	-0.102587	0.76246	0.525988	-0.030988	0.369905	0.628215	0.321109	0.602535	0.829194	0.427994	0.398954	0.747593	1.47239	0.171049	0.143425	0.164706	0.924087	0.107927	0.191842	0.389258	0.73573	-0.417791	0.085541	0.308843	0.39115	
0.693992	4.72107	0	0	-0.434211	-0.038592	-0.360134	0.0686823	-0.2296	-0.10251	-0.183519	-0.112134	0.791306	0.524119	-0.0180695	0.387777	0.646168	0.3119	0.639028	0.861071	0.447895	0.395586	0.776937	1.50836	0.193919	0.128481	0.165816	0.935623	0.112711	0.178321	0.399734	0.745793	-0.429681	0.080037	0.314476	0.403024	
0.688702	4.7348	0	0	-0.439091	-0.049085	-0.36596	0.076148	-0.230712	-0.123033	-0.183773	-0.12168	0.820152	0.52225	-0.005151	0.405648	0.664121	0.302691	0.675522	0.892948	0.467796	0.392218	0.806282	1.54434	0.216789	0.113537	0.166926	0.947158	0.117495	0.1648	0.410211	0.755856	-0.441572	0.074533	0.320108	0.414899	
0.684454	4.75464	0	0	-0.446062	-0.0536357	-0.377533	0.0818802	-0.242705	-0.13638	-0.195251	-0.120001	0.830707	0.532375	-0.0040635	0.438917	0.685025	0.299129	0.689926	0.926296	0.481652	0.392814	0.84367	1.5755	0.222997	0.112585	0.170548	0.9663	0.121349	0.166438	0.420945	0.775227	-0.444541	0.0731585	0.333781	0.431969	
0.681912	4.77142	0	0	-0.453033	-0.0581865	-0.389105	0.0876125	-0.254699	-0.149728	-0.20673	-0.118321	0.841263	0.5425	-0.002976	0.472187	0.705929	0.295566	0.704331	0.959645	0.495509	0.393409	0.881058	1.60666	0.229205	0.111633	0.17417	0.985442	0.125203	0.168075	0.43168	0.794598	-0.447509	0.071784	0.347453	0.449039	
0.680978	4.79889	0	0	-0.460005	-0.0627372	-0.400678	0.0933448	-0.266692	-0.163075	-0.218208	-0.116642	0.851818	0.552624	-0.0018885	0.505456	0.726834	0.292003	0.718735	0.992994	0.509365	0.394005	0.918447	1.63783	0.235413	0.110681	0.177792	1.00458	0.129058	0.169713	0.442415	0.813969	-0.450478	0.0704095	0.361125	0.466108	
0.681267	4.82025	0	0	-0.466976	-0.067288	-0.412251	0.099077	-0.278686	-0.176422	-0.229687	-0.114963	0.862373	0.562749	-0.000801	0.538725	0.747738	0.288441	0.73314	1.02634	0.523222	0.394601	0.955835	1.66899	0.241621	0.109729	0.181414	1.02372	0.132912	0.171351	0.453149	0.83334	-0.453446	0.069035	0.374798	0.483178	
0.682392	4.84314	0	0	-0.466976	-0.067288	-0.417152	0.0949655	-0.287179	-0.187773	-0.232616	-0.116927	0.873533	0.557891	-0.0025435	0.54365	0.757053	0.289937	0.743576	1.04638	0.537111	0.395189	0.976534	1.69652	0.24305	0.105691	0.17858	1.03173	0.133869	0.168648	0.453615	0.851944	-0.459379	0.0662872	0.377238	0.5042	
0.68397	4.87213	0	0	-0.466976	-0.067288	-0.422052	0.090854	-0.295673	-0.199124	-0.235546	-0.11889	0.884694	0.553034	-0.004286	0.548574	0.766367	0.291433	0.754012	1.06643	0.551001	0.395776	0.997233	1.72405	0.244479	0.101653	0.175746	1.03974	0.134825	0.165944	0.45408	0.870549	-0.465311	0.0635395	0.379678	0.525222	
0.685619	4.89807	0	0	-0.466976	-0.067288	-0.426952	0.0867425	-0.304166	-0.210474	-0.238475	-0.120854	0.895854	0.548177	-0.0060285	0.553499	0.775682	0.292929	0.764449	1.08647	0.56489	0.396364	1.01793	1.75158	0.245908	0.0976142	0.172912	1.04775	0.135781	0.163241	0.454545	0.889153	-0.471243	0.0607917	0.382117	0.546244	
0.687135	4.92248	0	0	-0.466976	-0.067288	-0.431853	0.082631	-0.312659	-0.221825	-0.241404	-0.122818	0.907015	0.543319	-0.007771	0.558423	0.784996	0.294425	0.774885	1.10651	0.578779	0.396952	1.03863	1.77912	0.247337	0.093576	0.170078	1.05576	0.136738	0.160537	0.455011	0.907758	-0.477176	0.058044	0.384557	0.567266	
0.688554	4.95148	0	0	-0.461054	-0.0597738	-0.429403	0.0846862	-0.309747	-0.230055	-0.240261	-0.115807	0.923227	0.537598	-0.00288325	0.562807	0.806003	0.290821	0.779613	1.13039	0.593815	0.394383	1.05143	1.81206	0.250193	0.085505	0.167241	1.06378	0.134794	0.1535	0.460701	0.911618	-0.482341	0.053148	0.388318	0.575272	
0.689929	4.97284	0	0	-0.455131	-0.0522595	-0.426953	0.0867415	-0.306835	-0.238285	-0.239117	-0.108796	0.93944	0.531878	0.0020045	0.567192	0.82701	0.287218	0.78434	1.15427	0.608852	0.391815	1.06423	1.845	0.253049	0.077434	0.164405	1.0718	0.132851	0.146463	0.466392	0.915478	-0.487506	0.048252	0.392079	0.583278	
0.691313	4.98505	0	0	-0.449209	-0.0447453	-0.424504	0.0887968	-0.303923	-0.246514	-0.237974	-0.101786	0.955653	0.526157	0.00689225	0.571576	0.848017	0.283614	0.789068	1.17815	0.623888	0.389246	1.07703	1.87794	0.255904	0.069363	0.161568	1.07981	0.130908	0.139426	0.472083	0.919338	-0.492671	0.043356	0.39584	0.591284	
0.692759	5.00183	0	0	-0.443286	-0.037231	-0.422054	0.090852	-0.301011	-0.254744	-0.23683	-0.094775	0.971865	0.520436	0.01178	0.57596	0.869024	0.28001	0.793795	1.20202	0.638924	0.386677	1.08983	1.91088	0.25876	0.061292	0.158731	1.08783	0.128964	0.132389	0.477773	0.923198	-0.497836	0.03846	0.399601	0.59929	
0.69431	5.00793	0	0	-0.432814	-0.0303873	-0.418072	0.106559	-0.297532	-0.2528	-0.233653	-0.0832538	0.985297	0.536076	0.0030435	0.600651	0.888934	0.279675	0.804978	1.23265	0.647285	0.376375	1.10088	1.949	0.277427	0.0584042	0.165171	1.09905	0.139546	0.12755	0.482596	0.929531	-0.500036	0.03494	0.404971	0.602765	
0.695944	5.01251	0	0	-0.422343	-0.0235435	-0.414089	0.122265	-0.294052	-0.250857	-0.230475	-0.0717325	0.998728	0.551715	-0.005693	0.625341	0.908844	0.27934	0.816161	1.26327	0.655646	0.366073	1.11194	1.98712	0.296094	0.0555165	0.171611	1.11028	0.150128	0.122712	0.487418	0.935864	-0.502237	0.03142	0.410342	0.60624	
0.69761	5.01861	0	0	-0.411872	-0.0166997	-0.410107	0.137972	-0.290573	-0.248913	-0.227298	-0.0602112	1.01216	0.567354	-0.0144295	0.650032	0.928753	0.279006	0.827345	1.2939	0.664007	0.355772	1.123	2.02523	0.314761	0.0526288	0.178051	1.1215	0.160711	0.117873	0.492241	0.942197	-0.504437	0.0279	0.415712	0.609716	
0.699261	5.01861	0	0	-0.4014	-0.009856	-0.406125	0.153678	-0.287094	-0.246969	-0.22412	-0.04869	1.02559	0.582994	-0.023166	0.674723	0.948663	0.278671	0.838528	1.32452	0.672368	0.34547	1.13406	2.06335	0.333428	0.049741	0.184491	1.13273	0.171293	0.113034	0.497064	0.94853	-0.506638	0.02438	0.421083	0.613191	
0.700846	5.02014	0	0	-0.393356	-0.008259	-0.401985	0.150973	-0.284183	-0.255196	-0.22412	-0.04869	1.04638	0.59146	-0.0284195	0.68957	0.958058	0.280148	0.84323	1.34868	0.672368	0.34547	1.15036	2.0869	0.338743	0.0680395	0.182726	1.15244	0.17615	0.124409	0.498389	0.964769	-0.503677	0.0257497	0.430229	0.624707	
0.702317	5.02167	0	0	-0.385312	-0.006662	-0.397845	0.148267	-0.281272	-0.263423	-0.22412	-0.04869	1.06717	0.599925	-0.033673	0.704417	0.967453	0.281624	0.847931	1.37283	0.672368	0.34547	1.16667	2.11046	0.344058	0.086338	0.180961	1.17216	0.181007	0.135783	0.499714	0.981008	-0.500715	0.0271195	0.439375	0.636224	
0.703653	5.01709	0	0	-0.377267	-0.005065	-0.393704	0.145562	-0.27836	-0.27165	-0.22412	-0.04869	1.08796	0.60839	-0.0389265	0.719264	0.976849	0.283101	0.852633	1.39698	0.672368	0.34547	1.18297	2.13401	0.349373	0.104637	0.179196	1.19188	0.185865	0.147157	0.50104	0.997248	-0.497754	0.0284893	0.44852	0.647741	
0.70489	5.00336	0	0	-0.369223	-0.003468	-0.389564	0.142857	-0.275449	-0.279877	-0.22412	-0.04869	1.10874	0.616856	-0.04418	0.734111	0.986244	0.284578	0.857334	1.42113	0.672368	0.34547	1.19927	2.15756	0.354688	0.122935	0.177431	1.2116	0.190722	0.158532	0.502365	1.01349	-0.494793	0.029859	0.457666	0.659257	
0.706071	4.9942	0	0	-0.369223	-0.003468	-0.387803	0.128885	-0.269056	-0.286162	-0.216464	-0.0498025	1.13074	0.622139	-0.0476873	0.744023	0.996825	0.282746	0.86004	1.43848	0.672368	0.34547	1.21636	2.16165	0.365747	0.125061	0.182789	1.2112	0.19363	0.162876	0.49886	1.02339	-0.498514	0.0306382	0.464938	0.666776	
0.70724	4.98657	0	0	-0.369223	-0.003468	-0.386043	0.114914	-0.262662	-0.292446	-0.208808	-0.050915	1.15274	0.627422	-0.0511945	0.753935	1.00741	0.280914	0.862747	1.45584	0.672368	0.34547	1.23345	2.16574	0.376806	0.127187	0.188148	1.21079	0.196539	0.16722	0.495354	1.0333	-0.502236	0.0314175	0.47221	0.674296	
0.708441	4.97589	0	0	-0.369223	-0.003468	-0.384282	0.100942	-0.256269	-0.298731	-0.201152	-0.0520275	1.17475	0.632705	-0.0547017	0.763847	1.01799	0.279082	0.865453	1.47319	0.672368	0.34547	1.25055	2.16983	0.387864	0.129312	0.193506	1.21039	0.199447	0.171564	0.491849	1.04321	-0.505957	0.0321967	0.479483	0.681816	
0.709707	4.96368	0	0	-0.369223	-0.003468	-0.382521	0.08697	-0.249875	-0.305016	-0.193496	-0.05314	1.19675	0.637988	-0.058209	0.773759	1.02857	0.27725	0.868159	1.49054	0.672368	0.34547	1.26764	2.17392	0.398923	0.131438	0.198864	1.20999	0.202355	0.175908	0.488344	1.05311	-0.509679	0.032976	0.486755	0.689335	
0.710904	4.953	0	0	-0.369223	-0.003468	-0.377683	0.100298	-0.251815	-0.299534	-0.191211	-0.0390512	1.21032	0.653771	-0.0586102	0.793109	1.03917	0.27541	0.872833	1.51489	0.678507	0.341459	1.26513	2.19851	0.414832	0.136657	0.2028	1.21362	0.207183	0.174836	0.49492	1.05453	-0.508158	0.0286782	0.489451	0.691084	
0.711751	4.94232	0	0	-0.369223	-0.003468	-0.372845	0.113625	-0.253754	-0.294052	-0.188926	-0.0249625	1.22389	0.669555	-0.0590115	0.812458	1.04977	0.27357	0.877507	1.53925	0.684645	0.337448	1.26262	2.2231	0.430741	0.141877	0.206735	1.21725	0.21201	0.173764	0.501497	1.05595	-0.506638	0.0243805	0.492146	0.692832	
0.711961	4.93774	0	0	-0.369223	-0.003468	-0.368008	0.126953	-0.255694	-0.288569	-0.186641	-0.0108737	1.23747	0.685339	-0.0594128	0.831808	1.06037	0.271731	0.882182	1.5636	0.690783	0.333437	1.26011	2.24769	0.446651	0.147096	0.21067	1.22088	0.216838	0.172693	0.508074	1.05737	-0.505117	0.0200827	0.494841	0.694581	
0.711248	4.93011	0	0	-0.369223	-0.003468	-0.36317	0.140281	-0.257634	-0.283087	-0.184356	0.003215	1.25104	0.701122	-0.059814	0.851158	1.07096	0.269891	0.886856	1.58796	0.696922	0.329426	1.2576	2.27228	0.46256	0.152315	0.214606	1.22451	0.221666	0.171621	0.51465	1.05879	-0.503597	0.015785	0.497537	0.69633	
0.709326	4.92554	0	0	-0.374824	0.00019175	-0.361637	0.153969	-0.254148	-0.281148	-0.185013	0.015354	1.26748	0.722561	-0.063762	0.88055	1.07924	0.274668	0.884467	1.61979	0.698035	0.326281	1.27298	2.28141	0.467903	0.170744	0.212822	1.24432	0.237172	0.178174	0.51508	1.07761	-0.497672	0.0185233	0.507522	0.705623	
0.706015	4.93164	0	0	-0.380425	0.0038515	-0.360103	0.167657	-0.250661	-0.279208	-0.185671	0.027493	1.28392	0.744	-0.06771	0.909941	1.08751	0.279446	0.882078	1.65163	0.699148	0.323136	1.28835	2.29055	0.473246	0.189173	0.211039	1.26412	0.252677	0.184727	0.51551	1.09642	-0.491747	0.0212615	0.517508	0.714916	
0.701765	4.93774	0	0	-0.386026	0.00751125	-0.358569	0.181345	-0.247175	-0.277269	-0.186328	0.039632	1.30036	0.765439	-0.071658	0.939333	1.09578	0.284224	0.879688	1.68347	0.700261	0.31999	1.30373	2.29969	0.478589	0.207603	0.209255	1.28393	0.268182	0.191281	0.51594	1.11523	-0.485822	0.0239998	0.527494	0.724209	
0.697244	4.9469	0	0	-0.391627	0.011171	-0.357036	0.195033	-0.243689	-0.27533	-0.186985	0.051771	1.3168	0.786878	-0.075606	0.968725	1.10405	0.289001	0.877299	1.71531	0.701374	0.316845	1.3191	2.30882	0.483932	0.226032	0.207472	1.30373	0.283688	0.197834	0.51637	1.13404	-0.479897	0.026738	0.537479	0.733502	
0.693123	4.95758	0	0	-0.39407	0.00591425	-0.357882	0.197425	-0.248146	-0.274527	-0.187884	0.0543122	1.32989	0.790742	-0.0875328	0.984198	1.10288	0.292316	0.883778	1.72212	0.698572	0.311427	1.3201	2.32355	0.495058	0.228178	0.203174	1.31588	0.281796	0.215796	0.515903	1.15541	-0.473966	0.0294783	0.535316	0.749007	
0.690073	4.96673	0	0	-0.396513	0.0006575	-0.358729	0.199816	-0.252603	-0.273724	-0.188783	0.0568535	1.34298	0.794606	-0.0994595	0.999671	1.10171	0.29563	0.890256	1.72893	0.69577	0.30601	1.32111	2.33829	0.506184	0.230324	0.198875	1.32803	0.279904	0.233757	0.515437	1.17678	-0.468035	0.0322185	0.533152	0.764511	
0.688752	4.98352	0	0	-0.398957	-0.00459925	-0.359575	0.202208	-0.257059	-0.272921	-0.189682	0.0593947	1.35608	0.79847	-0.111386	1.01514	1.10053	0.298945	0.896734	1.73573	0.692967	0.300593	1.32211	2.35302	0.51731	0.232469	0.194576	1.34018	0.278012	0.251718	0.51497	1.19815	-0.462103	0.0349588	0.530988	0.780015	
0.689315	4.98962	0	0	-0.4014	-0.009856	-0.360421	0.204599	-0.261516	-0.272118	-0.190581	0.061936	1.36917	0.802334	-0.123313	1.03062	1.09936	0.302259	0.903213	1.74254	0.690165	0.295175	1.32311	2.36775	0.528436	0.234615	0.190278	1.35232	0.27612	0.26968	0.514503	1.21952	-0.456172	0.037699	0.528825	0.79552	
0.691202	5.0003	0	0	-0.408045	-0.0032305	-0.349737	0.210501	-0.259001	-0.267432	-0.190346	0.0715583	1.37715	0.807069	-0.11669	1.03013	1.11351	0.290464	0.905182	1.74955	0.687364	0.289764	1.3241	2.38252	0.528436	0.234615	0.188844	1.35638	0.275156	0.272403	0.514503	1.21952	-0.463626	0.0392605	0.528825	0.79552	
0.693796	5.00793	0	0	-0.414689	0.003395	-0.339054	0.216403	-0.256487	-0.262746	-0.190111	0.0811805	1.38513	0.811805	-0.110067	1.02965	1.12766	0.278669	0.907151	1.75656	0.684562	0.284354	1.3251	2.39729	0.528436	0.234615	0.18741	1.36043	0.274192	0.275126	0.514503	1.21952	-0.471079	0.040822	0.528825	0.79552	
0.696483	5.00793	0	0	-0.421334	0.0100205	-0.32837	0.222305	-0.253973	-0.25806	-0.189875	0.0908028	1.39311	0.816541	-0.103443	1.02916	1.14182	0.266874	0.909121	1.76357	0.68176	0.278943	1.32609	2.41206	0.528436	0.234615	0.185976	1.36448	0.273229	0.27785	0.514503	1.21952	-0.478532	0.0423835	0.528825	0.79552	
0.698649	5.00488	0	0	-0.427979	0.016646	-0.317686	0.228207	-0.251458	-0.253374	-0.18964	0.100425	1.40109	0.821276	-0.09682	1.02868	1.15597	0.255079	0.91109	1.77057	0.678959	0.273532	1.32709	2.42683	0.528436	0.234615	0.184542	1.36854	0.272265	0.280573	0.514503	1.21952	-0.485986	0.043945	0.528825	0.79552	
0.699763	5.00336	0	0	-0.426928	0.0136755	-0.318619	0.239878	-0.249915	-0.245935	-0.191213	0.115163	1.40849	0.841382	-0.0924207	1.05277	1.15362	0.261709	0.913749	1.78822	0.680592	0.255599	1.3344	2.44138	0.53473	0.233644	0.184163	1.38438	0.281961	0.278427	0.507239	1.23002	-0.481499	0.0410133	0.534228	0.799046	
0.699974	5.00336	0	0	-0.425877	0.010705	-0.319551	0.25155	-0.248372	-0.238495	-0.192785	0.1299	1.41588	0.861488	-0.0880215	1.07685	1.15128	0.268339	0.916409	1.80588	0.682225	0.237666	1.34171	2.45592	0.541025	0.232673	0.183783	1.40023	0.291656	0.276281	0.499974	1.24052	-0.477012	0.0380815	0.539631	0.802573	
0.699758	5.0003	0	0	-0.424826	0.0077345	-0.320484	0.263221	-0.24683	-0.231055	-0.194357	0.144637	1.42328	0.881595	-0.0836223	1.10094	1.14893	0.274969	0.919068	1.82353	0.683858	0.219732	1.34902	2.47047	0.54732	0.231701	0.183404	1.41608	0.301352	0.274134	0.49271	1.25102	-0.472525	0.0351497	0.545033	0.806099	
0.699593	4.9942	0	0	-0.423775	0.004764	-0.321417	0.274893	-0.245287	-0.223616	-0.19593	0.159375	1.43068	0.901701	-0.079223	1.12503	1.14658	0.281599	0.921728	1.84118	0.685491	0.201799	1.35633	2.48502	0.553614	0.23073	0.183025	1.43193	0.311048	0.271988	0.485446	1.26153	-0.468038	0.032218	0.550436	0.809625	
0.699954	4.98657	0	0	-0.428653	-0.00573475	-0.327099	0.263861	-0.253229	-0.224764	-0.192323	0.14918	1.44269	0.908861	-0.0863363	1.14513	1.14127	0.282525	0.917895	1.85202	0.680988	0.187916	1.36186	2.50466	0.555571	0.242032	0.179752	1.45597	0.309142	0.290015	0.489374	1.27049	-0.469561	0.0365217	0.553404	0.820052	
0.701319	4.97742	0	0	-0.433531	-0.0162335	-0.332782	0.252829	-0.26117	-0.225911	-0.188715	0.138986	1.4547	0.91602	-0.0934495	1.16524	1.13595	0.283451	0.914063	1.86285	0.676485	0.174034	1.36739	2.52431	0.557529	0.253333	0.176478	1.48001	0.307236	0.308042	0.493301	1.27945	-0.471083	0.0408255	0.556371	0.830479	
0.703919	4.96979	0	0	-0.438408	-0.0267322	-0.338465	0.241796	-0.269112	-0.227058	-0.185108	0.128792	1.46671	0.92318	-0.100563	1.18534	1.13063	0.284378	0.910231	1.87368	0.671983	0.160151	1.37292	2.54396	0.559486	0.264634	0.173204	1.50405	0.30533	0.326069	0.497229	1.28841	-0.472606	0.0451292	0.559338	0.840905	
0.707388	4.95453	0	0	-0.443286	-0.037231	-0.344147	0.230764	-0.277053	-0.228206	-0.181501	0.118597	1.47872	0.93034	-0.107676	1.20544	1.12531	0.285304	0.906398	1.88451	0.66748	0.146268	1.37845	2.5636	0.561443	0.275936	0.169931	1.52809	0.303424	0.344096	0.501156	1.29737	-0.474129	0.049433	0.562306	0.851332	
0.711269	4.94842	0	0	-0.443629	-0.0483907	-0.341688	0.232841	-0.276081	-0.230952	-0.183536	0.114054	1.48904	0.9286	-0.111238	1.21551	1.13	0.272054	0.90512	1.88812	0.655766	0.139534	1.383	2.5684	0.567748	0.274965	0.169931	1.52809	0.302457	0.346828	0.496539	1.30038	-0.481578	0.0509915	0.560678	0.855933	
0.715107	4.93317	0	0	-0.443972	-0.0595505	-0.339229	0.234917	-0.27511	-0.233698	-0.18557	0.109511	1.49937	0.926861	-0.114801	1.22558	1.13469	0.258804	0.903841	1.89174	0.644051	0.1328	1.38756	2.5732	0.574053	0.273994	0.169931	1.52809	0.30149	0.34956	0.491921	1.3034	-0.489027	0.05255	0.55905	0.860534	
0.718445	4.92859	0	0	-0.444316	-0.0707103	-0.33677	0.236993	-0.274139	-0.236443	-0.187605	0.104968	1.5097	0.925122	-0.118364	1.23565	1.13938	0.245554	0.902562	1.89535	0.632337	0.126065	1.39211	2.57799	0.580359	0.273022	0.169931	1.52809	0.300524	0.352293	0.487304	1.30642	-0.496475	0.0541085	0.557422	0.865135	
0.720836	4.91943	0	0	-0.444659	-0.08187	-0.334311	0.23907	-0.273167	-0.239189	-0.18964	0.100425	1.52003	0.923382	-0.121926	1.24571	1.14406	0.232304	0.901284	1.89896	0.620623	0.119331	1.39666	2.58279	0.586664	0.272051	0.169931	1.52809	0.299557	0.355025	0.482686	1.30943	-0.503924	0.055667	0.555794	0.869736	
0.722172	4.9057	0	0	-0.444659	-0.08187	-0.321999	0.249472	-0.272601	-0.228998	-0.182865	0.101871	1.52405	0.925771	-0.115292	1.24525	1.13992	0.229925	0.890978	1.90292	0.639055	0.13369	1.37037	2.56894	0.598352	0.289656	0.157766	1.5329	0.303444	0.356688	0.481801	1.31194	-0.497917	0.0484347	0.562018	0.870978	
0.722773	4.89807	0	0	-0.444659	-0.08187	-0.309688	0.259873	-0.272034	-0.218807	-0.17609	0.103316	1.52806	0.92816	-0.108658	1.24479	1.13577	0.227546	0.880672	1.90688	0.657486	0.148048	1.34409	2.55508	0.610039	0.307261	0.1456	1.53772	0.307331	0.358351	0.480916	1.31444	-0.491911	0.0412025	0.568242	0.872221	
0.722988	4.89044	0	0	-0.444659	-0.08187	-0.297376	0.270275	-0.271467	-0.208616	-0.169316	0.104761	1.53208	0.930548	-0.102024	1.24433	1.13163	0.225166	0.870366	1.91083	0.675917	0.162407	1.3178	2.54123	0.621727	0.324866	0.133435	1.54253	0.311219	0.360015	0.480031	1.31694	-0.485904	0.0339703	0.574467	0.873463	
0.723166	4.88434	0	0	-0.444659	-0.08187	-0.285064	0.280677	-0.270901	-0.198425	-0.162541	0.106207	1.5361	0.932937	-0.09539	1.24387	1.12748	0.222787	0.86006	1.91479	0.694349	0.176766	1.29151	2.52737	0.633415	0.342471	0.12127	1.54735	0.315106	0.361678	0.479146	1.31944	-0.479897	0.026738	0.580691	0.874706	
0.723655	4.87518	0	0	-0.440123	-0.0825585	-0.284389	0.296881	-0.272847	-0.192924	-0.166148	0.116402	1.53379	0.939463	-0.0941063	1.25855	1.11866	0.23364	0.851716	1.9258	0.702774	0.192938	1.26904	2.53818	0.645123	0.360156	0.1048	1.56438	0.318028	0.366078	0.481295	1.33344	-0.474728	0.031631	0.589894	0.88642	
0.724777	4.86755	0	0	-0.435588	-0.083247	-0.283715	0.313084	-0.274794	-0.187423	-0.169756	0.126597	1.53148	0.945989	-0.0928225	1.27322	1.10983	0.244494	0.843373	1.93681	0.711199	0.209111	1.24657	2.549	0.656832	0.37784	0.08833	1.58141	0.320949	0.370478	0.483443	1.34744	-0.469558	0.036524	0.599097	0.898133	
0.726452	4.8584	0	0	-0.431052	-0.0839355	-0.283041	0.329288	-0.27674	-0.181923	-0.173363	0.136791	1.52917	0.952514	-0.0915388	1.2879	1.10101	0.255347	0.835029	1.94782	0.719625	0.225283	1.2241	2.55981	0.66854	0.395525	0.07186	1.59844	0.323871	0.374879	0.485592	1.36144	-0.464388	0.041417	0.6083	0.909847	
0.728308	4.85992	0	0	-0.426516	-0.084624	-0.282366	0.345492	-0.278686	-0.176422	-0.17697	0.146986	1.52686	0.95904	-0.090255	1.30258	1.09219	0.2662	0.826685	1.95883	0.72805	0.241455	1.20163	2.57062	0.680248	0.413209	0.05539	1.61547	0.326793	0.379279	0.48774	1.37543	-0.459219	0.04631	0.617503	0.921561	
0.729963	4.85382	0	0	-0.415339	-0.091927	-0.275728	0.344859	-0.275767	-0.184672	-0.170423	0.138788	1.52515	0.950125	-0.0951073	1.29799	1.09219	0.2662	0.822182	1.95899	0.743159	0.238823	1.20258	2.58549	0.678787	0.417337	0.0496132	1.63179	0.329716	0.383684	0.482413	1.39049	-0.46303	0.0570815	0.621548	0.938471	
0.731037	4.8584	0	0	-0.404163	-0.09923	-0.26909	0.344226	-0.272848	-0.192922	-0.163876	0.13059	1.52345	0.941211	-0.0999595	1.29339	1.09219	0.2662	0.817678	1.95915	0.758269	0.236192	1.20353	2.60036	0.677327	0.421465	0.0438365	1.64812	0.332639	0.38809	0.477085	1.40555	-0.466842	0.067853	0.625594	0.95538	
0.731151	4.85535	0	0	-0.392987	-0.106533	-0.262452	0.343592	-0.269929	-0.201172	-0.157329	0.122393	1.52174	0.932297	-0.104812	1.2888	1.09219	0.2662	0.813175	1.95932	0.773378	0.233561	1.20447	2.61524	0.675866	0.425592	0.0380598	1.66445	0.335562	0.392495	0.471758	1.4206	-0.470653	0.0786245	0.629639	0.97229	
0.729977	4.86297	0	0	-0.38181	-0.113836	-0.255814	0.342959	-0.26701	-0.209422	-0.150782	0.114195	1.52003	0.923382	-0.109664	1.28421	1.09219	0.2662	0.808671	1.95948	0.788487	0.230929	1.20542	2.63011	0.674406	0.42972	0.032283	1.68077	0.338485	0.396901	0.466431	1.43566	-0.474464	0.089396	0.633684	0.9892	
0.727622	4.86145	0	0	-0.374811	-0.1093	-0.243459	0.353437	-0.263525	-0.207472	-0.143761	0.125301	1.52751	0.915991	-0.103025	1.28375	1.0975	0.265275	0.811895	1.96293	0.785151	0.240358	1.21539	2.65468	0.679286	0.432882	0.0332855	1.69269	0.334593	0.395233	0.461811	1.43868	-0.478953	0.0923295	0.638292	0.995095	
0.724402	4.87213	0	0	-0.367812	-0.104765	-0.231104	0.363916	-0.26004	-0.205521	-0.13674	0.136406	1.53498	0.9086	-0.0963855	1.28329	1.10281	0.26435	0.815119	1.96638	0.781815	0.249786	1.22535	2.67925	0.684167	0.436045	0.034288	1.70461	0.330701	0.393565	0.457191	1.4417	-0.483442	0.095263	0.6429	1.00099	
0.720639	4.87366	0	0	-0.360813	-0.100229	-0.218749	0.374394	-0.256555	-0.20357	-0.129719	0.147512	1.54246	0.901209	-0.0897462	1.28284	1.10812	0.263426	0.818342	1.96984	0.778478	0.259215	1.23532	2.70382	0.689048	0.439207	0.0352905	1.71653	0.32681	0.391897	0.452571	1.44471	-0.487932	0.0981965	0.647509	1.00689	
0.716652	4.87976	0	0	-0.353814	-0.095693	-0.206394	0.384872	-0.25307	-0.20162	-0.122698	0.158617	1.54994	0.893818	-0.083107	1.28238	1.11343	0.262501	0.821566	1.97329	0.775142	0.268644	1.24528	2.7284	0.693928	0.442369	0.036293	1.72845	0.322918	0.390229	0.447951	1.44773	-0.492421	0.10113	0.652117	1.01278	
0.71276	4.88129	0	0	-0.354512	-0.081551	-0.200777	0.405393	-0.261422	-0.189816	-0.123373	0.170851	1.54763	0.900337	-0.083618	1.30214	1.11523	0.271517	0.825454	1.98746	0.776844	0.277208	1.25345	2.7582	0.705167	0.444563	0.041188	1.74416	0.32681	0.391897	0.449014	1.45477	-0.485729	0.101731	0.650726	1.02618	
0.709226	4.88281	0	0	-0.35521	-0.067409	-0.19516	0.425914	-0.269773	-0.178012	-0.124048	0.183086	1.54533	0.906856	-0.084129	1.32191	1.11702	0.280533	0.829342	2.00162	0.778547	0.285773	1.26162	2.788	0.716406	0.446758	0.046083	1.75987	0.330701	0.393565	0.450078	1.4618	-0.479037	0.102331	0.649335	1.03957	
0.706118	4.88891	0	0	-0.355908	-0.053267	-0.189543	0.446436	-0.278125	-0.166209	-0.124722	0.195321	1.54302	0.913374	-0.08464	1.34168	1.11882	0.28955	0.83323	2.01578	0.780249	0.294338	1.26979	2.8178	0.727645	0.448952	0.050978	1.77557	0.334593	0.395233	0.451141	1.46883	-0.472345	0.102931	0.647945	1.05297	
0.703467	4.88434	0	0	-0.356606	-0.039125	-0.183926	0.466957	-0.286477	-0.154405	-0.125397	0.207555	1.54071	0.919893	-0.085151	1.36145	1.12062	0.298566	0.837118	2.02995	0.781951	0.302902	1.27796	2.8476	0.738884	0.451146	0.055873	1.79128	0.338485	0.396901	0.452204	1.47586	-0.465653	0.103532	0.646554	1.06637	
0.701302	4.88586	0	0	-0.354155	-0.033873	-0.183926	0.466957	-0.287038	-0.164613	-0.129245	0.208102	1.5413	0.904483	-0.0917935	1.3619	1.12062	0.298566	0.833893	2.02648	0.786997	0.302026	1.28521	2.86247	0.735954	0.459426	0.0544205	1.79538	0.341409	0.401311	0.448643	1.48593	-0.464978	0.111388	0.647046	1.08393	
0.699653	4.87976	0	0	-0.351705	-0.028621	-0.183926	0.466957	-0.287598	-0.174821	-0.133093	0.208649	1.54189	0.889074	-0.098436	1.36234	1.12062	0.298566	0.830668	2.02302	0.792043	0.30115	1.29245	2.87733	0.733024	0.467707	0.052968	1.79949	0.344333	0.405722	0.445083	1.49599	-0.464302	0.119244	0.647537	1.10148	
0.698548	4.87671	0	0	-0.349255	-0.023369	-0.183926	0.466957	-0.288158	-0.185029	-0.13694	0.209197	1.54248	0.873664	-0.105079	1.36279	1.12062	0.298566	0.827442	2.01955	0.79709	0.300275	1.2997	2.8922	0.730094	0.475988	0.0515155	1.80359	0.347258	0.410132	0.441523	1.50605	-0.463627	0.127099	0.648029	1.11904	
0.697991	4.87518	0	0	-0.346804	-0.018117	-0.183926	0.466957	-0.288719	-0.195237	-0.140788	0.209744	1.54307	0.858255	-0.111721	1.36324	1.12062	0.298566	0.824217	2.01609	0.802136	0.299399	1.30695	2.90706	0.727164	0.484268	0.050063	1.8077	0.350182	0.414542	0.437962	1.51611	-0.462952	0.134955	0.648521	1.1366	
0.69796	4.86755	0	0	-0.345406	-0.00988225	-0.182308	0.471495	-0.296647	-0.196393	-0.142599	0.214862	1.53619	0.850259	-0.118356	1.36369	1.12062	0.298566	0.820993	2.01262	0.79486	0.306575	1.30785	2.92219	0.722276	0.481096	0.0461665	1.80394	0.348227	0.407393	0.428559	1.51259	-0.464391	0.129257	0.6398	1.1423	
0.69843	4.8645	0	0	-0.344008	-0.0016475	-0.18069	0.476032	-0.304575	-0.197549	-0.14441	0.219979	1.52931	0.842262	-0.124991	1.36414	1.12062	0.298566	0.81777	2.00916	0.787585	0.313751	1.30876	2.93731	0.717388	0.477924	0.04227	1.80017	0.346272	0.400243	0.419157	1.50906	-0.46583	0.123558	0.63108	1.148	
0.699377	4.8584	0	0	-0.34261	0.00658725	-0.179072	0.48057	-0.312503	-0.198706	-0.146221	0.225097	1.52242	0.834265	-0.131626	1.36458	1.12062	0.298566	0.814547	2.0057	0.780309	0.320927	1.30967	2.95244	0.7125	0.474752	0.0383735	1.79641	0.344316	0.393094	0.409755	1.50554	-0.467268	0.11786	0.622359	1.1537	
0.700776	4.85382	0	0	-0.341212	0.014822	-0.177454	0.485108	-0.320431	-0.199862	-0.148032	0.230215	1.51554	0.826269	-0.138261	1.36503	1.12062	0.298566	0.811323	2.00224	0.773034	0.328103	1.31058	2.96756	0.707612	0.47158	0.034477	1.79264	0.342361	0.385945	0.400352	1.50201	-0.468707	0.112162	0.613638	1.15939	
0.702604	4.84466	0	0	-0.3342	0.0194008	-0.180136	0.501802	-0.319459	-0.202608	-0.15075	0.237897	1.51267	0.820655	-0.133417	1.36964	1.11296	0.306122	0.801043	2.00617	0.769107	0.325825	1.3133	2.9776	0.716894	0.462334	0.0320332	1.78478	0.340405	0.378806	0.390965	1.49849	-0.475399	0.11156	0.610105	1.15991	
0.704841	4.83856	0	0	-0.327188	0.0239795	-0.182818	0.518496	-0.318488	-0.205354	-0.153469	0.24558	1.50981	0.815041	-0.128573	1.37426	1.1053	0.313677	0.790763	2.01011	0.76518	0.323547	1.31601	2.98764	0.726176	0.453088	0.0295895	1.77693	0.33845	0.371668	0.381579	1.49497	-0.48209	0.110958	0.606572	1.16043	
0.707466	4.83246	0	0	-0.320177	0.0285583	-0.1855	0.535191	-0.317516	-0.208099	-0.156187	0.253262	1.50694	0.809427	-0.123728	1.37887	1.09764	0.321233	0.780482	2.01404	0.761253	0.32127	1.31873	2.99768	0.735458	0.443842	0.0271458	1.76907	0.336494	0.36453	0.372193	1.49145	-0.488781	0.110355	0.603038	1.16095	
0.710462	4.82483	0	0	-0.313165	0.033137	-0.188182	0.551885	-0.316544	-0.210845	-0.158905	0.260944	1.50408	0.803813	-0.118884	1.38349	1.08997	0.328789	0.770202	2.01798	0.757326	0.318992	1.32144	3.00772	0.74474	0.434596	0.024702	1.76121	0.334538	0.357391	0.362806	1.48793	-0.495473	0.109753	0.599505	1.16147	
0.71381	4.8233	0	0	-0.316672	0.030847	-0.190656	0.549763	-0.321552	-0.220225	-0.16478	0.256909	1.49892	0.80469	-0.135726	1.39449	1.08584	0.326392	0.762495	2.01467	0.753402	0.316716	1.31963	3.01285	0.736922	0.439704	0.0208095	1.75746	0.3394	0.356317	0.359089	1.48843	-0.499197	0.110529	0.594326	1.16664	
0.717489	4.81567	0	0	-0.320179	0.028557	-0.19313	0.547642	-0.32656	-0.229605	-0.170654	0.252874	1.49376	0.805567	-0.152567	1.4055	1.0817	0.323995	0.754789	2.01137	0.749478	0.31444	1.31782	3.01798	0.729104	0.444813	0.016917	1.7537	0.344261	0.355244	0.355372	1.48893	-0.502921	0.111306	0.589148	1.17182	
0.721416	4.81109	0	0	-0.323686	0.026267	-0.195605	0.54552	-0.331567	-0.238985	-0.176529	0.248839	1.48861	0.806443	-0.169409	1.4165	1.07757	0.321598	0.747082	2.00806	0.745554	0.312164	1.316	3.02311	0.721286	0.449921	0.0130245	1.74995	0.349123	0.35417	0.351655	1.48942	-0.506645	0.112082	0.58397	1.17699	
0.725334	4.80499	0	0	-0.327193	0.023977	-0.198079	0.543398	-0.336575	-0.248365	-0.182404	0.244804	1.48345	0.80732	-0.186251	1.42751	1.07343	0.319201	0.739375	2.00476	0.74163	0.309888	1.31419	3.02824	0.713468	0.45503	0.009132	1.7462	0.353984	0.353096	0.347938	1.48992	-0.510369	0.112858	0.578791	1.18216	
0.728952	4.79736	0	0	-0.329645	0.0187117	-0.193884	0.540657	-0.337141	-0.258521	-0.189177	0.24333	1.48402	0.792002	-0.191079	1.42288	1.07047	0.313494	0.735509	1.99063	0.727652	0.309352	1.30966	3.02331	0.719317	0.438499	0.0042455	1.73054	0.345232	0.352508	0.334865	1.4869	-0.526769	0.12026	0.567387	1.18604	
0.731981	4.79584	0	0	-0.332097	0.0134465	-0.18969	0.537916	-0.337707	-0.268676	-0.19595	0.241857	1.4846	0.776684	-0.195906	1.41826	1.06751	0.307787	0.731643	1.97651	0.713674	0.308815	1.30514	3.01838	0.725166	0.421969	-0.000641	1.71488	0.33648	0.351919	0.321792	1.48388	-0.543168	0.127662	0.555983	1.18991	
0.734134	4.79126	0	0	-0.334548	0.00818125	-0.185495	0.535175	-0.338272	-0.278832	-0.202723	0.240383	1.48518	0.761365	-0.200734	1.41363	1.06455	0.302079	0.727777	1.96238	0.699696	0.308279	1.30061	3.01346	0.731015	0.405438	-0.0055275	1.69922	0.327727	0.35133	0.308719	1.48086	-0.559568	0.135064	0.54458	1.19378	
0.735122	4.78515	0	0	-0.337	0.002916	-0.1813	0.532434	-0.338838	-0.288988	-0.209496	0.238909	1.48575	0.746047	-0.205562	1.40901	1.06159	0.296372	0.723911	1.94826	0.685718	0.307742	1.29609	3.00853	0.736864	0.388908	-0.010414	1.68356	0.318975	0.350742	0.295646	1.47783	-0.575968	0.142466	0.533176	1.19765	
0.734869	4.78363	0	0	-0.337	0.002916	-0.178068	0.541544	-0.339806	-0.286251	-0.208374	0.246043	1.48174	0.743692	-0.203773	1.40395	1.05512	0.300601	0.716221	1.94497	0.689052	0.29832	1.29157	3.00361	0.736349	0.373392	-0.00997525	1.6676	0.314099	0.339233	0.287189	1.47181	-0.584816	0.138317	0.525082	1.19221	
0.733712	4.78058	0	0	-0.337	0.002916	-0.174837	0.550655	-0.340774	-0.283515	-0.207252	0.253177	1.47774	0.741337	-0.201985	1.39889	1.04865	0.30483	0.708532	1.94169	0.692386	0.288898	1.28705	2.99869	0.735835	0.357876	-0.0095365	1.65164	0.309223	0.327724	0.278732	1.46579	-0.593664	0.134167	0.516988	1.18677	
0.732033	4.776	0	0	-0.337	0.002916	-0.171605	0.559765	-0.341743	-0.280779	-0.20613	0.26031	1.47373	0.738983	-0.200196	1.39384	1.04218	0.309059	0.700843	1.9384	0.695719	0.279475	1.28252	2.99377	0.73532	0.342359	-0.00909775	1.63568	0.304347	0.316214	0.270274	1.45977	-0.602512	0.130018	0.508894	1.18133	
0.730216	4.77295	0	0	-0.337	0.002916	-0.168374	0.568875	-0.342711	-0.278042	-0.205008	0.267444	1.46972	0.736628	-0.198407	1.38878	1.03571	0.313288	0.693153	1.93512	0.699053	0.270053	1.278	2.98885	0.734806	0.326843	-0.008659	1.61972	0.299471	0.304705	0.261817	1.45375	-0.61136	0.125868	0.5008	1.17589	
0.728645	4.76684	0	0	-0.341556	0.0036055	-0.178609	0.588678	-0.346181	-0.279981	-0.216303	0.278761	1.46858	0.739862	-0.203776	1.40396	1.03453	0.3166	0.682928	1.93903	0.685104	0.269522	1.27349	2.98394	0.736263	0.322725	-0.00577825	1.61158	0.295587	0.30305	0.262702	1.45125	-0.610599	0.123717	0.488611	1.18207	
0.727691	4.76227	0	0	-0.346111	0.004295	-0.188844	0.608481	-0.349652	-0.281921	-0.227597	0.290078	1.46743	0.743096	-0.209146	1.41913	1.03336	0.319912	0.672703	1.94294	0.671154	0.268991	1.26897	2.97903	0.73772	0.318607	-0.0028975	1.60344	0.291703	0.301396	0.263587	1.44875	-0.609838	0.121566	0.476421	1.18825	
0.727377	4.76379	0	0	-0.350666	0.0049845	-0.19908	0.628284	-0.353123	-0.28386	-0.238892	0.301395	1.46629	0.74633	-0.214515	1.43431	1.03219	0.323224	0.662478	1.94686	0.657204	0.268459	1.26445	2.97411	0.739177	0.314488	-1.675E-05	1.5953	0.287819	0.299741	0.264471	1.44625	-0.609076	0.119414	0.464232	1.19443	
0.727292	4.76074	0	0	-0.355222	0.005674	-0.209315	0.648087	-0.356593	-0.285799	-0.250186	0.312712	1.46515	0.749564	-0.219885	1.44948	1.03102	0.326536	0.652253	1.95077	0.643255	0.267928	1.25993	2.9692	0.740634	0.31037	0.002864	1.58716	0.283935	0.298086	0.265356	1.44375	-0.608315	0.117263	0.452043	1.20061	
0.727003	4.75922	0	0	-0.354169	0.0026995	-0.214257	0.643818	-0.357161	-0.295934	-0.256941	0.311221	1.46057	0.73517	-0.22952	1.44023	1.02806	0.32083	0.650942	1.92952	0.635451	0.263394	1.25723	2.95919	0.735216	0.291789	-0.003478	1.57568	0.280054	0.296432	0.251607	1.45274	-0.621713	0.126018	0.441735	1.21092	
0.726073	4.75769	0	0	-0.353117	-0.000275	-0.219198	0.63955	-0.357729	-0.306069	-0.263696	0.309731	1.45599	0.720776	-0.239155	1.43097	1.02511	0.315124	0.649631	1.90828	0.627647	0.258861	1.25452	2.94918	0.729797	0.273207	-0.00982	1.5642	0.276172	0.294778	0.237858	1.46172	-0.635111	0.134772	0.431427	1.22123	
0.724069	4.75769	0	0	-0.352065	-0.0032495	-0.224139	0.635282	-0.358297	-0.316204	-0.270451	0.308241	1.45141	0.706382	-0.24879	1.42172	1.02216	0.309417	0.648321	1.88703	0.619843	0.254327	1.25181	2.93917	0.724379	0.254626	-0.016162	1.55273	0.272291	0.293123	0.22411	1.4707	-0.648509	0.143527	0.421119	1.23153	
0.720599	4.75922	0	0	-0.351012	-0.006224	-0.229081	0.631013	-0.358865	-0.326339	-0.277206	0.30675	1.44684	0.691988	-0.258425	1.41246	1.0192	0.303711	0.64701	1.86578	0.612039	0.249794	1.2491	2.92916	0.71896	0.236044	-0.022504	1.54125	0.26841	0.291469	0.210361	1.47969	-0.661907	0.152281	0.410811	1.24184	
0.715848	4.75769	0	0	-0.346456	-0.00691425	-0.229943	0.63345	-0.357899	-0.32907	-0.278112	0.309309	1.45026	0.682314	-0.256638	1.40741	1.01508	0.301318	0.639348	1.86252	0.61146	0.23815	1.23648	2.92957	0.715524	0.22883	-0.0302742	1.53385	0.262581	0.282722	0.205627	1.47318	-0.667785	0.14951	0.406266	1.23588	
0.710399	4.75769	0	0	-0.3419	-0.0076045	-0.230805	0.635887	-0.356932	-0.3318	-0.279017	0.311868	1.45368	0.67264	-0.254851	1.40236	1.01096	0.298926	0.631687	1.85925	0.610881	0.226506	1.22385	2.92997	0.712088	0.221616	-0.0380445	1.52646	0.256752	0.273976	0.200894	1.46667	-0.673662	0.146739	0.401721	1.22992	
0.704841	4.75769	0	0	-0.337344	-0.00829475	-0.231668	0.638324	-0.355966	-0.334531	-0.279923	0.314428	1.45711	0.662966	-0.253064	1.39731	1.00684	0.296534	0.624026	1.85599	0.610302	0.214863	1.21122	2.93038	0.708652	0.214402	-0.0458148	1.51906	0.250922	0.26523	0.19616	1.46015	-0.67954	0.143969	0.397176	1.22396	
0.699765	4.75616	0	0	-0.332788	-0.008985	-0.23253	0.640761	-0.355	-0.337262	-0.280828	0.316987	1.46053	0.653292	-0.251277	1.39226	1.00272	0.294141	0.616364	1.85273	0.609723	0.203219	1.1986	2.93079	0.705216	0.207188	-0.053585	1.51167	0.245093	0.256483	0.191426	1.45364	-0.685417	0.141198	0.392631	1.21801	
0.69576	4.75311	0	0	-0.338396	-0.00532025	-0.238573	0.657839	-0.356933	-0.3318	-0.288278	0.327761	1.45311	0.660621	-0.263235	1.40784	0.996261	0.29836	0.616364	1.85273	0.603035	0.195588	1.1941	2.9259	0.708115	0.198995	-0.0574663	1.50798	0.24894	0.245612	0.189502	1.44915	-0.69726	0.145633	0.384806	1.22133	
0.693245	4.75769	0	0	-0.344005	-0.0016555	-0.244615	0.674917	-0.358866	-0.326338	-0.295729	0.338535	1.44568	0.667949	-0.275194	1.42342	0.989803	0.30258	0.616364	1.85273	0.596347	0.187957	1.1896	2.92101	0.711014	0.190802	-0.0613475	1.50429	0.252787	0.234741	0.187578	1.44465	-0.709102	0.150068	0.376982	1.22466	
0.692081	4.75159	0	0	-0.349613	0.00200925	-0.250658	0.691995	-0.360798	-0.320875	-0.30318	0.34931	1.43826	0.675278	-0.287153	1.43901	0.983346	0.3068	0.616364	1.85273	0.589659	0.180327	1.1851	2.91612	0.713913	0.182608	-0.0652288	1.5006	0.256633	0.223869	0.185654	1.44015	-0.720945	0.154503	0.369158	1.22799	
0.692016	4.75006	0	0	-0.355222	0.005674	-0.256701	0.709073	-0.362731	-0.315413	-0.31063	0.360084	1.43084	0.682607	-0.299111	1.45459	0.976888	0.311019	0.616364	1.85273	0.582971	0.172696	1.18059	2.91122	0.716812	0.174415	-0.06911	1.4969	0.26048	0.212998	0.18373	1.43565	-0.732788	0.158938	0.361333	1.23132	
0.692801	4.7409	0	0	-0.358722	0.0033885	-0.259905	0.699911	-0.364267	-0.322805	-0.315558	0.353463	1.43367	0.660954	-0.290182	1.42935	0.969832	0.302932	0.61251	1.83873	0.577392	0.161967	1.16801	2.91162	0.711926	0.171314	-0.0729885	1.49322	0.259519	0.215715	0.170908	1.44211	-0.736478	0.159698	0.355371	1.23878	
0.694183	4.74243	0	0	-0.362223	0.001103	-0.263108	0.690748	-0.365803	-0.330198	-0.320485	0.346842	1.43651	0.639301	-0.281253	1.40412	0.962776	0.294845	0.608656	1.82474	0.571813	0.151239	1.15542	2.91203	0.70704	0.168214	-0.076867	1.48953	0.258557	0.218431	0.158085	1.44857	-0.740168	0.160458	0.349408	1.24625	
0.695915	4.73938	0	0	-0.365723	-0.0011825	-0.266312	0.681586	-0.367338	-0.337591	-0.325412	0.340222	1.43934	0.617648	-0.272324	1.37888	0.955719	0.286758	0.604803	1.81075	0.566235	0.140511	1.14283	2.91243	0.702153	0.165113	-0.0807455	1.48584	0.257596	0.221147	0.145263	1.45503	-0.743858	0.161218	0.343445	1.25371	
0.697782	4.73785	0	0	-0.369223	-0.003468	-0.269516	0.672424	-0.368874	-0.344983	-0.33034	0.333601	1.44218	0.595995	-0.263395	1.35365	0.948663	0.278671	0.600949	1.79675	0.560656	0.129782	1.13024	2.91283	0.697267	0.162013	-0.084624	1.48215	0.256635	0.223864	0.132441	1.46149	-0.747548	0.161978	0.337483	1.26118	
0.699601	4.73785	0	0	-0.366069	-0.0123823	-0.274443	0.66815	-0.371375	-0.349639	-0.330542	0.323906	1.43645	0.584923	-0.274793	1.34948	0.948053	0.266395	0.59583	1.78637	0.550098	0.11995	1.12127	2.90307	0.698714	0.157923	-0.0909443	1.47075	0.251765	0.21244	0.131248	1.44504	-0.757846	0.162107	0.329463	1.25572	
0.701193	4.7348	0	0	-0.362915	-0.0212965	-0.279369	0.663876	-0.373877	-0.354294	-0.330744	0.314211	1.43073	0.57385	-0.286191	1.34531	0.947443	0.254119	0.590711	1.77599	0.53954	0.110118	1.1123	2.89331	0.700161	0.153833	-0.0972645	1.45935	0.246895	0.201016	0.130055	1.42858	-0.768143	0.162236	0.321442	1.25026	
0.702379	4.73175	0	0	-0.35976	-0.0302108	-0.284296	0.659602	-0.376379	-0.35895	-0.330945	0.304517	1.425	0.562778	-0.297588	1.34115	0.946834	0.241842	0.585592	1.7656	0.528981	0.100285	1.10333	2.88355	0.701609	0.149743	-0.103585	1.44795	0.242025	0.189593	0.128863	1.41213	-0.778441	0.162364	0.313422	1.24479	
0.702977	4.73022	0	0	-0.356606	-0.039125	-0.289223	0.655328	-0.37888	-0.363606	-0.331147	0.294822	1.41928	0.551705	-0.308986	1.33698	0.946224	0.229566	0.580473	1.75522	0.518423	0.090453	1.09436	2.87378	0.703056	0.145653	-0.109905	1.43655	0.237155	0.178169	0.12767	1.39567	-0.788739	0.162493	0.305402	1.23933	
0.702868	4.73022	0	0	-0.360106	-0.0414033	-0.285036	0.652592	-0.377916	-0.366332	-0.334965	0.295353	1.42155	0.545292	-0.308986	1.33698	0.932747	0.225721	0.57476	1.75895	0.507885	0.0806483	1.07556	2.87438	0.710839	0.140568	-0.120498	1.43727	0.24099	0.167331	0.1184	1.39218	-0.799777	0.16476	0.304371	1.23288	
0.702258	4.73175	0	0	-0.363606	-0.0436815	-0.280849	0.649857	-0.376951	-0.369057	-0.338783	0.295884	1.42382	0.538878	-0.308986	1.33698	0.919269	0.221876	0.569047	1.76268	0.497347	0.0708435	1.05676	2.87497	0.718621	0.135483	-0.13109	1.43799	0.244825	0.156493	0.109129	1.38868	-0.810815	0.167026	0.303339	1.22643	
0.70147	4.73328	0	0	-0.367106	-0.0459598	-0.276663	0.647121	-0.375987	-0.371783	-0.342601	0.296416	1.42609	0.532465	-0.308986	1.33698	0.905792	0.218032	0.563334	1.76642	0.486809	0.0610388	1.03796	2.87556	0.726403	0.130397	-0.141682	1.43871	0.24866	0.145655	0.0998585	1.38518	-0.821854	0.169293	0.302308	1.21997	
0.700828	4.7348	0	0	-0.370606	-0.048238	-0.272476	0.644385	-0.375022	-0.374509	-0.346419	0.296947	1.42836	0.526051	-0.308986	1.33698	0.892315	0.214187	0.557621	1.77015	0.476271	0.051234	1.01916	2.87615	0.734186	0.125312	-0.152275	1.43943	0.252495	0.134817	0.090588	1.38168	-0.832892	0.17156	0.301277	1.21352	
0.700654	4.73022	0	0	-0.376551	-0.0557528	-0.279864	0.637988	-0.379062	-0.38652	-0.35806	0.288865	1.4215	0.518221	-0.315565	1.33741	0.884123	0.209436	0.54873	1.77048	0.473493	0.0459085	1.0147	2.87128	0.732739	0.129402	-0.15899	1.44382	0.250578	0.140234	0.091467	1.3792	-0.828456	0.168661	0.300457	1.21584	
0.701269	4.73328	0	0	-0.382495	-0.0632675	-0.287252	0.63159	-0.383102	-0.39853	-0.3697	0.280782	1.41464	0.510391	-0.322145	1.33785	0.87593	0.204684	0.53984	1.7708	0.470715	0.040583	1.01024	2.86641	0.731291	0.133492	-0.165706	1.44821	0.248661	0.145652	0.092346	1.37671	-0.82402	0.165763	0.299638	1.21816	
0.702784	4.7287	0	0	-0.38844	-0.0707823	-0.29464	0.625193	-0.387142	-0.41054	-0.381341	0.272699	1.40778	0.502561	-0.328724	1.33828	0.867738	0.199933	0.530949	1.77113	0.467937	0.0352575	1.00577	2.86154	0.729844	0.137582	-0.172422	1.45259	0.246744	0.151069	0.093225	1.37423	-0.819584	0.162864	0.298818	1.22047	
0.704936	4.72259	0	0	-0.394385	-0.078297	-0.302028	0.618796	-0.391182	-0.422551	-0.392982	0.264617	1.40093	0.494731	-0.335304	1.33871	0.859546	0.195182	0.522058	1.77145	0.465159	0.029932	1.00131	2.85668	0.728397	0.141672	-0.179137	1.45698	0.244827	0.156487	0.094104	1.37175	-0.815148	0.159966	0.297998	1.22279	
0.707424	4.72565	0	0	-0.391241	-0.0871818	-0.30683	0.605131	-0.395223	-0.43453	-0.391386	0.249876	1.39859	0.474151	-0.344889	1.32953	0.856615	0.189528	0.521398	1.76093	0.461287	0.0277053	0.988822	2.85706	0.717179	0.139573	-0.186851	1.44964	0.240954	0.154853	0.0867607	1.37273	-0.818825	0.160721	0.290202	1.2261	
0.709945	4.71954	0	0	-0.388097	-0.0960665	-0.311632	0.591467	-0.399264	-0.446508	-0.38979	0.235135	1.39626	0.45357	-0.354475	1.32034	0.853684	0.183875	0.520738	1.75041	0.457416	0.0254785	0.976332	2.85745	0.70596	0.137475	-0.194566	1.44229	0.23708	0.153219	0.0794175	1.37371	-0.822503	0.161476	0.282407	1.22942	
0.712199	4.71649	0	0	-0.384954	-0.104951	-0.316435	0.577802	-0.403305	-0.458487	-0.388194	0.220394	1.39393	0.43299	-0.36406	1.31116	0.850754	0.178222	0.520079	1.73988	0.453545	0.0232517	0.963843	2.85783	0.694742	0.135377	-0.20228	1.43494	0.233207	0.151585	0.0720742	1.37469	-0.82618	0.162231	0.274611	1.23273	
0.71389	4.71496	0	0	-0.38181	-0.113836	-0.321237	0.564137	-0.407346	-0.470465	-0.386598	0.205653	1.3916	0.41241	-0.373645	1.30198	0.847823	0.172568	0.519419	1.72936	0.449673	0.021025	0.951353	2.85822	0.683524	0.133278	-0.209994	1.42759	0.229334	0.149951	0.064731	1.37567	-0.829858	0.162986	0.266815	1.23604	
0.714835	4.71039	0	0	-0.38181	-0.113836	-0.317919	0.563834	-0.399084	-0.48212	-0.381889	0.202576	1.39498	0.402846	-0.370096	1.29195	0.843734	0.170199	0.518159	1.73292	0.450767	0.0179332	0.946905	2.85336	0.691299	0.128197	-0.207147	1.41955	0.232207	0.141831	0.058274	1.37417	-0.837207	0.164493	0.269273	1.2291	
0.714942	4.71039	0	0	-0.38181	-0.113836	-0.314601	0.56353	-0.390821	-0.493775	-0.377181	0.199499	1.39837	0.393283	-0.366548	1.28192	0.839645	0.16783	0.516899	1.73648	0.451861	0.0148415	0.942457	2.8485	0.699075	0.123117	-0.2043	1.4115	0.23508	0.133711	0.051817	1.37266	-0.844556	0.166	0.27173	1.22215	
0.714122	4.70734	0	0	-0.38181	-0.113836	-0.311282	0.563227	-0.382559	-0.505429	-0.372472	0.196422	1.40175	0.383719	-0.362999	1.27189	0.835555	0.165461	0.51564	1.74004	0.452955	0.0117497	0.938008	2.84364	0.706851	0.118036	-0.201453	1.40346	0.237953	0.125591	0.04536	1.37116	-0.851904	0.167508	0.274187	1.21521	
0.712285	4.70428	0	0	-0.38181	-0.113836	-0.307964	0.562924	-0.374297	-0.517084	-0.367763	0.193345	1.40513	0.374156	-0.35945	1.26186	0.831466	0.163092	0.51438	1.7436	0.454049	0.008658	0.93356	2.83878	0.714626	0.112955	-0.198606	1.39541	0.240826	0.117471	0.038903	1.36966	-0.859253	0.169015	0.276645	1.20826	
0.709344	4.69513	0	0	-0.38181	-0.113836	-0.308941	0.574762	-0.378721	-0.516277	-0.373372	0.198965	1.40401	0.377343	-0.364775	1.27691	0.829146	0.169649	0.519481	1.75397	0.447993	0.0126152	0.928196	2.85393	0.710286	0.125219	-0.202877	1.40748	0.243743	0.121807	0.046238	1.36868	-0.854822	0.16612	0.276645	1.20826	
0.705277	4.6936	0	0	-0.38181	-0.113836	-0.309917	0.5866	-0.383145	-0.51547	-0.37898	0.204585	1.40288	0.380529	-0.370099	1.29196	0.826826	0.176206	0.524582	1.76434	0.441937	0.0165725	0.922833	2.86909	0.705947	0.137484	-0.207149	1.41955	0.246661	0.126144	0.053573	1.3677	-0.850391	0.163224	0.276645	1.20826	
0.700435	4.69055	0	0	-0.38181	-0.113836	-0.310893	0.598439	-0.387569	-0.514664	-0.384589	0.210206	1.40175	0.383716	-0.375423	1.30701	0.824506	0.182763	0.529683	1.7747	0.435881	0.0205297	0.917469	2.88425	0.701607	0.149749	-0.21142	1.43163	0.249578	0.13048	0.060908	1.36672	-0.845959	0.160328	0.276645	1.20826	
0.695291	4.68597	0	0	-0.38181	-0.113836	-0.31187	0.610277	-0.391993	-0.513857	-0.390198	0.215826	1.40062	0.386903	-0.380748	1.32205	0.822186	0.18932	0.534784	1.78507	0.429825	0.024487	0.912106	2.89941	0.697267	0.162013	-0.215691	1.4437	0.252495	0.134817	0.068243	1.36574	-0.841528	0.157433	0.276645	1.20826	
0.690319	4.68292	0	0	-0.386709	-0.124276	-0.306715	0.595708	-0.38971	-0.531998	-0.387712	0.198575	1.40114	0.371881	-0.381986	1.30744	0.824506	0.182763	0.531602	1.78167	0.429825	0.024487	0.902301	2.9097	0.697267	0.162013	-0.222391	1.44807	0.24866	0.145655	0.065608	1.37319	-0.838611	0.158821	0.280133	1.20776	
0.685991	4.67987	0	0	-0.391607	-0.134716	-0.30156	0.58114	-0.387427	-0.55014	-0.385227	0.181325	1.40165	0.356859	-0.383223	1.29283	0.826826	0.176206	0.528421	1.77826	0.429825	0.024487	0.892495	2.92	0.697267	0.162013	-0.229091	1.45245	0.244825	0.156493	0.062973	1.38064	-0.835693	0.16021	0.28362	1.20726	
0.682771	4.67529	0	0	-0.396505	-0.145155	-0.296405	0.566572	-0.385143	-0.568281	-0.382741	0.164075	1.40216	0.341838	-0.384461	1.27822	0.829146	0.169649	0.52524	1.77486	0.429825	0.024487	0.88269	2.9303	0.697267	0.162013	-0.235791	1.45683	0.24099	0.167331	0.060338	1.38808	-0.832776	0.161598	0.287108	1.20676	
0.680812	4.67224	0	0	-0.401404	-0.155595	-0.29125	0.552003	-0.38286	-0.586422	-0.380255	0.146824	1.40268	0.326816	-0.385699	1.26361	0.831466	0.163092	0.522058	1.77145	0.429825	0.024487	0.872885	2.94059	0.697267	0.162013	-0.242491	1.46121	0.237155	0.178169	0.057703	1.39553	-0.829858	0.162986	0.290596	1.20626	
0.679895	4.66766	0	0	-0.398269	-0.164453	-0.29125	0.552003	-0.379035	-0.597231	-0.382266	0.142287	1.40093	0.318182	-0.380387	1.24859	0.831466	0.163092	0.523319	1.76789	0.42596	0.022261	0.872885	2.94059	0.695819	0.166105	-0.241067	1.45718	0.24099	0.167331	0.061216	1.3856	-0.837207	0.164493	0.292835	1.19058	
0.679778	4.66614	0	0	-0.395135	-0.173312	-0.29125	0.552003	-0.375211	-0.60804	-0.384277	0.13775	1.39919	0.309547	-0.375074	1.23358	0.831466	0.163092	0.524581	1.76432	0.422095	0.020035	0.872885	2.94059	0.694371	0.170197	-0.239642	1.45316	0.244825	0.156493	0.064729	1.37567	-0.844556	0.166	0.295074	1.17489	
0.680223	4.66308	0	0	-0.392	-0.18217	-0.29125	0.552003	-0.371387	-0.618848	-0.386288	0.133214	1.39745	0.300913	-0.369762	1.21857	0.831466	0.163092	0.525842	1.76076	0.41823	0.017809	0.872885	2.94059	0.692924	0.174289	-0.238217	1.44913	0.24866	0.145655	0.068242	1.36575	-0.851904	0.167508	0.297313	1.15921	
0.680987	4.65546	0	0	-0.388866	-0.191028	-0.29125	0.552003	-0.367562	-0.629657	-0.388299	0.128677	1.3957	0.292279	-0.364449	1.20355	0.831466	0.163092	0.527103	1.7572	0.414365	0.015583	0.872885	2.94059	0.691476	0.178381	-0.236793	1.44511	0.252495	0.134817	0.071755	1.35582	-0.859253	0.169015	0.299552	1.14352	
0.68188	4.65393	0	0	-0.391318	-0.19623	-0.290505	0.558981	-0.371028	-0.631543	-0.393	0.131749	1.38834	0.299531	-0.359655	1.20811	0.823902	0.170555	0.530285	1.7606	0.40941	0.016446	0.866667	2.94077	0.69781	0.17739	-0.240641	1.44144	0.254411	0.129403	0.0707175	1.34887	-0.862167	0.167626	0.300148	1.13248	
0.682926	4.65546	0	0	-0.393769	-0.201431	-0.28976	0.565959	-0.374494	-0.63343	-0.397701	0.134821	1.38098	0.306782	-0.354861	1.21267	0.816337	0.178017	0.533468	1.764	0.404455	0.017309	0.860449	2.94094	0.704144	0.176398	-0.244488	1.43776	0.256327	0.123989	0.06968	1.34193	-0.86508	0.166237	0.300744	1.12145	
0.684205	4.65088	0	0	-0.396221	-0.206632	-0.289015	0.572937	-0.377959	-0.635316	-0.402402	0.137892	1.37362	0.314033	-0.350066	1.21723	0.808773	0.18548	0.536651	1.7674	0.399501	0.018172	0.854231	2.94111	0.710478	0.175406	-0.248336	1.43409	0.258242	0.118575	0.0686425	1.33498	-0.867993	0.164847	0.30134	1.11041	
0.685793	4.6463	0	0	-0.398673	-0.211834	-0.28827	0.579915	-0.381425	-0.637202	-0.407103	0.140964	1.36626	0.321285	-0.345272	1.22179	0.801209	0.192943	0.539833	1.7708	0.394546	0.019035	0.848013	2.94129	0.716812	0.174415	-0.252184	1.43042	0.260158	0.113161	0.067605	1.32803	-0.870907	0.163458	0.301936	1.09937	
0.687772	4.64172	0	0	-0.404616	-0.219275	-0.287299	0.568086	-0.382026	-0.647176	-0.409328	0.12684	1.36626	0.321285	-0.351836	1.22223	0.795969	0.193847	0.529687	1.77469	0.38574	0.0176707	0.841801	2.94146	0.721703	0.177518	-0.250762	1.4264	0.257284	0.121283	0.0730283	1.32258	-0.869392	0.159177	0.304383	1.09246	
0.690213	4.6402	0	0	-0.410558	-0.226716	-0.286327	0.556257	-0.382628	-0.657149	-0.411553	0.112716	1.36626	0.321285	-0.358401	1.22268	0.790729	0.194751	0.519542	1.77858	0.376934	0.0163065	0.835589	2.94163	0.726593	0.180621	-0.249339	1.42238	0.25441	0.129406	0.0784515	1.31714	-0.867877	0.154896	0.306831	1.08554	
0.693047	4.63867	0	0	-0.416501	-0.234157	-0.285356	0.544428	-0.38323	-0.667123	-0.413778	0.0985928	1.36626	0.321285	-0.364965	1.22312	0.785489	0.195655	0.509397	1.78247	0.368127	0.0149423	0.829378	2.94181	0.731483	0.183725	-0.247916	1.41836	0.251536	0.137528	0.0838747	1.31169	-0.866363	0.150615	0.309278	1.07862	
0.696048	4.6402	0	0	-0.422444	-0.241598	-0.284384	0.532599	-0.383831	-0.677096	-0.416003	0.084469	1.36626	0.321285	-0.371529	1.22356	0.780249	0.196559	0.499251	1.78635	0.359321	0.013578	0.823166	2.94198	0.736374	0.186828	-0.246494	1.41434	0.248662	0.14565	0.089298	1.30624	-0.864848	0.146334	0.311725	1.07171	
0.698984	4.64325	0	0	-0.423852	-0.249723	-0.291663	0.51688	-0.380972	-0.685177	-0.408622	0.073814	1.36228	0.319005	-0.376317	1.219	0.773854	0.200738	0.496075	1.78295	0.350529	0.012212	0.812548	2.93727	0.737824	0.18273	-0.2475	1.40265	0.24962	0.142942	0.08196	1.30723	-0.872185	0.147838	0.310683	1.0653	
0.701621	4.64325	0	0	-0.425261	-0.257848	-0.298941	0.50116	-0.378112	-0.693258	-0.401242	0.063159	1.35829	0.316726	-0.381105	1.21444	0.767459	0.204916	0.492899	1.77955	0.341736	0.010846	0.80193	2.93256	0.739273	0.178633	-0.248506	1.39096	0.250579	0.140234	0.074622	1.30821	-0.879522	0.149342	0.309641	1.0589	
0.703728	4.64477	0	0	-0.42667	-0.265974	-0.306219	0.48544	-0.375253	-0.701338	-0.393862	0.052504	1.35431	0.314446	-0.385893	1.20988	0.761064	0.209094	0.489724	1.77614	0.332944	0.00948	0.791312	2.92785	0.740723	0.174536	-0.249512	1.37927	0.251537	0.137525	0.067284	1.3092	-0.886859	0.150847	0.308599	1.0525	
0.705128	4.64783	0	0	-0.428078	-0.274099	-0.313498	0.469721	-0.372394	-0.709419	-0.386481	0.041849	1.35032	0.312167	-0.390681	1.20532	0.754669	0.213273	0.486548	1.77274	0.324151	0.008114	0.780694	2.92314	0.742173	0.170438	-0.250518	1.36758	0.252495	0.134817	0.059946	1.31019	-0.894196	0.152351	0.307557	1.0461	
0.706018	4.65546	0	0	-0.423546	-0.2748	-0.307718	0.471523	-0.369881	-0.704849	-0.384467	0.0463655	1.35257	0.30582	-0.382354	1.19988	0.755829	0.209996	0.493506	1.76545	0.326331	0.00195275	0.779849	2.9082	0.746519	0.158157	-0.251529	1.35591	0.256325	0.123992	0.0643232	1.29781	-0.898618	0.155241	0.306282	1.03102	
0.706746	4.66003	0	0	-0.419015	-0.2755	-0.301938	0.473324	-0.367367	-0.700279	-0.382453	0.050882	1.35481	0.299472	-0.374028	1.19444	0.756988	0.20672	0.500464	1.75817	0.328512	-0.0042085	0.779004	2.89325	0.750865	0.145875	-0.25254	1.34424	0.260155	0.113167	0.0687005	1.28544	-0.90304	0.158131	0.305007	1.01594	
0.707658	4.67071	0	0	-0.414484	-0.276201	-0.296159	0.475125	-0.364853	-0.695709	-0.380439	0.0553985	1.35706	0.293125	-0.365701	1.189	0.758147	0.203443	0.507422	1.75088	0.330692	-0.0103698	0.77816	2.8783	0.75521	0.133594	-0.253551	1.33258	0.263986	0.102342	0.0730777	1.27307	-0.907463	0.16102	0.303732	1.00086	
0.709102	4.67071	0	0	-0.409952	-0.276902	-0.290379	0.476927	-0.36234	-0.691139	-0.378425	0.059915	1.35931	0.286778	-0.357374	1.18356	0.759307	0.200166	0.51438	1.7436	0.332872	-0.016531	0.777315	2.86336	0.759556	0.121312	-0.254562	1.32091	0.267816	0.091517	0.077455	1.2607	-0.911885	0.16391	0.302457	0.985783	
0.711423	4.6814	0	0	-0.413075	-0.268076	-0.290597	0.495696	-0.358266	-0.679283	-0.3791	0.0720355	1.36105	0.295405	-0.354349	1.19312	0.750598	0.210896	0.510598	1.75429	0.327935	-0.0156722	0.771125	2.86353	0.761003	0.117222	-0.261241	1.32528	0.260111	0.100711	0.0819992	1.25773	-0.907463	0.16102	0.298161	0.98859	
0.714715	4.6936	0	0	-0.416198	-0.25925	-0.290814	0.514465	-0.354191	-0.667428	-0.379774	0.084156	1.36278	0.304032	-0.351323	1.20268	0.741888	0.221627	0.506815	1.76498	0.322998	-0.0148135	0.764935	2.86371	0.762451	0.113132	-0.26792	1.32964	0.252406	0.109905	0.0865435	1.25476	-0.90304	0.158131	0.293865	0.991397	
0.718423	4.70581	0	0	-0.419321	-0.250424	-0.291032	0.533234	-0.350117	-0.655573	-0.380448	0.0962765	1.36452	0.312658	-0.348298	1.21223	0.733178	0.232357	0.503033	1.77567	0.318061	-0.0139548	0.758745	2.86388	0.763898	0.109042	-0.274599	1.33401	0.244702	0.1191	0.0910877	1.25179	-0.898618	0.155241	0.289569	0.994204	
0.721891	4.71954	0	0	-0.422444	-0.241598	-0.29125	0.552003	-0.346043	-0.643717	-0.381123	0.108397	1.36626	0.321285	-0.345272	1.22179	0.724469	0.243087	0.499251	1.78635	0.313124	-0.013096	0.752555	2.86406	0.765345	0.104952	-0.281278	1.33837	0.236997	0.128294	0.095632	1.24883	-0.894196	0.152351	0.285273	0.997011	
0.724462	4.73633	0	0	-0.425933	-0.243842	-0.298523	0.536269	-0.350467	-0.642902	-0.380227	0.105863	1.35891	0.328535	-0.347044	1.2268	0.729699	0.242191	0.493553	1.79008	0.30928	-0.0153157	0.746371	2.86423	0.757555	0.110042	-0.281278	1.33837	0.237996	0.138052	0.0994737	1.25773	-0.887616	0.152987	0.288987	1.00519	
0.725479	4.75159	0	0	-0.429423	-0.246086	-0.305797	0.520535	-0.354892	-0.642087	-0.37933	0.103329	1.35155	0.335785	-0.348816	1.23181	0.734929	0.241294	0.487855	1.7938	0.305435	-0.0175355	0.740188	2.86441	0.749766	0.115132	-0.281278	1.33837	0.238994	0.14781	0.103316	1.26663	-0.881037	0.153623	0.292701	1.01337	
0.724298	4.76684	0	0	-0.432913	-0.248331	-0.31307	0.504801	-0.359316	-0.641272	-0.378433	0.100796	1.34419	0.343035	-0.350587	1.23682	0.740159	0.240397	0.482158	1.79752	0.301591	-0.0197553	0.734005	2.86458	0.741976	0.120222	-0.281278	1.33837	0.239993	0.157568	0.107157	1.27554	-0.874457	0.154259	0.296414	1.02154	
0.720821	4.7821	0	0	-0.436402	-0.250575	-0.320343	0.489067	-0.36374	-0.640457	-0.377537	0.098262	1.33684	0.350285	-0.352359	1.24182	0.745389	0.239501	0.47646	1.80125	0.297747	-0.021975	0.727821	2.86475	0.734186	0.125312	-0.281278	1.33837	0.240992	0.167326	0.110999	1.28444	-0.867877	0.154895	0.300128	1.02972	
0.715769	4.78973	0	0	-0.437443	-0.247633	-0.321947	0.484538	-0.360272	-0.638571	-0.369024	0.0946473	1.33796	0.347108	-0.360694	1.24727	0.745389	0.239501	0.483419	1.79396	0.294993	-0.027267	0.725199	2.85488	0.73363	0.109975	-0.283703	1.33072	0.239036	0.160275	0.113627	1.27701	-0.871547	0.155647	0.299084	1.02333	
0.709923	4.79584	0	0	-0.438484	-0.244691	-0.323551	0.480009	-0.356803	-0.636686	-0.36051	0.0910325	1.33908	0.34393	-0.369029	1.25272	0.745389	0.239501	0.490378	1.78667	0.292239	-0.032559	0.722576	2.845	0.733073	0.0946385	-0.286129	1.32308	0.237079	0.153224	0.116255	1.26959	-0.875216	0.156399	0.298041	1.01694	
0.704067	4.80194	0	0	-0.439525	-0.241749	-0.325155	0.475481	-0.353334	-0.6348	-0.351996	0.0874178	1.34021	0.340753	-0.377364	1.25816	0.745389	0.239501	0.497337	1.77938	0.289485	-0.037851	0.719954	2.83513	0.732517	0.0793018	-0.288554	1.31543	0.235123	0.146172	0.118883	1.26216	-0.878885	0.157152	0.296997	1.01055	
0.698985	4.80041	0	0	-0.440566	-0.238807	-0.326759	0.470952	-0.349866	-0.632914	-0.343483	0.083803	1.34133	0.337575	-0.385699	1.26361	0.745389	0.239501	0.504296	1.7721	0.286731	-0.043143	0.717331	2.82526	0.731961	0.063965	-0.29098	1.30779	0.233166	0.139121	0.121511	1.25473	-0.882555	0.157904	0.295953	1.00416	
0.695371	4.80347	0	0	-0.443691	-0.229975	-0.317771	0.481823	-0.349266	-0.622915	-0.343261	0.093406	1.33908	0.343931	-0.380911	1.26818	0.740159	0.240397	0.501773	1.77923	0.282892	-0.0453578	0.712933	2.82042	0.728513	0.0568147	-0.288151	1.29979	0.229295	0.137489	0.127813	1.24681	-0.882555	0.157904	0.29247	1.00467	
0.693188	4.80194	0	0	-0.446817	-0.221143	-0.308783	0.492694	-0.348666	-0.612915	-0.343039	0.103009	1.33684	0.350287	-0.376123	1.27276	0.734929	0.241294	0.49925	1.78636	0.279052	-0.0475725	0.708535	2.81557	0.725065	0.0496645	-0.285322	1.2918	0.225423	0.135858	0.134115	1.23889	-0.882555	0.157904	0.288988	1.00518	
0.692043	4.79889	0	0	-0.449942	-0.212311	-0.299795	0.503564	-0.348065	-0.602915	-0.342817	0.112612	1.33459	0.356644	-0.371334	1.27734	0.729699	0.242191	0.496727	1.79349	0.275212	-0.0497872	0.704137	2.81073	0.721618	0.0425142	-0.282493	1.2838	0.221552	0.134226	0.140417	1.23097	-0.882555	0.157904	0.285505	1.00569	
0.691538	4.79431	0	0	-0.453067	-0.203479	-0.290807	0.514435	-0.347465	-0.592916	-0.342595	0.122215	1.33234	0.363	-0.366546	1.28191	0.724469	0.243087	0.494204	1.80062	0.271373	-0.052002	0.699739	2.80589	0.71817	0.035364	-0.279664	1.27581	0.217681	0.132595	0.146719	1.22305	-0.882555	0.157904	0.282022	1.0062	
0.691278	4.78973	0	0	-0.454469	-0.211614	-0.307275	0.506594	-0.355357	-0.593996	-0.343714	0.115146	1.33009	0.369361	-0.376655	1.29238	0.723309	0.246366	0.491679	1.80775	0.274631	-0.0612103	0.690023	2.8161	0.716728	0.039439	-0.282493	1.2838	0.21385	0.143423	0.148646	1.2275	-0.874456	0.154258	0.282251	1.01489	
0.690867	4.78363	0	0	-0.455871	-0.21975	-0.323742	0.498752	-0.363249	-0.595076	-0.344832	0.108078	1.32784	0.375721	-0.386765	1.30284	0.722149	0.249645	0.489154	1.81489	0.27789	-0.0704185	0.680307	2.8263	0.715286	0.043514	-0.285322	1.2918	0.210018	0.154251	0.150573	1.23194	-0.866358	0.150612	0.282479	1.02358	
0.690084	4.77753	0	0	-0.457274	-0.227886	-0.34021	0.490911	-0.371141	-0.596156	-0.345951	0.10101	1.32558	0.382082	-0.396875	1.3133	0.720988	0.252924	0.48663	1.82203	0.281148	-0.0796267	0.670591	2.83651	0.713844	0.047589	-0.288151	1.29979	0.206186	0.16508	0.152501	1.23639	-0.858259	0.146965	0.282708	1.03226	
0.689053	4.77142	0	0	-0.458676	-0.236021	-0.356678	0.48307	-0.379033	-0.597236	-0.34707	0.093941	1.32333	0.388443	-0.406984	1.32376	0.719828	0.256203	0.484105	1.82916	0.284406	-0.088835	0.660875	2.84671	0.712402	0.051664	-0.29098	1.30779	0.202355	0.175908	0.154428	1.24084	-0.850161	0.143319	0.282936	1.04095	
0.68794	4.76379	0	0	-0.46008	-0.244143	-0.356571	0.473718	-0.379631	-0.607228	-0.343484	0.083807	1.32161	0.379795	-0.401663	1.30872	0.712859	0.248161	0.482194	1.82218	0.275646	-0.0901832	0.65649	2.84187	0.699755	0.0536633	-0.29482	1.30415	0.198489	0.17427	0.156179	1.23589	-0.862684	0.149856	0.280268	1.03916	
0.686912	4.75464	0	0	-0.461484	-0.252266	-0.356463	0.464366	-0.380229	-0.617219	-0.339898	0.073673	1.31988	0.371147	-0.396342	1.29369	0.70589	0.24012	0.480283	1.8152	0.266887	-0.0915315	0.652104	2.83702	0.687109	0.0556625	-0.298659	1.30051	0.194623	0.172633	0.157931	1.23094	-0.875207	0.156394	0.277599	1.03737	
0.686135	4.75006	0	0	-0.462888	-0.260388	-0.356355	0.455014	-0.380827	-0.627211	-0.336313	0.063539	1.31815	0.3625	-0.39102	1.27865	0.698921	0.232078	0.478371	1.80823	0.258127	-0.0928798	0.647719	2.83218	0.674462	0.0576617	-0.302499	1.29688	0.190757	0.170996	0.159682	1.22599	-0.88773	0.162931	0.274931	1.03557	
0.685764	4.73938	0	0	-0.464292	-0.26851	-0.356248	0.445662	-0.381425	-0.637202	-0.332727	0.053405	1.31642	0.353852	-0.385699	1.26361	0.691952	0.224036	0.47646	1.80125	0.249367	-0.094228	0.643334	2.82733	0.661816	0.059661	-0.306338	1.29324	0.186891	0.169358	0.161433	1.22104	-0.900253	0.169468	0.272263	1.03378	
0.685869	4.7348	0	0	-0.466736	-0.273685	-0.350376	0.438116	-0.38047	-0.6399	-0.330936	0.0483423	1.31755	0.350676	-0.390483	1.25904	0.690206	0.215117	0.477721	1.79768	0.242787	-0.101699	0.645107	2.82232	0.671018	0.050518	-0.303512	1.28525	0.188806	0.163946	0.159504	1.2166	-0.916414	0.176738	0.278998	1.02408	
0.686476	4.7287	0	0	-0.469181	-0.27886	-0.344504	0.43057	-0.379515	-0.642599	-0.329145	0.0432795	1.31867	0.347499	-0.395267	1.25447	0.68846	0.206198	0.478982	1.79412	0.236206	-0.10917	0.64688	2.81731	0.68022	0.041375	-0.300685	1.27726	0.190721	0.158533	0.157575	1.21215	-0.932575	0.184009	0.285734	1.01438	
0.687609	4.72107	0	0	-0.471625	-0.284035	-0.338633	0.423025	-0.37856	-0.645298	-0.327353	0.0382168	1.31979	0.344322	-0.400052	1.24989	0.686714	0.197279	0.480244	1.79055	0.229625	-0.116641	0.648652	2.8123	0.689422	0.032232	-0.297859	1.26927	0.192636	0.15312	0.155647	1.20771	-0.948736	0.191279	0.292469	1.00467	
0.689295	4.71954	0	0	-0.474069	-0.28921	-0.332761	0.415479	-0.377605	-0.647996	-0.325562	0.033154	1.32092	0.341146	-0.404836	1.24532	0.684968	0.18836	0.481505	1.78699	0.223045	-0.124112	0.650425	2.80729	0.698624	0.023089	-0.295033	1.26129	0.194551	0.147708	0.153718	1.20327	-0.964897	0.198549	0.299205	0.994972	
0.691558	4.71649	0	0	-0.484506	-0.295915	-0.344291	0.411897	-0.379162	-0.655271	-0.327583	0.0286405	1.32377	0.34661	-0.408378	1.25534	0.682065	0.182722	0.489119	1.79024	0.21431	-0.125457	0.654812	2.81213	0.700626	0.0343097	-0.297859	1.26927	0.198418	0.149342	0.161953	1.19979	-0.960481	0.195664	0.301877	0.99676	
0.694352	4.70886	0	0	-0.494943	-0.302619	-0.35582	0.408315	-0.380718	-0.662546	-0.329604	0.024127	1.32663	0.352073	-0.411921	1.26535	0.679162	0.177084	0.496734	1.79349	0.205575	-0.126802	0.659199	2.81697	0.702628	0.0455305	-0.300685	1.27726	0.202286	0.150977	0.170188	1.19631	-0.956066	0.192779	0.304548	0.998548	
0.697489	4.70428	0	0	-0.505381	-0.309323	-0.36735	0.404732	-0.382274	-0.669821	-0.331625	0.0196135	1.32948	0.357536	-0.415463	1.27536	0.676259	0.171446	0.504348	1.79674	0.19684	-0.128147	0.663587	2.82181	0.70463	0.0567513	-0.303512	1.28525	0.206154	0.152611	0.178424	1.19283	-0.951651	0.189893	0.30722	1.00034	
0.700758	4.69818	0	0	-0.515818	-0.316028	-0.37888	0.40115	-0.383831	-0.677096	-0.333646	0.0151	1.33234	0.363	-0.419006	1.28537	0.673356	0.165808	0.511962	1.79998	0.188105	-0.129492	0.667974	2.82665	0.706632	0.067972	-0.306338	1.29324	0.210021	0.154245	0.186659	1.18935	-0.947235	0.187008	0.309892	1.00212	
0.703952	4.6936	0	0	-0.516187	-0.327037	-0.376228	0.384624	-0.384436	-0.687051	-0.332093	0.00049175	1.33285	0.348014	-0.428554	1.27622	0.661195	0.158708	0.510046	1.79301	0.183202	-0.128637	0.661814	2.82682	0.708631	0.0792178	-0.309167	1.30123	0.205228	0.167791	0.183158	1.19924	-0.944332	0.1884	0.311751	1.00621	
0.706863	4.69513	0	0	-0.516556	-0.338045	-0.373576	0.368098	-0.385042	-0.697007	-0.330541	-0.0141165	1.33337	0.333028	-0.438103	1.26708	0.649035	0.151609	0.508129	1.78604	0.178299	-0.127783	0.655654	2.82699	0.710629	0.0904635	-0.311996	1.30923	0.200435	0.181336	0.179656	1.20914	-0.941428	0.189793	0.313611	1.0103	
0.709291	4.69208	0	0	-0.516925	-0.349054	-0.370923	0.351573	-0.385648	-0.706962	-0.328988	-0.0287248	1.33388	0.318042	-0.447651	1.25793	0.636875	0.144509	0.506212	1.77907	0.173396	-0.126928	0.649494	2.82716	0.712627	0.101709	-0.314825	1.31722	0.195642	0.194881	0.176154	1.21903	-0.938524	0.191186	0.31547	1.01439	
0.711201	4.68902	0	0	-0.517294	-0.360063	-0.368271	0.335047	-0.386253	-0.716917	-0.327435	-0.043333	1.3344	0.303056	-0.457199	1.24879	0.624714	0.137409	0.504296	1.7721	0.168493	-0.126074	0.643334	2.82733	0.714626	0.112955	-0.317654	1.32522	0.190849	0.208427	0.172653	1.22893	-0.935621	0.192578	0.317329	1.01848	
0.712701	4.68597	0	0	-0.514192	-0.368831	-0.365722	0.327842	-0.383398	-0.724986	-0.32565	-0.0483785	1.33154	0.29761	-0.460201	1.23923	0.620667	0.135046	0.501119	1.7687	0.168493	-0.126074	0.64156	2.83235	0.719516	0.116044	-0.324317	1.32957	0.186984	0.206785	0.169848	1.22696	-0.939281	0.193325	0.318957	1.01388	
0.713901	4.68445	0	0	-0.511089	-0.377599	-0.363172	0.320637	-0.380543	-0.733054	-0.323864	-0.053424	1.32868	0.292164	-0.463203	1.22968	0.616619	0.132682	0.497942	1.76529	0.168493	-0.126074	0.639787	2.83736	0.724406	0.119134	-0.330981	1.33393	0.18312	0.205143	0.167043	1.22498	-0.942942	0.194072	0.320584	1.00928	
0.714911	4.68597	0	0	-0.507987	-0.386368	-0.360622	0.313432	-0.377688	-0.741123	-0.322079	-0.0584695	1.32582	0.286718	-0.466205	1.22012	0.612571	0.130319	0.494765	1.76189	0.168493	-0.126074	0.638013	2.84237	0.729296	0.122223	-0.337645	1.33828	0.179255	0.2035	0.164238	1.22301	-0.946603	0.194819	0.322211	1.00468	
0.715843	4.6875	0	0	-0.504884	-0.395136	-0.358073	0.306227	-0.374833	-0.749192	-0.320294	-0.063515	1.32297	0.281272	-0.469207	1.21057	0.608524	0.127956	0.491588	1.75849	0.168493	-0.126074	0.636239	2.84739	0.734186	0.125312	-0.344308	1.34263	0.175391	0.201858	0.161433	1.22104	-0.950263	0.195566	0.323839	1.00008	
0.716805	4.6875	0	0	-0.505918	-0.392214	-0.358923	0.308628	-0.370415	-0.750012	-0.316243	-0.0545185	1.32582	0.286718	-0.457894	1.21469	0.612571	0.130319	0.494156	1.776	0.173396	-0.126928	0.645009	2.85709	0.737632	0.132498	-0.336641	1.34993	0.180215	0.20079	0.164238	1.22301	-0.945846	0.192679	0.327328	0.999568	
0.717887	4.68597	0	0	-0.506951	-0.389292	-0.359772	0.311029	-0.365997	-0.750831	-0.312192	-0.045522	1.32868	0.292164	-0.446581	1.21881	0.616619	0.132682	0.496723	1.79352	0.178299	-0.127783	0.653779	2.8668	0.741078	0.139684	-0.328975	1.35724	0.185038	0.199721	0.167043	1.22498	-0.941428	0.189792	0.330816	0.999057	
0.719172	4.68902	0	0	-0.507985	-0.386371	-0.360622	0.31343	-0.361579	-0.751651	-0.308141	-0.0365255	1.33154	0.29761	-0.435269	1.22294	0.620667	0.135046	0.499291	1.81103	0.183202	-0.128637	0.662549	2.87651	0.744524	0.146869	-0.321308	1.36454	0.189862	0.198653	0.169848	1.22696	-0.93701	0.186906	0.334305	0.998545	
0.720745	4.68902	0	0	-0.509019	-0.383449	-0.361472	0.315831	-0.357161	-0.752471	-0.30409	-0.027529	1.3344	0.303056	-0.423956	1.22706	0.624714	0.137409	0.501858	1.82854	0.188105	-0.129492	0.671319	2.88621	0.74797	0.154055	-0.313642	1.37184	0.194686	0.197584	0.172653	1.22893	-0.932593	0.184019	0.337794	0.998033	
0.722688	4.69208	0	0	-0.507985	-0.386371	-0.369878	0.33056	-0.361579	-0.751651	-0.308796	-0.024454	1.33215	0.309403	-0.429265	1.24207	0.623561	0.140668	0.50124	1.84268	0.183776	-0.117258	0.672146	2.90115	0.753412	0.17257	-0.319318	1.38788	0.193752	0.212796	0.17388	1.24527	-0.929688	0.185411	0.342333	1.00391	
0.725085	4.68902	0	0	-0.506951	-0.389292	-0.378283	0.34529	-0.365997	-0.750831	-0.313503	-0.021379	1.3299	0.31575	-0.434575	1.25707	0.622408	0.143927	0.500622	1.85683	0.179447	-0.105024	0.672974	2.91608	0.758854	0.191086	-0.324993	1.40392	0.192818	0.228008	0.175108	1.26162	-0.926782	0.186804	0.346873	1.00979	
0.727912	4.68902	0	0	-0.505918	-0.392214	-0.386688	0.360019	-0.370415	-0.750012	-0.318209	-0.018304	1.32766	0.322098	-0.439885	1.27208	0.621254	0.147185	0.500003	1.87097	0.175119	-0.0927908	0.673801	2.93101	0.764297	0.209601	-0.330669	1.41996	0.191884	0.243219	0.176336	1.27797	-0.923876	0.188196	0.351413	1.01567	
0.730764	4.6875	0	0	-0.504884	-0.395136	-0.395094	0.374748	-0.374833	-0.749192	-0.322915	-0.015229	1.32541	0.328445	-0.445194	1.28709	0.620101	0.150444	0.499385	1.88512	0.17079	-0.080557	0.674628	2.94594	0.769739	0.228117	-0.336345	1.436	0.19095	0.258431	0.177563	1.29431	-0.920971	0.189588	0.355952	1.02155	
0.733144	4.68292	0	0	-0.501405	-0.392916	-0.389337	0.376534	-0.380199	-0.745686	-0.317315	-0.02083	1.3248	0.316652	-0.439885	1.27208	0.613749	0.154595	0.507625	1.87423	0.17952	-0.0791995	0.682584	2.94074	0.769739	0.228117	-0.336345	1.436	0.183241	0.267646	0.172124	1.29977	-0.925391	0.192476	0.348156	1.02488	
0.734558	4.67682	5	0	-0.497926	-0.390695	-0.38358	0.378321	-0.385566	-0.742179	-0.311715	-0.026431	1.32419	0.304859	-0.434575	1.25707	0.607397	0.158745	0.515865	1.86335	0.188251	-0.077842	0.69054	2.93554	0.769739	0.228117	-0.336345	1.436	0.175532	0.276861	0.166685	1.30524	-0.929811	0.195364	0.340359	1.0282	
0.73451	4.67682	5	0	-0.494448	-0.388475	-0.377823	0.380107	-0.390932	-0.738672	-0.306115	-0.032032	1.32358	0.293065	-0.429265	1.24207	0.601044	0.162896	0.524106	1.85246	0.196982	-0.0764845	0.698496	2.93034	0.769739	0.228117	-0.336345	1.436	0.167822	0.286075	0.161245	1.3107	-0.934231	0.198252	0.332562	1.03153	
0.732506	4.67224	5	0	-0.490969	-0.386255	-0.372066	0.381893	-0.396298	-0.735166	-0.300515	-0.037633	1.32297	0.281272	-0.423956	1.22706	0.594692	0.167047	0.532346	1.84158	0.205712	-0.075127	0.706452	2.92515	0.769739	0.228117	-0.336345	1.436	0.160113	0.29529	0.155806	1.31616	-0.938651	0.20114	0.324766	1.03485	
0.728395	4.67071	5	0	-0.489559	-0.378181	-0.365551	0.390599	-0.388417	-0.734112	-0.297594	-0.0356573	1.31899	0.278999	-0.422188	1.22207	0.602197	0.159637	0.527902	1.84174	0.208455	-0.0698495	0.704669	2.93018	0.776096	0.227122	-0.334925	1.43199	0.157214	0.290919	0.153881	1.31169	-0.950383	0.205515	0.321047	1.02667	
0.722858	4.66461	5	0	-0.488148	-0.370107	-0.359036	0.399305	-0.380536	-0.733059	-0.294673	-0.0336815	1.31501	0.276726	-0.42042	1.21707	0.609703	0.152228	0.523457	1.84189	0.211198	-0.064572	0.702886	2.93522	0.782453	0.226127	-0.333506	1.42797	0.154315	0.286548	0.151956	1.30723	-0.962114	0.20989	0.317329	1.01849	
0.7167	4.66461	5	0	-0.486738	-0.362033	-0.352521	0.408011	-0.372656	-0.732006	-0.291751	-0.0317057	1.31104	0.274454	-0.418653	1.21208	0.617209	0.144819	0.519012	1.84205	0.213941	-0.0592945	0.701104	2.94026	0.78881	0.225132	-0.332086	1.42396	0.151417	0.282176	0.150031	1.30277	-0.973846	0.214265	0.313611	1.01031	
0.710728	4.65851	5	0	-0.485328	-0.353959	-0.346006	0.416717	-0.364775	-0.730952	-0.28883	-0.02973	1.30706	0.272181	-0.416885	1.20708	0.624714	0.137409	0.514568	1.84221	0.216684	-0.054017	0.699321	2.9453	0.795167	0.224137	-0.330666	1.41995	0.148518	0.277805	0.148106	1.2983	-0.985577	0.21864	0.309892	1.00212	
0.705748	4.65698	5	0	-0.482883	-0.348803	-0.346965	0.428474	-0.372049	-0.72206	-0.294433	-0.0241258	1.30706	0.272181	-0.425196	1.21251	0.622407	0.143928	0.510127	1.84236	0.218341	-0.0456625	0.7055	2.94514	0.792257	0.23236	-0.337334	1.4243	0.138886	0.279925	0.147058	1.29136	-0.988474	0.217244	0.301069	0.999058	
0.702537	4.6524	5	0	-0.480437	-0.343646	-0.347923	0.440231	-0.379324	-0.713169	-0.300036	-0.0185215	1.30706	0.272181	-0.433507	1.21794	0.6201	0.150446	0.505686	1.84252	0.219999	-0.037308	0.71168	2.94498	0.789347	0.240584	-0.344003	1.42866	0.129254	0.282046	0.14601	1.28443	-0.991371	0.215848	0.292245	0.995993	
0.701262	4.64935	5	0	-0.477992	-0.338489	-0.348881	0.451988	-0.386598	-0.704277	-0.30564	-0.0129172	1.30706	0.272181	-0.441817	1.22337	0.617794	0.156965	0.501244	1.84267	0.221657	-0.0289535	0.717859	2.94481	0.786438	0.248808	-0.350672	1.43302	0.119621	0.284166	0.144962	1.27749	-0.994268	0.214452	0.283422	0.992927	
0.701541	4.64325	5	0	-0.475547	-0.333333	-0.34984	0.463745	-0.393872	-0.695385	-0.311243	-0.007313	1.30706	0.272181	-0.450128	1.2288	0.615487	0.163484	0.496803	1.84283	0.223314	-0.020599	0.724038	2.94465	0.783528	0.257031	-0.35734	1.43738	0.109989	0.286286	0.143914	1.27055	-0.997165	0.213056	0.274599	0.989862	
0.702971	4.6402	5	0	-0.481101	-0.329704	-0.354545	0.440876	-0.400793	-0.699137	-0.317077	-0.0112698	1.30023	0.264479	-0.441304	1.20386	0.610288	0.164375	0.492978	1.82887	0.217313	-0.016678	0.716075	2.94985	0.778627	0.253911	-0.362584	1.43772	0.10229	0.282977	0.132888	1.27204	-1.01403	0.222432	0.271931	0.988076	
0.705149	4.63562	5	0	-0.486655	-0.326074	-0.35925	0.418007	-0.407714	-0.70289	-0.322912	-0.0152265	1.29341	0.256777	-0.43248	1.17892	0.60509	0.165266	0.489154	1.81491	0.211312	-0.012757	0.708112	2.95506	0.773726	0.250792	-0.367829	1.43806	0.094591	0.279667	0.121863	1.27354	-1.03089	0.231807	0.269264	0.98629	
0.707673	4.63714	5	0	-0.492209	-0.322445	-0.363955	0.395137	-0.414634	-0.706643	-0.328746	-0.0191832	1.28658	0.249074	-0.423655	1.15398	0.599891	0.166156	0.48533	1.80095	0.205311	-0.008836	0.700148	2.96026	0.768824	0.247672	-0.373073	1.4384	0.086892	0.276358	0.110837	1.27503	-1.04776	0.241182	0.266597	0.984504	
0.71018	4.62952	5	0	-0.497763	-0.318816	-0.36866	0.372268	-0.421555	-0.710395	-0.33458	-0.02314	1.27975	0.241372	-0.414831	1.12905	0.594692	0.167047	0.481505	1.78699	0.19931	-0.004915	0.692185	2.96547	0.763923	0.244552	-0.378317	1.43875	0.079193	0.273049	0.099812	1.27652	-1.06462	0.250558	0.263929	0.982718	
0.712554	4.62952	5	0	-0.491173	-0.325375	-0.373471	0.358785	-0.416801	-0.723831	-0.335709	-0.030162	1.27914	0.229634	-0.417851	1.11954	0.59815	0.157274	0.476419	1.77663	0.19931	-0.004915	0.700148	2.96026	0.76683	0.236336	-0.385958	1.43142	0.0714913	0.257276	0.100341	1.25528	-1.07706	0.25704	0.262651	0.967695	
0.714767	4.62494	5	0	-0.484582	-0.331933	-0.378281	0.345302	-0.412047	-0.737266	-0.336839	-0.037184	1.27852	0.217896	-0.420871	1.11004	0.601608	0.147502	0.471333	1.76627	0.19931	-0.004915	0.708112	2.95506	0.769737	0.228121	-0.393598	1.42409	0.0637895	0.241503	0.10087	1.23403	-1.08949	0.263522	0.261374	0.952671	
0.716791	4.62952	5	0	-0.477992	-0.338492	-0.383092	0.331819	-0.407293	-0.750701	-0.337969	-0.044206	1.2779	0.206159	-0.42389	1.10053	0.605066	0.137729	0.466247	1.7559	0.19931	-0.004915	0.716075	2.94985	0.772644	0.219905	-0.401238	1.41676	0.0560877	0.22573	0.101399	1.21279	-1.10193	0.270004	0.260096	0.937647	
0.718599	4.63257	5	0	-0.471401	-0.345051	-0.387903	0.318336	-0.402539	-0.764137	-0.339098	-0.051228	1.27729	0.194421	-0.42691	1.09103	0.608524	0.127956	0.461161	1.74554	0.19931	-0.004915	0.724038	2.94465	0.775551	0.211689	-0.408879	1.40943	0.048386	0.209957	0.101928	1.19154	-1.11436	0.276486	0.258818	0.922624	
0.720162	4.6463	5	0	-0.476955	-0.341422	-0.388752	0.320736	-0.412304	-0.75982	-0.34112	-0.0557207	1.27952	0.188112	-0.433446	1.09147	0.608524	0.127956	0.459248	1.73859	0.203137	-0.002692	0.711685	2.94497	0.772103	0.204479	-0.412695	1.40578	0.0493205	0.19482	0.0944163	1.18318	-1.12678	0.282955	0.259389	0.911699	
0.721417	4.66614	5	0	-0.482509	-0.337792	-0.389601	0.323137	-0.42207	-0.755502	-0.343143	-0.0602135	1.28175	0.181803	-0.439981	1.09192	0.608524	0.127956	0.457334	1.73165	0.206964	-0.000469	0.699333	2.9453	0.768655	0.197269	-0.416512	1.40212	0.050255	0.179683	0.0869045	1.17482	-1.13919	0.289424	0.25996	0.900774	
0.722193	4.69055	5	0	-0.488063	-0.334163	-0.390451	0.325538	-0.431836	-0.751185	-0.345166	-0.0647062	1.28398	0.175493	-0.446516	1.09237	0.608524	0.127956	0.455421	1.7247	0.210791	0.001754	0.68698	2.94562	0.765207	0.190058	-0.420328	1.39846	0.0511895	0.164547	0.0793927	1.16646	-1.15161	0.295894	0.260532	0.889848	
0.722301	4.71649	5	0	-0.493617	-0.330534	-0.3913	0.327938	-0.441601	-0.746868	-0.347188	-0.069199	1.28622	0.169184	-0.453052	1.09282	0.608524	0.127956	0.453508	1.71775	0.214618	0.003977	0.674628	2.94594	0.761759	0.182848	-0.424145	1.3948	0.052124	0.14941	0.071881	1.1581	-1.16402	0.302363	0.261103	0.878923	
0.721552	4.74243	5	0	-0.48392	-0.345871	-0.390358	0.316257	-0.440312	-0.762141	-0.344759	-0.0862673	1.2732	0.165577	-0.452558	1.07342	0.600438	0.123235	0.445257	1.70405	0.209704	0.00482575	0.670242	2.94107	0.756862	0.179746	-0.427959	1.39115	0.0501905	0.142386	0.0708305	1.15122	-1.16765	0.303092	0.254964	0.877664	
0.719758	4.76684	5	0	-0.474224	-0.361209	-0.389416	0.304577	-0.439024	-0.777413	-0.34233	-0.103335	1.26019	0.16197	-0.452065	1.05402	0.592353	0.118513	0.437007	1.69035	0.20479	0.0056745	0.665856	2.93619	0.751966	0.176643	-0.431773	1.38749	0.048257	0.135362	0.06978	1.14434	-1.17128	0.303821	0.248826	0.876405	
0.716736	4.78973	5	0	-0.464527	-0.376547	-0.388473	0.292896	-0.437735	-0.792686	-0.3399	-0.120404	1.24717	0.158363	-0.451572	1.03462	0.584267	0.113792	0.428756	1.67665	0.199877	0.00652325	0.66147	2.93132	0.747069	0.173541	-0.435586	1.38384	0.0463235	0.128339	0.0687295	1.13745	-1.17491	0.304551	0.242688	0.875147	
0.712608	4.81415	5	0	-0.45483	-0.391884	-0.387531	0.281215	-0.436446	-0.807959	-0.337471	-0.137472	1.23416	0.154756	-0.451078	1.01522	0.576181	0.109071	0.420505	1.66295	0.194963	0.007372	0.657084	2.92644	0.742173	0.170438	-0.4394	1.38018	0.04439	0.121315	0.067679	1.13057	-1.17854	0.30528	0.236549	0.873888	
0.707924	4.83703	5	0	-0.453795	-0.394809	-0.373378	0.268283	-0.433604	-0.815991	-0.333915	-0.147523	1.23354	0.143073	-0.45235	1.00083	0.580779	0.0960763	0.424845	1.63836	0.19605	0.00430025	0.654479	2.91655	0.740176	0.159157	-0.440387	1.36855	0.0366855	0.105676	0.0627832	1.11488	-1.19607	0.316729	0.236065	0.856667	
0.703268	4.85077	5	0	-0.45276	-0.397734	-0.359225	0.255351	-0.430762	-0.824024	-0.330358	-0.157575	1.23291	0.13139	-0.453622	0.986438	0.585377	0.0830815	0.429186	1.61378	0.197136	0.0012285	0.651875	2.90666	0.738179	0.147875	-0.441374	1.35692	0.028981	0.090036	0.0578875	1.09919	-1.21359	0.328178	0.235581	0.839446	
0.699224	4.8645	5	0	-0.451725	-0.400658	-0.345073	0.242419	-0.427919	-0.832056	-0.326802	-0.167626	1.23229	0.119708	-0.454894	0.972046	0.589975	0.0700868	0.433527	1.58919	0.198223	-0.00184325	0.64927	2.89677	0.736183	0.136594	-0.442361	1.34529	0.0212765	0.0743965	0.0529918	1.0835	-1.23111	0.339627	0.235098	0.822225	
0.696375	4.87366	5	0	-0.45069	-0.403583	-0.33092	0.229487	-0.425077	-0.840088	-0.323245	-0.177677	1.23167	0.108025	-0.456166	0.957654	0.594573	0.057092	0.437867	1.5646	0.19931	-0.004915	0.646665	2.88687	0.734186	0.125312	-0.443348	1.33366	0.013572	0.058757	0.048096	1.06781	-1.24863	0.351076	0.234614	0.805004	
0.695216	4.87976	5	0	-0.451725	-0.400658	-0.331093	0.248041	-0.421619	-0.838232	-0.324134	-0.175165	1.22659	0.108923	-0.446138	0.947301	0.590531	0.0547435	0.434697	1.56124	0.19931	-0.004915	0.651992	2.87182	0.737078	0.117138	-0.439117	1.3217	0.0144835	0.0437265	0.049642	1.05361	-1.24787	0.34894	0.22929	0.801481	
0.695588	4.88434	5	0	-0.45276	-0.397734	-0.331266	0.266596	-0.41816	-0.836375	-0.325022	-0.172654	1.22152	0.109821	-0.436111	0.936948	0.586489	0.052395	0.431528	1.55788	0.19931	-0.004915	0.65732	2.85676	0.739971	0.108963	-0.434886	1.30974	0.015395	0.028696	0.051188	1.03941	-1.24712	0.346803	0.223966	0.797957	
0.697037	4.88129	5	0	-0.453795	-0.394809	-0.331439	0.28515	-0.414702	-0.834518	-0.325911	-0.170142	1.21645	0.110719	-0.426083	0.926595	0.582448	0.0500465	0.428358	1.55453	0.19931	-0.004915	0.662647	2.84171	0.742864	0.100789	-0.430655	1.29778	0.0163065	0.0136655	0.052734	1.02521	-1.24636	0.344667	0.218642	0.794434	
0.699109	4.87976	5	0	-0.45483	-0.391884	-0.331612	0.303705	-0.411244	-0.832662	-0.3268	-0.16763	1.21138	0.111617	-0.416055	0.916242	0.578406	0.047698	0.425188	1.55117	0.19931	-0.004915	0.667974	2.82665	0.745756	0.092614	-0.426424	1.28582	0.017218	-0.001365	0.05428	1.01101	-1.24561	0.342531	0.213318	0.79091	
0.701349	4.87518	5	0	-0.467344	-0.392697	-0.341441	0.29537	-0.423505	-0.832881	-0.325023	-0.172653	1.20916	0.117902	-0.417804	0.921185	0.578406	0.047698	0.425188	1.55117	0.201482	-0.0110548	0.667974	2.82665	0.745756	0.092614	-0.427834	1.28981	0.0162697	0.001315	0.0497575	1.01397	-1.23685	0.336809	0.213561	0.799505	
0.703304	4.86755	5	0	-0.479857	-0.39351	-0.351271	0.287036	-0.435765	-0.833099	-0.323245	-0.177676	1.20693	0.124186	-0.419553	0.926129	0.578406	0.047698	0.425188	1.55117	0.203655	-0.0171945	0.667974	2.82665	0.745756	0.092614	-0.429244	1.29379	0.0153215	0.003995	0.045235	1.01692	-1.22809	0.331088	0.213805	0.8081	
0.704706	4.8584	5	0	-0.49237	-0.394323	-0.3611	0.278702	-0.448025	-0.833318	-0.321468	-0.182699	1.20471	0.130471	-0.421302	0.931072	0.578406	0.047698	0.425188	1.55117	0.205827	-0.0233343	0.667974	2.82665	0.745756	0.092614	-0.430653	1.29778	0.0143733	0.006675	0.0407125	1.01988	-1.21934	0.325367	0.214048	0.816695	
0.705738	4.85077	5	0	-0.504884	-0.395136	-0.370929	0.270367	-0.460286	-0.833537	-0.319691	-0.187722	1.20249	0.136756	-0.423051	0.936016	0.578406	0.047698	0.425188	1.55117	0.208	-0.029474	0.667974	2.82665	0.745756	0.092614	-0.432063	1.30176	0.013425	0.009355	0.03619	1.02283	-1.21058	0.319645	0.214291	0.82529	
0.706646	4.84161	5	0	-0.511834	-0.399572	-0.379984	0.268917	-0.462791	-0.838066	-0.317027	-0.195251	1.19964	0.131368	-0.421302	0.931072	0.577806	0.0356312	0.434599	1.53689	0.204174	-0.0316915	0.669748	2.82164	0.742307	0.0854517	-0.429244	1.29379	0.013425	0.009355	0.0316697	1.02578	-1.21496	0.322507	0.207599	0.834921	
0.707677	4.83551	5	0	-0.518785	-0.404008	-0.389038	0.267467	-0.465296	-0.842595	-0.314363	-0.20278	1.1968	0.125979	-0.419553	0.926129	0.577206	0.0235645	0.44401	1.52261	0.200348	-0.033909	0.671521	2.81662	0.738858	0.0782895	-0.426425	1.28583	0.013425	0.009355	0.0271495	1.02874	-1.21934	0.325368	0.200906	0.844552	
0.709076	4.82483	5	0	-0.525736	-0.408445	-0.398092	0.266016	-0.467801	-0.847124	-0.311699	-0.210308	1.19396	0.120591	-0.417804	0.921185	0.576607	0.0114978	0.453421	1.50832	0.196523	-0.0361265	0.673295	2.81161	0.73541	0.0711273	-0.423606	1.27786	0.013425	0.009355	0.0226293	1.03169	-1.22372	0.32823	0.194214	0.854182	
0.711085	4.81872	5	0	-0.532686	-0.412881	-0.407147	0.264566	-0.470306	-0.851653	-0.309035	-0.217837	1.19111	0.115203	-0.416055	0.916242	0.576007	-0.000569	0.462832	1.49404	0.192697	-0.038344	0.675069	2.8066	0.731961	0.063965	-0.420787	1.26989	0.013425	0.009355	0.018109	1.03465	-1.2281	0.331091	0.187522	0.863813	
0.713776	4.80499	5	0	-0.533718	-0.409963	-0.400732	0.282498	-0.472197	-0.846307	-0.31817	-0.202218	1.18383	0.122378	-0.417804	0.921185	0.571969	-0.00290725	0.461585	1.49757	0.192697	-0.038344	0.681237	2.80642	0.739743	0.0588795	-0.422196	1.27388	0.0029205	0.0141585	0.0189755	1.0322	-1.23685	0.336809	0.184865	0.862043	
0.717055	4.80041	5	0	-0.534751	-0.407045	-0.394317	0.300431	-0.474089	-0.840961	-0.327304	-0.1866	1.17654	0.129553	-0.419553	0.926129	0.567931	-0.0052455	0.460338	1.50109	0.192697	-0.038344	0.687404	2.80625	0.747526	0.053794	-0.423606	1.27786	-0.007584	0.018962	0.019842	1.02975	-1.2456	0.342528	0.182208	0.860274	
0.720819	4.78973	5	0	-0.535783	-0.404127	-0.387903	0.318364	-0.475981	-0.835615	-0.336439	-0.170982	1.16926	0.136727	-0.421302	0.931072	0.563893	-0.00758375	0.45909	1.50462	0.192697	-0.038344	0.693572	2.80607	0.755308	0.0487085	-0.425015	1.28184	-0.0180885	0.0237655	0.0207085	1.0273	-1.25435	0.348247	0.179552	0.858504	
0.724966	4.7821	5	0	-0.536816	-0.401209	-0.381488	0.336296	-0.477872	-0.830269	-0.345574	-0.155363	1.16197	0.143902	-0.423051	0.936016	0.559855	-0.009922	0.457843	1.50814	0.192697	-0.038344	0.699739	2.80589	0.763091	0.043623	-0.426424	1.28582	-0.028593	0.028569	0.021575	1.02485	-1.26311	0.353965	0.176895	0.856734	
0.729394	4.776	5	0	-0.545451	-0.388832	-0.385952	0.366968	-0.482606	-0.81689	-0.344438	-0.148376	1.15752	0.156476	-0.430058	0.955818	0.553531	-0.00578975	0.45852	1.51855	0.18944	-0.0291388	0.704137	2.81073	0.763655	0.0589553	-0.421196	1.28547	-0.0266632	0.0355528	0.0144575	1.03515	-1.26386	0.356101	0.167554	0.86459	
0.733992	4.76684	0	0	-0.554087	-0.376455	-0.390416	0.39764	-0.48734	-0.803511	-0.343302	-0.141389	1.15307	0.16905	-0.437064	0.975619	0.547206	-0.0016575	0.459198	1.52896	0.186183	-0.0199335	0.708535	2.81557	0.764218	0.0742875	-0.415968	1.28512	-0.0247335	0.0425365	0.00734	1.04545	-1.26462	0.358237	0.158214	0.872446	
0.73855	4.76379	0	0	-0.562723	-0.364077	-0.39488	0.428313	-0.492074	-0.790132	-0.342166	-0.134401	1.14863	0.181624	-0.444071	0.995421	0.540882	0.00247475	0.459875	1.53937	0.182926	-0.0107282	0.712933	2.82042	0.764782	0.0896197	-0.41074	1.28477	-0.0228038	0.0495203	0.0002225	1.05575	-1.26537	0.360374	0.148873	0.880302	
0.742788	4.75311	0	0	-0.571358	-0.3517	-0.399344	0.458985	-0.496808	-0.776753	-0.34103	-0.127414	1.14418	0.194198	-0.451078	1.01522	0.534558	0.006607	0.460553	1.54977	0.179669	-0.001523	0.717331	2.82526	0.765345	0.104952	-0.405512	1.28441	-0.020874	0.056504	-0.006895	1.06605	-1.26613	0.36251	0.139533	0.888158	
0.746424	4.74396	0	0	-0.572392	-0.348778	-0.411693	0.45779	-0.500253	-0.778618	-0.355102	-0.118219	1.14023	0.19194	-0.457603	1.01568	0.534558	0.006607	0.460553	1.54977	0.181317	0.006847	0.724356	2.83999	0.764449	0.124426	-0.405927	1.30002	-0.0275255	0.0753025	-0.0101893	1.08518	-1.25813	0.358928	0.137339	0.903629	
0.749177	4.73938	0	0	-0.573426	-0.345857	-0.424042	0.456595	-0.503698	-0.780483	-0.369175	-0.109023	1.13629	0.189682	-0.464129	1.01613	0.534558	0.006607	0.460553	1.54977	0.182966	0.015217	0.731382	2.85472	0.763552	0.1439	-0.406343	1.31563	-0.034177	0.094101	-0.0134835	1.1043	-1.25014	0.355347	0.135144	0.919099	
0.750767	4.73633	0	0	-0.57446	-0.342935	-0.436392	0.4554	-0.507143	-0.782348	-0.383248	-0.0998283	1.13234	0.187424	-0.470654	1.01659	0.534558	0.006607	0.460553	1.54977	0.184615	0.023587	0.738407	2.86946	0.762655	0.163374	-0.406758	1.33123	-0.0408285	0.1129	-0.0167778	1.12343	-1.24214	0.351765	0.132949	0.93457	
0.750939	4.73328	0	0	-0.575494	-0.340013	-0.448741	0.454205	-0.510588	-0.784213	-0.39732	-0.090633	1.1284	0.185166	-0.47718	1.01704	0.534558	0.006607	0.460553	1.54977	0.186263	0.031957	0.745432	2.88419	0.761759	0.182848	-0.407174	1.34684	-0.04748	0.131698	-0.020072	1.14255	-1.23415	0.348183	0.130755	0.950041	
0.749788	4.7287	0	0	-0.581026	-0.336398	-0.457773	0.452704	-0.515924	-0.780726	-0.396193	-0.083631	1.12729	0.18831	-0.478933	1.022	0.532267	0.013081	0.459975	1.56374	0.193915	0.0364172	0.752462	2.89898	0.765207	0.190058	-0.404769	1.35449	-0.0532045	0.135439	-0.0209413	1.14501	-1.23852	0.351043	0.126489	0.952829	
0.747653	4.72259	0	0	-0.586558	-0.332783	-0.466805	0.451203	-0.521261	-0.77724	-0.395066	-0.076629	1.12617	0.191454	-0.480686	1.02695	0.529976	0.019555	0.459396	1.5777	0.201568	0.0408775	0.759491	2.91376	0.768655	0.197269	-0.402363	1.36213	-0.058929	0.139179	-0.0218105	1.14747	-1.2429	0.353903	0.122223	0.955616	
0.744873	4.71802	0	0	-0.592091	-0.329168	-0.475837	0.449703	-0.526597	-0.773753	-0.39394	-0.069627	1.12506	0.194598	-0.482439	1.03191	0.527686	0.026029	0.458817	1.59167	0.20922	0.0453378	0.766521	2.92854	0.772103	0.204479	-0.399958	1.36978	-0.0646535	0.14292	-0.0226797	1.14992	-1.24728	0.356763	0.117957	0.958403	
0.741793	4.71344	0	0	-0.597623	-0.325553	-0.484869	0.448202	-0.531933	-0.770266	-0.392813	-0.062625	1.12395	0.197742	-0.484192	1.03686	0.525395	0.032503	0.458239	1.60564	0.216872	0.049798	0.773551	2.94333	0.775551	0.211689	-0.397553	1.37743	-0.070378	0.14666	-0.023549	1.15238	-1.25165	0.359623	0.113691	0.961191	
0.738753	4.71954	0	0	-0.601762	-0.313856	-0.481075	0.473523	-0.536671	-0.756875	-0.399948	-0.0424598	1.12061	0.207181	-0.482936	1.0513	0.529427	0.034849	0.460825	1.62301	0.224535	0.054264	0.772592	2.96339	0.776089	0.227139	-0.396566	1.38909	-0.072281	0.152038	-0.0270283	1.16221	-1.25603	0.362482	0.10781	0.968548	
0.736056	4.71344	0	0	-0.6059	-0.302159	-0.477281	0.498844	-0.541409	-0.743484	-0.407084	-0.0222945	1.11727	0.21662	-0.48168	1.06573	0.533458	0.037195	0.463411	1.64039	0.232198	0.05873	0.771633	2.98345	0.776628	0.242589	-0.395578	1.40075	-0.074184	0.157417	-0.0305075	1.17204	-1.2604	0.36534	0.101929	0.975904	
0.733653	4.71496	0	0	-0.610039	-0.290462	-0.473487	0.524166	-0.546148	-0.730093	-0.414219	-0.00212925	1.11393	0.226058	-0.480423	1.08017	0.53749	0.039541	0.465996	1.65777	0.239861	0.063196	0.770675	3.00351	0.777166	0.258039	-0.39459	1.41242	-0.076087	0.162795	-0.0339867	1.18188	-1.26478	0.368199	0.096048	0.98326	
0.731303	4.71649	0	0	-0.614178	-0.278765	-0.469693	0.549487	-0.550886	-0.716702	-0.421354	0.018036	1.11059	0.235497	-0.479167	1.09461	0.541522	0.041887	0.468582	1.67515	0.247524	0.067662	0.769716	3.02357	0.777704	0.273489	-0.393603	1.42408	-0.07799	0.168173	-0.037466	1.19171	-1.26915	0.371057	0.090167	0.990617	
0.728766	4.71344	0	0	-0.618672	-0.278078	-0.476283	0.550079	-0.559652	-0.715094	-0.421354	0.018036	1.10999	0.2238	-0.485688	1.09505	0.546704	0.0409925	0.467326	1.6787	0.255198	0.0721342	0.774124	3.02848	0.776247	0.277606	-0.389782	1.42775	-0.0817995	0.178939	-0.044436	1.21141	-1.2604	0.365339	0.091194	0.996979	
0.725799	4.71344	5	0	-0.623166	-0.277391	-0.482872	0.550672	-0.568418	-0.713485	-0.421354	0.018036	1.10939	0.212102	-0.49221	1.09549	0.551886	0.040098	0.46607	1.68225	0.262871	0.0766065	0.778532	3.03339	0.774791	0.281722	-0.38596	1.43142	-0.085609	0.189705	-0.051406	1.23111	-1.25165	0.35962	0.092221	1.00334	
0.722163	4.71039	5	0	-0.627659	-0.276704	-0.489461	0.551265	-0.577184	-0.711877	-0.421354	0.018036	1.10879	0.200405	-0.498731	1.09594	0.557069	0.0392035	0.464815	1.6858	0.270545	0.0810788	0.782941	3.03829	0.773334	0.285838	-0.382138	1.43508	-0.0894185	0.200472	-0.058376	1.2508	-1.2429	0.353902	0.093248	1.0097	
0.717707	4.70886	5	0	-0.632153	-0.276017	-0.496051	0.551857	-0.58595	-0.710269	-0.421354	0.018036	1.10819	0.188708	-0.505253	1.09638	0.562251	0.038309	0.463559	1.68934	0.278219	0.085551	0.787349	3.0432	0.771878	0.289955	-0.378317	1.43875	-0.093228	0.211238	-0.065346	1.2705	-1.23415	0.348183	0.094275	1.01606	
0.712698	4.70276	5	0	-0.632153	-0.276017	-0.492757	0.551561	-0.584055	-0.715625	-0.42515	0.0185762	1.0986	0.175672	-0.513016	1.0824	0.563398	0.035068	0.462896	1.67887	0.291938	0.0860858	0.789142	3.03814	0.766979	0.286828	-0.382138	1.43508	-0.0989533	0.202567	-0.0646348	1.25868	-1.2429	0.353902	0.0845105	1.00663	
0.70752	4.70428	5	0	-0.632153	-0.276017	-0.489463	0.551265	-0.58216	-0.720981	-0.428945	0.0191165	1.08902	0.162636	-0.520779	1.06841	0.564545	0.031827	0.462233	1.6684	0.305658	0.0866205	0.790935	3.03307	0.762081	0.283701	-0.38596	1.43142	-0.104679	0.193896	-0.0639235	1.24685	-1.25165	0.35962	0.074746	0.997197	
0.702559	4.69818	5	0	-0.632153	-0.276017	-0.486169	0.55097	-0.580265	-0.726336	-0.43274	0.0196568	1.07943	0.1496	-0.528541	1.05443	0.565691	0.028586	0.461571	1.65792	0.319377	0.0871553	0.792728	3.028	0.757182	0.280573	-0.389782	1.42775	-0.110404	0.185225	-0.0632122	1.23503	-1.2604	0.365339	0.0649815	0.987764	
0.698196	4.69818	5	0	-0.632153	-0.276017	-0.482875	0.550674	-0.57837	-0.731692	-0.436536	0.020197	1.06984	0.136564	-0.536304	1.04045	0.566838	0.025345	0.460908	1.64745	0.333097	0.08769	0.794521	3.02293	0.752284	0.277446	-0.393603	1.42408	-0.116129	0.176554	-0.062501	1.2232	-1.26915	0.371057	0.055217	0.97833	
0.69481	4.69055	5	0	-0.627659	-0.276704	-0.471393	0.55432	-0.573988	-0.732497	-0.436536	0.020197	1.06924	0.124927	-0.541057	1.03595	0.567984	0.0221052	0.45206	1.64778	0.333097	0.08769	0.799894	3.00775	0.756648	0.265114	-0.393176	1.40842	-0.122799	0.170586	-0.0663093	1.21435	-1.27277	0.371778	0.05397	0.963368	
0.692479	4.6875	5	0	-0.623166	-0.277391	-0.459911	0.557966	-0.569606	-0.733302	-0.436536	0.020197	1.06863	0.11329	-0.54581	1.03145	0.56913	0.0188655	0.443213	1.64812	0.333097	0.08769	0.805266	2.99257	0.761011	0.252781	-0.392749	1.39276	-0.129468	0.164619	-0.0701175	1.20549	-1.27639	0.372498	0.052723	0.948405	
0.690892	4.68445	5	0	-0.618672	-0.278078	-0.448429	0.561612	-0.565224	-0.734107	-0.436536	0.020197	1.06802	0.101653	-0.550564	1.02694	0.570277	0.0156258	0.434366	1.64845	0.333097	0.08769	0.810639	2.97738	0.765375	0.240449	-0.392321	1.37709	-0.136138	0.158651	-0.0739257	1.19664	-1.28	0.373219	0.051476	0.933442	
0.689705	4.67987	5	0	-0.614178	-0.278765	-0.436947	0.565258	-0.560842	-0.734912	-0.436536	0.020197	1.06741	0.090016	-0.555317	1.02244	0.571423	0.012386	0.425518	1.64879	0.333097	0.08769	0.816011	2.9622	0.769739	0.228117	-0.391894	1.36143	-0.142808	0.152683	-0.077734	1.18778	-1.28362	0.373939	0.050229	0.91848	
0.688581	4.67834	5	0	-0.611074	-0.287539	-0.439156	0.544422	-0.565817	-0.744002	-0.433198	0.0005825	1.05673	0.0801795	-0.561322	1.00359	0.569676	0.00357375	0.418523	1.63161	0.329249	0.085453	0.813381	2.95226	0.758496	0.225995	-0.392889	1.3498	-0.14282	0.14032	-0.077033	1.176	-1.2916	0.377513	0.0489735	0.903559	
0.687176	4.67377	5	0	-0.607969	-0.296314	-0.441365	0.523586	-0.570793	-0.753092	-0.42986	-0.019032	1.04606	0.070343	-0.567326	0.984745	0.567928	-0.0052385	0.411527	1.61444	0.325402	0.083216	0.810752	2.94233	0.747253	0.223874	-0.393884	1.33817	-0.142832	0.127957	-0.076332	1.16422	-1.29958	0.381086	0.047718	0.888638	
0.685241	4.66919	5	0	-0.604864	-0.305088	-0.443574	0.502749	-0.575769	-0.762182	-0.426522	-0.0386465	1.03538	0.0605065	-0.573331	0.965896	0.56618	-0.0140508	0.404532	1.59727	0.321554	0.080979	0.808123	2.93239	0.73601	0.221752	-0.394879	1.32654	-0.142843	0.115593	-0.075631	1.15244	-1.30757	0.384659	0.0464625	0.873717	
0.683021	4.66614	5	0	-0.60176	-0.313862	-0.445783	0.481913	-0.580744	-0.771272	-0.423184	-0.058261	1.0247	0.05067	-0.579336	0.947047	0.564433	-0.022863	0.397537	1.58009	0.317706	0.078742	0.805493	2.92246	0.724767	0.219631	-0.395874	1.3149	-0.142855	0.10323	-0.07493	1.14066	-1.31555	0.388233	0.045207	0.858796	
0.680929	4.66308	5	0	-0.602121	-0.324854	-0.448751	0.454259	-0.579453	-0.786485	-0.420752	-0.0753092	1.02629	0.0328592	-0.585344	0.928276	0.562684	-0.0316592	0.393033	1.55595	0.313291	0.0650228	0.81263	2.90229	0.725675	0.200141	-0.400694	1.29967	-0.145733	0.0865962	-0.0842818	1.12794	-1.33736	0.402482	0.0481885	0.841143	
0.679378	4.66003	5	0	-0.602483	-0.335846	-0.45172	0.426605	-0.578162	-0.801699	-0.41832	-0.0923575	1.02788	0.0150485	-0.591351	0.909504	0.560934	-0.0404555	0.388528	1.53181	0.308876	0.0513035	0.819767	2.88212	0.726582	0.180651	-0.405513	1.28444	-0.148612	0.0699625	-0.0936335	1.11522	-1.35916	0.416732	0.05117	0.823489	
0.678782	4.65546	5	0	-0.602844	-0.346837	-0.454688	0.398951	-0.576871	-0.816913	-0.415888	-0.109406	1.02947	-0.00276225	-0.597358	0.890733	0.559184	-0.0492518	0.384024	1.50767	0.304461	0.0375842	0.826905	2.86195	0.72749	0.161162	-0.410333	1.2692	-0.15149	0.0533287	-0.102985	1.1025	-1.38097	0.430982	0.0541515	0.805836	
0.679541	4.6524	5	0	-0.603205	-0.357829	-0.457657	0.371297	-0.57558	-0.832126	-0.413456	-0.126454	1.03106	-0.020573	-0.603366	0.871962	0.557435	-0.058048	0.37952	1.48353	0.300046	0.023865	0.834042	2.84178	0.728397	0.141672	-0.415153	1.25397	-0.154368	0.036695	-0.112337	1.08978	-1.40278	0.445231	0.057133	0.788183	
0.681672	4.6524	5	0	-0.607031	-0.371017	-0.461595	0.355438	-0.576184	-0.841977	-0.41636	-0.128416	1.03609	-0.021465	-0.591668	0.85677	0.5534	-0.0603763	0.377601	1.47668	0.290704	0.0110425	0.834955	2.82184	0.727844	0.126326	-0.42138	1.24276	-0.15345	0.0217297	-0.114416	1.07611	-1.41584	0.453763	0.0592995	0.772837	
0.684774	4.65393	5	0	-0.610858	-0.384205	-0.465532	0.33958	-0.576788	-0.851828	-0.419264	-0.130377	1.04112	-0.022357	-0.579971	0.841578	0.549366	-0.0627045	0.375682	1.46983	0.281361	-0.00178	0.835868	2.80191	0.727291	0.110979	-0.427607	1.23155	-0.152533	0.0067645	-0.116495	1.06244	-1.4289	0.462295	0.061466	0.757491	
0.688423	4.65393	5	0	-0.614685	-0.397392	-0.469469	0.323721	-0.577392	-0.86168	-0.422169	-0.132338	1.04614	-0.023249	-0.568273	0.826385	0.545332	-0.0650328	0.373763	1.46298	0.272018	-0.0146025	0.836782	2.78198	0.726738	0.0956333	-0.433833	1.22033	-0.151615	-0.00820075	-0.118573	1.04877	-1.44195	0.470828	0.0636325	0.742146	
0.692197	4.6524	5	0	-0.618511	-0.41058	-0.473407	0.307862	-0.577996	-0.871531	-0.425073	-0.1343	1.05117	-0.024141	-0.556576	0.811193	0.541297	-0.067361	0.371844	1.45613	0.262676	-0.027425	0.837695	2.76205	0.726185	0.080287	-0.44006	1.20912	-0.150697	-0.023166	-0.120652	1.0351	-1.45501	0.47936	0.065799	0.7268	
0.695673	4.65393	5	0	-0.625425	-0.415011	-0.482525	0.315661	-0.581428	-0.873383	-0.426202	-0.141275	1.054	-0.0188028	-0.560051	0.821012	0.544721	-0.0770383	0.371844	1.45613	0.253348	-0.0402047	0.835044	2.75221	0.722739	0.0731312	-0.443873	1.20551	-0.149753	-0.0258323	-0.121693	1.02828	-1.45426	0.477224	0.0623567	0.72731	
0.698505	4.65393	5	0	-0.63234	-0.419442	-0.491643	0.32346	-0.584859	-0.875234	-0.42733	-0.14825	1.05683	-0.0134645	-0.563525	0.830831	0.548145	-0.0867155	0.371844	1.45613	0.24402	-0.0529845	0.832394	2.74236	0.719294	0.0659755	-0.447686	1.2019	-0.14881	-0.0284985	-0.122735	1.02146	-1.4535	0.475089	0.0589145	0.72782	
0.700769	4.65698	5	0	-0.639254	-0.423872	-0.500761	0.331258	-0.588291	-0.877086	-0.428458	-0.155224	1.05965	-0.00812625	-0.566999	0.840651	0.55157	-0.0963927	0.371844	1.45613	0.234691	-0.0657642	0.829743	2.73252	0.715848	0.0588198	-0.4515	1.19829	-0.147867	-0.0311647	-0.123776	1.01464	-1.45274	0.472953	0.0554723	0.72833	
0.702685	4.66003	5	0	-0.646168	-0.428303	-0.509879	0.339057	-0.591723	-0.878938	-0.429587	-0.162199	1.06248	-0.002788	-0.570474	0.85047	0.554994	-0.10607	0.371844	1.45613	0.225363	-0.078544	0.827092	2.72268	0.712402	0.051664	-0.455313	1.19468	-0.146923	-0.033831	-0.124818	1.00781	-1.45199	0.470817	0.05203	0.72884	
0.704473	4.66461	5	0	-0.648593	-0.433422	-0.505645	0.327091	-0.593271	-0.886108	-0.428946	-0.17417	1.06076	-0.0112395	-0.565264	0.835745	0.553239	-0.114831	0.368004	1.44246	0.219873	-0.0890792	0.818247	2.71306	0.708958	0.0445202	-0.457722	1.18711	-0.142172	-0.0348855	-0.124818	1.00781	-1.45199	0.470817	0.0581155	0.730083	
0.706355	4.66766	5	0	-0.651019	-0.43854	-0.50141	0.315124	-0.594818	-0.893277	-0.428304	-0.186142	1.05903	-0.019691	-0.560053	0.82102	0.551484	-0.123591	0.364164	1.42878	0.214384	-0.0996145	0.809403	2.70343	0.705513	0.0373765	-0.46013	1.17954	-0.137422	-0.03594	-0.124818	1.00781	-1.45199	0.470817	0.064201	0.731326	
0.708547	4.66614	5	0	-0.653444	-0.443659	-0.497176	0.303157	-0.596366	-0.900446	-0.427663	-0.198113	1.05731	-0.0281425	-0.554843	0.806296	0.549729	-0.132351	0.360324	1.41511	0.208894	-0.11015	0.800558	2.69381	0.702068	0.0302327	-0.462539	1.17197	-0.132671	-0.0369945	-0.124818	1.00781	-1.45199	0.470817	0.0702865	0.732568	
0.711116	4.66766	5	0	-0.65587	-0.448778	-0.492942	0.291191	-0.597914	-0.907616	-0.427022	-0.210084	1.05558	-0.036594	-0.549633	0.791571	0.547974	-0.141112	0.356484	1.40144	0.203404	-0.120685	0.791713	2.68418	0.698624	0.023089	-0.464947	1.1644	-0.12792	-0.038049	-0.124818	1.00781	-1.45199	0.470817	0.076372	0.733811	
0.713807	4.66614	5	0	-0.650359	-0.452379	-0.489654	0.290882	-0.596033	-0.912932	-0.420576	-0.218142	1.04883	-0.0441368	-0.544432	0.77687	0.538774	-0.142521	0.362677	1.38394	0.195757	-0.125087	0.79083	2.66939	0.696619	0.0118935	-0.471164	1.15324	-0.131765	-0.051918	-0.128627	0.999067	-1.46503	0.479336	0.0710868	0.730306	
0.71633	4.66766	5	0	-0.644848	-0.45598	-0.486366	0.290572	-0.594152	-0.918247	-0.41413	-0.2262	1.04207	-0.0516795	-0.53923	0.762169	0.529573	-0.143931	0.368869	1.36644	0.18811	-0.129489	0.789948	2.6546	0.694613	0.000698	-0.477381	1.14209	-0.13561	-0.065787	-0.132437	0.99032	-1.47806	0.487855	0.0658015	0.726802	
0.718394	4.66461	5	0	-0.639337	-0.459581	-0.483078	0.290262	-0.592272	-0.923563	-0.407684	-0.234259	1.03532	-0.0592223	-0.534029	0.747469	0.520373	-0.14534	0.375061	1.34894	0.180463	-0.133891	0.789065	2.63981	0.692608	-0.0104975	-0.483598	1.13094	-0.139455	-0.079656	-0.136246	0.981572	-1.4911	0.496375	0.0605163	0.723298	
0.719708	4.65698	5	0	-0.633826	-0.463182	-0.47979	0.289953	-0.590391	-0.928879	-0.401238	-0.242317	1.02857	-0.066765	-0.528827	0.732768	0.511173	-0.14675	0.381254	1.33144	0.172816	-0.138293	0.788182	2.62502	0.690602	-0.021693	-0.489815	1.11979	-0.1433	-0.093525	-0.140055	0.972824	-1.50414	0.504894	0.055231	0.719793	
0.719992	4.65851	5	0	-0.632426	-0.455157	-0.471709	0.30309	-0.5879	-0.924376	-0.400988	-0.23286	1.02355	-0.0658723	-0.528827	0.732768	0.512311	-0.149966	0.376853	1.33163	0.174977	-0.144399	0.777587	2.62044	0.694912	-0.0338738	-0.492223	1.11225	-0.139537	-0.10416	-0.135752	0.960662	-1.50848	0.507731	0.0507503	0.714033	
0.719281	4.65698	5	0	-0.631026	-0.447132	-0.463628	0.316227	-0.585408	-0.919872	-0.400737	-0.223404	1.01852	-0.0649795	-0.528827	0.732768	0.513448	-0.153181	0.372452	1.33182	0.177138	-0.150506	0.766992	2.61586	0.699222	-0.0460545	-0.494631	1.10471	-0.135774	-0.114794	-0.131449	0.9485	-1.51282	0.510568	0.0462695	0.708274	
0.717946	4.6524	5	0	-0.629626	-0.439107	-0.455548	0.329363	-0.582917	-0.915369	-0.400487	-0.213948	1.0135	-0.0640867	-0.528827	0.732768	0.514586	-0.156396	0.368051	1.332	0.179298	-0.156612	0.756397	2.61128	0.703532	-0.0582353	-0.497039	1.09718	-0.132011	-0.125429	-0.127145	0.936338	-1.51716	0.513405	0.0417887	0.702514	
0.716377	4.6463	5	0	-0.628226	-0.431082	-0.447467	0.3425	-0.580426	-0.910866	-0.400237	-0.204491	1.00848	-0.063194	-0.528827	0.732768	0.515723	-0.159612	0.36365	1.33219	0.181459	-0.162718	0.745802	2.6067	0.707842	-0.070416	-0.499447	1.08964	-0.128248	-0.136064	-0.122842	0.924176	-1.52151	0.516242	0.037308	0.696754	
0.714961	4.64477	5	0	-0.628226	-0.431082	-0.453307	0.350006	-0.578545	-0.916183	-0.408705	-0.200883	1.00237	-0.0591972	-0.538783	0.743039	0.51056	-0.158709	0.360488	1.32889	0.183618	-0.16882	0.733467	2.6071	0.706406	-0.0663575	-0.504647	1.09	-0.134875	-0.129691	-0.123702	0.926607	-1.52151	0.516242	0.0349095	0.703533	
0.714086	4.64325	5	0	-0.628226	-0.431082	-0.459148	0.357511	-0.576663	-0.921501	-0.417172	-0.197275	0.996249	-0.0552005	-0.548739	0.753309	0.505396	-0.157806	0.357327	1.32558	0.185777	-0.174922	0.721132	2.6075	0.70497	-0.062299	-0.509847	1.09036	-0.141502	-0.123317	-0.124562	0.929038	-1.52151	0.516242	0.032511	0.710311	
0.714077	4.63867	5	0	-0.628226	-0.431082	-0.464988	0.365017	-0.574781	-0.926818	-0.42564	-0.193668	0.990132	-0.0512037	-0.558694	0.76358	0.500232	-0.156903	0.354165	1.32227	0.187937	-0.181025	0.708796	2.6079	0.703534	-0.0582405	-0.515047	1.09073	-0.148129	-0.116944	-0.125422	0.931469	-1.52151	0.516242	0.0301125	0.717089	
0.714715	4.63562	5	0	-0.628226	-0.431082	-0.470828	0.372522	-0.5729	-0.932135	-0.434107	-0.19006	0.984015	-0.047207	-0.56865	0.773851	0.495069	-0.156	0.351004	1.31897	0.190096	-0.187127	0.696461	2.6083	0.702098	-0.054182	-0.520247	1.09109	-0.154756	-0.110571	-0.126282	0.9339	-1.52151	0.516242	0.027714	0.723868	
0.715507	4.62952	5	0	-0.628226	-0.431082	-0.480591	0.364156	-0.581642	-0.930508	-0.432336	-0.195066	0.977286	-0.05474	-0.571669	0.764535	0.503643	-0.166542	0.350313	1.30869	0.186273	-0.189317	0.692063	2.60353	0.700084	-0.065338	-0.522652	1.08357	-0.162358	-0.113772	-0.129909	0.934401	-1.53018	0.521911	0.0176432	0.733925	
