0.671	4.55475	0	0	0.29102	0.291626	-0.153911	0.336575	-0.199452	-0.591615	-0.347054	-0.033005	0.833095	0.235176	0.017686	0.686547	0.985313	0.497522	0.367167	0.834715	0.447454	0.242394	1.16141	1.92578	0.301317	-0.333586	0.23378	1.11532	-0.107056	0.064877	0.359416	0.965989	-0.600468	-0.519322	0.563142	0.707427	
0.671473	4.55017	0	0	0.291429	0.303435	-0.145796	0.342587	-0.195792	-0.589411	-0.345832	-0.0257185	0.837977	0.234392	0.0205973	0.695621	0.983089	0.503809	0.364679	0.841747	0.447454	0.242394	1.16407	1.93492	0.322884	-0.344492	0.244148	1.11439	-0.109824	0.0603455	0.357568	0.961625	-0.609081	-0.523717	0.561294	0.703245	
0.672206	4.55017	0	0	0.291838	0.315245	-0.137682	0.3486	-0.192133	-0.587206	-0.344611	-0.018432	0.842858	0.233607	0.0235085	0.704695	0.980864	0.510096	0.36219	0.848779	0.447454	0.242394	1.16673	1.94406	0.344452	-0.355398	0.254517	1.11346	-0.112592	0.055814	0.355719	0.957261	-0.617693	-0.528113	0.559446	0.699062	
0.673078	4.55017	0	0	0.292247	0.327055	-0.129568	0.354612	-0.188474	-0.585002	-0.34339	-0.0111455	0.847739	0.232823	0.0264197	0.713769	0.978639	0.516383	0.359702	0.855811	0.447454	0.242394	1.16939	1.95321	0.366019	-0.366303	0.264885	1.11253	-0.115361	0.0512825	0.35387	0.952896	-0.626305	-0.532509	0.557599	0.694879	
0.673964	4.54407	0	0	0.292656	0.338864	-0.121453	0.360624	-0.184814	-0.582798	-0.342168	-0.003859	0.852621	0.232039	0.029331	0.722843	0.976415	0.52267	0.357214	0.862843	0.447454	0.242394	1.17205	1.96235	0.387586	-0.377209	0.275254	1.1116	-0.118129	0.046751	0.352022	0.948532	-0.634918	-0.536904	0.555751	0.690697	
0.674745	4.54254	0	0	0.294174	0.347549	-0.131982	0.380727	-0.183756	-0.585787	-0.349904	0.00726525	0.851514	0.235169	0.0163077	0.742347	0.974189	0.528961	0.357953	0.873186	0.455801	0.244024	1.1824	1.96649	0.397103	-0.370666	0.28025	1.12589	-0.118129	0.046751	0.353015	0.955314	-0.63128	-0.537612	0.556771	0.697218	
0.675297	4.53949	0	0	0.295692	0.356235	-0.142511	0.40083	-0.182698	-0.588777	-0.35764	0.0183895	0.850406	0.238298	0.0032845	0.76185	0.971963	0.535252	0.358691	0.883528	0.464149	0.245654	1.19274	1.97063	0.40662	-0.364123	0.285246	1.14019	-0.118129	0.046751	0.354008	0.962095	-0.627642	-0.538319	0.557791	0.703738	
0.675499	4.53491	0	0	0.29721	0.36492	-0.15304	0.420934	-0.181641	-0.591766	-0.365376	0.0295137	0.849298	0.241428	-0.00973875	0.781354	0.969736	0.541544	0.359429	0.893871	0.472496	0.247284	1.20309	1.97477	0.416136	-0.35758	0.290242	1.15448	-0.118129	0.046751	0.355001	0.968877	-0.624005	-0.539027	0.558812	0.710259	
0.675227	4.53033	0	0	0.298728	0.373605	-0.163569	0.441037	-0.180583	-0.594755	-0.373112	0.040638	0.848191	0.244558	-0.022762	0.800858	0.96751	0.547835	0.360168	0.904213	0.480843	0.248914	1.21344	1.97892	0.425653	-0.351037	0.295238	1.16878	-0.118129	0.046751	0.355994	0.975658	-0.620367	-0.539734	0.559832	0.716779	
0.674362	4.5227	0	0	0.296499	0.379905	-0.166269	0.439021	-0.183187	-0.599944	-0.371249	0.035374	0.84663	0.235959	-0.0273435	0.79652	0.96751	0.547835	0.356939	0.900908	0.484478	0.251266	1.2161	1.98809	0.436659	-0.348641	0.301585	1.1793	-0.127703	0.0614625	0.350857	0.990175	-0.624981	-0.526694	0.555692	0.728479	
0.672779	4.51813	0	0	0.294269	0.386205	-0.16897	0.437005	-0.18579	-0.605133	-0.369387	0.03011	0.845069	0.227359	-0.031925	0.792183	0.96751	0.547835	0.353711	0.897603	0.488112	0.253618	1.21877	1.99727	0.447665	-0.346246	0.307932	1.18982	-0.137278	0.076174	0.34572	1.00469	-0.629595	-0.513653	0.551553	0.740179	
0.670358	4.51813	0	0	0.29204	0.392506	-0.171671	0.434988	-0.188393	-0.610321	-0.367524	0.024846	0.843507	0.21876	-0.0365065	0.787845	0.96751	0.547835	0.350483	0.894298	0.491747	0.25597	1.22143	2.00644	0.45867	-0.343851	0.314279	1.20034	-0.146852	0.0908855	0.340584	1.01921	-0.63421	-0.500613	0.547413	0.751879	
0.667085	4.51202	0	0	0.289811	0.398806	-0.174371	0.432972	-0.190997	-0.61551	-0.365661	0.019582	0.841946	0.210161	-0.041088	0.783508	0.96751	0.547835	0.347254	0.890993	0.495381	0.258322	1.2241	2.01562	0.469676	-0.341455	0.320626	1.21086	-0.156427	0.105597	0.335447	1.03373	-0.638824	-0.487572	0.543273	0.763579	
0.663166	4.50897	0	0	0.29244	0.40436	-0.172541	0.437448	-0.194656	-0.617709	-0.366592	0.0222137	0.841487	0.198456	-0.045666	0.779176	0.974744	0.540689	0.337069	0.894942	0.504835	0.256875	1.23783	2.01029	0.478867	-0.350658	0.324478	1.21421	-0.15627	0.0928153	0.332747	1.03177	-0.65259	-0.486933	0.532779	0.765038	
0.658833	4.50592	0	0	0.295069	0.409913	-0.170711	0.441924	-0.198314	-0.619908	-0.367524	0.0248455	0.841028	0.18675	-0.050244	0.774844	0.981978	0.533543	0.326885	0.898891	0.51429	0.255427	1.25156	2.00497	0.488057	-0.35986	0.32833	1.21757	-0.156114	0.0800335	0.330047	1.02981	-0.666355	-0.486293	0.522285	0.766497	
0.654321	4.50439	0	0	0.297698	0.415467	-0.168881	0.4464	-0.201972	-0.622106	-0.368455	0.0274773	0.84057	0.175044	-0.054822	0.770511	0.989213	0.526398	0.3167	0.90284	0.523744	0.253979	1.26528	1.99964	0.497248	-0.369063	0.332182	1.22093	-0.155957	0.0672517	0.327348	1.02785	-0.680121	-0.485654	0.51179	0.767955	
0.64986	4.50592	0	0	0.300327	0.421021	-0.167051	0.450876	-0.205631	-0.624305	-0.369386	0.030109	0.840111	0.163339	-0.0594	0.766179	0.996447	0.519252	0.306515	0.906789	0.533199	0.252532	1.27901	1.99431	0.506439	-0.378265	0.336034	1.22429	-0.1558	0.05447	0.324648	1.0259	-0.693887	-0.485015	0.501296	0.769414	
0.645638	4.50592	0	0	0.304468	0.435312	-0.157741	0.492241	-0.206201	-0.610155	-0.37097	0.045323	0.835875	0.149335	-0.063974	0.761852	0.983658	0.515528	0.304539	0.899969	0.533571	0.264128	1.27565	2.0038	0.520428	-0.384208	0.334681	1.22811	-0.16699	0.0491257	0.314846	1.02486	-0.702464	-0.489424	0.491647	0.768528	
0.64167	4.51202	0	0	0.308609	0.449604	-0.148431	0.533606	-0.206771	-0.596005	-0.372553	0.060537	0.831638	0.135331	-0.068548	0.757525	0.970868	0.511804	0.302562	0.89315	0.533944	0.275724	1.2723	2.01328	0.534416	-0.390151	0.333328	1.23194	-0.178179	0.0437815	0.305044	1.02383	-0.71104	-0.493833	0.481997	0.767642	
0.637931	4.51965	0	0	0.312751	0.463895	-0.13912	0.574972	-0.207342	-0.581854	-0.374136	0.075751	0.827402	0.121328	-0.073122	0.753198	0.958079	0.508079	0.300586	0.886331	0.534316	0.28732	1.26894	2.02277	0.548404	-0.396095	0.331975	1.23576	-0.189369	0.0384372	0.295241	1.02279	-0.719616	-0.498243	0.472348	0.766756	
0.6344	4.53186	0	0	0.316892	0.478187	-0.12981	0.616337	-0.207912	-0.567704	-0.37572	0.090965	0.823165	0.107324	-0.077696	0.748871	0.94529	0.504355	0.29861	0.879511	0.534689	0.298916	1.26559	2.03226	0.562393	-0.402038	0.330622	1.23959	-0.200559	0.033093	0.285439	1.02176	-0.728193	-0.502652	0.462699	0.76587	
0.631052	4.53491	0	0	0.314653	0.484514	-0.141352	0.629595	-0.20897	-0.564714	-0.383464	0.10211	0.814528	0.105792	-0.071438	0.748439	0.947511	0.498077	0.294148	0.879725	0.529958	0.299638	1.27934	2.02692	0.565715	-0.394608	0.329269	1.24341	-0.204284	0.0313135	0.28189	1.02222	-0.736972	-0.496916	0.458384	0.76869	
0.627916	4.54864	0	0	0.312415	0.490841	-0.152894	0.642852	-0.210029	-0.561724	-0.391207	0.113256	0.805891	0.10426	-0.06518	0.748007	0.949732	0.491799	0.289686	0.87994	0.525227	0.30036	1.29309	2.02158	0.569036	-0.387178	0.327915	1.24724	-0.208008	0.029534	0.278342	1.02268	-0.74575	-0.491179	0.454068	0.77151	
0.625239	4.55322	0	0	0.310176	0.497168	-0.164436	0.65611	-0.211087	-0.558733	-0.39895	0.124401	0.797254	0.102728	-0.058922	0.747574	0.951954	0.48552	0.285224	0.880154	0.520495	0.301082	1.30684	2.01624	0.572358	-0.379749	0.326562	1.25106	-0.211733	0.0277545	0.274793	1.02314	-0.754529	-0.485443	0.449752	0.774329	
0.623325	4.56238	0	0	0.307937	0.503495	-0.175978	0.669367	-0.212145	-0.555743	-0.406694	0.135546	0.788617	0.101196	-0.052664	0.747142	0.954175	0.479242	0.280762	0.880368	0.515764	0.301804	1.3206	2.01091	0.57568	-0.372319	0.325208	1.25489	-0.215458	0.025975	0.271244	1.0236	-0.763308	-0.479707	0.445437	0.777149	
0.622477	4.57001	0	0	0.300449	0.498663	-0.192146	0.657096	-0.221567	-0.554184	-0.409766	0.133495	0.782191	0.0934523	-0.061812	0.738504	0.941411	0.475531	0.275572	0.870268	0.516854	0.298723	1.32496	2.01536	0.581953	-0.373215	0.323854	1.25872	-0.222088	0.0324133	0.263298	1.02694	-0.764844	-0.475367	0.44461	0.779486	
0.623	4.57153	0	0	0.29296	0.493831	-0.208313	0.644826	-0.230988	-0.552625	-0.412837	0.131445	0.775765	0.0857085	-0.07096	0.729866	0.928647	0.47182	0.270381	0.860168	0.517945	0.295642	1.32933	2.01981	0.588226	-0.374111	0.322499	1.26254	-0.228718	0.0388515	0.255352	1.03027	-0.766379	-0.471028	0.443783	0.781824	
0.625081	4.57916	0	0	0.285471	0.489	-0.224481	0.632555	-0.24041	-0.551065	-0.415909	0.129395	0.769339	0.0779647	-0.080108	0.721227	0.915883	0.468108	0.265191	0.850068	0.519035	0.29256	1.33369	2.02426	0.5945	-0.375007	0.321145	1.26637	-0.235347	0.0452898	0.247406	1.03361	-0.767914	-0.466689	0.442956	0.784161	
0.628444	4.58526	0	0	0.277983	0.484168	-0.240649	0.620284	-0.249832	-0.549506	-0.418981	0.127344	0.762913	0.070221	-0.089256	0.712589	0.903119	0.464397	0.260001	0.839968	0.520125	0.289479	1.33805	2.02872	0.600773	-0.375903	0.319791	1.2702	-0.241977	0.051728	0.23946	1.03694	-0.76945	-0.462349	0.442129	0.786499	
0.632699	4.59137	0	0	0.27536	0.478598	-0.23628	0.607937	-0.244065	-0.553274	-0.425119	0.123247	0.756494	0.0624938	-0.0983887	0.703972	0.891491	0.457561	0.247157	0.826829	0.515397	0.2902	1.33201	2.02901	0.610001	-0.385136	0.312096	1.26346	-0.253123	0.0463825	0.228717	1.02911	-0.78391	-0.459571	0.422067	0.787038	
0.637453	4.60052	0	0	0.272737	0.473027	-0.231911	0.59559	-0.238298	-0.557043	-0.431258	0.11915	0.750074	0.0547665	-0.107522	0.695354	0.879862	0.450726	0.234314	0.81369	0.510669	0.290922	1.32596	2.02931	0.61923	-0.394369	0.304402	1.25673	-0.264269	0.041037	0.217973	1.02129	-0.79837	-0.456793	0.402006	0.787576	
0.642314	4.60968	0	0	0.270114	0.467456	-0.227543	0.583243	-0.232531	-0.560811	-0.437397	0.115052	0.743655	0.0470393	-0.116654	0.686737	0.868234	0.44389	0.22147	0.800551	0.505942	0.291643	1.31992	2.02961	0.628459	-0.403603	0.296708	1.25	-0.275415	0.0356915	0.20723	1.01346	-0.812831	-0.454015	0.381945	0.788115	
0.646914	4.61273	0	0	0.267491	0.461886	-0.223174	0.570896	-0.226764	-0.564579	-0.443535	0.110955	0.737236	0.039312	-0.125787	0.67812	0.856606	0.437054	0.208626	0.787412	0.501214	0.292365	1.31387	2.0299	0.637687	-0.412836	0.289013	1.24326	-0.286561	0.030346	0.196487	1.00564	-0.827291	-0.451237	0.361883	0.788654	
0.651025	4.62494	0	0	0.260016	0.457069	-0.232119	0.567262	-0.233589	-0.557822	-0.447534	0.111542	0.737236	0.039312	-0.124111	0.673383	0.847763	0.435627	0.202215	0.780861	0.497579	0.290007	1.32765	2.02455	0.646922	-0.422072	0.290365	1.23944	-0.292046	0.0213248	0.185765	0.997832	-0.830677	-0.460682	0.355588	0.77843	
0.654472	4.62494	0	0	0.252542	0.452252	-0.241064	0.563627	-0.240414	-0.551064	-0.451533	0.112129	0.737236	0.039312	-0.122436	0.668647	0.83892	0.434199	0.195804	0.774309	0.493944	0.287649	1.34143	2.0192	0.656157	-0.431307	0.291717	1.23562	-0.297532	0.0123035	0.175043	0.990025	-0.834064	-0.470128	0.349293	0.768207	
0.65708	4.57611	0	0	0.245067	0.447435	-0.250009	0.559993	-0.247238	-0.544307	-0.455531	0.112717	0.737236	0.039312	-0.12076	0.663911	0.830077	0.432771	0.189393	0.767758	0.490308	0.285291	1.35521	2.01385	0.665392	-0.440543	0.293068	1.2318	-0.303017	0.00328225	0.164321	0.982218	-0.83745	-0.479573	0.342997	0.757983	
0.658676	4.60968	0	0	0.237593	0.442618	-0.258954	0.556359	-0.254063	-0.537549	-0.45953	0.113304	0.737236	0.039312	-0.119084	0.659174	0.821234	0.431344	0.182982	0.761207	0.486673	0.282933	1.36899	2.0085	0.674627	-0.449779	0.29442	1.22798	-0.308502	-0.005739	0.153599	0.974411	-0.840836	-0.489019	0.336702	0.747759	
0.659107	4.63104	0	0	0.229015	0.440957	-0.264258	0.561719	-0.25618	-0.531567	-0.472181	0.127649	0.739896	0.0447245	-0.114517	0.663475	0.81737	0.429069	0.182982	0.761207	0.477234	0.28437	1.37168	2.01772	0.690171	-0.459936	0.306176	1.22323	-0.312208	-0.007514	0.148246	0.970514	-0.839305	-0.493347	0.331411	0.744059	
0.658593	4.62036	0	0	0.220436	0.439296	-0.269561	0.567079	-0.258296	-0.525586	-0.484832	0.141994	0.742556	0.050137	-0.109951	0.667776	0.813505	0.426795	0.182982	0.761207	0.467796	0.285807	1.37437	2.02693	0.705715	-0.470093	0.317932	1.21849	-0.315914	-0.009289	0.142893	0.966618	-0.837773	-0.497674	0.32612	0.740359	
0.657647	4.61578	0	0	0.211858	0.437634	-0.274864	0.57244	-0.260412	-0.519604	-0.497483	0.156339	0.745216	0.0555495	-0.105385	0.672077	0.80964	0.424521	0.182982	0.761207	0.458357	0.287245	1.37706	2.03614	0.721258	-0.480249	0.329688	1.21375	-0.319621	-0.011064	0.13754	0.962721	-0.836242	-0.502002	0.320828	0.736659	
0.656793	4.6051	0	0	0.20328	0.435973	-0.280168	0.5778	-0.262529	-0.513622	-0.510134	0.170684	0.747876	0.060962	-0.100818	0.676378	0.805776	0.422246	0.182982	0.761207	0.448918	0.288682	1.37975	2.04535	0.736802	-0.490406	0.341444	1.209	-0.323327	-0.012839	0.132187	0.958824	-0.834711	-0.50633	0.315537	0.732959	
0.656554	4.59595	0	0	0.200666	0.430422	-0.29532	0.572557	-0.267234	-0.512848	-0.516246	0.166574	0.744582	0.0702727	-0.105854	0.69061	0.798603	0.429333	0.177311	0.764913	0.447829	0.291758	1.3902	2.04952	0.733854	-0.482075	0.343946	1.21619	-0.320587	-0.0083335	0.134863	0.960772	-0.837774	-0.497672	0.313891	0.737613	
0.657447	4.58984	0	0	0.198051	0.424871	-0.310473	0.567314	-0.271938	-0.512074	-0.522359	0.162465	0.741287	0.0795835	-0.11089	0.704842	0.79143	0.436419	0.171639	0.768619	0.446741	0.294833	1.40064	2.05368	0.730906	-0.473745	0.346449	1.22337	-0.317847	-0.003828	0.137539	0.962719	-0.840838	-0.489014	0.312244	0.742266	
0.659633	4.57764	0	0	0.195437	0.41932	-0.325626	0.562072	-0.276643	-0.511299	-0.528471	0.158355	0.737992	0.0888943	-0.115926	0.719074	0.784256	0.443505	0.165967	0.772325	0.445653	0.297909	1.41109	2.05784	0.727959	-0.465414	0.348951	1.23055	-0.315107	0.0006775	0.140215	0.964667	-0.843901	-0.480357	0.310597	0.74692	
0.662714	4.57153	0	0	0.192823	0.413769	-0.340778	0.556829	-0.281347	-0.510525	-0.534584	0.154245	0.734698	0.098205	-0.120962	0.733306	0.777083	0.450592	0.160296	0.776031	0.444564	0.300985	1.42153	2.06201	0.725011	-0.457083	0.351453	1.23774	-0.312367	0.005183	0.142891	0.966615	-0.846965	-0.471699	0.308951	0.751574	
0.666243	4.56695	0	0	0.187985	0.414513	-0.345263	0.550311	-0.280289	-0.513515	-0.538828	0.144881	0.730944	0.0958853	-0.123845	0.724249	0.772123	0.451434	0.150704	0.766219	0.442386	0.30714	1.4276	2.0617	0.732793	-0.462168	0.355512	1.22627	-0.319938	0.0143307	0.137663	0.97188	-0.850031	-0.463033	0.302021	0.752524	
0.669771	4.56238	0	0	0.183146	0.415256	-0.349747	0.543794	-0.279231	-0.516506	-0.543073	0.135517	0.727189	0.0935655	-0.126728	0.715191	0.767162	0.452276	0.141113	0.756407	0.440209	0.313295	1.43368	2.0614	0.740576	-0.467253	0.359571	1.2148	-0.32751	0.0234785	0.132435	0.977145	-0.853098	-0.454367	0.29509	0.753475	
0.67285	4.55322	0	0	0.178308	0.415999	-0.354231	0.537276	-0.278173	-0.519496	-0.547318	0.126153	0.723435	0.0912458	-0.129612	0.706133	0.762202	0.453118	0.131521	0.746595	0.438031	0.31945	1.43975	2.0611	0.748358	-0.472339	0.36363	1.20332	-0.335081	0.0326262	0.127207	0.98241	-0.856164	-0.4457	0.28816	0.754425	
0.675128	4.54712	0	0	0.17347	0.416743	-0.358716	0.530758	-0.277115	-0.522486	-0.551562	0.116789	0.719681	0.088926	-0.132495	0.697076	0.757242	0.45396	0.12193	0.736783	0.435853	0.325605	1.44582	2.0608	0.756141	-0.477424	0.367689	1.19185	-0.342652	0.041774	0.121979	0.987675	-0.859231	-0.437034	0.28123	0.755375	
0.676703	4.54254	0	0	0.167523	0.420629	-0.361391	0.528731	-0.283932	-0.515733	-0.555543	0.11737	0.722336	0.0943515	-0.132495	0.697076	0.757242	0.45396	0.123161	0.733302	0.430051	0.329396	1.45968	2.05541	0.763931	-0.482514	0.370392	1.18421	-0.346353	0.0399917	0.113114	0.984228	-0.859771	-0.445008	0.277597	0.747027	
0.677805	4.53796	0	0	0.161577	0.424515	-0.364067	0.526703	-0.290749	-0.508979	-0.559524	0.11795	0.724992	0.099777	-0.132495	0.697076	0.757242	0.45396	0.124393	0.729821	0.424249	0.333187	1.47354	2.05003	0.771721	-0.487604	0.373096	1.17657	-0.350054	0.0382095	0.104248	0.980782	-0.86031	-0.452982	0.273964	0.738679	
0.678664	4.53186	0	0	0.15563	0.4284	-0.366743	0.524676	-0.297567	-0.502225	-0.563505	0.11853	0.727647	0.105203	-0.132495	0.697076	0.757242	0.45396	0.125625	0.72634	0.418447	0.336978	1.48739	2.04464	0.77951	-0.492694	0.375799	1.16893	-0.353754	0.0364273	0.0953833	0.977336	-0.86085	-0.460957	0.27033	0.730331	
0.679512	4.52118	0	0	0.149683	0.432286	-0.369418	0.522649	-0.304384	-0.495472	-0.567486	0.119111	0.730302	0.110628	-0.132495	0.697076	0.757242	0.45396	0.126856	0.722859	0.412645	0.340769	1.50125	2.03926	0.7873	-0.497784	0.378502	1.16129	-0.357455	0.034645	0.086518	0.973889	-0.86139	-0.468931	0.266697	0.721983	
0.680572	4.52423	0	0	0.142627	0.439314	-0.372832	0.541886	-0.306501	-0.489488	-0.571208	0.12963	0.731858	0.119171	-0.127932	0.701387	0.756138	0.457081	0.124392	0.729823	0.412645	0.340769	1.50565	2.04372	0.789193	-0.486194	0.390289	1.15653	-0.357455	0.034645	0.0873677	0.971487	-0.867831	-0.469714	0.261423	0.71829	
0.681887	4.51965	0	0	0.135572	0.446342	-0.376246	0.561123	-0.308619	-0.483505	-0.57493	0.140149	0.733413	0.127713	-0.123369	0.705698	0.755033	0.460201	0.121928	0.736786	0.412645	0.340769	1.51005	2.04819	0.791085	-0.474603	0.402075	1.15176	-0.357455	0.034645	0.0882175	0.969086	-0.874273	-0.470496	0.256149	0.714597	
0.683328	4.51507	0	0	0.128516	0.453371	-0.37966	0.58036	-0.310736	-0.477522	-0.578652	0.150668	0.734969	0.136256	-0.118807	0.710009	0.753929	0.463322	0.119465	0.743749	0.412645	0.340769	1.51446	2.05266	0.792978	-0.463012	0.413861	1.147	-0.357455	0.034645	0.0890673	0.966684	-0.880714	-0.471279	0.250875	0.710905	
0.684753	4.51355	0	0	0.12146	0.460399	-0.383074	0.599597	-0.312853	-0.471538	-0.582374	0.161187	0.736525	0.144798	-0.114244	0.71432	0.752824	0.466443	0.117001	0.750713	0.412645	0.340769	1.51886	2.05712	0.794871	-0.451422	0.425648	1.14223	-0.357455	0.034645	0.089917	0.964282	-0.887155	-0.472062	0.245601	0.707212	
0.686026	4.5227	0	0	0.119233	0.466693	-0.383888	0.61149	-0.313912	-0.468545	-0.595229	0.165542	0.734323	0.151022	-0.120967	0.733321	0.749509	0.475812	0.113301	0.761168	0.418802	0.34859	1.52327	2.06159	0.801609	-0.436539	0.42952	1.14558	-0.360356	0.042842	0.0908868	0.971037	-0.88148	-0.469114	0.242146	0.707686	
0.687006	4.52728	0	0	0.117006	0.472986	-0.384701	0.623382	-0.314971	-0.465551	-0.608084	0.169897	0.73212	0.157245	-0.127691	0.752323	0.746193	0.485182	0.109602	0.771624	0.424959	0.35641	1.52767	2.06607	0.808348	-0.421656	0.433393	1.14892	-0.363256	0.051039	0.0918565	0.977791	-0.875805	-0.466166	0.23869	0.708161	
0.687599	4.54407	0	0	0.114779	0.47928	-0.385514	0.635275	-0.31603	-0.462557	-0.62094	0.174252	0.729918	0.163469	-0.134414	0.771324	0.742878	0.494551	0.105902	0.782079	0.431116	0.364231	1.53208	2.07054	0.815087	-0.406773	0.437265	1.15227	-0.366156	0.059236	0.0928262	0.984546	-0.87013	-0.463218	0.235235	0.708635	
0.687875	4.56543	0	0	0.112552	0.485574	-0.386328	0.647167	-0.317089	-0.459564	-0.633795	0.178607	0.727716	0.169692	-0.141137	0.790325	0.739563	0.503921	0.102203	0.792534	0.437273	0.372052	1.53648	2.07501	0.821825	-0.39189	0.441137	1.15561	-0.369057	0.067433	0.093796	0.991301	-0.864455	-0.46027	0.231779	0.70911	
0.68795	4.58679	0	0	0.106613	0.489454	-0.392597	0.63612	-0.320727	-0.461789	-0.634975	0.171296	0.729918	0.163469	-0.144012	0.781245	0.743416	0.50621	0.100246	0.785775	0.439808	0.377512	1.5392	2.08428	0.817378	-0.379321	0.445012	1.15896	-0.376623	0.076581	0.0886882	1.00574	-0.870358	-0.453082	0.227672	0.720716	
0.687937	4.59595	0	0	0.100675	0.493335	-0.398867	0.625073	-0.324364	-0.464014	-0.636155	0.163985	0.73212	0.157245	-0.146888	0.772165	0.747269	0.508499	0.098289	0.779015	0.442342	0.382972	1.54191	2.09354	0.81293	-0.366751	0.448887	1.16231	-0.384188	0.085729	0.0835805	1.02017	-0.876262	-0.445894	0.223566	0.732322	
0.687949	4.61731	0	0	0.0947365	0.497215	-0.405137	0.614025	-0.328002	-0.46624	-0.637335	0.156674	0.734323	0.151022	-0.149763	0.763084	0.751121	0.510788	0.096332	0.772256	0.444877	0.388431	1.54463	2.10281	0.808482	-0.354182	0.452762	1.16566	-0.391753	0.094877	0.0784728	1.03461	-0.882165	-0.438707	0.219459	0.743927	
0.688096	4.62952	0	0	0.088798	0.501095	-0.411406	0.602978	-0.331639	-0.468465	-0.638515	0.149363	0.736525	0.144798	-0.152638	0.754004	0.754974	0.513077	0.094375	0.765497	0.447411	0.393891	1.54734	2.11208	0.804035	-0.341612	0.456637	1.16901	-0.399319	0.104025	0.073365	1.04904	-0.888068	-0.431519	0.215352	0.755533	
0.688384	4.6402	0	0	0.0828635	0.504973	-0.416741	0.598905	-0.336332	-0.467698	-0.639445	0.15199	0.737625	0.141688	-0.15887	0.754427	0.753867	0.516204	0.094375	0.765497	0.451039	0.396268	1.55006	2.12136	0.799581	-0.329025	0.453928	1.17667	-0.4067	0.100442	0.0698465	1.04949	-0.900931	-0.433101	0.216995	0.750889	
0.688718	4.64935	0	0	0.076929	0.50885	-0.422077	0.594832	-0.341025	-0.466931	-0.640374	0.154617	0.738725	0.138578	-0.165102	0.75485	0.75276	0.519332	0.094375	0.765497	0.454668	0.398645	1.55277	2.13065	0.795127	-0.316438	0.451219	1.18432	-0.414081	0.096858	0.066328	1.04994	-0.913793	-0.434682	0.218639	0.746244	
0.688998	4.6524	0	0	0.0709945	0.512728	-0.427413	0.59076	-0.345717	-0.466165	-0.641304	0.157244	0.739826	0.135468	-0.171335	0.755274	0.751654	0.52246	0.094375	0.765497	0.458296	0.401023	1.55549	2.13994	0.790673	-0.303851	0.44851	1.19198	-0.421462	0.0932745	0.0628095	1.05039	-0.926656	-0.436264	0.220282	0.7416	
0.689126	4.65851	0	0	0.06506	0.516606	-0.432748	0.586687	-0.35041	-0.465398	-0.642233	0.159871	0.740926	0.132358	-0.177567	0.755697	0.750547	0.525587	0.094375	0.765497	0.461925	0.4034	1.5582	2.14922	0.786219	-0.291264	0.445801	1.19963	-0.428843	0.089691	0.059291	1.05083	-0.939519	-0.437846	0.221925	0.736956	
0.689002	4.65851	0	0	0.06506	0.516606	-0.436227	0.59652	-0.35041	-0.465398	-0.644093	0.165128	0.742026	0.129249	-0.169655	0.750527	0.750547	0.525587	0.0975655	0.76877	0.45755	0.415765	1.56091	2.15853	0.785111	-0.271145	0.44832	1.20683	-0.431564	0.085171	0.0636613	1.04798	-0.940818	-0.443647	0.222747	0.734635	
0.68856	4.65698	0	0	0.06506	0.516606	-0.439707	0.606352	-0.35041	-0.465398	-0.645953	0.170384	0.743127	0.12614	-0.161743	0.745357	0.750547	0.525587	0.100756	0.772042	0.453174	0.42813	1.56362	2.16783	0.784002	-0.251026	0.450839	1.21402	-0.434284	0.080651	0.0680315	1.04512	-0.942117	-0.449448	0.223568	0.732314	
0.687869	4.65546	0	0	0.06506	0.516606	-0.443186	0.616185	-0.35041	-0.465398	-0.647813	0.175641	0.744227	0.123031	-0.153832	0.740188	0.750547	0.525587	0.103946	0.775315	0.448799	0.440495	1.56634	2.17713	0.782893	-0.230906	0.453357	1.22121	-0.437005	0.076131	0.0724018	1.04227	-0.943415	-0.455249	0.224389	0.729993	
0.687033	4.64935	0	0	0.06506	0.516606	-0.446665	0.626018	-0.35041	-0.465398	-0.649673	0.180897	0.745327	0.119922	-0.14592	0.735018	0.750547	0.525587	0.107137	0.778588	0.444424	0.45286	1.56905	2.18644	0.781785	-0.210787	0.455876	1.2284	-0.439726	0.071611	0.076772	1.03941	-0.944714	-0.46105	0.225211	0.727672	
0.686156	4.6463	0	0	0.0624693	0.511043	-0.447648	0.609663	-0.357671	-0.469844	-0.654817	0.17416	0.739372	0.123813	-0.161736	0.745353	0.746695	0.523296	0.101481	0.782284	0.440799	0.450474	1.57346	2.19095	0.794836	-0.196618	0.449085	1.2476	-0.441658	0.0770715	0.0777358	1.04619	-0.947542	-0.462525	0.226201	0.734166	
0.685343	4.63562	0	0	0.0598785	0.505479	-0.448631	0.593309	-0.364932	-0.474291	-0.65996	0.167423	0.733416	0.127704	-0.177553	0.755687	0.742843	0.521005	0.095824	0.78598	0.437173	0.448089	1.57788	2.19546	0.807886	-0.182449	0.442294	1.26679	-0.44359	0.082532	0.0786995	1.05297	-0.95037	-0.464	0.227191	0.74066	
0.684695	4.63409	0	0	0.0572878	0.499916	-0.449614	0.576954	-0.372193	-0.478737	-0.665104	0.160685	0.727461	0.131596	-0.193369	0.766022	0.738992	0.518713	0.0901675	0.789677	0.433548	0.445703	1.58229	2.19997	0.820937	-0.168279	0.435502	1.28598	-0.445523	0.0879925	0.0796633	1.05974	-0.953198	-0.465474	0.228181	0.747153	
0.68429	4.62494	0	0	0.054697	0.494352	-0.450597	0.560599	-0.379454	-0.483184	-0.670248	0.153948	0.721506	0.135487	-0.209185	0.776357	0.73514	0.516422	0.084511	0.793373	0.429923	0.443317	1.58671	2.20448	0.833988	-0.15411	0.428711	1.30517	-0.447455	0.093453	0.080627	1.06652	-0.956026	-0.466949	0.229171	0.753647	
0.684173	4.61731	0	0	0.0435993	0.487114	-0.458647	0.545142	-0.387761	-0.484642	-0.669571	0.141407	0.728561	0.128488	-0.204152	0.762132	0.728549	0.508723	0.086977	0.786404	0.414355	0.436874	1.58942	2.21381	0.8295	-0.141427	0.42599	1.31286	-0.451138	0.091662	0.0762545	1.06938	-0.973195	-0.465688	0.229171	0.753647	
0.684393	4.60815	0	0	0.0325015	0.479876	-0.466696	0.529685	-0.396068	-0.486099	-0.668894	0.128867	0.735615	0.121488	-0.199119	0.747908	0.721958	0.501025	0.089443	0.779435	0.398786	0.430431	1.59214	2.22315	0.825013	-0.128745	0.42327	1.32055	-0.454822	0.089871	0.071882	1.07223	-0.990364	-0.464427	0.229171	0.753647	
0.684996	4.60358	0	0	0.0214038	0.472637	-0.474745	0.514228	-0.404375	-0.487557	-0.668218	0.116326	0.74267	0.114489	-0.194086	0.733683	0.715366	0.493327	0.091909	0.772466	0.383217	0.423989	1.59485	2.23248	0.820526	-0.116062	0.42055	1.32824	-0.458506	0.08808	0.0675095	1.07509	-1.00753	-0.463166	0.229171	0.753647	
0.68603	4.60358	0	0	0.010306	0.465399	-0.482795	0.498771	-0.412682	-0.489014	-0.667541	0.103786	0.749725	0.10749	-0.189053	0.719459	0.708775	0.485628	0.094375	0.765497	0.367649	0.417546	1.59756	2.24181	0.816038	-0.10338	0.417829	1.33593	-0.462189	0.086289	0.063137	1.07795	-1.0247	-0.461905	0.229171	0.753647	
0.687506	4.60052	0	0	0.0099385	0.453587	-0.487185	0.50164	-0.40589	-0.495745	-0.667541	0.103786	0.755684	0.103596	-0.179473	0.709557	0.698352	0.475667	0.0987988	0.765285	0.35464	0.41657	1.59415	2.25146	0.817891	-0.0915693	0.415106	1.34363	-0.459293	0.0781045	0.065694	1.07072	-1.03315	-0.466328	0.231636	0.74668	
0.689303	4.60815	0	0	0.009571	0.441775	-0.491576	0.504509	-0.399099	-0.502476	-0.667541	0.103786	0.761644	0.0997025	-0.169892	0.699656	0.687928	0.465705	0.103222	0.765073	0.341631	0.415593	1.59074	2.2611	0.819745	-0.0797585	0.412383	1.35132	-0.456397	0.06992	0.068251	1.0635	-1.0416	-0.470751	0.234102	0.739713	
0.691269	4.61578	0	0	0.0092035	0.429964	-0.495967	0.507377	-0.392307	-0.509208	-0.667541	0.103786	0.767603	0.0958087	-0.160311	0.689755	0.677505	0.455744	0.107646	0.76486	0.328621	0.414617	1.58732	2.27075	0.821598	-0.0679478	0.40966	1.35902	-0.453501	0.0617355	0.070808	1.05627	-1.05005	-0.475174	0.236567	0.732746	
0.693253	4.62189	0	0	0.008836	0.418152	-0.500357	0.510246	-0.385515	-0.515939	-0.667541	0.103786	0.773563	0.091915	-0.150731	0.679853	0.667082	0.445783	0.11207	0.764648	0.315612	0.413641	1.58391	2.28039	0.823451	-0.056137	0.406937	1.36671	-0.450605	0.053551	0.073365	1.04904	-1.05849	-0.479597	0.239032	0.725779	
0.695104	4.63257	0	0	-0.00076375	0.41961	-0.499373	0.526548	-0.392307	-0.509208	-0.677316	0.110173	0.777327	0.0942352	-0.152407	0.684589	0.663245	0.443506	0.114029	0.771409	0.30874	0.420499	1.58662	2.28976	0.830155	-0.040938	0.408076	1.37782	-0.445954	0.052609	0.0768855	1.04859	-1.05339	-0.484586	0.244132	0.720662	
0.696671	4.63714	0	0	-0.0103635	0.421069	-0.498389	0.542851	-0.399099	-0.502476	-0.687091	0.11656	0.78109	0.0965555	-0.154083	0.689326	0.659408	0.441229	0.115988	0.778169	0.301868	0.427358	1.58933	2.29913	0.836858	-0.025739	0.409215	1.38892	-0.441304	0.051667	0.080406	1.04814	-1.04829	-0.489575	0.249232	0.715545	
0.697893	4.64783	0	0	-0.0199633	0.422527	-0.497405	0.559153	-0.40589	-0.495745	-0.696865	0.122947	0.784853	0.0988757	-0.155759	0.694063	0.655571	0.438951	0.117948	0.78493	0.294995	0.434217	1.59203	2.30849	0.843562	-0.01054	0.410353	1.40002	-0.436654	0.050725	0.0839265	1.0477	-1.04319	-0.494564	0.254332	0.710428	
0.698799	4.65088	0	0	-0.029563	0.423985	-0.496421	0.575456	-0.412682	-0.489014	-0.70664	0.129334	0.788617	0.101196	-0.157435	0.698799	0.651734	0.436674	0.119907	0.791691	0.288123	0.441075	1.59474	2.31786	0.850265	0.004659	0.411492	1.41113	-0.432003	0.049783	0.087447	1.04725	-1.03809	-0.499553	0.259432	0.705311	
0.699426	4.64935	0	0	-0.0273487	0.417727	-0.492952	0.565653	-0.415248	-0.494216	-0.705965	0.116816	0.784853	0.0988757	-0.161988	0.694494	0.6479	0.434398	0.122375	0.784717	0.290634	0.446543	1.59132	2.32753	0.852112	0.0165365	0.407396	1.4227	-0.428315	0.0515683	0.091935	1.05358	-1.02811	-0.49945	0.254332	0.710428	
0.699811	4.64935	0	0	-0.0251345	0.411469	-0.489483	0.55585	-0.417814	-0.499417	-0.70529	0.104298	0.78109	0.0965555	-0.166542	0.690188	0.644065	0.432122	0.124842	0.777743	0.293145	0.452011	1.5879	2.3372	0.853958	0.028414	0.4033	1.43428	-0.424626	0.0533535	0.096423	1.05991	-1.01813	-0.499347	0.249232	0.715545	
0.699989	4.6463	0	0	-0.0229202	0.40521	-0.486015	0.546047	-0.420381	-0.504619	-0.704614	0.0917793	0.777327	0.0942352	-0.171096	0.685883	0.640231	0.429847	0.12731	0.770768	0.295655	0.457479	1.58447	2.34687	0.855805	0.0402915	0.399204	1.44585	-0.420937	0.0551388	0.100911	1.06624	-1.00814	-0.499244	0.244132	0.720662	
0.699998	4.64172	0	0	-0.020706	0.398952	-0.482546	0.536244	-0.422947	-0.50982	-0.703939	0.079261	0.773563	0.091915	-0.175649	0.681578	0.636397	0.427571	0.129778	0.763794	0.298166	0.462947	1.58105	2.35654	0.857651	0.052169	0.395108	1.45743	-0.417249	0.056924	0.105399	1.07257	-0.998162	-0.499141	0.239032	0.725779	
0.699879	4.63562	0	0	-0.020706	0.398952	-0.485268	0.524854	-0.426567	-0.512037	-0.701164	0.071417	0.774662	0.088808	-0.172301	0.672118	0.642432	0.423628	0.126584	0.760524	0.298166	0.462947	1.58375	2.36595	0.851289	0.0530527	0.388517	1.46174	-0.419007	0.0496847	0.108811	1.06293	-1.00304	-0.504234	0.240674	0.721137	
0.699672	4.63104	0	0	-0.020706	0.398952	-0.48799	0.513464	-0.430187	-0.514253	-0.698388	0.063573	0.775761	0.085701	-0.168954	0.662657	0.648467	0.419685	0.123389	0.757254	0.298166	0.462947	1.58645	2.37535	0.844928	0.0539365	0.381925	1.46604	-0.420766	0.0424455	0.112222	1.05329	-1.00792	-0.509328	0.242316	0.716495	
0.69942	4.61731	0	0	-0.020706	0.398952	-0.490713	0.502073	-0.433806	-0.51647	-0.695612	0.055729	0.776861	0.082594	-0.165606	0.653196	0.654501	0.415741	0.120195	0.753983	0.298166	0.462947	1.58915	2.38475	0.838566	0.0548203	0.375333	1.47035	-0.422525	0.0352063	0.115634	1.04365	-1.0128	-0.514421	0.243959	0.711854	
0.699165	4.61426	0	0	-0.020706	0.398952	-0.493435	0.490683	-0.437426	-0.518686	-0.692837	0.047885	0.77796	0.079487	-0.162259	0.643736	0.660536	0.411798	0.117001	0.750713	0.298166	0.462947	1.59185	2.39416	0.832204	0.055704	0.368742	1.47466	-0.424283	0.027967	0.119045	1.03401	-1.01768	-0.519514	0.245601	0.707212	
0.698949	4.60358	0	0	-0.020706	0.398952	-0.497823	0.49355	-0.436372	-0.521664	-0.695612	0.055729	0.781724	0.0818052	-0.163932	0.648465	0.654501	0.415741	0.125859	0.750282	0.297075	0.466031	1.59455	2.40358	0.830698	0.0599615	0.373967	1.47421	-0.421391	0.0197927	0.123424	1.03115	-1.01539	-0.525971	0.24988	0.704416	
0.698799	4.59442	0	0	-0.020706	0.398952	-0.502212	0.496418	-0.435318	-0.524643	-0.698388	0.063573	0.785489	0.0841235	-0.165605	0.653194	0.648467	0.419685	0.134717	0.749852	0.295983	0.469116	1.59725	2.413	0.829191	0.064219	0.379192	1.47377	-0.418498	0.0116185	0.127803	1.02828	-1.01311	-0.532427	0.254159	0.70162	
0.698722	4.58221	0	0	-0.020706	0.398952	-0.5066	0.499285	-0.434264	-0.527621	-0.701164	0.071417	0.789254	0.0864418	-0.167279	0.657923	0.642432	0.423628	0.143576	0.749421	0.294891	0.4722	1.59995	2.42242	0.827684	0.0684765	0.384417	1.47332	-0.415606	0.00344425	0.132183	1.02542	-1.01082	-0.538884	0.258437	0.698825	
0.698717	4.56848	0	0	-0.020706	0.398952	-0.510988	0.502152	-0.43321	-0.5306	-0.703939	0.079261	0.793018	0.08876	-0.168952	0.662652	0.636397	0.427571	0.152434	0.74899	0.2938	0.475284	1.60265	2.43184	0.826178	0.072734	0.389642	1.47288	-0.412714	-0.00473	0.136562	1.02256	-1.00854	-0.54534	0.262716	0.696029	
0.698788	4.56238	0	0	-0.0280815	0.394158	-0.524196	0.501392	-0.440443	-0.535025	-0.705119	0.0719927	0.791918	0.091869	-0.170626	0.667384	0.636397	0.427571	0.149966	0.755964	0.288018	0.479063	1.59749	2.44641	0.818317	0.0778707	0.386907	1.48061	-0.411751	-0.00745325	0.140091	1.02211	-1.0093	-0.543189	0.268816	0.697396	
0.698935	4.55322	0	0	-0.035457	0.389365	-0.537405	0.500632	-0.447677	-0.539449	-0.706299	0.0647245	0.790817	0.094978	-0.1723	0.672115	0.636397	0.427571	0.147498	0.762938	0.282235	0.482841	1.59233	2.46099	0.810455	0.0830075	0.384173	1.48833	-0.410787	-0.0101765	0.14362	1.02165	-1.01006	-0.541037	0.274916	0.698764	
0.699151	4.54254	0	0	-0.0428325	0.384572	-0.550613	0.499871	-0.45491	-0.543874	-0.70748	0.0574563	0.789717	0.098087	-0.173975	0.676847	0.636397	0.427571	0.145031	0.769913	0.276453	0.486619	1.58718	2.47556	0.802594	0.0881443	0.381438	1.49606	-0.409824	-0.0128997	0.147149	1.0212	-1.01082	-0.538886	0.281016	0.700132	
0.699318	4.53644	0	0	-0.050208	0.379778	-0.563821	0.499111	-0.462143	-0.548299	-0.70866	0.050188	0.788617	0.101196	-0.175649	0.681578	0.636397	0.427571	0.142563	0.776887	0.270671	0.490398	1.58202	2.49013	0.794733	0.093281	0.378703	1.50379	-0.40886	-0.015623	0.150678	1.02075	-1.01158	-0.536734	0.287116	0.701499	
0.699251	4.52423	0	0	-0.0516835	0.371143	-0.564808	0.482884	-0.467266	-0.558656	-0.71287	0.0408973	0.785953	0.0957687	-0.172301	0.672118	0.633664	0.422191	0.141833	0.766645	0.269255	0.481843	1.57589	2.4904	0.791397	0.0856458	0.369626	1.50081	-0.413513	-0.014676	0.145444	1.02602	-1.01516	-0.536049	0.285473	0.706144	
0.69876	4.51507	0	0	-0.053159	0.362509	-0.565794	0.466657	-0.472388	-0.569013	-0.717081	0.0316065	0.783289	0.0903415	-0.168954	0.662657	0.630931	0.416811	0.141102	0.756403	0.26784	0.473288	1.56977	2.49067	0.788061	0.0780105	0.360549	1.49783	-0.418165	-0.013729	0.140209	1.03129	-1.01874	-0.535364	0.283829	0.710789	
0.697659	4.50897	0	0	-0.0546345	0.353874	-0.566781	0.45043	-0.477511	-0.57937	-0.721291	0.0223158	0.780624	0.0849142	-0.165606	0.653196	0.628199	0.411431	0.140372	0.746161	0.266425	0.464733	1.56364	2.49093	0.784724	0.0703753	0.351472	1.49485	-0.422818	-0.012782	0.134975	1.03657	-1.02232	-0.534678	0.282185	0.715435	
0.69576	4.49676	0	0	-0.05611	0.345239	-0.567768	0.434203	-0.482634	-0.589727	-0.725501	0.013025	0.77796	0.079487	-0.162259	0.643736	0.625466	0.406051	0.139642	0.735919	0.265009	0.456178	1.55751	2.4912	0.781388	0.06274	0.342395	1.49187	-0.42747	-0.011835	0.129741	1.04184	-1.0259	-0.533993	0.280542	0.72008	
0.692996	4.49219	0	0	-0.057588	0.336619	-0.569557	0.429757	-0.484145	-0.597861	-0.726684	0.00578175	0.775296	0.074067	-0.165142	0.634724	0.618907	0.398411	0.138907	0.725696	0.247379	0.455866	1.55407	2.50092	0.770213	0.0602408	0.338545	1.48846	-0.42827	-0.021767	0.128771	1.03506	-1.03868	-0.535559	0.276085	0.714067	
0.68966	4.48303	0	0	-0.059066	0.327999	-0.571345	0.425311	-0.485656	-0.605994	-0.727866	-0.0014615	0.772633	0.068647	-0.168024	0.625713	0.612347	0.390771	0.138173	0.715473	0.229749	0.455554	1.55063	2.51065	0.759038	0.0577415	0.334695	1.48504	-0.42907	-0.031699	0.127802	1.02829	-1.05146	-0.537125	0.271629	0.708055	
0.686108	4.47388	0	0	-0.060544	0.319379	-0.573134	0.420865	-0.487168	-0.614127	-0.729049	-0.00870475	0.769969	0.063227	-0.170907	0.616702	0.605787	0.383131	0.137438	0.70525	0.21212	0.455243	1.54719	2.52037	0.747863	0.0552422	0.330844	1.48162	-0.42987	-0.041631	0.126833	1.02151	-1.06424	-0.538691	0.267173	0.702042	
0.682698	4.46472	0	0	-0.062022	0.310759	-0.574922	0.416419	-0.488679	-0.622261	-0.730232	-0.015948	0.767305	0.057807	-0.17379	0.60769	0.599228	0.375491	0.136704	0.695027	0.19449	0.454931	1.54375	2.53009	0.736688	0.052743	0.326994	1.4782	-0.43067	-0.051563	0.125863	1.01474	-1.07702	-0.540257	0.262716	0.696029	
0.679786	4.46167	0	0	-0.083704	0.308183	-0.571411	0.415996	-0.494846	-0.629615	-0.737204	-0.0173985	0.762448	0.0585958	-0.17379	0.60769	0.591581	0.370962	0.136704	0.695027	0.184832	0.444712	1.53591	2.53521	0.727353	0.0621083	0.323146	1.47479	-0.435317	-0.0506158	0.128418	1.00752	-1.07908	-0.54387	0.269459	0.686274	
0.677698	4.45709	0	0	-0.105386	0.305608	-0.567899	0.415573	-0.501014	-0.636969	-0.744175	-0.018849	0.757591	0.0593845	-0.17379	0.60769	0.583934	0.366433	0.136704	0.695027	0.175174	0.434492	1.52807	2.54034	0.718017	0.0714735	0.319299	1.47137	-0.439964	-0.0496685	0.130972	1.0003	-1.08113	-0.547483	0.276202	0.676519	
0.676399	4.44794	0	0	-0.127068	0.303032	-0.564388	0.415149	-0.507182	-0.644323	-0.751147	-0.0202995	0.752733	0.0601732	-0.17379	0.60769	0.576287	0.361904	0.136704	0.695027	0.165516	0.424273	1.52023	2.54546	0.708682	0.0808388	0.315451	1.46796	-0.444611	-0.0487212	0.133527	0.993078	-1.08318	-0.551096	0.282945	0.666763	
0.675621	4.44183	0	0	-0.14875	0.300457	-0.560876	0.414726	-0.513349	-0.651677	-0.758119	-0.02175	0.747876	0.060962	-0.17379	0.60769	0.56864	0.357375	0.136704	0.695027	0.155858	0.414054	1.51239	2.55058	0.699347	0.090204	0.311603	1.46454	-0.449258	-0.047774	0.136082	0.985857	-1.08523	-0.554709	0.289688	0.657008	
0.675095	4.4342	0	0	-0.150597	0.280197	-0.562736	0.400987	-0.523111	-0.661205	-0.759566	-0.038791	0.746312	0.0524513	-0.178341	0.60341	0.562097	0.349762	0.131542	0.685045	0.138314	0.413735	1.50628	2.55084	0.699347	0.090204	0.305032	1.46884	-0.444611	-0.0487212	0.137907	0.990216	-1.08523	-0.554709	0.288047	0.661646	
0.674553	4.43268	0	0	-0.152444	0.259937	-0.564597	0.387249	-0.532872	-0.670733	-0.761012	-0.055832	0.744749	0.0439405	-0.182893	0.59913	0.555554	0.342148	0.126379	0.675064	0.12077	0.413416	1.50017	2.55109	0.699347	0.090204	0.29846	1.47313	-0.439964	-0.0496685	0.139731	0.994575	-1.08523	-0.554709	0.286405	0.666284	
0.673725	4.41894	0	0	-0.154291	0.239677	-0.566458	0.37351	-0.542633	-0.680261	-0.762458	-0.072873	0.743185	0.0354297	-0.187444	0.59485	0.549011	0.334535	0.121217	0.665083	0.103226	0.413097	1.49406	2.55135	0.699347	0.090204	0.291888	1.47742	-0.435317	-0.0506158	0.141556	0.998934	-1.08523	-0.554709	0.284764	0.670922	
0.672497	4.41894	0	0	-0.156138	0.219417	-0.568318	0.359772	-0.552395	-0.689789	-0.763905	-0.089914	0.741621	0.026919	-0.191995	0.59057	0.542468	0.326921	0.116054	0.655101	0.085682	0.412778	1.48795	2.5516	0.699347	0.090204	0.285317	1.48172	-0.43067	-0.051563	0.14338	1.00329	-1.08523	-0.554709	0.283123	0.67556	
0.671029	4.41589	0	0	-0.163468	0.214687	-0.566676	0.345641	-0.552863	-0.700822	-0.768112	-0.0991297	0.737865	0.0246115	-0.194877	0.581587	0.534841	0.322408	0.109668	0.648608	0.0760735	0.402594	1.48356	2.547	0.688211	0.087689	0.27764	1.47489	-0.438039	-0.0551005	0.145084	0.998479	-1.10381	-0.549165	0.280483	0.673719	
0.669506	4.40826	0	0	-0.170797	0.209958	-0.565034	0.33151	-0.55333	-0.711855	-0.772319	-0.108345	0.73411	0.022304	-0.197758	0.572603	0.527214	0.317896	0.103282	0.642116	0.066465	0.392411	1.47917	2.54239	0.677074	0.085174	0.269963	1.46806	-0.445408	-0.058638	0.146787	0.993664	-1.12239	-0.543621	0.277844	0.671879	
0.668116	4.41437	0	0	-0.178127	0.205228	-0.563392	0.317379	-0.553798	-0.722889	-0.776526	-0.117561	0.730355	0.0199965	-0.200639	0.56362	0.519587	0.313384	0.0968968	0.635623	0.0568565	0.382227	1.47479	2.53779	0.665937	0.082659	0.262286	1.46124	-0.452777	-0.0621755	0.14849	0.98885	-1.14098	-0.538076	0.275204	0.670038	
0.667047	4.422	0	0	-0.185457	0.200498	-0.56175	0.303248	-0.554266	-0.733922	-0.780733	-0.126777	0.726599	0.017689	-0.203521	0.554636	0.51196	0.308871	0.090511	0.62913	0.047248	0.372044	1.4704	2.53318	0.654801	0.080144	0.254609	1.45441	-0.460146	-0.065713	0.150194	0.984036	-1.15956	-0.532532	0.272564	0.668197	
0.666425	4.44336	0	0	-0.191307	0.20432	-0.562608	0.305673	-0.559949	-0.730209	-0.777712	-0.124765	0.726599	0.017689	-0.203521	0.554636	0.509241	0.303534	0.090511	0.62913	0.0401318	0.367305	1.47384	2.52348	0.64699	0.0852478	0.249414	1.45485	-0.456306	-0.0765643	0.147517	0.982086	-1.16592	-0.533323	0.269926	0.666357	
0.666096	4.47235	0	0	-0.197156	0.208142	-0.563466	0.308097	-0.565632	-0.726495	-0.774691	-0.122754	0.726599	0.017689	-0.203521	0.554636	0.506522	0.298196	0.090511	0.62913	0.0330155	0.362565	1.47727	2.51377	0.63918	0.0903515	0.244219	1.45529	-0.452466	-0.0874155	0.14484	0.980136	-1.17227	-0.534114	0.267288	0.664517	
0.665821	4.50592	0	0	-0.203006	0.211964	-0.564324	0.310522	-0.571314	-0.722782	-0.77167	-0.120742	0.726599	0.017689	-0.203521	0.554636	0.503804	0.292859	0.090511	0.62913	0.0258992	0.357826	1.4807	2.50406	0.631369	0.0954552	0.239023	1.45572	-0.448627	-0.0982667	0.142164	0.978185	-1.17863	-0.534905	0.264649	0.662677	
0.665361	4.54254	0	0	-0.208855	0.215786	-0.565182	0.312946	-0.576997	-0.719069	-0.768649	-0.11873	0.726599	0.017689	-0.203521	0.554636	0.501085	0.287522	0.090511	0.62913	0.018783	0.353087	1.48414	2.49436	0.623558	0.100559	0.233828	1.45616	-0.444787	-0.109118	0.139487	0.976235	-1.18499	-0.535696	0.262011	0.660837	
0.664479	4.58374	0	0	-0.213606	0.216513	-0.577345	0.328354	-0.582676	-0.715358	-0.778357	-0.112386	0.725503	0.0207852	-0.210191	0.573487	0.498367	0.282192	0.093703	0.632375	0.0116763	0.348355	1.4746	2.50432	0.626862	0.108192	0.232467	1.46001	-0.444787	-0.109118	0.14046	0.983	-1.18423	-0.537839	0.264649	0.662677	
0.66296	4.62341	0	0	-0.218357	0.21724	-0.589508	0.343763	-0.588355	-0.711647	-0.788066	-0.106042	0.724408	0.0238815	-0.216861	0.592337	0.495649	0.276861	0.096895	0.63562	0.0045695	0.343622	1.46507	2.51428	0.630166	0.115825	0.231106	1.46385	-0.444787	-0.109118	0.141433	0.989764	-1.18347	-0.539981	0.267288	0.664517	
0.660928	4.66003	0	0	-0.223108	0.217966	-0.601672	0.359172	-0.594034	-0.707937	-0.797774	-0.0996988	0.723313	0.0269778	-0.223532	0.611188	0.492932	0.271531	0.100087	0.638865	-0.00253725	0.338889	1.45554	2.52424	0.63347	0.123458	0.229744	1.4677	-0.444787	-0.109118	0.142407	0.996528	-1.18271	-0.542124	0.269926	0.666357	
0.658746	4.69208	0	0	-0.227859	0.218693	-0.613835	0.37458	-0.599713	-0.704226	-0.807482	-0.093355	0.722217	0.030074	-0.230202	0.630039	0.490214	0.266201	0.103279	0.64211	-0.009644	0.334157	1.446	2.5342	0.636774	0.131091	0.228383	1.47155	-0.444787	-0.109118	0.14338	1.00329	-1.18196	-0.544267	0.272564	0.668197	
0.656781	4.72259	0	0	-0.23735	0.220142	-0.619122	0.370574	-0.607932	-0.70565	-0.804731	-0.101131	0.71737	0.030861	-0.22065	0.620172	0.481517	0.264785	0.100087	0.638865	-0.0235165	0.336198	1.446	2.5342	0.625955	0.144696	0.225659	1.47925	-0.443022	-0.101929	0.147883	1.00961	-1.18347	-0.539981	0.27274	0.676999	
0.655399	4.74548	0	0	-0.246842	0.221591	-0.624409	0.366568	-0.616152	-0.707074	-0.80198	-0.108907	0.712522	0.031648	-0.211098	0.610305	0.47282	0.263369	0.096895	0.63562	-0.037389	0.338238	1.446	2.5342	0.615136	0.158301	0.222935	1.48695	-0.441257	-0.09474	0.152385	1.01593	-1.18499	-0.535694	0.272917	0.685801	
0.654962	4.76074	0	0	-0.256333	0.22304	-0.629696	0.362561	-0.624372	-0.708497	-0.799228	-0.116683	0.707675	0.032435	-0.201547	0.600437	0.464123	0.261953	0.093703	0.632375	-0.0512615	0.340279	1.446	2.5342	0.604317	0.171906	0.220211	1.49464	-0.439492	-0.087551	0.156888	1.02225	-1.18651	-0.531408	0.273093	0.694604	
0.655584	4.77142	0	0	-0.265825	0.224489	-0.634983	0.358555	-0.632591	-0.709921	-0.796477	-0.124459	0.702828	0.033222	-0.191995	0.59057	0.455426	0.260537	0.090511	0.62913	-0.065134	0.34232	1.446	2.5342	0.593498	0.185511	0.217487	1.50234	-0.437727	-0.080362	0.16139	1.02857	-1.18802	-0.527122	0.27327	0.703406	
0.657054	4.77905	0	0	-0.265825	0.224489	-0.638482	0.358978	-0.634675	-0.70403	-0.806174	-0.118123	0.699079	0.0309135	-0.196543	0.586295	0.439158	0.254632	0.091737	0.625665	-0.0700627	0.331514	1.43647	2.54416	0.590487	0.19402	0.218849	1.49849	-0.442371	-0.0794138	0.152625	1.0343	-1.19513	-0.525773	0.264711	0.708999	
0.659137	4.77905	0	0	-0.265825	0.224489	-0.641981	0.3594	-0.63676	-0.698139	-0.815871	-0.111786	0.695331	0.028605	-0.201091	0.582021	0.42289	0.248726	0.092963	0.6222	-0.0749915	0.320709	1.42694	2.55411	0.587476	0.20253	0.220212	1.49464	-0.447016	-0.0784655	0.14386	1.04003	-1.20224	-0.524424	0.256151	0.714592	
0.6616	4.77753	0	0	-0.265825	0.224489	-0.64548	0.359822	-0.638845	-0.692248	-0.825569	-0.10545	0.691582	0.0262965	-0.205638	0.577746	0.406621	0.24282	0.094189	0.618736	-0.0799202	0.309903	1.41741	2.56407	0.584465	0.211039	0.221574	1.49079	-0.45166	-0.0775172	0.135094	1.04575	-1.20935	-0.523075	0.247591	0.720186	
0.664208	4.776	0	0	-0.265825	0.224489	-0.648979	0.360245	-0.640929	-0.686357	-0.835266	-0.099113	0.687833	0.023988	-0.210186	0.573471	0.390353	0.236915	0.095415	0.615271	-0.084849	0.299098	1.40789	2.57403	0.581454	0.219548	0.222936	1.48694	-0.456304	-0.076569	0.126329	1.05148	-1.21645	-0.521726	0.239032	0.725779	
0.666761	4.76837	0	0	-0.273846	0.234483	-0.650632	0.374383	-0.644058	-0.677513	-0.835006	-0.0893168	0.690486	0.0293925	-0.207307	0.582462	0.381694	0.235498	0.0917355	0.625669	-0.0940695	0.300454	1.41398	2.57379	0.584743	0.227223	0.220211	1.49464	-0.456304	-0.076569	0.131563	1.04621	-1.22	-0.521053	0.234755	0.728573	
0.669157	4.75616	0	0	-0.281867	0.244477	-0.652285	0.388521	-0.647188	-0.66867	-0.834745	-0.0795205	0.69314	0.034797	-0.204429	0.591453	0.373036	0.234081	0.088056	0.636068	-0.10329	0.301809	1.42007	2.57354	0.588032	0.234899	0.217485	1.50235	-0.456304	-0.076569	0.136798	1.04093	-1.22355	-0.52038	0.230479	0.731367	
0.67132	4.74243	0	0	-0.289889	0.254472	-0.653938	0.40266	-0.650317	-0.659826	-0.834485	-0.0697243	0.695793	0.0402015	-0.20155	0.600445	0.364378	0.232664	0.0843765	0.646467	-0.11251	0.303165	1.42616	2.57329	0.591322	0.242574	0.21476	1.51005	-0.456304	-0.076569	0.142033	1.03566	-1.22711	-0.519707	0.226202	0.734162	
0.67317	4.7287	0	0	-0.29791	0.264466	-0.655591	0.416798	-0.653446	-0.650983	-0.834225	-0.059928	0.698446	0.045606	-0.198671	0.609436	0.355719	0.231247	0.080697	0.656865	-0.121731	0.304521	1.43225	2.57305	0.594611	0.25025	0.212035	1.51775	-0.456304	-0.076569	0.147267	1.03039	-1.23066	-0.519034	0.221925	0.736956	
0.674629	4.71802	0	0	-0.301194	0.273748	-0.660699	0.440706	-0.663291	-0.635474	-0.838819	-0.0469455	0.692963	0.0611025	-0.200813	0.632632	0.350853	0.23207	0.0833895	0.673795	-0.129559	0.314305	1.43146	2.59227	0.591853	0.275031	0.210401	1.53661	-0.456466	-0.0639347	0.146529	1.042	-1.22507	-0.516094	0.222092	0.745777	
0.675624	4.71191	0	0	-0.304478	0.283029	-0.665807	0.464614	-0.673135	-0.619965	-0.843413	-0.033963	0.68748	0.076599	-0.202954	0.655827	0.345986	0.232894	0.086082	0.690725	-0.137387	0.324089	1.43067	2.61149	0.589095	0.299812	0.208767	1.55547	-0.456627	-0.0513005	0.145792	1.05361	-1.21948	-0.513154	0.222259	0.754597	
0.67616	4.71039	0	0	-0.307763	0.292311	-0.670916	0.488522	-0.68298	-0.604457	-0.848006	-0.0209805	0.681996	0.0920955	-0.205096	0.679022	0.34112	0.233717	0.0887745	0.707656	-0.145214	0.333872	1.42988	2.6307	0.586337	0.324594	0.207134	1.57434	-0.456789	-0.0386662	0.145054	1.06522	-1.2139	-0.510213	0.222426	0.763417	
0.676289	4.70581	0	0	-0.311047	0.301593	-0.676024	0.51243	-0.692825	-0.588948	-0.8526	-0.007998	0.676513	0.107592	-0.207238	0.702218	0.336253	0.23454	0.091467	0.724586	-0.153042	0.343656	1.42909	2.64992	0.583579	0.349375	0.2055	1.5932	-0.456951	-0.026032	0.144316	1.07683	-1.20831	-0.507273	0.222593	0.772238	
0.676064	4.71039	0	0	-0.317972	0.308498	-0.685603	0.520562	-0.698489	-0.585247	-0.863211	0.0009335	0.669477	0.114575	-0.210589	0.711688	0.331391	0.235362	0.092194	0.734814	-0.150589	0.349063	1.42829	2.6692	0.583828	0.365673	0.202479	1.61599	-0.458083	-0.010646	0.145392	1.09285	-1.20144	-0.498562	0.217812	0.795048	
0.675537	4.71496	0	0	-0.324897	0.315404	-0.695181	0.528694	-0.704153	-0.581546	-0.873822	0.009865	0.66244	0.121558	-0.21394	0.721159	0.326528	0.236183	0.092921	0.745041	-0.148137	0.354469	1.42748	2.68848	0.584077	0.381971	0.199459	1.63878	-0.459216	0.00474	0.146469	1.10887	-1.19457	-0.489851	0.21303	0.817858	
0.674761	4.71954	0	0	-0.331822	0.322309	-0.704759	0.536825	-0.709817	-0.577846	-0.884434	0.0187965	0.655404	0.128541	-0.217291	0.73063	0.321665	0.237005	0.093648	0.755269	-0.145684	0.359876	1.42667	2.70777	0.584326	0.398269	0.196439	1.66158	-0.460348	0.020126	0.147545	1.12489	-1.1877	-0.481141	0.208249	0.840667	
0.673803	4.72107	0	0	-0.338747	0.329214	-0.714338	0.544957	-0.715481	-0.574145	-0.895045	0.027728	0.648367	0.135524	-0.220642	0.7401	0.316803	0.237827	0.094375	0.765497	-0.143231	0.365283	1.42587	2.72705	0.584575	0.414567	0.193418	1.68437	-0.461481	0.035512	0.148621	1.14091	-1.18083	-0.47243	0.203467	0.863477	
0.672757	4.7287	0	0	-0.340939	0.335409	-0.716063	0.549832	-0.721141	-0.570446	-0.902647	0.0386925	0.642432	0.139402	-0.228532	0.745255	0.311944	0.238647	0.091909	0.772466	-0.152139	0.378121	1.43635	2.73147	0.58002	0.427438	0.197242	1.68783	-0.468054	0.0419013	0.143377	1.1462	-1.18946	-0.466789	0.192436	0.876064	
0.671718	4.73633	0	0	-0.343132	0.341604	-0.717788	0.554707	-0.726801	-0.566747	-0.910249	0.049657	0.636498	0.14328	-0.236422	0.750411	0.307085	0.239467	0.089443	0.779435	-0.161048	0.390958	1.44683	2.7359	0.575466	0.44031	0.201065	1.69129	-0.474626	0.0482905	0.138132	1.15149	-1.19809	-0.461148	0.181405	0.88865	
0.670783	4.74396	0	0	-0.345324	0.3478	-0.719512	0.559582	-0.732462	-0.563049	-0.917851	0.0606215	0.630564	0.147157	-0.244312	0.755567	0.302226	0.240287	0.086977	0.786404	-0.169956	0.403796	1.45731	2.74033	0.570912	0.453182	0.204889	1.69475	-0.481198	0.0546797	0.132887	1.15678	-1.20673	-0.455507	0.170374	0.901236	
0.670047	4.74548	0	0	-0.347516	0.353995	-0.721237	0.564457	-0.738122	-0.55935	-0.925453	0.071586	0.624629	0.151035	-0.252202	0.760722	0.297367	0.241107	0.084511	0.793373	-0.178864	0.416634	1.46779	2.74476	0.566357	0.466053	0.208712	1.69822	-0.487771	0.061069	0.127643	1.16207	-1.21536	-0.449866	0.159343	0.913823	
0.669578	4.75311	0	0	-0.353003	0.369502	-0.725518	0.586024	-0.742305	-0.547529	-0.927984	0.0892577	0.622432	0.157243	-0.255556	0.770203	0.28441	0.251928	0.0864652	0.80014	-0.176418	0.422059	1.46871	2.75923	0.563317	0.474644	0.205966	1.70598	-0.493376	0.0647312	0.12497	1.16009	-1.21891	-0.449196	0.154243	0.918949	
0.669295	4.76074	0	0	-0.35849	0.38501	-0.7298	0.60759	-0.746487	-0.535709	-0.930514	0.10693	0.620235	0.163451	-0.258911	0.779683	0.271453	0.262749	0.0884195	0.806907	-0.173972	0.427484	1.46962	2.77369	0.560277	0.483235	0.203221	1.71373	-0.498981	0.0683935	0.122296	1.15812	-1.22247	-0.448526	0.149143	0.924076	
0.669072	4.76532	0	0	-0.363977	0.400517	-0.734082	0.629157	-0.75067	-0.523888	-0.933045	0.124601	0.618039	0.16966	-0.262266	0.789164	0.258496	0.273571	0.0903738	0.813675	-0.171525	0.43291	1.47053	2.78816	0.557238	0.491826	0.200476	1.72149	-0.504585	0.0720558	0.119622	1.15614	-1.22602	-0.447855	0.144043	0.929202	
0.668781	4.7699	0	0	-0.369464	0.416024	-0.738363	0.650724	-0.754853	-0.512067	-0.935576	0.142273	0.615842	0.175868	-0.26562	0.798644	0.245539	0.284392	0.092328	0.820442	-0.169079	0.438335	1.47145	2.80263	0.554198	0.500417	0.19773	1.72925	-0.51019	0.075718	0.116949	1.15417	-1.22957	-0.447185	0.138943	0.934328	
0.668295	4.76684	0	0	-0.372761	0.425341	-0.742666	0.672356	-0.762603	-0.502455	-0.945958	0.161095	0.611444	0.188298	-0.262769	0.807728	0.244455	0.287456	0.091808	0.83421	-0.167712	0.446818	1.47235	2.81714	0.549632	0.51332	0.198803	1.7405	-0.511154	0.0784437	0.120479	1.15372	-1.22322	-0.446377	0.132193	0.944123	
0.667503	4.76532	0	0	-0.376058	0.434659	-0.746969	0.693989	-0.770353	-0.492843	-0.956341	0.179918	0.607046	0.200727	-0.259917	0.816812	0.24337	0.29052	0.091288	0.847978	-0.166345	0.4553	1.47326	2.83164	0.545067	0.526222	0.199877	1.75174	-0.512119	0.0811695	0.124008	1.15328	-1.21688	-0.44557	0.125442	0.953918	
0.666535	4.76379	0	0	-0.379354	0.443976	-0.751272	0.715621	-0.778103	-0.48323	-0.966723	0.19874	0.602648	0.213156	-0.257066	0.825896	0.242286	0.293585	0.090768	0.861746	-0.164977	0.463783	1.47416	2.84615	0.540501	0.539125	0.200951	1.76298	-0.513083	0.0838953	0.127538	1.15283	-1.21053	-0.444762	0.118692	0.963713	
0.665717	4.75922	0	0	-0.382651	0.453293	-0.755575	0.737253	-0.785853	-0.473618	-0.977105	0.217562	0.59825	0.225586	-0.254214	0.83498	0.241202	0.296649	0.090248	0.875514	-0.16361	0.472266	1.47507	2.86066	0.535936	0.552027	0.202024	1.77423	-0.514047	0.086621	0.131068	1.15238	-1.20418	-0.443954	0.111941	0.973508	
0.665386	4.75311	0	0	-0.388477	0.457099	-0.759934	0.740101	-0.789412	-0.47584	-0.977105	0.217562	0.59342	0.226352	-0.260424	0.835387	0.231513	0.298269	0.0858247	0.875717	-0.169293	0.475979	1.46985	2.87541	0.534413	0.556332	0.197894	1.7859	-0.517908	0.097532	0.127641	1.16207	-1.20291	-0.438174	0.107806	0.985193	
0.665875	4.74243	0	0	-0.394303	0.460906	-0.764293	0.74295	-0.792971	-0.478063	-0.977105	0.217562	0.588589	0.227118	-0.266633	0.835793	0.221824	0.29989	0.0814015	0.875919	-0.174976	0.479693	1.46462	2.89017	0.53289	0.560637	0.193764	1.79757	-0.521769	0.108443	0.124214	1.17176	-1.20163	-0.432393	0.103672	0.996877	
0.667515	4.73328	0	0	-0.400128	0.464713	-0.768653	0.745799	-0.796531	-0.480285	-0.977105	0.217562	0.583759	0.227884	-0.272842	0.836199	0.212136	0.30151	0.0769782	0.876121	-0.180658	0.483406	1.4594	2.90493	0.531366	0.564942	0.189634	1.80924	-0.525629	0.119354	0.120786	1.18144	-1.20036	-0.426613	0.0995375	1.00856	
0.670369	4.71344	0	0	-0.405954	0.468519	-0.773012	0.748647	-0.80009	-0.482508	-0.977105	0.217562	0.578929	0.22865	-0.279052	0.836606	0.202447	0.30313	0.072555	0.876324	-0.186341	0.487119	1.45418	2.91969	0.529843	0.569247	0.185504	1.82092	-0.52949	0.130265	0.117359	1.19113	-1.19908	-0.420833	0.095403	1.02025	
0.673952	4.70734	0	0	-0.411776	0.472323	-0.778236	0.753946	-0.806785	-0.475859	-0.981944	0.220724	0.574102	0.229414	-0.277373	0.831859	0.189024	0.302489	0.068135	0.876525	-0.194458	0.48539	1.44633	2.92482	0.522018	0.57436	0.189634	1.80924	-0.528525	0.127536	0.11116	1.18959	-1.20619	-0.419494	0.091133	1.02304	
0.677718	4.6936	0	0	-0.417597	0.476128	-0.783461	0.759244	-0.813481	-0.46921	-0.986784	0.223886	0.569276	0.230179	-0.275693	0.827113	0.175601	0.301848	0.063715	0.876727	-0.202575	0.48366	1.43847	2.92995	0.514193	0.579473	0.193764	1.79757	-0.527559	0.124807	0.104961	1.18806	-1.21331	-0.418154	0.086863	1.02583	
0.68112	4.68292	0	0	-0.423419	0.479932	-0.788686	0.764543	-0.820177	-0.462562	-0.991623	0.227048	0.564449	0.230943	-0.274014	0.822367	0.162179	0.301207	0.059295	0.876928	-0.210692	0.48193	1.43062	2.93508	0.506368	0.584586	0.197894	1.7859	-0.526593	0.122078	0.098762	1.18652	-1.22042	-0.416815	0.082593	1.02862	
0.683611	4.66766	0	0	-0.429241	0.483736	-0.79391	0.769842	-0.826872	-0.455913	-0.996462	0.23021	0.559622	0.231708	-0.272334	0.81762	0.148756	0.300566	0.054875	0.87713	-0.218809	0.480201	1.42277	2.94021	0.498543	0.589699	0.202024	1.77423	-0.525628	0.119349	0.092563	1.18499	-1.22753	-0.415476	0.078323	1.03141	
0.684716	4.6524	0	0	-0.430341	0.486844	-0.794763	0.78172	-0.823317	-0.453686	-1.00016	0.240664	0.557422	0.237925	-0.280217	0.822771	0.138022	0.305229	0.0492223	0.880823	-0.22907	0.484563	1.42713	2.94493	0.492248	0.590502	0.195453	1.77852	-0.52737	0.112101	0.0907503	1.18059	-1.23818	-0.413474	0.0722703	1.02997	
0.684561	4.64325	0	0	-0.43144	0.489951	-0.795616	0.793597	-0.819762	-0.451459	-1.00386	0.251119	0.555222	0.244142	-0.2881	0.827921	0.127288	0.309892	0.0435695	0.884517	-0.239331	0.488925	1.4315	2.94965	0.485954	0.591306	0.188881	1.78282	-0.529111	0.104853	0.0889375	1.17619	-1.24883	-0.411473	0.0662175	1.02854	
0.683566	4.62494	0	0	-0.432539	0.493059	-0.79647	0.805475	-0.816208	-0.449232	-1.00756	0.261573	0.553023	0.250359	-0.295982	0.833072	0.116554	0.314555	0.0379167	0.888211	-0.249592	0.493287	1.43587	2.95437	0.479659	0.59211	0.18231	1.78711	-0.530852	0.0976057	0.0871248	1.1718	-1.25948	-0.409471	0.0601648	1.0271	
0.682151	4.62036	0	0	-0.433639	0.496167	-0.797323	0.817353	-0.812653	-0.447005	-1.01126	0.272027	0.550823	0.256576	-0.303865	0.838223	0.10582	0.319218	0.032264	0.891904	-0.259853	0.497649	1.44024	2.95909	0.473364	0.592913	0.175738	1.7914	-0.532594	0.090358	0.085312	1.1674	-1.27013	-0.407469	0.054112	1.02566	
0.680738	4.60663	0	0	-0.434739	0.499276	-0.802542	0.832102	-0.819349	-0.440353	-1.01404	0.279876	0.54752	0.26591	-0.299342	0.842568	0.0977538	0.329191	0.0342058	0.898699	-0.260931	0.500696	1.43675	2.96896	0.470317	0.601525	0.180933	1.791	-0.533559	0.0930835	0.0879812	1.16938	-1.25796	-0.413771	0.0490213	1.03079	
0.679743	4.599	0	0	-0.435839	0.502385	-0.80776	0.846851	-0.826046	-0.433701	-1.01681	0.287725	0.544218	0.275243	-0.29482	0.846912	0.0896875	0.339164	0.0361475	0.905493	-0.26201	0.503744	1.43326	2.97882	0.46727	0.610137	0.186129	1.79059	-0.534523	0.095809	0.0906505	1.17135	-1.24579	-0.420072	0.0439305	1.03591	
0.679326	4.59595	0	0	-0.43694	0.505494	-0.812979	0.861601	-0.832743	-0.42705	-1.01959	0.295573	0.540915	0.284577	-0.290297	0.851257	0.0816212	0.349138	0.0380892	0.912287	-0.263088	0.506792	1.42977	2.98868	0.464222	0.618749	0.191325	1.79019	-0.535488	0.0985345	0.0933198	1.17333	-1.23361	-0.426373	0.0388397	1.04103	
0.679237	4.599	0	0	-0.43804	0.508603	-0.818198	0.87635	-0.839439	-0.420398	-1.02237	0.303422	0.537613	0.29391	-0.285774	0.855602	0.073555	0.359111	0.040031	0.919082	-0.264166	0.509839	1.42628	2.99854	0.461175	0.627361	0.19652	1.78978	-0.536452	0.10126	0.095989	1.17531	-1.22144	-0.432675	0.033749	1.04615	
0.679195	4.60358	0	0	-0.442757	0.509296	-0.821691	0.867293	-0.837344	-0.426318	-1.02443	0.298733	0.533893	0.291556	-0.299852	0.86115	0.0698218	0.356848	0.03244	0.915979	-0.26983	0.51354	1.42628	2.99854	0.451839	0.636774	0.185817	1.80576	-0.528141	0.10212	0.103147	1.18366	-1.21509	-0.431866	0.0330467	1.0574	
0.678915	4.62189	0	0	-0.447475	0.509988	-0.825184	0.858236	-0.835249	-0.432238	-1.02649	0.294045	0.530172	0.289203	-0.313929	0.866698	0.0660885	0.354584	0.024849	0.912875	-0.275494	0.51724	1.42628	2.99854	0.442503	0.646186	0.175114	1.82173	-0.519831	0.10298	0.110305	1.19203	-1.20874	-0.431056	0.0323445	1.06865	
0.678115	4.63714	0	0	-0.452192	0.51068	-0.828677	0.84918	-0.833155	-0.438159	-1.02854	0.289357	0.526452	0.286849	-0.328007	0.872245	0.0623553	0.352321	0.017258	0.909772	-0.281158	0.520941	1.42628	2.99854	0.433168	0.655599	0.16441	1.8377	-0.51152	0.10384	0.117463	1.20039	-1.20239	-0.430246	0.0316422	1.0799	
0.676581	4.65851	0	0	-0.45691	0.511373	-0.83217	0.840123	-0.83106	-0.444079	-1.0306	0.284668	0.522732	0.284495	-0.342085	0.877793	0.058622	0.350058	0.009667	0.906669	-0.286822	0.524642	1.42628	2.99854	0.423832	0.665012	0.153707	1.85367	-0.503209	0.1047	0.124621	1.20874	-1.19604	-0.429437	0.03094	1.09115	
0.674482	4.67834	0	0	-0.45691	0.511373	-0.833048	0.833148	-0.835659	-0.443349	-1.02968	0.282053	0.523832	0.281385	-0.338727	0.868302	0.0597035	0.347001	0.0064935	0.903372	-0.292482	0.528341	1.42628	2.99854	0.423832	0.665012	0.151272	1.84628	-0.504954	0.0974545	0.124621	1.20874	-1.20239	-0.430246	0.0325963	1.08647	
0.672108	4.70123	0	0	-0.45691	0.511373	-0.833927	0.826173	-0.840257	-0.442619	-1.02875	0.279438	0.524933	0.278275	-0.335369	0.858812	0.060785	0.343944	0.00332	0.900076	-0.298142	0.532039	1.42628	2.99854	0.423832	0.665012	0.148838	1.83889	-0.5067	0.090209	0.124621	1.20874	-1.20874	-0.431056	0.0342525	1.08179	
0.669754	4.71649	0	0	-0.45691	0.511373	-0.834805	0.819198	-0.844855	-0.441888	-1.02783	0.276824	0.526034	0.275165	-0.332011	0.849322	0.0618665	0.340888	0.0001465	0.89678	-0.303803	0.535738	1.42628	2.99854	0.423832	0.665012	0.146403	1.83151	-0.508445	0.0829635	0.124621	1.20874	-1.21509	-0.431866	0.0359088	1.07711	
0.667712	4.7287	0	0	-0.45691	0.511373	-0.835683	0.812223	-0.849454	-0.441158	-1.0269	0.274209	0.527134	0.272055	-0.328653	0.839831	0.062948	0.337831	-0.003027	0.893483	-0.309463	0.539437	1.42628	2.99854	0.423832	0.665012	0.143968	1.82412	-0.51019	0.075718	0.124621	1.20874	-1.22144	-0.432675	0.037565	1.07243	
0.666258	4.73633	0	0	-0.459111	0.517592	-0.832199	0.811833	-0.845903	-0.438928	-1.02392	0.276279	0.526034	0.275165	-0.320777	0.834685	0.0570543	0.341682	-0.003027	0.893483	-0.309463	0.539437	1.42628	2.99854	0.422306	0.669323	0.150535	1.81983	-0.507298	0.0675463	0.126336	1.2039	-1.22347	-0.436302	0.036611	1.06586	
0.665383	4.74396	0	0	-0.461311	0.523811	-0.828715	0.811443	-0.842352	-0.436699	-1.02093	0.278349	0.524933	0.278275	-0.312902	0.829539	0.0511605	0.345533	-0.003027	0.893483	-0.309463	0.539437	1.42628	2.99854	0.420781	0.673635	0.157101	1.81554	-0.504406	0.0593745	0.128052	1.19905	-1.22551	-0.43993	0.035657	1.05929	
0.66484	4.75616	0	0	-0.463512	0.53003	-0.82523	0.811052	-0.8388	-0.43447	-1.01795	0.280419	0.523832	0.281385	-0.305026	0.824393	0.0452668	0.349384	-0.003027	0.893483	-0.309463	0.539437	1.42628	2.99854	0.419256	0.677946	0.163667	1.81125	-0.501515	0.0512027	0.129767	1.1942	-1.22754	-0.443557	0.034703	1.05272	
0.664375	4.75616	0	0	-0.465713	0.536249	-0.821746	0.810662	-0.835249	-0.43224	-1.01496	0.282489	0.522732	0.284495	-0.297151	0.819247	0.039373	0.353235	-0.003027	0.893483	-0.309463	0.539437	1.42628	2.99854	0.41773	0.682257	0.170234	1.80696	-0.498623	0.043031	0.131483	1.18935	-1.22957	-0.447185	0.033749	1.04615	
0.663734	4.74853	0	0	-0.465713	0.536249	-0.830449	0.816349	-0.839847	-0.431511	-1.01311	0.277259	0.514612	0.294586	-0.298829	0.823991	0.0324017	0.36014	0.0001465	0.89678	-0.314041	0.540085	1.41668	3.00861	0.422488	0.685782	0.16748	1.81474	-0.493982	0.0420917	0.137692	1.19089	-1.22526	-0.450003	0.0414515	1.04292	
0.662662	4.74548	0	0	-0.465713	0.536249	-0.839152	0.822035	-0.844445	-0.430782	-1.01126	0.272029	0.506491	0.304676	-0.300508	0.828735	0.0254305	0.367046	0.00332	0.900076	-0.318619	0.540734	1.40708	3.01868	0.427246	0.689307	0.164726	1.82253	-0.489341	0.0411525	0.143902	1.19242	-1.22094	-0.452821	0.049154	1.03968	
0.66111	4.73938	0	0	-0.465713	0.536249	-0.847855	0.827722	-0.849043	-0.430052	-1.00941	0.266798	0.498371	0.314767	-0.302187	0.833479	0.0184592	0.373951	0.0064935	0.903372	-0.323198	0.541383	1.39748	3.02875	0.432004	0.692831	0.161973	1.83031	-0.4847	0.0402133	0.150111	1.19395	-1.21663	-0.45564	0.0568565	1.03645	
0.659403	4.73328	0	0	-0.465713	0.536249	-0.856558	0.833409	-0.853641	-0.429323	-1.00756	0.261568	0.490251	0.324857	-0.303865	0.838223	0.011488	0.380856	0.009667	0.906669	-0.327776	0.542031	1.38788	3.03881	0.436762	0.696356	0.159219	1.83809	-0.480059	0.039274	0.156321	1.19549	-1.21232	-0.458458	0.064559	1.03321	
0.657905	4.72412	0	0	-0.464612	0.533139	-0.860046	0.824377	-0.853641	-0.429323	-1.0087	0.254277	0.493553	0.315524	-0.306707	0.829145	0.00512525	0.373271	0.0045555	0.896591	-0.335845	0.54028	1.39398	3.03862	0.432177	0.709314	0.156463	1.84588	-0.477343	0.0437838	0.157281	1.20232	-1.21308	-0.45631	0.0663445	1.03744	
0.656984	4.71954	0	0	-0.463512	0.530029	-0.863535	0.815346	-0.853641	-0.429323	-1.00983	0.246986	0.496856	0.30619	-0.30955	0.820066	-0.0012375	0.365687	-0.000556	0.886514	-0.343915	0.538528	1.40009	3.03843	0.427592	0.722273	0.153706	1.85367	-0.474627	0.0482935	0.158241	1.20916	-1.21384	-0.454162	0.06813	1.04167	
0.657005	4.71191	0	0	-0.462412	0.526919	-0.867023	0.806314	-0.853641	-0.429323	-1.01097	0.239695	0.500159	0.296856	-0.312392	0.810987	-0.00760025	0.358102	-0.0056675	0.876436	-0.351984	0.536777	1.4062	3.03823	0.423006	0.735232	0.15095	1.86146	-0.471911	0.0528033	0.159202	1.21599	-1.2146	-0.452014	0.0699155	1.04589	
0.658199	4.70276	0	0	-0.461311	0.523809	-0.870511	0.797282	-0.853641	-0.429323	-1.01211	0.232404	0.503461	0.287523	-0.315234	0.801909	-0.013963	0.350517	-0.010779	0.866359	-0.360053	0.535026	1.4123	3.03804	0.418421	0.74819	0.148194	1.86925	-0.469195	0.057313	0.160162	1.22283	-1.21536	-0.449866	0.071701	1.05012	
0.660268	4.69665	0	0	-0.462727	0.515178	-0.859217	0.784254	-0.857189	-0.431553	-1.00842	0.221965	0.500846	0.282063	-0.313558	0.797172	-0.0261885	0.346783	-0.0070795	0.855903	-0.374825	0.539999	1.4123	3.03804	0.415361	0.756839	0.149572	1.86535	-0.466302	0.0491388	0.155667	1.21644	-1.22525	-0.450004	0.078317	1.03142	
0.662784	4.69055	0	0	-0.464143	0.506547	-0.847923	0.771226	-0.860737	-0.433783	-1.00472	0.211526	0.498231	0.276604	-0.311883	0.792436	-0.038414	0.343049	-0.00338	0.845448	-0.389596	0.544973	1.4123	3.03804	0.4123	0.765489	0.15095	1.86146	-0.46341	0.0409645	0.151172	1.21005	-1.23515	-0.450143	0.084933	1.01273	
0.665321	4.6814	0	0	-0.465558	0.497917	-0.836629	0.758197	-0.864286	-0.436013	-1.00103	0.201087	0.495616	0.271145	-0.310207	0.787699	-0.0506395	0.339315	0.0003195	0.834993	-0.404367	0.549947	1.4123	3.03804	0.409239	0.774139	0.152329	1.85756	-0.460518	0.0327902	0.146678	1.20366	-1.24504	-0.450282	0.091549	0.994027	
0.66745	4.66919	0	0	-0.466974	0.489286	-0.825335	0.745169	-0.867834	-0.438243	-0.997336	0.190648	0.493001	0.265685	-0.308531	0.782963	-0.062865	0.335581	0.004019	0.824537	-0.419139	0.55492	1.4123	3.03804	0.406179	0.782788	0.153707	1.85367	-0.457625	0.024616	0.142183	1.19727	-1.25493	-0.45042	0.098165	0.975329	
0.66878	4.66461	0	0	-0.478903	0.485155	-0.823585	0.749673	-0.87138	-0.440472	-1.00217	0.193806	0.48819	0.266441	-0.308531	0.782963	-0.0654978	0.330278	0.0027865	0.828021	-0.415654	0.557322	1.4123	3.03804	0.410934	0.786338	0.152329	1.85756	-0.451049	0.0182257	0.145613	1.18757	-1.25342	-0.454711	0.100642	0.968328	
0.669321	4.65698	0	0	-0.490831	0.481023	-0.821834	0.754178	-0.874926	-0.4427	-1.007	0.196965	0.483379	0.267197	-0.308531	0.782963	-0.0681305	0.324974	0.001554	0.831504	-0.41217	0.559724	1.4123	3.03804	0.415688	0.789887	0.15095	1.86146	-0.444474	0.0118355	0.149043	1.17788	-1.2519	-0.459003	0.10312	0.961326	
0.669346	4.64935	0	0	-0.50276	0.476892	-0.820083	0.758682	-0.878472	-0.444929	-1.01184	0.200124	0.478568	0.267953	-0.308531	0.782963	-0.0707632	0.319671	0.0003215	0.834988	-0.408685	0.562125	1.4123	3.03804	0.420442	0.793436	0.149572	1.86535	-0.437899	0.00544525	0.152473	1.16819	-1.25038	-0.463294	0.105598	0.954325	
0.669131	4.63409	0	0	-0.514689	0.472761	-0.818333	0.763187	-0.882018	-0.447157	-1.01667	0.203282	0.473757	0.268709	-0.308531	0.782963	-0.073396	0.314367	-0.000911	0.838472	-0.405201	0.564527	1.4123	3.03804	0.425197	0.796986	0.148194	1.86925	-0.431323	-0.000945	0.155903	1.15849	-1.24886	-0.467586	0.108075	0.947323	
0.668955	4.62952	0	0	-0.524088	0.474138	-0.828766	0.773772	-0.890147	-0.448658	-1.01667	0.203282	0.472658	0.271815	-0.305686	0.792034	-0.075551	0.320457	0.0010295	0.845245	-0.40387	0.573024	1.41842	3.03784	0.428421	0.804875	0.149246	1.88055	-0.432287	0.001778	0.159439	1.15805	-1.23593	-0.476037	0.108075	0.947323	
0.669091	4.61426	0	0	-0.533488	0.475515	-0.839198	0.784358	-0.898276	-0.450158	-1.01667	0.203282	0.471559	0.274921	-0.302841	0.801105	-0.077706	0.326547	0.00297	0.852018	-0.402539	0.581521	1.42453	3.03765	0.431646	0.812765	0.150298	1.89186	-0.43325	0.004501	0.162974	1.1576	-1.22299	-0.484487	0.108075	0.947323	
0.669627	4.60815	0	0	-0.542887	0.476892	-0.849631	0.794944	-0.906406	-0.451658	-1.01667	0.203282	0.47046	0.278026	-0.299996	0.810176	-0.079861	0.332636	0.0049105	0.858791	-0.401209	0.590018	1.43064	3.03745	0.43487	0.820654	0.151349	1.90316	-0.434213	0.007224	0.16651	1.15715	-1.21006	-0.492938	0.108075	0.947323	
0.67034	4.59595	0	0	-0.552287	0.478269	-0.860064	0.805529	-0.914535	-0.453159	-1.01667	0.203282	0.469361	0.281132	-0.297151	0.819247	-0.082016	0.338726	0.006851	0.865564	-0.399878	0.598515	1.43675	3.03726	0.438094	0.828544	0.152401	1.91447	-0.435177	0.009947	0.170045	1.1567	-1.19713	-0.501389	0.108075	0.947323	
0.670979	4.58984	0	0	-0.555886	0.475859	-0.860076	0.79612	-0.920566	-0.460557	-1.02172	0.196562	0.461947	0.276431	-0.307864	0.815317	-0.0809383	0.335681	0.006143	0.855307	-0.402036	0.604613	1.43325	3.04714	0.428734	0.837995	0.149638	1.92228	-0.432453	0.014452	0.166614	1.1664	-1.19941	-0.494951	0.113314	0.951078	
0.671295	4.58526	0	0	-0.559484	0.473449	-0.860088	0.786711	-0.926597	-0.467955	-1.02677	0.189841	0.454533	0.27173	-0.318577	0.811387	-0.0798605	0.332635	0.005435	0.84505	-0.404193	0.610712	1.42976	3.05703	0.419373	0.847447	0.146874	1.93009	-0.42973	0.018957	0.163183	1.1761	-1.20168	-0.488513	0.118553	0.954832	
0.671037	4.57916	0	0	-0.563083	0.47104	-0.8601	0.777302	-0.932629	-0.475354	-1.03181	0.183121	0.447118	0.267029	-0.329291	0.807458	-0.0787827	0.32959	0.004727	0.834794	-0.406351	0.61681	1.42626	3.06692	0.410013	0.856899	0.144111	1.9379	-0.427007	0.023462	0.159752	1.18579	-1.20396	-0.482075	0.123792	0.958587	
0.67003	4.57306	0	0	-0.566682	0.46863	-0.860112	0.767893	-0.93866	-0.482752	-1.03686	0.176401	0.439704	0.262328	-0.340004	0.803528	-0.077705	0.326545	0.004019	0.824537	-0.408509	0.622908	1.42276	3.07681	0.400653	0.86635	0.141347	1.94571	-0.424283	0.027967	0.156321	1.19549	-1.20624	-0.475637	0.129031	0.962342	
0.668464	4.57306	0	0	-0.567778	0.471726	-0.854034	0.760159	-0.937617	-0.485699	-1.03502	0.171193	0.441898	0.256126	-0.334981	0.789334	-0.0814125	0.324287	0.00207625	0.817778	-0.41523	0.629645	1.42712	3.08157	0.408478	0.861237	0.134776	1.95	-0.431655	0.024406	0.151826	1.18911	-1.2212	-0.47081	0.128888	0.953464	
0.666637	4.57764	0	0	-0.568873	0.474823	-0.847956	0.752424	-0.936575	-0.488646	-1.03318	0.165986	0.444093	0.249924	-0.329959	0.77514	-0.08512	0.322029	0.0001335	0.811019	-0.421951	0.636381	1.43149	3.08633	0.416303	0.856124	0.128204	1.9543	-0.439027	0.020845	0.147331	1.18273	-1.23616	-0.465983	0.128744	0.944586	
0.664846	4.57458	0	0	-0.569968	0.477919	-0.841878	0.74469	-0.935532	-0.491592	-1.03133	0.160778	0.446288	0.243723	-0.324936	0.760945	-0.0888275	0.319772	-0.00180925	0.80426	-0.428672	0.643118	1.43585	3.09109	0.424129	0.85101	0.121633	1.95859	-0.446399	0.017284	0.142836	1.17635	-1.25113	-0.461156	0.128601	0.935709	
0.663387	4.57916	0	0	-0.571064	0.481015	-0.8358	0.736955	-0.934489	-0.494539	-1.02949	0.155571	0.448482	0.237521	-0.319914	0.746751	-0.092535	0.317514	-0.003752	0.797501	-0.435393	0.649855	1.44022	3.09585	0.431954	0.845897	0.115062	1.96288	-0.453771	0.013723	0.138341	1.16997	-1.26609	-0.456329	0.128458	0.926831	
0.662535	4.58069	0	0	-0.569659	0.489627	-0.837532	0.74185	-0.931995	-0.48937	-1.03041	0.158174	0.44519	0.246825	-0.326102	0.747161	-0.0936118	0.320557	0.012661	0.800162	-0.431911	0.652273	1.44544	3.11532	0.431954	0.845897	0.125444	1.96211	-0.455528	0.00650325	0.137379	1.16315	-1.27596	-0.456472	0.124043	0.920756	
0.662278	4.58679	0	0	-0.568255	0.498238	-0.839264	0.746745	-0.929501	-0.484201	-1.03133	0.160778	0.441897	0.25613	-0.332291	0.747571	-0.0946885	0.323601	0.029074	0.802824	-0.42843	0.654691	1.45067	3.1348	0.431954	0.845897	0.135826	1.96134	-0.457285	-0.0007165	0.136417	1.15634	-1.28583	-0.456615	0.119628	0.914681	
0.662406	4.59289	0	0	-0.566851	0.506849	-0.840996	0.751639	-0.927007	-0.479031	-1.03226	0.163381	0.438605	0.265434	-0.338479	0.747981	-0.0957652	0.326644	0.045487	0.805485	-0.424948	0.657109	1.45589	3.15427	0.431954	0.845897	0.146208	1.96056	-0.459042	-0.00793625	0.135455	1.14952	-1.2957	-0.456759	0.115214	0.908606	
0.662705	4.59747	0	0	-0.565446	0.515461	-0.842728	0.756534	-0.924513	-0.473862	-1.03318	0.165985	0.435313	0.274738	-0.344668	0.748391	-0.096842	0.329687	0.0619	0.808147	-0.421466	0.659527	1.46111	3.17374	0.431954	0.845897	0.15659	1.95979	-0.460799	-0.015156	0.134493	1.1427	-1.30558	-0.456902	0.110799	0.902531	
0.66296	4.60968	0	0	-0.567641	0.521665	-0.857501	0.760543	-0.92805	-0.476085	-1.04396	0.16503	0.440117	0.273985	-0.354194	0.75825	-0.0979192	0.332732	0.0613797	0.821899	-0.419064	0.665002	1.4681	3.18831	0.436714	0.849462	0.147245	1.97191	-0.458875	-0.020593	0.130963	1.14315	-1.31619	-0.454908	0.107357	0.90299	
0.662959	4.62036	0	0	-0.569837	0.527868	-0.872274	0.764552	-0.931587	-0.478307	-1.05475	0.164075	0.44492	0.273232	-0.363721	0.768108	-0.0989965	0.335776	0.0608595	0.835651	-0.416661	0.670478	1.47508	3.20288	0.441473	0.853028	0.137901	1.98403	-0.456952	-0.02603	0.127433	1.1436	-1.3268	-0.452914	0.103915	0.903448	
0.662645	4.63257	0	0	-0.572032	0.534072	-0.887047	0.768562	-0.935123	-0.480529	-1.06553	0.163121	0.449724	0.27248	-0.373247	0.777967	-0.100074	0.33882	0.0603392	0.849404	-0.414258	0.675953	1.48206	3.21744	0.446233	0.856593	0.128556	1.99615	-0.455028	-0.031467	0.123903	1.14404	-1.33742	-0.45092	0.100474	0.903906	
0.662196	4.6463	0	0	-0.574227	0.540276	-0.90182	0.772571	-0.93866	-0.482752	-1.07632	0.162166	0.454528	0.271727	-0.382773	0.787825	-0.101151	0.341865	0.059819	0.863156	-0.411856	0.681429	1.48905	3.23201	0.450993	0.860158	0.119211	2.00827	-0.453104	-0.036904	0.120373	1.14449	-1.34803	-0.448926	0.097032	0.904365	
0.661811	4.66003	0	0	-0.574227	0.540276	-0.902712	0.75625	-0.951338	-0.483525	-1.0786	0.147679	0.447119	0.267029	-0.382266	0.769345	-0.104855	0.339605	0.0591057	0.85289	-0.41642	0.682062	1.49166	3.24181	0.449456	0.864503	0.119211	2.00827	-0.45967	-0.0305237	0.116845	1.14494	-1.36443	-0.439859	0.092768	0.907151	
0.661687	4.67987	0	0	-0.574227	0.540276	-0.903604	0.739929	-0.964017	-0.484299	-1.08088	0.133192	0.439709	0.262331	-0.38176	0.750865	-0.108558	0.337344	0.0583925	0.842624	-0.420984	0.682695	1.49427	3.25161	0.447918	0.868847	0.119211	2.00827	-0.466237	-0.0241435	0.113317	1.14538	-1.38082	-0.430792	0.088504	0.909937	
0.662025	4.69208	0	0	-0.574227	0.540276	-0.904497	0.723608	-0.976695	-0.485072	-1.08316	0.118704	0.4323	0.257634	-0.381254	0.732385	-0.112262	0.335084	0.0576793	0.832359	-0.425548	0.683328	1.49688	3.26141	0.446381	0.873192	0.119211	2.00827	-0.472804	-0.0177633	0.10979	1.14583	-1.39722	-0.421725	0.08424	0.912723	
0.662936	4.70581	0	0	-0.574227	0.540276	-0.905389	0.707287	-0.989373	-0.485845	-1.08543	0.104217	0.424891	0.252936	-0.380747	0.713905	-0.115965	0.332824	0.056966	0.822093	-0.430112	0.683961	1.49948	3.2712	0.444844	0.877537	0.119211	2.00827	-0.47937	-0.011383	0.106262	1.14627	-1.41361	-0.412658	0.079976	0.915509	
0.664231	4.71649	0	0	-0.572032	0.534072	-0.910601	0.703193	-0.987291	-0.49173	-1.09047	0.0975402	0.425988	0.249837	-0.383585	0.704893	-0.11859	0.327525	0.0537838	0.818813	-0.43707	0.679119	1.50386	3.27602	0.446381	0.873192	0.115408	2.00474	-0.477447	-0.0168185	0.103485	1.13509	-1.42846	-0.407893	0.0754265	0.900602	
0.665653	4.73328	0	0	-0.569837	0.527868	-0.915812	0.699099	-0.985208	-0.497615	-1.0955	0.0908635	0.427084	0.246737	-0.386424	0.695881	-0.121216	0.322226	0.0506015	0.815532	-0.444028	0.674276	1.50824	3.28084	0.447918	0.868847	0.111604	2.00121	-0.475523	-0.022254	0.100708	1.1239	-1.44331	-0.403127	0.070877	0.885695	
0.666942	4.75311	0	0	-0.567641	0.521665	-0.921024	0.695005	-0.983126	-0.5035	-1.10054	0.0841868	0.428181	0.243638	-0.389262	0.686869	-0.123841	0.316927	0.0474192	0.812252	-0.450987	0.669434	1.51262	3.28566	0.449456	0.864503	0.107801	1.99768	-0.4736	-0.0276895	0.097931	1.11271	-1.45815	-0.398362	0.0663275	0.870789	
0.667843	4.7699	0	0	-0.565446	0.515461	-0.926236	0.690911	-0.981044	-0.509385	-1.10557	0.07751	0.429277	0.240539	-0.3921	0.677857	-0.126466	0.311628	0.044237	0.808972	-0.457945	0.664591	1.51699	3.29048	0.450993	0.860158	0.103998	1.99415	-0.471677	-0.033125	0.095154	1.10153	-1.473	-0.393597	0.061778	0.855882	
0.668122	4.78668	0	0	-0.574829	0.516826	-0.921888	0.697445	-0.98521	-0.497611	-1.1074	0.082693	0.431884	0.245986	-0.393766	0.682566	-0.133862	0.307119	0.049886	0.805281	-0.462739	0.653664	1.50554	3.30565	0.460369	0.850693	0.103998	1.99415	-0.470716	-0.0358415	0.0906695	1.09518	-1.48004	-0.39229	0.0624497	0.844738	
0.667819	4.80194	0	0	-0.584212	0.51819	-0.917539	0.703979	-0.989376	-0.485837	-1.10924	0.087876	0.434491	0.251433	-0.395432	0.687275	-0.141257	0.302611	0.055535	0.801589	-0.467533	0.642737	1.49409	3.32082	0.469745	0.841228	0.103998	1.99415	-0.469755	-0.038558	0.086185	1.08884	-1.48707	-0.390984	0.0631215	0.833593	
0.667134	4.82483	0	0	-0.593595	0.519555	-0.913191	0.710514	-0.993542	-0.474063	-1.11107	0.093059	0.437097	0.256881	-0.397099	0.691984	-0.148653	0.298102	0.061184	0.797898	-0.472326	0.631809	1.48264	3.33599	0.479122	0.831763	0.103998	1.99415	-0.468793	-0.0412745	0.0817005	1.0825	-1.4941	-0.389678	0.0637932	0.822449	
0.666269	4.83551	0	0	-0.602978	0.52092	-0.908843	0.717048	-0.997708	-0.462289	-1.11291	0.098242	0.439704	0.262328	-0.398765	0.696693	-0.156049	0.293593	0.066833	0.794207	-0.47712	0.620882	1.47119	3.35116	0.488498	0.822298	0.103998	1.99415	-0.467832	-0.043991	0.077216	1.07616	-1.50114	-0.388371	0.064465	0.811304	
0.665426	4.85229	0	0	-0.612347	0.522279	-0.908829	0.726428	-0.999793	-0.456396	-1.11199	0.09565	0.43531	0.274745	-0.388083	0.700585	-0.163434	0.289091	0.0618975	0.808156	-0.489683	0.619734	1.47556	3.35601	0.485424	0.830985	0.109186	1.99377	-0.46415	-0.0422192	0.081591	1.0733	-1.50038	-0.390509	0.0695407	0.806205	
0.664803	4.85992	0	0	-0.621716	0.523637	-0.908815	0.735807	-1.00188	-0.450504	-1.11107	0.093058	0.430917	0.287161	-0.377401	0.704477	-0.17082	0.284588	0.056962	0.822104	-0.502246	0.618586	1.47993	3.36085	0.48235	0.839673	0.114373	1.99339	-0.460468	-0.0404475	0.085966	1.07044	-1.49962	-0.392648	0.0746165	0.801106	
0.66444	4.86603	0	0	-0.631084	0.524996	-0.908801	0.745186	-1.00396	-0.444611	-1.11016	0.090466	0.426523	0.299577	-0.366718	0.70837	-0.178206	0.280085	0.0520265	0.836052	-0.514808	0.617437	1.4843	3.36569	0.479276	0.84836	0.119561	1.993	-0.456786	-0.0386758	0.090341	1.06758	-1.49886	-0.394786	0.0796922	0.796006	
0.664161	4.87823	0	0	-0.640453	0.526355	-0.908787	0.754566	-1.00605	-0.438718	-1.10924	0.087874	0.42213	0.311994	-0.356036	0.712262	-0.185591	0.275583	0.047091	0.850001	-0.527371	0.616289	1.48867	3.37053	0.476202	0.857047	0.124749	1.99262	-0.453104	-0.036904	0.094716	1.06472	-1.49811	-0.396924	0.084768	0.790907	
0.663771	4.88129	0	0	-0.647619	0.521521	-0.909665	0.747628	-1.00957	-0.440946	-1.11335	0.0786178	0.417331	0.312742	-0.362214	0.712673	-0.198792	0.274893	0.0451442	0.843229	-0.535373	0.614508	1.47898	3.38071	0.480972	0.860616	0.110227	2.00512	-0.451345	-0.029691	0.0992047	1.07106	-1.49384	-0.399716	0.0857425	0.797404	
0.663076	4.88739	0	0	-0.654785	0.516687	-0.910543	0.74069	-1.0131	-0.443175	-1.11746	0.0693615	0.412532	0.31349	-0.368391	0.713083	-0.211994	0.274204	0.0431975	0.836456	-0.543375	0.612727	1.4693	3.39089	0.485742	0.864185	0.095704	2.01761	-0.449585	-0.022478	0.103693	1.0774	-1.48956	-0.402508	0.086717	0.8039	
0.661882	4.89349	0	0	-0.66195	0.511854	-0.91142	0.733751	-1.01662	-0.445403	-1.12158	0.0601052	0.407734	0.314238	-0.374569	0.713494	-0.225195	0.273514	0.0412508	0.829684	-0.551376	0.610946	1.45962	3.40107	0.490511	0.867753	0.0811815	2.03011	-0.447825	-0.015265	0.108182	1.08374	-1.48529	-0.405299	0.0876915	0.810396	
0.660148	4.89349	0	0	-0.669116	0.50702	-0.912298	0.726813	-1.02014	-0.447631	-1.12569	0.050849	0.402935	0.314986	-0.380747	0.713905	-0.238396	0.272824	0.039304	0.822912	-0.559378	0.609165	1.44993	3.41125	0.495281	0.871322	0.066659	2.04261	-0.446066	-0.008052	0.112671	1.09008	-1.48102	-0.408091	0.088666	0.816893	
0.658315	4.89349	0	0	-0.668022	0.503928	-0.911434	0.724372	-1.0247	-0.446914	-1.12203	0.0405068	0.404033	0.311881	-0.377412	0.70448	-0.238866	0.261504	0.0361245	0.819632	-0.56069	0.600687	1.45348	3.40123	0.495281	0.871322	0.0642492	2.03516	-0.449749	-0.009828	0.11	1.08812	-1.48881	-0.404647	0.0809742	0.820135	
0.656921	4.89197	0	0	-0.666928	0.500837	-0.91057	0.721931	-1.02927	-0.446196	-1.11837	0.0301645	0.405132	0.308777	-0.374077	0.695054	-0.239337	0.250185	0.032945	0.816352	-0.562002	0.59221	1.45702	3.39122	0.495281	0.871322	0.0618395	2.02772	-0.453433	-0.011604	0.107328	1.08615	-1.49659	-0.401203	0.0732825	0.823377	
0.656501	4.88586	0	0	-0.665834	0.497745	-0.909707	0.719489	-1.03383	-0.445479	-1.11471	0.0198222	0.40623	0.305672	-0.370742	0.685628	-0.239808	0.238865	0.0297655	0.813072	-0.563314	0.583732	1.46056	3.3812	0.495281	0.871322	0.0594298	2.02027	-0.457116	-0.01338	0.104656	1.08419	-1.50438	-0.397759	0.0655908	0.826619	
0.657592	4.87823	0	0	-0.66474	0.494653	-0.908843	0.717048	-1.03839	-0.444762	-1.11105	0.00948	0.407329	0.302567	-0.367407	0.676203	-0.240278	0.227545	0.026586	0.809792	-0.564626	0.575255	1.46411	3.37118	0.495281	0.871322	0.05702	2.01283	-0.460799	-0.015156	0.101985	1.08222	-1.51216	-0.394315	0.057899	0.829861	
0.660591	4.86755	0	0	-0.675176	0.499096	-0.908829	0.726428	-1.04048	-0.438871	-1.11197	0.0120645	0.411029	0.304924	-0.369074	0.680914	-0.242889	0.222284	0.0253533	0.813276	-0.573686	0.576512	1.46411	3.37118	0.501595	0.870541	0.0584025	2.00892	-0.457914	-0.0233105	0.0993148	1.08026	-1.52922	-0.383168	0.056928	0.823364	
0.664916	4.85229	0	0	-0.685612	0.503539	-0.908815	0.735807	-1.04256	-0.43298	-1.11288	0.014649	0.414729	0.30728	-0.370741	0.685626	-0.2455	0.217023	0.0241205	0.816759	-0.582745	0.577769	1.46411	3.37118	0.50791	0.869761	0.059785	2.00501	-0.455029	-0.031465	0.0966445	1.0783	-1.54628	-0.37202	0.055957	0.816867	
0.669567	4.84314	0	0	-0.696049	0.507982	-0.908801	0.745186	-1.04465	-0.427089	-1.1138	0.0172335	0.41843	0.309637	-0.372408	0.690338	-0.248112	0.211763	0.0228877	0.820243	-0.591805	0.579026	1.46411	3.37118	0.514224	0.86898	0.0611675	2.0011	-0.452143	-0.0396195	0.0939742	1.07633	-1.56334	-0.360873	0.054986	0.81037	
0.673542	4.83398	0	0	-0.706485	0.512425	-0.908787	0.754566	-1.04673	-0.421198	-1.11471	0.019818	0.42213	0.311994	-0.374075	0.695049	-0.250723	0.206502	0.021655	0.823727	-0.600865	0.580283	1.46411	3.37118	0.520538	0.868199	0.06255	1.9972	-0.449258	-0.047774	0.091304	1.07437	-1.5804	-0.349726	0.054015	0.803873	
0.675839	4.81567	0	0	-0.711151	0.513099	-0.91398	0.769242	-1.04777	-0.418251	-1.12431	0.0260905	0.421031	0.315101	-0.371235	0.704071	-0.255469	0.207282	0.0223647	0.833987	-0.590732	0.575993	1.46234	3.37619	0.528558	0.879708	0.0611675	2.0011	-0.453106	-0.0368995	0.0957917	1.08071	-1.57188	-0.355297	0.0464815	0.815927	
0.675488	4.80347	0	0	-0.715817	0.513772	-0.919174	0.783918	-1.04882	-0.415304	-1.13391	0.032363	0.419932	0.318207	-0.368395	0.713093	-0.260215	0.208062	0.0230745	0.844247	-0.580599	0.571703	1.46057	3.3812	0.536578	0.891217	0.059785	2.00501	-0.456954	-0.026025	0.100279	1.08705	-1.56335	-0.360868	0.038948	0.827981	
0.672696	4.78973	0	0	-0.720482	0.514446	-0.924367	0.798595	-1.04986	-0.412357	-1.14351	0.0386355	0.418832	0.321314	-0.365555	0.722115	-0.26496	0.208843	0.0237842	0.854506	-0.570466	0.567413	1.45879	3.3862	0.544598	0.902727	0.0584025	2.00892	-0.460801	-0.0151505	0.104767	1.09339	-1.55482	-0.366438	0.0314145	0.840035	
0.669173	4.776	0	0	-0.725148	0.515119	-0.92956	0.813271	-1.0509	-0.40941	-1.15311	0.044908	0.417733	0.324421	-0.362715	0.731137	-0.269706	0.209623	0.024494	0.864766	-0.560333	0.563123	1.45702	3.39121	0.552618	0.914236	0.05702	2.01283	-0.464649	-0.004276	0.109255	1.09974	-1.5463	-0.372009	0.023881	0.852089	
0.666722	4.76074	0	0	-0.736942	0.510961	-0.938237	0.800145	-1.0604	-0.419046	-1.16109	0.0362282	0.407041	0.329019	-0.372232	0.740986	-0.268638	0.206605	0.0188487	0.868455	-0.564628	0.575261	1.45961	3.40108	0.546437	0.931704	0.0594298	2.02027	-0.463857	0.005671	0.110322	1.11576	-1.54781	-0.367733	0.030066	0.862332	
0.667147	4.75006	0	0	-0.748735	0.506803	-0.946913	0.78702	-1.0699	-0.428681	-1.16908	0.0275485	0.396348	0.333617	-0.381749	0.750835	-0.26757	0.203588	0.0132035	0.872143	-0.568923	0.587399	1.4622	3.41095	0.540257	0.949172	0.0618395	2.02772	-0.463065	0.015618	0.11139	1.13179	-1.54933	-0.363457	0.036251	0.872576	
0.672254	4.73938	0	0	-0.760529	0.502646	-0.955589	0.773895	-1.0794	-0.438316	-1.17706	0.0188687	0.385656	0.338215	-0.391267	0.760683	-0.266503	0.200571	0.00755825	0.875832	-0.573218	0.599537	1.46479	3.42082	0.534076	0.966641	0.0642492	2.03516	-0.462273	0.025565	0.112457	1.14782	-1.55084	-0.359181	0.042436	0.88282	
0.682543	4.73022	0	0	-0.772323	0.498488	-0.964266	0.760769	-1.0889	-0.447952	-1.18504	0.010189	0.374964	0.342813	-0.400784	0.770532	-0.265435	0.197553	0.001913	0.879521	-0.577513	0.611675	1.46738	3.43069	0.527895	0.984109	0.066659	2.04261	-0.461481	0.035512	0.113524	1.16385	-1.55235	-0.354905	0.048621	0.893063	
0.693777	4.72259	0	0	-0.772323	0.498488	-0.973784	0.759485	-1.098	-0.446528	-1.18892	0.0107382	0.374964	0.342813	-0.405283	0.766214	-0.264367	0.194537	0.001913	0.879521	-0.572979	0.611047	1.46997	3.44058	0.531127	0.992086	0.0587127	2.05081	-0.461481	0.035512	0.112668	1.16627	-1.55586	-0.354257	0.0350385	0.903726	
0.700641	4.71496	0	0	-0.772323	0.498488	-0.983303	0.758201	-1.1071	-0.445105	-1.19279	0.0112875	0.374964	0.342813	-0.409782	0.761896	-0.2633	0.19152	0.001913	0.879521	-0.568446	0.61042	1.47256	3.45047	0.534358	1.00006	0.0507665	2.05901	-0.461481	0.035512	0.111811	1.16869	-1.55937	-0.35361	0.021456	0.914389	
0.697822	4.71954	0	0	-0.772323	0.498488	-0.992822	0.756918	-1.11619	-0.443681	-1.19667	0.0118368	0.374964	0.342813	-0.414281	0.757578	-0.262232	0.188504	0.001913	0.879521	-0.563912	0.609792	1.47515	3.46036	0.53759	1.00804	0.0428203	2.06721	-0.461481	0.035512	0.110954	1.17111	-1.56287	-0.352962	0.0078735	0.925052	
0.680007	4.72107	0	0	-0.772323	0.498488	-1.00234	0.755634	-1.12529	-0.442257	-1.20054	0.012386	0.374964	0.342813	-0.41878	0.75326	-0.261165	0.185487	0.001913	0.879521	-0.559378	0.609165	1.47774	3.47025	0.540822	1.01602	0.034874	2.07542	-0.461481	0.035512	0.110098	1.17353	-1.56638	-0.352314	-0.005709	0.935715	
0.642884	4.72565	0	0	-0.775598	0.507744	-1.00666	0.767836	-1.12386	-0.434145	-1.19941	0.019579	0.381255	0.350653	-0.414281	0.757578	-0.2633	0.191521	0.0146225	0.892714	-0.555916	0.611575	1.49085	3.4849	0.544054	1.02401	0.0410675	2.08643	-0.464374	0.0436887	0.104001	1.18124	-1.57415	-0.348884	-0.00735525	0.940368	
0.593589	4.73175	0	0	-0.778873	0.517	-1.01097	0.780037	-1.12244	-0.426033	-1.19827	0.026772	0.387547	0.358494	-0.409782	0.761896	-0.265435	0.197555	0.027332	0.905907	-0.552455	0.613985	1.50397	3.49955	0.547287	1.032	0.047261	2.09745	-0.467267	0.0518655	0.0979035	1.18894	-1.58191	-0.345453	-0.0090015	0.94502	
0.546531	4.73938	0	0	-0.782149	0.526256	-1.01529	0.792239	-1.12101	-0.417921	-1.19714	0.033965	0.393838	0.366334	-0.405283	0.766214	-0.267571	0.203589	0.0400415	0.9191	-0.548993	0.616396	1.51708	3.51421	0.550519	1.04	0.0534545	2.10847	-0.470161	0.0600423	0.0918062	1.19665	-1.58968	-0.342023	-0.0106477	0.949672	
0.516239	4.74243	0	0	-0.785424	0.535512	-1.01961	0.804441	-1.11959	-0.409809	-1.196	0.041158	0.400129	0.374174	-0.400784	0.770532	-0.269706	0.209623	0.052751	0.932293	-0.545531	0.618806	1.53019	3.52886	0.553751	1.04799	0.059648	2.11949	-0.473054	0.068219	0.085709	1.20436	-1.59744	-0.338593	-0.012294	0.954325	
0.516436	4.74548	0	0	-0.788702	0.544778	-1.02653	0.823999	-1.12025	-0.395789	-1.20444	0.0546198	0.409026	0.387525	-0.407475	0.789443	-0.273981	0.221704	0.061759	0.956076	-0.543144	0.62426	1.54414	3.55862	0.560217	1.06402	0.0654628	2.14593	-0.469554	0.0827245	0.0875205	1.20877	-1.59318	-0.341376	-0.014765	0.961309	
0.547581	4.74243	0	0	-0.791981	0.554043	-1.03345	0.843557	-1.12092	-0.381769	-1.21289	0.0680815	0.417923	0.400876	-0.414166	0.808353	-0.278255	0.233785	0.070767	0.97986	-0.540756	0.629714	1.55808	3.58839	0.566682	1.08004	0.0712775	2.17236	-0.466055	0.09723	0.089332	1.21317	-1.58892	-0.344159	-0.017236	0.968292	
0.599259	4.74396	0	0	-0.79526	0.563309	-1.04037	0.863115	-1.12158	-0.367749	-1.22133	0.0815433	0.42682	0.414228	-0.420858	0.827264	-0.282529	0.245865	0.079775	1.00364	-0.538369	0.635169	1.57203	3.61816	0.573148	1.09607	0.0770923	2.19879	-0.462556	0.111735	0.0911435	1.21758	-1.58466	-0.346943	-0.019707	0.975275	
0.660733	4.74396	0	0	-0.798538	0.572575	-1.04729	0.882673	-1.12224	-0.353729	-1.22978	0.095005	0.435717	0.427579	-0.427549	0.846175	-0.286804	0.257946	0.088783	1.02743	-0.535981	0.640623	1.58597	3.64792	0.579614	1.1121	0.082907	2.22523	-0.459056	0.126241	0.092955	1.22198	-1.5804	-0.349726	-0.022178	0.982259	
0.721269	4.74243	0	0	-0.798538	0.572575	-1.04556	0.87778	-1.12329	-0.35078	-1.23365	0.095547	0.439422	0.429957	-0.427549	0.846175	-0.287874	0.260969	0.092664	1.04113	-0.532516	0.643039	1.59554	3.67293	0.582847	1.12014	0.0849095	2.2482	-0.455561	0.14079	0.0930493	1.23124	-1.57263	-0.353159	-0.0237	0.995797	
0.770128	4.73938	0	5	-0.798538	0.572575	-1.04383	0.872886	-1.12433	-0.347832	-1.23752	0.096089	0.443128	0.432336	-0.427549	0.846175	-0.288943	0.263992	0.096545	1.05483	-0.529051	0.645455	1.60511	3.69794	0.586081	1.12817	0.086912	2.27117	-0.452066	0.155339	0.0931435	1.24051	-1.56486	-0.356592	-0.025222	1.00934	
0.796616	4.74396	0	5	-0.798538	0.572575	-1.0421	0.867992	-1.12537	-0.344883	-1.24139	0.096631	0.446833	0.434715	-0.427549	0.846175	-0.290013	0.267014	0.100426	1.06853	-0.525585	0.64787	1.61468	3.72295	0.589314	1.13621	0.0889145	2.29415	-0.448571	0.169889	0.0932377	1.24977	-1.55709	-0.360025	-0.026744	1.02287	
0.795836	4.74548	0	5	-0.798538	0.572575	-1.04036	0.863099	-1.12642	-0.341934	-1.24526	0.097173	0.450538	0.437093	-0.427549	0.846175	-0.291082	0.270037	0.104307	1.08223	-0.52212	0.650286	1.62425	3.74796	0.592548	1.14424	0.090917	2.31712	-0.445076	0.184438	0.093332	1.25903	-1.54933	-0.363458	-0.028266	1.03641	
0.774728	4.75006	0	5	-0.803188	0.573238	-1.03258	0.859896	-1.1285	-0.336033	-1.24434	0.0945895	0.450538	0.437093	-0.427549	0.846175	-0.290013	0.267014	0.106246	1.0891	-0.521888	0.661849	1.62761	3.77323	0.592659	1.16112	0.0957075	2.33226	-0.447986	0.192662	0.0934227	1.26831	-1.54155	-0.366896	-0.023061	1.04019	
0.741678	4.76379	0	5	-0.807839	0.573901	-1.0248	0.856692	-1.13059	-0.330132	-1.24343	0.092006	0.450538	0.437093	-0.427549	0.846175	-0.288943	0.263992	0.108185	1.09597	-0.521656	0.673412	1.63098	3.7985	0.59277	1.178	0.100498	2.3474	-0.450897	0.200887	0.0935135	1.27759	-1.53377	-0.370334	-0.017856	1.04397	
0.705071	4.78058	0	5	-0.812489	0.574565	-1.01702	0.853489	-1.13268	-0.324232	-1.24252	0.0894225	0.450538	0.437093	-0.427549	0.846175	-0.287874	0.260969	0.110125	1.10283	-0.521425	0.684975	1.63434	3.82377	0.592882	1.19487	0.105288	2.36253	-0.453807	0.209112	0.0936042	1.28687	-1.52599	-0.373772	-0.012651	1.04774	
0.673289	4.79126	0	5	-0.81714	0.575228	-1.00924	0.850286	-1.13477	-0.318331	-1.2416	0.086839	0.450538	0.437093	-0.427549	0.846175	-0.286804	0.257946	0.112064	1.1097	-0.521193	0.696538	1.63771	3.84905	0.592993	1.21175	0.110079	2.37767	-0.456717	0.217336	0.093695	1.29615	-1.51822	-0.37721	-0.007446	1.05152	
0.653409	4.80804	0	5	-0.818511	0.566631	-1.00838	0.84784	-1.12813	-0.324937	-1.23977	0.0816738	0.457561	0.430104	-0.422529	0.831988	-0.28527	0.266244	0.124829	1.12309	-0.515112	0.716054	1.66335	3.86382	0.59935	1.21099	0.114867	2.39286	-0.452837	0.206371	0.0936042	1.28687	-1.53101	-0.368848	-0.00935075	1.03842	
0.64479	4.82025	0	5	-0.819881	0.558033	-1.00751	0.845394	-1.12149	-0.331543	-1.23795	0.0765085	0.464584	0.423115	-0.417509	0.817802	-0.283737	0.274542	0.137594	1.13649	-0.509031	0.735569	1.68899	3.8786	0.605706	1.21023	0.119656	2.40805	-0.448958	0.195407	0.0935135	1.27759	-1.54381	-0.360486	-0.0112555	1.02531	
0.643972	4.83551	0	5	-0.821252	0.549436	-1.00665	0.842947	-1.11485	-0.338149	-1.23612	0.0713432	0.471606	0.416126	-0.41249	0.803615	-0.282203	0.28284	0.150359	1.14988	-0.502951	0.755084	1.71463	3.89338	0.612063	1.20947	0.124444	2.42324	-0.445078	0.184443	0.0934227	1.26831	-1.55661	-0.352123	-0.0131603	1.01221	
0.647493	4.85077	0	5	-0.822623	0.540839	-1.00578	0.840501	-1.10822	-0.344755	-1.23429	0.066178	0.478629	0.409137	-0.40747	0.789428	-0.28067	0.291138	0.163124	1.16328	-0.49687	0.7746	1.74027	3.90815	0.61842	1.20871	0.129233	2.43842	-0.441198	0.173478	0.093332	1.25903	-1.56941	-0.343761	-0.015065	0.999103	
0.65189	4.85077	0	5	-0.836824	0.531171	-1.01011	0.843327	-1.11418	-0.352186	-1.24702	0.0606125	0.482342	0.411512	-0.4198	0.790223	-0.268563	0.29487	0.18874	1.19022	-0.478405	0.783743	1.76237	3.93333	0.628023	1.21603	0.149682	2.45263	-0.434602	0.167062	0.099533	1.26058	-1.56439	-0.348685	-0.0049075	0.988884	
0.653908	4.8584	0	5	-0.851025	0.521504	-1.01443	0.846152	-1.12015	-0.359618	-1.25974	0.055047	0.486054	0.413887	-0.432129	0.791017	-0.256457	0.298602	0.214357	1.21716	-0.45994	0.792887	1.78448	3.9585	0.637625	1.22335	0.170131	2.46683	-0.428006	0.160646	0.105734	1.26213	-1.55937	-0.35361	0.00525	0.978664	
0.652873	4.86297	0	5	-0.865225	0.511837	-1.01875	0.848977	-1.12612	-0.36705	-1.27247	0.0494815	0.489766	0.416263	-0.444459	0.791812	-0.24435	0.302335	0.239974	1.2441	-0.441474	0.80203	1.80659	3.98367	0.647228	1.23068	0.19058	2.48104	-0.42141	0.154231	0.111935	1.26368	-1.55435	-0.358534	0.0154075	0.968444	
0.64986	4.86908	0	5	-0.879426	0.502169	-1.02308	0.851803	-1.13209	-0.374481	-1.28519	0.043916	0.493479	0.418638	-0.456789	0.792607	-0.232244	0.306067	0.26559	1.27104	-0.423009	0.811173	1.82869	4.00885	0.656831	1.238	0.211029	2.49525	-0.414814	0.147815	0.118136	1.26523	-1.54933	-0.363458	0.025565	0.958225	
0.645979	4.88281	0	5	-0.89359	0.492529	-1.02739	0.845228	-1.13597	-0.387777	-1.29516	0.0306485	0.505336	0.410891	-0.464092	0.779259	-0.222727	0.304511	0.289367	1.2912	-0.403167	0.828959	1.83206	4.03452	0.669696	1.25345	0.216815	2.52223	-0.413062	0.155097	0.127974	1.27563	-1.54506	-0.366246	0.028998	0.957773	
0.642337	4.90265	5	0	-0.907754	0.482889	-1.03171	0.838652	-1.13986	-0.401073	-1.30513	0.017381	0.517192	0.403143	-0.471395	0.76591	-0.213209	0.302955	0.313144	1.31136	-0.383325	0.846745	1.83542	4.06019	0.682562	1.2689	0.222601	2.54921	-0.41131	0.16238	0.137813	1.28603	-1.54079	-0.369033	0.032431	0.95732	
0.640007	4.91943	5	0	-0.921917	0.47325	-1.03603	0.832076	-1.14374	-0.414369	-1.31509	0.0041135	0.529049	0.395396	-0.478699	0.752562	-0.203692	0.301399	0.336922	1.33152	-0.363483	0.864531	1.83878	4.08586	0.695427	1.28435	0.228387	2.57619	-0.409558	0.169662	0.147651	1.29643	-1.53653	-0.37182	0.035864	0.956867	
0.639285	4.94995	5	0	-0.936081	0.46361	-1.04035	0.825501	-1.14762	-0.427665	-1.32506	-0.009154	0.540906	0.387649	-0.486002	0.739214	-0.194175	0.299843	0.360699	1.35167	-0.343641	0.882317	1.84214	4.11153	0.708292	1.2998	0.234173	2.60317	-0.407806	0.176944	0.15749	1.30683	-1.53226	-0.374608	0.039297	0.956415	
0.639729	4.98199	5	0	-0.944514	0.450277	-1.04897	0.812383	-1.14593	-0.444567	-1.33976	-0.0192715	0.54422	0.378283	-0.499435	0.72631	-0.189411	0.299063	0.378109	1.36512	-0.329644	0.892163	1.85361	4.13203	0.716255	1.2946	0.24706	2.61018	-0.407806	0.176944	0.159305	1.31127	-1.54003	-0.371172	0.046994	0.953177	
0.640871	5.02319	5	0	-0.952946	0.436945	-1.0576	0.799265	-1.14424	-0.461468	-1.35446	-0.029389	0.547534	0.368916	-0.512867	0.713406	-0.184647	0.298282	0.39552	1.37856	-0.315646	0.90201	1.86507	4.15252	0.724219	1.28939	0.259948	2.61719	-0.407806	0.176944	0.161121	1.3157	-1.54781	-0.367737	0.054691	0.949939	
0.642239	5.06439	5	0	-0.961379	0.423613	-1.06622	0.786148	-1.14255	-0.47837	-1.36917	-0.0395065	0.550848	0.35955	-0.5263	0.700501	-0.179883	0.297502	0.41293	1.39201	-0.301649	0.911857	1.87653	4.17301	0.732182	1.28419	0.272836	2.6242	-0.407806	0.176944	0.162937	1.32013	-1.55558	-0.364301	0.062388	0.946702	
0.64337	5.09643	5	0	-0.969811	0.41028	-1.07485	0.77303	-1.14085	-0.495271	-1.38387	-0.049624	0.554162	0.350184	-0.539732	0.687597	-0.175119	0.296721	0.430341	1.40545	-0.287652	0.921703	1.888	4.19351	0.740145	1.27899	0.285723	2.63121	-0.407806	0.176944	0.164752	1.32457	-1.56336	-0.360865	0.070085	0.943464	
0.644011	5.12848	5	0	-0.979031	0.411602	-1.06795	0.781644	-1.14293	-0.489405	-1.38296	-0.0521853	0.555677	0.358796	-0.536412	0.678216	-0.178342	0.305829	0.453605	1.41516	-0.279544	0.923541	1.90948	4.20354	0.746544	1.27822	0.293382	2.63858	-0.405866	0.171462	0.1727	1.32125	-1.56686	-0.360217	0.0759975	0.936018	
0.644209	5.15747	5	0	-0.988251	0.412924	-1.06105	0.790258	-1.14501	-0.48354	-1.38205	-0.0547465	0.557192	0.367409	-0.533093	0.668835	-0.181565	0.314937	0.47687	1.42487	-0.271436	0.925379	1.93096	4.21358	0.752943	1.27745	0.301041	2.64594	-0.403926	0.16598	0.180648	1.31793	-1.57037	-0.35957	0.08191	0.928573	
0.64403	5.17731	5	0	-0.997471	0.414246	-1.05415	0.798871	-1.14708	-0.477674	-1.38115	-0.0573077	0.558707	0.376022	-0.529774	0.659454	-0.184788	0.324046	0.500134	1.43458	-0.263329	0.927217	1.95245	4.22362	0.759342	1.27669	0.3087	2.65331	-0.401987	0.160497	0.188595	1.31461	-1.57387	-0.358923	0.0878225	0.921127	
0.643542	5.18494	5	0	-1.00669	0.415568	-1.04725	0.807485	-1.14916	-0.471808	-1.38024	-0.059869	0.560222	0.384634	-0.526454	0.650073	-0.188011	0.333154	0.523398	1.44429	-0.255221	0.929055	1.97393	4.23366	0.765741	1.27592	0.316359	2.66068	-0.400047	0.155015	0.196543	1.31129	-1.57738	-0.358275	0.093735	0.913681	
0.642813	5.19867	5	0	-1.01346	0.422341	-1.04985	0.824211	-1.14669	-0.466648	-1.38387	-0.0496188	0.563246	0.401904	-0.528113	0.654762	-0.181703	0.340719	0.533842	1.46525	-0.230601	0.946366	1.96392	4.24422	0.786674	1.2862	0.322601	2.67209	-0.403928	0.165983	0.206417	1.32173	-1.56961	-0.361708	0.0904365	0.923003	
0.641922	5.20935	5	0	-1.02023	0.429115	-1.05245	0.840937	-1.14423	-0.461487	-1.3875	-0.0393685	0.566269	0.419173	-0.529772	0.659452	-0.175394	0.348283	0.544285	1.48622	-0.205981	0.963678	1.95392	4.25478	0.807607	1.29647	0.328843	2.68351	-0.407809	0.176951	0.216291	1.33217	-1.56184	-0.365142	0.087138	0.932325	
0.64098	5.21393	5	0	-1.027	0.435889	-1.05505	0.857663	-1.14177	-0.456327	-1.39112	-0.0291183	0.569293	0.436443	-0.531432	0.664141	-0.169085	0.355847	0.554728	1.50718	-0.181362	0.980989	1.94392	4.26533	0.828539	1.30674	0.335085	2.69492	-0.411689	0.187918	0.226166	1.3426	-1.55407	-0.368576	0.0838395	0.941647	
0.640098	5.22003	5	0	-1.03377	0.442662	-1.05764	0.874389	-1.1393	-0.451167	-1.39475	-0.018868	0.572317	0.453713	-0.533091	0.66883	-0.162777	0.363412	0.565172	1.52814	-0.156742	0.998301	1.93392	4.27589	0.849472	1.31702	0.341327	2.70634	-0.41557	0.198886	0.23604	1.35304	-1.5463	-0.372009	0.080541	0.950969	
0.63939	5.21698	5	0	-1.04296	0.443972	-1.07661	0.881145	-1.14838	-0.44975	-1.40627	-0.0172547	0.573108	0.477329	-0.542541	0.678612	-0.164931	0.369499	0.563292	1.54609	-0.134223	1.02196	1.92392	4.28645	0.856116	1.35049	0.347115	2.73365	-0.402734	0.211624	0.247844	1.37735	-1.53576	-0.373961	0.0877015	0.967836	
0.638968	5.20935	5	0	-1.05216	0.445281	-1.09559	0.887902	-1.15746	-0.448333	-1.41778	-0.0156415	0.573898	0.500945	-0.551991	0.688393	-0.167085	0.375587	0.561411	1.56405	-0.111703	1.04561	1.91392	4.297	0.862761	1.38395	0.352903	2.76097	-0.389898	0.224363	0.259648	1.40165	-1.52523	-0.375912	0.094862	0.984702	
0.638902	5.20325	5	0	-1.06136	0.446591	-1.11456	0.894659	-1.16654	-0.446915	-1.4293	-0.0140283	0.574689	0.524561	-0.56144	0.698175	-0.169239	0.381675	0.559531	1.582	-0.0891842	1.06927	1.90393	4.30756	0.869406	1.41742	0.358691	2.78828	-0.377062	0.237101	0.271452	1.42595	-1.5147	-0.377864	0.102023	1.00157	
0.639142	5.20019	5	0	-1.07056	0.4479	-1.13353	0.901415	-1.17561	-0.445498	-1.44081	-0.012415	0.57548	0.548177	-0.57089	0.707956	-0.171393	0.387762	0.557651	1.59995	-0.066665	1.09292	1.89393	4.31811	0.87605	1.45089	0.364479	2.81559	-0.364226	0.249839	0.283256	1.45026	-1.50416	-0.379816	0.109183	1.01844	
0.639618	5.18188	5	0	-1.0765	0.440046	-1.14644	0.909853	-1.17769	-0.439627	-1.44012	-0.0246755	0.579928	0.535608	-0.578156	0.694688	-0.172932	0.37941	0.555685	1.59287	-0.0396068	1.10416	1.89022	4.32859	0.88904	1.46657	0.365447	2.82744	-0.378648	0.278331	0.285242	1.47355	-1.50216	-0.376188	0.108617	1.03862	
0.640259	5.16662	5	0	-1.08245	0.432191	-1.15935	0.918291	-1.17977	-0.433755	-1.43942	-0.036936	0.584375	0.523038	-0.585422	0.68142	-0.174471	0.371059	0.553718	1.58579	-0.0125485	1.1154	1.88652	4.33906	0.90203	1.48225	0.366414	2.83928	-0.393069	0.306823	0.287227	1.49683	-1.50016	-0.37256	0.10805	1.05879	
0.640994	5.15594	5	0	-1.08839	0.424337	-1.17227	0.926729	-1.18185	-0.427883	-1.43873	-0.0491965	0.588823	0.510469	-0.592689	0.668153	-0.17601	0.362708	0.551751	1.57871	0.0145097	1.12664	1.88281	4.34954	0.91502	1.49793	0.367381	2.85113	-0.407491	0.335315	0.289213	1.52012	-1.49816	-0.368933	0.107484	1.07897	
0.641777	5.12848	5	0	-1.09434	0.416482	-1.18518	0.935167	-1.18392	-0.422012	-1.43803	-0.061457	0.593271	0.4979	-0.599955	0.654885	-0.177549	0.354356	0.549785	1.57162	0.041568	1.13787	1.8791	4.36001	0.92801	1.51361	0.368349	2.86298	-0.421913	0.363807	0.291199	1.54341	-1.49616	-0.365305	0.106918	1.09915	
0.642659	5.12543	5	0	-1.10243	0.414738	-1.19551	0.945675	-1.186	-0.416137	-1.44368	-0.0558037	0.595891	0.503434	-0.606068	0.655282	-0.181239	0.352094	0.545934	1.58251	0.052471	1.15737	1.89799	4.35977	0.936154	1.52561	0.370751	2.87078	-0.434169	0.373937	0.286836	1.55574	-1.50119	-0.360372	0.0993192	1.11134	
0.643715	5.09643	5	0	-1.11052	0.412994	-1.20584	0.956182	-1.18808	-0.410261	-1.44932	-0.0501505	0.598511	0.508968	-0.612181	0.655679	-0.18493	0.349831	0.542083	1.59339	0.063374	1.17686	1.91688	4.35953	0.944298	1.5376	0.373152	2.87858	-0.446425	0.384068	0.282473	1.56807	-1.50622	-0.35544	0.0917205	1.12352	
0.645023	5.0827	5	0	-1.11862	0.411249	-1.21617	0.96669	-1.19016	-0.404385	-1.45496	-0.0444972	0.601131	0.514502	-0.618293	0.656075	-0.188621	0.347569	0.538231	1.60428	0.074277	1.19635	1.93577	4.35928	0.952441	1.5496	0.375554	2.88639	-0.458681	0.394199	0.278111	1.5804	-1.51125	-0.350508	0.0841217	1.1357	
0.646658	5.05829	5	0	-1.12671	0.409505	-1.22649	0.977198	-1.19224	-0.39851	-1.4606	-0.038844	0.603751	0.520036	-0.624406	0.656472	-0.192311	0.345307	0.53438	1.61516	0.08518	1.21584	1.95466	4.35904	0.960585	1.56159	0.377956	2.89419	-0.470937	0.404329	0.273748	1.59273	-1.51628	-0.345575	0.076523	1.14788	
0.648682	5.0354	5	0	-1.13453	0.419301	-1.22143	1.00026	-1.19536	-0.38969	-1.4613	-0.0265772	0.599299	0.532619	-0.629376	0.670518	-0.2003	0.355201	0.538303	1.62936	0.0914082	1.23606	1.96989	4.3693	0.960664	1.5789	0.378916	2.90608	-0.477548	0.410772	0.262258	1.60593	-1.51704	-0.343434	0.0672592	1.16478	
0.651061	5.02014	5	0	-1.14235	0.429098	-1.21636	1.02332	-1.19848	-0.380869	-1.462	-0.0143105	0.594847	0.545202	-0.634346	0.684563	-0.208288	0.365094	0.542226	1.64357	0.0976365	1.25628	1.98511	4.37956	0.960742	1.59621	0.379876	2.91797	-0.484159	0.417214	0.250768	1.61913	-1.51779	-0.341292	0.0579955	1.18167	
0.653719	5.00488	5	0	-1.15017	0.438895	-1.21129	1.04638	-1.2016	-0.372049	-1.4627	-0.00204375	0.590394	0.557784	-0.639315	0.698608	-0.216276	0.374988	0.546148	1.65777	0.103865	1.27649	2.00034	4.38983	0.96082	1.61352	0.380835	2.92986	-0.490771	0.423656	0.239278	1.63233	-1.51855	-0.339151	0.0487318	1.19857	
0.65658	4.9881	5	0	-1.15799	0.448691	-1.20622	1.06943	-1.20472	-0.363229	-1.4634	0.010223	0.585942	0.570367	-0.644285	0.712654	-0.224265	0.384882	0.550071	1.67197	0.110093	1.29671	2.01556	4.40009	0.960899	1.63083	0.381795	2.94175	-0.497382	0.430099	0.227788	1.64553	-1.51931	-0.337009	0.039468	1.21546	
0.659568	4.97436	5	0	-1.16796	0.464596	-1.2201	1.09929	-1.20993	-0.348509	-1.48013	0.0369365	0.578135	0.592429	-0.638704	0.730655	-0.227494	0.394009	0.554657	1.69701	0.112746	1.31447	2.03718	4.4103	0.967443	1.64744	0.391882	2.95712	-0.508881	0.450362	0.234097	1.65662	-1.50399	-0.333832	0.0370775	1.2315	
0.662605	4.95911	0	5	-1.17794	0.4805	-1.23397	1.12915	-1.21514	-0.333789	-1.49687	0.06365	0.570329	0.614492	-0.633123	0.748656	-0.230724	0.403135	0.559242	1.72205	0.115399	1.33223	2.05879	4.42051	0.973988	1.66405	0.401969	2.97249	-0.520379	0.470626	0.240405	1.6677	-1.48868	-0.330654	0.034687	1.24755	
0.665582	4.94842	0	5	-1.18791	0.496405	-1.24784	1.159	-1.22035	-0.319069	-1.5136	0.0903635	0.562523	0.636555	-0.627543	0.766656	-0.233954	0.412262	0.563828	1.74709	0.118051	1.34998	2.0804	4.43072	0.980533	1.68067	0.412055	2.98786	-0.531878	0.490889	0.246714	1.67879	-1.47336	-0.327477	0.0322965	1.26359	
0.668363	4.93774	0	5	-1.19789	0.51231	-1.26172	1.18886	-1.22556	-0.304349	-1.53034	0.117077	0.554716	0.658617	-0.621962	0.784657	-0.237183	0.421389	0.568414	1.77213	0.120704	1.36774	2.10202	4.44092	0.987077	1.69728	0.422142	3.00323	-0.543377	0.511153	0.253023	1.68987	-1.45805	-0.3243	0.029906	1.27963	
0.67081	4.92859	0	5	-1.20571	0.522114	-1.26172	1.18886	-1.22869	-0.295505	-1.53215	0.122216	0.552849	0.67684	-0.634731	0.80385	-0.246249	0.434337	0.572982	1.79729	0.127849	1.37284	2.12184	4.45647	0.992013	1.71851	0.429341	3.02686	-0.549516	0.540735	0.249621	1.71879	-1.45003	-0.309717	0.026764	1.3071	
0.672783	4.92401	0	5	-1.21352	0.531918	-1.26172	1.18886	-1.23181	-0.286662	-1.53397	0.127354	0.550982	0.695064	-0.6475	0.823042	-0.255316	0.447284	0.577551	1.82246	0.134993	1.37794	2.14167	4.47201	0.996949	1.73974	0.43654	3.0505	-0.555654	0.570317	0.246219	1.7477	-1.44201	-0.295133	0.023622	1.33457	
0.674144	4.9118	0	5	-1.22133	0.541723	-1.26172	1.18886	-1.23494	-0.277819	-1.53579	0.132493	0.549116	0.713287	-0.660268	0.842234	-0.264382	0.460232	0.58212	1.84762	0.142137	1.38304	2.16149	4.48756	1.00188	1.76096	0.44374	3.07413	-0.561792	0.599898	0.242817	1.77662	-1.43399	-0.28055	0.02048	1.36204	
0.674814	4.90417	0	5	-1.22915	0.551527	-1.26172	1.18886	-1.23807	-0.268975	-1.53761	0.137631	0.547249	0.73151	-0.673037	0.861427	-0.273448	0.47318	0.586688	1.87279	0.149282	1.38813	2.18131	4.5031	1.00682	1.78219	0.450939	3.09777	-0.567931	0.62948	0.239415	1.80553	-1.42597	-0.265967	0.017338	1.38951	
0.674867	4.89807	0	5	-1.23696	0.561333	-1.26602	1.19167	-1.2433	-0.254216	-1.5336	0.146875	0.555061	0.748329	-0.671372	0.85672	-0.276684	0.482326	0.597101	1.89425	0.153056	1.40279	2.19219	4.50824	1.00848	1.79512	0.457191	3.10948	-0.570167	0.648042	0.231492	1.82793	-1.42978	-0.255201	0.0106342	1.40845	
0.674403	4.88129	0	5	-1.24478	0.571139	-1.27032	1.19448	-1.24852	-0.239457	-1.52959	0.156118	0.562874	0.765148	-0.669706	0.852014	-0.27992	0.491471	0.607513	1.91571	0.156829	1.41745	2.20307	4.51338	1.01014	1.80805	0.463442	3.12119	-0.572404	0.666604	0.223569	1.85032	-1.43358	-0.244434	0.0039305	1.4274	
0.673522	4.88129	0	5	-1.25259	0.580945	-1.27462	1.19729	-1.25374	-0.224698	-1.52557	0.165361	0.570686	0.781967	-0.668041	0.847308	-0.283156	0.500617	0.617925	1.93717	0.160602	1.43211	2.21395	4.51852	1.01179	1.82098	0.469694	3.13289	-0.57464	0.685165	0.215646	1.87271	-1.43739	-0.233668	-0.00277325	1.44634	
0.672323	4.86755	0	5	-1.2604	0.590751	-1.27893	1.2001	-1.25896	-0.209939	-1.52156	0.174605	0.578499	0.798786	-0.666376	0.842601	-0.286392	0.509762	0.628338	1.95863	0.164376	1.44677	2.22483	4.52366	1.01345	1.8339	0.475946	3.1446	-0.576876	0.703727	0.207723	1.8951	-1.4412	-0.222902	-0.009477	1.46529	
0.670913	4.8584	0	5	-1.26017	0.602365	-1.26792	1.22517	-1.25479	-0.185355	-1.52212	0.196772	0.586317	0.815672	-0.668041	0.847308	-0.299127	0.520429	0.634192	1.98035	0.173987	1.45766	2.21845	4.52375	1.0151	1.84687	0.473034	3.15283	-0.585467	0.715764	0.200635	1.90548	-1.43844	-0.221396	-0.0162735	1.4752	
0.669432	4.84314	0	5	-1.25993	0.613979	-1.25692	1.25024	-1.25062	-0.16077	-1.52267	0.21894	0.594134	0.832558	-0.669706	0.852014	-0.311862	0.531095	0.640046	2.00206	0.183599	1.46854	2.21207	4.52383	1.01675	1.85983	0.470121	3.16107	-0.594057	0.727801	0.193547	1.91586	-1.43567	-0.21989	-0.02307	1.48511	
0.668041	4.84161	0	5	-1.2597	0.625593	-1.24592	1.27531	-1.24646	-0.136186	-1.52322	0.241107	0.601951	0.849443	-0.671372	0.85672	-0.324596	0.541762	0.645901	2.02378	0.193211	1.47943	2.20568	4.52392	1.01841	1.87279	0.467209	3.1693	-0.602648	0.739837	0.186458	1.92624	-1.4329	-0.218384	-0.0298665	1.49502	
0.666901	4.82941	0	5	-1.25947	0.637207	-1.23492	1.30038	-1.24229	-0.111602	-1.52378	0.263274	0.609769	0.866329	-0.673037	0.861427	-0.337331	0.552428	0.651755	2.04549	0.202822	1.49032	2.1993	4.524	1.02006	1.88575	0.464297	3.17753	-0.611238	0.751874	0.17937	1.93662	-1.43014	-0.216878	-0.036663	1.50493	
0.666171	4.8172	0	5	-1.26598	0.655608	-1.24033	1.33441	-1.24964	-0.090816	-1.53018	0.28137	0.608991	0.88154	-0.678038	0.875562	-0.344232	0.559284	0.646517	2.06029	0.212449	1.50124	2.18917	4.53471	1.0217	1.89874	0.461382	3.18577	-0.605887	0.761243	0.176722	1.9441	-1.42536	-0.211706	-0.0391825	1.51205	
0.666005	4.80957	5	0	-1.27249	0.674009	-1.24573	1.36843	-1.257	-0.07003	-1.53658	0.299466	0.608213	0.89675	-0.68304	0.889696	-0.351134	0.56614	0.641278	2.0751	0.222077	1.51216	2.17903	4.54542	1.02335	1.91174	0.458466	3.194	-0.600537	0.770612	0.174075	1.95158	-1.42059	-0.206535	-0.041702	1.51917	
0.666336	4.80347	5	0	-1.279	0.692409	-1.25113	1.40246	-1.26435	-0.049244	-1.54299	0.317563	0.607435	0.91196	-0.688041	0.90383	-0.358036	0.572995	0.63604	2.0899	0.231704	1.52308	2.1689	4.55613	1.025	1.92473	0.455551	3.20224	-0.595186	0.779981	0.171427	1.95907	-1.41582	-0.201363	-0.0442215	1.5263	
0.666832	4.79584	5	0	-1.28551	0.71081	-1.25654	1.43649	-1.27171	-0.028458	-1.54939	0.335659	0.606657	0.927171	-0.693043	0.917965	-0.364937	0.579851	0.630802	2.10471	0.241331	1.534	2.15876	4.56683	1.02664	1.93772	0.452636	3.21048	-0.589835	0.78935	0.168779	1.96655	-1.41104	-0.196191	-0.046741	1.53342	
0.667145	4.78973	5	0	-1.28073	0.721859	-1.25302	1.42656	-1.26822	-0.0261605	-1.5523	0.333584	0.596149	0.943855	-0.696381	0.927401	-0.370341	0.595125	0.624242	2.12325	0.234344	1.54103	2.18241	4.57185	1.01528	1.95219	0.44918	3.23495	-0.596757	0.808913	0.167036	1.98113	-1.40072	-0.187989	-0.04491	1.54684	
0.666929	4.78363	5	0	-1.27594	0.732908	-1.24951	1.41662	-1.26474	-0.023863	-1.55521	0.331509	0.585641	0.96054	-0.69972	0.936836	-0.375746	0.610399	0.617682	2.14179	0.227357	1.54805	2.20606	4.57686	1.00391	1.96666	0.445725	3.25943	-0.603679	0.828477	0.165292	1.99571	-1.39039	-0.179786	-0.043079	1.56026	
0.665835	4.77753	5	0	-1.27116	0.743958	-1.24599	1.40669	-1.26126	-0.0215655	-1.55812	0.329434	0.575134	0.977225	-0.703059	0.946271	-0.381151	0.625672	0.611122	2.16033	0.220371	1.55508	2.22971	4.58187	0.992549	1.98114	0.442269	3.2839	-0.610602	0.84804	0.163549	2.01029	-1.38007	-0.171583	-0.041248	1.57369	
0.663701	4.77295	5	0	-1.26637	0.755007	-1.24248	1.39675	-1.25778	-0.019268	-1.56104	0.327359	0.564626	0.993909	-0.706397	0.955707	-0.386555	0.640946	0.604562	2.17887	0.213384	1.56211	2.25335	4.58688	0.981185	1.99561	0.438814	3.30837	-0.617524	0.867603	0.161805	2.02487	-1.36974	-0.163381	-0.039417	1.58711	
0.660896	4.76837	5	0	-1.2594	0.759921	-1.23984	1.38931	-1.26094	-0.0103388	-1.56287	0.332533	0.564626	0.993909	-0.706397	0.955707	-0.38398	0.646319	0.609126	2.17874	0.214517	1.55891	2.24769	4.60289	0.984428	1.98644	0.438814	3.30837	-0.620495	0.876	0.156477	2.03028	-1.37481	-0.158405	-0.0411015	1.59187	
0.657893	4.76837	5	0	-1.25244	0.764836	-1.23721	1.38187	-1.2641	-0.0014095	-1.5647	0.337707	0.564626	0.993909	-0.706397	0.955707	-0.381405	0.651692	0.61369	2.17861	0.21565	1.5557	2.24202	4.6189	0.987671	1.97728	0.438814	3.30837	-0.623466	0.884397	0.151149	2.03568	-1.37988	-0.153429	-0.042786	1.59663	
0.65516	4.76532	5	0	-1.24547	0.76975	-1.23458	1.37443	-1.26726	0.00751975	-1.56653	0.342881	0.564626	0.993909	-0.706397	0.955707	-0.378831	0.657064	0.618254	2.17848	0.216784	1.5525	2.23636	4.63491	0.990913	1.96811	0.438814	3.30837	-0.626438	0.892795	0.145822	2.04108	-1.38495	-0.148453	-0.0444705	1.60139	
0.653167	4.76837	5	0	-1.2385	0.774664	-1.23194	1.36698	-1.27042	0.016449	-1.56836	0.348055	0.564626	0.993909	-0.706397	0.955707	-0.376256	0.662437	0.622818	2.17835	0.217917	1.5493	2.23069	4.65092	0.994156	1.95895	0.438814	3.30837	-0.629409	0.901192	0.140494	2.04649	-1.39002	-0.143477	-0.046155	1.60615	
0.652282	4.75922	5	0	-1.24047	0.792551	-1.23289	1.37905	-1.26388	0.0466037	-1.55379	0.358459	0.599728	1.02523	-0.703636	0.964798	-0.376935	0.677013	0.673133	2.22877	0.204909	1.54796	2.31545	4.71985	1.01534	1.98749	0.44211	3.3285	-0.604052	0.927818	0.105008	2.03133	-1.3771	-0.151919	-0.0539408	1.60026	
0.652278	4.76227	5	0	-1.24245	0.810438	-1.23384	1.39112	-1.25734	0.0767585	-1.53922	0.368862	0.63483	1.05655	-0.700875	0.973889	-0.377613	0.691588	0.723448	2.27918	0.191902	1.54662	2.40021	4.78877	1.03652	2.01604	0.445406	3.34864	-0.578695	0.954444	0.069521	2.01617	-1.36418	-0.160361	-0.0617265	1.59438	
0.652717	4.76074	5	0	-1.24442	0.828324	-1.23479	1.40319	-1.2508	0.106913	-1.52465	0.379266	0.669933	1.08787	-0.698114	0.98298	-0.378292	0.706164	0.773764	2.3296	0.178894	1.54528	2.48497	4.8577	1.05769	2.04458	0.448702	3.36877	-0.553338	0.98107	0.0340345	2.00101	-1.35126	-0.168804	-0.0695122	1.58849	
0.653162	4.75769	5	0	-1.24639	0.846211	-1.23574	1.41526	-1.24427	0.137068	-1.51008	0.38967	0.705035	1.11919	-0.695353	0.992071	-0.378971	0.720739	0.824079	2.38001	0.165886	1.54394	2.56973	4.92662	1.07887	2.07312	0.451998	3.3889	-0.527981	1.0077	-0.001452	1.98586	-1.33834	-0.177246	-0.077298	1.58261	
0.653175	4.75159	5	0	-1.24619	0.857959	-1.24022	1.43732	-1.23881	0.170419	-1.503	0.411033	0.738064	1.15729	-0.702052	1.011	-0.382228	0.729944	0.876196	2.42735	0.165886	1.54394	2.63213	5.00819	1.10996	2.10972	0.454707	3.42551	-0.507205	1.03541	-0.0287782	1.99607	-1.31627	-0.183345	-0.0721087	1.58653	
0.652354	4.74701	0	5	-1.24598	0.869707	-1.2447	1.45937	-1.23336	0.203769	-1.49592	0.432396	0.771093	1.19538	-0.70875	1.02993	-0.385485	0.739149	0.928314	2.47469	0.165886	1.54394	2.69454	5.08976	1.14105	2.14633	0.457415	3.46211	-0.486428	1.06312	-0.0561045	2.00628	-1.29421	-0.189444	-0.0669195	1.59045	
0.650748	4.74548	0	5	-1.24578	0.881454	-1.24918	1.48142	-1.22791	0.237119	-1.48885	0.453758	0.804123	1.23348	-0.715448	1.04886	-0.388742	0.748354	0.980431	2.52202	0.165886	1.54394	2.75694	5.17132	1.17214	2.18293	0.460124	3.49871	-0.465651	1.09083	-0.0834307	2.01649	-1.27214	-0.195544	-0.0617303	1.59437	
0.648705	4.7409	0	5	-1.24558	0.893202	-1.25366	1.50347	-1.22246	0.27047	-1.48177	0.475121	0.837152	1.27158	-0.722147	1.06779	-0.391999	0.757559	1.03255	2.56936	0.165886	1.54394	2.81934	5.25289	1.20323	2.21954	0.462832	3.53532	-0.444875	1.11855	-0.110757	2.0267	-1.25007	-0.201643	-0.056541	1.5983	
0.646577	4.73785	0	5	-1.24796	0.887633	-1.25446	1.49634	-1.22352	0.273479	-1.48085	0.472516	0.84355	1.2799	-0.713287	1.07659	-0.396347	0.769848	1.03513	2.58817	0.167199	1.55292	2.84713	5.28601	1.20979	2.23672	0.469939	3.5596	-0.4395	1.12812	-0.11164	2.04832	-1.24755	-0.18995	-0.04868	1.61331	
0.644715	4.73633	0	5	-1.25035	0.882063	-1.25526	1.4892	-1.22459	0.276489	-1.47992	0.469912	0.849948	1.28822	-0.704428	1.08539	-0.400695	0.782136	1.03771	2.60698	0.168512	1.5619	2.87491	5.31912	1.21635	2.2539	0.477047	3.58388	-0.434125	1.1377	-0.112522	2.06994	-1.24504	-0.178257	-0.040819	1.62833	
0.643465	4.7348	0	5	-1.25274	0.876494	-1.25606	1.48207	-1.22565	0.279498	-1.479	0.467307	0.856346	1.29654	-0.695569	1.09418	-0.405044	0.794424	1.04029	2.6258	0.169824	1.57088	2.9027	5.35223	1.2229	2.27108	0.484154	3.60815	-0.428751	1.14728	-0.113404	2.09155	-1.24253	-0.166564	-0.032958	1.64335	
0.642976	4.7287	0	5	-1.25513	0.870924	-1.25686	1.47493	-1.22672	0.282508	-1.47808	0.464702	0.862744	1.30486	-0.686709	1.10298	-0.409392	0.806713	1.04287	2.64461	0.171137	1.57987	2.93049	5.38534	1.22946	2.28826	0.491261	3.63243	-0.423376	1.15686	-0.114287	2.11317	-1.24002	-0.154871	-0.025097	1.65836	
0.643208	4.72565	0	5	-1.25732	0.877107	-1.25686	1.47493	-1.22565	0.279498	-1.46854	0.458471	0.850277	1.3005	-0.683956	1.11214	-0.398817	0.802167	1.0223	2.63755	0.171312	1.59207	2.93711	5.38531	1.22289	2.28898	0.495112	3.63636	-0.428073	1.15774	-0.109013	2.12699	-1.24078	-0.152701	-0.030168	1.6727	
0.644114	4.72717	0	5	-1.25951	0.883289	-1.25686	1.47493	-1.22459	0.276489	-1.45901	0.45224	0.83781	1.29615	-0.681204	1.1213	-0.388242	0.797621	1.00173	2.6305	0.171488	1.60428	2.94373	5.38527	1.21632	2.28969	0.498964	3.64029	-0.432769	1.15863	-0.103739	2.1408	-1.24155	-0.15053	-0.035239	1.68703	
0.645644	4.73022	0	5	-1.2617	0.889471	-1.25686	1.47493	-1.22352	0.273479	-1.44947	0.44601	0.825343	1.2918	-0.678451	1.13046	-0.377666	0.793074	0.981156	2.62344	0.171663	1.61648	2.95035	5.38524	1.20974	2.2904	0.502815	3.64421	-0.437466	1.15952	-0.0984657	2.15462	-1.24232	-0.14836	-0.04031	1.70136	
0.647749	4.73938	0	5	-1.26388	0.895654	-1.25686	1.47493	-1.22246	0.27047	-1.43994	0.439779	0.812876	1.28745	-0.675698	1.13962	-0.367091	0.788528	0.960586	2.61638	0.171838	1.62869	2.95697	5.3852	1.20317	2.29112	0.506666	3.64814	-0.442163	1.1604	-0.093192	2.16844	-1.24309	-0.146189	-0.045381	1.71569	
0.650161	4.74548	0	5	-1.26498	0.898747	-1.25262	1.48173	-1.22701	0.271131	-1.44178	0.444989	0.807961	1.28816	-0.66345	1.13893	-0.369268	0.794681	0.953992	2.609	0.169567	1.6351	2.95499	5.39078	1.20481	2.28646	0.517348	3.64761	-0.451217	1.14887	-0.0826055	2.16728	-1.25069	-0.152895	-0.0445352	1.7133	
0.652279	4.75464	0	5	-1.26607	0.901839	-1.24837	1.48853	-1.23156	0.271792	-1.44362	0.450199	0.803045	1.28888	-0.651203	1.13824	-0.371445	0.800833	0.947398	2.60162	0.167297	1.64152	2.95301	5.39637	1.20646	2.2818	0.52803	3.64708	-0.460272	1.13735	-0.072019	2.16613	-1.25829	-0.159602	-0.0436895	1.71091	
0.653472	4.76532	0	5	-1.26717	0.904932	-1.24413	1.49533	-1.23611	0.272453	-1.44547	0.45541	0.798129	1.28959	-0.638955	1.13756	-0.373622	0.806986	0.940804	2.59425	0.165026	1.64794	2.95104	5.40195	1.20811	2.27714	0.538712	3.64655	-0.469326	1.12582	-0.0614325	2.16498	-1.26589	-0.166308	-0.0428437	1.70852	
0.653109	4.776	0	5	-1.26826	0.908025	-1.23989	1.50214	-1.24066	0.273114	-1.44731	0.46062	0.793214	1.29031	-0.626707	1.13687	-0.375799	0.813139	0.93421	2.58687	0.162755	1.65436	2.94906	5.40754	1.20976	2.27249	0.549394	3.64602	-0.478381	1.1143	-0.050846	2.16382	-1.27349	-0.173014	-0.041998	1.70613	
0.650558	4.7821	0	5	-1.27721	0.921013	-1.24351	1.52176	-1.24628	0.276781	-1.45008	0.468441	0.783395	1.29173	-0.617809	1.14571	-0.381632	0.816951	0.930916	2.58319	0.154637	1.6646	2.94313	5.42431	1.21141	2.26783	0.551769	3.65415	-0.47806	1.10103	-0.0411268	2.16517	-1.27474	-0.178856	-0.0342628	1.70291	
0.645931	4.78973	0	5	-1.28617	0.934002	-1.24713	1.54139	-1.25189	0.280448	-1.45285	0.476262	0.773575	1.29315	-0.608911	1.15455	-0.387466	0.820762	0.927621	2.5795	0.146518	1.67484	2.93719	5.44108	1.21305	2.26318	0.554145	3.66229	-0.477739	1.08777	-0.0314075	2.16651	-1.276	-0.184697	-0.0265275	1.69969	
0.641408	4.79736	0	5	-1.29512	0.946991	-1.25075	1.56102	-1.2575	0.284115	-1.45561	0.484084	0.763756	1.29458	-0.600012	1.16339	-0.3933	0.824574	0.924327	2.57582	0.1384	1.68508	2.93126	5.45785	1.2147	2.25852	0.55652	3.67042	-0.477417	1.07451	-0.0216882	2.16785	-1.27725	-0.190538	-0.0187922	1.69648	
0.639533	4.79584	0	5	-1.30407	0.959979	-1.25437	1.58065	-1.26311	0.287782	-1.45838	0.491905	0.753937	1.296	-0.591114	1.17223	-0.399133	0.828386	0.921033	2.57213	0.130282	1.69533	2.92533	5.47462	1.21635	2.25387	0.558895	3.67856	-0.477096	1.06125	-0.011969	2.16919	-1.2785	-0.19638	-0.011057	1.69326	
0.642848	4.79736	0	5	-1.30517	0.963076	-1.2587	1.58347	-1.27007	0.283085	-1.46423	0.487709	0.744133	1.29742	-0.596182	1.18656	-0.406052	0.835273	0.90446	2.58005	0.128008	1.70175	2.92335	5.48022	1.20648	2.26389	0.565134	3.69065	-0.474097	1.05277	-0.00489425	2.17805	-1.2785	-0.19638	-0.00669925	1.69961	
0.653898	4.79278	0	5	-1.30627	0.966173	-1.26302	1.5863	-1.27703	0.278388	-1.47007	0.483513	0.734329	1.29884	-0.601251	1.20088	-0.412971	0.84216	0.887887	2.58796	0.125734	1.70818	2.92136	5.48581	1.19662	2.27391	0.571373	3.70275	-0.471097	1.04429	0.0021805	2.18691	-1.2785	-0.19638	-0.0023415	1.70595	
0.673882	4.79278	0	5	-1.30736	0.96927	-1.26735	1.58913	-1.28399	0.273692	-1.47592	0.479317	0.724526	1.30026	-0.606319	1.2152	-0.419889	0.849047	0.871314	2.59587	0.12346	1.71461	2.91938	5.49141	1.18676	2.28394	0.577612	3.71485	-0.468097	1.03581	0.00925525	2.19577	-1.2785	-0.19638	0.00201625	1.7123	
0.696091	4.78515	0	5	-1.30846	0.972367	-1.27167	1.59195	-1.29095	0.268995	-1.48177	0.475121	0.714722	1.30168	-0.611387	1.22952	-0.426808	0.855934	0.854741	2.60379	0.121186	1.72104	2.9174	5.49701	1.1769	2.29396	0.583851	3.72694	-0.465098	1.02734	0.01633	2.20463	-1.2785	-0.19638	0.006374	1.71865	
0.710927	4.77905	0	5	-1.30846	0.972367	-1.2759	1.58512	-1.29684	0.261305	-1.48192	0.465217	0.707226	1.29661	-0.614144	1.22031	-0.429368	0.85051	0.850859	2.58885	0.112918	1.71903	2.90485	5.51383	1.16378	2.29537	0.58236	3.73116	-0.468783	1.0254	0.0154325	2.2168	-1.2808	-0.189883	0.0107348	1.72501	
0.708789	4.77295	0	5	-1.30846	0.972367	-1.28013	1.57829	-1.30272	0.253616	-1.48208	0.455314	0.69973	1.29154	-0.616901	1.2111	-0.431927	0.845086	0.846977	2.57392	0.104649	1.71702	2.89229	5.53065	1.15067	2.29678	0.580869	3.73537	-0.472468	1.02347	0.014535	2.22896	-1.2831	-0.183385	0.0150955	1.73137	
0.680075	4.76379	0	5	-1.30846	0.972367	-1.28436	1.57146	-1.30861	0.245926	-1.48224	0.44541	0.692234	1.28648	-0.619658	1.20189	-0.434486	0.839662	0.843094	2.55899	0.0963805	1.71501	2.87973	5.54747	1.13756	2.2982	0.579379	3.73958	-0.476152	1.02154	0.0136375	2.24113	-1.2854	-0.176888	0.0194563	1.73772	
