3.57361	0	0	0.014382	0.097107	0.338762	-0.21503	-0.018345	0.234694	0.163313	-0.06715	0.139837	0.455044	0.155231	0.409964	0.06521	0.208335	-0.075596	0.501839	-0.180688	-0.027458	-0.305388	0.109094	-0.336656	0.026536	-0.305978	0.047613	0.048113	0.379617	0.02142	0.176226	0.218364	-0.143012	0.069128	0.119685	
3.58429	0	0	0.0178892	0.099085	0.349494	-0.210381	-0.015435	0.239741	0.16671	-0.0677197	0.140517	0.465927	0.156961	0.423167	0.06956	0.210736	-0.0747452	0.510459	-0.180688	-0.027458	-0.301033	0.112892	-0.336656	0.026536	-0.305978	0.047613	0.0519095	0.381209	0.0206095	0.178517	0.221988	-0.143738	0.0740875	0.114743	
3.58276	0	0	0.0213965	0.101063	0.360225	-0.205732	-0.012525	0.244787	0.170108	-0.0682895	0.141197	0.476811	0.158691	0.43637	0.07391	0.213137	-0.0738945	0.519078	-0.180688	-0.027458	-0.296678	0.11669	-0.336656	0.026536	-0.305978	0.047613	0.055706	0.382802	0.019799	0.180808	0.225612	-0.144464	0.079047	0.109801	
3.58734	0	0	0.0249037	0.103041	0.370957	-0.201084	-0.009615	0.249833	0.173505	-0.0688593	0.141877	0.487695	0.16042	0.449574	0.07826	0.215537	-0.0730437	0.527698	-0.180688	-0.027458	-0.292324	0.120487	-0.336656	0.026536	-0.305978	0.047613	0.0595025	0.384395	0.0189885	0.183098	0.229235	-0.145191	0.0840065	0.10486	
3.59344	0	0	0.028411	0.105019	0.381688	-0.196435	-0.006705	0.25488	0.176902	-0.069429	0.142557	0.498578	0.16215	0.462777	0.08261	0.217938	-0.072193	0.536318	-0.180688	-0.027458	-0.287969	0.124285	-0.336656	0.026536	-0.305978	0.047613	0.063299	0.385987	0.018178	0.185389	0.232859	-0.145917	0.088966	0.099918	
3.59344	0	0	0.0249037	0.103041	0.375169	-0.195509	-0.0106807	0.252845	0.172745	-0.0667133	0.13562	0.505379	0.15052	0.477555	0.0814027	0.22135	-0.0783235	0.54262	-0.183058	-0.020761	-0.291029	0.132934	-0.340482	0.03735	-0.303666	0.0537013	0.0633432	0.398193	0.0227202	0.191234	0.237996	-0.150915	0.086617	0.106557	
3.59497	0	0	0.0213965	0.101063	0.36865	-0.194583	-0.0146565	0.25081	0.168589	-0.0639975	0.128682	0.51218	0.138889	0.492333	0.0801955	0.224762	-0.084454	0.548922	-0.185427	-0.014064	-0.29409	0.141584	-0.344309	0.048164	-0.301354	0.0597895	0.0633875	0.410399	0.0272625	0.197078	0.243133	-0.155913	0.084268	0.113197	
3.59497	0	0	0.0178893	0.099085	0.362132	-0.193658	-0.0186322	0.248775	0.164433	-0.0612818	0.121745	0.51898	0.127258	0.50711	0.0789883	0.228173	-0.0905845	0.555223	-0.187797	-0.007367	-0.29715	0.150233	-0.348135	0.058978	-0.299041	0.0658777	0.0634318	0.422605	0.0318047	0.202923	0.24827	-0.160912	0.081919	0.119836	
3.59497	0	0	0.014382	0.097107	0.355613	-0.192732	-0.022608	0.24674	0.160276	-0.058566	0.114807	0.525781	0.115628	0.521888	0.077781	0.231585	-0.096715	0.561525	-0.190167	-0.00067	-0.300211	0.158882	-0.351961	0.069792	-0.296729	0.071966	0.063476	0.434811	0.036347	0.208767	0.253407	-0.16591	0.07957	0.126475	
3.59497	0	0	0.008913	0.100681	0.35389	-0.196603	-0.022608	0.24674	0.160276	-0.058566	0.115851	0.522831	0.118932	0.512551	0.0801952	0.224763	-0.098617	0.555883	-0.191887	-0.00983975	-0.303034	0.150755	-0.348135	0.058978	-0.304847	0.0696715	0.054946	0.434264	0.03797	0.20418	0.249026	-0.163047	0.0769595	0.124777	
3.59802	0	0	0.003444	0.104254	0.352166	-0.200475	-0.022608	0.24674	0.160276	-0.058566	0.116895	0.519882	0.122235	0.503215	0.0826095	0.21794	-0.100519	0.550241	-0.193607	-0.0190095	-0.305856	0.142627	-0.344309	0.048164	-0.312966	0.067377	0.046416	0.433718	0.039593	0.199593	0.244644	-0.160184	0.074349	0.12308	
3.59497	0	0	-0.002025	0.107827	0.350442	-0.204346	-0.022608	0.24674	0.160276	-0.058566	0.117938	0.516932	0.125539	0.493878	0.0850238	0.211118	-0.102421	0.544598	-0.195327	-0.0281793	-0.308679	0.134499	-0.340482	0.03735	-0.321084	0.0650825	0.037886	0.433171	0.041216	0.195006	0.240262	-0.157321	0.0717385	0.121383	
3.59192	0	0	-0.007494	0.111401	0.348719	-0.208218	-0.022608	0.24674	0.160276	-0.058566	0.118982	0.513982	0.128843	0.484541	0.087438	0.204295	-0.104323	0.538956	-0.197047	-0.037349	-0.311502	0.126372	-0.336656	0.026536	-0.329202	0.062788	0.029356	0.432625	0.042839	0.190419	0.235881	-0.154458	0.069128	0.119685	
3.58734	0	0	-0.007494	0.111401	0.345652	-0.199549	-0.022608	0.24674	0.160276	-0.058566	0.116894	0.519883	0.135519	0.483767	0.07271	0.216541	-0.110447	0.545252	-0.192957	-0.0348762	-0.311502	0.126372	-0.337931	0.030139	-0.323396	0.0589942	0.0321702	0.424671	0.040161	0.188644	0.231502	-0.151597	0.0680837	0.113566	
3.58734	0	0	-0.007494	0.111401	0.342585	-0.190881	-0.022608	0.24674	0.160276	-0.058566	0.114807	0.525783	0.142194	0.482993	0.057982	0.228787	-0.116571	0.551547	-0.188867	-0.0324035	-0.311502	0.126372	-0.339205	0.033742	-0.31759	0.0552005	0.0349845	0.416717	0.037483	0.18687	0.227123	-0.148735	0.0670395	0.107447	
3.58734	0	0	-0.007494	0.111401	0.339517	-0.182212	-0.022608	0.24674	0.160276	-0.058566	0.112719	0.531684	0.148869	0.48222	0.043254	0.241032	-0.122695	0.557843	-0.184778	-0.0299307	-0.311502	0.126372	-0.34048	0.037345	-0.311784	0.0514068	0.0377988	0.408764	0.034805	0.185096	0.222743	-0.145873	0.0659952	0.101328	
3.58276	0	0	-0.007494	0.111401	0.33645	-0.173544	-0.022608	0.24674	0.160276	-0.058566	0.110631	0.537585	0.155545	0.481446	0.028526	0.253278	-0.128819	0.564139	-0.180688	-0.027458	-0.311502	0.126372	-0.341755	0.040948	-0.305978	0.047613	0.040613	0.40081	0.032127	0.183321	0.218364	-0.143012	0.064951	0.095209	
3.57818	0	0	-0.0119773	0.112197	0.335867	-0.163155	-0.027646	0.247717	0.156122	-0.0558515	0.107496	0.546443	0.150585	0.495462	0.028526	0.253278	-0.130932	0.57011	-0.180688	-0.027458	-0.311502	0.126372	-0.345583	0.0517665	-0.3025	0.0504052	0.0444088	0.402406	0.0356163	0.182803	0.227125	-0.148736	0.0691255	0.0924813	
3.57208	0	0	-0.0164605	0.112992	0.335285	-0.152766	-0.032684	0.248694	0.151968	-0.053137	0.104362	0.555302	0.145626	0.509478	0.028526	0.253278	-0.133045	0.576082	-0.180688	-0.027458	-0.311502	0.126372	-0.349411	0.062585	-0.299021	0.0531975	0.0482045	0.404002	0.0391055	0.182285	0.235885	-0.154461	0.0733	0.0897535	
3.56903	0	0	-0.0209438	0.113787	0.334703	-0.142377	-0.037722	0.24967	0.147813	-0.0504225	0.101227	0.56416	0.140666	0.523494	0.028526	0.253278	-0.135158	0.582054	-0.180688	-0.027458	-0.311502	0.126372	-0.353239	0.0734035	-0.295542	0.0559898	0.0520002	0.405597	0.0425948	0.181767	0.244646	-0.160186	0.0774745	0.0870257	
3.56445	0	0	-0.025427	0.114583	0.33412	-0.131988	-0.04276	0.250647	0.143659	-0.047708	0.098093	0.573018	0.135707	0.53751	0.028526	0.253278	-0.137271	0.588025	-0.180688	-0.027458	-0.311502	0.126372	-0.357067	0.084222	-0.292064	0.058782	0.055796	0.407193	0.046084	0.181249	0.253407	-0.16591	0.081649	0.084298	
3.55835	0	0	-0.0279443	0.10983	0.328378	-0.133242	-0.046729	0.248613	0.139507	-0.0449948	0.106077	0.56326	0.13234	0.528935	0.0297327	0.249867	-0.144229	0.585686	-0.184778	-0.0299307	-0.317379	0.126892	-0.354515	0.0770083	-0.29323	0.062078	0.057716	0.414098	0.0393495	0.190938	0.249026	-0.163047	0.0793018	0.0909322	
3.55377	0	0	-0.0304615	0.105078	0.322637	-0.134496	-0.050698	0.246578	0.135354	-0.0422815	0.114061	0.553503	0.128972	0.52036	0.0309395	0.246457	-0.151187	0.583348	-0.188867	-0.0324035	-0.323257	0.127412	-0.351962	0.0697945	-0.294397	0.065374	0.059636	0.421002	0.032615	0.200628	0.244644	-0.160184	0.0769545	0.0975665	
3.54919	0	0	-0.0329788	0.100325	0.316895	-0.135751	-0.054667	0.244543	0.131202	-0.0395682	0.122044	0.543745	0.125605	0.511785	0.0321463	0.243046	-0.158145	0.581009	-0.192957	-0.0348762	-0.329134	0.127931	-0.34941	0.0625808	-0.295563	0.06867	0.061556	0.427907	0.0258805	0.210317	0.240262	-0.157321	0.0746072	0.104201	
3.54919	0	0	-0.035496	0.095572	0.311154	-0.137005	-0.058636	0.242509	0.12705	-0.036855	0.130028	0.533987	0.122238	0.50321	0.033353	0.239636	-0.165103	0.57867	-0.197047	-0.037349	-0.335012	0.128451	-0.346857	0.055367	-0.296729	0.071966	0.063476	0.434811	0.019146	0.220006	0.235881	-0.154458	0.07226	0.110835	
3.54004	0	0	-0.0319967	0.09755	0.311154	-0.137005	-0.0536018	0.241533	0.125531	-0.0325615	0.130028	0.533987	0.122238	0.50321	0.0345592	0.236227	-0.165103	0.57867	-0.201133	-0.0398195	-0.333484	0.124134	-0.351726	0.0530067	-0.294397	0.065375	0.054946	0.434264	0.020769	0.215419	0.235881	-0.154458	0.0696505	0.10914	
3.53699	0	0	-0.0284975	0.099528	0.311154	-0.137005	-0.0485675	0.240557	0.124011	-0.028268	0.130028	0.533987	0.122238	0.50321	0.0357655	0.232817	-0.165103	0.57867	-0.20522	-0.04229	-0.331956	0.119816	-0.356594	0.0506465	-0.292065	0.058784	0.046416	0.433718	0.022392	0.210833	0.235881	-0.154458	0.067041	0.107444	
3.53546	0	0	-0.0249982	0.101506	0.311154	-0.137005	-0.0435332	0.239581	0.122492	-0.0239745	0.130028	0.533987	0.122238	0.50321	0.0369717	0.229407	-0.165103	0.57867	-0.209307	-0.0447605	-0.330429	0.115499	-0.361463	0.0482863	-0.289732	0.052193	0.037886	0.433171	0.024015	0.206246	0.235881	-0.154458	0.0644315	0.105749	
3.53241	0	0	-0.021499	0.103484	0.311154	-0.137005	-0.038499	0.238605	0.120973	-0.019681	0.130028	0.533987	0.122238	0.50321	0.038178	0.225998	-0.165103	0.57867	-0.213393	-0.047231	-0.328901	0.111181	-0.366331	0.045926	-0.2874	0.045602	0.029356	0.432625	0.025638	0.201659	0.235881	-0.154458	0.061822	0.104053	
3.53393	0	0	-0.023463	0.109034	0.313051	-0.124887	-0.0406297	0.244627	0.124365	-0.0202465	0.131744	0.54195	0.123951	0.516462	0.030219	0.23382	-0.161317	0.589974	-0.213393	-0.047231	-0.330429	0.115499	-0.367606	0.0495292	-0.288566	0.048897	0.0350275	0.428919	0.0264493	0.199367	0.240262	-0.157321	0.061822	0.104053	
3.52325	0	0	-0.025427	0.114585	0.314949	-0.11277	-0.0427605	0.250649	0.127757	-0.020812	0.133461	0.549913	0.125663	0.529714	0.02226	0.241642	-0.157531	0.601278	-0.213393	-0.047231	-0.331956	0.119816	-0.368881	0.0531325	-0.289732	0.052192	0.040699	0.425213	0.0272605	0.197074	0.244644	-0.160184	0.061822	0.104053	
3.52478	0	0	-0.027391	0.120135	0.316847	-0.100653	-0.0448913	0.256671	0.13115	-0.0213775	0.135178	0.557877	0.127376	0.542966	0.014301	0.249463	-0.153745	0.612581	-0.213393	-0.047231	-0.333484	0.124134	-0.370156	0.0567358	-0.290898	0.055487	0.0463705	0.421507	0.0280717	0.194781	0.249026	-0.163047	0.061822	0.104053	
3.52325	0	0	-0.029355	0.125685	0.318744	-0.088535	-0.047022	0.262693	0.134542	-0.021943	0.136894	0.56584	0.129088	0.556218	0.006342	0.257285	-0.149959	0.623885	-0.213393	-0.047231	-0.335012	0.128451	-0.371431	0.060339	-0.292064	0.058782	0.052042	0.417801	0.028883	0.192489	0.253407	-0.16591	0.061822	0.104053	
3.52478	0	0	-0.028373	0.122909	0.31549	-0.0880795	-0.0448913	0.256671	0.13039	-0.0192298	0.134801	0.571754	0.134111	0.560133	-0.00040525	0.261694	-0.156082	0.630185	-0.222738	-0.0488293	-0.342411	0.133286	-0.371431	0.060339	-0.29323	0.062078	0.053961	0.424709	0.0342395	0.196041	0.262177	-0.17164	0.0605152	0.116816	
3.52173	0	0	-0.027391	0.120134	0.312235	-0.087624	-0.0427605	0.250649	0.126238	-0.0165165	0.132709	0.577669	0.139133	0.564048	-0.0071525	0.266103	-0.162206	0.636485	-0.232083	-0.0504275	-0.349811	0.138121	-0.371431	0.060339	-0.294397	0.065374	0.05588	0.431616	0.039596	0.199594	0.270946	-0.17737	0.0592085	0.12958	
3.52325	0	0	-0.026409	0.117359	0.30898	-0.0871685	-0.0406297	0.244627	0.122085	-0.0138032	0.130616	0.583583	0.144155	0.567963	-0.0138997	0.270511	-0.168329	0.642785	-0.241428	-0.0520257	-0.35721	0.142956	-0.371431	0.060339	-0.295563	0.06867	0.057799	0.438524	0.0449525	0.203147	0.279716	-0.183101	0.0579018	0.142343	
3.51868	0	0	-0.025427	0.114583	0.305726	-0.086713	-0.038499	0.238605	0.117933	-0.01109	0.128523	0.589497	0.149178	0.571878	-0.020647	0.27492	-0.174452	0.649085	-0.250773	-0.053624	-0.36461	0.147791	-0.371431	0.060339	-0.296729	0.071966	0.059718	0.445432	0.050309	0.206699	0.288486	-0.188831	0.056595	0.155106	
3.51562	0	0	-0.025427	0.114583	0.300759	-0.0901477	-0.0456632	0.245601	0.117933	-0.01109	0.123672	0.590393	0.150835	0.567196	-0.0237715	0.269101	-0.178456	0.649402	-0.257744	-0.0618905	-0.365897	0.135365	-0.378607	0.048424	-0.307156	0.0635892	0.0568605	0.441177	0.0468185	0.207216	0.288486	-0.188831	0.0500685	0.164481	
3.5202	0	0	-0.025427	0.114583	0.295792	-0.0935825	-0.0528275	0.252597	0.117933	-0.01109	0.11882	0.591289	0.152491	0.562515	-0.026896	0.263283	-0.182459	0.64972	-0.264714	-0.070157	-0.367184	0.122939	-0.385784	0.036509	-0.317582	0.0552125	0.054003	0.436922	0.043328	0.207733	0.288486	-0.188831	0.043542	0.173856	
3.51868	0	0	-0.025427	0.114583	0.290825	-0.0970172	-0.0599917	0.259592	0.117933	-0.01109	0.113969	0.592185	0.154147	0.557833	-0.0300205	0.257464	-0.186463	0.650037	-0.271684	-0.0784235	-0.368471	0.110512	-0.39296	0.024594	-0.328008	0.0468358	0.0511455	0.432668	0.0398375	0.20825	0.288486	-0.188831	0.0370155	0.183231	
3.5141	0	0	-0.025427	0.114583	0.285858	-0.100452	-0.067156	0.266588	0.117933	-0.01109	0.109118	0.593081	0.155804	0.553151	-0.033145	0.251646	-0.190467	0.650354	-0.278655	-0.08669	-0.369758	0.098086	-0.400136	0.012679	-0.338435	0.038459	0.048288	0.428413	0.036347	0.208767	0.288486	-0.188831	0.030489	0.192606	
3.51257	0	0	-0.0273915	0.120135	0.28911	-0.100907	-0.0621225	0.265614	0.122085	-0.0138032	0.109118	0.593081	0.16249	0.552381	-0.0374722	0.249238	-0.190467	0.650354	-0.280371	-0.0958087	-0.374096	0.0942968	-0.402451	0.00314475	-0.333783	0.0253113	0.050165	0.423108	0.0336697	0.20699	0.279716	-0.183101	0.0346635	0.189878	
3.50647	0	0	-0.029356	0.125687	0.292361	-0.101362	-0.057089	0.264641	0.126238	-0.0165165	0.109118	0.593081	0.169177	0.551611	-0.0417995	0.246831	-0.190467	0.650354	-0.282087	-0.104928	-0.378435	0.0905075	-0.404767	-0.0063895	-0.329131	0.0121635	0.052042	0.417803	0.0309925	0.205213	0.270946	-0.17737	0.038838	0.18715	
3.51105	0	0	-0.0313205	0.131239	0.295613	-0.101818	-0.0520555	0.263667	0.13039	-0.0192298	0.109118	0.593081	0.175864	0.550842	-0.0461268	0.244424	-0.190467	0.650354	-0.283802	-0.114046	-0.382773	0.0867182	-0.407082	-0.0159238	-0.324479	-0.00098425	0.053919	0.412498	0.0283153	0.203436	0.262177	-0.17164	0.0430125	0.184423	
3.50952	0	0	-0.033285	0.136791	0.298864	-0.102273	-0.047022	0.262693	0.134542	-0.021943	0.109118	0.593081	0.18255	0.550072	-0.050454	0.242016	-0.190467	0.650354	-0.285518	-0.123165	-0.387111	0.082929	-0.409397	-0.025458	-0.319827	-0.014132	0.055796	0.407193	0.025638	0.201659	0.253407	-0.16591	0.047187	0.181695	
3.49731	0	0	-0.0367823	0.134808	0.299041	-0.094035	-0.0531213	0.266678	0.133782	-0.019795	0.105978	0.601957	0.180892	0.554756	-0.0516585	0.24542	-0.190467	0.650354	-0.29483	-0.12475	-0.391446	0.0791437	-0.408127	-0.0290468	-0.324463	-0.0136275	0.053919	0.412498	0.0307495	0.196556	0.266565	-0.174508	0.0464025	0.183912	
3.50647	0	0	-0.0402795	0.132825	0.299218	-0.085797	-0.0592205	0.270664	0.133022	-0.017647	0.102837	0.610833	0.179235	0.559441	-0.052863	0.248824	-0.190467	0.650354	-0.304143	-0.126335	-0.39578	0.0753585	-0.406857	-0.0326355	-0.329099	-0.013123	0.052042	0.417803	0.035861	0.191454	0.279723	-0.183106	0.045618	0.186129	
3.50494	0	0	-0.0437767	0.130842	0.299395	-0.077559	-0.0653197	0.274649	0.132262	-0.015499	0.0996965	0.619709	0.177577	0.564125	-0.0540675	0.252228	-0.190467	0.650354	-0.313455	-0.127919	-0.400115	0.0715733	-0.405588	-0.0362242	-0.333735	-0.0126185	0.050165	0.423108	0.0409725	0.186352	0.292881	-0.191703	0.0448335	0.188345	
3.50647	0	0	-0.047274	0.128859	0.299572	-0.069321	-0.071419	0.278634	0.131502	-0.013351	0.096556	0.628585	0.17592	0.568809	-0.055272	0.255632	-0.190467	0.650354	-0.322768	-0.129504	-0.40445	0.067788	-0.404318	-0.039813	-0.338371	-0.012114	0.048288	0.428413	0.046084	0.181249	0.306039	-0.200301	0.044049	0.190562	
3.50036	0	0	-0.048807	0.121332	0.296912	-0.079275	-0.075383	0.276595	0.12811	-0.0127858	0.0996965	0.619709	0.174202	0.555538	-0.0583913	0.249822	-0.194241	0.639042	-0.325656	-0.135278	-0.413109	0.06023	-0.415292	-0.040913	-0.340682	-0.0181723	0.0502058	0.435323	0.0393495	0.190938	0.306039	-0.200301	0.0416948	0.197216	
3.50189	0	0	-0.05034	0.113805	0.294251	-0.089229	-0.079347	0.274556	0.124718	-0.0122205	0.102837	0.610833	0.172484	0.542267	-0.0615105	0.244013	-0.198015	0.627731	-0.328544	-0.141052	-0.421768	0.052672	-0.426265	-0.042013	-0.342992	-0.0242305	0.0521235	0.442234	0.032615	0.200628	0.306039	-0.200301	0.0393405	0.20387	
3.49731	0	0	-0.051873	0.106277	0.291591	-0.099183	-0.083311	0.272516	0.121325	-0.0116552	0.105978	0.601957	0.170765	0.528996	-0.0646297	0.238203	-0.201789	0.61642	-0.331432	-0.146827	-0.430428	0.045114	-0.437238	-0.043113	-0.345303	-0.0302887	0.0540412	0.449145	0.0258805	0.210317	0.306039	-0.200301	0.0369862	0.210524	
3.49731	0	0	-0.053406	0.09875	0.288931	-0.109137	-0.087275	0.270477	0.117933	-0.01109	0.109118	0.593081	0.169047	0.515725	-0.067749	0.232393	-0.205563	0.605108	-0.33432	-0.152601	-0.439087	0.037556	-0.448212	-0.044213	-0.347614	-0.036347	0.055959	0.456055	0.019146	0.220006	0.306039	-0.200301	0.034632	0.217178	
3.49579	0	0	-0.0514452	0.0932083	0.292769	-0.119984	-0.0801152	0.263485	0.118693	-0.0132377	0.11121	0.587169	0.172354	0.506378	-0.0653433	0.225594	-0.210392	0.596803	-0.338381	-0.15505	-0.444701	0.0214477	-0.449259	-0.057291	-0.358018	-0.0446607	0.0549798	0.446491	0.0172822	0.215935	0.297265	-0.194568	0.0260373	0.21427	
3.48663	0	0	-0.0494845	0.0876665	0.296608	-0.130831	-0.0729555	0.256493	0.119453	-0.0153855	0.113302	0.581257	0.175661	0.497032	-0.0629375	0.218795	-0.21522	0.588498	-0.342442	-0.157499	-0.450316	0.0053395	-0.450306	-0.070369	-0.368422	-0.0529745	0.0540005	0.436928	0.0154185	0.211864	0.28849	-0.188834	0.0174425	0.211363	
3.49121	0	0	-0.0475238	0.0821247	0.300446	-0.141679	-0.0657958	0.249501	0.120213	-0.0175333	0.115394	0.575344	0.178968	0.487685	-0.0605317	0.211995	-0.220048	0.580192	-0.346502	-0.159949	-0.455931	-0.0107688	-0.451352	-0.083447	-0.378826	-0.0612882	0.0530212	0.427364	0.0135548	0.207793	0.279716	-0.1831	0.00884775	0.208455	
3.48968	0	0	-0.045563	0.076583	0.304284	-0.152526	-0.058636	0.242509	0.120973	-0.019681	0.117486	0.569432	0.182275	0.478339	-0.058126	0.205196	-0.224877	0.571887	-0.350563	-0.162398	-0.461545	-0.026877	-0.452399	-0.096525	-0.38923	-0.069602	0.052042	0.417801	0.011691	0.203722	0.270942	-0.177367	0.000253	0.205547	
3.49579	5	0	-0.045563	0.076583	0.314047	-0.153903	-0.059701	0.245519	0.124365	-0.0202465	0.119198	0.577407	0.178968	0.487685	-0.0550037	0.210998	-0.213937	0.573905	-0.358676	-0.167291	-0.442708	-0.016107	-0.462083	-0.101187	-0.382296	-0.0640618	0.052042	0.417801	0.011691	0.203722	0.270942	-0.177367	-0.00313125	0.206055	
3.49579	5	0	-0.045563	0.076583	0.32381	-0.15528	-0.060766	0.248528	0.127757	-0.020812	0.120911	0.585381	0.175661	0.497032	-0.0518815	0.216801	-0.202996	0.575923	-0.366788	-0.172185	-0.423871	-0.005337	-0.471766	-0.105848	-0.375363	-0.0585215	0.052042	0.417801	0.011691	0.203722	0.270942	-0.177367	-0.0065155	0.206563	
3.49884	5	0	-0.045563	0.076583	0.333573	-0.156657	-0.061831	0.251538	0.13115	-0.0213775	0.122623	0.593356	0.172354	0.506378	-0.0487592	0.222603	-0.192056	0.577941	-0.3749	-0.177078	-0.405034	0.005433	-0.48145	-0.11051	-0.368429	-0.0529812	0.052042	0.417801	0.011691	0.203722	0.270942	-0.177367	-0.00989975	0.207071	
3.50189	5	0	-0.045563	0.076583	0.343336	-0.158034	-0.062896	0.254547	0.134542	-0.021943	0.124336	0.601331	0.169047	0.515725	-0.045637	0.228405	-0.181116	0.579959	-0.383013	-0.181972	-0.386197	0.016203	-0.491134	-0.115172	-0.361495	-0.047441	0.052042	0.417801	0.011691	0.203722	0.270942	-0.177367	-0.013284	0.207579	
3.50342	5	0	-0.0451425	0.0635425	0.33836	-0.161451	-0.06367	0.243492	0.127759	-0.0208125	0.124998	0.612282	0.162366	0.516497	-0.0393895	0.240034	-0.173553	0.602591	-0.384723	-0.191034	-0.333672	0.0449168	-0.494708	-0.121068	-0.342971	-0.0241803	0.0587002	0.423654	0.0146065	0.214164	0.275328	-0.180233	-0.00989975	0.207071	
3.50952	5	0	-0.044722	0.050502	0.333384	-0.164869	-0.064444	0.232438	0.120976	-0.019682	0.125661	0.623234	0.155685	0.517269	-0.033142	0.251663	-0.16599	0.625223	-0.386433	-0.200095	-0.281147	0.0736305	-0.498281	-0.126964	-0.324447	-0.0009195	0.0653585	0.429507	0.017522	0.224606	0.279714	-0.183099	-0.0065155	0.206563	
3.5202	5	0	-0.0443015	0.0374615	0.328408	-0.168287	-0.065218	0.221383	0.114193	-0.0185515	0.126323	0.634185	0.149004	0.51804	-0.0268945	0.263291	-0.158426	0.647854	-0.388143	-0.209157	-0.228621	0.102344	-0.501854	-0.13286	-0.305924	0.0223412	0.0720167	0.435359	0.0204375	0.235048	0.2841	-0.185965	-0.00313125	0.206055	
3.5263	5	0	-0.043881	0.024421	0.323432	-0.171704	-0.065992	0.210328	0.10741	-0.017421	0.126985	0.645137	0.142323	0.518812	-0.020647	0.27492	-0.150863	0.670486	-0.389853	-0.218219	-0.176096	0.131058	-0.505428	-0.138756	-0.2874	0.045602	0.078675	0.441212	0.023353	0.24549	0.288486	-0.188831	0.000253	0.205547	
3.53241	5	0	-0.0543605	0.0185268	0.327265	-0.182535	-0.072857	0.203273	0.09649	-0.0135857	0.135653	0.646313	0.133935	0.506353	-0.0008735	0.277747	-0.121889	0.676927	-0.398494	-0.235421	-0.121509	0.155645	-0.497865	-0.160129	-0.269954	0.0468772	0.0795685	0.426348	0.0225402	0.247787	0.2841	-0.185965	-0.00573025	0.204348	
3.53851	5	0	-0.06484	0.0126325	0.331097	-0.193367	-0.079722	0.196217	0.08557	-0.0097505	0.144321	0.647488	0.125546	0.493894	0.0189	0.280574	-0.0929155	0.683369	-0.407134	-0.252623	-0.0669215	0.180233	-0.490302	-0.181503	-0.252509	0.0481525	0.080462	0.411484	0.0217275	0.250084	0.279714	-0.183099	-0.0117135	0.203148	
3.54462	5	0	-0.0753195	0.00673825	0.334929	-0.204199	-0.086587	0.189162	0.07465	-0.00591525	0.152989	0.648664	0.117157	0.481435	0.0386735	0.2834	-0.0639417	0.68981	-0.415774	-0.269825	-0.0123342	0.204821	-0.48274	-0.202877	-0.235064	0.0494277	0.0813555	0.396619	0.0209147	0.25238	0.275328	-0.180233	-0.0176968	0.201949	
3.53088	5	0	-0.085799	0.000844	0.338762	-0.21503	-0.093452	0.182107	0.06373	-0.00208	0.161657	0.64984	0.108769	0.468976	0.058447	0.286227	-0.034968	0.696251	-0.424415	-0.287027	0.042253	0.229408	-0.475177	-0.22425	-0.217618	0.050703	0.082249	0.381755	0.020102	0.254677	0.270942	-0.177367	-0.02368	0.200749	
3.57818	5	0	-0.088312	-0.00387625	0.340485	-0.211161	-0.0974117	0.180083	0.060347	-0.00151875	0.169287	0.653984	0.110418	0.464316	0.077077	0.292471	-0.0160735	0.709372	-0.415702	-0.297787	0.0613095	0.257422	-0.465299	-0.236173	-0.212969	0.0629057	0.0859985	0.371158	0.027083	0.253648	0.275328	-0.180233	-0.0239292	0.192405	
3.55835	5	0	-0.090825	-0.0085965	0.342207	-0.207292	-0.101372	0.178059	0.056964	-0.0009575	0.176918	0.658129	0.112067	0.459656	0.095707	0.298716	0.002821	0.722493	-0.40699	-0.308547	0.080366	0.285437	-0.45542	-0.248096	-0.208321	0.0751085	0.089748	0.360561	0.034064	0.252619	0.279714	-0.183099	-0.0241785	0.184061	
3.55835	5	0	-0.093338	-0.0133168	0.34393	-0.203422	-0.105331	0.176036	0.053581	-0.00039625	0.184548	0.662273	0.113716	0.454996	0.114337	0.304961	0.0217155	0.735615	-0.398277	-0.319307	0.0994225	0.313451	-0.445542	-0.26002	-0.203672	0.0873113	0.0934975	0.349965	0.041045	0.25159	0.2841	-0.185965	-0.0244278	0.175717	
3.56293	5	0	-0.095851	-0.018037	0.345653	-0.199553	-0.109291	0.174012	0.050198	0.000165	0.192178	0.666417	0.115365	0.450336	0.132967	0.311205	0.04061	0.748736	-0.389564	-0.330067	0.118479	0.341466	-0.435663	-0.271943	-0.199023	0.099514	0.097247	0.339368	0.048026	0.250561	0.288486	-0.188831	-0.024677	0.167373	
3.56598	5	0	-0.0973885	-0.025506	0.345258	-0.180948	-0.114308	0.174986	0.050198	0.000165	0.203251	0.686644	0.105405	0.460426	0.152387	0.330204	0.0552815	0.77403	-0.363471	-0.306476	0.146256	0.394711	-0.423814	-0.241313	-0.181571	0.139157	0.111543	0.348371	0.0606235	0.261792	0.319251	-0.208933	-0.028057	0.167881	
3.57208	5	0	-0.098926	-0.032975	0.344863	-0.162344	-0.119325	0.175959	0.050198	0.000165	0.214325	0.706872	0.095446	0.470517	0.171806	0.349203	0.069953	0.799325	-0.337377	-0.282884	0.174033	0.447956	-0.411965	-0.210684	-0.164119	0.178801	0.125839	0.357374	0.073221	0.273023	0.350016	-0.229036	-0.031437	0.16839	
3.57513	5	0	-0.100463	-0.040444	0.344469	-0.143739	-0.124342	0.176933	0.050198	0.000165	0.225399	0.7271	0.0854865	0.480607	0.191225	0.368202	0.0846245	0.824619	-0.311284	-0.259293	0.201809	0.501202	-0.400117	-0.180055	-0.146666	0.218444	0.140134	0.366376	0.0858185	0.284254	0.380781	-0.249139	-0.034817	0.168899	
3.58429	5	0	-0.102001	-0.047913	0.344074	-0.125134	-0.129359	0.177907	0.050198	0.000165	0.236472	0.747327	0.075527	0.490697	0.210645	0.387201	0.099296	0.849914	-0.285191	-0.235702	0.229586	0.554447	-0.388268	-0.149425	-0.129214	0.258088	0.15443	0.375379	0.098416	0.295485	0.411546	-0.269241	-0.038197	0.169407	
3.58429	5	0	-0.106622	-0.0702518	0.343889	-0.133359	-0.127239	0.171915	0.064501	-0.0042315	0.291755	0.75953	0.0588787	0.483682	0.256795	0.375598	0.134615	0.861895	-0.222587	-0.202328	0.260043	0.634376	-0.3369	-0.133338	-0.123576	0.318751	0.166824	0.377494	0.0927025	0.311632	0.38956	-0.254875	-0.0330013	0.172815	
3.61328	5	0	-0.111243	-0.0925905	0.343705	-0.141584	-0.125119	0.165924	0.078804	-0.008628	0.347038	0.771733	0.0422305	0.476666	0.302945	0.363996	0.169934	0.873876	-0.159982	-0.168954	0.2905	0.714305	-0.285531	-0.117251	-0.117939	0.379414	0.179217	0.379608	0.086989	0.32778	0.367573	-0.240509	-0.0278055	0.176223	
3.61633	5	0	-0.115865	-0.114929	0.343521	-0.149809	-0.122999	0.159933	0.093107	-0.0130245	0.402321	0.783937	0.0255823	0.469651	0.349095	0.352393	0.205254	0.885857	-0.0973782	-0.13558	0.320957	0.794234	-0.234163	-0.101163	-0.112301	0.440078	0.19161	0.381722	0.0812755	0.343927	0.345587	-0.226142	-0.0226097	0.17963	
3.64075	5	0	-0.120486	-0.137268	0.343336	-0.158034	-0.120879	0.153941	0.10741	-0.017421	0.457604	0.79614	0.008934	0.462636	0.395245	0.34079	0.240573	0.897838	-0.034774	-0.102206	0.351414	0.874163	-0.182795	-0.085076	-0.106664	0.500741	0.204004	0.383837	0.075562	0.360074	0.323601	-0.211776	-0.017414	0.183038	
3.65295	5	0	-0.124542	-0.149367	0.341614	-0.161912	-0.120879	0.153941	0.114953	-0.020699	0.49006	0.795748	-0.004327	0.464156	0.419054	0.333199	0.267055	0.901656	0.029181	-0.14142	0.414108	0.864476	-0.14035	-0.123876	-0.0867755	0.521446	0.18592	0.385441	0.0489743	0.285761	0.245669	-0.162495	-0.0187343	0.195822	
3.66669	5	0	-0.128598	-0.161466	0.339893	-0.165789	-0.120879	0.153941	0.122496	-0.023977	0.522517	0.795357	-0.017588	0.465677	0.442863	0.325608	0.293538	0.905474	0.093136	-0.180634	0.476803	0.85479	-0.097904	-0.162675	-0.066887	0.54215	0.167836	0.387045	0.0223865	0.211448	0.167738	-0.113214	-0.0200545	0.208606	
3.68042	5	0	-0.132653	-0.173565	0.338172	-0.169666	-0.120879	0.153941	0.130039	-0.027255	0.554973	0.794965	-0.030849	0.467198	0.466673	0.318017	0.32002	0.909292	0.157091	-0.219848	0.539497	0.845103	-0.0554585	-0.201475	-0.0469985	0.562855	0.149753	0.388648	-0.00420125	0.137134	0.0898058	-0.063933	-0.0213747	0.22139	
3.68805	5	0	-0.136709	-0.185664	0.33645	-0.173544	-0.120879	0.153941	0.137582	-0.030533	0.587429	0.794574	-0.04411	0.468718	0.490482	0.310426	0.346502	0.91311	0.221046	-0.259062	0.602192	0.835416	-0.013013	-0.240275	-0.02711	0.58356	0.131669	0.390252	-0.030789	0.062821	0.011874	-0.014652	-0.022695	0.234174	
3.69263	5	0	-0.131289	-0.189206	0.343732	-0.176635	-0.103969	0.159027	0.139456	-0.0268035	0.616853	0.803201	-0.0341965	0.458671	0.525297	0.316967	0.369621	0.938079	0.246055	-0.272827	0.640227	0.863014	0.00934475	-0.23828	-0.0106827	0.601472	0.132608	0.387598	-0.0275663	0.0537128	0.0162267	-0.017496	-0.0167105	0.235379	
3.70178	5	0	-0.125868	-0.192748	0.351014	-0.179727	-0.0870595	0.164114	0.14133	-0.023074	0.646278	0.811827	-0.024283	0.448624	0.560112	0.323508	0.39274	0.963048	0.271065	-0.286591	0.678262	0.890612	0.0317025	-0.236285	0.0057445	0.619383	0.133547	0.384943	-0.0243435	0.0446045	0.0205795	-0.02034	-0.010726	0.236584	
3.70636	5	0	-0.120448	-0.19629	0.358296	-0.182818	-0.0701497	0.169201	0.143204	-0.0193445	0.675702	0.820454	-0.0143695	0.438577	0.594927	0.330049	0.415858	0.988016	0.296075	-0.300356	0.716298	0.918209	0.0540603	-0.23429	0.0221718	0.637295	0.134487	0.382289	-0.0211208	0.0354963	0.0249322	-0.023184	-0.0047415	0.237789	
3.71704	5	0	-0.115028	-0.199832	0.365578	-0.185909	-0.05324	0.174287	0.145078	-0.015615	0.705126	0.829081	-0.004456	0.42853	0.629742	0.33659	0.438977	1.01299	0.321084	-0.314121	0.754333	0.945807	0.076418	-0.232295	0.038599	0.655207	0.135426	0.379635	-0.017898	0.026388	0.029285	-0.026028	0.001243	0.238994	
3.72162	5	0	-0.115609	-0.209969	0.35983	-0.187153	-0.052178	0.171286	0.145078	-0.015615	0.701913	0.838161	-0.0209893	0.439333	0.648853	0.342806	0.451972	1.03292	0.323518	-0.292477	0.781525	0.987972	0.0874893	-0.214548	0.0527388	0.666876	0.145871	0.37485	-0.00053025	0.0518818	0.0678027	-0.0495552	0.0140175	0.239181	
3.72314	5	0	-0.116189	-0.220105	0.354082	-0.188397	-0.051116	0.168285	0.145078	-0.015615	0.6987	0.847241	-0.0375225	0.450136	0.667965	0.349023	0.464967	1.05286	0.325952	-0.270833	0.808717	1.03014	0.0985605	-0.1968	0.0668785	0.678545	0.156316	0.370066	0.0168375	0.0773755	0.10632	-0.0730825	0.026792	0.239369	
3.72009	5	0	-0.116769	-0.230242	0.348334	-0.189641	-0.050054	0.165283	0.145078	-0.015615	0.695487	0.856322	-0.0540557	0.460939	0.687077	0.355239	0.477963	1.0728	0.328386	-0.249189	0.83591	1.0723	0.109632	-0.179053	0.0810183	0.690214	0.166762	0.365282	0.0342053	0.102869	0.144838	-0.0966097	0.0395665	0.239556	
3.72009	5	0	-0.11735	-0.240378	0.342586	-0.190885	-0.048992	0.162282	0.145078	-0.015615	0.692274	0.865402	-0.070589	0.471742	0.706188	0.361455	0.490958	1.09274	0.33082	-0.227545	0.863102	1.11447	0.120703	-0.161305	0.095158	0.701883	0.177207	0.360497	0.051573	0.128363	0.183356	-0.120137	0.052341	0.239743	
3.72467	5	0	-0.114449	-0.248575	0.344119	-0.195218	-0.042897	0.1583	0.153393	-0.021048	0.695487	0.856322	-0.0656657	0.457828	0.710668	0.363881	0.489865	1.09583	0.342821	-0.204285	0.847096	1.14265	0.138063	-0.144784	0.0903355	0.715512	0.178146	0.357843	0.0584885	0.155582	0.201624	-0.133715	0.0601693	0.244883	
3.72772	5	0	-0.111549	-0.256772	0.345653	-0.199551	-0.036802	0.154317	0.161708	-0.026481	0.6987	0.847241	-0.0607425	0.443914	0.715148	0.366307	0.488772	1.09892	0.354823	-0.181025	0.83109	1.17084	0.155423	-0.128263	0.085513	0.729141	0.179086	0.355188	0.065404	0.1828	0.219892	-0.147293	0.0679975	0.250023	
3.74603	5	0	-0.108648	-0.264969	0.347186	-0.203885	-0.030707	0.150335	0.170022	-0.031914	0.701913	0.838161	-0.0558193	0.43	0.719629	0.368733	0.487679	1.102	0.366824	-0.157765	0.815085	1.19902	0.172783	-0.111742	0.0806905	0.742771	0.180025	0.352533	0.0723195	0.210018	0.23816	-0.160871	0.0758257	0.255163	
3.76587	5	0	-0.105748	-0.273166	0.348719	-0.208218	-0.024612	0.146352	0.178337	-0.037347	0.705126	0.829081	-0.050896	0.416086	0.724109	0.371159	0.486586	1.10509	0.378825	-0.134505	0.799079	1.22721	0.190143	-0.095221	0.075868	0.7564	0.180964	0.349879	0.079235	0.237237	0.256428	-0.174449	0.083654	0.260303	
3.79028	5	0	-0.0987715	-0.269321	0.36291	-0.195808	-0.0166593	0.15039	0.182498	-0.0400655	0.714388	0.816055	-0.0459147	0.419961	0.736781	0.365557	0.49376	1.10753	0.385417	-0.138812	0.803322	1.24933	0.188858	-0.0915885	0.079405	0.759334	0.179024	0.34299	0.094542	0.250248	0.273221	-0.183781	0.097263	0.258256	
3.81317	5	0	-0.091795	-0.265475	0.377101	-0.183399	-0.0087065	0.154428	0.186658	-0.042784	0.723649	0.803029	-0.0409335	0.423836	0.749453	0.359955	0.500933	1.10998	0.392008	-0.143119	0.807564	1.27146	0.187573	-0.087956	0.082942	0.762268	0.177084	0.336101	0.109849	0.263259	0.290015	-0.193112	0.110872	0.256209	
3.83911	5	0	-0.0848185	-0.26163	0.391293	-0.170989	-0.00075375	0.158466	0.190819	-0.0455025	0.732911	0.790004	-0.0359522	0.42771	0.762126	0.354353	0.508107	1.11242	0.3986	-0.147426	0.811806	1.29358	0.186287	-0.0843235	0.086479	0.765202	0.175144	0.329213	0.125156	0.276269	0.306808	-0.202444	0.124481	0.254161	
3.86505	5	0	-0.077842	-0.257785	0.405484	-0.15858	0.007199	0.162504	0.194979	-0.048221	0.742172	0.776978	-0.030971	0.431585	0.774798	0.348751	0.51528	1.11486	0.405192	-0.151733	0.816049	1.3157	0.185002	-0.080691	0.090016	0.768136	0.173204	0.322324	0.140463	0.28928	0.323601	-0.211776	0.13809	0.252114	
3.88794	5	0	-0.0673602	-0.252009	0.422588	-0.127866	0.00692075	0.176561	0.201785	-0.049363	0.749642	0.795371	-0.0259335	0.453305	0.785819	0.363013	0.529164	1.14393	0.424428	-0.148698	0.830355	1.37799	0.197409	-0.0664157	0.10643	0.799516	0.189431	0.326001	0.160392	0.308249	0.349991	-0.22902	0.14516	0.25949	
3.91235	5	0	-0.0568785	-0.246233	0.439692	-0.0971515	0.0066425	0.190617	0.208591	-0.050505	0.757111	0.813765	-0.020896	0.475025	0.796841	0.377276	0.543047	1.173	0.443663	-0.145663	0.844661	1.44027	0.209816	-0.0521405	0.122844	0.830896	0.205657	0.329679	0.180322	0.327219	0.376382	-0.246264	0.15223	0.266866	
3.93066	5	0	-0.0463968	-0.240458	0.456796	-0.0664373	0.00636425	0.204674	0.215396	-0.051647	0.76458	0.832158	-0.0158585	0.496746	0.807862	0.391539	0.556931	1.20207	0.462898	-0.142628	0.858968	1.50255	0.222223	-0.0378653	0.139258	0.862276	0.221883	0.333357	0.200251	0.346189	0.402772	-0.263508	0.1593	0.274242	
3.95355	5	0	-0.035915	-0.234682	0.4739	-0.035723	0.006086	0.21873	0.222202	-0.052789	0.77205	0.850551	-0.010821	0.518466	0.818883	0.405801	0.570815	1.23114	0.482134	-0.139593	0.873274	1.56483	0.23463	-0.02359	0.155672	0.893656	0.23811	0.337034	0.220181	0.365158	0.429162	-0.280752	0.16637	0.281618	
3.96271	5	0	-0.035915	-0.234682	0.464604	-0.00945025	0.0111328	0.217748	0.221441	-0.050639	0.790929	0.889697	-0.0107585	0.554315	0.8262	0.430643	0.596685	1.28392	0.486974	-0.124506	0.932816	1.63846	0.258225	0.0087985	0.181577	0.937712	0.258355	0.366826	0.235236	0.39821	0.477001	-0.310369	0.172116	0.301918	
3.97491	5	0	-0.035915	-0.234682	0.455307	0.0168225	0.0161795	0.216765	0.220681	-0.048489	0.809808	0.928843	-0.010696	0.590165	0.833517	0.455484	0.622555	1.33669	0.491814	-0.109419	0.992358	1.71208	0.281821	0.041187	0.207481	0.981768	0.278599	0.396618	0.25029	0.431262	0.52484	-0.339986	0.177862	0.322217	
3.98407	5	0	-0.035915	-0.234682	0.44601	0.0430952	0.0212263	0.215783	0.21992	-0.046339	0.828687	0.967989	-0.0106335	0.626015	0.840834	0.480326	0.648425	1.38947	0.496654	-0.0943312	1.0519	1.7857	0.305417	0.0735755	0.233386	1.02582	0.298844	0.426409	0.265345	0.464314	0.572678	-0.369604	0.183608	0.342517	
3.98712	5	0	-0.035915	-0.234682	0.436714	0.069368	0.026273	0.214801	0.219159	-0.044189	0.847566	1.00713	-0.010571	0.661864	0.848151	0.505168	0.674295	1.44224	0.501494	-0.079244	1.11144	1.85932	0.329012	0.105964	0.25929	1.06988	0.319089	0.456201	0.2804	0.497366	0.620517	-0.399221	0.189354	0.362817	
3.99628	5	0	-0.034357	-0.22727	0.444218	0.0745865	0.0158947	0.230851	0.210832	-0.038748	0.866882	1.0322	-0.0088985	0.693234	0.862936	0.509014	0.702762	1.47698	0.51235	-0.0811142	1.14185	1.91304	0.356618	0.127547	0.280717	1.08791	0.326931	0.496437	0.277769	0.53323	0.655277	-0.420292	0.192708	0.389948	
3.99933	5	0	-0.032799	-0.219859	0.451722	0.079805	0.0055165	0.246901	0.202505	-0.033307	0.886197	1.05726	-0.007226	0.724603	0.877722	0.51286	0.731229	1.51172	0.523205	-0.0829845	1.17225	1.96676	0.384225	0.149129	0.302145	1.10594	0.334773	0.536672	0.275138	0.569093	0.690036	-0.441362	0.196063	0.417079	
3.9978	5	0	-0.031241	-0.212448	0.459226	0.0850235	-0.00486175	0.262951	0.194178	-0.027866	0.905513	1.08233	-0.0055535	0.755972	0.892508	0.516707	0.759695	1.54645	0.534061	-0.0848547	1.20265	2.02048	0.411831	0.170712	0.323572	1.12398	0.342614	0.576908	0.272508	0.604957	0.724795	-0.462433	0.199417	0.444209	
4.00085	5	0	-0.029683	-0.205036	0.46673	0.090242	-0.01524	0.279001	0.185851	-0.022425	0.924829	1.10739	-0.003881	0.787342	0.907293	0.520553	0.788162	1.58119	0.544917	-0.086725	1.23306	2.07421	0.439437	0.192295	0.344999	1.14201	0.350456	0.617144	0.269877	0.640821	0.759555	-0.483504	0.202771	0.47134	
3.99628	5	0	-0.0246258	-0.195677	0.472077	0.110423	-0.028827	0.304129	0.177532	-0.0169895	0.938737	1.14808	0.00106775	0.827632	0.910102	0.543098	0.813378	1.62583	0.550352	-0.0876632	1.26874	2.11407	0.451794	0.224072	0.352039	1.16153	0.350549	0.65442	0.268645	0.663279	0.790752	-0.503889	0.197994	0.484841	
4.00085	5	0	-0.0195685	-0.186318	0.477424	0.130605	-0.042414	0.329258	0.169213	-0.011554	0.952645	1.18877	0.0060165	0.867922	0.912911	0.565643	0.838593	1.67047	0.555787	-0.0886015	1.30442	2.15393	0.464151	0.25585	0.359079	1.18105	0.350642	0.691696	0.267413	0.685736	0.821949	-0.524273	0.193217	0.498341	
4.00085	5	0	-0.0145112	-0.176959	0.482771	0.150786	-0.056001	0.354386	0.160895	-0.0061185	0.966552	1.22946	0.0109652	0.908211	0.915721	0.588187	0.863809	1.71511	0.561222	-0.0895398	1.3401	2.19379	0.476507	0.287627	0.366119	1.20058	0.350735	0.728971	0.266182	0.708194	0.853146	-0.544658	0.18844	0.511841	
4.0039	5	0	-0.009454	-0.1676	0.488118	0.170967	-0.069588	0.379515	0.152576	-0.000683	0.98046	1.27015	0.015914	0.948501	0.91853	0.610732	0.889025	1.75975	0.566657	-0.090478	1.37579	2.23365	0.488864	0.319404	0.373159	1.2201	0.350828	0.766247	0.26495	0.730652	0.884343	-0.565043	0.183663	0.525342	
4.00696	5	0	-0.003813	-0.148008	0.502714	0.200503	-0.0752692	0.408841	0.144265	0.0047475	0.983119	1.31616	0.0308028	0.997236	0.921322	0.633375	0.907798	1.81162	0.569689	-0.0846143	1.39707	2.27975	0.510265	0.342633	0.382678	1.2327	0.351824	0.801046	0.259323	0.75605	0.905184	-0.575376	0.175685	0.547888	
4.00696	5	0	0.001828	-0.128417	0.51731	0.230038	-0.0809505	0.438167	0.135955	0.010178	0.985777	1.36217	0.0456915	1.04597	0.924114	0.656018	0.926572	1.8635	0.572721	-0.0787505	1.41834	2.32584	0.531665	0.365862	0.392197	1.24531	0.352821	0.835844	0.253696	0.781448	0.926025	-0.585709	0.167708	0.570434	
4.01153	5	0	0.007469	-0.108825	0.531906	0.259574	-0.0866318	0.467494	0.127644	0.0156085	0.988436	1.40818	0.0605803	1.09471	0.926906	0.678661	0.945345	1.91538	0.575753	-0.0728868	1.43962	2.37193	0.553065	0.389092	0.401715	1.25791	0.353818	0.870643	0.248069	0.806847	0.946867	-0.596042	0.15973	0.592981	
4.01459	5	0	0.01311	-0.089234	0.546502	0.289109	-0.092313	0.49682	0.119334	0.021039	0.991094	1.45419	0.075469	1.14344	0.929698	0.701304	0.964119	1.96725	0.578785	-0.067023	1.4609	2.41802	0.574466	0.412321	0.411234	1.27051	0.354814	0.905442	0.242442	0.832245	0.967708	-0.606375	0.151752	0.615527	
4.01916	5	0	0.0171935	-0.0770482	0.538945	0.328205	-0.099838	0.518087	0.104258	0.0275842	0.984638	1.49925	0.0668088	1.20437	0.924174	0.732202	0.968969	2.02383	0.587265	-0.06209	1.48571	2.45474	0.590848	0.433263	0.41469	1.28712	0.342257	0.953485	0.233435	0.867199	0.987094	-0.612467	0.140549	0.647188	
4.02527	5	0	0.021277	-0.0648625	0.531388	0.367302	-0.107363	0.539354	0.0891825	0.0341295	0.978182	1.54432	0.0581485	1.26529	0.91865	0.7631	0.97382	2.08041	0.595746	-0.057157	1.51053	2.49146	0.607231	0.454205	0.418146	1.30374	0.3297	1.00153	0.224429	0.902154	1.00648	-0.618559	0.129347	0.678848	
4.03137	5	0	0.0253605	-0.0526767	0.523831	0.406398	-0.114888	0.560621	0.0741067	0.0406747	0.971725	1.58938	0.0494882	1.32621	0.913125	0.793999	0.97867	2.13698	0.604226	-0.052224	1.53534	2.52818	0.623613	0.475146	0.421601	1.32035	0.317143	1.04957	0.215422	0.937108	1.02586	-0.624651	0.118144	0.710509	
4.03442	5	0	0.029444	-0.040491	0.516274	0.445494	-0.122413	0.581888	0.059031	0.04722	0.965269	1.63445	0.040828	1.38714	0.907601	0.824897	0.983521	2.19356	0.612706	-0.047291	1.56015	2.56489	0.639995	0.496088	0.425057	1.33697	0.304586	1.09762	0.206416	0.972062	1.04525	-0.630743	0.106941	0.74217	
4.03137	5	0	0.0405532	-0.0243427	0.529762	0.460693	-0.134274	0.61541	0.054126	0.0520775	0.959223	1.66496	0.0388528	1.42924	0.904558	0.848794	0.990949	2.23134	0.614536	-0.0379967	1.57381	2.59784	0.653976	0.507168	0.427405	1.34354	0.291007	1.13599	0.19029	1.00814	1.05196	-0.630192	0.0965027	0.77167	
4.02984	5	0	0.0516625	-0.0081945	0.543249	0.475892	-0.146136	0.648932	0.049221	0.056935	0.953177	1.69547	0.0368775	1.47134	0.901515	0.872691	0.998376	2.26913	0.616367	-0.0287025	1.58748	2.63079	0.667956	0.518247	0.429752	1.35011	0.277429	1.17437	0.174164	1.04421	1.05867	-0.629641	0.0860645	0.801171	
4.02832	5	0	0.0627718	0.00795375	0.556737	0.491091	-0.157997	0.682454	0.044316	0.0617925	0.947131	1.72598	0.0349022	1.51345	0.898473	0.896589	1.0058	2.30691	0.618197	-0.0194082	1.60115	2.66373	0.681936	0.529327	0.4321	1.35668	0.26385	1.21274	0.158038	1.08028	1.06538	-0.62909	0.0756262	0.830671	
4.01764	5	0	0.073881	0.024102	0.570225	0.50629	-0.169858	0.715976	0.039411	0.06665	0.941085	1.75649	0.032927	1.55555	0.89543	0.920486	1.01323	2.3447	0.620027	-0.010114	1.61481	2.69668	0.695917	0.540407	0.434447	1.36325	0.250271	1.25112	0.141912	1.11636	1.07209	-0.628539	0.065188	0.860171	
4.01153	5	0	0.084025	0.0431005	0.579907	0.541324	-0.177822	0.751762	0.0397495	0.0746978	0.935589	1.7989	0.025699	1.61257	0.894343	0.954191	1.02023	2.3957	0.626103	0.00168125	1.63677	2.72446	0.700808	0.560387	0.436795	1.36983	0.242485	1.27312	0.136019	1.13301	1.07658	-0.631475	0.0569485	0.874298	
4.00543	5	0	0.094169	0.062099	0.589589	0.576358	-0.185785	0.787548	0.040088	0.0827455	0.930094	1.84131	0.018471	1.66959	0.893256	0.987897	1.02722	2.4467	0.632179	0.0134765	1.65873	2.75225	0.705699	0.580366	0.439142	1.37641	0.2347	1.29513	0.130126	1.14967	1.08108	-0.634412	0.048709	0.888424	
4.0039	5	0	0.104313	0.0810975	0.599272	0.611391	-0.193748	0.823335	0.0404265	0.0907932	0.924598	1.88371	0.011243	1.72661	0.89217	1.0216	1.03422	2.4977	0.638255	0.0252718	1.6807	2.78003	0.710591	0.600345	0.441489	1.38299	0.226914	1.31713	0.124232	1.16632	1.08557	-0.637348	0.0404695	0.902551	
4.00238	5	0	0.114457	0.100096	0.608954	0.646425	-0.201712	0.859121	0.040765	0.098841	0.919103	1.92612	0.004015	1.78363	0.891083	1.05531	1.04122	2.5487	0.644331	0.037067	1.70266	2.80781	0.715482	0.620325	0.443837	1.38957	0.219128	1.33913	0.118339	1.18298	1.09007	-0.640285	0.03223	0.916678	
4.01001	5	0	0.122635	0.124771	0.62218	0.69855	-0.203613	0.891082	0.0411008	0.106901	0.909579	1.96649	0.00682425	1.83072	0.879645	1.08763	1.04931	2.59689	0.646158	0.0464035	1.71161	2.83663	0.723045	0.632817	0.442591	1.39309	0.200747	1.36598	0.112435	1.19966	1.08557	-0.637348	0.0324165	0.92531	
4.01764	5	0	0.130813	0.149446	0.635406	0.750675	-0.205514	0.923044	0.0414365	0.11496	0.900055	2.00686	0.0096335	1.8778	0.868208	1.11996	1.0574	2.64507	0.647985	0.05574	1.72056	2.86545	0.730607	0.645309	0.441346	1.39661	0.182366	1.39282	0.106531	1.21635	1.08108	-0.634412	0.032603	0.933942	
4.03137	5	0	0.138992	0.174121	0.648632	0.8028	-0.207415	0.955006	0.0417722	0.12302	0.890531	2.04723	0.0124428	1.92488	0.85677	1.15228	1.06548	2.69326	0.649812	0.0650765	1.72952	2.89426	0.73817	0.6578	0.4401	1.40013	0.163984	1.41967	0.100627	1.23304	1.07658	-0.631475	0.0327895	0.942574	
4.0451	5	0	0.14717	0.198796	0.661858	0.854925	-0.209316	0.986967	0.042108	0.13108	0.881007	2.0876	0.015252	1.97197	0.845333	1.18461	1.07357	2.74144	0.651639	0.074413	1.73847	2.92308	0.745733	0.670292	0.438854	1.40366	0.145603	1.44652	0.094723	1.24972	1.07209	-0.628539	0.032976	0.951206	
4.06494	5	0	0.152249	0.208383	0.666908	0.858604	-0.221984	1.00947	0.0371993	0.135944	0.8658	2.11712	0.001316	2.01136	0.828078	1.21805	1.0637	2.7812	0.646785	0.0881313	1.75098	2.94198	0.739031	0.689233	0.436361	1.4107	0.136802	1.47139	0.0888078	1.26644	1.07881	-0.627989	0.0265188	0.969455	
4.07867	5	0	0.157328	0.21797	0.671958	0.862283	-0.234652	1.03197	0.0322905	0.140809	0.850592	2.14665	-0.01262	2.05074	0.810824	1.25149	1.05383	2.82096	0.641931	0.10185	1.7635	2.96089	0.732329	0.708174	0.433868	1.41775	0.128001	1.49626	0.0828925	1.28316	1.08552	-0.62744	0.0200615	0.987704	
4.09088	5	0	0.162406	0.227557	0.677009	0.865963	-0.24732	1.05447	0.0273817	0.145674	0.835384	2.17618	-0.026556	2.09013	0.79357	1.28493	1.04397	2.86072	0.637077	0.115568	1.77601	2.9798	0.725627	0.727114	0.431375	1.42479	0.119201	1.52114	0.0769772	1.29987	1.09224	-0.626891	0.0136042	1.00595	
4.10461	5	0	0.167485	0.237144	0.682059	0.869642	-0.259988	1.07698	0.022473	0.150538	0.820177	2.2057	-0.040492	2.12951	0.776315	1.31837	1.0341	2.90048	0.632223	0.129286	1.78853	2.9987	0.718925	0.746055	0.428882	1.43184	0.1104	1.54601	0.071062	1.31659	1.09896	-0.626341	0.007147	1.0242	
4.10919	5	0	0.167049	0.250359	0.688034	0.879718	-0.265454	1.09242	0.0250932	0.152141	0.814529	2.22166	-0.0492332	2.15422	0.769922	1.33643	1.032	2.93016	0.635257	0.135224	1.78973	3.01344	0.717583	0.749848	0.426539	1.42525	0.102777	1.54248	0.0596488	1.32037	1.09148	-0.62475	0.00616175	1.01783	
4.11529	5	0	0.166612	0.263574	0.694009	0.889794	-0.27092	1.10787	0.0277135	0.153744	0.808882	2.23762	-0.0579745	2.17892	0.763529	1.3545	1.0299	2.95984	0.63829	0.141163	1.79092	3.02819	0.716241	0.753641	0.424196	1.41865	0.0951535	1.53896	0.0482355	1.32416	1.08401	-0.623158	0.0051765	1.01145	
4.11224	5	0	0.166176	0.27679	0.699983	0.899869	-0.276386	1.12332	0.0303337	0.155347	0.803234	2.25359	-0.0667157	2.20362	0.757137	1.37257	1.02781	2.98952	0.641323	0.147101	1.79212	3.04293	0.714898	0.757434	0.421853	1.41206	0.0875303	1.53544	0.0368223	1.32794	1.07653	-0.621567	0.00419125	1.00508	
4.11987	5	0	0.16574	0.290005	0.705958	0.909945	-0.281852	1.13877	0.032954	0.15695	0.797586	2.26955	-0.075457	2.22833	0.750744	1.39064	1.02571	3.01921	0.644357	0.153039	1.79332	3.05767	0.713556	0.761227	0.41951	1.40547	0.079907	1.53191	0.025409	1.33172	1.06906	-0.619976	0.003206	0.998704	
4.12598	5	0	0.174353	0.301655	0.725531	0.935747	-0.288424	1.15734	0.037435	0.162317	0.78069	2.29042	-0.0842225	2.2531	0.736008	1.41697	1.02048	3.04588	0.644357	0.153039	1.78974	3.06778	0.707101	0.762528	0.414824	1.39231	0.067516	1.52939	0.0235805	1.32741	1.06083	-0.616248	0.0030255	0.990059	
4.12598	5	0	0.182966	0.313305	0.745104	0.96155	-0.294996	1.17591	0.041916	0.167684	0.763794	2.31129	-0.092988	2.27787	0.721273	1.4433	1.01525	3.07254	0.644357	0.153039	1.78616	3.0779	0.700647	0.76383	0.410137	1.37915	0.055125	1.52687	0.021752	1.3231	1.05261	-0.612521	0.002845	0.981414	
4.12292	5	0	0.191579	0.324955	0.764677	0.987352	-0.301568	1.19449	0.046397	0.173051	0.746899	2.33217	-0.101753	2.30265	0.706538	1.46964	1.01002	3.09921	0.644357	0.153039	1.78258	3.08801	0.694192	0.765132	0.40545	1.366	0.042734	1.52435	0.0199235	1.31878	1.04439	-0.608793	0.0026645	0.972769	
4.10766	5	0	0.200192	0.336605	0.78425	1.01315	-0.30814	1.21306	0.050878	0.178418	0.730003	2.35304	-0.110519	2.32742	0.691802	1.49597	1.00479	3.12588	0.644357	0.153039	1.779	3.09813	0.687738	0.766433	0.400764	1.35284	0.030343	1.52183	0.018095	1.31447	1.03616	-0.605065	0.002484	0.964124	
4.09698	5	0	0.20373	0.338619	0.777664	1.02274	-0.315353	1.22016	0.0467275	0.18113	0.720426	2.36668	-0.119309	2.35226	0.679625	1.51509	0.994054	3.15623	0.643141	0.156476	1.77183	3.11839	0.686396	0.770226	0.394695	1.35681	0.0293662	1.52459	0.0128888	1.31971	1.04141	-0.610139	0.002484	0.964124	
4.08478	5	0	0.207267	0.340634	0.771078	1.03232	-0.322566	1.22725	0.042577	0.183842	0.710849	2.38032	-0.128099	2.3771	0.667448	1.5342	0.983316	3.18658	0.641925	0.159913	1.76466	3.13865	0.685054	0.774019	0.388626	1.36077	0.0283895	1.52735	0.0076825	1.32495	1.04666	-0.615212	0.002484	0.964124	
4.07104	5	0	0.210805	0.342649	0.764491	1.0419	-0.32978	1.23435	0.0384265	0.186554	0.701273	2.39396	-0.136889	2.40194	0.655271	1.55332	0.972577	3.21693	0.640709	0.163349	1.7575	3.15891	0.683712	0.777812	0.382557	1.36474	0.0274127	1.53011	0.00247625	1.33018	1.0519	-0.620286	0.002484	0.964124	
4.05884	5	0	0.214343	0.344663	0.757905	1.05149	-0.336993	1.24144	0.034276	0.189266	0.691696	2.40761	-0.145679	2.42679	0.643094	1.57243	0.961839	3.24727	0.639493	0.166786	1.75033	3.17918	0.68237	0.781605	0.376488	1.36871	0.026436	1.53287	-0.00273	1.33542	1.05715	-0.62536	0.002484	0.964124	
4.03747	5	0	0.215338	0.341849	0.757905	1.05149	-0.342008	1.24234	0.0361335	0.193034	0.693337	2.41639	-0.16397	2.42345	0.642415	1.58965	0.948507	3.26118	0.666871	0.191311	1.72301	3.1659	0.70688	0.780188	0.364514	1.36304	0.0207925	1.52384	-0.00891275	1.33395	1.04445	-0.618704	0.00230075	0.955492	
4.02679	5	0	0.216334	0.339035	0.757905	1.05149	-0.347024	1.24323	0.037991	0.196802	0.694979	2.42518	-0.182261	2.42012	0.641737	1.60687	0.935175	3.27509	0.694249	0.215836	1.6957	3.15263	0.731391	0.778771	0.35254	1.35738	0.015149	1.5148	-0.0150955	1.33249	1.03174	-0.612048	0.0021175	0.94686	
4.00848	5	0	0.21733	0.336221	0.757905	1.05149	-0.35204	1.24413	0.0398485	0.200571	0.696621	2.43396	-0.200552	2.41679	0.641058	1.62408	0.921842	3.28899	0.721626	0.240361	1.66839	3.13935	0.755901	0.777354	0.340565	1.35172	0.0095055	1.50577	-0.0212782	1.33102	1.01904	-0.605393	0.00193425	0.938228	
3.9917	5	0	0.218325	0.333407	0.757905	1.05149	-0.357055	1.24502	0.041706	0.204339	0.698262	2.44274	-0.218843	2.41346	0.640379	1.6413	0.90851	3.3029	0.749004	0.264886	1.64108	3.12608	0.780411	0.775937	0.328591	1.34606	0.003862	1.49673	-0.027461	1.32956	1.00633	-0.598737	0.001751	0.929596	
3.97491	5	0	0.223857	0.329792	0.763892	1.06167	-0.358152	1.24812	0.046953	0.207558	0.699397	2.43954	-0.237075	2.41013	0.642269	1.65127	0.896386	3.31342	0.752645	0.283813	1.63635	3.12141	0.772593	0.781046	0.331071	1.33905	-0.001679	1.47498	-0.0285793	1.3138	0.994409	-0.594233	-0.00122475	0.910581	
3.96271	5	0	0.22939	0.326177	0.769878	1.07186	-0.359248	1.25122	0.0522	0.210778	0.700532	2.43633	-0.255307	2.40679	0.644159	1.66124	0.884262	3.32394	0.756286	0.302739	1.63162	3.11675	0.764775	0.786154	0.33355	1.33204	-0.00722	1.45323	-0.0296975	1.29804	0.982483	-0.589729	-0.0042005	0.891567	
3.94897	5	0	0.234923	0.322562	0.775864	1.08204	-0.360345	1.25432	0.057447	0.213998	0.701666	2.43312	-0.273539	2.40345	0.646048	1.67121	0.872139	3.33446	0.759927	0.321666	1.62688	3.11208	0.756957	0.791262	0.336029	1.32504	-0.012761	1.43147	-0.0308157	1.28228	0.970557	-0.585225	-0.00717625	0.872553	
3.93677	5	0	0.240455	0.318947	0.781851	1.09223	-0.361442	1.25742	0.062694	0.217217	0.702801	2.42992	-0.291771	2.40012	0.647938	1.68118	0.860015	3.34498	0.763568	0.340593	1.62215	3.10742	0.749139	0.796371	0.338509	1.31803	-0.018302	1.40972	-0.031934	1.26653	0.958631	-0.580721	-0.010152	0.853538	
3.92761	5	0	0.236913	0.316936	0.785303	1.10057	-0.369269	1.25301	0.0634592	0.215054	0.692717	2.43158	-0.300171	2.40561	0.639601	1.68943	0.856424	3.35514	0.76234	0.344063	1.62331	3.12218	0.759646	0.783662	0.332457	1.32198	-0.0172418	1.39427	-0.0355835	1.25794	0.955669	-0.582073	-0.00874175	0.84042	
3.91388	5	0	0.233372	0.314926	0.788754	1.10891	-0.377097	1.2486	0.0642245	0.212892	0.682634	2.43324	-0.308571	2.4111	0.631263	1.69768	0.852832	3.36529	0.761113	0.347533	1.62447	3.13695	0.770153	0.770953	0.326405	1.32594	-0.0161815	1.37882	-0.039233	1.24935	0.952706	-0.583425	-0.0073315	0.827302	
3.90167	5	0	0.22983	0.312916	0.792205	1.11724	-0.384924	1.24419	0.0649897	0.21073	0.67255	2.4349	-0.316972	2.41659	0.622926	1.70594	0.84924	3.37544	0.759885	0.351004	1.62562	3.15172	0.780661	0.758244	0.320353	1.32989	-0.0151212	1.36337	-0.0428825	1.24077	0.949743	-0.584777	-0.00592125	0.814183	
3.89557	5	0	0.226288	0.310905	0.795657	1.12558	-0.392751	1.23978	0.065755	0.208567	0.662466	2.43656	-0.325372	2.42207	0.614588	1.71419	0.845649	3.38559	0.758657	0.354474	1.62678	3.16649	0.791168	0.745535	0.314301	1.33385	-0.014061	1.34791	-0.046532	1.23218	0.946781	-0.586129	-0.004511	0.801065	
3.88489	5	0	0.22573	0.300469	0.786321	1.1158	-0.402285	1.22699	0.0623655	0.209119	0.653029	2.42304	-0.331649	2.40337	0.604382	1.71245	0.846174	3.37224	0.761112	0.347535	1.6149	3.18203	0.779569	0.744359	0.304688	1.33475	-0.0111543	1.3397	-0.0527	1.23073	0.938594	-0.582422	-0.0113092	0.802026	
3.87421	5	0	0.225172	0.290033	0.776986	1.10601	-0.41182	1.21421	0.058976	0.209672	0.643591	2.40953	-0.337927	2.38466	0.594176	1.71071	0.846699	3.3589	0.763567	0.340596	1.60302	3.19757	0.76797	0.743182	0.295074	1.33564	-0.0082475	1.33149	-0.058868	1.22929	0.930406	-0.578715	-0.0181075	0.802988	
3.8681	5	0	0.224614	0.279597	0.767651	1.09623	-0.421354	1.20143	0.0555865	0.210224	0.634154	2.39602	-0.344205	2.36595	0.58397	1.70897	0.847225	3.34555	0.766023	0.333657	1.59114	3.21311	0.756371	0.742006	0.285461	1.33654	-0.00534075	1.32327	-0.065036	1.22784	0.922219	-0.575009	-0.0249058	0.80395	
3.85284	5	0	0.224056	0.269161	0.758315	1.08645	-0.430888	1.18865	0.052197	0.210776	0.624716	2.3825	-0.350482	2.34724	0.573764	1.70723	0.84775	3.33221	0.768478	0.326718	1.57926	3.22865	0.744772	0.74083	0.275847	1.33744	-0.002434	1.31506	-0.071204	1.22639	0.914032	-0.571302	-0.031704	0.804911	
3.85132	5	0	0.222069	0.274778	0.768361	1.08517	-0.430427	1.17412	0.052962	0.208614	0.620313	2.36821	-0.361989	2.34338	0.571887	1.69726	0.84588	3.32564	0.761161	0.31818	1.57633	3.2189	0.738554	0.724506	0.256819	1.32571	-0.00897275	1.29622	-0.0758315	1.21118	0.90139	-0.564684	-0.032098	0.787791	
3.84369	5	0	0.220081	0.280394	0.778407	1.0839	-0.429967	1.15959	0.053727	0.206453	0.615909	2.35391	-0.373496	2.33953	0.57001	1.68729	0.84401	3.31908	0.753844	0.309643	1.5734	3.20915	0.732336	0.708183	0.237791	1.31397	-0.0155115	1.27739	-0.080459	1.19597	0.888748	-0.558067	-0.032492	0.770671	
3.83911	5	0	0.218093	0.286011	0.788454	1.08263	-0.429506	1.14507	0.054492	0.204292	0.611506	2.33962	-0.385003	2.33567	0.568134	1.67732	0.842139	3.31251	0.746527	0.301105	1.57047	3.19941	0.726119	0.69186	0.218762	1.30223	-0.0220503	1.25856	-0.0850865	1.18077	0.876107	-0.551449	-0.032886	0.753552	
3.83758	5	0	0.216106	0.291628	0.7985	1.08135	-0.429045	1.13054	0.055257	0.20213	0.607102	2.32532	-0.39651	2.33181	0.566257	1.66735	0.840269	3.30594	0.73921	0.292567	1.56754	3.18966	0.719901	0.675536	0.199734	1.29049	-0.028589	1.23972	-0.089714	1.16556	0.863465	-0.544831	-0.03328	0.736432	
3.83301	5	0	0.218651	0.296447	0.806226	1.09574	-0.439025	1.13233	0.0503398	0.207005	0.595433	2.31826	-0.404869	2.33727	0.556075	1.66562	0.831757	3.30632	0.726419	0.284977	1.55634	3.18534	0.711014	0.666818	0.191549	1.27443	-0.0256313	1.21894	-0.093358	1.15702	0.850088	-0.53609	-0.0360775	0.726122	
3.83758	5	0	0.221197	0.301266	0.813952	1.11012	-0.449006	1.13412	0.0454225	0.211879	0.583763	2.3112	-0.413228	2.34274	0.545892	1.66389	0.823246	3.30669	0.713628	0.277386	1.54513	3.18103	0.702126	0.658101	0.183364	1.25836	-0.0226735	1.19816	-0.097002	1.14849	0.836711	-0.527349	-0.038875	0.715812	
3.84827	5	0	0.223742	0.306086	0.821679	1.1245	-0.458986	1.1359	0.0405052	0.216754	0.572094	2.30414	-0.421588	2.3482	0.535709	1.66216	0.814734	3.30707	0.700838	0.269796	1.53392	3.17671	0.693239	0.649384	0.175178	1.2423	-0.0197157	1.17738	-0.100646	1.13996	0.823333	-0.518609	-0.0416725	0.705501	
3.86352	5	0	0.226288	0.310905	0.829405	1.13889	-0.468966	1.13769	0.035588	0.221629	0.560424	2.29707	-0.429947	2.35366	0.525527	1.66043	0.806222	3.30744	0.688047	0.262205	1.52271	3.17239	0.684352	0.640666	0.166993	1.22623	-0.016758	1.1566	-0.10429	1.13142	0.809956	-0.509868	-0.04447	0.695191	
3.88183	5	0	0.223742	0.306086	0.817413	1.11848	-0.47132	1.11796	0.034496	0.215698	0.547656	2.2932	-0.434812	2.34926	0.515363	1.65869	0.79586	3.30126	0.674067	0.258078	1.50618	3.18319	0.675479	0.63197	0.158675	1.22365	-0.0205465	1.15489	-0.101781	1.12433	0.814413	-0.51278	-0.0494563	0.700182	
3.90167	5	0	0.221197	0.301266	0.805421	1.09807	-0.473674	1.09823	0.033404	0.209766	0.534889	2.28933	-0.439677	2.34487	0.505198	1.65696	0.785497	3.29508	0.660087	0.25395	1.48965	3.194	0.666606	0.623274	0.150357	1.22108	-0.024335	1.15319	-0.099272	1.11724	0.81887	-0.515692	-0.0544425	0.705172	
3.93066	5	0	0.218651	0.296447	0.793429	1.07765	-0.476028	1.0785	0.032312	0.203835	0.522122	2.28546	-0.444543	2.34048	0.495034	1.65523	0.775135	3.2889	0.646107	0.249823	1.47311	3.2048	0.657733	0.614577	0.142038	1.2185	-0.0281235	1.15148	-0.096763	1.11015	0.823326	-0.518604	-0.0594288	0.710163	
3.9505	5	0	0.216106	0.291628	0.781437	1.05724	-0.478382	1.05877	0.03122	0.197904	0.509354	2.28159	-0.449408	2.33608	0.48487	1.65349	0.764773	3.28272	0.632127	0.245695	1.45658	3.2156	0.64886	0.605881	0.13372	1.21592	-0.031912	1.14978	-0.094254	1.10306	0.827783	-0.521516	-0.064415	0.715154	
3.96881	5	0	0.211575	0.29243	0.77221	1.05623	-0.482915	1.04524	0.0203093	0.201713	0.50497	2.26739	-0.459125	2.32731	0.484283	1.63994	0.751383	3.27337	0.626073	0.23377	1.43719	3.21665	0.636241	0.591	0.124331	1.2034	-0.030895	1.1345	-0.105717	1.09785	0.815176	-0.514921	-0.0695977	0.711612	
3.98407	5	0	0.207043	0.293231	0.762983	1.05521	-0.487447	1.0317	0.0093985	0.205522	0.500586	2.25319	-0.468843	2.31853	0.483696	1.62639	0.737994	3.26403	0.620019	0.221846	1.4178	3.21771	0.623622	0.576118	0.114942	1.19087	-0.029878	1.11922	-0.11718	1.09264	0.802569	-0.508325	-0.0747805	0.708071	
4.00238	5	0	0.202512	0.294032	0.753755	1.0542	-0.49198	1.01817	-0.00151225	0.209332	0.496202	2.23899	-0.47856	2.30976	0.483108	1.61284	0.724605	3.25469	0.613965	0.209921	1.39841	3.21876	0.611003	0.561237	0.105552	1.17835	-0.028861	1.10394	-0.128643	1.08742	0.789961	-0.50173	-0.0799632	0.70453	
4.01153	5	0	0.197981	0.294834	0.744528	1.05319	-0.496513	1.00464	-0.012423	0.213141	0.491818	2.22479	-0.488278	2.30099	0.482521	1.59929	0.711215	3.24534	0.607911	0.197996	1.37901	3.21981	0.598384	0.546356	0.096163	1.16582	-0.027844	1.08866	-0.140106	1.08221	0.777354	-0.495134	-0.085146	0.700988	
4.02374	5	0	0.197981	0.294834	0.751322	1.06108	-0.498239	0.996355	-0.0116592	0.210983	0.485196	2.21695	-0.484804	2.29117	0.473658	1.59395	0.711729	3.23212	0.598217	0.196404	1.36722	3.23526	0.595952	0.536411	0.096163	1.16582	-0.0277953	1.07612	-0.138592	1.06854	0.772904	-0.492227	-0.0915235	0.682687	
4.03442	5	0	0.197981	0.294834	0.758115	1.06897	-0.499965	0.988074	-0.0108955	0.208824	0.478573	2.20912	-0.481329	2.28135	0.464795	1.58861	0.712243	3.21889	0.588523	0.194811	1.35542	3.25071	0.593521	0.526466	0.096163	1.16582	-0.0277465	1.06359	-0.137078	1.05487	0.768455	-0.489319	-0.097901	0.664386	
4.03442	5	0	0.197981	0.294834	0.764909	1.07686	-0.501691	0.979794	-0.0101318	0.206666	0.471951	2.20128	-0.477855	2.27153	0.455932	1.58328	0.712756	3.20566	0.578828	0.193218	1.34363	3.26616	0.591089	0.51652	0.096163	1.16582	-0.0276978	1.05106	-0.135565	1.0412	0.764005	-0.486411	-0.104278	0.646085	
4.039	5	0	0.197981	0.294834	0.771703	1.08475	-0.503417	0.971513	-0.009368	0.204508	0.465329	2.19345	-0.474381	2.26171	0.447069	1.57794	0.71327	3.19243	0.569134	0.191626	1.33183	3.28161	0.588657	0.506575	0.096163	1.16582	-0.027649	1.03852	-0.134051	1.02754	0.759555	-0.483504	-0.110656	0.627784	
4.04053	5	0	0.18231	0.279214	0.744073	1.08168	-0.502985	0.957142	-0.00074975	0.207177	0.499133	2.21769	-0.487556	2.26278	0.450218	1.58423	0.729717	3.20491	0.587911	0.211119	1.36095	3.32486	0.606372	0.523872	0.106482	1.20181	-0.0171925	1.03377	-0.153434	1.01672	0.768457	-0.48932	-0.138839	0.616928	
4.03747	5	0	0.166638	0.263594	0.716444	1.07861	-0.502552	0.942771	0.0078685	0.209847	0.532936	2.24194	-0.500731	2.26385	0.453367	1.59051	0.746164	3.21739	0.606688	0.230611	1.39007	3.36811	0.624088	0.541168	0.116801	1.23779	-0.006736	1.02902	-0.172818	1.0059	0.777359	-0.495137	-0.167021	0.606071	
4.03137	5	0	0.150967	0.247974	0.688814	1.07554	-0.50212	0.9284	0.0164867	0.212516	0.56674	2.26618	-0.513906	2.26491	0.456516	1.5968	0.762611	3.22987	0.625464	0.250104	1.41919	3.41136	0.641803	0.558464	0.127119	1.27378	0.0037205	1.02427	-0.192201	0.995077	0.78626	-0.500954	-0.195204	0.595215	
4.02679	5	0	0.135296	0.232354	0.661184	1.07247	-0.501688	0.914029	0.025105	0.215186	0.600544	2.29043	-0.527081	2.26598	0.459665	1.60309	0.779058	3.24234	0.644241	0.269597	1.44832	3.4546	0.659518	0.575761	0.137438	1.30976	0.014177	1.01952	-0.211584	0.984258	0.795162	-0.50677	-0.223386	0.584359	
4.02222	5	0	0.121641	0.21123	0.630087	1.04374	-0.510117	0.898458	0.0224855	0.213576	0.621173	2.29901	-0.5416	2.2529	0.467941	1.5949	0.779058	3.24234	0.654557	0.284112	1.45334	3.49446	0.664391	0.595762	0.149147	1.32895	0.0246483	1.01476	-0.229089	0.977685	0.804829	-0.514729	-0.245315	0.583242	
4.00696	5	0	0.107985	0.190105	0.59899	1.01502	-0.518545	0.882886	0.019866	0.211966	0.641802	2.30758	-0.556118	2.23981	0.476216	1.58671	0.779058	3.24234	0.664873	0.298627	1.45837	3.53432	0.669264	0.615764	0.160857	1.34814	0.0351195	1.01	-0.246594	0.971113	0.814496	-0.522687	-0.267244	0.582124	
3.99933	5	0	0.0943303	0.16898	0.567893	0.9863	-0.526973	0.867315	0.0172465	0.210356	0.662431	2.31616	-0.570637	2.22673	0.484492	1.57852	0.779058	3.24234	0.67519	0.313143	1.46339	3.57418	0.674136	0.635765	0.172567	1.36733	0.0455907	1.00524	-0.2641	0.96454	0.824162	-0.530645	-0.289173	0.581007	
3.98559	5	0	0.080675	0.147856	0.536796	0.957578	-0.535402	0.851744	0.014627	0.208746	0.68306	2.32474	-0.585156	2.21364	0.492768	1.57033	0.779058	3.24234	0.685506	0.327658	1.46842	3.61404	0.679009	0.655767	0.184276	1.38652	0.056062	1.00048	-0.281605	0.957967	0.833829	-0.538604	-0.311102	0.57989	
3.97491	5	0	0.0721017	0.136347	0.529975	0.941125	-0.542749	0.833199	0.0018725	0.208783	0.685319	2.31835	-0.591715	2.21417	0.478195	1.56595	0.777191	3.23581	0.683055	0.334584	1.46661	3.61916	0.688127	0.646907	0.179491	1.38695	0.0570493	0.985273	-0.292297	0.94161	0.829373	-0.535692	-0.31485	0.563507	
3.96271	5	0	0.0635285	0.124838	0.523153	0.924671	-0.550096	0.814655	-0.010882	0.20882	0.687577	2.31197	-0.598273	2.2147	0.463623	1.56158	0.775324	3.22928	0.680605	0.34151	1.4648	3.62428	0.697245	0.638046	0.174707	1.38739	0.0580365	0.970062	-0.30299	0.925253	0.824916	-0.53278	-0.318597	0.547125	
3.95813	5	0	0.0549552	0.113329	0.516332	0.908218	-0.557443	0.79611	-0.0236365	0.208857	0.689836	2.30559	-0.604831	2.21523	0.44905	1.55721	0.773457	3.22275	0.678154	0.348435	1.46299	3.6294	0.706364	0.629185	0.169923	1.38783	0.0590237	0.954851	-0.313682	0.908895	0.82046	-0.529868	-0.322344	0.530742	
3.94897	5	0	0.046382	0.10182	0.50951	0.891764	-0.56479	0.777566	-0.036391	0.208894	0.692095	2.2992	-0.61139	2.21576	0.434478	1.55283	0.77159	3.21622	0.675704	0.355361	1.46118	3.63452	0.715482	0.620325	0.165138	1.38827	0.060011	0.93964	-0.324374	0.892538	0.816003	-0.526956	-0.326092	0.514359	
3.93829	5	0	0.0418893	0.10262	0.508908	0.911323	-0.567596	0.772412	-0.0431392	0.209987	0.683154	2.29769	-0.616577	2.23042	0.42691	1.54391	0.760732	3.22332	0.67145	0.352816	1.45287	3.63994	0.703928	0.619174	0.161594	1.38521	0.0543235	0.930895	-0.332264	0.886946	0.811549	-0.524045	-0.335343	0.513569	
3.93524	5	0	0.0373965	0.103419	0.508306	0.930883	-0.570402	0.767257	-0.0498875	0.211081	0.674214	2.29618	-0.621765	2.24508	0.419342	1.53499	0.749874	3.23041	0.667195	0.350272	1.44457	3.64537	0.692374	0.618024	0.15805	1.38215	0.048636	0.922151	-0.340153	0.881354	0.807094	-0.521135	-0.344595	0.512779	
3.93524	5	0	0.0329037	0.104219	0.507703	0.950442	-0.573207	0.762102	-0.0566357	0.212175	0.665274	2.29466	-0.626952	2.25974	0.411774	1.52607	0.739016	3.23751	0.66294	0.347728	1.43627	3.65079	0.680821	0.616874	0.154505	1.37909	0.0429485	0.913407	-0.348043	0.875762	0.80264	-0.518224	-0.353846	0.511989	
3.93524	5	0	0.028411	0.105019	0.507101	0.970001	-0.576013	0.756948	-0.063384	0.213268	0.656333	2.29315	-0.632139	2.2744	0.404206	1.51714	0.728158	3.2446	0.658686	0.345183	1.42796	3.65622	0.669267	0.615723	0.150961	1.37603	0.037261	0.904662	-0.355933	0.87017	0.798185	-0.515313	-0.363097	0.511199	
3.93677	5	0	0.0293937	0.102242	0.501384	0.977227	-0.586562	0.747563	-0.073493	0.214902	0.643512	2.28929	-0.64388	2.2896	0.38842	1.51638	0.714272	3.24851	0.648964	0.343557	1.40673	3.66223	0.665498	0.609497	0.149889	1.366	0.0344192	0.900297	-0.362833	0.8711	0.798185	-0.515313	-0.364868	0.507234	
3.93829	5	0	0.0303765	0.0994645	0.495667	0.984453	-0.597112	0.738178	-0.083602	0.216537	0.63069	2.28542	-0.655622	2.3048	0.372634	1.51563	0.700387	3.25242	0.639242	0.341931	1.38549	3.66824	0.661728	0.603271	0.148817	1.35596	0.0315775	0.895933	-0.369733	0.87203	0.798185	-0.515313	-0.366639	0.50327	
3.9444	5	0	0.0313593	0.0966873	0.48995	0.99168	-0.607661	0.728793	-0.093711	0.218172	0.617869	2.28156	-0.667363	2.31999	0.356848	1.51487	0.686501	3.25633	0.629519	0.340305	1.36425	3.67424	0.657959	0.597044	0.147744	1.34593	0.0287358	0.891568	-0.376632	0.872959	0.798185	-0.515313	-0.36841	0.499305	
3.9505	5	0	0.032342	0.09391	0.484233	0.998906	-0.61821	0.719408	-0.10382	0.219806	0.605047	2.2777	-0.679105	2.33519	0.341062	1.51411	0.672616	3.26024	0.619797	0.338679	1.34301	3.68025	0.65419	0.590818	0.146672	1.33589	0.025894	0.887203	-0.383532	0.873889	0.798185	-0.515313	-0.370181	0.49534	
3.95813	5	0	0.0307975	0.086385	0.486643	0.992096	-0.617808	0.705223	-0.113913	0.221434	0.596747	2.26114	-0.680453	2.32103	0.332257	1.50881	0.667724	3.25055	0.614331	0.339593	1.33191	3.67572	0.650423	0.584602	0.138358	1.33328	0.026864	0.872073	-0.387956	0.867841	0.789283	-0.509497	-0.381181	0.490592	
3.9566	5	0	0.029253	0.07886	0.489052	0.985287	-0.617405	0.691038	-0.124006	0.223061	0.588447	2.24459	-0.681802	2.30687	0.323452	1.5035	0.662832	3.24086	0.608865	0.340507	1.3208	3.6712	0.646656	0.578385	0.130045	1.33067	0.027834	0.856943	-0.392381	0.861793	0.780382	-0.50368	-0.39218	0.485843	
3.96118	5	0	0.0277085	0.071335	0.491461	0.978478	-0.617003	0.676854	-0.134098	0.224688	0.580147	2.22803	-0.68315	2.29271	0.314646	1.4982	0.657941	3.23117	0.603398	0.341422	1.30969	3.66667	0.642888	0.572169	0.121731	1.32806	0.028804	0.841814	-0.396805	0.855746	0.77148	-0.497864	-0.40318	0.481094	
3.96423	5	0	0.026164	0.06381	0.493871	0.971668	-0.6166	0.662669	-0.144191	0.226316	0.571847	2.21148	-0.684499	2.27855	0.305841	1.4929	0.653049	3.22147	0.597932	0.342336	1.29858	3.66214	0.639121	0.565953	0.113417	1.32546	0.029774	0.826684	-0.401229	0.849698	0.762578	-0.492047	-0.41418	0.476346	
3.96423	5	0	0.0216763	0.0646103	0.488063	0.970232	-0.625399	0.661468	-0.148314	0.229009	0.559077	2.20764	-0.682771	2.27367	0.301444	1.49025	0.648827	3.22166	0.592471	0.343248	1.29394	3.65733	0.632697	0.56726	0.112344	1.31545	0.0250395	0.815312	-0.399745	0.836233	0.749243	-0.483333	-0.416148	0.464016	
3.96576	5	0	0.0171885	0.0654105	0.482256	0.968795	-0.634198	0.660267	-0.152436	0.231703	0.546307	2.20381	-0.681042	2.26879	0.297046	1.4876	0.644605	3.22184	0.587009	0.34416	1.28929	3.65251	0.626273	0.568568	0.11127	1.30544	0.020305	0.803941	-0.39826	0.822769	0.735907	-0.474619	-0.418117	0.451686	
3.96271	5	0	0.0127007	0.0662107	0.476448	0.967359	-0.642997	0.659066	-0.156558	0.234397	0.533536	2.19997	-0.679314	2.2639	0.292649	1.48495	0.640384	3.22203	0.581547	0.345072	1.28465	3.6477	0.619848	0.569875	0.110197	1.29544	0.0155705	0.792569	-0.396776	0.809304	0.722571	-0.465906	-0.420085	0.439357	
3.95965	5	0	0.008213	0.067011	0.470641	0.965923	-0.651796	0.657865	-0.160681	0.23709	0.520766	2.19614	-0.677586	2.25902	0.288252	1.48231	0.636162	3.22221	0.576086	0.345984	1.28001	3.64289	0.613424	0.571182	0.109124	1.28543	0.010836	0.781198	-0.395291	0.795839	0.709236	-0.457192	-0.422053	0.427027	
3.95508	5	0	0.00470925	0.0650388	0.459135	0.971698	-0.653529	0.649741	-0.163278	0.235478	0.515769	2.19697	-0.689306	2.27419	0.282589	1.48325	0.625359	3.22927	0.562733	0.354709	1.2782	3.64799	0.607006	0.572487	0.104358	1.28587	0.00894375	0.774182	-0.397093	0.791669	0.713679	-0.460095	-0.42382	0.423083	
3.9505	5	0	0.0012055	0.0630665	0.44763	0.977473	-0.655261	0.641617	-0.165875	0.233865	0.510772	2.1978	-0.701026	2.28936	0.276926	1.48419	0.614556	3.23633	0.549381	0.363434	1.2764	3.65309	0.600588	0.573791	0.099592	1.28631	0.0070515	0.767166	-0.398896	0.787498	0.718122	-0.462998	-0.425588	0.419139	
3.94287	5	0	-0.00229825	0.0610943	0.436124	0.983249	-0.656994	0.633493	-0.168472	0.232253	0.505776	2.19863	-0.712746	2.30453	0.271263	1.48513	0.603752	3.24339	0.536028	0.372159	1.27459	3.65819	0.594171	0.575095	0.094826	1.28675	0.00515925	0.760151	-0.400698	0.783328	0.722565	-0.465901	-0.427355	0.415195	
3.93371	5	0	-0.005802	0.059122	0.424618	0.989024	-0.658726	0.625369	-0.171069	0.23064	0.500779	2.19946	-0.724466	2.3197	0.2656	1.48607	0.592949	3.25045	0.522675	0.380884	1.27279	3.6633	0.587753	0.5764	0.09006	1.28719	0.003267	0.753135	-0.4025	0.779158	0.727008	-0.468804	-0.429123	0.411251	
3.92761	5	0	-0.0108453	0.0496478	0.417749	0.963952	-0.670299	0.61907	-0.178542	0.233869	0.483067	2.19645	-0.728883	2.29633	0.257403	1.49419	0.580847	3.23779	0.535926	0.401504	1.23784	3.65482	0.591267	0.600149	0.0817683	1.2846	0.00421575	0.750453	-0.396432	0.780541	0.727008	-0.468804	-0.42011	0.403663	
3.91846	5	0	-0.0158885	0.0401735	0.41088	0.93888	-0.681872	0.612772	-0.186016	0.237098	0.465356	2.19345	-0.733301	2.27296	0.249205	1.5023	0.568746	3.22513	0.549176	0.422124	1.20289	3.64634	0.594782	0.623897	0.0734765	1.282	0.0051645	0.747772	-0.390363	0.781923	0.727008	-0.468804	-0.411098	0.396075	
3.9154	5	0	-0.0209318	0.0306993	0.404011	0.913808	-0.693446	0.606473	-0.19349	0.240327	0.447645	2.19044	-0.737718	2.24959	0.241008	1.51042	0.556644	3.21248	0.562427	0.442744	1.16794	3.63786	0.598297	0.647646	0.0651847	1.2794	0.00611325	0.74509	-0.384295	0.783306	0.727008	-0.468804	-0.402085	0.388487	
3.91388	5	0	-0.025975	0.021225	0.397142	0.888736	-0.705019	0.600174	-0.200963	0.243556	0.429933	2.18743	-0.742135	2.22622	0.232811	1.51853	0.544543	3.19982	0.575678	0.463364	1.13299	3.62938	0.601811	0.671395	0.056893	1.2768	0.007062	0.742409	-0.378227	0.784689	0.727008	-0.468804	-0.393072	0.380899	
3.91083	5	0	-0.031992	0.0145335	0.393549	0.863378	-0.704628	0.586086	-0.19837	0.24517	0.424445	2.17646	-0.753073	2.20348	0.231541	1.52212	0.524087	3.18757	0.593204	0.486676	1.08633	3.60154	0.610661	0.680124	0.038056	1.26512	0.0023265	0.73109	-0.370509	0.78143	0.713686	-0.460099	-0.381493	0.375032	
3.91388	5	0	-0.038009	0.007842	0.389957	0.83802	-0.704237	0.571997	-0.195776	0.246784	0.418957	2.1655	-0.764012	2.18075	0.23027	1.52571	0.50363	3.17532	0.61073	0.509988	1.03966	3.5737	0.619512	0.688854	0.019219	1.25343	-0.002409	0.719772	-0.362792	0.77817	0.700365	-0.451395	-0.369914	0.369165	
3.92761	5	0	-0.044026	0.0011505	0.386364	0.812662	-0.703847	0.557908	-0.193183	0.248399	0.413469	2.15453	-0.77495	2.15801	0.229	1.5293	0.483173	3.16306	0.628255	0.5333	0.992994	3.54586	0.628363	0.697583	0.000382	1.24175	-0.0071445	0.708453	-0.355075	0.774911	0.687043	-0.44269	-0.358334	0.363297	
3.93829	5	0	-0.050043	-0.005541	0.382772	0.787304	-0.703456	0.54382	-0.190589	0.250013	0.407981	2.14357	-0.785889	2.13528	0.22773	1.53289	0.462717	3.15081	0.645781	0.556612	0.946328	3.51802	0.637213	0.706312	-0.018455	1.23007	-0.01188	0.697134	-0.347357	0.771652	0.673721	-0.433986	-0.346755	0.35743	
3.95813	5	0	-0.055491	-0.00198125	0.374612	0.792636	-0.708368	0.544727	-0.177914	0.25001	0.406866	2.14672	-0.790675	2.13095	0.223916	1.54367	0.454348	3.15117	0.657855	0.580969	0.907356	3.50487	0.644737	0.718851	-0.0314378	1.22791	-0.00715025	0.683767	-0.337819	0.772559	0.66042	-0.425295	-0.330246	0.346643	
3.97339	5	0	-0.060939	0.0015785	0.366452	0.797968	-0.71328	0.545633	-0.165239	0.250007	0.405751	2.14987	-0.795461	2.12663	0.220102	1.55445	0.445978	3.15153	0.669928	0.605326	0.868384	3.49172	0.652262	0.73139	-0.0444205	1.22576	-0.0024205	0.6704	-0.328282	0.773466	0.647119	-0.416604	-0.313736	0.335855	
3.99017	5	0	-0.066387	0.00513825	0.358291	0.8033	-0.718192	0.54654	-0.152564	0.250003	0.404635	2.15302	-0.800247	2.12231	0.216288	1.56523	0.437609	3.15188	0.682002	0.629684	0.829413	3.47857	0.659786	0.743929	-0.0574033	1.22361	0.00230925	0.657033	-0.318744	0.774372	0.633818	-0.407912	-0.297227	0.325068	
4.01764	5	0	-0.071835	0.008698	0.350131	0.808632	-0.723104	0.547447	-0.139889	0.25	0.40352	2.15617	-0.805033	2.11798	0.212474	1.57601	0.42924	3.15224	0.694075	0.654041	0.790441	3.46542	0.66731	0.756468	-0.070386	1.22145	0.007039	0.643666	-0.309206	0.775279	0.620517	-0.399221	-0.280718	0.31428	
4.04968	5	0	-0.083698	0.0185727	0.341278	0.824793	-0.726953	0.545359	-0.139578	0.258086	0.397938	2.17195	-0.814955	2.12819	0.215583	1.58228	0.415001	3.16921	0.706163	0.678541	0.765265	3.46648	0.673497	0.772846	-0.087004	1.22966	0.00136	0.647377	-0.300475	0.778508	0.620517	-0.399221	-0.268872	0.316742	
4.08478	5	0	-0.095561	0.0284475	0.332425	0.840955	-0.730801	0.54327	-0.139266	0.266172	0.392356	2.18772	-0.824876	2.1384	0.218691	1.58854	0.400762	3.18619	0.718252	0.70304	0.740088	3.46755	0.679685	0.789224	-0.103622	1.23786	-0.004319	0.651088	-0.291744	0.781737	0.620517	-0.399221	-0.257026	0.319203	
4.12445	5	0	-0.107424	0.0383222	0.323571	0.857116	-0.73465	0.541182	-0.138954	0.274257	0.386774	2.2035	-0.834797	2.1486	0.221799	1.59481	0.386523	3.20316	0.730341	0.72754	0.714911	3.46861	0.685872	0.805601	-0.12024	1.24606	-0.009998	0.654798	-0.283014	0.784966	0.620517	-0.399221	-0.245181	0.321665	
4.16412	5	0	-0.119287	0.048197	0.314718	0.873277	-0.738499	0.539094	-0.138643	0.282343	0.381192	2.21928	-0.844719	2.15881	0.224908	1.60107	0.372284	3.22013	0.742429	0.75204	0.689735	3.46968	0.69206	0.821979	-0.136858	1.25426	-0.015677	0.658509	-0.274283	0.788195	0.620517	-0.399221	-0.233335	0.324126	
4.2038	5	0	-0.123748	0.0489882	0.30559	0.863683	-0.746189	0.534921	-0.135278	0.281803	0.383426	2.21296	-0.847779	2.14964	0.227454	1.59388	0.379991	3.20998	0.731409	0.753831	0.692478	3.47942	0.684263	0.827074	-0.140527	1.26463	-0.018514	0.666527	-0.271476	0.798888	0.620517	-0.399221	-0.230539	0.33422	
4.24652	5	0	-0.128208	0.0497795	0.296461	0.854089	-0.753879	0.530748	-0.131913	0.281263	0.38566	2.20665	-0.850839	2.14047	0.23	1.58668	0.387697	3.19983	0.720388	0.755621	0.695222	3.48916	0.676467	0.832168	-0.144197	1.275	-0.021351	0.674545	-0.26867	0.809581	0.620517	-0.399221	-0.227743	0.344315	
4.28161	5	0	-0.132668	0.0505707	0.287332	0.844495	-0.761568	0.526576	-0.128549	0.280724	0.387894	2.20034	-0.853898	2.13131	0.232547	1.57948	0.395404	3.18968	0.709368	0.757412	0.697966	3.49891	0.66867	0.837263	-0.147866	1.28537	-0.024188	0.682563	-0.265863	0.820275	0.620517	-0.399221	-0.224947	0.354409	
4.31213	5	0	-0.137129	0.051362	0.278204	0.834901	-0.769258	0.522403	-0.125184	0.280184	0.390128	2.19402	-0.856958	2.12214	0.235093	1.57229	0.40311	3.17953	0.698347	0.759202	0.700709	3.50865	0.660873	0.842357	-0.151535	1.29574	-0.027025	0.690581	-0.263056	0.830968	0.620517	-0.399221	-0.222151	0.364503	
4.33807	5	0	-0.142563	0.0549127	0.269978	0.831647	-0.773099	0.520319	-0.119977	0.283422	0.391749	2.20267	-0.863438	2.12266	0.23382	1.57588	0.406112	3.18269	0.691075	0.750447	0.716045	3.5179	0.654428	0.843647	-0.144544	1.30182	-0.0251335	0.685235	-0.258767	0.828165	0.616088	-0.396327	-0.220582	0.36007	
4.35181	5	0	-0.147997	0.0584635	0.261752	0.828394	-0.77694	0.518234	-0.114771	0.28666	0.393369	2.21133	-0.869919	2.12317	0.232547	1.57948	0.409115	3.18584	0.683802	0.741691	0.73138	3.52715	0.647983	0.844938	-0.137554	1.3079	-0.023242	0.679889	-0.254477	0.825362	0.611659	-0.393433	-0.219014	0.355637	
4.37469	5	0	-0.153431	0.0620142	0.253527	0.82514	-0.78078	0.51615	-0.109565	0.289898	0.39499	2.21998	-0.876399	2.12369	0.231274	1.58308	0.412118	3.18899	0.67653	0.732936	0.746716	3.5364	0.641537	0.846229	-0.130563	1.31397	-0.0213505	0.674542	-0.250188	0.82256	0.60723	-0.390539	-0.217446	0.351204	
4.38385	5	0	-0.158865	0.065565	0.245301	0.821886	-0.784621	0.514066	-0.104358	0.293136	0.396611	2.22863	-0.882879	2.1242	0.230001	1.58668	0.41512	3.19214	0.669257	0.724181	0.762052	3.54565	0.635092	0.847519	-0.123573	1.32005	-0.019459	0.669196	-0.245898	0.819757	0.602801	-0.387645	-0.215877	0.346771	
4.3808	5	0	-0.165273	0.0718755	0.238857	0.831272	-0.790572	0.517954	-0.108182	0.303944	0.407072	2.23882	-0.878111	2.12853	0.23566	1.58575	0.41995	3.20179	0.660753	0.71895	0.775649	3.55996	0.635092	0.847519	-0.116574	1.32614	-0.0166235	0.661183	-0.241607	0.816953	0.602801	-0.387645	-0.216661	0.348987	
4.38385	5	0	-0.171681	0.078186	0.232413	0.840659	-0.796523	0.521843	-0.112007	0.314752	0.417532	2.24901	-0.873343	2.13285	0.24132	1.58481	0.42478	3.21144	0.65225	0.71372	0.789247	3.57427	0.635092	0.847519	-0.109574	1.33223	-0.013788	0.65317	-0.237315	0.814148	0.602801	-0.387645	-0.217446	0.351204	
4.3808	5	0	-0.178089	0.0844965	0.225969	0.850046	-0.802474	0.525732	-0.115831	0.32556	0.427993	2.25921	-0.868575	2.13717	0.24698	1.58388	0.42961	3.22108	0.643746	0.708489	0.802844	3.58858	0.635092	0.847519	-0.102575	1.33831	-0.0109525	0.645157	-0.233023	0.811344	0.602801	-0.387645	-0.21823	0.35342	
4.37622	5	0	-0.184497	0.090807	0.219525	0.859432	-0.808425	0.52962	-0.119655	0.336368	0.438454	2.2694	-0.863807	2.1415	0.252639	1.58295	0.43444	3.23073	0.635243	0.703259	0.816442	3.60289	0.635092	0.847519	-0.095576	1.3444	-0.008117	0.637144	-0.228732	0.80854	0.602801	-0.387645	-0.219014	0.355636	
4.37775	5	0	-0.18797	0.0888305	0.19845	0.874929	-0.817146	0.528433	-0.125318	0.343395	0.438952	2.28126	-0.875426	2.15653	0.251365	1.58655	0.435084	3.24057	0.635768	0.716402	0.822766	3.60263	0.636154	0.861442	-0.0933017	1.35092	-0.006219	0.644119	-0.228563	0.817392	0.60723	-0.390539	-0.221368	0.362288	
4.35943	5	0	-0.191443	0.086854	0.177376	0.890425	-0.825866	0.527246	-0.130982	0.350422	0.43945	2.29312	-0.887045	2.17157	0.250091	1.59015	0.435729	3.2504	0.636292	0.729546	0.829089	3.60237	0.637216	0.875366	-0.0910275	1.35744	-0.004321	0.651094	-0.228394	0.826243	0.611659	-0.393433	-0.223721	0.368941	
4.35028	5	0	-0.194917	0.0848775	0.156301	0.905922	-0.834587	0.526059	-0.136646	0.357449	0.439949	2.30499	-0.898663	2.18661	0.248817	1.59375	0.436374	3.26024	0.636817	0.74269	0.835413	3.60211	0.638278	0.88929	-0.0887533	1.36396	-0.002423	0.658069	-0.228225	0.835094	0.616088	-0.396327	-0.226075	0.375593	
4.32892	5	0	-0.19839	0.082901	0.135226	0.921419	-0.843308	0.524872	-0.142309	0.364476	0.440447	2.31685	-0.910282	2.20165	0.247543	1.59735	0.437018	3.27008	0.637341	0.755833	0.841736	3.60185	0.63934	0.903213	-0.086479	1.37048	-0.000525	0.665044	-0.228056	0.843946	0.620517	-0.399221	-0.228429	0.382245	
4.31518	5	0	-0.205329	0.0789513	0.129431	0.911408	-0.845026	0.516825	-0.143075	0.36664	0.443188	2.32238	-0.913326	2.19247	0.246269	1.60096	0.426831	3.26391	0.653116	0.769867	0.818261	3.59785	0.641744	0.913358	-0.0924382	1.37438	-0.001471	0.667717	-0.228882	0.846279	0.611661	-0.393435	-0.234142	0.389389	
4.2923	5	0	-0.212269	0.0750015	0.123636	0.901398	-0.846745	0.508778	-0.14384	0.368804	0.44593	2.32792	-0.91637	2.1833	0.244995	1.60456	0.416643	3.25775	0.668891	0.783902	0.794785	3.59384	0.644149	0.923504	-0.0983975	1.37827	-0.002417	0.670391	-0.229707	0.848612	0.602805	-0.387648	-0.239854	0.396533	
4.27704	5	0	-0.219209	0.0710517	0.117841	0.891387	-0.848463	0.500731	-0.144606	0.370968	0.448672	2.33345	-0.919415	2.17412	0.24372	1.60816	0.406456	3.25159	0.684667	0.797936	0.771309	3.58984	0.646553	0.933649	-0.104357	1.38217	-0.003363	0.673064	-0.230533	0.850946	0.59395	-0.381861	-0.245566	0.403678	
4.26025	5	0	-0.226148	0.067102	0.112046	0.881377	-0.850181	0.492684	-0.145372	0.373132	0.451413	2.33898	-0.922459	2.16494	0.242446	1.61176	0.396268	3.24542	0.700442	0.81197	0.747834	3.58583	0.648957	0.943794	-0.110316	1.38606	-0.004309	0.675737	-0.231358	0.853279	0.585094	-0.376075	-0.251279	0.410822	
4.24347	5	0	-0.225172	0.0643452	0.102296	0.882581	-0.858884	0.491502	-0.148736	0.373667	0.450916	2.3271	-0.920748	2.1601	0.24188	1.5983	0.399803	3.23543	0.688917	0.80056	0.746055	3.59086	0.638763	0.938739	-0.112586	1.37954	-0.005261	0.666089	-0.235818	0.847229	0.585094	-0.376075	-0.260554	0.410061	
4.22821	5	0	-0.224197	0.0615885	0.092546	0.883786	-0.867588	0.49032	-0.152101	0.374202	0.45042	2.31523	-0.919037	2.15527	0.241314	1.58483	0.403339	3.22544	0.677393	0.78915	0.744277	3.59588	0.62857	0.933683	-0.114857	1.37301	-0.006213	0.65644	-0.240277	0.841179	0.585094	-0.376075	-0.269829	0.409301	
4.21142	5	0	-0.223221	0.0588318	0.082796	0.88499	-0.876292	0.489137	-0.155466	0.374736	0.449924	2.30335	-0.917325	2.15043	0.240749	1.57137	0.406874	3.21545	0.665868	0.777741	0.742498	3.60091	0.618376	0.928627	-0.117127	1.36649	-0.007165	0.646792	-0.244736	0.835128	0.585094	-0.376075	-0.279105	0.40854	
4.19617	5	0	-0.222246	0.056075	0.073046	0.886194	-0.884995	0.487955	-0.15883	0.375271	0.449427	2.29147	-0.915614	2.14559	0.240183	1.5579	0.410409	3.20546	0.654343	0.766331	0.740719	3.60594	0.608182	0.923572	-0.119397	1.35997	-0.008117	0.637144	-0.249196	0.829078	0.585094	-0.376075	-0.28838	0.407779	
4.17938	5	0	-0.227663	0.0596145	0.0747088	0.890274	-0.887763	0.482902	-0.163724	0.380133	0.446684	2.28595	-0.915614	2.14559	0.23707	1.55165	0.406231	3.20563	0.642842	0.754958	0.745242	3.61072	0.598007	0.918524	-0.11817	1.3565	-0.00907225	0.627513	-0.250189	0.822564	0.580669	-0.373184	-0.288594	0.399402	
4.1687	5	0	-0.23308	0.063154	0.0763715	0.894354	-0.890531	0.477848	-0.168618	0.384995	0.443941	2.28043	-0.915614	2.14559	0.233957	1.5454	0.402052	3.2058	0.631341	0.743585	0.749764	3.6155	0.587832	0.913476	-0.116942	1.35303	-0.0100275	0.617883	-0.251182	0.816049	0.576245	-0.370293	-0.288809	0.391024	
4.15497	5	0	-0.238497	0.0666935	0.0780342	0.898435	-0.893299	0.472795	-0.173512	0.389856	0.441197	2.27492	-0.915614	2.14559	0.230843	1.53914	0.397873	3.20597	0.619839	0.732212	0.754287	3.62028	0.577658	0.908428	-0.115714	1.34956	-0.0109827	0.608252	-0.252174	0.809534	0.571821	-0.367402	-0.289023	0.382647	
4.14123	5	0	-0.243914	0.070233	0.079697	0.902515	-0.896067	0.467741	-0.178406	0.394718	0.438454	2.2694	-0.915614	2.14559	0.22773	1.53289	0.393695	3.20614	0.608338	0.720839	0.75881	3.62506	0.567483	0.90338	-0.114487	1.34609	-0.011938	0.598621	-0.253167	0.80302	0.567396	-0.364511	-0.289237	0.374269	
4.12445	5	0	-0.245429	0.0627517	0.068223	0.891087	-0.9016	0.457652	-0.187717	0.394149	0.426875	2.26237	-0.92037	2.14127	0.225887	1.52306	0.387699	3.19984	0.596861	0.709503	0.757028	3.6301	0.558669	0.894546	-0.11326	1.34262	-0.0138388	0.59167	-0.250696	0.796038	0.567396	-0.364511	-0.294937	0.381399	
4.11682	5	0	-0.246943	0.0552705	0.056749	0.879658	-0.907133	0.447564	-0.197028	0.39358	0.415296	2.25534	-0.925126	2.13695	0.224044	1.51323	0.381703	3.19353	0.585384	0.698166	0.755246	3.63513	0.549856	0.885713	-0.112033	1.33916	-0.0157395	0.584718	-0.248226	0.789057	0.567396	-0.364511	-0.300636	0.388529	
4.10309	5	0	-0.248458	0.0477892	0.045275	0.868229	-0.912666	0.437475	-0.206339	0.393011	0.403717	2.2483	-0.929882	2.13263	0.2222	1.5034	0.375706	3.18722	0.573906	0.686829	0.753465	3.64017	0.541042	0.87688	-0.110806	1.33569	-0.0176402	0.577767	-0.245755	0.782075	0.567396	-0.364511	-0.306336	0.395659	
4.09088	5	0	-0.249973	0.040308	0.033801	0.856801	-0.918199	0.427386	-0.21565	0.392442	0.392138	2.24127	-0.934638	2.1283	0.220357	1.49358	0.36971	3.18092	0.562429	0.675493	0.751683	3.6452	0.532228	0.868046	-0.109579	1.33222	-0.019541	0.570816	-0.243285	0.775094	0.567396	-0.364511	-0.312036	0.402789	
4.08172	5	0	-0.248026	0.0348037	0.0336382	0.839747	-0.912953	0.412558	-0.21412	0.388119	0.392752	2.2263	-0.937683	2.11916	0.217244	1.48735	0.370236	3.16781	0.562429	0.675493	0.742645	3.63564	0.536251	0.856677	-0.109402	1.31879	-0.0214422	0.563875	-0.245104	0.770919	0.558554	-0.358733	-0.316166	0.405488	
4.07104	5	0	-0.246078	0.0292995	0.0334755	0.822693	-0.907706	0.397731	-0.212591	0.383795	0.393366	2.21134	-0.940728	2.11002	0.214132	1.48112	0.370763	3.15471	0.562429	0.675493	0.733607	3.62607	0.540274	0.845307	-0.109226	1.30536	-0.0233435	0.556934	-0.246923	0.766744	0.549712	-0.352955	-0.320296	0.408187	
4.06647	5	0	-0.244131	0.0237953	0.0333128	0.805639	-0.902459	0.382904	-0.211061	0.379471	0.393979	2.19637	-0.943773	2.10088	0.211019	1.47489	0.371289	3.14161	0.562429	0.675493	0.724569	3.6165	0.544297	0.833938	-0.109049	1.29193	-0.0252447	0.549993	-0.248742	0.76257	0.54087	-0.347178	-0.324427	0.410886	
4.05578	5	0	-0.242183	0.018291	0.03315	0.788585	-0.897213	0.368076	-0.209531	0.375148	0.394593	2.1814	-0.946818	2.09174	0.207906	1.46866	0.371816	3.1285	0.562429	0.675493	0.715531	3.60694	0.54832	0.822569	-0.108873	1.27851	-0.027146	0.543052	-0.250561	0.758395	0.532028	-0.3414	-0.328557	0.413585	
4.05273	5	0	-0.234823	0.009253	0.0306997	0.786759	-0.895117	0.362152	-0.205408	0.372454	0.396825	2.17509	-0.941704	2.07728	0.202262	1.46959	0.368819	3.12536	0.559954	0.682486	0.708281	3.59238	0.541906	0.823849	-0.119364	1.26942	-0.0337688	0.537164	-0.251558	0.751902	0.523195	-0.335628	-0.326206	0.406941	
4.05121	5	0	-0.227463	0.000215	0.0282495	0.784933	-0.89302	0.356228	-0.201286	0.36976	0.399057	2.16879	-0.936589	2.06283	0.196619	1.47053	0.365822	3.12223	0.55748	0.68948	0.701031	3.57783	0.535491	0.82513	-0.129855	1.26033	-0.0403915	0.531276	-0.252555	0.745409	0.514361	-0.329856	-0.323855	0.400297	
4.04663	5	0	-0.220103	-0.008823	0.0257993	0.783108	-0.890924	0.350303	-0.197163	0.367067	0.401288	2.16248	-0.931474	2.04837	0.190975	1.47146	0.362825	3.11909	0.555006	0.696473	0.693781	3.56327	0.529076	0.82641	-0.140346	1.25124	-0.0470142	0.525388	-0.253552	0.738916	0.505528	-0.324085	-0.321504	0.393653	
4.04968	5	0	-0.212743	-0.017861	0.023349	0.781282	-0.888828	0.344379	-0.193041	0.364373	0.40352	2.15617	-0.92636	2.03392	0.185331	1.4724	0.359828	3.11595	0.552531	0.703467	0.686531	3.54872	0.522662	0.82769	-0.150837	1.24216	-0.053637	0.5195	-0.254549	0.732423	0.496695	-0.318313	-0.319153	0.387009	
4.05578	5	0	-0.217184	-0.0170727	0.018615	0.794661	-0.891601	0.339365	-0.197163	0.367067	0.399664	2.15385	-0.928064	2.03874	0.186597	1.46882	0.354489	3.11944	0.550773	0.693867	0.682983	3.55875	0.518931	0.821402	-0.147342	1.24518	-0.045159	0.507838	-0.249442	0.727301	0.496695	-0.318313	-0.31837	0.384795	
4.05884	5	0	-0.221625	-0.0162845	0.013881	0.80804	-0.894373	0.33435	-0.201286	0.36976	0.395807	2.15152	-0.929768	2.04355	0.187864	1.46524	0.34915	3.12293	0.549015	0.684266	0.679434	3.56878	0.5152	0.815114	-0.143848	1.24821	-0.036681	0.496177	-0.244336	0.722179	0.496695	-0.318313	-0.317587	0.382582	
4.06647	5	0	-0.226065	-0.0154962	0.009147	0.82142	-0.897145	0.329336	-0.205408	0.372454	0.391951	2.1492	-0.931472	2.04837	0.18913	1.46166	0.34381	3.12641	0.547257	0.674666	0.675885	3.57881	0.511468	0.808827	-0.140353	1.25124	-0.028203	0.484515	-0.239229	0.717058	0.496695	-0.318313	-0.316804	0.380368	
4.07257	5	0	-0.230506	-0.014708	0.004413	0.834799	-0.899918	0.324322	-0.209531	0.375148	0.388095	2.14687	-0.933176	2.05318	0.190396	1.45808	0.338471	3.1299	0.545499	0.665066	0.672337	3.58883	0.507737	0.802539	-0.136858	1.25426	-0.019725	0.472854	-0.234122	0.711936	0.496695	-0.318313	-0.316021	0.378154	
4.07867	5	0	-0.226618	-0.0256963	0.00101575	0.818173	-0.901644	0.316359	-0.212122	0.373519	0.387581	2.13511	-0.934526	2.03927	0.191662	1.4545	0.332489	3.12363	0.538277	0.656372	0.675067	3.59863	0.504007	0.796261	-0.128638	1.25686	-0.020664	0.475507	-0.233122	0.718425	0.496695	-0.318313	-0.319155	0.387012	
4.08172	5	0	-0.22273	-0.0366845	-0.0023815	0.801547	-0.90337	0.308396	-0.214714	0.371889	0.387068	2.12335	-0.935876	2.02535	0.192928	1.45093	0.326507	3.11736	0.531056	0.647679	0.677798	3.60843	0.500278	0.789983	-0.120418	1.25946	-0.021603	0.478161	-0.232122	0.724914	0.496695	-0.318313	-0.322289	0.395869	
4.08478	5	0	-0.218842	-0.0476727	-0.00577875	0.784922	-0.905096	0.300433	-0.217305	0.37026	0.386554	2.11158	-0.937226	2.01144	0.194193	1.44735	0.320524	3.11108	0.523834	0.638985	0.680528	3.61823	0.496549	0.783706	-0.112197	1.26207	-0.022542	0.480815	-0.231122	0.731403	0.496695	-0.318313	-0.325423	0.404727	
4.08783	5	0	-0.214954	-0.058661	-0.009176	0.768296	-0.906822	0.29247	-0.219896	0.368631	0.38604	2.09982	-0.938576	1.99752	0.195459	1.44377	0.314542	3.10481	0.516613	0.630291	0.683258	3.62802	0.492819	0.777428	-0.103977	1.26467	-0.023481	0.483468	-0.230122	0.737892	0.496695	-0.318313	-0.328557	0.413585	
4.09088	5	0	-0.213983	-0.0614057	-0.0141513	0.756166	-0.897778	0.27975	-0.215011	0.363779	0.387153	2.09668	-0.941631	1.98844	0.188554	1.44829	0.312723	3.09837	0.513622	0.624211	0.685036	3.623	0.487757	0.774932	-0.098026	1.26078	-0.019727	0.472859	-0.228478	0.733245	0.496695	-0.318313	-0.326989	0.409155	
4.08935	5	0	-0.213012	-0.0641505	-0.0191265	0.744036	-0.888733	0.26703	-0.210126	0.358926	0.388265	2.09353	-0.944685	1.97936	0.181649	1.4528	0.310903	3.09193	0.51063	0.618131	0.686813	3.61798	0.482695	0.772436	-0.092075	1.25689	-0.015973	0.462249	-0.226834	0.728599	0.496695	-0.318313	-0.325422	0.404725	
4.08935	5	0	-0.21204	-0.0668952	-0.0241017	0.731906	-0.879688	0.25431	-0.205242	0.354073	0.389377	2.09039	-0.947739	1.97028	0.174745	1.45731	0.309084	3.08549	0.507639	0.61205	0.688591	3.61295	0.477632	0.76994	-0.086124	1.253	-0.012219	0.451639	-0.22519	0.723952	0.496695	-0.318313	-0.323854	0.400295	
4.0863	5	0	-0.211069	-0.06964	-0.029077	0.719776	-0.870644	0.24159	-0.200357	0.349221	0.39049	2.08724	-0.950794	1.9612	0.16784	1.46182	0.307265	3.07905	0.504648	0.60597	0.690369	3.60793	0.47257	0.767444	-0.080173	1.24911	-0.008465	0.44103	-0.223546	0.719306	0.496695	-0.318313	-0.322287	0.395865	
4.08325	5	0	-0.211069	-0.06964	-0.0274187	0.723815	-0.870644	0.24159	-0.201121	0.351381	0.389377	2.09039	-0.950794	1.9612	0.172213	1.46447	0.306096	3.08236	0.503416	0.609452	0.698437	3.60266	0.473905	0.763672	-0.0742177	1.24522	-0.0122498	0.439428	-0.218435	0.714181	0.496695	-0.318313	-0.31659	0.388738	
4.07867	5	0	-0.211069	-0.06964	-0.0257605	0.727855	-0.870644	0.24159	-0.201885	0.353541	0.388265	2.09353	-0.950794	1.9612	0.176586	1.46711	0.304926	3.08567	0.502184	0.612935	0.706506	3.59738	0.475239	0.759899	-0.0682625	1.24133	-0.0160345	0.437827	-0.213323	0.709056	0.496695	-0.318313	-0.310893	0.381612	
4.07104	5	0	-0.211069	-0.06964	-0.0241022	0.731895	-0.870644	0.24159	-0.20265	0.355701	0.387153	2.09668	-0.950794	1.9612	0.180958	1.46975	0.303756	3.08897	0.500951	0.616418	0.714574	3.59211	0.476574	0.756127	-0.0623072	1.23744	-0.0198193	0.436225	-0.208212	0.703931	0.496695	-0.318313	-0.305196	0.374486	
4.07104	5	0	-0.211069	-0.06964	-0.022444	0.735934	-0.870644	0.24159	-0.203414	0.357861	0.38604	2.09982	-0.950794	1.9612	0.185331	1.4724	0.302587	3.09228	0.499719	0.6199	0.722642	3.58684	0.477909	0.752355	-0.056352	1.23355	-0.023604	0.434624	-0.203101	0.698806	0.496695	-0.318313	-0.299499	0.367359	
4.06494	5	0	-0.211069	-0.06964	-0.0288197	0.745227	-0.87551	0.242501	-0.20677	0.358393	0.377736	2.11008	-0.947739	1.97028	0.182797	1.47956	0.304405	3.09872	0.500951	0.616418	0.717306	3.60192	0.468848	0.761176	-0.0600258	1.24393	-0.0141552	0.432524	-0.204745	0.703451	0.505528	-0.324085	-0.293583	0.3686	
4.06189	5	0	-0.211069	-0.06964	-0.0351955	0.75452	-0.880376	0.243412	-0.210126	0.358926	0.369432	2.12035	-0.944685	1.97936	0.180263	1.48672	0.306223	3.10516	0.502184	0.612935	0.711969	3.617	0.459787	0.769996	-0.0636995	1.25431	-0.0047065	0.430425	-0.206389	0.708097	0.514361	-0.329856	-0.287667	0.369841	
4.05426	5	0	-0.211069	-0.06964	-0.0415712	0.763813	-0.885242	0.244323	-0.213482	0.359459	0.361129	2.13061	-0.941631	1.98844	0.177729	1.49388	0.30804	3.1116	0.503416	0.609452	0.706633	3.63208	0.450726	0.778817	-0.0673732	1.2647	0.00474225	0.428326	-0.208032	0.712742	0.523195	-0.335628	-0.28175	0.371081	
4.04968	5	0	-0.211069	-0.06964	-0.047947	0.773106	-0.890108	0.245234	-0.216838	0.359991	0.352825	2.14087	-0.938576	1.99752	0.175195	1.50104	0.309858	3.11805	0.504648	0.60597	0.701297	3.64717	0.441665	0.787638	-0.071047	1.27508	0.014191	0.426226	-0.209676	0.717387	0.532028	-0.3414	-0.275834	0.372322	
4.04205	5	0	-0.215508	-0.068849	-0.051256	0.765018	-0.893927	0.243194	-0.223545	0.361053	0.35009	2.1354	-0.935176	1.98792	0.169557	1.50197	0.30921	3.1083	0.50095	0.616421	0.698565	3.63736	0.438994	0.795187	-0.0782275	1.28243	0.011376	0.434182	-0.21132	0.722035	0.536448	-0.344288	-0.276618	0.374537	
4.03442	5	0	-0.219948	-0.068058	-0.054565	0.75693	-0.897746	0.241154	-0.230252	0.362116	0.347356	2.12994	-0.931777	1.97831	0.163919	1.5029	0.308562	3.09855	0.497252	0.626872	0.695833	3.62755	0.436322	0.802736	-0.085408	1.28979	0.008561	0.442138	-0.212965	0.726683	0.540867	-0.347176	-0.277402	0.376752	
4.02679	5	0	-0.224387	-0.067267	-0.057874	0.748843	-0.901564	0.239115	-0.236959	0.363178	0.344622	2.12447	-0.928377	1.9687	0.158282	1.50383	0.307913	3.0888	0.493554	0.637324	0.693101	3.61774	0.433651	0.810286	-0.0925885	1.29714	0.005746	0.450094	-0.21461	0.73133	0.545287	-0.350064	-0.278185	0.378968	
4.01916	5	0	-0.228826	-0.066476	-0.061183	0.740755	-0.905383	0.237075	-0.243666	0.36424	0.341887	2.119	-0.924977	1.95909	0.152644	1.50476	0.307265	3.07905	0.489856	0.647775	0.690369	3.60793	0.43098	0.817835	-0.099769	1.3045	0.002931	0.45805	-0.216254	0.735978	0.549707	-0.352952	-0.278969	0.381183	
4.01153	5	0	-0.227855	-0.0692192	-0.060483	0.730063	-0.903297	0.23118	-0.235431	0.358859	0.342999	2.11586	-0.928037	1.95003	0.158282	1.50383	0.307781	3.06602	0.485637	0.645174	0.693921	3.59789	0.424596	0.819103	-0.0985435	1.30103	-0.000856	0.456446	-0.213787	0.729007	0.550462	-0.355087	-0.275835	0.372325	
4.00848	5	0	-0.226885	-0.0719625	-0.059783	0.719371	-0.901212	0.225285	-0.227196	0.353479	0.344111	2.11272	-0.931097	1.94096	0.163919	1.5029	0.308297	3.05299	0.481419	0.642572	0.697474	3.58785	0.418213	0.820372	-0.097318	1.29757	-0.004643	0.454843	-0.211321	0.722036	0.551218	-0.357222	-0.272701	0.363468	
3.99628	5	0	-0.225915	-0.0747058	-0.059083	0.708679	-0.899126	0.219391	-0.218961	0.348098	0.345223	2.10957	-0.934157	1.9319	0.169557	1.50197	0.308813	3.03996	0.477201	0.639971	0.701026	3.57781	0.411829	0.82164	-0.0960925	1.29411	-0.00843	0.453239	-0.208854	0.715066	0.551974	-0.359358	-0.269567	0.35461	
3.98865	5	0	-0.224944	-0.077449	-0.058383	0.697987	-0.89704	0.213496	-0.210726	0.342717	0.346335	2.10643	-0.937217	1.92283	0.175195	1.50104	0.309329	3.02693	0.472982	0.63737	0.704579	3.56777	0.405446	0.822909	-0.094867	1.29064	-0.012217	0.451635	-0.206388	0.708095	0.552729	-0.361493	-0.266433	0.345753	
3.98712	5	0	-0.223418	-0.0700063	-0.0558565	0.708278	-0.899126	0.219391	-0.212254	0.347035	0.339154	2.11354	-0.934157	1.9319	0.167022	1.50914	0.308162	3.03023	0.474214	0.633888	0.688465	3.5783	0.406781	0.819135	-0.100818	1.29453	-0.0178773	0.455334	-0.210677	0.710898	0.551974	-0.359358	-0.266433	0.345753	
3.98254	5	0	-0.221892	-0.0625635	-0.05333	0.718569	-0.901212	0.225285	-0.213782	0.351354	0.331973	2.12065	-0.931097	1.94096	0.158849	1.51723	0.306994	3.03353	0.475446	0.630405	0.672352	3.58882	0.408116	0.815362	-0.106769	1.29842	-0.0235375	0.459032	-0.214967	0.713701	0.551218	-0.357222	-0.266433	0.345753	
3.97491	5	0	-0.220367	-0.0551207	-0.0508035	0.72886	-0.903297	0.23118	-0.21531	0.355673	0.324792	2.12776	-0.928037	1.95003	0.150677	1.52533	0.305827	3.03683	0.476679	0.626923	0.656239	3.59935	0.409452	0.811588	-0.11272	1.30231	-0.0291978	0.46273	-0.219256	0.716503	0.550462	-0.355087	-0.266433	0.345753	
3.97491	5	0	-0.218841	-0.047678	-0.048277	0.739151	-0.905383	0.237075	-0.216838	0.359991	0.317611	2.13487	-0.924977	1.95909	0.142504	1.53342	0.304659	3.04013	0.477911	0.623441	0.640125	3.60988	0.410787	0.807814	-0.118671	1.3062	-0.034858	0.466429	-0.223546	0.719306	0.549707	-0.352952	-0.266433	0.345753	
3.96881	5	0	-0.217869	-0.0504237	-0.055514	0.742173	-0.903297	0.23118	-0.219428	0.358364	0.312658	2.13569	-0.928377	1.9687	0.145039	1.52626	0.298168	3.04691	0.46579	0.628685	0.644626	3.61466	0.403075	0.812854	-0.123393	1.30662	-0.036735	0.471734	-0.221723	0.723474	0.549707	-0.352952	-0.265431	0.351908	
3.96728	5	0	-0.216898	-0.0531695	-0.062751	0.745194	-0.901212	0.225285	-0.222019	0.356736	0.307705	2.13651	-0.931777	1.97831	0.147574	1.51909	0.291678	3.05369	0.453669	0.633929	0.649126	3.61944	0.395362	0.817893	-0.128115	1.30704	-0.038612	0.477039	-0.2199	0.727642	0.549707	-0.352952	-0.264428	0.358062	
3.96118	5	0	-0.215926	-0.0559152	-0.069988	0.748216	-0.899126	0.219391	-0.22461	0.355108	0.302753	2.13733	-0.935176	1.98792	0.150109	1.51193	0.285187	3.06047	0.441548	0.639172	0.653626	3.62422	0.38765	0.822933	-0.132837	1.30747	-0.040489	0.482343	-0.218077	0.73181	0.549707	-0.352952	-0.263426	0.364217	
3.95813	5	0	-0.214954	-0.058661	-0.077225	0.751238	-0.89704	0.213496	-0.2272	0.353481	0.2978	2.13815	-0.938576	1.99752	0.152644	1.50476	0.278696	3.06725	0.429427	0.644416	0.658127	3.629	0.379937	0.827972	-0.137559	1.30789	-0.042366	0.487648	-0.216254	0.735978	0.549707	-0.352952	-0.262424	0.370372	
3.95813	5	0	-0.220364	-0.0551258	-0.0829663	0.741346	-0.901899	0.214406	-0.223082	0.35079	0.290128	2.1335	-0.941631	1.98844	0.153911	1.50118	0.278046	3.05753	0.421017	0.639217	0.658127	3.629	0.368535	0.826726	-0.145768	1.30528	-0.0461455	0.486039	-0.218899	0.734133	0.540869	-0.347177	-0.268128	0.377507	
3.95813	5	0	-0.225774	-0.0515905	-0.0887075	0.731455	-0.906759	0.215317	-0.218963	0.348099	0.282456	2.12886	-0.944685	1.97936	0.155178	1.4976	0.277396	3.04781	0.412608	0.634018	0.658127	3.629	0.357133	0.82548	-0.153977	1.30266	-0.049925	0.48443	-0.221544	0.732288	0.532032	-0.341403	-0.273833	0.384641	
3.95813	5	0	-0.231185	-0.0480552	-0.0944487	0.721563	-0.911618	0.216227	-0.214844	0.345408	0.274784	2.12422	-0.947739	1.97028	0.156445	1.49402	0.276745	3.03809	0.404198	0.628819	0.658127	3.629	0.345732	0.824233	-0.162186	1.30005	-0.0537045	0.482822	-0.224188	0.730443	0.523195	-0.335628	-0.279537	0.391776	
3.95813	5	0	-0.236595	-0.04452	-0.10019	0.711671	-0.916478	0.217138	-0.210726	0.342717	0.267112	2.11957	-0.950794	1.9612	0.157712	1.49044	0.276095	3.02836	0.395788	0.62362	0.658127	3.629	0.33433	0.822987	-0.170395	1.29743	-0.057484	0.481213	-0.226833	0.728598	0.514357	-0.329854	-0.285242	0.398911	
3.96423	5	0	-0.233128	-0.0425627	-0.0929625	0.708653	-0.91752	0.220084	-0.214844	0.345408	0.264389	2.11412	-0.952492	1.966	0.15461	1.48422	0.282581	3.02159	0.391588	0.621023	0.666188	3.62373	0.330636	0.816716	-0.172662	1.29094	-0.0593863	0.474307	-0.232119	0.724911	0.509941	-0.326969	-0.288806	0.391023	
3.96271	5	0	-0.229662	-0.0406055	-0.085735	0.705634	-0.918562	0.22303	-0.218963	0.348099	0.261667	2.10866	-0.954191	1.9708	0.151507	1.478	0.289067	3.01482	0.387387	0.618426	0.674248	3.61846	0.326941	0.810445	-0.174928	1.28445	-0.0612885	0.4674	-0.237405	0.721224	0.505526	-0.324083	-0.29237	0.383135	
3.96576	5	0	-0.226195	-0.0386483	-0.0785075	0.702616	-0.919605	0.225976	-0.223082	0.35079	0.258944	2.10321	-0.95589	1.9756	0.148405	1.47177	0.295552	3.00805	0.383187	0.61583	0.682308	3.61319	0.323247	0.804173	-0.177195	1.27797	-0.0631908	0.460494	-0.242691	0.717538	0.501111	-0.321198	-0.295935	0.375247	
3.96423	5	0	-0.222728	-0.036691	-0.07128	0.699597	-0.920647	0.228922	-0.2272	0.353481	0.256221	2.09775	-0.957588	1.9804	0.145303	1.46555	0.302038	3.00128	0.378987	0.613233	0.690369	3.60793	0.319553	0.797902	-0.179462	1.27148	-0.065093	0.453587	-0.247977	0.713851	0.496695	-0.318313	-0.299499	0.367359	
3.96728	5	0	-0.224672	-0.0311953	-0.0703275	0.714329	-0.926545	0.232776	-0.228728	0.357799	0.251282	2.09857	-0.952835	1.98468	0.139674	1.46648	0.300872	3.00457	0.368143	0.614982	0.682308	3.61319	0.319553	0.797902	-0.17824	1.26803	-0.0632193	0.448292	-0.250618	0.712009	0.501111	-0.321198	-0.302846	0.367845	
3.96576	5	0	-0.226617	-0.0256995	-0.069375	0.72906	-0.932443	0.236629	-0.230256	0.362118	0.246344	2.09939	-0.948082	1.98896	0.134045	1.46741	0.299705	3.00787	0.357298	0.616732	0.674248	3.61846	0.319553	0.797902	-0.177019	1.26457	-0.0613455	0.442997	-0.253259	0.710168	0.505526	-0.324083	-0.306194	0.368331	
3.96423	5	0	-0.228562	-0.0202037	-0.0684225	0.743791	-0.93834	0.240483	-0.231784	0.366436	0.241405	2.10021	-0.943329	1.99324	0.128416	1.46834	0.298539	3.01117	0.346453	0.618482	0.666188	3.62373	0.319553	0.797902	-0.175797	1.26112	-0.0594718	0.437701	-0.2559	0.708326	0.509941	-0.326969	-0.309541	0.368816	
3.96271	5	0	-0.230506	-0.014708	-0.06747	0.758523	-0.944238	0.244337	-0.233312	0.370755	0.236467	2.10102	-0.938576	1.99752	0.122787	1.46927	0.297373	3.01446	0.335609	0.620231	0.658127	3.629	0.319553	0.797902	-0.174575	1.25767	-0.057598	0.432406	-0.258541	0.706484	0.514357	-0.329854	-0.312888	0.369302	
3.96271	5	0	-0.229534	-0.0174565	-0.0724293	0.746409	-0.947006	0.239353	-0.2359	0.369126	0.23103	2.09014	-0.951474	1.99857	0.11969	1.46306	0.295551	3.00805	0.332647	0.614169	0.658127	3.629	0.313199	0.799161	-0.180506	1.26154	-0.0585348	0.435053	-0.258541	0.706484	0.514357	-0.329854	-0.312888	0.369302	
3.9566	5	0	-0.228562	-0.020205	-0.0773885	0.734296	-0.949774	0.23437	-0.238489	0.367498	0.225593	2.07925	-0.964371	1.99961	0.116593	1.45684	0.293729	3.00164	0.329685	0.608107	0.658127	3.629	0.306846	0.80042	-0.186436	1.26542	-0.0594715	0.437701	-0.258541	0.706484	0.514357	-0.329854	-0.312888	0.369302	
3.95508	5	0	-0.227589	-0.0229535	-0.0823477	0.722182	-0.952541	0.229386	-0.241078	0.365869	0.220156	2.06836	-0.977269	2.00065	0.113496	1.45063	0.291907	2.99524	0.326723	0.602045	0.658127	3.629	0.300492	0.801678	-0.192366	1.26929	-0.0604082	0.440348	-0.258541	0.706484	0.514357	-0.329854	-0.312888	0.369302	
3.95508	5	0	-0.226617	-0.025702	-0.087307	0.710069	-0.955309	0.224402	-0.243666	0.36424	0.214719	2.05748	-0.990167	2.00169	0.110399	1.44442	0.290085	2.98883	0.323761	0.595983	0.658127	3.629	0.294139	0.802937	-0.198297	1.27317	-0.061345	0.442995	-0.258541	0.706484	0.514357	-0.329854	-0.312888	0.369302	
3.95203	5	0	-0.225645	-0.0284492	-0.0930477	0.700201	-0.954267	0.221459	-0.24778	0.366928	0.212002	2.05205	-0.986771	1.99209	0.114186	1.43371	0.293578	2.97895	0.317124	0.60032	0.653626	3.62422	0.294139	0.802937	-0.200561	1.26669	-0.0660572	0.444039	-0.26036	0.702325	0.509941	-0.326969	-0.319577	0.370272	
3.94745	5	0	-0.224672	-0.0311965	-0.0987885	0.690333	-0.953226	0.218516	-0.251895	0.369617	0.209284	2.04661	-0.983375	1.98249	0.117972	1.42301	0.297072	2.96908	0.310486	0.604657	0.649126	3.61944	0.294139	0.802937	-0.202825	1.26021	-0.0707695	0.445083	-0.26218	0.698166	0.505526	-0.324083	-0.326267	0.371241	
3.94592	5	0	-0.2237	-0.0339438	-0.104529	0.680465	-0.952184	0.215573	-0.256009	0.372306	0.206567	2.04118	-0.979979	1.9729	0.121759	1.41231	0.300566	2.95921	0.303849	0.608994	0.644626	3.61466	0.294139	0.802937	-0.205089	1.25373	-0.0754818	0.446127	-0.264	0.694007	0.501111	-0.321198	-0.332956	0.37221	
3.94745	5	0	-0.222728	-0.036691	-0.11027	0.670597	-0.951143	0.21263	-0.260123	0.374994	0.20385	2.03575	-0.976583	1.9633	0.125546	1.40161	0.304059	2.94933	0.297211	0.613331	0.640125	3.60988	0.294139	0.802937	-0.207353	1.24726	-0.080194	0.447171	-0.265819	0.689848	0.496695	-0.318313	-0.339645	0.37318	
3.95203	5	0	-0.226195	-0.0386483	-0.111836	0.675022	-0.954951	0.210595	-0.254184	0.376094	0.212607	2.03723	-0.974886	1.9585	0.132434	1.39711	0.304059	2.94933	0.298437	0.609866	0.636572	3.61992	0.2968	0.795416	-0.202647	1.24683	-0.07645	0.43659	-0.264362	0.676434	0.493038	-0.317565	-0.34732	0.368001	
3.9566	5	0	-0.229662	-0.0406055	-0.113402	0.679448	-0.958759	0.208561	-0.248246	0.377194	0.221363	2.03872	-0.97319	1.95371	0.139323	1.39261	0.304059	2.94933	0.299663	0.606402	0.63302	3.62996	0.299461	0.787896	-0.197941	1.24641	-0.072706	0.426009	-0.262905	0.663019	0.48938	-0.316817	-0.354996	0.362822	
3.96728	5	0	-0.233128	-0.0425627	-0.114968	0.683874	-0.962567	0.206526	-0.242308	0.378295	0.23012	2.04021	-0.971494	1.94891	0.146211	1.38811	0.304059	2.94933	0.300889	0.602937	0.629468	3.64	0.302122	0.780375	-0.193234	1.24598	-0.068962	0.415427	-0.261448	0.649605	0.485723	-0.316068	-0.362671	0.357643	
3.97491	5	0	-0.236595	-0.04452	-0.116534	0.688299	-0.966375	0.204491	-0.236369	0.379395	0.238876	2.04169	-0.969797	1.94412	0.153099	1.38361	0.304059	2.94933	0.302115	0.599472	0.625915	3.65004	0.304783	0.772855	-0.188528	1.24556	-0.065218	0.404846	-0.259991	0.636191	0.482065	-0.31532	-0.370346	0.352464	
3.98865	5	0	-0.240059	-0.0464762	-0.118019	0.701191	-0.970181	0.202458	-0.24125	0.384245	0.235555	2.05108	-0.971494	1.94891	0.146211	1.38811	0.311208	2.95225	0.300889	0.602937	0.633968	3.64478	0.307144	0.782881	-0.181549	1.25162	-0.0557875	0.40275	-0.263449	0.636672	0.490894	-0.321089	-0.374676	0.34681	
3.9978	5	0	-0.243524	-0.0484325	-0.119505	0.714083	-0.973986	0.200424	-0.246131	0.389095	0.232234	2.06046	-0.97319	1.95371	0.139323	1.39261	0.318357	2.95517	0.299663	0.606402	0.642021	3.63952	0.309504	0.792907	-0.17457	1.25767	-0.046357	0.400654	-0.266908	0.637153	0.499722	-0.326858	-0.379007	0.341156	
4.00543	5	0	-0.246988	-0.0503888	-0.120991	0.726975	-0.977792	0.19839	-0.251012	0.393946	0.228913	2.06985	-0.974886	1.9585	0.132434	1.39711	0.325505	2.95809	0.298437	0.609866	0.650074	3.63426	0.311864	0.802933	-0.167591	1.26373	-0.0369265	0.398558	-0.270366	0.637634	0.508551	-0.332626	-0.383337	0.335501	
4.01306	5	0	-0.250453	-0.052345	-0.122476	0.739867	-0.981597	0.196357	-0.255893	0.398796	0.225592	2.07924	-0.976583	1.9633	0.125546	1.40161	0.332654	2.96101	0.297211	0.613331	0.658127	3.629	0.314225	0.812959	-0.160612	1.26978	-0.027496	0.396462	-0.273824	0.638115	0.517379	-0.338395	-0.387667	0.329847	
4.02832	5	0	-0.255437	-0.0617325	-0.129852	0.725962	-0.988162	0.18936	-0.25695	0.392845	0.227806	2.07298	-0.98472	1.96862	0.126807	1.39804	0.333819	2.95772	0.291805	0.6142	0.662631	3.63378	0.312892	0.816725	-0.154849	1.27931	-0.0189885	0.397007	-0.275461	0.642742	0.530639	-0.347059	-0.385112	0.33157	
4.0329	5	0	-0.260421	-0.07112	-0.137228	0.712058	-0.994726	0.182362	-0.258008	0.386895	0.23002	2.06672	-0.992857	1.97393	0.128068	1.39448	0.334984	2.95443	0.286398	0.615069	0.667135	3.63856	0.31156	0.820491	-0.149085	1.28884	-0.010481	0.397552	-0.277099	0.647369	0.543899	-0.355723	-0.382556	0.333292	
4.0329	5	0	-0.265405	-0.0805075	-0.144603	0.698153	-1.00129	0.175364	-0.259066	0.380945	0.232235	2.06046	-1.00099	1.97925	0.129329	1.39092	0.336149	2.95113	0.280992	0.615938	0.671639	3.64335	0.310227	0.824256	-0.143322	1.29836	-0.0019735	0.398097	-0.278736	0.651997	0.557158	-0.364388	-0.380001	0.335015	
4.03747	5	0	-0.270389	-0.089895	-0.151979	0.684248	-1.00785	0.168367	-0.260123	0.374994	0.234449	2.0542	-1.00913	1.98457	0.13059	1.38735	0.337314	2.94784	0.275585	0.616807	0.676143	3.64813	0.308895	0.828022	-0.137559	1.30789	0.006534	0.398642	-0.280373	0.656624	0.570418	-0.373052	-0.377446	0.336738	
4.04053	5	0	-0.268452	-0.0953705	-0.151282	0.673601	-1.00578	0.162501	-0.263472	0.375523	0.237768	2.04482	-0.999298	1.97445	0.128747	1.37761	0.337314	2.94784	0.270904	0.601248	0.674363	3.65316	0.305206	0.821751	-0.131612	1.30401	0.00274675	0.397047	-0.282192	0.652477	0.565996	-0.370162	-0.380782	0.337221	
4.039	5	0	-0.266514	-0.100846	-0.150585	0.662953	-1.0037	0.156635	-0.266821	0.376051	0.241086	2.03544	-0.989464	1.96434	0.126905	1.36786	0.337314	2.94784	0.266223	0.585689	0.672584	3.65819	0.301517	0.81548	-0.125665	1.30012	-0.0010405	0.395452	-0.28401	0.64833	0.561573	-0.367273	-0.384118	0.337704	
4.03747	5	0	-0.264576	-0.106321	-0.149887	0.652306	-1.00163	0.15077	-0.270169	0.37658	0.244405	2.02607	-0.979631	1.95423	0.125062	1.35811	0.337314	2.94784	0.261542	0.570131	0.670804	3.66322	0.297828	0.809208	-0.119718	1.29623	-0.00482775	0.393856	-0.285829	0.644184	0.557151	-0.364383	-0.387453	0.338188	
4.02984	5	0	-0.262639	-0.111797	-0.14919	0.641659	-0.999552	0.144904	-0.273518	0.377109	0.247724	2.01669	-0.969797	1.94412	0.123219	1.34837	0.337314	2.94784	0.256861	0.554572	0.669024	3.66825	0.294139	0.802937	-0.113771	1.29235	-0.008615	0.392261	-0.287648	0.640037	0.552729	-0.361493	-0.390789	0.338671	
4.03137	5	0	-0.259177	-0.10985	-0.145109	0.647485	-0.998515	0.141973	-0.273518	0.377109	0.246618	2.01981	-0.973191	1.95371	0.123219	1.34837	0.344473	2.95076	0.249021	0.562351	0.672582	3.6582	0.294139	0.802937	-0.118494	1.29277	-0.00767875	0.389615	-0.287648	0.640037	0.548309	-0.358605	-0.389228	0.33426	
4.02984	5	0	-0.255714	-0.107903	-0.141029	0.65331	-0.997478	0.139041	-0.273518	0.377109	0.245512	2.02294	-0.976585	1.9633	0.123219	1.34837	0.351633	2.95368	0.241181	0.57013	0.676141	3.64814	0.294139	0.802937	-0.123216	1.2932	-0.0067425	0.38697	-0.287648	0.640037	0.54389	-0.355717	-0.387667	0.329848	
4.02679	5	0	-0.252252	-0.105956	-0.136948	0.659135	-0.99644	0.13611	-0.273518	0.377109	0.244407	2.02606	-0.979979	1.9729	0.123219	1.34837	0.358793	2.9566	0.233342	0.57791	0.6797	3.63808	0.294139	0.802937	-0.127939	1.29362	-0.00580625	0.384324	-0.287648	0.640037	0.53947	-0.352829	-0.386106	0.325437	
4.03442	5	0	-0.248789	-0.104009	-0.132867	0.664961	-0.995403	0.133179	-0.273518	0.377109	0.243301	2.02919	-0.983373	1.98249	0.123219	1.34837	0.365952	2.95952	0.225502	0.585689	0.683258	3.62802	0.294139	0.802937	-0.132661	1.29405	-0.00487	0.381678	-0.287648	0.640037	0.53505	-0.349941	-0.384545	0.321026	
4.04205	5	0	-0.248789	-0.104009	-0.133486	0.684085	-0.995403	0.133179	-0.273518	0.377109	0.241088	2.03544	-0.980326	1.99157	0.115083	1.35642	0.366617	2.96922	0.222556	0.579647	0.689547	3.62778	0.286461	0.807954	-0.129163	1.29709	-0.000146	0.380625	-0.28501	0.64187	0.543892	-0.355719	-0.377871	0.320056	
4.04968	5	0	-0.248789	-0.104009	-0.134105	0.703209	-0.995403	0.133179	-0.273518	0.377109	0.238875	2.0417	-0.97728	2.00066	0.106946	1.36447	0.367283	2.97893	0.219611	0.573605	0.695837	3.62753	0.278783	0.812971	-0.125666	1.30012	0.004578	0.379572	-0.282373	0.643703	0.552734	-0.361496	-0.371197	0.319087	
4.07104	5	0	-0.248789	-0.104009	-0.134724	0.722333	-0.995403	0.133179	-0.273518	0.377109	0.236662	2.04795	-0.974233	2.00975	0.0988095	1.37252	0.367948	2.98864	0.216666	0.567564	0.702127	3.62729	0.271105	0.817988	-0.122168	1.30316	0.009302	0.37852	-0.279736	0.645536	0.561576	-0.367274	-0.364523	0.318117	
4.08935	5	0	-0.248789	-0.104009	-0.135343	0.741457	-0.995403	0.133179	-0.273518	0.377109	0.234449	2.0542	-0.971186	2.01883	0.090673	1.38058	0.368613	2.99834	0.21372	0.561522	0.708416	3.62704	0.263427	0.823005	-0.118671	1.3062	0.014026	0.377467	-0.277098	0.647369	0.570418	-0.373052	-0.357849	0.317148	
4.11224	5	0	-0.25322	-0.103219	-0.138637	0.733393	-0.999203	0.131157	-0.276865	0.377637	0.225694	2.05271	-0.969486	2.01403	0.0863193	1.37795	0.361452	2.99541	0.208334	0.562388	0.698568	3.63735	0.269773	0.821751	-0.122349	1.31659	0.0140672	0.389657	-0.275278	0.651518	0.579269	-0.378835	-0.35273	0.320591	
4.13055	5	0	-0.257651	-0.102429	-0.141931	0.725329	-1.003	0.129134	-0.280212	0.378165	0.216939	2.05122	-0.967785	2.00922	0.0819655	1.37533	0.354291	2.99249	0.202949	0.563253	0.68872	3.64765	0.27612	0.820496	-0.126027	1.32699	0.0141085	0.401846	-0.273458	0.655667	0.588121	-0.384619	-0.347612	0.324034	
4.15039	5	0	-0.262082	-0.101638	-0.145226	0.717264	-1.0068	0.127112	-0.283559	0.378693	0.208184	2.04973	-0.966085	2.00442	0.0776118	1.3727	0.34713	2.98956	0.197564	0.564118	0.678872	3.65795	0.282467	0.819241	-0.129705	1.33738	0.0141498	0.414036	-0.271639	0.659816	0.596972	-0.390402	-0.342494	0.327477	
4.1626	5	0	-0.266513	-0.100848	-0.14852	0.7092	-1.0106	0.12509	-0.286906	0.379221	0.199429	2.04824	-0.964385	1.99961	0.073258	1.37007	0.339969	2.98663	0.192178	0.564984	0.669024	3.66825	0.288813	0.817987	-0.133383	1.34777	0.014191	0.426226	-0.269819	0.663965	0.605823	-0.396186	-0.337375	0.33092	
4.17786	5	0	-0.263051	-0.0988992	-0.14374	0.704375	-1.0106	0.12509	-0.286906	0.379221	0.196713	2.04282	-0.962686	1.99481	0.073258	1.37007	0.335809	2.98681	0.189237	0.558952	0.670804	3.66322	0.281135	0.823004	-0.138103	1.34819	0.0038045	0.430975	-0.269	0.66165	0.596972	-0.390402	-0.339154	0.326991	
4.18701	5	0	-0.25959	-0.0969505	-0.13896	0.69955	-1.0106	0.12509	-0.286906	0.379221	0.193998	2.03739	-0.960986	1.99001	0.073258	1.37007	0.331649	2.987	0.186296	0.552919	0.672584	3.65819	0.273457	0.828021	-0.142824	1.34861	-0.006582	0.435724	-0.26818	0.659335	0.588121	-0.384619	-0.340933	0.323062	
4.19311	5	0	-0.256128	-0.0950017	-0.134179	0.694725	-1.0106	0.12509	-0.286906	0.379221	0.191283	2.03196	-0.959287	1.9852	0.073258	1.37007	0.327489	2.98718	0.183355	0.546886	0.674363	3.65316	0.265779	0.833038	-0.147545	1.34903	-0.0169685	0.440473	-0.267361	0.65702	0.579269	-0.378835	-0.342712	0.319133	
4.19159	5	0	-0.252666	-0.093053	-0.129399	0.6899	-1.0106	0.12509	-0.286906	0.379221	0.188567	2.02653	-0.957588	1.9804	0.073258	1.37007	0.323329	2.98737	0.180414	0.540854	0.676143	3.64813	0.258101	0.838055	-0.152265	1.34945	-0.027355	0.445222	-0.266542	0.654705	0.570418	-0.373052	-0.344491	0.315204	
4.19311	5	0	-0.251142	-0.0856192	-0.120445	0.699376	-1.01855	0.134785	-0.289197	0.385696	0.184146	2.03902	-0.954536	1.98949	0.07074	1.37719	0.330485	2.99029	0.173817	0.545164	0.680651	3.65292	0.256769	0.841819	-0.154719	1.35639	-0.020757	0.438874	-0.270819	0.657499	0.570418	-0.373052	-0.338807	0.308098	
4.18854	5	0	-0.249619	-0.0781855	-0.111491	0.708853	-1.02649	0.144481	-0.291488	0.392172	0.179725	2.05152	-0.951485	1.99858	0.068222	1.38431	0.337641	2.99322	0.16722	0.549475	0.685159	3.65771	0.255437	0.845584	-0.157172	1.36332	-0.014159	0.432526	-0.275095	0.660293	0.570418	-0.373052	-0.333124	0.300992	
4.17938	5	0	-0.248095	-0.0707518	-0.102537	0.718329	-1.03443	0.154176	-0.29378	0.398647	0.175304	2.06401	-0.948433	2.00767	0.065704	1.39142	0.344796	2.99615	0.160624	0.553786	0.689666	3.6625	0.254106	0.849348	-0.159626	1.37025	-0.007561	0.426178	-0.279372	0.663088	0.570418	-0.373052	-0.32744	0.293886	
4.17175	5	0	-0.246571	-0.063318	-0.093583	0.727806	-1.04238	0.163871	-0.296071	0.405122	0.170883	2.07651	-0.945381	2.01675	0.063186	1.39854	0.351952	2.99908	0.154027	0.558096	0.694174	3.6673	0.252774	0.853112	-0.162079	1.37719	-0.000963	0.41983	-0.283649	0.665882	0.570418	-0.373052	-0.321756	0.28678	
4.16107	5	0	-0.248512	-0.0578305	-0.0966465	0.745169	-1.04341	0.166802	-0.296835	0.407281	0.166456	2.08902	-0.952195	2.03601	0.0525393	1.41371	0.348448	3.00898	0.169449	0.571909	0.67084	3.66322	0.253784	0.86694	-0.165568	1.37414	-0.0037765	0.427781	-0.277552	0.667239	0.574842	-0.375943	-0.310938	0.283104	
4.15192	5	0	-0.250454	-0.052343	-0.09971	0.762533	-1.04445	0.169734	-0.297599	0.409441	0.162029	2.10153	-0.959009	2.05527	0.0418925	1.42888	0.344944	3.01889	0.184871	0.585723	0.647507	3.65914	0.254794	0.880768	-0.169057	1.37109	-0.00659	0.435732	-0.271454	0.668596	0.579267	-0.378834	-0.300121	0.279427	
4.13818	5	0	-0.252395	-0.0468555	-0.102774	0.779896	-1.04549	0.172665	-0.298363	0.411601	0.157601	2.11404	-0.965823	2.07453	0.0312458	1.44405	0.34144	3.02879	0.200293	0.599536	0.624174	3.65506	0.255804	0.894596	-0.172547	1.36804	-0.0094035	0.443684	-0.265357	0.669953	0.583692	-0.381725	-0.289303	0.275751	
4.12445	5	0	-0.254337	-0.041368	-0.105837	0.797259	-1.04652	0.175597	-0.299127	0.41376	0.153174	2.12656	-0.972637	2.09378	0.020599	1.45922	0.337936	3.03869	0.215715	0.613349	0.60084	3.65099	0.256814	0.908424	-0.176036	1.36499	-0.012217	0.451635	-0.25926	0.67131	0.588116	-0.384616	-0.278485	0.272075	
4.11072	5	0	-0.254337	-0.041368	-0.11149	0.795829	-1.05032	0.173568	-0.301707	0.412126	0.148869	2.11254	-0.965823	2.07453	0.0187782	1.44946	0.338444	3.02568	0.199564	0.61593	0.596353	3.6462	0.2468	0.903374	-0.177073	1.35502	-0.0197543	0.460638	-0.264358	0.676423	0.583692	-0.381725	-0.27748	0.278207	
4.10004	5	0	-0.254337	-0.041368	-0.117143	0.794399	-1.05411	0.171538	-0.304288	0.410493	0.144564	2.09853	-0.959009	2.05527	0.0169575	1.4397	0.338952	3.01266	0.183412	0.61851	0.591865	3.64142	0.236787	0.898324	-0.178111	1.34504	-0.0272915	0.469642	-0.269457	0.681535	0.579267	-0.378834	-0.276474	0.284339	
4.0863	5	0	-0.254337	-0.041368	-0.122796	0.792968	-1.0579	0.169509	-0.306868	0.408859	0.14026	2.08452	-0.952195	2.03601	0.0151367	1.42994	0.339461	2.99965	0.167261	0.621091	0.587377	3.63664	0.226773	0.893275	-0.179149	1.33507	-0.0348287	0.478645	-0.274556	0.686648	0.574842	-0.375943	-0.275469	0.290472	
4.07257	5	0	-0.254337	-0.041368	-0.128449	0.791538	-1.06169	0.16748	-0.309449	0.407225	0.135955	2.07051	-0.945381	2.01675	0.013316	1.42018	0.339969	2.98663	0.15111	0.623672	0.58289	3.63186	0.216759	0.888225	-0.180186	1.3251	-0.042366	0.487648	-0.279654	0.691761	0.570418	-0.373052	-0.274464	0.296604	
4.06494	0	5	-0.250873	-0.0394103	-0.119652	0.784082	-1.06273	0.17041	-0.308685	0.405066	0.130546	2.05965	-0.94368	2.01195	0.0058995	1.41136	0.339305	2.97693	0.138661	0.615889	0.593646	3.6364	0.206764	0.883183	-0.180186	1.3251	-0.0442697	0.480738	-0.277195	0.684812	0.565996	-0.370162	-0.275469	0.290472	
4.05884	0	5	-0.247409	-0.0374525	-0.110854	0.776626	-1.06376	0.173341	-0.307921	0.402908	0.125136	2.0488	-0.941979	2.00714	-0.001517	1.40255	0.338642	2.96724	0.126212	0.608106	0.604402	3.64095	0.196769	0.87814	-0.180186	1.3251	-0.0461735	0.473828	-0.274736	0.677863	0.561573	-0.367273	-0.276474	0.284339	
4.05426	0	5	-0.243945	-0.0354947	-0.102057	0.769171	-1.0648	0.176271	-0.307158	0.400749	0.119727	2.03794	-0.940277	2.00233	-0.0089335	1.39373	0.337978	2.95754	0.113763	0.600323	0.615159	3.6455	0.186774	0.873098	-0.180186	1.3251	-0.0480773	0.466917	-0.272278	0.670914	0.557151	-0.364383	-0.27748	0.278207	
4.04816	0	5	-0.240481	-0.033537	-0.09326	0.761715	-1.06584	0.179202	-0.306394	0.398591	0.114318	2.02709	-0.938576	1.99752	-0.01635	1.38491	0.337314	2.94784	0.101314	0.59254	0.625915	3.65004	0.176779	0.868056	-0.180186	1.3251	-0.049981	0.460007	-0.269819	0.663965	0.552729	-0.361493	-0.278485	0.272075	
4.04205	0	5	-0.236043	-0.0343255	-0.0858685	0.775689	-1.05997	0.175369	-0.307158	0.400749	0.0996085	2.02952	-0.940277	2.00233	-0.0206825	1.38229	0.34031	2.95095	0.0947325	0.59684	0.634911	3.65963	0.176779	0.868056	-0.174247	1.32122	-0.0518853	0.453107	-0.268181	0.659336	0.548309	-0.358605	-0.279266	0.274282	
4.04205	0	5	-0.231604	-0.035114	-0.078477	0.789662	-1.05411	0.171536	-0.307921	0.402908	0.084899	2.03195	-0.941979	2.00714	-0.025015	1.37966	0.343306	2.95405	0.088151	0.601141	0.643908	3.66921	0.176779	0.868056	-0.168309	1.31734	-0.0537895	0.446207	-0.266543	0.654706	0.54389	-0.355717	-0.280047	0.276489	
4.03442	0	5	-0.227166	-0.0359025	-0.0710855	0.803636	-1.04824	0.167704	-0.308685	0.405066	0.0701895	2.03438	-0.94368	2.01195	-0.0293475	1.37703	0.346301	2.95716	0.0815695	0.605441	0.652904	3.6788	0.176779	0.868056	-0.162371	1.31346	-0.0556938	0.439306	-0.264904	0.650076	0.53947	-0.352829	-0.280828	0.278696	
4.02832	0	5	-0.222728	-0.036691	-0.063694	0.817609	-1.04238	0.163871	-0.309449	0.407225	0.05548	2.03681	-0.945381	2.01675	-0.03368	1.37441	0.349297	2.96027	0.074988	0.609742	0.661901	3.68838	0.176779	0.868056	-0.156432	1.30958	-0.057598	0.432406	-0.263266	0.645447	0.53505	-0.349941	-0.281609	0.280903	
4.02374	0	5	-0.225224	-0.0413932	-0.070221	0.809902	-1.05685	0.166573	-0.313556	0.409908	0.046793	2.03531	-0.951832	2.01727	-0.0392635	1.37533	0.340979	2.96064	0.084976	0.624447	0.655621	3.68862	0.177777	0.881874	-0.156432	1.30958	-0.0528818	0.43136	-0.259806	0.644965	0.534295	-0.347806	-0.279041	0.28262	
4.02222	0	5	-0.227719	-0.0460955	-0.076748	0.802196	-1.07133	0.169274	-0.317662	0.412591	0.038106	2.03381	-0.958284	2.01779	-0.044847	1.37625	0.33266	2.96101	0.094964	0.639153	0.649341	3.68885	0.178775	0.895692	-0.156432	1.30958	-0.0481655	0.430313	-0.256347	0.644484	0.533539	-0.34567	-0.276474	0.284336	
4.01306	0	5	-0.230214	-0.0507978	-0.083275	0.794489	-1.0858	0.171976	-0.321769	0.415275	0.029419	2.03231	-0.964735	2.01831	-0.0504305	1.37717	0.324342	2.96138	0.104952	0.653858	0.643061	3.68909	0.179772	0.909509	-0.156432	1.30958	-0.0434492	0.429266	-0.252887	0.644003	0.532783	-0.343535	-0.273906	0.286053	
4.01306	0	5	-0.23271	-0.0555	-0.089802	0.786782	-1.10027	0.174678	-0.325876	0.417958	0.020732	2.03081	-0.971186	2.01883	-0.056014	1.37809	0.316023	2.96175	0.11494	0.668563	0.636781	3.68932	0.18077	0.923327	-0.156432	1.30958	-0.038733	0.42822	-0.249427	0.643521	0.532028	-0.3414	-0.271338	0.28777	
4.00848	0	5	-0.240608	-0.056666	-0.0939675	0.772437	-1.10302	0.169723	-0.319953	0.419069	0.0229318	2.02459	-0.97728	2.00068	-0.0504305	1.37717	0.30523	2.94607	0.137423	0.691186	0.606329	3.67065	0.19711	0.92715	-0.159923	1.30654	-0.03686	0.422926	-0.248608	0.641207	0.528366	-0.340649	-0.287066	0.29635	
4.00696	0	5	-0.248507	-0.057832	-0.098133	0.758093	-1.10577	0.164768	-0.31403	0.420179	0.0251315	2.01837	-0.983374	1.98252	-0.044847	1.37625	0.294437	2.93038	0.159906	0.713809	0.575877	3.65197	0.213449	0.930974	-0.163413	1.30351	-0.034987	0.417632	-0.247789	0.638892	0.524703	-0.339897	-0.302794	0.304929	
4.0039	0	5	-0.256405	-0.058998	-0.102299	0.743749	-1.10852	0.159812	-0.308108	0.421289	0.0273313	2.01216	-0.989468	1.96437	-0.0392635	1.37533	0.283644	2.9147	0.182388	0.736433	0.545424	3.6333	0.229789	0.934797	-0.166904	1.30047	-0.033114	0.412339	-0.24697	0.636578	0.521041	-0.339146	-0.318522	0.313508	
4.00543	0	5	-0.264303	-0.060164	-0.106464	0.729404	-1.11126	0.154857	-0.302185	0.4224	0.029531	2.00594	-0.995562	1.94622	-0.03368	1.37441	0.272851	2.89901	0.204871	0.759056	0.514972	3.61463	0.246129	0.93862	-0.170395	1.29743	-0.031241	0.407045	-0.246151	0.634263	0.517379	-0.338395	-0.33425	0.322088	
