0.855	1.84021	0	0	0.09027	-0.059316	-0.004288	0.403088	0.035415	0.475549	0.036889	0.363489	0.023869	0.380431	0.045974	0.482675	0.311702	0.702097	0.25613	0.655788	0.100838	0.403431	0.052114	0.396872	0.029066	0.290629	0.019088	0.260591	-0.047868	0.274121	-0.021587	0.256308	-0.043302	0.190907	0.109863	-0.072494	
0.851667	1.84173	0	0	0.09027	-0.059316	-0.0012305	0.394447	0.035415	0.475549	0.0353642	0.359391	0.0181185	0.374457	0.037405	0.475694	0.311702	0.702097	0.254423	0.660612	0.093552	0.412102	0.0461875	0.400745	0.0232123	0.29223	0.00709225	0.26586	-0.047868	0.274121	-0.0261645	0.257325	-0.0695578	0.208063	0.11591	-0.0693705	
0.849119	1.84326	0	0	0.09027	-0.059316	0.001827	0.385806	0.035415	0.475549	0.0338395	0.355294	0.012368	0.368483	0.028836	0.468712	0.311702	0.702097	0.252717	0.665435	0.086266	0.420772	0.040261	0.404617	0.0173585	0.293832	-0.0049035	0.27113	-0.047868	0.274121	-0.030742	0.258342	-0.0958135	0.225219	0.121956	-0.066247	
0.847202	1.83868	0	0	0.09027	-0.059316	0.0048845	0.377165	0.035415	0.475549	0.0323148	0.351196	0.0066175	0.362508	0.020267	0.461731	0.311702	0.702097	0.25101	0.670258	0.07898	0.429443	0.0343345	0.40849	0.0115048	0.295433	-0.0168992	0.276399	-0.047868	0.274121	-0.0353195	0.259359	-0.122069	0.242375	0.128003	-0.0631235	
0.845761	1.84173	0	0	0.09027	-0.059316	0.007942	0.368524	0.035415	0.475549	0.03079	0.347098	0.000867	0.356534	0.011698	0.45475	0.311702	0.702097	0.249303	0.675082	0.071694	0.438114	0.028408	0.412362	0.005651	0.297034	-0.028895	0.281668	-0.047868	0.274121	-0.039897	0.260376	-0.148325	0.259531	0.13405	-0.06	
0.844643	1.84021	0	0	0.09027	-0.059316	0.0089605	0.365646	0.034471	0.478217	0.0300088	0.349306	-0.00155875	0.352287	0.0074185	0.451264	0.30928	0.70894	0.247595	0.679908	0.0734935	0.433028	0.0237	0.4128	0.00082525	0.295742	-0.031932	0.275951	-0.0529218	0.269113	-0.0408405	0.251129	-0.116021	0.225283	0.126376	-0.0585235	
0.843691	1.84021	0	0	0.09027	-0.059316	0.009979	0.362767	0.033527	0.480884	0.0292275	0.351514	-0.0039845	0.34804	0.003139	0.447779	0.306859	0.715784	0.245888	0.684734	0.075293	0.427943	0.018992	0.413238	-0.0040005	0.29445	-0.034969	0.270234	-0.0579755	0.264104	-0.041784	0.241882	-0.083718	0.191035	0.118701	-0.057047	
0.842752	1.83716	0	0	0.09027	-0.059316	0.0109975	0.359889	0.032583	0.483552	0.0284462	0.353722	-0.00641025	0.343792	-0.0011405	0.444294	0.304438	0.722627	0.24418	0.68956	0.0770925	0.422857	0.014284	0.413676	-0.00882625	0.293158	-0.038006	0.264517	-0.0630293	0.259096	-0.0427275	0.232635	-0.0514145	0.156787	0.111027	-0.0555705	
0.841672	1.83868	0	0	0.09027	-0.059316	0.012016	0.35701	0.031639	0.48622	0.027665	0.35593	-0.008836	0.339545	-0.00542	0.440808	0.302016	0.729471	0.242473	0.694386	0.078892	0.417771	0.009576	0.414114	-0.013652	0.291866	-0.041043	0.2588	-0.068083	0.254088	-0.043671	0.223388	-0.019111	0.122539	0.103352	-0.054094	
0.840295	1.83868	0	0	0.081428	-0.0535383	0.0045255	0.35527	0.0306947	0.488889	0.0207127	0.358775	-0.00973075	0.342073	-0.00831125	0.448979	0.30537	0.735179	0.239055	0.704046	0.0761923	0.425401	0.00714725	0.420978	-0.0167215	0.30054	-0.042224	0.262138	-0.0769528	0.259884	-0.0482433	0.224405	-0.0453665	0.139695	0.111027	-0.0555705	
0.838467	1.83411	0	0	0.072586	-0.0477605	-0.002965	0.353529	0.0297505	0.491557	0.0137605	0.361621	-0.0106255	0.344601	-0.0112025	0.457149	0.308724	0.740887	0.235637	0.713705	0.0734925	0.43303	0.0047185	0.427843	-0.019791	0.309215	-0.043405	0.265476	-0.0858225	0.265679	-0.0528155	0.225421	-0.071622	0.156851	0.118701	-0.057047	
0.836034	1.83411	0	0	0.063744	-0.0419827	-0.0104555	0.351789	0.0288063	0.494226	0.00680825	0.364466	-0.0115203	0.347129	-0.0140937	0.46532	0.312077	0.746594	0.232219	0.723365	0.0707928	0.44066	0.00228975	0.434708	-0.0228605	0.31789	-0.044586	0.268814	-0.0946923	0.271475	-0.0573878	0.226438	-0.0978775	0.174007	0.126376	-0.0585235	
0.83284	1.83868	0	0	0.054902	-0.036205	-0.017946	0.350049	0.027862	0.496895	-0.000144	0.367311	-0.012415	0.349657	-0.016985	0.473491	0.315431	0.752302	0.228801	0.733025	0.068093	0.44829	-0.000139	0.441572	-0.02593	0.326564	-0.045767	0.272152	-0.103562	0.277271	-0.06196	0.227455	-0.124133	0.191163	0.13405	-0.06	
0.828732	1.83563	0	0	0.046831	-0.032587	-0.0148953	0.341427	0.027862	0.496895	-0.002446	0.365421	-0.0166275	0.350466	-0.0140938	0.46532	0.313005	0.759159	0.233516	0.737379	0.0725912	0.435578	0.0010755	0.438139	-0.0208158	0.312111	-0.0476218	0.263105	-0.10733	0.268668	-0.0656605	0.214126	-0.118097	0.174104	0.137306	-0.069202	
0.823589	1.83563	0	0	0.03876	-0.028969	-0.0118445	0.332806	0.027862	0.496895	-0.004748	0.363532	-0.02084	0.351275	-0.0112025	0.457149	0.310579	0.766015	0.238231	0.741732	0.0770895	0.422865	0.00229	0.434706	-0.0157015	0.297658	-0.0494765	0.254058	-0.111098	0.260065	-0.069361	0.200796	-0.11206	0.157045	0.140562	-0.078404	
0.817725	1.83105	0	0	0.030689	-0.025351	-0.00879375	0.324184	0.027862	0.496895	-0.00705	0.361642	-0.0250525	0.352084	-0.00831125	0.448979	0.308153	0.772871	0.242947	0.746085	0.0815878	0.410153	0.0035045	0.431273	-0.0105872	0.283205	-0.0513312	0.245011	-0.114865	0.251462	-0.0730615	0.187467	-0.106024	0.139985	0.143818	-0.087606	
0.811753	1.83716	0	0	0.022618	-0.021733	-0.005743	0.315563	0.027862	0.496895	-0.009352	0.359752	-0.029265	0.352893	-0.00542	0.440808	0.305727	0.779728	0.247662	0.750439	0.086086	0.39744	0.004719	0.42784	-0.005473	0.268752	-0.053186	0.235964	-0.118633	0.242859	-0.076762	0.174138	-0.099988	0.122926	0.147074	-0.096808	
0.806295	1.83563	0	0	0.022618	-0.021733	-0.00879375	0.324184	0.0307368	0.501175	-0.00861275	0.366059	-0.0250525	0.352084	-0.00831125	0.448979	0.314865	0.784312	0.248952	0.764489	0.085187	0.399981	0.00228925	0.434707	-0.00649525	0.271641	-0.0520067	0.232631	-0.11609	0.235671	-0.0758573	0.171581	-0.0969742	0.114408	0.145446	-0.0922083	
0.801971	1.828	0	0	0.022618	-0.021733	-0.0118445	0.332806	0.0336115	0.505455	-0.0078735	0.372365	-0.02084	0.351275	-0.0112025	0.457149	0.324003	0.788895	0.250243	0.778539	0.084288	0.402522	-0.0001405	0.441574	-0.0075175	0.274529	-0.0508275	0.229298	-0.113546	0.228484	-0.0749525	0.169024	-0.0939605	0.105891	0.143819	-0.0876085	
0.799402	1.83411	0	0	0.022618	-0.021733	-0.0148953	0.341427	0.0364862	0.509735	-0.00713425	0.378671	-0.0166275	0.350466	-0.0140937	0.46532	0.333141	0.793479	0.251533	0.79259	0.083389	0.405063	-0.00257025	0.448442	-0.00853975	0.277418	-0.0496482	0.225965	-0.111003	0.221296	-0.0740477	0.166467	-0.0909467	0.0973735	0.142191	-0.0830088	
0.799203	1.8219	0	0	0.022618	-0.021733	-0.017946	0.350049	0.039361	0.514015	-0.006395	0.384978	-0.012415	0.349657	-0.016985	0.473491	0.342279	0.798063	0.252823	0.80664	0.08249	0.407604	-0.005	0.455309	-0.009562	0.280307	-0.048469	0.222632	-0.10846	0.214108	-0.073143	0.16391	-0.087933	0.088856	0.140563	-0.078409	
0.80153	1.82648	0	0	0.018205	-0.0188495	-0.013879	0.338556	0.040306	0.511344	-0.005573	0.374259	-0.010626	0.344602	-0.0126493	0.461238	0.338631	0.808373	0.255825	0.81587	0.0761078	0.413728	-0.0062155	0.458744	-0.0222667	0.286388	-0.060428	0.227885	-0.109731	0.217701	-0.0740477	0.166467	-0.0909467	0.0973735	0.138935	-0.0738068	
0.805629	1.82953	0	0	0.013792	-0.015966	-0.009812	0.327062	0.041251	0.508673	-0.004751	0.36354	-0.008837	0.339546	-0.0083135	0.448985	0.334982	0.818684	0.258827	0.825099	0.0697255	0.419853	-0.007431	0.46218	-0.0349715	0.292469	-0.072387	0.233138	-0.111003	0.221295	-0.0749525	0.169024	-0.0939605	0.105891	0.137306	-0.0692045	
0.810646	1.83105	0	0	0.009379	-0.0130825	-0.005745	0.315568	0.042196	0.506002	-0.003929	0.352822	-0.007048	0.33449	-0.00397775	0.436731	0.331334	0.828994	0.261828	0.834329	0.0633432	0.425978	-0.0086465	0.465616	-0.0476762	0.298549	-0.084346	0.238391	-0.112274	0.224888	-0.0758573	0.171581	-0.0969742	0.114408	0.135678	-0.0646022	
0.815724	1.83258	0	0	0.004966	-0.010199	-0.001678	0.304075	0.043141	0.503331	-0.003107	0.342103	-0.005259	0.329435	0.000358	0.424478	0.327686	0.839305	0.26483	0.843558	0.056961	0.432102	-0.009862	0.469051	-0.060381	0.30463	-0.096305	0.243644	-0.113545	0.228481	-0.076762	0.174138	-0.099988	0.122926	0.13405	-0.06	
0.820006	1.83411	0	0	0.004966	-0.010199	-0.00269425	0.306947	0.042196	0.506002	0.000757	0.339578	-0.007048	0.33449	-0.00397775	0.436731	0.328603	0.851937	0.26611	0.857672	0.0615442	0.431062	-0.008807	0.478936	-0.060381	0.30463	-0.096305	0.243644	-0.121125	0.230672	-0.0822307	0.177711	-0.0969742	0.114408	0.13242	-0.0553955	
0.822636	1.83411	5	0	0.004966	-0.010199	-0.0037105	0.309819	0.041251	0.508673	0.004621	0.337053	-0.008837	0.339546	-0.0083135	0.448985	0.329519	0.864569	0.26739	0.871786	0.0661275	0.430022	-0.007752	0.488822	-0.060381	0.30463	-0.096305	0.243644	-0.128705	0.232862	-0.0876995	0.181285	-0.0939605	0.105891	0.130791	-0.050791	
0.822836	1.83563	5	0	0.004966	-0.010199	-0.00472675	0.312691	0.040306	0.511344	0.008485	0.334528	-0.010626	0.344602	-0.0126493	0.461238	0.330436	0.877202	0.268669	0.8859	0.0707108	0.428981	-0.006697	0.498707	-0.060381	0.30463	-0.096305	0.243644	-0.136285	0.235052	-0.0931683	0.184858	-0.0909467	0.0973735	0.129162	-0.0461865	
0.820725	1.83411	5	0	0.004966	-0.010199	-0.005743	0.315563	0.039361	0.514015	0.012349	0.332003	-0.012415	0.349657	-0.016985	0.473491	0.331353	0.889834	0.269949	0.900014	0.075294	0.427941	-0.005642	0.508593	-0.060381	0.30463	-0.096305	0.243644	-0.143865	0.237243	-0.098637	0.188432	-0.087933	0.088856	0.127532	-0.041582	
0.817009	1.83716	5	0	-0.0038535	-0.00443625	-0.00897825	0.313261	0.039361	0.514015	0.005403	0.334846	-0.0108853	0.356437	-0.014156	0.481076	0.339282	0.89791	0.279397	0.908823	0.0781618	0.443684	-0.0011	0.521518	-0.0596582	0.317493	-0.0944568	0.252688	-0.137557	0.238647	-0.0958843	0.192534	-0.114109	0.105959	0.144538	-0.049152	
0.812403	1.83868	5	0	-0.012673	0.0013265	-0.0122135	0.31096	0.039361	0.514015	-0.001543	0.337689	-0.0093555	0.363218	-0.011327	0.48866	0.34721	0.905987	0.288845	0.917632	0.0810295	0.459427	0.003442	0.534443	-0.0589355	0.330357	-0.0926085	0.261731	-0.131249	0.240051	-0.0931315	0.196636	-0.140284	0.123063	0.161544	-0.056722	
0.807621	1.83563	5	0	-0.0214925	0.00708925	-0.0154487	0.308659	0.039361	0.514015	-0.008489	0.340533	-0.00782575	0.369999	-0.008498	0.496245	0.355139	0.914063	0.298294	0.926441	0.0838972	0.475171	0.007984	0.547368	-0.0582128	0.343221	-0.0907603	0.270775	-0.124941	0.241455	-0.0903787	0.200738	-0.166459	0.140166	0.178549	-0.064292	
0.80338	1.83563	5	0	-0.030312	0.012852	-0.018684	0.306357	0.039361	0.514015	-0.015435	0.343376	-0.006296	0.376779	-0.005669	0.50383	0.363068	0.922139	0.307742	0.93525	0.086765	0.490914	0.012526	0.560293	-0.05749	0.356084	-0.088912	0.279818	-0.118633	0.242859	-0.087626	0.20484	-0.192635	0.15727	0.195555	-0.071862	
0.800392	1.83411	5	0	-0.0347182	0.0157312	-0.0176685	0.303487	0.0384155	0.516687	-0.0177355	0.34149	-0.008088	0.381843	-0.0071175	0.507924	0.365202	0.931369	0.309015	0.949434	0.0931605	0.484776	0.0113053	0.563743	-0.0554427	0.350298	-0.0919393	0.274106	-0.124941	0.241455	-0.0912837	0.203296	-0.163448	0.131657	0.186232	-0.0657703	
0.799073	1.83716	5	0	-0.0391245	0.0186105	-0.016653	0.300617	0.03747	0.519359	-0.020036	0.339603	-0.00988	0.386907	-0.008566	0.512018	0.367336	0.940599	0.310288	0.963617	0.099556	0.478637	0.0100845	0.567194	-0.0533955	0.344512	-0.0949665	0.268394	-0.131249	0.240051	-0.0949415	0.201752	-0.134262	0.106044	0.176909	-0.0596785	
0.799271	1.83411	5	0	-0.0435307	0.0214897	-0.0156375	0.297746	0.0365245	0.522031	-0.0223365	0.337717	-0.011672	0.391972	-0.0100145	0.516111	0.36947	0.949828	0.31156	0.9778	0.105952	0.472498	0.00886375	0.570644	-0.0513482	0.338727	-0.0979938	0.262683	-0.137557	0.238647	-0.0985992	0.200207	-0.105076	0.080431	0.167586	-0.0535868	
0.800771	1.82953	5	0	-0.047937	0.024369	-0.014622	0.294876	0.035579	0.524703	-0.024637	0.33583	-0.013464	0.397036	-0.011463	0.520205	0.371604	0.959058	0.312833	0.991984	0.112347	0.46636	0.007643	0.574094	-0.049301	0.332941	-0.101021	0.256971	-0.143865	0.237243	-0.102257	0.198663	-0.075889	0.054818	0.158263	-0.047495	
0.803359	1.83105	5	0	-0.047937	0.024369	-0.015453	0.308669	0.0327412	0.532723	-0.020035	0.339604	-0.0128348	0.406368	-0.0100872	0.53191	0.37251	0.971769	0.314099	1.00621	0.113332	0.475521	0.00868975	0.58403	-0.044482	0.33424	-0.0979938	0.262683	-0.145136	0.240836	-0.0985992	0.200207	-0.102065	0.0719218	0.159893	-0.0521018	
0.80682	1.82648	5	0	-0.047937	0.024369	-0.016284	0.322462	0.0299035	0.540744	-0.015433	0.343378	-0.0122055	0.415699	-0.0087115	0.543614	0.373417	0.984479	0.315365	1.02043	0.114316	0.484681	0.0097365	0.593966	-0.039663	0.335539	-0.0949665	0.268394	-0.146407	0.244429	-0.0949415	0.201752	-0.12824	0.0890255	0.161523	-0.0567085	
0.810938	1.82648	5	0	-0.047937	0.024369	-0.017115	0.336256	0.0270657	0.548764	-0.010831	0.347152	-0.0115762	0.425031	-0.00733575	0.555319	0.374324	0.99719	0.31663	1.03465	0.115301	0.493841	0.0107833	0.603902	-0.034844	0.336839	-0.0919393	0.274106	-0.147679	0.248022	-0.0912837	0.203296	-0.154415	0.106129	0.163154	-0.0613152	
0.815502	1.83105	5	0	-0.047937	0.024369	-0.017946	0.350049	0.024228	0.556784	-0.006229	0.350926	-0.010947	0.434363	-0.00596	0.567023	0.37523	1.0099	0.317896	1.04887	0.116285	0.503002	0.01183	0.613838	-0.030025	0.338138	-0.088912	0.279818	-0.14895	0.251615	-0.087626	0.20484	-0.180591	0.123233	0.164784	-0.065922	
0.820338	1.83105	5	0	-0.052341	0.0272468	-0.0201625	0.344869	0.029941	0.553051	-0.0061905	0.342426	-0.0160605	0.437704	-0.00450875	0.562922	0.378586	1.0157	0.322627	1.05332	0.120056	0.516253	0.018816	0.61991	-0.0341235	0.349721	-0.0924553	0.289832	-0.145189	0.260218	-0.0939722	0.222775	-0.186616	0.14026	0.161523	-0.0567057	
0.825287	1.83105	5	0	-0.056745	0.0301245	-0.022379	0.339689	0.035654	0.549317	-0.006152	0.333925	-0.021174	0.441045	-0.0030575	0.558821	0.381942	1.0215	0.327357	1.05776	0.123827	0.529505	0.025802	0.625981	-0.038222	0.361305	-0.0959985	0.299845	-0.141429	0.268821	-0.100319	0.240711	-0.19264	0.157286	0.158261	-0.0474895	
0.830191	1.828	5	0	-0.061149	0.0330022	-0.0245955	0.33451	0.041367	0.545584	-0.0061135	0.325425	-0.0262875	0.444386	-0.00160625	0.554719	0.385298	1.02731	0.332087	1.06221	0.127599	0.542756	0.032788	0.632053	-0.0423205	0.372888	-0.0995417	0.309859	-0.137668	0.277425	-0.106665	0.258647	-0.198665	0.174313	0.155	-0.0382732	
0.834892	1.82953	5	0	-0.065553	0.03588	-0.026812	0.32933	0.04708	0.541851	-0.006075	0.316925	-0.031401	0.447727	-0.000155	0.550618	0.388654	1.03311	0.336818	1.06665	0.13137	0.556008	0.039774	0.638124	-0.046419	0.384471	-0.103085	0.319873	-0.133908	0.286028	-0.113011	0.276582	-0.20469	0.19134	0.151739	-0.029057	
0.839233	1.828	5	0	-0.061149	0.0330023	-0.0235782	0.331635	0.0442395	0.549878	-0.0037725	0.318809	-0.0298795	0.454537	-0.0045105	0.562928	0.389553	1.04586	0.346291	1.07556	0.132348	0.565209	0.034871	0.651981	-0.0484702	0.390268	-0.105449	0.326555	-0.135182	0.289628	-0.109354	0.278137	-0.201676	0.182822	0.151739	-0.029057	
0.843056	1.83258	5	0	-0.056745	0.0301245	-0.0203445	0.33394	0.041399	0.557906	-0.00147	0.320693	-0.028358	0.461348	-0.008866	0.575237	0.390452	1.05862	0.355765	1.08447	0.133327	0.57441	0.029968	0.665837	-0.0505215	0.396065	-0.107814	0.333237	-0.136456	0.293229	-0.105697	0.279693	-0.198663	0.174305	0.151739	-0.029057	
0.846249	1.83105	5	0	-0.052341	0.0272468	-0.0171108	0.336245	0.0385585	0.565934	0.0008325	0.322578	-0.0268365	0.468158	-0.0132215	0.587546	0.391351	1.07138	0.365239	1.09337	0.134305	0.583612	0.025065	0.679693	-0.0525728	0.401862	-0.110178	0.339919	-0.137729	0.296829	-0.10204	0.281249	-0.195649	0.165788	0.151739	-0.029057	
0.848876	1.83563	5	0	-0.047937	0.024369	-0.013877	0.33855	0.035718	0.573961	0.003135	0.324462	-0.025315	0.474968	-0.017577	0.599856	0.39225	1.08414	0.374712	1.10228	0.135284	0.592813	0.020162	0.69355	-0.054624	0.407659	-0.112542	0.346601	-0.139003	0.300429	-0.098383	0.282804	-0.192635	0.15727	0.151739	-0.029057	
0.851043	1.83716	5	0	-0.0435307	0.0214897	-0.0199852	0.355813	0.0366952	0.583621	-0.00154875	0.337699	-0.0264943	0.489417	-0.011935	0.615136	0.400196	1.09231	0.36949	1.11704	0.139049	0.606127	0.0331045	0.695763	-0.047037	0.41609	-0.105313	0.354737	-0.132692	0.301845	-0.0965415	0.289497	-0.198665	0.174313	0.151739	-0.029057	
0.852856	1.83716	5	0	-0.0391245	0.0186105	-0.0260935	0.373076	0.0376725	0.593281	-0.0062325	0.350936	-0.0276735	0.503866	-0.006293	0.630416	0.408141	1.10049	0.364269	1.1318	0.142815	0.619441	0.046047	0.697976	-0.03945	0.42452	-0.0980835	0.362873	-0.126381	0.30326	-0.0947	0.296189	-0.204696	0.191356	0.151739	-0.029057	
0.854419	1.84173	5	0	-0.0347182	0.0157313	-0.0322018	0.390338	0.0386498	0.60294	-0.0109162	0.364173	-0.0288527	0.518316	-0.000651	0.645695	0.416087	1.10867	0.359047	1.14655	0.146581	0.632755	0.0589895	0.700188	-0.031863	0.432951	-0.0908542	0.371009	-0.12007	0.304675	-0.0928585	0.302882	-0.210727	0.2084	0.151739	-0.029057	
0.85584	1.84936	5	0	-0.030312	0.012852	-0.03831	0.407601	0.039627	0.6126	-0.0156	0.37741	-0.030032	0.532765	0.004991	0.660975	0.424033	1.11685	0.353826	1.16131	0.150346	0.646069	0.071932	0.702401	-0.024276	0.441381	-0.083625	0.379145	-0.113759	0.306091	-0.091017	0.309575	-0.216757	0.225443	0.151739	-0.029057	
0.857223	1.85547	5	0	-0.0354805	0.017885	-0.03831	0.407601	0.037729	0.617964	-0.0132987	0.379302	-0.030032	0.532765	0.004991	0.660975	0.428627	1.1192	0.360306	1.16086	0.150346	0.646069	0.064748	0.709765	-0.024276	0.441381	-0.0824405	0.375797	-0.125171	0.319091	-0.0928357	0.314715	-0.190582	0.208339	0.142426	-0.022972	
0.858605	1.86157	5	0	-0.040649	0.022918	-0.03831	0.407601	0.035831	0.623328	-0.0109975	0.381194	-0.030032	0.532765	0.004991	0.660975	0.43322	1.12156	0.366787	1.16041	0.150346	0.646069	0.057564	0.717129	-0.024276	0.441381	-0.081256	0.372449	-0.136583	0.332091	-0.0946545	0.319855	-0.164406	0.191236	0.133113	-0.016887	
0.859851	1.86767	5	0	-0.0458175	0.027951	-0.03831	0.407601	0.033933	0.628691	-0.00869625	0.383086	-0.030032	0.532765	0.004991	0.660975	0.437813	1.12391	0.373267	1.15997	0.150346	0.646069	0.05038	0.724493	-0.024276	0.441381	-0.0800715	0.369101	-0.147995	0.345092	-0.0964733	0.324995	-0.138231	0.174132	0.123801	-0.010802	
0.860798	1.8753	5	0	-0.050986	0.032984	-0.03831	0.407601	0.032035	0.634055	-0.006395	0.384978	-0.030032	0.532765	0.004991	0.660975	0.442407	1.12627	0.379748	1.15952	0.150346	0.646069	0.043196	0.731857	-0.024276	0.441381	-0.078887	0.365753	-0.159407	0.358092	-0.098292	0.330135	-0.112055	0.157028	0.114488	-0.004717	
0.861284	1.87836	5	0	-0.036998	0.0221882	-0.034907	0.420893	0.033006	0.643741	-0.0049205	0.397614	-0.0285157	0.539603	0.00635275	0.672759	0.44577	1.13211	0.384491	1.164	0.151318	0.655311	0.046692	0.734916	-0.0204785	0.445604	-0.0824422	0.375801	-0.1531	0.359519	-0.100112	0.335278	-0.118097	0.174104	0.116119	-0.00932625	
0.861147	1.88293	5	0	-0.02301	0.0113925	-0.031504	0.434186	0.033977	0.653426	-0.003446	0.410249	-0.0269995	0.546441	0.0077145	0.684542	0.449133	1.13795	0.389234	1.16847	0.15229	0.664554	0.050188	0.737974	-0.016681	0.449826	-0.0859975	0.385849	-0.146793	0.360946	-0.101932	0.340421	-0.124139	0.19118	0.11775	-0.0139355	
0.860225	1.88751	5	0	-0.009022	0.00059675	-0.028101	0.447478	0.034948	0.663111	-0.0019715	0.422884	-0.0254832	0.553279	0.00907625	0.696325	0.452497	1.1438	0.393977	1.17295	0.153262	0.673796	0.053684	0.741033	-0.0128835	0.454048	-0.0895528	0.395896	-0.140486	0.362373	-0.103751	0.345563	-0.130181	0.208255	0.119381	-0.0185448	
0.858357	1.89361	5	0	0.004966	-0.010199	-0.024698	0.46077	0.035919	0.672797	-0.000497	0.43552	-0.023967	0.560117	0.010438	0.708109	0.45586	1.14964	0.39872	1.17743	0.154234	0.683038	0.05718	0.744092	-0.009086	0.458271	-0.093108	0.405944	-0.134179	0.3638	-0.105571	0.350706	-0.136223	0.225331	0.121012	-0.023154	
0.855574	1.89667	5	0	0.004966	-0.010199	-0.0236767	0.457884	0.0340172	0.678172	0.00415525	0.430779	-0.0308895	0.568558	0.0147182	0.711658	0.45339	1.15662	0.39872	1.17743	0.150644	0.705181	0.0582153	0.754114	-0.0142353	0.472823	-0.0936488	0.421772	-0.131702	0.376072	-0.103723	0.369302	-0.136223	0.225331	0.117749	-0.013933	
0.852238	1.90124	5	0	0.004966	-0.010199	-0.0226555	0.454998	0.0321155	0.683547	0.0088075	0.426038	-0.037812	0.576999	0.0189985	0.715206	0.450921	1.1636	0.39872	1.17743	0.147054	0.727325	0.0592505	0.764136	-0.0193845	0.487375	-0.0941895	0.437601	-0.129225	0.388344	-0.101876	0.387898	-0.136223	0.225331	0.114486	-0.004712	
0.848744	1.89972	5	0	0.004966	-0.010199	-0.0216343	0.452112	0.0302138	0.688922	0.0134597	0.421296	-0.0447345	0.58544	0.0232788	0.718755	0.448451	1.17058	0.39872	1.17743	0.143464	0.749468	0.0602857	0.774158	-0.0245338	0.501927	-0.0947302	0.45343	-0.126749	0.400615	-0.100028	0.406494	-0.136223	0.225331	0.111224	0.004509	
0.845488	1.90582	5	0	0.004966	-0.010199	-0.020613	0.449226	0.028312	0.694297	0.018112	0.416555	-0.051657	0.593881	0.027559	0.722304	0.445981	1.17756	0.39872	1.17743	0.139874	0.771611	0.061321	0.78418	-0.029683	0.516479	-0.095271	0.469258	-0.124272	0.412887	-0.09818	0.42509	-0.136223	0.225331	0.107961	0.01373	
0.842866	1.90735	5	0	0.009379	-0.0130825	-0.0173787	0.451551	0.0311815	0.698625	0.017282	0.427312	-0.0474398	0.593085	0.0260977	0.726434	0.444746	1.18105	0.396975	1.18237	0.143574	0.77316	0.0600887	0.787662	-0.0248568	0.517806	-0.0964597	0.472617	-0.124272	0.412887	-0.0972672	0.422511	-0.136223	0.225331	0.117274	0.007645	
0.841273	1.91345	5	0	0.013792	-0.015966	-0.0141445	0.453875	0.034051	0.702953	0.016452	0.438068	-0.0432225	0.592289	0.0246365	0.730563	0.44351	1.18454	0.395229	1.1873	0.147274	0.774709	0.0588565	0.791145	-0.0200305	0.519132	-0.0976485	0.475977	-0.124272	0.412887	-0.0963545	0.419932	-0.136223	0.225331	0.126586	0.00156	
0.841088	1.9165	5	0	0.018205	-0.0188495	-0.0109102	0.4562	0.0369205	0.707281	0.015622	0.448825	-0.0390052	0.591493	0.0231753	0.734693	0.442275	1.18803	0.393483	1.19223	0.150973	0.776258	0.0576243	0.794628	-0.0152042	0.520459	-0.0988373	0.479336	-0.124272	0.412887	-0.0954418	0.417352	-0.136223	0.225331	0.135899	-0.004525	
0.842387	1.91498	5	0	0.022618	-0.021733	-0.007676	0.458525	0.03979	0.711609	0.014792	0.459582	-0.034788	0.590697	0.021714	0.738823	0.441039	1.19153	0.391738	1.19716	0.154673	0.777807	0.056392	0.79811	-0.010378	0.521785	-0.100026	0.482695	-0.124272	0.412887	-0.094529	0.414773	-0.136223	0.225331	0.145212	-0.01061	
0.844991	1.91498	5	0	0.022618	-0.021733	-0.00750825	0.469523	0.0359792	0.722379	0.0131712	0.472577	-0.0393015	0.603453	0.0245327	0.746514	0.438567	1.19851	0.389992	1.2021	0.155633	0.787106	0.0539262	0.805079	-0.008645	0.531866	-0.0904163	0.484169	-0.126833	0.420124	-0.0917813	0.418928	-0.116021	0.225283	0.146844	-0.0152217	
0.84871	1.91955	5	0	0.022618	-0.021733	-0.0073405	0.480522	0.0321685	0.733148	0.0115505	0.485572	-0.043815	0.61621	0.0273515	0.754206	0.436094	1.2055	0.388246	1.20703	0.156593	0.796404	0.0514605	0.812048	-0.006912	0.541947	-0.0808065	0.485644	-0.129393	0.427361	-0.0890335	0.423083	-0.095819	0.225236	0.148476	-0.0198335	
0.853355	1.92261	5	0	0.022618	-0.021733	-0.00717275	0.49152	0.0283578	0.743918	0.00992975	0.498567	-0.0483285	0.628966	0.0301702	0.761898	0.433621	1.21249	0.386499	1.21197	0.157554	0.805702	0.0489948	0.819016	-0.005179	0.552027	-0.0711968	0.487118	-0.131954	0.434598	-0.0862857	0.427238	-0.075617	0.225189	0.150107	-0.0244452	
0.858737	1.92718	5	0	0.022618	-0.021733	-0.007005	0.502518	0.024547	0.754687	0.008309	0.511562	-0.052842	0.641722	0.032989	0.769589	0.431149	1.21948	0.384753	1.2169	0.158514	0.815001	0.046529	0.825985	-0.003446	0.562108	-0.061587	0.488592	-0.134515	0.441835	-0.083538	0.431393	-0.055415	0.225141	0.151739	-0.029057	
0.864667	1.92718	5	0	0.022618	-0.021733	-0.0122853	0.505968	0.02264	0.760077	0.00752325	0.513782	-0.0561553	0.639962	0.0272455	0.770163	0.432385	1.21598	0.380014	1.21242	0.157554	0.805702	0.0489948	0.819016	-0.00724225	0.557859	-0.06461	0.482814	-0.133235	0.438216	-0.0908562	0.428242	-0.104818	0.250842	0.151739	-0.029057	
0.870956	1.92871	5	0	0.022618	-0.021733	-0.0175655	0.509418	0.020733	0.765466	0.0067375	0.516002	-0.0594685	0.638203	0.021502	0.770736	0.433622	1.21249	0.375275	1.20793	0.156593	0.796404	0.0514605	0.812048	-0.0110385	0.553609	-0.067633	0.477036	-0.131954	0.434596	-0.0981745	0.425091	-0.15422	0.276543	0.151739	-0.029057	
0.877405	1.93634	5	0	0.022618	-0.021733	-0.0228458	0.512869	0.018826	0.770855	0.00595175	0.518223	-0.0627817	0.636444	0.0157585	0.77131	0.434859	1.20899	0.370535	1.20344	0.155633	0.787106	0.0539262	0.805079	-0.0148348	0.54936	-0.070656	0.471257	-0.130673	0.430977	-0.105493	0.42194	-0.203623	0.302245	0.151739	-0.029057	
0.883809	1.93939	5	0	0.022618	-0.021733	-0.028126	0.516319	0.016919	0.776245	0.005166	0.520443	-0.066095	0.634684	0.010015	0.771884	0.436095	1.2055	0.365796	1.19895	0.154673	0.777807	0.056392	0.79811	-0.018631	0.54511	-0.073679	0.465479	-0.129393	0.427358	-0.112811	0.418789	-0.253026	0.327946	0.151739	-0.029057	
0.889965	1.94244	5	0	0.0270333	-0.0246182	-0.021658	0.520992	0.0140562	0.784335	0.0058965	0.526798	-0.0651923	0.632133	0.010015	0.771884	0.430267	1.20662	0.365796	1.19895	0.150061	0.778837	0.051665	0.798521	-0.017599	0.542194	-0.0724905	0.46212	-0.128113	0.42374	-0.110987	0.413634	-0.226851	0.310842	0.144057	-0.0275813	
0.895667	1.95007	5	0	0.0314485	-0.0275035	-0.01519	0.525665	0.0111935	0.792426	0.006627	0.533152	-0.0642895	0.629582	0.010015	0.771884	0.424438	1.20775	0.365796	1.19895	0.145448	0.779867	0.046938	0.798933	-0.016567	0.539278	-0.071302	0.458761	-0.126833	0.420123	-0.109163	0.408479	-0.200676	0.293739	0.136376	-0.0261055	
0.900712	1.95465	5	0	0.0358637	-0.0303887	-0.008722	0.530338	0.00833075	0.800516	0.0073575	0.539506	-0.0633867	0.62703	0.010015	0.771884	0.41861	1.20887	0.365796	1.19895	0.140836	0.780898	0.042211	0.799345	-0.015535	0.536362	-0.0701135	0.455401	-0.125552	0.416505	-0.107339	0.403325	-0.1745	0.276635	0.128694	-0.0246297	
0.904894	1.96075	5	0	0.040279	-0.033274	-0.002254	0.535011	0.005468	0.808607	0.008088	0.545861	-0.062484	0.624479	0.010015	0.771884	0.412782	1.20999	0.365796	1.19895	0.136223	0.781928	0.037484	0.799756	-0.014503	0.533446	-0.068925	0.452042	-0.124272	0.412887	-0.105515	0.39817	-0.148325	0.259531	0.121012	-0.023154	
0.908011	1.96686	5	0	0.0314507	-0.0275052	-0.00344175	0.526888	0.00165225	0.806953	0.0042705	0.539817	-0.068204	0.618418	0.01158	0.751816	0.409429	1.20413	0.362804	1.18954	0.131614	0.782957	0.0327605	0.800166	-0.02036	0.535032	-0.0743233	0.452988	-0.126833	0.420124	-0.108252	0.405903	-0.177529	0.285193	0.127062	-0.020018	
0.909915	1.97906	5	0	0.0226225	-0.0217365	-0.0046295	0.518765	-0.0021635	0.805299	0.000453	0.533773	-0.073924	0.612357	0.013145	0.731749	0.406076	1.19827	0.359811	1.18013	0.127005	0.783986	0.028037	0.800576	-0.026217	0.536617	-0.0797215	0.453934	-0.129393	0.427361	-0.110988	0.413637	-0.206732	0.310855	0.133112	-0.016882	
0.910541	1.98212	5	0	0.0137943	-0.0159677	-0.00581725	0.510641	-0.00597925	0.803645	-0.0033645	0.527729	-0.079644	0.606296	0.01471	0.711681	0.402723	1.19241	0.356818	1.17072	0.122396	0.785015	0.0233135	0.800986	-0.032074	0.538203	-0.0851197	0.45488	-0.131954	0.434598	-0.113724	0.42137	-0.235936	0.336517	0.139162	-0.013746	
0.909831	1.98669	5	0	0.004966	-0.010199	-0.007005	0.502518	-0.009795	0.801991	-0.007182	0.521685	-0.085364	0.600235	0.016275	0.691613	0.39937	1.18655	0.353826	1.16131	0.117787	0.786044	0.01859	0.801396	-0.037931	0.539789	-0.090518	0.455826	-0.134515	0.441835	-0.116461	0.429103	-0.265139	0.362179	0.145212	-0.01061	
0.907723	1.98669	5	0	0.004966	-0.010199	-0.0017215	0.499066	-0.008841	0.799295	-0.0056115	0.517246	-0.0877715	0.595936	0.0119968	0.688072	0.388972	1.18531	0.347352	1.16176	0.110402	0.782944	0.015101	0.798327	-0.040691	0.532635	-0.0935378	0.45006	-0.131954	0.434598	-0.119204	0.42495	-0.238964	0.345075	0.146844	-0.0152217	
0.90416	1.98822	5	0	0.004966	-0.010199	0.003562	0.495614	-0.007887	0.796599	-0.004041	0.512807	-0.090179	0.591636	0.0077185	0.684531	0.378573	1.18406	0.340878	1.1622	0.103017	0.779843	0.011612	0.795257	-0.043451	0.525481	-0.0965575	0.444294	-0.129393	0.427361	-0.121947	0.420798	-0.212788	0.327971	0.148476	-0.0198335	
0.899081	1.98822	5	0	0.004966	-0.010199	0.0088455	0.492161	-0.006933	0.793903	-0.0024705	0.508369	-0.0925865	0.587337	0.00344025	0.680989	0.368174	1.18281	0.334405	1.16265	0.095632	0.776743	0.008123	0.792188	-0.046211	0.518328	-0.0995772	0.438528	-0.126833	0.420124	-0.12469	0.416645	-0.186613	0.310868	0.150107	-0.0244452	
0.892427	1.98822	5	0	0.004966	-0.010199	0.014129	0.488709	-0.005979	0.791207	-0.0009	0.50393	-0.094994	0.583038	-0.000838	0.677448	0.357776	1.18157	0.327931	1.1631	0.088247	0.773642	0.004634	0.789119	-0.048971	0.511174	-0.102597	0.432762	-0.124272	0.412887	-0.127433	0.412492	-0.160438	0.293764	0.151739	-0.029057	
0.884329	1.98822	5	0	-0.00825975	-0.001557	0.00663375	0.48694	-0.00979275	0.789555	-0.00936925	0.502644	-0.094994	0.583038	-0.0065695	0.678027	0.351967	1.18268	0.321464	1.16354	0.0864238	0.778795	0.004634	0.789119	-0.0558483	0.515668	-0.104971	0.439472	-0.134422	0.4223	-0.122865	0.411489	-0.160438	0.293764	0.150107	-0.0244453	
0.875314	1.98974	5	0	-0.0214855	0.007085	-0.0008615	0.485171	-0.0136065	0.787904	-0.0178385	0.501359	-0.094994	0.583038	-0.012301	0.678606	0.346159	1.1838	0.314998	1.16398	0.0846005	0.783949	0.004634	0.789119	-0.0627255	0.520161	-0.107345	0.446182	-0.144571	0.431713	-0.118298	0.410485	-0.160438	0.293764	0.148476	-0.0198335	
0.865965	1.9928	5	0	-0.0347112	0.015727	-0.00835675	0.483401	-0.0174202	0.786253	-0.0263078	0.500073	-0.094994	0.583038	-0.0180325	0.679185	0.340351	1.18492	0.308531	1.16443	0.0827772	0.789102	0.004634	0.789119	-0.0696028	0.524655	-0.10972	0.452891	-0.154721	0.441127	-0.11373	0.409481	-0.160438	0.293764	0.146844	-0.0152218	
0.85686	1.98974	5	0	-0.047937	0.024369	-0.015852	0.481632	-0.021234	0.784601	-0.034777	0.498787	-0.094994	0.583038	-0.023764	0.679764	0.334542	1.18603	0.302065	1.16487	0.080954	0.794255	0.004634	0.789119	-0.07648	0.529149	-0.112094	0.459601	-0.164871	0.45054	-0.109163	0.408478	-0.160438	0.293764	0.145212	-0.01061	
0.848581	1.99127	5	0	-0.047937	0.024369	-0.019085	0.479303	-0.0259978	0.785643	-0.0385878	0.492762	-0.0974007	0.578743	-0.026579	0.672114	0.329971	1.18367	0.303804	1.15995	0.0763127	0.783431	0.00709425	0.782166	-0.0792345	0.522003	-0.112738	0.447133	-0.168614	0.441867	-0.109175	0.396608	-0.154384	0.276656	0.146844	-0.0152217	
0.841708	1.9928	5	0	-0.047937	0.024369	-0.022318	0.476975	-0.0307615	0.786685	-0.0423985	0.486737	-0.0998075	0.574448	-0.029394	0.664464	0.3254	1.1813	0.305544	1.15504	0.0716715	0.772608	0.0095545	0.775213	-0.081989	0.514857	-0.113383	0.434666	-0.172357	0.433195	-0.109187	0.384737	-0.148331	0.259548	0.148476	-0.0198335	
0.836801	1.98669	5	0	-0.047937	0.024369	-0.025551	0.474647	-0.0355252	0.787727	-0.0462093	0.480711	-0.102214	0.570154	-0.032209	0.656813	0.320828	1.17893	0.307283	1.15012	0.0670302	0.761784	0.0120147	0.768261	-0.0847435	0.507711	-0.114028	0.422199	-0.1761	0.424522	-0.1092	0.372866	-0.142277	0.242439	0.150107	-0.0244452	
0.833958	1.98822	5	0	-0.047937	0.024369	-0.028784	0.472318	-0.040289	0.788769	-0.05002	0.474686	-0.104621	0.565859	-0.035024	0.649163	0.316257	1.17657	0.309023	1.14521	0.062389	0.75096	0.014475	0.761308	-0.087498	0.500565	-0.114672	0.409731	-0.179843	0.415849	-0.109212	0.360996	-0.136223	0.225331	0.151739	-0.029057	
0.832816	1.98669	5	0	-0.057505	0.0322765	-0.0277625	0.469431	-0.0393362	0.786076	-0.053099	0.474996	-0.105521	0.568402	-0.0364792	0.653276	0.309227	1.18116	0.307283	1.15012	0.062389	0.75096	0.014475	0.761308	-0.0854412	0.494753	-0.114672	0.409731	-0.169705	0.406447	-0.112868	0.35943	-0.162399	0.242434	0.151739	-0.029057	
0.832994	1.99127	5	0	-0.067073	0.040184	-0.026741	0.466544	-0.0383835	0.783384	-0.056178	0.475306	-0.106421	0.570945	-0.0379345	0.657388	0.302198	1.18575	0.305544	1.15504	0.062389	0.75096	0.014475	0.761308	-0.0833845	0.488941	-0.114672	0.409731	-0.159566	0.397046	-0.116523	0.357864	-0.188574	0.259538	0.151739	-0.029057	
0.834112	1.98974	5	0	-0.076641	0.0480915	-0.0257195	0.463657	-0.0374307	0.780691	-0.059257	0.475617	-0.10732	0.573489	-0.0393898	0.661501	0.295169	1.19035	0.303804	1.15995	0.062389	0.75096	0.014475	0.761308	-0.0813278	0.483128	-0.114672	0.409731	-0.149427	0.387644	-0.120178	0.356297	-0.21475	0.276641	0.151739	-0.029057	
0.835788	1.98517	5	0	-0.086209	0.055999	-0.024698	0.46077	-0.036478	0.777998	-0.062336	0.475927	-0.10822	0.576032	-0.040845	0.665613	0.288139	1.19494	0.302065	1.16487	0.062389	0.75096	0.014475	0.761308	-0.079271	0.477316	-0.114672	0.409731	-0.139289	0.378242	-0.123834	0.354731	-0.240925	0.293745	0.151739	-0.029057	
0.837642	1.98669	5	0	-0.0898465	0.05672	-0.0269093	0.455561	-0.0402862	0.776348	-0.0645783	0.465492	-0.114827	0.572532	-0.0422047	0.653863	0.284807	1.1891	0.293866	1.17023	0.0604727	0.732466	0.0122145	0.754775	-0.084785	0.463074	-0.119524	0.394898	-0.144318	0.373205	-0.128412	0.343898	-0.237903	0.285203	0.15337	-0.0336665	
0.839333	1.98669	5	0	-0.093484	0.057441	-0.0291205	0.450352	-0.0440945	0.774698	-0.0668205	0.455056	-0.121435	0.569031	-0.0435645	0.642114	0.281476	1.18325	0.285666	1.17559	0.0585565	0.713971	0.009954	0.748242	-0.090299	0.448832	-0.124375	0.380064	-0.149348	0.368167	-0.132991	0.333066	-0.23488	0.276662	0.155001	-0.038276	
0.840828	1.98822	5	0	-0.0971215	0.058162	-0.0313318	0.445143	-0.0479028	0.773047	-0.0690627	0.44462	-0.128042	0.565531	-0.0449242	0.630364	0.278144	1.1774	0.277466	1.18094	0.0566403	0.695477	0.0076935	0.74171	-0.095813	0.43459	-0.129226	0.365231	-0.154378	0.363129	-0.13757	0.322233	-0.231857	0.26812	0.156632	-0.0428855	
0.842231	1.98364	5	0	-0.100759	0.058883	-0.033543	0.439934	-0.051711	0.771397	-0.071305	0.434185	-0.134649	0.562031	-0.046284	0.618614	0.274813	1.17156	0.269267	1.1863	0.054724	0.676983	0.005433	0.735177	-0.101327	0.420348	-0.134078	0.350397	-0.159407	0.358092	-0.142148	0.3114	-0.228835	0.259578	0.158263	-0.047495	
0.843648	1.98059	5	0	-0.101521	0.0610368	-0.0325228	0.437051	-0.050759	0.768707	-0.0689605	0.427559	-0.13375	0.559491	-0.052002	0.619194	0.274813	1.17156	0.267527	1.19122	0.0574455	0.669292	0.00420475	0.738649	-0.104083	0.413244	-0.131715	0.343718	-0.165707	0.356665	-0.149445	0.308281	-0.222799	0.242518	0.15058	-0.0460168	
0.845181	1.98364	5	0	-0.102283	0.0631905	-0.0315025	0.434167	-0.049807	0.766016	-0.066616	0.420933	-0.132852	0.55695	-0.05772	0.619775	0.274813	1.17156	0.265786	1.19614	0.060167	0.661601	0.0029765	0.74212	-0.10684	0.406141	-0.129351	0.337038	-0.172007	0.355237	-0.156743	0.305162	-0.216763	0.225459	0.142898	-0.0445385	
0.846937	1.98059	5	0	-0.103045	0.0653443	-0.0304822	0.431284	-0.048855	0.763326	-0.0642715	0.414307	-0.131953	0.554409	-0.063438	0.620355	0.274813	1.17156	0.264045	1.20106	0.0628885	0.65391	0.00174825	0.745591	-0.109596	0.399037	-0.126988	0.330358	-0.178306	0.35381	-0.16404	0.302043	-0.210726	0.2084	0.135215	-0.0430603	
0.849018	1.97754	5	0	-0.103807	0.067498	-0.029462	0.428401	-0.047903	0.760636	-0.061927	0.407681	-0.131054	0.551869	-0.069156	0.620935	0.274813	1.17156	0.262305	1.20598	0.06561	0.646219	0.00052	0.749063	-0.112353	0.391933	-0.124624	0.323679	-0.184606	0.352383	-0.171337	0.298924	-0.20469	0.19134	0.127532	-0.041582	
0.85145	1.97601	5	0	-0.112599	0.0732433	-0.0338857	0.418007	-0.0507583	0.7563	-0.0664703	0.39539	-0.131661	0.542509	-0.0705173	0.609215	0.265699	1.16683	0.255854	1.20641	0.0564325	0.648277	-0.0041945	0.749475	-0.117155	0.390623	-0.136561	0.328912	-0.185881	0.355988	-0.175889	0.299928	-0.207707	0.199866	0.125902	-0.036975	
0.853941	1.97449	5	0	-0.121391	0.0789885	-0.0383095	0.407613	-0.0536135	0.751964	-0.0710135	0.3831	-0.132269	0.53315	-0.0718785	0.597495	0.256585	1.16211	0.249403	1.20684	0.047255	0.650335	-0.008909	0.749886	-0.121958	0.389313	-0.148498	0.334146	-0.187157	0.359592	-0.18044	0.300932	-0.210724	0.208392	0.124272	-0.032368	
0.856123	1.97449	5	0	-0.130184	0.0847337	-0.0427333	0.39722	-0.0564687	0.747629	-0.0755568	0.37081	-0.132877	0.523791	-0.0732397	0.585775	0.247472	1.15738	0.242952	1.20728	0.0380775	0.652392	-0.0136235	0.750297	-0.12676	0.388003	-0.160434	0.33938	-0.188433	0.363197	-0.184991	0.301935	-0.21374	0.216917	0.122642	-0.027761	
0.857628	1.96991	5	0	-0.138976	0.090479	-0.047157	0.386826	-0.059324	0.743293	-0.0801	0.358519	-0.133484	0.514431	-0.074601	0.574055	0.238358	1.15265	0.236501	1.20771	0.0289	0.65445	-0.018338	0.750709	-0.131563	0.386693	-0.172371	0.344613	-0.189708	0.366802	-0.189543	0.302939	-0.216757	0.225443	0.121012	-0.023154	
0.858088	1.96838	5	0	-0.138976	0.090479	-0.0441042	0.378199	-0.058373	0.740606	-0.0816142	0.35443	-0.136785	0.512689	-0.0803102	0.574637	0.238358	1.15265	0.242952	1.20728	0.0325227	0.644211	-0.0123953	0.746826	-0.135339	0.382493	-0.16883	0.334607	-0.197275	0.368975	-0.190467	0.2937	-0.239836	0.233969	0.121012	-0.023154	
0.857135	1.96991	5	0	-0.138976	0.090479	-0.0410515	0.369571	-0.057422	0.737919	-0.0831285	0.35034	-0.140086	0.510946	-0.0860195	0.575219	0.238358	1.15265	0.249403	1.20684	0.0361455	0.633973	-0.0064525	0.742943	-0.139115	0.378294	-0.16529	0.324601	-0.204842	0.371148	-0.191392	0.284461	-0.262915	0.242495	0.121012	-0.023154	
0.854401	1.9638	5	0	-0.138976	0.090479	-0.0379987	0.360944	-0.056471	0.735232	-0.0846428	0.346251	-0.143386	0.509204	-0.0917287	0.575801	0.238358	1.15265	0.255854	1.20641	0.0397682	0.623735	-0.00050975	0.73906	-0.142891	0.374094	-0.161749	0.314594	-0.212408	0.373321	-0.192317	0.275221	-0.285994	0.25102	0.121012	-0.023154	
0.849772	1.96228	5	0	-0.138976	0.090479	-0.034946	0.352317	-0.05552	0.732545	-0.086157	0.342162	-0.146687	0.507462	-0.097438	0.576383	0.238358	1.15265	0.262305	1.20598	0.043391	0.613496	0.005433	0.735177	-0.146667	0.369894	-0.158209	0.304588	-0.219975	0.375494	-0.193241	0.265982	-0.309073	0.259546	0.121012	-0.023154	
0.843752	1.96075	5	0	-0.142607	0.0911955	-0.0434375	0.353447	-0.05552	0.732545	-0.0900072	0.344678	-0.149379	0.51507	-0.094629	0.583998	0.230123	1.1607	0.258821	1.21582	0.0397682	0.623735	0.00051675	0.749071	-0.142891	0.374094	-0.161749	0.314594	-0.213684	0.376927	-0.188692	0.264977	-0.285994	0.25102	0.117749	-0.013933	
0.836936	1.96075	5	0	-0.146237	0.091912	-0.051929	0.354577	-0.05552	0.732545	-0.0938575	0.347194	-0.152071	0.522679	-0.09182	0.591613	0.221888	1.16875	0.255337	1.22567	0.0361455	0.633973	-0.0043995	0.762965	-0.139115	0.378294	-0.16529	0.324601	-0.207394	0.37836	-0.184142	0.263972	-0.262915	0.242495	0.114486	-0.004712	
0.82992	1.95618	5	0	-0.149868	0.0926285	-0.0604205	0.355708	-0.05552	0.732545	-0.0977077	0.349709	-0.154763	0.530287	-0.089011	0.599228	0.213653	1.1768	0.251853	1.23552	0.0325228	0.644211	-0.00931575	0.77686	-0.135339	0.382493	-0.16883	0.334607	-0.201103	0.379794	-0.179593	0.262966	-0.239836	0.233969	0.111224	0.004509	
0.823299	1.9577	5	0	-0.153499	0.093345	-0.068912	0.356838	-0.05552	0.732545	-0.101558	0.352225	-0.157455	0.537895	-0.086202	0.606843	0.205418	1.18485	0.248369	1.24536	0.0289	0.65445	-0.014232	0.790754	-0.131563	0.386693	-0.172371	0.344613	-0.194812	0.381227	-0.175044	0.261961	-0.216757	0.225443	0.107961	0.01373	
0.817669	1.95465	5	0	-0.153499	0.093345	-0.0741695	0.360274	-0.056471	0.735232	-0.102337	0.354426	-0.153258	0.537103	-0.0876533	0.610944	0.212424	1.18027	0.244881	1.25522	0.0325227	0.644211	-0.00828525	0.786868	-0.129517	0.380911	-0.17119	0.341276	-0.194812	0.381227	-0.177783	0.25785	-0.21374	0.216917	0.117274	0.007645	
0.813588	1.95618	5	0	-0.153499	0.093345	-0.079427	0.363709	-0.057422	0.737919	-0.103116	0.356628	-0.149061	0.536312	-0.0891045	0.615046	0.219431	1.17569	0.241393	1.26508	0.0361455	0.633973	-0.0023385	0.782982	-0.127471	0.375128	-0.17001	0.33794	-0.194812	0.381227	-0.180522	0.253738	-0.210724	0.208392	0.126586	0.00156	
0.811121	1.9516	5	0	-0.153499	0.093345	-0.0846845	0.367144	-0.058373	0.740606	-0.103895	0.35883	-0.144863	0.53552	-0.0905558	0.619147	0.226438	1.17112	0.237906	1.27493	0.0397682	0.623735	0.00360825	0.779097	-0.125425	0.369346	-0.168829	0.334603	-0.194812	0.381227	-0.183261	0.249627	-0.207707	0.199866	0.135899	-0.004525	
0.809991	1.95007	5	0	-0.153499	0.093345	-0.089942	0.37058	-0.059324	0.743293	-0.104674	0.361031	-0.140666	0.534728	-0.092007	0.623248	0.233444	1.16654	0.234418	1.28479	0.043391	0.613496	0.009555	0.775211	-0.123379	0.363564	-0.167649	0.331266	-0.194812	0.381227	-0.186	0.245516	-0.20469	0.19134	0.145212	-0.01061	
0.809916	1.94855	5	0	-0.149106	0.0904747	-0.085528	0.380959	-0.0593255	0.755702	-0.100138	0.373318	-0.138263	0.539013	-0.0921083	0.639101	0.236768	1.17238	0.239125	1.2893	0.0461678	0.617584	0.0118137	0.781757	-0.126448	0.372239	-0.171192	0.34128	-0.197366	0.388443	-0.186905	0.248074	-0.230786	0.208392	0.151269	-0.00747125	
0.810613	1.94855	5	0	-0.144713	0.0876045	-0.081114	0.391338	-0.059327	0.768112	-0.0956015	0.385606	-0.13586	0.543299	-0.0922095	0.654955	0.240092	1.17822	0.243833	1.29381	0.0489445	0.621673	0.0140725	0.788304	-0.129518	0.380914	-0.174735	0.351294	-0.199919	0.39566	-0.18781	0.250632	-0.256881	0.225443	0.157326	-0.0043325	
0.811799	1.94702	5	0	-0.140321	0.0847343	-0.0767	0.401716	-0.0593285	0.780521	-0.0910653	0.397894	-0.133457	0.547584	-0.0923107	0.670809	0.243417	1.18406	0.24854	1.29832	0.0517212	0.625761	0.0163312	0.79485	-0.132587	0.389588	-0.178279	0.361307	-0.202472	0.402876	-0.188715	0.25319	-0.282977	0.242495	0.163382	-0.00119375	
0.813191	1.94397	5	0	-0.135928	0.081864	-0.072286	0.412095	-0.05933	0.79293	-0.086529	0.410181	-0.131054	0.551869	-0.092412	0.686662	0.246741	1.1899	0.253248	1.30283	0.054498	0.629849	0.01859	0.801396	-0.135657	0.398263	-0.181822	0.371321	-0.205026	0.410093	-0.18962	0.255748	-0.309073	0.259546	0.169439	0.001945	
0.814599	1.94397	5	0	-0.13669	0.0840178	-0.0775467	0.415532	-0.0564762	0.797278	-0.08731	0.412388	-0.130155	0.54933	-0.0909575	0.682551	0.245511	1.19338	0.266175	1.30198	0.053592	0.63241	0.01859	0.801396	-0.136681	0.401156	-0.183004	0.374661	-0.201288	0.41876	-0.187788	0.262422	-0.289013	0.259554	0.162897	0.0204347	
0.816074	1.94244	5	0	-0.137452	0.0861715	-0.0828075	0.41897	-0.0536225	0.801625	-0.088091	0.414595	-0.129256	0.54679	-0.089503	0.678441	0.244281	1.19686	0.279102	1.30113	0.052686	0.63497	0.01859	0.801396	-0.137705	0.404049	-0.184186	0.378002	-0.19755	0.427427	-0.185955	0.269096	-0.268954	0.259562	0.156355	0.0389245	
0.817713	1.94244	5	0	-0.138214	0.0883253	-0.0880683	0.422407	-0.0507688	0.805973	-0.088872	0.416802	-0.128358	0.544251	-0.0880485	0.67433	0.24305	1.20033	0.292028	1.30028	0.05178	0.637531	0.01859	0.801396	-0.138728	0.406943	-0.185367	0.381343	-0.193812	0.436095	-0.184123	0.27577	-0.248895	0.25957	0.149812	0.0574143	
0.819609	1.93939	5	0	-0.138976	0.090479	-0.093329	0.425845	-0.047915	0.810321	-0.089653	0.419009	-0.127459	0.541711	-0.086594	0.670219	0.24182	1.20381	0.304955	1.29943	0.050874	0.640092	0.01859	0.801396	-0.139752	0.409836	-0.186549	0.384683	-0.190074	0.444762	-0.182291	0.282444	-0.228835	0.259578	0.14327	0.075904	
0.821856	1.93939	5	0	-0.134581	0.087607	-0.0858607	0.427606	-0.0460145	0.817371	-0.08663	0.427223	-0.125054	0.545999	-0.0823332	0.673757	0.245144	1.20966	0.303206	1.30437	0.049061	0.645215	0.0161262	0.80836	-0.142825	0.418522	-0.187731	0.388025	-0.191354	0.448378	-0.188653	0.28857	-0.228835	0.259578	0.150965	0.074434	
0.824548	1.93786	5	0	-0.130186	0.084735	-0.0783925	0.429367	-0.044114	0.824421	-0.083607	0.435437	-0.12265	0.550287	-0.0780725	0.677295	0.248468	1.21552	0.301457	1.30931	0.047248	0.650339	0.0136625	0.815323	-0.145899	0.427208	-0.188914	0.391367	-0.192633	0.451994	-0.195014	0.294696	-0.228835	0.259578	0.158661	0.072964	
0.827771	1.93634	5	0	-0.125791	0.081863	-0.0709242	0.431128	-0.0422135	0.831471	-0.080584	0.443651	-0.120246	0.554574	-0.0738118	0.680832	0.251793	1.22137	0.299708	1.31426	0.045435	0.655463	0.0111988	0.822287	-0.148972	0.435894	-0.190097	0.394708	-0.193912	0.455611	-0.201376	0.300822	-0.228835	0.259578	0.166356	0.071494	
0.831437	1.93786	5	0	-0.121396	0.078991	-0.063456	0.432889	-0.040313	0.838521	-0.077561	0.451865	-0.117841	0.558862	-0.069551	0.68437	0.255117	1.22722	0.297959	1.3192	0.043622	0.660586	0.008735	0.82925	-0.152046	0.44458	-0.191279	0.39805	-0.195192	0.459227	-0.207737	0.306948	-0.228835	0.259578	0.174051	0.070024	
0.8353	1.93329	5	0	-0.125791	0.081863	-0.0697395	0.43921	-0.044134	0.84932	-0.0814742	0.462925	-0.12144	0.569033	-0.0711198	0.704397	0.257209	1.23657	0.300928	1.32867	0.0473573	0.673925	0.0097565	0.839302	-0.151352	0.457502	-0.190641	0.410493	-0.188893	0.460674	-0.20591	0.313637	-0.231857	0.26812	0.180117	0.073183	
0.839104	1.93024	5	0	-0.130186	0.084735	-0.076023	0.445531	-0.047955	0.860119	-0.0853875	0.473984	-0.125039	0.579205	-0.0726885	0.724423	0.259301	1.24592	0.303897	1.33815	0.0510925	0.687263	0.010778	0.849354	-0.150658	0.470423	-0.190003	0.422936	-0.182593	0.462122	-0.204083	0.320326	-0.23488	0.276662	0.186182	0.076342	
0.842595	1.93329	5	0	-0.134581	0.087607	-0.0823065	0.451852	-0.051776	0.870917	-0.0893008	0.485044	-0.128638	0.589376	-0.0742572	0.744449	0.261393	1.25527	0.306867	1.34762	0.0548277	0.700601	0.0117995	0.859406	-0.149964	0.483344	-0.189366	0.435379	-0.176293	0.46357	-0.202256	0.327014	-0.237903	0.285203	0.192247	0.079501	
0.84552	1.93176	5	0	-0.138976	0.090479	-0.08859	0.458173	-0.055597	0.881716	-0.093214	0.496103	-0.132237	0.599548	-0.075826	0.764476	0.263485	1.26462	0.309836	1.3571	0.058563	0.71394	0.012821	0.869458	-0.14927	0.496266	-0.188728	0.447822	-0.169994	0.465017	-0.200429	0.333703	-0.240925	0.293745	0.198313	0.08266	
0.847624	1.93024	5	0	-0.138214	0.0883253	-0.08859	0.458173	-0.056553	0.884418	-0.0947807	0.500531	-0.132237	0.599548	-0.077286	0.768602	0.268046	1.267	0.309836	1.3571	0.06038	0.708805	0.014055	0.86597	-0.148243	0.493364	-0.192916	0.445411	-0.177574	0.467187	-0.204069	0.332139	-0.263998	0.302255	0.190609	0.0841318	
0.848688	1.92871	5	0	-0.137452	0.0861715	-0.08859	0.458173	-0.057509	0.88712	-0.0963475	0.504958	-0.132237	0.599548	-0.078746	0.772728	0.272606	1.26938	0.309836	1.3571	0.062197	0.703669	0.015289	0.862483	-0.147217	0.490463	-0.197103	0.443001	-0.185153	0.469357	-0.20771	0.330576	-0.287072	0.310764	0.182905	0.0856035	
0.848803	1.93024	5	0	-0.13669	0.0840178	-0.08859	0.458173	-0.058465	0.889821	-0.0979143	0.509386	-0.132237	0.599548	-0.080206	0.776853	0.277167	1.27177	0.309836	1.3571	0.064014	0.698533	0.016523	0.858995	-0.14619	0.487561	-0.201291	0.44059	-0.192733	0.471528	-0.21135	0.329012	-0.310145	0.319274	0.175201	0.0870752	
0.848221	1.93024	5	0	-0.135928	0.081864	-0.08859	0.458173	-0.059421	0.892523	-0.099481	0.513814	-0.132237	0.599548	-0.081666	0.780979	0.281728	1.27415	0.309836	1.3571	0.065831	0.693398	0.017757	0.855507	-0.145163	0.484659	-0.205479	0.438179	-0.200313	0.473698	-0.214991	0.327448	-0.333218	0.327784	0.167497	0.088547	
0.847197	1.92871	5	0	-0.13669	0.0840178	-0.094714	0.47548	-0.0584845	0.902306	-0.0949588	0.526198	-0.130736	0.606396	-0.073141	0.788111	0.28382	1.28352	0.31456	1.36163	0.0676998	0.700075	0.0224822	0.855101	-0.142417	0.491793	-0.201291	0.44059	-0.202875	0.480938	-0.212258	0.331577	-0.310145	0.319274	0.165857	0.0931802	
0.845983	1.92718	5	0	-0.137452	0.0861715	-0.100838	0.492788	-0.057548	0.912089	-0.0904365	0.538582	-0.129235	0.613244	-0.064616	0.795244	0.285912	1.2929	0.319283	1.36616	0.0695685	0.706753	0.0272075	0.854695	-0.139671	0.498927	-0.197103	0.443001	-0.205436	0.488178	-0.209525	0.335706	-0.287072	0.310764	0.164218	0.0978135	
0.844834	1.92413	5	0	-0.138214	0.0883253	-0.106962	0.510095	-0.0566115	0.921872	-0.0859142	0.550965	-0.127734	0.620092	-0.056091	0.802377	0.288004	1.30227	0.324007	1.3707	0.0714372	0.71343	0.0319328	0.854288	-0.136925	0.50606	-0.192916	0.445411	-0.207998	0.495419	-0.206792	0.339835	-0.263998	0.302255	0.162579	0.102447	
0.844005	1.92871	5	0	-0.138976	0.090479	-0.113086	0.527403	-0.055675	0.931655	-0.081392	0.563349	-0.126233	0.62694	-0.047566	0.809509	0.290096	1.31164	0.328731	1.37523	0.073306	0.720108	0.036658	0.853882	-0.134179	0.513194	-0.188728	0.447822	-0.21056	0.502659	-0.204059	0.343964	-0.240925	0.293745	0.160939	0.10708	
0.843705	1.92871	5	0	-0.138976	0.090479	-0.112065	0.524516	-0.0575908	0.937069	-0.0821775	0.565569	-0.132239	0.632823	-0.056218	0.818342	0.292186	1.32104	0.326976	1.38019	0.069707	0.742246	0.0269935	0.868248	-0.140353	0.530642	-0.201214	0.468865	-0.206829	0.511367	-0.21224	0.367084	-0.276106	0.336471	0.157658	0.116354	
0.843973	1.92413	5	0	-0.138976	0.090479	-0.111043	0.521629	-0.0595065	0.942484	-0.082963	0.567789	-0.138244	0.638706	-0.06487	0.827175	0.294276	1.33043	0.325221	1.38515	0.066108	0.764383	0.017329	0.882613	-0.146527	0.548091	-0.213701	0.489907	-0.203099	0.520075	-0.22042	0.390203	-0.311286	0.379198	0.154376	0.125628	
0.844799	1.92413	5	0	-0.138976	0.090479	-0.110021	0.518742	-0.0614223	0.947898	-0.0837485	0.570008	-0.14425	0.644588	-0.073522	0.836007	0.296366	1.33982	0.323466	1.39011	0.062509	0.786521	0.0076645	0.896979	-0.1527	0.565539	-0.226187	0.51095	-0.199369	0.528783	-0.228601	0.413322	-0.346467	0.421924	0.151095	0.134901	
0.846177	1.92718	5	0	-0.138976	0.090479	-0.109	0.515855	-0.063338	0.953312	-0.084534	0.572228	-0.150256	0.650471	-0.082174	0.84484	0.298456	1.34921	0.321711	1.39507	0.05891	0.808659	-0.002	0.911344	-0.158874	0.582987	-0.238673	0.531992	-0.195638	0.537491	-0.236782	0.436442	-0.381647	0.464651	0.147814	0.144175	
0.848098	1.91955	5	0	-0.138976	0.090479	-0.107824	0.523968	-0.0662138	0.961439	-0.0815205	0.580506	-0.146956	0.652233	-0.0793792	0.852561	0.306356	1.35752	0.326437	1.39962	0.0616837	0.812793	0.0014865	0.914438	-0.154074	0.584328	-0.233304	0.531063	-0.204498	0.543281	-0.233144	0.438021	-0.381647	0.464651	0.153872	0.147353	
0.850554	1.92566	5	0	-0.138976	0.090479	-0.106648	0.532082	-0.0690895	0.969566	-0.078507	0.588785	-0.143655	0.653995	-0.0765845	0.860282	0.314256	1.36583	0.331163	1.40416	0.0644575	0.816928	0.004973	0.917532	-0.149274	0.585669	-0.227935	0.530134	-0.213359	0.54907	-0.229507	0.439601	-0.381647	0.464651	0.159931	0.150531	
0.853538	1.92718	5	0	-0.138976	0.090479	-0.105472	0.540196	-0.0719653	0.977694	-0.0754935	0.597063	-0.140354	0.655758	-0.0737898	0.868002	0.322155	1.37414	0.335888	1.40871	0.0672312	0.821063	0.0084595	0.920626	-0.144474	0.587009	-0.222566	0.529206	-0.222219	0.554859	-0.225869	0.44118	-0.381647	0.464651	0.16599	0.15371	
0.857001	1.92566	5	0	-0.138976	0.090479	-0.104296	0.548309	-0.074841	0.985821	-0.07248	0.605341	-0.137054	0.65752	-0.070995	0.875723	0.330055	1.38244	0.340614	1.41325	0.070005	0.825197	0.011946	0.92372	-0.139674	0.58835	-0.217197	0.528277	-0.231079	0.560649	-0.222231	0.442759	-0.381647	0.464651	0.172048	0.156888	
0.860802	1.92566	5	0	-0.143369	0.0933492	-0.112629	0.560423	-0.0777193	0.993956	-0.0772035	0.61869	-0.141568	0.670276	-0.0726065	0.89591	0.336722	1.39429	0.343584	1.42278	0.071897	0.843821	0.0117195	0.937317	-0.140031	0.604276	-0.22433	0.548436	-0.226072	0.565748	-0.222238	0.454646	-0.335447	0.447653	0.151728	0.173737	
0.864784	1.92261	5	0	-0.147761	0.0962195	-0.120963	0.572538	-0.0805975	1.00209	-0.081927	0.63204	-0.146081	0.683032	-0.074218	0.916096	0.343389	1.40613	0.346553	1.4323	0.073789	0.862445	0.011493	0.950914	-0.140387	0.620202	-0.231463	0.568596	-0.221064	0.570847	-0.222245	0.466532	-0.289247	0.430656	0.131408	0.190586	
0.868791	1.92566	5	0	-0.152154	0.0990898	-0.129296	0.584652	-0.0834758	1.01023	-0.0866505	0.645389	-0.150594	0.695789	-0.0758295	0.936283	0.350056	1.41797	0.349523	1.44183	0.075681	0.88107	0.0112665	0.964512	-0.140744	0.636129	-0.238596	0.588755	-0.216056	0.575947	-0.222251	0.478418	-0.243046	0.413658	0.111088	0.207434	
0.872667	1.92261	5	0	-0.156547	0.10196	-0.137629	0.596766	-0.086354	1.01836	-0.091374	0.658738	-0.155108	0.708545	-0.077441	0.956469	0.356723	1.42982	0.352493	1.45135	0.077573	0.899694	0.01104	0.978109	-0.141101	0.652055	-0.245729	0.608915	-0.211049	0.581046	-0.222258	0.490305	-0.196846	0.396661	0.090768	0.224283	
0.876254	1.92108	5	0	-0.155785	0.0998062	-0.144938	0.605992	-0.0873142	1.02107	-0.0898707	0.662893	-0.156011	0.711098	-0.080382	0.964781	0.358813	1.43927	0.34897	1.46131	0.0766575	0.902281	0.00980075	0.981612	-0.141101	0.652055	-0.244539	0.605552	-0.21734	0.579575	-0.225896	0.488719	-0.226061	0.422356	0.101745	0.213539	
0.879396	1.92261	5	0	-0.155023	0.0976525	-0.152247	0.615217	-0.0882745	1.02379	-0.0883675	0.667048	-0.156915	0.713651	-0.083323	0.973092	0.360903	1.44873	0.345448	1.47126	0.075742	0.904869	0.0085615	0.985115	-0.141101	0.652055	-0.243349	0.602189	-0.223631	0.578104	-0.229534	0.487133	-0.255277	0.448051	0.112722	0.202796	
0.882006	1.91955	5	0	-0.154261	0.0954987	-0.159555	0.624443	-0.0892348	1.0265	-0.0868643	0.671202	-0.157819	0.716205	-0.086264	0.981403	0.362992	1.45818	0.341925	1.48122	0.0748265	0.907456	0.00732225	0.988618	-0.141101	0.652055	-0.242159	0.598825	-0.229923	0.576633	-0.233172	0.485547	-0.284492	0.473746	0.123698	0.192053	
0.88418	1.92261	5	0	-0.153499	0.093345	-0.166864	0.633668	-0.090195	1.02921	-0.085361	0.675357	-0.158722	0.718758	-0.089205	0.989715	0.365082	1.46764	0.338402	1.49117	0.073911	0.910044	0.006083	0.992121	-0.141101	0.652055	-0.240969	0.595462	-0.236214	0.575162	-0.23681	0.483961	-0.313708	0.499441	0.134675	0.181309	
0.886047	1.92413	5	0	-0.153499	0.093345	-0.162491	0.644177	-0.089275	1.03905	-0.0878053	0.690672	-0.157231	0.725642	-0.0864208	0.997491	0.365922	1.48064	0.351392	1.49035	0.075768	0.916793	0.00832925	0.998738	-0.142134	0.654975	-0.243349	0.60219	-0.237499	0.578791	-0.238634	0.489116	-0.310668	0.49085	0.122053	0.1967	
0.887733	1.91955	5	0	-0.153499	0.093345	-0.158118	0.654686	-0.088355	1.04889	-0.0902495	0.705987	-0.155741	0.732526	-0.0836365	1.00527	0.366761	1.49364	0.364383	1.48952	0.077625	0.923542	0.0105755	1.00536	-0.143167	0.657895	-0.24573	0.608917	-0.238783	0.582421	-0.240458	0.494271	-0.307628	0.482259	0.109432	0.212091	
0.889366	1.91955	5	0	-0.153499	0.093345	-0.153745	0.665194	-0.087435	1.05873	-0.0926938	0.721302	-0.154251	0.73941	-0.0808523	1.01304	0.3676	1.50664	0.377373	1.4887	0.079482	0.930292	0.0128217	1.01197	-0.1442	0.660815	-0.248111	0.615645	-0.240068	0.586051	-0.242282	0.499425	-0.304588	0.473667	0.0968105	0.227483	
0.891074	1.91803	5	0	-0.153499	0.093345	-0.149372	0.675703	-0.086515	1.06856	-0.095138	0.736617	-0.15276	0.746294	-0.078068	1.02082	0.36844	1.51964	0.390364	1.48787	0.081339	0.937041	0.015068	1.01859	-0.145233	0.663735	-0.250491	0.622372	-0.241352	0.58968	-0.244106	0.50458	-0.301548	0.465076	0.084189	0.242874	
0.892984	1.92261	5	0	-0.153499	0.093345	-0.151559	0.670445	-0.0855535	1.06585	-0.0935585	0.732153	-0.154251	0.73941	-0.0823238	1.0172	0.374273	1.51855	0.388599	1.49286	0.0739833	0.945832	0.006617	1.02951	-0.153133	0.671142	-0.258238	0.630022	-0.245208	0.600578	-0.247757	0.514899	-0.307631	0.482267	0.0825437	0.247524	
0.895134	1.91955	5	0	-0.153499	0.093345	-0.153746	0.665188	-0.084592	1.06313	-0.091979	0.727689	-0.155741	0.732526	-0.0865795	1.01358	0.380106	1.51745	0.386834	1.49785	0.0666275	0.954623	-0.001834	1.04043	-0.161032	0.678549	-0.265985	0.637671	-0.249064	0.611476	-0.251408	0.525217	-0.313713	0.499457	0.0808985	0.252175	
0.897204	1.91955	5	0	-0.153499	0.093345	-0.155932	0.65993	-0.0836305	1.06041	-0.0903995	0.723225	-0.157231	0.725642	-0.0908352	1.00997	0.385939	1.51635	0.385069	1.50284	0.0592717	0.963414	-0.010285	1.05134	-0.168932	0.685957	-0.273733	0.645321	-0.25292	0.622373	-0.255059	0.535535	-0.319796	0.516648	0.0792532	0.256825	
0.898777	1.91498	5	0	-0.153499	0.093345	-0.158119	0.654672	-0.082669	1.0577	-0.08882	0.718761	-0.158722	0.718758	-0.095091	1.00635	0.391772	1.51525	0.383304	1.50782	0.051916	0.972205	-0.018736	1.06226	-0.176832	0.693364	-0.28148	0.652971	-0.256776	0.633271	-0.25871	0.545854	-0.325879	0.533839	0.077608	0.261475	
0.89944	1.91955	5	0	-0.153499	0.093345	-0.162223	0.66627	-0.0855542	1.06585	-0.08969	0.729631	-0.16053	0.723867	-0.0908352	1.00997	0.39386	1.52475	0.386274	1.5174	0.049163	0.979985	-0.016497	1.0689	-0.177866	0.696286	-0.282671	0.656338	-0.258062	0.636907	-0.25871	0.545854	-0.302749	0.525343	0.0836477	0.264684	
0.898776	1.91803	5	0	-0.153499	0.093345	-0.166326	0.677868	-0.0884395	1.074	-0.09056	0.740501	-0.162337	0.728976	-0.0865795	1.01358	0.395948	1.53425	0.389244	1.52697	0.04641	0.987766	-0.014258	1.07554	-0.1789	0.699208	-0.283863	0.659704	-0.259348	0.640542	-0.25871	0.545854	-0.27962	0.516847	0.0896875	0.267893	
0.896371	1.9165	5	0	-0.153499	0.093345	-0.17043	0.689467	-0.0913248	1.08216	-0.09143	0.75137	-0.164145	0.734085	-0.0823238	1.0172	0.398035	1.54375	0.392215	1.53655	0.043657	0.995547	-0.012019	1.08218	-0.179934	0.70213	-0.285054	0.663071	-0.260635	0.644177	-0.25871	0.545854	-0.25649	0.508351	0.0957272	0.271102	
0.89181	1.91498	5	0	-0.153499	0.093345	-0.174534	0.701065	-0.09421	1.09031	-0.0923	0.76224	-0.165953	0.739194	-0.078068	1.02082	0.400123	1.55325	0.395185	1.54613	0.040904	1.00333	-0.00978	1.08881	-0.180968	0.705052	-0.286245	0.666438	-0.261921	0.647813	-0.25871	0.545854	-0.23336	0.499855	0.101767	0.274311	
0.884816	1.91803	5	0	-0.157889	0.0962138	-0.177742	0.698702	-0.0989725	1.09133	-0.0984592	0.762829	-0.172866	0.747641	-0.0882165	1.03386	0.395115	1.5674	0.389875	1.56113	0.0409125	1.0153	-0.0112785	1.10602	-0.185107	0.716749	-0.292209	0.683291	-0.256923	0.652939	-0.26328	0.558769	-0.265636	0.534199	0.0984702	0.283628	
0.875954	1.9165	5	0	-0.16228	0.0990825	-0.180951	0.696338	-0.103735	1.09236	-0.104619	0.763418	-0.179779	0.756088	-0.098365	1.04689	0.390107	1.58155	0.384566	1.57614	0.040921	1.02727	-0.012777	1.12323	-0.189246	0.728446	-0.298172	0.700144	-0.251924	0.658065	-0.267849	0.571684	-0.297912	0.568543	0.0951735	0.292946	
0.866099	1.91498	5	0	-0.16667	0.101951	-0.184159	0.693974	-0.108497	1.09338	-0.110778	0.764007	-0.186692	0.764536	-0.108513	1.05993	0.385099	1.59571	0.379256	1.59114	0.0409295	1.03925	-0.0142755	1.14044	-0.193384	0.740142	-0.304136	0.716998	-0.246926	0.66319	-0.272419	0.584598	-0.330188	0.602888	0.0918768	0.302263	
0.856129	1.91955	5	0	-0.171061	0.10482	-0.187367	0.691611	-0.11326	1.0944	-0.116937	0.764596	-0.193605	0.772983	-0.118662	1.07296	0.380091	1.60986	0.373947	1.60615	0.040938	1.05122	-0.015774	1.15766	-0.197523	0.751839	-0.310099	0.733851	-0.241928	0.668316	-0.276989	0.597513	-0.362464	0.637232	0.08858	0.31158	
0.846921	1.91955	5	0	-0.171061	0.10482	-0.194677	0.700847	-0.116147	1.10256	-0.123176	0.773827	-0.193605	0.772983	-0.121612	1.0813	0.383423	1.61586	0.376907	1.61577	0.0418575	1.04862	-0.019516	1.16823	-0.196488	0.748913	-0.308905	0.730478	-0.250789	0.674106	-0.280619	0.595911	-0.336288	0.620128	0.08858	0.31158	
0.839352	1.91955	5	0	-0.171061	0.10482	-0.201987	0.710084	-0.119035	1.11072	-0.129416	0.783058	-0.193605	0.772983	-0.124563	1.08964	0.386756	1.62185	0.379868	1.62539	0.042777	1.04602	-0.023258	1.17881	-0.195453	0.745988	-0.307712	0.727105	-0.259649	0.679895	-0.284249	0.59431	-0.310113	0.603025	0.08858	0.31158	
0.834297	1.91498	5	0	-0.171061	0.10482	-0.209298	0.719321	-0.121922	1.11888	-0.135655	0.792289	-0.193605	0.772983	-0.127514	1.09798	0.390088	1.62784	0.382828	1.63501	0.0436965	1.04342	-0.027	1.18938	-0.194417	0.743062	-0.306518	0.723731	-0.26851	0.685685	-0.287878	0.592709	-0.283938	0.585921	0.08858	0.31158	
0.832203	1.91803	5	0	-0.171061	0.10482	-0.216608	0.728557	-0.124809	1.12704	-0.141895	0.80152	-0.193605	0.772983	-0.130464	1.10632	0.39342	1.63384	0.385788	1.64463	0.044616	1.04082	-0.030742	1.19996	-0.193382	0.740136	-0.305324	0.720358	-0.27737	0.691474	-0.291508	0.591107	-0.257762	0.568817	0.08858	0.31158	
0.832512	1.9165	5	0	-0.176211	0.109841	-0.224944	0.740699	-0.128663	1.13793	-0.147437	0.817182	-0.19632	0.780656	-0.127694	1.11414	0.394241	1.64694	0.388747	1.65427	0.0473818	1.04501	-0.0250322	1.2098	-0.195453	0.745988	-0.310101	0.733859	-0.279948	0.698758	-0.293337	0.596275	-0.286992	0.594553	0.0852798	0.320907	
0.834524	1.9165	5	0	-0.181362	0.114863	-0.23328	0.752841	-0.132516	1.14882	-0.152979	0.832844	-0.199036	0.78833	-0.124924	1.12195	0.395062	1.66005	0.391707	1.66391	0.0501475	1.0492	-0.0193225	1.21964	-0.197524	0.751841	-0.314878	0.747359	-0.282525	0.706043	-0.295165	0.601444	-0.316222	0.62029	0.0819795	0.330234	
0.837538	1.9165	5	0	-0.186512	0.119884	-0.241615	0.764982	-0.136369	1.15971	-0.15852	0.848505	-0.201751	0.796003	-0.122155	1.12977	0.395883	1.67315	0.394666	1.67355	0.0529133	1.05339	-0.0136127	1.22948	-0.199594	0.757694	-0.319655	0.76086	-0.285102	0.713327	-0.296994	0.606612	-0.345452	0.646027	0.0786793	0.339561	
0.840854	1.91803	5	0	-0.191662	0.124905	-0.249951	0.777124	-0.140223	1.1706	-0.164062	0.864167	-0.204466	0.803677	-0.119385	1.13759	0.396704	1.68626	0.397625	1.6832	0.055679	1.05758	-0.007903	1.23932	-0.201665	0.763546	-0.324432	0.77436	-0.28768	0.720611	-0.298823	0.61178	-0.374682	0.671763	0.075379	0.348888	
0.843773	1.91803	5	0	-0.191662	0.124905	-0.249951	0.777124	-0.148837	1.18252	-0.165647	0.868647	-0.207757	0.801894	-0.126586	1.14229	0.401294	1.68872	0.397021	1.70293	0.0556702	1.0456	-0.00567225	1.24602	-0.204385	0.756328	-0.3274	0.768514	-0.292666	0.715471	-0.304246	0.603411	-0.371627	0.66313	0.075379	0.348888	
0.845605	1.91803	5	0	-0.191662	0.124905	-0.249951	0.777124	-0.157451	1.19443	-0.167233	0.873127	-0.211047	0.80011	-0.133787	1.147	0.405884	1.69119	0.396417	1.72266	0.0556615	1.03362	-0.0034415	1.25271	-0.207106	0.74911	-0.330368	0.762667	-0.297651	0.71033	-0.30967	0.595042	-0.368573	0.654497	0.075379	0.348888	
0.846067	1.9165	5	0	-0.191662	0.124905	-0.249951	0.777124	-0.166065	1.20635	-0.168818	0.877607	-0.214338	0.798327	-0.140987	1.1517	0.410475	1.69365	0.395812	1.74239	0.0556528	1.02164	-0.00121075	1.25941	-0.209827	0.741892	-0.333336	0.756821	-0.302637	0.70519	-0.315094	0.586673	-0.365519	0.645865	0.075379	0.348888	
0.845369	1.91803	5	0	-0.191662	0.124905	-0.249951	0.777124	-0.174679	1.21826	-0.170403	0.882087	-0.217629	0.796544	-0.148188	1.15641	0.415065	1.69612	0.395208	1.76212	0.055644	1.00966	0.00102	1.26611	-0.212547	0.734674	-0.336304	0.750974	-0.307623	0.700049	-0.320517	0.578304	-0.362464	0.637232	0.075379	0.348888	
0.843749	1.9165	5	0	-0.182883	0.119169	-0.258287	0.789272	-0.169028	1.22716	-0.175163	0.89554	-0.217629	0.796544	-0.145424	1.16424	0.409218	1.69721	0.399321	1.78659	0.0537945	1.00289	0.00074225	1.27991	-0.213582	0.737598	-0.337498	0.754349	-0.315178	0.702188	-0.32414	0.576705	-0.38856	0.654284	0.0770295	0.344223	
0.841448	1.91955	5	0	-0.174104	0.113432	-0.266622	0.801421	-0.163378	1.23606	-0.179924	0.908993	-0.217629	0.796544	-0.14266	1.17208	0.40337	1.6983	0.403433	1.81106	0.051945	0.996117	0.0004645	1.2937	-0.214616	0.740522	-0.338692	0.757723	-0.322732	0.704327	-0.327762	0.575105	-0.414656	0.671335	0.07868	0.339558	
0.838704	1.91498	5	0	-0.165326	0.107696	-0.274958	0.813569	-0.157727	1.24496	-0.184684	0.922446	-0.217629	0.796544	-0.139897	1.17991	0.397523	1.69938	0.407546	1.83553	0.0500955	0.989347	0.00018675	1.3075	-0.21565	0.743445	-0.339886	0.761097	-0.330287	0.706466	-0.331384	0.573506	-0.440751	0.688387	0.0803305	0.334894	
0.835758	1.92261	5	0	-0.156547	0.10196	-0.283293	0.825717	-0.152077	1.25385	-0.189444	0.935899	-0.217629	0.796544	-0.137133	1.18775	0.391675	1.70047	0.411658	1.86001	0.048246	0.982576	-9.1E-05	1.32129	-0.216685	0.746369	-0.34108	0.764472	-0.337842	0.708605	-0.335007	0.571906	-0.466847	0.705438	0.081981	0.330229	
0.832842	1.91955	5	0	-0.156547	0.10196	-0.285457	0.820429	-0.154978	1.26205	-0.190238	0.938143	-0.223301	0.790426	-0.142854	1.18827	0.388346	1.69446	0.418187	1.85963	0.0381307	0.987193	-0.00858925	1.3323	-0.23039	0.755324	-0.356557	0.779777	-0.347962	0.718015	-0.341364	0.578043	-0.466847	0.705438	0.0830627	0.347472	
0.830138	1.91803	5	0	-0.156547	0.10196	-0.28762	0.815141	-0.15788	1.27025	-0.191032	0.940387	-0.228972	0.784309	-0.148575	1.18879	0.385016	1.68844	0.424716	1.85925	0.0280155	0.991809	-0.0170875	1.34331	-0.244095	0.76428	-0.372034	0.795081	-0.358083	0.727426	-0.347722	0.58418	-0.466847	0.705438	0.0841445	0.364715	
0.827799	1.91345	5	0	-0.156547	0.10196	-0.289784	0.809853	-0.160781	1.27845	-0.191826	0.942631	-0.234644	0.778191	-0.154296	1.18932	0.381687	1.68242	0.431245	1.85888	0.0179002	0.996425	-0.0255858	1.35431	-0.2578	0.773235	-0.387512	0.810386	-0.368204	0.736836	-0.354079	0.590316	-0.466847	0.705438	0.0852263	0.381958	
0.825978	1.91803	5	0	-0.156547	0.10196	-0.291947	0.804565	-0.163682	1.28665	-0.19262	0.944875	-0.240316	0.772073	-0.160017	1.18984	0.378358	1.67641	0.437774	1.8585	0.007785	1.00104	-0.034084	1.36532	-0.271505	0.78219	-0.402989	0.825691	-0.378324	0.746246	-0.360436	0.596453	-0.466847	0.705438	0.086308	0.399201	
0.82483	1.91955	5	0	-0.152154	0.0990898	-0.295032	0.813282	-0.158032	1.29558	-0.193521	0.955825	-0.24122	0.774627	-0.164458	1.20239	0.368752	1.68814	0.432398	1.87369	0.00410775	0.99946	-0.03911	1.37952	-0.27254	0.785115	-0.404184	0.829069	-0.384574	0.744736	-0.364964	0.597429	-0.466847	0.705438	0.0906943	0.407127	
0.824506	1.91803	5	0	-0.147761	0.0962195	-0.298116	0.821999	-0.152382	1.30452	-0.194422	0.966775	-0.242123	0.777181	-0.168899	1.21494	0.359146	1.69988	0.427022	1.88888	0.0004305	0.997877	-0.044136	1.39373	-0.273575	0.78804	-0.40538	0.832448	-0.390823	0.743227	-0.369493	0.598405	-0.466847	0.705438	0.0950805	0.415053	
0.82516	1.91803	5	0	-0.143369	0.0933492	-0.301201	0.830716	-0.146732	1.31345	-0.195323	0.977724	-0.243027	0.779736	-0.173341	1.2275	0.349539	1.71162	0.421647	1.90408	-0.00324675	0.996295	-0.049162	1.40793	-0.27461	0.790964	-0.406575	0.835826	-0.397072	0.741717	-0.374022	0.599382	-0.466847	0.705438	0.0994667	0.42298	
0.826844	1.91803	5	0	-0.138976	0.090479	-0.304285	0.839433	-0.141082	1.32238	-0.196224	0.988674	-0.243931	0.78229	-0.177782	1.24005	0.339933	1.72335	0.416271	1.91927	-0.006924	0.994713	-0.054188	1.42213	-0.275645	0.793889	-0.40777	0.839204	-0.403322	0.740207	-0.37855	0.600358	-0.466847	0.705438	0.103853	0.430906	
0.829341	1.92566	5	0	-0.138976	0.090479	-0.310559	0.845768	-0.141167	1.33509	-0.204071	1.00245	-0.243359	0.791743	-0.177998	1.2563	0.341994	1.73294	0.412682	1.92941	-0.006918	1.00667	-0.054493	1.43601	-0.275011	0.806982	-0.408411	0.855227	-0.398361	0.745357	-0.382202	0.610679	-0.466847	0.705438	0.120354	0.445372	
0.832393	1.92718	5	0	-0.138976	0.090479	-0.316832	0.852102	-0.141253	1.34779	-0.211918	1.01622	-0.242786	0.801195	-0.178213	1.27256	0.344056	1.74253	0.409093	1.93955	-0.006912	1.01863	-0.054798	1.44988	-0.274378	0.820074	-0.409051	0.871249	-0.393399	0.750506	-0.385854	0.621	-0.466847	0.705438	0.136856	0.459839	
0.835742	1.93329	5	0	-0.138976	0.090479	-0.323105	0.858436	-0.141338	1.36049	-0.219765	1.02999	-0.242213	0.810648	-0.178428	1.28881	0.346118	1.75211	0.405505	1.9497	-0.006906	1.03059	-0.055103	1.46375	-0.273745	0.833166	-0.409691	0.887271	-0.388437	0.755656	-0.389506	0.631322	-0.466847	0.705438	0.153357	0.474305	
0.839128	1.94855	5	0	-0.138976	0.090479	-0.329379	0.864771	-0.141423	1.3732	-0.227612	1.04377	-0.241641	0.8201	-0.178644	1.30506	0.348179	1.7617	0.401916	1.95984	-0.0069	1.04254	-0.055408	1.47763	-0.273111	0.846259	-0.410332	0.903294	-0.383476	0.760806	-0.393158	0.641643	-0.466847	0.705438	0.169858	0.488771	
0.842293	1.9638	5	0	-0.134581	0.087607	-0.333498	0.876411	-0.142488	1.38868	-0.232394	1.05728	-0.23926	0.824447	-0.177382	1.31716	0.350239	1.7713	0.411388	1.96927	-0.0078185	1.04514	-0.0604517	1.49188	-0.282035	0.856599	-0.416873	0.907568	-0.398539	0.765053	-0.391331	0.636481	-0.463795	0.696813	0.170926	0.506165	
0.844981	1.98974	5	0	-0.130186	0.084735	-0.337616	0.88805	-0.143554	1.40416	-0.237176	1.0708	-0.236878	0.828793	-0.176121	1.32925	0.352298	1.78091	0.420859	1.9787	-0.008737	1.04773	-0.0654955	1.50614	-0.29096	0.866938	-0.423415	0.911843	-0.413603	0.7693	-0.389505	0.631319	-0.460743	0.688189	0.171994	0.523559	
0.846997	2.00806	5	0	-0.125791	0.081863	-0.341734	0.89969	-0.144619	1.41964	-0.241957	1.08431	-0.234497	0.833139	-0.17486	1.34134	0.354357	1.79051	0.430331	1.98814	-0.0096555	1.05033	-0.0705392	1.52039	-0.299884	0.877277	-0.429956	0.916117	-0.428667	0.773547	-0.387678	0.626157	-0.457692	0.679565	0.173061	0.540953	
0.848233	2.03247	5	0	-0.121396	0.078991	-0.345853	0.91133	-0.145684	1.43512	-0.246739	1.09782	-0.232116	0.837486	-0.173598	1.35344	0.356417	1.80012	0.439803	1.99757	-0.010574	1.05293	-0.075583	1.53465	-0.308809	0.887617	-0.436497	0.920391	-0.44373	0.777794	-0.385852	0.620995	-0.45464	0.67094	0.174129	0.558347	
0.848584	2.06451	5	0	-0.0729018	0.047304	-0.350928	0.937069	-0.134386	1.45316	-0.247117	1.12411	-0.233363	0.852093	-0.165359	1.37721	0.358474	1.80974	0.44681	2.0322	-0.008736	1.05971	-0.0689707	1.55505	-0.308192	0.900756	-0.442494	0.93734	-0.445017	0.781432	-0.391335	0.63649	-0.45464	0.67094	0.178527	0.566351	
0.847948	2.09503	5	0	-0.0244075	0.015617	-0.356004	0.962808	-0.123089	1.4712	-0.247496	1.1504	-0.23461	0.866701	-0.157121	1.40098	0.360532	1.81936	0.453817	2.06684	-0.006898	1.0665	-0.0623585	1.57545	-0.307575	0.913895	-0.448492	0.95429	-0.446304	0.785071	-0.396817	0.651986	-0.45464	0.67094	0.182926	0.574355	
0.846221	2.12707	5	0	0.0240867	-0.01607	-0.361079	0.988547	-0.111791	1.48924	-0.247874	1.17669	-0.235857	0.881309	-0.148883	1.42475	0.362589	1.82899	0.460823	2.10147	-0.00506	1.07329	-0.0557462	1.59585	-0.306958	0.927034	-0.454489	0.971239	-0.447592	0.78871	-0.4023	0.667481	-0.45464	0.67094	0.187324	0.582359	
0.8433	2.15607	5	0	0.072581	-0.047757	-0.366154	1.01429	-0.100493	1.50728	-0.248252	1.20298	-0.237104	0.895916	-0.140644	1.44852	0.364646	1.83861	0.46783	2.1361	-0.003222	1.08007	-0.049134	1.61625	-0.306341	0.940173	-0.460486	0.988188	-0.448879	0.792348	-0.407783	0.682977	-0.45464	0.67094	0.191722	0.590363	
0.839108	2.19116	5	0	0.0983863	-0.0629625	-0.368222	1.02013	-0.096795	1.52186	-0.244644	1.21804	-0.233816	0.897714	-0.140892	1.46493	0.360855	1.84932	0.477325	2.14564	-0.00874475	1.09568	-0.0507372	1.63383	-0.311545	0.954878	-0.466495	1.00517	-0.445219	0.801157	-0.409667	0.700124	-0.457692	0.679565	0.189424	0.617314	
0.833905	2.21252	5	0	0.124192	-0.078168	-0.37029	1.02597	-0.093097	1.53645	-0.241037	1.2331	-0.230527	0.899511	-0.141141	1.48135	0.357064	1.86004	0.48682	2.15518	-0.0142675	1.11129	-0.0523405	1.65141	-0.316748	0.969584	-0.472503	1.02215	-0.441559	0.809966	-0.411552	0.717271	-0.460743	0.688189	0.187126	0.644265	
0.82817	2.24457	5	0	0.149997	-0.0933735	-0.372358	1.03182	-0.089399	1.55103	-0.23743	1.24816	-0.227239	0.901308	-0.141389	1.49776	0.353273	1.87075	0.496316	2.16473	-0.0197902	1.1269	-0.0539437	1.66899	-0.321951	0.984289	-0.478512	1.03913	-0.4379	0.818775	-0.413436	0.734419	-0.463795	0.696813	0.184828	0.671215	
0.822387	2.27814	5	0	0.175802	-0.108579	-0.374426	1.03766	-0.085701	1.56561	-0.233822	1.26322	-0.223951	0.903106	-0.141637	1.51417	0.349482	1.88147	0.505811	2.17427	-0.025313	1.14251	-0.055547	1.68657	-0.327155	0.998994	-0.484521	1.05611	-0.43424	0.827584	-0.41532	0.751566	-0.466847	0.705438	0.18253	0.698166	
0.81704	2.29797	5	0	0.180238	-0.111478	-0.374354	1.04886	-0.085815	1.57847	-0.227141	1.27807	-0.222479	0.910042	-0.143398	1.53487	0.351531	1.89113	0.50693	2.18932	-0.0299227	1.15554	-0.05462	1.697	-0.331324	1.01078	-0.48159	1.06204	-0.453151	0.842743	-0.418072	0.759342	-0.466847	0.705438	0.196358	0.700066	
0.812614	2.32086	5	0	0.184674	-0.114376	-0.374282	1.06006	-0.085929	1.59132	-0.22046	1.29291	-0.221008	0.916979	-0.145159	1.55558	0.35358	1.90079	0.50805	2.20437	-0.0345325	1.16856	-0.053693	1.70744	-0.335492	1.02256	-0.47866	1.06798	-0.472061	0.857903	-0.420823	0.767117	-0.466847	0.705438	0.210186	0.701966	
0.80959	2.35138	5	0	0.18911	-0.117275	-0.374211	1.07126	-0.086043	1.60417	-0.213778	1.30776	-0.219536	0.923916	-0.146921	1.57628	0.355629	1.91045	0.50917	2.21943	-0.0391423	1.18159	-0.052766	1.71788	-0.339661	1.03434	-0.47573	1.07391	-0.490971	0.873062	-0.423574	0.774893	-0.466847	0.705438	0.224015	0.703866	
0.808237	2.37732	5	0	0.193546	-0.120174	-0.374139	1.08246	-0.086157	1.61702	-0.207097	1.3226	-0.218064	0.930852	-0.148682	1.59698	0.357678	1.92011	0.510289	2.23448	-0.043752	1.19462	-0.051839	1.72831	-0.34383	1.04612	-0.472799	1.07984	-0.509882	0.888222	-0.426326	0.782669	-0.466847	0.705438	0.237843	0.705766	
0.8083	2.40631	5	0	0.18911	-0.117275	-0.38146	1.09175	-0.091066	1.63089	-0.21193	1.33626	-0.218415	0.942946	-0.14472	1.61727	0.36304	1.93589	0.506651	2.24476	-0.0410268	1.2109	-0.0496425	1.73517	-0.343239	1.05934	-0.471073	1.08918	-0.503658	0.889764	-0.425472	0.792086	-0.495918	0.73107	0.248339	0.717172	
0.809451	2.42767	5	0	0.184674	-0.114376	-0.38878	1.10104	-0.095975	1.64477	-0.216763	1.34992	-0.218765	0.95504	-0.140758	1.63756	0.368401	1.95168	0.503012	2.25504	-0.0383015	1.22719	-0.047446	1.74203	-0.342647	1.07257	-0.469348	1.09853	-0.497434	0.891307	-0.424619	0.801503	-0.524989	0.756703	0.258836	0.728579	
0.811364	2.44446	5	0	0.180238	-0.111478	-0.396101	1.11032	-0.100884	1.65864	-0.221596	1.36358	-0.219115	0.967134	-0.136796	1.65785	0.373763	1.96746	0.499374	2.26533	-0.0355762	1.24347	-0.0452495	1.74889	-0.342056	1.08579	-0.467622	1.10787	-0.49121	0.892849	-0.423766	0.810921	-0.55406	0.782336	0.269332	0.739985	
0.813708	2.46734	5	0	0.175802	-0.108579	-0.403422	1.11961	-0.105793	1.67252	-0.226429	1.37723	-0.219466	0.979228	-0.132834	1.67815	0.379125	1.98325	0.495736	2.27561	-0.032851	1.25976	-0.043053	1.75575	-0.341464	1.09901	-0.465896	1.11722	-0.484986	0.894391	-0.422912	0.820338	-0.583131	0.807968	0.279829	0.751391	
0.816156	2.48566	5	0	0.171369	-0.105682	-0.408666	1.12304	-0.101988	1.6743	-0.226429	1.37723	-0.220377	0.981803	-0.134341	1.68241	0.381169	1.99296	0.492093	2.2859	-0.033776	1.26237	-0.0490665	1.75968	-0.341464	1.09901	-0.477778	1.12237	-0.49121	0.892849	-0.425601	0.816109	-0.580076	0.799335	0.292032	0.758064	
0.81839	2.49939	5	0	0.166935	-0.102785	-0.413911	1.12646	-0.0981835	1.67609	-0.226429	1.37723	-0.221288	0.984378	-0.135848	1.68667	0.383214	2.00267	0.488451	2.2962	-0.034701	1.26499	-0.05508	1.76361	-0.341464	1.09901	-0.48966	1.12751	-0.497434	0.891307	-0.42829	0.811879	-0.577022	0.790703	0.304235	0.764738	
0.820205	2.50702	5	0	0.162501	-0.099888	-0.419156	1.12989	-0.0943787	1.67787	-0.226429	1.37723	-0.222199	0.986952	-0.137356	1.69093	0.385259	2.01238	0.484808	2.30649	-0.035626	1.2676	-0.0610935	1.76754	-0.341464	1.09901	-0.501542	1.13265	-0.503658	0.889764	-0.430979	0.80765	-0.573967	0.78207	0.316439	0.771411	
0.82148	2.51465	5	0	0.158068	-0.096991	-0.4244	1.13332	-0.090574	1.67966	-0.226429	1.37723	-0.22311	0.989527	-0.138863	1.69518	0.387303	2.0221	0.481165	2.31679	-0.036551	1.27022	-0.067107	1.77147	-0.341464	1.09901	-0.513424	1.1378	-0.509882	0.888222	-0.433668	0.80342	-0.570913	0.773437	0.328642	0.778084	
0.822095	2.52075	5	0	1.62405	-1.05489	-0.426474	1.13918	-0.082956	1.68323	-0.232731	1.38661	-0.21982	0.991338	-0.128872	1.69849	0.387303	2.0221	0.503829	2.32578	-0.035626	1.2676	-0.0636407	1.77473	-0.348319	1.10349	-0.512219	1.13439	-0.508592	0.884576	-0.435505	0.808611	-0.567861	0.764813	0.31307	0.780932	
0.821929	2.53296	5	0	3.09002	-2.01279	-0.428548	1.14504	-0.075338	1.6868	-0.239034	1.39598	-0.216529	0.993148	-0.118881	1.7018	0.387303	2.0221	0.526494	2.33477	-0.034701	1.26499	-0.0601745	1.778	-0.355174	1.10797	-0.511013	1.13098	-0.507302	0.88093	-0.437341	0.813802	-0.564809	0.756188	0.297497	0.78378	
0.820861	2.54211	5	0	4.556	-2.97069	-0.430623	1.1509	-0.06772	1.69037	-0.245337	1.40536	-0.213238	0.994959	-0.10889	1.7051	0.387303	2.0221	0.549158	2.34375	-0.033776	1.26237	-0.0567083	1.78127	-0.362029	1.11245	-0.509807	1.12758	-0.506012	0.877284	-0.439178	0.818992	-0.561758	0.747564	0.281925	0.786627	
0.818772	2.54516	5	0	6.02198	-3.9286	-0.432697	1.15677	-0.060102	1.69395	-0.251639	1.41473	-0.209948	0.99677	-0.098899	1.70841	0.387303	2.0221	0.571822	2.35274	-0.032851	1.25976	-0.053242	1.78454	-0.368884	1.11693	-0.508602	1.12417	-0.504722	0.873638	-0.441015	0.824183	-0.558706	0.738939	0.266353	0.789475	
0.815647	2.55279	5	0	6.22958	-4.06425	-0.433791	1.14847	-0.0591178	1.69116	-0.250026	1.41018	-0.216527	0.99315	-0.103142	1.70462	0.379406	2.01345	0.567061	2.34791	-0.0420412	1.26174	-0.0627178	1.7852	-0.374689	1.11845	-0.515138	1.12844	-0.514809	0.883032	-0.443772	0.831975	-0.561758	0.747564	0.250819	0.792305	
0.811797	2.55585	5	0	6.43718	-4.1999	-0.434886	1.14018	-0.0581335	1.68838	-0.248413	1.40562	-0.223106	0.989529	-0.107386	1.70084	0.371508	2.0048	0.562299	2.34308	-0.0512315	1.26373	-0.0721935	1.78586	-0.380494	1.11998	-0.521675	1.13271	-0.524896	0.892426	-0.446529	0.839766	-0.564809	0.756188	0.235285	0.795136	
0.807598	2.5589	5	0	6.64478	-4.33555	-0.43598	1.13188	-0.0571492	1.6856	-0.2468	1.40106	-0.229685	0.985909	-0.11163	1.69705	0.363611	1.99616	0.557538	2.33825	-0.0604217	1.26572	-0.0816692	1.78651	-0.386299	1.1215	-0.528211	1.13698	-0.534983	0.90182	-0.449286	0.847557	-0.567861	0.764813	0.219751	0.797967	
0.803424	2.565	5	0	6.85239	-4.4712	-0.437075	1.12359	-0.056165	1.68282	-0.245187	1.3965	-0.236264	0.982289	-0.115873	1.69327	0.355713	1.98751	0.552777	2.33342	-0.069612	1.2677	-0.091145	1.78717	-0.392104	1.12302	-0.534747	1.14125	-0.54507	0.911214	-0.452043	0.855349	-0.570913	0.773437	0.204217	0.800797	
0.79965	2.57263	5	0	6.40698	-4.18182	-0.433968	1.11481	-0.0589925	1.67826	-0.245845	1.38992	-0.237731	0.975337	-0.120113	1.68949	0.359519	1.97676	0.549843	2.32344	-0.0760185	1.26185	-0.0967918	1.77704	-0.401612	1.12016	-0.544191	1.13957	-0.549989	0.906023	-0.459246	0.85207	-0.567861	0.764813	0.196464	0.802206	
0.79665	2.57568	5	0	5.96157	-3.89243	-0.430862	1.10603	-0.06182	1.67369	-0.246503	1.38335	-0.239197	0.968386	-0.124354	1.68571	0.363325	1.966	0.54691	2.31346	-0.082425	1.256	-0.102439	1.76692	-0.411119	1.1173	-0.553636	1.13789	-0.554908	0.900832	-0.466449	0.848791	-0.564809	0.756188	0.188712	0.803615	
0.794764	2.58026	5	0	5.51616	-3.60305	-0.427756	1.09725	-0.0646475	1.66913	-0.247161	1.37678	-0.240664	0.961434	-0.128594	1.68193	0.367132	1.95524	0.543977	2.30348	-0.0888315	1.25015	-0.108085	1.75679	-0.420627	1.11444	-0.56308	1.13621	-0.559827	0.895641	-0.473653	0.845512	-0.561758	0.747564	0.180959	0.805024	
0.794	2.58179	5	0	5.07074	-3.31366	-0.424649	1.08847	-0.067475	1.66456	-0.247819	1.3702	-0.24213	0.954482	-0.132834	1.67815	0.370938	1.94448	0.541043	2.29351	-0.095238	1.2443	-0.113732	1.74666	-0.430134	1.11158	-0.572525	1.13453	-0.564746	0.89045	-0.480856	0.842233	-0.558706	0.738939	0.173206	0.806433	
0.794178	2.58484	5	0	4.74873	-3.1016	-0.438285	1.09288	-0.0780373	1.66933	-0.259303	1.36896	-0.247234	0.957817	-0.131328	1.67389	0.363821	1.94913	0.524971	2.28423	-0.100746	1.2479	-0.126632	1.74406	-0.429091	1.10863	-0.571321	1.13113	-0.572236	0.892545	-0.485372	0.843189	-0.581595	0.747271	0.179275	0.809783	
0.795118	2.59094	5	0	4.42671	-2.88953	-0.451921	1.09729	-0.0885995	1.67409	-0.270787	1.36772	-0.252339	0.961153	-0.129821	1.66963	0.356704	1.95378	0.508899	2.27495	-0.106253	1.2515	-0.139532	1.74145	-0.428048	1.10568	-0.570118	1.12773	-0.579727	0.89464	-0.489888	0.844145	-0.604485	0.755603	0.185343	0.813133	
0.796638	2.59094	5	0	4.1047	-2.67746	-0.465556	1.10171	-0.0991617	1.67886	-0.28227	1.36648	-0.257443	0.964488	-0.128314	1.66537	0.349587	1.95843	0.492826	2.26567	-0.11176	1.2551	-0.152431	1.73885	-0.427004	1.10274	-0.568914	1.12433	-0.587217	0.896734	-0.494404	0.845101	-0.627374	0.763936	0.191412	0.816484	
0.798558	2.59094	5	0	3.78268	-2.46539	-0.479192	1.10612	-0.109724	1.68363	-0.293754	1.36524	-0.262547	0.967823	-0.126808	1.66111	0.34247	1.96308	0.476754	2.25639	-0.117268	1.2587	-0.165331	1.73624	-0.425961	1.09979	-0.56771	1.12093	-0.594707	0.898829	-0.49892	0.846057	-0.650263	0.772268	0.197481	0.819834	
0.800696	2.59704	5	0	3.54058	-2.30885	-0.480286	1.09785	-0.111562	1.67629	-0.294266	1.34986	-0.267293	0.959076	-0.132277	1.64508	0.340427	1.95341	0.473828	2.24646	-0.119975	1.24244	-0.162448	1.71509	-0.433371	1.09105	-0.573536	1.10907	-0.600901	0.897281	-0.510615	0.843732	-0.647217	0.76366	0.200848	0.810318	
0.802786	2.59857	5	0	3.29848	-2.15232	-0.48138	1.08958	-0.1134	1.66895	-0.294778	1.33448	-0.272039	0.95033	-0.137745	1.62905	0.338384	1.94373	0.470903	2.23653	-0.122681	1.22618	-0.159564	1.69394	-0.440781	1.08231	-0.579363	1.0972	-0.607096	0.895733	-0.52231	0.841408	-0.644172	0.755052	0.204215	0.800802	
0.804431	2.59857	5	0	3.05638	-1.99578	-0.482474	1.08131	-0.115237	1.66162	-0.295289	1.3191	-0.276786	0.941584	-0.143213	1.61301	0.336341	1.93405	0.467977	2.2266	-0.125388	1.20992	-0.156681	1.67279	-0.448192	1.07357	-0.585189	1.08534	-0.61329	0.894185	-0.534005	0.839083	-0.641126	0.746445	0.207582	0.791287	
0.80522	2.59552	5	0	2.81428	-1.83924	-0.483568	1.07305	-0.117075	1.65428	-0.295801	1.30372	-0.281532	0.932837	-0.148682	1.59698	0.334298	1.92438	0.465051	2.21667	-0.128095	1.19366	-0.153798	1.65164	-0.455602	1.06483	-0.591015	1.07348	-0.619485	0.892637	-0.5457	0.836759	-0.63808	0.737837	0.210949	0.781771	
0.804743	2.59399	5	0	2.63813	-1.72249	-0.483568	1.07305	-0.116094	1.65151	-0.298868	1.30398	-0.278809	0.925142	-0.158648	1.59371	0.320587	1.91685	0.473426	2.2112	-0.131728	1.18005	-0.158513	1.65197	-0.457225	1.05459	-0.595126	1.07095	-0.616912	0.885364	-0.543867	0.831579	-0.66394	0.754734	0.203196	0.783183	
0.80259	2.59247	5	0	2.46198	-1.60573	-0.483568	1.07305	-0.115112	1.64873	-0.301934	1.30424	-0.276086	0.917446	-0.168613	1.59044	0.306876	1.90933	0.481802	2.20573	-0.135361	1.16644	-0.163228	1.65231	-0.458847	1.04435	-0.599237	1.06842	-0.614338	0.878092	-0.542034	0.826399	-0.689799	0.771632	0.195442	0.784594	
0.798352	2.58636	5	0	2.28583	-1.48897	-0.483568	1.07305	-0.11413	1.64596	-0.305001	1.3045	-0.273363	0.909751	-0.178579	1.58717	0.293165	1.9018	0.490178	2.20026	-0.138994	1.15282	-0.167944	1.65264	-0.460469	1.03411	-0.603349	1.06589	-0.611765	0.870819	-0.540201	0.821218	-0.715658	0.788529	0.187689	0.786006	
0.79181	2.58331	5	0	2.10968	-1.37221	-0.483568	1.07305	-0.113149	1.64319	-0.308068	1.30476	-0.27064	0.902055	-0.188545	1.5839	0.279454	1.89428	0.498553	2.19478	-0.142627	1.13921	-0.172659	1.65297	-0.462092	1.02388	-0.60746	1.06336	-0.609192	0.863547	-0.538368	0.816038	-0.741518	0.805426	0.179935	0.787417	
0.783681	2.57568	5	0	1.97544	-1.28615	-0.488855	1.06529	-0.11695	1.64141	-0.310991	1.29622	-0.283195	0.904348	-0.192772	1.58014	0.274891	1.89177	0.478891	2.19581	-0.149036	1.1454	-0.184607	1.66078	-0.469948	1.03127	-0.611061	1.07354	-0.611765	0.870819	-0.541118	0.823809	-0.715658	0.788529	0.174886	0.801687	
0.774965	2.56653	5	0	1.8412	-1.2001	-0.494142	1.05753	-0.120751	1.63963	-0.313913	1.28768	-0.295751	0.906641	-0.196999	1.57639	0.270329	1.88927	0.45923	2.19684	-0.155444	1.15158	-0.196555	1.66859	-0.477804	1.03866	-0.614662	1.08372	-0.614338	0.878092	-0.543867	0.831581	-0.689799	0.771632	0.169837	0.815956	
0.766661	2.56348	5	0	1.70696	-1.11404	-0.499429	1.04977	-0.124552	1.63785	-0.316835	1.27913	-0.308306	0.908934	-0.201226	1.57264	0.265767	1.88676	0.439568	2.19786	-0.161853	1.15776	-0.208502	1.67639	-0.485661	1.04605	-0.618263	1.0939	-0.616912	0.885364	-0.546617	0.839352	-0.66394	0.754734	0.164787	0.830226	
0.759769	2.55585	5	0	1.57272	-1.02798	-0.504716	1.04201	-0.128353	1.63607	-0.319758	1.27059	-0.320862	0.911227	-0.205453	1.56889	0.261204	1.88426	0.419906	2.19889	-0.168262	1.16395	-0.22045	1.6842	-0.493517	1.05344	-0.621864	1.10407	-0.619485	0.892637	-0.549367	0.847123	-0.63808	0.737837	0.159738	0.844496	
0.755287	2.54822	5	0	1.47627	-0.964956	-0.503685	1.0391	-0.134112	1.63983	-0.324281	1.26659	-0.32323	0.906868	-0.206684	1.55668	0.262466	1.88069	0.415177	2.19411	-0.165507	1.15616	-0.22389	1.68095	-0.491439	1.04757	-0.624769	1.09815	-0.618198	0.889	-0.556539	0.843844	-0.63808	0.737837	0.167489	0.843092	
0.753998	2.54364	5	0	1.37982	-0.901934	-0.502654	1.03618	-0.139871	1.64359	-0.328804	1.26258	-0.325597	0.902509	-0.207916	1.54448	0.263728	1.87713	0.410447	2.18933	-0.162751	1.14837	-0.227329	1.67771	-0.48936	1.0417	-0.627675	1.09222	-0.616911	0.885363	-0.563711	0.840565	-0.63808	0.737837	0.17524	0.841689	
0.75549	2.53448	5	0	1.28337	-0.838911	-0.501622	1.03327	-0.14563	1.64736	-0.333328	1.25858	-0.327965	0.89815	-0.209147	1.53227	0.264989	1.87356	0.405718	2.18455	-0.159995	1.14059	-0.230768	1.67446	-0.487282	1.03582	-0.63058	1.0863	-0.615624	0.881726	-0.570882	0.837287	-0.63808	0.737837	0.182991	0.840285	
0.758945	2.52838	5	0	1.18692	-0.775889	-0.500591	1.03035	-0.151389	1.65112	-0.337851	1.25457	-0.330333	0.893791	-0.210378	1.52007	0.266251	1.86999	0.400988	2.17977	-0.15724	1.1328	-0.234208	1.67122	-0.485204	1.02995	-0.633486	1.08037	-0.614337	0.878089	-0.578054	0.834008	-0.63808	0.737837	0.190742	0.838881	
0.763544	2.52075	5	0	1.10887	-0.723231	-0.50575	1.04493	-0.149556	1.65845	-0.341712	1.2571	-0.330333	0.893791	-0.208883	1.51584	0.263727	1.87713	0.399178	2.18489	-0.159995	1.14059	-0.232033	1.67804	-0.487282	1.03582	-0.634686	1.08376	-0.623098	0.883814	-0.577138	0.83142	-0.63808	0.737837	0.19344	0.851781	
0.768469	2.51922	5	0	1.03081	-0.670573	-0.51091	1.05951	-0.147722	1.66578	-0.345572	1.25962	-0.330333	0.893791	-0.207388	1.51162	0.261203	1.88426	0.397367	2.19001	-0.162751	1.14837	-0.229858	1.68486	-0.48936	1.0417	-0.635886	1.08715	-0.631859	0.889538	-0.576222	0.828831	-0.63808	0.737837	0.196137	0.86468	
0.772903	2.51007	5	0	0.952758	-0.617915	-0.516069	1.0741	-0.145888	1.67311	-0.349433	1.26214	-0.330333	0.893791	-0.205892	1.50739	0.258679	1.89139	0.395557	2.19512	-0.165507	1.15616	-0.227684	1.69168	-0.491439	1.04757	-0.637086	1.09054	-0.64062	0.895262	-0.575307	0.826243	-0.63808	0.737837	0.198835	0.87758	
0.776086	2.49939	5	0	0.874704	-0.565257	-0.521228	1.08868	-0.144055	1.68044	-0.353293	1.26466	-0.330333	0.893791	-0.204397	1.50317	0.256155	1.89853	0.393747	2.20024	-0.168262	1.16395	-0.225509	1.6985	-0.493517	1.05344	-0.638286	1.09393	-0.649381	0.900987	-0.574391	0.823655	-0.63808	0.737837	0.201533	0.89048	
0.777885	2.49481	5	0	0.821325	-0.532034	-0.513941	1.07943	-0.145037	1.68322	-0.353153	1.25588	-0.331795	0.88688	-0.215828	1.50414	0.257417	1.89496	0.386495	2.22074	-0.169181	1.16654	-0.22116	1.71217	-0.500329	1.05789	-0.650084	1.09904	-0.650668	0.904624	-0.58072	0.829781	-0.641126	0.746445	0.193775	0.891881	
0.778526	2.49481	5	0	0.767945	-0.498811	-0.506654	1.07018	-0.146019	1.68599	-0.353012	1.2471	-0.333257	0.879968	-0.22726	1.50512	0.25868	1.89139	0.379243	2.24123	-0.1701	1.16914	-0.216812	1.72584	-0.50714	1.06234	-0.661883	1.10414	-0.651954	0.908261	-0.58705	0.835906	-0.644172	0.755052	0.186018	0.893281	
0.778241	2.48413	5	0	0.714566	-0.465587	-0.499367	1.06093	-0.147001	1.68877	-0.352872	1.23832	-0.33472	0.873057	-0.238692	1.5061	0.259942	1.88782	0.371991	2.26173	-0.171019	1.17174	-0.212463	1.73951	-0.513952	1.06679	-0.673682	1.10924	-0.653241	0.911898	-0.593379	0.842032	-0.647217	0.76366	0.17826	0.894682	
0.77726	2.4765	5	0	0.661186	-0.432364	-0.49208	1.05169	-0.147983	1.69155	-0.352731	1.22954	-0.336182	0.866146	-0.250123	1.50707	0.261204	1.88426	0.364739	2.28222	-0.171938	1.17434	-0.208115	1.75317	-0.520764	1.07125	-0.68548	1.11434	-0.654528	0.915535	-0.599708	0.848157	-0.650263	0.772268	0.170502	0.896082	
0.775816	2.46887	5	0	0.62004	-0.403823	-0.495177	1.06044	-0.142352	1.70068	-0.353672	1.24058	-0.335278	0.86359	-0.24441	1.50659	0.262466	1.88069	0.378908	2.29666	-0.174668	1.17013	-0.207211	1.76361	-0.520764	1.07125	-0.68548	1.11434	-0.654528	0.915535	-0.598792	0.845569	-0.673077	0.780558	0.151641	0.908407	
0.77414	2.46582	5	0	0.578895	-0.375281	-0.498275	1.0692	-0.136721	1.70982	-0.354613	1.25163	-0.334373	0.861034	-0.238697	1.5061	0.263728	1.87713	0.393077	2.31111	-0.177398	1.16593	-0.206307	1.77405	-0.520764	1.07125	-0.68548	1.11434	-0.654528	0.915535	-0.597877	0.842981	-0.69589	0.788847	0.132779	0.920731	
0.77243	2.45514	5	0	0.537749	-0.346739	-0.501372	1.07795	-0.131091	1.71896	-0.355554	1.26267	-0.333469	0.858477	-0.232984	1.50561	0.264989	1.87356	0.407246	2.32555	-0.180128	1.16172	-0.205404	1.78449	-0.520764	1.07125	-0.68548	1.11434	-0.654528	0.915535	-0.596961	0.840393	-0.718704	0.797136	0.113918	0.933056	
0.770859	2.44903	5	0	0.496603	-0.318198	-0.50447	1.0867	-0.12546	1.7281	-0.356495	1.27371	-0.332564	0.855921	-0.227271	1.50512	0.266251	1.86999	0.421415	2.34	-0.182858	1.15752	-0.2045	1.79493	-0.520764	1.07125	-0.68548	1.11434	-0.654528	0.915535	-0.596045	0.837805	-0.741518	0.805426	0.095057	0.94538	
0.769594	2.44446	5	0	0.465325	-0.29776	-0.509639	1.10131	-0.126586	1.74382	-0.352122	1.28653	-0.333818	0.870509	-0.229036	1.52578	0.258673	1.89141	0.426146	2.34482	-0.177397	1.16593	-0.202328	1.80179	-0.519154	1.08149	-0.682584	1.12028	-0.655815	0.919173	-0.596045	0.837805	-0.744564	0.814034	0.107159	0.952159	
0.768807	2.4414	5	0	0.434047	-0.277322	-0.514809	1.11592	-0.127711	1.75954	-0.347749	1.29934	-0.335072	0.885098	-0.2308	1.54644	0.251095	1.91283	0.430876	2.34965	-0.171935	1.17434	-0.200156	1.80866	-0.517544	1.09174	-0.679689	1.12621	-0.657103	0.922812	-0.596045	0.837805	-0.74761	0.822642	0.119261	0.958937	
0.768666	2.43835	5	0	0.402769	-0.256884	-0.519978	1.13053	-0.128837	1.77526	-0.343375	1.31216	-0.336327	0.899686	-0.232565	1.5671	0.243517	1.93424	0.435607	2.35448	-0.166474	1.18276	-0.197985	1.81552	-0.515934	1.10199	-0.676794	1.13214	-0.65839	0.926451	-0.596045	0.837805	-0.750655	0.831249	0.131362	0.965715	
0.769339	2.43225	5	0	0.371491	-0.236446	-0.525147	1.14514	-0.129963	1.79097	-0.339002	1.32498	-0.337581	0.914274	-0.234329	1.58776	0.235939	1.95566	0.440338	2.35931	-0.161013	1.19117	-0.195813	1.82239	-0.514324	1.11224	-0.673898	1.13807	-0.659678	0.930089	-0.596045	0.837805	-0.753701	0.839857	0.143464	0.972494	
0.770868	2.42462	5	0	0.344772	-0.218987	-0.525147	1.14514	-0.128136	1.79836	-0.3382	1.32271	-0.334308	0.916075	-0.232831	1.58352	0.242524	1.96786	0.438514	2.36446	-0.161966	1.2058	-0.198357	1.82958	-0.517449	1.12108	-0.675099	1.14147	-0.663543	0.941013	-0.603287	0.846517	-0.73089	0.831576	0.153898	0.984078	
0.773117	2.42157	5	0	0.318052	-0.201528	-0.525147	1.14514	-0.126308	1.80574	-0.337398	1.32044	-0.331035	0.917875	-0.231333	1.57929	0.249109	1.98006	0.43669	2.36962	-0.162918	1.22043	-0.200902	1.83677	-0.520574	1.12991	-0.6763	1.14486	-0.667409	0.951938	-0.610529	0.85523	-0.708079	0.823295	0.164331	0.995663	
0.77593	2.41547	5	0	0.291332	-0.184069	-0.525147	1.14514	-0.124481	1.81312	-0.336595	1.31817	-0.327762	0.919675	-0.229835	1.57506	0.255694	1.99226	0.434866	2.37477	-0.163871	1.23506	-0.203446	1.84396	-0.523699	1.13874	-0.677502	1.14826	-0.671274	0.962862	-0.617771	0.863942	-0.685269	0.815014	0.174764	1.00725	
0.779155	2.41394	5	0	0.264613	-0.16661	-0.525147	1.14514	-0.122654	1.82051	-0.335793	1.31591	-0.324489	0.921476	-0.228337	1.57082	0.262279	2.00447	0.433042	2.37993	-0.164824	1.24968	-0.20599	1.85115	-0.526824	1.14757	-0.678703	1.15165	-0.67514	0.973786	-0.625013	0.872654	-0.662458	0.806733	0.185198	1.01883	
0.78264	2.41089	5	0	0.246846	-0.155001	-0.523027	1.1505	-0.116034	1.82692	-0.336595	1.31817	-0.324845	0.933539	-0.225614	1.57881	0.278011	2.02178	0.43046	2.40544	-0.16121	1.26336	-0.199103	1.85772	-0.517356	1.15045	-0.678703	1.15165	-0.666379	0.968062	-0.629504	0.873598	-0.688318	0.82363	0.206839	1.01945	
0.78623	2.40784	5	0	0.229079	-0.143392	-0.520907	1.15586	-0.109414	1.83333	-0.337398	1.32044	-0.325201	0.945603	-0.222891	1.5868	0.293743	2.0391	0.427878	2.43095	-0.157595	1.27704	-0.192217	1.86429	-0.507888	1.15333	-0.678703	1.15165	-0.657618	0.962337	-0.633995	0.874542	-0.714177	0.840528	0.22848	1.02007	
0.789766	2.40173	5	0	0.211313	-0.131783	-0.518787	1.16123	-0.102795	1.83974	-0.3382	1.32271	-0.325557	0.957666	-0.220168	1.59479	0.309474	2.05641	0.425296	2.45646	-0.153981	1.29073	-0.185331	1.87086	-0.49842	1.1562	-0.678703	1.15165	-0.648857	0.956612	-0.638485	0.875486	-0.740036	0.857425	0.25012	1.02068	
0.793064	2.39563	5	0	0.193546	-0.120174	-0.516667	1.16659	-0.096175	1.84615	-0.339002	1.32498	-0.325913	0.96973	-0.217445	1.60278	0.325206	2.07373	0.422714	2.48198	-0.150367	1.30441	-0.178444	1.87743	-0.488952	1.15908	-0.678703	1.15165	-0.640096	0.950888	-0.642976	0.87643	-0.765896	0.874322	0.271761	1.0213	
0.795934	2.39258	5	0	0.175816	-0.108589	-0.517703	1.16952	-0.0953377	1.85636	-0.339805	1.32724	-0.319724	0.985449	-0.219231	1.62353	0.327983	2.09685	0.436128	2.51711	-0.131138	1.30993	-0.167204	1.89784	-0.481559	1.16787	-0.682309	1.16184	-0.641385	0.954532	-0.634908	0.877131	-0.736988	0.848809	0.256193	1.02409	
0.79819	2.38953	5	0	0.158086	-0.0970035	-0.518739	1.17244	-0.0945005	1.86656	-0.340607	1.32951	-0.313535	1.00117	-0.221018	1.64427	0.330761	2.11996	0.449542	2.55224	-0.111909	1.31546	-0.155965	1.91824	-0.474165	1.17666	-0.685916	1.17204	-0.642675	0.958176	-0.62684	0.877832	-0.708079	0.823295	0.240625	1.02688	
0.799642	2.38647	5	0	0.140356	-0.0854183	-0.519775	1.17537	-0.0936633	1.87677	-0.34141	1.33178	-0.307346	1.01689	-0.222805	1.66502	0.333538	2.14308	0.462957	2.58737	-0.0926808	1.32099	-0.144726	1.93865	-0.466772	1.18544	-0.689523	1.18223	-0.643965	0.961821	-0.618772	0.878533	-0.679171	0.797781	0.225057	1.02967	
0.800101	2.388	5	0	0.122626	-0.073833	-0.520811	1.1783	-0.092826	1.88697	-0.342212	1.33405	-0.301157	1.03261	-0.224591	1.68577	0.336315	2.1662	0.476371	2.6225	-0.073452	1.32651	-0.133486	1.95906	-0.459378	1.19423	-0.693129	1.19242	-0.645254	0.965465	-0.610704	0.879234	-0.650263	0.772268	0.209489	1.03246	
0.799411	2.37732	5	0	0.113775	-0.0680495	-0.530223	1.1822	-0.0910008	1.8944	-0.342362	1.34287	-0.299702	1.03958	-0.216145	1.69333	0.344197	2.17494	0.494292	2.62683	-0.073452	1.32651	-0.133486	1.95906	-0.459378	1.19423	-0.697221	1.18987	-0.646544	0.969111	-0.616114	0.882769	-0.679171	0.797781	0.201719	1.03385	
0.797782	2.37579	5	0	0.104924	-0.062266	-0.539635	1.1861	-0.0891755	1.90182	-0.342512	1.35169	-0.298246	1.04655	-0.207698	1.7009	0.35208	2.18367	0.512213	2.63115	-0.073452	1.32651	-0.133486	1.95906	-0.459378	1.19423	-0.701313	1.18732	-0.647834	0.972757	-0.621525	0.886304	-0.708079	0.823295	0.19395	1.03524	
0.795661	2.37579	5	0	0.0960722	-0.0564825	-0.549047	1.19	-0.0873503	1.90924	-0.342662	1.36052	-0.296791	1.05352	-0.199251	1.70846	0.359962	2.19241	0.530134	2.63547	-0.073452	1.32651	-0.133486	1.95906	-0.459378	1.19423	-0.705405	1.18477	-0.649125	0.976403	-0.626935	0.889839	-0.736988	0.848809	0.18618	1.03662	
0.793503	2.37274	5	0	0.087221	-0.050699	-0.558459	1.1939	-0.085525	1.91666	-0.342812	1.36934	-0.295335	1.06049	-0.190805	1.71603	0.367845	2.20115	0.548055	2.63979	-0.073452	1.32651	-0.133486	1.95906	-0.459378	1.19423	-0.709497	1.18222	-0.650415	0.980049	-0.632345	0.893374	-0.765896	0.874322	0.178411	1.03801	
0.791758	2.36969	5	0	0.0827988	-0.0478092	-0.55112	1.19586	-0.0808833	1.92873	-0.33764	1.37994	-0.292428	1.07446	-0.192616	1.73688	0.379047	2.21612	0.549109	2.65517	-0.0679685	1.33502	-0.125296	1.96206	-0.462516	1.2031	-0.711902	1.18901	-0.651705	0.983696	-0.636835	0.894316	-0.768948	0.882946	0.172347	1.0346	
0.790881	2.36664	5	0	0.0783765	-0.0449195	-0.54378	1.19781	-0.0762415	1.9408	-0.332468	1.39055	-0.289521	1.08843	-0.194427	1.75774	0.39025	2.23108	0.550163	2.67055	-0.062485	1.34352	-0.117107	1.96505	-0.465655	1.21197	-0.714306	1.19581	-0.652996	0.987343	-0.641325	0.895259	-0.771999	0.891571	0.166282	1.0312	
0.791318	2.36359	5	0	0.0739542	-0.0420298	-0.536441	1.19977	-0.0715998	1.95287	-0.327295	1.40115	-0.286614	1.1024	-0.196238	1.77859	0.401452	2.24604	0.551217	2.68594	-0.0570015	1.35203	-0.108917	1.96805	-0.468794	1.22084	-0.716711	1.20261	-0.654286	0.990991	-0.645816	0.896202	-0.775051	0.900195	0.160218	1.02779	
0.79318	2.36359	5	0	0.069532	-0.03914	-0.529102	1.20173	-0.066958	1.96494	-0.322123	1.41176	-0.283707	1.11637	-0.198049	1.79945	0.412655	2.261	0.552271	2.70132	-0.051518	1.36053	-0.100727	1.97104	-0.471932	1.22971	-0.719116	1.2094	-0.655577	0.994638	-0.650306	0.897144	-0.778103	0.908819	0.154154	1.02438	
0.79606	2.36206	5	0	0.0606945	-0.0333655	-0.536441	1.19977	-0.0631445	1.96676	-0.325189	1.41201	-0.280805	1.13038	-0.198365	1.81609	0.416701	2.28071	0.546712	2.71703	-0.0506817	1.3822	-0.0985515	1.97798	-0.465585	1.2415	-0.717434	1.21877	-0.650682	0.999859	-0.648567	0.903978	-0.778103	0.908819	0.167988	1.0264	
0.799508	2.36359	5	0	0.051857	-0.027591	-0.54378	1.19781	-0.059331	1.96859	-0.328255	1.41226	-0.277902	1.14439	-0.198681	1.83274	0.420747	2.30042	0.541154	2.73273	-0.0498455	1.40387	-0.096376	1.98492	-0.459237	1.25329	-0.715753	1.22813	-0.645787	1.00508	-0.646829	0.910811	-0.778103	0.908819	0.181822	1.02842	
0.803073	2.36206	5	0	0.0430195	-0.0218165	-0.55112	1.19586	-0.0555175	1.97042	-0.331321	1.41252	-0.274999	1.1584	-0.198997	1.84938	0.424794	2.32014	0.535596	2.74844	-0.0490093	1.42554	-0.0942005	1.99185	-0.45289	1.26508	-0.714071	1.23749	-0.640892	1.0103	-0.64509	0.917644	-0.778103	0.908819	0.195655	1.03044	
0.806305	2.35748	5	0	0.034182	-0.016042	-0.558459	1.1939	-0.051704	1.97225	-0.334387	1.41277	-0.272097	1.17241	-0.199313	1.86602	0.42884	2.33985	0.530037	2.76415	-0.048173	1.44721	-0.092025	1.99879	-0.446542	1.27687	-0.71239	1.24686	-0.635997	1.01552	-0.643351	0.924478	-0.778103	0.908819	0.209489	1.03246	
0.808753	2.36206	5	0	0.0253535	-0.0102733	-0.561607	1.19145	-0.0488835	1.97689	-0.334387	1.41277	-0.271565	1.18202	-0.196605	1.87414	0.441358	2.35129	0.541393	2.76883	-0.0398918	1.44787	-0.087282	1.99848	-0.447591	1.27983	-0.711186	1.24345	-0.643475	1.0176	-0.641517	0.919293	-0.752243	0.891922	0.212883	1.02287	
0.810033	2.35901	5	0	0.016525	-0.0045045	-0.564755	1.18901	-0.046063	1.98154	-0.334387	1.41277	-0.271033	1.19164	-0.193898	1.88225	0.453875	2.36273	0.55275	2.77351	-0.0316105	1.44853	-0.082539	1.99817	-0.44864	1.2828	-0.709981	1.24005	-0.650953	1.01968	-0.639682	0.914108	-0.726384	0.875025	0.216278	1.01327	
0.810165	2.35901	5	0	0.0076965	0.00126425	-0.567904	1.18657	-0.0432425	1.98618	-0.334387	1.41277	-0.270501	1.20125	-0.19119	1.89036	0.466392	2.37417	0.564106	2.77819	-0.0233292	1.44919	-0.077796	1.99786	-0.44969	1.28577	-0.708776	1.23664	-0.65843	1.02176	-0.637848	0.908924	-0.700524	0.858127	0.219672	1.00368	
0.80932	2.35596	5	0	-0.001132	0.007033	-0.571052	1.18413	-0.040422	1.99082	-0.334387	1.41277	-0.269969	1.21086	-0.188482	1.89847	0.47891	2.38561	0.575463	2.78286	-0.015048	1.44985	-0.073053	1.99754	-0.450739	1.28873	-0.707572	1.23324	-0.665908	1.02384	-0.636013	0.903739	-0.674664	0.84123	0.223066	0.994088	
0.807669	2.35443	5	0	-0.001132	0.007033	-0.56894	1.1895	-0.0289597	1.99633	-0.33309	1.42593	-0.263399	1.21455	-0.183068	1.91474	0.480933	2.39553	0.587882	2.80306	-0.01598	1.45249	-0.0674118	2.00782	-0.453889	1.29763	-0.711187	1.24346	-0.6672	1.02749	-0.632437	0.905388	-0.677719	0.849863	0.201473	0.993471	
0.805382	2.35748	5	0	-0.001132	0.007033	-0.566827	1.19487	-0.0174975	2.00183	-0.331793	1.43909	-0.256829	1.21823	-0.177654	1.93101	0.482956	2.40544	0.600302	2.82326	-0.016912	1.45512	-0.0617705	2.01809	-0.457039	1.30654	-0.714801	1.25367	-0.668493	1.03114	-0.628861	0.907038	-0.680774	0.858496	0.179881	0.992855	
0.802631	2.35443	5	0	-0.001132	0.007033	-0.564715	1.20024	-0.00603525	2.00733	-0.330497	1.45225	-0.25026	1.22192	-0.172239	1.94727	0.484979	2.41536	0.612721	2.84346	-0.017844	1.45775	-0.0561292	2.02836	-0.460189	1.31544	-0.718416	1.26389	-0.669785	1.03479	-0.625286	0.908687	-0.683828	0.867128	0.158288	0.992239	
0.799586	2.35748	5	0	-0.001132	0.007033	-0.562602	1.20561	0.005427	2.01283	-0.3292	1.46541	-0.24369	1.22561	-0.166825	1.96354	0.487002	2.42527	0.625141	2.86365	-0.018776	1.46039	-0.050488	2.03863	-0.463339	1.32434	-0.722031	1.27411	-0.671077	1.03844	-0.62171	0.910337	-0.686883	0.875761	0.136696	0.991622	
0.796419	2.35443	5	0	-0.0047805	0.007761	-0.568896	1.20072	0.00642425	2.01001	-0.326132	1.46516	-0.247894	1.22636	-0.171393	1.97645	0.490318	2.43155	0.623275	2.86893	-0.0188308	1.47259	-0.0543485	2.04954	-0.459642	1.32878	-0.720356	1.2835	-0.667481	1.04733	-0.622726	0.92497	-0.689941	0.884402	0.133309	1.00119	
0.793306	2.35443	5	0	-0.008429	0.008489	-0.57519	1.19584	0.0074215	2.00719	-0.323065	1.46491	-0.252099	1.22711	-0.17596	1.98936	0.493634	2.43782	0.621409	2.8742	-0.0188855	1.48479	-0.058209	2.06045	-0.455946	1.33321	-0.718681	1.29289	-0.663885	1.05623	-0.623741	0.939602	-0.692998	0.893043	0.129922	1.01077	
0.790418	2.34985	5	0	-0.0120775	0.009217	-0.581483	1.19095	0.00841875	2.00437	-0.319997	1.46466	-0.256303	1.22786	-0.180528	2.00227	0.496951	2.44409	0.619543	2.87947	-0.0189403	1.49698	-0.0620695	2.07136	-0.452249	1.33765	-0.717005	1.30228	-0.660289	1.06512	-0.624757	0.954235	-0.696055	0.901685	0.126535	1.02034	
0.787932	2.34985	5	0	-0.015726	0.009945	-0.587777	1.18606	0.009416	2.00156	-0.31693	1.46441	-0.260507	1.22861	-0.185095	2.01518	0.500267	2.45037	0.617677	2.88475	-0.018995	1.50918	-0.06593	2.08227	-0.448552	1.34208	-0.71533	1.31167	-0.656693	1.07401	-0.625773	0.968868	-0.699113	0.910326	0.123148	1.02991	
0.78602	2.3468	5	0	-0.015726	0.009945	-0.586742	1.18314	0.002601	2.00818	-0.314668	1.46644	-0.260507	1.22861	-0.186619	2.01948	0.5095	2.4556	0.61581	2.89002	-0.019929	1.51182	-0.067218	2.08591	-0.448552	1.34208	-0.71533	1.31167	-0.657988	1.07767	-0.630267	0.969807	-0.702174	0.918975	0.140356	1.02235	
0.784857	2.34833	5	0	-0.015726	0.009945	-0.585708	1.18022	-0.004214	2.0148	-0.312406	1.46847	-0.260507	1.22861	-0.188143	2.02379	0.518733	2.46084	0.613943	2.8953	-0.020863	1.51446	-0.068506	2.08955	-0.448552	1.34208	-0.71533	1.31167	-0.659282	1.08133	-0.634761	0.970747	-0.705234	0.927625	0.157564	1.01479	
0.78453	2.34375	5	0	-0.015726	0.009945	-0.584674	1.17729	-0.011029	2.02142	-0.310144	1.4705	-0.260507	1.22861	-0.189667	2.0281	0.527966	2.46607	0.612076	2.90058	-0.021797	1.5171	-0.069794	2.09319	-0.448552	1.34208	-0.71533	1.31167	-0.660577	1.08499	-0.639256	0.971687	-0.708294	0.936275	0.174773	1.00722	
0.784922	2.33917	5	0	-0.015726	0.009945	-0.583639	1.17437	-0.017844	2.02804	-0.307882	1.47253	-0.260507	1.22861	-0.191191	2.0324	0.537199	2.47131	0.610209	2.90585	-0.022731	1.51974	-0.071082	2.09683	-0.448552	1.34208	-0.71533	1.31167	-0.661872	1.08865	-0.64375	0.972626	-0.711355	0.944924	0.191981	0.999663	
0.785884	2.34222	5	0	-0.015726	0.009945	-0.582563	1.18266	-0.0208377	2.0365	-0.306427	1.47684	-0.257221	1.23046	-0.181213	2.03583	0.542546	2.48758	0.608341	2.91113	-0.0181793	1.53099	-0.0702	2.10746	-0.444853	1.34652	-0.718955	1.32191	-0.656981	1.0939	-0.641095	0.976885	-0.717485	0.962248	0.196358	1.00786	
0.787271	2.3407	5	0	-0.015726	0.009945	-0.581487	1.19095	-0.0238315	2.04496	-0.304972	1.48115	-0.253936	1.2323	-0.171235	2.03925	0.547892	2.50385	0.606472	2.91641	-0.0136275	1.54223	-0.069318	2.11809	-0.441155	1.35096	-0.722579	1.33216	-0.65209	1.09915	-0.63844	0.981143	-0.723615	0.979572	0.200735	1.01606	
0.788934	2.33459	5	0	-0.015726	0.009945	-0.580411	1.19925	-0.0268252	2.05342	-0.303516	1.48547	-0.25065	1.23415	-0.161257	2.04267	0.553238	2.52013	0.604604	2.92169	-0.00907575	1.55348	-0.068436	2.12872	-0.437456	1.35541	-0.726204	1.3424	-0.647199	1.1044	-0.635785	0.985402	-0.729745	0.996896	0.205112	1.02426	
0.790726	2.33765	5	0	-0.015726	0.009945	-0.579335	1.20754	-0.029819	2.06188	-0.302061	1.48978	-0.247365	1.23599	-0.151279	2.0461	0.558585	2.5364	0.602736	2.92697	-0.004524	1.56473	-0.067554	2.13935	-0.433757	1.35985	-0.729828	1.35265	-0.642308	1.10965	-0.63313	0.989661	-0.735875	1.01422	0.209489	1.03246	
0.792491	2.33612	5	0	-0.0201345	0.0128255	-0.581446	1.20217	-0.0288207	2.05906	-0.307393	1.488	-0.25065	1.23415	-0.153983	2.03792	0.569146	2.53799	0.598996	2.93754	-0.0026525	1.55944	-0.065384	2.14635	-0.43956	1.36135	-0.731498	1.34324	-0.644902	1.11698	-0.639464	0.995799	-0.738944	1.02289	0.200022	1.03864	
0.794023	2.33459	5	0	-0.024543	0.015706	-0.583556	1.1968	-0.0278225	2.05624	-0.312724	1.48622	-0.253936	1.2323	-0.156687	2.02974	0.579708	2.53957	0.595257	2.94811	-0.000781	1.55415	-0.063214	2.15334	-0.445362	1.36286	-0.733167	1.33383	-0.647496	1.12431	-0.645798	1.00194	-0.742013	1.03157	0.190555	1.04483	
0.795095	2.33307	5	0	-0.0289515	0.0185865	-0.585666	1.19143	-0.0268243	2.05342	-0.318055	1.48444	-0.257221	1.23046	-0.159391	2.02157	0.59027	2.54116	0.591517	2.95868	0.0010905	1.54886	-0.061044	2.16034	-0.451165	1.36436	-0.734837	1.32442	-0.650091	1.13165	-0.652131	1.00807	-0.745083	1.04024	0.181088	1.05102	
0.795482	2.33154	5	0	-0.03336	0.021467	-0.587777	1.18606	-0.025826	2.05059	-0.323387	1.48266	-0.260507	1.22861	-0.162095	2.01339	0.600831	2.54275	0.587777	2.96925	0.002962	1.54357	-0.058874	2.16734	-0.456968	1.36587	-0.736507	1.31502	-0.652685	1.13898	-0.658465	1.01421	-0.748152	1.04892	0.171621	1.0572	
0.794957	2.33307	5	0	-0.0289515	0.0185865	-0.584631	1.18851	-0.023004	2.05526	-0.319672	1.48901	-0.256836	1.21824	-0.156339	2.01294	0.602134	2.53907	0.599168	2.97401	0.00483225	1.53829	-0.0554113	2.17069	-0.455916	1.36289	-0.737714	1.31843	-0.653983	1.14265	-0.659385	1.01681	-0.722214	1.03197	0.162164	1.06338	
0.793293	2.33307	5	0	-0.024543	0.015706	-0.581485	1.19095	-0.020182	2.05992	-0.315957	1.49535	-0.253165	1.20786	-0.150584	2.0125	0.603436	2.53538	0.610559	2.97877	0.0067025	1.533	-0.0519485	2.17405	-0.454863	1.35992	-0.738922	1.32184	-0.655281	1.14632	-0.660305	1.01941	-0.696276	1.01502	0.152707	1.06956	
0.790278	2.32849	5	0	-0.0201345	0.0128255	-0.578339	1.19339	-0.01736	2.06459	-0.312242	1.5017	-0.249493	1.19749	-0.144828	2.01205	0.604739	2.5317	0.621951	2.98354	0.00857275	1.52771	-0.0484858	2.1774	-0.453811	1.35695	-0.740129	1.32525	-0.656579	1.14998	-0.661226	1.02201	-0.670339	0.998074	0.143251	1.07574	
0.786	2.33154	5	0	-0.015726	0.009945	-0.575193	1.19583	-0.014538	2.06925	-0.308527	1.50805	-0.245822	1.18711	-0.139073	2.0116	0.606042	2.52802	0.633342	2.9883	0.010443	1.52243	-0.045023	2.18075	-0.452759	1.35397	-0.741336	1.32866	-0.657877	1.15365	-0.662146	1.02462	-0.644401	0.981126	0.133794	1.08192	
0.780833	2.33459	5	0	-0.0164882	0.0120993	-0.580409	1.19924	-0.0155373	2.07208	-0.310953	1.51491	-0.247657	1.1923	-0.140598	2.01591	0.606766	2.54171	0.635216	2.983	0.009446	1.53731	-0.0463163	2.18441	-0.450115	1.36139	-0.738459	1.33466	-0.660475	1.16099	-0.664909	1.03242	-0.653627	1.0072	0.139853	1.08534	
0.775167	2.33307	5	0	-0.0172505	0.0142535	-0.585625	1.20265	-0.0165365	2.0749	-0.313379	1.52177	-0.249492	1.19748	-0.142124	2.02022	0.60749	2.5554	0.637089	2.97771	0.008449	1.5522	-0.0476095	2.18806	-0.44747	1.36881	-0.735582	1.34065	-0.663072	1.16833	-0.667671	1.04023	-0.662853	1.03327	0.145912	1.08877	
0.76939	2.33459	5	0	-0.0180128	0.0164077	-0.590841	1.20606	-0.0175357	2.07773	-0.315805	1.52862	-0.251327	1.20267	-0.143649	2.02453	0.608214	2.5691	0.638963	2.97241	0.007452	1.56708	-0.0489027	2.19172	-0.444825	1.37623	-0.732705	1.34665	-0.66567	1.17568	-0.670434	1.04804	-0.67208	1.05935	0.151971	1.09219	
0.76389	2.33459	5	0	-0.018775	0.018562	-0.596057	1.20947	-0.018535	2.08055	-0.318231	1.53548	-0.253162	1.20786	-0.145174	2.02884	0.608938	2.58279	0.640837	2.96712	0.006455	1.58197	-0.050196	2.19537	-0.442181	1.38365	-0.729828	1.35265	-0.668268	1.18302	-0.673197	1.05585	-0.681306	1.08542	0.15803	1.09561	
0.759048	2.33917	5	0	-0.0180128	0.0164077	-0.600235	1.20995	-0.0175357	2.07773	-0.320491	1.53344	-0.255529	1.20342	-0.1406	2.01592	0.618218	2.58808	0.634201	2.96738	0.005518	1.58462	-0.04761	2.18806	-0.447983	1.38516	-0.727411	1.34581	-0.668268	1.18302	-0.676765	1.05418	-0.681306	1.08542	0.167497	1.08943	
0.754961	2.33917	5	0	-0.0172505	0.0142535	-0.604412	1.21043	-0.0165365	2.0749	-0.322752	1.5314	-0.257896	1.19899	-0.136026	2.00299	0.627498	2.59337	0.627564	2.96765	0.004581	1.58726	-0.045024	2.18076	-0.453785	1.38666	-0.724994	1.33898	-0.668268	1.18302	-0.680333	1.0525	-0.681306	1.08542	0.176964	1.08324	
0.75138	2.33765	5	0	-0.0164882	0.0120993	-0.608589	1.21091	-0.0155373	2.07208	-0.325012	1.52937	-0.260264	1.19456	-0.131452	1.99006	0.636777	2.59866	0.620928	2.96792	0.003644	1.58991	-0.042438	2.17345	-0.459587	1.38816	-0.722578	1.33215	-0.668268	1.18302	-0.683901	1.05083	-0.681306	1.08542	0.186431	1.07706	
0.748036	2.3407	5	0	-0.015726	0.009945	-0.612767	1.21139	-0.014538	2.06925	-0.327273	1.52733	-0.262631	1.19012	-0.126878	1.97714	0.646057	2.60395	0.614292	2.96819	0.002707	1.59256	-0.039852	2.16614	-0.465389	1.38966	-0.720161	1.32532	-0.668268	1.18302	-0.687469	1.04916	-0.681306	1.08542	0.195898	1.07087	
0.74466	2.3407	5	0	-0.0113153	0.00706275	-0.602299	1.2158	-0.011715	2.07392	-0.323395	1.52479	-0.258429	1.18937	-0.126878	1.97714	0.648085	2.61399	0.625697	2.97295	0.011013	1.59324	-0.0363863	2.16949	-0.459587	1.38816	-0.720161	1.32532	-0.668268	1.18302	-0.687469	1.04916	-0.681306	1.08542	0.197597	1.06607	
0.740984	2.3468	5	0	-0.0069045	0.0041805	-0.59183	1.22021	-0.008892	2.07859	-0.319517	1.52226	-0.254227	1.18862	-0.126878	1.97714	0.650112	2.62404	0.637101	2.97771	0.019319	1.59393	-0.0329205	2.17285	-0.453785	1.38666	-0.720161	1.32532	-0.668268	1.18302	-0.687469	1.04916	-0.681306	1.08542	0.199297	1.06126	
0.736751	2.34222	5	0	-0.00249375	0.00129825	-0.581362	1.22463	-0.006069	2.08327	-0.315639	1.51973	-0.250024	1.18786	-0.126878	1.97714	0.65214	2.63409	0.648506	2.98247	0.027625	1.59461	-0.0294548	2.1762	-0.447983	1.38516	-0.720161	1.32532	-0.668268	1.18302	-0.687469	1.04916	-0.681306	1.08542	0.200996	1.05646	
0.731985	2.3468	5	0	0.001917	-0.001584	-0.570894	1.22904	-0.003246	2.08794	-0.311761	1.51719	-0.245822	1.18711	-0.126878	1.97714	0.654168	2.64413	0.659911	2.98723	0.035931	1.5953	-0.025989	2.17956	-0.442181	1.38365	-0.720161	1.32532	-0.668268	1.18302	-0.687469	1.04916	-0.681306	1.08542	0.202696	1.05166	
0.726983	2.34833	5	0	-0.00249375	0.00129825	-0.573004	1.22366	-0.00806775	2.08891	-0.314667	1.50856	-0.249107	1.18527	-0.131112	1.97328	0.660126	2.64309	0.671339	2.992	0.0358627	1.60758	-0.0225208	2.18291	-0.438482	1.3881	-0.722578	1.33215	-0.670868	1.19036	-0.686666	1.05865	-0.661455	1.08585	0.194927	1.05304	
0.722052	2.34833	0	5	-0.0069045	0.0041805	-0.575114	1.21829	-0.0128895	2.08989	-0.317574	1.49992	-0.252393	1.18344	-0.135347	1.96943	0.666084	2.64204	0.682768	2.99677	0.0357945	1.61986	-0.0190525	2.18627	-0.434782	1.39256	-0.724994	1.33898	-0.673467	1.19771	-0.685863	1.06813	-0.641604	1.08628	0.187159	1.05443	
0.717501	2.34375	0	5	-0.0113152	0.00706275	-0.577225	1.21291	-0.0177113	2.09087	-0.320481	1.49129	-0.255678	1.1816	-0.139581	1.96558	0.672042	2.64099	0.694196	3.00153	0.0357263	1.63214	-0.0155843	2.18963	-0.431083	1.39701	-0.727411	1.34581	-0.676067	1.20506	-0.68506	1.07762	-0.621754	1.0867	0.17939	1.05582	
0.713637	2.34833	0	5	-0.015726	0.009945	-0.579335	1.20754	-0.022533	2.09185	-0.323387	1.48266	-0.258963	1.17976	-0.143816	1.96173	0.678	2.63995	0.705625	3.0063	0.035658	1.64443	-0.012116	2.19298	-0.427384	1.40146	-0.729828	1.35265	-0.678667	1.21241	-0.684257	1.0871	-0.601903	1.08713	0.171621	1.0572	
0.71073	2.35138	0	5	-0.0113153	0.00706275	-0.577264	1.20169	-0.0215335	2.08902	-0.318703	1.47784	-0.25713	1.17458	-0.146527	1.95359	0.675379	2.64735	0.705625	3.0063	0.0365975	1.64177	-0.0108217	2.18933	-0.43319	1.40296	-0.732705	1.34665	-0.674768	1.20139	-0.688626	1.07595	-0.598818	1.07841	0.176711	1.04282	
0.708779	2.3529	0	5	-0.0069045	0.0041805	-0.575194	1.19583	-0.020534	2.0862	-0.31402	1.47303	-0.255298	1.1694	-0.149237	1.94545	0.672758	2.65476	0.705625	3.0063	0.037537	1.63912	-0.0095275	2.18567	-0.438997	1.40447	-0.735582	1.34065	-0.67087	1.19037	-0.692995	1.06479	-0.595734	1.06969	0.181801	1.02843	
0.707663	2.35443	0	5	-0.00249375	0.00129825	-0.573123	1.18998	-0.0195345	2.08337	-0.309337	1.46821	-0.253465	1.16422	-0.151948	1.9373	0.670136	2.66217	0.705625	3.0063	0.0384765	1.63646	-0.00823325	2.18201	-0.444804	1.40597	-0.738459	1.33466	-0.666971	1.17935	-0.697364	1.05364	-0.59265	1.06098	0.186891	1.01405	
0.707262	2.35138	0	5	0.001917	-0.001584	-0.571052	1.18413	-0.018535	2.08055	-0.304653	1.4634	-0.251632	1.15904	-0.154659	1.92916	0.667515	2.66958	0.705625	3.0063	0.039416	1.63381	-0.006939	2.17835	-0.45061	1.40748	-0.741336	1.32866	-0.663072	1.16833	-0.701733	1.04248	-0.589565	1.05226	0.191981	0.999663	
0.707455	2.35138	0	5	-0.00249375	0.00129825	-0.564754	1.18901	-0.0137127	2.07957	-0.303197	1.46771	-0.252548	1.16163	-0.153139	1.92487	0.678133	2.67119	0.697091	3.01188	0.0366682	1.62948	-0.0104083	2.175	-0.449044	1.38816	-0.745419	1.32609	-0.667957	1.16306	-0.715859	1.02378	-0.606347	1.04316	0.191981	0.999663	
0.708121	2.35748	0	5	-0.0069045	0.0041805	-0.558455	1.1939	-0.0088905	2.07859	-0.301741	1.47202	-0.253464	1.16422	-0.15162	1.92057	0.688751	2.67281	0.688557	3.01745	0.0339205	1.62516	-0.0138775	2.17164	-0.447479	1.36884	-0.749502	1.32351	-0.672841	1.15779	-0.729985	1.00508	-0.623128	1.03406	0.191981	0.999663	
0.709155	2.35748	0	5	-0.0113152	0.00706275	-0.552156	1.19879	-0.00406825	2.07761	-0.300286	1.47634	-0.254381	1.16681	-0.1501	1.91628	0.69937	2.67442	0.680023	3.02303	0.0311727	1.62083	-0.0173468	2.16829	-0.445913	1.34952	-0.753584	1.32093	-0.677726	1.15253	-0.744111	0.986373	-0.63991	1.02496	0.191981	0.999663	
0.710497	2.3529	0	5	-0.015726	0.009945	-0.545858	1.20367	0.000754	2.07663	-0.29883	1.48065	-0.255297	1.1694	-0.148581	1.91198	0.709988	2.67603	0.671489	3.02861	0.028425	1.61651	-0.020816	2.16494	-0.444347	1.3302	-0.757667	1.31835	-0.682611	1.14726	-0.758237	0.967669	-0.656691	1.01586	0.191981	0.999663	
0.71209	2.35443	0	5	-0.024541	0.0157047	-0.546937	1.19538	-0.0010715	2.06914	-0.296252	1.46494	-0.255297	1.1694	-0.151294	1.90386	0.704732	2.69089	0.673367	3.0233	0.0209862	1.62545	-0.0147598	2.16098	-0.465412	1.33027	-0.758874	1.32177	-0.682611	1.14726	-0.768892	0.962694	-0.682629	1.03281	0.199752	0.998269	
0.71388	2.35138	0	5	-0.033356	0.0214645	-0.548017	1.18708	-0.002897	2.06165	-0.293675	1.44923	-0.255297	1.1694	-0.154008	1.89574	0.699477	2.70574	0.675245	3.01799	0.0135475	1.63439	-0.0087035	2.15702	-0.486477	1.33034	-0.76008	1.32518	-0.682611	1.14726	-0.779547	0.95772	-0.708566	1.04975	0.207523	0.996876	
0.715812	2.35443	0	5	-0.042171	0.0272242	-0.549096	1.17878	-0.0047225	2.05416	-0.291098	1.43352	-0.255297	1.1694	-0.156721	1.88761	0.694221	2.72059	0.677123	3.01268	0.00610875	1.64333	-0.00264725	2.15306	-0.507542	1.33042	-0.761287	1.32859	-0.682611	1.14726	-0.790202	0.952745	-0.734504	1.0667	0.215295	0.995482	
0.717833	2.35748	0	5	-0.050986	0.032984	-0.550176	1.17049	-0.006548	2.04667	-0.28852	1.41781	-0.255297	1.1694	-0.159435	1.87949	0.688965	2.73545	0.679001	3.00737	-0.00133	1.65227	0.003409	2.14911	-0.528607	1.33049	-0.762494	1.332	-0.682611	1.14726	-0.800857	0.94777	-0.760442	1.08365	0.223066	0.994088	
0.719977	2.3529	0	5	-0.05539	0.0358617	-0.55436	1.17097	-0.0113675	2.04765	-0.289173	1.41123	-0.255297	1.1694	-0.162149	1.87138	0.69828	2.7408	0.683778	3.01242	0.001486	1.64431	0.0068825	2.15246	-0.537016	1.3246	-0.770649	1.32684	-0.688787	1.14566	-0.808863	0.94704	-0.731432	1.05802	0.21699	0.990692	
0.722389	2.35748	0	5	-0.059794	0.0387395	-0.558544	1.17146	-0.016187	2.04863	-0.289827	1.40466	-0.255297	1.1694	-0.164862	1.86328	0.707594	2.74615	0.688554	3.01746	0.004302	1.63635	0.010356	2.15581	-0.545426	1.31871	-0.778803	1.32169	-0.694963	1.14406	-0.816868	0.946311	-0.702422	1.03239	0.210913	0.987296	
0.725221	2.35748	0	5	-0.064198	0.0416173	-0.562729	1.17194	-0.0210065	2.04961	-0.290481	1.39808	-0.255297	1.1694	-0.167576	1.85517	0.716908	2.7515	0.693331	3.0225	0.007118	1.62839	0.0138295	2.15916	-0.553835	1.31281	-0.786957	1.31654	-0.70114	1.14246	-0.824874	0.945581	-0.673411	1.00676	0.204836	0.9839	
0.728626	2.36053	0	5	-0.068602	0.044495	-0.566913	1.17243	-0.025826	2.05059	-0.291134	1.39151	-0.255297	1.1694	-0.17029	1.84706	0.726223	2.75685	0.698108	3.02754	0.009934	1.62044	0.017303	2.16251	-0.562244	1.30692	-0.795112	1.31138	-0.707316	1.14086	-0.83288	0.944851	-0.644401	0.981126	0.19876	0.980504	
0.732756	2.36664	0	5	-0.0649602	0.0437715	-0.562686	1.18317	-0.0181815	2.05428	-0.291287	1.40036	-0.251477	1.18085	-0.167576	1.85517	0.738904	2.76863	0.701006	3.03791	0.016365	1.62643	0.0194833	2.16953	-0.559614	1.31431	-0.784544	1.30972	-0.712505	1.15553	-0.831166	0.95168	-0.673411	1.00676	0.206532	0.979108	
0.737745	2.37121	0	5	-0.0613185	0.043048	-0.558458	1.19391	-0.010537	2.05796	-0.291439	1.40921	-0.247657	1.19231	-0.164862	1.86328	0.751586	2.78041	0.703904	3.04828	0.022796	1.63243	0.0216635	2.17654	-0.556983	1.3217	-0.773977	1.30805	-0.717694	1.17019	-0.829452	0.958508	-0.702422	1.03239	0.214305	0.977712	
0.743377	2.38495	0	5	-0.0576767	0.0423245	-0.554231	1.20465	-0.0028925	2.06165	-0.291592	1.41807	-0.243837	1.20377	-0.162149	1.87138	0.764267	2.79218	0.706802	3.05865	0.029227	1.63843	0.0238437	2.18356	-0.554353	1.32909	-0.76341	1.30638	-0.722883	1.18485	-0.827737	0.965336	-0.731432	1.05802	0.222077	0.976315	
0.749111	2.39868	0	5	-0.054035	0.041601	-0.550004	1.21539	0.004752	2.06533	-0.291745	1.42692	-0.240017	1.21522	-0.159435	1.87949	0.776948	2.80396	0.7097	3.06902	0.035658	1.64443	0.026024	2.19057	-0.551723	1.33648	-0.752842	1.30472	-0.728072	1.19952	-0.826023	0.972165	-0.760442	1.08365	0.229849	0.974919	
0.75439	2.41699	0	5	-0.054035	0.041601	-0.554154	1.22712	0.0017525	2.07381	-0.294972	1.43604	-0.238039	1.23191	-0.15553	1.90005	0.779677	2.82806	0.706932	3.09543	0.041939	1.67512	0.031261	2.21536	-0.539096	1.36021	-0.751927	1.33038	-0.712139	1.21171	-0.817335	0.994382	-0.740658	1.08409	0.227437	1.00233	
0.758662	2.44446	0	5	-0.054035	0.041601	-0.558304	1.23884	-0.001247	2.08229	-0.298199	1.44516	-0.23606	1.2486	-0.151625	1.92061	0.782407	2.85216	0.704163	3.12183	0.04822	1.70581	0.036498	2.24014	-0.526469	1.38393	-0.751013	1.35603	-0.696206	1.2239	-0.808648	1.0166	-0.720874	1.08454	0.225025	1.02973	
0.76137	2.46887	0	5	-0.054035	0.041601	-0.562453	1.25057	-0.0042465	2.09076	-0.301426	1.45428	-0.234081	1.26529	-0.147721	1.94117	0.785136	2.87626	0.701395	3.14823	0.054501	1.7365	0.041735	2.26493	-0.513841	1.40766	-0.750099	1.38169	-0.680272	1.2361	-0.79996	1.03882	-0.70109	1.08498	0.222614	1.05714	
0.761977	2.49634	0	5	-0.054035	0.041601	-0.566603	1.2623	-0.007246	2.09924	-0.304653	1.4634	-0.232103	1.28198	-0.143816	1.96173	0.787865	2.90035	0.698627	3.17464	0.060782	1.76719	0.046972	2.28972	-0.501214	1.43138	-0.749184	1.40735	-0.664339	1.24829	-0.791273	1.06103	-0.681306	1.08542	0.220202	1.08455	
0.76053	2.52991	0	5	-0.0496285	0.0387217	-0.562383	1.27309	-0.0132537	2.11622	-0.301741	1.47203	-0.227366	1.2909	-0.14263	1.9742	0.797917	2.91977	0.712971	3.18995	0.0671357	1.78565	0.0535005	2.31094	-0.49595	1.44628	-0.744652	1.42283	-0.668595	1.27943	-0.787061	1.08428	-0.667633	1.10331	0.219464	1.10725	
0.757768	2.565	0	5	-0.045222	0.0358425	-0.558164	1.28388	-0.0192615	2.1332	-0.29883	1.48066	-0.222629	1.29981	-0.141445	1.98667	0.807969	2.93918	0.727316	3.20525	0.0734895	1.8041	0.060029	2.33216	-0.490685	1.46118	-0.740121	1.43831	-0.672851	1.31057	-0.78285	1.10754	-0.65396	1.12119	0.218726	1.12995	
0.754471	2.59552	0	5	-0.0408155	0.0329632	-0.553945	1.29467	-0.0252693	2.15018	-0.295919	1.48928	-0.217892	1.30873	-0.140259	1.99913	0.81802	2.95859	0.741661	3.22056	0.0798433	1.82256	0.0665575	2.35338	-0.485421	1.47608	-0.73559	1.45378	-0.677106	1.34171	-0.778639	1.13079	-0.640288	1.13908	0.217987	1.15266	
0.75142	2.63061	0	5	-0.036409	0.030084	-0.549725	1.30546	-0.031277	2.16716	-0.293007	1.49791	-0.213155	1.31765	-0.139073	2.0116	0.828072	2.978	0.756005	3.23587	0.086197	1.84102	0.073086	2.3746	-0.480157	1.49098	-0.731058	1.46926	-0.681362	1.37285	-0.774427	1.15404	-0.626615	1.15697	0.217249	1.17536	
0.749395	2.66266	0	5	-0.0231765	0.0214377	-0.544439	1.32464	-0.0228208	2.18126	-0.287997	1.51751	-0.206969	1.33368	-0.122114	2.02708	0.835462	3.00506	0.771374	3.26717	0.0962522	1.86126	0.08527	2.40647	-0.471201	1.51043	-0.723657	1.49085	-0.67291	1.38725	-0.771936	1.17047	-0.629708	1.16571	0.225997	1.19193	
0.749159	2.70233	0	5	-0.009944	0.0127915	-0.539152	1.34382	-0.0143645	2.19536	-0.282987	1.53711	-0.200784	1.34971	-0.105155	2.04256	0.842852	3.03212	0.786742	3.29846	0.106307	1.88151	0.097454	2.43834	-0.462245	1.52987	-0.716255	1.51244	-0.664459	1.40165	-0.769444	1.1869	-0.632802	1.17445	0.234745	1.20851	
0.75094	2.742	0	5	0.0032885	0.00414525	-0.533865	1.36301	-0.00590825	2.20946	-0.277976	1.5567	-0.194598	1.36573	-0.0881967	2.05804	0.850241	3.05917	0.80211	3.32975	0.116363	1.90175	0.109638	2.47022	-0.45329	1.54932	-0.708854	1.53403	-0.656007	1.41605	-0.766953	1.20333	-0.635895	1.18319	0.243493	1.22508	
