4.02222	0	0	0.017569	-0.022425	0.067856	-0.10343	0.112537	0.102204	0.050574	-0.036357	0.147772	0.073407	0.079141	-0.053071	-0.001644	0.007766	0.046299	0.01556	0.002508	-0.000514	0.113927	-0.096425	0.097227	-0.048912	0.134364	-0.089991	0.03351	-0.057994	0.052477	-0.055444	0.106492	-0.151441	0.168675	-0.087547	
4.02069	0	0	0.018332	-0.0245815	0.070829	-0.111833	0.109954	0.097397	0.0478303	-0.0362193	0.144154	0.060409	0.0748542	-0.057061	0.001155	-0.00014425	0.0420958	0.0104057	0.00263725	-0.0118325	0.105443	-0.103795	0.0957227	-0.0593433	0.134058	-0.103493	0.03759	-0.0695247	0.0508645	-0.0612085	0.102309	-0.13962	0.17204	-0.0970577	
4.02374	0	0	0.019095	-0.026738	0.073802	-0.120235	0.107372	0.09259	0.0450865	-0.0360815	0.140535	0.047411	0.0705675	-0.061051	0.003954	-0.0080545	0.0378925	0.0052515	0.0027665	-0.023151	0.096959	-0.111165	0.0942185	-0.0697745	0.133752	-0.116994	0.04167	-0.0810555	0.049252	-0.066973	0.0981265	-0.1278	0.175405	-0.106569	
4.02527	0	0	0.019858	-0.0288945	0.076775	-0.128637	0.104789	0.087783	0.0423427	-0.0359437	0.136917	0.034413	0.0662807	-0.065041	0.006753	-0.0159647	0.0336892	9.725E-05	0.00289575	-0.0344695	0.088475	-0.118535	0.0927142	-0.0802057	0.133447	-0.130496	0.04575	-0.0925863	0.0476395	-0.0727375	0.0939437	-0.115979	0.178771	-0.116079	
4.02222	0	0	0.020621	-0.031051	0.079748	-0.13704	0.102206	0.082976	0.039599	-0.035806	0.133299	0.021415	0.061994	-0.069031	0.009552	-0.023875	0.029486	-0.005057	0.003025	-0.045788	0.079991	-0.125905	0.09121	-0.090637	0.133141	-0.143997	0.04983	-0.104117	0.046027	-0.078502	0.089761	-0.104158	0.182136	-0.12559	
4.02679	0	0	0.0243357	-0.0318203	0.0777662	-0.131439	0.0976333	0.0838005	0.0466112	-0.040388	0.131993	0.0135058	0.0694063	-0.0738745	0.00377375	-0.023138	0.0373255	-0.0101795	0.003025	-0.045788	0.0896068	-0.132188	0.0979677	-0.0950527	0.133141	-0.143997	0.040446	-0.097985	0.046811	-0.0807178	0.0939437	-0.115979	0.180454	-0.120836	
4.02527	0	0	0.0280505	-0.0325895	0.0757845	-0.125838	0.0930605	0.084625	0.0536235	-0.04497	0.130686	0.0055965	0.0768185	-0.078718	-0.0020045	-0.022401	0.045165	-0.015302	0.003025	-0.045788	0.0992225	-0.138471	0.104725	-0.0994685	0.133141	-0.143997	0.031062	-0.091853	0.047595	-0.0829335	0.0981265	-0.1278	0.178771	-0.116082	
4.02984	0	0	0.0317652	-0.0333587	0.0738028	-0.120238	0.0884878	0.0854495	0.0606358	-0.049552	0.12938	-0.00231275	0.0842307	-0.0835615	-0.00778275	-0.021664	0.0530045	-0.0204245	0.003025	-0.045788	0.108838	-0.144755	0.111483	-0.103884	0.133141	-0.143997	0.021678	-0.085721	0.048379	-0.0851492	0.102309	-0.13962	0.177089	-0.111327	
4.02984	0	0	0.03548	-0.034128	0.071821	-0.114637	0.083915	0.086274	0.067648	-0.054134	0.128074	-0.010222	0.091643	-0.088405	-0.013561	-0.020927	0.060844	-0.025547	0.003025	-0.045788	0.118454	-0.151038	0.118241	-0.1083	0.133141	-0.143997	0.012294	-0.079589	0.049163	-0.087365	0.106492	-0.151441	0.175407	-0.106573	
4.03137	0	0	0.0317652	-0.0333587	0.0709415	-0.122672	0.078757	0.0766778	0.0606358	-0.049552	0.119121	-0.0196805	0.0815073	-0.091956	-0.0179363	-0.0241413	0.0584513	-0.0358177	0.00044075	-0.0384847	0.110674	-0.139501	0.109383	-0.0979485	0.131881	-0.140436	0.0189587	-0.0780355	0.0531295	-0.0882533	0.098121	-0.127784	0.175407	-0.106573	
4.0329	0	0	0.0280505	-0.0325895	0.070062	-0.130706	0.073599	0.0670815	0.0536235	-0.04497	0.110169	-0.029139	0.0713715	-0.095507	-0.0223115	-0.0273555	0.0560585	-0.0460885	-0.0021435	-0.0311815	0.102894	-0.127964	0.100525	-0.087597	0.130621	-0.136874	0.0256235	-0.076482	0.057096	-0.0891415	0.08975	-0.104127	0.175407	-0.106573	
4.02832	0	0	0.0243357	-0.0318203	0.0691825	-0.13874	0.068441	0.0574853	0.0466112	-0.040388	0.101216	-0.0385975	0.0612357	-0.099058	-0.0266867	-0.0305697	0.0536657	-0.0563592	-0.00472775	-0.0238783	0.0951147	-0.116426	0.0916663	-0.0772455	0.12936	-0.133313	0.0322883	-0.0749285	0.0610625	-0.0900297	0.081379	-0.08047	0.175407	-0.106573	
4.02984	0	0	0.020621	-0.031051	0.068303	-0.146775	0.063283	0.047889	0.039599	-0.035806	0.092263	-0.048056	0.0511	-0.102609	-0.031062	-0.033784	0.051273	-0.06663	-0.007312	-0.016575	0.087335	-0.104889	0.082808	-0.066894	0.1281	-0.129751	0.038953	-0.073375	0.065029	-0.090918	0.073008	-0.056813	0.175407	-0.106573	
4.02832	0	0	0.020621	-0.031051	0.0751243	-0.155532	0.061698	0.040294	0.0431045	-0.0380965	0.082321	-0.0546543	0.0468182	-0.106586	-0.0282692	-0.0416767	0.0452542	-0.0666372	-0.01235	-0.013283	0.084509	-0.107346	0.0849085	-0.0728297	0.124013	-0.132555	0.0416723	-0.0810605	0.0618463	-0.0922448	0.0771962	-0.0686492	0.175407	-0.106573	
4.02679	0	0	0.020621	-0.031051	0.0819455	-0.16429	0.060113	0.032699	0.04661	-0.040387	0.072379	-0.0612525	0.0425365	-0.110563	-0.0254765	-0.0495695	0.0392355	-0.0666445	-0.017388	-0.009991	0.081683	-0.109802	0.087009	-0.0787655	0.119926	-0.13536	0.0443915	-0.088746	0.0586635	-0.0935715	0.0813845	-0.0804855	0.175407	-0.106573	
4.02374	0	0	0.020621	-0.031051	0.0887668	-0.173047	0.058528	0.025104	0.0501155	-0.0426775	0.062437	-0.0678508	0.0382548	-0.114539	-0.0226837	-0.0574622	0.0332168	-0.0666517	-0.022426	-0.006699	0.078857	-0.112259	0.0891095	-0.0847012	0.115839	-0.138165	0.0471107	-0.0964315	0.0554807	-0.0948983	0.0855728	-0.0923218	0.175407	-0.106573	
4.01916	0	0	0.020621	-0.031051	0.095588	-0.181805	0.056943	0.017509	0.053621	-0.044968	0.052495	-0.074449	0.033973	-0.118516	-0.019891	-0.065355	0.027198	-0.066659	-0.027464	-0.003407	0.076031	-0.114716	0.09121	-0.090637	0.111752	-0.140969	0.04983	-0.104117	0.052298	-0.096225	0.089761	-0.104158	0.175407	-0.106573	
4.01764	0	0	0.0169085	-0.0302825	0.0868963	-0.178275	0.0442592	0.0171768	0.043109	-0.0380993	0.0481822	-0.0738108	0.0250213	-0.10928	-0.0184955	-0.0692987	0.027198	-0.066659	-0.0241497	-0.001827	0.0826755	-0.112602	0.0958675	-0.089117	0.111752	-0.140969	0.04983	-0.104117	0.0530817	-0.0984398	0.0855728	-0.0923218	0.177089	-0.111327	
4.01153	0	0	0.013196	-0.029514	0.0782045	-0.174745	0.0315755	0.0168445	0.032597	-0.0312305	0.0438695	-0.0731725	0.0160695	-0.100045	-0.0171	-0.0732425	0.027198	-0.066659	-0.0208355	-0.000247	0.08932	-0.110488	0.100525	-0.087597	0.111752	-0.140969	0.04983	-0.104117	0.0538655	-0.100655	0.0813845	-0.0804855	0.178771	-0.116082	
4.01001	0	0	0.0094835	-0.0287455	0.0695127	-0.171215	0.0188917	0.0165122	0.022085	-0.0243618	0.0395568	-0.0725342	0.00711775	-0.0908088	-0.0157045	-0.0771862	0.027198	-0.066659	-0.0175212	0.001333	0.0959645	-0.108373	0.105182	-0.086077	0.111752	-0.140969	0.04983	-0.104117	0.0546493	-0.102869	0.0771962	-0.0686492	0.180454	-0.120836	
4.00543	0	0	0.005771	-0.027977	0.060821	-0.167685	0.006208	0.01618	0.011573	-0.017493	0.035244	-0.071896	-0.001834	-0.081573	-0.014309	-0.08113	0.027198	-0.066659	-0.014207	0.002913	0.102609	-0.106259	0.10984	-0.084557	0.111752	-0.140969	0.04983	-0.104117	0.055433	-0.105084	0.073008	-0.056813	0.182136	-0.12559	
4.0039	0	0	0.00653375	-0.0301322	0.0647747	-0.178859	0.005617	0.0058065	0.0088335	-0.0173575	0.0253282	-0.078482	0.00439575	-0.099179	-0.0186847	-0.0843307	0.0229965	-0.0717875	-0.0132155	-0.0108358	0.0961068	-0.119212	0.109379	-0.097937	0.111441	-0.154435	0.0472342	-0.11717	0.0538175	-0.110835	0.0390115	-0.0436985	0.185498	-0.135091	
3.99933	0	0	0.0072965	-0.0322875	0.0687285	-0.190032	0.005026	-0.004567	0.006094	-0.017222	0.0154125	-0.085068	0.0106255	-0.116785	-0.0230605	-0.0875315	0.018795	-0.076916	-0.012224	-0.0245845	0.0896045	-0.132165	0.108918	-0.111317	0.11113	-0.167901	0.0446385	-0.130223	0.052202	-0.116586	0.005015	-0.030584	0.18886	-0.144591	
3.99322	0	0	0.00805925	-0.0344428	0.0726823	-0.201206	0.004435	-0.0149405	0.0033545	-0.0170865	0.00549675	-0.091654	0.0168553	-0.134391	-0.0274362	-0.0907323	0.0145935	-0.0820445	-0.0112325	-0.0383332	0.0831023	-0.145119	0.108457	-0.124697	0.11082	-0.181366	0.0420428	-0.143276	0.0505865	-0.122336	-0.0289815	-0.0174695	0.192221	-0.154091	
3.98865	0	0	0.008822	-0.036598	0.076636	-0.21238	0.003844	-0.025314	0.000615	-0.016951	-0.004419	-0.09824	0.023085	-0.151997	-0.031812	-0.093933	0.010392	-0.087173	-0.010241	-0.052082	0.0766	-0.158072	0.107996	-0.138077	0.110509	-0.194832	0.039447	-0.156329	0.048971	-0.128087	-0.062978	-0.004355	0.195583	-0.163592	
3.98712	0	0	0.008822	-0.036598	0.0776235	-0.215171	0.00028325	-0.0272865	-0.0001465	-0.0147988	-0.00571975	-0.106087	0.0246405	-0.156393	-0.0304183	-0.0978715	0.0140117	-0.0974028	-0.0085205	-0.0569448	0.0815383	-0.172028	0.104387	-0.142549	0.115533	-0.20903	0.0421583	-0.163992	0.047355	-0.133831	-0.0546183	-0.027981	0.200619	-0.177824	
3.98559	0	0	0.008822	-0.036598	0.078611	-0.217963	-0.0032775	-0.029259	-0.000908	-0.0126465	-0.0070205	-0.113933	0.026196	-0.160789	-0.0290245	-0.10181	0.0176315	-0.107633	-0.0068	-0.0618075	0.0864765	-0.185984	0.100778	-0.147022	0.120556	-0.223228	0.0448695	-0.171654	0.045739	-0.139574	-0.0462585	-0.051607	0.205655	-0.192056	
3.98559	0	0	0.008822	-0.036598	0.0795985	-0.220754	-0.00683825	-0.0312315	-0.0016695	-0.0104943	-0.00832125	-0.121779	0.0277515	-0.165185	-0.0276307	-0.105749	0.0212512	-0.117862	-0.0050795	-0.0666703	0.0914147	-0.199941	0.097169	-0.151495	0.12558	-0.237426	0.0475808	-0.179316	0.044123	-0.145317	-0.0378987	-0.075233	0.21069	-0.206288	
3.98407	0	0	0.008822	-0.036598	0.080586	-0.223545	-0.010399	-0.033204	-0.002431	-0.008342	-0.009622	-0.129626	0.029307	-0.169581	-0.026237	-0.109687	0.024871	-0.128092	-0.003359	-0.071533	0.096353	-0.213897	0.09356	-0.155967	0.130604	-0.251624	0.050292	-0.186979	0.042507	-0.151061	-0.029539	-0.098859	0.215726	-0.22052	
3.97949	0	0	0.004349	-0.0336752	0.0758498	-0.231169	-0.0145518	-0.0455165	-0.00593075	-0.00605525	-0.014224	-0.139643	0.0207538	-0.177494	-0.0306102	-0.112881	0.0146637	-0.133203	-0.00925425	-0.0658118	0.0915517	-0.21076	0.09356	-0.155967	0.125262	-0.25086	0.0489368	-0.183148	0.041725	-0.148851	-0.033716	-0.0870537	0.20628	-0.214348	
3.97949	0	0	-0.000124	-0.0307525	0.0711135	-0.238794	-0.0187045	-0.057829	-0.0094305	-0.0037685	-0.018826	-0.14966	0.0122005	-0.185408	-0.0349835	-0.116075	0.0044565	-0.138313	-0.0151495	-0.0600905	0.0867505	-0.207622	0.09356	-0.155967	0.11992	-0.250095	0.0475815	-0.179318	0.040943	-0.146641	-0.037893	-0.0752485	0.196833	-0.208176	
3.97644	0	0	-0.004597	-0.0278298	0.0663772	-0.246419	-0.0228573	-0.0701415	-0.0129303	-0.00148175	-0.023428	-0.159677	0.00364725	-0.193321	-0.0393567	-0.11927	-0.00575075	-0.143424	-0.0210448	-0.0543692	0.0819493	-0.204485	0.09356	-0.155967	0.114578	-0.249331	0.0462263	-0.175488	0.040161	-0.14443	-0.04207	-0.0634433	0.187387	-0.202003	
3.97491	0	0	-0.00907	-0.024907	0.061641	-0.254043	-0.02701	-0.082454	-0.01643	0.000805	-0.02803	-0.169694	-0.004906	-0.201234	-0.04373	-0.122464	-0.015958	-0.148534	-0.02694	-0.048648	0.077148	-0.201348	0.09356	-0.155967	0.109236	-0.248566	0.044871	-0.171657	0.039379	-0.14222	-0.046247	-0.051638	0.177941	-0.195831	
3.97491	0	0	-0.0083075	-0.0270617	0.0645975	-0.262399	-0.0285938	-0.0899908	-0.01643	0.000805	-0.0346233	-0.174055	-0.00180325	-0.210002	-0.0409472	-0.130329	-0.0123485	-0.158735	-0.0276737	-0.0575087	0.0744545	-0.214581	0.0920452	-0.166346	0.106406	-0.254889	0.0489352	-0.183143	0.04647	-0.15195	0.00028625	-0.100184	0.187387	-0.202003	
3.97491	0	0	-0.007545	-0.0292165	0.067554	-0.270754	-0.0301775	-0.0975275	-0.01643	0.000805	-0.0412165	-0.178415	0.0012995	-0.218771	-0.0381645	-0.138194	-0.008739	-0.168935	-0.0284075	-0.0663695	0.071761	-0.227814	0.0905305	-0.176725	0.103575	-0.261211	0.0529995	-0.19463	0.053561	-0.16168	0.0468195	-0.148729	0.196833	-0.208176	
3.97186	0	0	-0.0067825	-0.0313713	0.0705105	-0.27911	-0.0317612	-0.105064	-0.01643	0.000805	-0.0478097	-0.182776	0.00440225	-0.22754	-0.0353818	-0.146059	-0.0051295	-0.179136	-0.0291413	-0.0752302	0.0690675	-0.241048	0.0890158	-0.187105	0.100745	-0.267533	0.0570638	-0.206116	0.060652	-0.17141	0.0933528	-0.197275	0.20628	-0.214348	
3.97034	0	0	-0.00602	-0.033526	0.073467	-0.287465	-0.033345	-0.112601	-0.01643	0.000805	-0.054403	-0.187136	0.007505	-0.236308	-0.032599	-0.153924	-0.00152	-0.189336	-0.029875	-0.084091	0.066374	-0.254281	0.087501	-0.197484	0.097914	-0.273856	0.061128	-0.217602	0.067743	-0.18114	0.139886	-0.24582	0.215726	-0.22052	
3.96728	0	0	-0.00602	-0.033526	0.0763298	-0.285054	-0.0323595	-0.115386	-0.0156683	-0.00134725	-0.052105	-0.182137	0.0117827	-0.232362	-0.0353818	-0.146059	0.0026815	-0.184239	-0.0265615	-0.0825215	0.0672283	-0.246276	0.085409	-0.191572	0.103252	-0.274621	0.0597738	-0.213775	0.0669612	-0.178931	0.0975297	-0.20908	0.215726	-0.22052	
3.96728	0	0	-0.00602	-0.033526	0.0791925	-0.282643	-0.031374	-0.118171	-0.0149065	-0.0034995	-0.049807	-0.177138	0.0160605	-0.228416	-0.0381645	-0.138194	0.006883	-0.179142	-0.023248	-0.080952	0.0680825	-0.23827	0.083317	-0.185659	0.108591	-0.275386	0.0584195	-0.209948	0.0661795	-0.176722	0.0551735	-0.17234	0.215726	-0.22052	
3.96271	0	0	-0.00602	-0.033526	0.0820552	-0.280232	-0.0303885	-0.120956	-0.0141448	-0.00565175	-0.047509	-0.172139	0.0203382	-0.22447	-0.0409472	-0.130329	0.0110845	-0.174046	-0.0199345	-0.0793825	0.0689368	-0.230265	0.081225	-0.179747	0.11393	-0.276152	0.0570652	-0.206121	0.0653978	-0.174512	0.0128173	-0.135599	0.215726	-0.22052	
3.96271	0	0	-0.00602	-0.033526	0.084918	-0.277821	-0.029403	-0.123741	-0.013383	-0.007804	-0.045211	-0.16714	0.024616	-0.220524	-0.04373	-0.122464	0.015286	-0.168949	-0.016621	-0.077813	0.069791	-0.22226	0.079133	-0.173835	0.119268	-0.276917	0.055711	-0.202294	0.064616	-0.172303	-0.029539	-0.098859	0.215726	-0.22052	
3.95965	0	0	-0.00602	-0.033526	0.0859035	-0.280606	-0.0284177	-0.126525	-0.0141448	-0.00565175	-0.0442135	-0.16996	0.0172355	-0.215701	-0.04373	-0.122464	0.007475	-0.163845	-0.0164995	-0.0890895	0.0718895	-0.23861	0.0843605	-0.188608	0.116434	-0.283231	0.0543562	-0.198465	0.0638343	-0.170093	0.00864575	-0.12381	0.223505	-0.221958	
3.95813	0	0	-0.00602	-0.033526	0.086889	-0.283391	-0.0274325	-0.129309	-0.0149065	-0.0034995	-0.043216	-0.172779	0.009855	-0.210879	-0.04373	-0.122464	-0.000336	-0.158741	-0.016378	-0.100366	0.073988	-0.254961	0.089588	-0.203382	0.113601	-0.289545	0.0530015	-0.194636	0.0630525	-0.167884	0.0468305	-0.148761	0.231284	-0.223395	
3.95813	0	0	-0.00602	-0.033526	0.0878745	-0.286176	-0.0264472	-0.132094	-0.0156683	-0.00134725	-0.0422185	-0.175598	0.0024745	-0.206057	-0.04373	-0.122464	-0.008147	-0.153638	-0.0162565	-0.111643	0.0760865	-0.271311	0.0948155	-0.218156	0.110768	-0.295859	0.0516468	-0.190808	0.0622707	-0.165674	0.0850153	-0.173711	0.239063	-0.224833	
3.95203	0	0	-0.00602	-0.033526	0.08886	-0.288961	-0.025462	-0.134878	-0.01643	0.000805	-0.041221	-0.178418	-0.004906	-0.201234	-0.04373	-0.122464	-0.015958	-0.148534	-0.016135	-0.122919	0.078185	-0.287661	0.100043	-0.232929	0.107934	-0.302173	0.050292	-0.186979	0.061489	-0.163464	0.1232	-0.198662	0.246842	-0.226271	
3.9505	0	0	0.00216575	-0.0372183	0.0897527	-0.280976	-0.0219037	-0.132921	-0.00942925	-0.0037695	-0.0369252	-0.179057	0.008309	-0.206496	-0.0379637	-0.123206	-0.00995325	-0.148533	-0.0111027	-0.126207	0.080152	-0.29322	0.100043	-0.232929	0.115777	-0.310018	0.050292	-0.186979	0.066237	-0.166567	0.0850153	-0.173711	0.246842	-0.226271	
3.94592	0	0	0.0103515	-0.0409105	0.0906455	-0.27299	-0.0183455	-0.130964	-0.0024285	-0.008344	-0.0326295	-0.179696	0.021524	-0.211758	-0.0321975	-0.123949	-0.0039485	-0.148532	-0.0060705	-0.129495	0.082119	-0.298779	0.100043	-0.232929	0.12362	-0.317863	0.050292	-0.186979	0.070985	-0.169669	0.0468305	-0.148761	0.246842	-0.226271	
3.94592	0	0	0.0185373	-0.0446027	0.0915383	-0.265004	-0.0147872	-0.129008	0.00457225	-0.0129185	-0.0283338	-0.180336	0.034739	-0.21702	-0.0264312	-0.124691	0.00205625	-0.148531	-0.00103825	-0.132784	0.084086	-0.304338	0.100043	-0.232929	0.131464	-0.325707	0.050292	-0.186979	0.075733	-0.172771	0.00864575	-0.12381	0.246842	-0.226271	
3.93982	0	0	0.026723	-0.048295	0.092431	-0.257019	-0.011229	-0.127051	0.011573	-0.017493	-0.024038	-0.180975	0.047954	-0.222282	-0.020665	-0.125434	0.008061	-0.14853	0.003994	-0.136072	0.086053	-0.309897	0.100043	-0.232929	0.139307	-0.333552	0.050292	-0.186979	0.080481	-0.175874	-0.029539	-0.098859	0.246842	-0.226271	
3.94134	0	0	0.026723	-0.048295	0.100228	-0.268541	-0.0092585	-0.132621	0.0150757	-0.0197818	-0.025036	-0.178155	0.0464007	-0.217892	-0.022058	-0.121497	0.0140718	-0.148531	0.004735	-0.127226	0.084944	-0.296343	0.102609	-0.225521	0.140894	-0.323704	0.0556085	-0.181615	0.082102	-0.170134	0.00446875	-0.112005	0.243484	-0.21678	
3.93982	0	0	0.026723	-0.048295	0.108025	-0.280064	-0.007288	-0.13819	0.0185785	-0.0220705	-0.026034	-0.175335	0.0448475	-0.213502	-0.023451	-0.11756	0.0200825	-0.148532	0.005476	-0.118381	0.083835	-0.28279	0.105175	-0.218113	0.142481	-0.313856	0.060925	-0.176251	0.083723	-0.164393	0.0384765	-0.12515	0.240125	-0.20729	
3.93829	0	0	0.026723	-0.048295	0.115823	-0.291587	-0.0053175	-0.143759	0.0220813	-0.0243593	-0.027032	-0.172514	0.0432942	-0.209113	-0.024844	-0.113624	0.0260932	-0.148533	0.006217	-0.109536	0.082726	-0.269236	0.107741	-0.210705	0.144067	-0.304007	0.0662415	-0.170886	0.085344	-0.158653	0.0724843	-0.138295	0.236767	-0.1978	
3.93371	0	0	0.026723	-0.048295	0.12362	-0.303109	-0.003347	-0.149329	0.025584	-0.026648	-0.02803	-0.169694	0.041741	-0.204723	-0.026237	-0.109687	0.032104	-0.148534	0.006958	-0.10069	0.081617	-0.255682	0.110307	-0.203297	0.145654	-0.294159	0.071558	-0.165522	0.086965	-0.152913	0.106492	-0.151441	0.233409	-0.188309	
3.93371	0	0	0.0274855	-0.0504498	0.122634	-0.300323	-0.003347	-0.149329	0.025584	-0.026648	-0.0290282	-0.166873	0.0401873	-0.200331	-0.020466	-0.11043	0.0302957	-0.143424	0.0086765	-0.105546	0.0835865	-0.261248	0.111353	-0.206253	0.146907	-0.297701	0.0742705	-0.173188	0.0885303	-0.157336	0.110669	-0.163246	0.242876	-0.194495	
3.93371	0	0	0.028248	-0.0526045	0.121648	-0.297537	-0.003347	-0.149329	0.025584	-0.026648	-0.0300265	-0.164052	0.0386335	-0.195939	-0.014695	-0.111173	0.0284875	-0.138313	0.010395	-0.110403	0.085556	-0.266814	0.112399	-0.209209	0.148161	-0.301242	0.076983	-0.180854	0.0900955	-0.16176	0.114846	-0.175051	0.252343	-0.200681	
3.93371	0	0	0.0290105	-0.0547592	0.120663	-0.294751	-0.003347	-0.149329	0.025584	-0.026648	-0.0310248	-0.16123	0.0370798	-0.191548	-0.008924	-0.111916	0.0266793	-0.133203	0.0121135	-0.115259	0.0875255	-0.272379	0.113445	-0.212164	0.149414	-0.304784	0.0796955	-0.188519	0.0916607	-0.166183	0.119023	-0.186857	0.261811	-0.206867	
3.92914	0	0	0.029773	-0.056914	0.119677	-0.291965	-0.003347	-0.149329	0.025584	-0.026648	-0.032023	-0.158409	0.035526	-0.187156	-0.003153	-0.112659	0.024871	-0.128092	0.013832	-0.120115	0.089495	-0.277945	0.114491	-0.21512	0.150667	-0.308326	0.082408	-0.196185	0.093226	-0.170606	0.1232	-0.198662	0.271278	-0.213053	
3.92761	0	0	0.029773	-0.056914	0.122546	-0.289554	-0.004332	-0.146545	0.0290877	-0.0289375	-0.029723	-0.153401	0.039809	-0.183197	0.0012285	-0.109462	0.0290765	-0.122975	0.0154325	-0.113692	0.0913387	-0.27273	0.118105	-0.210662	0.154762	-0.305555	0.0904465	-0.198491	0.0971967	-0.171501	0.0808383	-0.161906	0.282435	-0.223992	
3.92151	0	0	0.029773	-0.056914	0.125416	-0.287143	-0.005317	-0.143761	0.0325915	-0.031227	-0.027423	-0.148392	0.044092	-0.179238	0.00561	-0.106265	0.033282	-0.117859	0.017033	-0.107269	0.0931825	-0.267516	0.121719	-0.206205	0.158857	-0.302783	0.098485	-0.200798	0.101167	-0.172395	0.0384765	-0.12515	0.293592	-0.234931	
3.92151	0	0	0.029773	-0.056914	0.128285	-0.284732	-0.006302	-0.140976	0.0360953	-0.0335165	-0.025123	-0.143384	0.048375	-0.175279	0.0099915	-0.103069	0.0374875	-0.112742	0.0186335	-0.100846	0.0950263	-0.262301	0.125333	-0.201747	0.162952	-0.300012	0.106523	-0.203105	0.105138	-0.17329	-0.00388525	-0.088394	0.304749	-0.245871	
3.92456	0	0	0.029773	-0.056914	0.131154	-0.282321	-0.007287	-0.138192	0.039599	-0.035806	-0.022823	-0.138376	0.052658	-0.17132	0.014373	-0.099872	0.041693	-0.107625	0.020234	-0.094423	0.09687	-0.257086	0.128947	-0.197289	0.167047	-0.297241	0.114562	-0.205411	0.109109	-0.174184	-0.046247	-0.051638	0.315906	-0.25681	
3.92456	0	0	0.0305352	-0.0590685	0.128285	-0.284732	-0.006302	-0.140976	0.0403608	-0.0379582	-0.021824	-0.1412	0.0542135	-0.175716	0.0201542	-0.100617	0.0453127	-0.117855	0.0194922	-0.103273	0.0989615	-0.273422	0.126379	-0.204701	0.164205	-0.303553	0.106523	-0.203105	0.109892	-0.176396	-0.00388525	-0.088394	0.306428	-0.250617	
3.92303	0	0	0.0312975	-0.061223	0.125416	-0.287143	-0.005317	-0.143761	0.0411225	-0.0401105	-0.020825	-0.144024	0.055769	-0.180112	0.0259355	-0.101363	0.0489325	-0.128084	0.0187505	-0.112123	0.101053	-0.289759	0.12381	-0.212114	0.161363	-0.309864	0.098485	-0.200798	0.110674	-0.178607	0.0384765	-0.12515	0.296951	-0.244424	
3.92151	0	0	0.0320597	-0.0633775	0.122546	-0.289554	-0.004332	-0.146545	0.0418843	-0.0422628	-0.019826	-0.146848	0.0573245	-0.184508	0.0317168	-0.102109	0.0525523	-0.138314	0.0180088	-0.120973	0.103145	-0.306095	0.121242	-0.219526	0.15852	-0.316176	0.0904465	-0.198491	0.111457	-0.180818	0.0808383	-0.161906	0.287474	-0.238232	
3.91998	0	0	0.032822	-0.065532	0.119677	-0.291965	-0.003347	-0.149329	0.042646	-0.044415	-0.018827	-0.149672	0.05888	-0.188904	0.037498	-0.102854	0.056172	-0.148544	0.017267	-0.129823	0.105236	-0.322431	0.118673	-0.226938	0.155678	-0.322488	0.082408	-0.196185	0.112239	-0.18303	0.1232	-0.198662	0.277996	-0.232039	
3.92303	0	0	0.0365375	-0.0663035	0.118691	-0.289178	0.00021475	-0.147374	0.0453898	-0.0445533	-0.0155257	-0.147486	0.0573245	-0.184508	0.0361017	-0.0989085	0.0525523	-0.138314	0.0181255	-0.132249	0.102406	-0.324853	0.119718	-0.229892	0.155678	-0.322488	0.082408	-0.196185	0.113803	-0.187451	0.161555	-0.223724	0.270208	-0.230597	
3.92151	0	0	0.040253	-0.067075	0.117705	-0.286391	0.0037765	-0.14542	0.0481335	-0.0446915	-0.0122245	-0.1453	0.055769	-0.180112	0.0347055	-0.094963	0.0489325	-0.128084	0.018984	-0.134676	0.099576	-0.327275	0.120763	-0.232845	0.155678	-0.322488	0.082408	-0.196185	0.115368	-0.191872	0.199911	-0.248786	0.262419	-0.229155	
3.92151	0	0	0.0439685	-0.0678465	0.116719	-0.283604	0.00733825	-0.143465	0.0508772	-0.0448298	-0.00892325	-0.143115	0.0542135	-0.175716	0.0333092	-0.0910175	0.0453127	-0.117855	0.0198425	-0.137102	0.096746	-0.329697	0.121808	-0.235799	0.155678	-0.322488	0.082408	-0.196185	0.116932	-0.196293	0.238266	-0.273849	0.25463	-0.227713	
3.92151	0	0	0.047684	-0.068618	0.115733	-0.280817	0.0109	-0.141511	0.053621	-0.044968	-0.005622	-0.140929	0.052658	-0.17132	0.031913	-0.087072	0.041693	-0.107625	0.020701	-0.139529	0.093916	-0.332119	0.122853	-0.238753	0.155678	-0.322488	0.082408	-0.196185	0.118496	-0.200714	0.276622	-0.298911	0.246842	-0.226271	
3.92151	0	0	0.0432063	-0.065692	0.114837	-0.288797	0.00733825	-0.143465	0.0466118	-0.040388	-0.006622	-0.138103	0.0511018	-0.166922	0.031913	-0.087072	0.0398815	-0.102506	0.0205842	-0.128252	0.0966247	-0.318929	0.12333	-0.225428	0.159774	-0.319719	0.08909	-0.194658	0.120905	-0.197189	0.272445	-0.287106	0.256309	-0.232457	
3.91998	0	0	0.0387285	-0.062766	0.11394	-0.296778	0.0037765	-0.14542	0.0396025	-0.035808	-0.007622	-0.135277	0.0495455	-0.162523	0.031913	-0.087072	0.03807	-0.0973865	0.0204675	-0.116976	0.0993335	-0.305738	0.123806	-0.212104	0.16387	-0.316951	0.095772	-0.19313	0.123314	-0.193665	0.268268	-0.275301	0.265776	-0.238643	
3.91998	0	0	0.0342507	-0.05984	0.113043	-0.304758	0.00021475	-0.147374	0.0325933	-0.031228	-0.008622	-0.132452	0.0479893	-0.158125	0.031913	-0.087072	0.0362585	-0.0922672	0.0203508	-0.1057	0.102042	-0.292548	0.124282	-0.198779	0.167966	-0.314183	0.102454	-0.191603	0.125723	-0.19014	0.264091	-0.263496	0.275243	-0.244829	
3.92303	0	0	0.029773	-0.056914	0.112147	-0.312739	-0.003347	-0.149329	0.025584	-0.026648	-0.009622	-0.129626	0.046433	-0.153727	0.031913	-0.087072	0.034447	-0.087148	0.020234	-0.094423	0.104751	-0.279357	0.124759	-0.185454	0.172062	-0.311414	0.109136	-0.190076	0.128132	-0.186615	0.259914	-0.251691	0.28471	-0.251015	
3.92456	0	0	0.0342507	-0.05984	0.112147	-0.312739	0.00120025	-0.15016	0.0290877	-0.0289375	-0.009622	-0.129626	0.0479893	-0.158125	0.031913	-0.087072	0.0422795	-0.0922658	0.0210937	-0.0968528	0.101921	-0.281786	0.125806	-0.188413	0.16546	-0.3071	0.111848	-0.197742	0.124941	-0.187929	0.225735	-0.238434	0.286388	-0.255756	
3.92303	0	0	0.0387285	-0.062766	0.112147	-0.312739	0.0057475	-0.15099	0.0325915	-0.031227	-0.009622	-0.129626	0.0495455	-0.162523	0.031913	-0.087072	0.050112	-0.0973835	0.0219535	-0.0992825	0.0990915	-0.284215	0.126853	-0.191371	0.158858	-0.302787	0.11456	-0.205407	0.12175	-0.189244	0.191557	-0.225177	0.288065	-0.260498	
3.92303	0	0	0.0432063	-0.065692	0.112147	-0.312739	0.0102948	-0.151821	0.0360953	-0.0335165	-0.009622	-0.129626	0.0511018	-0.166922	0.031913	-0.087072	0.0579445	-0.102501	0.0228133	-0.101712	0.0962618	-0.286643	0.1279	-0.19433	0.152256	-0.298473	0.117273	-0.213073	0.118559	-0.190558	0.157379	-0.211919	0.289743	-0.26524	
3.92609	0	0	0.047684	-0.068618	0.112147	-0.312739	0.014842	-0.152652	0.039599	-0.035806	-0.009622	-0.129626	0.052658	-0.17132	0.031913	-0.087072	0.065777	-0.107619	0.023673	-0.104142	0.093432	-0.289072	0.128947	-0.197289	0.145654	-0.294159	0.119985	-0.220739	0.115368	-0.191873	0.1232	-0.198662	0.291421	-0.269981	
3.92456	0	0	0.0469215	-0.066463	0.113043	-0.304758	0.0154475	-0.142335	0.0431045	-0.0380965	-0.003015	-0.125247	0.0569443	-0.167356	0.037699	-0.0878183	0.0699905	-0.102494	0.0252737	-0.097713	0.102911	-0.284567	0.131515	-0.189864	0.149748	-0.291385	0.119985	-0.220739	0.120124	-0.194981	0.157379	-0.211919	0.283631	-0.268534	
3.92303	0	0	0.046159	-0.064308	0.11394	-0.296778	0.016053	-0.132018	0.04661	-0.040387	0.003592	-0.120867	0.0612305	-0.163393	0.043485	-0.0885645	0.074204	-0.0973695	0.0268745	-0.091284	0.11239	-0.280061	0.134084	-0.18244	0.153842	-0.288611	0.119985	-0.220739	0.12488	-0.198088	0.191557	-0.225177	0.27584	-0.267087	
3.92609	0	0	0.0453965	-0.062153	0.114837	-0.288797	0.0166585	-0.1217	0.0501155	-0.0426775	0.010199	-0.116488	0.0655167	-0.15943	0.049271	-0.0893107	0.0784175	-0.0922448	0.0284753	-0.084855	0.121869	-0.275556	0.136652	-0.175015	0.157936	-0.285837	0.119985	-0.220739	0.129635	-0.201195	0.225735	-0.238434	0.26805	-0.26564	
3.92151	0	0	0.044634	-0.059998	0.115733	-0.280817	0.017264	-0.111383	0.053621	-0.044968	0.016806	-0.112109	0.069803	-0.155466	0.055057	-0.090057	0.082631	-0.08712	0.030076	-0.078426	0.131348	-0.27105	0.13922	-0.167591	0.16203	-0.283063	0.119985	-0.220739	0.134391	-0.204303	0.259914	-0.251691	0.26026	-0.264193	
3.92151	0	0	0.044634	-0.059998	0.116719	-0.283604	0.017264	-0.111383	0.053621	-0.044968	0.018808	-0.117767	0.07136	-0.159866	0.0564538	-0.094004	0.0784175	-0.0922448	0.0276155	-0.0824253	0.120885	-0.272774	0.135605	-0.172057	0.159189	-0.289379	0.117273	-0.213073	0.130417	-0.203406	0.221558	-0.226629	0.269727	-0.270379	
3.91693	0	0	0.044634	-0.059998	0.117705	-0.286391	0.017264	-0.111383	0.053621	-0.044968	0.02081	-0.123424	0.072917	-0.164267	0.0578505	-0.097951	0.074204	-0.0973695	0.025155	-0.0864245	0.110422	-0.274498	0.13199	-0.176522	0.156349	-0.295694	0.11456	-0.205407	0.126444	-0.202509	0.183203	-0.201566	0.279194	-0.276565	
3.91693	0	0	0.044634	-0.059998	0.118691	-0.289178	0.017264	-0.111383	0.053621	-0.044968	0.022812	-0.129082	0.074474	-0.168667	0.0592473	-0.101898	0.0699905	-0.102494	0.0226945	-0.0904237	0.0999582	-0.276221	0.128374	-0.180988	0.153508	-0.30201	0.111848	-0.197742	0.12247	-0.201611	0.144847	-0.176503	0.288661	-0.282751	
3.9154	0	0	0.044634	-0.059998	0.119677	-0.291965	0.017264	-0.111383	0.053621	-0.044968	0.024814	-0.13474	0.076031	-0.173068	0.060644	-0.105845	0.065777	-0.107619	0.020234	-0.094423	0.089495	-0.277945	0.124759	-0.185454	0.150667	-0.308326	0.109136	-0.190076	0.118496	-0.200714	0.106492	-0.151441	0.298128	-0.288937	
3.91388	0	0	0.0483512	-0.06077	0.122546	-0.289554	0.0198415	-0.106632	0.060636	-0.0495517	0.0238133	-0.131911	0.076031	-0.173068	0.0548575	-0.105097	0.0736162	-0.112742	0.0210937	-0.0968528	0.0952778	-0.283862	0.123712	-0.182495	0.15192	-0.311866	0.109136	-0.190076	0.118496	-0.200714	0.106492	-0.151441	0.298128	-0.288937	
3.91235	0	0	0.0520685	-0.061542	0.125416	-0.287143	0.022419	-0.10188	0.067651	-0.0541355	0.0228125	-0.129083	0.076031	-0.173068	0.049071	-0.104349	0.0814555	-0.117864	0.0219535	-0.0992825	0.10106	-0.289779	0.122665	-0.179535	0.153172	-0.315407	0.109136	-0.190076	0.118496	-0.200714	0.106492	-0.151441	0.298128	-0.288937	
3.91235	0	0	0.0557858	-0.062314	0.128285	-0.284732	0.0249965	-0.0971293	0.074666	-0.0587193	0.0218117	-0.126254	0.076031	-0.173068	0.0432845	-0.103602	0.0892948	-0.122986	0.0228133	-0.101712	0.106843	-0.295697	0.121618	-0.176575	0.154425	-0.318947	0.109136	-0.190076	0.118496	-0.200714	0.106492	-0.151441	0.298128	-0.288937	
3.90777	0	0	0.059503	-0.063086	0.131154	-0.282321	0.027574	-0.092378	0.081681	-0.063303	0.020811	-0.123426	0.076031	-0.173068	0.037498	-0.102854	0.097134	-0.128109	0.023673	-0.104142	0.112626	-0.301614	0.120571	-0.173616	0.155678	-0.322488	0.109136	-0.190076	0.118496	-0.200714	0.106492	-0.151441	0.298128	-0.288937	
3.90472	0	0	0.055023	-0.0601588	0.125417	-0.287141	0.030536	-0.100749	0.070399	-0.054276	0.0165052	-0.122787	0.0701878	-0.172631	0.0388932	-0.106798	0.091106	-0.128106	0.0202325	-0.094419	0.111517	-0.288048	0.116378	-0.161768	0.15852	-0.316176	0.115826	-0.188549	0.117714	-0.198504	0.102309	-0.13962	0.299804	-0.293673	
3.90167	0	0	0.050543	-0.0572315	0.11968	-0.291961	0.033498	-0.10912	0.059117	-0.045249	0.0121995	-0.122148	0.0643445	-0.172194	0.0402885	-0.110741	0.085078	-0.128103	0.016792	-0.084696	0.110408	-0.274482	0.112186	-0.149919	0.161363	-0.309864	0.122516	-0.187022	0.116932	-0.196294	0.0981265	-0.1278	0.30148	-0.298409	
3.89862	0	0	0.046063	-0.0543042	0.113943	-0.296782	0.03646	-0.117491	0.047835	-0.036222	0.00789375	-0.12151	0.0585013	-0.171757	0.0416837	-0.114685	0.07905	-0.128099	0.0133515	-0.074973	0.109299	-0.260916	0.107994	-0.138071	0.164205	-0.303553	0.129206	-0.185495	0.11615	-0.194083	0.0939437	-0.115979	0.303156	-0.303146	
3.89557	0	0	0.041583	-0.051377	0.108206	-0.301602	0.039422	-0.125862	0.036553	-0.027195	0.003588	-0.120871	0.052658	-0.17132	0.043079	-0.118629	0.073022	-0.128096	0.009911	-0.06525	0.10819	-0.24735	0.103801	-0.126223	0.167047	-0.297241	0.135896	-0.183968	0.115368	-0.191873	0.089761	-0.104158	0.304832	-0.307882	
3.89099	0	0	0.0423458	-0.0535323	0.109191	-0.304386	0.039422	-0.125862	0.04082	-0.0316382	0.0002855	-0.12306	0.0542135	-0.175716	0.0372972	-0.117882	0.067	-0.128095	0.0116317	-0.0701128	0.108315	-0.258134	0.106946	-0.135111	0.162952	-0.300012	0.129206	-0.185495	0.117713	-0.198502	0.089761	-0.104158	0.29704	-0.30643	
3.89099	0	0	0.0431085	-0.0556875	0.110176	-0.307171	0.039422	-0.125862	0.045087	-0.0360815	-0.003017	-0.125248	0.055769	-0.180112	0.0315155	-0.117135	0.060978	-0.128093	0.0133525	-0.0749755	0.108439	-0.268919	0.110091	-0.143999	0.158857	-0.302783	0.122516	-0.187022	0.120059	-0.205131	0.089761	-0.104158	0.289248	-0.304978	
3.89099	0	0	0.0438713	-0.0578427	0.111162	-0.309955	0.039422	-0.125862	0.049354	-0.0405247	-0.0063195	-0.127437	0.0573245	-0.184508	0.0257337	-0.116387	0.054956	-0.128092	0.0150732	-0.0798382	0.108564	-0.279703	0.113235	-0.152886	0.154762	-0.305555	0.115826	-0.188549	0.122404	-0.211761	0.089761	-0.104158	0.281456	-0.303526	
3.88641	0	0	0.044634	-0.059998	0.112147	-0.312739	0.039422	-0.125862	0.053621	-0.044968	-0.009622	-0.129626	0.05888	-0.188904	0.019952	-0.11564	0.048934	-0.128091	0.016794	-0.084701	0.108689	-0.290487	0.11638	-0.161774	0.150667	-0.308326	0.109136	-0.190076	0.12475	-0.21839	0.089761	-0.104158	0.273664	-0.302074	
3.88641	0	0	0.0401562	-0.0570723	0.104354	-0.301223	0.0374478	-0.120282	0.0501155	-0.0426775	-0.0063195	-0.127437	0.05888	-0.188904	0.0213463	-0.11958	0.054956	-0.128092	0.0159337	-0.08227	0.115339	-0.288413	0.114284	-0.15585	0.156016	-0.309098	0.110492	-0.19391	0.120778	-0.217493	0.055759	-0.091028	0.273664	-0.302074	
3.88794	0	0	0.0356785	-0.0541465	0.096561	-0.289708	0.0354735	-0.114702	0.04661	-0.040387	-0.003017	-0.125248	0.05888	-0.188904	0.0227405	-0.123521	0.060978	-0.128093	0.0150735	-0.079839	0.12199	-0.286338	0.112188	-0.149925	0.161364	-0.30987	0.111849	-0.197744	0.116807	-0.216595	0.021757	-0.077898	0.273664	-0.302074	
3.88183	0	0	0.0312007	-0.0512207	0.088768	-0.278192	0.0334992	-0.109122	0.0431045	-0.0380965	0.0002855	-0.12306	0.05888	-0.188904	0.0241347	-0.127461	0.067	-0.128095	0.0142133	-0.077408	0.12864	-0.284264	0.110092	-0.144001	0.166713	-0.310642	0.113206	-0.201577	0.112835	-0.215698	-0.012245	-0.064768	0.273664	-0.302074	
3.87878	0	0	0.026723	-0.048295	0.080975	-0.266676	0.031525	-0.103542	0.039599	-0.035806	0.003588	-0.120871	0.05888	-0.188904	0.025529	-0.131401	0.073022	-0.128096	0.013353	-0.074977	0.13529	-0.28219	0.107996	-0.138077	0.172062	-0.311414	0.114562	-0.205411	0.108863	-0.214801	-0.046247	-0.051638	0.273664	-0.302074	
3.87726	0	0	0.0274855	-0.0504498	0.0829462	-0.272247	0.0334992	-0.109122	0.0360953	-0.0335165	0.0012855	-0.125886	0.057701	-0.201636	0.0283158	-0.139276	0.072425	-0.143426	0.01519	-0.091115	0.129742	-0.297806	0.107528	-0.151425	0.163873	-0.316949	0.114562	-0.205411	0.109645	-0.217009	-0.046247	-0.051638	0.275338	-0.306806	
3.87726	0	0	0.028248	-0.0526045	0.0849175	-0.277819	0.0354735	-0.114702	0.0325915	-0.031227	-0.001017	-0.1309	0.056522	-0.214367	0.0311025	-0.147151	0.071828	-0.158756	0.017027	-0.107253	0.124194	-0.313422	0.10706	-0.164774	0.155685	-0.322483	0.114562	-0.205411	0.110426	-0.219217	-0.046247	-0.051638	0.277012	-0.311537	
3.87573	0	0	0.0290105	-0.0547592	0.0868888	-0.28339	0.0374478	-0.120282	0.0290877	-0.0289375	-0.0033195	-0.135914	0.055343	-0.227099	0.0338892	-0.155027	0.071231	-0.174087	0.018864	-0.123391	0.118647	-0.329038	0.106591	-0.178122	0.147496	-0.328018	0.114562	-0.205411	0.111208	-0.221425	-0.046247	-0.051638	0.278687	-0.316269	
3.87421	0	0	0.029773	-0.056914	0.08886	-0.288961	0.039422	-0.125862	0.025584	-0.026648	-0.005622	-0.140929	0.054164	-0.239831	0.036676	-0.162902	0.070634	-0.189417	0.020701	-0.139529	0.113099	-0.344654	0.106123	-0.19147	0.139307	-0.333552	0.114562	-0.205411	0.111989	-0.223633	-0.046247	-0.051638	0.280361	-0.321	
3.87268	0	0	0.0334882	-0.057685	0.0917252	-0.28655	0.0374478	-0.120282	0.0290877	-0.0289375	-0.005622	-0.140929	0.054164	-0.239831	0.0308978	-0.162152	0.0628087	-0.184304	0.0224175	-0.14438	0.114082	-0.347431	0.107169	-0.194427	0.147155	-0.341398	0.106523	-0.203105	0.10802	-0.222736	-0.00806225	-0.0765887	0.280361	-0.321	
3.87115	0	0	0.0372035	-0.058456	0.0945905	-0.284139	0.0354735	-0.114702	0.0325915	-0.031227	-0.005622	-0.140929	0.054164	-0.239831	0.0251195	-0.161401	0.0549835	-0.179191	0.024134	-0.149231	0.115064	-0.350207	0.108215	-0.197383	0.155003	-0.349245	0.098485	-0.200798	0.10405	-0.221839	0.0301225	-0.10154	0.280361	-0.321	
3.87115	0	0	0.0409188	-0.059227	0.0974557	-0.281728	0.0334992	-0.109122	0.0360953	-0.0335165	-0.005622	-0.140929	0.054164	-0.239831	0.0193412	-0.16065	0.0471582	-0.174077	0.0258505	-0.154082	0.116046	-0.352984	0.109261	-0.20034	0.162851	-0.357092	0.0904465	-0.198491	0.100081	-0.220943	0.0683073	-0.12649	0.280361	-0.321	
3.86658	0	0	0.044634	-0.059998	0.100321	-0.279317	0.031525	-0.103542	0.039599	-0.035806	-0.005622	-0.140929	0.054164	-0.239831	0.013563	-0.1599	0.039333	-0.168964	0.027567	-0.158933	0.117029	-0.35576	0.110307	-0.203297	0.170699	-0.364938	0.082408	-0.196185	0.096111	-0.220046	0.106492	-0.151441	0.280361	-0.321	
3.86658	0	0	0.0409188	-0.059227	0.0974557	-0.281728	0.0334992	-0.109122	0.0360953	-0.0335165	-0.005622	-0.140929	0.0483287	-0.239389	0.0149548	-0.163833	0.0411393	-0.174069	0.0283123	-0.150093	0.11876	-0.339797	0.105073	-0.188504	0.165691	-0.350785	0.0904465	-0.198491	0.104834	-0.224048	0.106492	-0.151441	0.278687	-0.316269	
3.86352	0	0	0.0372035	-0.058456	0.0945905	-0.284139	0.0354735	-0.114702	0.0325915	-0.031227	-0.005622	-0.140929	0.0424935	-0.238948	0.0163465	-0.167767	0.0429455	-0.179173	0.0290575	-0.141253	0.120492	-0.323833	0.0998385	-0.17371	0.160683	-0.336632	0.098485	-0.200798	0.113557	-0.228051	0.106492	-0.151441	0.277012	-0.311537	
3.86352	0	0	0.0334882	-0.057685	0.0917252	-0.28655	0.0374478	-0.120282	0.0290877	-0.0289375	-0.005622	-0.140929	0.0366583	-0.238507	0.0177383	-0.171701	0.0447517	-0.184278	0.0298027	-0.132412	0.122223	-0.30787	0.0946043	-0.158917	0.155675	-0.322479	0.106523	-0.203105	0.122279	-0.232053	0.106492	-0.151441	0.275338	-0.306806	
3.86047	0	0	0.029773	-0.056914	0.08886	-0.288961	0.039422	-0.125862	0.025584	-0.026648	-0.005622	-0.140929	0.030823	-0.238065	0.01913	-0.175634	0.046558	-0.189383	0.030548	-0.123572	0.123955	-0.291906	0.08937	-0.144124	0.150667	-0.308326	0.114562	-0.205411	0.131002	-0.236056	0.106492	-0.151441	0.273664	-0.302074	
3.86047	0	0	0.029773	-0.056914	0.08886	-0.288961	0.0449652	-0.129484	0.025584	-0.026648	-0.005622	-0.140929	0.030823	-0.238065	0.01913	-0.175634	0.0483633	-0.194485	0.026369	-0.122708	0.121123	-0.294333	0.0914648	-0.150044	0.15192	-0.311866	0.118628	-0.216902	0.128591	-0.239571	0.106492	-0.151441	0.283131	-0.30826	
3.86047	0	0	0.029773	-0.056914	0.08886	-0.288961	0.0505085	-0.133106	0.025584	-0.026648	-0.005622	-0.140929	0.030823	-0.238065	0.01913	-0.175634	0.0501685	-0.199587	0.02219	-0.121843	0.11829	-0.29676	0.0935595	-0.155965	0.153172	-0.315407	0.122694	-0.228393	0.126181	-0.243086	0.106492	-0.151441	0.292598	-0.314446	
3.85895	0	0	0.029773	-0.056914	0.08886	-0.288961	0.0560517	-0.136728	0.025584	-0.026648	-0.005622	-0.140929	0.030823	-0.238065	0.01913	-0.175634	0.0519737	-0.204688	0.018011	-0.120979	0.115458	-0.299187	0.0956542	-0.161885	0.154425	-0.318947	0.12676	-0.239884	0.123771	-0.246602	0.106492	-0.151441	0.302065	-0.320632	
3.85895	0	0	0.029773	-0.056914	0.08886	-0.288961	0.061595	-0.14035	0.025584	-0.026648	-0.005622	-0.140929	0.030823	-0.238065	0.01913	-0.175634	0.053779	-0.20979	0.013832	-0.120115	0.112626	-0.301614	0.097749	-0.167805	0.155678	-0.322488	0.130826	-0.251375	0.12136	-0.250117	0.106492	-0.151441	0.311532	-0.326818	
3.86047	0	0	0.0290105	-0.0547592	0.090739	-0.283763	0.0566567	-0.126394	0.0325932	-0.031228	0.0039875	-0.145036	0.0292712	-0.23368	0.01913	-0.175634	0.0561855	-0.199589	0.018011	-0.120979	0.115458	-0.299187	0.0967018	-0.164846	0.154425	-0.318947	0.13218	-0.255202	0.12136	-0.250117	0.106492	-0.151441	0.311532	-0.326818	
3.85895	0	0	0.028248	-0.0526045	0.092618	-0.278566	0.0517185	-0.112437	0.0396025	-0.035808	0.013597	-0.149143	0.0277195	-0.229295	0.01913	-0.175634	0.058592	-0.189388	0.02219	-0.121843	0.11829	-0.29676	0.0956545	-0.161886	0.153172	-0.315407	0.133535	-0.25903	0.12136	-0.250117	0.106492	-0.151441	0.311532	-0.326818	
3.86352	0	0	0.0274855	-0.0504498	0.094497	-0.273368	0.0467802	-0.0984813	0.0466118	-0.040388	0.0232065	-0.153249	0.0261678	-0.224909	0.01913	-0.175634	0.0609985	-0.179187	0.026369	-0.122708	0.121123	-0.294333	0.0946073	-0.158926	0.15192	-0.311866	0.134889	-0.262857	0.12136	-0.250117	0.106492	-0.151441	0.311532	-0.326818	
3.86352	0	0	0.026723	-0.048295	0.096376	-0.26817	0.041842	-0.084525	0.053621	-0.044968	0.032816	-0.157356	0.024616	-0.220524	0.01913	-0.175634	0.063405	-0.168986	0.030548	-0.123572	0.123955	-0.291906	0.09356	-0.155967	0.150667	-0.308326	0.136243	-0.266684	0.12136	-0.250117	0.106492	-0.151441	0.311532	-0.326818	
3.85742	0	0	0.026723	-0.048295	0.0973622	-0.270957	0.0438182	-0.0901103	0.0501155	-0.0426775	0.0348155	-0.163006	0.0261678	-0.224909	0.020521	-0.179566	0.0591933	-0.174085	0.026369	-0.122708	0.120138	-0.291551	0.09356	-0.155967	0.15192	-0.311866	0.133534	-0.259028	0.126113	-0.253223	0.106492	-0.151441	0.311532	-0.326818	
3.86352	0	0	0.026723	-0.048295	0.0983485	-0.273744	0.0457945	-0.0956955	0.04661	-0.040387	0.036815	-0.168657	0.0277195	-0.229295	0.021912	-0.183497	0.0549815	-0.179184	0.02219	-0.121843	0.116322	-0.291196	0.09356	-0.155967	0.153172	-0.315407	0.130825	-0.251372	0.130866	-0.256328	0.106492	-0.151441	0.311532	-0.326818	
3.85895	0	0	0.026723	-0.048295	0.0993347	-0.27653	0.0477708	-0.101281	0.0431045	-0.0380965	0.0388145	-0.174308	0.0292712	-0.23368	0.023303	-0.187428	0.0507698	-0.184284	0.018011	-0.120979	0.112505	-0.290842	0.09356	-0.155967	0.154425	-0.318947	0.128116	-0.243716	0.13562	-0.259434	0.106492	-0.151441	0.311532	-0.326818	
3.862	0	0	0.026723	-0.048295	0.100321	-0.279317	0.049747	-0.106866	0.039599	-0.035806	0.040814	-0.179958	0.030823	-0.238065	0.024694	-0.19136	0.046558	-0.189383	0.013832	-0.120115	0.108689	-0.290487	0.09356	-0.155967	0.155678	-0.322488	0.125407	-0.23606	0.140373	-0.26254	0.106492	-0.151441	0.311532	-0.326818	
3.85742	0	0	0.0319632	-0.0533757	0.101307	-0.282103	0.0543057	-0.107698	0.0431045	-0.0380965	0.0355075	-0.176491	0.033924	-0.246829	0.024694	-0.19136	0.0561883	-0.199598	0.0155493	-0.124968	0.112624	-0.301609	0.08786	-0.154518	0.158182	-0.329564	0.129469	-0.247541	0.1364	-0.26164	0.106492	-0.151441	0.322684	-0.337742	
3.86047	0	0	0.0372035	-0.0584565	0.102292	-0.284889	0.0588645	-0.10853	0.04661	-0.040387	0.030201	-0.173023	0.037025	-0.255593	0.024694	-0.19136	0.0658185	-0.209813	0.0172665	-0.129822	0.116559	-0.31273	0.08216	-0.153068	0.160686	-0.336641	0.133532	-0.259023	0.132428	-0.26074	0.106492	-0.151441	0.333835	-0.348666	
3.85742	0	0	0.0424438	-0.0635373	0.103278	-0.287675	0.0634233	-0.109362	0.0501155	-0.0426775	0.0248945	-0.169556	0.040126	-0.264358	0.024694	-0.19136	0.0754488	-0.220027	0.0189838	-0.134676	0.120495	-0.323852	0.07646	-0.151619	0.16319	-0.343718	0.137595	-0.270505	0.128455	-0.25984	0.106492	-0.151441	0.344987	-0.359591	
3.85132	0	0	0.047684	-0.068618	0.104264	-0.290461	0.067982	-0.110194	0.053621	-0.044968	0.019588	-0.166089	0.043227	-0.273122	0.024694	-0.19136	0.085079	-0.230242	0.020701	-0.139529	0.12443	-0.334973	0.07076	-0.15017	0.165694	-0.350794	0.141657	-0.281986	0.124482	-0.25894	0.106492	-0.151441	0.356139	-0.370515	
3.85437	0	0	0.0432063	-0.065692	0.103278	-0.287675	0.0604582	-0.100983	0.053621	-0.044968	0.0208945	-0.158252	0.0459613	-0.264799	0.0304735	-0.192114	0.0856845	-0.214936	0.0223035	-0.133111	0.12813	-0.324562	0.0733162	-0.142734	0.171044	-0.35157	0.140303	-0.278161	0.125262	-0.261146	0.144847	-0.176503	0.356139	-0.370515	
3.85284	0	0	0.0387285	-0.062766	0.102292	-0.284889	0.0529345	-0.091772	0.053621	-0.044968	0.022201	-0.150415	0.0486955	-0.256476	0.036253	-0.192867	0.08629	-0.199629	0.023906	-0.126693	0.13183	-0.31415	0.0758725	-0.135299	0.176394	-0.352347	0.13895	-0.274335	0.126043	-0.263351	0.183203	-0.201566	0.356139	-0.370515	
3.85284	0	0	0.0342507	-0.05984	0.101307	-0.282103	0.0454107	-0.082561	0.053621	-0.044968	0.0235075	-0.142577	0.0514297	-0.248154	0.0420325	-0.193621	0.0868955	-0.184323	0.0255085	-0.120276	0.135531	-0.303739	0.0784288	-0.127863	0.181744	-0.353123	0.137597	-0.270509	0.126823	-0.265556	0.221558	-0.226629	0.356139	-0.370515	
3.85132	0	0	0.029773	-0.056914	0.100321	-0.279317	0.037887	-0.07335	0.053621	-0.044968	0.024814	-0.13474	0.054164	-0.239831	0.047812	-0.194375	0.087501	-0.169016	0.027111	-0.113858	0.139231	-0.293328	0.080985	-0.120428	0.187094	-0.353899	0.136243	-0.266684	0.127603	-0.267762	0.259914	-0.251691	0.356139	-0.370515	
3.84674	0	0	0.0290105	-0.0547592	0.098441	-0.284512	0.0434338	-0.0769742	0.0528593	-0.0428152	0.0301237	-0.138209	0.054164	-0.239831	0.047812	-0.194375	0.0893092	-0.174126	0.031405	-0.125994	0.145136	-0.310015	0.085176	-0.132272	0.184246	-0.360193	0.125494	-0.256718	0.132356	-0.270868	0.221558	-0.226629	0.346661	-0.364322	
3.84674	0	0	0.028248	-0.0526045	0.096561	-0.289708	0.0489805	-0.0805985	0.0520975	-0.0406625	0.0354335	-0.141679	0.054164	-0.239831	0.047812	-0.194375	0.0911175	-0.179236	0.035699	-0.138129	0.15104	-0.326703	0.089367	-0.144117	0.181398	-0.366488	0.114746	-0.246752	0.137109	-0.273973	0.183203	-0.201566	0.337184	-0.358129	
3.84216	0	0	0.0274855	-0.0504498	0.094681	-0.294903	0.0545272	-0.0842227	0.0513357	-0.0385098	0.0407432	-0.145149	0.054164	-0.239831	0.047812	-0.194375	0.0929258	-0.184347	0.039993	-0.150265	0.156945	-0.34339	0.093558	-0.155961	0.17855	-0.372783	0.103997	-0.236787	0.141863	-0.277079	0.144847	-0.176503	0.327707	-0.351937	
3.84369	0	0	0.026723	-0.048295	0.092801	-0.300098	0.060074	-0.087847	0.050574	-0.036357	0.046053	-0.148618	0.054164	-0.239831	0.047812	-0.194375	0.094734	-0.189457	0.044287	-0.162401	0.16285	-0.360078	0.097749	-0.167805	0.175702	-0.379077	0.093248	-0.226821	0.146616	-0.280185	0.106492	-0.151441	0.318229	-0.345744	
3.83911	0	0	0.030438	-0.0490655	0.09952	-0.298065	0.0606768	-0.0774912	0.0548425	-0.0408012	0.052677	-0.144244	0.0600047	-0.240275	0.0522045	-0.191196	0.0989557	-0.184356	0.0434288	-0.159975	0.16285	-0.360078	0.097749	-0.167805	0.175702	-0.379077	0.102642	-0.232959	0.142643	-0.279284	0.102309	-0.13962	0.327707	-0.351937	
3.84064	0	0	0.034153	-0.049836	0.106239	-0.296032	0.0612795	-0.0671355	0.059111	-0.0452455	0.059301	-0.139871	0.0658455	-0.240718	0.056597	-0.188017	0.103178	-0.179254	0.0425705	-0.157549	0.16285	-0.360078	0.097749	-0.167805	0.175702	-0.379077	0.112037	-0.239098	0.13867	-0.278383	0.0981265	-0.1278	0.337184	-0.358129	
3.83758	0	0	0.037868	-0.0506065	0.112958	-0.293998	0.0618822	-0.0567797	0.0633795	-0.0496898	0.065925	-0.135497	0.0716863	-0.241161	0.0609895	-0.184838	0.107399	-0.174153	0.0417122	-0.155123	0.16285	-0.360078	0.097749	-0.167805	0.175702	-0.379077	0.121431	-0.245237	0.134697	-0.277482	0.0939437	-0.115979	0.346661	-0.364322	
3.83453	0	0	0.041583	-0.051377	0.119677	-0.291965	0.062485	-0.046424	0.067648	-0.054134	0.072549	-0.131124	0.077527	-0.241605	0.065382	-0.181659	0.111621	-0.169052	0.040854	-0.152697	0.16285	-0.360078	0.097749	-0.167805	0.175702	-0.379077	0.130826	-0.251375	0.130724	-0.276581	0.089761	-0.104158	0.356139	-0.370515	
3.83606	0	0	0.041583	-0.051377	0.117794	-0.297158	0.0634752	-0.0492223	0.0633795	-0.0496898	0.0705445	-0.125459	0.0759738	-0.237215	0.0711715	-0.182415	0.109811	-0.163936	0.0457842	-0.144718	0.160766	-0.343747	0.0925095	-0.152997	0.17855	-0.372783	0.134808	-0.242196	0.133136	-0.273071	0.128116	-0.129221	0.35279	-0.36105	
3.83148	0	0	0.041583	-0.051377	0.115912	-0.302352	0.0644655	-0.0520205	0.059111	-0.0452455	0.06854	-0.119794	0.0744205	-0.232826	0.076961	-0.183172	0.108	-0.158819	0.0507145	-0.13674	0.158683	-0.327415	0.08727	-0.13819	0.181398	-0.366488	0.13879	-0.233016	0.135549	-0.26956	0.166472	-0.154283	0.34944	-0.351584	
3.83453	0	0	0.041583	-0.051377	0.11403	-0.307545	0.0654558	-0.0548187	0.0548425	-0.0408012	0.0665355	-0.114129	0.0728672	-0.228436	0.0827505	-0.183928	0.10619	-0.153702	0.0556447	-0.128761	0.1566	-0.311084	0.0820305	-0.123382	0.184246	-0.360193	0.142773	-0.223836	0.137961	-0.26605	0.204827	-0.179345	0.346091	-0.342119	
3.83148	0	0	0.041583	-0.051377	0.112147	-0.312739	0.066446	-0.057617	0.050574	-0.036357	0.064531	-0.108464	0.071314	-0.224047	0.08854	-0.184685	0.10438	-0.148586	0.060575	-0.120782	0.154516	-0.294753	0.076791	-0.108574	0.187094	-0.353899	0.146755	-0.214657	0.140373	-0.26254	0.243183	-0.204408	0.342742	-0.332654	
3.83301	0	0	0.041583	-0.051377	0.112147	-0.312739	0.0644655	-0.0520198	0.050574	-0.036357	0.0668418	-0.103436	0.06976	-0.219655	0.0857523	-0.176806	0.10438	-0.148586	0.0614347	-0.123212	0.157471	-0.303103	0.0845922	-0.11595	0.182995	-0.356659	0.149468	-0.222323	0.141153	-0.264746	0.243183	-0.204408	0.353905	-0.343587	
3.83148	0	0	0.041583	-0.051377	0.112147	-0.312739	0.062485	-0.0464225	0.050574	-0.036357	0.0691525	-0.098408	0.068206	-0.215263	0.0829645	-0.168928	0.10438	-0.148586	0.0622945	-0.125642	0.160425	-0.311453	0.0923935	-0.123326	0.178897	-0.359418	0.15218	-0.229988	0.141934	-0.266952	0.243183	-0.204408	0.365069	-0.354521	
3.82995	0	0	0.041583	-0.051377	0.112147	-0.312739	0.0605045	-0.0408253	0.050574	-0.036357	0.0714633	-0.09338	0.066652	-0.210872	0.0801767	-0.161049	0.10438	-0.148586	0.0631542	-0.128072	0.16338	-0.319804	0.100195	-0.130701	0.174798	-0.362178	0.154892	-0.237654	0.142715	-0.269158	0.243183	-0.204408	0.376232	-0.365455	
3.83301	0	0	0.041583	-0.051377	0.112147	-0.312739	0.058524	-0.035228	0.050574	-0.036357	0.073774	-0.088352	0.065098	-0.20648	0.077389	-0.15317	0.10438	-0.148586	0.064014	-0.130502	0.166335	-0.328154	0.107996	-0.138077	0.170699	-0.364938	0.157605	-0.24532	0.143495	-0.271364	0.243183	-0.204408	0.387395	-0.376388	
3.8269	0	0	0.046063	-0.0543042	0.112057	-0.301971	0.0646785	-0.0284795	0.0575893	-0.0409407	0.0750803	-0.0804788	0.0678313	-0.198127	0.0817875	-0.149981	0.114643	-0.143479	0.066481	-0.126508	0.172016	-0.323305	0.105898	-0.132149	0.174798	-0.362178	0.156249	-0.241488	0.14747	-0.272266	0.200639	-0.167509	0.387395	-0.376388	
3.82538	0	0	0.050543	-0.0572315	0.111967	-0.291203	0.070833	-0.021731	0.0646045	-0.0455245	0.0763865	-0.0726055	0.0705645	-0.189774	0.086186	-0.146793	0.124907	-0.138371	0.068948	-0.122515	0.177697	-0.318457	0.1038	-0.126221	0.178897	-0.359418	0.154893	-0.237656	0.151446	-0.273168	0.158095	-0.130611	0.387395	-0.376388	
3.82233	0	0	0.055023	-0.0601588	0.111877	-0.280434	0.0769875	-0.0149825	0.0716197	-0.0501083	0.0776928	-0.0647322	0.0732977	-0.181421	0.0905845	-0.143605	0.13517	-0.133263	0.071415	-0.118522	0.183378	-0.313608	0.101703	-0.120293	0.182995	-0.356659	0.153537	-0.233824	0.155421	-0.274069	0.115552	-0.0937118	0.387395	-0.376388	
3.82385	0	0	0.059503	-0.063086	0.111787	-0.269666	0.083142	-0.008234	0.078635	-0.054692	0.078999	-0.056859	0.076031	-0.173068	0.094983	-0.140416	0.145433	-0.128156	0.073882	-0.114528	0.189059	-0.308759	0.099605	-0.114365	0.187094	-0.353899	0.152181	-0.229992	0.159396	-0.274971	0.073008	-0.056813	0.387395	-0.376388	
3.81927	0	0	0.055023	-0.0601588	0.112773	-0.272454	0.083142	-0.008234	0.0751267	-0.0523997	0.0810078	-0.0625365	0.0775872	-0.177466	0.094983	-0.140416	0.147246	-0.133281	0.0696953	-0.113661	0.176602	-0.304901	0.09495	-0.115881	0.181744	-0.353123	0.149468	-0.222323	0.158615	-0.272765	0.0771962	-0.0686492	0.384044	-0.366918	
3.81775	0	0	0.050543	-0.0572315	0.11376	-0.275242	0.083142	-0.008234	0.0716185	-0.0501075	0.0830165	-0.068214	0.0791435	-0.181864	0.094983	-0.140416	0.14906	-0.138406	0.0655085	-0.112795	0.164145	-0.301044	0.090295	-0.117396	0.176394	-0.352347	0.146754	-0.214654	0.157834	-0.270558	0.0813845	-0.0804855	0.380693	-0.357448	
3.81622	0	0	0.046063	-0.0543042	0.114747	-0.278029	0.083142	-0.008234	0.0681103	-0.0478153	0.0850252	-0.0738915	0.0806998	-0.186263	0.094983	-0.140416	0.150873	-0.143531	0.0613218	-0.111928	0.151688	-0.297186	0.08564	-0.118912	0.171044	-0.35157	0.144041	-0.206985	0.157054	-0.268352	0.0855728	-0.0923218	0.377342	-0.347977	
3.8147	0	0	0.041583	-0.051377	0.115733	-0.280817	0.083142	-0.008234	0.064602	-0.045523	0.087034	-0.079569	0.082256	-0.190661	0.094983	-0.140416	0.152686	-0.148656	0.057135	-0.111061	0.139231	-0.293328	0.080985	-0.120428	0.165694	-0.350794	0.141327	-0.199316	0.156273	-0.266145	0.089761	-0.104158	0.373991	-0.338507	
3.81622	0	0	0.046063	-0.0543042	0.118601	-0.278404	0.083142	-0.008234	0.0688718	-0.049968	0.0860298	-0.0767308	0.0806998	-0.186263	0.100781	-0.141172	0.152686	-0.148656	0.0538105	-0.112625	0.143169	-0.304456	0.0820333	-0.123391	0.168196	-0.357865	0.134636	-0.20084	0.157054	-0.268352	0.089761	-0.104158	0.375667	-0.343244	
3.8147	0	0	0.050543	-0.0572315	0.12147	-0.275992	0.083142	-0.008234	0.0731415	-0.054413	0.0850255	-0.0738925	0.0791435	-0.181864	0.10658	-0.141928	0.152686	-0.148656	0.050486	-0.114189	0.147107	-0.315584	0.0830815	-0.126353	0.170698	-0.364935	0.127945	-0.202364	0.157834	-0.270558	0.089761	-0.104158	0.377343	-0.34798	
3.81012	0	0	0.055023	-0.0601588	0.124338	-0.273579	0.083142	-0.008234	0.0774113	-0.058858	0.0840212	-0.0710542	0.0775872	-0.177466	0.112379	-0.142683	0.152686	-0.148656	0.0471615	-0.115754	0.151044	-0.326713	0.0841298	-0.129315	0.1732	-0.372006	0.121253	-0.203887	0.158615	-0.272765	0.089761	-0.104158	0.379019	-0.352716	
3.80707	0	0	0.059503	-0.063086	0.127207	-0.271167	0.083142	-0.008234	0.081681	-0.063303	0.083017	-0.068216	0.076031	-0.173068	0.118177	-0.143439	0.152686	-0.148656	0.043837	-0.117318	0.154982	-0.337841	0.085178	-0.132278	0.175702	-0.379077	0.114562	-0.205411	0.159396	-0.274971	0.089761	-0.104158	0.380695	-0.357453	
3.81012	0	0	0.055023	-0.0601588	0.125233	-0.265587	0.0775845	-0.00460275	0.0809195	-0.0611502	0.0810075	-0.0625368	0.0803222	-0.169104	0.11678	-0.139492	0.149058	-0.138403	0.0513482	-0.116621	0.159675	-0.330211	0.0887847	-0.1278	0.185157	-0.3771	0.12261	-0.207723	0.158615	-0.272765	0.0855728	-0.0923218	0.388518	-0.358923	
3.80859	0	0	0.050543	-0.0572315	0.123258	-0.260007	0.072027	-0.0009715	0.080158	-0.0589975	0.078998	-0.0568575	0.0846135	-0.16514	0.115383	-0.135545	0.14543	-0.128149	0.0588595	-0.115923	0.164367	-0.322582	0.0923915	-0.123322	0.194612	-0.375122	0.130659	-0.210034	0.157834	-0.270558	0.0813845	-0.0804855	0.39634	-0.360393	
3.80554	0	0	0.046063	-0.0543042	0.121284	-0.254427	0.0664695	0.00265975	0.0793965	-0.0568447	0.0769885	-0.0511782	0.0889048	-0.161177	0.113987	-0.131597	0.141803	-0.117896	0.0663708	-0.115226	0.16906	-0.314953	0.0959983	-0.118843	0.204067	-0.373144	0.138707	-0.212345	0.157054	-0.268352	0.0771962	-0.0686492	0.404162	-0.361863	
3.80096	0	0	0.041583	-0.051377	0.11931	-0.248847	0.060912	0.006291	0.078635	-0.054692	0.074979	-0.045499	0.093196	-0.157213	0.11259	-0.12765	0.138175	-0.107643	0.073882	-0.114528	0.173753	-0.307323	0.099605	-0.114365	0.213522	-0.371167	0.146755	-0.214657	0.156273	-0.266145	0.073008	-0.056813	0.411985	-0.363333	
3.79944	0	0	0.0423458	-0.0535323	0.11931	-0.248847	0.0573417	0.004314	0.0758882	-0.0545525	0.0716658	-0.0477002	0.0947537	-0.161615	0.11259	-0.12765	0.139989	-0.112771	0.0731337	-0.123379	0.17485	-0.320873	0.0980938	-0.124766	0.204067	-0.373144	0.145398	-0.210822	0.156273	-0.266145	0.115552	-0.0937118	0.410308	-0.358594	
3.80249	0	0	0.0431085	-0.0556875	0.11931	-0.248847	0.0537715	0.002337	0.0731415	-0.054413	0.0683525	-0.0499015	0.0963115	-0.166018	0.11259	-0.12765	0.141804	-0.117899	0.0723855	-0.13223	0.175947	-0.334423	0.0965825	-0.135166	0.194612	-0.375122	0.144041	-0.206986	0.156273	-0.266145	0.158095	-0.130611	0.408632	-0.353855	
3.79944	0	0	0.0438713	-0.0578427	0.11931	-0.248847	0.0502013	0.00036	0.0703948	-0.0542735	0.0650393	-0.0521027	0.0978693	-0.170421	0.11259	-0.12765	0.143619	-0.123028	0.0716372	-0.141081	0.177045	-0.347974	0.0950712	-0.145566	0.185157	-0.3771	0.142684	-0.203151	0.156273	-0.266145	0.200639	-0.167509	0.406955	-0.349116	
3.80096	0	0	0.044634	-0.059998	0.11931	-0.248847	0.046631	-0.001617	0.067648	-0.054134	0.061726	-0.054304	0.099427	-0.174823	0.11259	-0.12765	0.145433	-0.128156	0.070889	-0.149932	0.178142	-0.361524	0.09356	-0.155967	0.175702	-0.379077	0.141327	-0.199316	0.156273	-0.266145	0.243183	-0.204408	0.405278	-0.344377	
3.79486	0	0	0.0483512	-0.06077	0.121191	-0.243636	0.0446472	0.003989	0.0774155	-0.058861	0.061726	-0.054304	0.0963108	-0.166016	0.119791	-0.132355	0.143619	-0.123028	0.076795	-0.155658	0.174319	-0.361162	0.0925125	-0.153006	0.182304	-0.383391	0.142684	-0.203151	0.157054	-0.268352	0.204827	-0.179345	0.414787	-0.35059	
3.80096	0	0	0.0520685	-0.061542	0.123072	-0.238426	0.0426635	0.009595	0.087183	-0.063588	0.061726	-0.054304	0.0931945	-0.157209	0.126991	-0.13706	0.141804	-0.117899	0.082701	-0.161383	0.170496	-0.360801	0.091465	-0.150045	0.188906	-0.387705	0.144041	-0.206986	0.157834	-0.270558	0.166472	-0.154283	0.424296	-0.356804	
3.79944	0	0	0.0557858	-0.062314	0.124952	-0.233215	0.0406798	0.015201	0.0969505	-0.068315	0.061726	-0.054304	0.0900782	-0.148401	0.134192	-0.141765	0.139989	-0.112771	0.088607	-0.167108	0.166673	-0.36044	0.0904175	-0.147085	0.195507	-0.392019	0.145398	-0.210822	0.158615	-0.272765	0.128117	-0.129221	0.433805	-0.363017	
3.79944	0	0	0.059503	-0.063086	0.126833	-0.228004	0.038696	0.020807	0.106718	-0.073042	0.061726	-0.054304	0.086962	-0.139594	0.141393	-0.14647	0.138175	-0.107643	0.094513	-0.172834	0.16285	-0.360078	0.08937	-0.144124	0.202109	-0.396333	0.146755	-0.214657	0.159396	-0.274971	0.089761	-0.104158	0.443314	-0.369231	
3.80554	0	0	0.059503	-0.063086	0.127821	-0.230797	0.0361208	0.016026	0.0996972	-0.0684545	0.0607215	-0.0514647	0.086962	-0.139594	0.139996	-0.142521	0.146036	-0.11278	0.088495	-0.155826	0.168416	-0.344462	0.0908795	-0.133719	0.202457	-0.382962	0.14404	-0.206985	0.162593	-0.273667	0.0855728	-0.0923218	0.439958	-0.359745	
3.80249	0	0	0.059503	-0.063086	0.12881	-0.23359	0.0335455	0.011245	0.0926765	-0.063867	0.059717	-0.0486255	0.086962	-0.139594	0.138599	-0.138572	0.153897	-0.117917	0.082477	-0.138817	0.173983	-0.328847	0.092389	-0.123313	0.202805	-0.369591	0.141325	-0.199313	0.16579	-0.272363	0.0813845	-0.0804855	0.436601	-0.35026	
3.80249	0	0	0.059503	-0.063086	0.129798	-0.236383	0.0309703	0.006464	0.0856558	-0.0592795	0.0587125	-0.0457863	0.086962	-0.139594	0.137201	-0.134624	0.161758	-0.123053	0.076459	-0.121809	0.17955	-0.313231	0.0938985	-0.112908	0.203154	-0.356221	0.138611	-0.19164	0.168986	-0.271058	0.0771962	-0.0686492	0.433245	-0.340774	
3.80249	0	0	0.059503	-0.063086	0.130786	-0.239176	0.028395	0.001683	0.078635	-0.054692	0.057708	-0.042947	0.086962	-0.139594	0.135804	-0.130675	0.169619	-0.12819	0.070441	-0.104801	0.185116	-0.297615	0.095408	-0.102503	0.203502	-0.34285	0.135896	-0.183968	0.172183	-0.269754	0.073008	-0.056813	0.429889	-0.331289	
3.80249	0	0	0.059503	-0.063086	0.129798	-0.236383	0.028395	0.001683	0.0821445	-0.0569853	0.053393	-0.0423103	0.0854025	-0.135187	0.135804	-0.130675	0.161758	-0.123053	0.0721615	-0.109664	0.188073	-0.305971	0.0975063	-0.108433	0.204755	-0.34639	0.139967	-0.195474	0.168206	-0.268852	0.0771962	-0.0686492	0.437729	-0.332763	
3.80249	0	0	0.059503	-0.063086	0.12881	-0.23359	0.028395	0.001683	0.085654	-0.0592785	0.049078	-0.0416735	0.083843	-0.13078	0.135804	-0.130675	0.153897	-0.117917	0.073882	-0.114527	0.191029	-0.314326	0.0996045	-0.114363	0.206008	-0.349931	0.144039	-0.20698	0.164228	-0.26795	0.0813845	-0.0804855	0.44557	-0.334236	
3.80096	0	0	0.059503	-0.063086	0.127821	-0.230797	0.028395	0.001683	0.0891635	-0.0615718	0.044763	-0.0410367	0.0822835	-0.126373	0.135804	-0.130675	0.146036	-0.11278	0.0756025	-0.119389	0.193986	-0.322682	0.101703	-0.120293	0.20726	-0.353471	0.14811	-0.218486	0.16025	-0.267047	0.0855728	-0.0923218	0.45341	-0.33571	
3.79944	0	0	0.059503	-0.063086	0.126833	-0.228004	0.028395	0.001683	0.092673	-0.063865	0.040448	-0.0404	0.080724	-0.121966	0.135804	-0.130675	0.138175	-0.107643	0.077323	-0.124252	0.196942	-0.331037	0.103801	-0.126223	0.208513	-0.357011	0.152181	-0.229992	0.156273	-0.266145	0.089761	-0.104158	0.46125	-0.337184	
3.79791	0	0	0.0587403	-0.0609303	0.129703	-0.225583	0.026412	0.00728725	0.0996968	-0.0684545	0.0394432	-0.037561	0.0865763	-0.1224	0.135804	-0.130675	0.14422	-0.107649	0.082373	-0.127552	0.195957	-0.328253	0.102752	-0.123258	0.20726	-0.353471	0.153537	-0.233824	0.161812	-0.271461	0.128116	-0.129221	0.46125	-0.337184	
3.79181	0	0	0.0579775	-0.0587745	0.132572	-0.223162	0.024429	0.0128915	0.10672	-0.073044	0.0384385	-0.034722	0.0924285	-0.122835	0.135804	-0.130675	0.150265	-0.107654	0.087423	-0.130852	0.194972	-0.325469	0.101703	-0.120294	0.206008	-0.349931	0.154893	-0.237656	0.167351	-0.276776	0.166472	-0.154283	0.46125	-0.337184	
3.79486	0	0	0.0572148	-0.0566187	0.135442	-0.22074	0.022446	0.0184958	0.113744	-0.0776335	0.0374338	-0.031883	0.0982808	-0.12327	0.135804	-0.130675	0.156311	-0.107659	0.092473	-0.134151	0.193986	-0.322684	0.100654	-0.11733	0.204755	-0.34639	0.156249	-0.241488	0.172891	-0.282092	0.204827	-0.179345	0.46125	-0.337184	
3.79639	0	0	0.056452	-0.054463	0.138312	-0.218319	0.020463	0.0241	0.120768	-0.082223	0.036429	-0.029044	0.104133	-0.123704	0.135804	-0.130675	0.162356	-0.107665	0.097523	-0.137451	0.193001	-0.3199	0.099605	-0.114365	0.203502	-0.34285	0.157605	-0.24532	0.17843	-0.287408	0.243183	-0.204408	0.46125	-0.337184	
3.79028	0	0	0.0527348	-0.0536915	0.131586	-0.220368	0.0178905	0.0193192	0.117255	-0.0799278	0.0331218	-0.0312475	0.0982808	-0.12327	0.128603	-0.12597	0.164172	-0.112796	0.0932198	-0.125289	0.192885	-0.309111	0.0964562	-0.105465	0.207607	-0.340085	0.152178	-0.229982	0.176087	-0.280787	0.238995	-0.192572	0.467419	-0.333911	
3.78876	0	0	0.0490175	-0.05292	0.12486	-0.222417	0.015318	0.0145385	0.113743	-0.0776325	0.0298145	-0.033451	0.0924285	-0.122835	0.121402	-0.121264	0.165988	-0.117927	0.0889165	-0.113127	0.192769	-0.298323	0.0933075	-0.096566	0.211712	-0.337321	0.146751	-0.214644	0.173744	-0.274166	0.234807	-0.180735	0.473587	-0.330638	
3.78876	0	0	0.0453003	-0.0521485	0.118134	-0.224465	0.0127455	0.00975775	0.11023	-0.0753372	0.0265072	-0.0356545	0.0865763	-0.1224	0.114202	-0.116559	0.167803	-0.123059	0.0846133	-0.100965	0.192653	-0.287535	0.0901588	-0.0876665	0.215817	-0.334556	0.141323	-0.199306	0.171402	-0.267545	0.230619	-0.168899	0.479756	-0.327364	
3.78723	0	0	0.041583	-0.051377	0.111408	-0.226514	0.010173	0.004977	0.106718	-0.073042	0.0232	-0.037858	0.080724	-0.121966	0.107001	-0.111854	0.169619	-0.12819	0.08031	-0.088803	0.192537	-0.276746	0.08701	-0.078767	0.219922	-0.331791	0.135896	-0.183968	0.169059	-0.260924	0.226431	-0.157062	0.485924	-0.324091	
3.78723	0	0	0.041583	-0.051377	0.112396	-0.229306	0.0111638	0.002177	0.110992	-0.07749	0.024204	-0.0406955	0.083842	-0.130778	0.108398	-0.115803	0.161758	-0.123053	0.0828928	-0.0961023	0.189696	-0.279176	0.08806	-0.0817345	0.219922	-0.331791	0.129206	-0.185495	0.170621	-0.265338	0.226431	-0.157062	0.478075	-0.322615	
3.7857	0	0	0.041583	-0.051377	0.113383	-0.232098	0.0121545	-0.000623	0.115266	-0.081938	0.025208	-0.043533	0.08696	-0.13959	0.109795	-0.119752	0.153897	-0.117917	0.0854755	-0.103402	0.186854	-0.281607	0.08911	-0.084702	0.219922	-0.331791	0.122516	-0.187022	0.172183	-0.269753	0.226431	-0.157062	0.470226	-0.32114	
3.78265	0	0	0.041583	-0.051377	0.114371	-0.23489	0.0131452	-0.003423	0.119541	-0.086386	0.026212	-0.0463705	0.090078	-0.148401	0.111193	-0.123701	0.146036	-0.11278	0.0880583	-0.110701	0.184012	-0.284037	0.09016	-0.0876695	0.219922	-0.331791	0.115826	-0.188549	0.173745	-0.274168	0.226431	-0.157062	0.462377	-0.319664	
3.7796	0	0	0.041583	-0.051377	0.115359	-0.237682	0.014136	-0.006223	0.123815	-0.090834	0.027216	-0.049208	0.093196	-0.157213	0.11259	-0.12765	0.138175	-0.107643	0.090641	-0.118	0.181171	-0.286468	0.09121	-0.090637	0.219922	-0.331791	0.109136	-0.190076	0.175307	-0.278582	0.226431	-0.157062	0.454528	-0.318188	
3.77807	0	0	0.046063	-0.0543042	0.11625	-0.229674	0.010171	0.00498225	0.123815	-0.090834	0.034839	-0.0476427	0.0943695	-0.144424	0.118393	-0.128406	0.140586	-0.0973777	0.0931113	-0.114002	0.186856	-0.281606	0.0948168	-0.0861475	0.217413	-0.324701	0.118541	-0.196221	0.175307	-0.278582	0.226431	-0.157062	0.464058	-0.324415	
3.78265	0	0	0.050543	-0.0572315	0.117141	-0.221666	0.006206	0.0161875	0.123815	-0.090834	0.042462	-0.0460775	0.095543	-0.131636	0.124197	-0.129163	0.142997	-0.0871125	0.0955815	-0.110005	0.19254	-0.276743	0.0984235	-0.081658	0.214904	-0.31761	0.127945	-0.202367	0.175307	-0.278582	0.226431	-0.157062	0.473588	-0.330643	
3.77807	0	0	0.055023	-0.0601588	0.118032	-0.213658	0.002241	0.0273928	0.123815	-0.090834	0.050085	-0.0445123	0.0967165	-0.118847	0.130001	-0.129919	0.145408	-0.0768473	0.0980517	-0.106008	0.198224	-0.27188	0.10203	-0.0771685	0.212396	-0.31052	0.13735	-0.208512	0.175307	-0.278582	0.226431	-0.157062	0.483119	-0.33687	
3.77655	0	0	0.059503	-0.063086	0.118923	-0.20565	-0.001724	0.038598	0.123815	-0.090834	0.057708	-0.042947	0.09789	-0.106059	0.135804	-0.130675	0.147819	-0.066582	0.100522	-0.10201	0.203909	-0.267018	0.105637	-0.072679	0.209887	-0.303429	0.146755	-0.214657	0.175307	-0.278582	0.226431	-0.157062	0.492649	-0.343097	
3.77655	0	0	0.055023	-0.0601588	0.1209	-0.211238	0.000259	0.0329935	0.127329	-0.0931302	0.057708	-0.042947	0.101011	-0.114879	0.128603	-0.12597	0.149637	-0.071719	0.0963303	-0.101142	0.199092	-0.26387	0.0999297	-0.0712327	0.203275	-0.299108	0.142682	-0.203146	0.173745	-0.274168	0.183882	-0.120148	0.489285	-0.333591	
3.77807	0	0	0.050543	-0.0572315	0.122878	-0.216827	0.002242	0.027389	0.130843	-0.0954265	0.057708	-0.042947	0.104132	-0.123699	0.121402	-0.121264	0.151454	-0.076856	0.0921385	-0.100274	0.194275	-0.260722	0.0942225	-0.0697865	0.196663	-0.294788	0.138609	-0.191635	0.172183	-0.269753	0.141332	-0.083233	0.485922	-0.324086	
3.77502	0	0	0.046063	-0.0543042	0.124856	-0.222416	0.004225	0.0217845	0.134357	-0.0977227	0.057708	-0.042947	0.107253	-0.13252	0.114202	-0.116559	0.153272	-0.081993	0.0879467	-0.099406	0.189457	-0.257575	0.0885153	-0.0683402	0.190051	-0.290467	0.134536	-0.180124	0.170621	-0.265338	0.0987825	-0.0463185	0.482559	-0.31458	
3.77655	0	0	0.041583	-0.051377	0.126833	-0.228004	0.006208	0.01618	0.137871	-0.100019	0.057708	-0.042947	0.110374	-0.14134	0.107001	-0.111854	0.15509	-0.08713	0.083755	-0.098538	0.18464	-0.254427	0.082808	-0.066894	0.183439	-0.286147	0.130463	-0.168613	0.169059	-0.260924	0.056233	-0.009404	0.479195	-0.305074	
3.7735	0	0	0.046063	-0.0543042	0.123866	-0.21962	0.00877975	0.0209635	0.137871	-0.100019	0.057708	-0.042947	0.110374	-0.14134	0.114202	-0.116559	0.15509	-0.08713	0.0795657	-0.0976713	0.189457	-0.257575	0.0838585	-0.0698623	0.190051	-0.290467	0.131821	-0.172452	0.16984	-0.263131	0.056233	-0.009404	0.482559	-0.31458	
3.7735	0	0	0.050543	-0.0572315	0.120899	-0.211236	0.0113515	0.025747	0.137871	-0.100019	0.057708	-0.042947	0.110374	-0.14134	0.121402	-0.121264	0.15509	-0.08713	0.0753765	-0.0968045	0.194275	-0.260722	0.084909	-0.0728305	0.196663	-0.294788	0.13318	-0.176291	0.170621	-0.265339	0.056233	-0.009404	0.485922	-0.324086	
3.77655	0	0	0.055023	-0.0601588	0.117933	-0.202851	0.0139232	0.0305305	0.137871	-0.100019	0.057708	-0.042947	0.110374	-0.14134	0.128603	-0.12597	0.15509	-0.08713	0.0711873	-0.0959378	0.199092	-0.26387	0.0859595	-0.0757987	0.203275	-0.299108	0.134538	-0.180129	0.171402	-0.267547	0.056233	-0.009404	0.489285	-0.333591	
3.77197	0	0	0.059503	-0.063086	0.114966	-0.194467	0.016495	0.035314	0.137871	-0.100019	0.057708	-0.042947	0.110374	-0.14134	0.135804	-0.130675	0.15509	-0.08713	0.066998	-0.095071	0.203909	-0.267018	0.08701	-0.078767	0.209887	-0.303429	0.135896	-0.183968	0.172183	-0.269754	0.056233	-0.009404	0.492649	-0.343097	
3.7735	0	0	0.055023	-0.0601588	0.114966	-0.194467	0.017487	0.0325105	0.134357	-0.0977227	0.060015	-0.0379022	0.107253	-0.13252	0.134406	-0.126724	0.159322	-0.0819942	0.0694645	-0.0910698	0.207621	-0.256558	0.0906157	-0.0742745	0.20612	-0.292783	0.143953	-0.186281	0.172183	-0.269754	0.0604268	-0.0212563	0.490968	-0.338345	
3.76892	0	0	0.050543	-0.0572315	0.114966	-0.194467	0.018479	0.029707	0.130843	-0.0954265	0.062322	-0.0328575	0.104132	-0.123699	0.133008	-0.122774	0.163554	-0.0768585	0.071931	-0.0870685	0.211334	-0.246098	0.0942215	-0.069782	0.202352	-0.282136	0.152009	-0.188594	0.172183	-0.269754	0.0646205	-0.0331085	0.489287	-0.333594	
3.77197	0	0	0.046063	-0.0543042	0.114966	-0.194467	0.019471	0.0269035	0.127329	-0.0931302	0.064629	-0.0278128	0.101011	-0.114879	0.13161	-0.118823	0.167786	-0.0717228	0.0743975	-0.0830672	0.215046	-0.235639	0.0978273	-0.0652895	0.198585	-0.271489	0.160066	-0.190908	0.172183	-0.269754	0.0688143	-0.0449608	0.487605	-0.328843	
3.77045	0	0	0.041583	-0.051377	0.114966	-0.194467	0.020463	0.0241	0.123815	-0.090834	0.066936	-0.022768	0.09789	-0.106059	0.130212	-0.114872	0.172018	-0.066587	0.076864	-0.079066	0.218758	-0.225179	0.101433	-0.060797	0.194818	-0.260843	0.168123	-0.193221	0.172183	-0.269754	0.073008	-0.056813	0.485924	-0.324091	
3.76434	0	0	0.0371055	-0.0484513	0.114966	-0.194467	0.027005	0.0176707	0.127329	-0.0931302	0.0679415	-0.0256098	0.09789	-0.106059	0.13161	-0.118823	0.165968	-0.0665857	0.0811687	-0.0912312	0.219866	-0.238788	0.0978273	-0.0652895	0.198585	-0.271489	0.150662	-0.184762	0.168206	-0.268852	0.10717	-0.070023	0.487605	-0.328843	
3.76587	0	0	0.032628	-0.0455255	0.114966	-0.194467	0.033547	0.0112415	0.130843	-0.0954265	0.068947	-0.0284515	0.09789	-0.106059	0.133008	-0.122774	0.159919	-0.0665845	0.0854735	-0.103397	0.220973	-0.252397	0.0942215	-0.069782	0.202352	-0.282136	0.1332	-0.176304	0.164228	-0.26795	0.141332	-0.083233	0.489287	-0.333594	
3.76434	0	0	0.0281505	-0.0425997	0.114966	-0.194467	0.040089	0.00481225	0.134357	-0.0977227	0.0699525	-0.0312932	0.09789	-0.106059	0.134406	-0.126724	0.153869	-0.0665832	0.0897783	-0.115562	0.222081	-0.266007	0.0906157	-0.0742745	0.20612	-0.292783	0.115738	-0.167845	0.16025	-0.267047	0.175494	-0.096443	0.490968	-0.338345	
3.76587	0	0	0.023673	-0.039674	0.114966	-0.194467	0.046631	-0.001617	0.137871	-0.100019	0.070958	-0.034135	0.09789	-0.106059	0.135804	-0.130675	0.147819	-0.066582	0.094083	-0.127727	0.223189	-0.279616	0.08701	-0.078767	0.209887	-0.303429	0.098277	-0.159386	0.156273	-0.266145	0.209656	-0.109653	0.492649	-0.343097	
3.76129	0	0	0.0281505	-0.0425997	0.117834	-0.192041	0.043655	0.0067935	0.141386	-0.102316	0.070958	-0.034135	0.09789	-0.106059	0.134406	-0.126724	0.146001	-0.061442	0.094943	-0.130158	0.224177	-0.282406	0.0891095	-0.084701	0.209887	-0.303429	0.110397	-0.173204	0.157054	-0.268352	0.21385	-0.121505	0.492649	-0.343097	
3.76434	0	0	0.032628	-0.0455255	0.120702	-0.189614	0.040679	0.015204	0.144902	-0.104613	0.070958	-0.034135	0.09789	-0.106059	0.133008	-0.122774	0.144182	-0.056302	0.095803	-0.132589	0.225164	-0.285196	0.091209	-0.090635	0.209887	-0.303429	0.122516	-0.187022	0.157834	-0.270558	0.218044	-0.133358	0.492649	-0.343097	
3.75824	0	0	0.0371055	-0.0484513	0.12357	-0.187188	0.037703	0.0236145	0.148418	-0.10691	0.070958	-0.034135	0.09789	-0.106059	0.13161	-0.118823	0.142364	-0.051162	0.096663	-0.13502	0.226152	-0.287987	0.0933085	-0.096569	0.209887	-0.303429	0.134635	-0.200839	0.158615	-0.272765	0.222237	-0.14521	0.492649	-0.343097	
3.75824	0	0	0.041583	-0.051377	0.126438	-0.184761	0.034727	0.032025	0.151933	-0.109207	0.070958	-0.034135	0.09789	-0.106059	0.130212	-0.114872	0.140545	-0.046022	0.097523	-0.137451	0.227139	-0.290777	0.095408	-0.102503	0.209887	-0.303429	0.146755	-0.214657	0.159396	-0.274971	0.226431	-0.157062	0.492649	-0.343097	
3.75366	0	0	0.037868	-0.0506065	0.127428	-0.187559	0.034135	0.0216385	0.144904	-0.104614	0.0719632	-0.036976	0.09789	-0.106059	0.128813	-0.11092	0.140545	-0.046022	0.0932198	-0.125289	0.22789	-0.271937	0.0901563	-0.0876607	0.21148	-0.293555	0.142682	-0.203146	0.157834	-0.270558	0.222237	-0.14521	0.490968	-0.338345	
3.75519	0	0	0.034153	-0.049836	0.128418	-0.190356	0.033543	0.011252	0.137874	-0.10002	0.0729685	-0.039817	0.09789	-0.106059	0.127415	-0.106967	0.140545	-0.046022	0.0889165	-0.113127	0.228641	-0.253096	0.0849045	-0.0728185	0.213073	-0.283681	0.138609	-0.191635	0.156273	-0.266144	0.218044	-0.133358	0.489287	-0.333594	
3.75366	0	0	0.030438	-0.0490655	0.129407	-0.193153	0.032951	0.0008655	0.130845	-0.0954272	0.0739738	-0.042658	0.09789	-0.106059	0.126017	-0.103014	0.140545	-0.046022	0.0846133	-0.100965	0.229392	-0.234256	0.0796527	-0.0579763	0.214667	-0.273806	0.134536	-0.180124	0.154711	-0.261731	0.21385	-0.121505	0.487605	-0.328843	
3.74756	0	0	0.026723	-0.048295	0.130397	-0.195951	0.032359	-0.009521	0.123815	-0.090834	0.074979	-0.045499	0.09789	-0.106059	0.124618	-0.099062	0.140545	-0.046022	0.08031	-0.088803	0.230143	-0.215415	0.074401	-0.043134	0.21626	-0.263932	0.130463	-0.168613	0.153149	-0.257317	0.209656	-0.109653	0.485924	-0.324091	
3.74756	0	0	0.026723	-0.048295	0.134257	-0.196323	0.0297837	-0.014294	0.127329	-0.0931302	0.0716658	-0.0477002	0.0904775	-0.101215	0.124618	-0.099062	0.140545	-0.046022	0.078703	-0.0952343	0.229275	-0.223446	0.0708005	-0.04763	0.217517	-0.267483	0.134536	-0.180124	0.155491	-0.263936	0.1713	-0.0845907	0.487605	-0.328843	
3.74451	0	0	0.026723	-0.048295	0.138118	-0.196694	0.0272085	-0.019067	0.130843	-0.0954265	0.0683525	-0.0499015	0.083065	-0.096372	0.124618	-0.099062	0.140545	-0.046022	0.077096	-0.101666	0.228407	-0.231478	0.0672	-0.052126	0.218774	-0.271035	0.138609	-0.191635	0.157834	-0.270556	0.132945	-0.0595285	0.489287	-0.333594	
3.74451	0	0	0.026723	-0.048295	0.141978	-0.197066	0.0246333	-0.02384	0.134357	-0.0977227	0.0650393	-0.0521027	0.0756525	-0.0915285	0.124618	-0.099062	0.140545	-0.046022	0.075489	-0.108097	0.227539	-0.239509	0.0635995	-0.056622	0.22003	-0.274587	0.142682	-0.203146	0.160176	-0.277175	0.0945887	-0.0344663	0.490968	-0.338345	
3.75061	0	0	0.026723	-0.048295	0.145838	-0.197438	0.022058	-0.028613	0.137871	-0.100019	0.061726	-0.054304	0.06824	-0.086685	0.124618	-0.099062	0.140545	-0.046022	0.073882	-0.114528	0.226671	-0.24754	0.059999	-0.061118	0.221287	-0.278138	0.146755	-0.214657	0.162518	-0.283794	0.056233	-0.009404	0.492649	-0.343097	
3.74451	0	0	0.030438	-0.0490655	0.139893	-0.180635	0.0200775	-0.0230155	0.144903	-0.104614	0.0607215	-0.0514647	0.0725285	-0.0826995	0.123219	-0.0951077	0.146593	-0.0460205	0.073882	-0.114528	0.229518	-0.245103	0.0667517	-0.0655302	0.22003	-0.274587	0.149468	-0.222323	0.163298	-0.285999	0.0987825	-0.0463185	0.500509	-0.34458	
3.74451	0	0	0.034153	-0.049836	0.133947	-0.163832	0.018097	-0.017418	0.151936	-0.109209	0.059717	-0.0486255	0.076817	-0.078714	0.12182	-0.0911535	0.152642	-0.046019	0.073882	-0.114528	0.232366	-0.242666	0.0735045	-0.0699425	0.218774	-0.271035	0.15218	-0.229988	0.164079	-0.288205	0.141332	-0.083233	0.508368	-0.346062	
3.74298	0	0	0.037868	-0.0506065	0.128002	-0.14703	0.0161165	-0.0118205	0.158969	-0.113804	0.0587125	-0.0457863	0.0811055	-0.0747285	0.120421	-0.0871993	0.158691	-0.0460175	0.073882	-0.114528	0.235213	-0.240228	0.0802573	-0.0743547	0.217517	-0.267483	0.154892	-0.237654	0.164859	-0.290411	0.183882	-0.120148	0.516227	-0.347545	
3.74908	0	0	0.041583	-0.051377	0.122057	-0.130227	0.014136	-0.006223	0.166001	-0.118399	0.057708	-0.042947	0.085394	-0.070743	0.119022	-0.083245	0.164739	-0.046016	0.073882	-0.114528	0.23806	-0.237791	0.08701	-0.078767	0.21626	-0.263932	0.157605	-0.24532	0.165639	-0.292616	0.226431	-0.157062	0.524087	-0.349028	
3.74145	0	0	0.0371055	-0.0484513	0.12691	-0.133398	0.011563	-0.0109958	0.166001	-0.118399	0.050085	-0.0445123	0.079544	-0.070315	0.119022	-0.083245	0.158691	-0.0460175	0.067114	-0.106366	0.232245	-0.231842	0.0781563	-0.068417	0.213745	-0.256825	0.152178	-0.229982	0.167275	-0.286901	0.222237	-0.14521	0.509497	-0.328524	
3.74145	0	0	0.032628	-0.0455255	0.131763	-0.136569	0.00899	-0.0157685	0.166001	-0.118399	0.042462	-0.0460775	0.073694	-0.069887	0.119022	-0.083245	0.152642	-0.046019	0.060346	-0.098204	0.22643	-0.225892	0.0693025	-0.058067	0.21123	-0.249717	0.146751	-0.214644	0.168911	-0.281185	0.218044	-0.133358	0.494907	-0.30802	
3.73993	0	0	0.0281505	-0.0425997	0.136615	-0.13974	0.006417	-0.0205413	0.166001	-0.118399	0.034839	-0.0476427	0.067844	-0.069459	0.119022	-0.083245	0.146593	-0.0460205	0.053578	-0.090042	0.220615	-0.219942	0.0604488	-0.047717	0.208715	-0.242609	0.141323	-0.199306	0.170547	-0.275469	0.21385	-0.121505	0.480317	-0.287515	
3.74145	0	0	0.023673	-0.039674	0.141468	-0.142911	0.003844	-0.025314	0.166001	-0.118399	0.027216	-0.049208	0.061994	-0.069031	0.119022	-0.083245	0.140545	-0.046022	0.04681	-0.08188	0.2148	-0.213993	0.051595	-0.037367	0.2062	-0.235502	0.135896	-0.183968	0.172183	-0.269754	0.209656	-0.109653	0.465727	-0.267011	
3.7384	0	0	0.023673	-0.039674	0.139484	-0.137303	0.00028325	-0.0272865	0.166001	-0.118399	0.0229068	-0.0485727	0.0694063	-0.0738745	0.119022	-0.083245	0.150232	-0.0563032	0.048531	-0.086744	0.215789	-0.216789	0.0469487	-0.038896	0.207458	-0.239057	0.138611	-0.19164	0.173745	-0.274168	0.21385	-0.121505	0.475268	-0.273245	
3.73688	0	0	0.023673	-0.039674	0.137499	-0.131695	-0.0032775	-0.029259	0.166001	-0.118399	0.0185975	-0.0479375	0.0768185	-0.078718	0.119022	-0.083245	0.159919	-0.0665845	0.050252	-0.091608	0.216779	-0.219586	0.0423025	-0.040425	0.208715	-0.242611	0.141325	-0.199313	0.175307	-0.278581	0.218044	-0.133358	0.484808	-0.279479	
3.73535	0	0	0.023673	-0.039674	0.135515	-0.126087	-0.00683825	-0.0312315	0.166001	-0.118399	0.0142882	-0.0473023	0.0842307	-0.0835615	0.119022	-0.083245	0.169605	-0.0768658	0.051973	-0.096472	0.217769	-0.222382	0.0376563	-0.041954	0.209973	-0.246165	0.14404	-0.206985	0.176868	-0.282994	0.222237	-0.14521	0.494349	-0.285714	
3.73535	0	0	0.023673	-0.039674	0.133531	-0.120479	-0.010399	-0.033204	0.166001	-0.118399	0.009979	-0.046667	0.091643	-0.088405	0.119022	-0.083245	0.179292	-0.087147	0.053694	-0.101336	0.218758	-0.225179	0.03301	-0.043483	0.211231	-0.24972	0.146755	-0.214657	0.17843	-0.287408	0.226431	-0.157062	0.50389	-0.291948	
3.73382	0	0	0.0191975	-0.0367497	0.129559	-0.109253	-0.0179137	-0.0239945	0.169519	-0.120698	0.01228	-0.0416265	0.0885175	-0.0795715	0.116222	-0.0753313	0.173833	-0.0717182	0.0578808	-0.102202	0.226433	-0.225893	0.0376563	-0.041954	0.215337	-0.246937	0.135993	-0.204676	0.176868	-0.282994	0.226431	-0.157062	0.502205	-0.287186	
3.73077	0	0	0.014722	-0.0338255	0.125586	-0.0980265	-0.0254285	-0.014785	0.173038	-0.122997	0.014581	-0.036586	0.085392	-0.070738	0.113422	-0.0674175	0.168374	-0.0562895	0.0620675	-0.103069	0.234107	-0.226607	0.0423025	-0.040425	0.219444	-0.244153	0.125231	-0.194695	0.175307	-0.278581	0.226431	-0.157062	0.50052	-0.282424	
3.7323	0	0	0.0102465	-0.0309012	0.121613	-0.0868002	-0.0329433	-0.0055755	0.176556	-0.125296	0.016882	-0.0315455	0.0822665	-0.0619045	0.110621	-0.0595037	0.162914	-0.0408608	0.0662543	-0.103935	0.241782	-0.227321	0.0469487	-0.038896	0.22355	-0.24137	0.114469	-0.184715	0.173745	-0.274168	0.226431	-0.157062	0.498836	-0.277663	
3.7323	0	0	0.005771	-0.027977	0.117641	-0.075574	-0.040458	0.003634	0.180074	-0.127595	0.019183	-0.026505	0.079141	-0.053071	0.107821	-0.05159	0.157455	-0.025432	0.070441	-0.104801	0.249456	-0.228035	0.051595	-0.037367	0.227656	-0.238587	0.103707	-0.174734	0.172183	-0.269754	0.226431	-0.157062	0.497151	-0.272901	
3.73077	0	0	0.001298	-0.0250543	0.119628	-0.081189	-0.0430227	-0.001138	0.172277	-0.120845	0.0115722	-0.028076	0.0748542	-0.057061	0.109221	-0.0555477	0.153228	-0.0305795	0.0653938	-0.101503	0.235969	-0.221373	0.0448477	-0.032958	0.221034	-0.23426	0.109037	-0.169364	0.170621	-0.265338	0.183882	-0.120148	0.495465	-0.268137	
3.72772	0	0	-0.003175	-0.0221315	0.121615	-0.086804	-0.0455875	-0.00591	0.16448	-0.114095	0.0039615	-0.029647	0.0705675	-0.061051	0.110622	-0.0595055	0.149	-0.035727	0.0603465	-0.0982055	0.222482	-0.214711	0.0381005	-0.028549	0.214412	-0.229932	0.114367	-0.163993	0.169059	-0.260923	0.141332	-0.083233	0.49378	-0.263373	
3.72925	0	0	-0.007648	-0.0192087	0.123601	-0.092419	-0.0481523	-0.010682	0.156683	-0.107346	-0.00364925	-0.031218	0.0662807	-0.065041	0.112022	-0.0634632	0.144772	-0.0408745	0.0552993	-0.0949077	0.208996	-0.20805	0.0313532	-0.02414	0.207789	-0.225605	0.119697	-0.158622	0.167496	-0.256507	0.0987825	-0.0463185	0.492094	-0.258608	
3.72772	0	0	-0.012121	-0.016286	0.125588	-0.098034	-0.050717	-0.015454	0.148886	-0.100596	-0.01126	-0.032789	0.061994	-0.069031	0.113423	-0.067421	0.140545	-0.046022	0.050252	-0.09161	0.195509	-0.201388	0.024606	-0.019731	0.201167	-0.221278	0.125027	-0.153252	0.165934	-0.252092	0.056233	-0.009404	0.490408	-0.253844	
3.7262	0	0	-0.00841075	-0.017053	0.123601	-0.092419	-0.052695	-0.0098635	0.155921	-0.105193	-0.0122638	-0.0299528	0.0662807	-0.065041	0.112022	-0.0634632	0.144772	-0.0408745	0.0460685	-0.0907458	0.201321	-0.207336	0.024606	-0.019731	0.201167	-0.221278	0.116981	-0.150947	0.165934	-0.252092	0.056233	-0.009404	0.49996	-0.260085	
3.73077	0	0	-0.0047005	-0.01782	0.121615	-0.086804	-0.054673	-0.004273	0.162957	-0.10979	-0.0132675	-0.0271165	0.0705675	-0.061051	0.110622	-0.0595055	0.149	-0.035727	0.041885	-0.0898815	0.207133	-0.213284	0.024606	-0.019731	0.201167	-0.221278	0.108935	-0.148642	0.165934	-0.252092	0.056233	-0.009404	0.509511	-0.266327	
3.73077	0	0	-0.00099025	-0.018587	0.119628	-0.081189	-0.056651	0.0013175	0.169992	-0.114387	-0.0142712	-0.0242802	0.0748542	-0.057061	0.109221	-0.0555477	0.153228	-0.0305795	0.0377015	-0.0890172	0.212946	-0.219231	0.024606	-0.019731	0.201167	-0.221278	0.10089	-0.146337	0.165934	-0.252092	0.056233	-0.009404	0.519062	-0.272568	
3.73077	0	0	0.00272	-0.019354	0.117641	-0.075574	-0.058629	0.006908	0.177027	-0.118984	-0.015275	-0.021444	0.079141	-0.053071	0.107821	-0.05159	0.157455	-0.025432	0.033518	-0.088153	0.218758	-0.225179	0.024606	-0.019731	0.201167	-0.221278	0.092844	-0.144032	0.165934	-0.252092	0.056233	-0.009404	0.528614	-0.278809	
3.73382	0	0	0.00272	-0.019354	0.118519	-0.0675063	-0.0671272	0.0189127	0.177027	-0.118984	-0.0149882	-0.0107175	0.0818655	-0.0446523	0.112225	-0.0483785	0.159862	-0.0151228	0.038443	-0.0801463	0.225318	-0.212247	0.0260945	-0.009278	0.204012	-0.214929	0.0995305	-0.142495	0.169132	-0.250785	0.056233	-0.009404	0.526927	-0.274042	
3.7384	0	0	0.00272	-0.019354	0.119397	-0.0594385	-0.0756255	0.0309175	0.177027	-0.118984	-0.0147015	9E-06	0.08459	-0.0362335	0.116629	-0.045167	0.162269	-0.0048135	0.043368	-0.0721395	0.231878	-0.199315	0.027583	0.001175	0.206856	-0.20858	0.106217	-0.140958	0.17233	-0.249478	0.056233	-0.009404	0.52524	-0.269276	
3.7384	0	0	0.00272	-0.019354	0.120276	-0.0513707	-0.0841237	0.0429222	0.177027	-0.118984	-0.0144148	0.0107355	0.0873145	-0.0278148	0.121034	-0.0419555	0.164676	0.00549575	0.048293	-0.0641328	0.238438	-0.186383	0.0290715	0.011628	0.209701	-0.202231	0.112904	-0.139421	0.175528	-0.248172	0.056233	-0.009404	0.523554	-0.264509	
3.73535	0	0	0.00272	-0.019354	0.121154	-0.043303	-0.092622	0.054927	0.177027	-0.118984	-0.014128	0.021462	0.090039	-0.019396	0.125438	-0.038744	0.167083	0.015805	0.053218	-0.056126	0.244998	-0.173451	0.03056	0.022081	0.212546	-0.195882	0.11959	-0.137884	0.178726	-0.246865	0.056233	-0.009404	0.521867	-0.259742	
3.73688	0	0	-0.001753	-0.0164313	0.122149	-0.0461145	-0.0971573	0.055739	0.177027	-0.118984	-0.014128	0.021462	0.090039	-0.019396	0.119633	-0.037996	0.167083	0.015805	0.0498938	-0.0576978	0.246981	-0.179055	0.0316125	0.0191067	0.213806	-0.199442	0.115508	-0.126348	0.177162	-0.242445	0.0520337	0.002464	0.52018	-0.254972	
3.7384	0	0	-0.006226	-0.0135085	0.123143	-0.048926	-0.101692	0.056551	0.177027	-0.118984	-0.014128	0.021462	0.090039	-0.019396	0.113827	-0.037248	0.167083	0.015805	0.0465695	-0.0592695	0.248964	-0.184659	0.032665	0.0161325	0.215066	-0.203003	0.111426	-0.114813	0.175598	-0.238025	0.0478345	0.014332	0.518492	-0.250203	
3.74145	0	0	-0.010699	-0.0105857	0.124138	-0.0517375	-0.106228	0.057363	0.177027	-0.118984	-0.014128	0.021462	0.090039	-0.019396	0.108022	-0.0365	0.167083	0.015805	0.0432452	-0.0608412	0.250947	-0.190264	0.0337175	0.0131582	0.216325	-0.206563	0.107345	-0.103277	0.174034	-0.233605	0.0436353	0.0262	0.516804	-0.245433	
3.7384	0	0	-0.015172	-0.007663	0.125133	-0.054549	-0.110763	0.058175	0.177027	-0.118984	-0.014128	0.021462	0.090039	-0.019396	0.102217	-0.035752	0.167083	0.015805	0.039921	-0.062413	0.25293	-0.195868	0.03477	0.010184	0.217585	-0.210123	0.103263	-0.091741	0.17247	-0.229185	0.039436	0.038068	0.515117	-0.240664	
3.73688	0	0	-0.010699	-0.0105857	0.127006	-0.0492865	-0.107218	0.060162	0.188352	-0.128039	-0.0151335	0.0243037	0.0869058	-0.0105405	0.100816	-0.031791	0.171315	0.0209725	0.0390597	-0.0599785	0.25293	-0.195868	0.03477	0.010184	0.210963	-0.205796	0.103263	-0.091741	0.167709	-0.226074	0.039436	0.038068	0.505566	-0.234423	
3.7384	0	0	-0.006226	-0.0135085	0.128879	-0.044024	-0.103674	0.062149	0.199678	-0.137095	-0.016139	0.0271455	0.0837725	-0.001685	0.099414	-0.02783	0.175546	0.02614	0.0381985	-0.057544	0.25293	-0.195868	0.03477	0.010184	0.20434	-0.201468	0.103263	-0.091741	0.162948	-0.222963	0.039436	0.038068	0.496014	-0.228182	
3.7384	0	0	-0.001753	-0.0164313	0.130752	-0.0387615	-0.100129	0.064136	0.211004	-0.14615	-0.0171445	0.0299872	0.0806392	0.0071705	0.0980125	-0.023869	0.179778	0.0313075	0.0373373	-0.0551095	0.25293	-0.195868	0.03477	0.010184	0.197718	-0.197141	0.103263	-0.091741	0.158186	-0.219851	0.039436	0.038068	0.486463	-0.221941	
3.7323	0	0	0.00272	-0.019354	0.132625	-0.033499	-0.096584	0.066123	0.222329	-0.155205	-0.01815	0.032829	0.077506	0.016026	0.096611	-0.019908	0.184009	0.036475	0.036476	-0.052675	0.25293	-0.195868	0.03477	0.010184	0.191096	-0.192814	0.103263	-0.091741	0.153425	-0.21674	0.039436	0.038068	0.476911	-0.2157	
3.73688	0	0	0.001957	-0.0171975	0.129637	-0.025054	-0.0995572	0.0745258	0.221567	-0.153052	-0.0188772	0.0464277	0.0802255	0.0244735	0.099609	-0.0127227	0.178525	0.051975	0.0372125	-0.043791	0.259499	-0.18291	0.0362568	0.0206535	0.193937	-0.186457	0.100539	-0.0840422	0.156621	-0.215429	0.0352312	0.0499515	0.469058	-0.214235	
3.73382	0	0	0.001194	-0.015041	0.126649	-0.016609	-0.10253	0.0829285	0.220805	-0.1509	-0.0196045	0.0600265	0.082945	0.032921	0.102607	-0.0055375	0.17304	0.067475	0.037949	-0.034907	0.266069	-0.169952	0.0377435	0.031123	0.196779	-0.180099	0.0978145	-0.0763435	0.159818	-0.214118	0.0310265	0.061835	0.461205	-0.21277	
3.7323	0	0	0.000431	-0.0128845	0.123661	-0.008164	-0.105504	0.0913313	0.220044	-0.148747	-0.0203318	0.0736253	0.0856645	0.0413685	0.105605	0.00164775	0.167555	0.082975	0.0386855	-0.026023	0.272639	-0.156994	0.0392303	0.0415925	0.199621	-0.173741	0.0950903	-0.0686448	0.163015	-0.212807	0.0268218	0.0737185	0.453351	-0.211305	
3.73535	0	0	-0.000332	-0.010728	0.120673	0.000281	-0.108477	0.099734	0.219282	-0.146594	-0.021059	0.087224	0.088384	0.049816	0.108603	0.008833	0.162071	0.098475	0.039422	-0.017139	0.279208	-0.144036	0.040717	0.052062	0.202462	-0.167384	0.092366	-0.060946	0.166211	-0.211496	0.022617	0.085602	0.445498	-0.20984	
3.73688	0	0	0.00414325	-0.0136522	0.118679	0.0059155	-0.102948	0.0961213	0.220044	-0.148747	-0.026372	0.0906955	0.0942455	0.0493975	0.101396	0.013542	0.169961	0.0933197	0.0376963	-0.0122615	0.27523	-0.132796	0.0375533	0.061003	0.201201	-0.16382	0.0869108	-0.0455285	0.158318	-0.199534	0.0184065	0.0975015	0.451663	-0.206533	
3.73535	0	0	0.0086185	-0.0165765	0.116685	0.01155	-0.097419	0.0925085	0.220805	-0.1509	-0.031685	0.094167	0.100107	0.048979	0.0941895	0.018251	0.177851	0.0881645	0.0359705	-0.007384	0.271253	-0.121555	0.0343895	0.069944	0.199939	-0.160255	0.0814555	-0.030111	0.150425	-0.187572	0.014196	0.109401	0.457827	-0.203226	
3.73535	0	0	0.0130937	-0.0195008	0.114692	0.0171845	-0.09189	0.0888957	0.221567	-0.153052	-0.036998	0.0976385	0.105968	0.0485605	0.0869827	0.02296	0.185741	0.0830093	0.0342447	-0.0025065	0.267275	-0.110314	0.0312258	0.078885	0.198678	-0.156691	0.0760002	-0.0146935	0.142532	-0.17561	0.0099855	0.121301	0.463992	-0.199919	
3.7323	0	0	0.017569	-0.022425	0.112698	0.022819	-0.086361	0.085283	0.222329	-0.155205	-0.042311	0.10111	0.11183	0.048142	0.079776	0.027669	0.193631	0.077854	0.032519	0.002371	0.263298	-0.099074	0.028062	0.087826	0.197417	-0.153127	0.070545	0.000724	0.134639	-0.163648	0.005775	0.1332	0.470157	-0.196612	
3.73535	0	0	0.0242365	-0.021806	0.117433	0.0305662	-0.0847972	0.0928838	0.235673	-0.162269	-0.0400225	0.106186	0.107115	0.061468	0.078372	0.0316372	0.196034	0.0882205	0.0349785	0.00639225	0.269998	-0.0969635	0.0259513	0.0937918	0.20152	-0.150324	0.070545	0.000724	0.1394	-0.166759	0.005775	0.1332	0.462305	-0.19515	
3.7323	0	0	0.030904	-0.021187	0.122168	0.0383135	-0.0832335	0.100485	0.249016	-0.169333	-0.037734	0.111262	0.1024	0.074794	0.076968	0.0356055	0.198437	0.098587	0.037438	0.0104135	0.276698	-0.094853	0.0238405	0.0997575	0.205624	-0.147521	0.070545	0.000724	0.144161	-0.16987	0.005775	0.1332	0.454452	-0.193688	
3.7323	0	0	0.0375715	-0.020568	0.126903	0.0460607	-0.0816697	0.108085	0.262359	-0.176397	-0.0354455	0.116338	0.0976843	0.08812	0.075564	0.0395737	0.200841	0.108953	0.0398975	0.0144348	0.283399	-0.0927425	0.0217297	0.105723	0.209728	-0.144719	0.070545	0.000724	0.148923	-0.172981	0.005775	0.1332	0.446599	-0.192225	
3.7323	0	0	0.044239	-0.019949	0.131638	0.053808	-0.080106	0.115686	0.275703	-0.183461	-0.033157	0.121414	0.092969	0.101446	0.07416	0.043542	0.203244	0.11932	0.042357	0.018456	0.290099	-0.090632	0.019619	0.111689	0.213831	-0.141916	0.070545	0.000724	0.153684	-0.176092	0.005775	0.1332	0.438747	-0.190763	
3.73382	0	0	0.0419472	-0.013472	0.134375	0.0672263	-0.0850738	0.129726	0.279233	-0.185768	-0.0349088	0.137916	0.0999772	0.113975	0.0771505	0.0507485	0.20197	0.140094	0.0455477	0.031403	0.302389	-0.072648	0.026799	0.120775	0.220782	-0.132729	0.077229	0.00229075	0.151333	-0.169448	0.005775	0.1332	0.435369	-0.181217	
3.72925	0	0	0.0396555	-0.006995	0.137112	0.0806445	-0.0900415	0.143765	0.282763	-0.188074	-0.0366605	0.154418	0.106985	0.126505	0.080141	0.057955	0.200697	0.160867	0.0487385	0.04435	0.31468	-0.054664	0.033979	0.12986	0.227733	-0.123542	0.083913	0.0038575	0.148982	-0.162804	0.005775	0.1332	0.431991	-0.171671	
3.72925	0	0	0.0373638	-0.000518	0.13985	0.0940628	-0.0950092	0.157805	0.286293	-0.190381	-0.0384122	0.17092	0.113994	0.139035	0.0831315	0.0651615	0.199424	0.181641	0.0519293	0.057297	0.32697	-0.03668	0.041159	0.138946	0.234685	-0.114356	0.090597	0.00542425	0.146631	-0.15616	0.005775	0.1332	0.428614	-0.162124	
3.72925	0	0	0.035072	0.005959	0.142587	0.107481	-0.099977	0.171845	0.289823	-0.192687	-0.040164	0.187422	0.121002	0.151564	0.086122	0.072368	0.19815	0.202414	0.05512	0.070244	0.339261	-0.018696	0.048339	0.148032	0.241636	-0.105169	0.097281	0.006991	0.14428	-0.149516	0.005775	0.1332	0.425236	-0.152578	
3.7262	0	0	0.0395545	0.00303025	0.139582	0.115972	-0.0954355	0.171038	0.293354	-0.194995	-0.0358555	0.186803	0.119425	0.156022	0.086122	0.072368	0.206062	0.197244	0.056851	0.065352	0.3374	-0.0239933	0.0504542	0.142055	0.237528	-0.107979	0.0851323	0.0208683	0.142712	-0.145084	0.0356925	0.131985	0.415706	-0.146351	
3.72772	0	0	0.044037	0.0001015	0.136578	0.124462	-0.090894	0.170231	0.296886	-0.197302	-0.031547	0.186185	0.117847	0.160479	0.086122	0.072368	0.213973	0.192075	0.058582	0.06046	0.335539	-0.0292905	0.0525695	0.136077	0.233419	-0.110789	0.0729835	0.0347455	0.141143	-0.140652	0.06561	0.130769	0.406176	-0.140124	
3.72467	0	0	0.0485195	-0.00282725	0.133573	0.132953	-0.0863525	0.169425	0.300417	-0.199609	-0.0272385	0.185566	0.11627	0.164936	0.086122	0.072368	0.221885	0.186905	0.060313	0.055568	0.333679	-0.0345878	0.0546848	0.1301	0.229311	-0.1136	0.0608347	0.0486227	0.139575	-0.13622	0.0955275	0.129554	0.396645	-0.133896	
3.72009	0	0	0.053002	-0.005756	0.130569	0.141443	-0.081811	0.168618	0.303948	-0.201917	-0.02293	0.184947	0.114693	0.169394	0.086122	0.072368	0.229797	0.181735	0.062044	0.050676	0.331818	-0.039885	0.0568	0.124122	0.225202	-0.11641	0.048686	0.0625	0.138007	-0.131788	0.125445	0.128338	0.387115	-0.127669	
3.72162	0	0	0.0507085	0.0007255	0.139176	0.148892	-0.085792	0.179869	0.311015	-0.206535	-0.024953	0.190665	0.118987	0.173447	0.0847155	0.0763433	0.226119	0.192132	0.067103	0.0473703	0.335678	-0.0402365	0.0568	0.124122	0.230575	-0.117174	0.050053	0.0586365	0.138791	-0.134004	0.0913113	0.141469	0.394955	-0.129119	
3.72009	0	0	0.048415	0.007207	0.147784	0.156342	-0.089773	0.19112	0.318082	-0.211153	-0.026976	0.196382	0.123281	0.1775	0.083309	0.0803185	0.22244	0.202528	0.072162	0.0440645	0.339537	-0.040588	0.0568	0.124122	0.235949	-0.117939	0.05142	0.054773	0.139575	-0.13622	0.0571775	0.1546	0.402795	-0.13057	
3.71704	0	0	0.0461215	0.0136885	0.156392	0.163791	-0.093754	0.202371	0.32515	-0.21577	-0.028999	0.202099	0.127576	0.181553	0.0819025	0.0842938	0.218761	0.212924	0.077221	0.0407587	0.343396	-0.0409395	0.0568	0.124122	0.241322	-0.118703	0.052787	0.0509095	0.14036	-0.138437	0.0230438	0.167731	0.410635	-0.13202	
3.71399	0	0	0.043828	0.02017	0.164999	0.17124	-0.097735	0.213622	0.332217	-0.220388	-0.031022	0.207817	0.13187	0.185606	0.080496	0.088269	0.215083	0.223321	0.08228	0.037453	0.347256	-0.041291	0.0568	0.124122	0.246695	-0.119467	0.054154	0.047046	0.141144	-0.140653	-0.01109	0.180862	0.418475	-0.13347	
3.71857	0	0	0.0445925	0.018009	0.162129	0.168755	-0.0947488	0.205182	0.328683	-0.218079	-0.0363417	0.211293	0.125998	0.186013	0.0790887	0.092246	0.209011	0.223291	0.078817	0.04724	0.346117	-0.0275105	0.0525683	0.136081	0.242899	-0.10874	0.052787	0.0509095	0.14036	-0.138437	0.0272655	0.1558	0.416784	-0.12869	
3.71399	0	0	0.045357	0.015848	0.159258	0.16627	-0.0917625	0.196742	0.325148	-0.21577	-0.0416615	0.214769	0.120125	0.18642	0.0776815	0.096223	0.202939	0.223261	0.075354	0.057027	0.344978	-0.01373	0.0483365	0.14804	0.239103	-0.098012	0.05142	0.054773	0.139575	-0.13622	0.065621	0.130738	0.415092	-0.123911	
3.71704	0	0	0.0461215	0.013687	0.156387	0.163785	-0.0887763	0.188303	0.321614	-0.21346	-0.0469813	0.218244	0.114253	0.186826	0.0762743	0.1002	0.196867	0.223231	0.071891	0.066814	0.343839	5.05E-05	0.0441047	0.16	0.235308	-0.0872845	0.050053	0.0586365	0.138791	-0.134004	0.103976	0.105675	0.413401	-0.119131	
3.71551	0	0	0.046886	0.011526	0.153517	0.1613	-0.08579	0.179863	0.31808	-0.211151	-0.052301	0.22172	0.108381	0.187233	0.074867	0.104177	0.190795	0.223201	0.068428	0.076601	0.3427	0.013831	0.039873	0.171959	0.231512	-0.076557	0.048686	0.0625	0.138007	-0.131788	0.142332	0.080613	0.41171	-0.114351	
3.71857	0	0	0.0431682	0.0122942	0.15452	0.158466	-0.0893368	0.177859	0.31808	-0.211151	-0.0576173	0.225194	0.100937	0.192097	0.0690675	0.104909	0.184729	0.223169	0.061776	0.0734235	0.338981	0.003225	0.0383985	0.161432	0.235308	-0.0872845	0.0461107	0.0493442	0.136381	-0.137539	0.103976	0.105675	0.415092	-0.123908	
3.71551	0	0	0.0394505	0.0130625	0.155523	0.155631	-0.0928835	0.175854	0.31808	-0.211151	-0.0629335	0.228667	0.093492	0.196962	0.063268	0.105641	0.178664	0.223137	0.055124	0.070246	0.335261	-0.007381	0.036924	0.150904	0.239103	-0.098012	0.0435355	0.0361885	0.134756	-0.14329	0.065621	0.130738	0.418473	-0.133464	
3.71551	0	0	0.0357328	0.0138308	0.156526	0.152797	-0.0964302	0.173849	0.31808	-0.211151	-0.0682497	0.232141	0.0860475	0.201826	0.0574685	0.106373	0.172598	0.223106	0.048472	0.0670685	0.331542	-0.017987	0.0354495	0.140376	0.242899	-0.10874	0.0409603	0.0230327	0.133131	-0.149041	0.0272655	0.1558	0.421855	-0.143021	
3.71551	0	0	0.032015	0.014599	0.157529	0.149962	-0.099977	0.171845	0.31808	-0.211151	-0.073566	0.235615	0.078603	0.20669	0.051669	0.107105	0.166532	0.223074	0.04182	0.063891	0.327823	-0.028593	0.033975	0.129849	0.246695	-0.119467	0.038385	0.009877	0.131505	-0.154792	-0.01109	0.180862	0.425236	-0.152578	
3.71857	0	0	0.0327793	0.012439	0.156526	0.152797	-0.0964302	0.173849	0.314547	-0.208843	-0.0692618	0.235002	0.0876255	0.197366	0.0530755	0.10313	0.16837	0.21788	0.04355	0.0590015	0.324965	-0.0310653	0.0350318	0.126863	0.241322	-0.118703	0.0424755	-0.0016835	0.133855	-0.161433	-0.040848	0.181998	0.425236	-0.152578	
3.72009	0	0	0.0335435	0.010279	0.155523	0.155631	-0.0928835	0.175854	0.311014	-0.206534	-0.0649575	0.234388	0.096648	0.188042	0.054482	0.0991545	0.170208	0.212687	0.04528	0.054112	0.322106	-0.0335375	0.0360885	0.123877	0.235949	-0.117939	0.046566	-0.013244	0.136205	-0.168073	-0.070606	0.183134	0.425236	-0.152578	
3.7262	0	0	0.0343077	0.008119	0.15452	0.158466	-0.0893368	0.177859	0.307481	-0.204226	-0.0606533	0.233774	0.105671	0.178718	0.0558885	0.0951792	0.172045	0.207493	0.04701	0.0492225	0.319248	-0.0360098	0.0371452	0.12089	0.230575	-0.117174	0.0506565	-0.0248045	0.138554	-0.174713	-0.100364	0.184269	0.425236	-0.152578	
3.72925	0	0	0.035072	0.005959	0.153517	0.1613	-0.08579	0.179863	0.303948	-0.201917	-0.056349	0.233161	0.114693	0.169394	0.057295	0.091204	0.173883	0.202299	0.04874	0.044333	0.31639	-0.038482	0.038202	0.117904	0.225202	-0.11641	0.054747	-0.036365	0.140904	-0.181354	-0.130122	0.185405	0.425236	-0.152578	
3.73688	0	0	0.0313563	0.00672675	0.153654	0.150321	-0.0893368	0.177859	0.296887	-0.197303	-0.0543253	0.227442	0.098683	0.166158	0.0529058	0.0879637	0.165436	0.19187	0.0387745	0.03958	0.299135	-0.0423753	0.0299695	0.111815	0.223622	-0.126354	0.0453525	-0.0302265	0.136929	-0.180457	-0.0919372	0.160454	0.423546	-0.147801	
3.73688	0	0	0.0276405	0.0074945	0.153791	0.139343	-0.0928835	0.175854	0.289825	-0.192689	-0.0523015	0.221722	0.082673	0.162922	0.0485165	0.0847235	0.156989	0.181441	0.028809	0.034827	0.28188	-0.0462685	0.021737	0.105727	0.222041	-0.136297	0.035958	-0.024088	0.132953	-0.179561	-0.0537525	0.135503	0.421855	-0.143024	
3.73993	0	0	0.0239248	0.00826225	0.153928	0.128364	-0.0964302	0.173849	0.282764	-0.188075	-0.0502777	0.216003	0.066663	0.159686	0.0441272	0.0814832	0.148542	0.171012	0.0188435	0.030074	0.264624	-0.0501617	0.0135045	0.0996385	0.220461	-0.146241	0.0265635	-0.0179495	0.128977	-0.178664	-0.0155677	0.110553	0.420165	-0.138247	
3.74451	0	0	0.020209	0.00903	0.154065	0.117385	-0.099977	0.171845	0.275703	-0.183461	-0.048254	0.210284	0.050653	0.15645	0.039738	0.078243	0.140095	0.160583	0.008878	0.025321	0.247369	-0.054055	0.005272	0.09355	0.21888	-0.156185	0.017169	-0.011811	0.125002	-0.177767	0.022617	0.085602	0.418475	-0.13347	
3.74756	0	0	0.0164953	0.009797	0.156067	0.111726	-0.091886	0.173042	0.275703	-0.183461	-0.041923	0.20395	0.0553727	0.143111	0.035352	0.0750057	0.145589	0.145056	0.0048305	0.014847	0.25049	-0.0733883	0.00484675	0.0800917	0.217297	-0.166109	0.023975	-0.0310455	0.124158	-0.185714	0.0268218	0.0737185	0.410635	-0.13202	
3.75061	0	0	0.0127815	0.010564	0.15807	0.106066	-0.083795	0.174239	0.275703	-0.183461	-0.035592	0.197615	0.0600925	0.129772	0.030966	0.0717685	0.151083	0.129529	0.000783	0.004373	0.25361	-0.0927215	0.0044215	0.0666335	0.215713	-0.176034	0.030781	-0.05028	0.123313	-0.19366	0.0310265	0.061835	0.402795	-0.13057	
3.75213	0	0	0.00906775	0.011331	0.160073	0.100406	-0.075704	0.175437	0.275703	-0.183461	-0.029261	0.191281	0.0648123	0.116432	0.02658	0.0685313	0.156577	0.114002	-0.0032645	-0.006101	0.25673	-0.112055	0.00399625	0.0531753	0.21413	-0.185958	0.037587	-0.0695145	0.122468	-0.201606	0.0352312	0.0499515	0.394955	-0.129119	
3.75061	0	0	0.005354	0.012098	0.162075	0.094747	-0.067613	0.176634	0.275703	-0.183461	-0.02293	0.184947	0.069532	0.103093	0.022194	0.065294	0.162071	0.098475	-0.007312	-0.016575	0.259851	-0.131388	0.003571	0.039717	0.212546	-0.195882	0.044393	-0.088749	0.121624	-0.209553	0.039436	0.038068	0.387115	-0.127669	
3.75061	0	0	-0.00653775	0.0165498	0.155335	0.0926297	-0.0711625	0.17463	0.265122	-0.176547	-0.0155855	0.175755	0.0636785	0.103503	0.022194	0.065294	0.148142	0.103602	-0.013212	-0.0108472	0.258857	-0.128579	-0.003171	0.0441223	0.211286	-0.192321	0.0363683	-0.086459	0.121624	-0.209553	0.00125125	0.0630185	0.396645	-0.133896	
3.75061	0	0	-0.0184295	0.0210015	0.148595	0.0905125	-0.074712	0.172626	0.254541	-0.169633	-0.008241	0.166564	0.057825	0.103913	0.022194	0.065294	0.134213	0.10873	-0.019112	-0.0051195	0.257864	-0.125771	-0.009913	0.0485275	0.210026	-0.188759	0.0283435	-0.084169	0.121624	-0.209553	-0.0369335	0.087969	0.406176	-0.140124	
3.74756	0	0	-0.0303212	0.0254533	0.141855	0.0883952	-0.0782615	0.170622	0.24396	-0.162719	-0.0008965	0.157372	0.0519715	0.104323	0.022194	0.065294	0.120285	0.113857	-0.025012	0.00060825	0.25687	-0.122962	-0.016655	0.0529328	0.208765	-0.185197	0.0203188	-0.081879	0.121624	-0.209553	-0.0751183	0.11292	0.415706	-0.146351	
3.74451	0	0	-0.042213	0.029905	0.135115	0.086278	-0.081811	0.168618	0.233379	-0.155805	0.006448	0.14818	0.046118	0.104733	0.022194	0.065294	0.106356	0.118984	-0.030912	0.006336	0.255876	-0.120153	-0.023397	0.057338	0.207505	-0.181636	0.012294	-0.079589	0.121624	-0.209553	-0.113303	0.13787	0.425236	-0.152578	
3.73993	0	0	-0.0459178	0.0306673	0.135245	0.0753385	-0.0914535	0.159807	0.226332	-0.151201	0.00085425	0.140866	0.0449782	0.0918348	0.019214	0.058097	0.105794	0.103476	-0.0323715	-0.0114132	0.25229	-0.141526	-0.022774	0.04094	0.201819	-0.194333	0.00970825	-0.092649	0.116027	-0.214383	-0.0667252	0.0891992	0.406186	-0.14013	
3.73993	0	0	-0.0496225	0.0314295	0.135374	0.064399	-0.101096	0.150997	0.219285	-0.146596	-0.0047395	0.133551	0.0438385	0.0789365	0.016234	0.0509	0.105232	0.087969	-0.033831	-0.0291625	0.248705	-0.162899	-0.022151	0.024542	0.196134	-0.207031	0.0071225	-0.105709	0.110429	-0.219214	-0.0201475	0.0405285	0.387136	-0.127683	
3.73993	0	0	-0.0533272	0.0321917	0.135503	0.0534595	-0.110739	0.142186	0.212238	-0.141991	-0.0103332	0.126237	0.0426988	0.0660382	0.013254	0.043703	0.10467	0.0724615	-0.0352905	-0.0469117	0.245119	-0.184272	-0.021528	0.008144	0.190449	-0.219728	0.00453675	-0.118769	0.104831	-0.224044	0.0264303	-0.00814225	0.368086	-0.115235	
3.7323	0	0	-0.057032	0.032954	0.135633	0.04252	-0.120381	0.133376	0.205191	-0.137387	-0.015927	0.118922	0.041559	0.05314	0.010274	0.036506	0.104108	0.056954	-0.03675	-0.064661	0.241534	-0.205645	-0.020905	-0.008254	0.184763	-0.232425	0.001951	-0.131829	0.099234	-0.228874	0.073008	-0.056813	0.349036	-0.102787	
3.7323	0	0	-0.060735	0.0337153	0.138627	0.034059	-0.118397	0.127768	0.205191	-0.137387	-0.019226	0.116695	0.0357145	0.0535525	0.0030915	0.0411992	0.105932	0.0517992	-0.037484	-0.0735135	0.237818	-0.216119	-0.029116	-0.014288	0.188533	-0.24308	-0.00199225	-0.141029	0.0960473	-0.230184	0.0348235	-0.0318623	0.350726	-0.107562	
3.72925	0	0	-0.064438	0.0344765	0.14162	0.025598	-0.116412	0.12216	0.205191	-0.137387	-0.022525	0.114467	0.02987	0.053965	-0.004091	0.0458925	0.107756	0.0466445	-0.038218	-0.082366	0.234102	-0.226593	-0.037327	-0.020322	0.192303	-0.253734	-0.0059355	-0.150228	0.0928605	-0.231494	-0.003361	-0.0069115	0.352415	-0.112336	
3.72772	0	0	-0.068141	0.0352377	0.144614	0.017137	-0.114428	0.116552	0.205191	-0.137387	-0.025824	0.11224	0.0240255	0.0543775	-0.0112735	0.0505857	0.10958	0.0414897	-0.038952	-0.0912185	0.230387	-0.237066	-0.045538	-0.026356	0.196073	-0.264389	-0.00987875	-0.159428	0.0896737	-0.232804	-0.0415455	0.0180393	0.354104	-0.11711	
3.72314	0	0	-0.071844	0.035999	0.147608	0.008676	-0.112443	0.110944	0.205191	-0.137387	-0.029123	0.110013	0.018181	0.05479	-0.018456	0.055279	0.111404	0.036335	-0.039686	-0.100071	0.226671	-0.24754	-0.053749	-0.03239	0.199843	-0.275044	-0.013822	-0.168628	0.086487	-0.234114	-0.07973	0.04299	0.355794	-0.121885	
3.72467	0	0	-0.080006	0.0396745	0.143862	-0.00186775	-0.117545	0.10136	0.195393	-0.13264	-0.0367222	0.108409	0.0139085	0.0507737	-0.0156533	0.0473585	0.0993337	0.0363028	-0.0405445	-0.0976445	0.224693	-0.24195	-0.0547975	-0.0294265	0.193231	-0.270724	-0.016531	-0.160972	0.086487	-0.234114	-0.07973	0.04299	0.360243	-0.113774	
3.72162	0	0	-0.088168	0.04335	0.140116	-0.0124115	-0.122646	0.0917755	0.185596	-0.127893	-0.0443215	0.106806	0.009636	0.0467575	-0.0128505	0.039438	0.0872635	0.0362705	-0.041403	-0.095218	0.222715	-0.23636	-0.055846	-0.026463	0.186619	-0.266404	-0.01924	-0.153316	0.086487	-0.234114	-0.07973	0.04299	0.364692	-0.105663	
3.71857	0	0	-0.09633	0.0470255	0.136371	-0.0229552	-0.127748	0.0821913	0.175799	-0.123146	-0.0519208	0.105203	0.0053635	0.0427413	-0.0100477	0.0315175	0.0751933	0.0362382	-0.0422615	-0.0927915	0.220736	-0.230769	-0.0568945	-0.0234995	0.180007	-0.262083	-0.021949	-0.145661	0.086487	-0.234114	-0.07973	0.04299	0.36914	-0.0975527	
3.71857	0	0	-0.104492	0.050701	0.132625	-0.033499	-0.13285	0.072607	0.166001	-0.118399	-0.05952	0.103599	0.001091	0.038725	-0.007245	0.023597	0.063123	0.036206	-0.04312	-0.090365	0.218758	-0.225179	-0.057943	-0.020536	0.173395	-0.257763	-0.024658	-0.138005	0.086487	-0.234114	-0.07973	0.04299	0.373589	-0.089442	
3.71704	0	0	-0.108188	0.0514588	0.125896	-0.0355888	-0.134411	0.0650285	0.161722	-0.113948	-0.0575058	0.097907	-0.0031785	0.0347138	-0.00584475	0.0196393	0.0667635	0.0259175	-0.049737	-0.0935003	0.209241	-0.2297	-0.0594245	-0.0309523	0.171808	-0.267632	-0.028596	-0.147198	0.0840822	-0.237628	-0.0331745	-0.00561775	0.36576	-0.0880013	
3.71399	0	0	-0.111884	0.0522165	0.119168	-0.0376785	-0.135971	0.05745	0.157444	-0.109497	-0.0554915	0.092215	-0.007448	0.0307025	-0.0044445	0.0156815	0.070404	0.015629	-0.056354	-0.0966355	0.199723	-0.23422	-0.060906	-0.0413685	0.170221	-0.277502	-0.032534	-0.156391	0.0816775	-0.241142	0.013381	-0.0542255	0.357932	-0.0865605	
3.71551	0	0	-0.11558	0.0529743	0.112439	-0.0397682	-0.137532	0.0498715	0.153165	-0.105047	-0.0534773	0.086523	-0.0117175	0.0266912	-0.00304425	0.0117238	0.0740445	0.0053405	-0.062971	-0.0997707	0.190206	-0.238741	-0.0623875	-0.0517847	0.168634	-0.287372	-0.036472	-0.165585	0.0792728	-0.244655	0.0599365	-0.102833	0.350104	-0.0851197	
3.71551	0	0	-0.119276	0.053732	0.105711	-0.041858	-0.139093	0.042293	0.148886	-0.100596	-0.051463	0.080831	-0.015987	0.02268	-0.001644	0.007766	0.077685	-0.004948	-0.069588	-0.102906	0.180689	-0.243262	-0.063869	-0.062201	0.167047	-0.297241	-0.04041	-0.174778	0.076868	-0.248169	0.106492	-0.151441	0.342275	-0.083679	
3.71704	0	0	-0.114817	0.0508183	0.107581	-0.0365935	-0.14305	0.0534772	0.153165	-0.105047	-0.049175	0.0859007	-0.0117175	0.0266912	-0.00304425	0.0117237	0.0818983	0.00020875	-0.0654225	-0.103764	0.18353	-0.240824	-0.064916	-0.0592412	0.165793	-0.293696	-0.04041	-0.174778	0.076088	-0.245965	0.102309	-0.13962	0.331075	-0.072686	
3.72009	0	0	-0.110358	0.0479045	0.109452	-0.031329	-0.147008	0.0646615	0.157444	-0.109497	-0.046887	0.0909705	-0.007448	0.0307025	-0.0044445	0.0156815	0.0861115	0.0053655	-0.061257	-0.104622	0.186371	-0.238387	-0.065963	-0.0562815	0.164539	-0.290152	-0.04041	-0.174778	0.075308	-0.24376	0.0981265	-0.1278	0.319875	-0.061693	
3.72314	0	0	-0.105899	0.0449908	0.111322	-0.0260645	-0.150965	0.0758457	0.161722	-0.113948	-0.044599	0.0960403	-0.0031785	0.0347138	-0.00584475	0.0196392	0.0903247	0.0105223	-0.0570915	-0.10548	0.189213	-0.23595	-0.06701	-0.0533218	0.163284	-0.286608	-0.04041	-0.174778	0.074528	-0.241556	0.0939437	-0.115979	0.308674	-0.0507	
3.72162	0	0	-0.10144	0.042077	0.113192	-0.0208	-0.154922	0.08703	0.166001	-0.118399	-0.042311	0.10111	0.001091	0.038725	-0.007245	0.023597	0.094538	0.015679	-0.052926	-0.106338	0.192054	-0.233512	-0.068057	-0.050362	0.16203	-0.283063	-0.04041	-0.174778	0.073748	-0.239352	0.089761	-0.104158	0.297474	-0.039707	
3.72162	0	0	-0.105899	0.0449908	0.109332	-0.0204408	-0.159447	0.087836	0.168758	-0.118545	-0.0433188	0.103958	-0.00474325	0.0391358	-0.007245	0.023597	0.0927163	0.0208277	-0.058078	-0.0917773	0.190938	-0.219885	-0.0655285	-0.0429055	0.158265	-0.272421	-0.0378275	-0.161754	0.0753715	-0.23363	0.0473882	-0.067371	0.303598	-0.0363537	
3.7262	0	0	-0.110358	0.0479045	0.105472	-0.0200815	-0.163971	0.088642	0.171514	-0.118692	-0.0443265	0.106806	-0.0105775	0.0395465	-0.007245	0.023597	0.0908945	0.0259765	-0.06323	-0.0772165	0.189822	-0.206259	-0.063	-0.035449	0.154499	-0.261779	-0.035245	-0.14873	0.076995	-0.227909	0.0050155	-0.030584	0.309722	-0.0330005	
3.7262	0	0	-0.114817	0.0508183	0.101612	-0.0197222	-0.168496	0.089448	0.17427	-0.118838	-0.0453342	0.109655	-0.0164117	0.0399572	-0.007245	0.023597	0.0890727	0.0311253	-0.068382	-0.0626557	0.188706	-0.192632	-0.0604715	-0.0279925	0.150733	-0.251136	-0.0326625	-0.135707	0.0786185	-0.222187	-0.0373572	0.006203	0.315846	-0.0296472	
3.7262	0	0	-0.119276	0.053732	0.097752	-0.019363	-0.173021	0.090254	0.177027	-0.118984	-0.046342	0.112503	-0.022246	0.040368	-0.007245	0.023597	0.087251	0.036274	-0.073534	-0.048095	0.18759	-0.179005	-0.057943	-0.020536	0.146968	-0.240494	-0.03008	-0.122683	0.080242	-0.216465	-0.07973	0.04299	0.32197	-0.026294	
3.72772	0	0	-0.11558	0.0529743	0.101612	-0.0197222	-0.169487	0.0922463	0.177027	-0.118984	-0.0473503	0.115352	-0.0179782	0.044384	-0.00864625	0.0275562	0.0932892	0.0362893	-0.073534	-0.048095	0.18759	-0.179005	-0.057943	-0.020536	0.148223	-0.244043	-0.03008	-0.122683	0.0747157	-0.211157	-0.0839237	0.0548422	0.312461	-0.0200805	
3.72314	0	0	-0.111884	0.0522165	0.105472	-0.0200815	-0.165952	0.0942385	0.177027	-0.118984	-0.0483585	0.118202	-0.0137105	0.0484	-0.0100475	0.0315155	0.0993275	0.0363045	-0.073534	-0.048095	0.18759	-0.179005	-0.057943	-0.020536	0.149479	-0.247592	-0.03008	-0.122683	0.0691895	-0.205849	-0.0881175	0.0666945	0.302952	-0.013867	
3.72162	0	0	-0.108188	0.0514588	0.109332	-0.0204408	-0.162417	0.0962308	0.177027	-0.118984	-0.0493668	0.121051	-0.00944275	0.052416	-0.0114488	0.0354747	0.105366	0.0363197	-0.073534	-0.048095	0.18759	-0.179005	-0.057943	-0.020536	0.150734	-0.25114	-0.03008	-0.122683	0.0636633	-0.200542	-0.0923112	0.0785467	0.293443	-0.0076535	
3.72009	0	0	-0.104492	0.050701	0.113192	-0.0208	-0.158883	0.098223	0.177027	-0.118984	-0.050375	0.1239	-0.005175	0.056432	-0.01285	0.039434	0.111404	0.036335	-0.073534	-0.048095	0.18759	-0.179005	-0.057943	-0.020536	0.15199	-0.254689	-0.03008	-0.122683	0.058137	-0.195234	-0.096505	0.090399	0.283934	-0.00144	
3.72009	0	0	-0.105255	0.0528573	0.10821	-0.00672075	-0.161855	0.106623	0.180547	-0.121284	-0.0480882	0.128981	0.0065085	0.055609	-0.009874	0.0466297	0.119845	0.0466845	-0.0719473	-0.0416588	0.192283	-0.171305	-0.061091	-0.0116395	0.149478	-0.24759	-0.0314357	-0.118851	0.0621013	-0.196127	-0.096505	0.090399	0.283934	-0.00144	
3.72162	0	0	-0.106018	0.0550135	0.103229	0.0073585	-0.164828	0.115023	0.184066	-0.123584	-0.0458015	0.134063	0.018192	0.054786	-0.006898	0.0538255	0.128287	0.057034	-0.0703605	-0.0352225	0.196975	-0.163605	-0.064239	-0.002743	0.146966	-0.240491	-0.0327915	-0.115019	0.0660655	-0.19702	-0.096505	0.090399	0.283934	-0.00144	
3.71246	0	0	-0.106781	0.0571697	0.0982467	0.0214377	-0.1678	0.123423	0.187586	-0.125884	-0.0435148	0.139144	0.0298755	0.053963	-0.003922	0.0610212	0.136729	0.0673835	-0.0687737	-0.0287862	0.201668	-0.155905	-0.067387	0.0061535	0.144455	-0.233392	-0.0341472	-0.111187	0.0700298	-0.197914	-0.096505	0.090399	0.283934	-0.00144	
3.70941	0	0	-0.107544	0.059326	0.093265	0.035517	-0.170772	0.131823	0.191106	-0.128184	-0.041228	0.144225	0.041559	0.05314	-0.000946	0.068217	0.14517	0.077733	-0.067187	-0.02235	0.206361	-0.148205	-0.070535	0.01505	0.141943	-0.226293	-0.035503	-0.107355	0.073994	-0.198807	-0.096505	0.090399	0.283934	-0.00144	
3.70941	0	0	-0.11124	0.0600832	0.093265	0.035517	-0.174305	0.129825	0.191106	-0.128184	-0.044523	0.141994	0.041559	0.05314	-0.000946	0.068217	0.14517	0.077733	-0.0722132	-0.0190657	0.197705	-0.144703	-0.077256	0.0194415	0.136597	-0.225529	-0.0395742	-0.095849	0.067686	-0.19129	-0.100705	0.102267	0.28224	0.00334725	
3.70331	0	0	-0.114936	0.0608405	0.093265	0.035517	-0.177838	0.127828	0.191106	-0.128184	-0.047818	0.139763	0.041559	0.05314	-0.000946	0.068217	0.14517	0.077733	-0.0772395	-0.0157815	0.189048	-0.141202	-0.083977	0.023833	0.131252	-0.224766	-0.0436455	-0.084343	0.061378	-0.183772	-0.104904	0.114134	0.280546	0.0081345	
3.70026	0	0	-0.118632	0.0615977	0.093265	0.035517	-0.18137	0.125831	0.191106	-0.128184	-0.051113	0.137531	0.041559	0.05314	-0.000946	0.068217	0.14517	0.077733	-0.0822657	-0.0124972	0.180391	-0.1377	-0.090698	0.0282245	0.125906	-0.224002	-0.0477168	-0.072837	0.05507	-0.176255	-0.109103	0.126002	0.278852	0.0129217	
3.70331	0	0	-0.122328	0.062355	0.093265	0.035517	-0.184903	0.123833	0.191106	-0.128184	-0.054408	0.1353	0.041559	0.05314	-0.000946	0.068217	0.14517	0.077733	-0.087292	-0.009213	0.171735	-0.134198	-0.097419	0.032616	0.12056	-0.223239	-0.051788	-0.061331	0.048762	-0.168737	-0.113303	0.13787	0.277158	0.017709	
3.6972	0	0	-0.123091	0.0645115	0.0961282	0.0379805	-0.180379	0.123029	0.194627	-0.130485	-0.0533997	0.13245	0.038421	0.0620085	-0.0023495	0.0721835	0.143342	0.0828997	-0.0923155	-0.00593075	0.173717	-0.139801	-0.0963693	0.0296495	0.12056	-0.223239	-0.051788	-0.061331	0.0479803	-0.166528	-0.113303	0.13787	0.259865	0.025328	
3.69873	0	0	-0.123854	0.066668	0.0989915	0.040444	-0.175855	0.122226	0.198149	-0.132786	-0.0523915	0.1296	0.035283	0.070877	-0.003753	0.07615	0.141514	0.0880665	-0.097339	-0.0026485	0.1757	-0.145404	-0.0953195	0.026683	0.12056	-0.223239	-0.051788	-0.061331	0.0471985	-0.164318	-0.113303	0.13787	0.242573	0.032947	
3.69415	0	0	-0.124617	0.0688245	0.101855	0.0429075	-0.171332	0.121423	0.20167	-0.135086	-0.0513833	0.12675	0.032145	0.0797455	-0.0051565	0.0801165	0.139685	0.0932333	-0.102362	0.00063375	0.177682	-0.151006	-0.0942697	0.0237165	0.12056	-0.223239	-0.051788	-0.061331	0.0464167	-0.162109	-0.113303	0.13787	0.22528	0.040566	
3.69263	0	0	-0.12538	0.070981	0.104718	0.045371	-0.166808	0.120619	0.205191	-0.137387	-0.050375	0.1239	0.029007	0.088614	-0.00656	0.084083	0.137857	0.0984	-0.107386	0.003916	0.179665	-0.156609	-0.09322	0.02075	0.12056	-0.223239	-0.051788	-0.061331	0.045635	-0.1599	-0.113303	0.13787	0.207987	0.048185	
3.6911	0	0	-0.124617	0.0688245	0.0940062	0.0545385	-0.171332	0.121423	0.202432	-0.137239	-0.0534013	0.132453	0.031713	0.0970857	-0.00796425	0.0880512	0.132366	0.113918	-0.102502	0.0119497	0.181376	-0.140482	-0.091751	0.0312007	0.123392	-0.216898	-0.0531462	-0.0574922	0.044853	-0.15769	-0.113303	0.13787	0.215781	0.0467725	
3.69415	0	0	-0.123854	0.066668	0.0832945	0.063706	-0.175855	0.122226	0.199672	-0.137091	-0.0564275	0.141006	0.034419	0.105557	-0.0093685	0.0920195	0.126876	0.129436	-0.0976185	0.0199835	0.183087	-0.124355	-0.090282	0.0416515	0.126223	-0.210557	-0.0545045	-0.0536535	0.044071	-0.15548	-0.113303	0.13787	0.223575	0.04536	
3.69263	0	0	-0.123091	0.0645115	0.0725828	0.0728735	-0.180379	0.123029	0.196912	-0.136942	-0.0594537	0.149558	0.037125	0.114029	-0.0107728	0.0959878	0.121385	0.144954	-0.0927348	0.0280172	0.184798	-0.108227	-0.088813	0.0521023	0.129055	-0.204216	-0.0558628	-0.0498148	0.043289	-0.153271	-0.113303	0.13787	0.23137	0.0439475	
3.69415	0	0	-0.122328	0.062355	0.061871	0.082041	-0.184903	0.123833	0.194153	-0.136794	-0.06248	0.158111	0.039831	0.122501	-0.012177	0.099956	0.115894	0.160472	-0.087851	0.036051	0.186509	-0.0921	-0.087344	0.062553	0.131887	-0.197875	-0.057221	-0.045976	0.042507	-0.151061	-0.113303	0.13787	0.239164	0.042535	
3.6972	0	0	-0.122328	0.062355	0.061871	0.082041	-0.188434	0.121837	0.194153	-0.136794	-0.072087	0.162196	0.0414028	0.118059	-0.00498825	0.0952588	0.117725	0.155296	-0.0885718	0.0271667	0.186647	-0.102973	-0.0898628	0.0550687	0.129055	-0.204216	-0.0665745	-0.0398643	0.0385463	-0.150172	-0.113303	0.13787	0.23137	0.0439475	
3.70331	0	0	-0.122328	0.062355	0.061871	0.082041	-0.191964	0.11984	0.194153	-0.136794	-0.081694	0.166281	0.0429745	0.113617	0.0022005	0.0905615	0.119556	0.15012	-0.0892925	0.0182825	0.186785	-0.113846	-0.0923815	0.0475845	0.126223	-0.210557	-0.075928	-0.0337525	0.0345855	-0.149282	-0.113303	0.13787	0.223575	0.04536	
3.70178	0	0	-0.122328	0.062355	0.061871	0.082041	-0.195495	0.117844	0.194153	-0.136794	-0.091301	0.170366	0.0445462	0.109175	0.00938925	0.0858643	0.121388	0.144945	-0.0900132	0.00939825	0.186922	-0.12472	-0.0949003	0.0401002	0.123392	-0.216898	-0.0852815	-0.0276407	0.0306247	-0.148393	-0.113303	0.13787	0.215781	0.0467725	
3.70483	0	0	-0.122328	0.062355	0.061871	0.082041	-0.199025	0.115847	0.194153	-0.136794	-0.100908	0.174451	0.046118	0.104733	0.016578	0.081167	0.123219	0.139769	-0.090734	0.000514	0.18706	-0.135593	-0.097419	0.032616	0.12056	-0.223239	-0.094635	-0.021529	0.026664	-0.147504	-0.113303	0.13787	0.207987	0.048185	
3.70941	0	0	-0.118632	0.0615977	0.069588	0.0813372	-0.196485	0.120644	0.197674	-0.139095	-0.0966105	0.173836	0.0429737	0.113619	0.0151732	0.0851372	0.119555	0.150123	-0.0933168	0.00781325	0.189901	-0.133138	-0.098469	0.0355835	0.124649	-0.220451	-0.094635	-0.021529	0.0258822	-0.145294	-0.0667252	0.0891992	0.19851	0.0543777	
3.71399	0	0	-0.114936	0.0608405	0.077305	0.0806335	-0.193945	0.12544	0.201195	-0.141396	-0.092313	0.17322	0.0398295	0.122505	0.0137685	0.0891075	0.115891	0.160477	-0.0958995	0.0151125	0.192742	-0.130683	-0.099519	0.038551	0.128738	-0.217663	-0.094635	-0.021529	0.0251005	-0.143085	-0.0201475	0.0405285	0.189032	0.0605705	
3.71704	0	0	-0.11124	0.0600832	0.085022	0.0799298	-0.191406	0.130236	0.204717	-0.143697	-0.0880155	0.172604	0.0366853	0.131391	0.0123637	0.0930778	0.112228	0.170832	-0.0984822	0.0224118	0.195583	-0.128228	-0.100569	0.0415185	0.132827	-0.214875	-0.094635	-0.021529	0.0243188	-0.140875	0.0264303	-0.00814225	0.179555	0.0667632	
3.72009	0	0	-0.107544	0.059326	0.092739	0.079226	-0.188866	0.135033	0.208238	-0.145998	-0.083718	0.171989	0.033541	0.140277	0.010959	0.097048	0.108564	0.181186	-0.101065	0.029711	0.198424	-0.125773	-0.101619	0.044486	0.136916	-0.212087	-0.094635	-0.021529	0.023537	-0.138665	0.073008	-0.056813	0.170077	0.072956	
3.72314	0	0	-0.112766	0.0643965	0.0898775	0.0767572	-0.191406	0.130236	0.207476	-0.143845	-0.0943275	0.178922	0.0319678	0.144724	0.010959	0.097048	0.108564	0.181186	-0.0994855	0.0361682	0.191469	-0.106118	-0.100153	0.0549465	0.131884	-0.197866	-0.0987133	-0.0100032	0.0267152	-0.137343	0.0306298	-0.02001	0.176166	0.0763402	
3.72772	0	0	-0.117988	0.069467	0.087016	0.0742885	-0.193945	0.12544	0.206715	-0.141692	-0.104937	0.185854	0.0303945	0.14917	0.010959	0.097048	0.108564	0.181186	-0.097906	0.0426255	0.184514	-0.0864625	-0.0986875	0.065407	0.126853	-0.183646	-0.102792	0.0015225	0.0298935	-0.136021	-0.0117485	0.016793	0.182254	0.0797245	
3.72772	0	0	-0.12321	0.0745375	0.0841545	0.0718198	-0.196485	0.120644	0.205953	-0.13954	-0.115546	0.192786	0.0288212	0.153617	0.010959	0.097048	0.108564	0.181186	-0.0963265	0.0490828	0.17756	-0.0668072	-0.0972217	0.0758675	0.121821	-0.169425	-0.10687	0.0130482	0.0330717	-0.134699	-0.0541267	0.053596	0.188343	0.0831087	
3.72467	0	0	-0.128432	0.079608	0.081293	0.069351	-0.199025	0.115847	0.205191	-0.137387	-0.126156	0.199719	0.027248	0.158063	0.010959	0.097048	0.108564	0.181186	-0.094747	0.05554	0.170605	-0.047152	-0.095756	0.086328	0.116789	-0.155204	-0.110948	0.024574	0.03625	-0.133377	-0.096505	0.090399	0.194432	0.086493	
3.7262	0	0	-0.123973	0.0766945	0.0764375	0.0725235	-0.199025	0.115847	0.205191	-0.137387	-0.124138	0.194016	0.0362465	0.148765	0.005175	0.097775	0.110396	0.176008	-0.0989113	0.0563878	0.167768	-0.049619	-0.100374	0.0847757	0.111446	-0.154448	-0.108229	0.0168885	0.0322895	-0.132489	-0.100705	0.102267	0.192736	0.0912855	
3.72772	0	0	-0.119514	0.073781	0.071582	0.075696	-0.199025	0.115847	0.205191	-0.137387	-0.12212	0.188314	0.045245	0.139466	-0.000609	0.098502	0.112229	0.170829	-0.103076	0.0572355	0.164932	-0.052086	-0.104991	0.0832235	0.106103	-0.153691	-0.10551	0.009203	0.028329	-0.131601	-0.104904	0.114134	0.191041	0.096078	
3.72467	0	0	-0.115055	0.0708675	0.0667265	0.0788685	-0.199025	0.115847	0.205191	-0.137387	-0.120103	0.182611	0.0542435	0.130168	-0.006393	0.099229	0.114061	0.165651	-0.10724	0.0580832	0.162095	-0.054553	-0.109609	0.0816713	0.100759	-0.152935	-0.10279	0.0015175	0.0243685	-0.130712	-0.109103	0.126002	0.189345	0.100871	
3.71857	0	0	-0.110596	0.067954	0.061871	0.082041	-0.199025	0.115847	0.205191	-0.137387	-0.118085	0.176908	0.063242	0.12087	-0.012177	0.099956	0.115894	0.160472	-0.111404	0.058931	0.159258	-0.05702	-0.114227	0.080119	0.095416	-0.152178	-0.100071	-0.006168	0.020408	-0.129824	-0.113303	0.13787	0.187649	0.105663	
3.72009	0	0	-0.115818	0.073025	0.0637308	0.0873348	-0.201996	0.124245	0.204429	-0.135234	-0.120103	0.182611	0.0600948	0.129765	-0.0193595	0.104649	0.112228	0.170832	-0.112266	0.0613675	0.165928	-0.0548963	-0.11633	0.086063	0.0995	-0.149376	-0.100071	-0.006168	0.0211903	-0.132034	-0.151318	0.16271	0.187649	0.105663	
3.71246	0	0	-0.121041	0.078096	0.0655905	0.0926285	-0.204967	0.132642	0.203668	-0.13308	-0.12212	0.188314	0.0569475	0.13866	-0.026542	0.109343	0.108563	0.181193	-0.113128	0.063804	0.172598	-0.0527725	-0.118433	0.092007	0.103584	-0.146574	-0.100071	-0.006168	0.0219725	-0.134244	-0.189333	0.187551	0.187649	0.105663	
3.71094	0	0	-0.126264	0.083167	0.0674503	0.0979223	-0.207939	0.141039	0.202906	-0.130927	-0.124138	0.194016	0.0538003	0.147555	-0.0337245	0.114036	0.104897	0.191553	-0.113991	0.0662405	0.179268	-0.0506487	-0.120537	0.097951	0.107668	-0.143771	-0.100071	-0.006168	0.0227547	-0.136455	-0.227349	0.212391	0.187649	0.105663	
3.71094	0	0	-0.131486	0.088238	0.06931	0.103216	-0.21091	0.149437	0.202144	-0.128774	-0.126156	0.199719	0.050653	0.15645	-0.040907	0.118729	0.101231	0.201913	-0.114853	0.068677	0.185938	-0.048525	-0.12264	0.103895	0.111752	-0.140969	-0.100071	-0.006168	0.023537	-0.138665	-0.265364	0.237231	0.187649	0.105663	
