5.16968	0	0	-0.099094	0.071364	-0.048019	0.139799	-0.240676	0.258343	-0.054246	0.084764	-0.079814	0.071437	-0.117357	0.118967	-0.011609	0.085651	-0.068939	0.007457	-0.092554	0.118241	-0.163558	0.003042	-0.182644	0.109978	-0.072501	0.004703	-0.055727	-0.012022	-0.035417	0.010109	-0.086061	-0.023334	0.140336	-0.310114	
5.20782	0	0	-0.103375	0.0741612	-0.0470612	0.137093	-0.239776	0.2558	-0.0571443	0.0849905	-0.0788275	0.0686492	-0.117357	0.118967	-0.0129825	0.089533	-0.0670185	0.00202975	-0.0973985	0.121407	-0.171673	0.003548	-0.189397	0.114391	-0.0792645	0.0091225	-0.059526	-0.001286	-0.036186	0.0122822	-0.0499665	-0.046919	0.13051	-0.300366	
5.22766	0	0	-0.107656	0.0769585	-0.0461035	0.134386	-0.238876	0.253258	-0.0600425	0.085217	-0.077841	0.0658615	-0.117357	0.118967	-0.014356	0.093415	-0.065098	-0.0033975	-0.102243	0.124572	-0.179787	0.004054	-0.19615	0.118803	-0.086028	0.013542	-0.063325	0.00945	-0.036955	0.0144555	-0.013872	-0.070504	0.120684	-0.290619	
5.24902	0	0	-0.111936	0.0797558	-0.0451457	0.13168	-0.237977	0.250715	-0.0629407	0.0854435	-0.0768545	0.0630737	-0.117357	0.118967	-0.0157295	0.097297	-0.0631775	-0.00882475	-0.107088	0.127738	-0.187902	0.00456	-0.202902	0.123215	-0.0927915	0.0179615	-0.067124	0.020186	-0.037724	0.0166287	0.0222225	-0.094089	0.110858	-0.280871	
5.26276	0	0	-0.116217	0.082553	-0.044188	0.128973	-0.237077	0.248173	-0.065839	0.08567	-0.075868	0.060286	-0.117357	0.118967	-0.017103	0.101179	-0.061257	-0.014252	-0.111932	0.130903	-0.196017	0.005066	-0.209655	0.127628	-0.099555	0.022381	-0.070923	0.030922	-0.038493	0.018802	0.058317	-0.117674	0.101032	-0.271123	
5.27801	0	0	-0.107653	0.076957	-0.0452297	0.142148	-0.2364	0.257509	-0.0631135	0.0938998	-0.075513	0.070777	-0.116333	0.132417	-0.015445	0.112046	-0.0608163	0.002165	-0.11202	0.141677	-0.193428	0.0201757	-0.213968	0.139816	-0.10359	0.033784	-0.073458	0.0380865	-0.0415708	0.0275	0.018245	-0.0828485	0.110858	-0.280871	
5.29175	0	0	-0.0990895	0.071361	-0.0462715	0.155324	-0.235723	0.266846	-0.060388	0.102129	-0.075158	0.081268	-0.115308	0.145868	-0.013787	0.122914	-0.0603755	0.018582	-0.112107	0.152451	-0.190838	0.0352855	-0.21828	0.152004	-0.107625	0.045187	-0.075993	0.045251	-0.0446485	0.036198	-0.021827	-0.048023	0.120684	-0.290619	
5.30395	0	0	-0.0905257	0.065765	-0.0473133	0.168499	-0.235045	0.276182	-0.0576625	0.110359	-0.074803	0.091759	-0.114283	0.159319	-0.012129	0.133781	-0.0599347	0.034999	-0.112195	0.163225	-0.188249	0.0503952	-0.222592	0.164191	-0.111659	0.05659	-0.078528	0.0524155	-0.0477262	0.044896	-0.061899	-0.0131975	0.13051	-0.300366	
5.30395	0	0	-0.081962	0.060169	-0.048355	0.181674	-0.234368	0.285518	-0.054937	0.118589	-0.074448	0.10225	-0.113259	0.172769	-0.010471	0.144648	-0.059494	0.051416	-0.112283	0.173999	-0.18566	0.065505	-0.226905	0.176379	-0.115694	0.067993	-0.081063	0.05958	-0.050804	0.053594	-0.101971	0.021628	0.140336	-0.310114	
5.30548	0	0	-0.086245	0.0629678	-0.0531553	0.19524	-0.238875	0.298256	-0.0551128	0.127057	-0.076077	0.118354	-0.107966	0.190545	-0.0101952	0.159436	-0.0605798	0.0898613	-0.109272	0.197102	-0.173862	0.110869	-0.217438	0.193674	-0.112947	0.0896307	-0.0886805	0.081108	-0.0462233	0.0606433	-0.073846	0.0205665	0.13574	-0.297124	
5.29938	0	0	-0.090528	0.0657665	-0.0579555	0.208807	-0.243382	0.310994	-0.0552885	0.135526	-0.077706	0.134459	-0.102674	0.208321	-0.0099195	0.174224	-0.0616655	0.128306	-0.10626	0.220205	-0.162064	0.156234	-0.207972	0.210969	-0.1102	0.111268	-0.096298	0.102636	-0.0416425	0.0676925	-0.045721	0.019505	0.131143	-0.284135	
5.29175	0	0	-0.094811	0.0685652	-0.0627557	0.222373	-0.247889	0.323732	-0.0554642	0.143994	-0.079335	0.150563	-0.0973815	0.226097	-0.00964375	0.189012	-0.0627513	0.166752	-0.103249	0.243308	-0.150266	0.201599	-0.198505	0.228264	-0.107453	0.132906	-0.103915	0.124164	-0.0370618	0.0747417	-0.017596	0.0184435	0.126547	-0.271145	
5.28259	0	0	-0.099094	0.071364	-0.067556	0.235939	-0.252396	0.33647	-0.05564	0.152463	-0.080964	0.166667	-0.092089	0.243873	-0.009368	0.2038	-0.063837	0.205197	-0.100238	0.266411	-0.138468	0.246963	-0.189038	0.245559	-0.104706	0.154544	-0.111533	0.145692	-0.032481	0.081791	0.010529	0.017382	0.121951	-0.258155	
5.26733	0	0	-0.094811	0.0685652	-0.064863	0.248807	-0.25691	0.349226	-0.0529172	0.160721	-0.0753215	0.173743	-0.0910782	0.257406	-0.0135087	0.215502	-0.055274	0.21644	-0.0946555	0.271739	-0.129591	0.255709	-0.192287	0.254742	-0.101986	0.161575	-0.114076	0.15288	-0.034023	0.0861495	-0.0255658	0.040967	0.123484	-0.262487	
5.25055	0	0	-0.090528	0.0657665	-0.06217	0.261676	-0.261424	0.361982	-0.0501945	0.16898	-0.069679	0.18082	-0.0900675	0.270938	-0.0176495	0.227204	-0.046711	0.227683	-0.089073	0.277068	-0.120714	0.264454	-0.195537	0.263925	-0.099266	0.168605	-0.116619	0.160067	-0.035565	0.090508	-0.0616605	0.064552	0.125017	-0.266819	
5.23834	0	0	-0.086245	0.0629678	-0.059477	0.274544	-0.265937	0.374738	-0.0474718	0.177238	-0.0640365	0.187896	-0.0890568	0.284471	-0.0217903	0.238906	-0.038148	0.238925	-0.0834905	0.282396	-0.111836	0.2732	-0.198786	0.273108	-0.096546	0.175636	-0.119163	0.167255	-0.037107	0.0948665	-0.0977553	0.088137	0.126549	-0.271151	
5.22308	0	0	-0.081962	0.060169	-0.056784	0.287412	-0.270451	0.387494	-0.044749	0.185497	-0.058394	0.194972	-0.088046	0.298003	-0.025931	0.250608	-0.029585	0.250168	-0.077908	0.287724	-0.102959	0.281946	-0.202035	0.282291	-0.093826	0.182667	-0.121706	0.174443	-0.038649	0.099225	-0.13385	0.111722	0.128082	-0.275483	
5.21088	0	0	-0.0733895	0.0545677	-0.057957	0.311229	-0.268226	0.403728	-0.035625	0.199655	-0.0590455	0.208336	-0.0794862	0.306632	-0.0256735	0.26546	-0.0186653	0.272599	-0.0715952	0.301586	-0.0874062	0.305845	-0.196087	0.294906	-0.0883852	0.196762	-0.126799	0.188835	-0.0363588	0.102758	-0.101748	0.0994203	0.125016	-0.266817	
5.19867	0	0	-0.064817	0.0489665	-0.05913	0.335045	-0.266001	0.419962	-0.026501	0.213813	-0.059697	0.221699	-0.0709265	0.315261	-0.025416	0.280312	-0.0077455	0.295031	-0.0652825	0.315449	-0.0718535	0.329743	-0.19014	0.307522	-0.0829445	0.210857	-0.131891	0.203228	-0.0340685	0.10629	-0.0696455	0.0871185	0.121949	-0.258151	
5.18646	0	0	-0.0562445	0.0433653	-0.060303	0.358862	-0.263776	0.436196	-0.017377	0.22797	-0.0603485	0.235063	-0.0623667	0.32389	-0.0251585	0.295164	0.00317425	0.317462	-0.0589698	0.329311	-0.0563007	0.353642	-0.184192	0.320137	-0.0775038	0.224951	-0.136984	0.21762	-0.0317783	0.109823	-0.0375433	0.0748168	0.118883	-0.249484	
5.17883	0	0	-0.047672	0.037764	-0.061476	0.382679	-0.261551	0.45243	-0.008253	0.242128	-0.061	0.248427	-0.053807	0.332519	-0.024901	0.310016	0.014094	0.339894	-0.052657	0.343174	-0.040748	0.377541	-0.178244	0.332752	-0.072063	0.239046	-0.142076	0.232013	-0.029488	0.113356	-0.005441	0.062515	0.115816	-0.240818	
5.1712	0	0	-0.0433825	0.034961	-0.0558965	0.387434	-0.259082	0.456723	-0.00766425	0.248463	-0.0649762	0.259664	-0.0528035	0.346115	-0.0218795	0.31707	0.0144833	0.356592	-0.0577508	0.36815	-0.0360372	0.420961	-0.182346	0.359075	-0.0761368	0.265312	-0.141941	0.251331	-0.0256777	0.122616	-0.0214613	0.10779	0.134606	-0.239751	
5.17273	0	0	-0.039093	0.032158	-0.050317	0.392189	-0.256613	0.461015	-0.0070755	0.254798	-0.0689525	0.270901	-0.0518	0.359712	-0.018858	0.324124	0.0148725	0.37329	-0.0628445	0.393126	-0.0313265	0.464381	-0.186448	0.385398	-0.0802105	0.291577	-0.141807	0.27065	-0.0218675	0.131876	-0.0374815	0.153066	0.153396	-0.238685	
5.17425	0	0	-0.0348035	0.029355	-0.0447375	0.396945	-0.254143	0.465307	-0.00648675	0.261133	-0.0729288	0.282138	-0.0507965	0.373308	-0.0158365	0.331177	0.0152618	0.389989	-0.0679383	0.418101	-0.0266158	0.507801	-0.19055	0.41172	-0.0842843	0.317843	-0.141673	0.289968	-0.0180573	0.141135	-0.0535018	0.198342	0.172187	-0.237618	
5.1712	5	0	-0.030514	0.026552	-0.039158	0.4017	-0.251674	0.4696	-0.005898	0.267468	-0.076905	0.293375	-0.049793	0.386904	-0.012815	0.338231	0.015651	0.406687	-0.073032	0.443077	-0.021905	0.551221	-0.194652	0.438043	-0.088358	0.344109	-0.141538	0.309287	-0.014247	0.150395	-0.069522	0.243617	0.190977	-0.236551	
5.1712	0	0	-0.0269838	0.025899	-0.0374488	0.417416	-0.256209	0.482418	0.0026495	0.275342	-0.080886	0.304626	-0.047152	0.395887	-0.0169755	0.34999	0.01407	0.42897	-0.0739863	0.45636	-0.0204923	0.569971	-0.19223	0.445941	-0.0870085	0.355059	-0.136297	0.314197	-0.0104078	0.149566	-0.00491425	0.218871	0.192514	-0.240894	
5.1651	0	0	-0.0234535	0.025246	-0.0357395	0.433133	-0.260745	0.495237	0.011197	0.283215	-0.084867	0.315877	-0.044511	0.404869	-0.021136	0.361748	0.012489	0.451253	-0.0749405	0.469642	-0.0190795	0.58872	-0.189809	0.453839	-0.085659	0.36601	-0.131057	0.319106	-0.0065685	0.148738	0.0596935	0.194126	0.19405	-0.245236	
5.15442	0	0	-0.0199232	0.024593	-0.0340302	0.448849	-0.265281	0.508055	0.0197445	0.291089	-0.088848	0.327128	-0.04187	0.413851	-0.0252965	0.373507	0.010908	0.473535	-0.0758947	0.482925	-0.0176668	0.60747	-0.187387	0.461736	-0.0843095	0.376961	-0.125816	0.324016	-0.00272925	0.147909	0.124301	0.16938	0.195586	-0.249579	
5.14679	0	0	-0.016393	0.02394	-0.032321	0.464565	-0.269816	0.520874	0.028292	0.298963	-0.092829	0.338379	-0.039229	0.422834	-0.029457	0.385265	0.009327	0.495818	-0.076849	0.496208	-0.016254	0.62622	-0.184966	0.469634	-0.08296	0.387911	-0.120576	0.328926	0.00111	0.147081	0.188909	0.144634	0.197123	-0.253922	
5.14526	0	0	-0.0156317	0.0217887	-0.0343833	0.480675	-0.269168	0.530319	0.0265513	0.311899	-0.088194	0.348346	-0.036589	0.431834	-0.0322337	0.393113	0.0159388	0.512814	-0.0680532	0.503143	0.00045475	0.647391	-0.185826	0.486817	-0.074808	0.394437	-0.124416	0.33978	0.0003365	0.149267	0.188909	0.144634	0.195586	-0.249579	
5.14526	0	0	-0.0148705	0.0196375	-0.0364455	0.496785	-0.268519	0.539764	0.0248105	0.324835	-0.083559	0.358313	-0.033949	0.440834	-0.0350105	0.40096	0.0225505	0.529809	-0.0592575	0.510078	0.0171635	0.668562	-0.186686	0.504	-0.066656	0.400964	-0.128256	0.350633	-0.000437	0.151452	0.188909	0.144634	0.19405	-0.245236	
5.15137	0	0	-0.0141093	0.0174863	-0.0385078	0.512896	-0.267871	0.549209	0.0230697	0.337771	-0.078924	0.368279	-0.031309	0.449834	-0.0377873	0.408807	0.0291623	0.546804	-0.0504617	0.517013	0.0338723	0.689733	-0.187546	0.521183	-0.058504	0.407491	-0.132097	0.361486	-0.0012105	0.153638	0.188909	0.144634	0.192514	-0.240894	
5.15747	0	0	-0.013348	0.015335	-0.04057	0.529006	-0.267222	0.558654	0.021329	0.350707	-0.074289	0.378246	-0.028669	0.458834	-0.040564	0.416655	0.035774	0.5638	-0.041666	0.523948	0.050581	0.710904	-0.188406	0.538366	-0.050352	0.414017	-0.135937	0.37234	-0.001984	0.155824	0.188909	0.144634	0.190977	-0.236551	
5.1712	0	0	-0.00905425	0.0125295	-0.0454325	0.542747	-0.264757	0.562971	0.0219128	0.357076	-0.074289	0.378246	-0.0210863	0.453879	-0.040564	0.416655	0.035774	0.5638	-0.0408315	0.521589	0.0562695	0.694827	-0.186218	0.532184	-0.0544295	0.410752	-0.142453	0.371034	-0.00888675	0.155294	0.188909	0.144634	0.19405	-0.245234	
5.16968	0	0	-0.0047605	0.009724	-0.050295	0.556489	-0.262291	0.567288	0.0224965	0.363445	-0.074289	0.378246	-0.0135035	0.448925	-0.040564	0.416655	0.035774	0.5638	-0.039997	0.519231	0.061958	0.678751	-0.18403	0.526001	-0.058507	0.407488	-0.148968	0.369727	-0.0157895	0.154764	0.188909	0.144634	0.197122	-0.253918	
5.18036	0	0	-0.00046675	0.0069185	-0.0551575	0.570231	-0.259825	0.571606	0.0230803	0.369815	-0.074289	0.378246	-0.00592075	0.44397	-0.040564	0.416655	0.035774	0.5638	-0.0391625	0.516873	0.0676465	0.662674	-0.181843	0.519818	-0.0625845	0.404223	-0.155483	0.36842	-0.0226923	0.154235	0.188909	0.144634	0.200194	-0.262601	
5.18646	0	0	0.003827	0.004113	-0.06002	0.583972	-0.25736	0.575923	0.023664	0.376184	-0.074289	0.378246	0.001662	0.439015	-0.040564	0.416655	0.035774	0.5638	-0.038328	0.514514	0.073335	0.646597	-0.179655	0.513636	-0.066662	0.400958	-0.161999	0.367114	-0.029595	0.153705	0.188909	0.144634	0.203267	-0.271284	
5.18494	0	0	0.008123	0.001306	-0.0554173	0.591545	-0.254894	0.580245	0.0308585	0.379931	-0.074289	0.378246	-0.0042745	0.439317	-0.046352	0.41742	0.035774	0.5638	-0.0366595	0.509799	0.0756078	0.640174	-0.178562	0.510547	-0.0652985	0.397104	-0.169786	0.369422	-0.0318845	0.150164	0.152508	0.168419	0.206336	-0.279958	
5.18646	0	0	0.012419	-0.001501	-0.0508145	0.599118	-0.252428	0.584566	0.038053	0.383679	-0.074289	0.378246	-0.010211	0.439619	-0.05214	0.418184	0.035774	0.5638	-0.034991	0.505084	0.0778805	0.633752	-0.177469	0.507457	-0.063935	0.393251	-0.177573	0.37173	-0.034174	0.146624	0.116107	0.192205	0.209406	-0.288633	
5.19104	0	0	0.016715	-0.004308	-0.0462117	0.606692	-0.249962	0.588888	0.0452475	0.387426	-0.074289	0.378246	-0.0161475	0.439922	-0.057928	0.418949	0.035774	0.5638	-0.0333225	0.500368	0.0801532	0.627329	-0.176375	0.504367	-0.0625715	0.389398	-0.18536	0.374038	-0.0364635	0.143083	0.079706	0.21599	0.212475	-0.297308	
5.20782	0	0	0.021011	-0.007115	-0.041609	0.614265	-0.247496	0.59321	0.052442	0.391173	-0.074289	0.378246	-0.022084	0.440224	-0.063716	0.419714	0.035774	0.5638	-0.031654	0.495653	0.082426	0.620907	-0.175282	0.501278	-0.061208	0.385544	-0.193147	0.376346	-0.038753	0.139542	0.043305	0.239775	0.215544	-0.305982	
5.23682	0	0	0.017476	-0.00645875	-0.0396603	0.608757	-0.249962	0.588888	0.0510798	0.386993	-0.0795985	0.381715	-0.022084	0.440224	-0.068111	0.416555	0.0377388	0.558248	-0.0349918	0.505086	0.0827047	0.642972	-0.177469	0.507458	-0.0639357	0.393253	-0.177564	0.371725	-0.0379808	0.137359	0.0716448	0.238772	0.21401	-0.301646	
5.3009	0	0	0.013941	-0.0058025	-0.0377115	0.60325	-0.252428	0.584566	0.0497175	0.382813	-0.084908	0.385185	-0.022084	0.440224	-0.072506	0.413397	0.0397035	0.552696	-0.0383295	0.514519	0.0829835	0.665037	-0.179656	0.513638	-0.0666635	0.400961	-0.161981	0.367105	-0.0372085	0.135177	0.0999845	0.237768	0.212476	-0.29731	
5.39093	0	0	0.010406	-0.00514625	-0.0357627	0.597742	-0.254894	0.580245	0.0483553	0.378633	-0.0902175	0.388654	-0.022084	0.440224	-0.076901	0.410238	0.0416682	0.547143	-0.0416673	0.523952	0.0832623	0.687102	-0.181843	0.519819	-0.0693913	0.40867	-0.146398	0.362484	-0.0364363	0.132994	0.128324	0.236765	0.210941	-0.292973	
5.51147	0	0	0.006871	-0.00449	-0.033814	0.592235	-0.25736	0.575923	0.046993	0.374453	-0.095527	0.392123	-0.022084	0.440224	-0.081296	0.407079	0.043633	0.541591	-0.045005	0.533385	0.083541	0.709167	-0.18403	0.525999	-0.072119	0.416379	-0.130815	0.357863	-0.035664	0.130811	0.156664	0.235762	0.209407	-0.288637	
5.63507	0	0	0.00611	-0.00233925	-0.033814	0.592235	-0.252163	0.572527	0.0432987	0.376867	-0.0935322	0.386485	-0.0247265	0.431231	-0.078523	0.399242	0.0393432	0.535865	-0.0457138	0.524784	0.0798528	0.696738	-0.181843	0.519819	-0.0748292	0.409262	-0.134774	0.349331	-0.0371817	0.125095	0.124296	0.248149	0.209407	-0.288637	
5.72967	0	0	0.005349	-0.0001885	-0.033814	0.592235	-0.246966	0.569131	0.0396045	0.379281	-0.0915375	0.380847	-0.027369	0.422238	-0.07575	0.391405	0.0350535	0.530139	-0.0464225	0.516184	0.0761645	0.684308	-0.179656	0.513638	-0.0775395	0.402145	-0.138732	0.340799	-0.0386995	0.119378	0.091928	0.260536	0.209407	-0.288637	
5.82275	0	0	0.004588	0.00196225	-0.033814	0.592235	-0.241769	0.565736	0.0359103	0.381695	-0.0895428	0.375209	-0.0300115	0.413246	-0.072977	0.383567	0.0307637	0.524413	-0.0471312	0.507583	0.0724763	0.671878	-0.177469	0.507458	-0.0802498	0.395028	-0.142691	0.332267	-0.0402173	0.113662	0.05956	0.272923	0.209407	-0.288637	
5.89905	0	0	0.003827	0.004113	-0.033814	0.592235	-0.236572	0.56234	0.032216	0.384109	-0.087548	0.369571	-0.032654	0.404253	-0.070204	0.37573	0.026474	0.518687	-0.04784	0.498983	0.068788	0.659449	-0.175282	0.501278	-0.08296	0.387911	-0.14665	0.323735	-0.041735	0.107946	0.027192	0.28531	0.209407	-0.288637	
5.97839	0	0	0.008123	0.001306	-0.034924	0.605671	-0.240214	0.572631	0.0349373	0.392475	-0.087548	0.369571	-0.0267215	0.403948	-0.0759828	0.376495	0.032727	0.518865	-0.04784	0.498983	0.0758932	0.662222	-0.175282	0.501278	-0.08296	0.387911	-0.145372	0.320123	-0.0409635	0.105766	0.0635933	0.261525	0.213126	-0.281056	
6.01501	0	0	0.012419	-0.001501	-0.036034	0.619107	-0.243856	0.582923	0.0376585	0.40084	-0.087548	0.369571	-0.020789	0.403643	-0.0817615	0.377261	0.03898	0.519042	-0.04784	0.498983	0.0829985	0.664995	-0.175282	0.501278	-0.08296	0.387911	-0.144094	0.316511	-0.040192	0.103585	0.0999945	0.237739	0.216846	-0.273476	
6.05163	0	0	0.016715	-0.004308	-0.037144	0.632542	-0.247497	0.593214	0.0403797	0.409206	-0.087548	0.369571	-0.0148565	0.403337	-0.0875403	0.378027	0.045233	0.519219	-0.04784	0.498983	0.0901038	0.667769	-0.175282	0.501278	-0.08296	0.387911	-0.142816	0.312899	-0.0394205	0.101405	0.136396	0.213954	0.220565	-0.265896	
6.06079	0	0	0.021011	-0.007115	-0.038254	0.645978	-0.251139	0.603506	0.043101	0.417572	-0.087548	0.369571	-0.008924	0.403032	-0.093319	0.378792	0.051486	0.519397	-0.04784	0.498983	0.097209	0.670542	-0.175282	0.501278	-0.08296	0.387911	-0.141538	0.309287	-0.038649	0.099225	0.172797	0.190169	0.224284	-0.258315	
6.05316	0	0	0.021011	-0.007115	-0.0325355	0.640121	-0.250228	0.600932	0.044658	0.413172	-0.0898643	0.364588	-0.0132137	0.398694	-0.0963245	0.371731	0.0429047	0.507967	-0.056759	0.502999	0.0814363	0.680848	-0.182072	0.505715	-0.0911183	0.396203	-0.145374	0.320128	-0.0409638	0.105767	0.128325	0.236765	0.226465	-0.24637	
6.02417	0	0	0.021011	-0.007115	-0.026817	0.634265	-0.249317	0.598358	0.046215	0.408772	-0.0921805	0.359605	-0.0175035	0.394356	-0.09933	0.364671	0.0343235	0.496537	-0.065678	0.507015	0.0656635	0.691154	-0.188862	0.510151	-0.0992765	0.404496	-0.149209	0.330968	-0.0432785	0.112309	0.083852	0.283362	0.228647	-0.234424	
5.99365	0	0	0.021011	-0.007115	-0.0210985	0.628408	-0.248407	0.595784	0.047772	0.404371	-0.0944967	0.354622	-0.0217933	0.390019	-0.102335	0.35761	0.0257423	0.485108	-0.074597	0.511032	0.0498907	0.70146	-0.195653	0.514588	-0.107435	0.412788	-0.153045	0.341808	-0.0455933	0.11885	0.0393795	0.329958	0.230828	-0.222478	
5.95398	0	0	0.021011	-0.007115	-0.01538	0.622551	-0.247496	0.59321	0.049329	0.399971	-0.096813	0.349639	-0.026083	0.385681	-0.105341	0.35055	0.017161	0.473678	-0.083516	0.515048	0.034118	0.711766	-0.202443	0.519025	-0.115593	0.42108	-0.156881	0.352649	-0.047908	0.125392	-0.005093	0.376555	0.233009	-0.210533	
5.90057	0	0	0.021011	-0.007115	-0.0116105	0.622208	-0.247496	0.59321	0.049329	0.399971	-0.0948212	0.34401	-0.0228	0.376402	-0.11111	0.351314	0.0191182	0.468147	-0.0858885	0.511167	0.038668	0.698907	-0.199165	0.509763	-0.11423	0.417228	-0.162112	0.347733	-0.0471362	0.123211	0.00297825	0.353744	0.246622	-0.212733	
5.85785	0	0	0.021011	-0.007115	-0.007841	0.621865	-0.247496	0.59321	0.049329	0.399971	-0.0928295	0.338381	-0.019517	0.367124	-0.116879	0.352079	0.0210755	0.462615	-0.088261	0.507286	0.043218	0.686048	-0.195888	0.5005	-0.112867	0.413376	-0.167343	0.342817	-0.0463645	0.12103	0.0110495	0.330932	0.260234	-0.214932	
5.80597	0	0	0.021011	-0.007115	-0.0040715	0.621522	-0.247496	0.59321	0.049329	0.399971	-0.0908377	0.332752	-0.016234	0.357846	-0.122649	0.352843	0.0230327	0.457083	-0.0906335	0.503406	0.047768	0.673189	-0.192611	0.491237	-0.111504	0.409524	-0.172573	0.337901	-0.0455928	0.118849	0.0191207	0.308121	0.273847	-0.217132	
5.76019	0	0	0.021011	-0.007115	-0.000302	0.621179	-0.247496	0.59321	0.049329	0.399971	-0.088846	0.327123	-0.012951	0.348567	-0.128418	0.353608	0.02499	0.451552	-0.093006	0.499525	0.052318	0.66033	-0.189333	0.481975	-0.110141	0.405672	-0.177804	0.332985	-0.044821	0.116668	0.027192	0.28531	0.28746	-0.219332	
5.71136	0	0	0.017476	-0.00645875	-0.00881425	0.624621	-0.250872	0.59146	0.044273	0.398203	-0.0908377	0.332752	-0.0178768	0.362488	-0.128418	0.353608	0.0210742	0.462618	-0.093006	0.499525	0.0530223	0.669756	-0.190425	0.485061	-0.111504	0.409524	-0.177804	0.332985	-0.0409878	0.11584	0.027192	0.28531	0.289648	-0.207352	
5.67016	0	0	0.013941	-0.0058025	-0.0173265	0.628063	-0.254248	0.58971	0.039217	0.396436	-0.0928295	0.338381	-0.0228025	0.37641	-0.128418	0.353608	0.0171585	0.473685	-0.093006	0.499525	0.0537265	0.679181	-0.191517	0.488148	-0.112867	0.413376	-0.177804	0.332985	-0.0371545	0.115012	0.027192	0.28531	0.291835	-0.195372	
5.63202	0	0	0.010406	-0.00514625	-0.0258388	0.631505	-0.257624	0.58796	0.034161	0.394668	-0.0948212	0.34401	-0.0277283	0.390331	-0.128418	0.353608	0.0132428	0.484752	-0.093006	0.499525	0.0544307	0.688607	-0.192609	0.491235	-0.11423	0.417228	-0.177804	0.332985	-0.0333212	0.114184	0.027192	0.28531	0.294022	-0.183391	
5.59692	0	0	0.006871	-0.00449	-0.034351	0.634947	-0.261	0.58621	0.029105	0.3929	-0.096813	0.349639	-0.032654	0.404253	-0.128418	0.353608	0.009327	0.495818	-0.093006	0.499525	0.055135	0.698033	-0.193701	0.494321	-0.115593	0.42108	-0.177804	0.332985	-0.029488	0.113356	0.027192	0.28531	0.29621	-0.171411	
5.56183	0	0	0.00181625	0.00046625	-0.0294767	0.621172	-0.263465	0.581891	0.0256077	0.386741	-0.100124	0.347475	-0.0352978	0.395278	-0.134182	0.35437	0.0069995	0.484581	-0.0912193	0.483895	0.0541453	0.666602	-0.193939	0.480251	-0.108784	0.401837	-0.181754	0.32447	-0.0317783	0.109823	0.0312203	0.273926	0.306121	-0.181242	
5.53436	0	0	-0.0032385	0.0054225	-0.0246025	0.607397	-0.26593	0.577572	0.0221105	0.380583	-0.103435	0.345311	-0.0379415	0.386302	-0.139947	0.355133	0.004672	0.473345	-0.0894325	0.468266	0.0531555	0.635171	-0.194177	0.466182	-0.101975	0.382595	-0.185704	0.315955	-0.0340685	0.10629	0.0352485	0.262543	0.316033	-0.191074	
5.50842	0	0	-0.00829325	0.0103787	-0.0197282	0.593621	-0.268394	0.573252	0.0186132	0.374424	-0.106747	0.343148	-0.0405852	0.377327	-0.145711	0.355895	0.0023445	0.462108	-0.0876458	0.452636	0.0521657	0.603741	-0.194414	0.452113	-0.0951668	0.363352	-0.189654	0.307439	-0.0363588	0.102758	0.0392767	0.251159	0.325944	-0.200905	
5.48248	0	0	-0.013348	0.015335	-0.014854	0.579846	-0.270859	0.568933	0.015116	0.368265	-0.110058	0.340984	-0.043229	0.368352	-0.151475	0.356658	1.7E-05	0.450871	-0.085859	0.437007	0.051176	0.57231	-0.194652	0.438043	-0.088358	0.344109	-0.193604	0.298924	-0.038649	0.099225	0.043305	0.239775	0.335856	-0.210736	
5.46265	0	0	-0.013348	0.015335	-0.011933	0.571591	-0.264756	0.56297	0.0174455	0.361681	-0.108068	0.335358	-0.043229	0.368352	-0.150093	0.352752	-0.00621975	0.450699	-0.0865725	0.42845	0.0508707	0.55039	-0.197074	0.430159	-0.0897115	0.333181	-0.188505	0.284514	-0.037107	0.0948665	0.0150983	0.240735	0.335856	-0.210736	
5.43976	0	0	-0.013348	0.015335	-0.009012	0.563336	-0.258653	0.557006	0.019775	0.355098	-0.106077	0.329732	-0.043229	0.368352	-0.148711	0.348846	-0.0124565	0.450527	-0.087286	0.419894	0.0505655	0.528469	-0.199496	0.422275	-0.091065	0.322253	-0.183407	0.270104	-0.035565	0.090508	-0.0131085	0.241696	0.335856	-0.210736	
5.4245	0	0	-0.013348	0.015335	-0.006091	0.555081	-0.25255	0.551042	0.0221045	0.348515	-0.104086	0.324107	-0.043229	0.368352	-0.147329	0.34494	-0.0186933	0.450354	-0.0879995	0.411337	0.0502602	0.506549	-0.201919	0.414391	-0.0924185	0.311326	-0.178308	0.255694	-0.034023	0.0861495	-0.0413153	0.242656	0.335856	-0.210736	
5.40314	0	0	-0.013348	0.015335	-0.00317	0.546826	-0.246447	0.545079	0.024434	0.341931	-0.102096	0.318481	-0.043229	0.368352	-0.145947	0.341034	-0.02493	0.450182	-0.088713	0.40278	0.049955	0.484629	-0.204341	0.406507	-0.093772	0.300398	-0.173209	0.241284	-0.032481	0.081791	-0.069522	0.243617	0.335856	-0.210736	
5.3894	0	0	-0.0176395	0.0181392	-0.00863575	0.531393	-0.250474	0.533898	0.019574	0.331628	-0.104413	0.313513	-0.0458735	0.359394	-0.150326	0.337894	-0.0334825	0.438807	-0.0919173	0.401267	0.0398915	0.478946	-0.202165	0.400357	-0.097842	0.297159	-0.173209	0.241284	-0.033252	0.08397	-0.069522	0.243617	0.335856	-0.210736	
5.37414	0	0	-0.021931	0.0209435	-0.0141015	0.515961	-0.254501	0.522717	0.014714	0.321325	-0.106729	0.308544	-0.048518	0.350436	-0.154704	0.334753	-0.042035	0.427432	-0.0951215	0.399755	0.029828	0.473264	-0.199989	0.394206	-0.101912	0.29392	-0.173209	0.241284	-0.034023	0.086149	-0.069522	0.243617	0.335856	-0.210736	
5.35889	0	0	-0.0262225	0.0237477	-0.0195673	0.500528	-0.258529	0.511537	0.009854	0.311021	-0.109046	0.303575	-0.0511625	0.341477	-0.159082	0.331612	-0.0505875	0.416058	-0.0983257	0.398243	0.0197645	0.467581	-0.197812	0.388055	-0.105982	0.290681	-0.173209	0.241284	-0.034794	0.088328	-0.069522	0.243617	0.335856	-0.210736	
5.34668	0	0	-0.030514	0.026552	-0.025033	0.485095	-0.262556	0.500356	0.004994	0.300718	-0.111362	0.298607	-0.053807	0.332519	-0.163461	0.328472	-0.05914	0.404683	-0.10153	0.39673	0.009701	0.461899	-0.195636	0.381905	-0.110052	0.287442	-0.173209	0.241284	-0.035565	0.090507	-0.069522	0.243617	0.335856	-0.210736	
5.33752	0	0	-0.0348035	0.029355	-0.022979	0.469008	-0.262305	0.488375	0.00381775	0.288034	-0.112685	0.290838	-0.0580885	0.328202	-0.169215	0.329233	-0.057576	0.382516	-0.104619	0.384344	0.00864625	0.430819	-0.201574	0.36926	-0.108701	0.268894	-0.174623	0.225624	-0.0363145	0.082625	-0.0252545	0.197266	0.332116	-0.218347	
5.33142	0	0	-0.039093	0.032158	-0.020925	0.452921	-0.262053	0.476393	0.0026415	0.27535	-0.114008	0.283069	-0.06237	0.323885	-0.17497	0.329995	-0.056012	0.360349	-0.107708	0.371958	0.0075915	0.399739	-0.207511	0.356616	-0.10735	0.250346	-0.176038	0.209964	-0.037064	0.074743	0.019013	0.150915	0.328376	-0.225959	
5.32684	0	0	-0.0433825	0.034961	-0.018871	0.436834	-0.261802	0.464411	0.00146525	0.262666	-0.11533	0.275299	-0.0666515	0.319568	-0.180725	0.330757	-0.054448	0.338183	-0.110798	0.359571	0.00653675	0.368659	-0.213448	0.343971	-0.105999	0.231799	-0.177453	0.194305	-0.0378135	0.066861	0.0632805	0.104563	0.324637	-0.23357	
5.32226	0	0	-0.047672	0.037764	-0.016817	0.420747	-0.261551	0.45243	0.000289	0.249982	-0.116653	0.26753	-0.070933	0.315251	-0.186479	0.331518	-0.052884	0.316016	-0.113887	0.347185	0.005482	0.337579	-0.219386	0.331327	-0.104648	0.213251	-0.178867	0.178645	-0.038563	0.058979	0.107548	0.058212	0.320897	-0.241181	
5.31769	0	0	-0.047672	0.037764	-0.0186425	0.415631	-0.262457	0.45499	-0.0026195	0.250203	-0.11235	0.266875	-0.0617407	0.30569	-0.18372	0.323722	-0.052884	0.316016	-0.112232	0.342507	0.0088465	0.32807	-0.211532	0.323838	-0.101943	0.205605	-0.185365	0.177372	-0.037023	0.0546268	0.11155	0.0469005	0.322438	-0.245536	
5.31463	0	0	-0.047672	0.037764	-0.020468	0.410514	-0.263362	0.45755	-0.005528	0.250424	-0.108046	0.266221	-0.0525485	0.296129	-0.180961	0.315925	-0.052884	0.316016	-0.110576	0.337828	0.012211	0.318561	-0.203678	0.316349	-0.099237	0.197959	-0.191862	0.176098	-0.035483	0.0502745	0.115553	0.035589	0.323979	-0.249891	
5.31311	0	0	-0.047672	0.037764	-0.0222935	0.405397	-0.264268	0.46011	-0.0084365	0.250644	-0.103743	0.265566	-0.0433562	0.286568	-0.178203	0.308129	-0.052884	0.316016	-0.108921	0.33315	0.0155755	0.309052	-0.195825	0.30886	-0.0965315	0.190313	-0.19836	0.174825	-0.033943	0.0459222	0.119556	0.0242775	0.32552	-0.254247	
5.31463	0	0	-0.047672	0.037764	-0.024119	0.400281	-0.265174	0.46267	-0.011345	0.250865	-0.099439	0.264912	-0.034164	0.277007	-0.175444	0.300333	-0.052884	0.316016	-0.107266	0.328472	0.01894	0.299543	-0.187971	0.301371	-0.093826	0.182667	-0.204858	0.173552	-0.032403	0.04157	0.123558	0.012966	0.327061	-0.258602	
5.31769	0	0	-0.0519592	0.0405652	-0.0220805	0.384249	-0.260648	0.449877	-0.00748225	0.239949	-0.10275	0.262761	-0.0384507	0.272704	-0.181194	0.301096	-0.0672543	0.321184	-0.108921	0.33315	0.0103562	0.312462	-0.190141	0.307505	-0.101952	0.190915	-0.199631	0.178417	-0.030881	0.047269	0.0793008	0.0592882	0.333888	-0.259714	
5.33142	0	0	-0.0562465	0.0433665	-0.020042	0.368217	-0.256121	0.437084	-0.0036195	0.229032	-0.106061	0.26061	-0.0427375	0.268402	-0.186945	0.301858	-0.0816245	0.326353	-0.110576	0.337828	0.0017725	0.325382	-0.192311	0.313638	-0.110078	0.199164	-0.194405	0.183282	-0.029359	0.052968	0.0350435	0.10561	0.340714	-0.260826	
5.35889	0	0	-0.0605338	0.0461678	-0.0180035	0.352186	-0.251594	0.424292	0.00024325	0.218116	-0.109372	0.25846	-0.0470243	0.264099	-0.192696	0.302621	-0.0959948	0.331522	-0.112232	0.342507	-0.00681125	0.338302	-0.194482	0.319771	-0.118205	0.207412	-0.189178	0.188147	-0.027837	0.058667	-0.00921375	0.151933	0.34754	-0.261939	
5.38788	0	0	-0.064821	0.048969	-0.015965	0.336154	-0.247068	0.411499	0.004106	0.2072	-0.112683	0.256309	-0.051311	0.259796	-0.198446	0.303383	-0.110365	0.33669	-0.113887	0.347185	-0.015395	0.351221	-0.196652	0.325905	-0.126331	0.215661	-0.183951	0.193012	-0.026315	0.064366	-0.053471	0.198255	0.354367	-0.263051	
5.42602	0	0	-0.064821	0.048969	-0.01307	0.327972	-0.246164	0.408943	0.0056495	0.202837	-0.112683	0.256309	-0.0496775	0.25518	-0.197068	0.299489	-0.108423	0.331203	-0.111405	0.340169	-0.0150053	0.338786	-0.194482	0.319771	-0.122275	0.204199	-0.190448	0.191736	-0.0301473	0.065196	-0.045461	0.175617	0.354367	-0.263051	
5.46417	0	0	-0.064821	0.048969	-0.010175	0.31979	-0.245259	0.406386	0.007193	0.198474	-0.112683	0.256309	-0.048044	0.250563	-0.19569	0.295596	-0.106482	0.325715	-0.108922	0.333153	-0.0146155	0.326352	-0.192311	0.313638	-0.11822	0.192738	-0.196945	0.19046	-0.0339795	0.066026	-0.037451	0.152979	0.354367	-0.263051	
5.49316	0	0	-0.064821	0.048969	-0.00728	0.311608	-0.244355	0.40383	0.0087365	0.194112	-0.112683	0.256309	-0.0464105	0.245947	-0.194313	0.291702	-0.10454	0.320228	-0.106439	0.326136	-0.0142257	0.313917	-0.190141	0.307505	-0.114165	0.181276	-0.203441	0.189183	-0.0378118	0.066856	-0.029441	0.130342	0.354367	-0.263051	
5.52063	0	0	-0.064821	0.048969	-0.004385	0.303426	-0.24345	0.401274	0.01028	0.189749	-0.112683	0.256309	-0.044777	0.24133	-0.192935	0.287808	-0.102598	0.314741	-0.103957	0.31912	-0.013836	0.301482	-0.187971	0.301371	-0.110109	0.169814	-0.209938	0.187907	-0.041644	0.067686	-0.021431	0.107704	0.354367	-0.263051	
5.54504	0	0	-0.0597727	0.044017	-0.00631475	0.30888	-0.242788	0.410673	0.0108735	0.196071	-0.109372	0.25846	-0.0404887	0.245628	-0.192935	0.287808	-0.0940587	0.326051	-0.102409	0.325302	-0.0049065	0.310266	-0.17876	0.304787	-0.112812	0.177453	-0.2009	0.182001	-0.0370412	0.0646785	-0.0174335	0.0964067	0.344458	-0.253226	
5.56335	0	0	-0.0547245	0.039065	-0.0082445	0.314334	-0.242125	0.420073	0.011467	0.202394	-0.106061	0.26061	-0.0362005	0.249926	-0.192935	0.287808	-0.0855195	0.337361	-0.100861	0.331484	0.004023	0.31905	-0.169549	0.308202	-0.115515	0.185093	-0.191862	0.176096	-0.0324385	0.061671	-0.013436	0.0851095	0.334549	-0.243401	
5.57861	0	0	-0.0496763	0.034113	-0.0101742	0.319788	-0.241463	0.429472	0.0120605	0.208716	-0.10275	0.262761	-0.0319123	0.254224	-0.192935	0.287808	-0.0769803	0.348672	-0.0993138	0.337665	0.0129525	0.327834	-0.160338	0.311617	-0.118219	0.192733	-0.182824	0.17019	-0.0278357	0.0586635	-0.0094385	0.0738122	0.324639	-0.233576	
5.58624	0	0	-0.044628	0.029161	-0.012104	0.325242	-0.240801	0.438871	0.012654	0.215038	-0.099439	0.264912	-0.027624	0.258522	-0.192935	0.287808	-0.068441	0.359982	-0.097766	0.343847	0.021882	0.336618	-0.151127	0.315033	-0.120922	0.200372	-0.173786	0.164284	-0.023233	0.055656	-0.005441	0.062515	0.31473	-0.223751	
5.58014	0	0	-0.044628	0.029161	-0.0148988	0.322875	-0.245083	0.439702	0.0141985	0.210673	-0.0911612	0.253033	-0.024356	0.249286	-0.191558	0.283916	-0.0645518	0.348991	-0.102624	0.347021	0.00846875	0.340506	-0.15682	0.316393	-0.11957	0.196551	-0.16728	0.165554	-0.020169	0.0570022	0.0228063	0.0614393	0.313187	-0.219392	
5.56793	0	0	-0.044628	0.029161	-0.0176935	0.320508	-0.249365	0.440532	0.015743	0.206308	-0.0828835	0.241154	-0.021088	0.240051	-0.190181	0.280023	-0.0606625	0.337999	-0.107483	0.350196	-0.0049445	0.344394	-0.162513	0.317754	-0.118218	0.19273	-0.160774	0.166824	-0.017105	0.0583485	0.0510535	0.0603635	0.311644	-0.215032	
5.55725	0	0	-0.044628	0.029161	-0.0204882	0.318142	-0.253647	0.441362	0.0172875	0.201943	-0.0746057	0.229275	-0.01782	0.230816	-0.188803	0.276131	-0.0567732	0.327008	-0.112341	0.353371	-0.0183577	0.348282	-0.168206	0.319114	-0.116866	0.18891	-0.154267	0.168094	-0.014041	0.0596947	0.0793008	0.0592878	0.310102	-0.210672	
5.53589	0	0	-0.044628	0.029161	-0.023283	0.315775	-0.257929	0.442193	0.018832	0.197578	-0.066328	0.217396	-0.014552	0.22158	-0.187426	0.272239	-0.052884	0.316016	-0.117199	0.356545	-0.031771	0.35217	-0.173899	0.320474	-0.115514	0.185089	-0.147761	0.169364	-0.010977	0.061041	0.107548	0.058212	0.308559	-0.206313	
5.513	0	0	-0.045389	0.0313117	-0.0195233	0.315414	-0.260647	0.449873	0.0209705	0.199536	-0.071628	0.220859	-0.0129195	0.216966	-0.18605	0.268348	-0.044716	0.310679	-0.118027	0.358885	-0.0254335	0.345592	-0.169292	0.322184	-0.115514	0.185089	-0.147761	0.169364	-0.0148115	0.0618723	0.107548	0.058212	0.310102	-0.210672	
5.49316	0	0	-0.04615	0.0334625	-0.0157635	0.315053	-0.263364	0.457553	0.023109	0.201495	-0.076928	0.224322	-0.011287	0.212352	-0.184673	0.264458	-0.036548	0.305342	-0.118856	0.361226	-0.019096	0.339014	-0.164685	0.323894	-0.115514	0.185089	-0.147761	0.169364	-0.018646	0.0627035	0.107548	0.058212	0.311644	-0.215032	
5.47027	0	0	-0.046911	0.0356132	-0.0120038	0.314693	-0.266082	0.465233	0.0252475	0.203453	-0.082228	0.227785	-0.0096545	0.207738	-0.183297	0.260568	-0.02838	0.300004	-0.119684	0.363567	-0.0127585	0.332437	-0.160079	0.325605	-0.115514	0.185089	-0.147761	0.169364	-0.0224805	0.0635348	0.107548	0.058212	0.313187	-0.219392	
5.44586	0	0	-0.047672	0.037764	-0.008244	0.314332	-0.268799	0.472913	0.027386	0.205411	-0.087528	0.231248	-0.008022	0.203124	-0.18192	0.256677	-0.020212	0.294667	-0.120512	0.365907	-0.006421	0.325859	-0.155472	0.327315	-0.115514	0.185089	-0.147761	0.169364	-0.026315	0.064366	0.107548	0.058212	0.31473	-0.223751	
5.42755	0	0	-0.0519592	0.0405652	-0.0110393	0.311967	-0.268799	0.472913	0.0252475	0.203453	-0.0832205	0.23059	-0.0096545	0.207738	-0.18192	0.256677	-0.0159253	0.300316	-0.118969	0.372101	0.00324125	0.343953	-0.153037	0.335174	-0.112798	0.19213	-0.149032	0.172957	-0.0224805	0.0635348	0.0672932	0.0932227	0.321555	-0.224859	
5.40619	0	0	-0.0562465	0.0433665	-0.0138345	0.309602	-0.268799	0.472913	0.023109	0.201495	-0.078913	0.229931	-0.011287	0.212352	-0.18192	0.256677	-0.0116385	0.305966	-0.117425	0.378296	0.0129035	0.362046	-0.150602	0.343033	-0.110081	0.19917	-0.150304	0.17655	-0.018646	0.0627035	0.0270385	0.128234	0.32838	-0.225967	
5.38483	0	0	-0.0605338	0.0461678	-0.0166297	0.307237	-0.268799	0.472913	0.0209705	0.199536	-0.0746055	0.229273	-0.0129195	0.216966	-0.18192	0.256677	-0.00735175	0.311615	-0.115882	0.38449	0.0225658	0.38014	-0.148167	0.350893	-0.107365	0.20621	-0.151575	0.180144	-0.0148115	0.0618723	-0.0132162	0.163244	0.335204	-0.227075	
5.36651	0	0	-0.064821	0.048969	-0.019425	0.304872	-0.268799	0.472913	0.018832	0.197578	-0.070298	0.228614	-0.014552	0.22158	-0.18192	0.256677	-0.003065	0.317264	-0.114339	0.390684	0.032228	0.398234	-0.145732	0.358752	-0.104648	0.213251	-0.152846	0.183737	-0.010977	0.061041	-0.053471	0.198255	0.342029	-0.228183	
5.3482	0	0	-0.064821	0.048969	-0.0212552	0.299785	-0.267893	0.470352	0.0159223	0.197802	-0.0736135	0.226469	-0.0112878	0.212354	-0.186291	0.253555	-0.00111975	0.311767	-0.111852	0.383656	0.0285187	0.386003	-0.142469	0.349531	-0.103295	0.209427	-0.158081	0.178874	-0.0132708	0.057518	-0.045461	0.175617	0.338287	-0.235788	
5.32989	0	0	-0.064821	0.048969	-0.0230855	0.294698	-0.266987	0.467792	0.0130125	0.198026	-0.076929	0.224324	-0.0080235	0.203128	-0.190663	0.250434	0.0008255	0.306269	-0.109366	0.376629	0.0248095	0.373772	-0.139207	0.34031	-0.101942	0.205603	-0.163316	0.174011	-0.0155645	0.053995	-0.037451	0.152979	0.334545	-0.243393	
5.31769	0	0	-0.064821	0.048969	-0.0249158	0.289612	-0.26608	0.465231	0.0101028	0.19825	-0.0802445	0.222179	-0.00475925	0.193903	-0.195034	0.247312	0.00277075	0.300771	-0.106879	0.369602	0.0211003	0.361541	-0.135944	0.331089	-0.100589	0.201779	-0.168551	0.169147	-0.0178582	0.050472	-0.029441	0.130342	0.330803	-0.250997	
5.30548	0	0	-0.064821	0.048969	-0.026746	0.284525	-0.265174	0.46267	0.007193	0.198474	-0.08356	0.220034	-0.001495	0.184677	-0.199406	0.244191	0.004716	0.295274	-0.104392	0.362574	0.017391	0.34931	-0.132681	0.321868	-0.099236	0.197955	-0.173786	0.164284	-0.020152	0.046949	-0.021431	0.107704	0.327061	-0.258602	
5.2887	0	0	-0.0605338	0.0461678	-0.0286735	0.289972	-0.262706	0.466965	0.0122413	0.200208	-0.0815768	0.21443	-0.001495	0.184677	-0.203774	0.241072	-0.005405	0.306114	-0.103564	0.360233	0.0248615	0.33955	-0.125891	0.317431	-0.0978835	0.194133	-0.169978	0.153522	-0.0232147	0.0456042	-0.021431	0.107704	0.330141	-0.267306	
5.28107	0	0	-0.0562465	0.0433665	-0.030601	0.295419	-0.260237	0.47126	0.0172895	0.201943	-0.0795935	0.208825	-0.001495	0.184677	-0.208142	0.237953	-0.015526	0.316953	-0.102736	0.357892	0.032332	0.329791	-0.119101	0.312994	-0.096531	0.190311	-0.16617	0.142761	-0.0262775	0.0442595	-0.021431	0.107704	0.333221	-0.27601	
5.27038	0	0	-0.0519592	0.0405652	-0.0325285	0.300867	-0.257769	0.475554	0.0223378	0.203677	-0.0776102	0.203221	-0.001495	0.184677	-0.21251	0.234835	-0.025647	0.327793	-0.101907	0.35555	0.0398025	0.320032	-0.112311	0.308558	-0.0951785	0.186489	-0.162362	0.131999	-0.0293403	0.0429148	-0.021431	0.107704	0.336301	-0.284715	
5.26123	0	0	-0.047672	0.037764	-0.034456	0.306314	-0.2553	0.479849	0.027386	0.205411	-0.075627	0.197617	-0.001495	0.184677	-0.216878	0.231716	-0.035768	0.338633	-0.101079	0.353209	0.047273	0.310272	-0.105521	0.304121	-0.093826	0.182667	-0.158554	0.121237	-0.032403	0.04157	-0.021431	0.107704	0.339381	-0.293419	
5.25513	0	0	-0.0519592	0.0405652	-0.0343588	0.295786	-0.251675	0.469605	0.0238812	0.199315	-0.0802752	0.187744	-0.00090475	0.166592	-0.212759	0.220075	-0.0404433	0.316368	-0.106654	0.347859	0.0394513	0.298337	-0.115836	0.303779	-0.0978968	0.179454	-0.159823	0.124823	-0.0316333	0.0393948	0.0188138	0.072722	0.32267	-0.2825	
5.24139	0	0	-0.0562465	0.0433665	-0.0342615	0.285258	-0.248051	0.45936	0.0203765	0.193219	-0.0849235	0.177872	-0.0003145	0.148506	-0.20864	0.208434	-0.0451185	0.294104	-0.112229	0.34251	0.0316295	0.286402	-0.126151	0.303438	-0.101968	0.17624	-0.161091	0.128409	-0.0308635	0.0372195	0.0590585	0.03774	0.30596	-0.271581	
5.23071	0	0	-0.0605338	0.0461678	-0.0341643	0.27473	-0.244426	0.449116	0.0168718	0.187123	-0.0895718	0.167999	0.00027575	0.13042	-0.204521	0.196793	-0.0497937	0.27184	-0.117804	0.337161	0.0238078	0.274467	-0.136467	0.303096	-0.106038	0.173027	-0.16236	0.131994	-0.0300937	0.0350442	0.0993033	0.002758	0.289249	-0.260663	
5.22613	0	0	-0.064821	0.048969	-0.034067	0.264202	-0.240801	0.438871	0.013367	0.181027	-0.09422	0.158127	0.000866	0.112335	-0.200402	0.185152	-0.054469	0.249575	-0.123379	0.331811	0.015986	0.262532	-0.146782	0.302755	-0.110109	0.169814	-0.163629	0.13558	-0.029324	0.032869	0.139548	-0.032224	0.272539	-0.249744	
5.2185	0	0	-0.064821	0.048969	-0.0311808	0.256045	-0.23899	0.433753	0.0164513	0.17231	-0.0912532	0.149743	-0.00343075	0.108076	-0.2034	0.178173	-0.0486585	0.233153	-0.128123	0.324135	0.0081735	0.250634	-0.143526	0.293553	-0.107408	0.162181	-0.168862	0.130732	-0.0316162	0.0293523	0.107293	-0.0198225	0.275616	-0.25844	
5.2063	0	0	-0.064821	0.048969	-0.0282945	0.247888	-0.237179	0.428636	0.0195355	0.163593	-0.0882865	0.141358	-0.0077275	0.103816	-0.206397	0.171193	-0.042848	0.216731	-0.132866	0.316458	0.000361	0.238735	-0.14027	0.284351	-0.104708	0.154548	-0.174095	0.125885	-0.0339085	0.0258355	0.0750385	-0.007421	0.278693	-0.267135	
5.19867	0	0	-0.064821	0.048969	-0.0254083	0.239731	-0.235368	0.423518	0.0226198	0.154876	-0.0853197	0.132974	-0.0120242	0.0995565	-0.209394	0.164214	-0.0370375	0.20031	-0.137609	0.308782	-0.0074515	0.226836	-0.137014	0.275149	-0.102007	0.146915	-0.179328	0.121037	-0.0362007	0.0223187	0.0427838	0.0049805	0.28177	-0.275831	
5.18951	0	0	-0.064821	0.048969	-0.022522	0.231574	-0.233557	0.4184	0.025704	0.146159	-0.082353	0.12459	-0.016321	0.095297	-0.212392	0.157235	-0.031227	0.183888	-0.142353	0.301106	-0.015264	0.214938	-0.133758	0.265947	-0.099306	0.139282	-0.184561	0.116189	-0.038493	0.018802	0.010529	0.017382	0.284847	-0.284527	
5.18646	0	0	-0.064821	0.048969	-0.029069	0.229586	-0.23603	0.414119	0.0169803	0.146838	-0.0803767	0.119005	-0.014696	0.0907043	-0.216758	0.154136	-0.037445	0.183748	-0.138329	0.300271	-0.009311	0.220759	-0.134843	0.269013	-0.102007	0.146915	-0.184561	0.116189	-0.037724	0.0166287	0.0467762	-0.0063025	0.286384	-0.288872	
5.17731	0	0	-0.064821	0.048969	-0.035616	0.227599	-0.238503	0.409837	0.0082565	0.147516	-0.0784005	0.11342	-0.013071	0.0861115	-0.221124	0.151036	-0.043663	0.183608	-0.134304	0.299437	-0.003358	0.22658	-0.135928	0.27208	-0.104708	0.154548	-0.184561	0.116189	-0.036955	0.0144555	0.0830235	-0.029987	0.287921	-0.293216	
5.1712	0	0	-0.064821	0.048969	-0.042163	0.225611	-0.240977	0.405556	-0.00046725	0.148195	-0.0764242	0.107835	-0.011446	0.0815188	-0.225489	0.147936	-0.049881	0.183468	-0.13028	0.298602	0.002595	0.232402	-0.137013	0.275146	-0.107408	0.162181	-0.184561	0.116189	-0.036186	0.0122822	0.119271	-0.0536715	0.289459	-0.297561	
5.1651	0	0	-0.064821	0.048969	-0.04871	0.223624	-0.24345	0.401274	-0.009191	0.148873	-0.074448	0.10225	-0.009821	0.076926	-0.229855	0.144837	-0.056099	0.183328	-0.126256	0.297768	0.008548	0.238223	-0.138098	0.278212	-0.110109	0.169814	-0.184561	0.116189	-0.035417	0.010109	0.155518	-0.077356	0.290996	-0.301906	
5.159	0	0	-0.0691063	0.051769	-0.045829	0.215482	-0.245019	0.394444	-0.009787	0.142572	-0.0800898	0.0952135	-0.014116	0.0726762	-0.232849	0.137875	-0.0565178	0.166815	-0.128527	0.283116	0.007422	0.207448	-0.131594	0.25983	-0.10471	0.154554	-0.179495	0.101872	-0.0384775	0.0087685	0.12724	-0.076195	0.294068	-0.310589	
5.15442	0	0	-0.0733915	0.054569	-0.042948	0.20734	-0.246588	0.387613	-0.010383	0.136271	-0.0857315	0.088177	-0.018411	0.0684265	-0.235844	0.130913	-0.0569365	0.150302	-0.130798	0.268464	0.006296	0.176673	-0.125089	0.241448	-0.0993105	0.139295	-0.174429	0.087554	-0.041538	0.007428	0.098963	-0.075034	0.297141	-0.319272	
5.14679	0	0	-0.0776767	0.057369	-0.040067	0.199198	-0.248157	0.380783	-0.010979	0.129971	-0.0913733	0.0811405	-0.022706	0.0641768	-0.238839	0.123952	-0.0573552	0.133788	-0.133069	0.253812	0.00517	0.145897	-0.118585	0.223066	-0.0939113	0.124035	-0.169363	0.0732365	-0.0445985	0.0060875	0.0706855	-0.073873	0.300214	-0.327955	
5.14526	0	0	-0.081962	0.060169	-0.037186	0.191056	-0.249726	0.373952	-0.011575	0.12367	-0.097015	0.074104	-0.027001	0.059927	-0.241833	0.11699	-0.057774	0.117275	-0.13534	0.23916	0.004044	0.115122	-0.112081	0.204684	-0.088512	0.108776	-0.164297	0.058919	-0.047659	0.004747	0.042408	-0.072712	0.303286	-0.336638	
5.13763	0	0	-0.0733895	0.0545677	-0.038146	0.193769	-0.244541	0.370565	-0.009439	0.125618	-0.0960287	0.071317	-0.027001	0.059927	-0.240466	0.113126	-0.0597037	0.122729	-0.133692	0.234503	0.005157	0.111977	-0.110998	0.201624	-0.088512	0.108776	-0.17206	0.0612425	-0.0468905	0.0025755	0.00631325	-0.049127	0.303286	-0.336638	
5.13153	0	0	-0.064817	0.0489665	-0.039106	0.196483	-0.239357	0.367177	-0.007303	0.127567	-0.0950425	0.06853	-0.027001	0.059927	-0.239099	0.109262	-0.0616335	0.128183	-0.132044	0.229845	0.00627	0.108831	-0.109915	0.198564	-0.088512	0.108776	-0.179823	0.063566	-0.046122	0.000404	-0.0297815	-0.025542	0.303286	-0.336638	
5.1239	0	0	-0.0562445	0.0433653	-0.040066	0.199196	-0.234173	0.363789	-0.005167	0.129516	-0.0940563	0.065743	-0.027001	0.059927	-0.237732	0.105399	-0.0635633	0.133637	-0.130396	0.225188	0.007383	0.105686	-0.108833	0.195504	-0.088512	0.108776	-0.187586	0.0658895	-0.0453535	-0.0017675	-0.0658762	-0.001957	0.303286	-0.336638	
5.12237	0	0	-0.047672	0.037764	-0.041026	0.201909	-0.228988	0.360402	-0.003031	0.131464	-0.09307	0.062956	-0.027001	0.059927	-0.236365	0.101535	-0.065493	0.139091	-0.128748	0.22053	0.008496	0.102541	-0.10775	0.192444	-0.088512	0.108776	-0.195349	0.068213	-0.044585	-0.003939	-0.101971	0.021628	0.303286	-0.336638	
5.12237	0	0	-0.047672	0.037764	-0.0391063	0.196483	-0.230561	0.353583	-0.00439775	0.127341	-0.0920843	0.06017	-0.0361608	0.0694392	-0.242092	0.102308	-0.0717005	0.138954	-0.13122	0.227517	0.0047885	0.124331	-0.109916	0.198565	-0.0925605	0.120218	-0.191385	0.0766255	-0.0446005	0.006094	-0.073846	0.0205665	0.297138	-0.319263	
5.11627	0	0	-0.047672	0.037764	-0.0371865	0.191057	-0.232134	0.346765	-0.0057645	0.123219	-0.0910985	0.057384	-0.0453205	0.0789515	-0.247819	0.103081	-0.077908	0.138817	-0.133692	0.234504	0.001081	0.146121	-0.112082	0.204686	-0.096609	0.13166	-0.18742	0.085038	-0.044616	0.016127	-0.045721	0.019505	0.29099	-0.301889	
5.1178	0	0	-0.047672	0.037764	-0.0352667	0.185632	-0.233707	0.339946	-0.00713125	0.119096	-0.0901127	0.054598	-0.0544803	0.0884637	-0.253546	0.103855	-0.0841155	0.13868	-0.136165	0.241491	-0.0026265	0.167911	-0.114247	0.210807	-0.100657	0.143102	-0.183456	0.0934505	-0.0446315	0.02616	-0.017596	0.0184435	0.284842	-0.284514	
5.11322	0	0	-0.047672	0.037764	-0.033347	0.180206	-0.23528	0.333127	-0.008498	0.114973	-0.089127	0.051812	-0.06364	0.097976	-0.259273	0.104628	-0.090323	0.138543	-0.138637	0.248478	-0.006334	0.189701	-0.116413	0.216928	-0.104706	0.154544	-0.179492	0.101863	-0.044647	0.036193	0.010529	0.017382	0.278694	-0.267139	
5.11169	0	0	-0.0433825	0.034961	-0.033347	0.180206	-0.230096	0.329739	-0.008498	0.114973	-0.089127	0.051812	-0.06364	0.097976	-0.259273	0.104628	-0.0922527	0.143997	-0.136989	0.243819	-0.00819475	0.183648	-0.11533	0.213867	-0.103356	0.150728	-0.178225	0.098283	-0.044647	0.036193	0.0145163	0.00611325	0.285506	-0.268247	
5.11474	0	0	-0.039093	0.032158	-0.033347	0.180206	-0.224911	0.326352	-0.008498	0.114973	-0.089127	0.051812	-0.06364	0.097976	-0.259273	0.104628	-0.0941825	0.14945	-0.13534	0.239161	-0.0100555	0.177594	-0.114247	0.210806	-0.102006	0.146913	-0.176959	0.094703	-0.044647	0.036193	0.0185035	-0.0051555	0.292319	-0.269355	
5.11017	0	0	-0.0348035	0.029355	-0.033347	0.180206	-0.219726	0.322964	-0.008498	0.114973	-0.089127	0.051812	-0.06364	0.097976	-0.259273	0.104628	-0.0961123	0.154904	-0.133691	0.234503	-0.0119162	0.171541	-0.113164	0.207745	-0.100656	0.143097	-0.175692	0.091123	-0.044647	0.036193	0.0224908	-0.0164243	0.299131	-0.270463	
5.10864	0	0	-0.030514	0.026552	-0.033347	0.180206	-0.214542	0.319576	-0.008498	0.114973	-0.089127	0.051812	-0.06364	0.097976	-0.259273	0.104628	-0.098042	0.160358	-0.132043	0.229844	-0.013777	0.165488	-0.112081	0.204684	-0.099306	0.139282	-0.174425	0.087543	-0.044647	0.036193	0.026478	-0.027693	0.305944	-0.271571	
5.10712	0	0	-0.0262225	0.0237477	-0.0324738	0.18798	-0.21725	0.32723	-0.00867125	0.123448	-0.0877852	0.059507	-0.0534363	0.101901	-0.262006	0.112353	-0.0894908	0.171568	-0.129669	0.233665	-0.004843	0.174197	-0.108547	0.209437	-0.0952328	0.142489	-0.175692	0.091123	-0.041586	0.0375373	0.026478	-0.027693	0.304404	-0.26722	
5.11017	0	0	-0.021931	0.0209435	-0.0316005	0.195754	-0.219959	0.334884	-0.0088445	0.131923	-0.0864435	0.067202	-0.0432325	0.105826	-0.26474	0.120079	-0.0809395	0.182777	-0.127295	0.237487	0.004091	0.182905	-0.105013	0.21419	-0.0911595	0.145695	-0.176959	0.094703	-0.038525	0.0388815	0.026478	-0.027693	0.302864	-0.262869	
5.10864	0	0	-0.0176395	0.0181392	-0.0307272	0.203529	-0.222667	0.342537	-0.00901775	0.140398	-0.0851018	0.074897	-0.0330287	0.109752	-0.267473	0.127805	-0.0723883	0.193987	-0.12492	0.241308	0.013025	0.191613	-0.101478	0.218943	-0.0870863	0.148902	-0.178225	0.098283	-0.035464	0.0402258	0.026478	-0.027693	0.301325	-0.258518	
5.10559	0	0	-0.013348	0.015335	-0.029854	0.211303	-0.225375	0.350191	-0.009191	0.148873	-0.08376	0.082592	-0.022825	0.113677	-0.270207	0.13553	-0.063837	0.205197	-0.122546	0.24513	0.021959	0.200322	-0.097944	0.223696	-0.083013	0.152109	-0.179492	0.101863	-0.032403	0.04157	0.026478	-0.027693	0.299785	-0.254167	
5.10254	0	0	-0.013348	0.015335	-0.032647	0.208954	-0.225375	0.350191	-0.008421	0.146697	-0.08376	0.082592	-0.022825	0.113677	-0.270207	0.13553	-0.0700475	0.205052	-0.127393	0.248297	0.0126532	0.203976	-0.097944	0.223696	-0.089787	0.156535	-0.175526	0.110292	-0.0354835	0.0502765	0.0224908	-0.0164242	0.296704	-0.245458	
5.10101	0	0	-0.013348	0.015335	-0.03544	0.206606	-0.225375	0.350191	-0.007651	0.14452	-0.08376	0.082592	-0.022825	0.113677	-0.270207	0.13553	-0.076258	0.204906	-0.132241	0.251464	0.0033475	0.20763	-0.097944	0.223696	-0.096561	0.160961	-0.171561	0.118722	-0.038564	0.058983	0.0185035	-0.0051555	0.293623	-0.23675	
5.10101	0	0	-0.013348	0.015335	-0.038233	0.204258	-0.225375	0.350191	-0.006881	0.142344	-0.08376	0.082592	-0.022825	0.113677	-0.270207	0.13553	-0.0824685	0.204761	-0.137088	0.254632	-0.00595825	0.211284	-0.097944	0.223696	-0.103335	0.165388	-0.167595	0.127151	-0.0416445	0.0676895	0.0145163	0.00611325	0.290541	-0.228041	
5.09491	0	0	-0.013348	0.015335	-0.041026	0.201909	-0.225375	0.350191	-0.006111	0.140167	-0.08376	0.082592	-0.022825	0.113677	-0.270207	0.13553	-0.088679	0.204616	-0.141935	0.257799	-0.015264	0.214938	-0.097944	0.223696	-0.110109	0.169814	-0.163629	0.13558	-0.044725	0.076396	0.010529	0.017382	0.28746	-0.219332	
5.09033	0	0	-0.00905425	0.0125295	-0.039194	0.206973	-0.223802	0.357016	-0.001837	0.14407	-0.086722	0.090963	-0.0169023	0.113341	-0.264481	0.13476	-0.0844043	0.210232	-0.138738	0.259294	-0.011171	0.21469	-0.0990282	0.22676	-0.108758	0.165996	-0.163629	0.13558	-0.041664	0.0777448	0.0065365	0.0286653	0.289001	-0.223687	
5.08575	0	0	-0.0047605	0.009724	-0.037362	0.212037	-0.222229	0.363842	0.002437	0.147972	-0.089684	0.099334	-0.0109795	0.113006	-0.258755	0.133991	-0.0801295	0.215847	-0.13554	0.260789	-0.007078	0.214442	-0.100112	0.229824	-0.107407	0.162179	-0.163629	0.13558	-0.038603	0.0790935	0.002544	0.0399485	0.290542	-0.228043	
5.0827	0	0	-0.00046675	0.0069185	-0.03553	0.217102	-0.220656	0.370668	0.006711	0.151874	-0.092646	0.107705	-0.00505675	0.112671	-0.25303	0.133221	-0.0758547	0.221463	-0.132343	0.262284	-0.002985	0.214194	-0.101197	0.232889	-0.106057	0.158361	-0.163629	0.13558	-0.035542	0.0804423	-0.0014485	0.0512317	0.292083	-0.232399	
5.07965	0	0	0.003827	0.004113	-0.033698	0.222166	-0.219083	0.377493	0.010985	0.155777	-0.095608	0.116076	0.000866	0.112335	-0.247304	0.132451	-0.07158	0.227079	-0.129145	0.263779	0.001108	0.213946	-0.102281	0.235953	-0.104706	0.154544	-0.163629	0.13558	-0.032481	0.081791	-0.005441	0.062515	0.293624	-0.236754	
5.07507	0	0	0.003827	0.004113	-0.037451	0.22253	-0.219083	0.377493	0.010214	0.157955	-0.0889785	0.120334	-0.00401925	0.126141	-0.250041	0.140186	-0.0731235	0.249155	-0.129249	0.274611	0.00854575	0.238271	-0.100918	0.246853	-0.103338	0.165397	-0.157121	0.136844	-0.0301893	0.0853205	-0.005441	0.062515	0.300442	-0.237861	
5.07202	0	0	0.003827	0.004113	-0.041204	0.222895	-0.219083	0.377493	0.009443	0.160134	-0.082349	0.124592	-0.0089045	0.139948	-0.252778	0.147922	-0.074667	0.27123	-0.129353	0.285443	0.0159835	0.262597	-0.0995545	0.257752	-0.101971	0.17625	-0.150612	0.138109	-0.0278975	0.08885	-0.005441	0.062515	0.30726	-0.238967	
5.06439	0	0	0.003827	0.004113	-0.044957	0.223259	-0.219083	0.377493	0.008672	0.162312	-0.0757195	0.128851	-0.0137897	0.153754	-0.255515	0.155657	-0.0762105	0.293306	-0.129457	0.296276	0.0234213	0.286922	-0.0981912	0.268652	-0.100603	0.187102	-0.144104	0.139373	-0.0256058	0.0923795	-0.005441	0.062515	0.314079	-0.240074	
5.06134	0	0	0.003827	0.004113	-0.04871	0.223624	-0.219083	0.377493	0.007901	0.164491	-0.06909	0.133109	-0.018675	0.167561	-0.258252	0.163392	-0.077754	0.315382	-0.129561	0.307108	0.030859	0.311247	-0.096828	0.279552	-0.099236	0.197955	-0.137596	0.140637	-0.023314	0.095909	-0.005441	0.062515	0.320897	-0.241181	
5.05371	0	0	-0.00046675	0.0069185	-0.045829	0.215482	-0.219987	0.380049	0.0094425	0.160135	-0.0753725	0.139364	-0.018675	0.167561	-0.265346	0.168027	-0.077754	0.315382	-0.127083	0.300104	0.0364628	0.29541	-0.094656	0.273414	-0.0951803	0.186493	-0.142836	0.135787	-0.0248348	0.090201	-0.0335558	0.063548	0.315619	-0.244427	
5.04913	0	0	-0.0047605	0.009724	-0.042948	0.20734	-0.220892	0.382604	0.010984	0.155778	-0.081655	0.145618	-0.018675	0.167561	-0.272439	0.172662	-0.077754	0.315382	-0.124605	0.293101	0.0420665	0.279573	-0.092484	0.267277	-0.0911245	0.175032	-0.148075	0.130937	-0.0263555	0.084493	-0.0616705	0.064581	0.310341	-0.247674	
5.04761	0	0	-0.00905425	0.0125295	-0.040067	0.199198	-0.221796	0.385159	0.0125255	0.151422	-0.0879375	0.151872	-0.018675	0.167561	-0.279532	0.177297	-0.077754	0.315382	-0.122127	0.286098	0.0476702	0.263735	-0.090312	0.261139	-0.0870688	0.163571	-0.153314	0.126087	-0.0278762	0.078785	-0.0897853	0.065614	0.305063	-0.25092	
5.03845	0	0	-0.013348	0.015335	-0.037186	0.191056	-0.2227	0.387715	0.014067	0.147066	-0.09422	0.158127	-0.018675	0.167561	-0.286626	0.181932	-0.077754	0.315382	-0.119649	0.279094	0.053274	0.247898	-0.08814	0.255001	-0.083013	0.152109	-0.158554	0.121237	-0.029397	0.073077	-0.1179	0.066647	0.299785	-0.254167	
5.03692	0	0	-0.00905425	0.0125295	-0.0418975	0.194134	-0.218414	0.38688	0.0162055	0.149018	-0.090906	0.160262	-0.020305	0.172168	-0.287995	0.185802	-0.0653125	0.315697	-0.115622	0.278257	0.0584995	0.244484	-0.08814	0.255001	-0.083013	0.152109	-0.157286	0.117652	-0.027856	0.0687217	-0.0818055	0.043062	0.29605	-0.261757	
5.03082	0	0	-0.0047605	0.009724	-0.046609	0.197213	-0.214127	0.386045	0.018344	0.15097	-0.087592	0.162397	-0.021935	0.176775	-0.289365	0.189673	-0.052871	0.316013	-0.111595	0.27742	0.063725	0.241069	-0.08814	0.255001	-0.083013	0.152109	-0.156018	0.114068	-0.026315	0.0643665	-0.045711	0.019477	0.292316	-0.269347	
5.02624	0	0	-0.00046675	0.0069185	-0.0513205	0.200292	-0.209841	0.385209	0.0204825	0.152921	-0.084278	0.164532	-0.023565	0.181382	-0.290735	0.193543	-0.0404295	0.316328	-0.107568	0.276583	0.0689505	0.237654	-0.08814	0.255001	-0.083013	0.152109	-0.154749	0.110483	-0.024774	0.0600113	-0.0096165	-0.004108	0.288582	-0.276937	
5.02319	0	0	0.003827	0.004113	-0.056032	0.20337	-0.205555	0.384374	0.022621	0.154873	-0.080964	0.166667	-0.025195	0.185989	-0.292104	0.197413	-0.027988	0.316643	-0.103541	0.275746	0.074176	0.23424	-0.08814	0.255001	-0.083013	0.152109	-0.153481	0.106899	-0.023233	0.055656	0.026478	-0.027693	0.284847	-0.284527	
5.01556	0	0	-0.00046675	0.0069185	-0.0502777	0.187108	-0.207129	0.377545	0.0220233	0.148567	-0.0885787	0.165193	-0.0294852	0.18171	-0.289366	0.189674	-0.038488	0.310841	-0.105193	0.280416	0.0633468	0.253492	-0.090312	0.261139	-0.0843643	0.155928	-0.157287	0.117656	-0.024774	0.0600113	0.0224908	-0.0164242	0.274966	-0.274728	
5.01404	0	0	-0.0047605	0.009724	-0.0445235	0.170846	-0.208703	0.370715	0.0214255	0.142261	-0.0961935	0.163719	-0.0337755	0.177432	-0.286627	0.181935	-0.048988	0.305038	-0.106845	0.285085	0.0525175	0.272744	-0.092484	0.267277	-0.0857155	0.159747	-0.161094	0.128414	-0.026315	0.0643665	0.0185035	-0.0051555	0.265085	-0.26493	
5.00946	0	0	-0.00905425	0.0125295	-0.0387693	0.154584	-0.210278	0.363886	0.0208277	0.135954	-0.103808	0.162245	-0.0380657	0.173153	-0.283889	0.174197	-0.059488	0.299235	-0.108498	0.289755	0.0416882	0.291995	-0.094656	0.273414	-0.0870667	0.163565	-0.164901	0.139172	-0.027856	0.0687217	0.0145163	0.00611325	0.255203	-0.255132	
5.01709	0	0	-0.013348	0.015335	-0.033015	0.138322	-0.211852	0.357057	0.02023	0.129648	-0.111423	0.160771	-0.042356	0.168875	-0.281151	0.166458	-0.069988	0.293433	-0.11015	0.294425	0.030859	0.311247	-0.096828	0.279552	-0.088418	0.167384	-0.168707	0.149929	-0.029397	0.073077	0.010529	0.017382	0.245322	-0.245333	
5.02319	0	0	-0.0141093	0.0174862	-0.033015	0.138322	-0.211852	0.357057	0.0194598	0.131825	-0.110434	0.157976	-0.0391	0.159673	-0.279783	0.162591	-0.0762002	0.293276	-0.104468	0.288917	0.0331017	0.304909	-0.0878608	0.268974	-0.088418	0.167384	-0.164901	0.139172	-0.0316885	0.0695525	0.010529	0.017382	0.248398	-0.254025	
5.0415	0	0	-0.0148705	0.0196375	-0.033015	0.138322	-0.211852	0.357057	0.0186895	0.134002	-0.109446	0.155181	-0.035844	0.150471	-0.278415	0.158724	-0.0824125	0.293119	-0.0987865	0.283409	0.0353445	0.29857	-0.0788935	0.258396	-0.088418	0.167384	-0.161094	0.128414	-0.03398	0.066028	0.010529	0.017382	0.251473	-0.262717	
5.05524	0	0	-0.0156317	0.0217887	-0.033015	0.138322	-0.211852	0.357057	0.0179193	0.136179	-0.108457	0.152387	-0.032588	0.141269	-0.277046	0.154858	-0.0886248	0.292962	-0.0931048	0.277901	0.0375872	0.292232	-0.0699262	0.247818	-0.088418	0.167384	-0.157287	0.117656	-0.0362715	0.0625035	0.010529	0.017382	0.254549	-0.271408	
5.07812	0	0	-0.016393	0.02394	-0.033015	0.138322	-0.211852	0.357057	0.017149	0.138356	-0.107468	0.149592	-0.029332	0.132067	-0.275678	0.150991	-0.094837	0.292805	-0.087423	0.272393	0.03983	0.285894	-0.060959	0.23724	-0.088418	0.167384	-0.153481	0.106899	-0.038563	0.058979	0.010529	0.017382	0.257624	-0.2801	
5.10406	0	0	-0.0156317	0.0217887	-0.0386823	0.144107	-0.211852	0.357057	0.0134705	0.14076	-0.108457	0.152387	-0.032588	0.141269	-0.275678	0.150991	-0.0905663	0.298449	-0.0850443	0.276226	0.0558845	0.297358	-0.0574163	0.242005	-0.085696	0.174421	-0.163787	0.116389	-0.0377927	0.0568025	0.0065365	0.0286653	0.26443	-0.281207	
5.12543	0	0	-0.0148705	0.0196375	-0.0443495	0.149892	-0.211852	0.357057	0.009792	0.143163	-0.109446	0.155181	-0.035844	0.150471	-0.275678	0.150991	-0.0862955	0.304094	-0.0826655	0.280058	0.071939	0.308822	-0.0538735	0.246769	-0.082974	0.181458	-0.174094	0.125879	-0.0370225	0.054626	0.002544	0.0399485	0.271236	-0.282313	
5.15137	0	0	-0.0141093	0.0174863	-0.0500167	0.155677	-0.211852	0.357057	0.0061135	0.145566	-0.110434	0.157976	-0.0391	0.159673	-0.275678	0.150991	-0.0820248	0.309738	-0.0802868	0.283891	0.0879935	0.320287	-0.0503308	0.251534	-0.080252	0.188495	-0.1844	0.135369	-0.0362522	0.0524495	-0.0014485	0.0512317	0.278041	-0.28342	
5.16205	0	0	-0.013348	0.015335	-0.055684	0.161462	-0.211852	0.357057	0.002435	0.14797	-0.111423	0.160771	-0.042356	0.168875	-0.275678	0.150991	-0.077754	0.315382	-0.077908	0.287724	0.104048	0.331751	-0.046788	0.256298	-0.07753	0.195532	-0.194706	0.144859	-0.035482	0.050273	-0.005441	0.062515	0.284847	-0.284527	
5.17731	0	0	-0.013348	0.015335	-0.055684	0.161462	-0.210949	0.354504	0.00765375	0.141213	-0.107469	0.149597	-0.0466427	0.164602	-0.272943	0.143262	-0.0820248	0.309738	-0.0794607	0.281557	0.10555	0.316126	-0.0435298	0.24709	-0.076177	0.191708	-0.190903	0.13411	-0.0377733	0.046753	0.00253875	0.039963	0.279578	-0.287763	
5.18494	0	0	-0.013348	0.015335	-0.055684	0.161462	-0.210045	0.35195	0.0128725	0.134456	-0.103515	0.138424	-0.0509295	0.160328	-0.270208	0.135534	-0.0862955	0.304094	-0.0810135	0.275389	0.107052	0.3005	-0.0402715	0.237882	-0.074824	0.187884	-0.187099	0.123361	-0.0400645	0.043233	0.0105185	0.017411	0.274309	-0.290998	
5.18951	0	0	-0.013348	0.015335	-0.055684	0.161462	-0.209142	0.349396	0.0180912	0.1277	-0.0995618	0.12725	-0.0552163	0.156055	-0.267474	0.127805	-0.0905663	0.298449	-0.0825663	0.269222	0.108554	0.284875	-0.0370132	0.228673	-0.073471	0.18406	-0.183296	0.112612	-0.0423557	0.039713	0.0184983	-0.005141	0.269039	-0.294234	
5.18646	0	0	-0.013348	0.015335	-0.055684	0.161462	-0.208238	0.346843	0.02331	0.120943	-0.095608	0.116076	-0.059503	0.151782	-0.264739	0.120076	-0.094837	0.292805	-0.084119	0.263055	0.110056	0.269249	-0.033755	0.219465	-0.072118	0.180236	-0.179492	0.101863	-0.044647	0.036193	0.026478	-0.027693	0.26377	-0.29747	
5.18036	0	0	-0.00475825	0.0097225	-0.0538517	0.166515	-0.210045	0.35195	0.0246792	0.125069	-0.0999073	0.116739	-0.0503335	0.142256	-0.264739	0.120076	-0.0866843	0.287478	-0.0832932	0.260721	0.111178	0.266078	-0.033755	0.219465	-0.0666865	0.179627	-0.178225	0.098283	-0.044647	0.036193	0.0304605	-0.0389478	0.262234	-0.293127	
5.17425	0	0	0.0038315	0.00411	-0.0520195	0.171568	-0.211852	0.357058	0.0260485	0.129195	-0.104207	0.117402	-0.041164	0.13273	-0.264739	0.120076	-0.0785315	0.282151	-0.0824675	0.258387	0.1123	0.262907	-0.033755	0.219465	-0.061255	0.179017	-0.176959	0.094703	-0.044647	0.036193	0.034443	-0.0502025	0.260697	-0.288785	
5.16662	0	0	0.0124212	-0.0015025	-0.0501873	0.176621	-0.21366	0.362166	0.0274178	0.133321	-0.108506	0.118066	-0.0319945	0.123203	-0.264739	0.120076	-0.0703787	0.276824	-0.0816417	0.256054	0.113422	0.259736	-0.033755	0.219465	-0.0558235	0.178408	-0.175692	0.091123	-0.044647	0.036193	0.0384255	-0.0614573	0.259161	-0.284443	
5.15594	0	0	0.021011	-0.007115	-0.048355	0.181674	-0.215467	0.367273	0.028787	0.137447	-0.112805	0.118729	-0.022825	0.113677	-0.264739	0.120076	-0.062226	0.271497	-0.080816	0.25372	0.114544	0.256565	-0.033755	0.219465	-0.050392	0.177799	-0.174425	0.087543	-0.044647	0.036193	0.042408	-0.072712	0.257624	-0.2801	
5.14068	0	0	0.0159537	-0.00215675	-0.0426845	0.175885	-0.211854	0.357061	0.0266478	0.135497	-0.112169	0.105452	-0.023869	0.100239	-0.274811	0.117754	-0.0688392	0.254777	-0.0856715	0.256893	0.102955	0.266575	-0.0348408	0.222533	-0.0530998	0.185452	-0.176959	0.0947045	-0.0461862	0.0405433	0.002331	-0.0378722	0.256087	-0.275755	
5.12848	0	0	0.0108965	0.0028015	-0.037014	0.170096	-0.20824	0.346849	0.0245085	0.133548	-0.111533	0.0921755	-0.024913	0.086802	-0.284882	0.115431	-0.0754525	0.238057	-0.090527	0.260066	0.091366	0.276585	-0.0359265	0.225602	-0.0558075	0.193104	-0.179493	0.101866	-0.0477255	0.0448935	-0.037746	-0.0030325	0.254549	-0.27141	
5.11474	0	0	0.00583925	0.00775975	-0.0313435	0.164306	-0.204626	0.336636	0.0223693	0.131598	-0.110897	0.0788988	-0.025957	0.0733645	-0.294953	0.113109	-0.0820657	0.221336	-0.0953825	0.263238	0.079777	0.286596	-0.0370122	0.22867	-0.0585152	0.200757	-0.182027	0.109027	-0.0492648	0.0492438	-0.077823	0.0318073	0.253012	-0.267066	
5.10101	0	0	0.000782	0.012718	-0.025673	0.158517	-0.201013	0.326424	0.02023	0.129648	-0.110261	0.065622	-0.027001	0.059927	-0.305025	0.110787	-0.088679	0.204616	-0.100238	0.266411	0.068188	0.296606	-0.038098	0.231738	-0.061223	0.208409	-0.184561	0.116189	-0.050804	0.053594	-0.1179	0.066647	0.251475	-0.262721	
5.09186	0	0	0.005078	0.009911	-0.026632	0.161228	-0.204395	0.324712	0.02177	0.125296	-0.111601	0.0579368	-0.0253785	0.0553413	-0.302296	0.103075	-0.0848135	0.193692	-0.098587	0.261745	0.066324	0.290513	-0.0438132	0.233114	-0.061223	0.208409	-0.183294	0.112607	-0.0500343	0.0514185	-0.0818055	0.043062	0.249937	-0.258374	
5.07965	0	0	0.009374	0.007104	-0.027591	0.163938	-0.207778	0.323	0.02331	0.120944	-0.112942	0.0502515	-0.023756	0.0507555	-0.299567	0.095363	-0.080948	0.182767	-0.096936	0.257079	0.06446	0.284421	-0.0495285	0.234489	-0.061223	0.208409	-0.182027	0.109026	-0.0492645	0.049243	-0.045711	0.019477	0.248399	-0.254027	
5.06744	0	0	0.01367	0.004297	-0.02855	0.166649	-0.21116	0.321288	0.02485	0.116592	-0.114282	0.0425662	-0.0221335	0.0461698	-0.296839	0.087651	-0.0770825	0.171843	-0.095285	0.252413	0.062596	0.278328	-0.0552438	0.235865	-0.061223	0.208409	-0.180759	0.105444	-0.0484947	0.0470675	-0.0096165	-0.004108	0.24686	-0.24968	
5.05981	0	0	0.017966	0.00149	-0.029509	0.16936	-0.214542	0.319576	0.02639	0.11224	-0.115622	0.034881	-0.020511	0.041584	-0.29411	0.079939	-0.073217	0.160919	-0.093634	0.247747	0.060732	0.272236	-0.060959	0.23724	-0.061223	0.208409	-0.179492	0.101863	-0.047725	0.044892	0.026478	-0.027693	0.245322	-0.245333	
5.05371	0	0	0.0144312	0.00214575	-0.029509	0.16936	-0.21364	0.317026	0.0234813	0.112468	-0.115622	0.034881	-0.0221335	0.0461698	-0.287028	0.0753117	-0.0770825	0.171843	-0.095285	0.252413	0.0696947	0.281008	-0.0563297	0.238934	-0.063933	0.216068	-0.179492	0.101863	-0.0438945	0.0440615	0.0304605	-0.0389478	0.252126	-0.246436	
5.04761	0	0	0.0108965	0.0028015	-0.029509	0.16936	-0.212738	0.314477	0.0205725	0.112697	-0.115622	0.034881	-0.023756	0.0507555	-0.279946	0.0706845	-0.080948	0.182767	-0.096936	0.257079	0.0786575	0.28978	-0.0517005	0.240628	-0.066643	0.223728	-0.179492	0.101863	-0.040064	0.043231	0.034443	-0.0502025	0.258931	-0.247538	
5.03998	0	0	0.00736175	0.00345725	-0.029509	0.16936	-0.211835	0.311927	0.0176637	0.112925	-0.115622	0.034881	-0.0253785	0.0553413	-0.272865	0.0660572	-0.0848135	0.193692	-0.098587	0.261745	0.0876203	0.298553	-0.0470713	0.242322	-0.069353	0.231387	-0.179492	0.101863	-0.0362335	0.0424005	0.0384255	-0.0614573	0.265735	-0.248641	
5.03082	0	0	0.003827	0.004113	-0.029509	0.16936	-0.210933	0.309377	0.014755	0.113153	-0.115622	0.034881	-0.027001	0.059927	-0.265783	0.06143	-0.088679	0.204616	-0.100238	0.266411	0.096583	0.307325	-0.042442	0.244016	-0.072063	0.239046	-0.179492	0.101863	-0.032403	0.04157	0.042408	-0.072712	0.272539	-0.249744	
5.0293	0	0	0.00736175	0.00345725	-0.02855	0.166649	-0.210031	0.306828	0.0155245	0.110978	-0.11267	0.0265385	-0.0329147	0.0602655	-0.270138	0.0583518	-0.0848135	0.193692	-0.10014	0.255592	0.0921008	0.28589	-0.0438163	0.233123	-0.0666453	0.223734	-0.175693	0.091127	-0.035464	0.0402258	0.0463853	-0.0839525	0.267273	-0.252988	
5.02472	0	0	0.0108965	0.0028015	-0.027591	0.163938	-0.20913	0.304279	0.016294	0.108803	-0.109718	0.018196	-0.0388285	0.060604	-0.274494	0.0552735	-0.080948	0.182767	-0.100043	0.244772	0.0876185	0.264455	-0.0451905	0.22223	-0.0612275	0.208423	-0.171895	0.080391	-0.038525	0.0388815	0.0503625	-0.095193	0.262007	-0.256232	
5.02014	0	0	0.0144312	0.00214575	-0.026632	0.161228	-0.208228	0.30173	0.0170635	0.106629	-0.106766	0.0098535	-0.0447422	0.0609425	-0.278849	0.0521952	-0.0770825	0.171843	-0.0999455	0.233953	0.0831362	0.243019	-0.0465648	0.211337	-0.0558097	0.193111	-0.168096	0.069655	-0.041586	0.0375373	0.0543397	-0.106434	0.256741	-0.259477	
5.01861	0	0	0.017966	0.00149	-0.025673	0.158517	-0.207326	0.299181	0.017833	0.104454	-0.103814	0.001511	-0.050656	0.061281	-0.283204	0.049117	-0.073217	0.160919	-0.099848	0.223133	0.078654	0.221584	-0.047939	0.200444	-0.050392	0.177799	-0.164297	0.058919	-0.044647	0.036193	0.058317	-0.117674	0.251475	-0.262721	
5.01404	0	0	0.0230253	-0.00346975	-0.025673	0.158517	-0.207326	0.299181	0.0207418	0.104225	-0.101848	-0.00404625	-0.0490343	0.0566978	-0.281842	0.0452668	-0.073217	0.160919	-0.0973758	0.216146	0.088357	0.205522	-0.045771	0.194317	-0.0476865	0.170153	-0.17206	0.0612425	-0.0431085	0.0318453	0.058317	-0.117674	0.251475	-0.262721	
5.01099	0	0	0.0280845	-0.0084295	-0.025673	0.158517	-0.207326	0.299181	0.0236505	0.103997	-0.0998815	-0.0096035	-0.0474125	0.0521145	-0.280479	0.0414165	-0.073217	0.160919	-0.0949035	0.209158	0.09806	0.189461	-0.043603	0.18819	-0.044981	0.162507	-0.179823	0.063566	-0.04157	0.0274975	0.058317	-0.117674	0.251475	-0.262721	
5.01099	0	0	0.0331437	-0.0133893	-0.025673	0.158517	-0.207326	0.299181	0.0265592	0.103768	-0.0979153	-0.0151607	-0.0457907	0.0475312	-0.279117	0.0375663	-0.073217	0.160919	-0.0924312	0.202171	0.107763	0.173399	-0.041435	0.182062	-0.0422755	0.154861	-0.187586	0.0658895	-0.0400315	0.0231498	0.058317	-0.117674	0.251475	-0.262721	
5.01404	0	0	0.038203	-0.018349	-0.025673	0.158517	-0.207326	0.299181	0.029468	0.103539	-0.095949	-0.020718	-0.044169	0.042948	-0.277755	0.033716	-0.073217	0.160919	-0.089959	0.195184	0.117466	0.157337	-0.039267	0.175935	-0.03957	0.147215	-0.195349	0.068213	-0.038493	0.018802	0.058317	-0.117674	0.251475	-0.262721	
5.01251	0	0	0.033905	-0.0155405	-0.0255928	0.148054	-0.204622	0.291538	0.032545	0.0948433	-0.0992608	-0.0228238	-0.042548	0.038367	-0.275032	0.0260208	-0.071286	0.155462	-0.0916068	0.199842	0.105523	0.179728	-0.0357188	0.180684	-0.03957	0.147215	-0.190118	0.0730455	-0.0369705	0.024494	0.0905867	-0.130118	0.249937	-0.258374	
5.01861	0	0	0.029607	-0.012732	-0.0255125	0.137591	-0.201917	0.283895	0.035622	0.0861475	-0.102573	-0.0249295	-0.040927	0.033786	-0.272309	0.0183255	-0.069355	0.150005	-0.0932545	0.204499	0.093581	0.202119	-0.0321705	0.185433	-0.03957	0.147215	-0.184887	0.077878	-0.035448	0.030186	0.122857	-0.142562	0.248399	-0.254027	
5.02624	0	0	0.025309	-0.0099235	-0.0254322	0.127128	-0.199212	0.276253	0.038699	0.0774517	-0.105884	-0.0270353	-0.039306	0.029205	-0.269586	0.0106303	-0.067424	0.144548	-0.0949022	0.209156	0.0816385	0.22451	-0.0286223	0.190181	-0.03957	0.147215	-0.179656	0.0827105	-0.0339255	0.035878	0.155126	-0.155006	0.24686	-0.24968	
5.0293	0	0	0.021011	-0.007115	-0.025352	0.116665	-0.196508	0.26861	0.041776	0.068756	-0.109196	-0.029141	-0.037685	0.024624	-0.266863	0.002935	-0.065493	0.139091	-0.09655	0.213814	0.069696	0.246901	-0.025074	0.19493	-0.03957	0.147215	-0.174425	0.087543	-0.032403	0.04157	0.187396	-0.16745	0.245322	-0.245333	
5.0293	0	0	0.021011	-0.007115	-0.0215242	0.105847	-0.194707	0.263518	0.0433132	0.0644113	-0.108214	-0.0319168	-0.036065	0.0200455	-0.265503	-0.00091025	-0.0717005	0.138954	-0.0940785	0.206829	0.0711842	0.231341	-0.0218213	0.185737	-0.0423007	0.140191	-0.171893	0.080387	-0.0308638	0.03722	0.115054	-0.12018	0.248398	-0.254025	
5.03235	0	0	0.021011	-0.007115	-0.0176965	0.0950285	-0.192905	0.258427	0.0448505	0.0600665	-0.107232	-0.0346925	-0.034445	0.015467	-0.264142	-0.0047555	-0.077908	0.138817	-0.091607	0.199844	0.0726725	0.215781	-0.0185685	0.176545	-0.0450315	0.133167	-0.169361	0.073231	-0.0293245	0.03287	0.0427125	-0.072911	0.251473	-0.262717	
5.03235	0	0	0.021011	-0.007115	-0.0138687	0.0842103	-0.191103	0.253335	0.0463878	0.0557218	-0.106249	-0.0374683	-0.032825	0.0108885	-0.262782	-0.00860075	-0.0841155	0.13868	-0.0891355	0.192858	0.0741607	0.200221	-0.0153157	0.167352	-0.0477623	0.126144	-0.166829	0.066075	-0.0277852	0.02852	-0.0296293	-0.0256415	0.254549	-0.271408	
5.03387	0	0	0.021011	-0.007115	-0.010041	0.073392	-0.189302	0.248243	0.047925	0.051377	-0.105267	-0.040244	-0.031205	0.00631	-0.261421	-0.012446	-0.090323	0.138543	-0.086664	0.185873	0.075649	0.184661	-0.012063	0.15816	-0.050493	0.11912	-0.164297	0.058919	-0.026246	0.02417	-0.101971	0.021628	0.257624	-0.2801	
5.0293	0	0	0.021011	-0.007115	-0.0119542	0.0787995	-0.192906	0.258429	0.0440803	0.0622427	-0.102938	-0.0353625	-0.0269097	0.0105452	-0.261421	-0.012446	-0.081767	0.149739	-0.0834587	0.187358	0.0898565	0.189965	-0.0153157	0.167352	-0.0437083	0.114687	-0.165563	0.0624963	-0.0224127	0.0233373	-0.0658762	-0.001957	0.256087	-0.275755	
5.02319	0	0	0.021011	-0.007115	-0.0138675	0.084207	-0.196511	0.268616	0.0402355	0.0731085	-0.100608	-0.030481	-0.0226145	0.0147805	-0.261421	-0.012446	-0.073211	0.160936	-0.0802535	0.188843	0.104064	0.195269	-0.0185685	0.176545	-0.0369235	0.110254	-0.166828	0.0660735	-0.0185795	0.0225045	-0.0297815	-0.025542	0.254549	-0.27141	
5.02319	0	0	0.021011	-0.007115	-0.0157808	0.0896145	-0.200115	0.278802	0.0363907	0.0839743	-0.0982785	-0.0255995	-0.0183192	0.0190158	-0.261421	-0.012446	-0.064655	0.172132	-0.0770483	0.190329	0.118272	0.200573	-0.0218213	0.185737	-0.0301387	0.10582	-0.168094	0.0696507	-0.0147463	0.0216718	0.00631325	-0.049127	0.253012	-0.267066	
5.01556	0	0	0.021011	-0.007115	-0.017694	0.095022	-0.203719	0.288988	0.032546	0.09484	-0.095949	-0.020718	-0.014024	0.023251	-0.261421	-0.012446	-0.056099	0.183328	-0.073843	0.191814	0.132479	0.205877	-0.025074	0.19493	-0.023354	0.101387	-0.16936	0.073228	-0.010913	0.020839	0.042408	-0.072712	0.251475	-0.262721	
5.00488	0	0	0.021011	-0.007115	-0.0195333	0.0899887	-0.204621	0.291536	0.0369955	0.0902612	-0.0949663	-0.0234955	-0.012403	0.01867	-0.260061	-0.0162897	-0.0522338	0.172404	-0.077872	0.192657	0.119023	0.209804	-0.0239895	0.191865	-0.0287888	0.102005	-0.162855	0.0744812	-0.0170553	0.0281975	0.042408	-0.072712	0.251475	-0.262721	
5.0003	0	0	0.021011	-0.007115	-0.0213725	0.0849555	-0.205522	0.294084	0.041445	0.0856825	-0.0939835	-0.026273	-0.010782	0.014089	-0.258701	-0.0201335	-0.0483685	0.161479	-0.081901	0.193499	0.105567	0.21373	-0.022905	0.1888	-0.0342235	0.102623	-0.15635	0.0757345	-0.0231975	0.035556	0.042408	-0.072712	0.251475	-0.262721	
4.99573	0	0	0.021011	-0.007115	-0.0232117	0.0799223	-0.206424	0.296633	0.0458945	0.0811038	-0.0930008	-0.0290505	-0.009161	0.009508	-0.257341	-0.0239772	-0.0445033	0.150555	-0.08593	0.194342	0.0921103	0.217657	-0.0218205	0.185734	-0.0396582	0.10324	-0.149845	0.0769878	-0.0293397	0.0429145	0.042408	-0.072712	0.251475	-0.262721	
4.98657	0	0	0.021011	-0.007115	-0.025051	0.074889	-0.207326	0.299181	0.050344	0.076525	-0.092018	-0.031828	-0.00754	0.004927	-0.255981	-0.027821	-0.040638	0.139631	-0.089959	0.195184	0.078654	0.221584	-0.020736	0.182669	-0.045093	0.103858	-0.14334	0.078241	-0.035482	0.050273	0.042408	-0.072712	0.251475	-0.262721	
4.98199	0	0	0.025309	-0.0099235	-0.0203422	0.071812	-0.203942	0.30089	0.0524865	0.0784682	-0.0877205	-0.0325008	-0.00754	0.004927	-0.255981	-0.027821	-0.0344175	0.139765	-0.0907827	0.197513	0.078654	0.221584	-0.0139298	0.178222	-0.045093	0.103858	-0.14334	0.078241	-0.0347123	0.0480973	0.0384255	-0.0614572	0.244677	-0.26162	
4.97436	0	0	0.029607	-0.012732	-0.0156335	0.068735	-0.200559	0.302599	0.054629	0.0804115	-0.083423	-0.0331735	-0.00754	0.004927	-0.255981	-0.027821	-0.028197	0.139898	-0.0916065	0.199841	0.078654	0.221584	-0.0071235	0.173774	-0.045093	0.103858	-0.14334	0.078241	-0.0339425	0.0459215	0.034443	-0.0502025	0.23788	-0.260518	
4.96673	0	0	0.033905	-0.0155405	-0.0109248	0.065658	-0.197176	0.304308	0.0567715	0.0823548	-0.0791255	-0.0338463	-0.00754	0.004927	-0.255981	-0.027821	-0.0219765	0.140032	-0.0924303	0.20217	0.078654	0.221584	-0.00031725	0.169327	-0.045093	0.103858	-0.14334	0.078241	-0.0331728	0.0437457	0.0304605	-0.0389477	0.231082	-0.259416	
4.96063	0	0	0.038203	-0.018349	-0.006216	0.062581	-0.193792	0.306017	0.058914	0.084298	-0.074828	-0.034519	-0.00754	0.004927	-0.255981	-0.027821	-0.015756	0.140165	-0.093254	0.204498	0.078654	0.221584	0.006489	0.16488	-0.045093	0.103858	-0.14334	0.078241	-0.032403	0.04157	0.026478	-0.027693	0.224284	-0.258315	
4.95148	0	0	0.033905	-0.0155405	-0.009013	0.0602552	-0.19289	0.303467	0.056002	0.084529	-0.077778	-0.0261818	-0.00161825	0.00457925	-0.261698	-0.0270393	-0.0196237	0.151096	-0.091699	0.210647	0.086127	0.245948	0.00323425	0.174079	-0.049145	0.11531	-0.145875	0.0854055	-0.0331728	0.0437457	-0.0096165	-0.004108	0.231082	-0.259416	
4.94995	0	0	0.029607	-0.012732	-0.01181	0.0579295	-0.191987	0.300918	0.05309	0.08476	-0.080728	-0.0178445	0.0043035	0.0042315	-0.267414	-0.0262575	-0.0234915	0.162027	-0.090144	0.216796	0.0936	0.270313	-2.05E-05	0.183277	-0.053197	0.126761	-0.148411	0.09257	-0.0339425	0.0459215	-0.045711	0.019477	0.23788	-0.260518	
4.94537	0	0	0.025309	-0.0099235	-0.014607	0.0556038	-0.191085	0.298368	0.050178	0.084991	-0.083678	-0.00950725	0.0102252	0.00388375	-0.27313	-0.0254757	-0.0273593	0.172957	-0.088589	0.222944	0.101073	0.294677	-0.00327525	0.192476	-0.057249	0.138213	-0.150946	0.0997345	-0.0347123	0.0480973	-0.0818055	0.043062	0.244677	-0.26162	
4.93622	0	0	0.021011	-0.007115	-0.017404	0.053278	-0.190183	0.295818	0.047266	0.085222	-0.086628	-0.00117	0.016147	0.003536	-0.278847	-0.024694	-0.031227	0.183888	-0.087034	0.229093	0.108546	0.319041	-0.00653	0.201675	-0.061301	0.149665	-0.153481	0.106899	-0.035482	0.050273	-0.1179	0.066647	0.251475	-0.262721	
4.93622	0	0	0.021011	-0.007115	-0.0164487	0.050578	-0.194469	0.296659	0.0443555	0.0854523	-0.0856443	-0.00395	0.0118453	-0.00069475	-0.277488	-0.0285343	-0.0355118	0.178284	-0.0902375	0.227603	0.111917	0.309515	-0.00544475	0.198608	-0.0599498	0.145846	-0.149679	0.0961545	-0.0324038	0.041573	-0.077823	0.0318072	0.24775	-0.270303	
4.93469	0	0	0.021011	-0.007115	-0.0154935	0.047878	-0.198755	0.2975	0.041445	0.0856825	-0.0846605	-0.00673	0.0075435	-0.0049255	-0.276129	-0.0323745	-0.0397965	0.172681	-0.093441	0.226113	0.115287	0.299989	-0.0043595	0.195541	-0.0585985	0.142028	-0.145877	0.08541	-0.0293255	0.032873	-0.037746	-0.0030325	0.244025	-0.277884	
4.93011	0	0	0.021011	-0.007115	-0.0145382	0.045178	-0.20304	0.29834	0.0385345	0.0859127	-0.0836767	-0.00951	0.00324175	-0.00915625	-0.27477	-0.0362148	-0.0440813	0.167077	-0.0966445	0.224623	0.118657	0.290463	-0.00327425	0.192473	-0.0572472	0.138209	-0.142075	0.0746655	-0.0262472	0.024173	0.002331	-0.0378723	0.240299	-0.285465	
4.92859	0	0	0.021011	-0.007115	-0.013583	0.042478	-0.207326	0.299181	0.035624	0.086143	-0.082693	-0.01229	-0.00106	-0.013387	-0.273411	-0.040055	-0.048366	0.161473	-0.099848	0.223133	0.122028	0.280937	-0.002189	0.189406	-0.055896	0.13439	-0.138273	0.063921	-0.023169	0.015473	0.042408	-0.072712	0.236574	-0.293047	
4.92248	0	0	0.025309	-0.0099235	-0.0126975	0.0502065	-0.205748	0.305992	0.0369953	0.0902628	-0.0846608	-0.00672925	0.00324175	-0.00915625	-0.27477	-0.0362148	-0.035921	0.161745	-0.0958198	0.222292	0.128019	0.286789	0.00462275	0.184955	-0.0518145	0.137596	-0.137007	0.0603423	-0.027	0.0163053	0.042408	-0.072712	0.238109	-0.297385	
4.92248	0	0	0.029607	-0.012732	-0.011812	0.057935	-0.20417	0.312802	0.0383665	0.0943825	-0.0866285	-0.0011685	0.0075435	-0.0049255	-0.276129	-0.0323745	-0.023476	0.162017	-0.0917915	0.221451	0.134011	0.29264	0.0114345	0.180504	-0.047733	0.140802	-0.13574	0.0567635	-0.030831	0.0171375	0.042408	-0.072712	0.239644	-0.301724	
4.92096	0	0	0.033905	-0.0155405	-0.0109265	0.0656635	-0.202591	0.319613	0.0397378	0.0985022	-0.0885963	0.00439225	0.0118452	-0.00069475	-0.277488	-0.0285343	-0.011031	0.162288	-0.0877633	0.220611	0.140002	0.298492	0.0182463	0.176053	-0.0436515	0.144009	-0.134474	0.0531848	-0.034662	0.0179697	0.042408	-0.072712	0.241179	-0.306063	
4.91638	0	0	0.038203	-0.018349	-0.010041	0.073392	-0.201013	0.326424	0.041109	0.102622	-0.090564	0.009953	0.016147	0.003536	-0.278847	-0.024694	0.001414	0.16256	-0.083735	0.21977	0.145993	0.304344	0.025058	0.171602	-0.03957	0.147215	-0.133208	0.049606	-0.038493	0.018802	0.042408	-0.072712	0.242714	-0.310401	
4.91638	0	0	0.038203	-0.018349	-0.00908475	0.0706892	-0.198306	0.318773	0.0426482	0.098272	-0.0919102	0.00228525	0.015083	-0.009845	-0.2832	-0.0277533	-0.007168	0.151371	-0.0861148	0.215952	0.141125	0.295319	0.0215	0.166857	-0.0450028	0.147828	-0.134474	0.0531848	-0.038493	0.018802	0.042408	-0.072712	0.234387	-0.30496	
4.9118	0	0	0.038203	-0.018349	-0.0081285	0.0679865	-0.195598	0.311121	0.0441875	0.093922	-0.0932565	-0.0053825	0.014019	-0.023226	-0.287552	-0.0308125	-0.01575	0.140182	-0.0884945	0.212134	0.136256	0.286295	0.017942	0.162112	-0.0504355	0.14844	-0.13574	0.0567635	-0.038493	0.018802	0.042408	-0.072712	0.22606	-0.299519	
4.90875	0	0	0.038203	-0.018349	-0.00717225	0.0652838	-0.19289	0.30347	0.0457268	0.089572	-0.0946028	-0.0130502	0.012955	-0.036607	-0.291905	-0.0338717	-0.024332	0.128992	-0.0908743	0.208316	0.131387	0.27727	0.014384	0.157368	-0.0558683	0.149053	-0.137007	0.0603423	-0.038493	0.018802	0.042408	-0.072712	0.217734	-0.294078	
4.90723	0	0	0.038203	-0.018349	-0.006216	0.062581	-0.190183	0.295818	0.047266	0.085222	-0.095949	-0.020718	0.011891	-0.049988	-0.296258	-0.036931	-0.032914	0.117803	-0.093254	0.204498	0.126519	0.268245	0.010826	0.152623	-0.061301	0.149665	-0.138273	0.063921	-0.038493	0.018802	0.042408	-0.072712	0.209407	-0.288637	
4.9057	0	0	0.0425032	-0.0211588	-0.00717225	0.0652838	-0.188379	0.290721	0.0480355	0.0830478	-0.0930015	-0.0290475	0.0135085	-0.0545595	-0.293543	-0.0446032	-0.0271282	0.101452	-0.095633	0.200684	0.121653	0.25924	0.01191	0.14956	-0.0599498	0.145846	-0.143514	0.0590948	-0.0407845	0.0152882	0.0463853	-0.0839525	0.212475	-0.297308	
4.90723	0	0	0.0468035	-0.0239685	-0.0081285	0.0679865	-0.186576	0.285624	0.048805	0.0808735	-0.090054	-0.037377	0.015126	-0.059131	-0.290829	-0.0522755	-0.0213425	0.0851	-0.098012	0.19687	0.116788	0.250235	0.012994	0.146497	-0.0585985	0.142028	-0.148755	0.0542685	-0.043076	0.0117745	0.0503625	-0.095193	0.215543	-0.305978	
4.90417	0	0	0.0511038	-0.0267782	-0.00908475	0.0706892	-0.184773	0.280526	0.0495745	0.0786992	-0.0871065	-0.0457065	0.0167435	-0.0637025	-0.288114	-0.0599478	-0.0155568	0.0687485	-0.100391	0.193055	0.111922	0.241231	0.014078	0.143433	-0.0572472	0.138209	-0.153995	0.0494423	-0.0453675	0.00826075	0.0543397	-0.106434	0.218611	-0.314648	
4.90417	0	0	0.055404	-0.029588	-0.010041	0.073392	-0.182969	0.275429	0.050344	0.076525	-0.084159	-0.054036	0.018361	-0.068274	-0.285399	-0.06762	-0.009771	0.052397	-0.10277	0.189241	0.107057	0.232226	0.015162	0.14037	-0.055896	0.13439	-0.159236	0.044616	-0.047659	0.004747	0.058317	-0.117674	0.221679	-0.323319	
4.90723	0	0	0.055404	-0.029588	-0.0119542	0.0787995	-0.187255	0.276271	0.047433	0.0767557	-0.0851413	-0.0512603	0.0167435	-0.0637025	-0.291107	-0.0668378	-0.013627	0.0632945	-0.100391	0.193055	0.117916	0.247078	0.018721	0.145112	-0.0477298	0.140806	-0.160501	0.0481918	-0.0438298	0.003915	0.0543397	-0.106434	0.220145	-0.318985	
4.91333	0	0	0.055404	-0.029588	-0.0138675	0.084207	-0.191541	0.277113	0.044522	0.0769865	-0.0861235	-0.0484845	0.015126	-0.059131	-0.296814	-0.0660555	-0.017483	0.074192	-0.098012	0.19687	0.128774	0.26193	0.02228	0.149854	-0.0395635	0.147221	-0.161766	0.0517675	-0.0400005	0.003083	0.0503625	-0.095193	0.218612	-0.31465	
4.92401	0	0	0.055404	-0.029588	-0.0157808	0.0896145	-0.195827	0.277955	0.041611	0.0772173	-0.0871057	-0.0457087	0.0135085	-0.0545595	-0.302522	-0.0652733	-0.021339	0.0850895	-0.095633	0.200684	0.139632	0.276782	0.025839	0.154595	-0.0313973	0.153637	-0.163032	0.0553432	-0.0361713	0.002251	0.0463853	-0.0839525	0.217078	-0.310316	
4.9469	0	0	0.055404	-0.029588	-0.017694	0.095022	-0.200113	0.278797	0.0387	0.077448	-0.088088	-0.042933	0.011891	-0.049988	-0.30823	-0.064491	-0.025195	0.095987	-0.093254	0.204498	0.150491	0.291634	0.029398	0.159337	-0.023231	0.160052	-0.164297	0.058919	-0.032342	0.001419	0.042408	-0.072712	0.215544	-0.305982	
4.96063	0	0	0.055404	-0.029588	-0.0129825	0.0919435	-0.199212	0.27625	0.043149	0.0728702	-0.0894382	-0.0505822	0.0151252	-0.0591288	-0.305519	-0.0721535	-0.021339	0.0850895	-0.0939868	0.196031	0.155348	0.266514	0.0326505	0.150145	-0.0191738	0.148585	-0.164297	0.058919	-0.0361713	0.002251	0.0503575	-0.0951788	0.215544	-0.305982	
4.97894	0	0	0.055404	-0.029588	-0.008271	0.088865	-0.198311	0.273703	0.047598	0.0682925	-0.0907885	-0.0582315	0.0183595	-0.0682695	-0.302808	-0.079816	-0.017483	0.074192	-0.0947195	0.187565	0.160204	0.241393	0.035903	0.140952	-0.0151165	0.137119	-0.164297	0.058919	-0.0400005	0.003083	0.058307	-0.117646	0.215544	-0.305982	
4.9942	0	0	0.055404	-0.029588	-0.0035595	0.0857865	-0.197409	0.271157	0.052047	0.0637148	-0.0921388	-0.0658808	0.0215938	-0.0774102	-0.300096	-0.0874785	-0.013627	0.0632945	-0.0954523	0.179098	0.16506	0.216272	0.0391555	0.13176	-0.0110593	0.125652	-0.164297	0.058919	-0.0438298	0.003915	0.0662565	-0.140112	0.215544	-0.305982	
5.00793	0	0	0.055404	-0.029588	0.001152	0.082708	-0.196508	0.26861	0.056496	0.059137	-0.093489	-0.07353	0.024828	-0.086551	-0.297385	-0.095141	-0.009771	0.052397	-0.096185	0.170631	0.169917	0.191152	0.042408	0.122567	-0.007002	0.114185	-0.164297	0.058919	-0.047659	0.004747	0.074206	-0.162579	0.215544	-0.305982	
5.01404	0	0	0.0640108	-0.035212	0.0020355	0.0904527	-0.193123	0.270315	0.0607837	0.0630208	-0.088212	-0.0769782	0.0232112	-0.0819818	-0.297385	-0.095141	-0.00354575	0.052517	-0.091335	0.167462	0.175162	0.187725	0.0413242	0.12563	-0.007002	0.114185	-0.164297	0.058919	-0.0484275	0.00691925	0.0341392	-0.127768	0.222337	-0.307087	
5.01861	0	0	0.0726175	-0.040836	0.002919	0.0981975	-0.189738	0.272019	0.0650715	0.0669045	-0.082935	-0.0804265	0.0215945	-0.0774125	-0.297385	-0.095141	0.0026795	0.052637	-0.086485	0.164293	0.180406	0.184298	0.0402405	0.128693	-0.007002	0.114185	-0.164297	0.058919	-0.049196	0.0090915	-0.0059275	-0.0929565	0.229129	-0.308191	
5.02014	0	0	0.0812242	-0.04646	0.0038025	0.105942	-0.186354	0.273724	0.0693592	0.0707882	-0.077658	-0.0838747	0.0199777	-0.0728432	-0.297385	-0.095141	0.00890475	0.052757	-0.081635	0.161123	0.18565	0.180871	0.0391568	0.131756	-0.007002	0.114185	-0.164297	0.058919	-0.0499645	0.0112637	-0.0459943	-0.0581452	0.235922	-0.309296	
5.02472	0	0	0.089831	-0.052084	0.004686	0.113687	-0.182969	0.275429	0.073647	0.074672	-0.072381	-0.087323	0.018361	-0.068274	-0.297385	-0.095141	0.01513	0.052877	-0.076785	0.157954	0.190895	0.177444	0.038073	0.134819	-0.007002	0.114185	-0.164297	0.058919	-0.050733	0.013436	-0.086061	-0.023334	0.242714	-0.310401	
5.02319	0	0	0.089831	-0.052084	0.00564425	0.110979	-0.179365	0.265243	0.0715028	0.0727295	-0.0756965	-0.0894183	0.018361	-0.068274	-0.294676	-0.102797	-0.0011675	0.0635263	-0.0800785	0.167262	0.186042	0.202562	0.040551	0.142628	-0.004264	0.121211	-0.160325	0.067331	-0.040778	0.0152867	-0.0579262	-0.0244238	0.236569	-0.293035	
5.01709	0	0	0.089831	-0.052084	0.0066025	0.108272	-0.17576	0.255057	0.0693585	0.070787	-0.079012	-0.0915135	0.018361	-0.068274	-0.291967	-0.110453	-0.017465	0.0741755	-0.083372	0.176569	0.181189	0.227681	0.043029	0.150437	-0.001526	0.128238	-0.156353	0.075743	-0.030823	0.0171375	-0.0297915	-0.0255135	0.230425	-0.275668	
5.01099	0	0	0.089831	-0.052084	0.00756075	0.105565	-0.172156	0.244871	0.0672143	0.0688445	-0.0823275	-0.0936087	0.018361	-0.068274	-0.289258	-0.118109	-0.0337625	0.0848248	-0.0866655	0.185877	0.176335	0.252799	0.045507	0.158245	0.001212	0.135265	-0.152382	0.084155	-0.020868	0.0189882	-0.00165675	-0.0266032	0.22428	-0.258302	
5.00336	0	0	0.089831	-0.052084	0.008519	0.102857	-0.168552	0.234685	0.06507	0.066902	-0.085643	-0.095704	0.018361	-0.068274	-0.286549	-0.125765	-0.05006	0.095474	-0.089959	0.195184	0.171482	0.277917	0.047985	0.166054	0.00395	0.142291	-0.14841	0.092567	-0.010913	0.020839	0.026478	-0.027693	0.218135	-0.240936	
4.99878	5	0	0.0948988	-0.0570487	0.0094765	0.10015	-0.168552	0.234685	0.065839	0.0647285	-0.0889565	-0.0977983	0.0199777	-0.0728432	-0.292254	-0.124978	-0.0419153	0.090152	-0.0883117	0.190529	0.170728	0.268647	0.0490702	0.162987	0.0066555	0.134645	-0.145876	0.0854055	-0.0147463	0.0216718	0.026478	-0.027693	0.218135	-0.240936	
4.98962	5	0	0.0999665	-0.0620135	0.010434	0.0974435	-0.168552	0.234685	0.066608	0.062555	-0.09227	-0.0998925	0.0215945	-0.0774125	-0.297959	-0.124191	-0.0337705	0.08483	-0.0866645	0.185874	0.169973	0.259378	0.0501555	0.159919	0.009361	0.126999	-0.143342	0.078244	-0.0185795	0.0225045	0.026478	-0.027693	0.218135	-0.240936	
4.97742	5	0	0.105034	-0.0669782	0.0113915	0.0947368	-0.168552	0.234685	0.067377	0.0603815	-0.0955835	-0.101987	0.0232112	-0.0819818	-0.303664	-0.123405	-0.0256258	0.079508	-0.0850173	0.18122	0.169218	0.250108	0.0512408	0.156852	0.0120665	0.119352	-0.140807	0.0710825	-0.0224127	0.0233373	0.026478	-0.027693	0.218135	-0.240936	
4.96979	5	0	0.110102	-0.071943	0.012349	0.09203	-0.168552	0.234685	0.068146	0.058208	-0.098897	-0.104081	0.024828	-0.086551	-0.309369	-0.122618	-0.017481	0.074186	-0.08337	0.176565	0.168464	0.240838	0.052326	0.153785	0.014772	0.111706	-0.138273	0.063921	-0.026246	0.02417	0.026478	-0.027693	0.218135	-0.240936	
4.96063	5	0	0.109341	-0.0697923	0.01515	0.0943623	-0.170353	0.239777	0.0702907	0.0601493	-0.0946032	-0.104757	0.0291365	-0.082339	-0.310723	-0.118792	-0.00695725	0.079888	-0.0793408	0.175721	0.176717	0.240325	0.0512408	0.156852	0.0134198	0.115528	-0.13954	0.067501	-0.0224127	0.0233373	-0.00165675	-0.0266032	0.223393	-0.237687	
4.94995	5	0	0.10858	-0.0676415	0.017951	0.0966945	-0.172155	0.244868	0.0724355	0.0620905	-0.0903095	-0.105434	0.033445	-0.078127	-0.312076	-0.114967	0.0035665	0.08559	-0.0753115	0.174878	0.18497	0.239812	0.0501555	0.159919	0.0120675	0.11935	-0.140807	0.071081	-0.0185795	0.0225045	-0.0297915	-0.0255135	0.228651	-0.234437	
4.94079	5	0	0.107819	-0.0654907	0.020752	0.0990267	-0.173957	0.24996	0.0745803	0.0640317	-0.0860158	-0.10611	0.0377535	-0.073915	-0.313429	-0.111142	0.0140903	0.091292	-0.0712822	0.174034	0.193224	0.239298	0.0490702	0.162987	0.0107152	0.123173	-0.142073	0.074661	-0.0147463	0.0216718	-0.0579262	-0.0244238	0.233909	-0.231187	
4.93469	5	0	0.107058	-0.06334	0.023553	0.101359	-0.175758	0.255051	0.076725	0.065973	-0.081722	-0.106786	0.042062	-0.069703	-0.314783	-0.107316	0.024614	0.096994	-0.067253	0.17319	0.201477	0.238785	0.047985	0.166054	0.009363	0.126995	-0.14334	0.078241	-0.010913	0.020839	-0.086061	-0.023334	0.239167	-0.227938	
4.93164	5	0	0.107058	-0.06334	0.0273833	0.090534	-0.178243	0.250805	0.0782635	0.061625	-0.0830775	-0.114413	0.0452965	-0.0788438	-0.310724	-0.118787	0.022243	0.0859647	-0.0703742	0.16093	0.201421	0.204736	0.0544915	0.147666	0.00932375	0.112341	-0.149845	0.0769878	-0.0147463	0.0216718	-0.086061	-0.023334	0.233909	-0.231187	
4.92248	5	0	0.107058	-0.06334	0.0312135	0.079709	-0.180729	0.246558	0.079802	0.057277	-0.084433	-0.12204	0.048531	-0.0879845	-0.306665	-0.130259	0.019872	0.0749355	-0.0734955	0.148669	0.201365	0.170687	0.060998	0.129277	0.0092845	0.0976865	-0.15635	0.0757345	-0.0185795	0.0225045	-0.086061	-0.023334	0.228651	-0.234437	
4.91791	5	0	0.107058	-0.06334	0.0350437	0.068884	-0.183215	0.242312	0.0813405	0.052929	-0.0857885	-0.129668	0.0517655	-0.0971252	-0.302606	-0.141731	0.017501	0.0639062	-0.0766167	0.136408	0.201309	0.136638	0.0675045	0.110889	0.00924525	0.0830323	-0.162855	0.0744812	-0.0224127	0.0233373	-0.086061	-0.023334	0.223393	-0.237687	
4.90875	5	0	0.107058	-0.06334	0.038874	0.058059	-0.1857	0.238065	0.082879	0.048581	-0.087144	-0.137295	0.055	-0.106266	-0.298547	-0.153202	0.01513	0.052877	-0.079738	0.124148	0.201253	0.102589	0.074011	0.092501	0.009206	0.068378	-0.16936	0.073228	-0.026246	0.02417	-0.086061	-0.023334	0.218135	-0.240936	
4.90417	5	0	0.107058	-0.06334	0.0360707	0.0557332	-0.180513	0.234675	0.0836477	0.046408	-0.0904573	-0.139383	0.0566157	-0.110833	-0.304248	-0.152414	0.00890475	0.052757	-0.0812995	0.118029	0.197473	0.0905027	0.070442	0.0877755	0.006463	0.0613775	-0.166829	0.066075	-0.0247075	0.019822	-0.042027	-0.0693575	0.218135	-0.240936	
4.90265	5	0	0.107058	-0.06334	0.0332675	0.0534075	-0.175325	0.231286	0.0844165	0.044235	-0.0937705	-0.14147	0.0582315	-0.1154	-0.309949	-0.151626	0.0026795	0.052637	-0.082861	0.111911	0.193693	0.0784165	0.066873	0.08305	0.00372	0.054377	-0.164298	0.058922	-0.023169	0.015474	0.002007	-0.115381	0.218135	-0.240936	
4.90875	5	0	0.107058	-0.06334	0.0304643	0.0510818	-0.170137	0.227896	0.0851853	0.042062	-0.0970837	-0.143558	0.0598472	-0.119967	-0.315649	-0.150839	-0.00354575	0.052517	-0.0844225	0.105792	0.189913	0.0663303	0.063304	0.0783245	0.000977	0.0473765	-0.161767	0.051769	-0.0216305	0.011126	0.046041	-0.161405	0.218135	-0.240936	
4.93774	5	0	0.107058	-0.06334	0.027661	0.048756	-0.16495	0.224506	0.085954	0.039889	-0.100397	-0.145646	0.061463	-0.124534	-0.32135	-0.150051	-0.009771	0.052397	-0.085984	0.099674	0.186133	0.054244	0.059735	0.073599	-0.001766	0.040376	-0.159236	0.044616	-0.020092	0.006778	0.090075	-0.207428	0.218135	-0.240936	
4.98199	5	0	0.0984467	-0.0577132	0.031543	0.0275428	-0.169026	0.213491	0.0824315	0.0338432	-0.101753	-0.153257	0.0587632	-0.133292	-0.324345	-0.156898	-0.0082965	0.030533	-0.0883668	0.0958815	0.177896	0.0547808	0.0618988	0.0674842	-0.0058555	0.0371925	-0.159236	0.044616	-0.0239233	0.00761075	0.046041	-0.161405	0.212882	-0.244182	
5.05371	5	0	0.0898355	-0.0520865	0.035425	0.0063295	-0.173102	0.202476	0.078909	0.0277975	-0.10311	-0.160868	0.0560635	-0.14205	-0.32734	-0.163746	-0.006822	0.008669	-0.0907495	0.092089	0.169659	0.0553175	0.0640625	0.0613695	-0.009945	0.034009	-0.159236	0.044616	-0.0277545	0.0084435	0.002007	-0.115381	0.207629	-0.247429	
5.14068	5	0	0.0812242	-0.0464598	0.039307	-0.0148837	-0.177179	0.19146	0.0753865	0.0217518	-0.104467	-0.168479	0.0533638	-0.150808	-0.330334	-0.170593	-0.0053475	-0.013195	-0.0931322	0.0882965	0.161422	0.0558542	0.0662263	0.0552548	-0.0140345	0.0308255	-0.159236	0.044616	-0.0315857	0.00927625	-0.042027	-0.0693575	0.202376	-0.250675	
5.2536	5	0	0.072613	-0.040833	0.043189	-0.036097	-0.181255	0.180445	0.071864	0.015706	-0.105823	-0.17609	0.050664	-0.159566	-0.333329	-0.177441	-0.003873	-0.035059	-0.095515	0.084504	0.153185	0.056391	0.06839	0.04914	-0.018124	0.027642	-0.159236	0.044616	-0.035417	0.010109	-0.086061	-0.023334	0.197123	-0.253922	
5.36957	5	0	0.0647715	-0.0373628	0.0385342	-0.0434095	-0.177663	0.170294	0.0704868	0.0116023	-0.107181	-0.18369	0.0479632	-0.168307	-0.33063	-0.185067	-0.0143817	-0.040702	-0.0962578	0.0760832	0.151635	0.0380565	0.065901	0.0413738	-0.0195203	0.0168577	-0.155443	0.0338973	-0.037709	0.006597	-0.0781215	-0.0457725	0.200194	-0.262601	
5.49011	5	0	0.05693	-0.0338925	0.0338795	-0.050722	-0.174071	0.160142	0.0691095	0.0074985	-0.108539	-0.191289	0.0452625	-0.177049	-0.327932	-0.192694	-0.0248905	-0.046345	-0.0970005	0.0676625	0.150085	0.019722	0.063412	0.0336075	-0.0209165	0.0060735	-0.15165	0.0231785	-0.040001	0.003085	-0.070182	-0.068211	0.203265	-0.27128	
5.5954	5	0	0.0490885	-0.0304223	0.0292248	-0.0580345	-0.17048	0.149991	0.0677322	0.00339475	-0.109897	-0.198888	0.0425618	-0.185791	-0.325234	-0.20032	-0.0353993	-0.051988	-0.0977433	0.0592417	0.148536	0.0013875	0.060923	0.0258413	-0.0223127	-0.00471075	-0.147858	0.0124597	-0.042293	-0.000427	-0.0622425	-0.0906495	0.206336	-0.279958	
5.67932	5	0	0.041247	-0.026952	0.02457	-0.065347	-0.166888	0.13984	0.066355	-0.000709	-0.111255	-0.206488	0.039861	-0.194532	-0.322535	-0.207947	-0.045908	-0.057631	-0.098486	0.050821	0.146986	-0.016947	0.058434	0.018075	-0.023709	-0.015495	-0.144065	0.001741	-0.044585	-0.003939	-0.054303	-0.113088	0.209407	-0.288637	
5.75409	5	0	0.036949	-0.0241435	0.020816	-0.064963	-0.171172	0.140689	0.063444	-0.000474	-0.107943	-0.20441	0.0441742	-0.190348	-0.328228	-0.207157	-0.0353993	-0.051988	-0.098486	0.050821	0.151878	-0.00805775	0.058434	0.018075	-0.0250537	-0.011694	-0.141539	-0.00539775	-0.0438168	-0.00611	-0.0902463	-0.089602	0.201088	-0.283201	
5.8136	5	0	0.032651	-0.021335	0.017062	-0.064579	-0.175456	0.141539	0.060533	-0.000239	-0.104632	-0.202331	0.0484875	-0.186164	-0.33392	-0.206367	-0.0248905	-0.046345	-0.098486	0.050821	0.15677	0.0008315	0.058434	0.018075	-0.0263985	-0.007893	-0.139013	-0.0125365	-0.0430485	-0.008281	-0.12619	-0.066116	0.19277	-0.277766	
5.8548	5	0	0.028353	-0.0185265	0.013308	-0.064195	-0.17974	0.142389	0.057622	-4E-06	-0.10132	-0.200253	0.0528008	-0.18198	-0.339612	-0.205577	-0.0143817	-0.040702	-0.098486	0.050821	0.161661	0.00972075	0.058434	0.018075	-0.0277433	-0.004092	-0.136487	-0.0196753	-0.0422802	-0.010452	-0.162133	-0.04263	0.184451	-0.27233	
5.87311	5	0	0.024055	-0.015718	0.009554	-0.063811	-0.184024	0.143238	0.054711	0.000231	-0.098008	-0.198175	0.057114	-0.177796	-0.345305	-0.204787	-0.003873	-0.035059	-0.098486	0.050821	0.166553	0.01861	0.058434	0.018075	-0.029088	-0.000291	-0.133961	-0.026814	-0.041512	-0.012623	-0.198076	-0.019144	0.176132	-0.266895	
5.88684	5	0	0.023294	-0.0135672	0.0114575	-0.0691908	-0.187408	0.141552	0.055478	-0.00193675	-0.100344	-0.203011	0.0528008	-0.18198	-0.34261	-0.212404	-0.0043355	-0.0514312	-0.0975952	0.0377895	0.164994	0.000302	0.057023	0.00727475	-0.031829	-0.007263	-0.142989	-0.0209148	-0.0399762	-0.0169635	-0.154213	-0.0650125	0.169356	-0.265801	
5.88531	5	0	0.022533	-0.0114165	0.013361	-0.0745705	-0.190792	0.139866	0.056245	-0.0041045	-0.10268	-0.207846	0.0484875	-0.186164	-0.339915	-0.220021	-0.004798	-0.0678035	-0.0967045	0.024758	0.163435	-0.018006	0.055612	-0.0035255	-0.03457	-0.014235	-0.152018	-0.0150155	-0.0384405	-0.021304	-0.11035	-0.110881	0.162579	-0.264706	
5.86243	5	0	0.021772	-0.00926575	0.0152645	-0.0799503	-0.194177	0.138179	0.057012	-0.00627225	-0.105016	-0.212682	0.0441742	-0.190348	-0.33722	-0.227637	-0.0052605	-0.0841757	-0.0958138	0.0117265	0.161876	-0.036314	0.054201	-0.0143258	-0.037311	-0.021207	-0.161047	-0.00911625	-0.0369048	-0.0256445	-0.066487	-0.156749	0.155803	-0.263612	
5.83649	5	0	0.021011	-0.007115	0.017168	-0.08533	-0.197561	0.136493	0.057779	-0.00844	-0.107352	-0.217518	0.039861	-0.194532	-0.334525	-0.235254	-0.005723	-0.100548	-0.094923	-0.001305	0.160317	-0.054622	0.05279	-0.025126	-0.040052	-0.028179	-0.170075	-0.003217	-0.035369	-0.029985	-0.022624	-0.202618	0.149027	-0.262518	
5.80292	5	0	0.02607	-0.0120742	0.0199707	-0.0830255	-0.193279	0.135644	0.059923	-0.00650725	-0.102088	-0.220958	0.047397	-0.199456	-0.333178	-0.23906	-0.00764	-0.0951308	-0.0932878	-0.00592625	0.165542	-0.0580365	0.0606742	-0.0326197	-0.0319347	-0.0364015	-0.168813	-0.00678425	-0.0391968	-0.0291518	-0.022624	-0.202618	0.149027	-0.262518	
5.7663	5	0	0.031129	-0.0170335	0.0227735	-0.080721	-0.188998	0.134795	0.062067	-0.0045745	-0.096824	-0.224397	0.054933	-0.204381	-0.331832	-0.242866	-0.009557	-0.0897135	-0.0916525	-0.0105475	0.170768	-0.061451	0.0685585	-0.0401135	-0.0238175	-0.044624	-0.16755	-0.0103515	-0.0430245	-0.0283185	-0.022624	-0.202618	0.149027	-0.262518	
5.72967	5	0	0.036188	-0.0219927	0.0255763	-0.0784165	-0.184717	0.133946	0.064211	-0.00264175	-0.09156	-0.227837	0.062469	-0.209305	-0.330485	-0.246671	-0.011474	-0.0842963	-0.0900172	-0.0151687	0.175993	-0.0648655	0.0764428	-0.0476072	-0.0157002	-0.0528465	-0.166288	-0.0139188	-0.0468522	-0.0274852	-0.022624	-0.202618	0.149027	-0.262518	
5.68542	5	0	0.041247	-0.026952	0.028379	-0.076112	-0.180435	0.133097	0.066355	-0.000709	-0.086296	-0.231277	0.070005	-0.214229	-0.329138	-0.250477	-0.013391	-0.078879	-0.088382	-0.01979	0.181219	-0.06828	0.084327	-0.055101	-0.007583	-0.061069	-0.165026	-0.017486	-0.05068	-0.026652	-0.022624	-0.202618	0.149027	-0.262518	
5.64575	5	0	0.036949	-0.0241435	0.0246248	-0.075727	-0.181132	0.123815	0.064211	-0.00264175	-0.09156	-0.227837	0.070005	-0.214229	-0.334827	-0.249684	-0.013391	-0.078879	-0.0924715	-0.00823225	0.180557	-0.0436805	0.080013	-0.042909	-0.0075255	-0.0465015	-0.158523	-0.0162495	-0.04762	-0.0253152	-0.0265813	-0.191434	0.154268	-0.259274	
5.60913	5	0	0.032651	-0.021335	0.0208705	-0.075342	-0.181828	0.114532	0.062067	-0.0045745	-0.096824	-0.224397	0.070005	-0.214229	-0.340516	-0.248891	-0.013391	-0.078879	-0.096561	0.0033255	0.179895	-0.019081	0.075699	-0.030717	-0.007468	-0.031934	-0.152019	-0.015013	-0.04456	-0.0239785	-0.0305385	-0.18025	0.159509	-0.25603	
5.57403	5	0	0.028353	-0.0185265	0.0171162	-0.074957	-0.182525	0.10525	0.059923	-0.00650725	-0.102088	-0.220958	0.070005	-0.214229	-0.346206	-0.248099	-0.013391	-0.078879	-0.100651	0.0148832	0.179232	0.0055185	0.071385	-0.018525	-0.0074105	-0.0173665	-0.145515	-0.0137765	-0.0415	-0.0226418	-0.0344957	-0.169065	0.164751	-0.252785	
5.54352	5	0	0.024055	-0.015718	0.013362	-0.074572	-0.183221	0.095968	0.057779	-0.00844	-0.107352	-0.217518	0.070005	-0.214229	-0.351895	-0.247306	-0.013391	-0.078879	-0.10474	0.026441	0.17857	0.030118	0.067071	-0.006333	-0.007353	-0.002799	-0.139012	-0.01254	-0.03844	-0.021305	-0.038453	-0.157881	0.169992	-0.249541	
5.513	5	0	0.028353	-0.0185265	0.0199203	-0.0726505	-0.182326	0.093437	0.0651375	-0.0132482	-0.107352	-0.217518	0.0716152	-0.21878	-0.350549	-0.251109	-0.011474	-0.0842963	-0.0982645	0.0186542	0.179684	0.0269698	0.0749618	-0.0138335	-0.007353	-0.002799	-0.144254	-0.0173423	-0.0415	-0.0226418	-0.038453	-0.157881	0.171527	-0.25388	
5.49011	5	0	0.032651	-0.021335	0.0264785	-0.070729	-0.18143	0.090906	0.072496	-0.0180565	-0.107352	-0.217518	0.0732255	-0.22333	-0.349204	-0.254912	-0.009557	-0.0897135	-0.091789	0.0108675	0.180798	0.0238215	0.0828525	-0.021334	-0.007353	-0.002799	-0.149496	-0.0221445	-0.04456	-0.0239785	-0.038453	-0.157881	0.173062	-0.258218	
5.46112	5	0	0.036949	-0.0241435	0.0330367	-0.0688075	-0.180534	0.088375	0.0798545	-0.0228647	-0.107352	-0.217518	0.0748358	-0.227881	-0.347858	-0.258714	-0.00764	-0.0951308	-0.0853135	0.00308075	0.181912	0.0206732	0.0907432	-0.0288345	-0.007353	-0.002799	-0.154737	-0.0269467	-0.04762	-0.0253152	-0.038453	-0.157881	0.174597	-0.262556	
5.43976	5	0	0.041247	-0.026952	0.039595	-0.066886	-0.179639	0.085844	0.087213	-0.027673	-0.107352	-0.217518	0.076446	-0.232432	-0.346512	-0.262517	-0.005723	-0.100548	-0.078838	-0.004706	0.183026	0.017525	0.098634	-0.036335	-0.007353	-0.002799	-0.159979	-0.031749	-0.05068	-0.026652	-0.038453	-0.157881	0.176132	-0.266895	
5.41382	5	0	0.0447862	-0.027611	0.0385853	-0.0537958	-0.178045	0.0925887	0.0870573	-0.0192338	-0.10404	-0.215442	0.0807677	-0.228257	-0.339477	-0.267114	-0.00334	-0.089603	-0.0804745	-8.125E-05	0.194282	0.019857	0.103292	-0.0346892	-0.00326125	0.000378	-0.161241	-0.0281832	-0.0468522	-0.0274852	-0.0023585	-0.181466	0.169356	-0.265801	
5.39703	5	0	0.0483255	-0.02827	0.0375755	-0.0407055	-0.176451	0.0993335	0.0869015	-0.0107945	-0.100727	-0.213365	0.0850895	-0.224082	-0.332442	-0.271711	-0.000957	-0.078658	-0.082111	0.0045435	0.205539	0.022189	0.107951	-0.0330435	0.0008305	0.003555	-0.162502	-0.0246175	-0.0430245	-0.0283185	0.033736	-0.205051	0.162579	-0.264706	
5.37414	5	0	0.0518648	-0.028929	0.0365657	-0.0276152	-0.174856	0.106078	0.0867457	-0.00235525	-0.0974153	-0.211288	0.0894112	-0.219907	-0.325406	-0.276308	0.001426	-0.067713	-0.0837475	0.00916825	0.216796	0.024521	0.11261	-0.0313978	0.00492225	0.006732	-0.163764	-0.0210518	-0.0391968	-0.0291518	0.0698305	-0.228636	0.155803	-0.263612	
5.35583	5	0	0.055404	-0.029588	0.035556	-0.014525	-0.173262	0.112823	0.08659	0.006084	-0.094103	-0.209212	0.093733	-0.215732	-0.318371	-0.280905	0.003809	-0.056768	-0.085384	0.013793	0.228052	0.026853	0.117268	-0.029752	0.009014	0.009909	-0.165026	-0.017486	-0.035369	-0.029985	0.105925	-0.252221	0.149027	-0.262518	
5.3421	0	0	0.055404	-0.029588	0.0336467	-0.009129	-0.176648	0.111141	0.0844437	0.00415	-0.0921513	-0.214728	0.087801	-0.215356	-0.324062	-0.280109	0.001426	-0.067713	-0.0861335	0.00539725	0.223472	0.0056535	0.114766	-0.0374937	0.00626775	0.00292925	-0.162503	-0.0246162	-0.0437895	-0.0261508	0.0737878	-0.23982	0.15056	-0.266852	
5.32532	0	0	0.055404	-0.029588	0.0317375	-0.003733	-0.180034	0.109459	0.0822975	0.002216	-0.0901995	-0.220245	0.081869	-0.214981	-0.329752	-0.279313	-0.000957	-0.078658	-0.086883	-0.0029985	0.218892	-0.015546	0.112265	-0.0452355	0.0035215	-0.0040505	-0.15998	-0.0317465	-0.05221	-0.0223165	0.0416505	-0.227419	0.152094	-0.271186	
5.30548	0	0	0.055404	-0.029588	0.0298283	0.001663	-0.183419	0.107777	0.0801513	0.000282	-0.0882477	-0.225761	0.075937	-0.214605	-0.335443	-0.278517	-0.00334	-0.089603	-0.0876325	-0.0113943	0.214311	-0.0367455	0.109763	-0.0529773	0.00077525	-0.0110303	-0.157457	-0.0388768	-0.0606305	-0.0184822	0.00951325	-0.215019	0.153628	-0.275521	
5.29327	0	0	0.055404	-0.029588	0.027919	0.007059	-0.186805	0.106095	0.078005	-0.001652	-0.086296	-0.231277	0.070005	-0.214229	-0.341133	-0.277721	-0.005723	-0.100548	-0.088382	-0.01979	0.209731	-0.057945	0.107262	-0.060719	-0.001971	-0.01801	-0.154934	-0.046007	-0.069051	-0.014648	-0.022624	-0.202618	0.155161	-0.279855	
5.27801	0	0	0.0640108	-0.035212	0.0344835	0.00899725	-0.183419	0.107777	0.0801513	0.000282	-0.0853205	-0.234034	0.070005	-0.214229	-0.341133	-0.277721	0.002414	-0.105865	-0.088382	-0.01979	0.207832	-0.0639453	0.106184	-0.0576715	-0.000626	-0.021811	-0.153673	-0.04957	-0.0682835	-0.016817	-0.014724	-0.224944	0.149923	-0.283092	
5.26276	0	0	0.0726175	-0.040836	0.041048	0.0109355	-0.180034	0.109459	0.0822975	0.002216	-0.084345	-0.236791	0.070005	-0.214229	-0.341133	-0.277721	0.010551	-0.111182	-0.088382	-0.01979	0.205933	-0.0699455	0.105105	-0.054624	0.000719	-0.025612	-0.152413	-0.053133	-0.067516	-0.018986	-0.006824	-0.247271	0.144686	-0.286329	
5.24902	0	0	0.0812242	-0.04646	0.0476125	0.0128737	-0.176648	0.111141	0.0844437	0.00415	-0.0833695	-0.239547	0.070005	-0.214229	-0.341133	-0.277721	0.018688	-0.116499	-0.088382	-0.01979	0.204033	-0.0759458	0.104027	-0.0515765	0.002064	-0.029413	-0.151152	-0.056696	-0.0667485	-0.021155	0.001076	-0.269598	0.139449	-0.289566	
5.23834	0	0	0.089831	-0.052084	0.054177	0.014812	-0.173262	0.112823	0.08659	0.006084	-0.082394	-0.242304	0.070005	-0.214229	-0.341133	-0.277721	0.026825	-0.121816	-0.088382	-0.01979	0.202134	-0.081946	0.102949	-0.048529	0.003409	-0.033214	-0.149891	-0.060259	-0.065981	-0.023324	0.008976	-0.291924	0.134211	-0.292803	
5.22461	0	0	0.0855265	-0.0492713	0.0513715	0.0124928	-0.173961	0.103548	0.0852113	0.001981	-0.0899942	-0.243692	0.067297	-0.222949	-0.338445	-0.285318	0.0163023	-0.12742	-0.0891995	-0.0174795	0.195795	-0.075391	0.10187	-0.0454805	-0.00471525	-0.0249832	-0.153675	-0.0495657	-0.0667485	-0.021155	0.001076	-0.269597	0.132679	-0.288473	
5.21698	0	0	0.081222	-0.0464585	0.048566	0.0101735	-0.17466	0.094273	0.0838325	-0.002122	-0.0975945	-0.24508	0.064589	-0.23167	-0.335757	-0.292915	0.0057795	-0.133023	-0.090017	-0.015169	0.189455	-0.068836	0.100792	-0.042432	-0.0128395	-0.0167525	-0.157459	-0.0388725	-0.067516	-0.018986	-0.006824	-0.247271	0.131146	-0.284143	
5.2063	0	0	0.0769175	-0.0436457	0.0457605	0.00785425	-0.175359	0.084998	0.0824537	-0.006225	-0.105195	-0.246468	0.061881	-0.240391	-0.333068	-0.300513	-0.00474325	-0.138627	-0.0908345	-0.0128585	0.183116	-0.062281	0.0997128	-0.0393835	-0.0209637	-0.00852175	-0.161242	-0.0281793	-0.0682835	-0.016817	-0.014724	-0.224944	0.129614	-0.279813	
5.19409	0	0	0.072613	-0.040833	0.042955	0.005535	-0.176058	0.075723	0.081075	-0.010328	-0.112795	-0.247856	0.059173	-0.249111	-0.33038	-0.30811	-0.015266	-0.144231	-0.091652	-0.010548	0.176777	-0.055726	0.098634	-0.036335	-0.029088	-0.000291	-0.165026	-0.017486	-0.069051	-0.014648	-0.022624	-0.202618	0.128082	-0.275483	
5.18646	0	0	0.0776785	-0.0457965	0.0486265	-0.00024625	-0.17088	0.0723395	0.0818422	-0.0124963	-0.111821	-0.250609	0.053251	-0.248735	-0.329037	-0.311906	-0.0114427	-0.155036	-0.0948535	-0.012008	0.172986	-0.0677135	0.10653	-0.043838	-0.0277433	-0.004092	-0.163764	-0.0210518	-0.0736413	-0.0116487	-0.022624	-0.202618	0.122851	-0.278721	
5.18036	0	0	0.082744	-0.05076	0.054298	-0.0060275	-0.165702	0.068956	0.0826095	-0.0146645	-0.110847	-0.253363	0.047329	-0.248358	-0.327693	-0.315702	-0.0076195	-0.165842	-0.098055	-0.013468	0.169196	-0.079701	0.114425	-0.051341	-0.0263985	-0.007893	-0.162502	-0.0246175	-0.0782315	-0.0086495	-0.022624	-0.202618	0.11762	-0.281959	
5.17273	0	0	0.0878095	-0.0557235	0.0599695	-0.0118087	-0.160523	0.0655725	0.0833767	-0.0168328	-0.109872	-0.256116	0.041407	-0.247982	-0.32635	-0.319499	-0.00379625	-0.176647	-0.101256	-0.014928	0.165406	-0.0916885	0.122321	-0.058844	-0.0250537	-0.011694	-0.161241	-0.0281832	-0.0828217	-0.00565025	-0.022624	-0.202618	0.112389	-0.285197	
5.17578	0	0	0.092875	-0.060687	0.065641	-0.01759	-0.155345	0.062189	0.084144	-0.019001	-0.108898	-0.25887	0.035485	-0.247606	-0.325007	-0.323295	2.7E-05	-0.187452	-0.104458	-0.016388	0.161615	-0.103676	0.130217	-0.066347	-0.023709	-0.015495	-0.159979	-0.031749	-0.087412	-0.002651	-0.022624	-0.202618	0.107158	-0.288435	
5.18494	5	0	0.0885705	-0.0578743	0.0609245	-0.014508	-0.160523	0.0655725	0.0812313	-0.0187642	-0.108898	-0.25887	0.0322687	-0.238516	-0.325007	-0.323295	0.00433325	-0.181958	-0.101256	-0.014928	0.165406	-0.0916885	0.12698	-0.0571983	-0.0250537	-0.011694	-0.159979	-0.031749	-0.0835893	-0.00348075	-0.022624	-0.202618	0.107158	-0.288435	
5.20172	5	0	0.084266	-0.0550615	0.056208	-0.011426	-0.165702	0.068956	0.0783185	-0.0185275	-0.108898	-0.25887	0.0290525	-0.229426	-0.325007	-0.323295	0.0086395	-0.176465	-0.098055	-0.013468	0.169196	-0.079701	0.123743	-0.0480495	-0.0263985	-0.007893	-0.159979	-0.031749	-0.0797665	-0.0043105	-0.022624	-0.202618	0.107158	-0.288435	
5.22003	5	0	0.0799615	-0.0522487	0.0514915	-0.008344	-0.17088	0.0723395	0.0754057	-0.0182908	-0.108898	-0.25887	0.0258363	-0.220337	-0.325007	-0.323295	0.0129457	-0.170971	-0.0948535	-0.012008	0.172986	-0.0677135	0.120505	-0.0389007	-0.0277433	-0.004092	-0.159979	-0.031749	-0.0759438	-0.00514025	-0.022624	-0.202618	0.107158	-0.288435	
5.23987	5	0	0.075657	-0.049436	0.046775	-0.005262	-0.176058	0.075723	0.072493	-0.018054	-0.108898	-0.25887	0.02262	-0.211247	-0.325007	-0.323295	0.017252	-0.165478	-0.091652	-0.010548	0.176777	-0.055726	0.117268	-0.029752	-0.029088	-0.000291	-0.159979	-0.031749	-0.072121	-0.00597	-0.022624	-0.202618	0.107158	-0.288435	
5.25818	5	0	0.074896	-0.0472853	0.0496385	-0.013355	-0.175163	0.0731935	0.0695815	-0.017818	-0.112208	-0.260939	0.0317583	-0.220713	-0.323664	-0.32709	0.0110347	-0.16557	-0.092403	-0.0189335	0.177417	-0.0802345	0.114766	-0.0374937	-0.0237118	-0.0154855	-0.154937	-0.045998	-0.074409	-0.0094775	-0.014724	-0.224944	0.110218	-0.297084	
5.26733	5	0	0.074135	-0.0451345	0.052502	-0.021448	-0.174268	0.070664	0.06667	-0.017582	-0.115518	-0.263008	0.0408965	-0.230179	-0.322321	-0.330885	0.0048175	-0.165663	-0.093154	-0.027319	0.178057	-0.104743	0.112265	-0.0452355	-0.0183355	-0.03068	-0.149895	-0.060247	-0.076697	-0.012985	-0.006824	-0.247271	0.113279	-0.305734	
5.27801	5	0	0.073374	-0.0429838	0.0553655	-0.029541	-0.173373	0.0681345	0.0637585	-0.017346	-0.118828	-0.265076	0.0500348	-0.239645	-0.320979	-0.334679	-0.00139975	-0.165756	-0.093905	-0.0357045	0.178696	-0.129252	0.109763	-0.0529773	-0.0129592	-0.0458745	-0.144853	-0.074496	-0.078985	-0.0164925	0.001076	-0.269598	0.11634	-0.314384	
5.29022	5	0	0.072613	-0.040833	0.058229	-0.037634	-0.172478	0.065605	0.060847	-0.01711	-0.122138	-0.267145	0.059173	-0.249111	-0.319636	-0.338474	-0.007617	-0.165848	-0.094656	-0.04409	0.179336	-0.15376	0.107262	-0.060719	-0.007583	-0.061069	-0.139811	-0.088745	-0.081273	-0.02	0.008976	-0.291924	0.1194	-0.323033	
5.29175	5	0	0.072613	-0.040833	0.053515	-0.0345538	-0.175164	0.0731958	0.0637585	-0.017346	-0.115907	-0.273331	0.0667092	-0.254036	-0.319636	-0.338474	0.0005125	-0.17116	-0.0938395	-0.0463975	0.181549	-0.160014	0.10834	-0.0637655	-0.0116723	-0.0642303	-0.14883	-0.082852	-0.080506	-0.0221677	0.0129185	-0.303066	0.111114	-0.317618	
5.29175	5	0	0.072613	-0.040833	0.048801	-0.0314735	-0.177849	0.0807865	0.06667	-0.017582	-0.109676	-0.279517	0.0742455	-0.25896	-0.319636	-0.338474	0.008642	-0.176472	-0.093023	-0.048705	0.183762	-0.166268	0.109418	-0.066812	-0.0157615	-0.0673915	-0.157849	-0.076959	-0.079739	-0.0243355	0.016861	-0.314209	0.102827	-0.312203	
5.28412	5	0	0.072613	-0.040833	0.044087	-0.0283932	-0.180535	0.0883772	0.0695815	-0.017818	-0.103445	-0.285704	0.0817818	-0.263885	-0.319636	-0.338474	0.0167715	-0.181784	-0.0922065	-0.0510125	0.185975	-0.172521	0.110496	-0.0698585	-0.0198508	-0.0705527	-0.166868	-0.071066	-0.078972	-0.0265032	0.0208035	-0.325351	0.0945405	-0.306789	
5.27649	5	0	0.072613	-0.040833	0.039373	-0.025313	-0.183221	0.095968	0.072493	-0.018054	-0.097214	-0.29189	0.089318	-0.268809	-0.319636	-0.338474	0.024901	-0.187096	-0.09139	-0.05332	0.188188	-0.178775	0.111574	-0.072905	-0.02394	-0.073714	-0.175887	-0.065173	-0.078205	-0.028671	0.024746	-0.336493	0.086254	-0.301374	
5.26581	5	0	0.0640105	-0.035212	0.040381	-0.0383982	-0.18571	0.0917588	0.0695815	-0.017818	-0.0985812	-0.299449	0.0774668	-0.268049	-0.323982	-0.341465	0.024409	-0.203369	-0.0986067	-0.0539232	0.17396	-0.183882	0.107994	-0.077587	-0.0266858	-0.0806605	-0.177147	-0.0616127	-0.08356	-0.0235055	0.024746	-0.336493	0.0945405	-0.306789	
5.2536	5	0	0.055408	-0.029591	0.041389	-0.0514835	-0.188199	0.0875495	0.06667	-0.017582	-0.0999485	-0.307009	0.0656155	-0.26729	-0.328328	-0.344456	0.023917	-0.219641	-0.105824	-0.0545265	0.159731	-0.188989	0.104414	-0.082269	-0.0294315	-0.087607	-0.178406	-0.0580525	-0.088915	-0.01834	0.024746	-0.336493	0.102827	-0.312203	
5.23682	5	0	0.0468055	-0.02397	0.042397	-0.0645687	-0.190689	0.0833403	0.0637585	-0.017346	-0.101316	-0.314569	0.0537642	-0.266531	-0.332674	-0.347447	0.023425	-0.235914	-0.11304	-0.0551297	0.145503	-0.194095	0.100834	-0.086951	-0.0321773	-0.0945535	-0.179666	-0.0544922	-0.09427	-0.0131745	0.024746	-0.336493	0.111114	-0.317618	
5.22461	5	0	0.038203	-0.018349	0.043405	-0.077654	-0.193178	0.079131	0.060847	-0.01711	-0.102683	-0.322128	0.041913	-0.265771	-0.33702	-0.350438	0.022933	-0.252186	-0.120257	-0.055733	0.131275	-0.199202	0.097254	-0.091633	-0.034923	-0.1015	-0.180926	-0.050932	-0.099625	-0.008009	0.024746	-0.336493	0.1194	-0.323033	
5.21698	5	0	0.0425032	-0.0211588	0.0453092	-0.0830355	-0.193178	0.079131	0.0623802	-0.021443	-0.106965	-0.321441	0.043519	-0.27031	-0.335679	-0.354228	0.0248395	-0.257574	-0.122639	-0.0594915	0.135687	-0.211671	0.091524	-0.090228	-0.039007	-0.104652	-0.179666	-0.0544922	-0.098091	-0.0123443	-0.0111972	-0.313007	0.1194	-0.323033	
5.21545	5	0	0.0468035	-0.0239685	0.0472135	-0.088417	-0.193178	0.079131	0.0639135	-0.025776	-0.111248	-0.320755	0.045125	-0.274849	-0.334338	-0.358017	0.026746	-0.262962	-0.125021	-0.06325	0.140099	-0.224139	0.085794	-0.088823	-0.043091	-0.107804	-0.178406	-0.0580525	-0.096557	-0.0166795	-0.0471405	-0.289521	0.1194	-0.323033	
5.21393	5	0	0.0511038	-0.0267782	0.0491178	-0.0937985	-0.193178	0.079131	0.0654467	-0.030109	-0.115531	-0.320068	0.046731	-0.279389	-0.332997	-0.361807	0.0286525	-0.26835	-0.127403	-0.0670085	0.14451	-0.236608	0.080064	-0.087418	-0.047175	-0.110957	-0.177147	-0.0616127	-0.095023	-0.0210148	-0.0830837	-0.266035	0.1194	-0.323033	
5.22308	5	0	0.055404	-0.029588	0.051022	-0.09918	-0.193178	0.079131	0.06698	-0.034442	-0.119813	-0.319381	0.048337	-0.283928	-0.331656	-0.365597	0.030559	-0.273738	-0.129785	-0.070767	0.148922	-0.249077	0.074334	-0.086013	-0.051259	-0.114109	-0.175887	-0.065173	-0.093489	-0.02535	-0.119027	-0.242549	0.1194	-0.323033	
5.23834	5	0	0.0468058	-0.0239697	0.050118	-0.106857	-0.19656	0.0774535	0.0611605	-0.0339692	-0.114559	-0.322814	0.048337	-0.283928	-0.324626	-0.37019	0.0286525	-0.26835	-0.126587	-0.0693135	0.150515	-0.230933	0.080064	-0.087418	-0.047175	-0.110957	-0.177147	-0.0616127	-0.089668	-0.0261803	-0.0509317	-0.278478	0.1194	-0.323033	
5.25207	5	0	0.0382075	-0.0183515	0.049214	-0.114533	-0.199943	0.075776	0.055341	-0.0334965	-0.109304	-0.326248	0.048337	-0.283928	-0.317597	-0.374783	0.026746	-0.262962	-0.12339	-0.06786	0.152108	-0.212788	0.085794	-0.088823	-0.043091	-0.107804	-0.178406	-0.0580525	-0.085847	-0.0270105	0.0171635	-0.314406	0.1194	-0.323033	
5.26428	5	0	0.0296092	-0.0127332	0.04831	-0.122209	-0.203325	0.0740985	0.0495215	-0.0330237	-0.104049	-0.329681	0.048337	-0.283928	-0.310567	-0.379377	0.0248395	-0.257574	-0.120192	-0.0664065	0.1537	-0.194644	0.091524	-0.090228	-0.039007	-0.104652	-0.179666	-0.0544922	-0.082026	-0.0278407	0.0852587	-0.350335	0.1194	-0.323033	
5.27344	5	0	0.021011	-0.007115	0.047406	-0.129886	-0.206708	0.072421	0.043702	-0.032551	-0.098795	-0.333114	0.048337	-0.283928	-0.303538	-0.38397	0.022933	-0.252186	-0.116994	-0.064953	0.155293	-0.1765	0.097254	-0.091633	-0.034923	-0.1015	-0.180926	-0.050932	-0.078205	-0.028671	0.153354	-0.386264	0.1194	-0.323033	
5.28259	5	0	0.016715	-0.004308	0.0455505	-0.134867	-0.20492	0.067367	0.0452337	-0.0368797	-0.102106	-0.335172	0.0499423	-0.288465	-0.303538	-0.38397	0.0248395	-0.257574	-0.119377	-0.0687095	0.157807	-0.194933	0.100482	-0.100757	-0.0322438	-0.109072	-0.186158	-0.0557212	-0.0812593	-0.0300075	0.12514	-0.38495	0.120929	-0.327354	
5.28412	5	0	0.012419	-0.001501	0.043695	-0.139848	-0.203132	0.062313	0.0467655	-0.0412085	-0.105418	-0.337229	0.0515475	-0.293002	-0.303538	-0.38397	0.026746	-0.262962	-0.121759	-0.072466	0.160322	-0.213365	0.10371	-0.10988	-0.0295645	-0.116643	-0.191389	-0.0605105	-0.0843135	-0.031344	0.0969255	-0.383636	0.122458	-0.331676	
5.28259	5	0	0.008123	0.001306	0.0418395	-0.14483	-0.201343	0.057259	0.0482972	-0.0455373	-0.10873	-0.339286	0.0531527	-0.297538	-0.303538	-0.38397	0.0286525	-0.26835	-0.124142	-0.0762225	0.162836	-0.231798	0.106939	-0.119004	-0.0268852	-0.124214	-0.196621	-0.0652998	-0.0873677	-0.0326805	0.0687113	-0.382321	0.123987	-0.335998	
5.27801	5	0	0.003827	0.004113	0.039984	-0.149811	-0.199555	0.052205	0.049829	-0.049866	-0.112041	-0.341344	0.054758	-0.302075	-0.303538	-0.38397	0.030559	-0.273738	-0.126525	-0.079979	0.165351	-0.250231	0.110167	-0.128128	-0.024206	-0.131786	-0.201853	-0.070089	-0.090422	-0.034017	0.040497	-0.381007	0.125516	-0.340319	
5.27496	5	0	0.008123	0.001306	0.047499	-0.150593	-0.197961	0.0589365	0.0541167	-0.04601	-0.109702	-0.33654	0.0590762	-0.297919	-0.297844	-0.384777	0.0391927	-0.262795	-0.122512	-0.0808307	0.179599	-0.245152	0.108015	-0.122047	-0.0201165	-0.128637	-0.203112	-0.0665318	-0.0919555	-0.0296828	0.0765915	-0.404592	0.123987	-0.335998	
5.26276	5	0	0.012419	-0.001501	0.055014	-0.151375	-0.196366	0.065668	0.0584045	-0.042154	-0.107362	-0.331736	0.0633945	-0.293763	-0.292149	-0.385584	0.0478265	-0.251852	-0.118499	-0.0816825	0.193847	-0.240073	0.105863	-0.115965	-0.016027	-0.125489	-0.204371	-0.0629745	-0.093489	-0.0253485	0.112686	-0.428177	0.122458	-0.331676	
5.25665	5	0	0.016715	-0.004308	0.062529	-0.152157	-0.194772	0.0723995	0.0626923	-0.038298	-0.105022	-0.326932	0.0677128	-0.289607	-0.286455	-0.386392	0.0564602	-0.24091	-0.114485	-0.0825343	0.208095	-0.234995	0.103711	-0.109883	-0.0119375	-0.12234	-0.205629	-0.0594172	-0.0950225	-0.0210142	0.148781	-0.451762	0.120929	-0.327354	
5.24597	5	0	0.021011	-0.007115	0.070044	-0.152939	-0.193178	0.079131	0.06698	-0.034442	-0.102683	-0.322128	0.072031	-0.285451	-0.280761	-0.387199	0.065094	-0.229967	-0.110472	-0.083386	0.222343	-0.229916	0.101559	-0.103802	-0.007848	-0.119191	-0.206888	-0.05586	-0.096556	-0.01668	0.184875	-0.475347	0.1194	-0.323033	
5.23071	5	0	0.016715	-0.004308	0.070044	-0.152939	-0.192283	0.0766023	0.0677462	-0.0366078	-0.101711	-0.324875	0.0736373	-0.28999	-0.287796	-0.382602	0.0569568	-0.22465	-0.113734	-0.0741673	0.218717	-0.208315	0.0983285	-0.0946722	-0.0105293	-0.111613	-0.204179	-0.0439392	-0.09427	-0.0131728	0.136953	-0.418335	0.124634	-0.319803	
5.21698	5	0	0.012419	-0.001501	0.070044	-0.152939	-0.191388	0.0740735	0.0685125	-0.0387735	-0.100739	-0.327621	0.0752435	-0.294529	-0.294832	-0.378005	0.0488195	-0.219334	-0.116996	-0.0649485	0.215091	-0.186714	0.095098	-0.0855425	-0.0132105	-0.104036	-0.201471	-0.0320185	-0.091984	-0.0096655	0.0890305	-0.361323	0.129868	-0.316574	
5.20172	5	0	0.008123	0.001306	0.070044	-0.152939	-0.190494	0.0715447	0.0692788	-0.0409392	-0.099767	-0.330368	0.0768497	-0.299069	-0.301867	-0.373408	0.0406822	-0.214017	-0.120258	-0.0557297	0.211465	-0.165112	0.0918675	-0.0764128	-0.0158917	-0.0964578	-0.198763	-0.0200977	-0.089698	-0.00615825	0.0411083	-0.304311	0.135102	-0.313344	
5.18646	5	0	0.003827	0.004113	0.070044	-0.152939	-0.189599	0.069016	0.070045	-0.043105	-0.098795	-0.333114	0.078456	-0.303608	-0.308902	-0.368811	0.032545	-0.2087	-0.12352	-0.046511	0.207839	-0.143511	0.088637	-0.067283	-0.018573	-0.08888	-0.196054	-0.008177	-0.087412	-0.002651	-0.006814	-0.247299	0.140336	-0.310114	
5.17273	5	0	0.012421	-0.0015025	0.071903	-0.147956	-0.191389	0.0740742	0.0758705	-0.043581	-0.0954815	-0.331055	0.0827792	-0.299452	-0.303208	-0.369617	0.0531562	-0.213861	-0.121138	-0.0427475	0.209742	-0.137528	0.0943712	-0.0686885	-0.0144827	-0.0857217	-0.197316	-0.00461125	-0.0843572	-0.00131075	-0.006814	-0.247299	0.138805	-0.305786	
5.159	5	0	0.021015	-0.007118	0.073762	-0.142973	-0.193178	0.0791325	0.081696	-0.044057	-0.092168	-0.328997	0.0871025	-0.295295	-0.297515	-0.370422	0.0737675	-0.219021	-0.118755	-0.038984	0.211645	-0.131546	0.100106	-0.070094	-0.0103925	-0.0825635	-0.198578	-0.0010455	-0.0813025	2.95E-05	-0.006814	-0.247299	0.137273	-0.301458	
5.14831	5	0	0.029609	-0.0127335	0.075621	-0.13799	-0.194968	0.0841907	0.0875215	-0.044533	-0.0888545	-0.326938	0.0914258	-0.291139	-0.291821	-0.371228	0.0943787	-0.224182	-0.116373	-0.0352205	0.213548	-0.125563	0.10584	-0.0714995	-0.00630225	-0.0794052	-0.199839	0.00252025	-0.0782478	0.00136975	-0.006814	-0.247299	0.135742	-0.297131	
5.13458	5	0	0.038203	-0.018349	0.07748	-0.133007	-0.196758	0.089249	0.093347	-0.045009	-0.085541	-0.324879	0.095749	-0.286983	-0.286127	-0.372034	0.11499	-0.229343	-0.113991	-0.031457	0.215451	-0.119581	0.111574	-0.072905	-0.002212	-0.076247	-0.201101	0.006086	-0.075193	0.00271	-0.006814	-0.247299	0.134211	-0.292803	
5.12237	5	0	0.033905	-0.0155405	0.079339	-0.128019	-0.197653	0.0917792	0.0962618	-0.0452478	-0.0841718	-0.317318	0.0984663	-0.278274	-0.283114	-0.365251	0.11549	-0.213025	-0.105203	-0.0247692	0.226076	-0.092702	0.11874	-0.0635233	0.004633	-0.066121	-0.188106	0.00857125	-0.0736732	0.008394	0.0213708	-0.248529	0.131146	-0.284141	
5.11474	5	0	0.029607	-0.012732	0.081198	-0.12303	-0.198548	0.0943095	0.0991765	-0.0454865	-0.0828025	-0.309758	0.101184	-0.269564	-0.280101	-0.358467	0.115989	-0.196707	-0.0964145	-0.0180815	0.236701	-0.065823	0.125907	-0.0541415	0.011478	-0.055995	-0.175111	0.0110565	-0.0721535	0.014078	0.0495555	-0.24976	0.128081	-0.275479	
