0.83	1.95465	0	0	0.17316	-0.358324	0.034842	-0.087342	0.259198	-0.524638	-0.043237	-0.959883	0.100256	-0.060906	0.522646	-0.527308	-0.009764	-0.438808	0.325259	0.028367	0.215153	0.405719	0.319593	0.147783	0.719198	-0.384525	0.10275	-1.21848	0.424975	0.153046	0.043686	-0.404417	-1.57802	-0.6936	0.050313	0.279339	
0.701927	1.94549	0	0	0.158772	-0.3534	0.020968	-0.10369	0.263882	-0.529342	-0.0491635	-0.956011	0.117318	-0.0704103	0.528061	-0.527718	0.004715	-0.442643	0.330922	0.0341995	0.224798	0.40465	0.326322	0.154473	0.723759	-0.387505	0.107835	-1.2053	0.428322	0.154665	0.0489363	-0.401154	-1.53125	-0.660025	0.0525085	0.294604	
0.614759	1.95007	0	0	0.144384	-0.348475	0.007094	-0.120037	0.268566	-0.534045	-0.05509	-0.952138	0.134379	-0.0799145	0.533477	-0.528127	0.019194	-0.446479	0.336584	0.040032	0.234444	0.403582	0.333052	0.161164	0.72832	-0.390486	0.11292	-1.19211	0.431668	0.156284	0.0541865	-0.397892	-1.48449	-0.626449	0.054704	0.30987	
0.562892	1.94549	0	0	0.129996	-0.343551	-0.00678	-0.136385	0.27325	-0.538749	-0.0610165	-0.948266	0.151441	-0.0894187	0.538892	-0.528537	0.033673	-0.450315	0.342247	0.0458645	0.244089	0.402513	0.339781	0.167854	0.732881	-0.393466	0.118005	-1.17893	0.435014	0.157904	0.0594367	-0.394629	-1.43773	-0.592874	0.0568995	0.325135	
0.540723	1.94855	0	0	0.115608	-0.338627	-0.020654	-0.152732	0.277934	-0.543453	-0.066943	-0.944394	0.168503	-0.098923	0.544307	-0.528947	0.048152	-0.45415	0.347909	0.051697	0.253734	0.401444	0.34651	0.174544	0.737442	-0.396446	0.12309	-1.16575	0.438361	0.159523	0.064687	-0.391366	-1.39096	-0.559299	0.059095	0.3404	
0.542647	1.95007	0	0	0.0920615	-0.343353	-0.059801	-0.166498	0.262234	-0.533194	-0.082052	-0.95311	0.167746	-0.0967838	0.545747	-0.533017	0.0532878	-0.459381	0.341785	0.0580837	0.25453	0.39046	0.338037	0.185631	0.734231	-0.407187	0.121823	-1.14838	0.430795	0.158759	0.0657717	-0.385375	-1.34673	-0.536846	0.063078	0.339888	
0.563061	1.94855	0	0	0.068515	-0.348079	-0.098948	-0.180264	0.246533	-0.522935	-0.097161	-0.961825	0.166989	-0.0946445	0.547187	-0.537086	0.0584235	-0.464613	0.335661	0.0644705	0.255325	0.379477	0.329564	0.196717	0.731021	-0.417927	0.120557	-1.13101	0.423229	0.157994	0.0668565	-0.379383	-1.30249	-0.514393	0.067061	0.339375	
0.596361	1.95618	0	0	0.0449685	-0.352804	-0.138095	-0.19403	0.230832	-0.512676	-0.11227	-0.970541	0.166232	-0.0925052	0.548626	-0.541155	0.0635593	-0.469844	0.329536	0.0708572	0.256121	0.368494	0.321092	0.207804	0.72781	-0.428668	0.11929	-1.11363	0.415663	0.15723	0.0679413	-0.373392	-1.25825	-0.49194	0.071044	0.338863	
0.636943	1.9516	0	0	0.021422	-0.35753	-0.177242	-0.207796	0.215132	-0.502417	-0.127379	-0.979257	0.165475	-0.090366	0.550066	-0.545225	0.068695	-0.475076	0.323412	0.077244	0.256917	0.35751	0.312619	0.21889	0.724599	-0.439408	0.118023	-1.09626	0.408097	0.156466	0.069026	-0.367401	-1.21402	-0.469487	0.075027	0.338351	
0.679204	1.95312	0	0	-0.0033675	-0.370278	-0.206072	-0.222504	0.186969	-0.482372	-0.143663	-0.984509	0.154022	-0.0812375	0.544987	-0.560648	0.063643	-0.488633	0.317757	0.0714035	0.248054	0.338948	0.305902	0.212183	0.713627	-0.457844	0.123105	-1.09682	0.390535	0.150845	0.0599198	-0.359775	-1.20551	-0.454013	0.0650078	0.334453	
0.717541	1.9577	0	0	-0.028157	-0.383026	-0.234902	-0.237212	0.158806	-0.462326	-0.159948	-0.989762	0.14257	-0.072109	0.539908	-0.576071	0.058591	-0.502189	0.312102	0.065563	0.239192	0.320387	0.299185	0.205476	0.702655	-0.476279	0.128186	-1.09738	0.372973	0.145225	0.0508135	-0.352148	-1.197	-0.438539	0.0549885	0.330554	
0.747293	1.95465	0	0	-0.0529465	-0.395774	-0.263731	-0.251921	0.130643	-0.442281	-0.176232	-0.995014	0.131117	-0.0629805	0.534829	-0.591495	0.053539	-0.515746	0.306447	0.0597225	0.230329	0.301825	0.292468	0.198769	0.691683	-0.494715	0.133268	-1.09794	0.355412	0.139604	0.0417073	-0.344522	-1.18849	-0.423066	0.0449693	0.326655	
0.768495	1.95923	0	0	-0.077736	-0.408522	-0.292561	-0.266629	0.10248	-0.422235	-0.192517	-1.00027	0.119664	-0.053852	0.52975	-0.606918	0.048487	-0.529303	0.300792	0.053882	0.221466	0.283263	0.285751	0.192062	0.680711	-0.51315	0.138349	-1.0985	0.33785	0.133984	0.032601	-0.336896	-1.17998	-0.407592	0.03495	0.322757	
0.782637	1.96991	0	0	-0.09904	-0.418999	-0.315071	-0.271414	0.0712648	-0.401838	-0.204091	-1.00592	0.098313	-0.0399007	0.530076	-0.62271	0.044294	-0.545246	0.29232	0.0451387	0.211814	0.267033	0.280315	0.181768	0.668918	-0.529135	0.135806	-1.09131	0.325566	0.113612	0.02967	-0.346704	-1.17719	-0.405584	0.0306995	0.30261	
0.791208	1.96991	0	0	-0.120344	-0.429477	-0.337581	-0.276199	0.0400495	-0.381442	-0.215666	-1.01157	0.076962	-0.0259495	0.530403	-0.638502	0.040101	-0.561188	0.283848	0.0363955	0.202162	0.250804	0.27488	0.171475	0.657126	-0.545121	0.133263	-1.08413	0.313281	0.093241	0.026739	-0.356513	-1.1744	-0.403575	0.026449	0.282463	
0.795696	1.97143	0	0	-0.141648	-0.439955	-0.360091	-0.280983	0.00883425	-0.361046	-0.22724	-1.01723	0.055611	-0.0119982	0.530729	-0.654295	0.035908	-0.577131	0.275376	0.0276522	0.19251	0.234575	0.269444	0.161182	0.645333	-0.561106	0.130719	-1.07694	0.300997	0.0728695	0.023808	-0.366321	-1.17161	-0.401567	0.0221985	0.262317	
0.797592	1.95923	0	0	-0.162952	-0.450432	-0.382601	-0.285768	-0.022381	-0.340649	-0.238814	-1.02288	0.03426	0.001953	0.531055	-0.670087	0.031715	-0.593074	0.266904	0.018909	0.182858	0.218345	0.264009	0.150888	0.63354	-0.577091	0.128176	-1.06975	0.288712	0.052498	0.020877	-0.376129	-1.16882	-0.399559	0.017948	0.24217	
0.798346	1.95465	0	0	-0.185188	-0.458007	-0.395042	-0.291529	-0.0449618	-0.327537	-0.246921	-1.0255	0.0200555	0.0112347	0.528511	-0.677755	0.0266615	-0.606542	0.261263	0.013092	0.174828	0.206307	0.254763	0.151399	0.622117	-0.584166	0.130701	-1.04925	0.2789	0.0362753	0.0250392	-0.378849	-1.16602	-0.39755	0.0128787	0.235088	
0.798689	1.95007	0	0	-0.207425	-0.465583	-0.407483	-0.29729	-0.0675425	-0.314426	-0.255028	-1.02812	0.005851	0.0205165	0.525966	-0.685423	0.021608	-0.620011	0.255622	0.007275	0.166797	0.194269	0.245516	0.151911	0.610694	-0.591241	0.133227	-1.02875	0.269087	0.0200525	0.0292015	-0.381569	-1.16323	-0.39554	0.0078095	0.228005	
0.79871	1.93481	0	0	-0.229661	-0.473158	-0.419923	-0.303051	-0.0901233	-0.301314	-0.263136	-1.03074	-0.0083535	0.0297982	0.523421	-0.693091	0.0165545	-0.633479	0.249982	0.001458	0.158767	0.18223	0.23627	0.152422	0.599272	-0.598315	0.135752	-1.00826	0.259275	0.00382975	0.0333637	-0.384289	-1.16044	-0.393531	0.00274025	0.220922	
0.798475	1.94397	0	0	-0.251897	-0.480733	-0.432364	-0.308812	-0.112704	-0.288202	-0.271243	-1.03336	-0.022558	0.03908	0.520877	-0.700759	0.011501	-0.646948	0.244341	-0.004359	0.150737	0.170192	0.227024	0.152934	0.587849	-0.60539	0.138277	-0.987759	0.249462	-0.012393	0.037526	-0.387009	-1.15765	-0.391522	-0.002329	0.21384	
0.798051	1.94244	0	0	-0.267658	-0.494668	-0.444777	-0.314563	-0.128983	-0.275922	-0.278126	-1.0394	-0.032439	0.0438912	0.512933	-0.707989	0.019201	-0.668709	0.23589	-0.0130668	0.153914	0.161214	0.217792	0.153441	0.582147	-0.608922	0.140788	-0.96718	0.240382	-0.0196288	0.0352147	-0.380477	-1.14382	-0.390968	-0.00041725	0.208437	
0.797503	1.96228	0	0	-0.28342	-0.508602	-0.457189	-0.320314	-0.145262	-0.263642	-0.285008	-1.04545	-0.04232	0.0487025	0.504989	-0.71522	0.026901	-0.69047	0.22744	-0.0217745	0.15709	0.152236	0.20856	0.153947	0.576445	-0.612453	0.1433	-0.946602	0.231301	-0.0268645	0.0329035	-0.373945	-1.12998	-0.390414	0.0014945	0.203035	
0.796897	1.98059	0	0	-0.299181	-0.522537	-0.469602	-0.326066	-0.161541	-0.251362	-0.291891	-1.0515	-0.052201	0.0535137	0.497044	-0.72245	0.034601	-0.712232	0.218989	-0.0304823	0.160267	0.143259	0.199327	0.154454	0.570742	-0.615984	0.145811	-0.926024	0.222221	-0.0341002	0.0305923	-0.367412	-1.11615	-0.389861	0.00340625	0.197632	
0.796319	1.98212	0	0	-0.314943	-0.536471	-0.482014	-0.331817	-0.17782	-0.239082	-0.298774	-1.05754	-0.062082	0.058325	0.4891	-0.72968	0.042301	-0.733993	0.210538	-0.03919	0.163443	0.134281	0.190095	0.154961	0.56504	-0.619516	0.148322	-0.905445	0.213141	-0.041336	0.028281	-0.36088	-1.10231	-0.389307	0.005318	0.192229	
0.795898	1.98517	0	0	-0.319618	-0.546598	-0.488269	-0.32773	-0.193315	-0.228957	-0.298774	-1.05754	-0.0754885	0.0654403	0.490528	-0.733715	0.0414778	-0.750144	0.212718	-0.045351	0.159401	0.119698	0.192636	0.147779	0.561844	-0.63011	0.161056	-0.899842	0.202495	-0.0550232	0.038153	-0.370679	-1.09037	-0.393271	0.014063	0.178215	
0.795773	1.98669	0	0	-0.324294	-0.556726	-0.494524	-0.323642	-0.20881	-0.218832	-0.298774	-1.05754	-0.088895	0.0725555	0.491955	-0.737749	0.0406545	-0.766296	0.214898	-0.051512	0.155359	0.105114	0.195178	0.140597	0.558648	-0.640705	0.173789	-0.894239	0.19185	-0.0687105	0.048025	-0.380478	-1.07843	-0.397235	0.022808	0.164202	
0.796079	1.98517	0	0	-0.328969	-0.566854	-0.500779	-0.319555	-0.224304	-0.208708	-0.298774	-1.05754	-0.102302	0.0796707	0.493383	-0.741783	0.0398312	-0.782447	0.217078	-0.057673	0.151316	0.0905305	0.197719	0.133415	0.555452	-0.651299	0.186523	-0.888635	0.181204	-0.0823978	0.057897	-0.390276	-1.06648	-0.401198	0.031553	0.150188	
0.796954	1.98822	0	0	-0.333644	-0.576981	-0.507034	-0.315468	-0.239799	-0.198583	-0.298774	-1.05754	-0.115708	0.086786	0.49481	-0.745818	0.039008	-0.798599	0.219258	-0.063834	0.147274	0.075947	0.20026	0.126233	0.552256	-0.661893	0.199257	-0.883032	0.170559	-0.096085	0.067769	-0.400075	-1.05454	-0.405162	0.040298	0.136174	
0.798535	1.98364	0	0	-0.342353	-0.575679	-0.51086	-0.304654	-0.258372	-0.18809	-0.301199	-1.05069	-0.129848	0.0960255	0.50021	-0.746245	0.0347713	-0.805085	0.224255	-0.0670992	0.137668	0.068475	0.212035	0.118539	0.551906	-0.670709	0.215853	-0.874335	0.167395	-0.108992	0.0703962	-0.398444	-1.04346	-0.406637	0.0511112	0.127035	
0.800924	1.98517	0	0	-0.351062	-0.574376	-0.514687	-0.29384	-0.276944	-0.177598	-0.303624	-1.04383	-0.143988	0.105265	0.50561	-0.746672	0.0305345	-0.811571	0.229252	-0.0703645	0.128062	0.061003	0.223811	0.110845	0.551555	-0.679524	0.232449	-0.865638	0.164231	-0.1219	0.0730235	-0.396812	-1.03238	-0.408112	0.0619245	0.117896	
0.803938	1.99127	0	0	-0.359772	-0.573074	-0.518514	-0.283026	-0.295517	-0.167105	-0.30605	-1.03698	-0.158128	0.114505	0.511011	-0.747099	0.0262978	-0.818057	0.234249	-0.0736298	0.118456	0.053531	0.235587	0.10315	0.551205	-0.68834	0.249044	-0.856942	0.161068	-0.134807	0.0756508	-0.39518	-1.02129	-0.409586	0.0727378	0.108757	
0.807258	1.98974	0	0	-0.368481	-0.571772	-0.52234	-0.272212	-0.31409	-0.156612	-0.308475	-1.03012	-0.172268	0.123744	0.516411	-0.747526	0.022061	-0.824543	0.239246	-0.076895	0.10885	0.046059	0.247362	0.095456	0.550855	-0.697156	0.26564	-0.848245	0.157904	-0.147714	0.078278	-0.393549	-1.01021	-0.411061	0.083551	0.099618	
0.810566	1.98822	0	0	-0.378498	-0.578375	-0.52234	-0.272212	-0.333376	-0.14401	-0.308475	-1.03012	-0.183615	0.132803	0.519265	-0.755593	0.019527	-0.835822	0.249249	-0.083431	0.103234	0.0360073	0.25117	0.0846942	0.545994	-0.703012	0.268187	-0.841518	0.151301	-0.150874	0.0850792	-0.394643	-1.00829	-0.40655	0.0875305	0.099091	
0.813541	1.98974	0	0	-0.388514	-0.584979	-0.52234	-0.272212	-0.352661	-0.131409	-0.308475	-1.03012	-0.194962	0.141862	0.52212	-0.763661	0.016993	-0.847101	0.259252	-0.089967	0.0976185	0.0259555	0.254978	0.0739325	0.541132	-0.708869	0.270734	-0.83479	0.144697	-0.154035	0.0918805	-0.395737	-1.00636	-0.402039	0.09151	0.098564	
0.815866	1.99432	0	0	-0.398531	-0.591583	-0.52234	-0.272212	-0.371947	-0.118807	-0.308475	-1.03012	-0.206308	0.150921	0.524975	-0.771728	0.014459	-0.858381	0.269255	-0.096503	0.0920028	0.0159038	0.258786	0.0631707	0.53627	-0.714725	0.273281	-0.828063	0.138093	-0.157195	0.0986817	-0.396831	-1.00443	-0.397528	0.0954895	0.098037	
0.81722	1.99127	0	0	-0.408548	-0.598186	-0.52234	-0.272212	-0.391233	-0.106206	-0.308475	-1.03012	-0.217655	0.15998	0.527829	-0.779795	0.011925	-0.86966	0.279258	-0.103039	0.086387	0.005852	0.262594	0.052409	0.531409	-0.720581	0.275828	-0.821335	0.13149	-0.160355	0.105483	-0.397925	-1.0025	-0.393017	0.099469	0.09751	
0.817444	1.99127	0	0	-0.410876	-0.60323	-0.517362	-0.272692	-0.398935	-0.101173	-0.303823	-1.03053	-0.224708	0.164588	0.537515	-0.79232	0.00938325	-0.87169	0.284264	-0.10631	0.0831703	-0.00231925	0.25924	0.04909	0.531055	-0.729371	0.282242	-0.825526	0.127469	-0.170789	0.107795	-0.404461	-0.994217	-0.396508	0.103284	0.0867275	
0.816687	1.99432	0	0	-0.413204	-0.608274	-0.512383	-0.273172	-0.406637	-0.0961405	-0.299171	-1.03093	-0.23176	0.169196	0.5472	-0.804845	0.0068415	-0.873721	0.28927	-0.109581	0.0799535	-0.0104905	0.255887	0.045771	0.530701	-0.73816	0.288656	-0.829717	0.123449	-0.181224	0.110108	-0.410996	-0.98593	-0.399999	0.1071	0.075945	
0.815138	1.9989	5	0	-0.415531	-0.613317	-0.507405	-0.273651	-0.414339	-0.0911078	-0.294518	-1.03134	-0.238813	0.173805	0.556886	-0.817371	0.00429975	-0.875752	0.294275	-0.112852	0.0767368	-0.0186618	0.252533	0.042452	0.530346	-0.74695	0.29507	-0.833909	0.119428	-0.191659	0.112421	-0.417531	-0.977642	-0.403489	0.110915	0.0651625	
0.812984	2.00043	5	0	-0.417859	-0.618361	-0.502426	-0.274131	-0.422041	-0.086075	-0.289866	-1.03174	-0.245866	0.178413	0.566571	-0.829896	0.001758	-0.877782	0.299281	-0.116123	0.07352	-0.026833	0.249179	0.039133	0.529992	-0.755739	0.301484	-0.8381	0.115408	-0.202093	0.114733	-0.424067	-0.969355	-0.40698	0.11473	0.05438	
0.810414	2.00195	5	0	-0.425529	-0.619908	-0.516208	-0.26235	-0.433581	-0.0785342	-0.302807	-1.02065	-0.24939	0.180716	0.563719	-0.821836	0.0009085	-0.875381	0.30211	-0.113235	0.0766682	-0.0357302	0.254245	0.0248155	0.531651	-0.760428	0.313038	-0.84285	0.111254	-0.201243	0.115504	-0.426245	-0.949924	-0.411973	0.116636	0.0489938	
0.807616	1.99585	5	0	-0.433199	-0.621455	-0.529991	-0.25057	-0.445122	-0.0709935	-0.315748	-1.00955	-0.252914	0.183019	0.560867	-0.813776	5.9E-05	-0.872981	0.304939	-0.110347	0.0798165	-0.0446275	0.259312	0.010498	0.533311	-0.765118	0.324592	-0.8476	0.107101	-0.200393	0.116274	-0.428422	-0.930493	-0.416965	0.118542	0.0436075	
0.804753	1.99585	5	0	-0.44087	-0.623001	-0.543773	-0.238789	-0.456662	-0.0634528	-0.328688	-0.998461	-0.256438	0.185321	0.558015	-0.805716	-0.0007905	-0.87058	0.307767	-0.107458	0.0829648	-0.0535247	0.264378	-0.0038195	0.53497	-0.769807	0.336147	-0.852351	0.102947	-0.199542	0.117044	-0.4306	-0.911063	-0.421958	0.120448	0.0382212	
0.801792	1.99737	5	0	-0.44854	-0.624548	-0.557555	-0.227009	-0.468202	-0.055912	-0.341629	-0.987368	-0.259962	0.187624	0.555163	-0.797656	-0.00164	-0.86818	0.310596	-0.10457	0.086113	-0.062422	0.269444	-0.018137	0.536629	-0.774496	0.347701	-0.857101	0.098793	-0.198692	0.117815	-0.432777	-0.891632	-0.426951	0.122354	0.032835	
0.798609	1.98212	5	0	-0.450864	-0.629582	-0.551305	-0.231093	-0.472045	-0.0534008	-0.335767	-0.991198	-0.256438	0.185321	0.564854	-0.810185	0.00599375	-0.871322	0.311686	-0.107651	0.089258	-0.0713103	0.265261	-0.0318815	0.534253	-0.787344	0.343867	-0.874168	0.103079	-0.210805	0.110691	-0.439829	-0.885086	-0.425445	0.119151	0.020454	
0.795082	1.99585	5	0	-0.453187	-0.634616	-0.545054	-0.235177	-0.475888	-0.0508895	-0.329906	-0.995028	-0.252914	0.183019	0.574545	-0.822713	0.0136275	-0.874464	0.312777	-0.110732	0.092403	-0.0801985	0.261077	-0.045626	0.531876	-0.800192	0.340032	-0.891235	0.107365	-0.222917	0.103568	-0.44688	-0.87854	-0.423939	0.115948	0.008073	
0.791085	2.00653	5	0	-0.455511	-0.63965	-0.538804	-0.239262	-0.479732	-0.0483782	-0.324045	-0.998858	-0.24939	0.180716	0.584235	-0.835241	0.0212612	-0.877607	0.313867	-0.113813	0.095548	-0.0890868	0.256893	-0.0593705	0.5295	-0.813041	0.336198	-0.908302	0.111651	-0.23503	0.0964437	-0.453931	-0.871994	-0.422433	0.112745	-0.004308	
0.786493	2.02179	5	0	-0.457835	-0.644684	-0.532554	-0.243346	-0.483575	-0.045867	-0.318183	-1.00269	-0.245866	0.178413	0.593926	-0.84777	0.028895	-0.880749	0.314957	-0.116894	0.098693	-0.097975	0.25271	-0.073115	0.527123	-0.825889	0.332364	-0.925369	0.115937	-0.247143	0.08932	-0.460983	-0.865448	-0.420927	0.109542	-0.016689	
0.781195	2.01263	5	0	-0.456831	-0.647523	-0.540082	-0.235651	-0.468191	-0.055919	-0.320612	-0.995824	-0.231755	0.169192	0.5925	-0.843741	0.044187	-0.877806	0.314957	-0.116894	0.111399	-0.107985	0.241395	-0.0794233	0.527586	-0.836973	0.329803	-0.932067	0.116793	-0.249563	0.0840637	-0.464229	-0.853394	-0.424945	0.0955452	-0.0199252	
0.77531	2.00043	5	0	-0.455826	-0.650362	-0.547609	-0.227957	-0.452808	-0.065971	-0.323041	-0.988959	-0.217644	0.159972	0.591074	-0.839712	0.059479	-0.874862	0.314957	-0.116894	0.124105	-0.117994	0.230081	-0.0857315	0.52805	-0.848057	0.327241	-0.938765	0.117649	-0.251984	0.0788075	-0.467475	-0.841339	-0.428964	0.0815485	-0.0231615	
0.769184	1.99585	5	0	-0.454821	-0.653202	-0.555137	-0.220262	-0.437424	-0.076023	-0.325469	-0.982095	-0.203533	0.150751	0.589649	-0.835683	0.074771	-0.871919	0.314957	-0.116894	0.13681	-0.128003	0.218767	-0.0920398	0.528513	-0.859141	0.32468	-0.945462	0.118506	-0.254405	0.0735512	-0.470721	-0.829284	-0.432982	0.0675517	-0.0263978	
0.763173	2.00043	5	0	-0.453817	-0.656041	-0.562665	-0.212567	-0.422041	-0.086075	-0.327898	-0.975231	-0.189422	0.141531	0.588223	-0.831654	0.090063	-0.868976	0.314957	-0.116894	0.149516	-0.138013	0.207452	-0.098348	0.528976	-0.870225	0.322119	-0.95216	0.119362	-0.256825	0.068295	-0.473967	-0.81723	-0.437001	0.053555	-0.029634	
0.757633	2.00043	5	0	-0.458465	-0.666086	-0.563804	-0.222919	-0.42898	-0.0831835	-0.325469	-0.982095	-0.19648	0.146143	0.58281	-0.831214	0.096021	-0.867318	0.304942	-0.11035	0.155064	-0.145051	0.196161	-0.104645	0.519623	-0.873085	0.306754	-0.950481	0.113497	-0.251132	0.0641327	-0.471247	-0.820785	-0.426955	0.0426065	-0.0307222	
0.752921	2.005	5	0	-0.463113	-0.67613	-0.564943	-0.233271	-0.43592	-0.080292	-0.323041	-0.988959	-0.203539	0.150755	0.577397	-0.830775	0.101979	-0.86566	0.294928	-0.103806	0.160612	-0.15209	0.18487	-0.110941	0.51027	-0.875945	0.291388	-0.948802	0.107632	-0.245438	0.0599705	-0.468527	-0.82434	-0.416909	0.031658	-0.0318105	
0.749378	1.9928	5	0	-0.467761	-0.686175	-0.566082	-0.243624	-0.442859	-0.0774005	-0.320612	-0.995824	-0.210597	0.155368	0.571984	-0.830336	0.107937	-0.864002	0.284913	-0.0972627	0.16616	-0.159129	0.173579	-0.117238	0.500917	-0.878804	0.276023	-0.947123	0.101767	-0.239745	0.0558082	-0.465807	-0.827894	-0.406864	0.0207095	-0.0328988	
0.747054	1.98517	5	0	-0.472409	-0.69622	-0.567221	-0.253976	-0.449798	-0.074509	-0.318183	-1.00269	-0.217655	0.15998	0.566571	-0.829896	0.113895	-0.862344	0.274898	-0.090719	0.171708	-0.166167	0.162288	-0.123534	0.491564	-0.881664	0.260657	-0.945444	0.095902	-0.234051	0.051646	-0.463087	-0.831449	-0.396818	0.009761	-0.033987	
0.745706	1.98212	5	0	-0.473731	-0.704063	-0.569638	-0.260707	-0.462084	-0.0648383	-0.322831	-1.00229	-0.224708	0.164588	0.57341	-0.834364	0.117303	-0.862719	0.269895	-0.08745	0.171655	-0.174658	0.159375	-0.140729	0.484698	-0.891508	0.256833	-0.962414	0.0943205	-0.240459	0.0471662	-0.468502	-0.827723	-0.397321	-0.0111283	-0.0388462	
0.74508	1.99127	5	0	-0.475052	-0.711907	-0.572054	-0.267439	-0.474369	-0.0551675	-0.327479	-1.00189	-0.23176	0.169196	0.580248	-0.838833	0.12071	-0.863094	0.264892	-0.084181	0.171602	-0.183149	0.156462	-0.157923	0.477832	-0.901351	0.253009	-0.979385	0.092739	-0.246866	0.0426865	-0.473916	-0.823997	-0.397823	-0.0320175	-0.0437055	
0.744921	1.99127	5	0	-0.476374	-0.71975	-0.57447	-0.27417	-0.486655	-0.0454968	-0.332126	-1.00149	-0.238813	0.173805	0.587087	-0.843302	0.124117	-0.86347	0.25989	-0.080912	0.171549	-0.19164	0.153549	-0.175118	0.470967	-0.911195	0.249184	-0.996355	0.0911575	-0.253273	0.0382067	-0.47933	-0.820271	-0.398325	-0.0529068	-0.0485648	
0.744974	1.98822	5	0	-0.477696	-0.727594	-0.576887	-0.280901	-0.498941	-0.035826	-0.336774	-1.00109	-0.245866	0.178413	0.593926	-0.84777	0.127525	-0.863845	0.254887	-0.077643	0.171496	-0.200131	0.150636	-0.192312	0.464101	-0.921038	0.24536	-1.01333	0.089576	-0.259681	0.033727	-0.484745	-0.816545	-0.398828	-0.073796	-0.053424	
0.744993	1.98364	5	0	-0.486343	-0.726293	-0.585536	-0.28355	-0.51429	-0.0257967	-0.336774	-1.00109	-0.250147	0.182856	0.593926	-0.84777	0.12582	-0.859027	0.254887	-0.077643	0.167467	-0.206013	0.139375	-0.198563	0.458064	-0.933179	0.238979	-1.02303	0.0871393	-0.263664	0.029251	-0.490151	-0.827716	-0.397323	-0.082796	-0.059855	
0.744867	1.98364	5	0	-0.49499	-0.724993	-0.594185	-0.286199	-0.52964	-0.0157675	-0.336774	-1.00109	-0.254429	0.187298	0.593926	-0.84777	0.124115	-0.854208	0.254887	-0.077643	0.163437	-0.211896	0.128114	-0.204814	0.452028	-0.94532	0.232598	-1.03273	0.0847025	-0.267647	0.024775	-0.495557	-0.838886	-0.395819	-0.091796	-0.066286	
0.74461	1.99585	5	0	-0.503638	-0.723693	-0.602833	-0.288849	-0.544989	-0.00573825	-0.336774	-1.00109	-0.25871	0.19174	0.593926	-0.84777	0.12241	-0.84939	0.254887	-0.077643	0.159407	-0.217778	0.116853	-0.211065	0.445991	-0.957461	0.226217	-1.04244	0.0822657	-0.271629	0.020299	-0.500964	-0.850057	-0.394315	-0.100796	-0.072717	
0.74424	1.98822	5	0	-0.512285	-0.722392	-0.611482	-0.291498	-0.560338	0.004291	-0.336774	-1.00109	-0.262991	0.196183	0.593926	-0.84777	0.120705	-0.844572	0.254887	-0.077643	0.155378	-0.22366	0.105592	-0.217316	0.439954	-0.969602	0.219836	-1.05214	0.079829	-0.275612	0.015823	-0.50637	-0.861228	-0.39281	-0.109796	-0.079148	
0.743776	1.9928	5	0	-0.515924	-0.735216	-0.616306	-0.304916	-0.567246	0.00716225	-0.33657	-1.01439	-0.265756	0.196345	0.589936	-0.851354	0.1173	-0.853454	0.253155	-0.083613	0.144982	-0.22877	0.0943543	-0.223555	0.433101	-0.979391	0.207095	-1.05766	0.0715415	-0.273911	0.012437	-0.505823	-0.872219	-0.381766	-0.11673	-0.0807645	
0.743234	1.99432	5	0	-0.519563	-0.748039	-0.621131	-0.318334	-0.574154	0.0100335	-0.336365	-1.0277	-0.268522	0.196507	0.585947	-0.854939	0.113895	-0.862335	0.251424	-0.089583	0.134585	-0.233881	0.0831165	-0.229795	0.426249	-0.989179	0.194353	-1.06318	0.063254	-0.27221	0.009051	-0.505275	-0.883209	-0.370722	-0.123664	-0.082381	
0.742629	1.99585	5	0	-0.523202	-0.760863	-0.625955	-0.331753	-0.581062	0.0129047	-0.336161	-1.041	-0.271288	0.196669	0.581958	-0.858523	0.110489	-0.871217	0.249692	-0.095553	0.124189	-0.238992	0.0718788	-0.236034	0.419396	-0.998968	0.181611	-1.0687	0.0549665	-0.270509	0.005665	-0.504728	-0.8942	-0.359678	-0.130599	-0.0839975	
0.741907	2.00348	5	0	-0.526841	-0.773687	-0.630779	-0.345171	-0.58797	0.015776	-0.335957	-1.05431	-0.274053	0.196831	0.577968	-0.862107	0.107084	-0.880099	0.24796	-0.101523	0.113793	-0.244102	0.060641	-0.242273	0.412543	-1.00876	0.16887	-1.07422	0.046679	-0.268808	0.002279	-0.504181	-0.90519	-0.348634	-0.137533	-0.085614	
0.740964	2.00043	5	0	-0.521853	-0.787784	-0.625705	-0.359512	-0.5918	0.0182782	-0.339389	-1.05732	-0.27481	0.198971	0.580815	-0.870152	0.104531	-0.882129	0.244052	-0.101334	0.113736	-0.252555	0.0598115	-0.252577	0.410161	-1.02144	0.168868	-1.08803	0.0468077	-0.280023	0.0019575	-0.51229	-0.895088	-0.357166	-0.140693	-0.097872	
0.739692	1.98669	5	0	-0.516865	-0.801882	-0.62063	-0.373853	-0.59563	0.0207805	-0.342821	-1.06034	-0.275567	0.201111	0.583662	-0.878198	0.101977	-0.884158	0.240144	-0.101146	0.11368	-0.261008	0.058982	-0.262881	0.407779	-1.03412	0.168866	-1.10185	0.0469365	-0.291237	0.001636	-0.520399	-0.884987	-0.365699	-0.143853	-0.11013	
0.737986	1.98212	5	0	-0.511877	-0.815979	-0.615556	-0.388193	-0.599459	0.0232827	-0.346253	-1.06336	-0.276325	0.203251	0.586509	-0.886243	0.0994242	-0.886188	0.236235	-0.100958	0.113623	-0.26946	0.0581525	-0.273186	0.405398	-1.0468	0.168863	-1.11567	0.0470653	-0.302452	0.0013145	-0.528508	-0.874885	-0.374231	-0.147014	-0.122388	
0.73574	1.98059	5	0	-0.506889	-0.830076	-0.610482	-0.402534	-0.603289	0.025785	-0.349685	-1.06638	-0.277082	0.205391	0.589356	-0.894289	0.096871	-0.888218	0.232327	-0.100769	0.113566	-0.277913	0.057323	-0.28349	0.403016	-1.05948	0.168861	-1.12948	0.047194	-0.313667	0.000993	-0.536617	-0.864783	-0.382763	-0.150174	-0.134646	
0.732877	1.97449	5	0	-0.500576	-0.836367	-0.6129	-0.409211	-0.598703	0.0211465	-0.348475	-1.0698	-0.270035	0.200786	0.600192	-0.895184	0.096871	-0.888218	0.236235	-0.100958	0.112785	-0.275706	0.059816	-0.290536	0.404652	-1.0641	0.171401	-1.13666	0.053041	-0.319341	0.00252325	-0.540942	-0.857339	-0.383764	-0.143418	-0.143147	
0.729611	1.97754	5	0	-0.494263	-0.842657	-0.615318	-0.415887	-0.594118	0.016508	-0.347265	-1.07322	-0.262989	0.196182	0.611028	-0.896079	0.096871	-0.888218	0.240144	-0.101146	0.112004	-0.273498	0.062309	-0.297581	0.406288	-1.06873	0.173941	-1.14384	0.058888	-0.325015	0.0040535	-0.545266	-0.849894	-0.384764	-0.136662	-0.151648	
0.726316	1.97296	5	0	-0.48795	-0.848948	-0.617737	-0.422564	-0.589533	0.0118695	-0.346055	-1.07664	-0.255942	0.191577	0.621865	-0.896975	0.096871	-0.888218	0.244052	-0.101334	0.111223	-0.27129	0.064802	-0.304627	0.407924	-1.07335	0.176481	-1.15102	0.064735	-0.330689	0.00558375	-0.549591	-0.84245	-0.385765	-0.129907	-0.16015	
0.723367	1.97754	5	0	-0.481637	-0.855238	-0.620155	-0.429241	-0.584947	0.007231	-0.344845	-1.08006	-0.248895	0.186972	0.632701	-0.89787	0.096871	-0.888218	0.24796	-0.101523	0.110442	-0.269083	0.067295	-0.311673	0.40956	-1.07797	0.179021	-1.1582	0.070582	-0.336363	0.007114	-0.553916	-0.835006	-0.386765	-0.123151	-0.168651	
0.721142	1.97601	5	0	-0.475664	-0.87212	-0.613831	-0.447113	-0.577283	0.002223	-0.341218	-1.09031	-0.238314	0.180058	0.625857	-0.893398	0.106235	-0.896185	0.24514	-0.104411	0.121559	-0.274649	0.067295	-0.311673	0.411195	-1.0826	0.180291	-1.16178	0.0722875	-0.341182	0.0112642	-0.556628	-0.81831	-0.393809	-0.122211	-0.171308	
0.720017	1.97449	5	0	-0.46969	-0.889002	-0.607508	-0.464985	-0.569619	-0.002785	-0.337591	-1.10056	-0.227733	0.173144	0.619012	-0.888926	0.115598	-0.904151	0.24232	-0.107298	0.132676	-0.280216	0.067295	-0.311673	0.41283	-1.08722	0.18156	-1.16537	0.073993	-0.346002	0.0154145	-0.55934	-0.801614	-0.400852	-0.121271	-0.173964	
0.720267	1.97449	5	0	-0.463716	-0.905884	-0.601184	-0.482857	-0.561954	-0.007793	-0.333963	-1.11081	-0.217151	0.166231	0.612168	-0.884454	0.124962	-0.912118	0.2395	-0.110186	0.143792	-0.285782	0.067295	-0.311673	0.414466	-1.09184	0.18283	-1.16896	0.0756985	-0.350822	0.0195647	-0.562052	-0.784918	-0.407896	-0.120331	-0.17662	
0.721712	1.97143	5	0	-0.457743	-0.922766	-0.59486	-0.500729	-0.55429	-0.012801	-0.330336	-1.12106	-0.20657	0.159317	0.605324	-0.879982	0.134326	-0.920085	0.23668	-0.113073	0.154909	-0.291348	0.067295	-0.311673	0.416101	-1.09646	0.184099	-1.17255	0.077404	-0.355641	0.023715	-0.564764	-0.768222	-0.414939	-0.119391	-0.179277	
0.724045	1.97143	5	0	-0.453767	-0.934003	-0.598548	-0.503807	-0.55429	-0.012801	-0.32792	-1.12789	-0.209341	0.159483	0.613592	-0.888478	0.133469	-0.926914	0.233861	-0.115958	0.154909	-0.291348	0.0685407	-0.315194	0.417735	-1.10108	0.181547	-1.17915	0.0800722	-0.374034	0.0207665	-0.574462	-0.768398	-0.424484	-0.117693	-0.194667	
0.726958	1.97143	5	0	-0.449791	-0.94524	-0.602237	-0.506885	-0.55429	-0.012801	-0.325504	-1.13472	-0.212112	0.159648	0.62186	-0.896974	0.132612	-0.933743	0.231043	-0.118843	0.154909	-0.291348	0.0697865	-0.318715	0.41937	-1.1057	0.178995	-1.18575	0.0827405	-0.392426	0.017818	-0.584159	-0.768574	-0.43403	-0.115996	-0.210056	
0.730143	1.97143	5	0	-0.445815	-0.956477	-0.605925	-0.509964	-0.55429	-0.012801	-0.323088	-1.14155	-0.214884	0.159814	0.630128	-0.905469	0.131755	-0.940571	0.228224	-0.121728	0.154909	-0.291348	0.0710322	-0.322236	0.421004	-1.11032	0.176442	-1.19234	0.0854088	-0.410818	0.0148695	-0.593857	-0.768751	-0.443576	-0.114298	-0.225446	
0.733292	1.96686	5	0	-0.441839	-0.967714	-0.609613	-0.513042	-0.55429	-0.012801	-0.320672	-1.14837	-0.217655	0.15998	0.638396	-0.913965	0.130898	-0.9474	0.225406	-0.124613	0.154909	-0.291348	0.072278	-0.325757	0.422638	-1.11494	0.17389	-1.19894	0.088077	-0.429211	0.011921	-0.603554	-0.768927	-0.453121	-0.1126	-0.240836	
0.736186	1.96838	5	0	-0.443184	-0.975463	-0.604567	-0.527303	-0.561954	-0.007793	-0.325314	-1.14796	-0.222697	0.166565	0.639819	-0.917987	0.125786	-0.95144	0.228666	-0.133828	0.151722	-0.290963	0.0735232	-0.329277	0.418991	-1.11433	0.175157	-1.20253	0.0823465	-0.434698	0.0108277	-0.609473	-0.782065	-0.456111	-0.113723	-0.24825	
0.738867	1.96991	5	0	-0.444529	-0.983213	-0.599521	-0.541563	-0.569619	-0.002785	-0.329956	-1.14755	-0.227739	0.17315	0.641242	-0.922009	0.120674	-0.95548	0.231927	-0.143043	0.148535	-0.290579	0.0747685	-0.332796	0.415345	-1.11372	0.176424	-1.20611	0.076616	-0.440186	0.0097345	-0.615393	-0.795203	-0.459101	-0.114845	-0.255663	
0.741426	1.96228	5	0	-0.445874	-0.990962	-0.594475	-0.555824	-0.577283	0.002223	-0.334599	-1.14714	-0.23278	0.179734	0.642665	-0.926031	0.115563	-0.959521	0.235187	-0.152257	0.145349	-0.290195	0.0760137	-0.336315	0.411698	-1.11311	0.177692	-1.20969	0.0708855	-0.445674	0.00864125	-0.621312	-0.80834	-0.462092	-0.115968	-0.263076	
0.743956	1.96991	5	0	-0.447219	-0.998711	-0.589429	-0.570084	-0.584947	0.007231	-0.339241	-1.14673	-0.237822	0.186319	0.644088	-0.930053	0.110451	-0.963561	0.238448	-0.161472	0.142162	-0.28981	0.077259	-0.339835	0.408051	-1.1125	0.178959	-1.21327	0.065155	-0.451161	0.007548	-0.627231	-0.821478	-0.465082	-0.11709	-0.27049	
0.746549	1.96686	5	0	-0.449914	-1.01417	-0.583133	-0.587878	-0.600255	0.0172335	-0.339057	-1.15995	-0.248394	0.193227	0.638666	-0.929601	0.102792	-0.969613	0.223927	-0.163774	0.140539	-0.29384	0.0714412	-0.336033	0.405223	-1.1142	0.178959	-1.21327	0.0635648	-0.457498	0.00416675	-0.626679	-0.827149	-0.469082	-0.118214	-0.277892	
0.749296	1.9638	5	0	-0.45261	-1.02964	-0.576837	-0.605671	-0.615563	0.027236	-0.338873	-1.17317	-0.258966	0.200136	0.633244	-0.929148	0.095134	-0.975664	0.209406	-0.166077	0.138916	-0.297869	0.0656235	-0.332232	0.402394	-1.1159	0.178959	-1.21327	0.0619745	-0.463836	0.0007855	-0.626127	-0.83282	-0.473082	-0.119339	-0.285295	
0.752257	1.96686	5	0	-0.455305	-1.0451	-0.570541	-0.623464	-0.630871	0.0372385	-0.33869	-1.18639	-0.269539	0.207044	0.627823	-0.928696	0.0874755	-0.981716	0.194886	-0.16838	0.137293	-0.301898	0.0598057	-0.328431	0.399566	-1.1176	0.178959	-1.21327	0.0603843	-0.470174	-0.00259575	-0.625575	-0.838492	-0.477083	-0.120463	-0.292697	
0.755402	1.96533	5	0	-0.458001	-1.06056	-0.564245	-0.641258	-0.646179	0.047241	-0.338506	-1.19961	-0.280111	0.213952	0.622401	-0.928244	0.079817	-0.987768	0.180365	-0.170682	0.13567	-0.305928	0.053988	-0.324629	0.396738	-1.1193	0.178959	-1.21327	0.058794	-0.476511	-0.005977	-0.625023	-0.844163	-0.481083	-0.121587	-0.3001	
0.758681	1.9638	5	0	-0.463666	-1.0676	-0.571632	-0.647355	-0.653823	0.0522357	-0.340735	-1.20601	-0.286395	0.216413	0.626664	-0.940294	0.073015	-0.9962	0.180803	-0.182739	0.130085	-0.307365	0.057721	-0.335179	0.39837	-1.12392	0.181492	-1.22043	0.0448137	-0.480266	-0.0112102	-0.628229	-0.85089	-0.492073	-0.130569	-0.306419	
0.762046	1.96533	5	0	-0.469331	-1.07464	-0.579019	-0.653452	-0.661466	0.0572305	-0.342965	-1.2124	-0.292679	0.218873	0.630928	-0.952343	0.066213	-1.00463	0.18124	-0.194796	0.124499	-0.308801	0.061454	-0.345729	0.400002	-1.12853	0.184025	-1.22759	0.0308335	-0.484021	-0.0164435	-0.631436	-0.857617	-0.503063	-0.139551	-0.312738	
0.765448	1.9638	5	0	-0.474996	-1.08168	-0.586406	-0.65955	-0.66911	0.0622253	-0.345195	-1.21879	-0.298962	0.221333	0.635192	-0.964392	0.059411	-1.01306	0.181678	-0.206852	0.118914	-0.310238	0.065187	-0.356279	0.401635	-1.13314	0.186558	-1.23475	0.0168533	-0.487776	-0.0216767	-0.634642	-0.864343	-0.514053	-0.148533	-0.319056	
0.768838	1.9638	5	0	-0.480661	-1.08872	-0.593793	-0.665647	-0.676754	0.06722	-0.347424	-1.22518	-0.305246	0.223794	0.639455	-0.976442	0.052609	-1.0215	0.182116	-0.218909	0.113328	-0.311675	0.06892	-0.366829	0.403267	-1.13776	0.189091	-1.24191	0.002873	-0.491531	-0.02691	-0.637848	-0.87107	-0.525043	-0.157515	-0.325375	
0.772144	1.9638	5	0	-0.479673	-1.09152	-0.592537	-0.669196	-0.684391	0.07221	-0.342786	-1.22559	-0.308764	0.226093	0.631196	-0.967959	0.0475155	-1.02551	0.181467	-0.227886	0.104629	-0.304296	0.0722498	-0.363599	0.400818	-1.13083	0.186558	-1.23475	0.004566	-0.496316	-0.0295247	-0.63945	-0.877612	-0.526529	-0.165361	-0.324306	
0.775182	1.95618	5	0	-0.478685	-1.09431	-0.591282	-0.672744	-0.692028	0.0772	-0.338148	-1.22601	-0.312283	0.228391	0.622936	-0.959476	0.042422	-1.02953	0.180817	-0.236864	0.0959295	-0.296917	0.0755795	-0.360368	0.398369	-1.12391	0.184025	-1.22759	0.006259	-0.5011	-0.0321395	-0.641051	-0.884154	-0.528015	-0.173208	-0.323237	
0.777733	1.9638	5	0	-0.477697	-1.0971	-0.590026	-0.676293	-0.699664	0.08219	-0.33351	-1.22643	-0.315801	0.23069	0.614676	-0.950992	0.0373285	-1.03355	0.180168	-0.245842	0.0872303	-0.289537	0.0789093	-0.357137	0.395921	-1.11699	0.181492	-1.22043	0.007952	-0.505885	-0.0347543	-0.642653	-0.890695	-0.529502	-0.181054	-0.322168	
0.779581	1.95923	5	0	-0.476709	-1.09989	-0.58877	-0.679842	-0.707301	0.08718	-0.328872	-1.22684	-0.319319	0.232989	0.606417	-0.942509	0.032235	-1.03757	0.179518	-0.254819	0.078531	-0.282158	0.082239	-0.353907	0.393472	-1.11007	0.178959	-1.21327	0.009645	-0.51067	-0.037369	-0.644255	-0.897237	-0.530988	-0.1889	-0.321099	
0.78051	1.95923	5	0	-0.48533	-1.09855	-0.587515	-0.683389	-0.714931	0.0921657	-0.339348	-1.22261	-0.323593	0.237428	0.606417	-0.942509	0.020383	-1.03166	0.172815	-0.257482	0.078531	-0.282158	0.0797488	-0.34687	0.395483	-1.10606	0.185336	-1.20366	0.007952	-0.505885	-0.0396545	-0.637795	-0.902713	-0.52549	-0.193753	-0.317928	
0.780301	1.9577	5	0	-0.493952	-1.09721	-0.58626	-0.686937	-0.722561	0.0971515	-0.349823	-1.21838	-0.327867	0.241866	0.606417	-0.942509	0.008531	-1.02575	0.166112	-0.260145	0.078531	-0.282158	0.0772585	-0.339832	0.397494	-1.10205	0.191714	-1.19405	0.006259	-0.5011	-0.04194	-0.631336	-0.908189	-0.519992	-0.198605	-0.314757	
0.778783	1.95923	5	0	-0.502574	-1.09587	-0.585005	-0.690484	-0.730192	0.102137	-0.360298	-1.21415	-0.332142	0.246304	0.606417	-0.942509	-0.003321	-1.01984	0.159408	-0.262808	0.078531	-0.282158	0.0747682	-0.332794	0.399505	-1.09804	0.198091	-1.18444	0.004566	-0.496316	-0.0442255	-0.624876	-0.913666	-0.514494	-0.203458	-0.311586	
0.776208	1.95618	5	0	-0.511195	-1.09452	-0.58375	-0.694032	-0.737822	0.107123	-0.370774	-1.20992	-0.336416	0.250743	0.606417	-0.942509	-0.015173	-1.01394	0.152705	-0.265471	0.078531	-0.282158	0.072278	-0.325757	0.401516	-1.09403	0.204468	-1.17483	0.002873	-0.491531	-0.046511	-0.618416	-0.919142	-0.508996	-0.208311	-0.308415	
0.773076	1.95923	5	0	-0.511195	-1.09452	-0.597402	-0.682384	-0.746201	0.11424	-0.370774	-1.20992	-0.339931	0.25304	0.606417	-0.942509	-0.016868	-1.01833	0.154864	-0.271573	0.0706193	-0.276988	0.0780997	-0.329561	0.400698	-1.09172	0.209565	-1.1754	-0.00125125	-0.490675	-0.0498852	-0.617867	-0.924616	-0.503499	-0.215209	-0.30999	
0.769887	1.95923	5	0	-0.511195	-1.09452	-0.611054	-0.670736	-0.75458	0.121358	-0.370774	-1.20992	-0.343447	0.255337	0.606417	-0.942509	-0.018563	-1.02273	0.157024	-0.277676	0.0627075	-0.271819	0.0839215	-0.333365	0.399881	-1.08941	0.214662	-1.17597	-0.0053755	-0.48982	-0.0532595	-0.617318	-0.93009	-0.498001	-0.222107	-0.311565	
0.767143	1.95618	5	0	-0.511195	-1.09452	-0.624706	-0.659088	-0.76296	0.128475	-0.370774	-1.20992	-0.346963	0.257634	0.606417	-0.942509	-0.020258	-1.02712	0.159183	-0.283778	0.0547958	-0.266649	0.0897432	-0.337169	0.399064	-1.0871	0.219758	-1.17654	-0.00949975	-0.488965	-0.0566337	-0.616769	-0.935564	-0.492504	-0.229005	-0.31314	
0.765346	1.95923	5	0	-0.511195	-1.09452	-0.638358	-0.64744	-0.771339	0.135593	-0.370774	-1.20992	-0.350478	0.259931	0.606417	-0.942509	-0.021953	-1.03152	0.161342	-0.28988	0.046884	-0.261479	0.095565	-0.340973	0.398246	-1.08479	0.224855	-1.17711	-0.013624	-0.488109	-0.060008	-0.61622	-0.941038	-0.487007	-0.235903	-0.314715	
0.764965	1.95923	5	0	-0.51317	-1.08894	-0.642127	-0.63679	-0.770583	0.133457	-0.374386	-1.19971	-0.350478	0.259931	0.604996	-0.938493	-0.0227972	-1.02913	0.158532	-0.292732	0.0461035	-0.259274	0.0943192	-0.337452	0.396611	-1.08017	0.222314	-1.16993	-0.0153175	-0.483323	-0.0649045	-0.611365	-0.947394	-0.479012	-0.245589	-0.308386	
0.765995	1.9577	5	0	-0.515145	-1.08336	-0.645895	-0.626139	-0.769827	0.131321	-0.377998	-1.1895	-0.350478	0.259931	0.603575	-0.934476	-0.0236415	-1.02675	0.155721	-0.295583	0.045323	-0.257068	0.0930735	-0.333932	0.394976	-1.07555	0.219772	-1.16275	-0.017011	-0.478538	-0.069801	-0.60651	-0.95375	-0.471017	-0.255275	-0.302057	
0.768054	1.95618	5	0	-0.51712	-1.07778	-0.649664	-0.615488	-0.769071	0.129184	-0.38161	-1.1793	-0.350478	0.259931	0.602154	-0.930459	-0.0244858	-1.02436	0.152911	-0.298435	0.0445425	-0.254862	0.0918277	-0.330411	0.393341	-1.07093	0.217231	-1.15556	-0.0187045	-0.473752	-0.0746975	-0.601655	-0.960107	-0.463021	-0.264962	-0.295727	
0.770749	1.95465	5	0	-0.519095	-1.0722	-0.653433	-0.604838	-0.768315	0.127048	-0.385222	-1.16909	-0.350478	0.259931	0.600733	-0.926443	-0.02533	-1.02198	0.1501	-0.301287	0.043762	-0.252657	0.090582	-0.32689	0.391706	-1.06631	0.21469	-1.14838	-0.020398	-0.468966	-0.079594	-0.5968	-0.966463	-0.455026	-0.274648	-0.289398	
0.773691	1.95618	5	0	-0.5234	-1.07153	-0.659625	-0.600792	-0.775932	0.132025	-0.391056	-1.16528	-0.353235	0.260087	0.5939	-0.921978	-0.0320918	-1.02123	0.147291	-0.304137	0.0405893	-0.252279	0.083514	-0.319564	0.392524	-1.06862	0.212147	-1.1412	-0.02294	-0.461782	-0.0792728	-0.588725	-0.969117	-0.447524	-0.278554	-0.288872	
0.776486	1.95618	5	0	-0.527706	-1.07086	-0.665816	-0.596746	-0.783548	0.137001	-0.39689	-1.16146	-0.355992	0.260243	0.587066	-0.917513	-0.0388535	-1.02048	0.144482	-0.306986	0.0374165	-0.251902	0.076446	-0.312238	0.393342	-1.07093	0.209603	-1.13401	-0.025482	-0.454599	-0.0789515	-0.58065	-0.971772	-0.440023	-0.282461	-0.288345	
0.778748	1.9577	5	0	-0.532012	-1.0702	-0.672007	-0.5927	-0.791165	0.141978	-0.402723	-1.15765	-0.358748	0.260398	0.580232	-0.913048	-0.0456152	-1.01972	0.141673	-0.309835	0.0342438	-0.251524	0.069378	-0.304911	0.394159	-1.07324	0.20706	-1.12682	-0.028024	-0.447415	-0.0786302	-0.572574	-0.974426	-0.432522	-0.286367	-0.287818	
0.78032	1.95465	5	0	-0.536317	-1.06953	-0.678199	-0.588654	-0.798782	0.146955	-0.408557	-1.15384	-0.361505	0.260554	0.573399	-0.908583	-0.052377	-1.01897	0.138864	-0.312685	0.031071	-0.251146	0.06231	-0.297585	0.394977	-1.07555	0.204517	-1.11963	-0.030566	-0.440231	-0.078309	-0.564499	-0.977081	-0.42502	-0.290274	-0.287292	
0.781366	1.95312	5	0	-0.53533	-1.07232	-0.679456	-0.585101	-0.802588	0.149442	-0.409762	-1.15044	-0.361505	0.260554	0.576241	-0.916614	-0.0515335	-1.02136	0.136056	-0.315532	0.0294595	-0.255177	0.064802	-0.304628	0.389325	-1.07896	0.200694	-1.12266	-0.0338393	-0.441774	-0.0850498	-0.56341	-0.982552	-0.419522	-0.297148	-0.288876	
0.782077	1.95465	5	0	-0.534342	-1.07511	-0.680713	-0.581548	-0.806393	0.151929	-0.410967	-1.14703	-0.361505	0.260554	0.579082	-0.924645	-0.05069	-1.02374	0.133249	-0.318379	0.027848	-0.259208	0.067294	-0.311671	0.383674	-1.08237	0.196871	-1.12569	-0.0371125	-0.443318	-0.0917905	-0.56232	-0.988022	-0.414023	-0.304022	-0.290459	
0.782643	1.9577	5	0	-0.533355	-1.0779	-0.681971	-0.577995	-0.810199	0.154415	-0.412171	-1.14363	-0.361505	0.260554	0.581924	-0.932676	-0.0498465	-1.02613	0.130441	-0.321227	0.0262365	-0.263239	0.069786	-0.318714	0.378022	-1.08578	0.193047	-1.12872	-0.0403857	-0.444862	-0.0985313	-0.56123	-0.993493	-0.408525	-0.310896	-0.292042	
0.783252	1.95007	5	0	-0.532368	-1.08069	-0.683228	-0.574442	-0.814005	0.156902	-0.413376	-1.14022	-0.361505	0.260554	0.584766	-0.940707	-0.049003	-1.02851	0.127634	-0.324074	0.024625	-0.26727	0.072278	-0.325757	0.37237	-1.08919	0.189224	-1.13174	-0.043659	-0.446405	-0.105272	-0.560141	-0.998963	-0.403027	-0.31777	-0.293626	
0.784096	1.9577	5	0	-0.534343	-1.07511	-0.685744	-0.567332	-0.814005	0.156902	-0.416994	-1.13	-0.361505	0.260554	0.576518	-0.932231	-0.0498465	-1.02613	0.127634	-0.324074	0.0230135	-0.271297	0.0677055	-0.325475	0.370362	-1.0932	0.182862	-1.12759	-0.0445063	-0.44401	-0.101903	-0.560685	-0.990675	-0.406519	-0.322601	-0.290469	
0.785253	1.95312	5	0	-0.536318	-1.06953	-0.68826	-0.560221	-0.814005	0.156902	-0.420612	-1.11977	-0.361505	0.260554	0.568269	-0.923755	-0.05069	-1.02374	0.127634	-0.324074	0.021402	-0.275324	0.063133	-0.325193	0.368355	-1.09721	0.176501	-1.12343	-0.0453535	-0.441615	-0.098533	-0.56123	-0.982387	-0.41001	-0.327432	-0.287312	
0.786465	1.95312	5	0	-0.538293	-1.06394	-0.690776	-0.553111	-0.814005	0.156902	-0.424229	-1.10955	-0.361505	0.260554	0.560021	-0.915278	-0.0515335	-1.02136	0.127634	-0.324074	0.0197905	-0.279352	0.0585605	-0.324911	0.366347	-1.10122	0.170139	-1.11927	-0.0462007	-0.439221	-0.0951635	-0.561775	-0.9741	-0.413502	-0.332263	-0.284156	
0.787414	1.95312	5	0	-0.540268	-1.05836	-0.693292	-0.546001	-0.814005	0.156902	-0.427847	-1.09932	-0.361505	0.260554	0.551772	-0.906802	-0.052377	-1.01897	0.127634	-0.324074	0.018179	-0.283379	0.053988	-0.324629	0.36434	-1.10523	0.163777	-1.11512	-0.047048	-0.436826	-0.091794	-0.562319	-0.965812	-0.416993	-0.337094	-0.280999	
0.787779	1.95465	5	0	-0.54457	-1.0577	-0.699479	-0.541958	-0.817053	0.157252	-0.439502	-1.09171	-0.360748	0.258414	0.553192	-0.910817	-0.0549118	-1.02098	0.127634	-0.324074	0.0118432	-0.282624	0.0481743	-0.32083	0.362333	-1.10923	0.163777	-1.11512	-0.0504395	-0.427241	-0.0930047	-0.549915	-0.970244	-0.404469	-0.341755	-0.267825	
0.787242	1.95465	5	0	-0.548872	-1.05703	-0.705666	-0.537915	-0.820102	0.157602	-0.451157	-1.08409	-0.35999	0.256275	0.554613	-0.914832	-0.0574465	-1.02299	0.127634	-0.324074	0.0055075	-0.281868	0.0423605	-0.317031	0.360326	-1.11324	0.163777	-1.11512	-0.053831	-0.417656	-0.0942155	-0.537511	-0.974675	-0.391946	-0.346417	-0.254652	
0.785482	1.9516	5	0	-0.553175	-1.05637	-0.711854	-0.533872	-0.82315	0.157952	-0.462813	-1.07648	-0.359233	0.254135	0.556034	-0.918846	-0.0599812	-1.025	0.127634	-0.324074	-0.00082825	-0.281113	0.0365468	-0.313232	0.358319	-1.11725	0.163777	-1.11512	-0.0572225	-0.408072	-0.0954263	-0.525106	-0.979106	-0.379422	-0.351079	-0.241478	
0.782256	1.95465	5	0	-0.557477	-1.0557	-0.718041	-0.529829	-0.826198	0.158302	-0.474468	-1.06886	-0.358476	0.251995	0.557454	-0.922861	-0.062516	-1.02701	0.127634	-0.324074	-0.007164	-0.280358	0.030733	-0.309433	0.356312	-1.12125	0.163777	-1.11512	-0.060614	-0.398487	-0.096637	-0.512702	-0.983538	-0.366898	-0.35574	-0.228304	
0.777853	1.9516	5	0	-0.559453	-1.05012	-0.720559	-0.522713	-0.826198	0.158302	-0.473472	-1.05902	-0.355719	0.251839	0.56144	-0.919292	-0.0608252	-1.02262	0.130441	-0.321227	-0.0063855	-0.282558	0.030733	-0.309433	0.354305	-1.12525	0.159961	-1.11814	-0.0614622	-0.396089	-0.0974012	-0.510542	-0.981609	-0.362375	-0.353709	-0.223547	
0.772786	1.95007	5	0	-0.561428	-1.04453	-0.723077	-0.515597	-0.826198	0.158302	-0.472476	-1.04917	-0.352963	0.251683	0.565427	-0.915722	-0.0591345	-1.01822	0.133249	-0.318379	-0.005607	-0.284759	0.030733	-0.309433	0.352299	-1.12926	0.156145	-1.12117	-0.0623105	-0.393691	-0.0981655	-0.508382	-0.97968	-0.357852	-0.351679	-0.21879	
0.767575	1.95007	5	0	-0.563404	-1.03895	-0.725595	-0.508481	-0.826198	0.158302	-0.471481	-1.03933	-0.350206	0.251526	0.569413	-0.912153	-0.0574438	-1.01383	0.136056	-0.315532	-0.0048285	-0.286959	0.030733	-0.309433	0.350293	-1.13326	0.15233	-1.1242	-0.0631587	-0.391294	-0.0989298	-0.506222	-0.977752	-0.353329	-0.349648	-0.214033	
0.762735	1.94702	5	0	-0.56538	-1.03337	-0.728113	-0.501365	-0.826198	0.158302	-0.470485	-1.02949	-0.347449	0.25137	0.573399	-0.908583	-0.055753	-1.00943	0.138864	-0.312685	-0.00405	-0.28916	0.030733	-0.309433	0.348286	-1.13726	0.148514	-1.12723	-0.064007	-0.388896	-0.099694	-0.504062	-0.975823	-0.348806	-0.347617	-0.209276	
0.758783	1.94855	5	0	-0.564045	-1.02565	-0.725706	-0.494723	-0.82315	0.157952	-0.469493	-1.01963	-0.340417	0.246775	0.58138	-0.901433	-0.054907	-1.00265	0.137356	-0.297635	-0.0048285	-0.286959	0.0340558	-0.306192	0.348286	-1.13726	0.147243	-1.12364	-0.062435	-0.382545	-0.100148	-0.493794	-0.971076	-0.342258	-0.358056	-0.190271	
0.756178	1.94855	5	0	-0.56271	-1.01793	-0.723299	-0.488081	-0.820102	0.157602	-0.4685	-1.00976	-0.333384	0.242179	0.589361	-0.894283	-0.054061	-0.995861	0.135848	-0.282585	-0.005607	-0.284759	0.0373785	-0.302951	0.348286	-1.13726	0.145973	-1.12005	-0.060863	-0.376194	-0.100601	-0.483525	-0.96633	-0.335709	-0.368494	-0.171266	
0.754878	1.94855	5	0	-0.561375	-1.01021	-0.720893	-0.48144	-0.817053	0.157252	-0.467508	-0.999901	-0.326352	0.237584	0.597343	-0.887132	-0.053215	-0.989075	0.13434	-0.267536	-0.0063855	-0.282558	0.0407013	-0.299709	0.348286	-1.13726	0.144703	-1.11646	-0.059291	-0.369842	-0.101055	-0.473257	-0.961583	-0.329161	-0.378933	-0.15226	
0.754585	1.94549	5	0	-0.56004	-1.00249	-0.718486	-0.474798	-0.814005	0.156902	-0.466516	-0.990039	-0.319319	0.232989	0.605324	-0.879982	-0.052369	-0.982289	0.132832	-0.252486	-0.007164	-0.280358	0.044024	-0.296468	0.348286	-1.13726	0.143432	-1.11287	-0.057719	-0.363491	-0.101508	-0.462989	-0.956836	-0.322613	-0.389371	-0.133255	
0.754998	1.94702	5	0	-0.554747	-1.00594	-0.713556	-0.475279	-0.813249	0.154766	-0.456055	-0.994244	-0.315801	0.23069	0.6039	-0.875957	-0.048988	-0.982662	0.14061	-0.252874	-0.003218	-0.282936	0.044024	-0.296468	0.34628	-1.14126	0.140889	-1.11948	-0.057719	-0.363491	-0.099667	-0.459201	-0.955796	-0.315563	-0.389221	-0.123183	
0.755818	1.94702	5	0	-0.549453	-1.0094	-0.708625	-0.475761	-0.812493	0.152631	-0.445595	-0.998449	-0.312283	0.228391	0.602475	-0.871931	-0.045607	-0.983035	0.148389	-0.253262	0.000728	-0.285515	0.044024	-0.296468	0.344274	-1.14526	0.138346	-1.1261	-0.057719	-0.363491	-0.097826	-0.455412	-0.954756	-0.308513	-0.389071	-0.113112	
0.756743	1.94855	5	0	-0.544159	-1.01286	-0.703695	-0.476243	-0.811738	0.150495	-0.435134	-1.00265	-0.308764	0.226093	0.60105	-0.867905	-0.042226	-0.983408	0.156168	-0.25365	0.004674	-0.288093	0.044024	-0.296468	0.342267	-1.14926	0.135804	-1.13271	-0.057719	-0.363491	-0.095985	-0.451623	-0.953716	-0.301464	-0.388921	-0.10304	
0.757497	1.94855	5	0	-0.538866	-1.01632	-0.698764	-0.476724	-0.810982	0.148359	-0.424673	-1.00686	-0.305246	0.223794	0.599626	-0.86388	-0.038845	-0.983781	0.163946	-0.254038	0.00862	-0.290671	0.044024	-0.296468	0.340261	-1.15325	0.133261	-1.13933	-0.057719	-0.363491	-0.094144	-0.447835	-0.952676	-0.294414	-0.388771	-0.092968	
0.758029	1.94855	5	0	-0.538866	-1.01632	-0.701288	-0.469591	-0.810982	0.148359	-0.421254	-1.00383	-0.300969	0.219354	0.603619	-0.860296	-0.0346168	-0.986544	0.164594	-0.245063	0.00862	-0.290671	0.0427778	-0.292946	0.341075	-1.15556	0.13453	-1.14291	-0.0568697	-0.365891	-0.0975162	-0.447295	-0.944363	-0.297912	-0.389708	-0.0903198	
0.758429	1.94855	5	0	-0.538866	-1.01632	-0.703812	-0.462458	-0.810982	0.148359	-0.417835	-1.0008	-0.296692	0.214915	0.607613	-0.856712	-0.0303885	-0.989307	0.165242	-0.236088	0.00862	-0.290671	0.0415315	-0.289424	0.341889	-1.15786	0.135798	-1.1465	-0.0560205	-0.368291	-0.100889	-0.446756	-0.93605	-0.30141	-0.390645	-0.0876715	
0.758786	1.94549	5	0	-0.538866	-1.01632	-0.706336	-0.455325	-0.810982	0.148359	-0.414416	-0.997773	-0.292415	0.210475	0.611607	-0.853127	-0.0261602	-0.992069	0.16589	-0.227112	0.00862	-0.290671	0.0402852	-0.285901	0.342704	-1.16016	0.137067	-1.15009	-0.0551713	-0.370692	-0.104261	-0.446217	-0.927737	-0.304908	-0.391582	-0.0850232	
0.759191	1.94397	5	0	-0.538866	-1.01632	-0.70886	-0.448192	-0.810982	0.148359	-0.410997	-0.994744	-0.288138	0.206035	0.6156	-0.849543	-0.021932	-0.994832	0.166538	-0.218137	0.00862	-0.290671	0.039039	-0.282379	0.343518	-1.16246	0.138336	-1.15367	-0.054322	-0.373092	-0.107633	-0.445677	-0.919424	-0.308406	-0.392519	-0.082375	
0.759735	1.94397	5	0	-0.545149	-1.01007	-0.715052	-0.444146	-0.810226	0.146224	-0.4251	-0.980262	-0.281094	0.201432	0.611319	-0.837445	-0.0236227	-0.990054	0.168266	-0.212209	0.007062	-0.286269	0.04361	-0.282657	0.344332	-1.16476	0.138336	-1.15367	-0.054322	-0.373092	-0.107633	-0.445677	-0.926698	-0.297848	-0.38956	-0.080235	
0.760501	1.94855	5	0	-0.551432	-1.00381	-0.721244	-0.440101	-0.809471	0.144089	-0.439203	-0.965779	-0.27405	0.196829	0.607039	-0.825346	-0.0253135	-0.985275	0.169995	-0.206281	0.005504	-0.281866	0.048181	-0.282934	0.345145	-1.16706	0.138336	-1.15367	-0.054322	-0.373092	-0.107633	-0.445677	-0.933972	-0.287291	-0.386601	-0.078095	
0.761472	1.94549	5	0	-0.557715	-0.997555	-0.727435	-0.436055	-0.808716	0.141953	-0.453307	-0.951296	-0.267006	0.192227	0.602758	-0.813248	-0.0270043	-0.980497	0.171724	-0.200353	0.003946	-0.277463	0.052752	-0.283212	0.345959	-1.16936	0.138336	-1.15367	-0.054322	-0.373092	-0.107633	-0.445677	-0.941247	-0.276733	-0.383642	-0.075955	
0.762561	1.94702	5	0	-0.563998	-0.9913	-0.733627	-0.432009	-0.80796	0.139818	-0.46741	-0.936814	-0.259962	0.187624	0.598477	-0.801149	-0.028695	-0.975719	0.173452	-0.194425	0.002388	-0.273061	0.057323	-0.28349	0.346773	-1.17166	0.138336	-1.15367	-0.054322	-0.373092	-0.107633	-0.445677	-0.948521	-0.266175	-0.380683	-0.073815	
0.763677	1.94549	5	0	-0.565332	-0.999024	-0.732365	-0.435576	-0.816322	0.146923	-0.469608	-0.943277	-0.262728	0.187787	0.594487	-0.804744	-0.0253145	-0.985273	0.174535	-0.197486	0.002388	-0.273061	0.052752	-0.283212	0.346773	-1.17166	0.135792	-1.16027	-0.05929	-0.369846	-0.112535	-0.44081	-0.950303	-0.261138	-0.387393	-0.065355	
0.764729	1.94244	5	0	-0.566666	-1.00675	-0.731102	-0.439144	-0.824684	0.154029	-0.471806	-0.94974	-0.265494	0.187949	0.590498	-0.808339	-0.021934	-0.994827	0.175619	-0.200547	0.002388	-0.273061	0.048181	-0.282934	0.346773	-1.17166	0.133247	-1.16687	-0.064258	-0.366599	-0.117438	-0.435943	-0.952085	-0.256101	-0.394103	-0.056895	
0.765628	1.94549	5	0	-0.567999	-1.01447	-0.72984	-0.442711	-0.833045	0.161135	-0.474004	-0.956203	-0.268259	0.188111	0.586508	-0.811935	-0.0185535	-1.00438	0.176702	-0.203608	0.002388	-0.273061	0.04361	-0.282657	0.346773	-1.17166	0.130703	-1.17348	-0.069226	-0.363353	-0.12234	-0.431075	-0.953868	-0.251064	-0.400812	-0.048435	
0.766285	1.94244	5	0	-0.569333	-1.0222	-0.728578	-0.446278	-0.841407	0.16824	-0.476202	-0.962666	-0.271025	0.188274	0.582518	-0.81553	-0.015173	-1.01394	0.177785	-0.206669	0.002388	-0.273061	0.039039	-0.282379	0.346773	-1.17166	0.128159	-1.18008	-0.074194	-0.360107	-0.127242	-0.426208	-0.95565	-0.246027	-0.407522	-0.039975	
0.766646	1.94092	5	0	-0.57462	-1.01874	-0.732242	-0.449365	-0.841407	0.16824	-0.476202	-0.962666	-0.267503	0.185972	0.589362	-0.820002	-0.0194013	-1.01117	0.181681	-0.206862	0.00950625	-0.276019	0.0481842	-0.282936	0.351223	-1.17457	0.13324	-1.18064	-0.07831	-0.359263	-0.13061	-0.425671	-0.94451	-0.247493	-0.415305	-0.0389652	
0.766693	1.94397	5	0	-0.579906	-1.01529	-0.735907	-0.452453	-0.841407	0.16824	-0.476202	-0.962666	-0.26398	0.183671	0.596206	-0.824474	-0.0236295	-1.00841	0.185578	-0.207055	0.0166245	-0.278977	0.0573295	-0.283493	0.355673	-1.17747	0.13832	-1.18121	-0.082426	-0.358418	-0.133979	-0.425134	-0.93337	-0.24896	-0.423088	-0.0379555	
0.766412	1.94549	5	0	-0.585193	-1.01183	-0.739571	-0.45554	-0.841407	0.16824	-0.476202	-0.962666	-0.260458	0.181369	0.603051	-0.828947	-0.0278578	-1.00565	0.189474	-0.207247	0.0237427	-0.281935	0.0664747	-0.284049	0.360122	-1.18038	0.1434	-1.18178	-0.086542	-0.357573	-0.137347	-0.424598	-0.92223	-0.250426	-0.430871	-0.0369457	
0.765787	1.94244	5	0	-0.59048	-1.00838	-0.743235	-0.458627	-0.841407	0.16824	-0.476202	-0.962666	-0.256935	0.179067	0.609895	-0.833419	-0.032086	-1.00288	0.193371	-0.20744	0.030861	-0.284893	0.07562	-0.284606	0.364572	-1.18329	0.148481	-1.18234	-0.090658	-0.356729	-0.140715	-0.424061	-0.91109	-0.251893	-0.438654	-0.035936	
0.764803	1.94397	5	0	-0.591468	-1.00558	-0.749418	-0.454587	-0.845963	0.172859	-0.486646	-0.958473	-0.256178	0.176928	0.60704	-0.825352	-0.0278578	-1.00565	0.187308	-0.201124	0.0340862	-0.276834	0.0764518	-0.274299	0.364953	-1.17469	0.154846	-1.17272	-0.0873913	-0.355173	-0.142247	-0.419731	-0.911837	-0.239764	-0.435702	-0.0337892	
0.763446	1.94244	5	0	-0.592457	-1.00279	-0.755601	-0.450547	-0.85052	0.177478	-0.49709	-0.954279	-0.255421	0.174789	0.604186	-0.817284	-0.0236295	-1.00841	0.181245	-0.194808	0.0373115	-0.268775	0.0772835	-0.263992	0.365333	-1.16609	0.161212	-1.16309	-0.0841245	-0.353618	-0.14378	-0.415401	-0.912584	-0.227636	-0.43275	-0.0316425	
0.761778	1.93939	5	0	-0.593446	-0.999997	-0.761783	-0.446507	-0.855077	0.182098	-0.507535	-0.950085	-0.254664	0.172651	0.601332	-0.809217	-0.0194013	-1.01117	0.175182	-0.188493	0.0405368	-0.260716	0.0781152	-0.253684	0.365713	-1.15749	0.167577	-1.15347	-0.0808577	-0.352062	-0.145312	-0.411071	-0.913332	-0.215507	-0.429797	-0.0294958	
0.75997	1.94397	5	0	-0.594434	-0.997203	-0.767966	-0.442467	-0.859633	0.186717	-0.517979	-0.945892	-0.253907	0.170512	0.598477	-0.801149	-0.015173	-1.01394	0.169119	-0.182177	0.043762	-0.252657	0.078947	-0.243377	0.366094	-1.1489	0.173942	-1.14384	-0.077591	-0.350506	-0.146844	-0.406741	-0.914079	-0.203379	-0.426845	-0.027349	
0.758199	1.94092	5	0	-0.597741	-0.999337	-0.766705	-0.44603	-0.863432	0.189199	-0.516768	-0.949313	-0.253907	0.170512	0.598477	-0.801149	-0.0143285	-1.01632	0.169119	-0.182177	0.0422008	-0.248245	0.076447	-0.236312	0.369733	-1.1495	0.173942	-1.14384	-0.083406	-0.344861	-0.152509	-0.399709	-0.908428	-0.1993	-0.432611	-0.021542	
0.75664	1.94092	5	0	-0.601047	-1.00147	-0.765445	-0.449593	-0.867231	0.191682	-0.515558	-0.952734	-0.253907	0.170512	0.598477	-0.801149	-0.013484	-1.01871	0.169119	-0.182177	0.0406395	-0.243833	0.073947	-0.229247	0.373373	-1.15011	0.173942	-1.14384	-0.089221	-0.339215	-0.158174	-0.392676	-0.902777	-0.195221	-0.438378	-0.015735	
0.755473	1.93939	5	0	-0.604354	-1.00361	-0.764184	-0.453156	-0.87103	0.194164	-0.514347	-0.956155	-0.253907	0.170512	0.598477	-0.801149	-0.0126395	-1.0211	0.169119	-0.182177	0.0390783	-0.23942	0.071447	-0.222181	0.377012	-1.15072	0.173942	-1.14384	-0.095036	-0.333569	-0.163839	-0.385644	-0.897126	-0.191143	-0.444144	-0.009928	
0.75487	1.93939	5	0	-0.607661	-1.00574	-0.762923	-0.456719	-0.874829	0.196646	-0.513137	-0.959576	-0.253907	0.170512	0.598477	-0.801149	-0.011795	-1.02348	0.169119	-0.182177	0.037517	-0.235008	0.068947	-0.215116	0.380652	-1.15133	0.173942	-1.14384	-0.100851	-0.327924	-0.169504	-0.378612	-0.891475	-0.187064	-0.449911	-0.004121	
0.754855	1.93939	5	0	-0.608649	-1.00295	-0.764184	-0.453156	-0.874073	0.19451	-0.518959	-0.955772	-0.250383	0.168209	0.605327	-0.805625	-0.011795	-1.02348	0.169119	-0.182177	0.0391288	-0.23097	0.0722745	-0.211854	0.379022	-1.14672	0.177763	-1.14082	-0.0941867	-0.33597	-0.163839	-0.385644	-0.89788	-0.17899	-0.450985	-0.0115712	
0.755216	1.94092	5	0	-0.609638	-1.00015	-0.765445	-0.449593	-0.873317	0.192375	-0.52478	-0.951968	-0.246859	0.165907	0.612177	-0.810101	-0.011795	-1.02348	0.169119	-0.182177	0.0407405	-0.226932	0.075602	-0.208593	0.377391	-1.14211	0.181583	-1.13779	-0.0875225	-0.344016	-0.158174	-0.392676	-0.904285	-0.170916	-0.452059	-0.0190215	
0.755723	1.94092	5	0	-0.610626	-0.997362	-0.766705	-0.44603	-0.872562	0.190239	-0.530602	-0.948164	-0.243335	0.163604	0.619026	-0.814576	-0.011795	-1.02348	0.169119	-0.182177	0.0423523	-0.222893	0.0789295	-0.205331	0.37576	-1.1375	0.185403	-1.13477	-0.0808582	-0.352061	-0.152509	-0.399709	-0.91069	-0.162843	-0.453132	-0.0264718	
0.756143	1.93939	5	0	-0.611614	-0.994569	-0.767966	-0.442467	-0.871806	0.188103	-0.536424	-0.94436	-0.239811	0.161301	0.625876	-0.819052	-0.011795	-1.02348	0.169119	-0.182177	0.043964	-0.218855	0.082257	-0.202069	0.37413	-1.13289	0.189224	-1.13174	-0.074194	-0.360107	-0.146844	-0.406741	-0.917095	-0.154769	-0.454206	-0.033922	
0.756247	1.94244	5	0	-0.610626	-0.997362	-0.766705	-0.44603	-0.878643	0.190929	-0.536424	-0.94436	-0.240568	0.16344	0.619026	-0.814576	-0.0126395	-1.0211	0.165225	-0.181987	0.0455757	-0.214813	0.0797532	-0.194993	0.376139	-1.12889	0.190502	-1.12152	-0.074194	-0.360107	-0.144242	-0.40511	-0.910549	-0.153209	-0.456218	-0.038715	
0.755804	1.93634	5	0	-0.609638	-1.00015	-0.765445	-0.449593	-0.885481	0.193755	-0.536424	-0.94436	-0.241324	0.165579	0.612177	-0.810101	-0.013484	-1.01871	0.161332	-0.181797	0.0471875	-0.21077	0.0772495	-0.187916	0.378148	-1.12488	0.19178	-1.1113	-0.074194	-0.360107	-0.141641	-0.403479	-0.904003	-0.151648	-0.45823	-0.043508	
0.754763	1.93481	5	0	-0.608649	-1.00295	-0.764184	-0.453156	-0.892319	0.196582	-0.536424	-0.94436	-0.242081	0.167717	0.605327	-0.805625	-0.0143285	-1.01632	0.157438	-0.181607	0.0487993	-0.206728	0.0747457	-0.180839	0.380158	-1.12088	0.193058	-1.10108	-0.074194	-0.360107	-0.13904	-0.401849	-0.897457	-0.150088	-0.460241	-0.048301	
0.753377	1.93481	5	0	-0.607661	-1.00574	-0.762923	-0.456719	-0.899156	0.199408	-0.536424	-0.94436	-0.242838	0.169856	0.598477	-0.801149	-0.015173	-1.01394	0.153545	-0.181417	0.050411	-0.202686	0.072242	-0.173763	0.382167	-1.11688	0.194336	-1.09086	-0.074194	-0.360107	-0.136438	-0.400218	-0.890911	-0.148528	-0.462253	-0.053094	
0.751935	1.93481	5	0	-0.610966	-1.00787	-0.766582	-0.459803	-0.903705	0.204022	-0.539822	-0.947397	-0.242838	0.169856	0.595913	-0.808775	-0.0177122	-1.01595	0.150737	-0.184288	0.050411	-0.202686	0.072242	-0.173763	0.383799	-1.12149	0.191787	-1.09749	-0.07831	-0.359263	-0.139806	-0.399683	-0.895528	-0.145511	-0.464265	-0.0578815	
0.750722	1.93481	5	0	-0.61427	-1.01001	-0.77024	-0.462888	-0.908255	0.208637	-0.54322	-0.950433	-0.242838	0.169856	0.59335	-0.816402	-0.0202515	-1.01796	0.147929	-0.187159	0.050411	-0.202686	0.072242	-0.173763	0.385431	-1.1261	0.189238	-1.10411	-0.082426	-0.358418	-0.143174	-0.399148	-0.900146	-0.142493	-0.466276	-0.062669	
0.750024	1.93634	5	0	-0.617574	-1.01214	-0.773899	-0.465973	-0.912805	0.213251	-0.546618	-0.95347	-0.242838	0.169856	0.590787	-0.824028	-0.0227907	-1.01997	0.145121	-0.19003	0.050411	-0.202686	0.072242	-0.173763	0.387062	-1.13071	0.186688	-1.11074	-0.086542	-0.357573	-0.146541	-0.398613	-0.904764	-0.139476	-0.468288	-0.0674565	
0.750127	1.93481	5	0	-0.620879	-1.01427	-0.777557	-0.469057	-0.917354	0.217865	-0.550016	-0.956507	-0.242838	0.169856	0.588223	-0.831654	-0.02533	-1.02198	0.142313	-0.192901	0.050411	-0.202686	0.072242	-0.173763	0.388694	-1.13532	0.184139	-1.11737	-0.090658	-0.356729	-0.149909	-0.398078	-0.909381	-0.136459	-0.4703	-0.072244	
0.751113	1.93786	5	0	-0.621867	-1.01148	-0.783731	-0.465023	-0.91811	0.220001	-0.55583	-0.952708	-0.243595	0.171995	0.588223	-0.831654	-0.0244858	-1.02436	0.144477	-0.199018	0.0528052	-0.200852	0.0793278	-0.181114	0.388694	-1.13532	0.184139	-1.11737	-0.088112	-0.363924	-0.149909	-0.398078	-0.90759	-0.141522	-0.466559	-0.0828157	
0.752712	1.93481	5	0	-0.622854	-1.00869	-0.789905	-0.460989	-0.918866	0.222137	-0.561644	-0.948909	-0.244352	0.174134	0.588223	-0.831654	-0.0236415	-1.02675	0.146642	-0.205135	0.0551995	-0.199018	0.0864135	-0.188465	0.388694	-1.13532	0.184139	-1.11737	-0.085566	-0.37112	-0.149909	-0.398078	-0.905798	-0.146585	-0.462819	-0.0933875	
0.754621	1.93786	5	0	-0.623842	-1.0059	-0.796079	-0.456955	-0.919621	0.224272	-0.567458	-0.94511	-0.245109	0.176274	0.588223	-0.831654	-0.0227972	-1.02913	0.148807	-0.211252	0.0575937	-0.197183	0.0934992	-0.195815	0.388694	-1.13532	0.184139	-1.11737	-0.08302	-0.378315	-0.149909	-0.398078	-0.904007	-0.151647	-0.459078	-0.103959	
0.756533	1.93481	5	0	-0.62483	-1.00311	-0.802253	-0.452921	-0.920377	0.226408	-0.573272	-0.941311	-0.245866	0.178413	0.588223	-0.831654	-0.021953	-1.03152	0.150971	-0.217369	0.059988	-0.195349	0.100585	-0.203166	0.388694	-1.13532	0.184139	-1.11737	-0.080474	-0.38551	-0.149909	-0.398078	-0.902216	-0.15671	-0.455337	-0.114531	
0.758145	1.93634	5	0	-0.635381	-0.996215	-0.800994	-0.45648	-0.92796	0.231363	-0.579082	-0.937515	-0.242341	0.176109	0.58537	-0.82359	-0.020258	-1.02712	0.150971	-0.217369	0.058423	-0.190926	0.0993327	-0.199627	0.387878	-1.13302	0.185415	-1.10714	-0.077206	-0.383958	-0.143172	-0.399149	-0.898494	-0.157196	-0.454402	-0.117172	
0.759151	1.93481	5	0	-0.645931	-0.989321	-0.799735	-0.460038	-0.935542	0.236318	-0.584892	-0.933719	-0.238815	0.173806	0.582517	-0.815527	-0.018563	-1.02273	0.150971	-0.217369	0.056858	-0.186503	0.0980805	-0.196088	0.387062	-1.13071	0.18669	-1.09692	-0.073938	-0.382406	-0.136434	-0.40022	-0.894772	-0.157683	-0.453468	-0.119813	
0.759375	1.93176	5	0	-0.656482	-0.982426	-0.798475	-0.463596	-0.943125	0.241272	-0.590701	-0.929922	-0.235289	0.171502	0.579663	-0.807463	-0.016868	-1.01833	0.150971	-0.217369	0.055293	-0.182079	0.0968282	-0.192549	0.386247	-1.12841	0.187966	-1.08669	-0.07067	-0.380855	-0.129697	-0.401291	-0.89105	-0.158169	-0.452533	-0.122454	
0.758906	1.93481	5	0	-0.667033	-0.975532	-0.797216	-0.467155	-0.950708	0.246227	-0.596511	-0.926126	-0.231764	0.169198	0.57681	-0.799399	-0.015173	-1.01394	0.150971	-0.217369	0.053728	-0.177656	0.095576	-0.18901	0.385431	-1.1261	0.189242	-1.07646	-0.067402	-0.379303	-0.12296	-0.402362	-0.887328	-0.158655	-0.451599	-0.125095	
0.75787	1.93176	5	0	-0.663736	-0.973393	-0.804645	-0.459565	-0.949952	0.244091	-0.600141	-0.915867	-0.224709	0.164588	0.582227	-0.799836	-0.0117877	-1.01431	0.149889	-0.214311	0.053728	-0.177656	0.0968282	-0.192549	0.382606	-1.1278	0.191788	-1.08366	-0.0665533	-0.381701	-0.125261	-0.395858	-0.89105	-0.158169	-0.450665	-0.127735	
0.756392	1.92871	5	0	-0.660438	-0.971254	-0.812074	-0.451975	-0.949196	0.241955	-0.603771	-0.905608	-0.217653	0.159977	0.587643	-0.800274	-0.0084025	-1.01469	0.148807	-0.211253	0.053728	-0.177656	0.0980805	-0.196088	0.379781	-1.1295	0.194334	-1.09086	-0.0657045	-0.3841	-0.127562	-0.389354	-0.894772	-0.157683	-0.44973	-0.130376	
0.754596	1.93024	5	0	-0.65714	-0.969115	-0.819502	-0.444386	-0.948441	0.23982	-0.607401	-0.895349	-0.210597	0.155367	0.59306	-0.800712	-0.00501725	-1.01506	0.147725	-0.208195	0.053728	-0.177656	0.0993327	-0.199627	0.376955	-1.1312	0.196881	-1.09805	-0.0648557	-0.386498	-0.129864	-0.382851	-0.898494	-0.157196	-0.448796	-0.133016	
0.75261	1.93024	5	0	-0.653843	-0.966976	-0.826931	-0.436796	-0.947685	0.237684	-0.611031	-0.88509	-0.203542	0.150757	0.598477	-0.801149	-0.001632	-1.01544	0.146643	-0.205137	0.053728	-0.177656	0.100585	-0.203166	0.37413	-1.13289	0.199427	-1.10525	-0.064007	-0.388896	-0.132165	-0.376347	-0.902216	-0.15671	-0.447862	-0.135656	
0.750558	1.93176	5	0	-0.647242	-0.962693	-0.81963	-0.430612	-0.940102	0.232729	-0.605467	-0.87556	-0.196481	0.146143	0.60104	-0.79351	-0.000781	-1.00865	0.148368	-0.199207	0.0600847	-0.178407	0.0993327	-0.199627	0.380217	-1.14041	0.199427	-1.10525	-0.0648557	-0.386498	-0.132932	-0.374178	-0.901321	-0.15924	-0.443976	-0.136165	
0.748575	1.93176	5	0	-0.64064	-0.958411	-0.812328	-0.424428	-0.932519	0.227774	-0.599903	-0.866031	-0.189419	0.141529	0.603603	-0.785871	7E-05	-1.00186	0.150094	-0.193277	0.0664415	-0.179159	0.0980805	-0.196088	0.386305	-1.14793	0.199427	-1.10525	-0.0657045	-0.3841	-0.133699	-0.372009	-0.900425	-0.16177	-0.44009	-0.136675	
0.746791	1.93024	5	0	-0.634039	-0.954128	-0.805026	-0.418245	-0.924937	0.22282	-0.594338	-0.856501	-0.182358	0.136915	0.606166	-0.778232	0.000921	-0.995068	0.151819	-0.187347	0.0727983	-0.179911	0.0968282	-0.192549	0.392392	-1.15545	0.199427	-1.10525	-0.0665533	-0.381701	-0.134467	-0.369841	-0.89953	-0.164301	-0.436205	-0.137185	
0.745341	1.93329	5	0	-0.627438	-0.949846	-0.797725	-0.412061	-0.917354	0.217865	-0.588774	-0.846971	-0.175296	0.132301	0.608729	-0.770593	0.001772	-0.988277	0.153545	-0.181417	0.079155	-0.180662	0.095576	-0.18901	0.398479	-1.16298	0.199427	-1.10525	-0.067402	-0.379303	-0.135234	-0.367672	-0.898635	-0.166831	-0.432319	-0.137694	
0.744356	1.92718	5	0	-0.629418	-0.94425	-0.798987	-0.408495	-0.914316	0.217522	-0.585383	-0.843913	-0.164693	0.125373	0.608427	-0.754844	0.00940225	-0.982228	0.15527	-0.17548	0.083167	-0.17477	0.0943232	-0.18547	0.396033	-1.15606	0.201978	-1.09861	-0.064132	-0.37775	-0.134167	-0.361695	-0.887461	-0.168295	-0.4303	-0.13292	
0.743968	1.93329	5	0	-0.631398	-0.938655	-0.800248	-0.404929	-0.911277	0.217178	-0.581993	-0.840855	-0.154091	0.118445	0.608125	-0.739096	0.0170325	-0.976178	0.156996	-0.169542	0.087179	-0.168878	0.0930705	-0.181929	0.393587	-1.14915	0.204529	-1.09198	-0.060862	-0.376197	-0.133101	-0.355718	-0.876288	-0.169758	-0.428282	-0.128145	
0.744224	1.93176	5	0	-0.633378	-0.933059	-0.801509	-0.401364	-0.908239	0.216835	-0.578602	-0.837798	-0.143488	0.111517	0.607823	-0.723348	0.0246628	-0.970128	0.158721	-0.163604	0.091191	-0.162987	0.0918178	-0.178389	0.39114	-1.14224	0.20708	-1.08535	-0.057592	-0.374645	-0.132034	-0.349741	-0.865115	-0.171221	-0.426264	-0.123371	
0.744996	1.93329	5	0	-0.635358	-0.927464	-0.802771	-0.397798	-0.905201	0.216492	-0.575211	-0.83474	-0.132885	0.104589	0.607521	-0.707599	0.032293	-0.964079	0.160446	-0.157667	0.095203	-0.157095	0.090565	-0.174848	0.388694	-1.13532	0.209631	-1.07871	-0.054322	-0.373092	-0.130968	-0.343764	-0.853941	-0.172685	-0.424245	-0.118597	
0.746139	1.92871	5	0	-0.631065	-0.928117	-0.797855	-0.398268	-0.893809	0.209048	-0.57764	-0.827876	-0.115184	0.093023	0.610079	-0.699923	0.0407825	-0.960417	0.167153	-0.154978	0.105543	-0.160444	0.0964025	-0.178663	0.390325	-1.13993	0.212178	-1.08591	-0.054322	-0.373092	-0.130968	-0.343764	-0.849316	-0.175707	-0.42518	-0.115954	
0.747504	1.92871	5	0	-0.626772	-0.92877	-0.792939	-0.398737	-0.882417	0.201604	-0.580069	-0.821012	-0.0974835	0.081457	0.612638	-0.692248	0.049272	-0.956754	0.173861	-0.152288	0.115884	-0.163792	0.10224	-0.182477	0.391956	-1.14454	0.214726	-1.09311	-0.054322	-0.373092	-0.130968	-0.343764	-0.844691	-0.178729	-0.426115	-0.11331	
0.748945	1.92871	5	0	-0.622479	-0.929424	-0.788023	-0.399207	-0.871025	0.194161	-0.582498	-0.814147	-0.0797827	0.069891	0.615197	-0.684572	0.0577615	-0.953091	0.180568	-0.149599	0.126224	-0.16714	0.108078	-0.186291	0.393587	-1.14915	0.217274	-1.10031	-0.054322	-0.373092	-0.130968	-0.343764	-0.840066	-0.181751	-0.427051	-0.110667	
0.750315	1.93024	5	0	-0.618186	-0.930077	-0.783107	-0.399677	-0.859633	0.186717	-0.584927	-0.807283	-0.062082	0.058325	0.617755	-0.676896	0.066251	-0.949429	0.187275	-0.14691	0.136564	-0.170489	0.113915	-0.190106	0.395218	-1.15376	0.219821	-1.10751	-0.054322	-0.373092	-0.130968	-0.343764	-0.835441	-0.184773	-0.427986	-0.108024	
0.751582	1.93176	5	0	-0.611574	-0.925783	-0.780714	-0.393007	-0.843665	0.174641	-0.57353	-0.801519	-0.047895	0.0490548	0.62431	-0.665571	0.0747538	-0.945763	0.197895	-0.144408	0.138968	-0.16865	0.121009	-0.197463	0.396848	-1.15837	0.221094	-1.11111	-0.0534727	-0.375492	-0.135106	-0.34106	-0.827976	-0.185756	-0.419268	-0.111688	
0.752937	1.93024	5	0	-0.604962	-0.921489	-0.778321	-0.386336	-0.827696	0.162565	-0.562134	-0.795754	-0.033708	0.0397845	0.630864	-0.654246	0.0832565	-0.942097	0.208515	-0.141907	0.141372	-0.166811	0.128104	-0.204821	0.398478	-1.16297	0.222366	-1.11471	-0.0526235	-0.377891	-0.139244	-0.338356	-0.820511	-0.18674	-0.41055	-0.115351	
0.754597	1.92871	5	0	-0.59835	-0.917194	-0.775928	-0.379666	-0.811727	0.150488	-0.550737	-0.78999	-0.019521	0.0305142	0.637418	-0.642922	0.0917593	-0.938431	0.219135	-0.139406	0.143776	-0.164972	0.135198	-0.212178	0.400108	-1.16758	0.223639	-1.1183	-0.0517743	-0.380291	-0.143383	-0.335652	-0.813046	-0.187724	-0.401832	-0.119015	
0.756781	1.93024	5	0	-0.591738	-0.9129	-0.773535	-0.372996	-0.795759	0.138412	-0.539341	-0.784226	-0.005334	0.021244	0.643973	-0.631597	0.100262	-0.934765	0.229755	-0.136904	0.14618	-0.163133	0.142292	-0.219535	0.401738	-1.17219	0.224912	-1.1219	-0.050925	-0.382691	-0.147521	-0.332948	-0.805581	-0.188707	-0.393114	-0.122679	
0.759707	1.92871	5	0	-0.59802	-0.90664	-0.773535	-0.372996	-0.796515	0.140548	-0.546388	-0.776976	0.00811925	0.0140985	0.64365	-0.615743	0.104521	-0.928313	0.226492	-0.127683	0.153398	-0.15761	0.136451	-0.215718	0.403752	-1.16819	0.226193	-1.11167	-0.0517743	-0.380291	-0.149058	-0.328604	-0.783876	-0.179477	-0.398878	-0.116879	
0.763592	1.92871	5	0	-0.604302	-0.90038	-0.773535	-0.372996	-0.79727	0.142684	-0.553435	-0.769726	0.0215725	0.006953	0.643328	-0.599889	0.108779	-0.921861	0.223229	-0.118462	0.160616	-0.152086	0.130609	-0.211901	0.405766	-1.16419	0.227474	-1.10144	-0.0526235	-0.377891	-0.150595	-0.324261	-0.762172	-0.170246	-0.404642	-0.111079	
0.768503	1.93176	5	0	-0.610584	-0.89412	-0.773535	-0.372996	-0.798026	0.144819	-0.560482	-0.762476	0.0350258	-0.0001925	0.643005	-0.584036	0.113037	-0.915409	0.219967	-0.109241	0.167835	-0.146562	0.124768	-0.208084	0.407779	-1.16019	0.228756	-1.0912	-0.0534727	-0.375492	-0.152132	-0.319917	-0.740468	-0.161016	-0.410406	-0.10528	
0.7741	1.93329	5	0	-0.616866	-0.88786	-0.773535	-0.372996	-0.798782	0.146955	-0.567529	-0.755226	0.048479	-0.007338	0.642682	-0.568182	0.117296	-0.908957	0.216704	-0.10002	0.175053	-0.141039	0.118926	-0.204267	0.409793	-1.1562	0.230037	-1.08097	-0.054322	-0.373092	-0.153669	-0.315573	-0.718763	-0.151785	-0.41617	-0.09948	
0.779974	1.93024	5	0	-0.606283	-0.894775	-0.773535	-0.372996	-0.791165	0.141978	-0.564136	-0.75215	0.0599095	-0.016452	0.650681	-0.560868	0.124111	-0.909713	0.211713	-0.0967585	0.17348	-0.136595	0.118926	-0.204267	0.410608	-1.1585	0.228762	-1.07737	-0.05929	-0.369846	-0.158574	-0.310697	-0.697875	-0.13998	-0.427831	-0.0979585	
0.785718	1.92871	5	0	-0.5957	-0.90169	-0.773535	-0.372996	-0.783548	0.137001	-0.560742	-0.749073	0.07134	-0.025566	0.658681	-0.553555	0.130927	-0.91047	0.206722	-0.093497	0.171908	-0.132151	0.118926	-0.204267	0.411423	-1.16081	0.227487	-1.07377	-0.064258	-0.366599	-0.163479	-0.305822	-0.676986	-0.128174	-0.439493	-0.096437	
0.790926	1.93176	5	0	-0.585116	-0.908606	-0.773535	-0.372996	-0.775932	0.132025	-0.557349	-0.745996	0.0827705	-0.03468	0.666681	-0.546241	0.137742	-0.911226	0.20173	-0.0902355	0.170336	-0.127707	0.118926	-0.204267	0.412239	-1.16311	0.226212	-1.07016	-0.069226	-0.363353	-0.168384	-0.300947	-0.656098	-0.116369	-0.451155	-0.0949155	
0.795189	1.93024	5	0	-0.574533	-0.915521	-0.773535	-0.372996	-0.768315	0.127048	-0.553956	-0.74292	0.094201	-0.043794	0.67468	-0.538928	0.144557	-0.911982	0.196739	-0.086974	0.168763	-0.123263	0.118926	-0.204267	0.413054	-1.16542	0.224937	-1.06656	-0.074194	-0.360107	-0.173289	-0.296071	-0.635209	-0.104564	-0.462816	-0.093394	
0.798151	1.93176	5	0	-0.577511	-0.907105	-0.774799	-0.369423	-0.761447	0.124203	-0.554222	-0.729495	0.107696	-0.0509665	0.674344	-0.523001	0.143708	-0.900324	0.197375	-0.0779258	0.176776	-0.11995	0.117673	-0.200727	0.415068	-1.16142	0.224935	-1.05269	-0.074194	-0.360107	-0.178192	-0.291196	-0.61046	-0.093217	-0.467633	-0.0902463	
0.799866	1.92718	5	0	-0.580489	-0.89869	-0.776064	-0.36585	-0.75458	0.121358	-0.554488	-0.71607	0.121191	-0.058139	0.674009	-0.507074	0.14286	-0.888665	0.19801	-0.0688775	0.184788	-0.116637	0.116421	-0.197186	0.417083	-1.15742	0.224934	-1.03882	-0.074194	-0.360107	-0.183095	-0.286322	-0.585711	-0.08187	-0.47245	-0.0870985	
0.800593	1.92718	5	0	-0.583467	-0.890274	-0.777328	-0.362277	-0.747713	0.118513	-0.554753	-0.702644	0.134685	-0.0653115	0.673673	-0.491148	0.142011	-0.877007	0.198646	-0.0598293	0.192801	-0.113323	0.115168	-0.193646	0.419098	-1.15342	0.224932	-1.02495	-0.074194	-0.360107	-0.187999	-0.281448	-0.560963	-0.070523	-0.477268	-0.0839508	
0.800588	1.93176	5	0	-0.586445	-0.881858	-0.778592	-0.358704	-0.740845	0.115668	-0.555019	-0.689219	0.14818	-0.072484	0.673337	-0.475221	0.141162	-0.865349	0.199281	-0.050781	0.200814	-0.11001	0.113915	-0.190106	0.421112	-1.14942	0.22493	-1.01109	-0.074194	-0.360107	-0.192902	-0.276573	-0.536214	-0.059176	-0.482085	-0.080803	
0.800113	1.93329	5	0	-0.594719	-0.869976	-0.78604	-0.35109	-0.732459	0.108546	-0.557462	-0.682315	0.155315	-0.077146	0.678444	-0.459661	0.148841	-0.859245	0.199914	-0.0417177	0.201693	-0.0951692	0.115996	-0.183293	0.41703	-1.13788	0.232579	-0.991051	-0.0792935	-0.345695	-0.19079	-0.264573	-0.509375	-0.0431493	-0.490643	-0.067079	
0.799423	1.92871	5	0	-0.602993	-0.858093	-0.793487	-0.343476	-0.724073	0.101424	-0.559905	-0.675411	0.162449	-0.081808	0.683551	-0.444102	0.156521	-0.853141	0.200547	-0.0326545	0.202573	-0.0803285	0.118076	-0.176481	0.412948	-1.12634	0.240229	-0.971017	-0.084393	-0.331284	-0.188677	-0.252573	-0.482536	-0.0271225	-0.4992	-0.053355	
0.798776	1.93024	5	0	-0.611266	-0.84621	-0.800934	-0.335861	-0.715687	0.094302	-0.562347	-0.668506	0.169584	-0.08647	0.688659	-0.428542	0.1642	-0.847037	0.201179	-0.0235913	0.203453	-0.0654877	0.120156	-0.169668	0.408866	-1.11481	0.247878	-0.950983	-0.0894925	-0.316872	-0.186565	-0.240573	-0.455697	-0.0110958	-0.507758	-0.039631	
0.798265	1.93024	5	0	-0.61954	-0.834328	-0.808382	-0.328247	-0.707301	0.08718	-0.56479	-0.661602	0.176719	-0.091132	0.693766	-0.412982	0.171879	-0.840933	0.201812	-0.014528	0.204332	-0.050647	0.122237	-0.162856	0.404784	-1.10327	0.255528	-0.930949	-0.094592	-0.30246	-0.184453	-0.228573	-0.428858	0.004931	-0.516316	-0.025907	
0.797762	1.93024	5	0	-0.622524	-0.825896	-0.817091	-0.317057	-0.703483	0.0846855	-0.568458	-0.651236	0.187432	-0.0981325	0.696319	-0.405182	0.173587	-0.836481	0.209626	-0.0148907	0.211569	-0.0450795	0.124317	-0.156033	0.406796	-1.09926	0.250394	-0.91644	-0.0904745	-0.303302	-0.186766	-0.222037	-0.412415	0.0199642	-0.521128	-0.0227627	
0.797121	1.92871	5	0	-0.625507	-0.817465	-0.825801	-0.305867	-0.699666	0.082191	-0.572126	-0.640869	0.198145	-0.105133	0.698871	-0.397382	0.175295	-0.832029	0.21744	-0.0152535	0.218805	-0.039512	0.126396	-0.14921	0.408807	-1.09524	0.24526	-0.90193	-0.086357	-0.304144	-0.189078	-0.215502	-0.395972	0.0349975	-0.52594	-0.0196185	
0.796198	1.92566	5	0	-0.62849	-0.809033	-0.83451	-0.294676	-0.695848	0.0796965	-0.575794	-0.630502	0.208859	-0.112133	0.701424	-0.389583	0.177002	-0.827578	0.225253	-0.0156162	0.226042	-0.0339445	0.128476	-0.142388	0.410819	-1.09123	0.240126	-0.88742	-0.0822395	-0.304986	-0.19139	-0.208966	-0.379528	0.0500307	-0.530751	-0.0164742	
0.794849	1.92871	5	0	-0.631474	-0.800601	-0.843219	-0.283486	-0.692031	0.077202	-0.579462	-0.620136	0.219572	-0.119134	0.703977	-0.381783	0.17871	-0.823126	0.233067	-0.015979	0.233279	-0.028377	0.130556	-0.135565	0.412831	-1.08722	0.234992	-0.872911	-0.078122	-0.305828	-0.193703	-0.202431	-0.363085	0.065064	-0.535563	-0.01333	
0.792928	1.93176	5	0	-0.630163	-0.792805	-0.839574	-0.280364	-0.685146	0.074346	-0.576072	-0.617033	0.225964	-0.121665	0.70653	-0.37397	0.183837	-0.819045	0.232606	-0.003805	0.235734	-0.0179498	0.125528	-0.121356	0.409559	-1.07797	0.24008	-0.859469	-0.0815272	-0.296204	-0.193422	-0.194232	-0.346593	0.0801625	-0.537436	-0.00803625	
0.790347	1.93329	5	0	-0.628852	-0.785009	-0.835929	-0.277243	-0.678262	0.07149	-0.572682	-0.61393	0.232356	-0.124197	0.709082	-0.366157	0.188964	-0.814965	0.232145	0.008369	0.23819	-0.0075225	0.120501	-0.107147	0.406287	-1.06872	0.245167	-0.846027	-0.0849325	-0.286581	-0.193142	-0.186034	-0.330101	0.095261	-0.539309	-0.0027425	
0.787222	1.93634	5	0	-0.627541	-0.777213	-0.832283	-0.274121	-0.671377	0.068634	-0.569293	-0.610827	0.238749	-0.126728	0.711634	-0.358344	0.19409	-0.810885	0.231683	0.020543	0.240646	0.00290475	0.115473	-0.0929372	0.403015	-1.05948	0.250254	-0.832585	-0.0883378	-0.276958	-0.192861	-0.177835	-0.313608	0.110359	-0.541183	0.00255125	
0.783714	1.93329	5	0	-0.62623	-0.769417	-0.828638	-0.270999	-0.664493	0.065778	-0.565903	-0.607724	0.245141	-0.129259	0.714187	-0.350531	0.199217	-0.806804	0.231222	0.032717	0.243101	0.013332	0.110445	-0.078728	0.399743	-1.05023	0.255342	-0.819143	-0.091743	-0.267334	-0.192581	-0.169636	-0.297116	0.125458	-0.543056	0.007845	
0.779985	1.92871	5	0	-0.619938	-0.775693	-0.822455	-0.275039	-0.659914	0.0611438	-0.558837	-0.615	0.245898	-0.1314	0.708726	-0.350125	0.198361	-0.804386	0.228406	0.0298055	0.246347	0.0215405	0.106669	-0.068056	0.400933	-1.04389	0.247607	-0.797281	-0.0901808	-0.260948	-0.19385	-0.157055	-0.284409	0.141126	-0.54493	0.013142	
0.776197	1.93481	5	0	-0.613645	-0.781969	-0.816272	-0.279079	-0.655336	0.0565095	-0.551772	-0.622277	0.246656	-0.13354	0.703265	-0.349718	0.197506	-0.801968	0.22559	0.026894	0.249593	0.029749	0.102893	-0.057384	0.402124	-1.03755	0.239871	-0.775419	-0.0886185	-0.254563	-0.195119	-0.144474	-0.271701	0.156795	-0.546804	0.018439	
0.772513	1.93634	5	0	-0.607352	-0.788245	-0.81009	-0.283119	-0.650757	0.0518752	-0.544706	-0.629553	0.247414	-0.135681	0.697805	-0.349311	0.196651	-0.79955	0.222774	0.0239825	0.252839	0.0379575	0.099117	-0.046712	0.403315	-1.03121	0.232135	-0.753558	-0.0870563	-0.248177	-0.196387	-0.131892	-0.258994	0.172463	-0.548679	0.023736	
0.769065	1.94092	5	0	-0.60106	-0.794521	-0.803907	-0.287159	-0.646179	0.047241	-0.53764	-0.636829	0.248171	-0.137821	0.692344	-0.348905	0.195795	-0.797132	0.219958	0.021071	0.256085	0.046166	0.095341	-0.03604	0.404505	-1.02487	0.2244	-0.731696	-0.085494	-0.241791	-0.197656	-0.119311	-0.246287	0.188131	-0.550553	0.029033	
0.765813	1.94397	5	0	-0.605361	-0.793874	-0.803907	-0.287159	-0.645423	0.0451052	-0.535193	-0.643744	0.248171	-0.137821	0.686888	-0.3485	0.196651	-0.79955	0.216051	0.0212495	0.252912	0.0551347	0.0986705	-0.0327405	0.404505	-1.02487	0.221817	-0.724397	-0.0887602	-0.243361	-0.204388	-0.118272	-0.23662	0.191827	-0.546805	0.0184423	
0.762648	1.94549	5	0	-0.609662	-0.793227	-0.803907	-0.287159	-0.644667	0.0429695	-0.532747	-0.650659	0.248171	-0.137821	0.681432	-0.348096	0.197506	-0.801968	0.212143	0.021428	0.249738	0.0641035	0.102	-0.029441	0.404505	-1.02487	0.219234	-0.717097	-0.0920265	-0.244931	-0.21112	-0.117233	-0.226953	0.195523	-0.543058	0.0078515	
0.759463	1.94549	5	0	-0.613962	-0.792581	-0.803907	-0.287159	-0.643912	0.0408338	-0.5303	-0.657574	0.248171	-0.137821	0.675976	-0.347691	0.198361	-0.804386	0.208236	0.0216065	0.246564	0.0730723	0.10533	-0.0261415	0.404505	-1.02487	0.216652	-0.709798	-0.0952927	-0.246501	-0.217853	-0.116193	-0.217286	0.199219	-0.539311	-0.00273925	
0.756149	1.94855	5	0	-0.618263	-0.791934	-0.803907	-0.287159	-0.643156	0.038698	-0.527853	-0.664489	0.248171	-0.137821	0.67052	-0.347286	0.199217	-0.806804	0.204329	0.021785	0.243391	0.082041	0.108659	-0.022842	0.404505	-1.02487	0.214069	-0.702499	-0.098559	-0.248071	-0.224585	-0.115154	-0.207619	0.202915	-0.535563	-0.01333	
0.752597	1.95007	5	0	-0.626856	-0.790644	-0.81009	-0.283119	-0.6508	0.0436928	-0.537087	-0.663767	0.243838	-0.133344	0.669427	-0.359198	0.198362	-0.813676	0.206514	0.0156113	0.240184	0.0824123	0.10407	-0.0225815	0.397213	-1.02367	0.207665	-0.698314	-0.105937	-0.248803	-0.227176	-0.11682	-0.203778	0.20241	-0.536629	-0.0207655	
0.748702	1.9516	5	0	-0.635449	-0.789354	-0.816272	-0.279079	-0.658443	0.0486875	-0.546322	-0.663045	0.239505	-0.128867	0.668333	-0.371111	0.197508	-0.820548	0.208699	0.0094375	0.236976	0.0827835	0.0994805	-0.022321	0.389922	-1.02246	0.20126	-0.694129	-0.113314	-0.249535	-0.229766	-0.118485	-0.199937	0.201904	-0.537695	-0.028201	
0.744358	1.95465	5	0	-0.644041	-0.788065	-0.822455	-0.275039	-0.666087	0.0536823	-0.555556	-0.662324	0.235172	-0.124391	0.667239	-0.383023	0.196654	-0.82742	0.210883	0.00326375	0.233769	0.0831547	0.0948912	-0.0220605	0.38263	-1.02126	0.194856	-0.689944	-0.120692	-0.250267	-0.232356	-0.12015	-0.196095	0.201398	-0.538762	-0.0356365	
0.739463	1.95312	5	0	-0.652634	-0.786775	-0.828638	-0.270999	-0.673731	0.058677	-0.56479	-0.661602	0.230839	-0.119914	0.666146	-0.394935	0.195799	-0.834292	0.213068	-0.00291	0.230562	0.083526	0.090302	-0.0218	0.375339	-1.02005	0.188451	-0.685759	-0.12807	-0.250999	-0.234947	-0.121816	-0.192254	0.200893	-0.539828	-0.043072	
0.733916	1.95312	5	0	-0.661528	-0.79608	-0.833397	-0.284387	-0.685939	0.0682963	-0.580777	-0.667067	0.216552	-0.110578	0.663944	-0.41868	0.188964	-0.84281	0.208532	-0.0117977	0.223327	0.0779158	0.0836507	-0.0283953	0.367689	-1.0275	0.17443	-0.687816	-0.134587	-0.254137	-0.235992	-0.127844	-0.189333	0.202995	-0.546634	-0.0447178	
0.727613	1.9577	5	0	-0.670421	-0.805384	-0.838156	-0.297775	-0.698148	0.0779155	-0.596765	-0.672532	0.202264	-0.101243	0.661741	-0.442425	0.182129	-0.851329	0.203995	-0.0206855	0.216093	0.0723055	0.0769995	-0.0349905	0.360038	-1.03494	0.160408	-0.689872	-0.141105	-0.257275	-0.237038	-0.133873	-0.186413	0.205097	-0.553441	-0.0463635	
0.720454	1.96228	5	0	-0.679315	-0.814688	-0.842916	-0.311163	-0.710357	0.0875347	-0.612753	-0.677997	0.187976	-0.0919068	0.659539	-0.46617	0.175295	-0.859847	0.199459	-0.0295732	0.208859	0.0666952	0.0703483	-0.0415858	0.352388	-1.04239	0.146387	-0.691929	-0.147622	-0.260412	-0.238084	-0.139901	-0.183492	0.207199	-0.560247	-0.0480092	
0.712456	1.95923	5	0	-0.688208	-0.823993	-0.847675	-0.324551	-0.722565	0.097154	-0.62874	-0.683462	0.173689	-0.082571	0.657337	-0.489915	0.16846	-0.868365	0.194922	-0.038461	0.201624	0.061085	0.063697	-0.048181	0.344738	-1.04983	0.132365	-0.693986	-0.15414	-0.26355	-0.239129	-0.145929	-0.180571	0.209301	-0.567053	-0.049655	
0.704032	1.96228	5	0	-0.699069	-0.827673	-0.848792	-0.334797	-0.730947	0.104274	-0.621433	-0.704111	0.163747	-0.0777198	0.655114	-0.513555	0.161633	-0.876864	0.186491	-0.047147	0.19918	0.0506412	0.0583095	-0.058313	0.339545	-1.06417	0.1299	-0.714758	-0.154707	-0.283478	-0.247937	-0.156923	-0.183646	0.197284	-0.562524	-0.0728852	
0.695669	1.96228	5	0	-0.709931	-0.831352	-0.84991	-0.345044	-0.73933	0.111394	-0.614127	-0.72476	0.153804	-0.0728685	0.652892	-0.537195	0.154807	-0.885363	0.178059	-0.055833	0.196736	0.0401975	0.052922	-0.068445	0.334352	-1.07852	0.127436	-0.73553	-0.155275	-0.303407	-0.256745	-0.167918	-0.186721	0.185267	-0.557996	-0.0961155	
0.687858	1.96533	5	0	-0.720792	-0.835032	-0.851028	-0.35529	-0.747713	0.118513	-0.60682	-0.745408	0.143862	-0.0680173	0.65067	-0.560834	0.14798	-0.893861	0.169628	-0.064519	0.194293	0.0297538	0.0475345	-0.078577	0.329159	-1.09286	0.124971	-0.756302	-0.155842	-0.323335	-0.265553	-0.178913	-0.189795	0.173249	-0.553467	-0.119346	
0.681088	1.96228	5	0	-0.731653	-0.838712	-0.852145	-0.365536	-0.756095	0.125633	-0.599514	-0.766057	0.133919	-0.063166	0.648447	-0.584474	0.141153	-0.90236	0.161196	-0.073205	0.191849	0.01931	0.042147	-0.088709	0.323966	-1.1072	0.122506	-0.777074	-0.15641	-0.343263	-0.274361	-0.189907	-0.19287	0.161232	-0.548938	-0.142576	
0.675812	1.97143	5	0	-0.733276	-0.857007	-0.850747	-0.382881	-0.763715	0.130612	-0.608453	-0.77869	0.118916	-0.051717	0.639339	-0.603523	0.138589	-0.91362	0.158839	-0.088189	0.187784	0.00480125	0.0346975	-0.105629	0.323216	-1.1244	0.11366	-0.793604	-0.166881	-0.35666	-0.277502	-0.207901	-0.195028	0.146647	-0.554023	-0.159465	
0.67201	1.97143	5	0	-0.734899	-0.875301	-0.849349	-0.400227	-0.771335	0.135591	-0.617391	-0.791324	0.103913	-0.040268	0.63023	-0.622572	0.136025	-0.92488	0.156482	-0.103173	0.18372	-0.0097075	0.027248	-0.122549	0.322465	-1.1416	0.104815	-0.810134	-0.177352	-0.370058	-0.280643	-0.225895	-0.197186	0.132062	-0.559109	-0.176353	
0.669335	1.96991	5	0	-0.736522	-0.893596	-0.847952	-0.417572	-0.778955	0.14057	-0.62633	-0.803957	0.0889092	-0.028819	0.621121	-0.641621	0.133462	-0.93614	0.154125	-0.118157	0.179655	-0.0242163	0.0197985	-0.139469	0.321715	-1.1588	0.0959695	-0.826663	-0.187824	-0.383456	-0.283784	-0.243889	-0.199344	0.117478	-0.564194	-0.193242	
0.667432	1.96686	5	0	-0.738145	-0.911891	-0.846554	-0.434917	-0.786575	0.145549	-0.635269	-0.81659	0.073906	-0.01737	0.612013	-0.66067	0.130898	-0.9474	0.151768	-0.133141	0.175591	-0.038725	0.012349	-0.156389	0.320965	-1.176	0.087124	-0.843193	-0.198295	-0.396853	-0.286925	-0.261883	-0.201502	0.102893	-0.569279	-0.21013	
0.665949	1.9638	5	0	-0.750609	-0.933747	-0.853712	-0.454814	-0.801795	0.155494	-0.640568	-0.839434	0.056132	-0.005756	0.610057	-0.699824	0.130012	-0.972618	0.139908	-0.153626	0.165928	-0.054661	0.000345	-0.172974	0.310138	-1.19362	0.077045	-0.869936	-0.205377	-0.419729	-0.293422	-0.279288	-0.204751	0.0810937	-0.56773	-0.235317	
0.664534	1.96686	5	0	-0.763073	-0.955604	-0.86087	-0.474711	-0.817014	0.165438	-0.645867	-0.862277	0.038358	0.005858	0.6081	-0.738979	0.129125	-0.997836	0.128049	-0.174112	0.156265	-0.070597	-0.011659	-0.189559	0.299311	-1.21124	0.066966	-0.896679	-0.212459	-0.442605	-0.299919	-0.296694	-0.208	0.0592945	-0.566182	-0.260505	
0.662993	1.97296	5	0	-0.775537	-0.97746	-0.868028	-0.494608	-0.832234	0.175383	-0.651165	-0.88512	0.020584	0.017472	0.606144	-0.778134	0.128238	-1.02305	0.116189	-0.194598	0.146602	-0.086533	-0.023663	-0.206144	0.288483	-1.22885	0.056887	-0.923423	-0.219542	-0.46548	-0.306416	-0.314099	-0.21125	0.0374952	-0.564633	-0.285692	
0.661381	1.97449	5	0	-0.788001	-0.999316	-0.875186	-0.514505	-0.847454	0.185328	-0.656464	-0.907964	0.00281	0.029086	0.604187	-0.817288	0.127352	-1.04827	0.104329	-0.215083	0.136939	-0.102469	-0.035667	-0.222729	0.277656	-1.24647	0.046808	-0.950166	-0.226624	-0.488356	-0.312913	-0.331505	-0.214499	0.015696	-0.563084	-0.310879	
0.659778	1.96838	5	0	-0.788019	-1.03343	-0.868814	-0.545871	-0.862647	0.195255	-0.654784	-0.937882	-0.0177132	0.0408505	0.599332	-0.848143	0.117113	-1.06545	0.093564	-0.238506	0.12964	-0.124985	-0.0439222	-0.249772	0.26846	-1.26857	0.0392673	-0.983919	-0.230358	-0.520597	-0.323512	-0.346162	-0.224503	-0.0075535	-0.567434	-0.340139	
0.658265	1.97143	5	0	-0.788037	-1.06755	-0.862442	-0.577237	-0.877839	0.205182	-0.653104	-0.9678	-0.0382365	0.052615	0.594477	-0.878997	0.106874	-1.08263	0.082799	-0.261929	0.122341	-0.147502	-0.0521775	-0.276814	0.259263	-1.29067	0.0317265	-1.01767	-0.234092	-0.552837	-0.334112	-0.360818	-0.234508	-0.030803	-0.571783	-0.369399	
0.656921	1.97143	5	0	-0.788054	-1.10166	-0.856069	-0.608603	-0.893031	0.21511	-0.651423	-0.997719	-0.0587597	0.0643795	0.589621	-0.909852	0.096635	-1.09981	0.072034	-0.285353	0.115042	-0.170018	-0.0604328	-0.303856	0.250067	-1.31277	0.0241857	-1.05143	-0.237826	-0.585078	-0.344711	-0.375475	-0.244512	-0.0540525	-0.576133	-0.398659	
0.655818	1.97296	5	0	-0.788072	-1.13577	-0.849697	-0.639969	-0.908224	0.225037	-0.649743	-1.02764	-0.079283	0.076144	0.584766	-0.940707	0.086396	-1.11698	0.061269	-0.308776	0.107743	-0.192534	-0.068688	-0.330899	0.24087	-1.33487	0.016645	-1.08518	-0.24156	-0.617319	-0.35531	-0.390132	-0.254516	-0.077302	-0.580482	-0.427919	
0.655013	1.96991	5	0	-0.796289	-1.15801	-0.850753	-0.663669	-0.922634	0.23281	-0.645917	-1.05102	-0.0977338	0.0898458	0.583872	-0.967838	0.0821112	-1.13249	0.052235	-0.32621	0.0957028	-0.210149	-0.0794228	-0.350799	0.234481	-1.3552	0.0191813	-1.11982	-0.248665	-0.639932	-0.368935	-0.396131	-0.262515	-0.095812	-0.588528	-0.44664	
0.654554	1.96991	5	0	-0.804505	-1.18024	-0.851808	-0.687369	-0.937044	0.240584	-0.642092	-1.07441	-0.116184	0.103548	0.582977	-0.994969	0.0778265	-1.14799	0.043201	-0.343645	0.0836625	-0.227764	-0.0901575	-0.370699	0.228092	-1.37553	0.0217175	-1.15446	-0.255771	-0.662545	-0.38256	-0.402131	-0.270514	-0.114322	-0.596574	-0.465361	
0.654494	1.97143	5	0	-0.812722	-1.20248	-0.852864	-0.711069	-0.951454	0.248357	-0.638266	-1.09779	-0.134635	0.117249	0.582083	-1.0221	0.0735418	-1.1635	0.034167	-0.361079	0.0716222	-0.245379	-0.100892	-0.390599	0.221703	-1.39585	0.0242538	-1.1891	-0.262877	-0.685158	-0.396185	-0.40813	-0.278513	-0.132832	-0.604619	-0.484082	
0.654882	1.97143	5	0	-0.820939	-1.22471	-0.85392	-0.734769	-0.965864	0.25613	-0.63444	-1.12117	-0.153086	0.130951	0.581189	-1.04923	0.069257	-1.179	0.025133	-0.378513	0.059582	-0.262994	-0.111627	-0.410499	0.215314	-1.41618	0.02679	-1.22374	-0.269982	-0.707771	-0.40981	-0.414129	-0.286512	-0.151342	-0.612665	-0.502803	
0.65577	1.97143	5	0	-0.826858	-1.242	-0.856239	-0.754861	-0.980247	0.263887	-0.642193	-1.13693	-0.166457	0.138043	0.576036	-1.06428	0.0616102	-1.18496	0.0146177	-0.380955	0.048282	-0.291127	-0.0975855	-0.387365	0.21569	-1.48422	0.0280162	-1.25463	-0.315573	-0.76985	-0.575616	-0.323958	-0.206545	-0.150071	-0.623999	-0.543104	
0.657229	1.97143	5	0	-0.832778	-1.25929	-0.858558	-0.774954	-0.99463	0.271643	-0.649946	-1.15268	-0.179828	0.145134	0.570883	-1.07933	0.0539635	-1.19093	0.0041025	-0.383397	0.036982	-0.319261	-0.083544	-0.36423	0.216066	-1.55227	0.0292425	-1.28553	-0.361163	-0.83193	-0.741422	-0.233787	-0.126578	-0.148801	-0.635333	-0.583405	
0.659333	1.97143	5	0	-0.838697	-1.27658	-0.860877	-0.795046	-1.00901	0.2794	-0.657698	-1.16844	-0.193199	0.152225	0.56573	-1.09438	0.0463168	-1.19689	-0.00641275	-0.385838	0.025682	-0.347394	-0.0695025	-0.341095	0.216441	-1.62031	0.0304688	-1.31643	-0.406753	-0.89401	-0.907228	-0.143616	-0.0466103	-0.14753	-0.646667	-0.623706	
0.662158	1.97143	5	0	-0.844617	-1.29387	-0.863196	-0.815138	-1.0234	0.287156	-0.665451	-1.1842	-0.20657	0.159317	0.560577	-1.10942	0.03867	-1.20285	-0.016928	-0.38828	0.014382	-0.375528	-0.055461	-0.317961	0.216817	-1.68835	0.031695	-1.34732	-0.452344	-0.956089	-1.07303	-0.053445	0.033357	-0.146259	-0.658001	-0.664007	
0.665778	1.97449	5	0	-0.847029	-1.33232	-0.940111	-0.97991	-0.954304	0.240368	-0.76226	-1.29542	-0.303308	0.219238	0.55425	-1.13587	0.00819025	-1.2266	0.02848	-0.387638	-0.00470725	-0.389993	-0.0173045	-0.337493	0.146792	-1.71829	0.0139705	-1.37928	-0.463445	-0.977406	-1.17379	-0.0024405	0.113017	-0.120256	-0.650519	-0.674836	
0.670267	1.97296	5	0	-0.849441	-1.37076	-1.01703	-1.14468	-0.885212	0.19358	-0.859068	-1.40664	-0.400047	0.27916	0.547923	-1.16232	-0.0222895	-1.25034	0.073888	-0.386996	-0.0237965	-0.404458	0.020852	-0.357025	0.076768	-1.74823	-0.003754	-1.41124	-0.474546	-0.998723	-1.27454	0.048564	0.192678	-0.094252	-0.643037	-0.685665	
0.675648	1.97143	5	0	-0.851854	-1.40921	-1.09394	-1.30945	-0.816119	0.146792	-0.955877	-1.51785	-0.496785	0.339081	0.541596	-1.18877	-0.0527692	-1.27409	0.119296	-0.386354	-0.0428858	-0.418922	0.0590085	-0.376558	0.0067435	-1.77817	-0.0214785	-1.4432	-0.485646	-1.02004	-1.3753	0.0995685	0.272338	-0.0682485	-0.635555	-0.696494	
0.681887	1.97296	5	0	-0.854266	-1.44765	-1.17086	-1.47422	-0.747027	0.100004	-1.05269	-1.62907	-0.593524	0.399002	0.535269	-1.21522	-0.083249	-1.29783	0.164704	-0.385712	-0.061975	-0.433387	0.097165	-0.39609	-0.063281	-1.80811	-0.039203	-1.47516	-0.496747	-1.04136	-1.47605	0.150573	0.351999	-0.042245	-0.628073	-0.707323	
0.68895	1.97143	5	0	-0.855011	-1.46814	-1.2613	-1.60585	-0.675053	0.0546162	-1.13383	-1.71648	-0.65956	0.442151	0.53151	-1.23409	-0.09593	-1.31669	0.208303	-0.379057	-0.0698885	-0.436613	0.113781	-0.417743	-0.119123	-1.81936	-0.0531685	-1.51738	-0.487209	-1.02617	-1.48414	0.14763	0.404105	-0.00954525	-0.623663	-0.678464	
0.696803	1.97449	5	0	-0.855757	-1.48862	-1.35175	-1.73748	-0.603079	0.0092285	-1.21497	-1.80389	-0.725596	0.485301	0.527751	-1.25296	-0.108611	-1.33556	0.251901	-0.372402	-0.077802	-0.439838	0.130396	-0.439395	-0.174966	-1.83061	-0.067134	-1.5596	-0.477672	-1.01099	-1.49222	0.144688	0.45621	0.0231545	-0.619254	-0.649606	
0.70541	1.97143	5	0	-0.856502	-1.5091	-1.44219	-1.86911	-0.531105	-0.0361592	-1.29611	-1.89131	-0.791632	0.52845	0.523992	-1.27183	-0.121292	-1.35442	0.2955	-0.365748	-0.0857155	-0.443063	0.147012	-0.461047	-0.230808	-1.84186	-0.0810995	-1.60183	-0.468134	-0.995804	-1.50031	0.141745	0.508316	0.0558543	-0.614844	-0.620747	
0.714712	1.97449	5	0	-0.857247	-1.52959	-1.53264	-2.00074	-0.459131	-0.081547	-1.37725	-1.97872	-0.857668	0.571599	0.520233	-1.2907	-0.133973	-1.37328	0.339098	-0.359093	-0.093629	-0.446289	0.163628	-0.4827	-0.286651	-1.85311	-0.095065	-1.64405	-0.458596	-0.980619	-1.50839	0.138802	0.560422	0.088554	-0.610434	-0.591888	
0.724489	1.97449	5	0	-0.870892	-1.52486	-1.58667	-2.05133	-0.424464	-0.1042	-1.41414	-2.01885	-0.843808	0.562542	0.520233	-1.2907	-0.128084	-1.37171	0.364009	-0.342407	-0.0841068	-0.439072	0.17405	-0.486812	-0.301111	-1.85894	-0.100135	-1.65687	-0.43626	-0.948581	-1.468	0.110767	0.609981	0.119469	-0.588431	-0.550364	
0.734453	1.97906	5	0	-0.884538	-1.52013	-1.6407	-2.10191	-0.389796	-0.126852	-1.45103	-2.05898	-0.829948	0.553486	0.520233	-1.2907	-0.122196	-1.37013	0.388919	-0.32572	-0.0745845	-0.431855	0.184472	-0.490925	-0.315572	-1.86476	-0.105205	-1.6697	-0.413923	-0.916543	-1.42761	0.0827325	0.65954	0.150385	-0.566429	-0.50884	
0.744314	1.97906	5	0	-0.898184	-1.5154	-1.69473	-2.15249	-0.355129	-0.149504	-1.48792	-2.09911	-0.816087	0.54443	0.520233	-1.2907	-0.116307	-1.36856	0.41383	-0.309034	-0.0650623	-0.424637	0.194893	-0.495038	-0.330032	-1.87059	-0.110274	-1.68252	-0.391587	-0.884505	-1.38722	0.0546977	0.709099	0.1813	-0.544427	-0.467316	
0.753783	1.97754	5	0	-0.911829	-1.51067	-1.74876	-2.20307	-0.320462	-0.172157	-1.52481	-2.13924	-0.802227	0.535373	0.520233	-1.2907	-0.110418	-1.36699	0.43874	-0.292347	-0.05554	-0.41742	0.205315	-0.49915	-0.344492	-1.87641	-0.115344	-1.69534	-0.369251	-0.852467	-1.34684	0.026663	0.758658	0.212216	-0.522424	-0.425792	
0.762571	1.98059	5	0	-0.914356	-1.49226	-1.78824	-2.19232	-0.298028	-0.185174	-1.5378	-2.1504	-0.757784	0.507977	0.525396	-1.2758	-0.102763	-1.34301	0.454771	-0.272071	-0.051434	-0.394833	0.217495	-0.482785	-0.346053	-1.872	-0.116525	-1.67844	-0.343701	-0.807698	-1.29558	0.00304275	0.797754	0.252628	-0.499274	-0.37647	
0.770418	1.98212	5	0	-0.916883	-1.47385	-1.82771	-2.18157	-0.275594	-0.19819	-1.5508	-2.16155	-0.71334	0.480581	0.530559	-1.2609	-0.095108	-1.31902	0.470803	-0.251795	-0.047328	-0.372247	0.229675	-0.466421	-0.347614	-1.86759	-0.117705	-1.66153	-0.318152	-0.762929	-1.24433	-0.0205775	0.83685	0.29304	-0.476124	-0.327148	
0.777339	1.97906	5	0	-0.919409	-1.45543	-1.86719	-2.17082	-0.25316	-0.211207	-1.56379	-2.1727	-0.668897	0.453186	0.535723	-1.24599	-0.087453	-1.29504	0.486834	-0.231519	-0.043222	-0.34966	0.241854	-0.450057	-0.349174	-1.86318	-0.118886	-1.64462	-0.292602	-0.71816	-1.19308	-0.0441978	0.875945	0.333453	-0.452973	-0.277825	
0.783516	1.98364	5	0	-0.921936	-1.43702	-1.90667	-2.16007	-0.230726	-0.224224	-1.57679	-2.18386	-0.624453	0.42579	0.540886	-1.23109	-0.079798	-1.27106	0.502865	-0.211243	-0.039116	-0.327073	0.254034	-0.433692	-0.350735	-1.85877	-0.120067	-1.62771	-0.267053	-0.673391	-1.14183	-0.067818	0.915041	0.373865	-0.429823	-0.228503	
0.789129	1.98059	5	0	-0.921221	-1.41648	-1.91706	-2.1307	-0.226855	-0.226753	-1.57792	-2.18067	-0.568492	0.389224	0.53784	-1.20772	-0.0713087	-1.24932	0.517843	-0.187759	-0.0365835	-0.299976	0.262484	-0.406649	-0.343712	-1.84127	-0.127477	-1.59319	-0.246358	-0.624895	-1.09781	-0.0701907	0.930101	0.418086	-0.412412	-0.172777	
0.794362	1.98517	5	0	-0.920505	-1.39594	-1.92745	-2.10133	-0.222984	-0.229283	-1.57905	-2.17748	-0.512532	0.352658	0.534793	-1.18434	-0.0628195	-1.22758	0.532822	-0.164274	-0.034051	-0.272879	0.270933	-0.379605	-0.336689	-1.82378	-0.134887	-1.55867	-0.225663	-0.576399	-1.05379	-0.0725635	0.945161	0.462307	-0.395	-0.117052	
0.799396	1.98059	5	0	-0.91979	-1.3754	-1.93784	-2.07196	-0.219113	-0.231813	-1.58018	-2.17429	-0.456571	0.316092	0.531746	-1.16097	-0.0543302	-1.20584	0.5478	-0.14079	-0.0315185	-0.245781	0.279383	-0.352561	-0.329665	-1.80628	-0.142298	-1.52414	-0.204969	-0.527902	-1.00978	-0.0749363	0.96022	0.506529	-0.377588	-0.0613258	
0.804412	1.98669	5	0	-0.919075	-1.35485	-1.94824	-2.04259	-0.215242	-0.234342	-1.5813	-2.1711	-0.40061	0.279526	0.5287	-1.13759	-0.045841	-1.1841	0.562778	-0.117306	-0.028986	-0.218684	0.287833	-0.325518	-0.322642	-1.78879	-0.149708	-1.48962	-0.184274	-0.479406	-0.965764	-0.077309	0.97528	0.55075	-0.360177	-0.0056	
0.809475	1.98059	5	0	-0.917696	-1.31354	-1.94368	-1.97991	-0.211369	-0.236872	-1.573	-2.13469	-0.337971	0.240242	0.544399	-1.10796	-0.0466315	-1.14521	0.572275	-0.078098	-0.024878	-0.187387	0.308909	-0.295628	-0.309756	-1.75967	-0.138364	-1.45363	-0.167531	-0.440694	-0.927767	-0.0706693	0.996135	0.579001	-0.345891	0.0383997	
0.814445	1.97906	5	0	-0.916318	-1.27223	-1.93912	-1.91724	-0.207497	-0.239403	-1.56469	-2.09829	-0.275333	0.200958	0.560097	-1.07833	-0.047422	-1.10631	0.581773	-0.03889	-0.02077	-0.156091	0.329986	-0.265737	-0.29687	-1.73055	-0.127019	-1.41764	-0.150788	-0.401982	-0.889769	-0.0640295	1.01699	0.607252	-0.331605	0.0823995	
0.819157	1.98364	5	0	-0.914939	-1.23092	-1.93456	-1.85457	-0.203624	-0.241933	-1.55639	-2.06189	-0.212694	0.161673	0.575795	-1.04869	-0.0482125	-1.06741	0.59127	0.000318	-0.016662	-0.124795	0.351062	-0.235847	-0.283985	-1.70143	-0.115675	-1.38165	-0.134045	-0.36327	-0.851772	-0.0573898	1.03784	0.635502	-0.317319	0.126399	
0.823451	1.97906	5	0	-0.91356	-1.18961	-1.93	-1.79189	-0.199751	-0.244464	-1.54809	-2.02549	-0.150056	0.122389	0.591494	-1.01906	-0.049003	-1.02851	0.600767	0.039526	-0.012554	-0.093498	0.372138	-0.205957	-0.271099	-1.67232	-0.10433	-1.34566	-0.117302	-0.324558	-0.813775	-0.05075	1.0587	0.663753	-0.303033	0.170399	
0.827162	1.98364	5	0	-0.902783	-1.15205	-1.91162	-1.72993	-0.193512	-0.245256	-1.5245	-1.98391	-0.0833832	0.0804692	0.600089	-0.969059	-0.0405515	-0.988059	0.617091	0.0818215	-0.00131075	-0.0564168	0.385667	-0.154305	-0.249158	-1.6403	-0.084181	-1.2932	-0.103813	-0.287075	-0.776823	-0.0315988	1.06953	0.698812	-0.286741	0.219735	
0.830128	1.98059	5	0	-0.892007	-1.11448	-1.89323	-1.66796	-0.187273	-0.246047	-1.50091	-1.94232	-0.0167105	0.0385495	0.608685	-0.919056	-0.0321	-0.947607	0.633416	0.124117	0.0099325	-0.0193355	0.399195	-0.102653	-0.227217	-1.60829	-0.064032	-1.24074	-0.090324	-0.249592	-0.739871	-0.0124475	1.08035	0.733872	-0.270448	0.269071	
0.8322	1.98517	5	0	-0.881231	-1.07692	-1.87485	-1.60599	-0.181034	-0.246839	-1.47732	-1.90074	0.0499623	-0.00337025	0.617281	-0.869054	-0.0236485	-0.907155	0.64974	0.166413	0.0211758	0.0177457	0.412724	-0.051001	-0.205277	-1.57628	-0.043883	-1.18829	-0.076835	-0.21211	-0.702919	0.00670375	1.09118	0.768931	-0.254156	0.318407	
0.833394	1.98212	5	0	-0.870454	-1.03936	-1.85647	-1.54403	-0.174795	-0.247631	-1.45372	-1.85916	0.116635	-0.04529	0.625876	-0.819052	-0.015197	-0.866703	0.666064	0.208708	0.032419	0.054827	0.426252	0.000651	-0.183336	-1.54426	-0.023734	-1.13583	-0.063346	-0.174627	-0.665967	0.025855	1.10201	0.80399	-0.237864	0.367743	
0.833847	1.98364	5	0	-0.870489	-1.00516	-1.84273	-1.49376	-0.158516	-0.25991	-1.43892	-1.81637	0.178177	-0.0871487	0.6304	-0.772188	-0.00336725	-0.835575	0.683514	0.248245	0.0460283	0.085477	0.437628	0.0458932	-0.170403	-1.51472	-0.0175047	-1.08473	-0.0572752	-0.137593	-0.632864	0.047796	1.10759	0.832113	-0.22361	0.412655	
0.833698	1.98212	5	0	-0.870525	-0.970954	-1.82899	-1.44349	-0.142238	-0.27219	-1.42411	-1.77359	0.23972	-0.129007	0.634925	-0.725324	0.0084625	-0.804447	0.700964	0.287782	0.0596375	0.116127	0.449003	0.0911355	-0.157471	-1.48517	-0.0112755	-1.03363	-0.0512045	-0.100558	-0.599762	0.069737	1.11318	0.860236	-0.209357	0.457568	
0.833084	1.98364	5	0	-0.870561	-0.936751	-1.81526	-1.39322	-0.125959	-0.284469	-1.4093	-1.73081	0.301262	-0.170866	0.639449	-0.678461	0.0202922	-0.773319	0.718413	0.327318	0.0732467	0.146777	0.460379	0.136378	-0.144538	-1.45562	-0.00504625	-0.982533	-0.0451338	-0.0635242	-0.56666	0.091678	1.11876	0.888359	-0.195104	0.50248	
0.832145	1.98364	5	0	-0.870596	-0.902549	-1.80152	-1.34295	-0.10968	-0.296749	-1.39449	-1.68803	0.362805	-0.212725	0.643973	-0.631597	0.032122	-0.742191	0.735863	0.366855	0.086856	0.177427	0.471755	0.18162	-0.131605	-1.42607	0.001183	-0.931434	-0.039063	-0.02649	-0.533557	0.113619	1.12434	0.916482	-0.18085	0.547392	
0.831019	1.97906	5	0	-0.866424	-0.868772	-1.78663	-1.29554	-0.0839595	-0.310269	-1.37641	-1.64192	0.416042	-0.245866	0.659323	-0.585144	0.043094	-0.708415	0.749315	0.406932	0.09968	0.210554	0.489068	0.22339	-0.116697	-1.39237	0.0174807	-0.880881	-0.0311247	-0.0054575	-0.510288	0.13719	1.12158	0.935296	-0.173647	0.580479	
0.829818	1.98517	5	0	-0.862253	-0.834995	-1.77173	-1.24812	-0.058239	-0.32379	-1.35833	-1.59582	0.469279	-0.279006	0.674673	-0.538691	0.054066	-0.674639	0.762768	0.447009	0.112504	0.24368	0.506381	0.26516	-0.101789	-1.35867	0.0337785	-0.830327	-0.0231865	0.015575	-0.48702	0.160762	1.11881	0.954109	-0.166443	0.613565	
0.828544	1.98364	5	0	-0.858081	-0.801217	-1.75684	-1.2007	-0.0325185	-0.337311	-1.34025	-1.54971	0.522515	-0.312146	0.690023	-0.492238	0.065038	-0.640863	0.77622	0.487086	0.125328	0.276807	0.523694	0.30693	-0.0868802	-1.32498	0.0500763	-0.779774	-0.0152482	0.0366075	-0.463751	0.184334	1.11604	0.972922	-0.15924	0.646651	
0.82717	1.98059	5	0	-0.853909	-0.76744	-1.74194	-1.15329	-0.006798	-0.350831	-1.32217	-1.50361	0.575752	-0.345287	0.705373	-0.445785	0.07601	-0.607087	0.789672	0.527163	0.138152	0.309934	0.541007	0.3487	-0.071972	-1.29128	0.066374	-0.729221	-0.00731	0.05764	-0.440483	0.207905	1.11327	0.991736	-0.152036	0.679738	
0.825668	1.98364	5	0	-0.850059	-0.744071	-1.73057	-1.10835	0.0088025	-0.361024	-1.31301	-1.45629	0.622066	-0.373904	0.709759	-0.398051	0.0801417	-0.57235	0.798464	0.558298	0.14536	0.350474	0.552329	0.394798	-0.062244	-1.25217	0.0787547	-0.667094	-0.0026555	0.0771527	-0.420476	0.232127	1.11343	1.00228	-0.150838	0.708495	
0.82401	1.98059	5	0	-0.84621	-0.720703	-1.7192	-1.0634	0.024403	-0.371218	-1.30384	-1.40897	0.668381	-0.402521	0.714146	-0.350318	0.0842735	-0.537614	0.807257	0.589433	0.152567	0.391014	0.56365	0.440897	-0.052516	-1.21306	0.0911355	-0.604966	0.001999	0.0966655	-0.400468	0.25635	1.11359	1.01283	-0.149641	0.737252	
0.82217	1.98212	5	0	-0.84236	-0.697334	-1.70783	-1.01846	0.0400035	-0.381412	-1.29467	-1.36164	0.714695	-0.431137	0.718533	-0.302584	0.0884052	-0.502877	0.816049	0.620567	0.159775	0.431554	0.574971	0.486995	-0.042788	-1.17394	0.103516	-0.542839	0.0066535	0.116178	-0.380461	0.280573	1.11375	1.02337	-0.148444	0.766009	
0.820119	1.98212	5	0	-0.83851	-0.673965	-1.69646	-0.973519	0.055604	-0.391605	-1.2855	-1.31432	0.761009	-0.459754	0.722919	-0.25485	0.092537	-0.468141	0.824841	0.651702	0.166983	0.472094	0.586293	0.533093	-0.03306	-1.13483	0.115897	-0.480711	0.011308	0.135691	-0.360453	0.304795	1.11391	1.03391	-0.147246	0.794766	
0.817777	1.98364	5	0	-0.841941	-0.641401	-1.6984	-0.903567	0.0595085	-0.394156	-1.27547	-1.25687	0.801799	-0.488053	0.728694	-0.210845	0.100968	-0.445438	0.822663	0.680296	0.178995	0.499257	0.588671	0.565542	-0.0184875	-1.10917	0.124493	-0.435323	0.0095745	0.14059	-0.347565	0.313393	1.10885	1.03722	-0.14523	0.799795	
0.815006	1.97754	5	0	-0.845372	-0.608837	-1.70034	-0.833615	0.063413	-0.396708	-1.26544	-1.19941	0.84259	-0.516352	0.734468	-0.166839	0.109398	-0.422735	0.820486	0.708891	0.191007	0.52642	0.59105	0.597992	-0.003915	-1.08351	0.133088	-0.389934	0.007841	0.145489	-0.334677	0.321992	1.10379	1.04053	-0.143215	0.804825	
0.811661	1.97754	5	0	-0.848803	-0.576273	-1.70228	-0.763662	0.0673175	-0.399259	-1.25541	-1.14195	0.88338	-0.544652	0.740243	-0.122834	0.117829	-0.400032	0.818309	0.737486	0.203019	0.553582	0.593428	0.630441	0.0106575	-1.05785	0.141683	-0.344546	0.0061075	0.150387	-0.321789	0.330591	1.09873	1.04384	-0.1412	0.809854	
0.807598	1.98212	5	0	-0.852234	-0.543709	-1.70422	-0.69371	0.071222	-0.401811	-1.24538	-1.0845	0.92417	-0.572951	0.746018	-0.078828	0.126259	-0.377329	0.816131	0.76608	0.215031	0.580745	0.595806	0.66289	0.02523	-1.03219	0.150279	-0.299157	0.004374	0.155286	-0.308901	0.339189	1.09367	1.04714	-0.139184	0.814883	
0.802673	1.97754	5	0	-0.84416	-0.520708	-1.66822	-0.639804	0.0814332	-0.405196	-1.22407	-1.0338	0.952645	-0.589911	0.75617	-0.046998	0.127837	-0.353816	0.81963	0.77866	0.223016	0.610719	0.604175	0.691594	0.036228	-1.00579	0.160138	-0.257078	0.004374	0.155286	-0.299354	0.348305	1.09057	1.04491	-0.137236	0.809379	
0.796742	1.98059	5	0	-0.836086	-0.497707	-1.63222	-0.585897	0.0916445	-0.408581	-1.20277	-0.983111	0.98112	-0.606872	0.766323	-0.015168	0.129416	-0.330303	0.823128	0.791241	0.231001	0.640692	0.612545	0.720298	0.047226	-0.979382	0.169997	-0.214998	0.004374	0.155286	-0.289807	0.357421	1.08747	1.04267	-0.135289	0.803875	
0.789773	1.98059	5	0	-0.828011	-0.474707	-1.59622	-0.531991	0.101856	-0.411965	-1.18146	-0.932419	1.0096	-0.623832	0.776475	0.016662	0.130994	-0.30679	0.826627	0.803821	0.238987	0.670666	0.620914	0.749001	0.058224	-0.952978	0.179856	-0.172919	0.004374	0.155286	-0.280261	0.366537	1.08437	1.04043	-0.133341	0.79837	
0.782133	1.97754	5	0	-0.819937	-0.451706	-1.56022	-0.478084	0.112067	-0.41535	-1.16016	-0.881727	1.03807	-0.640792	0.786627	0.048492	0.132572	-0.283277	0.830125	0.816402	0.246972	0.70064	0.629283	0.777705	0.069222	-0.926573	0.189715	-0.130839	0.004374	0.155286	-0.270714	0.375653	1.08128	1.03819	-0.131393	0.792866	
0.774277	1.97906	5	0	-0.813389	-0.447261	-1.53236	-0.42612	0.105006	-0.41238	-1.14093	-0.836922	1.05639	-0.652764	0.793183	0.0602987	0.136811	-0.276583	0.824953	0.819781	0.248546	0.713739	0.624023	0.792571	0.0739785	-0.920814	0.193383	-0.113157	-0.00391875	0.156939	-0.267115	0.383557	1.08732	1.03212	-0.146195	0.802537	
0.76666	1.97601	5	0	-0.80684	-0.442816	-1.5045	-0.374156	0.0979445	-0.40941	-1.12171	-0.792117	1.07471	-0.664735	0.79974	0.0721055	0.141049	-0.269889	0.819781	0.82316	0.250119	0.726838	0.618762	0.807437	0.078735	-0.915054	0.197052	-0.095474	-0.0122115	0.158591	-0.263517	0.39146	1.09335	1.02604	-0.160996	0.812209	
0.759736	1.97754	5	0	-0.800291	-0.43837	-1.47664	-0.322192	0.0908832	-0.40644	-1.10248	-0.747311	1.09303	-0.676706	0.806296	0.0839122	0.145287	-0.263195	0.814609	0.82654	0.251693	0.739936	0.613502	0.822302	0.0834915	-0.909295	0.20072	-0.0777915	-0.0205042	0.160244	-0.259918	0.399363	1.09939	1.01997	-0.175797	0.821881	
0.75396	1.97601	5	0	-0.793743	-0.433925	-1.44878	-0.270228	0.083822	-0.40347	-1.08326	-0.702506	1.11136	-0.688678	0.812852	0.095719	0.149526	-0.256501	0.809437	0.829919	0.253267	0.753035	0.608242	0.837168	0.088248	-0.903536	0.204389	-0.060109	-0.028797	0.161896	-0.256319	0.407267	1.10543	1.01389	-0.190599	0.831552	
0.749645	1.97601	5	0	-0.805311	-0.424183	-1.42416	-0.234581	0.076011	-0.398366	-1.07396	-0.666558	1.11351	-0.686792	0.818358	0.0953438	0.152954	-0.256847	0.793344	0.83052	0.25728	0.759257	0.606926	0.840888	0.0910362	-0.901808	0.206882	-0.0531148	-0.031023	0.146428	-0.253171	0.398372	1.0932	1.01549	-0.189691	0.81828	
0.746549	1.97754	5	0	-0.81688	-0.414442	-1.39953	-0.198933	0.0682	-0.393262	-1.06466	-0.63061	1.11566	-0.684906	0.823864	0.0949685	0.156382	-0.257192	0.77725	0.831121	0.261293	0.765479	0.605609	0.844608	0.0938245	-0.90008	0.209376	-0.0461205	-0.033249	0.130961	-0.250024	0.389477	1.08098	1.0171	-0.188784	0.805008	
0.744293	1.97449	5	0	-0.828449	-0.404701	-1.37491	-0.163286	0.060389	-0.388158	-1.05536	-0.594661	1.11781	-0.68302	0.82937	0.0945932	0.159811	-0.257538	0.761157	0.831723	0.265305	0.771702	0.604293	0.848329	0.0966127	-0.898352	0.211869	-0.0391263	-0.035475	0.115493	-0.246876	0.380582	1.06875	1.0187	-0.187877	0.791736	
0.7425	1.97601	5	0	-0.840017	-0.394959	-1.35029	-0.127638	0.052578	-0.383054	-1.04606	-0.558713	1.11997	-0.681134	0.834876	0.094218	0.163239	-0.257884	0.745064	0.832324	0.269318	0.777924	0.602977	0.852049	0.099401	-0.896624	0.214363	-0.032132	-0.037701	0.100025	-0.243729	0.371687	1.05652	1.02031	-0.186969	0.778464	
0.740789	1.97449	5	0	-0.843542	-0.40792	-1.34363	-0.093617	0.0330818	-0.370315	-1.03976	-0.539076	1.12148	-0.685417	0.834876	0.094218	0.163296	-0.267387	0.7347	0.81684	0.270132	0.775622	0.596182	0.845055	0.1043	-0.91047	0.209224	-0.03165	-0.042346	0.0805615	-0.242389	0.358861	1.05636	1.00978	-0.194942	0.768911	
0.738785	1.97449	5	0	-0.847067	-0.420881	-1.33698	-0.059596	0.0135855	-0.357576	-1.03346	-0.51944	1.123	-0.689701	0.834876	0.094218	0.163353	-0.276891	0.724336	0.801357	0.270947	0.77332	0.589387	0.838062	0.1092	-0.924316	0.204086	-0.031168	-0.046991	0.061098	-0.241049	0.346034	1.0562	0.999255	-0.202914	0.759357	
0.736241	1.96991	5	0	-0.850592	-0.433842	-1.33032	-0.025575	-0.00591075	-0.344837	-1.02716	-0.499804	1.12451	-0.693984	0.834876	0.094218	0.163409	-0.286394	0.713972	0.785874	0.271761	0.771018	0.582593	0.831068	0.114099	-0.938162	0.198947	-0.030686	-0.051636	0.0416345	-0.239709	0.333207	1.05604	0.988729	-0.210887	0.749803	
0.733314	1.97449	5	0	-0.854117	-0.446803	-1.32366	0.008446	-0.025407	-0.332098	-1.02086	-0.480167	1.12603	-0.698267	0.834876	0.094218	0.163466	-0.295897	0.703608	0.77039	0.272576	0.768716	0.575798	0.824075	0.118998	-0.952008	0.193808	-0.030204	-0.056281	0.022171	-0.238369	0.320381	1.05589	0.978202	-0.21886	0.74025	
0.730235	1.97449	5	0	-0.85891	-0.46759	-1.30814	0.017571	-0.0479875	-0.318987	-1.01301	-0.477363	1.11136	-0.688684	0.822814	0.0827865	0.16101	-0.316958	0.686396	0.752074	0.264551	0.756287	0.568243	0.806202	0.1147	-0.968672	0.191466	-0.0516363	-0.065919	0.00604375	-0.244563	0.310796	1.04564	0.974284	-0.226822	0.730722	
0.727236	1.97296	5	0	-0.863703	-0.488377	-1.29262	0.026696	-0.070568	-0.305875	-1.00515	-0.47456	1.0967	-0.6791	0.810751	0.071355	0.158554	-0.338018	0.669185	0.733759	0.256525	0.743858	0.560688	0.788328	0.110403	-0.985336	0.189124	-0.0730685	-0.075557	-0.0100835	-0.250758	0.301211	1.03539	0.970367	-0.234784	0.721193	
0.724548	1.97296	5	0	-0.868497	-0.509164	-1.2771	0.035821	-0.0931485	-0.292764	-0.997298	-0.471756	1.08203	-0.669517	0.798689	0.0599235	0.156098	-0.359079	0.651973	0.715444	0.2485	0.73143	0.553132	0.770455	0.106105	-1.002	0.186782	-0.0945007	-0.085195	-0.0262108	-0.256953	0.291626	1.02514	0.96645	-0.242745	0.711664	
0.7224	1.97296	5	0	-0.87329	-0.529951	-1.26158	0.044946	-0.115729	-0.279653	-0.989444	-0.468952	1.06736	-0.659934	0.786627	0.048492	0.153642	-0.38014	0.634761	0.697128	0.240475	0.719001	0.545577	0.752582	0.101807	-1.01866	0.18444	-0.115933	-0.094833	-0.042338	-0.263147	0.282041	1.0149	0.962532	-0.250707	0.702136	
0.720799	1.97296	5	0	-0.879088	-0.547835	-1.24832	0.0473165	-0.134372	-0.269114	-0.984903	-0.469272	1.04907	-0.647978	0.788519	0.0279973	0.149441	-0.396226	0.626698	0.675409	0.234079	0.702033	0.532028	0.738701	0.0947183	-1.03697	0.18471	-0.144705	-0.103603	-0.0608193	-0.262061	0.260933	1.00467	0.958619	-0.25279	0.6867	
0.719395	1.96991	5	0	-0.884886	-0.565719	-1.23506	0.049687	-0.153014	-0.258576	-0.980363	-0.469591	1.03077	-0.636022	0.79041	0.0075025	0.145239	-0.412311	0.618636	0.65369	0.227683	0.685065	0.518479	0.724819	0.0876295	-1.05528	0.18498	-0.173477	-0.112372	-0.0793005	-0.260976	0.239825	0.99444	0.954705	-0.254873	0.671264	
0.717801	1.97143	5	0	-0.890684	-0.583602	-1.2218	0.0520575	-0.171657	-0.248037	-0.975822	-0.469911	1.01247	-0.624066	0.792302	-0.0129922	0.141038	-0.428397	0.610573	0.631972	0.221287	0.668097	0.50493	0.710938	0.0805407	-1.07359	0.185251	-0.202249	-0.121141	-0.0977818	-0.25989	0.218717	0.984212	0.950792	-0.256957	0.655828	
0.715632	1.97143	5	0	-0.896482	-0.601486	-1.20854	0.054428	-0.1903	-0.237499	-0.971281	-0.470231	0.994174	-0.61211	0.794194	-0.033487	0.136837	-0.444483	0.60251	0.610253	0.214891	0.651129	0.491381	0.697057	0.073452	-1.0919	0.185521	-0.231021	-0.129911	-0.116263	-0.258804	0.197609	0.973984	0.946878	-0.25904	0.640392	
0.712504	1.97143	5	0	-0.903275	-0.616494	-1.20369	0.05402	-0.209655	-0.224852	-0.974604	-0.473353	0.975915	-0.600179	0.78215	-0.0448223	0.132631	-0.460514	0.588224	0.595146	0.204476	0.636852	0.483845	0.679322	0.0699552	-1.11073	0.175401	-0.244355	-0.12719	-0.134752	-0.256709	0.182675	0.973824	0.936401	-0.260084	0.632691	
0.70807	1.96686	5	0	-0.910068	-0.631501	-1.19884	0.053612	-0.229011	-0.212205	-0.977926	-0.476476	0.957657	-0.588248	0.770106	-0.0561575	0.128425	-0.476546	0.573937	0.580039	0.19406	0.622575	0.476309	0.661587	0.0664585	-1.12955	0.165281	-0.257688	-0.124469	-0.153242	-0.254613	0.16774	0.973664	0.925925	-0.261128	0.624991	
0.702534	1.96838	5	0	-0.916862	-0.646509	-1.19399	0.053204	-0.248366	-0.199558	-0.981249	-0.479599	0.939399	-0.576318	0.758062	-0.0674927	0.12422	-0.492578	0.55965	0.564932	0.183645	0.608299	0.468772	0.643852	0.0629617	-1.14838	0.155162	-0.271022	-0.121749	-0.171732	-0.252518	0.152805	0.973505	0.915448	-0.262173	0.61729	
0.696497	1.96838	5	0	-0.923655	-0.661517	-1.18914	0.052796	-0.267721	-0.186911	-0.984572	-0.482721	0.92114	-0.564387	0.746018	-0.078828	0.120014	-0.508609	0.545364	0.549825	0.17323	0.594022	0.461236	0.626117	0.059465	-1.1672	0.145042	-0.284356	-0.119028	-0.190221	-0.250423	0.137871	0.973345	0.904972	-0.263217	0.609589	
0.690568	1.96686	5	0	-0.92224	-0.688285	-1.18302	0.0487935	-0.287033	-0.174292	-0.97849	-0.499912	0.899281	-0.550104	0.745337	-0.10709	0.113253	-0.526659	0.53335	0.528459	0.163649	0.56878	0.450328	0.605025	0.0512027	-1.1916	0.141461	-0.316076	-0.127103	-0.199766	-0.252482	0.125678	0.961193	0.906572	-0.259363	0.598698	
0.685354	1.97143	5	0	-0.920826	-0.715054	-1.17689	0.044791	-0.306345	-0.161673	-0.972407	-0.517103	0.877421	-0.535821	0.744655	-0.135352	0.106491	-0.544709	0.521337	0.507092	0.154068	0.543538	0.439421	0.583932	0.0429405	-1.21599	0.13788	-0.347795	-0.135177	-0.209311	-0.254542	0.113485	0.949041	0.908172	-0.25551	0.587807	
0.681465	1.96991	5	0	-0.919411	-0.741822	-1.17077	0.0407885	-0.325656	-0.149055	-0.966325	-0.534293	0.855562	-0.521537	0.743974	-0.163614	0.0997302	-0.562758	0.509323	0.485726	0.144488	0.518296	0.428513	0.56284	0.0346783	-1.24039	0.134299	-0.379514	-0.143251	-0.218856	-0.256601	0.101292	0.936889	0.909772	-0.251657	0.576916	
0.679241	1.96686	5	0	-0.917996	-0.76859	-1.16464	0.036786	-0.344968	-0.136436	-0.960242	-0.551484	0.833703	-0.507254	0.743293	-0.191876	0.092969	-0.580808	0.49731	0.46436	0.134907	0.493054	0.417606	0.541748	0.026416	-1.26478	0.130718	-0.411234	-0.151326	-0.228401	-0.258661	0.089099	0.924737	0.911372	-0.247803	0.566025	
0.678373	1.9638	5	0	-0.91434	-0.790298	-1.15238	0.0287725	-0.35963	-0.128498	-0.954171	-0.568642	0.812657	-0.495148	0.73966	-0.211747	0.089614	-0.599147	0.485929	0.452388	0.128524	0.467604	0.411372	0.520523	0.0253082	-1.29024	0.120708	-0.438584	-0.151037	-0.250761	-0.256844	0.0659683	0.921504	0.898713	-0.249907	0.550685	
0.678453	1.9638	5	0	-0.910683	-0.812007	-1.14011	0.020759	-0.374292	-0.120561	-0.9481	-0.585799	0.79161	-0.483042	0.736027	-0.231619	0.086259	-0.617486	0.474548	0.440416	0.122142	0.442154	0.405138	0.499298	0.0242005	-1.3157	0.110698	-0.465935	-0.150749	-0.273121	-0.255027	0.0428375	0.91827	0.886054	-0.252011	0.535344	
0.679073	1.96228	5	0	-0.907026	-0.833715	-1.12785	0.0127455	-0.388954	-0.112623	-0.942028	-0.602957	0.770564	-0.470936	0.732394	-0.25149	0.082904	-0.635825	0.463166	0.428444	0.11576	0.416704	0.398904	0.478072	0.0230928	-1.34116	0.100688	-0.493285	-0.15046	-0.295481	-0.25321	0.0197068	0.915037	0.873394	-0.254114	0.520003	
0.679826	1.9638	5	0	-0.90337	-0.855423	-1.11558	0.004732	-0.403616	-0.104685	-0.935957	-0.620114	0.749518	-0.45883	0.728761	-0.271361	0.079549	-0.654164	0.451785	0.416472	0.109377	0.391254	0.39267	0.456847	0.021985	-1.36662	0.090678	-0.520636	-0.150172	-0.317841	-0.251393	-0.003424	0.911804	0.860735	-0.256218	0.504663	
0.680343	1.9638	5	0	-0.904964	-0.873646	-1.1069	-0.00646075	-0.419006	-0.0946285	-0.941404	-0.62972	0.735013	-0.449352	0.725117	-0.291154	0.0778782	-0.667965	0.445489	0.401232	0.095806	0.377557	0.383856	0.442994	0.0132803	-1.38007	0.0882587	-0.541557	-0.148341	-0.333779	-0.250373	-0.0242837	0.907599	0.850846	-0.248544	0.482974	
0.680624	1.96533	5	0	-0.906558	-0.89187	-1.09822	-0.0176535	-0.434397	-0.084572	-0.946851	-0.639327	0.720508	-0.439874	0.721474	-0.310946	0.0762075	-0.681767	0.439192	0.385993	0.082235	0.36386	0.375042	0.429141	0.0045755	-1.39351	0.0858395	-0.562477	-0.14651	-0.349716	-0.249354	-0.0451435	0.903395	0.840956	-0.240869	0.461284	
0.68087	1.96075	5	0	-0.908151	-0.910093	-1.08954	-0.0288462	-0.449788	-0.0745155	-0.952299	-0.648933	0.706003	-0.430396	0.717831	-0.330738	0.0745367	-0.695568	0.432896	0.370753	0.068664	0.350162	0.366228	0.415287	-0.00412925	-1.40696	0.0834203	-0.583398	-0.144679	-0.365654	-0.248335	-0.0660032	0.899191	0.831067	-0.233194	0.439595	
0.681284	1.96075	5	0	-0.909745	-0.928317	-1.08086	-0.040039	-0.465178	-0.064459	-0.957746	-0.658539	0.691498	-0.420918	0.714187	-0.350531	0.072866	-0.70937	0.4266	0.355513	0.055093	0.336465	0.357414	0.401434	-0.012834	-1.42041	0.081001	-0.604319	-0.142848	-0.381592	-0.247315	-0.086863	0.894986	0.821178	-0.22552	0.417906	
0.682068	1.96228	5	0	-0.908409	-0.954792	-1.08553	-0.0535308	-0.484377	-0.051914	-0.957153	-0.685182	0.669786	-0.406731	0.703628	-0.365733	0.0635337	-0.719988	0.419197	0.343461	0.0415548	0.322821	0.354542	0.383754	-0.0179592	-1.43441	0.0759895	-0.617872	-0.141874	-0.395101	-0.247858	-0.103291	0.895785	0.808042	-0.22765	0.402664	
0.683425	1.96075	5	0	-0.907074	-0.981268	-1.09019	-0.0670225	-0.503576	-0.039369	-0.95656	-0.711824	0.648075	-0.392545	0.693069	-0.380935	0.0542015	-0.730607	0.411793	0.331408	0.0280165	0.309176	0.351669	0.366074	-0.0230845	-1.44842	0.070978	-0.631425	-0.1409	-0.40861	-0.2484	-0.119719	0.896585	0.794907	-0.22978	0.387421	
0.685492	1.95923	5	0	-0.905738	-1.00774	-1.09485	-0.0805143	-0.522776	-0.026824	-0.955968	-0.738467	0.626363	-0.378358	0.68251	-0.396138	0.0448692	-0.741225	0.40439	0.319356	0.0144783	0.295532	0.348797	0.348394	-0.0282097	-1.46242	0.0659665	-0.644979	-0.139927	-0.42212	-0.248943	-0.136148	0.897385	0.781771	-0.23191	0.372178	
0.688284	1.96228	5	0	-0.904402	-1.03422	-1.09951	-0.094006	-0.541975	-0.014279	-0.955375	-0.76511	0.604652	-0.364171	0.671951	-0.41134	0.035537	-0.751844	0.396987	0.307303	0.00094	0.281887	0.345925	0.330714	-0.033335	-1.47642	0.060955	-0.658532	-0.138953	-0.435629	-0.249485	-0.152576	0.898184	0.768636	-0.23404	0.356936	
0.691803	1.96228	5	0	-0.910264	-1.05165	-1.09678	-0.115031	-0.553474	-0.00676525	-0.958419	-0.78144	0.586601	-0.352376	0.666851	-0.426896	0.0355523	-0.761123	0.393532	0.295117	-0.0054245	0.26535	0.335841	0.320585	-0.0420242	-1.48978	0.0597992	-0.682942	-0.144501	-0.452184	-0.252626	-0.170609	0.883814	0.754961	-0.238085	0.34713	
0.69605	1.95923	5	0	-0.916126	-1.06908	-1.09406	-0.136056	-0.564972	0.0007485	-0.961464	-0.79777	0.56855	-0.340581	0.661751	-0.442451	0.0355675	-0.770402	0.390077	0.28293	-0.011789	0.248812	0.325757	0.310455	-0.0507135	-1.50314	0.0586435	-0.707352	-0.150049	-0.468739	-0.255767	-0.188641	0.869444	0.741287	-0.24213	0.337323	
0.701029	1.95923	0	5	-0.921987	-1.08652	-1.09133	-0.157082	-0.576471	0.00826225	-0.964508	-0.8141	0.550499	-0.328786	0.656651	-0.458007	0.0355827	-0.779682	0.386622	0.270743	-0.0181535	0.232275	0.315672	0.300326	-0.0594027	-1.51649	0.0574878	-0.731761	-0.155596	-0.485294	-0.258907	-0.206674	0.855074	0.727612	-0.246175	0.327517	
0.706724	1.95923	0	5	-0.927849	-1.10395	-1.0886	-0.178107	-0.58797	0.015776	-0.967552	-0.83043	0.532448	-0.316991	0.651551	-0.473563	0.035598	-0.788961	0.383167	0.258557	-0.024518	0.215738	0.305588	0.290197	-0.068092	-1.52985	0.056332	-0.756171	-0.161144	-0.501849	-0.262048	-0.224707	0.840704	0.713938	-0.25022	0.317711	
0.712929	1.96075	0	5	-0.923943	-1.11499	-1.09094	-0.18481	-0.594871	0.0186433	-0.962744	-0.844018	0.525238	-0.31228	0.647555	-0.477237	0.029643	-0.781364	0.379226	0.258727	-0.0261175	0.203021	0.304789	0.279596	-0.0676805	-1.54048	0.0601835	-0.767055	-0.156931	-0.513755	-0.26156	-0.235046	0.835543	0.706852	-0.255217	0.310619	
0.7193	1.95618	0	5	-0.920037	-1.12603	-1.09328	-0.191514	-0.601773	0.0215105	-0.957936	-0.857606	0.518029	-0.307569	0.64356	-0.48091	0.023688	-0.773767	0.375286	0.258898	-0.027717	0.190304	0.303991	0.268995	-0.067269	-1.55111	0.064035	-0.77794	-0.152719	-0.52566	-0.261073	-0.245386	0.830383	0.699766	-0.260213	0.303527	
0.725491	1.9577	0	5	-0.916131	-1.13707	-1.09561	-0.198217	-0.608675	0.0243777	-0.953129	-0.871193	0.510819	-0.302858	0.639564	-0.484584	0.017733	-0.766169	0.371345	0.259068	-0.0293165	0.177586	0.303192	0.258393	-0.0668575	-1.56174	0.0678865	-0.788824	-0.148506	-0.537566	-0.260585	-0.255725	0.825222	0.692679	-0.26521	0.296434	
0.731158	1.95618	0	5	-0.912225	-1.14811	-1.09795	-0.204921	-0.615576	0.027245	-0.948321	-0.884781	0.503609	-0.298147	0.635568	-0.488257	0.011778	-0.758572	0.367405	0.259239	-0.030916	0.164869	0.302393	0.247792	-0.066446	-1.57237	0.071738	-0.799708	-0.144293	-0.549472	-0.260097	-0.266064	0.820062	0.685593	-0.270207	0.289342	
0.735954	1.95465	0	5	-0.921665	-1.14406	-1.1064	-0.207618	-0.623982	0.0343803	-0.964305	-0.876946	0.500006	-0.295793	0.634122	-0.484171	0.0109043	-0.74687	0.366298	0.262367	-0.0380517	0.167813	0.302393	0.247792	-0.0644723	-1.56848	0.0768212	-0.800242	-0.142609	-0.55423	-0.254437	-0.2731	0.822947	0.677441	-0.270207	0.289342	
