0.988	4.00238	0	0	-0.034637	0.072833	-0.091369	0.113686	-0.054448	0.08649	-0.029656	0.218185	0.488401	0.762487	0.395806	0.582362	0.542035	0.979996	0.276206	0.613338	0.051955	0.143561	-0.066073	0.085177	0.008146	0.024951	-0.005865	0.067339	-0.001039	-0.063048	-0.042	-0.007517	-0.018367	0.04979	-0.174942	-0.070853	
0.988328	4.0039	0	0	-0.030201	0.0699345	-0.0959988	0.111416	-0.0488475	0.0808707	-0.02782	0.212996	0.478983	0.745762	0.390426	0.570535	0.530055	0.957667	0.264013	0.601058	0.051955	0.143561	-0.066073	0.085177	0.0090065	0.0225193	-0.005865	0.067339	7.9E-05	-0.0662078	-0.0441938	-0.0096115	-0.0134923	0.0466048	-0.173718	-0.0743112	
0.987755	4.0039	0	0	-0.025765	0.067036	-0.100629	0.109145	-0.043247	0.0752515	-0.025984	0.207807	0.469565	0.729038	0.385045	0.558708	0.518076	0.935337	0.25182	0.588779	0.051955	0.143561	-0.066073	0.085177	0.009867	0.0200875	-0.005865	0.067339	0.001197	-0.0693675	-0.0463875	-0.011706	-0.0086175	0.0434195	-0.172494	-0.0777695	
0.986424	4.00696	0	0	-0.021329	0.0641375	-0.105258	0.106874	-0.0376465	0.0696323	-0.024148	0.202618	0.460147	0.712314	0.379665	0.546881	0.506096	0.913008	0.239627	0.576499	0.051955	0.143561	-0.066073	0.085177	0.0107275	0.0176557	-0.005865	0.067339	0.002315	-0.0725273	-0.0485812	-0.0138005	-0.00374275	0.0402342	-0.171271	-0.0812278	
0.984476	4.0039	0	0	-0.016893	0.061239	-0.109888	0.104604	-0.032046	0.064013	-0.022312	0.197429	0.450729	0.695589	0.374285	0.535054	0.494116	0.890679	0.227434	0.564219	0.051955	0.143561	-0.066073	0.085177	0.011588	0.015224	-0.005865	0.067339	0.003433	-0.075687	-0.050775	-0.015895	0.001132	0.037049	-0.170047	-0.084686	
0.982055	4.00238	0	0	-0.0179547	0.0546015	-0.10855	0.093151	-0.0293417	0.0563702	-0.0258673	0.189788	0.441323	0.678933	0.360721	0.51944	0.485005	0.871602	0.213411	0.557227	0.055687	0.133014	-0.0675695	0.0744883	0.0150275	0.0055035	-0.0081175	0.0555777	0.0045505	-0.0788453	-0.054349	-0.022372	0.00385025	0.0293667	-0.17152	-0.091693	
0.979305	3.9978	0	0	-0.0190165	0.047964	-0.107213	0.081698	-0.0266375	0.0487275	-0.0294225	0.182148	0.431917	0.662277	0.347156	0.503826	0.475893	0.852526	0.199388	0.550235	0.059419	0.122467	-0.069066	0.0637995	0.018467	-0.004217	-0.01037	0.0438165	0.005668	-0.0820035	-0.057923	-0.028849	0.0065685	0.0216845	-0.172993	-0.0987	
0.976366	4.00085	0	0	-0.0200782	0.0413265	-0.105876	0.070245	-0.0239332	0.0410848	-0.0329778	0.174507	0.42251	0.645621	0.333592	0.488213	0.466782	0.833449	0.185366	0.543243	0.063151	0.11192	-0.0705625	0.0531107	0.0219065	-0.0139375	-0.0126225	0.0320553	0.0067855	-0.0851617	-0.061497	-0.035326	0.00928675	0.0140023	-0.174466	-0.105707	
0.973383	4.00085	0	0	-0.02114	0.034689	-0.104538	0.058792	-0.021229	0.033442	-0.036533	0.166867	0.413104	0.628965	0.320028	0.472599	0.45767	0.814372	0.171343	0.536251	0.066883	0.101373	-0.072059	0.042422	0.025346	-0.023658	-0.014875	0.020294	0.007903	-0.08832	-0.065071	-0.041803	0.012005	0.00632	-0.175939	-0.112714	
0.970498	3.99628	0	0	-0.02114	0.034689	-0.104538	0.058792	-0.021229	0.033442	-0.0356168	0.164277	0.417027	0.628679	0.317215	0.480548	0.45252	0.817737	0.173199	0.531005	0.0650175	0.106645	-0.0756378	0.052536	0.025346	-0.023658	-0.016904	0.026028	0.0183045	-0.078101	-0.0573528	-0.022143	0.011444	0.018504	-0.171524	-0.0916625	
0.967853	3.99628	0	0	-0.02114	0.034689	-0.104538	0.058792	-0.021229	0.033442	-0.0347005	0.161688	0.42095	0.628392	0.314403	0.488497	0.447369	0.821103	0.175055	0.525759	0.063152	0.111917	-0.0792165	0.06265	0.025346	-0.023658	-0.018933	0.031762	0.028706	-0.067882	-0.0496345	-0.002483	0.010883	0.030688	-0.167108	-0.070611	
0.965592	3.99933	0	0	-0.02114	0.034689	-0.104538	0.058792	-0.021229	0.033442	-0.0337843	0.159099	0.424873	0.628105	0.31159	0.496445	0.442219	0.824468	0.176911	0.520514	0.0612865	0.117189	-0.0827953	0.072764	0.025346	-0.023658	-0.020962	0.037496	0.0391075	-0.057663	-0.0419163	0.017177	0.010322	0.042872	-0.162693	-0.0495595	
0.963858	3.9978	0	0	-0.02114	0.034689	-0.104538	0.058792	-0.021229	0.033442	-0.032868	0.156509	0.428796	0.627819	0.308777	0.504394	0.437069	0.827833	0.178767	0.515268	0.059421	0.122461	-0.086374	0.082878	0.025346	-0.023658	-0.022991	0.04323	0.049509	-0.047444	-0.034198	0.036837	0.009761	0.055056	-0.158278	-0.028508	
0.962792	3.9917	0	0	-0.0101345	0.0421682	-0.0985228	0.0725022	-0.0058175	0.041014	-0.0297148	0.15644	0.43377	0.624569	0.30482	0.488663	0.441069	0.827718	0.180622	0.510026	0.0708305	0.131242	-0.0696365	0.0953207	0.0285323	-0.012657	-0.016678	0.043516	0.066991	-0.017367	-0.00584675	0.0733305	0.023624	0.0795905	-0.123605	-0.0030395	
0.962539	3.9978	0	0	0.000871	0.0496475	-0.0925075	0.0862125	0.009594	0.048586	-0.0265615	0.15637	0.438744	0.621319	0.300862	0.472932	0.445069	0.827604	0.182477	0.504783	0.08224	0.140022	-0.052899	0.107763	0.0317185	-0.001656	-0.010365	0.043802	0.084473	0.01271	0.0225045	0.109824	0.037487	0.104125	-0.0889315	0.022429	
0.96324	3.99017	0	0	0.0118765	0.0571267	-0.0864923	0.0999228	0.0250055	0.056158	-0.0234082	0.156301	0.443717	0.618069	0.296905	0.457202	0.449069	0.827489	0.184332	0.499541	0.0936495	0.148803	-0.0361615	0.120206	0.0349047	0.009345	-0.004052	0.044088	0.101955	0.042787	0.0508558	0.146317	0.05135	0.12866	-0.0542582	0.0478975	
0.965024	3.9917	0	0	0.022882	0.064606	-0.080477	0.113633	0.040417	0.06373	-0.020255	0.156231	0.448691	0.614819	0.292947	0.441471	0.453069	0.827374	0.186187	0.494299	0.105059	0.157584	-0.019424	0.132649	0.038091	0.020346	0.002261	0.044374	0.119437	0.072864	0.079207	0.182811	0.065213	0.153194	-0.019585	0.073366	
0.96768	3.99322	0	0	0.0417775	0.0983075	-0.0531088	0.159635	0.0620908	0.0948607	-0.00957425	0.179186	0.474664	0.63896	0.296331	0.44536	0.471905	0.85266	0.212695	0.497154	0.128937	0.18274	0.007279	0.1622	0.0586192	0.0425698	0.0047235	0.0737218	0.155866	0.103141	0.128508	0.236667	0.0923537	0.183167	0.0237462	0.120591	
0.970658	3.98559	0	0	0.060673	0.132009	-0.0257405	0.205636	0.0837645	0.125992	0.0011065	0.202141	0.500637	0.663102	0.299716	0.449249	0.490741	0.877946	0.239202	0.500009	0.152815	0.207897	0.033982	0.191751	0.0791475	0.0647935	0.007186	0.103069	0.192294	0.133419	0.177809	0.290523	0.119495	0.213139	0.0670775	0.167815	
0.973387	3.98865	0	0	0.0795685	0.165711	0.00162775	0.251638	0.105438	0.157122	0.0117872	0.225095	0.52661	0.687243	0.3031	0.453138	0.509576	0.903231	0.265709	0.502865	0.176694	0.233053	0.060685	0.221302	0.0996758	0.0870173	0.0096485	0.132417	0.228723	0.163697	0.22711	0.344378	0.146635	0.243111	0.110409	0.215039	
0.975302	3.98559	0	0	0.098464	0.199412	0.028996	0.29764	0.127112	0.188253	0.022468	0.24805	0.552583	0.711384	0.306484	0.457027	0.528412	0.928517	0.292217	0.50572	0.200572	0.258209	0.087388	0.250853	0.120204	0.109241	0.012111	0.161765	0.265152	0.193974	0.276411	0.398234	0.173776	0.273084	0.15374	0.262264	
0.975834	3.98407	0	0	0.125525	0.22995	0.06391	0.346514	0.156365	0.208768	0.0389705	0.281407	0.578679	0.735693	0.307057	0.468869	0.549011	0.960442	0.306316	0.51269	0.221628	0.271074	0.110895	0.274906	0.134997	0.127841	0.024974	0.180006	0.275196	0.192349	0.302877	0.40806	0.187981	0.275781	0.174158	0.284278	
0.974416	3.9917	0	0	0.152586	0.260488	0.098824	0.395388	0.185619	0.229283	0.055473	0.314764	0.604774	0.760002	0.307631	0.480711	0.569611	0.992368	0.320415	0.51966	0.242684	0.283939	0.134403	0.298959	0.14979	0.146441	0.037837	0.198247	0.285241	0.190723	0.329344	0.417886	0.202186	0.278477	0.194576	0.306292	
0.970481	3.98712	0	0	0.179647	0.291026	0.133738	0.444261	0.214873	0.249797	0.0719755	0.348121	0.630869	0.784311	0.308204	0.492552	0.59021	1.02429	0.334515	0.526631	0.26374	0.296804	0.157911	0.323012	0.164584	0.16504	0.0507	0.216488	0.295285	0.189098	0.35581	0.427712	0.21639	0.281174	0.214994	0.328306	
0.963562	3.41949	0	0	0.206708	0.321564	0.168652	0.493135	0.244126	0.270312	0.088478	0.381478	0.656965	0.80862	0.308777	0.504394	0.61081	1.05622	0.348614	0.533601	0.284796	0.309669	0.181418	0.347065	0.179377	0.18364	0.063563	0.234729	0.305329	0.187472	0.382276	0.437538	0.230595	0.283871	0.235412	0.35032	
0.954101	3.98254	0	0	0.214188	0.329717	0.18965	0.511919	0.24908	0.277018	0.0982543	0.407371	0.691665	0.853111	0.344141	0.539614	0.644712	1.10782	0.367825	0.557601	0.28673	0.314563	0.184738	0.352805	0.186056	0.184943	0.0658052	0.246626	0.294324	0.16509	0.364416	0.420285	0.220977	0.268211	0.225701	0.332169	
0.943015	4.00543	0	0	0.221668	0.337869	0.210648	0.530704	0.254034	0.283724	0.108031	0.433264	0.726365	0.897602	0.379506	0.574835	0.678614	1.15943	0.387035	0.581601	0.288665	0.319458	0.188059	0.358546	0.192736	0.186246	0.0680475	0.258523	0.283319	0.142709	0.346555	0.403031	0.211359	0.252551	0.215991	0.314018	
0.931221	4.0039	0	0	0.229149	0.346021	0.231646	0.549489	0.258987	0.290431	0.117807	0.459158	0.761064	0.942093	0.41487	0.610055	0.712516	1.21104	0.406246	0.605602	0.2906	0.324353	0.19138	0.364286	0.199415	0.187548	0.0702897	0.27042	0.272314	0.120327	0.328695	0.385777	0.201742	0.23689	0.20628	0.295866	
0.919642	4.0039	0	0	0.236629	0.354174	0.252644	0.568273	0.263941	0.297137	0.127583	0.485051	0.795764	0.986584	0.450234	0.645276	0.746418	1.26264	0.425457	0.629602	0.292534	0.329247	0.1947	0.370026	0.206094	0.188851	0.072532	0.282317	0.261309	0.097945	0.310834	0.368524	0.192124	0.22123	0.196569	0.277715	
0.909197	4.01001	0	0	0.227228	0.341695	0.252372	0.561214	0.257882	0.283208	0.133948	0.484938	0.851901	1.02714	0.489251	0.684831	0.793307	1.32468	0.457362	0.649598	0.282014	0.327911	0.18956	0.369429	0.199415	0.187548	0.0682413	0.27621	0.236943	0.0868695	0.284718	0.349605	0.16688	0.217836	0.174938	0.259323	
0.900805	4.01764	0	0	0.217827	0.329217	0.2521	0.554155	0.251823	0.26928	0.140313	0.484825	0.908038	1.0677	0.528268	0.724386	0.840196	1.38672	0.489267	0.669594	0.271493	0.326575	0.18442	0.368831	0.192736	0.186246	0.0639505	0.270103	0.212577	0.075794	0.258601	0.330686	0.141636	0.214441	0.153307	0.24093	
0.89534	4.02984	0	0	0.208426	0.316738	0.251828	0.547096	0.245765	0.255352	0.146677	0.484712	0.964174	1.10825	0.567285	0.763941	0.887085	1.44876	0.521172	0.68959	0.260972	0.325239	0.179279	0.368233	0.186056	0.184943	0.0596597	0.263995	0.18821	0.0647185	0.232485	0.311766	0.116392	0.211046	0.131677	0.222537	
0.892864	4.0329	0	0	0.199025	0.304259	0.251556	0.540037	0.239706	0.241423	0.153042	0.484599	1.02031	1.14881	0.606302	0.803496	0.933974	1.5108	0.553077	0.709586	0.250452	0.323903	0.174139	0.367636	0.179377	0.18364	0.055369	0.257888	0.163844	0.053643	0.206369	0.292847	0.091148	0.207652	0.110046	0.204145	
0.892742	4.04358	0	0	0.182599	0.301987	0.252113	0.530638	0.227076	0.235795	0.153042	0.484599	1.06967	1.19943	0.651939	0.839348	0.985368	1.57379	0.588687	0.735653	0.247579	0.321679	0.167184	0.372181	0.179377	0.18364	0.055369	0.257888	0.159497	0.039359	0.190039	0.280228	0.0828403	0.199192	0.0924585	0.185956	
0.894317	4.04968	0	0	0.166173	0.299715	0.252671	0.521238	0.214446	0.230167	0.153042	0.484599	1.11902	1.25006	0.697577	0.875199	1.03676	1.63678	0.624296	0.761721	0.244705	0.319456	0.160228	0.376726	0.179377	0.18364	0.055369	0.257888	0.155149	0.025075	0.17371	0.26761	0.0745325	0.190732	0.074871	0.167767	
0.896931	4.05578	0	0	0.149747	0.297443	0.253228	0.511839	0.201817	0.22454	0.153042	0.484599	1.16838	1.30069	0.743214	0.91105	1.08816	1.69978	0.659906	0.787788	0.241832	0.317232	0.153273	0.38127	0.179377	0.18364	0.055369	0.257888	0.150802	0.010791	0.15738	0.254991	0.0662247	0.182273	0.0572835	0.149578	
0.899929	4.06189	0	0	0.133321	0.295171	0.253785	0.50244	0.189187	0.218912	0.153042	0.484599	1.21774	1.35132	0.788851	0.946902	1.13955	1.76277	0.695515	0.813855	0.238958	0.315008	0.146318	0.385815	0.179377	0.18364	0.055369	0.257888	0.146455	-0.003493	0.14105	0.242372	0.057917	0.173813	0.039696	0.131389	
0.902652	4.07562	0	0	0.1312	0.281724	0.254059	0.486028	0.186069	0.207097	0.149468	0.476824	1.27086	1.39327	0.829363	0.970892	1.18843	1.82345	0.725911	0.839531	0.2342	0.318117	0.148138	0.380672	0.171837	0.184791	0.046985	0.263366	0.136492	-0.001868	0.131389	0.236177	0.049955	0.175052	0.031541	0.120582	
0.904452	4.09088	0	0	0.129078	0.268278	0.254332	0.469616	0.182951	0.195282	0.145895	0.469049	1.32398	1.43522	0.869874	0.994881	1.23732	1.88413	0.756306	0.865208	0.229441	0.321226	0.149958	0.37553	0.164297	0.185942	0.038601	0.268845	0.126528	-0.000243	0.121727	0.229983	0.041993	0.176292	0.023386	0.109774	
0.905076	4.10461	0	0	0.126957	0.254831	0.254606	0.453204	0.179834	0.183467	0.142321	0.461274	1.3771	1.47717	0.910385	1.01887	1.2862	1.94481	0.786701	0.890884	0.224683	0.324336	0.151777	0.370387	0.156758	0.187093	0.030217	0.274323	0.116565	0.001382	0.112065	0.223788	0.034031	0.177532	0.015231	0.0989673	
0.904903	4.12598	0	0	0.124836	0.241384	0.25488	0.436792	0.176716	0.171652	0.138747	0.453499	1.43022	1.51912	0.950897	1.04286	1.33508	2.00549	0.817097	0.91656	0.219924	0.327445	0.153597	0.365244	0.149218	0.188244	0.021833	0.279801	0.106602	0.003007	0.102404	0.217593	0.026069	0.178771	0.007076	0.08816	
0.904365	4.13971	0	0	0.118453	0.240001	0.252941	0.434457	0.175611	0.164471	0.138747	0.453499	1.48578	1.56765	0.993181	1.06288	1.39831	2.06347	0.853143	0.943031	0.219924	0.327445	0.155416	0.360104	0.148349	0.190699	0.021833	0.279801	0.102749	0.000643	0.0957845	0.211216	0.0190283	0.177432	-0.00106825	0.0773838	
0.903895	4.15649	0	0	0.112071	0.238617	0.251003	0.432121	0.174506	0.15729	0.138747	0.453499	1.54134	1.61618	1.03547	1.08289	1.46154	2.12144	0.889189	0.969502	0.219924	0.327445	0.157234	0.354964	0.147481	0.193155	0.021833	0.279801	0.098897	-0.001721	0.089165	0.204839	0.0119875	0.176092	-0.0092125	0.0666075	
0.903926	4.17023	0	0	0.105688	0.237233	0.249064	0.429785	0.1734	0.150109	0.138747	0.453499	1.5969	1.66472	1.07775	1.10291	1.52477	2.17942	0.925236	0.995973	0.219924	0.327445	0.159053	0.349824	0.146612	0.19561	0.021833	0.279801	0.0950445	-0.004085	0.0825455	0.198461	0.00494675	0.174753	-0.0173568	0.0558312	
0.904891	4.17633	0	0	0.099305	0.23585	0.247125	0.42745	0.172295	0.142928	0.138747	0.453499	1.65246	1.71325	1.12003	1.12293	1.58799	2.2374	0.961282	1.02244	0.219924	0.327445	0.160872	0.344684	0.145743	0.198065	0.021833	0.279801	0.091192	-0.006449	0.075926	0.192084	-0.002094	0.173413	-0.025501	0.045055	
0.907223	4.18701	0	0	0.0954818	0.227253	0.244905	0.418106	0.167358	0.136288	0.136103	0.443114	1.70245	1.75662	1.15262	1.1432	1.63482	2.29659	0.986537	1.04791	0.223739	0.327003	0.15574	0.344088	0.145743	0.198065	0.021833	0.279801	0.0923148	-0.009622	0.0767462	0.189766	0.0085915	0.164452	-0.0296933	0.034408	
0.911158	4.19922	0	0	0.0916585	0.218657	0.242685	0.408761	0.162421	0.129647	0.133459	0.432729	1.75244	1.79998	1.18521	1.16346	1.68165	2.35578	1.01179	1.07337	0.227554	0.326561	0.150608	0.343492	0.145743	0.198065	0.021833	0.279801	0.0934375	-0.012795	0.0775665	0.187447	0.019277	0.155491	-0.0338855	0.023761	
0.916305	4.20837	0	0	0.0878353	0.210061	0.240465	0.399416	0.157485	0.123007	0.130814	0.422345	1.80243	1.84334	1.2178	1.18373	1.72847	2.41497	1.03705	1.09884	0.231368	0.326118	0.145476	0.342897	0.145743	0.198065	0.021833	0.279801	0.0945602	-0.015968	0.0783868	0.185129	0.0299625	0.14653	-0.0380778	0.013114	
0.922143	4.21905	0	0	0.084012	0.201464	0.238245	0.390072	0.152548	0.116367	0.12817	0.41196	1.85242	1.88671	1.25039	1.204	1.7753	2.47415	1.0623	1.1243	0.235183	0.325676	0.140344	0.342301	0.145743	0.198065	0.021833	0.279801	0.095683	-0.019141	0.079207	0.182811	0.040648	0.137569	-0.04227	0.002467	
0.928153	4.23279	0	0	0.0776418	0.200086	0.234653	0.392419	0.145802	0.114862	0.129098	0.409337	1.89977	1.92766	1.27963	1.22026	1.82504	2.52708	1.09157	1.13894	0.231368	0.326118	0.140344	0.342301	0.145743	0.198065	0.030217	0.274323	0.085742	-0.0175217	0.0778215	0.178373	0.032694	0.13881	-0.0412928	-0.0115317	
0.933816	4.24347	0	0	0.0712715	0.198707	0.231061	0.394766	0.139056	0.113357	0.130026	0.406714	1.94713	1.96861	1.30886	1.23652	1.87479	2.58	1.12084	1.15357	0.227554	0.326561	0.140344	0.342301	0.145743	0.198065	0.038601	0.268845	0.075801	-0.0159025	0.076436	0.173934	0.02474	0.140051	-0.0403155	-0.0255305	
0.938612	4.2572	0	0	0.0649012	0.197329	0.227468	0.397113	0.132311	0.111852	0.130955	0.40409	1.99448	2.00956	1.3381	1.25279	1.92454	2.63292	1.1501	1.16821	0.223739	0.327003	0.140344	0.342301	0.145743	0.198065	0.046985	0.263366	0.06586	-0.0142832	0.0750505	0.169496	0.016786	0.141292	-0.0393382	-0.0395293	
0.942021	4.26788	0	0	0.058531	0.195951	0.223876	0.39946	0.125565	0.110347	0.131883	0.401467	2.04183	2.05052	1.36733	1.26905	1.97429	2.68584	1.17937	1.18285	0.219924	0.327445	0.140344	0.342301	0.145743	0.198065	0.055369	0.257888	0.055919	-0.012664	0.073665	0.165058	0.008832	0.142533	-0.038361	-0.053528	
0.943549	4.28161	0	0	0.0530168	0.192173	0.222767	0.394794	0.12446	0.103193	0.123279	0.399028	2.08105	2.09251	1.38363	1.29395	2.01269	2.73603	1.20127	1.20246	0.219924	0.327445	0.143976	0.332036	0.148642	0.199947	0.055369	0.257888	0.063131	-0.0198132	0.0698217	0.167569	0.0128077	0.141913	-0.0386193	-0.0640287	
0.943195	4.29535	0	0	0.0475025	0.188396	0.221658	0.390127	0.123356	0.096039	0.114675	0.39659	2.12026	2.13451	1.39992	1.31885	2.0511	2.78621	1.22317	1.22208	0.219924	0.327445	0.147608	0.321771	0.151541	0.201829	0.055369	0.257888	0.070343	-0.0269625	0.0659785	0.170081	0.0167835	0.141293	-0.0388775	-0.0745295	
0.941417	4.30603	0	0	0.0419882	0.184618	0.220549	0.38546	0.122251	0.088885	0.106071	0.394151	2.15947	2.17651	1.41622	1.34375	2.0895	2.8364	1.24507	1.24169	0.219924	0.327445	0.15124	0.311506	0.154441	0.203711	0.055369	0.257888	0.077555	-0.0341117	0.0621352	0.172592	0.0207592	0.140673	-0.0391357	-0.0850303	
0.938694	4.32739	0	0	0.036474	0.180841	0.21944	0.380794	0.121146	0.081731	0.097467	0.391712	2.19868	2.21851	1.43252	1.36865	2.12791	2.88658	1.26697	1.26131	0.219924	0.327445	0.154872	0.301241	0.15734	0.205593	0.055369	0.257888	0.084767	-0.041261	0.058292	0.175103	0.024735	0.140053	-0.039394	-0.095531	
0.935502	4.34265	0	0	0.0309655	0.177068	0.215569	0.376142	0.11441	0.0802313	0.101173	0.381239	2.22563	2.24888	1.45484	1.37679	2.15992	2.91914	1.27977	1.27424	0.217998	0.322556	0.151556	0.295525	0.156178	0.198801	0.0490338	0.257576	0.0820387	-0.0467835	0.0593635	0.163728	0.0234885	0.13296	-0.0423705	-0.109559	
0.932317	4.35486	0	0	0.025457	0.173295	0.211697	0.37149	0.107675	0.0787315	0.104878	0.370766	2.25257	2.27926	1.47717	1.38492	2.19193	2.9517	1.29256	1.28717	0.216071	0.317667	0.14824	0.289809	0.155016	0.19201	0.0426985	0.257265	0.0793105	-0.052306	0.060435	0.152353	0.022242	0.125867	-0.045347	-0.123587	
0.929617	4.37012	0	0	0.0199485	0.169521	0.207826	0.366837	0.10094	0.0772317	0.108584	0.360294	2.27952	2.30964	1.49949	1.39305	2.22394	2.98426	1.30535	1.3001	0.214144	0.312779	0.144924	0.284093	0.153854	0.185219	0.0363632	0.256954	0.0765823	-0.0578285	0.0615065	0.140977	0.0209955	0.118774	-0.0483235	-0.137615	
0.927878	4.38537	0	0	0.01444	0.165748	0.203955	0.362185	0.094204	0.075732	0.11229	0.349821	2.30647	2.34002	1.52182	1.40118	2.25595	3.01681	1.31814	1.31303	0.212218	0.30789	0.141608	0.278377	0.152692	0.178427	0.030028	0.256642	0.073854	-0.063351	0.062578	0.129602	0.019749	0.111681	-0.0513	-0.151643	
0.927423	4.40063	0	0	0.0108402	0.166258	0.204781	0.359851	0.094204	0.075732	0.108189	0.3525	2.33157	2.36429	1.53106	1.41793	2.27053	3.0498	1.33096	1.32601	0.210332	0.31322	0.143421	0.273255	0.147188	0.18391	0.0343133	0.262747	0.0628058	-0.0585655	0.063964	0.134032	0.0237255	0.111059	-0.055236	-0.15173	
0.928123	4.41894	0	0	0.0072405	0.166768	0.205606	0.357517	0.094204	0.075732	0.104089	0.35518	2.35667	2.38856	1.5403	1.43469	2.28512	3.08278	1.34378	1.33899	0.208446	0.31855	0.145233	0.268133	0.141685	0.189393	0.0385985	0.268852	0.0517575	-0.05378	0.06535	0.138462	0.027702	0.110436	-0.059172	-0.151816	
0.929767	4.44336	0	0	0.00364075	0.167279	0.206432	0.355184	0.094204	0.075732	0.0999878	0.357859	2.38177	2.41283	1.54953	1.45145	2.29971	3.11576	1.3566	1.35197	0.20656	0.323881	0.147045	0.263011	0.136181	0.194876	0.0428837	0.274957	0.0407093	-0.0489945	0.066736	0.142891	0.0316785	0.109814	-0.063108	-0.151903	
0.932144	4.4693	0	0	4.1E-05	0.167789	0.207258	0.35285	0.094204	0.075732	0.095887	0.360539	2.40687	2.4371	1.55877	1.4682	2.31429	3.14874	1.36942	1.36495	0.204674	0.329211	0.148858	0.257889	0.130678	0.200359	0.047169	0.281062	0.029661	-0.044209	0.068122	0.147321	0.035655	0.109192	-0.067044	-0.15199	
0.935044	4.49371	0	0	-0.006305	0.166413	0.210559	0.343521	0.090387	0.0762603	0.0977382	0.355307	2.41279	2.45622	1.56085	1.47664	2.33237	3.15971	1.37304	1.37114	0.203692	0.32166	0.149159	0.241963	0.129518	0.193572	0.044931	0.269171	0.0280593	-0.0528872	0.0661675	0.136156	0.0295222	0.105299	-0.0712425	-0.162524	
0.938255	4.52118	0	0	-0.012651	0.165037	0.21386	0.334191	0.08657	0.0767885	0.0995895	0.350075	2.4187	2.47534	1.56293	1.48507	2.35045	3.17068	1.37666	1.37734	0.202709	0.314109	0.149459	0.226037	0.128358	0.186785	0.042693	0.25728	0.0264575	-0.0615655	0.064213	0.12499	0.0233895	0.101405	-0.075441	-0.173058	
0.941566	4.53644	0	0	-0.018997	0.16366	0.217161	0.324861	0.082753	0.0773167	0.101441	0.344844	2.42461	2.49446	1.56501	1.4935	2.36853	3.18164	1.38028	1.38353	0.201727	0.306557	0.14976	0.210111	0.127198	0.179999	0.040455	0.245389	0.0248557	-0.0702438	0.0622585	0.113824	0.0172568	0.0975115	-0.0796395	-0.183592	
0.944769	4.55322	0	0	-0.025343	0.162284	0.220462	0.315532	0.078936	0.077845	0.103292	0.339612	2.43052	2.51358	1.56709	1.50194	2.38661	3.19261	1.38391	1.38972	0.200745	0.299006	0.150061	0.194185	0.126038	0.173212	0.038217	0.233498	0.023254	-0.078922	0.060304	0.102659	0.011124	0.093618	-0.083838	-0.194126	
0.947712	4.57764	0	0	-0.0297835	0.165186	0.219637	0.317863	0.0780312	0.080402	0.106467	0.339548	2.42778	2.5333	1.57068	1.50613	2.39149	3.2037	1.38588	1.38415	0.202629	0.293682	0.146742	0.188503	0.122276	0.173786	0.0466007	0.22802	0.0155813	-0.0836195	0.0564658	0.105167	0.00806025	0.091673	-0.084108	-0.204553	
0.95029	4.59747	0	0	-0.034224	0.168088	0.218812	0.320195	0.0771265	0.082959	0.109643	0.339484	2.42503	2.55303	1.57426	1.51032	2.39638	3.21479	1.38785	1.37858	0.204512	0.288358	0.143423	0.182821	0.118513	0.174359	0.0549845	0.222542	0.0079085	-0.088317	0.0526275	0.107675	0.0049965	0.089728	-0.084378	-0.21498	
0.952399	4.60968	0	0	-0.0386645	0.170989	0.217988	0.322526	0.0762218	0.085516	0.112818	0.33942	2.42228	2.57276	1.57784	1.51452	2.40126	3.22587	1.38982	1.37302	0.206396	0.283035	0.140103	0.177139	0.114751	0.174932	0.0633683	0.217064	0.00023575	-0.0930145	0.0487892	0.110182	0.00193275	0.087783	-0.084648	-0.225408	
0.953938	4.61883	0	0	-0.043105	0.173891	0.217163	0.324858	0.075317	0.088073	0.115993	0.339356	2.41953	2.59248	1.58143	1.51871	2.40614	3.23696	1.39179	1.36745	0.20828	0.277711	0.136784	0.171457	0.110988	0.175506	0.071752	0.211586	-0.007437	-0.097712	0.044951	0.11269	-0.001131	0.085838	-0.084918	-0.235835	
0.954802	4.62036	0	0	-0.0477472	0.167729	0.215762	0.313236	0.0704025	0.0814605	0.115593	0.331578	2.40735	2.56718	1.56561	1.5062	2.40161	3.20002	1.37172	1.34214	0.202499	0.2631	0.128634	0.149374	0.10491	0.162537	0.0590832	0.210976	-0.013984	-0.105554	0.0413642	0.10616	-0.0072535	0.0819513	-0.0797677	-0.2392	
0.954888	4.63104	0	0	-0.0523895	0.161568	0.214362	0.301614	0.065488	0.074848	0.115192	0.3238	2.39518	2.54187	1.54979	1.49369	2.39709	3.16307	1.35166	1.31684	0.196718	0.24849	0.120483	0.127291	0.098832	0.149567	0.0464145	0.210367	-0.020531	-0.113395	0.0377775	0.0996295	-0.013376	0.0780645	-0.0746175	-0.242565	
0.954094	4.62952	0	0	-0.0570317	0.155407	0.212961	0.289992	0.0605735	0.0682355	0.114792	0.316022	2.383	2.51657	1.53397	1.48118	2.39256	3.12613	1.33159	1.29153	0.190937	0.233879	0.112333	0.105208	0.092754	0.136597	0.0337457	0.209757	-0.027078	-0.121237	0.0341907	0.0930992	-0.0194985	0.0741778	-0.0694672	-0.245931	
0.952373	4.62952	0	0	-0.061674	0.149245	0.211561	0.27837	0.055659	0.061623	0.114391	0.308244	2.37083	2.49126	1.51815	1.46867	2.38804	3.08919	1.31152	1.26623	0.185156	0.219269	0.104183	0.083125	0.086676	0.123628	0.021077	0.209147	-0.033625	-0.129079	0.030604	0.086569	-0.025621	0.070291	-0.064317	-0.249296	
0.949962	4.62799	0	0	-0.068848	0.150258	0.213208	0.273716	0.045137	0.0606493	0.116642	0.310792	2.3446	2.47022	1.51042	1.4477	2.3646	3.05636	1.28792	1.23499	0.186043	0.206458	0.10114	0.0617073	0.0826257	0.115004	0.0294525	0.203674	-0.0401647	-0.136904	0.0248193	0.0779445	-0.0268673	0.0632272	-0.0609447	-0.270016	
0.94719	4.63104	0	0	-0.076022	0.151271	0.214855	0.269062	0.034615	0.0596755	0.118894	0.313339	2.31838	2.44917	1.5027	1.42673	2.34115	3.02354	1.26432	1.20375	0.186929	0.193648	0.0980975	0.0402895	0.0785755	0.10638	0.037828	0.198202	-0.0467045	-0.14473	0.0190345	0.06932	-0.0281135	0.0561635	-0.0575725	-0.290737	
0.94438	4.62494	0	0	-0.083196	0.152284	0.216501	0.264409	0.024093	0.0587017	0.121145	0.315887	2.29216	2.42813	1.49497	1.40575	2.31771	2.99071	1.24072	1.17251	0.187816	0.180838	0.0950547	0.0188717	0.0745253	0.0977553	0.0462035	0.192729	-0.0532442	-0.152555	0.0132497	0.0606955	-0.0293598	0.0490997	-0.0542002	-0.311457	
0.941861	4.61731	0	0	-0.09037	0.153297	0.218148	0.259755	0.013571	0.057728	0.123396	0.318435	2.26594	2.40708	1.48725	1.38478	2.29427	2.95789	1.21711	1.14127	0.188703	0.168027	0.092012	-0.002546	0.070475	0.089131	0.054579	0.187256	-0.059784	-0.16038	0.007465	0.052071	-0.030606	0.042036	-0.050828	-0.332177	
0.939957	4.60968	0	0	-0.0933138	0.142375	0.217562	0.245846	0.0113738	0.043493	0.128018	0.305373	2.24607	2.3922	1.47298	1.36818	2.28274	2.92884	1.20466	1.11146	0.189582	0.155243	0.088955	-0.023875	0.0655638	0.0829618	0.0523295	0.175416	-0.0652057	-0.171327	-0.00677175	0.0507592	-0.0349108	0.0330485	-0.061686	-0.346183	
0.938996	4.6051	0	0	-0.0962575	0.131454	0.216975	0.231936	0.0091765	0.029258	0.13264	0.292311	2.22619	2.37733	1.45872	1.35158	2.2712	2.89979	1.1922	1.08166	0.190462	0.142459	0.085898	-0.045204	0.0606525	0.0767925	0.05008	0.163575	-0.0706275	-0.182274	-0.0210085	0.0494475	-0.0392155	0.024061	-0.072544	-0.36019	
0.939295	4.59747	0	0	-0.0992013	0.120532	0.216388	0.218027	0.00697925	0.015023	0.137261	0.279249	2.20632	2.36245	1.44445	1.33498	2.25966	2.87074	1.17974	1.05185	0.191341	0.129675	0.082841	-0.066533	0.0557412	0.0706232	0.0478305	0.151735	-0.0760492	-0.193221	-0.0352452	0.0481357	-0.0435202	0.0150735	-0.083402	-0.374197	
0.940916	4.58984	0	0	-0.102145	0.10961	0.215802	0.204118	0.004782	0.000788	0.141883	0.266187	2.18644	2.34757	1.43019	1.31838	2.24812	2.84169	1.16728	1.02205	0.19222	0.116891	0.079784	-0.087862	0.05083	0.064454	0.045581	0.139895	-0.081471	-0.204168	-0.049482	0.046824	-0.047825	0.006086	-0.09426	-0.388203	
0.943596	4.58069	0	0	-0.107618	0.105857	0.214685	0.199495	-0.00191725	-0.00070175	0.14373	0.260968	2.18412	2.35415	1.43168	1.31418	2.24812	2.84169	1.16562	1.01053	0.195026	0.108961	0.07825	-0.0984935	0.052555	0.0595793	0.0476203	0.134131	-0.0879983	-0.211954	-0.050617	0.0334385	-0.0512252	-0.0054335	-0.101182	-0.402091	
0.947053	4.58069	0	0	-0.113091	0.102104	0.213568	0.194873	-0.0086165	-0.0021915	0.145577	0.255748	2.18179	2.36073	1.43316	1.30997	2.24812	2.84169	1.16396	0.99902	0.197832	0.101031	0.076716	-0.109125	0.05428	0.0547045	0.0496595	0.128368	-0.0945255	-0.219741	-0.051752	0.020053	-0.0546255	-0.016953	-0.108103	-0.415979	
0.951004	4.57611	0	0	-0.118565	0.098351	0.212452	0.19025	-0.0153158	-0.00368125	0.147424	0.250528	2.17946	2.36731	1.43465	1.30577	2.24812	2.84169	1.16229	0.987506	0.200638	0.093101	0.075182	-0.119757	0.056005	0.0498297	0.0516988	0.122605	-0.101053	-0.227527	-0.052887	0.0066675	-0.0580258	-0.0284725	-0.115025	-0.429866	
0.955167	4.57001	0	0	-0.124038	0.094598	0.211335	0.185628	-0.022015	-0.005171	0.149271	0.245309	2.17713	2.37389	1.43614	1.30156	2.24812	2.84169	1.16063	0.975992	0.203444	0.085171	0.073648	-0.130388	0.05773	0.044955	0.053738	0.116841	-0.10758	-0.235314	-0.054022	-0.006718	-0.061426	-0.039992	-0.121947	-0.443754	
0.959261	4.56543	0	0	-0.127823	0.0860913	0.211558	0.169451	-0.021317	-0.017347	0.146605	0.235026	2.18725	2.39262	1.44774	1.29721	2.26047	2.85612	1.18111	0.966808	0.204379	0.0825292	0.0772125	-0.140462	0.0548437	0.0430953	0.053738	0.116841	-0.112502	-0.234506	-0.0600287	-0.00632025	-0.0675318	-0.0438425	-0.11953	-0.450584	
0.963002	4.56543	0	0	-0.131607	0.0775845	0.21178	0.153275	-0.020619	-0.029523	0.14394	0.224743	2.19737	2.41135	1.45934	1.29287	2.27281	2.87055	1.20159	0.957624	0.205314	0.0798875	0.080777	-0.150536	0.0519575	0.0412355	0.053738	0.116841	-0.117424	-0.233697	-0.0660355	-0.0059225	-0.0736375	-0.047693	-0.117113	-0.457415	
0.966129	4.56848	0	0	-0.135391	0.0690777	0.212003	0.137099	-0.019921	-0.041699	0.141274	0.214461	2.20749	2.43008	1.47094	1.28852	2.28515	2.88498	1.22207	0.948441	0.206248	0.0772458	0.0843415	-0.16061	0.0490712	0.0393758	0.053738	0.116841	-0.122347	-0.232888	-0.0720423	-0.00552475	-0.0797432	-0.0515435	-0.114696	-0.464245	
0.968596	4.56695	0	0	-0.139176	0.060571	0.212226	0.120922	-0.019223	-0.053875	0.138609	0.204178	2.21761	2.44882	1.48254	1.28418	2.29749	2.8994	1.24255	0.939257	0.207183	0.074604	0.087906	-0.170684	0.046185	0.037516	0.053738	0.116841	-0.127269	-0.23208	-0.078049	-0.005127	-0.085849	-0.055394	-0.112279	-0.471075	
0.970482	4.56848	0	0	-0.141068	0.056324	0.20835	0.116342	-0.0183248	-0.056413	0.138609	0.204178	2.24886	2.47937	1.50342	1.29646	2.32095	2.93212	1.27593	0.942686	0.212858	0.0688655	0.0947945	-0.175185	0.0499332	0.0369395	0.0474085	0.116549	-0.125054	-0.238341	-0.078617	-0.011805	-0.089247	-0.0668718	-0.116197	-0.471139	
0.971865	4.57001	0	0	-0.14296	0.052077	0.204474	0.111761	-0.0174265	-0.058951	0.138609	0.204178	2.28011	2.50992	1.52429	1.30873	2.3444	2.96483	1.30931	0.946115	0.218533	0.063127	0.101683	-0.179686	0.0536815	0.036363	0.041079	0.116256	-0.122839	-0.244601	-0.079185	-0.018483	-0.092645	-0.0783495	-0.120115	-0.471203	
0.972828	4.57153	0	0	-0.144851	0.04783	0.200598	0.10718	-0.0165283	-0.061489	0.138609	0.204178	2.31135	2.54048	1.54517	1.32101	2.36786	2.99755	1.34269	0.949545	0.224207	0.0573885	0.108571	-0.184187	0.0574298	0.0357865	0.0347495	0.115964	-0.120624	-0.250862	-0.079753	-0.025161	-0.096043	-0.0898272	-0.124033	-0.471267	
0.97345	4.57001	0	0	-0.146743	0.043583	0.196722	0.1026	-0.01563	-0.064027	0.138609	0.204178	2.3426	2.57103	1.56605	1.33329	2.39132	3.03027	1.37607	0.952974	0.229882	0.05165	0.11546	-0.188688	0.061178	0.03521	0.02842	0.115672	-0.118409	-0.257122	-0.080321	-0.031839	-0.099441	-0.101305	-0.127951	-0.471331	
0.97381	4.57153	0	0	-0.148635	0.0393403	0.198054	0.0910742	-0.0147323	-0.0665645	0.140037	0.191242	2.37795	2.61476	1.584	1.3541	2.42996	3.07055	1.40185	0.978406	0.232755	0.053834	0.123905	-0.182586	0.058591	0.042521	0.0347495	0.115964	-0.119516	-0.253992	-0.0743163	-0.032239	-0.099441	-0.101305	-0.126161	-0.454112	
0.97399	4.57153	0	0	-0.150526	0.0350975	0.199385	0.0795485	-0.0138345	-0.069102	0.141464	0.178306	2.4133	2.6585	1.60196	1.37491	2.46861	3.11084	1.42763	1.00384	0.235629	0.056018	0.13235	-0.176483	0.056004	0.049832	0.041079	0.116256	-0.120623	-0.250862	-0.0683115	-0.032639	-0.099441	-0.101305	-0.12437	-0.436892	
0.974059	4.56695	0	0	-0.152418	0.0308548	0.200717	0.0680227	-0.0129368	-0.0716395	0.142892	0.16537	2.44866	2.70223	1.61992	1.39571	2.50725	3.15113	1.45341	1.02927	0.238502	0.058202	0.140794	-0.17038	0.053417	0.057143	0.0474085	0.116549	-0.121731	-0.247733	-0.0623068	-0.033039	-0.099441	-0.101305	-0.122579	-0.419673	
0.974035	4.56238	0	0	-0.154309	0.026612	0.202049	0.056497	-0.012039	-0.074177	0.14432	0.152434	2.48401	2.74596	1.63787	1.41652	2.5459	3.19141	1.47919	1.0547	0.241375	0.060386	0.149239	-0.164278	0.05083	0.064454	0.053738	0.116841	-0.122838	-0.244603	-0.056302	-0.033439	-0.099441	-0.101305	-0.120789	-0.402453	
0.973916	4.56085	0	0	-0.150736	0.0261033	0.201232	0.0588055	-0.0100372	-0.069631	0.1434	0.155034	2.52515	2.78657	1.66764	1.43304	2.57634	3.24347	1.52202	1.08207	0.24425	0.0625712	0.155909	-0.153112	0.0545797	0.0638785	0.0516988	0.122605	-0.122838	-0.244603	-0.052486	-0.0359325	-0.102489	-0.103222	-0.116582	-0.392037	
0.973704	4.55627	0	0	-0.147163	0.0255945	0.200415	0.061114	-0.0080355	-0.065085	0.14248	0.157635	2.56629	2.82718	1.6974	1.44957	2.60679	3.29553	1.56485	1.10944	0.247125	0.0647565	0.162579	-0.141946	0.0583295	0.063303	0.0496595	0.128368	-0.122838	-0.244603	-0.04867	-0.038426	-0.105538	-0.105139	-0.112375	-0.38162	
0.973398	4.5517	0	0	-0.14359	0.0250858	0.199598	0.0634225	-0.00603375	-0.060539	0.14156	0.160235	2.60742	2.86779	1.72716	1.46609	2.63724	3.34759	1.60768	1.1368	0.25	0.0669417	0.169249	-0.130779	0.0620793	0.0627275	0.0476203	0.134131	-0.122838	-0.244603	-0.044854	-0.0409195	-0.108586	-0.107056	-0.108168	-0.371204	
0.972998	4.54559	0	0	-0.140017	0.024577	0.198781	0.065731	-0.004032	-0.055993	0.14064	0.162835	2.64856	2.9084	1.75693	1.48262	2.66769	3.39965	1.65051	1.16417	0.252875	0.069127	0.175919	-0.119613	0.065829	0.062152	0.045581	0.139895	-0.122838	-0.244603	-0.041038	-0.043413	-0.111634	-0.108973	-0.103961	-0.360787	
0.972503	4.54254	0	0	-0.136442	0.0240675	0.204294	0.0656802	-0.00203025	-0.051442	0.14064	0.162835	2.69001	2.94948	1.76686	1.51228	2.70679	3.44096	1.68601	1.19678	0.25863	0.0735015	0.180802	-0.103348	0.06988	0.0707635	0.0498738	0.14596	-0.110276	-0.240768	-0.0338785	-0.0304458	-0.0997828	-0.110853	-0.0901162	-0.332836	
0.971914	4.54101	0	0	-0.132867	0.023558	0.209806	0.0656295	-2.85E-05	-0.046891	0.14064	0.162835	2.73145	2.99056	1.7768	1.54195	2.7459	3.48228	1.7215	1.22939	0.264384	0.077876	0.185686	-0.087084	0.073931	0.079375	0.0541665	0.152026	-0.097715	-0.236933	-0.026719	-0.0174785	-0.0879315	-0.112732	-0.0762715	-0.304884	
0.971217	4.53491	0	0	-0.129293	0.0230485	0.215318	0.0655788	0.00197325	-0.04234	0.14064	0.162835	2.77289	3.03164	1.78674	1.57162	2.78501	3.5236	1.757	1.262	0.270139	0.0822505	0.19057	-0.0708195	0.077982	0.0879865	0.0584593	0.158091	-0.0851535	-0.233098	-0.0195595	-0.00451125	-0.0760802	-0.114612	-0.0624268	-0.276933	
0.970359	4.52881	0	0	-0.125718	0.022539	0.220831	0.065528	0.003975	-0.037789	0.14064	0.162835	2.81434	3.07272	1.79668	1.60129	2.82412	3.56492	1.79249	1.29461	0.275893	0.086625	0.195453	-0.054555	0.082033	0.096598	0.062752	0.164157	-0.072592	-0.229263	-0.0124	0.008456	-0.064229	-0.116492	-0.048582	-0.248981	
0.96928	4.52576	0	0	-0.116664	0.0257615	0.226654	0.0723867	0.0135868	-0.0342933	0.141054	0.170567	2.84276	3.11502	1.81786	1.61386	2.85443	3.60674	1.82249	1.32692	0.278773	0.0888145	0.200333	-0.0382332	0.0878162	0.100335	0.0607088	0.169932	-0.0660538	-0.221471	-0.001975	0.012253	-0.0563157	-0.117751	-0.0310412	-0.231232	
0.967924	4.51813	0	0	-0.10761	0.028984	0.232477	0.0792455	0.0231985	-0.0307975	0.141467	0.178298	2.87118	3.15731	1.83905	1.62644	2.88474	3.64856	1.85249	1.35923	0.281652	0.091004	0.205213	-0.0219115	0.0935995	0.104072	0.0586655	0.175706	-0.0595155	-0.213678	0.00845	0.01605	-0.0484025	-0.119009	-0.0135005	-0.213483	
0.96623	4.5166	0	0	-0.0985567	0.0322065	0.2383	0.0861043	0.0328102	-0.0273017	0.141881	0.18603	2.8996	3.1996	1.86023	1.63902	2.91505	3.69039	1.88248	1.39155	0.284532	0.0931935	0.210094	-0.00558975	0.0993827	0.107809	0.0566222	0.181481	-0.0529773	-0.205886	0.018875	0.019847	-0.0404892	-0.120268	0.00404025	-0.195733	
0.96414	4.5105	0	0	-0.089503	0.035429	0.244123	0.092963	0.042422	-0.023806	0.142295	0.193762	2.92802	3.2419	1.88141	1.6516	2.94536	3.73221	1.91248	1.42386	0.287412	0.095383	0.214974	0.010732	0.105166	0.111546	0.054579	0.187256	-0.046439	-0.198094	0.0293	0.023644	-0.032576	-0.121527	0.021581	-0.177984	
0.961596	4.51202	0	0	-0.083178	0.036785	0.246369	0.102176	0.0500405	-0.02487	0.141374	0.196366	2.96027	3.27419	1.8908	1.66866	2.97399	3.76677	1.93688	1.45586	0.284599	0.103332	0.221654	0.0220155	0.107194	0.115863	0.0609183	0.187556	-0.0316068	-0.200537	0.035093	0.0322568	-0.0304178	-0.117065	0.0339857	-0.156754	
0.958543	4.50439	0	0	-0.076853	0.038141	0.248615	0.111389	0.057659	-0.025934	0.140452	0.19897	2.99252	3.30649	1.90019	1.68573	3.00263	3.80133	1.96128	1.48785	0.281786	0.111281	0.228334	0.033299	0.109222	0.120181	0.0672575	0.187857	-0.0167745	-0.20298	0.040886	0.0408695	-0.0282595	-0.112602	0.0463905	-0.135525	
0.955052	4.49829	0	0	-0.070528	0.039497	0.250861	0.120602	0.0652775	-0.026998	0.139531	0.201574	3.02476	3.33879	1.90958	1.70279	3.03127	3.83588	1.98568	1.51984	0.278974	0.11923	0.235015	0.0445825	0.11125	0.124498	0.0735967	0.188157	-0.00194225	-0.205423	0.046679	0.0494822	-0.0261012	-0.10814	0.0587952	-0.114295	
0.951335	4.49524	0	0	-0.064203	0.040853	0.253107	0.129815	0.072896	-0.028062	0.138609	0.204178	3.05701	3.37109	1.91897	1.71986	3.0599	3.87044	2.01008	1.55184	0.276161	0.127179	0.241695	0.055866	0.113278	0.128815	0.079936	0.188457	0.01289	-0.207866	0.052472	0.058095	-0.023943	-0.103678	0.0712	-0.093066	
0.947612	4.49066	0	0	-0.0534372	0.039312	0.263346	0.132038	0.076709	-0.0285952	0.144043	0.206637	3.08093	3.39037	1.92779	1.72407	3.07907	3.89366	2.0291	1.5657	0.282792	0.118771	0.248645	0.051325	0.11501	0.123922	0.084024	0.176904	0.0211793	-0.218116	0.0595702	0.0463695	-0.0243007	-0.113229	0.0830895	-0.0928122	
0.944101	4.48761	0	0	-0.0426715	0.037771	0.273585	0.134261	0.080522	-0.0291285	0.149477	0.209096	3.10486	3.40965	1.93661	1.72827	3.09824	3.91688	2.04811	1.57956	0.289424	0.110364	0.255595	0.046784	0.116741	0.119028	0.088112	0.165351	0.0294685	-0.228365	0.0666685	0.034644	-0.0246585	-0.12278	0.094979	-0.0925585	
0.941023	4.48151	0	0	-0.0319057	0.03623	0.283823	0.136483	0.084335	-0.0296618	0.15491	0.211555	3.12878	3.42893	1.94542	1.73248	3.11741	3.9401	2.06713	1.59342	0.296055	0.101956	0.262544	0.042243	0.118473	0.114134	0.0922	0.153797	0.0377577	-0.238615	0.0737668	0.0229185	-0.0250163	-0.13233	0.106869	-0.0923047	
0.938597	4.47845	0	0	-0.02114	0.034689	0.294062	0.138706	0.088148	-0.030195	0.160344	0.214014	3.1527	3.44821	1.95424	1.73668	3.13658	3.96332	2.08615	1.60729	0.302686	0.093548	0.269494	0.037702	0.120204	0.109241	0.096288	0.142244	0.046047	-0.248865	0.080865	0.011193	-0.025374	-0.141881	0.118758	-0.092051	
0.937041	4.4754	0	0	-0.020297	0.0323065	0.299599	0.138656	0.0928645	-0.033277	0.153989	0.21416	3.16896	3.46456	1.95942	1.73662	3.14801	3.98278	2.09366	1.61996	0.30456	0.0882513	0.267691	0.0427977	0.130327	0.100746	0.09833	0.136473	0.04827	-0.255147	0.0833093	0.00428525	-0.021776	-0.15205	0.124231	-0.0849165	
0.936513	4.47388	0	0	-0.019454	0.029924	0.305137	0.138607	0.097581	-0.036359	0.147633	0.214306	3.18523	3.48091	1.9646	1.73657	3.15944	4.00224	2.10116	1.63264	0.306434	0.0829545	0.265888	0.0478935	0.14045	0.0922515	0.100372	0.130702	0.050493	-0.26143	0.0857535	-0.0026225	-0.018178	-0.162218	0.129705	-0.077782	
0.936886	4.46777	0	0	-0.018611	0.0275415	0.310674	0.138558	0.102297	-0.039441	0.141278	0.214451	3.20149	3.49727	1.96978	1.73651	3.17088	4.02169	2.10867	1.64532	0.308309	0.0776577	0.264085	0.0529893	0.150573	0.0837567	0.102414	0.124932	0.052716	-0.267713	0.0881978	-0.00953025	-0.01458	-0.172387	0.135179	-0.0706475	
0.937955	4.46625	0	0	-0.017768	0.025159	0.316211	0.138508	0.107014	-0.042523	0.134923	0.214597	3.21776	3.51362	1.97496	1.73645	3.18231	4.04115	2.11618	1.65799	0.310183	0.072361	0.262282	0.058085	0.160696	0.075262	0.104456	0.119161	0.054939	-0.273995	0.090642	-0.016438	-0.010982	-0.182556	0.140652	-0.063513	
0.939513	4.46167	0	0	-0.008051	0.0169785	0.323397	0.133813	0.114436	-0.053245	0.139943	0.209314	3.23579	3.51265	1.96978	1.73651	3.19332	4.04897	2.11791	1.67008	0.309172	0.064884	0.260738	0.0473473	0.165884	0.0606015	0.10219	0.107348	0.0654493	-0.290512	0.0872717	-0.0319082	-0.013512	-0.196511	0.141885	-0.0669982	
0.941354	4.45557	0	0	0.001666	0.008798	0.330583	0.129117	0.121858	-0.063967	0.144963	0.204031	3.25382	3.51169	1.9646	1.73657	3.20433	4.05678	2.11964	1.68217	0.308161	0.057407	0.259195	0.0366095	0.171071	0.045941	0.0999245	0.095536	0.0759595	-0.307029	0.0839015	-0.0473785	-0.016042	-0.210467	0.143118	-0.0704835	
0.943273	4.45709	0	0	0.011383	0.0006175	0.337768	0.124422	0.12928	-0.074689	0.149984	0.198748	3.27185	3.51073	1.95942	1.73662	3.21534	4.0646	2.12136	1.69425	0.307151	0.04993	0.257652	0.0258717	0.176258	0.0312805	0.0976588	0.0837235	0.0864697	-0.323547	0.0805312	-0.0628488	-0.018572	-0.224422	0.144352	-0.0739687	
0.945062	4.45404	0	0	0.0211	-0.007563	0.344954	0.119727	0.136702	-0.085411	0.155004	0.193465	3.28989	3.50977	1.95424	1.73668	3.22635	4.07241	2.12309	1.70634	0.30614	0.042453	0.256108	0.015134	0.181446	0.01662	0.095393	0.071911	0.09698	-0.340064	0.077161	-0.078319	-0.021102	-0.238377	0.145585	-0.077454	
0.94652	4.44794	0	0	0.0272252	-0.0152263	0.34937	0.115057	0.139402	-0.093043	0.153669	0.188333	3.29768	3.5128	1.95212	1.7281	3.23554	4.07241	2.12512	1.70061	0.310815	0.0292402	0.254561	0.0044185	0.181132	0.00744675	0.0931235	0.0601265	0.0903893	-0.347801	0.075992	-0.0916607	-0.0196822	-0.252933	0.146818	-0.0809378	
0.947545	4.44794	0	0	0.0333505	-0.0228895	0.353787	0.110386	0.142103	-0.100675	0.152334	0.183202	3.30547	3.51584	1.95001	1.71952	3.24474	4.07242	2.12715	1.69487	0.315491	0.0160275	0.253014	-0.006297	0.180818	-0.0017265	0.090854	0.048342	0.0837985	-0.355537	0.074823	-0.105002	-0.0182625	-0.267489	0.148051	-0.0844215	
0.948178	4.44031	0	0	0.0394758	-0.0305528	0.358203	0.105716	0.144804	-0.108307	0.150998	0.178071	3.31326	3.51888	1.94789	1.71093	3.25394	4.07242	2.12918	1.68914	0.320166	0.00281475	0.251467	-0.0170125	0.180505	-0.0108998	0.0885845	0.0365575	0.0772077	-0.363274	0.073654	-0.118344	-0.0168428	-0.282045	0.149283	-0.0879052	
0.948465	4.44183	0	0	0.045601	-0.038216	0.362619	0.101046	0.147504	-0.115939	0.149663	0.172939	3.32105	3.52191	1.94577	1.70235	3.26314	4.07242	2.13121	1.6834	0.324841	-0.010398	0.24992	-0.027728	0.180191	-0.020073	0.086315	0.024773	0.070617	-0.371011	0.072485	-0.131686	-0.015423	-0.296601	0.150516	-0.091389	
0.948456	4.43725	0	0	0.048968	-0.0477318	0.365902	0.0917675	0.156722	-0.131729	0.150167	0.162614	3.32806	3.51462	1.94001	1.68953	3.26912	4.06851	2.12948	1.67133	0.322803	-0.025288	0.239888	-0.0445658	0.182457	-0.0365323	0.0797392	0.00701475	0.0772555	-0.389772	0.0693208	-0.155988	-0.0210257	-0.312362	0.155157	-0.11581	
0.948197	4.43115	0	0	0.052335	-0.0572475	0.369185	0.082489	0.165939	-0.14752	0.15067	0.15229	3.33508	3.50732	1.93424	1.67672	3.27511	4.06459	2.12774	1.65925	0.320766	-0.040178	0.229856	-0.0614035	0.184723	-0.0529915	0.0731635	-0.0107435	0.083894	-0.408534	0.0661565	-0.18029	-0.0266285	-0.328124	0.159798	-0.140232	
0.947738	4.42963	0	0	0.055702	-0.0667632	0.372469	0.0732105	0.175156	-0.163311	0.151174	0.141966	3.3421	3.50003	1.92848	1.66391	3.2811	4.06068	2.12601	1.64718	0.318728	-0.055068	0.219824	-0.0782412	0.18699	-0.0694508	0.0665878	-0.0285017	0.0905325	-0.427295	0.0629922	-0.204592	-0.0322313	-0.343885	0.164438	-0.164653	
0.947125	4.4281	0	0	0.059069	-0.076279	0.375752	0.063932	0.184374	-0.179101	0.151678	0.131641	3.34912	3.49273	1.92272	1.65109	3.28709	4.05677	2.12428	1.6351	0.31669	-0.069958	0.209792	-0.095079	0.189256	-0.08591	0.060012	-0.04626	0.097171	-0.446057	0.059828	-0.228894	-0.037834	-0.359646	0.169079	-0.189074	
0.946407	4.42657	0	0	0.0668755	-0.0886877	0.382628	0.052313	0.190895	-0.187265	0.151259	0.123929	3.36067	3.48518	1.9206	1.64255	3.29308	4.05285	2.12052	1.62876	0.319485	-0.0778578	0.20824	-0.105732	0.188932	-0.0950435	0.0577358	-0.057972	0.102692	-0.461662	0.0564352	-0.244201	-0.0364335	-0.374124	0.16879	-0.199554	
0.945614	4.42352	0	0	0.074682	-0.101097	0.389504	0.040694	0.197416	-0.19543	0.150839	0.116218	3.37222	3.47763	1.91848	1.63401	3.29907	4.04894	2.11677	1.62243	0.32228	-0.0857575	0.206688	-0.116384	0.188608	-0.104177	0.0554595	-0.069684	0.108214	-0.477267	0.0530425	-0.259508	-0.035033	-0.388603	0.1685	-0.210035	
0.944774	4.42352	0	0	0.0824885	-0.113505	0.396381	0.029075	0.203936	-0.203594	0.150419	0.108506	3.38378	3.47008	1.91636	1.62546	3.30507	4.04502	2.11301	1.61609	0.325075	-0.0936572	0.205136	-0.127036	0.188284	-0.11331	0.0531833	-0.081396	0.113736	-0.492871	0.0496497	-0.274814	-0.0336325	-0.403081	0.16821	-0.220515	
0.943915	4.42047	0	0	0.090295	-0.125914	0.403257	0.017456	0.210457	-0.211758	0.15	0.100794	3.39533	3.46253	1.91424	1.61692	3.31106	4.0411	2.10925	1.60976	0.32787	-0.101557	0.203584	-0.137689	0.18796	-0.122444	0.050907	-0.093108	0.119257	-0.508476	0.046257	-0.290121	-0.032232	-0.417559	0.167921	-0.230995	
0.943062	4.41894	0	0	0.0989393	-0.140686	0.404573	0.00592075	0.218774	-0.224992	0.147321	0.090583	3.40815	3.45145	1.90696	1.60846	3.31706	4.03719	2.10549	1.60343	0.329635	-0.11686	0.203813	-0.153364	0.195687	-0.144282	0.046344	-0.116449	0.130834	-0.528016	0.0414578	-0.309699	-0.0347885	-0.431357	0.163658	-0.241523	
0.942244	4.41742	0	0	0.107583	-0.155458	0.40589	-0.0056145	0.227091	-0.238227	0.144643	0.080372	3.42096	3.44037	1.89968	1.6	3.32305	4.03327	2.10174	1.59711	0.331399	-0.132163	0.204042	-0.169038	0.203414	-0.16612	0.041781	-0.13979	0.14241	-0.547557	0.0366585	-0.329278	-0.037345	-0.445154	0.159394	-0.252051	
0.941487	4.41742	0	0	0.116228	-0.170231	0.407207	-0.0171498	0.235408	-0.251461	0.141964	0.070161	3.43378	3.42929	1.8924	1.59154	3.32905	4.02935	2.09798	1.59078	0.333164	-0.147466	0.204271	-0.184713	0.211142	-0.187958	0.037218	-0.163131	0.153987	-0.567098	0.0318592	-0.348856	-0.0399015	-0.458951	0.155131	-0.262578	
0.940818	4.41284	0	0	0.124872	-0.185003	0.408523	-0.028685	0.243725	-0.264695	0.139286	0.05995	3.44659	3.4182	1.88512	1.58308	3.33505	4.02543	2.09423	1.58445	0.334929	-0.162769	0.2045	-0.200387	0.218869	-0.209796	0.032655	-0.186472	0.165564	-0.586638	0.02706	-0.368434	-0.042458	-0.472749	0.150868	-0.273106	
0.940264	4.41284	0	0	0.127389	-0.192116	0.412938	-0.0333473	0.253187	-0.270877	0.143377	0.0572768	3.45444	3.42121	1.88512	1.58308	3.3429	4.02933	2.08644	1.58954	0.339677	-0.165872	0.206284	-0.205428	0.220584	-0.214642	0.0346697	-0.192166	0.166665	-0.58975	0.0264605	-0.375016	-0.0318937	-0.481583	0.152092	-0.276566	
0.93985	4.41589	0	0	0.129906	-0.19923	0.417353	-0.0380095	0.262649	-0.27706	0.147468	0.0546035	3.46228	3.42422	1.88512	1.58308	3.35075	4.03323	2.07865	1.59463	0.344425	-0.168974	0.208068	-0.21047	0.222298	-0.219488	0.0366845	-0.197859	0.167766	-0.592863	0.025861	-0.381598	-0.0213295	-0.490417	0.153316	-0.280025	
0.939603	4.41589	0	0	0.132423	-0.206343	0.421767	-0.0426718	0.27211	-0.283243	0.151559	0.0519303	3.47012	3.42722	1.88512	1.58308	3.3586	4.03713	2.07086	1.59972	0.349173	-0.172076	0.209852	-0.215511	0.224013	-0.224333	0.0386993	-0.203553	0.168868	-0.595975	0.0252615	-0.388181	-0.0107652	-0.499251	0.15454	-0.283484	
0.939548	4.41742	0	0	0.13494	-0.213456	0.426182	-0.047334	0.281572	-0.289425	0.15565	0.049257	3.47796	3.43023	1.88512	1.58308	3.36645	4.04102	2.06307	1.60481	0.353921	-0.175179	0.211636	-0.220552	0.225727	-0.229179	0.040714	-0.209247	0.169969	-0.599087	0.024662	-0.394763	-0.000201	-0.508085	0.155764	-0.286944	
0.939711	4.41284	0	0	0.146352	-0.226377	0.428635	-0.0542668	0.287204	-0.295053	0.154308	0.044161	3.49287	3.42591	1.87844	1.58744	3.3757	4.041	2.06682	1.61114	0.359601	-0.180909	0.209852	-0.215511	0.232922	-0.239465	0.0427273	-0.214937	0.177139	-0.606164	0.0202552	-0.39885	-0.00809975	-0.506784	0.149349	-0.280093	
0.940118	4.41131	0	0	0.157765	-0.239299	0.431088	-0.0611995	0.292836	-0.300682	0.152966	0.039065	3.50778	3.42159	1.87177	1.5918	3.38495	4.04099	2.07057	1.61747	0.365281	-0.18664	0.208068	-0.21047	0.240118	-0.24975	0.0447405	-0.220627	0.184308	-0.613241	0.0158485	-0.402937	-0.0159985	-0.505483	0.142935	-0.273242	
0.940795	4.41131	0	0	0.169177	-0.25222	0.433541	-0.0681323	0.298467	-0.306311	0.151624	0.033969	3.52269	3.41728	1.8651	1.59616	3.3942	4.04097	2.07431	1.62381	0.37096	-0.19237	0.206284	-0.205428	0.247313	-0.260036	0.0467537	-0.226317	0.191478	-0.620317	0.0114418	-0.407025	-0.0238972	-0.504183	0.13652	-0.26639	
0.941744	4.41284	0	0	0.180589	-0.265141	0.435994	-0.075065	0.304099	-0.311939	0.150282	0.028873	3.5376	3.41296	1.85842	1.60052	3.40345	4.04095	2.07806	1.63014	0.37664	-0.1981	0.2045	-0.200387	0.254508	-0.270322	0.048767	-0.232007	0.198648	-0.627394	0.007035	-0.411112	-0.031796	-0.502882	0.130105	-0.259539	
0.942776	4.40979	0	0	0.184203	-0.265682	0.437139	-0.0704832	0.306145	-0.307428	0.147533	0.0366423	3.55211	3.4225	1.86569	1.60899	3.41643	4.05662	2.09338	1.63772	0.382431	-0.193804	0.211193	-0.189235	0.261196	-0.269107	0.044739	-0.220623	0.197547	-0.624283	0.00783625	-0.413376	-0.029625	-0.498509	0.130394	-0.24908	
0.943603	4.41131	0	0	0.187816	-0.266222	0.438284	-0.0659015	0.308192	-0.302918	0.144784	0.0444115	3.56662	3.43205	1.87296	1.61746	3.42941	4.07229	2.10869	1.64531	0.388221	-0.189507	0.217885	-0.178084	0.267883	-0.267893	0.040711	-0.209239	0.196446	-0.621171	0.0086375	-0.41564	-0.027454	-0.494136	0.130684	-0.23862	
0.943937	4.41131	0	0	0.19143	-0.266763	0.439429	-0.0613197	0.310238	-0.298408	0.142035	0.0521807	3.58112	3.44159	1.88023	1.62592	3.44239	4.08797	2.124	1.6529	0.394011	-0.185211	0.224577	-0.166932	0.27457	-0.266678	0.036683	-0.197856	0.195346	-0.61806	0.00943875	-0.417905	-0.025283	-0.489763	0.130973	-0.228161	
0.943491	4.40979	0	0	0.195044	-0.267303	0.440574	-0.056738	0.312284	-0.293897	0.139286	0.05995	3.59563	3.45113	1.8875	1.63439	3.45537	4.10364	2.13932	1.66048	0.399802	-0.180915	0.23127	-0.15578	0.281258	-0.265464	0.032655	-0.186472	0.194245	-0.614949	0.01024	-0.420169	-0.023112	-0.48539	0.131263	-0.217701	
0.941977	4.41284	0	0	0.201175	-0.27495	0.437794	-0.0566985	0.321767	-0.300094	0.139286	0.05995	3.61143	3.45715	1.89631	1.63856	3.46373	4.11938	2.14278	1.6847	0.404667	-0.173981	0.237969	-0.144597	0.287953	-0.26425	0.0369568	-0.18052	0.198115	-0.612692	0.00563475	-0.415419	-0.0200512	-0.483526	0.131548	-0.207222	
0.939107	4.40979	0	0	0.207305	-0.282597	0.435014	-0.056659	0.331249	-0.30629	0.139286	0.05995	3.62724	3.46317	1.90511	1.64274	3.47209	4.13513	2.14624	1.70891	0.409532	-0.167047	0.244667	-0.133414	0.294648	-0.263036	0.0412585	-0.174567	0.201986	-0.610434	0.0010295	-0.41067	-0.0169905	-0.481662	0.131833	-0.196743	
0.934597	4.40674	0	0	0.213436	-0.290244	0.432234	-0.0566195	0.340732	-0.312487	0.139286	0.05995	3.64304	3.46919	1.91391	1.64692	3.48044	4.15087	2.14969	1.73313	0.414397	-0.160113	0.251366	-0.122232	0.301344	-0.261822	0.0455602	-0.168615	0.205856	-0.608177	-0.00357575	-0.40592	-0.0139298	-0.479799	0.132119	-0.186264	
0.928497	4.40979	0	0	0.219566	-0.297891	0.429454	-0.05658	0.350215	-0.318683	0.139286	0.05995	3.65884	3.47522	1.92272	1.65109	3.4888	4.16661	2.15315	1.75734	0.419262	-0.153179	0.258065	-0.111049	0.308039	-0.260608	0.049862	-0.162663	0.209727	-0.60592	-0.008181	-0.40117	-0.010869	-0.477935	0.132404	-0.175785	
0.921474	4.40826	0	0	0.225968	-0.296611	0.431741	-0.047405	0.352267	-0.314171	0.137872	0.0728353	3.66839	3.49905	1.92025	1.6726	3.50509	4.18638	2.16239	1.78232	0.425166	-0.138796	0.266325	-0.0891315	0.31423	-0.24786	0.06481	-0.150474	0.2136	-0.603662	-0.00597975	-0.399126	-0.015319	-0.465359	0.133914	-0.168762	
0.914257	4.40826	0	0	0.232369	-0.295331	0.434028	-0.03823	0.354318	-0.309659	0.136458	0.0857205	3.67794	3.52288	1.91779	1.69412	3.52137	4.20614	2.17164	1.8073	0.431069	-0.124412	0.274586	-0.067214	0.32042	-0.235111	0.079758	-0.138285	0.217473	-0.601403	-0.0037785	-0.397081	-0.019769	-0.452782	0.135425	-0.161739	
0.907577	4.40521	0	0	0.23877	-0.294051	0.436315	-0.029055	0.35637	-0.305148	0.135043	0.0986058	3.68749	3.54671	1.91532	1.71563	3.53766	4.22591	2.18088	1.83228	0.436973	-0.110029	0.282847	-0.0452965	0.326611	-0.222362	0.094706	-0.126096	0.221346	-0.599144	-0.00157725	-0.395037	-0.024219	-0.440205	0.136936	-0.154716	
0.902165	4.40369	0	0	0.245172	-0.292771	0.438602	-0.01988	0.358422	-0.300636	0.133629	0.111491	3.69704	3.57054	1.91286	1.73714	3.55395	4.24567	2.19012	1.85725	0.442877	-0.095645	0.291107	-0.023379	0.332802	-0.209614	0.109654	-0.113907	0.225219	-0.596886	0.000624	-0.392993	-0.028669	-0.427629	0.138446	-0.147693	
0.898752	4.40369	0	0	0.248795	-0.293316	0.436964	-0.0152492	0.362272	-0.3012	0.133629	0.111491	3.71166	3.5802	1.91344	1.75006	3.56233	4.26156	2.20142	1.87657	0.447846	-0.0785665	0.299368	-0.001353	0.338996	-0.196827	0.109914	-0.0964607	0.226888	-0.588387	-0.0003835	-0.381876	-0.0291755	-0.415677	0.13626	-0.130217	
0.898068	4.40216	0	0	0.252417	-0.293862	0.435325	-0.0106185	0.366121	-0.301763	0.133629	0.111491	3.72627	3.58985	1.91402	1.76298	3.57072	4.27744	2.21271	1.89589	0.452815	-0.061488	0.307629	0.020673	0.345191	-0.18404	0.110174	-0.0790145	0.228556	-0.579888	-0.001391	-0.37076	-0.029682	-0.403726	0.134074	-0.112741	
0.900515	4.39606	0	0	0.25604	-0.294408	0.433686	-0.00598775	0.369971	-0.302326	0.133629	0.111491	3.74089	3.59951	1.91459	1.7759	3.57911	4.29333	2.22401	1.9152	0.457783	-0.0444095	0.31589	0.042699	0.351386	-0.171253	0.110433	-0.0615683	0.230225	-0.571389	-0.0023985	-0.359644	-0.0301885	-0.391775	0.131888	-0.095265	
0.905486	4.39606	0	0	0.259663	-0.294953	0.432048	-0.001357	0.373821	-0.30289	0.133629	0.111491	3.7555	3.60916	1.91517	1.78882	3.58749	4.30921	2.2353	1.93452	0.462752	-0.027331	0.324151	0.064725	0.35758	-0.158466	0.110693	-0.044122	0.231894	-0.56289	-0.003406	-0.348527	-0.030695	-0.379823	0.129702	-0.077789	
0.912182	4.39453	0	0	0.259931	-0.286011	0.436293	0.0101285	0.374976	-0.295831	0.136302	0.121727	3.76762	3.62602	1.91785	1.81041	3.59916	4.32916	2.24249	1.96558	0.468656	-0.012845	0.330598	0.0919888	0.368439	-0.148685	0.117289	-0.026348	0.233561	-0.554377	-0.006619	-0.339446	-0.0303145	-0.370373	0.126003	-0.0673337	
0.9198	4.38995	0	0	0.260198	-0.277069	0.440538	0.021614	0.37613	-0.288772	0.138975	0.131962	3.77974	3.64287	1.92052	1.832	3.61082	4.3491	2.24968	1.99664	0.47456	0.001641	0.337045	0.119252	0.379297	-0.138904	0.123884	-0.008574	0.235227	-0.545864	-0.009832	-0.330366	-0.029934	-0.360923	0.122303	-0.0568785	
0.927541	4.39453	0	0	0.260466	-0.268127	0.444783	0.0330995	0.377285	-0.281714	0.141647	0.142198	3.79185	3.65972	1.9232	1.85359	3.62249	4.36905	2.25687	2.02771	0.480465	0.016127	0.343492	0.146516	0.390155	-0.129122	0.130479	0.0092	0.236893	-0.53735	-0.013045	-0.321286	-0.0295535	-0.351473	0.118604	-0.0464232	
0.934605	4.3869	0	0	0.260734	-0.259185	0.449028	0.044585	0.378439	-0.274655	0.14432	0.152434	3.80397	3.67658	1.92587	1.87518	3.63415	4.38899	2.26406	2.05877	0.486369	0.030613	0.349939	0.17378	0.401014	-0.119341	0.137075	0.026974	0.23856	-0.528837	-0.016258	-0.312205	-0.029173	-0.342023	0.114904	-0.035968	
0.940189	4.38385	0	0	0.26436	-0.25973	0.445742	0.0538732	0.377539	-0.272112	0.14248	0.157635	3.81611	3.6935	1.92489	1.89253	3.64726	4.40503	2.26747	2.08349	0.496128	0.044676	0.356371	0.201199	0.40549	-0.101583	0.141627	0.050594	0.24632	-0.524291	-0.0142723	-0.301269	-0.031481	-0.324968	0.115168	-0.0254085	
0.943532	4.38385	0	0	0.267986	-0.260274	0.442455	0.0631615	0.37664	-0.26957	0.14064	0.162836	3.82825	3.71043	1.92392	1.90989	3.66036	4.42106	2.27087	2.10821	0.505888	0.058739	0.362802	0.228618	0.409967	-0.0838255	0.14618	0.074214	0.25408	-0.519745	-0.0122865	-0.290333	-0.033789	-0.307914	0.115432	-0.014849	
0.944548	4.38232	0	0	0.271612	-0.260819	0.439168	0.0724498	0.37574	-0.267028	0.138799	0.168038	3.84039	3.72736	1.92294	1.92725	3.67346	4.4371	2.27427	2.13293	0.515647	0.072802	0.369233	0.256037	0.414444	-0.0660677	0.150732	0.097834	0.261839	-0.5152	-0.0103008	-0.279397	-0.036097	-0.290859	0.115696	-0.0042895	
0.943743	4.37469	0	0	0.275238	-0.261364	0.435882	0.081738	0.37484	-0.264485	0.136959	0.173239	3.85253	3.74429	1.92196	1.9446	3.68656	4.45314	2.27767	2.15765	0.525407	0.086865	0.375665	0.283456	0.41892	-0.04831	0.155284	0.121454	0.269599	-0.510654	-0.008315	-0.268461	-0.038405	-0.273804	0.11596	0.00627	
0.941645	4.37164	0	0	0.275504	-0.252406	0.435688	0.0979588	0.371239	-0.254308	0.13645	0.183579	3.86133	3.75794	1.92924	1.95325	3.69356	4.47325	2.29106	2.17143	0.532264	0.0987802	0.387571	0.295514	0.421322	-0.0347983	0.170298	0.133885	0.265167	-0.498129	-0.007726	-0.261845	-0.0371387	-0.266845	0.109521	0.0131632	
0.938779	4.37164	0	0	0.27577	-0.243449	0.435493	0.11418	0.367638	-0.244131	0.135941	0.193918	3.87014	3.77158	1.93652	1.9619	3.70057	4.49336	2.30444	2.18522	0.539122	0.110696	0.399478	0.307571	0.423724	-0.0212865	0.185312	0.146315	0.260735	-0.485604	-0.007137	-0.255229	-0.0358725	-0.259885	0.103081	0.0200565	
0.935672	4.37012	0	0	0.276035	-0.234491	0.435299	0.1304	0.364037	-0.233953	0.135432	0.204258	3.87894	3.78523	1.94379	1.97054	3.70757	4.51347	2.31783	2.199	0.545979	0.122611	0.411384	0.319629	0.426126	-0.00777475	0.200325	0.158745	0.256303	-0.473078	-0.006548	-0.248613	-0.0346063	-0.252926	0.0966422	0.0269497	
0.932852	4.36554	0	0	0.276301	-0.225533	0.435105	0.146621	0.360436	-0.223776	0.134923	0.214597	3.88774	3.79888	1.95107	1.97919	3.71457	4.53358	2.33122	2.21279	0.552836	0.134526	0.42329	0.331687	0.428528	0.005737	0.215339	0.171176	0.251871	-0.460553	-0.005959	-0.241997	-0.03334	-0.245967	0.090203	0.033843	
0.930844	4.36706	0	0	0.273777	-0.218399	0.437376	0.155887	0.364288	-0.224336	0.128059	0.225093	3.9012	3.81232	1.95681	1.99223	3.72442	4.54572	2.33877	2.22593	0.5597	0.146477	0.428187	0.348383	0.436476	0.013767	0.221944	0.189173	0.254642	-0.455133	-0.0023645	-0.235585	-0.0329725	-0.236461	0.0916953	0.0409313	
0.930006	4.36554	0	0	0.271253	-0.211265	0.439647	0.165153	0.36814	-0.224895	0.121196	0.235589	3.91467	3.82576	1.96255	2.00527	3.73428	4.55785	2.34632	2.23908	0.566563	0.158427	0.433083	0.365078	0.444424	0.021797	0.22855	0.20717	0.257414	-0.449712	0.00123	-0.229173	-0.032605	-0.226956	0.0931875	0.0480195	
0.930194	4.36096	0	0	0.268728	-0.204131	0.441918	0.174419	0.371993	-0.225455	0.114332	0.246085	3.92813	3.8392	1.96829	2.01831	3.74413	4.56998	2.35388	2.25222	0.573426	0.170377	0.437979	0.381773	0.452372	0.029827	0.235155	0.225168	0.260185	-0.444292	0.0048245	-0.222762	-0.0322375	-0.21745	0.0946797	0.0551077	
0.931175	4.35638	0	0	0.266204	-0.196997	0.444189	0.183685	0.375845	-0.226015	0.107469	0.256581	3.94159	3.85264	1.97403	2.03135	3.75399	4.58212	2.36143	2.26537	0.58029	0.182328	0.442876	0.398469	0.46032	0.037857	0.24176	0.243165	0.262956	-0.438872	0.008419	-0.21635	-0.03187	-0.207945	0.096172	0.062196	
0.932715	4.35943	0	0	0.26452	-0.192238	0.438102	0.193044	0.370191	-0.220362	0.10972	0.25912	3.94833	3.85938	1.97768	2.0357	3.76056	4.59023	2.36313	2.27785	0.578396	0.187681	0.439206	0.408841	0.462391	0.0421788	0.239702	0.248981	0.262956	-0.438872	0.00621825	-0.218417	-0.03187	-0.207945	0.0894795	0.0585058	
0.934581	4.35333	0	0	0.262836	-0.187478	0.432015	0.202402	0.364536	-0.214709	0.111971	0.26166	3.95508	3.86612	1.98132	2.04004	3.76714	4.59834	2.36482	2.29033	0.576502	0.193033	0.435536	0.419214	0.464463	0.0465005	0.237644	0.254797	0.262956	-0.438872	0.0040175	-0.220485	-0.03187	-0.207945	0.082787	0.0548155	
0.936538	4.35486	0	0	0.261152	-0.182719	0.425928	0.211761	0.358882	-0.209057	0.114222	0.2642	3.96182	3.87286	1.98497	2.04439	3.77372	4.60645	2.36651	2.30282	0.574608	0.198385	0.431866	0.429586	0.466534	0.0508222	0.235586	0.260613	0.262956	-0.438872	0.00181675	-0.222552	-0.03187	-0.207945	0.0760945	0.0511252	
0.938354	4.35028	0	0	0.259468	-0.17796	0.419841	0.22112	0.353228	-0.203404	0.116473	0.266739	3.96856	3.8796	1.98861	2.04874	3.7803	4.61456	2.36821	2.3153	0.572714	0.203738	0.428196	0.439958	0.468605	0.055144	0.233528	0.266429	0.262956	-0.438872	-0.000384	-0.22462	-0.03187	-0.207945	0.069402	0.047435	
0.939804	4.34875	0	0	0.253315	-0.170279	0.415709	0.232799	0.346674	-0.195204	0.106434	0.277311	3.97274	3.89362	1.99746	2.05306	3.78688	4.62269	2.36403	2.32711	0.578555	0.208159	0.431557	0.445746	0.469805	0.061934	0.244254	0.272852	0.260735	-0.432596	-0.000605	-0.215708	-0.035463	-0.197791	0.064205	0.0508308	
0.940811	4.3457	0	0	0.247161	-0.162598	0.411577	0.244478	0.34012	-0.187004	0.096396	0.287883	3.97692	3.90764	2.00631	2.05738	3.79347	4.63082	2.35985	2.33891	0.584395	0.21258	0.434918	0.451533	0.471004	0.068724	0.25498	0.279275	0.258514	-0.42632	-0.000826	-0.206796	-0.039056	-0.187636	0.059008	0.0542265	
0.941417	4.3457	0	0	0.241008	-0.154916	0.407444	0.256156	0.333567	-0.178804	0.0863575	0.298455	3.9811	3.92166	2.01516	2.0617	3.80006	4.63895	2.35567	2.35072	0.590236	0.217	0.438278	0.457321	0.472204	0.075514	0.265707	0.285698	0.256294	-0.420044	-0.001047	-0.197885	-0.042649	-0.177482	0.053811	0.0576222	
0.941665	4.34418	0	0	0.234855	-0.147235	0.403312	0.267835	0.327013	-0.170604	0.076319	0.309027	3.98528	3.93569	2.02401	2.06602	3.80664	4.64708	2.3515	2.36252	0.596077	0.221421	0.441639	0.463108	0.473404	0.082304	0.276433	0.292121	0.254073	-0.413768	-0.001268	-0.188973	-0.046242	-0.167328	0.048614	0.061018	
0.941598	4.33807	0	0	0.234012	-0.144853	0.395269	0.274888	0.327013	-0.170604	0.0713025	0.314312	3.98866	3.93907	2.02401	2.06602	3.80994	4.65115	2.35945	2.35733	0.596077	0.221421	0.434604	0.467705	0.474276	0.07984	0.276433	0.292121	0.247974	-0.409783	-0.0026605	-0.193325	-0.0404877	-0.17304	0.040701	0.0608183	
0.941259	4.33502	0	0	0.23317	-0.142472	0.387226	0.28194	0.327013	-0.170604	0.066286	0.319597	3.99203	3.94246	2.02401	2.06602	3.81323	4.65522	2.36741	2.35213	0.596077	0.221421	0.427569	0.472302	0.475148	0.077376	0.276433	0.292121	0.241874	-0.405798	-0.004053	-0.197677	-0.0347335	-0.178753	0.032788	0.0606185	
0.940692	4.33655	0	0	0.232327	-0.14009	0.379183	0.288992	0.327013	-0.170604	0.0612695	0.324883	3.99541	3.94585	2.02401	2.06602	3.81653	4.65929	2.37536	2.34693	0.596077	0.221421	0.420533	0.476899	0.476019	0.074912	0.276433	0.292121	0.235775	-0.401812	-0.0054455	-0.202029	-0.0289792	-0.184465	0.024875	0.0604188	
0.939941	4.33502	0	0	0.231484	-0.137708	0.37114	0.296045	0.327013	-0.170604	0.056253	0.330168	3.99879	3.94923	2.02401	2.06602	3.81982	4.66336	2.38332	2.34173	0.596077	0.221421	0.413498	0.481496	0.476891	0.072448	0.276433	0.292121	0.229676	-0.397827	-0.006838	-0.206381	-0.023225	-0.190177	0.016962	0.060219	
0.939039	4.33349	0	0	0.229798	-0.132942	0.368657	0.303061	0.326111	-0.168055	0.0534797	0.338005	4.00555	3.95602	2.01935	2.07919	3.82169	4.67149	2.38123	2.34764	0.598051	0.226316	0.418694	0.482096	0.475147	0.0773765	0.272305	0.303787	0.234664	-0.398673	-0.006253	-0.199746	-0.0219627	-0.183189	0.0184445	0.0673072	
0.937995	4.33197	0	0	0.228111	-0.128177	0.366175	0.310078	0.325209	-0.165506	0.0507065	0.345842	4.01231	3.9628	2.0147	2.09235	3.82355	4.67962	2.37914	2.35355	0.600024	0.23121	0.423891	0.482695	0.473403	0.082305	0.268177	0.315453	0.239653	-0.399518	-0.005668	-0.193111	-0.0207005	-0.176201	0.019927	0.0743955	
0.936809	4.33044	0	0	0.226425	-0.123412	0.363692	0.317094	0.324307	-0.162957	0.0479332	0.35368	4.01907	3.96958	2.01004	2.10551	3.82541	4.68776	2.37705	2.35946	0.601998	0.236105	0.429088	0.483295	0.471659	0.0872335	0.264049	0.32712	0.244641	-0.400364	-0.005083	-0.186477	-0.0194383	-0.169212	0.0214095	0.0814837	
0.935482	4.33044	0	0	0.224739	-0.118646	0.361209	0.32411	0.323405	-0.160408	0.04516	0.361517	4.02583	3.97637	2.00538	2.11867	3.82728	4.69589	2.37496	2.36536	0.603972	0.241	0.434284	0.483895	0.469915	0.092162	0.259921	0.338786	0.24963	-0.40121	-0.004498	-0.179842	-0.018176	-0.162224	0.022892	0.088572	
0.934017	4.32739	0	0	0.224739	-0.118646	0.357604	0.326466	0.323405	-0.160408	0.044235	0.364131	4.02324	3.98366	2.01059	2.11865	3.83201	4.69591	2.37496	2.36536	0.604921	0.238318	0.429088	0.483295	0.471659	0.0872335	0.261986	0.332951	0.243531	-0.397225	-0.00912025	-0.175067	-0.0248338	-0.153964	0.0112767	0.0988495	
0.932414	4.32739	0	0	0.224739	-0.118646	0.353998	0.328822	0.323405	-0.160408	0.04331	0.366745	4.02066	3.99095	2.01579	2.11862	3.83675	4.69594	2.37496	2.36536	0.60587	0.235635	0.423891	0.482695	0.473403	0.082305	0.26405	0.327116	0.237431	-0.393239	-0.0137425	-0.170291	-0.0314915	-0.145703	-0.0003385	0.109127	
0.930674	4.32739	0	0	0.224739	-0.118646	0.350392	0.331178	0.323405	-0.160408	0.042385	0.369359	4.01808	3.99825	2.021	2.1186	3.84148	4.69596	2.37496	2.36536	0.606819	0.232953	0.418694	0.482096	0.475147	0.0773765	0.266115	0.321281	0.231332	-0.389254	-0.0183647	-0.165516	-0.0381492	-0.137443	-0.0119538	0.119404	
0.928805	4.32892	0	0	0.224739	-0.118646	0.346787	0.333534	0.323405	-0.160408	0.04146	0.371973	4.0155	4.00554	2.0262	2.11858	3.84621	4.69599	2.37496	2.36536	0.607768	0.230271	0.413498	0.481496	0.476891	0.072448	0.26818	0.315446	0.225233	-0.385269	-0.022987	-0.160741	-0.044807	-0.129183	-0.023569	0.129682	
0.926881	4.32892	0	0	0.225832	-0.112027	0.342645	0.34524	0.325448	-0.155861	0.0418505	0.379762	4.02097	4.016	2.03662	2.11852	3.84808	4.70413	2.37874	2.37199	0.60397	0.241005	0.416855	0.487295	0.479835	0.0743132	0.272516	0.321588	0.230221	-0.386113	-0.0232152	-0.151809	-0.043551	-0.122177	-0.0245737	0.143793	
0.925026	4.33044	0	0	0.226926	-0.105408	0.338503	0.356946	0.327491	-0.151313	0.042241	0.387551	4.02644	4.02647	2.04704	2.11847	3.84994	4.71228	2.38251	2.37861	0.600172	0.251739	0.420211	0.493095	0.48278	0.0761785	0.276852	0.32773	0.235208	-0.386958	-0.0234435	-0.142877	-0.042295	-0.115171	-0.0255785	0.157904	
0.923366	4.32892	0	0	0.228019	-0.098789	0.33436	0.368652	0.329535	-0.146765	0.0426315	0.395341	4.03191	4.03693	2.05746	2.11842	3.8518	4.72043	2.38629	2.38524	0.596374	0.262473	0.423567	0.498894	0.485724	0.0780437	0.281188	0.333871	0.240196	-0.387802	-0.0236718	-0.133944	-0.041039	-0.108166	-0.0265833	0.172014	
0.922026	4.32739	0	0	0.229112	-0.09217	0.330218	0.380358	0.331578	-0.142218	0.043022	0.40313	4.03738	4.04739	2.06788	2.11837	3.85367	4.72857	2.39007	2.39187	0.592576	0.273207	0.426924	0.504694	0.488668	0.079909	0.285524	0.340013	0.245184	-0.388647	-0.0239	-0.125012	-0.039783	-0.10116	-0.027588	0.186125	
0.92113	4.32434	0	0	0.229112	-0.09217	0.333824	0.378002	0.333383	-0.14732	0.043022	0.40313	4.04335	4.04349	2.06112	2.12279	3.85367	4.72857	2.39007	2.39187	0.595498	0.275427	0.419889	0.509291	0.488668	0.079909	0.277057	0.345545	0.24296	-0.382362	-0.032572	-0.108791	-0.0473455	-0.0903427	-0.0286018	0.200269	
0.920803	4.31976	0	0	0.229112	-0.09217	0.337429	0.375646	0.335188	-0.152421	0.043022	0.40313	4.04933	4.03959	2.05435	2.12721	3.85367	4.72857	2.39007	2.39187	0.59842	0.277648	0.412853	0.513888	0.488668	0.079909	0.268591	0.351078	0.240737	-0.376078	-0.041244	-0.0925695	-0.054908	-0.0795255	-0.0296155	0.214412	
0.921171	4.32129	0	0	0.229112	-0.09217	0.341035	0.37329	0.336993	-0.157523	0.043022	0.40313	4.0553	4.03569	2.04758	2.13164	3.85367	4.72857	2.39007	2.39187	0.601342	0.279868	0.405818	0.518485	0.488668	0.079909	0.260124	0.35661	0.238513	-0.369793	-0.049916	-0.0763483	-0.0624705	-0.0687082	-0.0306292	0.228555	
0.922264	4.32129	0	0	0.229112	-0.09217	0.344641	0.370934	0.338798	-0.162625	0.043022	0.40313	4.06127	4.03179	2.04081	2.13606	3.85367	4.72857	2.39007	2.39187	0.604264	0.282089	0.398783	0.523082	0.488668	0.079909	0.251657	0.362142	0.236289	-0.363508	-0.058588	-0.060127	-0.070033	-0.057891	-0.031643	0.242699	
0.923943	4.31976	0	0	0.230204	-0.0855423	0.344101	0.380298	0.33609	-0.154971	0.0465795	0.410874	4.05998	4.03544	2.03925	2.14046	3.85841	4.7286	2.38797	2.39779	0.609161	0.289224	0.402135	0.528894	0.48605	0.087307	0.258056	0.362452	0.232951	-0.354073	-0.0588275	-0.0511625	-0.0736425	-0.0476905	-0.032666	0.256875	
0.926048	4.31824	0	0	0.231295	-0.0789145	0.34356	0.389663	0.333382	-0.147317	0.050137	0.418618	4.05868	4.0391	2.0377	2.14485	3.86315	4.72863	2.38588	2.40371	0.614058	0.29636	0.405488	0.534705	0.483432	0.094705	0.264456	0.362762	0.229612	-0.344637	-0.059067	-0.042198	-0.077252	-0.03749	-0.033689	0.27105	
0.92842	4.31976	0	0	0.232387	-0.0722867	0.34302	0.399027	0.330674	-0.139664	0.0536945	0.426362	4.05739	4.04275	2.03614	2.14925	3.86789	4.72865	2.38378	2.40963	0.618954	0.303495	0.40884	0.540517	0.480815	0.102103	0.270855	0.363073	0.226273	-0.335202	-0.0593065	-0.0332335	-0.0808615	-0.0272895	-0.034712	0.285226	
0.9309	4.31671	0	0	0.233479	-0.065659	0.34248	0.408392	0.327966	-0.13201	0.057252	0.434106	4.0561	4.04641	2.03459	2.15365	3.87263	4.72868	2.38169	2.41555	0.623851	0.310631	0.412193	0.546328	0.478197	0.109501	0.277254	0.363383	0.222935	-0.325767	-0.059546	-0.024269	-0.084471	-0.017089	-0.035735	0.299402	
0.933329	4.31518	0	0	0.233479	-0.065659	0.34331	0.406046	0.328869	-0.134562	0.057252	0.434106	4.0548	4.05007	2.03614	2.14925	3.87119	4.73275	2.38169	2.41555	0.618133	0.32679	0.40666	0.561964	0.475577	0.116905	0.271044	0.380934	0.220707	-0.319471	-0.0575968	-0.0131927	-0.0823222	-0.0126055	-0.045911	0.316876	
0.935548	4.31518	0	0	0.233479	-0.065659	0.34414	0.403701	0.329772	-0.137114	0.057252	0.434106	4.05351	4.05373	2.0377	2.14485	3.86975	4.73681	2.38169	2.41555	0.612416	0.34295	0.401128	0.5776	0.472958	0.124309	0.264833	0.398485	0.218479	-0.313175	-0.0556475	-0.0021165	-0.0801735	-0.008122	-0.056087	0.33435	
0.937419	4.31671	0	0	0.233479	-0.065659	0.344969	0.401355	0.330675	-0.139666	0.057252	0.434106	4.05221	4.05738	2.03925	2.14046	3.86831	4.74088	2.38169	2.41555	0.606698	0.359109	0.395595	0.593235	0.470338	0.131713	0.258623	0.416037	0.216252	-0.30688	-0.0536983	0.00895975	-0.0780248	-0.0036385	-0.066263	0.351825	
0.938978	4.31366	0	0	0.233479	-0.065659	0.345799	0.39901	0.331578	-0.142218	0.057252	0.434106	4.05092	4.06104	2.04081	2.13606	3.86687	4.74495	2.38169	2.41555	0.60098	0.375268	0.390063	0.608871	0.467718	0.139117	0.252413	0.433588	0.214024	-0.300584	-0.051749	0.020036	-0.075876	0.000845	-0.076439	0.369299	
0.940344	4.31061	0	0	0.233479	-0.065659	0.344139	0.403702	0.332481	-0.144769	0.060423	0.434049	4.04962	4.0647	2.04081	2.13606	3.86687	4.74495	2.37959	2.42147	0.605872	0.382441	0.388216	0.614089	0.469787	0.143462	0.260888	0.42805	0.21291	-0.297434	-0.0525618	0.0223333	-0.0798308	0.00146625	-0.077686	0.372823	
0.941636	4.31061	0	0	0.233479	-0.065659	0.342479	0.408393	0.333383	-0.147321	0.063594	0.433993	4.04833	4.06836	2.04081	2.13606	3.86687	4.74495	2.3775	2.42739	0.610764	0.389614	0.38637	0.619307	0.471855	0.147807	0.269363	0.422512	0.211795	-0.294285	-0.0533745	0.0246305	-0.0837855	0.0020875	-0.078933	0.376346	
0.942974	4.30603	0	0	0.233479	-0.065659	0.340819	0.413085	0.334286	-0.149872	0.066765	0.433937	4.04703	4.07202	2.04081	2.13606	3.86687	4.74495	2.3754	2.43332	0.615656	0.396788	0.384524	0.624525	0.473924	0.152153	0.277838	0.416975	0.210681	-0.291135	-0.0541872	0.0269278	-0.0877402	0.00270875	-0.08018	0.379869	
0.944478	4.30755	0	0	0.233479	-0.065659	0.339159	0.417777	0.335189	-0.152423	0.069936	0.43388	4.04574	4.07568	2.04081	2.13606	3.86687	4.74495	2.37331	2.43924	0.620548	0.403961	0.382677	0.629743	0.475993	0.156498	0.286313	0.411437	0.209567	-0.287985	-0.055	0.029225	-0.091695	0.00333	-0.081427	0.383393	
0.946266	4.30298	0	0	0.235169	-0.0704347	0.333606	0.417798	0.332243	-0.154419	0.0654495	0.428753	4.04912	4.0791	2.03405	2.14048	3.87018	4.74904	2.37331	2.43924	0.624487	0.413852	0.378981	0.640188	0.477187	0.163321	0.288574	0.42348	0.209567	-0.287985	-0.0544343	0.0359245	-0.091695	0.00333	-0.076233	0.379999	
0.948457	4.3045	0	0	0.236858	-0.0752105	0.328053	0.41782	0.329297	-0.156415	0.060963	0.423627	4.05251	4.08252	2.02728	2.1449	3.87348	4.75314	2.37331	2.43924	0.628425	0.423743	0.375285	0.650634	0.478381	0.170144	0.290835	0.435522	0.209567	-0.287985	-0.0538685	0.042624	-0.091695	0.00333	-0.071039	0.376605	
0.951035	4.29993	0	0	0.238548	-0.0799863	0.322501	0.417841	0.326351	-0.158412	0.0564765	0.4185	4.05589	4.08593	2.02052	2.14932	3.87679	4.75724	2.37331	2.43924	0.632364	0.433633	0.37159	0.661079	0.479575	0.176967	0.293096	0.447564	0.209567	-0.287985	-0.0533027	0.0493235	-0.091695	0.00333	-0.065845	0.373212	
0.953672	4.29993	0	0	0.240238	-0.084762	0.316948	0.417862	0.323405	-0.160408	0.05199	0.413373	4.05928	4.08935	2.01376	2.15374	3.88009	4.76133	2.37331	2.43924	0.636303	0.443524	0.367894	0.671524	0.480769	0.18379	0.295357	0.459607	0.209567	-0.287985	-0.052737	0.056023	-0.091695	0.00333	-0.060651	0.369818	
0.955998	4.30145	0	0	0.238548	-0.0799863	0.316118	0.420208	0.322503	-0.157858	0.0469685	0.418668	4.05798	4.09302	2.01531	2.14934	3.87865	4.76541	2.37121	2.44517	0.633431	0.451641	0.374935	0.666923	0.479018	0.188739	0.29328	0.465476	0.209567	-0.287985	-0.0519232	0.0537233	-0.0938418	-0.00115325	-0.0685425	0.369558	
0.957642	4.2984	0	0	0.236858	-0.0752105	0.315288	0.422553	0.321601	-0.155308	0.041947	0.423963	4.05668	4.09668	2.01687	2.14494	3.87721	4.76948	2.36911	2.4511	0.630559	0.459758	0.381976	0.662322	0.477267	0.193688	0.291203	0.471346	0.209567	-0.287985	-0.0511095	0.0514235	-0.0959885	-0.0056365	-0.076434	0.369298	
0.958234	4.29993	0	0	0.235169	-0.0704347	0.314458	0.424899	0.320698	-0.152758	0.0369255	0.429258	4.05539	4.10034	2.01842	2.14055	3.87577	4.77355	2.36701	2.45703	0.627686	0.467876	0.389017	0.657722	0.475515	0.198638	0.289126	0.477216	0.209567	-0.287985	-0.0502958	0.0491238	-0.0981352	-0.0101198	-0.0843255	0.369037	
0.957404	4.29687	0	0	0.233479	-0.065659	0.313628	0.427244	0.319796	-0.150208	0.031904	0.434553	4.05409	4.10401	2.01998	2.13615	3.87433	4.77762	2.36491	2.46295	0.624814	0.475993	0.396058	0.653121	0.473764	0.203587	0.287049	0.483085	0.209567	-0.287985	-0.049482	0.046824	-0.100282	-0.014603	-0.092217	0.368777	
0.954781	4.29687	0	0	0.230698	-0.0675135	0.310854	0.427254	0.320698	-0.152758	0.0264998	0.432045	4.05748	4.10743	2.01842	2.14055	3.87289	4.78169	2.36491	2.46295	0.630667	0.480499	0.394209	0.658348	0.477584	0.202994	0.284971	0.488958	0.214556	-0.288822	-0.048917	0.0535293	-0.102088	-0.00949975	-0.0934632	0.372299	
0.950027	4.29382	0	0	0.227917	-0.069368	0.30808	0.427263	0.321601	-0.155308	0.0210955	0.429536	4.06086	4.11086	2.01687	2.14494	3.87144	4.78577	2.36491	2.46295	0.636519	0.485005	0.392359	0.663575	0.481404	0.202401	0.282892	0.494832	0.219544	-0.28966	-0.048352	0.0602345	-0.103893	-0.0043965	-0.0947095	0.375822	
0.943361	4.29687	0	0	0.225137	-0.0712225	0.305306	0.427272	0.322503	-0.157858	0.0156912	0.427028	4.06425	4.11428	2.01531	2.14934	3.87	4.78984	2.36491	2.46295	0.642371	0.48951	0.39051	0.668802	0.485224	0.201808	0.280814	0.500706	0.224532	-0.290498	-0.047787	0.0669397	-0.105699	0.00070675	-0.0959557	0.379344	
0.935469	4.2984	0	0	0.222356	-0.073077	0.302532	0.427282	0.323405	-0.160408	0.010287	0.42452	4.06764	4.11771	2.01376	2.15374	3.86856	4.79391	2.36491	2.46295	0.648224	0.494016	0.38866	0.674029	0.489044	0.201215	0.278736	0.506579	0.229521	-0.291335	-0.047222	0.073645	-0.107505	0.00581	-0.097202	0.382866	
0.92705	4.29687	0	0	0.221511	-0.0706895	0.306966	0.422582	0.324307	-0.162957	0.014378	0.421847	4.06893	4.11404	2.01011	2.14936	3.86526	4.78981	2.36911	2.4511	0.648224	0.494016	0.376433	0.678	0.485224	0.201808	0.280814	0.500706	0.224532	-0.290498	-0.047787	0.0669398	-0.103895	-0.0043935	-0.0934647	0.372304	
0.918802	4.29382	0	0	0.220666	-0.068302	0.3114	0.417882	0.325209	-0.165506	0.018469	0.419173	4.07023	4.11037	2.00646	2.14499	3.86196	4.7857	2.3733	2.43925	0.648224	0.494016	0.364206	0.681971	0.481404	0.202401	0.282892	0.494832	0.219544	-0.28966	-0.048352	0.0602345	-0.100284	-0.014597	-0.0897275	0.361741	
0.911425	4.29382	0	0	0.219822	-0.0659145	0.315833	0.413183	0.326111	-0.168055	0.02256	0.4165	4.07153	4.10671	2.00281	2.14061	3.85866	4.7816	2.3775	2.4274	0.648224	0.494016	0.35198	0.685941	0.477584	0.202994	0.284971	0.488958	0.214556	-0.288822	-0.048917	0.0535293	-0.0966735	-0.0248005	-0.0859903	0.351178	
0.905619	4.29382	0	0	0.218977	-0.063527	0.320267	0.408483	0.327013	-0.170604	0.026651	0.413827	4.07282	4.10304	1.99917	2.13624	3.85536	4.77749	2.38169	2.41555	0.648224	0.494016	0.339753	0.689912	0.473764	0.203587	0.287049	0.483085	0.209567	-0.287985	-0.049482	0.046824	-0.093063	-0.035004	-0.082253	0.340616	
0.902076	4.2923	0	0	0.218132	-0.0611387	0.315003	0.415528	0.325209	-0.165505	0.0216338	0.419118	4.06684	4.10695	2.00592	2.13182	3.85062	4.77746	2.37582	2.41483	0.648224	0.494016	0.343449	0.679467	0.475515	0.198638	0.287049	0.483085	0.213441	-0.285671	-0.048917	0.0535293	-0.0979158	-0.0318333	-0.084744	0.347656	
0.901097	4.28924	0	0	0.217287	-0.0587505	0.30974	0.422573	0.323404	-0.160406	0.0166165	0.424409	4.06086	4.11085	2.01268	2.12741	3.84588	4.77743	2.36995	2.41411	0.648224	0.494016	0.347145	0.669021	0.477267	0.193688	0.287049	0.483085	0.217314	-0.283357	-0.048352	0.0602345	-0.102769	-0.0286625	-0.087235	0.354696	
0.902391	4.29077	0	0	0.216442	-0.0563623	0.304476	0.429619	0.3216	-0.155307	0.0115993	0.4297	4.05489	4.11476	2.01944	2.12299	3.84114	4.7774	2.36408	2.41339	0.648224	0.494016	0.35084	0.658576	0.479018	0.188739	0.287049	0.483085	0.221188	-0.281042	-0.047787	0.0669397	-0.107621	-0.0254918	-0.089726	0.361737	
0.90562	4.29077	0	0	0.215597	-0.053974	0.299212	0.436664	0.319796	-0.150208	0.006582	0.434991	4.04891	4.11867	2.0262	2.11858	3.83641	4.77736	2.35822	2.41268	0.648224	0.494016	0.354536	0.648131	0.480769	0.18379	0.287049	0.483085	0.225061	-0.278728	-0.047222	0.073645	-0.112474	-0.022321	-0.092217	0.368777	
0.910447	4.2923	0	0	0.215597	-0.053974	0.302816	0.434309	0.320698	-0.152758	0.006582	0.434991	4.04552	4.11525	2.02775	2.11418	3.82981	4.76917	2.35654	2.40014	0.646255	0.489054	0.346019	0.641669	0.475758	0.177561	0.282718	0.476893	0.227291	-0.28503	-0.0516065	0.0694355	-0.109769	-0.0299657	-0.0924242	0.358092	
0.916533	4.2923	0	0	0.215597	-0.053974	0.30642	0.431954	0.321601	-0.155308	0.006582	0.434991	4.04214	4.11182	2.02931	2.10979	3.82322	4.76098	2.35486	2.3876	0.644286	0.484092	0.337501	0.635207	0.470748	0.171332	0.278387	0.470701	0.229521	-0.291333	-0.055991	0.065226	-0.107064	-0.0376105	-0.0926315	0.347407	
0.92354	4.28924	0	0	0.215597	-0.053974	0.310024	0.429599	0.322503	-0.157858	0.006582	0.434991	4.03876	4.1084	2.03086	2.1054	3.81663	4.75278	2.35318	2.37506	0.642318	0.47913	0.328983	0.628744	0.465738	0.165104	0.274056	0.464509	0.231751	-0.297635	-0.0603755	0.0610165	-0.104359	-0.0452553	-0.0928387	0.336721	
0.931129	4.28772	0	0	0.215597	-0.053974	0.313628	0.427244	0.323405	-0.160408	0.006582	0.434991	4.03537	4.10497	2.03241	2.10101	3.81004	4.74459	2.3515	2.36252	0.640349	0.474168	0.320466	0.622282	0.460727	0.158875	0.269725	0.458317	0.233981	-0.303938	-0.06476	0.056807	-0.101654	-0.0529	-0.093046	0.326036	
0.938974	4.28314	0	0	0.217531	-0.049727	0.310306	0.436632	0.326351	-0.158412	0.00472875	0.440229	4.0307	4.10521	2.03241	2.10101	3.80675	4.7405	2.34772	2.35591	0.637423	0.471918	0.318974	0.61125	0.459533	0.152062	0.263324	0.457993	0.231751	-0.297635	-0.0633823	0.061212	-0.106504	-0.049731	-0.0928387	0.336721	
0.946821	4.28619	0	0	0.219465	-0.04548	0.306984	0.446021	0.329297	-0.156415	0.0028755	0.445466	4.02602	4.10545	2.03241	2.10101	3.80346	4.73641	2.34395	2.3493	0.634497	0.469668	0.317483	0.600218	0.45834	0.145249	0.256923	0.457668	0.229521	-0.291333	-0.0620045	0.065617	-0.111354	-0.046562	-0.0926315	0.347407	
0.954441	4.28619	0	0	0.221399	-0.041233	0.303663	0.455409	0.332243	-0.154419	0.00102225	0.450704	4.02135	4.10569	2.03241	2.10101	3.80017	4.73232	2.34018	2.34269	0.63157	0.467417	0.315991	0.589187	0.457146	0.138437	0.250523	0.457344	0.227291	-0.28503	-0.0606268	0.070022	-0.116204	-0.043393	-0.0924242	0.358092	
0.961604	4.28772	0	0	0.223333	-0.036986	0.300341	0.464797	0.335189	-0.152423	-0.000831	0.455942	4.01667	4.10593	2.03241	2.10101	3.79688	4.72823	2.33641	2.33608	0.628644	0.465167	0.314499	0.578155	0.455952	0.131624	0.244122	0.45702	0.225061	-0.278728	-0.059249	0.074427	-0.121054	-0.040224	-0.092217	0.368777	
0.96808	4.28924	0	0	0.223333	-0.036986	0.301172	0.462449	0.336091	-0.154973	-0.000831	0.455942	4.01459	4.09885	2.02876	2.09665	3.79502	4.72009	2.34058	2.32429	0.628589	0.454808	0.305997	0.571725	0.455629	0.122356	0.24187	0.44499	0.227291	-0.28503	-0.0598132	0.067723	-0.117451	-0.050407	-0.101343	0.372034	
0.97364	4.2923	0	0	0.223333	-0.036986	0.302003	0.460101	0.336994	-0.157524	-0.000831	0.455942	4.0125	4.09177	2.02511	2.09229	3.79316	4.71195	2.34475	2.3125	0.628534	0.444449	0.297494	0.565295	0.455307	0.113087	0.239617	0.432959	0.229521	-0.291333	-0.0603775	0.061019	-0.113847	-0.06059	-0.110469	0.37529	
0.978054	4.2923	0	0	0.223333	-0.036986	0.302833	0.457753	0.337896	-0.160075	-0.000831	0.455942	4.01042	4.0847	2.02146	2.08793	3.79131	4.70381	2.34893	2.30071	0.62848	0.43409	0.288991	0.558865	0.454984	0.103819	0.237365	0.420929	0.231751	-0.297635	-0.0609418	0.054315	-0.110244	-0.070773	-0.119596	0.378547	
0.981092	4.29535	0	0	0.223333	-0.036986	0.303664	0.455405	0.338798	-0.162625	-0.000831	0.455942	4.00834	4.07762	2.01781	2.08356	3.78945	4.69567	2.3531	2.28892	0.628425	0.423731	0.280489	0.552435	0.454661	0.094551	0.235113	0.408899	0.233981	-0.303938	-0.061506	0.047611	-0.106641	-0.080956	-0.128722	0.381803	
0.982586	4.29382	0	0	0.22696	-0.037518	0.304777	0.460095	0.337896	-0.160075	0.00549825	0.455836	4.00367	4.07786	2.01781	2.08356	3.78759	4.68755	2.34932	2.28234	0.6255	0.421489	0.27716	0.546631	0.453464	0.0877592	0.228723	0.408579	0.227878	-0.29995	-0.0623195	0.04991	-0.106641	-0.080956	-0.129968	0.385324	
0.982581	4.2984	0	0	0.230588	-0.03805	0.305889	0.464785	0.336994	-0.157524	0.0118275	0.455729	3.999	4.0781	2.01781	2.08356	3.78573	4.67942	2.34555	2.27575	0.622575	0.419246	0.273832	0.540828	0.452267	0.0809675	0.222334	0.408259	0.221774	-0.295961	-0.063133	0.052209	-0.106641	-0.080956	-0.131213	0.388845	
0.98117	4.29993	0	0	0.234215	-0.038582	0.307001	0.469475	0.336091	-0.154973	0.0181567	0.455622	3.99433	4.07834	2.01781	2.08356	3.78388	4.67129	2.34177	2.26917	0.619651	0.417003	0.270504	0.535024	0.451069	0.0741757	0.215944	0.40794	0.21567	-0.291973	-0.0639465	0.054508	-0.106641	-0.080956	-0.132459	0.392365	
0.978447	4.30298	0	0	0.237842	-0.039114	0.308114	0.474165	0.335189	-0.152423	0.024486	0.455516	3.98966	4.07858	2.01781	2.08356	3.78202	4.66317	2.338	2.26258	0.616726	0.414761	0.267175	0.52922	0.449872	0.067384	0.209555	0.40762	0.209567	-0.287985	-0.06476	0.056807	-0.106641	-0.080956	-0.133705	0.395886	
0.974507	4.29993	0	0	0.238688	-0.0415047	0.306171	0.471823	0.332243	-0.154419	0.0263405	0.450275	3.98291	4.07175	2.01416	2.07921	3.77544	4.65504	2.34008	2.2567	0.614758	0.409822	0.263848	0.523424	0.448674	0.0606015	0.213688	0.395938	0.210681	-0.291135	-0.0775803	0.059883	-0.119375	-0.0765467	-0.140132	0.402794	
0.969441	4.30298	0	0	0.239534	-0.0438955	0.304227	0.469481	0.329297	-0.156415	0.028195	0.445034	3.97617	4.06493	2.01051	2.07485	3.76886	4.6469	2.34216	2.25082	0.612789	0.404882	0.260521	0.517629	0.447475	0.053819	0.217822	0.384257	0.211795	-0.294285	-0.0904005	0.062959	-0.132108	-0.0721375	-0.14656	0.409701	
0.963343	4.30145	0	0	0.240379	-0.0462863	0.302284	0.467139	0.326351	-0.158412	0.0300495	0.439794	3.96942	4.0581	2.00685	2.0705	3.76229	4.63877	2.34424	2.24494	0.610821	0.399942	0.257194	0.511833	0.446276	0.0470365	0.221955	0.372575	0.21291	-0.297434	-0.103221	0.066035	-0.144842	-0.0677283	-0.152987	0.416609	
0.956311	4.3045	0	0	0.241225	-0.048677	0.300341	0.464797	0.323405	-0.160408	0.031904	0.434553	3.96268	4.05128	2.0032	2.06614	3.75571	4.63063	2.34632	2.23906	0.608853	0.395003	0.253867	0.506037	0.445078	0.040254	0.226088	0.360893	0.214024	-0.300584	-0.116041	0.069111	-0.157576	-0.063319	-0.159415	0.423517	
0.94857	4.30298	0	0	0.241225	-0.048677	0.302284	0.467139	0.327253	-0.160962	0.0291218	0.442416	3.96139	4.05493	2.00996	2.06173	3.75571	4.63063	2.33839	2.24424	0.607898	0.397701	0.257194	0.511833	0.43953	0.04577	0.224022	0.366732	0.206811	-0.293449	-0.113042	0.0689177	-0.160616	-0.0652413	-0.160662	0.427041	
0.940533	4.30603	0	0	0.241225	-0.048677	0.304227	0.469481	0.331101	-0.161517	0.0263395	0.450278	3.9601	4.05858	2.01671	2.05732	3.75571	4.63063	2.33045	2.24942	0.606943	0.4004	0.260521	0.517629	0.433982	0.051286	0.221956	0.372571	0.199597	-0.286314	-0.110042	0.0687245	-0.163656	-0.0671635	-0.161909	0.430565	
0.932627	4.31061	0	0	0.241225	-0.048677	0.306171	0.471823	0.33495	-0.162071	0.0235572	0.458141	3.95881	4.06223	2.02346	2.0529	3.75571	4.63063	2.32252	2.25461	0.605989	0.403099	0.263848	0.523424	0.428433	0.056802	0.21989	0.37841	0.192383	-0.279179	-0.107042	0.0685313	-0.166696	-0.0690858	-0.163156	0.434088	
0.925277	4.30908	0	5	0.241225	-0.048677	0.308114	0.474165	0.338798	-0.162625	0.020775	0.466003	3.95751	4.06588	2.03022	2.04849	3.75571	4.63063	2.31459	2.25979	0.605034	0.405797	0.267175	0.52922	0.422885	0.062318	0.217824	0.384249	0.18517	-0.272044	-0.104043	0.068338	-0.169736	-0.071008	-0.164403	0.437612	
0.91891	4.31518	0	5	0.242071	-0.051067	0.308945	0.471816	0.3397	-0.165175	0.0217027	0.463381	3.95544	4.05882	2.02811	2.03977	3.751	4.63061	2.31667	2.25391	0.600203	0.408954	0.267175	0.52922	0.422885	0.062318	0.21989	0.37841	0.190154	-0.272879	-0.114921	0.0825165	-0.171535	-0.0659238	-0.16565	0.441137	
0.913951	4.31518	0	5	0.242916	-0.053457	0.309777	0.469467	0.340603	-0.167724	0.0226305	0.460759	3.95336	4.05176	2.02601	2.03104	3.74628	4.63058	2.31874	2.24804	0.595372	0.412111	0.267175	0.52922	0.422885	0.062318	0.221956	0.372571	0.195138	-0.273713	-0.125798	0.096695	-0.173334	-0.0608395	-0.166897	0.444662	
0.910828	4.31824	0	5	0.243762	-0.055847	0.310608	0.467117	0.341505	-0.170274	0.0235582	0.458138	3.95128	4.0447	2.0239	2.02232	3.74157	4.63056	2.32082	2.24216	0.590541	0.415267	0.267175	0.52922	0.422885	0.062318	0.224022	0.366732	0.200123	-0.274548	-0.136676	0.110873	-0.175133	-0.0557552	-0.168145	0.448187	
0.909817	4.32129	0	5	0.244608	-0.058237	0.311439	0.464768	0.342407	-0.172824	0.024486	0.455516	3.9492	4.03765	2.0218	2.01359	3.73685	4.63053	2.3229	2.23628	0.58571	0.418424	0.267175	0.52922	0.422885	0.062318	0.226088	0.360893	0.205107	-0.275383	-0.147554	0.125052	-0.176932	-0.050671	-0.169392	0.451712	
0.91073	4.32587	0	5	0.248483	-0.0497367	0.311999	0.478864	0.34355	-0.165726	0.0280367	0.463279	3.94326	4.04153	2.0114	2.01366	3.743	4.62652	2.32876	2.23698	0.588683	0.431021	0.271994	0.546036	0.426146	0.0734362	0.228344	0.372895	0.211738	-0.267592	-0.132814	0.13313	-0.171753	-0.0442733	-0.182423	0.454808	
0.913284	4.32739	0	5	0.252358	-0.0412365	0.312559	0.49296	0.344693	-0.158629	0.0315875	0.471043	3.93731	4.04542	2.00101	2.01373	3.74914	4.62251	2.33461	2.23767	0.591656	0.443618	0.276813	0.562852	0.429407	0.0845545	0.2306	0.384896	0.21837	-0.259801	-0.118074	0.141207	-0.166575	-0.0378755	-0.195454	0.457904	
0.917199	4.32892	0	5	0.256234	-0.0327363	0.313118	0.507056	0.345836	-0.151532	0.0351383	0.478807	3.93136	4.0493	1.99062	2.0138	3.75528	4.61849	2.34047	2.23836	0.594628	0.456215	0.281631	0.579667	0.432667	0.0956728	0.232857	0.396898	0.225002	-0.25201	-0.103335	0.149285	-0.161396	-0.0314777	-0.208485	0.460999	
0.922192	4.33349	0	5	0.260109	-0.024236	0.313678	0.521152	0.346979	-0.144434	0.038689	0.48657	3.92542	4.05319	1.98022	2.01386	3.76143	4.61448	2.34632	2.23906	0.597601	0.468812	0.28645	0.596483	0.435928	0.106791	0.235113	0.408899	0.231633	-0.244219	-0.088595	0.157363	-0.156217	-0.02508	-0.221516	0.464095	
0.927984	4.33655	0	5	0.264834	-0.0181163	0.319512	0.528207	0.349928	-0.142435	0.0427875	0.483892	3.92334	4.04614	1.97293	2.0052	3.76428	4.60641	2.3484	2.23318	0.601529	0.478732	0.286092	0.61273	0.440061	0.115467	0.228899	0.426461	0.237153	-0.233249	-0.0855662	0.182033	-0.153742	-0.0110175	-0.222763	0.467618	
0.934291	4.33807	0	5	0.269558	-0.0119965	0.325346	0.535261	0.352877	-0.140437	0.046886	0.481213	3.92127	4.03909	1.96565	1.99653	3.76714	4.59834	2.35048	2.2273	0.605457	0.488652	0.285734	0.628978	0.444194	0.124144	0.222684	0.444024	0.242673	-0.222278	-0.0825375	0.206703	-0.151266	0.003045	-0.22401	0.471142	
0.940835	4.33807	0	5	0.274283	-0.00587675	0.33118	0.542315	0.355826	-0.138439	0.0509845	0.478535	3.91919	4.03204	1.95836	1.98786	3.76999	4.59026	2.35256	2.22142	0.609386	0.498573	0.285376	0.645226	0.448326	0.13282	0.216469	0.461587	0.248192	-0.211308	-0.0795088	0.231374	-0.148791	0.0171075	-0.225256	0.474665	
0.947375	4.33349	0	5	0.279008	0.000243	0.337014	0.54937	0.358775	-0.13644	0.055083	0.475857	3.91712	4.02499	1.95107	1.97919	3.77285	4.58219	2.35464	2.21555	0.613314	0.508493	0.285018	0.661473	0.452459	0.141496	0.210255	0.479149	0.253712	-0.200338	-0.07648	0.256044	-0.146316	0.03117	-0.226503	0.478189	
0.9537	4.33502	0	5	0.286527	0.008241	0.349536	0.561155	0.364678	-0.132439	0.061813	0.483579	3.91712	4.02499	1.95262	1.97483	3.76671	4.58621	2.35464	2.21555	0.617243	0.518436	0.298702	0.668583	0.451902	0.153255	0.22097	0.485676	0.255352	-0.191675	-0.0647058	0.26439	-0.144176	0.035661	-0.230425	0.478043	
0.959599	4.33502	0	5	0.294046	0.016239	0.362058	0.572939	0.370582	-0.128439	0.068543	0.491302	3.91712	4.02499	1.95416	1.97047	3.76056	4.59022	2.35464	2.21555	0.621171	0.528378	0.312385	0.675693	0.451346	0.165014	0.231685	0.492204	0.256992	-0.183011	-0.0529315	0.272736	-0.142037	0.040152	-0.234347	0.477897	
0.964862	4.33807	0	5	0.301565	0.024237	0.37458	0.584724	0.376485	-0.124438	0.075273	0.499024	3.91712	4.02499	1.9557	1.96611	3.75442	4.59424	2.35464	2.21555	0.6251	0.538321	0.326069	0.682802	0.45079	0.176773	0.242401	0.498731	0.258633	-0.174348	-0.0411572	0.281082	-0.139898	0.044643	-0.238269	0.477751	
0.969279	4.33655	0	5	0.309084	0.032235	0.387102	0.596508	0.382388	-0.120437	0.082003	0.506746	3.91712	4.02499	1.95724	1.96175	3.74828	4.59825	2.35464	2.21555	0.629029	0.548264	0.339753	0.689912	0.450233	0.188532	0.253116	0.505258	0.260273	-0.165685	-0.029383	0.289428	-0.137758	0.049134	-0.242191	0.477605	
0.97264	4.33807	0	5	0.314669	0.035974	0.391003	0.601234	0.381483	-0.11788	0.0861095	0.504063	3.91247	4.02523	1.9536	1.95742	3.7497	4.59422	2.36258	2.21036	0.62907	0.558679	0.341236	0.701005	0.44967	0.200314	0.257441	0.511466	0.263034	-0.160178	-0.025268	0.302816	-0.131667	0.0530142	-0.243438	0.481129	
0.974734	4.34723	0	5	0.320254	0.039713	0.394904	0.60596	0.380578	-0.115323	0.090216	0.501379	3.90782	4.02547	1.94996	1.9531	3.75113	4.59018	2.37052	2.20517	0.629112	0.569095	0.34272	0.712099	0.449107	0.212097	0.261767	0.517673	0.265794	-0.154672	-0.021153	0.316204	-0.125576	0.0568945	-0.244684	0.484652	
0.975388	4.35486	0	5	0.32584	0.043452	0.398805	0.610686	0.379673	-0.112766	0.0943225	0.498696	3.90317	4.02571	1.94632	1.94878	3.75256	4.58615	2.37846	2.19998	0.629153	0.57951	0.344203	0.723193	0.448545	0.223879	0.266093	0.52388	0.268555	-0.149165	-0.017038	0.329593	-0.119486	0.0607748	-0.245931	0.488175	
0.974702	4.37012	0	5	0.331425	0.047191	0.402706	0.615412	0.378768	-0.110209	0.098429	0.496013	3.89852	4.02595	1.94268	1.94446	3.75399	4.58212	2.3864	2.19479	0.629194	0.589925	0.345686	0.734286	0.447982	0.235661	0.270418	0.530088	0.271316	-0.143658	-0.012923	0.342981	-0.113395	0.064655	-0.247178	0.491699	
0.97291	4.38843	0	5	0.330814	0.058688	0.410516	0.624882	0.381721	-0.108205	0.10106	0.506435	3.89852	4.02595	1.94422	1.9401	3.75541	4.57809	2.3864	2.19479	0.62727	0.595364	0.343833	0.739522	0.450045	0.240027	0.268337	0.535969	0.269071	-0.137313	-0.006885	0.342613	-0.122198	0.0684417	-0.249851	0.488028	
0.970244	4.39606	0	5	0.330202	0.070185	0.418326	0.634352	0.384675	-0.106202	0.103691	0.516856	3.89852	4.02595	1.94576	1.93575	3.75684	4.57406	2.3864	2.19479	0.625345	0.600803	0.341981	0.744759	0.452109	0.244393	0.266256	0.541851	0.266826	-0.130968	-0.000847	0.342245	-0.131002	0.0722285	-0.252524	0.484358	
0.966936	4.41437	0	5	0.329591	0.081682	0.426136	0.643822	0.387628	-0.104198	0.106322	0.527278	3.89852	4.02595	1.9473	1.93139	3.75826	4.57003	2.3864	2.19479	0.623421	0.606241	0.340128	0.749996	0.454172	0.248759	0.264175	0.547732	0.264581	-0.124623	0.005191	0.341878	-0.139805	0.0760153	-0.255196	0.480688	
0.963219	4.43268	0	5	0.328979	0.093179	0.433946	0.653292	0.390582	-0.102194	0.108953	0.5377	3.89852	4.02595	1.94884	1.92704	3.75969	4.56599	2.3864	2.19479	0.621496	0.61168	0.338275	0.755232	0.456236	0.253125	0.262094	0.553613	0.262336	-0.118278	0.011229	0.34151	-0.148609	0.079802	-0.257869	0.477017	
0.959326	4.4342	0	5	0.330068	0.099876	0.438129	0.665163	0.389676	-0.0996347	0.112133	0.537648	3.89258	4.02982	1.94884	1.92704	3.76112	4.56196	2.38848	2.18892	0.623457	0.616675	0.341607	0.761113	0.459177	0.255015	0.264335	0.565731	0.258965	-0.108752	0.0153485	0.354941	-0.137663	0.0805165	-0.260362	0.484063	
0.95549	4.45099	0	5	0.331157	0.106573	0.442311	0.677034	0.388771	-0.0970755	0.115313	0.537596	3.88665	4.0337	1.94884	1.92704	3.76254	4.55794	2.39056	2.18304	0.625419	0.621671	0.344939	0.766994	0.462118	0.256906	0.266575	0.577849	0.255595	-0.099226	0.019468	0.368373	-0.126717	0.081231	-0.262855	0.491109	
0.951911	4.45557	0	5	0.332247	0.11327	0.446493	0.688906	0.387866	-0.0945162	0.118494	0.537543	3.88071	4.03758	1.94884	1.92704	3.76397	4.55391	2.39264	2.17717	0.62738	0.626667	0.348271	0.772875	0.46506	0.258796	0.268815	0.589967	0.252224	-0.0897	0.0235875	0.381804	-0.115771	0.0819455	-0.265348	0.498154	
0.948702	4.46167	0	5	0.333336	0.119967	0.450676	0.700777	0.38696	-0.091957	0.121674	0.537491	3.87478	4.04146	1.94884	1.92704	3.76539	4.54988	2.39472	2.1713	0.629341	0.631662	0.351603	0.778756	0.468001	0.260686	0.271056	0.602085	0.248853	-0.080174	0.027707	0.395236	-0.104825	0.08266	-0.267841	0.5052	
0.945963	4.47235	0	5	0.33357	0.129086	0.458501	0.710299	0.384242	-0.0842747	0.125239	0.545298	3.87607	4.03782	1.94884	1.92704	3.76539	4.54988	2.39679	2.16543	0.626417	0.629387	0.351603	0.778756	0.463305	0.263755	0.271056	0.602085	0.241603	-0.072994	0.0337577	0.394871	-0.103919	0.0801007	-0.267841	0.5052	
0.943792	4.4754	0	5	0.333804	0.138205	0.466325	0.719822	0.381524	-0.0765925	0.128804	0.553106	3.87736	4.03418	1.94884	1.92704	3.76539	4.54988	2.39887	2.15956	0.623493	0.627112	0.351603	0.778756	0.458609	0.266823	0.271056	0.602085	0.234353	-0.065814	0.0398085	0.394505	-0.103014	0.0775415	-0.267841	0.5052	
0.942289	4.48151	0	5	0.334037	0.147324	0.47415	0.729345	0.378805	-0.0689103	0.13237	0.560913	3.87864	4.03054	1.94884	1.92704	3.76539	4.54988	2.40095	2.15369	0.620569	0.624838	0.351603	0.778756	0.453913	0.269891	0.271056	0.602085	0.227104	-0.058634	0.0458592	0.394139	-0.102109	0.0749823	-0.267841	0.5052	
0.941553	4.48608	0	5	0.334271	0.156443	0.481974	0.738867	0.376087	-0.061228	0.135935	0.56872	3.87993	4.0269	1.94884	1.92704	3.76539	4.54988	2.40302	2.14782	0.617645	0.622563	0.351603	0.778756	0.449217	0.27296	0.271056	0.602085	0.219854	-0.051454	0.05191	0.393774	-0.101203	0.072423	-0.267841	0.5052	
0.941683	4.48761	0	5	0.330853	0.166103	0.48616	0.750798	0.37904	-0.0592175	0.132198	0.579283	3.88458	4.02666	1.94576	1.93575	3.76539	4.54988	2.40302	2.14782	0.616682	0.625285	0.353458	0.773513	0.452157	0.274853	0.26897	0.607982	0.217604	-0.0450955	0.0538322	0.405091	-0.107873	0.0807168	-0.266419	0.512404	
0.942766	4.49676	0	5	0.327435	0.175763	0.490347	0.76273	0.381993	-0.057207	0.128461	0.589845	3.88922	4.02642	1.94268	1.94446	3.76539	4.54988	2.40302	2.14782	0.615719	0.628006	0.355313	0.768271	0.455098	0.276746	0.266883	0.613878	0.215355	-0.038737	0.0557545	0.416408	-0.114542	0.0890105	-0.264996	0.519608	
0.944697	4.49676	0	5	0.324017	0.185423	0.494533	0.774661	0.384946	-0.0551965	0.124723	0.600407	3.89387	4.02618	1.93959	1.95317	3.76539	4.54988	2.40302	2.14782	0.614757	0.630727	0.357168	0.763028	0.458039	0.278639	0.264796	0.619775	0.213105	-0.0323785	0.0576767	0.427725	-0.121212	0.0973042	-0.263574	0.526812	
0.947225	4.49829	0	5	0.320599	0.195083	0.498719	0.786592	0.387899	-0.053186	0.120986	0.61097	3.89852	4.02595	1.93651	1.96189	3.76539	4.54988	2.40302	2.14782	0.613794	0.633449	0.359023	0.757786	0.460979	0.280532	0.26271	0.625672	0.210855	-0.02602	0.059599	0.439042	-0.127882	0.105598	-0.262152	0.534016	
0.950095	4.49676	0	5	0.320825	0.20423	0.507405	0.793775	0.385177	-0.0454927	0.126796	0.621408	3.89981	4.02231	1.94324	1.95749	3.77296	4.54184	2.4051	2.14195	0.611834	0.628454	0.360877	0.752547	0.453345	0.281706	0.27121	0.620118	0.210855	-0.02602	0.0579438	0.44372	-0.126976	0.103038	-0.259656	0.526962	
0.953053	4.49524	0	5	0.321051	0.213376	0.51609	0.800959	0.382455	-0.0377995	0.132606	0.631845	3.90109	4.01867	1.94996	1.9531	3.78053	4.5338	2.40717	2.13609	0.609875	0.62346	0.362731	0.747308	0.445712	0.28288	0.27971	0.614564	0.210855	-0.02602	0.0562885	0.448398	-0.126071	0.100478	-0.257159	0.519907	
0.955843	4.50134	0	5	0.321276	0.222523	0.524775	0.808142	0.379732	-0.0301062	0.138416	0.642282	3.90238	4.01503	1.95669	1.9487	3.7881	4.52575	2.40925	2.13022	0.607916	0.618465	0.364585	0.742068	0.438078	0.284053	0.288211	0.609009	0.210855	-0.02602	0.0546332	0.453076	-0.125165	0.097918	-0.254663	0.512853	
0.958211	4.49676	0	5	0.321502	0.23167	0.533461	0.815326	0.37701	-0.022413	0.144226	0.65272	3.90367	4.01139	1.96341	1.94431	3.79566	4.51771	2.41133	2.12435	0.605956	0.61347	0.366439	0.736829	0.430444	0.285227	0.296711	0.603455	0.210855	-0.02602	0.052978	0.457754	-0.124259	0.095358	-0.252167	0.505799	
0.959902	4.48608	0	5	0.318933	0.238932	0.531187	0.829696	0.375194	-0.0172805	0.147789	0.660577	3.91297	4.0109	1.97225	1.94859	3.79424	4.52174	2.4172	2.12503	0.602074	0.613916	0.366439	0.736829	0.430444	0.285227	0.296711	0.603455	0.209729	-0.022839	0.056552	0.464418	-0.129114	0.0985308	-0.253415	0.509325	
0.960714	4.49066	0	5	0.316363	0.246193	0.528912	0.844065	0.373378	-0.012148	0.151352	0.668434	3.92228	4.01042	1.98109	1.95288	3.79281	4.52577	2.42307	2.1257	0.598191	0.614363	0.366439	0.736829	0.430444	0.285227	0.296711	0.603455	0.208604	-0.019658	0.060126	0.471082	-0.13397	0.101704	-0.254663	0.512852	
0.960718	4.48456	0	5	0.313794	0.253455	0.526637	0.858434	0.371562	-0.0070155	0.154915	0.676291	3.93159	4.00994	1.98993	1.95716	3.79139	4.52979	2.42894	2.12637	0.594309	0.61481	0.366439	0.736829	0.430444	0.285227	0.296711	0.603455	0.207479	-0.016477	0.0637	0.477747	-0.138825	0.104876	-0.25591	0.516378	
0.960071	4.48456	0	5	0.311224	0.260717	0.524363	0.872804	0.369746	-0.001883	0.158478	0.684148	3.94089	4.00946	1.99877	1.96145	3.78996	4.53382	2.43482	2.12704	0.590427	0.615256	0.366439	0.736829	0.430444	0.285227	0.296711	0.603455	0.206353	-0.013296	0.067274	0.484411	-0.143681	0.108049	-0.257158	0.519905	
0.95893	4.4754	0	5	0.30951	0.265561	0.530829	0.870421	0.368838	0.0006845	0.16392	0.68671	3.94555	4.00921	2.00551	1.95704	3.79469	4.53383	2.44277	2.12184	0.58943	0.607552	0.361251	0.736193	0.424573	0.281441	0.298797	0.597558	0.198615	-0.0180167	0.071416	0.472705	-0.144913	0.100987	-0.262498	0.512556	
0.957452	4.47845	0	5	0.307795	0.270405	0.537296	0.868038	0.367929	0.003252	0.169363	0.689272	3.95021	4.00897	2.01225	1.95263	3.79941	4.53385	2.45073	2.11665	0.588434	0.599848	0.356063	0.735557	0.418702	0.277655	0.300884	0.591662	0.190877	-0.0227375	0.075558	0.460999	-0.146145	0.0939255	-0.267838	0.505208	
0.955794	4.47235	0	5	0.306081	0.27525	0.543762	0.865656	0.36702	0.0058195	0.174806	0.691833	3.95486	4.00873	2.01899	1.94823	3.80413	4.53386	2.45869	2.11145	0.587438	0.592144	0.350874	0.734922	0.412831	0.273868	0.302971	0.585765	0.183139	-0.0274582	0.0797	0.449293	-0.147377	0.0868638	-0.273179	0.497859	
0.954113	4.47235	0	5	0.304367	0.280094	0.550228	0.863273	0.366112	0.008387	0.180248	0.694395	3.95952	4.00849	2.02574	1.94382	3.80885	4.53387	2.46664	2.10625	0.586441	0.58444	0.345686	0.734286	0.40696	0.270082	0.305057	0.579868	0.175401	-0.032179	0.083842	0.437587	-0.148609	0.079802	-0.278519	0.490511	
0.952565	4.46625	0	5	0.297291	0.290308	0.548795	0.875274	0.363385	0.0160935	0.179681	0.704975	3.96418	4.00824	2.03094	1.94378	3.81215	4.53792	2.47253	2.10692	0.590322	0.583992	0.352727	0.729685	0.406083	0.27256	0.300882	0.591666	0.168164	-0.0250075	0.085218	0.442086	-0.143756	0.076631	-0.276028	0.48347	
0.951268	4.46472	0	5	0.290214	0.300523	0.547362	0.887275	0.360658	0.0238	0.179115	0.715554	3.96884	4.008	2.03614	1.94374	3.81545	4.54196	2.47841	2.10758	0.594203	0.583544	0.359768	0.725085	0.405207	0.275037	0.296708	0.603463	0.160928	-0.017836	0.086594	0.446585	-0.138904	0.07346	-0.273537	0.47643	
0.950276	4.46167	0	5	0.283138	0.310737	0.545929	0.899277	0.357932	0.0315065	0.178548	0.726134	3.97351	4.00775	2.04134	1.9437	3.81875	4.546	2.4843	2.10825	0.598084	0.583096	0.366809	0.720484	0.40433	0.277515	0.292534	0.61526	0.153692	-0.0106645	0.08797	0.451085	-0.134051	0.070289	-0.271045	0.46939	
0.949634	4.45709	0	5	0.276062	0.320951	0.544496	0.911278	0.355205	0.039213	0.177982	0.736714	3.97817	4.00751	2.04655	1.94365	3.82205	4.55005	2.49019	2.10891	0.601965	0.582648	0.37385	0.715883	0.403454	0.279993	0.288359	0.627058	0.146455	-0.003493	0.089346	0.455584	-0.129198	0.067118	-0.268554	0.462349	
0.949388	4.45251	0	5	0.276062	0.320951	0.549006	0.906486	0.355205	0.039213	0.181176	0.736671	3.97946	4.00386	2.04289	1.93933	3.82963	4.54199	2.49019	2.10891	0.600005	0.577667	0.366809	0.720484	0.400521	0.2781	0.281947	0.626711	0.148703	-0.00984725	0.084939	0.451267	-0.136188	0.0657912	-0.275137	0.45854	
0.949585	4.44946	0	5	0.276062	0.320951	0.553517	0.901693	0.355205	0.039213	0.18437	0.736627	3.98075	4.00022	2.03923	1.93501	3.83721	4.53394	2.49019	2.10891	0.598045	0.572687	0.359768	0.725085	0.397589	0.276207	0.275535	0.626365	0.150952	-0.0162015	0.080532	0.446949	-0.143178	0.0644645	-0.28172	0.454731	
0.95027	4.45251	0	5	0.276062	0.320951	0.558028	0.8969	0.355205	0.039213	0.187563	0.736584	3.98204	3.99658	2.03557	1.93069	3.84479	4.52588	2.49019	2.10891	0.596085	0.567706	0.352727	0.729685	0.394656	0.274315	0.269122	0.626019	0.1532	-0.0225558	0.076125	0.442632	-0.150168	0.0631377	-0.288303	0.450921	
0.951489	4.44946	0	5	0.276062	0.320951	0.562538	0.892108	0.355205	0.039213	0.190757	0.736541	3.98332	3.99293	2.03191	1.92637	3.85238	4.51783	2.49019	2.10891	0.594125	0.562725	0.345686	0.734286	0.391723	0.272422	0.26271	0.625672	0.155448	-0.02891	0.071718	0.438315	-0.157158	0.061811	-0.294886	0.447112	
0.953279	4.44336	0	5	0.268986	0.33117	0.570132	0.894531	0.357245	0.04381	0.195266	0.741776	3.9867	3.99633	2.03557	1.93069	3.85568	4.52187	2.494	2.11546	0.596085	0.567706	0.34902	0.740161	0.393779	0.276793	0.267033	0.631923	0.148216	-0.0217425	0.0744675	0.447317	-0.158966	0.0669215	-0.290973	0.447258	
0.955558	4.44031	0	5	0.26191	0.341388	0.577726	0.896953	0.359285	0.048407	0.199775	0.74701	3.99008	3.99973	2.03923	1.93501	3.85899	4.52591	2.49781	2.122	0.598045	0.572687	0.352355	0.746036	0.395834	0.281164	0.271356	0.638174	0.140985	-0.014575	0.077217	0.456318	-0.160774	0.072032	-0.287061	0.447404	
0.958172	4.43878	0	5	0.254833	0.351606	0.58532	0.899375	0.361324	0.053004	0.204285	0.752244	3.99345	4.00313	2.04289	1.93933	3.8623	4.52995	2.50163	2.12854	0.600005	0.577667	0.355689	0.751911	0.39789	0.285535	0.275679	0.644425	0.133753	-0.0074075	0.0799665	0.465319	-0.162583	0.0771425	-0.283148	0.44755	
0.960967	4.43725	0	5	0.247757	0.361825	0.592914	0.901798	0.363364	0.057601	0.208794	0.757479	3.99683	4.00653	2.04655	1.94365	3.8656	4.53399	2.50544	2.13509	0.601965	0.582648	0.359023	0.757786	0.399946	0.289906	0.280002	0.650676	0.126521	-0.00024	0.082716	0.474321	-0.164391	0.082253	-0.279236	0.447696	
0.963787	4.43268	0	5	0.246898	0.364252	0.595731	0.901805	0.363364	0.057601	0.21105	0.760099	3.99683	4.00653	2.04963	1.93492	3.87034	4.534	2.51342	2.12987	0.597123	0.585812	0.36607	0.753181	0.39526	0.292968	0.280002	0.650676	0.121541	0.00057175	0.082716	0.474321	-0.168334	0.0828648	-0.277811	0.454879	
0.966478	4.43115	0	5	0.24604	0.366679	0.598548	0.901811	0.363364	0.057601	0.213306	0.762719	3.99683	4.00653	2.05272	1.92619	3.87508	4.53401	2.5214	2.12466	0.592281	0.588976	0.373116	0.748577	0.390575	0.29603	0.280002	0.650676	0.116561	0.0013835	0.082716	0.474321	-0.172277	0.0834765	-0.276386	0.462062	
0.968885	4.42963	0	5	0.245181	0.369106	0.601365	0.901817	0.363364	0.057601	0.215562	0.765339	3.99683	4.00653	2.05581	1.91746	3.87981	4.53402	2.52937	2.11945	0.587439	0.592139	0.380163	0.743973	0.385889	0.299091	0.280002	0.650676	0.111582	0.00219525	0.082716	0.474321	-0.17622	0.0840883	-0.274961	0.469244	
0.970853	4.42505	0	5	0.244322	0.371533	0.604182	0.901824	0.363364	0.057601	0.217818	0.767959	3.99683	4.00653	2.0589	1.90873	3.88455	4.53403	2.53735	2.11423	0.582597	0.595303	0.38721	0.739368	0.381203	0.302153	0.280002	0.650676	0.106602	0.003007	0.082716	0.474321	-0.180163	0.0847	-0.273536	0.476427	
0.972253	4.42352	0	5	0.241744	0.378819	0.607267	0.909053	0.360633	0.0653207	0.222333	0.773204	4.00021	4.00993	2.06256	1.91305	3.88786	4.53807	2.54117	2.12078	0.585516	0.597573	0.383499	0.749856	0.378571	0.309592	0.284328	0.656937	0.104354	0.00936125	0.086295	0.480994	-0.178934	0.0917595	-0.278522	0.490519	
0.973086	4.41894	0	5	0.239166	0.386104	0.610351	0.916281	0.357901	0.0730405	0.226847	0.77845	4.00358	4.01333	2.06623	1.91737	3.89117	4.54212	2.545	2.12733	0.588436	0.599843	0.379788	0.760344	0.375939	0.317031	0.288654	0.663198	0.102106	0.0157155	0.089874	0.487667	-0.177706	0.098819	-0.283508	0.50461	
0.973399	4.41894	0	5	0.236588	0.39339	0.613436	0.92351	0.355169	0.0807603	0.231361	0.783695	4.00696	4.01673	2.06989	1.92169	3.89448	4.54617	2.54882	2.13388	0.591355	0.602114	0.376077	0.770832	0.373306	0.32447	0.29298	0.669459	0.0998573	0.0220698	0.093453	0.49434	-0.176477	0.105879	-0.288494	0.518702	
0.973235	4.41894	0	5	0.23401	0.400675	0.616521	0.930739	0.352438	0.08848	0.235876	0.788941	4.01034	4.02014	2.07356	1.926	3.89779	4.55021	2.55264	2.14043	0.594274	0.604384	0.372366	0.78132	0.370674	0.331909	0.297306	0.67572	0.097609	0.028424	0.097032	0.501013	-0.175249	0.112938	-0.29348	0.532794	
0.972641	4.41437	0	5	0.23401	0.400675	0.623015	0.928346	0.353349	0.085906	0.239079	0.788899	4.01163	4.01649	2.06835	1.92605	3.89922	4.54617	2.55472	2.13454	0.594274	0.604384	0.372366	0.78132	0.370674	0.331909	0.299398	0.669808	0.0915098	0.0324093	0.0915072	0.508231	-0.17706	0.118056	-0.290814	0.536475	
0.971661	4.41437	0	5	0.23401	0.400675	0.629509	0.925953	0.354259	0.083332	0.242281	0.788857	4.01292	4.01284	2.06314	1.9261	3.90065	4.54213	2.5568	2.12866	0.594274	0.604384	0.372366	0.78132	0.370674	0.331909	0.30149	0.663895	0.0854105	0.0363945	0.0859825	0.515448	-0.17887	0.123173	-0.288147	0.540156	
0.97034	4.40826	0	5	0.23401	0.400675	0.636003	0.92356	0.35517	0.080758	0.245484	0.788814	4.01421	4.00919	2.05793	1.92614	3.90208	4.53809	2.55889	2.12277	0.594274	0.604384	0.372366	0.78132	0.370674	0.331909	0.303582	0.657983	0.0793112	0.0403798	0.0804577	0.522666	-0.180681	0.128291	-0.285481	0.543836	
0.968723	4.40826	0	5	0.23401	0.400675	0.642497	0.921167	0.356081	0.078184	0.248687	0.788772	4.0155	4.00554	2.05273	1.92619	3.90351	4.53405	2.56097	2.11688	0.594274	0.604384	0.372366	0.78132	0.370674	0.331909	0.305674	0.652071	0.073212	0.044365	0.074933	0.529884	-0.182492	0.133409	-0.282814	0.547517	
0.966871	4.40063	0	5	0.236791	0.402594	0.645587	0.928407	0.353348	0.0859083	0.252263	0.796697	4.0155	4.00554	2.05793	1.92614	3.90351	4.53405	2.56688	2.11755	0.593312	0.607102	0.377561	0.781961	0.368918	0.336872	0.301489	0.663899	0.0781865	0.0435582	0.0763048	0.534403	-0.190057	0.144259	-0.282646	0.558267	
0.964879	4.40369	0	5	0.239573	0.404513	0.648678	0.935647	0.350614	0.0936325	0.255838	0.804621	4.0155	4.00554	2.06314	1.9261	3.90351	4.53405	2.57279	2.11821	0.592351	0.60982	0.382757	0.782601	0.367162	0.341835	0.297303	0.675728	0.083161	0.0427515	0.0776765	0.538922	-0.197623	0.155108	-0.282478	0.569017	
0.96285	4.40063	0	5	0.242355	0.406432	0.651768	0.942887	0.347881	0.101357	0.259414	0.812546	4.0155	4.00554	2.06835	1.92605	3.90351	4.53405	2.5787	2.11887	0.591389	0.612538	0.387952	0.783241	0.365406	0.346798	0.293118	0.687557	0.0881355	0.0419448	0.0790483	0.543441	-0.205188	0.165957	-0.282311	0.579766	
0.960886	4.40063	0	5	0.245136	0.408351	0.654859	0.950127	0.345148	0.109081	0.26299	0.820471	4.0155	4.00554	2.07356	1.926	3.90351	4.53405	2.58461	2.11953	0.590427	0.615256	0.393148	0.783882	0.36365	0.351761	0.288933	0.699385	0.09311	0.041138	0.08042	0.54796	-0.212754	0.176807	-0.282143	0.590516	
0.959088	4.39606	0	5	0.241495	0.408862	0.658537	0.947724	0.346971	0.103931	0.26299	0.820471	4.01937	3.9946	2.06989	1.92169	3.90637	4.52598	2.58078	2.11299	0.581708	0.618864	0.387952	0.783241	0.358967	0.354821	0.291026	0.693469	0.0870107	0.0451235	0.0779255	0.555009	-0.214567	0.181932	-0.275556	0.594368	
0.957559	4.39148	0	5	0.237853	0.409373	0.662215	0.94532	0.348793	0.0987805	0.26299	0.820471	4.02324	3.98367	2.06623	1.91737	3.90923	4.5179	2.57695	2.10645	0.572989	0.622471	0.382757	0.782601	0.354284	0.357881	0.293119	0.687553	0.0809115	0.049109	0.075431	0.562059	-0.216381	0.187057	-0.268969	0.59822	
0.9564	4.3869	0	5	0.234212	0.409883	0.665894	0.942917	0.350615	0.0936302	0.26299	0.820471	4.02711	3.97273	2.06256	1.91305	3.91208	4.50983	2.57312	2.0999	0.564269	0.626078	0.377561	0.781961	0.349601	0.360941	0.295213	0.681636	0.0748122	0.0530945	0.0729365	0.569109	-0.218195	0.192183	-0.262382	0.602071	
0.95571	4.38995	5	0	0.230571	0.410394	0.669572	0.940513	0.352438	0.08848	0.26299	0.820471	4.03098	3.96179	2.0589	1.90873	3.91494	4.50176	2.56929	2.09336	0.55555	0.629686	0.372366	0.78132	0.344918	0.364001	0.297306	0.67572	0.068713	0.05708	0.070442	0.576158	-0.220008	0.197308	-0.255795	0.605923	
0.955498	4.38843	5	0	0.233352	0.412314	0.666159	0.95016	0.345846	0.0967465	0.263359	0.82845	4.02373	3.96933	2.06256	1.91305	3.91494	4.50176	2.56721	2.09924	0.55555	0.629686	0.372366	0.78132	0.344918	0.364001	0.295213	0.681636	0.067588	0.0602598	0.0718115	0.580687	-0.216068	0.196704	-0.253125	0.609621	
0.955687	4.38385	5	0	0.236133	0.414234	0.662745	0.959807	0.339255	0.105013	0.263728	0.836429	4.01649	3.97687	2.06623	1.91737	3.91494	4.50176	2.56513	2.10512	0.55555	0.629686	0.372366	0.78132	0.344918	0.364001	0.293119	0.687553	0.066463	0.0634395	0.073181	0.585217	-0.212128	0.196101	-0.250455	0.613318	
0.956197	4.38537	5	0	0.238914	0.416155	0.659332	0.969453	0.332664	0.11328	0.264097	0.844407	4.00924	3.98441	2.06989	1.92169	3.91494	4.50176	2.56305	2.111	0.55555	0.629686	0.372366	0.78132	0.344918	0.364001	0.291026	0.693469	0.065338	0.0666193	0.0745505	0.589746	-0.208188	0.195497	-0.247785	0.617016	
0.956947	4.37927	5	0	0.241695	0.418075	0.655919	0.9791	0.326072	0.121546	0.264466	0.852386	4.00199	3.99194	2.07356	1.926	3.91494	4.50176	2.56097	2.11688	0.55555	0.629686	0.372366	0.78132	0.344918	0.364001	0.288933	0.699385	0.064213	0.069799	0.07592	0.594275	-0.204248	0.194893	-0.245115	0.620714	
0.957858	4.38232	5	0	0.242555	0.415644	0.664134	0.971877	0.327894	0.116396	0.26862	0.849672	4.00586	3.98102	2.07665	1.91727	3.91779	4.49369	2.56513	2.10513	0.552636	0.627412	0.367175	0.780679	0.345796	0.361519	0.280424	0.704945	0.0630873	0.07298	0.076456	0.601163	-0.202121	0.199419	-0.243698	0.62796	
0.958849	4.3808	5	0	0.243416	0.413213	0.672349	0.964654	0.329716	0.111245	0.272775	0.846957	4.00972	3.97009	2.07973	1.90854	3.92065	4.48562	2.56929	2.09337	0.549723	0.625139	0.361984	0.780038	0.346674	0.359038	0.271915	0.710505	0.0619615	0.076161	0.076992	0.608051	-0.199993	0.203946	-0.242281	0.635206	
0.959839	4.37775	5	0	0.244276	0.410782	0.680564	0.957432	0.331539	0.106095	0.276929	0.844243	4.01359	3.95916	2.08282	1.89981	3.9235	4.47755	2.57345	2.08161	0.54681	0.622866	0.356794	0.779397	0.347552	0.356556	0.263407	0.716064	0.0608358	0.079342	0.077528	0.61494	-0.197866	0.208473	-0.240864	0.642452	
0.960751	4.37622	5	0	0.245136	0.408351	0.688779	0.950209	0.333361	0.100945	0.281084	0.841528	4.01746	3.94823	2.08591	1.89108	3.92636	4.46949	2.57761	2.06985	0.543896	0.620592	0.351603	0.778756	0.34843	0.354074	0.254898	0.721624	0.05971	0.082523	0.078064	0.621828	-0.195739	0.212999	-0.239447	0.649698	
0.96152	4.37927	5	0	0.240635	0.411292	0.689901	0.955043	0.337219	0.100403	0.2824	0.84684	4.01746	3.94823	2.08437	1.89545	3.92636	4.46949	2.57761	2.06985	0.540984	0.61832	0.353458	0.773513	0.344628	0.354651	0.263407	0.716064	0.0608358	0.079342	0.0797303	0.617119	-0.194831	0.210433	-0.239447	0.649698	
0.962084	4.37622	5	0	0.236133	0.414233	0.691022	0.959876	0.341078	0.099862	0.283716	0.852151	4.01746	3.94823	2.08282	1.89981	3.92636	4.46949	2.57761	2.06985	0.538072	0.616048	0.355313	0.768271	0.340825	0.355229	0.271915	0.710505	0.0619615	0.076161	0.0813965	0.61241	-0.193923	0.207867	-0.239447	0.649698	
0.962386	4.37775	5	0	0.231632	0.417174	0.692144	0.964709	0.344936	0.0993205	0.285031	0.857463	4.01746	3.94823	2.08128	1.90418	3.92636	4.46949	2.57761	2.06985	0.535159	0.613775	0.357168	0.763028	0.337023	0.355806	0.280424	0.704945	0.0630873	0.07298	0.0830627	0.607701	-0.193015	0.205301	-0.239447	0.649698	
0.962364	4.37927	5	0	0.227131	0.420115	0.693265	0.969543	0.348794	0.098779	0.286347	0.862775	4.01746	3.94823	2.07974	1.90854	3.92636	4.46949	2.57761	2.06985	0.532247	0.611503	0.359023	0.757786	0.33322	0.356383	0.288933	0.699385	0.064213	0.069799	0.084729	0.602992	-0.192107	0.202735	-0.239447	0.649698	
0.961959	4.37927	5	0	0.234211	0.409885	0.692144	0.964709	0.345847	0.0967465	0.288241	0.857422	4.01874	3.94459	2.07453	1.90859	3.92778	4.46546	2.57969	2.06398	0.533207	0.608789	0.360877	0.752547	0.33322	0.356383	0.291026	0.693469	0.064213	0.069799	0.0822295	0.610057	-0.193923	0.207867	-0.238031	0.656955	
0.961111	4.38232	5	0	0.241292	0.399655	0.691022	0.959876	0.342899	0.094714	0.290135	0.85207	4.02003	3.94095	2.06932	1.90864	3.92921	4.46142	2.58177	2.0581	0.534168	0.606075	0.362731	0.747308	0.33322	0.356383	0.293119	0.687553	0.064213	0.069799	0.07973	0.617121	-0.19574	0.213	-0.236615	0.664211	
0.95976	4.38385	5	0	0.248372	0.389424	0.689901	0.955043	0.339952	0.0926815	0.292029	0.846718	4.02132	3.93731	2.06411	1.90869	3.93064	4.45739	2.58385	2.05223	0.535128	0.603361	0.364585	0.742068	0.33322	0.356383	0.295213	0.681636	0.064213	0.069799	0.0772305	0.624185	-0.197556	0.218133	-0.2352	0.671468	
0.957927	4.38537	0	5	0.255453	0.379194	0.688779	0.950209	0.337004	0.090649	0.293923	0.841365	4.02261	3.93367	2.0589	1.90873	3.93206	4.45336	2.58592	2.04636	0.536088	0.600647	0.366439	0.736829	0.33322	0.356383	0.297306	0.67572	0.064213	0.069799	0.074731	0.63125	-0.199372	0.223265	-0.233784	0.678725	
0.955834	4.38385	0	5	0.250092	0.384564	0.692462	0.947802	0.337004	0.090649	0.29524	0.846678	4.02599	3.93706	2.06256	1.91305	3.93064	4.45739	2.59184	2.04701	0.538008	0.595221	0.366439	0.736829	0.32942	0.356959	0.297306	0.67572	0.0664628	0.0634405	0.0755642	0.628895	-0.193611	0.217527	-0.236454	0.675014	
0.953736	4.3869	0	5	0.244731	0.389934	0.696146	0.945396	0.337004	0.090649	0.296557	0.851991	4.02937	3.94044	2.06623	1.91737	3.92921	4.46142	2.59775	2.04766	0.539928	0.589796	0.366439	0.736829	0.325619	0.357536	0.297306	0.67572	0.0687125	0.057082	0.0763975	0.626539	-0.18785	0.21179	-0.239125	0.671304	
0.951888	4.3869	0	5	0.239371	0.395305	0.699829	0.942989	0.337004	0.090649	0.297874	0.857303	4.03276	3.94383	2.06989	1.92169	3.92778	4.46546	2.60367	2.04831	0.541848	0.58437	0.366439	0.736829	0.321819	0.358112	0.297306	0.67572	0.0709623	0.0507235	0.0772308	0.624184	-0.182089	0.206052	-0.241795	0.667593	
0.950546	4.38843	0	5	0.23401	0.400675	0.703512	0.940582	0.337004	0.090649	0.299191	0.862616	4.03614	3.94722	2.07356	1.926	3.92636	4.46949	2.60958	2.04896	0.543768	0.578944	0.366439	0.736829	0.318018	0.358688	0.297306	0.67572	0.073212	0.044365	0.078064	0.621828	-0.176328	0.200315	-0.244466	0.663882	
0.949963	4.3869	0	5	0.232948	0.393902	0.702389	0.935755	0.334969	0.0860457	0.299767	0.851954	4.04081	3.94697	2.07356	1.926	3.9311	4.46948	2.60958	2.04896	0.547642	0.578498	0.366439	0.736829	0.321819	0.358112	0.293118	0.687557	0.0720872	0.0475438	0.0794325	0.626368	-0.178145	0.205449	-0.235355	0.660656	
0.950396	4.38232	0	5	0.231886	0.387129	0.701265	0.930927	0.332933	0.0814425	0.300342	0.841292	4.04549	3.94671	2.07356	1.926	3.93585	4.46948	2.60958	2.04896	0.551516	0.578052	0.366439	0.736829	0.325619	0.357536	0.28893	0.699393	0.0709625	0.0507225	0.080801	0.630907	-0.179961	0.210583	-0.226245	0.657431	
0.952083	4.38385	0	5	0.230824	0.380356	0.700141	0.926099	0.330898	0.0768392	0.300918	0.83063	4.05016	3.94646	2.07356	1.926	3.9406	4.46948	2.60958	2.04896	0.555389	0.577606	0.366439	0.736829	0.32942	0.356959	0.284742	0.711229	0.0698378	0.0539012	0.0821695	0.635447	-0.181778	0.215717	-0.217134	0.654205	
0.954962	4.38385	0	5	0.229762	0.373583	0.699018	0.921272	0.328862	0.072236	0.301494	0.819968	4.05484	3.9462	2.07356	1.926	3.94535	4.46948	2.60958	2.04896	0.559263	0.57716	0.366439	0.736829	0.33322	0.356383	0.280554	0.723066	0.068713	0.05708	0.083538	0.639987	-0.183594	0.220851	-0.208024	0.650979	
0.958701	4.38232	0	5	0.229762	0.373583	0.695337	0.923678	0.332718	0.0716935	0.299601	0.825317	4.06291	3.94934	2.07877	1.92596	3.95342	4.47351	2.61342	2.05549	0.554429	0.580318	0.371632	0.737464	0.332342	0.358864	0.289071	0.717501	0.068713	0.05708	0.087409	0.637458	-0.178739	0.217678	-0.208024	0.650979	
0.962959	4.3808	0	5	0.229762	0.373583	0.691655	0.926084	0.336575	0.071151	0.297708	0.830666	4.07098	3.95248	2.08398	1.92591	3.9615	4.47754	2.61726	2.06202	0.549596	0.583477	0.376825	0.738098	0.331464	0.361345	0.297588	0.711936	0.068713	0.05708	0.09128	0.634929	-0.173883	0.214506	-0.208024	0.650979	
0.967395	4.37775	0	5	0.229762	0.373583	0.687974	0.928489	0.340431	0.0706085	0.295816	0.836016	4.07904	3.95561	2.08919	1.92586	3.96957	4.48158	2.6211	2.06855	0.544763	0.586636	0.382017	0.738733	0.330586	0.363826	0.306105	0.70637	0.068713	0.05708	0.095151	0.632399	-0.169027	0.211333	-0.208024	0.650979	
0.971668	4.37622	0	5	0.229762	0.373583	0.684292	0.930895	0.344288	0.070066	0.293923	0.841365	4.08711	3.95875	2.09441	1.92581	3.97765	4.48561	2.62494	2.07508	0.539929	0.589794	0.38721	0.739368	0.329708	0.366307	0.314622	0.700805	0.068713	0.05708	0.099022	0.62987	-0.164172	0.20816	-0.208024	0.650979	
0.975438	4.37622	0	5	0.227841	0.369244	0.685145	0.928485	0.340431	0.0706085	0.297707	0.83067	4.09051	3.96214	2.09808	1.93014	3.97336	4.49773	2.62878	2.08163	0.547678	0.588903	0.383499	0.749856	0.33351	0.365731	0.318954	0.707086	0.067588	0.0602598	0.105101	0.629523	-0.155362	0.204377	-0.205348	0.654688	
0.978362	4.37469	0	5	0.225919	0.364904	0.685998	0.926075	0.336575	0.071151	0.301492	0.819975	4.0939	3.96554	2.10175	1.93446	3.96907	4.50986	2.63263	2.08817	0.555428	0.588012	0.379788	0.760344	0.337313	0.365154	0.323286	0.713367	0.066463	0.0634395	0.11118	0.629175	-0.146551	0.200595	-0.202672	0.658397	
0.980133	4.37775	0	5	0.223997	0.360565	0.68685	0.923664	0.332718	0.0716935	0.305276	0.809279	4.09729	3.96893	2.10542	1.93878	3.96478	4.52199	2.63647	2.09471	0.563177	0.58712	0.376077	0.770832	0.341116	0.364577	0.327617	0.719649	0.065338	0.0666193	0.117259	0.628828	-0.13774	0.196812	-0.199997	0.662107	
0.980748	4.37164	0	5	0.222076	0.356226	0.687703	0.921254	0.328862	0.072236	0.30906	0.798584	4.10069	3.97233	2.10908	1.94311	3.96049	4.53411	2.64031	2.10125	0.570927	0.586229	0.372366	0.78132	0.344918	0.364001	0.331949	0.72593	0.064213	0.069799	0.123338	0.628481	-0.12893	0.193029	-0.197321	0.665816	
0.980385	4.36554	0	5	0.222934	0.353801	0.687703	0.921254	0.329772	0.069665	0.30906	0.798584	4.09939	3.97598	2.10754	1.94748	3.96524	4.53411	2.64415	2.1078	0.570927	0.586229	0.374222	0.776075	0.345796	0.361519	0.331949	0.72593	0.0664628	0.0634405	0.121966	0.623941	-0.131974	0.19107	-0.198741	0.658559	
0.979221	4.36706	0	5	0.223792	0.351377	0.687703	0.921254	0.330681	0.067094	0.30906	0.798584	4.0981	3.97963	2.10599	1.95186	3.97	4.53412	2.648	2.11435	0.570927	0.586229	0.376078	0.770829	0.346674	0.359038	0.331949	0.72593	0.0687125	0.057082	0.120593	0.619401	-0.135018	0.189111	-0.200162	0.651303	
0.977435	4.36401	0	5	0.22465	0.348952	0.687703	0.921254	0.331591	0.064523	0.30906	0.798584	4.09681	3.98328	2.10444	1.95623	3.97476	4.53412	2.65184	2.12091	0.570927	0.586229	0.377934	0.765583	0.347552	0.356556	0.331949	0.72593	0.0709623	0.0507235	0.119221	0.614861	-0.138061	0.187151	-0.201582	0.644046	
0.975204	4.36249	0	5	0.225508	0.346528	0.687703	0.921254	0.332501	0.061952	0.30906	0.798584	4.09552	3.98693	2.10289	1.9606	3.97951	4.53412	2.65569	2.12746	0.570927	0.586229	0.37979	0.760338	0.34843	0.354074	0.331949	0.72593	0.073212	0.044365	0.117849	0.610321	-0.141105	0.185192	-0.203003	0.636789	
0.972708	4.36249	0	5	0.222729	0.344618	0.684023	0.923659	0.327737	0.0650648	0.301695	0.801342	4.09762	3.99399	2.10811	1.96056	3.98427	4.53412	2.65569	2.12746	0.572883	0.591214	0.390188	0.761612	0.346674	0.359038	0.32985	0.731862	0.0720872	0.0475438	0.120055	0.612503	-0.137153	0.184583	-0.204258	0.640337	
0.970123	4.35943	0	5	0.219949	0.342707	0.680343	0.926063	0.322974	0.0681775	0.29433	0.804101	4.09972	4.00105	2.11333	1.96051	3.98903	4.53413	2.65569	2.12746	0.574839	0.596199	0.400586	0.762885	0.344917	0.364002	0.327751	0.737794	0.0709625	0.0507225	0.122262	0.614685	-0.1332	0.183974	-0.205513	0.643884	
