0.995	4.18396	0	0	-0.129718	0.396179	0.099118	0.238654	-0.259006	0.327507	0.038971	0.110255	-0.377797	0.145103	-0.265531	-0.071871	-0.32087	-0.156025	-0.148965	-0.118165	-0.145523	0.144239	0.109656	0.245826	-0.015487	0.395933	0.057367	0.34268	-0.123969	0.522266	0.135169	0.437416	-0.031698	0.218705	-0.147115	0.050802	
0.991756	4.18091	0	0	-0.129538	0.406237	0.104679	0.248813	-0.261993	0.335949	0.039424	0.118658	-0.37126	0.169225	-0.255993	-0.0564785	-0.311526	-0.138865	-0.14911	-0.101665	-0.145421	0.15497	0.111275	0.257285	-0.016086	0.408592	0.059969	0.355278	-0.13068	0.526651	0.13007	0.442696	-0.0274315	0.217988	-0.142901	0.0509525	
0.989994	4.18091	0	0	-0.129358	0.416296	0.110239	0.258972	-0.26498	0.344391	0.039877	0.127061	-0.364723	0.193347	-0.246455	-0.041086	-0.302181	-0.121704	-0.149255	-0.0851645	-0.145319	0.1657	0.112895	0.268744	-0.016685	0.421252	0.062571	0.367877	-0.13739	0.531035	0.12497	0.447976	-0.023165	0.21727	-0.138687	0.051103	
0.989472	4.18243	0	0	-0.129177	0.426354	0.1158	0.269131	-0.267967	0.352834	0.04033	0.135464	-0.358186	0.217469	-0.236918	-0.0256935	-0.292837	-0.104544	-0.149399	-0.0686643	-0.145218	0.17643	0.114514	0.280204	-0.017284	0.433911	0.065173	0.380475	-0.1441	0.535419	0.119871	0.453255	-0.0188985	0.216553	-0.134473	0.0512535	
0.98995	4.18396	0	0	-0.128997	0.436412	0.121361	0.27929	-0.270954	0.361276	0.040783	0.143867	-0.351649	0.241591	-0.22738	-0.010301	-0.283493	-0.087384	-0.149544	-0.052164	-0.145116	0.187161	0.116133	0.291663	-0.017883	0.44657	0.067775	0.393074	-0.150811	0.539804	0.114771	0.458535	-0.014632	0.215835	-0.130259	0.051404	
0.991188	4.18091	0	0	-0.126006	0.438532	0.117728	0.289558	-0.282316	0.370865	0.0397813	0.146698	-0.343974	0.251914	-0.23023	-0.00224825	-0.27594	-0.075986	-0.144022	-0.0516645	-0.150187	0.190474	0.11421	0.297097	-0.018825	0.449232	0.0655783	0.399282	-0.155044	0.5372	0.109954	0.453896	-0.0188985	0.216553	-0.124705	0.0477747	
0.992943	4.17938	0	0	-0.123014	0.440652	0.114095	0.299826	-0.293678	0.380454	0.0387795	0.149529	-0.3363	0.262237	-0.233079	0.0058045	-0.268387	-0.064588	-0.1385	-0.051165	-0.155258	0.193788	0.112287	0.302531	-0.019767	0.451894	0.0633815	0.40549	-0.159278	0.534596	0.105138	0.449256	-0.023165	0.21727	-0.119152	0.0441455	
0.994977	4.17633	0	0	-0.120023	0.442772	0.110461	0.310094	-0.305041	0.390043	0.0377777	0.152361	-0.328626	0.27256	-0.235928	0.0138572	-0.260834	-0.05319	-0.132978	-0.0506655	-0.160329	0.197102	0.110365	0.307965	-0.020709	0.454557	0.0611847	0.411699	-0.163511	0.531992	0.100322	0.444617	-0.0274315	0.217988	-0.113598	0.0405163	
0.997048	4.1748	0	0	-0.117032	0.444892	0.106828	0.320362	-0.316403	0.399632	0.036776	0.155192	-0.320951	0.282883	-0.238778	0.02191	-0.253281	-0.041792	-0.127456	-0.050166	-0.1654	0.200415	0.108442	0.313399	-0.021651	0.457219	0.058988	0.417907	-0.167744	0.529388	0.095505	0.439977	-0.031698	0.218705	-0.108044	0.036887	
0.998916	4.1748	0	0	-0.120786	0.455502	0.111139	0.325448	-0.319394	0.408085	0.038228	0.160777	-0.314279	0.296094	-0.231466	0.0295312	-0.250755	-0.0270705	-0.121929	-0.0496675	-0.166395	0.203227	0.113905	0.314009	-0.029526	0.468508	0.0659828	0.418112	-0.171974	0.526786	0.0939933	0.435131	-0.036914	0.222113	-0.109381	0.0406658	
1.00034	4.17023	0	0	-0.12454	0.466111	0.115451	0.330534	-0.322385	0.416538	0.03968	0.166361	-0.307607	0.309306	-0.224154	0.0371525	-0.248228	-0.012349	-0.116402	-0.049169	-0.167389	0.206038	0.119368	0.314619	-0.037401	0.479798	0.0729775	0.418318	-0.176204	0.524185	0.0924815	0.430285	-0.04213	0.225521	-0.110718	0.0444445	
1.00108	4.17175	0	0	-0.128295	0.47672	0.119762	0.335621	-0.325376	0.424991	0.041132	0.171946	-0.300935	0.322517	-0.216843	0.0447738	-0.245702	0.0023725	-0.110874	-0.0486705	-0.168384	0.208849	0.124831	0.31523	-0.045276	0.491087	0.0799722	0.418523	-0.180435	0.521583	0.0909698	0.425438	-0.047346	0.22893	-0.112055	0.0482233	
1.00089	4.17023	0	0	-0.132049	0.48733	0.124073	0.340707	-0.328367	0.433444	0.042584	0.177531	-0.294263	0.335728	-0.209531	0.052395	-0.243176	0.017094	-0.105347	-0.048172	-0.169379	0.211661	0.130294	0.31584	-0.053151	0.502377	0.086967	0.418729	-0.184665	0.518981	0.089458	0.420592	-0.052562	0.232338	-0.113392	0.052002	
0.99954	4.16412	0	0	-0.132049	0.48733	0.125319	0.345826	-0.332548	0.434009	0.0460422	0.177451	-0.296288	0.341451	-0.212388	0.0604698	-0.234181	0.0135583	-0.110874	-0.0486705	-0.182585	0.215968	0.126754	0.309796	-0.0563095	0.500344	0.086967	0.418729	-0.195581	0.520752	0.0813492	0.416178	-0.05587	0.230361	-0.113392	0.052002	
0.996781	4.16565	0	0	-0.132049	0.48733	0.126565	0.350945	-0.336728	0.434574	0.0495005	0.17737	-0.298313	0.347174	-0.215245	0.0685445	-0.225185	0.0100225	-0.116402	-0.049169	-0.195791	0.220274	0.123214	0.303752	-0.059468	0.498312	0.086967	0.418729	-0.206498	0.522523	0.0732405	0.411764	-0.059178	0.228384	-0.113392	0.052002	
0.992375	4.16107	0	0	-0.132049	0.48733	0.127812	0.356064	-0.340909	0.435139	0.0529587	0.177289	-0.300338	0.352896	-0.218103	0.0766192	-0.216189	0.00648675	-0.121929	-0.0496675	-0.208996	0.224581	0.119673	0.297707	-0.0626265	0.496279	0.086967	0.418729	-0.217414	0.524294	0.0651317	0.40735	-0.062486	0.226407	-0.113392	0.052002	
0.986081	4.1626	0	0	-0.132049	0.48733	0.129058	0.361183	-0.34509	0.435704	0.056417	0.177209	-0.302363	0.358619	-0.22096	0.084694	-0.207194	0.002951	-0.127456	-0.050166	-0.222202	0.228888	0.116133	0.291663	-0.065785	0.494246	0.086967	0.418729	-0.22833	0.526065	0.057023	0.402936	-0.065794	0.22443	-0.113392	0.052002	
0.977912	4.15649	0	0	-0.137855	0.493165	0.12417	0.366356	-0.351263	0.441904	0.0509523	0.18296	-0.308298	0.364699	-0.214444	0.080436	-0.21331	0.0092905	-0.125565	-0.0555088	-0.226267	0.229384	0.101378	0.301304	-0.069884	0.494877	0.0799722	0.418523	-0.233781	0.526948	0.0555133	0.398101	-0.0743065	0.225856	-0.114936	0.0443	
0.968574	4.15192	0	0	-0.14366	0.498999	0.119282	0.371528	-0.357435	0.448104	0.0454875	0.188711	-0.314234	0.370778	-0.207927	0.076178	-0.219427	0.01563	-0.123675	-0.0608515	-0.230332	0.22988	0.0866235	0.310945	-0.073983	0.495508	0.0729775	0.418318	-0.239232	0.52783	0.0540035	0.393267	-0.082819	0.227282	-0.116481	0.036598	
0.95889	4.15344	0	0	-0.149466	0.504834	0.114395	0.3767	-0.363607	0.454304	0.0400227	0.194461	-0.320169	0.376858	-0.20141	0.07192	-0.225544	0.0219695	-0.121785	-0.0661943	-0.234396	0.230375	0.0718687	0.320586	-0.078082	0.496139	0.0659828	0.418112	-0.244683	0.528713	0.0524937	0.388433	-0.0913315	0.228709	-0.118026	0.028896	
0.949682	4.15802	0	0	-0.155272	0.510668	0.109507	0.381873	-0.36978	0.460504	0.034558	0.200212	-0.326105	0.382937	-0.194894	0.067662	-0.23166	0.028309	-0.119894	-0.071537	-0.238461	0.230871	0.057114	0.330227	-0.082181	0.49677	0.058988	0.417907	-0.250134	0.529595	0.050984	0.383598	-0.099844	0.230135	-0.11957	0.021194	
0.941774	4.15497	0	0	-0.163119	0.511714	0.110992	0.369038	-0.373954	0.461065	0.0341105	0.191789	-0.329869	0.372201	-0.200784	0.0560018	-0.234187	0.013577	-0.127162	-0.083194	-0.242523	0.231366	0.060956	0.319369	-0.0853353	0.494738	0.049805	0.423907	-0.251367	0.53308	0.0459045	0.388857	-0.096541	0.232113	-0.118235	0.0174203	
0.935989	4.15649	0	0	-0.170965	0.51276	0.112478	0.356202	-0.378129	0.461626	0.033663	0.183366	-0.333632	0.361465	-0.206674	0.0443415	-0.236714	-0.001155	-0.134429	-0.094851	-0.246585	0.231861	0.064798	0.308511	-0.0884895	0.492706	0.040622	0.429908	-0.252601	0.536565	0.040825	0.394116	-0.093238	0.234091	-0.116899	0.0136465	
0.933149	4.1626	0	0	-0.178812	0.513807	0.113963	0.343367	-0.382304	0.462187	0.0332155	0.174942	-0.337395	0.350729	-0.212564	0.0326812	-0.239242	-0.015887	-0.141697	-0.106508	-0.250647	0.232356	0.06864	0.297654	-0.0916437	0.490675	0.031439	0.435908	-0.253834	0.54005	0.0357455	0.399374	-0.089935	0.236068	-0.115564	0.00987275	
0.933992	4.16107	0	0	-0.186659	0.514853	0.115449	0.330531	-0.386478	0.462748	0.032768	0.166519	-0.341159	0.339993	-0.218454	0.021021	-0.241769	-0.030619	-0.148965	-0.118165	-0.254709	0.232851	0.072482	0.286796	-0.094798	0.488643	0.022256	0.441909	-0.255067	0.543535	0.030666	0.404633	-0.086632	0.238046	-0.114229	0.006099	
0.938248	4.16107	0	0	-0.186659	0.514853	0.111476	0.333127	-0.386478	0.462748	0.032768	0.166519	-0.352719	0.329993	-0.23226	0.0176603	-0.2522	-0.0448103	-0.150713	-0.129301	-0.253715	0.230043	0.0651142	0.29161	-0.0998332	0.491933	0.022256	0.441909	-0.2563	0.547022	0.0348528	0.401897	-0.0814225	0.234642	-0.117111	0.002183	
0.944993	4.16565	5	0	-0.186659	0.514853	0.107503	0.335724	-0.386478	0.462748	0.032768	0.166519	-0.364279	0.319992	-0.246067	0.0142995	-0.262631	-0.0590015	-0.152461	-0.140437	-0.252722	0.227235	0.0577465	0.296424	-0.104869	0.495224	0.022256	0.441909	-0.257534	0.550508	0.0390395	0.399162	-0.076213	0.231238	-0.119992	-0.001733	
0.95329	4.17023	5	0	-0.186659	0.514853	0.103529	0.33832	-0.386478	0.462748	0.032768	0.166519	-0.375838	0.309991	-0.259873	0.0109388	-0.273062	-0.0731928	-0.15421	-0.151573	-0.251729	0.224427	0.0503787	0.301239	-0.109904	0.498514	0.022256	0.441909	-0.258767	0.553994	0.0432262	0.396426	-0.0710035	0.227834	-0.122873	-0.005649	
0.962204	4.16107	5	0	-0.186659	0.514853	0.099556	0.340916	-0.386478	0.462748	0.032768	0.166519	-0.387398	0.299991	-0.273679	0.007578	-0.283493	-0.087384	-0.155958	-0.162709	-0.250735	0.221619	0.043011	0.306053	-0.114939	0.501804	0.022256	0.441909	-0.260001	0.557481	0.047413	0.39369	-0.065794	0.22443	-0.125755	-0.009565	
0.970799	4.15802	5	0	-0.18964	0.512723	0.0961583	0.333264	-0.389653	0.460491	0.0313165	0.160938	-0.40757	0.28256	-0.28825	-0.007598	-0.298573	-0.110081	-0.168722	-0.174784	-0.258852	0.222608	0.0394868	0.300019	-0.117148	0.497113	0.0244528	0.4357	-0.270887	0.559234	0.041719	0.391593	-0.0814133	0.234636	-0.128635	-0.013477	
0.97814	4.15344	5	0	-0.192622	0.510593	0.0927605	0.325613	-0.392829	0.458234	0.029865	0.155357	-0.427741	0.265128	-0.302821	-0.022774	-0.313653	-0.132777	-0.181486	-0.18686	-0.266969	0.223596	0.0359625	0.293984	-0.119357	0.492421	0.0266495	0.429492	-0.281773	0.560988	0.036025	0.389496	-0.0970325	0.244842	-0.131515	-0.017389	
0.98329	4.15192	5	0	-0.195603	0.508462	0.0893628	0.317962	-0.396004	0.455977	0.0284135	0.149776	-0.447912	0.247696	-0.317392	-0.03795	-0.328732	-0.155474	-0.194251	-0.198935	-0.275086	0.224584	0.0324383	0.28795	-0.121565	0.48773	0.0288463	0.423283	-0.292659	0.562742	0.030331	0.387399	-0.112652	0.255048	-0.134395	-0.021301	
0.985448	4.15344	5	0	-0.198584	0.506332	0.085965	0.31031	-0.399179	0.45372	0.026962	0.144195	-0.468084	0.230265	-0.331963	-0.053126	-0.343812	-0.178171	-0.207015	-0.21101	-0.283203	0.225573	0.028914	0.281915	-0.123774	0.483038	0.031043	0.417075	-0.303545	0.564495	0.024637	0.385302	-0.128271	0.265254	-0.137275	-0.025213	
0.984815	4.15497	5	0	-0.197646	0.503681	0.0829052	0.310337	-0.398182	0.450904	0.0259605	0.147025	-0.481446	0.215039	-0.339234	-0.06069	-0.360984	-0.194729	-0.208765	-0.222087	-0.28221	0.222768	0.0308308	0.276498	-0.126922	0.481008	0.0288463	0.423283	-0.310718	0.555801	0.021622	0.375651	-0.113104	0.245008	-0.138822	-0.0328835	
0.982057	4.14886	5	0	-0.196708	0.50103	0.0798455	0.310364	-0.397186	0.448088	0.024959	0.149855	-0.494808	0.199814	-0.346506	-0.068254	-0.378155	-0.211287	-0.210514	-0.233164	-0.281218	0.219963	0.0327475	0.27108	-0.130071	0.478978	0.0266495	0.429492	-0.317891	0.547107	0.018607	0.366001	-0.097938	0.224763	-0.14037	-0.040554	
0.977839	4.14581	5	0	-0.195769	0.498379	0.0767857	0.31039	-0.39619	0.445272	0.0239575	0.152686	-0.50817	0.184589	-0.353778	-0.075818	-0.395326	-0.227845	-0.212264	-0.244241	-0.280225	0.217157	0.0346643	0.265663	-0.133219	0.476949	0.0244528	0.4357	-0.325065	0.538414	0.015592	0.356351	-0.0827715	0.204517	-0.141917	-0.0482245	
0.972828	4.15192	5	0	-0.194831	0.495728	0.073726	0.310417	-0.395193	0.442456	0.022956	0.155516	-0.521532	0.169363	-0.361049	-0.083382	-0.412498	-0.244403	-0.214014	-0.255318	-0.279232	0.214352	0.036581	0.260245	-0.136368	0.474919	0.022256	0.441909	-0.332238	0.52972	0.012577	0.3467	-0.067605	0.184272	-0.143464	-0.055895	
0.96769	4.15344	5	0	-0.201895	0.484059	0.0604937	0.287578	-0.402534	0.440763	0.0131547	0.144533	-0.548292	0.149988	-0.371939	-0.0946982	-0.422531	-0.270113	-0.219392	-0.272123	-0.281303	0.209239	0.029533	0.248216	-0.140782	0.465557	0.0174745	0.435491	-0.336947	0.514107	0.00148625	0.332694	-0.0817642	0.179081	-0.146343	-0.059796	
0.963092	4.1687	5	0	-0.208958	0.47239	0.0472615	0.264738	-0.409875	0.439069	0.0033535	0.13355	-0.575052	0.130613	-0.382828	-0.106015	-0.432565	-0.295824	-0.224769	-0.288929	-0.283374	0.204126	0.022485	0.236187	-0.145195	0.456195	0.012693	0.429072	-0.341657	0.498495	-0.0096045	0.318688	-0.0959235	0.173889	-0.149221	-0.063697	
0.959701	4.17938	5	0	-0.216022	0.460722	0.0340292	0.241899	-0.417216	0.437376	-0.00644775	0.122567	-0.601811	0.111237	-0.393717	-0.117331	-0.442598	-0.321534	-0.230147	-0.305734	-0.285446	0.199014	0.015437	0.224159	-0.149608	0.446834	0.0079115	0.422654	-0.346367	0.482882	-0.0206953	0.304681	-0.110083	0.168698	-0.152099	-0.067598	
0.95794	4.19159	5	0	-0.223086	0.449053	0.020797	0.21906	-0.424557	0.435682	-0.016249	0.111584	-0.628571	0.091862	-0.404607	-0.128647	-0.452631	-0.347244	-0.235524	-0.322539	-0.287517	0.193901	0.008389	0.21213	-0.154022	0.437472	0.00313	0.416236	-0.351076	0.46727	-0.031786	0.290675	-0.124242	0.163506	-0.154978	-0.071499	
0.957539	4.20837	5	0	-0.234048	0.437943	0.0051015	0.186258	-0.428907	0.425562	-0.0181513	0.0976493	-0.648523	0.074691	-0.411055	-0.124434	-0.462976	-0.361147	-0.250109	-0.329221	-0.292741	0.175805	0.0070635	0.183983	-0.162844	0.418811	-0.0064215	0.403432	-0.364874	0.462967	-0.050019	0.269872	-0.137418	0.155646	-0.143896	-0.0787405	
0.958104	4.22668	5	0	-0.24501	0.426832	-0.010594	0.153455	-0.433257	0.415442	-0.0200535	0.0837145	-0.668474	0.05752	-0.417503	-0.120221	-0.473321	-0.37505	-0.264694	-0.335903	-0.297965	0.157709	0.005738	0.155836	-0.171666	0.400149	-0.015973	0.390628	-0.378672	0.458665	-0.068252	0.249069	-0.150595	0.147786	-0.132813	-0.085982	
0.959242	4.25262	5	0	-0.255973	0.415721	-0.0262895	0.120653	-0.437607	0.405321	-0.0219557	0.0697798	-0.688426	0.040349	-0.423951	-0.116007	-0.483666	-0.388953	-0.279279	-0.342585	-0.303188	0.139613	0.0044125	0.127688	-0.180489	0.381487	-0.0255245	0.377824	-0.392471	0.454362	-0.086485	0.228265	-0.163772	0.139926	-0.12173	-0.0932235	
0.960559	4.26636	5	0	-0.266935	0.404611	-0.041985	0.087851	-0.441957	0.395201	-0.023858	0.055845	-0.708377	0.023178	-0.430399	-0.111794	-0.494011	-0.402856	-0.293864	-0.349267	-0.308412	0.121517	0.003087	0.099541	-0.189311	0.362826	-0.035076	0.36502	-0.406269	0.450059	-0.104718	0.207462	-0.176948	0.132066	-0.110648	-0.100465	
0.96166	4.28772	5	0	-0.277876	0.393535	-0.0612292	0.0653958	-0.446306	0.385105	-0.0350915	0.039402	-0.708377	0.023178	-0.421737	-0.108244	-0.495066	-0.399874	-0.299338	-0.349737	-0.305448	0.113141	-0.002063	0.082257	-0.189647	0.352894	-0.0328885	0.358838	-0.406269	0.450059	-0.113636	0.205614	-0.177895	0.134741	-0.0895352	-0.0997973	
0.962152	4.30908	5	0	-0.288817	0.382459	-0.0804735	0.0429405	-0.450654	0.375008	-0.046325	0.022959	-0.708377	0.023178	-0.413075	-0.104694	-0.496121	-0.396892	-0.304812	-0.350208	-0.302484	0.104764	-0.007213	0.064973	-0.189983	0.342962	-0.030701	0.352655	-0.406269	0.450059	-0.122554	0.203765	-0.178841	0.137416	-0.0684225	-0.0991295	
0.961649	4.32739	5	0	-0.299758	0.371383	-0.0997177	0.0204852	-0.455002	0.364911	-0.0575585	0.006516	-0.708377	0.023178	-0.404413	-0.101145	-0.497177	-0.393909	-0.310285	-0.350678	-0.29952	0.0963875	-0.012363	0.047689	-0.19032	0.333029	-0.0285135	0.346472	-0.406269	0.450059	-0.131473	0.201917	-0.179787	0.140091	-0.0473097	-0.0984618	
0.960074	4.34875	5	0	-0.310699	0.360307	-0.118962	-0.00197	-0.459351	0.354815	-0.068792	-0.009927	-0.708377	0.023178	-0.395751	-0.097595	-0.498232	-0.390927	-0.315759	-0.351148	-0.296556	0.088011	-0.017513	0.030405	-0.190656	0.323097	-0.026326	0.34029	-0.406269	0.450059	-0.140391	0.200069	-0.180734	0.142766	-0.026197	-0.097794	
0.957733	4.36859	5	0	-0.310699	0.360307	-0.131062	-0.0018235	-0.46766	0.355937	-0.0668057	-0.0155403	-0.700828	0.0333328	-0.389908	-0.086036	-0.489684	-0.38274	-0.308423	-0.355942	-0.29053	0.0819288	-0.0118245	0.0143285	-0.189722	0.320458	-0.0171723	0.334309	-0.406269	0.450059	-0.140127	0.190314	-0.175549	0.139379	-0.0203995	-0.0899895	
0.954956	4.3808	5	0	-0.310699	0.360307	-0.143162	-0.001677	-0.475969	0.357059	-0.0648195	-0.0211535	-0.693279	0.0434875	-0.384066	-0.074477	-0.481136	-0.374552	-0.301087	-0.360735	-0.284505	0.0758465	-0.006136	-0.001748	-0.188788	0.31782	-0.0080185	0.328327	-0.406269	0.450059	-0.139863	0.180559	-0.170365	0.135991	-0.014602	-0.082185	
0.952073	4.39911	5	0	-0.310699	0.360307	-0.155263	-0.0015305	-0.484277	0.35818	-0.0628333	-0.0267667	-0.68573	0.0536423	-0.378223	-0.062918	-0.472588	-0.366365	-0.29375	-0.365529	-0.278479	0.0697642	-0.0004475	-0.0178245	-0.187855	0.315181	0.00113525	0.322346	-0.406269	0.450059	-0.139599	0.170805	-0.165181	0.132603	-0.0088045	-0.0743805	
0.949414	4.40979	5	0	-0.310699	0.360307	-0.167363	-0.001384	-0.492586	0.359302	-0.060847	-0.03238	-0.678181	0.063797	-0.37238	-0.051359	-0.46404	-0.358177	-0.286414	-0.370323	-0.272454	0.063682	0.005241	-0.033901	-0.186921	0.312542	0.010289	0.316365	-0.406269	0.450059	-0.139335	0.16105	-0.159996	0.129216	-0.003007	-0.066576	
0.947309	4.41894	5	0	-0.316456	0.366091	-0.166471	-0.00390575	-0.497727	0.362661	-0.0731347	-0.0265078	-0.681162	0.0722208	-0.368748	-0.0475718	-0.467214	-0.349206	-0.288276	-0.365059	-0.265332	0.0654658	0.003346	-0.0285455	-0.18378	0.314547	0.00591225	0.328734	-0.399631	0.445722	-0.135189	0.15834	-0.154355	0.135822	0.0054695	-0.0663108	
0.946087	4.42657	5	0	-0.322212	0.371875	-0.165579	-0.0064275	-0.502868	0.36602	-0.0854225	-0.0206355	-0.684143	0.0806445	-0.365116	-0.0437845	-0.470388	-0.340236	-0.290139	-0.359795	-0.258209	0.0672495	0.001451	-0.02319	-0.180639	0.316553	0.0015355	0.341104	-0.392993	0.441385	-0.131043	0.155631	-0.148713	0.142427	0.013946	-0.0660455	
0.946029	4.43268	5	0	-0.327968	0.377659	-0.164686	-0.00894925	-0.508008	0.36938	-0.0977102	-0.0147632	-0.687123	0.0890683	-0.361484	-0.0399972	-0.473563	-0.331265	-0.292002	-0.354531	-0.251087	0.0690333	-0.000444	-0.0178345	-0.177498	0.318558	-0.00284125	0.353473	-0.386356	0.437048	-0.126896	0.152922	-0.143072	0.149033	0.0224225	-0.0657802	
0.947091	4.43725	5	0	-0.333725	0.383443	-0.163794	-0.011471	-0.513149	0.372739	-0.109998	-0.008891	-0.690104	0.097492	-0.357852	-0.03621	-0.476737	-0.322294	-0.293864	-0.349267	-0.243965	0.070817	-0.002339	-0.012479	-0.174357	0.320563	-0.007218	0.365842	-0.379718	0.432711	-0.12275	0.150212	-0.137431	0.155639	0.030899	-0.065515	
0.949103	4.4342	5	0	-0.337451	0.393974	-0.1686	-0.00639225	-0.51414	0.37554	-0.109998	-0.008891	-0.693088	0.105924	-0.352799	-0.0364297	-0.476006	-0.313565	-0.288385	-0.348797	-0.245942	0.0764038	0.00498475	-0.0172643	-0.176226	0.325844	0.00892825	0.360051	-0.386356	0.437048	-0.120988	0.145231	-0.137431	0.155639	0.0324672	-0.057825	
0.951895	4.43115	5	0	-0.341178	0.404505	-0.173405	-0.0013135	-0.515131	0.37834	-0.109998	-0.008891	-0.696071	0.114355	-0.347745	-0.0366495	-0.475276	-0.304836	-0.282907	-0.348328	-0.247918	0.0819905	0.0123085	-0.0220495	-0.178094	0.331125	0.0250745	0.354261	-0.392993	0.441385	-0.119225	0.140251	-0.137431	0.155639	0.0340355	-0.050135	
0.955298	4.43573	5	0	-0.344904	0.415037	-0.178211	0.00376525	-0.516123	0.381141	-0.109998	-0.008891	-0.699055	0.122787	-0.342691	-0.0368692	-0.474545	-0.296106	-0.277428	-0.347859	-0.249895	0.0875772	0.0196323	-0.0268348	-0.179962	0.336407	0.0412208	0.348471	-0.399631	0.445722	-0.117463	0.13527	-0.137431	0.155639	0.0356037	-0.042445	
0.959141	4.42657	5	0	-0.34863	0.425568	-0.183017	0.008844	-0.517114	0.383942	-0.109998	-0.008891	-0.702038	0.131219	-0.337638	-0.037089	-0.473814	-0.287377	-0.271949	-0.347389	-0.251872	0.093164	0.026956	-0.03162	-0.181831	0.341688	0.057367	0.34268	-0.406269	0.450059	-0.115701	0.130289	-0.137431	0.155639	0.037172	-0.034755	
0.963256	4.422	5	0	-0.357341	0.429235	-0.190288	0.00390725	-0.522252	0.387299	-0.114873	-0.0143255	-0.703177	0.144946	-0.341897	-0.0250505	-0.474147	-0.275633	-0.27568	-0.336845	-0.244742	0.0949532	0.0323898	-0.0310508	-0.179624	0.346341	0.0551748	0.348875	-0.403308	0.456112	-0.10854	0.137104	-0.131784	0.162257	0.041645	-0.0231285	
0.967472	4.42352	5	0	-0.366051	0.432902	-0.197559	-0.0010295	-0.527389	0.390656	-0.119748	-0.01976	-0.704316	0.158673	-0.346157	-0.013012	-0.474481	-0.26389	-0.279411	-0.326302	-0.237613	0.0967425	0.0378235	-0.0304815	-0.177418	0.350994	0.0529825	0.35507	-0.400346	0.462166	-0.101379	0.143919	-0.126137	0.168874	0.046118	-0.011502	
0.971639	4.422	5	0	-0.374762	0.436569	-0.204829	-0.00596625	-0.532527	0.394014	-0.124622	-0.0251945	-0.705455	0.1724	-0.350417	-0.0009735	-0.474815	-0.252146	-0.283141	-0.315758	-0.230484	0.0985318	0.0432572	-0.0299123	-0.175211	0.355647	0.0507903	0.361266	-0.397385	0.468219	-0.094218	0.150734	-0.12049	0.175492	0.050591	0.0001245	
0.975664	4.42047	5	0	-0.383473	0.440236	-0.2121	-0.010903	-0.537665	0.397371	-0.129497	-0.030629	-0.706594	0.186127	-0.354676	0.011065	-0.475148	-0.240403	-0.286872	-0.305214	-0.223354	0.100321	0.048691	-0.029343	-0.173005	0.3603	0.048598	0.367461	-0.394424	0.474272	-0.087057	0.157549	-0.114843	0.18211	0.055064	0.011751	
0.979465	4.41589	5	0	-0.38829	0.443384	-0.218129	-0.0108348	-0.537665	0.397371	-0.132924	-0.0305433	-0.698055	0.193555	-0.356097	0.0150815	-0.470511	-0.231888	-0.279523	-0.310016	-0.229394	0.106418	0.048691	-0.029343	-0.178952	0.366219	0.0507903	0.361266	-0.389008	0.473398	-0.0820205	0.152341	-0.119091	0.182823	0.0635653	0.0120243	
0.982958	4.40826	5	0	-0.393108	0.446531	-0.224159	-0.0107665	-0.537665	0.397371	-0.13635	-0.0304575	-0.689517	0.200983	-0.357518	0.019098	-0.465874	-0.223373	-0.272174	-0.314817	-0.235434	0.112515	0.048691	-0.029343	-0.184899	0.372138	0.0529825	0.35507	-0.383591	0.472523	-0.076984	0.147133	-0.123339	0.183535	0.0720665	0.0122975	
0.986062	4.39758	5	0	-0.397926	0.449679	-0.230188	-0.0106982	-0.537665	0.397371	-0.139777	-0.0303717	-0.680978	0.208411	-0.35894	0.0231145	-0.461237	-0.214858	-0.264826	-0.319619	-0.241474	0.118613	0.048691	-0.029343	-0.190847	0.378057	0.0551748	0.348875	-0.378175	0.471649	-0.0719475	0.141925	-0.127586	0.184248	0.0805677	0.0125707	
0.988692	4.39606	5	0	-0.402743	0.452827	-0.236217	-0.01063	-0.537665	0.397371	-0.143204	-0.030286	-0.672439	0.215839	-0.360361	0.027131	-0.4566	-0.206343	-0.257477	-0.324421	-0.247514	0.12471	0.048691	-0.029343	-0.196794	0.383976	0.057367	0.34268	-0.372759	0.470775	-0.066911	0.136717	-0.131834	0.184961	0.089069	0.012844	
0.990767	4.3869	5	0	-0.40849	0.458607	-0.235326	-0.0131468	-0.543791	0.403528	-0.142213	-0.033086	-0.662035	0.228598	-0.351669	0.0307233	-0.445184	-0.19529	-0.253857	-0.318671	-0.248504	0.127508	0.0467937	-0.023981	-0.196794	0.383976	0.0595575	0.336489	-0.379402	0.475116	-0.0645195	0.138989	-0.121437	0.178167	0.0935515	0.0245078	
0.992203	4.38537	5	0	-0.414236	0.464387	-0.234436	-0.0156635	-0.549917	0.409685	-0.141223	-0.035886	-0.651631	0.241358	-0.342977	0.0343155	-0.433769	-0.184236	-0.250237	-0.312921	-0.249494	0.130306	0.0448965	-0.018619	-0.196794	0.383976	0.061748	0.330298	-0.386045	0.479456	-0.062128	0.141261	-0.11104	0.171374	0.098034	0.0361715	
0.992961	4.37622	5	0	-0.419983	0.470167	-0.233546	-0.0181803	-0.556043	0.415841	-0.140232	-0.038686	-0.641226	0.254117	-0.334286	0.0379078	-0.422354	-0.173183	-0.246617	-0.30717	-0.250484	0.133105	0.0429993	-0.013257	-0.196794	0.383976	0.0639385	0.324107	-0.392687	0.483796	-0.0597365	0.143533	-0.100642	0.16458	0.102516	0.0478353	
0.993105	4.37317	5	0	-0.425729	0.475947	-0.232655	-0.020697	-0.562169	0.421998	-0.139241	-0.041486	-0.630822	0.266876	-0.325594	0.0415	-0.410938	-0.16213	-0.242997	-0.30142	-0.251474	0.135903	0.041102	-0.007895	-0.196794	0.383976	0.066129	0.317916	-0.39933	0.488137	-0.057345	0.145805	-0.090245	0.157786	0.106999	0.059499	
0.992712	4.36706	5	0	-0.424797	0.473313	-0.22875	-0.0232482	-0.557034	0.418643	-0.143656	-0.038601	-0.623106	0.266188	-0.319107	0.0372615	-0.409148	-0.156345	-0.235635	-0.30623	-0.254541	0.133605	0.0448955	-0.018616	-0.198997	0.379319	0.059145	0.317723	-0.398103	0.484671	-0.0538162	0.135832	-0.0916505	0.15046	0.111259	0.0596378	
0.991861	4.36554	5	0	-0.423865	0.470679	-0.224846	-0.0257995	-0.551899	0.415288	-0.148072	-0.035716	-0.61539	0.265501	-0.31262	0.033023	-0.407358	-0.15056	-0.228274	-0.31104	-0.257609	0.131307	0.048689	-0.029337	-0.2012	0.374661	0.052161	0.31753	-0.396877	0.481205	-0.0502875	0.125859	-0.093056	0.143134	0.115518	0.0597765	
0.99063	4.36096	5	0	-0.422933	0.468045	-0.220941	-0.0283508	-0.546765	0.411933	-0.152487	-0.032831	-0.607675	0.264813	-0.306133	0.0287845	-0.405567	-0.144774	-0.220912	-0.315851	-0.260676	0.12901	0.0524825	-0.040058	-0.203402	0.370004	0.045177	0.317338	-0.395651	0.477738	-0.0467588	0.115887	-0.0944615	0.135807	0.119778	0.0599153	
0.989098	4.35791	5	0	-0.422001	0.465411	-0.217036	-0.030902	-0.54163	0.408578	-0.156902	-0.029946	-0.599959	0.264125	-0.299646	0.024546	-0.403777	-0.138989	-0.213551	-0.320661	-0.263743	0.126712	0.056276	-0.050779	-0.205605	0.365347	0.038193	0.317145	-0.394424	0.474272	-0.04323	0.105914	-0.095867	0.128481	0.124038	0.060054	
0.987343	4.34723	5	0	-0.423865	0.47068	-0.219708	-0.0233497	-0.543614	0.414184	-0.159875	-0.0215432	-0.598103	0.269448	-0.302494	0.032595	-0.394853	-0.1425	-0.206183	-0.325475	-0.270767	0.135603	0.048946	-0.0459892	-0.210611	0.368618	0.0403805	0.310963	-0.401062	0.478609	-0.0408355	0.108182	-0.0968152	0.131161	0.13122	0.0641353	
0.985442	4.34112	5	0	-0.425729	0.475948	-0.222381	-0.0157975	-0.545597	0.41979	-0.162849	-0.0131405	-0.596248	0.274772	-0.305343	0.040644	-0.38593	-0.14601	-0.198815	-0.33029	-0.277791	0.144495	0.041616	-0.0411995	-0.215617	0.371888	0.042568	0.30478	-0.407699	0.482947	-0.038441	0.11045	-0.0977635	0.133841	0.138402	0.0682165	
0.983478	4.3396	5	0	-0.427594	0.481217	-0.225053	-0.00824525	-0.547581	0.425396	-0.165822	-0.00473775	-0.594392	0.280095	-0.308191	0.048693	-0.377007	-0.149521	-0.191448	-0.335104	-0.284815	0.153387	0.034286	-0.0364098	-0.220623	0.375159	0.0447555	0.298597	-0.414337	0.487284	-0.0360465	0.112717	-0.0987118	0.13652	0.145584	0.0722978	
0.981534	4.33502	5	0	-0.429458	0.486486	-0.227725	-0.000693	-0.549565	0.431002	-0.168795	0.003665	-0.592536	0.285418	-0.311039	0.056742	-0.368083	-0.153032	-0.18408	-0.339918	-0.291839	0.162278	0.026956	-0.03162	-0.225629	0.37843	0.046943	0.292415	-0.420975	0.491621	-0.033652	0.114985	-0.09966	0.1392	0.152766	0.076379	
0.979695	4.33502	5	0	-0.429458	0.486486	-0.223819	-0.0032455	-0.549565	0.431002	-0.16438	0.00077975	-0.598251	0.280439	-0.313255	0.0489098	-0.374872	-0.155553	-0.187713	-0.34566	-0.293911	0.15718	0.028851	-0.0369758	-0.226894	0.371136	0.0399655	0.292224	-0.411886	0.480355	-0.0342838	0.107735	-0.0958688	0.128486	0.159728	0.0689035	
0.978046	4.33044	5	0	-0.429458	0.486486	-0.219913	-0.005798	-0.549565	0.431002	-0.159964	-0.0021055	-0.603965	0.27546	-0.31547	0.0410775	-0.381661	-0.158075	-0.191345	-0.351402	-0.295983	0.152082	0.030746	-0.0423315	-0.22816	0.363843	0.032988	0.292034	-0.402797	0.46909	-0.0349155	0.100485	-0.0920775	0.117771	0.166691	0.061428	
0.976673	4.32587	5	0	-0.429458	0.486486	-0.216006	-0.0083505	-0.549565	0.431002	-0.155548	-0.00499075	-0.60968	0.270481	-0.317686	0.0332453	-0.388451	-0.160596	-0.194977	-0.357144	-0.298054	0.146983	0.032641	-0.0476873	-0.229426	0.35655	0.0260105	0.291843	-0.393707	0.457824	-0.0355473	0.093235	-0.0882862	0.107056	0.173654	0.0539525	
0.975659	4.32587	5	0	-0.429458	0.486486	-0.2121	-0.010903	-0.549565	0.431002	-0.151133	-0.007876	-0.615395	0.265502	-0.319902	0.025413	-0.39524	-0.163117	-0.19861	-0.362886	-0.300126	0.141885	0.034536	-0.053043	-0.230691	0.349256	0.019033	0.291653	-0.384618	0.446559	-0.036179	0.085985	-0.084495	0.096342	0.180616	0.046477	
0.975091	4.31976	5	0	-0.429458	0.486486	-0.213883	-0.00586475	-0.545419	0.430449	-0.151133	-0.007876	-0.620104	0.257703	-0.32354	0.0216103	-0.394902	-0.174918	-0.204105	-0.363349	-0.301115	0.144682	0.0272122	-0.0482575	-0.230691	0.349256	0.0212178	0.285479	-0.383393	0.443097	-0.0379418	0.0909672	-0.084495	0.096342	0.183541	0.0504187	
0.975051	4.31671	5	0	-0.429458	0.486486	-0.215666	-0.0008265	-0.541274	0.429897	-0.151133	-0.007876	-0.624812	0.249904	-0.327178	0.0178075	-0.394563	-0.18672	-0.209601	-0.363812	-0.302105	0.147478	0.0198885	-0.043472	-0.230691	0.349256	0.0234025	0.279305	-0.382168	0.439635	-0.0397045	0.0959495	-0.084495	0.096342	0.186467	0.0543605	
0.975584	4.31061	5	0	-0.429458	0.486486	-0.217448	0.00421175	-0.537129	0.429344	-0.151133	-0.007876	-0.629521	0.242105	-0.330815	0.0140047	-0.394224	-0.198521	-0.215097	-0.364276	-0.303095	0.150275	0.0125647	-0.0386865	-0.230691	0.349256	0.0255873	0.273131	-0.380943	0.436173	-0.0414672	0.100932	-0.084495	0.096342	0.189392	0.0583022	
0.976694	4.30908	5	0	-0.429458	0.486486	-0.219231	0.00925	-0.532983	0.428791	-0.151133	-0.007876	-0.634229	0.234306	-0.334453	0.010202	-0.393886	-0.210322	-0.220592	-0.364739	-0.304084	0.153071	0.005241	-0.033901	-0.230691	0.349256	0.027772	0.266957	-0.379718	0.432711	-0.04323	0.105914	-0.084495	0.096342	0.192318	0.062244	
0.978383	4.30755	5	0	-0.429458	0.486486	-0.219231	0.00925	-0.531991	0.425987	-0.151133	-0.007876	-0.640787	0.221226	-0.340303	-0.001401	-0.401396	-0.221594	-0.222356	-0.375735	-0.307144	0.150771	0.00171025	-0.0398213	-0.232891	0.34461	0.0229828	0.260603	-0.385131	0.433587	-0.0438615	0.0986682	-0.0807085	0.0856403	0.188046	0.0621083	
0.980653	4.30298	5	0	-0.429458	0.486486	-0.219231	0.00925	-0.530998	0.423183	-0.151133	-0.007876	-0.647344	0.208145	-0.346152	-0.013004	-0.408906	-0.232867	-0.22412	-0.38673	-0.310203	0.148471	-0.0018205	-0.0457415	-0.235091	0.339963	0.0181935	0.254249	-0.390544	0.434464	-0.044493	0.0914225	-0.076922	0.0749385	0.183773	0.0619725	
0.983505	4.30145	5	0	-0.429458	0.486486	-0.219231	0.00925	-0.530006	0.420378	-0.151133	-0.007876	-0.653902	0.195065	-0.352002	-0.024607	-0.416415	-0.244139	-0.225884	-0.397726	-0.313262	0.146171	-0.00535125	-0.0516617	-0.23729	0.335317	0.0134043	0.247895	-0.395957	0.43534	-0.0451245	0.0841767	-0.0731355	0.0642367	0.179501	0.0618367	
0.986943	4.30298	5	0	-0.429458	0.486486	-0.219231	0.00925	-0.529014	0.417574	-0.151133	-0.007876	-0.66046	0.181985	-0.357852	-0.03621	-0.423925	-0.255411	-0.227648	-0.408722	-0.316322	0.143871	-0.008882	-0.057582	-0.23949	0.33067	0.008615	0.241541	-0.40137	0.436216	-0.045756	0.076931	-0.069349	0.053535	0.175229	0.061701	
0.990969	4.2984	5	0	-0.433338	0.486995	-0.215323	0.0066965	-0.529014	0.417574	-0.151133	-0.007876	-0.671849	0.172106	-0.36653	-0.0397783	-0.430366	-0.269646	-0.231275	-0.414439	-0.321357	0.147161	-0.0069905	-0.0629283	-0.243554	0.331299	0.008615	0.241541	-0.405555	0.433632	-0.046637	0.0794202	-0.0674572	0.048189	0.175229	0.061701	
0.995577	4.29993	5	0	-0.437218	0.487505	-0.211415	0.004143	-0.529014	0.417574	-0.151133	-0.007876	-0.683239	0.162226	-0.375208	-0.0433465	-0.436808	-0.283881	-0.234902	-0.420156	-0.326392	0.150452	-0.005099	-0.0682745	-0.247619	0.331928	0.008615	0.241541	-0.40974	0.431049	-0.047518	0.0819095	-0.0655655	0.042843	0.175229	0.061701	
1.00064	4.29535	5	0	-0.441097	0.488014	-0.207507	0.0015895	-0.529014	0.417574	-0.151133	-0.007876	-0.694629	0.152347	-0.383885	-0.0469147	-0.443249	-0.298116	-0.238529	-0.425873	-0.331427	0.153742	-0.0032075	-0.0736207	-0.251683	0.332557	0.008615	0.241541	-0.413925	0.428465	-0.048399	0.0843988	-0.0636738	0.037497	0.175229	0.061701	
1.00591	4.29687	5	0	-0.444977	0.488523	-0.203599	-0.000964	-0.529014	0.417574	-0.151133	-0.007876	-0.706018	0.142468	-0.392563	-0.050483	-0.44969	-0.312351	-0.242156	-0.43159	-0.336462	0.157032	-0.001316	-0.078967	-0.255747	0.333186	0.008615	0.241541	-0.41811	0.425881	-0.04928	0.086888	-0.061782	0.032151	0.175229	0.061701	
1.01115	4.29077	5	0	-0.443113	0.483256	-0.200035	-0.011038	-0.532168	0.415325	-0.152575	-0.0133935	-0.71923	0.127355	-0.403434	-0.0618195	-0.458977	-0.329268	-0.25126	-0.437754	-0.338529	0.151939	-0.00484725	-0.084872	-0.257012	0.325912	0.00382975	0.235198	-0.414442	0.415515	-0.048153	0.0746768	-0.0650885	0.030204	0.174997	0.0501565	
1.01612	4.2923	5	0	-0.44125	0.477989	-0.19647	-0.021112	-0.535322	0.413076	-0.154018	-0.018911	-0.732442	0.112242	-0.414305	-0.073156	-0.468265	-0.346185	-0.260364	-0.443917	-0.340595	0.146845	-0.0083785	-0.090777	-0.258278	0.318637	-0.0009555	0.228855	-0.410774	0.405149	-0.047026	0.0624655	-0.068395	0.028257	0.174764	0.038612	
1.02056	4.28924	5	0	-0.439386	0.472722	-0.192906	-0.031186	-0.538476	0.410827	-0.15546	-0.0244285	-0.745654	0.097129	-0.425177	-0.0844925	-0.477552	-0.363102	-0.269468	-0.450081	-0.342662	0.141752	-0.0119098	-0.096682	-0.259544	0.311362	-0.00574075	0.222512	-0.407106	0.394782	-0.045899	0.0502543	-0.0717015	0.02631	0.174532	0.0270675	
1.02423	4.28314	5	0	-0.437522	0.467455	-0.189341	-0.04126	-0.54163	0.408578	-0.156902	-0.029946	-0.758866	0.082016	-0.436048	-0.095829	-0.48684	-0.380019	-0.278572	-0.456245	-0.344729	0.136658	-0.015441	-0.102587	-0.260809	0.304088	-0.010526	0.216169	-0.403438	0.384416	-0.044772	0.038043	-0.075008	0.024363	0.1743	0.015523	
1.02689	4.27704	5	0	-0.435659	0.462191	-0.192359	-0.041223	-0.539648	0.402975	-0.150506	-0.0384285	-0.768227	0.0666168	-0.441874	-0.107351	-0.49717	-0.393891	-0.280337	-0.467183	-0.345717	0.139451	-0.022746	-0.0978138	-0.260809	0.304088	-0.010526	0.216169	-0.402216	0.380963	-0.0438925	0.035558	-0.0721742	0.0163548	0.170032	0.0153907	
1.0283	4.28009	5	0	-0.433797	0.456927	-0.195376	-0.041186	-0.537665	0.397373	-0.14411	-0.046911	-0.777588	0.0512175	-0.4477	-0.118873	-0.507499	-0.407763	-0.282102	-0.478121	-0.346705	0.142244	-0.030051	-0.0930405	-0.260809	0.304088	-0.010526	0.216169	-0.400995	0.37751	-0.043013	0.033073	-0.0693405	0.0083465	0.165765	0.0152585	
1.02837	4.27399	5	0	-0.431934	0.451662	-0.198394	-0.041149	-0.535683	0.39177	-0.137714	-0.0553935	-0.786949	0.0358183	-0.453526	-0.130395	-0.517829	-0.421634	-0.283867	-0.489059	-0.347694	0.145037	-0.037356	-0.0882672	-0.260809	0.304088	-0.010526	0.216169	-0.399773	0.374058	-0.0421335	0.030588	-0.0665068	0.00033825	0.161497	0.0151263	
1.02727	4.27093	5	0	-0.430071	0.446398	-0.201411	-0.041112	-0.533701	0.386167	-0.131318	-0.063876	-0.79631	0.020419	-0.459352	-0.141917	-0.528159	-0.435506	-0.285632	-0.499997	-0.348682	0.14783	-0.044661	-0.083494	-0.260809	0.304088	-0.010526	0.216169	-0.398551	0.370605	-0.041254	0.028103	-0.063673	-0.00767	0.157229	0.014994	
1.02519	4.26788	5	0	-0.432088	0.44165	-0.202647	-0.0461055	-0.53073	0.37777	-0.137178	-0.0664967	-0.803688	-0.0004905	-0.470192	-0.153183	-0.536373	-0.455259	-0.294718	-0.50613	-0.345718	0.139454	-0.0408857	-0.0941638	-0.262076	0.296824	-0.0153078	0.209836	-0.396109	0.363704	-0.0418915	0.0208822	-0.055645	-0.019067	0.161259	0.00360525	
1.02234	4.26788	5	0	-0.434106	0.436902	-0.203883	-0.051099	-0.527759	0.369372	-0.143038	-0.0691175	-0.811066	-0.0214	-0.481032	-0.164449	-0.544586	-0.475012	-0.303804	-0.512263	-0.342754	0.131077	-0.0371105	-0.104833	-0.263343	0.28956	-0.0200895	0.203504	-0.393667	0.356802	-0.042529	0.0136615	-0.047617	-0.030464	0.165289	-0.0077835	
1.01889	4.26636	5	0	-0.436123	0.432154	-0.20512	-0.0560925	-0.524787	0.360975	-0.148898	-0.0717383	-0.818445	-0.0423095	-0.491873	-0.175716	-0.552799	-0.494766	-0.31289	-0.518395	-0.33979	0.122701	-0.0333352	-0.115503	-0.26461	0.282297	-0.0248712	0.197171	-0.391225	0.349901	-0.0431665	0.00644075	-0.039589	-0.041861	0.169318	-0.0191722	
1.01506	4.2633	5	0	-0.438141	0.427406	-0.206356	-0.061086	-0.521816	0.352578	-0.154758	-0.074359	-0.825823	-0.063219	-0.502713	-0.186982	-0.561013	-0.514519	-0.321976	-0.524528	-0.336826	0.114325	-0.02956	-0.126173	-0.265877	0.275033	-0.029653	0.190838	-0.388783	0.342999	-0.043804	-0.00078	-0.031561	-0.053258	0.173348	-0.030561	
1.01102	4.26483	5	0	-0.437211	0.424778	-0.206356	-0.061086	-0.520826	0.34978	-0.152781	-0.0799475	-0.83713	-0.072931	-0.509928	-0.194473	-0.572361	-0.525316	-0.332894	-0.525429	-0.337814	0.117116	-0.0368588	-0.121404	-0.262747	0.277033	-0.029653	0.190838	-0.387562	0.33955	-0.04053	-0.00101075	-0.031561	-0.053258	0.177617	-0.0304335	
1.00697	4.25873	5	0	-0.43628	0.422149	-0.206356	-0.061086	-0.519836	0.346983	-0.150804	-0.085536	-0.848438	-0.082643	-0.517143	-0.201964	-0.583708	-0.536113	-0.343812	-0.52633	-0.338801	0.119908	-0.0441575	-0.116635	-0.259618	0.279033	-0.029653	0.190838	-0.386342	0.336101	-0.037256	-0.0012415	-0.031561	-0.053258	0.181887	-0.030306	
1.0031	4.2572	5	0	-0.43535	0.41952	-0.206356	-0.061086	-0.518846	0.344186	-0.148826	-0.0911245	-0.859745	-0.092355	-0.524359	-0.209456	-0.595055	-0.54691	-0.354731	-0.52723	-0.339789	0.122699	-0.0514563	-0.111866	-0.256488	0.281032	-0.029653	0.190838	-0.385122	0.332652	-0.033982	-0.00147225	-0.031561	-0.053258	0.186156	-0.0301785	
0.999518	4.2572	5	0	-0.43442	0.416892	-0.206356	-0.061086	-0.517856	0.341388	-0.146849	-0.096713	-0.871053	-0.102067	-0.531574	-0.216947	-0.606403	-0.557707	-0.365649	-0.528131	-0.340777	0.12549	-0.058755	-0.107097	-0.253358	0.283032	-0.029653	0.190838	-0.383901	0.329203	-0.030708	-0.001703	-0.031561	-0.053258	0.190425	-0.030051	
0.996363	4.25873	5	0	-0.427751	0.408495	-0.200671	-0.0686655	-0.511729	0.335234	-0.149284	-0.099416	-0.874618	-0.123181	-0.53738	-0.22838	-0.611767	-0.574632	-0.367409	-0.539016	-0.338802	0.119908	-0.056869	-0.112427	-0.256488	0.281032	-0.027479	0.184694	-0.382681	0.325756	-0.027196	-0.0116287	-0.029675	-0.0585883	0.188839	-0.0377627	
0.99376	4.25415	5	0	-0.421083	0.400097	-0.194986	-0.076245	-0.505602	0.329081	-0.151718	-0.102119	-0.878184	-0.144295	-0.543185	-0.239814	-0.617131	-0.591558	-0.369169	-0.549901	-0.336827	0.114326	-0.054983	-0.117757	-0.259618	0.279033	-0.025305	0.17855	-0.381462	0.322308	-0.023684	-0.0215545	-0.027789	-0.0639185	0.187254	-0.0454745	
0.991836	4.25262	5	0	-0.414415	0.3917	-0.189301	-0.0838245	-0.499474	0.322928	-0.154152	-0.104822	-0.881749	-0.165409	-0.548991	-0.251247	-0.622496	-0.608483	-0.370928	-0.560785	-0.334852	0.108745	-0.053097	-0.123087	-0.262747	0.277033	-0.023131	0.172406	-0.380242	0.318861	-0.020172	-0.0314803	-0.025903	-0.0692487	0.185668	-0.0531863	
0.990719	4.24957	5	0	-0.407746	0.383303	-0.183616	-0.091404	-0.493347	0.316774	-0.156587	-0.107525	-0.885314	-0.186523	-0.554797	-0.26268	-0.62786	-0.625409	-0.372688	-0.57167	-0.332877	0.103163	-0.051211	-0.128417	-0.265877	0.275033	-0.020957	0.166262	-0.379022	0.315414	-0.01666	-0.041406	-0.024017	-0.074579	0.184082	-0.060898	
0.990535	4.24805	5	0	-0.406817	0.380677	-0.188412	-0.0863385	-0.492358	0.313978	-0.160996	-0.104644	-0.892798	-0.19651	-0.563394	-0.266182	-0.636349	-0.633449	-0.376294	-0.577326	-0.327845	0.0998748	-0.0493263	-0.133744	-0.255892	0.268509	-0.023131	0.172406	-0.377803	0.311968	-0.01666	-0.041406	-0.0282715	-0.073847	0.189694	-0.0645653	
0.99141	4.24499	5	0	-0.405888	0.378051	-0.193207	-0.081273	-0.491368	0.311183	-0.165404	-0.101764	-0.900282	-0.206497	-0.571991	-0.269684	-0.644837	-0.641489	-0.379899	-0.582981	-0.322813	0.0965865	-0.0474415	-0.139071	-0.245906	0.261984	-0.025305	0.17855	-0.376584	0.308522	-0.01666	-0.041406	-0.032526	-0.073115	0.195306	-0.0682325	
0.993338	4.24194	5	0	-0.404958	0.375424	-0.198002	-0.0762075	-0.490379	0.308387	-0.169812	-0.0988828	-0.907766	-0.216484	-0.580589	-0.273187	-0.653326	-0.649528	-0.383505	-0.588637	-0.31778	0.0932982	-0.0455568	-0.144398	-0.235921	0.25546	-0.027479	0.184694	-0.375364	0.305075	-0.01666	-0.041406	-0.0367805	-0.072383	0.200919	-0.0718997	
0.996108	4.24194	5	0	-0.404029	0.372798	-0.202798	-0.071142	-0.48939	0.305591	-0.174221	-0.096002	-0.91525	-0.226471	-0.589186	-0.276689	-0.661815	-0.657568	-0.38711	-0.594292	-0.312748	0.09001	-0.043672	-0.149725	-0.225936	0.248935	-0.029653	0.190838	-0.374145	0.301629	-0.01666	-0.041406	-0.041035	-0.071651	0.206531	-0.075567	
0.999488	4.24347	5	0	-0.402171	0.367548	-0.20102	-0.0761675	-0.482272	0.296643	-0.171259	-0.104373	-0.916983	-0.242301	-0.594978	-0.288077	-0.673113	-0.66826	-0.397994	-0.595183	-0.313834	0.0821455	-0.043672	-0.149725	-0.229069	0.24694	-0.0253062	0.178554	-0.371708	0.294741	-0.020578	-0.0483725	-0.033012	-0.0830335	0.20494	-0.0832642	
1.00325	4.24042	5	0	-0.400313	0.362298	-0.199242	-0.081193	-0.475154	0.287695	-0.168297	-0.112744	-0.918717	-0.258132	-0.60077	-0.299465	-0.684411	-0.678951	-0.408877	-0.596073	-0.31492	0.074281	-0.043672	-0.149725	-0.232203	0.244945	-0.0209595	0.16627	-0.36927	0.287852	-0.024496	-0.055339	-0.024989	-0.094416	0.203349	-0.0909615	
1.00717	4.24042	5	0	-0.398456	0.357047	-0.197463	-0.0862185	-0.468035	0.278748	-0.165335	-0.121116	-0.920451	-0.273962	-0.606563	-0.310854	-0.695709	-0.689643	-0.419761	-0.596963	-0.316006	0.0664165	-0.043672	-0.149725	-0.235337	0.242951	-0.0166127	0.153986	-0.366833	0.280964	-0.028414	-0.0623055	-0.016966	-0.105798	0.201758	-0.0986588	
1.011	4.23889	5	0	-0.396598	0.351797	-0.195685	-0.091244	-0.460917	0.2698	-0.162373	-0.129487	-0.922184	-0.289792	-0.612355	-0.322242	-0.707007	-0.700334	-0.430644	-0.597854	-0.317092	0.058552	-0.043672	-0.149725	-0.23847	0.240956	-0.012266	0.141702	-0.364395	0.274076	-0.032332	-0.069272	-0.008943	-0.117181	0.200167	-0.106356	
1.01453	4.23889	5	0	-0.389929	0.343406	-0.197812	-0.0937155	-0.459929	0.267007	-0.164806	-0.132184	-0.928687	-0.302464	-0.620929	-0.325727	-0.708502	-0.717383	-0.441507	-0.598749	-0.311074	0.0524778	-0.0490808	-0.150284	-0.232546	0.235065	-0.012266	0.141702	-0.356545	0.2663	-0.0281815	-0.0719837	-0.00374275	-0.120579	0.202845	-0.113924	
1.01752	4.23584	5	0	-0.383261	0.335014	-0.199939	-0.096187	-0.45894	0.264214	-0.167239	-0.134881	-0.935191	-0.315136	-0.629503	-0.329213	-0.709997	-0.734433	-0.452371	-0.599643	-0.305055	0.0464035	-0.0544895	-0.150842	-0.226623	0.229174	-0.012266	0.141702	-0.348695	0.258524	-0.024031	-0.0746955	0.0014575	-0.123977	0.205523	-0.121493	
1.0198	4.23279	5	0	-0.376592	0.326623	-0.202067	-0.0986585	-0.457952	0.261421	-0.169673	-0.137579	-0.941694	-0.327807	-0.638077	-0.332698	-0.711492	-0.751483	-0.463234	-0.600537	-0.299037	0.0403292	-0.0598983	-0.1514	-0.220699	0.223283	-0.012266	0.141702	-0.340844	0.250749	-0.0198805	-0.0774072	0.00665775	-0.127375	0.208201	-0.129061	
1.02132	4.23431	5	0	-0.369924	0.318232	-0.204194	-0.10113	-0.456964	0.258628	-0.172106	-0.140276	-0.948198	-0.340479	-0.646651	-0.336183	-0.712987	-0.768532	-0.474097	-0.601432	-0.293019	0.034255	-0.065307	-0.151959	-0.214775	0.217392	-0.012266	0.141702	-0.332994	0.242973	-0.01573	-0.080119	0.011858	-0.130773	0.210879	-0.136629	
1.02205	4.23279	5	0	-0.367141	0.310367	-0.204545	-0.108617	-0.453014	0.247465	-0.173552	-0.145756	-0.947035	-0.364437	-0.65104	-0.351455	-0.722196	-0.784981	-0.474014	-0.617444	-0.293127	0.0236263	-0.0596625	-0.167911	-0.211058	0.206889	-0.01705	0.135397	-0.329343	0.232654	-0.014627	-0.0922542	0.0113623	-0.140671	0.205015	-0.14442	
1.02194	4.22821	5	0	-0.364358	0.302502	-0.204896	-0.116104	-0.449064	0.236301	-0.174999	-0.151236	-0.945872	-0.388396	-0.655429	-0.366727	-0.731406	-0.80143	-0.473932	-0.633455	-0.293235	0.0129975	-0.054018	-0.183864	-0.207342	0.196385	-0.021834	0.129091	-0.325692	0.222336	-0.013524	-0.104389	0.0108665	-0.150568	0.199151	-0.15221	
1.02098	4.22821	5	0	-0.361575	0.294637	-0.205248	-0.123591	-0.445114	0.225138	-0.176446	-0.156717	-0.944709	-0.412355	-0.659818	-0.381998	-0.740615	-0.81788	-0.473849	-0.649467	-0.293343	0.00236875	-0.0483735	-0.199816	-0.203625	0.185882	-0.026618	0.122786	-0.32204	0.212017	-0.012421	-0.116525	0.0103707	-0.160465	0.193287	-0.16	
1.01913	4.22821	5	0	-0.358792	0.286772	-0.205599	-0.131078	-0.441164	0.213975	-0.177892	-0.162197	-0.943546	-0.436313	-0.664207	-0.39727	-0.749824	-0.834329	-0.473766	-0.665479	-0.293451	-0.00826	-0.042729	-0.215768	-0.199908	0.175378	-0.031402	0.116481	-0.318389	0.201699	-0.011318	-0.12866	0.009875	-0.170363	0.187423	-0.167791	
1.01636	4.22668	5	0	-0.356938	0.281533	-0.204712	-0.133586	-0.435033	0.207825	-0.175922	-0.167765	-0.949089	-0.451614	-0.67276	-0.400733	-0.756209	-0.848077	-0.482774	-0.671537	-0.293451	-0.00826	-0.0389715	-0.226387	-0.19584	0.174737	-0.031402	0.116481	-0.317173	0.198262	-0.0080425	-0.128899	0.014135	-0.171103	0.197034	-0.182775	
1.01263	4.22058	5	0	-0.355084	0.276294	-0.203825	-0.136094	-0.428902	0.201676	-0.173952	-0.173333	-0.954632	-0.466915	-0.681312	-0.404197	-0.762594	-0.861825	-0.491781	-0.677596	-0.293451	-0.00826	-0.035214	-0.237006	-0.191771	0.174097	-0.031402	0.116481	-0.315957	0.194825	-0.004767	-0.129138	0.018395	-0.171844	0.206644	-0.197758	
1.00799	4.22211	5	0	-0.35323	0.271054	-0.202937	-0.138601	-0.422772	0.195526	-0.171982	-0.1789	-0.960174	-0.482216	-0.689865	-0.40766	-0.768979	-0.875574	-0.500789	-0.683654	-0.293451	-0.00826	-0.0314565	-0.247625	-0.187703	0.173457	-0.031402	0.116481	-0.314741	0.191389	-0.0014915	-0.129378	0.022655	-0.172585	0.216255	-0.212742	
1.00271	4.22211	5	0	-0.351376	0.265815	-0.20205	-0.141109	-0.416641	0.189376	-0.170012	-0.184468	-0.965717	-0.497517	-0.698418	-0.411123	-0.775364	-0.889322	-0.509797	-0.689712	-0.293451	-0.00826	-0.027699	-0.258244	-0.183635	0.172816	-0.031402	0.116481	-0.313525	0.187952	0.001784	-0.129617	0.026915	-0.173325	0.225865	-0.227725	
0.997116	4.21753	5	0	-0.348597	0.257962	-0.19939	-0.148627	-0.414668	0.183802	-0.171461	-0.189937	-0.965556	-0.518586	-0.711915	-0.414355	-0.784556	-0.905651	-0.51879	-0.695759	-0.284485	-0.0226662	-0.0403888	-0.25403	-0.179922	0.162322	-0.0270673	0.104231	-0.305672	0.180179	-0.00301625	-0.134082	0.029735	-0.181295	0.219993	-0.235476	
0.991516	4.21753	5	0	-0.345819	0.250108	-0.19673	-0.156145	-0.412696	0.178227	-0.17291	-0.195406	-0.965396	-0.539656	-0.725411	-0.417586	-0.793748	-0.921979	-0.527783	-0.701806	-0.275518	-0.0370725	-0.0530785	-0.249817	-0.176208	0.151828	-0.0227325	0.09198	-0.297818	0.172407	-0.0078165	-0.138546	0.032555	-0.189265	0.21412	-0.243227	
0.986233	4.21448	5	0	-0.34304	0.242255	-0.194069	-0.163664	-0.410723	0.172652	-0.174359	-0.200874	-0.965235	-0.560725	-0.738907	-0.420818	-0.80294	-0.938308	-0.536776	-0.707853	-0.266552	-0.0514788	-0.0657683	-0.245603	-0.172495	0.141333	-0.0183977	0.0797295	-0.289965	0.164634	-0.0126167	-0.14301	0.035375	-0.197235	0.208248	-0.250977	
0.981585	4.2099	5	0	-0.340261	0.234401	-0.191409	-0.171182	-0.408751	0.167078	-0.175808	-0.206343	-0.965074	-0.581795	-0.752404	-0.424049	-0.812132	-0.954637	-0.545769	-0.7139	-0.257586	-0.065885	-0.078458	-0.24139	-0.168782	0.130839	-0.014063	0.067479	-0.282112	0.156861	-0.017417	-0.147475	0.038195	-0.205205	0.202375	-0.258728	
0.977891	4.21142	5	0	-0.330629	0.228107	-0.193182	-0.16617	-0.403604	0.163715	-0.175808	-0.206343	-0.967815	-0.594641	-0.748251	-0.435787	-0.814675	-0.968566	-0.549347	-0.719499	-0.252551	-0.0691752	-0.076582	-0.246692	-0.163782	0.127572	-0.014063	0.067479	-0.280897	0.153427	-0.0099925	-0.150427	0.0424585	-0.205949	0.203707	-0.262492	
0.975467	4.20837	5	0	-0.320997	0.221813	-0.194956	-0.161159	-0.398457	0.160352	-0.175808	-0.206343	-0.970556	-0.607487	-0.744097	-0.447525	-0.817218	-0.982496	-0.552925	-0.725099	-0.247515	-0.0724655	-0.074706	-0.251993	-0.158782	0.124305	-0.014063	0.067479	-0.279682	0.149993	-0.002568	-0.153379	0.046722	-0.206694	0.205039	-0.266257	
0.97446	4.20685	5	0	-0.311365	0.21552	-0.196729	-0.156147	-0.39331	0.156988	-0.175808	-0.206343	-0.973296	-0.620333	-0.739944	-0.459263	-0.819762	-0.996425	-0.556502	-0.730699	-0.24248	-0.0757558	-0.07283	-0.257295	-0.153782	0.121038	-0.014063	0.067479	-0.278467	0.146559	0.0048565	-0.15633	0.0509855	-0.207438	0.206371	-0.270021	
0.974717	4.20837	5	0	-0.301733	0.209226	-0.198502	-0.151136	-0.388163	0.153625	-0.175808	-0.206343	-0.976037	-0.633179	-0.735791	-0.471001	-0.822305	-1.01035	-0.56008	-0.736298	-0.237445	-0.079046	-0.070954	-0.262597	-0.148782	0.117771	-0.014063	0.067479	-0.277252	0.143125	0.012281	-0.159282	0.055249	-0.208182	0.207703	-0.273785	
0.976052	4.2099	5	0	-0.300807	0.20661	-0.20329	-0.14608	-0.375888	0.141321	-0.174824	-0.209123	-0.976929	-0.640946	-0.745697	-0.470538	-0.826898	-1.01847	-0.556431	-0.746611	-0.236462	-0.0818233	-0.0690793	-0.267896	-0.142851	0.11188	-0.0210128	0.067316	-0.274823	0.136261	0.00747775	-0.163739	0.047664	-0.20935	0.211695	-0.285068	
0.978279	4.20837	5	0	-0.299882	0.203993	-0.208078	-0.141024	-0.363613	0.129018	-0.173841	-0.211903	-0.97782	-0.648713	-0.755602	-0.470075	-0.83149	-1.02658	-0.552782	-0.756923	-0.23548	-0.0846005	-0.0672045	-0.273194	-0.136921	0.10599	-0.0279625	0.067153	-0.272394	0.129396	0.0026745	-0.168195	0.040079	-0.210517	0.215688	-0.296351	
0.981212	4.20532	5	0	-0.298956	0.201377	-0.212866	-0.135969	-0.351339	0.116714	-0.172857	-0.214683	-0.978712	-0.656481	-0.765508	-0.469611	-0.836083	-1.0347	-0.549134	-0.767235	-0.234497	-0.0873778	-0.0653297	-0.278493	-0.130991	0.100099	-0.0349123	0.06699	-0.269965	0.122532	-0.00212875	-0.172651	0.032494	-0.211684	0.21968	-0.307634	
0.984665	4.20532	5	0	-0.29803	0.198761	-0.217654	-0.130913	-0.339064	0.10441	-0.171873	-0.217463	-0.979604	-0.664248	-0.775414	-0.469148	-0.840676	-1.04281	-0.545485	-0.777548	-0.233514	-0.090155	-0.063455	-0.283791	-0.12506	0.094208	-0.041862	0.066827	-0.267536	0.115667	-0.006932	-0.177108	0.024909	-0.212852	0.223672	-0.318917	
0.988454	4.2038	5	0	-0.292285	0.192996	-0.213753	-0.133462	-0.334893	0.103826	-0.176272	-0.214588	-0.976725	-0.672385	-0.785304	-0.46869	-0.848329	-1.04225	-0.55271	-0.772827	-0.228476	-0.093447	-0.0561747	-0.288548	-0.120054	0.0909372	-0.041862	0.066827	-0.267536	0.115667	-0.006932	-0.177108	0.0334337	-0.21434	0.223672	-0.318917	
0.992392	4.2038	5	0	-0.286539	0.187231	-0.209852	-0.136011	-0.330722	0.103242	-0.180672	-0.211713	-0.973846	-0.680522	-0.795193	-0.468232	-0.855982	-1.04169	-0.559935	-0.768106	-0.223438	-0.096739	-0.0488945	-0.293305	-0.115048	0.0876665	-0.041862	0.066827	-0.267536	0.115667	-0.006932	-0.177108	0.0419585	-0.215829	0.223672	-0.318917	
0.996336	4.20227	5	0	-0.280794	0.181466	-0.205951	-0.13856	-0.326551	0.102658	-0.185071	-0.208839	-0.970966	-0.68866	-0.805083	-0.467774	-0.863636	-1.04113	-0.56716	-0.763385	-0.218399	-0.100031	-0.0416143	-0.298062	-0.110043	0.0843958	-0.041862	0.066827	-0.267536	0.115667	-0.006932	-0.177108	0.0504833	-0.217317	0.223672	-0.318917	
1.0002	4.2038	5	0	-0.275048	0.175701	-0.20205	-0.141109	-0.32238	0.102074	-0.189471	-0.205964	-0.968087	-0.696797	-0.814973	-0.467316	-0.871289	-1.04057	-0.574385	-0.758664	-0.213361	-0.103323	-0.034334	-0.302819	-0.105037	0.081125	-0.041862	0.066827	-0.267536	0.115667	-0.006932	-0.177108	0.059008	-0.218805	0.223672	-0.318917	
1.00391	4.19922	5	0	-0.273198	0.170472	-0.19726	-0.146166	-0.321395	0.0992887	-0.188488	-0.208743	-0.96521	-0.704927	-0.813592	-0.471218	-0.87205	-1.04895	-0.572562	-0.763816	-0.20832	-0.106617	-0.0324603	-0.308114	-0.105037	0.081125	-0.0327473	0.0608713	-0.266322	0.112237	-0.008459	-0.181801	0.0599475	-0.22146	0.222062	-0.326528	
1.00738	4.19922	5	0	-0.271348	0.165243	-0.19247	-0.151223	-0.320409	0.0965035	-0.187505	-0.211522	-0.962334	-0.713056	-0.812211	-0.475121	-0.87281	-1.05733	-0.570739	-0.768968	-0.203279	-0.109911	-0.0305865	-0.31341	-0.105037	0.081125	-0.0236325	0.0549155	-0.265108	0.108807	-0.009986	-0.186493	0.060887	-0.224115	0.220452	-0.33414	
1.01054	4.19464	5	0	-0.269498	0.160015	-0.187681	-0.156279	-0.319423	0.0937183	-0.186521	-0.214301	-0.959458	-0.721186	-0.810831	-0.479023	-0.873571	-1.0657	-0.568916	-0.774119	-0.198238	-0.113205	-0.0287127	-0.318705	-0.105037	0.081125	-0.0145177	0.0489597	-0.263895	0.105376	-0.011513	-0.191186	0.0618265	-0.226771	0.218842	-0.341751	
1.0133	4.19769	5	0	-0.267648	0.154786	-0.182891	-0.161336	-0.318438	0.090933	-0.185538	-0.21708	-0.956581	-0.729316	-0.80945	-0.482925	-0.874332	-1.07408	-0.567093	-0.779271	-0.193197	-0.116499	-0.026839	-0.324	-0.105037	0.081125	-0.005403	0.043004	-0.262681	0.101946	-0.01304	-0.195879	0.062766	-0.229426	0.217232	-0.349363	
1.01559	4.19464	5	0	-0.258925	0.151096	-0.185553	-0.153813	-0.310087	0.0897595	-0.183106	-0.214396	-0.952805	-0.729701	-0.80945	-0.482925	-0.876373	-1.06831	-0.57074	-0.768965	-0.190119	-0.11424	-0.0305875	-0.313406	-0.096872	0.0798215	0.0015565	0.0431607	-0.251818	0.100124	-0.0106395	-0.193654	0.0660933	-0.227517	0.214574	-0.341852	
1.01732	4.19159	5	0	-0.250201	0.147406	-0.188215	-0.146291	-0.301736	0.088586	-0.180673	-0.211711	-0.949028	-0.730085	-0.80945	-0.482925	-0.878414	-1.06254	-0.574386	-0.758658	-0.18704	-0.11198	-0.034336	-0.302813	-0.088707	0.078518	0.008516	0.0433175	-0.240955	0.098301	-0.008239	-0.19143	0.0694205	-0.225608	0.211917	-0.334341	
1.01847	4.19006	5	0	-0.241478	0.143715	-0.190876	-0.138769	-0.293386	0.0874125	-0.17824	-0.209027	-0.945251	-0.73047	-0.80945	-0.482925	-0.880456	-1.05677	-0.578033	-0.748351	-0.183962	-0.10972	-0.0380845	-0.292219	-0.080542	0.0772145	0.0154755	0.0434743	-0.230093	0.0964785	-0.0058385	-0.189205	0.0727477	-0.223699	0.209259	-0.32683	
1.01909	4.19006	5	0	-0.232755	0.140025	-0.193538	-0.131246	-0.285035	0.086239	-0.175808	-0.206343	-0.941475	-0.730855	-0.80945	-0.482925	-0.882497	-1.051	-0.58168	-0.738045	-0.180884	-0.107461	-0.041833	-0.281625	-0.072377	0.075911	0.022435	0.043631	-0.21923	0.094656	-0.003438	-0.18698	0.076075	-0.22179	0.206601	-0.319319	
1.01927	4.19006	5	0	-0.227927	0.13687	-0.189633	-0.133797	-0.285035	0.086239	-0.175808	-0.206343	-0.941475	-0.730855	-0.810831	-0.479023	-0.878673	-1.05128	-0.583505	-0.732887	-0.17682	-0.10798	-0.0345468	-0.286386	-0.0673625	0.0726343	0.0154755	0.0434743	-0.212577	0.0903088	-0.0058385	-0.189205	0.0770148	-0.224446	0.213528	-0.326733	
1.01906	4.18548	5	0	-0.223098	0.133715	-0.185729	-0.136348	-0.285035	0.086239	-0.175808	-0.206343	-0.941475	-0.730855	-0.812211	-0.475121	-0.87485	-1.05156	-0.58533	-0.727729	-0.172756	-0.108498	-0.0272605	-0.291148	-0.062348	0.0693575	0.008516	0.0433175	-0.205924	0.0859615	-0.008239	-0.19143	0.0779545	-0.227102	0.220454	-0.334147	
1.01854	4.18396	5	0	-0.21827	0.130561	-0.181825	-0.1389	-0.285035	0.086239	-0.175808	-0.206343	-0.941475	-0.730855	-0.813592	-0.471218	-0.871026	-1.05184	-0.587155	-0.722572	-0.168693	-0.109017	-0.0199742	-0.295909	-0.0573335	0.0660807	0.0015565	0.0431607	-0.199271	0.0816142	-0.0106395	-0.193654	0.0788942	-0.229757	0.22738	-0.34156	
1.0178	4.18243	5	0	-0.213442	0.127406	-0.17792	-0.141451	-0.285035	0.086239	-0.175808	-0.206343	-0.941475	-0.730855	-0.814973	-0.467316	-0.867203	-1.05212	-0.58898	-0.717414	-0.164629	-0.109536	-0.012688	-0.30067	-0.052319	0.062804	-0.005403	0.043004	-0.192618	0.077267	-0.01304	-0.195879	0.079834	-0.232413	0.234307	-0.348974	
1.0169	4.18091	5	0	-0.210462	0.129479	-0.181472	-0.131411	-0.282829	0.091227	-0.177776	-0.200781	-0.935835	-0.726203	-0.817736	-0.459506	-0.866444	-1.04373	-0.587236	-0.706644	-0.158462	-0.105012	-0.0110265	-0.289521	-0.0469245	0.0693685	-0.00061	0.0492838	-0.189605	0.0832188	-0.011513	-0.191186	0.0822235	-0.227847	0.235919	-0.34136	
1.01591	4.18091	5	0	-0.207481	0.131553	-0.185025	-0.121371	-0.280622	0.096215	-0.179745	-0.195218	-0.930195	-0.721552	-0.8205	-0.451696	-0.865684	-1.03535	-0.585493	-0.695874	-0.152296	-0.100489	-0.009365	-0.278371	-0.04153	0.075933	0.004183	0.0555635	-0.186592	0.0891705	-0.009986	-0.186493	0.084613	-0.223281	0.237532	-0.333747	
1.01491	4.18243	5	0	-0.204501	0.133626	-0.188578	-0.111331	-0.278416	0.101203	-0.181713	-0.189656	-0.924554	-0.7169	-0.823263	-0.443886	-0.864925	-1.02696	-0.58375	-0.685104	-0.146129	-0.0959655	-0.0077035	-0.267222	-0.0361355	0.0824975	0.008976	0.0618433	-0.18358	0.0951222	-0.008459	-0.181801	0.0870025	-0.218715	0.239144	-0.326133	
1.01395	4.17938	5	0	-0.201521	0.1357	-0.19213	-0.101291	-0.27621	0.106191	-0.183681	-0.184093	-0.918914	-0.712248	-0.826027	-0.436076	-0.864166	-1.01858	-0.582006	-0.674334	-0.139962	-0.091442	-0.006042	-0.256073	-0.030741	0.089062	0.013769	0.068123	-0.180567	0.101074	-0.006932	-0.177108	0.089392	-0.214149	0.240756	-0.318519	
1.01308	4.17633	5	0	-0.198539	0.137775	-0.198702	-0.0912022	-0.272028	0.105603	-0.18565	-0.178527	-0.911347	-0.71302	-0.826027	-0.436076	-0.862386	-1.01307	-0.585665	-0.663991	-0.140947	-0.0886587	-0.00250275	-0.250217	-0.0316707	0.091689	0.020735	0.068282	-0.180567	0.101074	-0.0051855	-0.182043	0.089392	-0.214149	0.242086	-0.322278	
1.01236	4.17786	5	0	-0.195557	0.139849	-0.205273	-0.0811135	-0.267846	0.105015	-0.18762	-0.172961	-0.903779	-0.713793	-0.826027	-0.436076	-0.860605	-1.00757	-0.589325	-0.653649	-0.141932	-0.0858755	0.0010365	-0.24436	-0.0326005	0.094316	0.027701	0.068441	-0.180567	0.101074	-0.003439	-0.186979	0.089392	-0.214149	0.243416	-0.326037	
1.01184	4.17938	5	0	-0.192575	0.141924	-0.211844	-0.0710247	-0.263664	0.104427	-0.18959	-0.167396	-0.896211	-0.714565	-0.826027	-0.436076	-0.858824	-1.00206	-0.592985	-0.643307	-0.142917	-0.0830923	0.00457575	-0.238504	-0.0335302	0.096943	0.034667	0.0686	-0.180567	0.101074	-0.0016925	-0.191914	0.089392	-0.214149	0.244747	-0.329797	
1.01157	4.17633	5	0	-0.189593	0.143999	-0.218416	-0.060936	-0.259482	0.103839	-0.191559	-0.16183	-0.888644	-0.715337	-0.826027	-0.436076	-0.857044	-0.996554	-0.596644	-0.632964	-0.143902	-0.080309	0.008115	-0.232648	-0.03446	0.09957	0.041633	0.068759	-0.180567	0.101074	5.4E-05	-0.19685	0.089392	-0.214149	0.246077	-0.333556	
1.0116	4.17328	5	0	-0.185683	0.143457	-0.221085	-0.0533922	-0.255298	0.10325	-0.194516	-0.153475	-0.882028	-0.713396	-0.830176	-0.424349	-0.852458	-0.988421	-0.59491	-0.622153	-0.136743	-0.0785628	0.0062335	-0.227331	-0.0272005	0.100889	0.0303293	0.080859	-0.168451	0.0957995	0.00573275	-0.194868	0.0979393	-0.215646	0.24902	-0.329698	
1.012	4.17023	5	0	-0.181773	0.142914	-0.223754	-0.0458485	-0.251113	0.102661	-0.197472	-0.145119	-0.875412	-0.711456	-0.834326	-0.412621	-0.847872	-0.980289	-0.593176	-0.611342	-0.129585	-0.0768165	0.004352	-0.222014	-0.019941	0.102208	0.0190255	0.092959	-0.156336	0.090525	0.0114115	-0.192887	0.106486	-0.217143	0.251964	-0.32584	
1.01276	4.17175	5	0	-0.177863	0.142372	-0.226424	-0.0383047	-0.246928	0.102072	-0.200429	-0.136763	-0.868796	-0.709515	-0.838475	-0.400894	-0.843286	-0.972156	-0.591442	-0.600531	-0.122426	-0.0750703	0.0024705	-0.216696	-0.0126815	0.103527	0.00772175	0.105059	-0.14422	0.0852505	0.0170903	-0.190905	0.115034	-0.21864	0.254908	-0.321982	
1.01372	4.17175	5	0	-0.173953	0.14183	-0.229093	-0.030761	-0.242744	0.101483	-0.203385	-0.128408	-0.86218	-0.707575	-0.842625	-0.389166	-0.8387	-0.964023	-0.589708	-0.58972	-0.115268	-0.073324	0.000589	-0.211379	-0.005422	0.104846	-0.003582	0.117159	-0.132104	0.079976	0.022769	-0.188923	0.123581	-0.220137	0.257851	-0.318124	
1.01469	4.16717	5	0	-0.169114	0.138668	-0.229093	-0.030761	-0.241757	0.0986925	-0.202399	-0.131194	-0.857427	-0.710681	-0.842625	-0.389166	-0.840751	-0.958226	-0.589708	-0.58972	-0.119341	-0.0728045	0.007894	-0.216152	-0.0044915	0.102217	0.00555225	0.11119	-0.130888	0.0765393	0.017963	-0.193371	0.119306	-0.219388	0.254908	-0.321982	
1.01545	4.17328	5	0	-0.164275	0.135506	-0.229093	-0.030761	-0.240769	0.095902	-0.201413	-0.13398	-0.852673	-0.713786	-0.842625	-0.389166	-0.842803	-0.952428	-0.589708	-0.58972	-0.123414	-0.072285	0.015199	-0.220925	-0.003561	0.0995875	0.0146865	0.105222	-0.129671	0.0731025	0.013157	-0.19782	0.115031	-0.218639	0.251964	-0.32584	
1.0158	4.16717	5	0	-0.159436	0.132344	-0.229093	-0.030761	-0.239782	0.0931115	-0.200427	-0.136766	-0.84792	-0.716892	-0.842625	-0.389166	-0.844854	-0.946631	-0.589708	-0.58972	-0.127487	-0.0717655	0.022504	-0.225699	-0.0026305	0.0969582	0.0238208	0.0992535	-0.128455	0.0696657	0.008351	-0.202268	0.110756	-0.217889	0.24902	-0.329698	
1.01552	4.16565	5	0	-0.154597	0.129182	-0.229093	-0.030761	-0.238795	0.090321	-0.199441	-0.139552	-0.843167	-0.719998	-0.842625	-0.389166	-0.846905	-0.940834	-0.589708	-0.58972	-0.13156	-0.071246	0.029809	-0.230472	-0.0017	0.094329	0.032955	0.093285	-0.127239	0.066229	0.003545	-0.206716	0.106481	-0.21714	0.246077	-0.333556	
1.01442	4.16412	5	0	-0.155524	0.1318	-0.226969	-0.0282797	-0.234607	0.08973	-0.200427	-0.136766	-0.834614	-0.723498	-0.837685	-0.389386	-0.844099	-0.938207	-0.589708	-0.58972	-0.126501	-0.0745515	0.0352377	-0.229929	-0.0026305	0.0969582	0.042099	0.08731	-0.128455	0.0696657	0.00267225	-0.20425	0.109815	-0.215229	0.239145	-0.326137	
1.01229	4.16412	5	0	-0.15645	0.134419	-0.224845	-0.0257985	-0.230419	0.089139	-0.201413	-0.13398	-0.826062	-0.726997	-0.832745	-0.389605	-0.841294	-0.935581	-0.589708	-0.58972	-0.121442	-0.077857	0.0406665	-0.229386	-0.003561	0.0995875	0.051243	0.081335	-0.129671	0.0731025	0.0017995	-0.201783	0.113149	-0.213318	0.232214	-0.318717	
1.00898	4.16717	5	0	-0.157377	0.137038	-0.222722	-0.0233173	-0.226232	0.088548	-0.202399	-0.131194	-0.817509	-0.730497	-0.827806	-0.389825	-0.838488	-0.932955	-0.589708	-0.58972	-0.116383	-0.0811625	0.0460953	-0.228842	-0.0044915	0.102217	0.060387	0.07536	-0.130888	0.0765393	0.00092675	-0.199317	0.116483	-0.211408	0.225282	-0.311298	
1.00471	4.16412	5	0	-0.158303	0.139656	-0.220598	-0.020836	-0.222044	0.087957	-0.203385	-0.128408	-0.808956	-0.733997	-0.822866	-0.390045	-0.835682	-0.930328	-0.589708	-0.58972	-0.111324	-0.084468	0.051524	-0.228299	-0.005422	0.104846	0.069531	0.069385	-0.132104	0.079976	5.4E-05	-0.19685	0.119817	-0.209497	0.218351	-0.303879	
0.99982	4.16565	5	0	-0.152534	0.133874	-0.219708	-0.0233525	-0.22007	0.0823772	-0.203385	-0.128408	-0.807994	-0.736714	-0.821482	-0.393957	-0.835682	-0.930328	-0.596939	-0.584995	-0.109354	-0.0900375	0.0479767	-0.234159	-0.00263175	0.0969602	0.0625565	0.0692285	-0.130888	0.0765393	0.00026925	-0.206467	0.117424	-0.214066	0.218071	-0.31525	
0.994643	4.16412	5	0	-0.146766	0.128091	-0.218817	-0.025869	-0.218095	0.0767975	-0.203385	-0.128408	-0.807033	-0.739432	-0.820097	-0.39787	-0.835682	-0.930328	-0.60417	-0.580271	-0.107383	-0.095607	0.0444295	-0.24002	0.0001585	0.0890745	0.055582	0.069072	-0.129671	0.0731025	0.0004845	-0.216085	0.11503	-0.218635	0.217791	-0.326621	
0.989519	4.16107	5	0	-0.140997	0.122309	-0.217926	-0.0283855	-0.21612	0.0712177	-0.203385	-0.128408	-0.806072	-0.742149	-0.818713	-0.401782	-0.835682	-0.930328	-0.611401	-0.575546	-0.105413	-0.101177	0.0408823	-0.245881	0.00294875	0.0811887	0.0486075	0.0689155	-0.128455	0.0696657	0.00069975	-0.225702	0.112637	-0.223205	0.217512	-0.337992	
0.984784	4.15802	5	0	-0.135229	0.116527	-0.217036	-0.030902	-0.214146	0.065638	-0.203385	-0.128408	-0.80511	-0.744866	-0.817329	-0.405695	-0.835682	-0.930328	-0.618632	-0.570821	-0.103442	-0.106746	0.037335	-0.251741	0.005739	0.073303	0.041633	0.068759	-0.127239	0.066229	0.000915	-0.235319	0.110243	-0.227774	0.217232	-0.349363	
0.980775	4.15954	5	0	-0.139145	0.117073	-0.223953	-0.0283167	-0.214146	0.065638	-0.211196	-0.125446	-0.799388	-0.750694	-0.822269	-0.405474	-0.834655	-0.933229	-0.616799	-0.576002	-0.104427	-0.103962	0.037335	-0.251741	0.0089085	0.0752732	0.041633	0.068759	-0.120565	0.0618682	0.002445	-0.230634	0.109302	-0.225115	0.215333	-0.368294	
0.977831	4.15954	5	0	-0.14306	0.117619	-0.230871	-0.0257315	-0.214146	0.065638	-0.219006	-0.122484	-0.793665	-0.756521	-0.827209	-0.405253	-0.833629	-0.93613	-0.614966	-0.581184	-0.105412	-0.101178	0.037335	-0.251741	0.012078	0.0772435	0.041633	0.068759	-0.113891	0.0575075	0.003975	-0.225949	0.108362	-0.222457	0.213433	-0.387225	
0.976168	4.15497	5	0	-0.146975	0.118165	-0.237788	-0.0231463	-0.214146	0.065638	-0.226817	-0.119522	-0.787942	-0.762348	-0.83215	-0.405031	-0.832603	-0.939031	-0.613132	-0.586366	-0.106397	-0.0983933	0.037335	-0.251741	0.0152475	0.0792137	0.041633	0.068759	-0.107218	0.0531467	0.005505	-0.221265	0.107422	-0.219799	0.211533	-0.406156	
0.975622	4.15649	5	0	-0.150891	0.118711	-0.244705	-0.020561	-0.214146	0.065638	-0.234628	-0.11656	-0.78222	-0.768176	-0.83709	-0.40481	-0.831576	-0.941932	-0.611299	-0.591547	-0.107382	-0.095609	0.037335	-0.251741	0.018417	0.081184	0.041633	0.068759	-0.100544	0.048786	0.007035	-0.21658	0.106481	-0.21714	0.209634	-0.425087	
0.975949	4.15649	5	0	-0.145123	0.11293	-0.246826	-0.0230417	-0.21316	0.0628492	-0.232658	-0.12213	-0.785019	-0.780948	-0.846365	-0.41976	-0.83309	-0.958759	-0.620249	-0.597636	-0.101335	-0.101701	0.0392155	-0.257055	0.0243792	0.0752673	0.043801	0.0626315	-0.0993285	0.0453505	0.00790725	-0.219046	0.107422	-0.219799	0.194954	-0.44421	
0.976907	4.15802	5	0	-0.139355	0.10715	-0.248948	-0.0255225	-0.212173	0.0600605	-0.230687	-0.127699	-0.787819	-0.793721	-0.855639	-0.434709	-0.834604	-0.975585	-0.629198	-0.603725	-0.095288	-0.107792	0.041096	-0.26237	0.0303415	0.0693505	0.045969	0.056504	-0.098113	0.041915	0.0087795	-0.221511	0.108362	-0.222457	0.180274	-0.463333	
0.978253	4.15649	5	0	-0.133588	0.101369	-0.251069	-0.0280033	-0.211186	0.0572717	-0.228716	-0.133268	-0.790619	-0.806493	-0.864914	-0.449659	-0.836118	-0.992412	-0.638148	-0.609814	-0.089241	-0.113884	0.0429765	-0.267684	0.0363037	0.0634337	0.048137	0.0503765	-0.0968975	0.0384795	0.00965175	-0.223976	0.109302	-0.225115	0.165594	-0.482456	
0.979743	4.15649	5	0	-0.12782	0.095588	-0.25319	-0.030484	-0.2102	0.054483	-0.226746	-0.138838	-0.793418	-0.819265	-0.874189	-0.464609	-0.837632	-1.00924	-0.647098	-0.615903	-0.083194	-0.119976	0.044857	-0.272998	0.042266	0.057517	0.050305	0.044249	-0.095682	0.035044	0.010524	-0.226442	0.110243	-0.227774	0.150914	-0.501579	
0.981135	4.15649	5	0	-0.122975	0.0924225	-0.257979	-0.0254215	-0.205022	0.0510995	-0.230156	-0.138749	-0.789619	-0.819664	-0.874189	-0.464609	-0.841462	-1.00896	-0.63805	-0.62579	-0.077144	-0.126069	0.044857	-0.272998	0.042266	0.057517	0.050305	0.044249	-0.0932523	0.0281768	0.0155445	-0.231617	0.117339	-0.236496	0.137881	-0.513092	
0.982186	4.15649	5	0	-0.118131	0.089257	-0.262768	-0.020359	-0.199844	0.047716	-0.233566	-0.138661	-0.78582	-0.820063	-0.874189	-0.464609	-0.845291	-1.00868	-0.629002	-0.635676	-0.071094	-0.132162	0.044857	-0.272998	0.042266	0.057517	0.050305	0.044249	-0.0908225	0.0213095	0.020565	-0.236792	0.124436	-0.245219	0.124848	-0.524606	
0.982763	4.16412	5	0	-0.113286	0.0860915	-0.267556	-0.0152965	-0.194665	0.0443325	-0.236976	-0.138572	-0.78202	-0.820461	-0.874189	-0.464609	-0.84912	-1.0084	-0.619954	-0.645563	-0.065044	-0.138255	0.044857	-0.272998	0.042266	0.057517	0.050305	0.044249	-0.0883927	0.0144422	0.0255855	-0.241967	0.131532	-0.253941	0.111815	-0.536119	
0.982961	4.15649	5	0	-0.108442	0.082926	-0.272345	-0.010234	-0.189487	0.040949	-0.240386	-0.138484	-0.778221	-0.82086	-0.874189	-0.464609	-0.85295	-1.00812	-0.610906	-0.65545	-0.058994	-0.144348	0.044857	-0.272998	0.042266	0.057517	0.050305	0.044249	-0.085963	0.007575	0.030606	-0.247142	0.138629	-0.262663	0.098782	-0.547632	
0.982907	4.15802	5	0	-0.106591	0.0776942	-0.266667	-0.0178105	-0.186529	0.0325882	-0.235991	-0.141356	-0.769656	-0.824372	-0.880494	-0.460489	-0.855754	-1.01074	-0.609078	-0.660616	-0.0611063	-0.149384	0.0467363	-0.278309	0.05009	0.0463457	0.0524717	0.038126	-0.0811087	-0.00614325	0.0275388	-0.256496	0.136232	-0.26722	0.0884008	-0.566515	
0.982726	4.1626	5	0	-0.104739	0.0724625	-0.260988	-0.025387	-0.18357	0.0242275	-0.231596	-0.144228	-0.76109	-0.827884	-0.8868	-0.456369	-0.858558	-1.01335	-0.607249	-0.665783	-0.0632185	-0.154419	0.0486155	-0.28362	0.057914	0.0351745	0.0546385	0.032003	-0.0762545	-0.0198615	0.0244715	-0.26585	0.133834	-0.271778	0.0780195	-0.585398	
0.982544	4.16412	5	0	-0.102888	0.0672308	-0.255309	-0.0329635	-0.180612	0.0158667	-0.227201	-0.147099	-0.752525	-0.831396	-0.893105	-0.452248	-0.861362	-1.01596	-0.605421	-0.67095	-0.0653308	-0.159454	0.0504947	-0.288932	0.065738	0.0240032	0.0568053	0.02588	-0.0714002	-0.0335797	0.0214042	-0.275203	0.131436	-0.276335	0.0676382	-0.604282	
0.982487	4.17023	5	0	-0.101037	0.061999	-0.249631	-0.04054	-0.177654	0.007506	-0.222806	-0.149971	-0.743959	-0.834908	-0.899411	-0.448128	-0.864166	-1.01858	-0.603593	-0.676116	-0.067443	-0.16449	0.052374	-0.294243	0.073562	0.012832	0.058972	0.019757	-0.066546	-0.047298	0.018337	-0.284557	0.129039	-0.280892	0.057257	-0.623165	
0.982681	4.18091	5	0	-0.101037	0.061999	-0.2523	-0.0329962	-0.172473	0.0041205	-0.224776	-0.144403	-0.740152	-0.83531	-0.899411	-0.448128	-0.865189	-1.01569	-0.61264	-0.666233	-0.053223	-0.171644	0.052374	-0.294243	0.0726327	0.0154582	0.0568053	0.02588	-0.0653337	-0.0507242	0.0174665	-0.282096	0.12716	-0.275582	0.0556455	-0.630646	
0.98325	4.19311	5	0	-0.101037	0.061999	-0.25497	-0.0254525	-0.167291	0.000735	-0.226746	-0.138836	-0.736346	-0.835712	-0.899411	-0.448128	-0.866211	-1.0128	-0.621687	-0.656349	-0.039003	-0.178797	0.052374	-0.294243	0.0717035	0.0180845	0.0546385	0.032003	-0.0641215	-0.0541505	0.016596	-0.279636	0.125281	-0.270273	0.054034	-0.638127	
0.984227	4.20685	5	0	-0.101037	0.061999	-0.25764	-0.0179088	-0.16211	-0.0026505	-0.228716	-0.133268	-0.732539	-0.836115	-0.899411	-0.448128	-0.867234	-1.0099	-0.630734	-0.646466	-0.024783	-0.185951	0.052374	-0.294243	0.0707743	0.0207107	0.0524717	0.038126	-0.0629092	-0.0575768	0.0157255	-0.277176	0.123403	-0.264964	0.0524225	-0.645609	
0.985509	4.22516	5	0	-0.101037	0.061999	-0.260309	-0.010365	-0.156928	-0.006036	-0.230686	-0.1277	-0.728732	-0.836517	-0.899411	-0.448128	-0.868257	-1.00701	-0.639781	-0.636582	-0.010563	-0.193105	0.052374	-0.294243	0.069845	0.023337	0.050305	0.044249	-0.061697	-0.061003	0.014855	-0.274715	0.121524	-0.259654	0.050811	-0.65309	
0.986982	4.25262	5	0	-0.0971153	0.061447	-0.255177	-0.007914	-0.157914	-0.00325	-0.229246	-0.122215	-0.714509	-0.814455	-0.896465	-0.429043	-0.860113	-0.987843	-0.630828	-0.630502	-0.0115475	-0.190323	0.057806	-0.293709	0.0799243	0.016751	0.050305	0.044249	-0.060485	-0.0644278	0.0198718	-0.279885	0.122464	-0.262309	0.0436655	-0.656945	
0.988533	4.27246	5	0	-0.0931935	0.060895	-0.250045	-0.005463	-0.1589	-0.000464	-0.227806	-0.116731	-0.700286	-0.792393	-0.89352	-0.409957	-0.85197	-0.968671	-0.621875	-0.624422	-0.012532	-0.187541	0.063238	-0.293175	0.0900035	0.010165	0.050305	0.044249	-0.059273	-0.0678525	0.0248885	-0.285054	0.123403	-0.264964	0.03652	-0.660799	
0.990048	4.29535	5	0	-0.0892717	0.060343	-0.244912	-0.003012	-0.159886	0.002322	-0.226367	-0.111246	-0.686062	-0.770332	-0.890574	-0.390872	-0.843826	-0.9495	-0.612922	-0.618342	-0.0135165	-0.18476	0.06867	-0.292642	0.100083	0.003579	0.050305	0.044249	-0.058061	-0.0712773	0.0299053	-0.290224	0.124342	-0.26762	0.0293745	-0.664654	
0.991414	4.31671	5	0	-0.08535	0.059791	-0.23978	-0.000561	-0.160872	0.005108	-0.224927	-0.105761	-0.671839	-0.74827	-0.887628	-0.371787	-0.835682	-0.930328	-0.603969	-0.612262	-0.014501	-0.181978	0.074102	-0.292108	0.110162	-0.003007	0.050305	0.044249	-0.056849	-0.074702	0.034922	-0.295394	0.125282	-0.270275	0.022229	-0.668509	
0.992517	4.33349	5	0	-0.0842045	0.0670915	-0.246022	0.017081	-0.153459	0.006694	-0.222049	-0.0947725	-0.655649	-0.731558	-0.876981	-0.360684	-0.823693	-0.911343	-0.598673	-0.595792	-0.010262	-0.171903	0.0738913	-0.275613	0.109625	0.00947075	0.062094	0.0506875	-0.058061	-0.0712773	0.0347148	-0.285795	0.131017	-0.26381	0.0238385	-0.661037	
0.993247	4.3457	5	0	-0.083059	0.074392	-0.252265	0.034723	-0.146046	0.00828	-0.21917	-0.083784	-0.639459	-0.714846	-0.866335	-0.34958	-0.811704	-0.892357	-0.593378	-0.579323	-0.006023	-0.161827	0.0736805	-0.259118	0.109088	0.0219485	0.073883	0.057126	-0.059273	-0.0678525	0.0345075	-0.276196	0.136751	-0.257344	0.025448	-0.653565	
0.993608	4.35943	5	0	-0.0819135	0.0816925	-0.258507	0.052365	-0.138634	0.009866	-0.216292	-0.0727955	-0.62327	-0.698133	-0.855688	-0.338477	-0.799714	-0.873371	-0.588083	-0.562854	-0.001784	-0.151751	0.0734698	-0.242624	0.10855	0.0344262	0.085672	0.0635645	-0.060485	-0.0644278	0.0343002	-0.266597	0.142486	-0.250879	0.0270575	-0.646093	
0.993751	4.37164	5	0	-0.080768	0.088993	-0.264749	0.070007	-0.131221	0.011452	-0.213414	-0.061807	-0.60708	-0.681421	-0.845042	-0.327374	-0.787725	-0.854386	-0.582787	-0.546384	0.002455	-0.141676	0.073259	-0.226129	0.108013	0.046904	0.097461	0.070003	-0.061697	-0.061003	0.034093	-0.256998	0.148221	-0.244414	0.028667	-0.638621	
0.993837	4.37775	5	0	-0.0826218	0.0942325	-0.260511	0.075	-0.134183	0.0198233	-0.208559	-0.0563865	-0.600423	-0.668922	-0.837933	-0.319953	-0.77468	-0.838233	-0.568396	-0.539802	0.00457475	-0.136629	0.0822548	-0.219714	0.115316	0.0482038	0.0952885	0.076143	-0.055018	-0.065367	0.0364995	-0.254781	0.140178	-0.233024	0.0299753	-0.642318	
0.994028	4.38843	5	0	-0.0844755	0.099472	-0.256273	0.079993	-0.137145	0.0281945	-0.203703	-0.050966	-0.593766	-0.656424	-0.830824	-0.312531	-0.761636	-0.822079	-0.554005	-0.533219	0.0066945	-0.131583	0.0912505	-0.213299	0.122619	0.0495035	0.093116	0.082283	-0.048339	-0.069731	0.038906	-0.252564	0.132136	-0.221635	0.0312835	-0.646015	
0.994482	4.393	5	0	-0.0863292	0.104711	-0.252034	0.084986	-0.140107	0.0365658	-0.198848	-0.0455455	-0.587109	-0.643925	-0.823715	-0.30511	-0.748591	-0.805926	-0.539614	-0.526637	0.00881425	-0.126536	0.100246	-0.206884	0.129921	0.0508032	0.0909435	0.088423	-0.04166	-0.074095	0.0413125	-0.250348	0.124093	-0.210245	0.0325918	-0.649712	
0.995362	4.39606	5	0	-0.088183	0.109951	-0.247796	0.089979	-0.143069	0.044937	-0.193993	-0.040125	-0.580452	-0.631426	-0.816606	-0.297689	-0.735547	-0.789773	-0.525223	-0.520055	0.010934	-0.12149	0.109242	-0.200469	0.137224	0.052103	0.088771	0.094563	-0.034981	-0.078459	0.043719	-0.248131	0.116051	-0.198855	0.0339	-0.653409	
0.996827	4.39453	5	0	-0.0870415	0.117268	-0.24624	0.102567	-0.141832	0.0527188	-0.199935	-0.023333	-0.575687	-0.623988	-0.814439	-0.290041	-0.729158	-0.775945	-0.525336	-0.503958	0.0131957	-0.105787	0.114468	-0.183346	0.130694	0.0705573	0.0962225	0.113345	-0.0343632	-0.0656822	0.0489813	-0.22689	0.128461	-0.188527	0.0286638	-0.638611	
0.999034	4.39606	5	0	-0.0859	0.124585	-0.244683	0.115156	-0.140595	0.0605005	-0.205876	-0.006541	-0.570922	-0.61655	-0.812273	-0.282393	-0.722769	-0.762116	-0.525448	-0.487862	0.0154575	-0.0900845	0.119695	-0.166223	0.124164	0.0890115	0.103674	0.132127	-0.0337455	-0.0529055	0.0542435	-0.205649	0.140871	-0.178198	0.0234275	-0.623813	
1.00197	4.39453	5	0	-0.0847585	0.131902	-0.243127	0.127744	-0.139358	0.0682823	-0.211817	0.010251	-0.566158	-0.609112	-0.810107	-0.274745	-0.716381	-0.748288	-0.525561	-0.471766	0.0177192	-0.0743817	0.124921	-0.1491	0.117634	0.107466	0.111126	0.150908	-0.0331277	-0.0401288	0.0595058	-0.184407	0.153281	-0.16787	0.0181912	-0.609015	
1.0054	4.40369	5	0	-0.083617	0.139219	-0.241571	0.140332	-0.138121	0.076064	-0.217759	0.027043	-0.561393	-0.601674	-0.80794	-0.267097	-0.709992	-0.73446	-0.525674	-0.455669	0.019981	-0.058679	0.130147	-0.131977	0.111104	0.12592	0.118577	0.16969	-0.03251	-0.027352	0.064768	-0.163166	0.165691	-0.157542	0.012955	-0.594217	
1.0091	4.39758	5	0	-0.0873323	0.14972	-0.24214	0.150438	-0.135896	0.0810597	-0.217318	0.0353747	-0.567177	-0.595782	-0.814278	-0.262956	-0.705384	-0.726195	-0.523948	-0.444755	0.0211087	-0.0508095	0.129914	-0.11535	0.111485	0.135823	0.123396	0.176025	-0.0373715	-0.0136125	0.0752883	-0.156714	0.176672	-0.154453	0.0145583	-0.58672	
1.01282	4.39606	5	0	-0.0910475	0.16022	-0.242708	0.160545	-0.13367	0.0860555	-0.216877	0.0437065	-0.572961	-0.589891	-0.820616	-0.258814	-0.700777	-0.71793	-0.522223	-0.433841	0.0222365	-0.04294	0.12968	-0.0987225	0.111866	0.145727	0.128214	0.182359	-0.042233	0.000127	0.0858085	-0.150262	0.187653	-0.151364	0.0161615	-0.579222	
1.01634	4.38843	5	0	-0.0947627	0.17072	-0.243277	0.170651	-0.131444	0.0910513	-0.216436	0.0520382	-0.578745	-0.583999	-0.826955	-0.254672	-0.696169	-0.709665	-0.520497	-0.422927	0.0233642	-0.0350705	0.129446	-0.0820953	0.112246	0.155631	0.133032	0.188694	-0.0470945	0.0138665	0.0963288	-0.14381	0.198634	-0.148275	0.0177647	-0.571725	
1.01941	4.38385	5	0	-0.098478	0.181221	-0.243846	0.180757	-0.129219	0.096047	-0.215995	0.06037	-0.584529	-0.578107	-0.833293	-0.250531	-0.691562	-0.7014	-0.518771	-0.412013	0.024492	-0.027201	0.129213	-0.065468	0.112627	0.165534	0.137851	0.195028	-0.051956	0.027606	0.106849	-0.137358	0.209615	-0.145186	0.019368	-0.564228	
1.02179	4.37927	5	0	-0.098273	0.191191	-0.245317	0.193418	-0.136394	0.105038	-0.213131	0.071449	-0.586474	-0.57261	-0.841018	-0.242459	-0.690817	-0.692853	-0.517049	-0.401075	0.023633	-0.01371	0.130869	-0.0541685	0.115252	0.180093	0.138297	0.213743	-0.0477002	0.0301125	0.106629	-0.12768	0.202042	-0.123783	0.018342	-0.549292	
1.02326	4.37775	5	0	-0.098068	0.201161	-0.246789	0.206079	-0.143568	0.114029	-0.210267	0.082528	-0.588419	-0.567113	-0.848743	-0.234387	-0.690072	-0.684306	-0.515327	-0.390138	0.022774	-0.000219	0.132525	-0.042869	0.117876	0.194653	0.138742	0.232457	-0.0434445	0.032619	0.106409	-0.118002	0.194468	-0.102379	0.017316	-0.534357	
1.0237	4.37164	5	0	-0.097863	0.211132	-0.24826	0.21874	-0.150743	0.123021	-0.207404	0.093607	-0.590365	-0.561615	-0.856469	-0.226315	-0.689327	-0.675758	-0.513605	-0.3792	0.021915	0.013272	0.134182	-0.0315695	0.1205	0.209212	0.139188	0.251171	-0.0391888	0.0351255	0.10619	-0.108324	0.186895	-0.0809755	0.01629	-0.519421	
1.02328	4.36706	5	0	-0.097658	0.221102	-0.249731	0.231401	-0.157917	0.132012	-0.20454	0.104686	-0.59231	-0.556118	-0.864194	-0.218243	-0.688582	-0.667211	-0.511883	-0.368262	0.021056	0.026763	0.135838	-0.02027	0.123125	0.223771	0.139634	0.269886	-0.034933	0.037632	0.10597	-0.098646	0.179322	-0.059572	0.015264	-0.504486	
1.02221	4.36706	5	0	-0.098589	0.223733	-0.251528	0.23648	-0.162117	0.132604	-0.204104	0.113048	-0.597119	-0.552976	-0.862802	-0.222176	-0.689623	-0.664271	-0.511883	-0.368262	0.01907	0.0323763	0.13749	-0.0089455	0.12125	0.229071	0.144454	0.276259	-0.0404052	0.0385635	0.103557	-0.100885	0.178374	-0.056893	0.0208072	-0.508108	
1.02067	4.36096	5	0	-0.09952	0.226363	-0.253325	0.241558	-0.166318	0.133197	-0.203669	0.121411	-0.601928	-0.549833	-0.861411	-0.22611	-0.690663	-0.661331	-0.511883	-0.368262	0.017084	0.0379895	0.139143	0.002379	0.119374	0.234372	0.149274	0.282632	-0.0458775	0.039495	0.101145	-0.103124	0.177426	-0.054214	0.0263505	-0.51173	
1.01887	4.36096	5	0	-0.100451	0.228994	-0.255122	0.246637	-0.170518	0.13379	-0.203234	0.129774	-0.606738	-0.54669	-0.860019	-0.230043	-0.691704	-0.65839	-0.511883	-0.368262	0.015098	0.0436028	0.140795	0.0137035	0.117499	0.239672	0.154094	0.289005	-0.0513497	0.0404265	0.0987325	-0.105363	0.176478	-0.051535	0.0318937	-0.515352	
1.017	4.35638	5	0	-0.101382	0.231625	-0.256919	0.251715	-0.174718	0.134382	-0.202798	0.138136	-0.611547	-0.543548	-0.858627	-0.233977	-0.692744	-0.65545	-0.511883	-0.368262	0.013112	0.049216	0.142448	0.025028	0.115624	0.244972	0.158914	0.295378	-0.056822	0.041358	0.09632	-0.107602	0.17553	-0.048856	0.037437	-0.518974	
1.01526	4.36249	5	0	-0.104176	0.239522	-0.26353	0.261896	-0.179905	0.137772	-0.202365	0.146511	-0.616353	-0.540407	-0.860019	-0.230043	-0.694825	-0.649567	-0.513736	-0.363026	0.009136	0.060453	0.146004	0.0309865	0.115053	0.257583	0.161541	0.30797	-0.058039	0.0447975	0.0903977	-0.0999167	0.175078	-0.0361897	0.0361222	-0.515259	
1.01384	4.36554	5	0	-0.10697	0.24742	-0.270141	0.272076	-0.185093	0.141161	-0.201933	0.154887	-0.62116	-0.537267	-0.861411	-0.22611	-0.696907	-0.643684	-0.515589	-0.357789	0.00516	0.07169	0.14956	0.036945	0.114483	0.270195	0.164168	0.320562	-0.059256	0.048237	0.0844755	-0.0922315	0.174625	-0.0235235	0.0348075	-0.511543	
1.01284	4.36859	5	0	-0.109765	0.255317	-0.276752	0.282257	-0.190281	0.144551	-0.2015	0.163262	-0.625966	-0.534126	-0.862802	-0.222176	-0.698989	-0.637801	-0.517441	-0.352553	0.001184	0.082927	0.153116	0.0429035	0.113912	0.282806	0.166796	0.333155	-0.060473	0.0516765	0.0785533	-0.0845463	0.174173	-0.0108572	0.0334928	-0.507827	
1.01201	4.37927	5	0	-0.112559	0.263215	-0.283363	0.292437	-0.195468	0.147941	-0.201067	0.171637	-0.630773	-0.530985	-0.864194	-0.218243	-0.70107	-0.631918	-0.519294	-0.347317	-0.002792	0.094164	0.156672	0.048862	0.113341	0.295417	0.169423	0.345747	-0.06169	0.055116	0.072631	-0.076861	0.173721	0.001809	0.032178	-0.504112	
1.01108	4.38385	5	0	-0.117415	0.266387	-0.279449	0.28988	-0.195468	0.147941	-0.203061	0.177273	-0.63746	-0.532954	-0.872673	-0.22177	-0.703891	-0.634597	-0.531983	-0.343051	-0.00788425	0.0974913	0.147397	0.0590675	0.112401	0.298073	0.167225	0.35196	-0.0629075	0.058557	0.075919	-0.077101	0.17087	0.0098655	0.0253195	-0.496773	
1.00976	4.38843	5	0	-0.12227	0.26956	-0.275536	0.287323	-0.195468	0.147941	-0.205056	0.18291	-0.644148	-0.534922	-0.881153	-0.225297	-0.706712	-0.637277	-0.544673	-0.338785	-0.0129765	0.100819	0.138121	0.069273	0.111461	0.300729	0.165026	0.358172	-0.064125	0.061998	0.079207	-0.077341	0.16802	0.017922	0.018461	-0.489433	
1.00778	4.39453	5	0	-0.127126	0.272732	-0.271622	0.284765	-0.195468	0.147941	-0.20705	0.188546	-0.650836	-0.536891	-0.889633	-0.228824	-0.709534	-0.639957	-0.557362	-0.33452	-0.0180688	0.104146	0.128846	0.0794785	0.110522	0.303385	0.162828	0.364385	-0.0653425	0.065439	0.082495	-0.077581	0.165169	0.0259785	0.0116025	-0.482094	
1.00484	4.40369	5	0	-0.131981	0.275905	-0.267709	0.282208	-0.195468	0.147941	-0.209044	0.194182	-0.657523	-0.53886	-0.898112	-0.232351	-0.712355	-0.642636	-0.570051	-0.330254	-0.023161	0.107473	0.11957	0.089684	0.109582	0.306041	0.16063	0.370597	-0.06656	0.06888	0.085783	-0.077821	0.162319	0.034035	0.004744	-0.474755	
1.00067	4.40216	5	0	-0.133846	0.281174	-0.273422	0.289851	-0.197449	0.15354	-0.214459	0.199888	-0.665114	-0.548667	-0.909357	-0.228023	-0.722887	-0.644791	-0.575461	-0.330742	-0.0251507	0.113097	0.117661	0.0950785	0.106761	0.314014	0.165452	0.377009	-0.0702152	0.0792102	0.092139	-0.0685998	0.160902	0.0494347	0.0105673	-0.467117	
0.994976	4.40826	5	0	-0.13571	0.286443	-0.279135	0.297494	-0.199431	0.159139	-0.219875	0.205594	-0.672705	-0.558475	-0.920601	-0.223696	-0.733419	-0.646946	-0.580871	-0.33123	-0.0271405	0.118721	0.115753	0.100473	0.10394	0.321986	0.170273	0.38342	-0.0738705	0.0895405	0.098495	-0.0593785	0.159485	0.0648345	0.0163905	-0.459479	
0.987691	4.40826	5	0	-0.137574	0.291712	-0.284848	0.305137	-0.201412	0.164738	-0.22529	0.2113	-0.680295	-0.568283	-0.931845	-0.219369	-0.743951	-0.649101	-0.58628	-0.331719	-0.0291302	0.124344	0.113844	0.105868	0.101119	0.329958	0.175094	0.389832	-0.0775258	0.0998707	0.104851	-0.0501573	0.158068	0.0802343	0.0222137	-0.451841	
0.979249	4.41131	5	0	-0.139439	0.296981	-0.290561	0.31278	-0.203393	0.170337	-0.230705	0.217006	-0.687886	-0.57809	-0.94309	-0.215041	-0.754483	-0.651256	-0.59169	-0.332207	-0.03112	0.129968	0.111935	0.111262	0.098298	0.337931	0.179916	0.396244	-0.081181	0.110201	0.111207	-0.040936	0.156651	0.095634	0.028037	-0.444203	
0.970165	4.40979	5	0	-0.140372	0.299617	-0.293573	0.312793	-0.204384	0.173138	-0.235121	0.219891	-0.706904	-0.586704	-0.95368	-0.226213	-0.761884	-0.662206	-0.595246	-0.337923	-0.035214	0.130481	0.111935	0.111262	0.098298	0.337931	0.170693	0.40227	-0.075711	0.109276	0.11274	-0.0361978	0.163337	0.0995497	0.0322692	-0.444105	
0.960956	4.40521	5	0	-0.141304	0.302252	-0.296585	0.312806	-0.205375	0.175939	-0.239536	0.222776	-0.725922	-0.595319	-0.964271	-0.237385	-0.769285	-0.673156	-0.598801	-0.34364	-0.039308	0.130994	0.111935	0.111262	0.098298	0.337931	0.161471	0.408297	-0.070241	0.108351	0.114272	-0.0314595	0.170023	0.103465	0.0365015	-0.444006	
0.952137	4.40369	5	0	-0.142236	0.304887	-0.299596	0.312818	-0.206366	0.17874	-0.243951	0.225661	-0.74494	-0.603934	-0.974861	-0.248557	-0.776686	-0.684107	-0.602356	-0.349357	-0.043402	0.131507	0.111935	0.111262	0.098298	0.337931	0.152248	0.414324	-0.064771	0.107426	0.115805	-0.0267212	0.176709	0.107381	0.0407337	-0.443908	
0.944224	4.39148	5	0	-0.143169	0.307523	-0.302608	0.312831	-0.207357	0.181541	-0.248367	0.228546	-0.763958	-0.612548	-0.985451	-0.259729	-0.784087	-0.695057	-0.605912	-0.355073	-0.047496	0.13202	0.111935	0.111262	0.098298	0.337931	0.143025	0.42035	-0.059301	0.106501	0.117338	-0.021983	0.183395	0.111297	0.044966	-0.44381	
0.937732	4.39758	5	0	-0.144102	0.310159	-0.307418	0.317929	-0.205145	0.186559	-0.249365	0.231367	-0.779113	-0.621528	-0.993884	-0.263247	-0.801226	-0.699608	-0.618556	-0.350827	-0.047496	0.13202	0.108114	0.122061	0.091354	0.346558	0.140822	0.426575	-0.0617412	0.113397	0.122167	-0.017478	0.182921	0.124052	0.0439215	-0.428791	
0.933142	4.39453	5	0	-0.145035	0.312796	-0.312227	0.323027	-0.202932	0.191578	-0.250363	0.234187	-0.794268	-0.630507	-1.00232	-0.266764	-0.818365	-0.704158	-0.631201	-0.346581	-0.047496	0.13202	0.104293	0.13286	0.08441	0.355185	0.13862	0.432801	-0.0641815	0.120293	0.126997	-0.012973	0.182447	0.136807	0.042877	-0.413772	
0.930516	4.39758	5	0	-0.145967	0.315432	-0.317037	0.328125	-0.200719	0.196596	-0.25136	0.237008	-0.809423	-0.639487	-1.01075	-0.270282	-0.835505	-0.708708	-0.643845	-0.342336	-0.047496	0.13202	0.100472	0.143658	0.077466	0.363811	0.136417	0.439026	-0.0666217	0.12719	0.131827	-0.008468	0.181974	0.149562	0.0418325	-0.398753	
0.929654	4.3869	5	0	-0.1469	0.318068	-0.321847	0.333223	-0.198507	0.201614	-0.252358	0.239828	-0.824578	-0.648467	-1.01918	-0.2738	-0.852644	-0.713259	-0.656489	-0.33809	-0.047496	0.13202	0.096651	0.154457	0.070522	0.372438	0.134214	0.445252	-0.069062	0.134086	0.136656	-0.003963	0.1815	0.162317	0.040788	-0.383734	
0.930351	4.38537	5	0	-0.151753	0.321239	-0.320947	0.33068	-0.202703	0.2022	-0.24994	0.242586	-0.837768	-0.662856	-1.03601	-0.280826	-0.857948	-0.72999	-0.667264	-0.339075	-0.0556757	0.133043	0.098562	0.149056	0.072404	0.367119	0.136417	0.439026	-0.0678415	0.130637	0.131827	-0.008468	0.186758	0.158882	0.047941	-0.379792	
0.932401	4.37775	5	0	-0.156606	0.32441	-0.320047	0.328136	-0.206898	0.202786	-0.247521	0.245344	-0.850958	-0.677246	-1.05284	-0.287851	-0.863252	-0.746721	-0.678038	-0.34006	-0.0638555	0.134065	0.100473	0.143655	0.074286	0.3618	0.13862	0.432801	-0.066621	0.127189	0.126997	-0.012973	0.192016	0.155446	0.055094	-0.375849	
0.935599	4.37622	5	0	-0.161458	0.327581	-0.319147	0.325593	-0.211093	0.203372	-0.245103	0.248102	-0.864148	-0.691636	-1.06966	-0.294876	-0.868556	-0.763452	-0.688812	-0.341046	-0.0720352	0.135087	0.102384	0.138254	0.076168	0.356481	0.140822	0.426575	-0.0654005	0.12374	0.122167	-0.017478	0.197273	0.15201	0.062247	-0.371907	
0.939739	4.37317	5	0	-0.166311	0.330752	-0.318247	0.32305	-0.215289	0.203958	-0.242684	0.25086	-0.877338	-0.706025	-1.08649	-0.301902	-0.87386	-0.780183	-0.699587	-0.342031	-0.080215	0.13611	0.104295	0.132853	0.07805	0.351162	0.143025	0.42035	-0.06418	0.120291	0.117338	-0.021983	0.202531	0.148575	0.0694	-0.367964	
0.944618	4.36554	5	0	-0.161458	0.327581	-0.322155	0.325604	-0.214298	0.201155	-0.244682	0.256507	-0.866141	-0.675651	-1.07382	-0.283133	-0.87653	-0.751496	-0.697898	-0.331093	-0.0792207	0.1333	0.0876673	0.14787	0.07805	0.351162	0.140822	0.426575	-0.0672115	0.114324	0.112513	-0.0264822	0.196318	0.154712	0.0694	-0.367964	
0.949994	4.36706	5	0	-0.156606	0.32441	-0.326064	0.328157	-0.213306	0.198353	-0.24668	0.262154	-0.854945	-0.645277	-1.06115	-0.264365	-0.8792	-0.722809	-0.696209	-0.320155	-0.0782265	0.130491	0.0710395	0.162888	0.07805	0.351162	0.13862	0.432801	-0.070243	0.108356	0.107687	-0.0309815	0.190105	0.160848	0.0694	-0.367964	
0.955533	4.36096	5	0	-0.151753	0.321239	-0.329972	0.330711	-0.212315	0.195551	-0.248679	0.267801	-0.843749	-0.614904	-1.04847	-0.245596	-0.88187	-0.694123	-0.694521	-0.309216	-0.0772323	0.127681	0.0544117	0.177905	0.07805	0.351162	0.136417	0.439026	-0.0732745	0.102389	0.102862	-0.0354808	0.183891	0.166985	0.0694	-0.367964	
0.960883	4.36401	5	0	-0.1469	0.318068	-0.33388	0.333265	-0.211323	0.192748	-0.250677	0.273448	-0.832552	-0.58453	-1.0358	-0.226828	-0.88454	-0.665436	-0.692832	-0.298278	-0.076238	0.124871	0.037784	0.192922	0.07805	0.351162	0.134214	0.445252	-0.076306	0.096422	0.098037	-0.03998	0.177678	0.173121	0.0694	-0.367964	
0.965691	4.35791	5	0	-0.149888	0.315967	-0.335987	0.330733	-0.209341	0.187145	-0.250677	0.273448	-0.804154	-0.560964	-1.0168	-0.212092	-0.867006	-0.640804	-0.678507	-0.29155	-0.0722645	0.113641	0.041605	0.182123	0.080871	0.343189	0.129406	0.438825	-0.0781193	0.0870237	0.088399	-0.0489607	0.184846	0.164284	0.0678045	-0.375538	
0.969605	4.34723	5	0	-0.152875	0.313866	-0.338094	0.328201	-0.207358	0.181542	-0.250677	0.273448	-0.775756	-0.537399	-0.99779	-0.197356	-0.849472	-0.616173	-0.664181	-0.284822	-0.068291	0.102411	0.045426	0.171324	0.083692	0.335217	0.124597	0.432398	-0.0799325	0.0776255	0.078761	-0.0579415	0.192015	0.155448	0.066209	-0.383111	
0.972274	4.35181	5	0	-0.155862	0.311765	-0.340202	0.325669	-0.205375	0.17594	-0.250677	0.273448	-0.747359	-0.513833	-0.978784	-0.182619	-0.831938	-0.591542	-0.649856	-0.278093	-0.0643175	0.0911817	0.049247	0.160526	0.086513	0.327244	0.119788	0.425971	-0.0817457	0.0682272	0.069123	-0.0669223	0.199184	0.146612	0.0646135	-0.390685	
0.973345	4.34723	5	0	-0.15885	0.309664	-0.342309	0.323137	-0.203393	0.170337	-0.250677	0.273448	-0.718961	-0.490267	-0.959777	-0.167883	-0.814404	-0.56691	-0.635531	-0.271365	-0.060344	0.079952	0.053068	0.149727	0.089334	0.319271	0.11498	0.419544	-0.083559	0.058829	0.059485	-0.075903	0.206352	0.137775	0.063018	-0.398259	
0.972471	4.34418	5	0	-0.156986	0.304395	-0.344415	0.320607	-0.203393	0.170337	-0.255092	0.276333	-0.704707	-0.478423	-0.954107	-0.156455	-0.801402	-0.550485	-0.63924	-0.260883	-0.065424	0.0832712	0.053068	0.149727	0.084275	0.322577	0.11498	0.419544	-0.083559	0.058829	0.0562005	-0.0756643	0.206352	0.137775	0.0574605	-0.394628	
0.969664	4.33502	5	0	-0.155121	0.299126	-0.346522	0.318077	-0.203393	0.170337	-0.259508	0.279218	-0.690452	-0.466579	-0.948438	-0.145027	-0.788401	-0.534059	-0.642949	-0.250401	-0.070504	0.0865905	0.053068	0.149727	0.079216	0.325883	0.11498	0.419544	-0.083559	0.058829	0.052916	-0.0754255	0.206352	0.137775	0.051903	-0.390996	
0.965483	4.33044	5	0	-0.153256	0.293858	-0.348629	0.315547	-0.203393	0.170337	-0.263923	0.282103	-0.676198	-0.454735	-0.942769	-0.133598	-0.775399	-0.517633	-0.646658	-0.23992	-0.075584	0.0899098	0.053068	0.149727	0.074157	0.329188	0.11498	0.419544	-0.083559	0.058829	0.0496315	-0.0751867	0.206352	0.137775	0.0463455	-0.387365	
0.960532	4.33044	5	0	-0.151392	0.288589	-0.350735	0.313017	-0.203393	0.170337	-0.268338	0.284988	-0.661944	-0.442891	-0.937099	-0.12217	-0.762397	-0.501208	-0.650367	-0.229438	-0.080664	0.093229	0.053068	0.149727	0.069098	0.332494	0.11498	0.419544	-0.083559	0.058829	0.046347	-0.074948	0.206352	0.137775	0.040788	-0.383734	
0.955419	4.32739	5	0	-0.15531	0.289125	-0.348938	0.307939	-0.202402	0.167537	-0.26634	0.279341	-0.659019	-0.451156	-0.940631	-0.12592	-0.757494	-0.504412	-0.650367	-0.229438	-0.0766952	0.0820133	0.047628	0.149135	0.0677995	0.325179	0.11718	0.413327	-0.083559	0.058829	0.0430645	-0.07471	0.199184	0.146612	0.0450243	-0.383631	
0.950747	4.33044	5	0	-0.159229	0.289661	-0.347141	0.30286	-0.201411	0.164737	-0.264342	0.273695	-0.656095	-0.459421	-0.944163	-0.129669	-0.752591	-0.507615	-0.650367	-0.229438	-0.0727265	0.0707975	0.042188	0.148542	0.066501	0.317863	0.119379	0.40711	-0.083559	0.058829	0.039782	-0.074472	0.192015	0.155448	0.0492605	-0.383528	
0.947123	4.33044	5	0	-0.163148	0.290197	-0.345344	0.297781	-0.200421	0.161937	-0.262344	0.268048	-0.65317	-0.467687	-0.947694	-0.133418	-0.747689	-0.510818	-0.650367	-0.229438	-0.0687578	0.0595818	0.036748	0.147949	0.0652025	0.310548	0.121579	0.400893	-0.083559	0.058829	0.0364995	-0.074234	0.184846	0.164284	0.0534967	-0.383425	
0.945153	4.32892	5	0	-0.167066	0.290733	-0.343547	0.292703	-0.19943	0.159137	-0.260346	0.262401	-0.650246	-0.475952	-0.951226	-0.137168	-0.742786	-0.514022	-0.650367	-0.229438	-0.064789	0.048366	0.031308	0.147357	0.063904	0.303233	0.123779	0.394676	-0.083559	0.058829	0.033217	-0.073996	0.177678	0.173121	0.057733	-0.383322	
0.945334	4.32587	5	0	-0.162216	0.287564	-0.346552	0.292715	-0.196224	0.161348	-0.264759	0.265284	-0.658809	-0.483048	-0.954755	-0.140914	-0.749456	-0.516469	-0.657616	-0.224701	-0.0708577	0.054486	0.0220567	0.157549	0.0670817	0.305237	0.114576	0.400689	-0.0805272	0.0647838	0.035391	-0.0620573	0.177195	0.185908	0.052442	-0.368369	
0.947306	4.31824	5	0	-0.157366	0.284394	-0.349556	0.292727	-0.193018	0.163559	-0.269172	0.268168	-0.667371	-0.490144	-0.958285	-0.144659	-0.756127	-0.518917	-0.664865	-0.219964	-0.0769265	0.060606	0.0128055	0.167741	0.0702595	0.307242	0.105373	0.406703	-0.0774955	0.0707385	0.037565	-0.0501185	0.176712	0.198695	0.047151	-0.353417	
0.950292	4.31976	5	0	-0.152516	0.281225	-0.352561	0.292739	-0.189813	0.165771	-0.273585	0.271052	-0.675933	-0.49724	-0.961815	-0.148404	-0.762798	-0.521364	-0.672115	-0.215227	-0.0829953	0.066726	0.00355425	0.177934	0.0734373	0.309246	0.09617	0.412716	-0.0744637	0.0766932	0.039739	-0.0381797	0.17623	0.211483	0.04186	-0.338464	
0.953518	4.31366	5	0	-0.147666	0.278056	-0.355566	0.292751	-0.186607	0.167982	-0.277998	0.273935	-0.684496	-0.504336	-0.965344	-0.15215	-0.769468	-0.523811	-0.679364	-0.21049	-0.089064	0.072846	-0.005697	0.188126	0.076615	0.31125	0.086967	0.418729	-0.071432	0.082648	0.041913	-0.026241	0.175747	0.22427	0.036569	-0.323511	
0.956206	4.31061	5	0	-0.152516	0.281225	-0.357671	0.290226	-0.187598	0.170784	-0.275003	0.265471	-0.703455	-0.523573	-0.985732	-0.162982	-0.783507	-0.537274	-0.690136	-0.21151	-0.087081	0.0672417	-0.0130332	0.19292	0.0734373	0.309246	0.0891653	0.412517	-0.069619	0.0920587	0.0423207	-0.00929275	0.168077	0.245946	0.0410688	-0.312055	
0.95758	4.31366	5	0	-0.157366	0.284394	-0.359777	0.287701	-0.188589	0.173586	-0.272008	0.257008	-0.722414	-0.542809	-1.00612	-0.173815	-0.797546	-0.550738	-0.700908	-0.21253	-0.085098	0.0616375	-0.0203695	0.197713	0.0702595	0.307242	0.0913635	0.406304	-0.067806	0.101469	0.0427285	0.0076555	0.160407	0.267622	0.0455685	-0.300598	
0.956862	4.3045	5	0	-0.162216	0.287564	-0.361882	0.285175	-0.189581	0.176387	-0.269014	0.248545	-0.741372	-0.562046	-1.02651	-0.184647	-0.811585	-0.564202	-0.711679	-0.21355	-0.083115	0.0560332	-0.0277057	0.202507	0.0670817	0.305237	0.0935617	0.400091	-0.065993	0.11088	0.0431363	0.0246037	0.152738	0.289298	0.0500682	-0.289141	
0.953278	4.30908	5	0	-0.167066	0.290733	-0.363988	0.28265	-0.190572	0.179189	-0.266019	0.240081	-0.760331	-0.581283	-1.04689	-0.195479	-0.825624	-0.577665	-0.722451	-0.21457	-0.081132	0.050429	-0.035042	0.207301	0.063904	0.303233	0.09576	0.393879	-0.06418	0.120291	0.043544	0.041552	0.145068	0.310974	0.054568	-0.277685	
0.946542	4.30298	5	0	-0.16408	0.292831	-0.365783	0.287724	-0.186142	0.189232	-0.271428	0.245783	-0.779287	-0.5899	-1.05743	-0.206655	-0.837867	-0.585467	-0.727829	-0.215082	-0.0871973	0.056546	-0.0296157	0.207905	0.0560332	0.314498	0.0935617	0.400091	-0.0745318	0.135012	0.04394	0.0585512	0.145526	0.321111	0.0577387	-0.262441	
0.937649	4.29993	5	0	-0.161094	0.294929	-0.367579	0.292799	-0.181712	0.199276	-0.276837	0.251486	-0.798243	-0.598516	-1.06797	-0.217831	-0.850111	-0.593268	-0.733208	-0.215593	-0.0932625	0.062663	-0.0241895	0.208509	0.0481625	0.325762	0.0913635	0.406304	-0.0848835	0.149733	0.044336	0.0755505	0.145983	0.331248	0.0609095	-0.247197	
0.927803	4.2984	5	0	-0.158107	0.297027	-0.369374	0.297873	-0.177283	0.209319	-0.282245	0.257188	-0.817199	-0.607132	-1.0785	-0.229006	-0.862355	-0.60107	-0.738586	-0.216105	-0.0993277	0.06878	-0.0187633	0.209113	0.0402918	0.337027	0.0891653	0.412517	-0.0952352	0.164455	0.044732	0.0925498	0.146441	0.341385	0.0640803	-0.231952	
0.918205	4.29535	5	0	-0.155121	0.299125	-0.37117	0.302947	-0.172853	0.219363	-0.287654	0.26289	-0.836155	-0.615749	-1.08904	-0.240182	-0.874598	-0.608871	-0.743964	-0.216616	-0.105393	0.074897	-0.013337	0.209717	0.032421	0.348292	0.086967	0.418729	-0.105587	0.179176	0.045128	0.109549	0.146898	0.351522	0.067251	-0.216708	
0.910058	4.30145	5	0	-0.156053	0.30176	-0.373274	0.300421	-0.174841	0.22498	-0.282245	0.257188	-0.856905	-0.629398	-1.11069	-0.247045	-0.88857	-0.622252	-0.752856	-0.222868	-0.111456	0.0810133	-0.0171602	0.220522	0.0355943	0.350303	0.0755743	0.430953	-0.109254	0.189538	0.044626	0.129103	0.145425	0.367121	0.0619265	-0.201661	
0.904565	4.2923	5	0	-0.156986	0.304395	-0.375378	0.297894	-0.176828	0.230596	-0.276837	0.251486	-0.877655	-0.643047	-1.13234	-0.253908	-0.902543	-0.635633	-0.761748	-0.229121	-0.117518	0.0871295	-0.0209835	0.231327	0.0387675	0.352314	0.0641815	0.443177	-0.112921	0.1999	0.044124	0.148658	0.143952	0.382721	0.056602	-0.186613	
0.902928	4.29382	5	0	-0.157918	0.307029	-0.377481	0.295368	-0.178815	0.236213	-0.271428	0.245783	-0.898406	-0.656697	-1.15399	-0.260771	-0.916515	-0.649014	-0.77064	-0.235374	-0.123581	0.0932458	-0.0248067	0.242133	0.0419407	0.354325	0.0527888	0.455401	-0.116587	0.210263	0.043622	0.168212	0.14248	0.39832	0.0512775	-0.171565	
0.906043	4.28924	5	0	-0.15885	0.309664	-0.379585	0.292841	-0.180803	0.24183	-0.266019	0.240081	-0.919156	-0.670346	-1.17564	-0.267634	-0.930487	-0.662395	-0.779532	-0.241626	-0.129644	0.099362	-0.02863	0.252938	0.045114	0.356336	0.041396	0.467625	-0.120254	0.220625	0.04312	0.187767	0.141007	0.413919	0.045953	-0.156518	
0.913237	4.29077	5	0	-0.163515	0.32285	-0.383177	0.302992	-0.184781	0.253074	-0.270013	0.251367	-0.929672	-0.65093	-1.17491	-0.256115	-0.937415	-0.653372	-0.783232	-0.231169	-0.12755	0.104462	-0.0270312	0.264373	0.0435818	0.371652	0.0439805	0.480295	-0.116011	0.223169	0.0428627	0.197568	0.143383	0.418649	0.0475295	-0.148859	
0.923342	4.28924	5	0	-0.168181	0.336035	-0.386769	0.313144	-0.18876	0.264318	-0.274007	0.262654	-0.940188	-0.631515	-1.17417	-0.244596	-0.944342	-0.644349	-0.786932	-0.220712	-0.125455	0.109562	-0.0254325	0.275807	0.0420495	0.386967	0.046565	0.492965	-0.111768	0.225713	0.0426055	0.20737	0.145759	0.42338	0.049106	-0.141201	
0.935189	4.28619	5	0	-0.172847	0.349221	-0.390361	0.323295	-0.192739	0.275562	-0.278	0.273941	-0.950704	-0.6121	-1.17344	-0.233077	-0.95127	-0.635326	-0.790632	-0.210254	-0.123361	0.114661	-0.0238338	0.287242	0.0405172	0.402282	0.0491495	0.505634	-0.107526	0.228257	0.0423483	0.217172	0.148134	0.42811	0.0506825	-0.133542	
0.947609	4.28161	5	0	-0.177512	0.362407	-0.393953	0.333446	-0.196717	0.286806	-0.281994	0.285227	-0.96122	-0.592684	-1.17271	-0.221558	-0.958198	-0.626303	-0.794332	-0.199797	-0.121267	0.119761	-0.022235	0.298677	0.038985	0.417598	0.051734	0.518304	-0.103283	0.230801	0.042091	0.226973	0.15051	0.43284	0.052259	-0.125883	
0.959433	4.27704	5	0	-0.176397	0.369798	-0.398448	0.346152	-0.200701	0.298064	-0.28258	0.296472	-0.923782	-0.532929	-1.14608	-0.187731	-0.930921	-0.576327	-0.771162	-0.186724	-0.121161	0.130485	-0.018721	0.304713	0.037442	0.432951	0.0543145	0.531006	-0.105732	0.237721	0.040052	0.241815	0.142348	0.444461	0.0482547	-0.114566	
0.969491	4.27551	5	0	-0.175281	0.37719	-0.402944	0.358857	-0.204684	0.309323	-0.283166	0.307717	-0.886343	-0.473174	-1.11945	-0.153904	-0.903644	-0.526351	-0.747991	-0.173652	-0.121055	0.141209	-0.015207	0.31075	0.035899	0.448303	0.056895	0.543709	-0.10818	0.244642	0.038013	0.256657	0.134187	0.456082	0.0442505	-0.10325	
0.976616	4.27246	5	0	-0.174166	0.384582	-0.40744	0.371563	-0.208668	0.320581	-0.283752	0.318962	-0.848904	-0.41342	-1.09282	-0.120078	-0.876366	-0.476375	-0.72482	-0.160579	-0.120948	0.151933	-0.011693	0.316786	0.034356	0.463655	0.0594755	0.556412	-0.110629	0.251562	0.035974	0.2715	0.126026	0.467703	0.0402463	-0.0919335	
0.980063	4.27093	5	0	-0.17305	0.391973	-0.411935	0.384268	-0.212651	0.331839	-0.284338	0.330207	-0.811466	-0.353665	-1.0662	-0.086251	-0.849089	-0.426399	-0.70165	-0.147506	-0.120842	0.162657	-0.008179	0.322822	0.032813	0.479008	0.062056	0.569114	-0.113078	0.258482	0.033935	0.286342	0.117864	0.479324	0.036242	-0.080617	
0.980304	4.27246	5	0	-0.172873	0.402021	-0.40834	0.399536	-0.217638	0.345932	-0.278097	0.341364	-0.767023	-0.301729	-1.03452	-0.0522902	-0.815037	-0.373288	-0.680247	-0.129105	-0.117755	0.164962	-0.0139402	0.339104	0.0391613	0.48307	0.0554198	0.587869	-0.115529	0.265408	0.0312665	0.293883	0.118829	0.476597	0.0335698	-0.0730647	
0.978028	4.27093	5	0	-0.172695	0.412069	-0.404746	0.414805	-0.222625	0.360024	-0.271857	0.352522	-0.722581	-0.249794	-1.00284	-0.0183295	-0.780985	-0.320178	-0.658844	-0.110704	-0.114667	0.167266	-0.0197015	0.355386	0.0455095	0.487132	0.0487835	0.606625	-0.117979	0.272334	0.028598	0.301425	0.119794	0.473869	0.0308975	-0.0655125	
0.973925	4.2633	5	0	-0.172517	0.422117	-0.401151	0.430073	-0.227611	0.374117	-0.265616	0.363679	-0.678138	-0.197858	-0.971165	0.0156312	-0.746933	-0.267067	-0.637441	-0.0923037	-0.111579	0.169571	-0.0254627	0.371667	0.0518578	0.491195	0.0421472	0.62538	-0.120429	0.279259	0.0259295	0.308967	0.12076	0.471142	0.0282253	-0.0579602	
0.968685	4.26788	5	0	-0.17234	0.432165	-0.397557	0.445341	-0.232598	0.38821	-0.259375	0.374837	-0.633695	-0.145923	-0.939488	0.049592	-0.712881	-0.213956	-0.616038	-0.073903	-0.108492	0.171876	-0.031224	0.387949	0.058206	0.495257	0.035511	0.644135	-0.12288	0.286185	0.023261	0.316508	0.121725	0.468415	0.025553	-0.050408	
0.962995	4.26636	5	0	-0.174213	0.437459	-0.405973	0.460647	-0.240787	0.40007	-0.261381	0.380507	-0.61763	-0.117728	-0.926761	0.0687697	-0.70127	-0.182395	-0.612697	-0.0516962	-0.113471	0.185947	-0.0350705	0.39882	0.0566502	0.510665	0.0402918	0.65064	-0.126559	0.296583	0.0268975	0.333494	0.118829	0.4766	0.0313637	-0.0425777	
0.957546	4.2633	5	0	-0.176086	0.442752	-0.414389	0.475953	-0.248977	0.41193	-0.263387	0.386177	-0.601564	-0.0895325	-0.914033	0.0879475	-0.689659	-0.150834	-0.609356	-0.0294895	-0.118449	0.200017	-0.038917	0.409691	0.0550945	0.526073	0.0450725	0.657146	-0.130239	0.306982	0.030534	0.350479	0.115933	0.484784	0.0371745	-0.0347475	
0.953017	4.26788	5	0	-0.17796	0.448046	-0.422806	0.49126	-0.257166	0.423791	-0.265394	0.391848	-0.585498	-0.0613373	-0.901306	0.107125	-0.678049	-0.119273	-0.606015	-0.00728275	-0.123428	0.214087	-0.0427635	0.420562	0.0535388	0.541481	0.0498533	0.663652	-0.133918	0.317381	0.0341705	0.367465	0.113037	0.492968	0.0429853	-0.0269173	
0.949848	4.26636	5	0	-0.179833	0.45334	-0.431222	0.506566	-0.265356	0.435651	-0.2674	0.397518	-0.569433	-0.033142	-0.888579	0.126303	-0.666438	-0.087712	-0.602674	0.014924	-0.128407	0.228158	-0.04661	0.431433	0.051983	0.556889	0.054634	0.670157	-0.137597	0.327779	0.037807	0.384451	0.110141	0.501153	0.048796	-0.019087	
0.948215	4.27246	5	0	-0.183582	0.463937	-0.435742	0.51934	-0.270355	0.449779	-0.266994	0.40598	-0.576265	-0.024365	-0.891398	0.134269	-0.658666	-0.0881703	-0.606425	0.0255242	-0.134481	0.234292	-0.0411798	0.432067	0.04914	0.564924	0.0501957	0.6827	-0.133358	0.330344	0.0441208	0.393912	0.105843	0.501864	0.041874	-0.011654	
0.948286	4.27399	5	0	-0.187332	0.474534	-0.440262	0.532115	-0.275355	0.463908	-0.266589	0.414442	-0.583098	-0.015588	-0.894217	0.142236	-0.650894	-0.0886285	-0.610175	0.0361245	-0.140554	0.240426	-0.0357495	0.432702	0.046297	0.572958	0.0457575	0.695243	-0.129118	0.332908	0.0504345	0.403373	0.101544	0.502574	0.034952	-0.004221	
0.950225	4.28161	5	0	-0.191082	0.485131	-0.444782	0.54489	-0.280354	0.478036	-0.266183	0.422903	-0.58993	-0.006811	-0.897036	0.150203	-0.643121	-0.0890867	-0.613926	0.0467248	-0.146627	0.246561	-0.0303192	0.433337	0.043454	0.580993	0.0413193	0.707786	-0.124879	0.335472	0.0567483	0.412833	0.0972455	0.503284	0.02803	0.003212	
0.954198	4.28772	5	0	-0.194831	0.495728	-0.449302	0.557664	-0.285353	0.492164	-0.265777	0.431365	-0.596762	0.001966	-0.899855	0.158169	-0.635349	-0.089545	-0.617677	0.057325	-0.152701	0.252695	-0.024889	0.433971	0.040611	0.589028	0.036881	0.720329	-0.12064	0.338037	0.063062	0.422294	0.092947	0.503995	0.021108	0.010645	
0.960372	4.30145	5	0	-0.199524	0.508992	-0.453829	0.570457	-0.287171	0.508588	-0.272209	0.439935	-0.608192	-0.0078	-0.909736	0.158501	-0.645942	-0.0918613	-0.617677	0.057325	-0.152612	0.263475	-0.0233098	0.445502	0.0390383	0.60449	0.0486672	0.727117	-0.126787	0.355408	0.0673028	0.446776	0.0953133	0.508745	0.0226695	0.0183615	
0.96891	4.3045	5	0	-0.204217	0.522255	-0.458356	0.583249	-0.28899	0.525011	-0.278642	0.448506	-0.619622	-0.017566	-0.919617	0.158832	-0.656534	-0.0941775	-0.617677	0.057325	-0.152524	0.274255	-0.0217305	0.457033	0.0374655	0.619953	0.0604535	0.733906	-0.132933	0.372779	0.0715435	0.471257	0.0976795	0.513495	0.024231	0.026078	
0.979912	4.31366	5	0	-0.208911	0.535519	-0.462882	0.596042	-0.290808	0.541435	-0.285075	0.457076	-0.631051	-0.027332	-0.929498	0.159164	-0.667126	-0.0964937	-0.617677	0.057325	-0.152435	0.285034	-0.0201513	0.468565	0.0358928	0.635415	0.0722398	0.740695	-0.13908	0.390151	0.0757842	0.495739	0.100046	0.518245	0.0257925	0.0337945	
0.992765	4.31671	5	0	-0.213604	0.548783	-0.467409	0.608835	-0.292626	0.557859	-0.291507	0.465647	-0.642481	-0.037098	-0.939379	0.159496	-0.677719	-0.09881	-0.617677	0.057325	-0.152346	0.295814	-0.018572	0.480096	0.03432	0.650877	0.084026	0.747483	-0.145227	0.407522	0.080025	0.520221	0.102412	0.522995	0.027354	0.041511	
1.00644	4.32587	5	0	-0.212505	0.556234	-0.474029	0.619068	-0.292447	0.568646	-0.295531	0.47702	-0.667241	-0.0509763	-0.956281	0.152199	-0.69074	-0.115641	-0.630368	0.0615415	-0.154344	0.301459	-0.0205017	0.48555	0.0365425	0.655621	0.0818	0.753774	-0.146458	0.411	0.0866335	0.519805	0.0938195	0.524412	0.028695	0.0377212	
1.01988	4.32739	5	0	-0.211407	0.563685	-0.480649	0.629301	-0.292268	0.579432	-0.299555	0.488393	-0.692	-0.0648545	-0.973183	0.144902	-0.703761	-0.132472	-0.643058	0.065758	-0.156341	0.307104	-0.0224315	0.491004	0.038765	0.660364	0.079574	0.760066	-0.147689	0.414479	0.093242	0.519389	0.085227	0.525828	0.030036	0.0339315	
1.03207	4.33502	5	0	-0.210309	0.571135	-0.487269	0.639535	-0.29209	0.590218	-0.30358	0.499766	-0.716759	-0.0787327	-0.990085	0.137604	-0.716781	-0.149304	-0.655749	0.0699745	-0.158338	0.312749	-0.0243613	0.496457	0.0409875	0.665107	0.077348	0.766357	-0.148919	0.417957	0.0998505	0.518973	0.0766345	0.527245	0.031377	0.0301418	
1.04195	4.33502	5	0	-0.20921	0.578586	-0.493889	0.649768	-0.291911	0.601005	-0.307604	0.511139	-0.741519	-0.092611	-1.00699	0.130307	-0.729802	-0.166135	-0.66844	0.074191	-0.160336	0.318394	-0.026291	0.501911	0.04321	0.669851	0.075122	0.772648	-0.15015	0.421436	0.106459	0.518557	0.068042	0.528661	0.032718	0.026352	
1.04849	4.33502	5	0	-0.21595	0.587078	-0.494796	0.652331	-0.298113	0.60724	-0.307211	0.519637	-0.753856	-0.0995287	-1.01191	0.13047	-0.742098	-0.174177	-0.66844	0.074191	-0.159255	0.326376	-0.0247197	0.513478	0.0435287	0.679981	0.0799075	0.779205	-0.156844	0.42581	0.103763	0.526176	0.0584955	0.532801	0.0353982	0.0187773	
1.05064	4.34265	5	0	-0.222689	0.59557	-0.495703	0.654894	-0.304314	0.613475	-0.306818	0.528134	-0.766193	-0.106446	-1.01683	0.130632	-0.754394	-0.182219	-0.66844	0.074191	-0.158174	0.334357	-0.0231485	0.525046	0.0438475	0.690111	0.084693	0.785762	-0.163539	0.430184	0.101067	0.533795	0.048949	0.536941	0.0380785	0.0112025	
1.04738	4.33502	5	0	-0.229429	0.604062	-0.496609	0.657457	-0.310515	0.61971	-0.306425	0.536632	-0.778531	-0.113364	-1.02175	0.130794	-0.766691	-0.19026	-0.66844	0.074191	-0.157092	0.342339	-0.0215772	0.536613	0.0441662	0.700242	0.0894785	0.792318	-0.170234	0.434559	0.098371	0.541414	0.0394025	0.54108	0.0407587	0.00362775	
1.03858	4.33655	5	0	-0.236169	0.612554	-0.497516	0.66002	-0.316717	0.625945	-0.306032	0.54513	-0.790868	-0.120282	-1.02666	0.130957	-0.778987	-0.198302	-0.66844	0.074191	-0.156011	0.350321	-0.020006	0.54818	0.044485	0.710372	0.094264	0.798875	-0.176928	0.438933	0.095675	0.549033	0.029856	0.54522	0.043439	-0.003947	
1.02558	4.33349	5	0	-0.241966	0.618387	-0.510116	0.670224	-0.328107	0.635571	-0.304633	0.550789	-0.788152	-0.107078	-1.00837	0.134277	-0.778293	-0.189573	-0.664913	0.0800402	-0.154932	0.358315	-0.020006	0.54818	0.0467065	0.715131	0.0827907	0.811219	-0.179926	0.432873	0.088461	0.542037	0.0346798	0.531588	0.02782	-0.00827825	
1.0099	4.33502	5	0	-0.247762	0.62422	-0.522715	0.680427	-0.339496	0.645196	-0.303234	0.556448	-0.785435	-0.0938735	-0.990075	0.137597	-0.777599	-0.180845	-0.661385	0.0858895	-0.153853	0.366309	-0.020006	0.54818	0.048928	0.71989	0.0713175	0.823563	-0.182925	0.426814	0.081247	0.535041	0.0395035	0.517956	0.012201	-0.0126095	
0.993039	4.32739	5	0	-0.253559	0.630052	-0.535315	0.690631	-0.350886	0.654821	-0.301834	0.562107	-0.782719	-0.0806692	-0.97178	0.140917	-0.776906	-0.172116	-0.657857	0.0917387	-0.152773	0.374303	-0.020006	0.54818	0.0511495	0.724649	0.0598443	0.835907	-0.185924	0.420754	0.074033	0.528045	0.0443272	0.504323	-0.003418	-0.0169408	
0.976497	4.32587	5	0	-0.259356	0.635885	-0.547914	0.700835	-0.362275	0.664447	-0.300435	0.567766	-0.780003	-0.067465	-0.953485	0.144237	-0.776212	-0.163387	-0.65433	0.097588	-0.151694	0.382297	-0.020006	0.54818	0.053371	0.729408	0.048371	0.848251	-0.188922	0.414694	0.066819	0.521049	0.049151	0.490691	-0.019037	-0.021272	
0.96178	4.32434	5	0	-0.26515	0.641717	-0.547914	0.700835	-0.366458	0.664996	-0.307888	0.579215	-0.77914	-0.0594545	-0.952778	0.156019	-0.775521	-0.154644	-0.650801	0.103446	-0.15162	0.393138	-0.016502	0.554299	0.0486012	0.742888	0.060164	0.855107	-0.194377	0.415587	0.062622	0.523791	0.0415428	0.489382	-0.0205977	-0.0289595	
0.950389	4.31976	5	0	-0.270944	0.647548	-0.547914	0.700835	-0.370641	0.665546	-0.315341	0.590665	-0.778277	-0.051444	-0.95207	0.1678	-0.77483	-0.145902	-0.647272	0.109304	-0.151545	0.403979	-0.012998	0.560418	0.0438315	0.756368	0.071957	0.861962	-0.199832	0.416481	0.058425	0.526534	0.0339345	0.488073	-0.0221585	-0.036647	
0.9437	4.31824	5	0	-0.276739	0.65338	-0.547914	0.700835	-0.374823	0.666096	-0.322793	0.602114	-0.777414	-0.0434335	-0.951362	0.179582	-0.77414	-0.137159	-0.643744	0.115162	-0.151471	0.41482	-0.009494	0.566538	0.0390618	0.769848	0.08375	0.868818	-0.205287	0.417374	0.054228	0.529277	0.0263262	0.486763	-0.0237193	-0.0443345	
0.941862	4.31366	5	0	-0.282533	0.659211	-0.547914	0.700835	-0.379006	0.666645	-0.330246	0.613564	-0.776551	-0.035423	-0.950655	0.191363	-0.773449	-0.128416	-0.640215	0.12102	-0.151397	0.425661	-0.00599	0.572657	0.034292	0.783328	0.095543	0.875674	-0.210742	0.418267	0.050031	0.532019	0.018718	0.485454	-0.02528	-0.052022	
0.944335	4.31213	5	0	-0.281591	0.65655	-0.550901	0.700816	-0.388367	0.670579	-0.325821	0.610673	-0.783083	-0.0482928	-0.956294	0.179746	-0.772026	-0.143132	-0.645622	0.12047	-0.152333	0.439362	-0.00792675	0.578131	0.032382	0.788726	0.095543	0.875674	-0.211971	0.421741	0.0482355	0.537093	0.0206435	0.480012	-0.02951	-0.052158	
0.950574	4.30755	5	0	-0.28065	0.65389	-0.553888	0.700797	-0.397728	0.674513	-0.321397	0.607782	-0.789615	-0.0611625	-0.961932	0.168129	-0.770603	-0.157849	-0.651029	0.11992	-0.153269	0.453064	-0.0098635	0.583604	0.030472	0.794123	0.095543	0.875674	-0.213201	0.425215	0.04644	0.542168	0.022569	0.474569	-0.03374	-0.052294	
0.960034	4.31061	5	0	-0.279708	0.651229	-0.556874	0.700777	-0.407089	0.678447	-0.316972	0.604891	-0.796147	-0.0740322	-0.967571	0.156511	-0.76918	-0.172565	-0.656436	0.11937	-0.154204	0.466765	-0.0118002	0.589078	0.028562	0.799521	0.095543	0.875674	-0.21443	0.42869	0.0446445	0.547242	0.0244945	0.469127	-0.03797	-0.05243	
0.972169	4.30755	5	0	-0.278767	0.648568	-0.559861	0.700758	-0.41645	0.682381	-0.312548	0.602	-0.802679	-0.086902	-0.973209	0.144894	-0.767757	-0.187281	-0.661843	0.11882	-0.15514	0.480467	-0.013737	0.594552	0.026652	0.804919	0.095543	0.875674	-0.215659	0.432164	0.042849	0.552316	0.02642	0.463685	-0.0422	-0.052566	
0.986433	4.30603	5	0	-0.294388	0.650599	-0.564018	0.695596	-0.420624	0.682926	-0.315963	0.602037	-0.821614	-0.0958917	-0.984465	0.149193	-0.785995	-0.189123	-0.676397	0.12833	-0.152059	0.482822	-0.015675	0.600029	0.027607	0.80222	0.0840532	0.888042	-0.229538	0.427889	0.038051	0.547651	0.0131512	0.455645	-0.0466533	-0.0641377	
1.00228	4.30755	5	0	-0.310009	0.65263	-0.568175	0.690433	-0.424798	0.683472	-0.319377	0.602075	-0.840549	-0.104881	-0.995721	0.153492	-0.804232	-0.190966	-0.690951	0.13784	-0.148977	0.485178	-0.017613	0.605506	0.028562	0.799521	0.0725635	0.900411	-0.243418	0.423613	0.033253	0.542987	-0.0001175	0.447605	-0.0511065	-0.0757095	
1.01916	4.3045	5	0	-0.325629	0.654661	-0.572331	0.685271	-0.428972	0.684017	-0.322792	0.602112	-0.859483	-0.113871	-1.00698	0.15779	-0.822469	-0.192808	-0.705506	0.14735	-0.145896	0.487534	-0.019551	0.610984	0.029517	0.796821	0.0610738	0.912779	-0.257298	0.419337	0.028455	0.538322	-0.0133863	0.439565	-0.0555597	-0.0872813	
1.03646	4.30603	5	0	-0.34125	0.656692	-0.576488	0.680109	-0.433146	0.684562	-0.326207	0.602149	-0.878418	-0.122861	-1.01823	0.162089	-0.840707	-0.194651	-0.72006	0.15686	-0.142815	0.489889	-0.021489	0.616461	0.030472	0.794122	0.049584	0.925147	-0.271177	0.415062	0.023657	0.533657	-0.026655	0.431525	-0.060013	-0.098853	
1.05352	4.30755	5	0	-0.353077	0.648097	-0.591013	0.662098	-0.442643	0.67769	-0.333415	0.59371	-0.898144	-0.139767	-1.02385	0.150501	-0.846991	-0.208847	-0.730835	0.155741	-0.142815	0.489889	-0.0249883	0.610328	0.0190587	0.793285	0.0470482	0.912232	-0.279594	0.409905	0.017363	0.524141	-0.0389335	0.420797	-0.0686843	-0.110525	
1.0697	4.2984	5	0	-0.364904	0.639503	-0.605538	0.644087	-0.45214	0.670818	-0.340624	0.585271	-0.91787	-0.156673	-1.02947	0.138912	-0.853275	-0.223044	-0.741609	0.154622	-0.142815	0.489889	-0.0284875	0.604195	0.0076455	0.792449	0.0445125	0.899317	-0.288011	0.404747	0.011069	0.514625	-0.051212	0.41007	-0.0773555	-0.122197	
1.08432	4.30603	5	0	-0.376732	0.630909	-0.620064	0.626075	-0.461636	0.663945	-0.347832	0.576833	-0.937596	-0.17358	-1.03509	0.127324	-0.85956	-0.23724	-0.752383	0.153504	-0.142815	0.489889	-0.0319867	0.598063	-0.00376775	0.791612	0.0419768	0.886403	-0.296427	0.39959	0.004775	0.50511	-0.0634905	0.399342	-0.0860267	-0.133869	
1.09675	4.3045	5	0	-0.388559	0.622314	-0.634589	0.608064	-0.471133	0.657073	-0.35504	0.568394	-0.957322	-0.190486	-1.04071	0.115735	-0.865844	-0.251436	-0.763158	0.152385	-0.142815	0.489889	-0.035486	0.59193	-0.015181	0.790775	0.039441	0.873488	-0.304844	0.394433	-0.001519	0.495594	-0.075769	0.388615	-0.094698	-0.145541	
1.10632	4.30145	5	0	-0.415366	0.583004	-0.643691	0.574912	-0.479773	0.636638	-0.359841	0.562779	-0.961969	-0.19806	-1.02524	0.127002	-0.866896	-0.248464	-0.765035	0.15769	-0.155066	0.491342	-0.049835	0.584499	-0.0278255	0.782478	0.0346718	0.866907	-0.321638	0.384142	-0.0200455	0.484399	-0.089409	0.370534	-0.115971	-0.157565	
1.11238	4.29993	0	5	-0.442173	0.543694	-0.652793	0.541761	-0.488414	0.616203	-0.364641	0.557164	-0.966616	-0.205633	-1.00978	0.138269	-0.867947	-0.245492	-0.766912	0.162994	-0.167318	0.492795	-0.064184	0.577067	-0.04047	0.774182	0.0299025	0.860326	-0.338433	0.373851	-0.038572	0.473205	-0.103049	0.352453	-0.137244	-0.16959	
1.11427	4.29993	0	5	-0.46898	0.504384	-0.661895	0.508609	-0.497054	0.595768	-0.369442	0.551549	-0.971263	-0.213207	-0.994306	0.149536	-0.868999	-0.242519	-0.768789	0.168299	-0.179569	0.494248	-0.078533	0.569636	-0.0531145	0.765885	0.0251332	0.853744	-0.355227	0.36356	-0.0570985	0.46201	-0.116689	0.334372	-0.158518	-0.181615	
1.11144	4.29535	0	5	-0.495787	0.465074	-0.670997	0.475457	-0.505694	0.575333	-0.374242	0.545934	-0.97591	-0.220781	-0.978838	0.160803	-0.870051	-0.239547	-0.770666	0.173604	-0.191821	0.495701	-0.092882	0.562205	-0.065759	0.757588	0.020364	0.847163	-0.372021	0.353269	-0.075625	0.450816	-0.130329	0.316291	-0.179791	-0.193639	
1.10431	4.29077	0	5	-0.509689	0.441895	-0.692837	0.445038	-0.519471	0.558353	-0.383831	0.53473	-0.992748	-0.235176	-0.978838	0.160803	-0.878429	-0.247772	-0.781418	0.172476	-0.206112	0.491953	-0.107193	0.55479	-0.077425	0.74663	0.0108363	0.834035	-0.372552	0.340359	-0.0792215	0.43381	-0.135455	0.296882	-0.195477	-0.209217	
1.09377	4.2923	0	5	-0.523591	0.418717	-0.714678	0.414619	-0.533248	0.541373	-0.39342	0.523525	-1.00959	-0.249571	-0.978838	0.160803	-0.886807	-0.255997	-0.79217	0.171347	-0.220403	0.488205	-0.121504	0.547374	-0.089091	0.735671	0.0013085	0.820906	-0.373083	0.327449	-0.082818	0.416803	-0.140581	0.277473	-0.211163	-0.224795	
1.08074	4.29382	0	5	-0.537492	0.395539	-0.736518	0.384199	-0.547025	0.524393	-0.403009	0.51232	-1.02642	-0.263966	-0.978838	0.160803	-0.895185	-0.264223	-0.802922	0.170218	-0.234694	0.484457	-0.135815	0.539959	-0.100757	0.724712	-0.00821925	0.807778	-0.373614	0.314539	-0.0864145	0.399796	-0.145707	0.258064	-0.226849	-0.240373	
1.06613	4.2923	0	5	-0.551394	0.37236	-0.758359	0.35378	-0.560802	0.507413	-0.412598	0.501116	-1.04326	-0.278361	-0.978838	0.160803	-0.903563	-0.272448	-0.813674	0.16909	-0.248985	0.480709	-0.150126	0.532544	-0.112423	0.713754	-0.017747	0.79465	-0.374145	0.301629	-0.090011	0.38279	-0.150833	0.238655	-0.242535	-0.255951	
1.05085	4.2984	0	5	-0.546609	0.369233	-0.764827	0.338666	-0.559978	0.49392	-0.423173	0.492776	-1.06091	-0.30055	-0.992904	0.145571	-0.916452	-0.289071	-0.822534	0.162666	-0.253053	0.481189	-0.159004	0.525798	-0.118721	0.709627	-0.0202857	0.781829	-0.372926	0.298184	-0.0938927	0.375669	-0.15457	0.226653	-0.241454	-0.270964	
1.03582	4.30145	0	5	-0.541824	0.366107	-0.771296	0.323553	-0.559154	0.480427	-0.433748	0.484436	-1.07855	-0.32274	-1.00697	0.130339	-0.929341	-0.305694	-0.831393	0.156241	-0.257122	0.481668	-0.167883	0.519051	-0.125018	0.705499	-0.0228245	0.769008	-0.371707	0.294739	-0.0977745	0.368547	-0.158307	0.214651	-0.240374	-0.285976	
1.02193	4.30145	0	5	-0.537039	0.36298	-0.777764	0.308439	-0.558329	0.466934	-0.444322	0.476095	-1.09619	-0.344929	-1.02104	0.115108	-0.942229	-0.322318	-0.840252	0.149817	-0.26119	0.482148	-0.176762	0.512304	-0.131316	0.701372	-0.0253633	0.756188	-0.370488	0.291295	-0.101656	0.361426	-0.162043	0.20265	-0.239293	-0.300989	
1.01007	4.31061	0	5	-0.532254	0.359853	-0.784233	0.293325	-0.557505	0.453441	-0.454897	0.467755	-1.11384	-0.367118	-1.0351	0.099876	-0.955118	-0.338941	-0.849112	0.143393	-0.265258	0.482628	-0.18564	0.505558	-0.137614	0.697245	-0.027902	0.743367	-0.369269	0.28785	-0.105538	0.354304	-0.16578	0.190648	-0.238212	-0.316002	
1.00054	4.31518	0	5	-0.523602	0.356212	-0.783918	0.275759	-0.558671	0.44558	-0.456677	0.453702	-1.13507	-0.399336	-1.05474	0.073206	-0.973533	-0.360915	-0.866788	0.130581	-0.260249	0.468473	-0.187193	0.494048	-0.136027	0.681808	-0.037414	0.730324	-0.363181	0.270646	-0.107371	0.332378	-0.16668	0.170655	-0.238702	-0.33851	
0.993217	4.31671	0	5	-0.514949	0.35257	-0.783602	0.258194	-0.559837	0.437719	-0.458457	0.439648	-1.15631	-0.431554	-1.07438	0.046536	-0.991947	-0.382888	-0.884463	0.11777	-0.25524	0.454318	-0.188746	0.482537	-0.134441	0.666372	-0.046926	0.71728	-0.357094	0.253442	-0.109203	0.310451	-0.167579	0.150662	-0.239193	-0.361019	
0.987978	4.31824	0	5	-0.506297	0.348928	-0.783287	0.240628	-0.561003	0.429859	-0.460237	0.425595	-1.17754	-0.463771	-1.09402	0.019866	-1.01036	-0.404861	-0.902138	0.104959	-0.250232	0.440162	-0.190299	0.471027	-0.132854	0.650935	-0.056438	0.704236	-0.351006	0.236238	-0.111035	0.288525	-0.168479	0.130669	-0.239683	-0.383528	
0.98469	4.32587	0	5	-0.497645	0.345287	-0.782972	0.223062	-0.562169	0.421998	-0.462017	0.411542	-1.19878	-0.495989	-1.11366	-0.006804	-1.02878	-0.426835	-0.919814	0.092147	-0.245223	0.426007	-0.191852	0.459517	-0.131268	0.635498	-0.06595	0.691193	-0.344919	0.219034	-0.112868	0.266599	-0.169379	0.110676	-0.240173	-0.406036	
0.983224	4.32587	0	5	-0.492093	0.329597	-0.78974	0.200567	-0.55839	0.400167	-0.46221	0.383499	-1.22176	-0.532976	-1.13811	-0.0331162	-1.05163	-0.456983	-0.937432	0.079384	-0.250355	0.418495	-0.196884	0.44198	-0.137873	0.621344	-0.0684917	0.678445	-0.353307	0.213952	-0.118866	0.247472	-0.165116	0.0873712	-0.244607	-0.417368	
0.98345	4.33655	0	5	-0.486542	0.313906	-0.796507	0.178072	-0.554611	0.378336	-0.462402	0.355455	-1.24475	-0.569962	-1.16256	-0.0594285	-1.07448	-0.487132	-0.955051	0.066621	-0.255487	0.410983	-0.201915	0.424444	-0.144477	0.607189	-0.0710335	0.665697	-0.361695	0.208871	-0.124865	0.228345	-0.160853	0.0640665	-0.249041	-0.428701	
