0.978	4.17938	0	0	-0.025169	0.07325	-0.025685	0.149415	0.022159	0.035648	-0.044229	0.051822	-0.10063	-0.02085	-0.084343	0.161142	-0.039991	0.007648	-0.034297	0.112294	-0.050109	0.04804	-0.036742	0.166114	-0.038075	-0.015462	-0.045414	0.094501	-0.058692	0.020786	-0.002376	0.121917	0.051158	0.003445	0.420995	0.375547	
0.981098	4.17938	0	0	-0.0202913	0.0700627	-0.0266325	0.152092	0.021146	0.0385107	-0.042973	0.0482718	-0.097873	-0.0186837	-0.086364	0.166854	-0.0381327	0.0123333	-0.0359817	0.117056	-0.0509475	0.0504098	-0.0276137	0.166293	-0.034499	-0.0135087	-0.0397968	0.094013	-0.0543283	0.0229532	-0.004227	0.127149	0.0521228	0.0007185	0.422318	0.371808	
0.983322	4.17633	0	0	-0.0154135	0.0668755	-0.02758	0.15477	0.020133	0.0413735	-0.041717	0.0447215	-0.095116	-0.0165175	-0.088385	0.172566	-0.0362745	0.0170185	-0.0376665	0.121818	-0.051786	0.0527795	-0.0184855	0.166473	-0.030923	-0.0115555	-0.0341795	0.093525	-0.0499645	0.0251205	-0.006078	0.132381	0.0530875	-0.002008	0.423641	0.368069	
0.984754	4.17023	0	0	-0.0105357	0.0636883	-0.0285275	0.157447	0.01912	0.0442363	-0.040461	0.0411712	-0.092359	-0.0143512	-0.090406	0.178277	-0.0344162	0.0217038	-0.0393513	0.126579	-0.0526245	0.0551492	-0.00935725	0.166652	-0.027347	-0.00960225	-0.0285623	0.093037	-0.0456008	0.0272877	-0.007929	0.137612	0.0540523	-0.0047345	0.424964	0.36433	
0.985471	4.17175	0	0	-0.005658	0.060501	-0.029475	0.160125	0.018107	0.047099	-0.039205	0.037621	-0.089602	-0.012185	-0.092427	0.183989	-0.032558	0.026389	-0.041036	0.131341	-0.053463	0.057519	-0.000229	0.166831	-0.023771	-0.007649	-0.022945	0.092549	-0.041237	0.029455	-0.00978	0.142844	0.055017	-0.007461	0.426287	0.360591	
0.985555	4.17328	0	0	-0.00788425	0.056195	-0.0300002	0.152238	0.01912	0.0442363	-0.0528335	0.0383448	-0.092359	-0.0143512	-0.090406	0.178277	-0.0297937	0.0285185	-0.041036	0.131341	-0.0529177	0.0462385	-0.00479475	0.166742	-0.0198235	-0.0188052	-0.0285623	0.093037	-0.042139	0.0175042	-0.00972725	0.132759	0.0467557	-0.0188087	0.423037	0.345493	
0.985084	4.17175	0	0	-0.0101105	0.051889	-0.0305255	0.144351	0.020133	0.0413735	-0.066462	0.0390685	-0.095116	-0.0165175	-0.088385	0.172566	-0.0270295	0.030648	-0.041036	0.131341	-0.0523725	0.034958	-0.0093605	0.166653	-0.015876	-0.0299615	-0.0341795	0.093525	-0.043041	0.0055535	-0.0096745	0.122673	0.0384945	-0.0301565	0.419787	0.330395	
0.984138	4.17328	0	0	-0.0123368	0.047583	-0.0310508	0.136465	0.021146	0.0385107	-0.0800905	0.0397923	-0.097873	-0.0186837	-0.086364	0.166854	-0.0242652	0.0327775	-0.041036	0.131341	-0.0518272	0.0236775	-0.0139263	0.166563	-0.0119285	-0.0411178	-0.0397968	0.094013	-0.043943	-0.00639725	-0.00962175	0.112587	0.0302332	-0.0415042	0.416536	0.315296	
0.982797	4.1687	0	0	-0.014563	0.043277	-0.031576	0.128578	0.022159	0.035648	-0.093719	0.040516	-0.10063	-0.02085	-0.084343	0.161142	-0.021501	0.034907	-0.041036	0.131341	-0.051282	0.012397	-0.018492	0.166474	-0.007981	-0.052274	-0.045414	0.094501	-0.044845	-0.018348	-0.009569	0.102502	0.021972	-0.052852	0.413286	0.300198	
0.981141	4.16412	0	0	-0.0127967	0.038285	-0.035887	0.131395	0.022159	0.035648	-0.0899578	0.0298863	-0.10337	-0.0131078	-0.086364	0.166854	-0.025127	0.0451542	-0.0373328	0.136248	-0.0493125	0.01657	-0.018492	0.166474	-0.0109412	-0.0439083	-0.045414	0.094501	-0.044845	-0.018348	-0.009569	0.102502	0.022934	-0.055571	0.416233	0.304009	
0.979248	4.1687	0	0	-0.0110305	0.033293	-0.040198	0.134212	0.022159	0.035648	-0.0861965	0.0192565	-0.106109	-0.0053655	-0.088385	0.172566	-0.028753	0.0554015	-0.0336295	0.141156	-0.047343	0.020743	-0.018492	0.166474	-0.0139015	-0.0355425	-0.045414	0.094501	-0.044845	-0.018348	-0.009569	0.102502	0.023896	-0.05829	0.419179	0.307819	
0.977199	4.16107	0	0	-0.00926425	0.028301	-0.044509	0.137029	0.022159	0.035648	-0.0824352	0.00862675	-0.108849	0.00237675	-0.090406	0.178277	-0.032379	0.0656488	-0.0299263	0.146064	-0.0453735	0.024916	-0.018492	0.166474	-0.0168618	-0.0271767	-0.045414	0.094501	-0.044845	-0.018348	-0.009569	0.102502	0.024858	-0.061009	0.422125	0.31163	
0.975073	4.15649	0	0	-0.007498	0.023309	-0.04882	0.139846	0.022159	0.035648	-0.078674	-0.002003	-0.111588	0.010119	-0.092427	0.183989	-0.036005	0.075896	-0.026223	0.150971	-0.043404	0.029089	-0.018492	0.166474	-0.019822	-0.018811	-0.045414	0.094501	-0.044845	-0.018348	-0.009569	0.102502	0.02582	-0.063728	0.425072	0.31544	
0.972949	4.15649	0	0	-0.00485025	0.0158265	-0.0527072	0.132112	0.0262078	0.024206	-0.0819595	-0.00529875	-0.109761	0.00495675	-0.090406	0.178277	-0.031427	0.0729045	-0.0332988	0.155594	-0.0445362	0.02255	-0.0142533	0.154495	-0.0178482	-0.024389	-0.0481	0.0867182	-0.0413873	-0.0281205	-0.0150122	0.0980285	0.0199968	-0.0703653	0.425072	0.31544	
0.970908	4.15649	0	0	-0.0022025	0.008344	-0.0565945	0.124379	0.0302565	0.012764	-0.085245	-0.0085945	-0.107935	-0.0002055	-0.088385	0.172566	-0.026849	0.069913	-0.0403745	0.160218	-0.0456685	0.016011	-0.0100145	0.142516	-0.0158745	-0.029967	-0.050786	0.0789355	-0.0379295	-0.037893	-0.0204555	0.093555	0.0141735	-0.0770025	0.425072	0.31544	
0.969029	4.15344	0	0	0.00044525	0.0008615	-0.0604818	0.116645	0.0343052	0.001322	-0.0885305	-0.0118902	-0.106108	-0.00536775	-0.086364	0.166854	-0.022271	0.0669215	-0.0474502	0.164842	-0.0468008	0.009472	-0.00577575	0.130536	-0.0139007	-0.035545	-0.053472	0.0711528	-0.0344718	-0.0476655	-0.0258987	0.0890815	0.00835025	-0.0836397	0.425072	0.31544	
0.967392	4.15192	0	0	0.003093	-0.006621	-0.064369	0.108912	0.038354	-0.01012	-0.091816	-0.015186	-0.104281	-0.01053	-0.084343	0.161142	-0.017693	0.06393	-0.054526	0.169465	-0.047933	0.002933	-0.001537	0.118557	-0.011927	-0.041123	-0.056158	0.06337	-0.031014	-0.057438	-0.031342	0.084608	0.002527	-0.090277	0.425072	0.31544	
0.966084	4.14886	0	0	-0.00354675	0.001552	-0.064369	0.108912	0.0319557	-0.00374125	-0.091816	-0.015186	-0.106108	-0.00536775	-0.0916665	0.161539	-0.0195075	0.0690583	-0.054526	0.169465	-0.051283	0.012401	-0.001537	0.118557	-0.0139007	-0.035545	-0.056158	0.06337	-0.0321663	-0.0541818	-0.0276972	0.0842333	-0.00035575	-0.08213	0.42243	0.322907	
0.965204	4.14734	0	0	-0.0101865	0.009725	-0.064369	0.108912	0.0255575	0.0026375	-0.091816	-0.015186	-0.107935	-0.0002055	-0.09899	0.161936	-0.021322	0.0741865	-0.054526	0.169465	-0.054633	0.021869	-0.001537	0.118557	-0.0158745	-0.029967	-0.056158	0.06337	-0.0333185	-0.0509255	-0.0240525	0.0838585	-0.0032385	-0.073983	0.419788	0.330375	
0.964851	4.14734	0	0	-0.0168263	0.017898	-0.064369	0.108912	0.0191593	0.00901625	-0.091816	-0.015186	-0.109761	0.00495675	-0.106314	0.162332	-0.0231365	0.0793148	-0.054526	0.169465	-0.057983	0.031337	-0.001537	0.118557	-0.0178482	-0.024389	-0.056158	0.06337	-0.0344708	-0.0476693	-0.0204078	0.0834837	-0.00612125	-0.065836	0.417146	0.337842	
0.965123	4.14276	0	0	-0.023466	0.026071	-0.064369	0.108912	0.012761	0.015395	-0.091816	-0.015186	-0.111588	0.010119	-0.113637	0.162729	-0.024951	0.084443	-0.054526	0.169465	-0.061333	0.040805	-0.001537	0.118557	-0.019822	-0.018811	-0.056158	0.06337	-0.035623	-0.044413	-0.016763	0.083109	-0.009004	-0.057689	0.414504	0.345309	
0.966119	4.14123	0	0	-0.0208193	0.0185905	-0.0605912	0.0982357	0.0104122	0.0103375	-0.091816	-0.015186	-0.118007	0.00836125	-0.111619	0.157024	-0.0277145	0.0823062	-0.065288	0.16917	-0.061626	0.031899	-0.00925175	0.1144	-0.0158755	-0.0299638	-0.0573842	0.0514745	-0.038836	-0.0498212	-0.0222045	0.0786415	-0.0104705	-0.0650807	0.407297	0.341409	
0.967939	4.13818	0	0	-0.0181725	0.01111	-0.0568135	0.0875595	0.0080635	0.00528	-0.091816	-0.015186	-0.124426	0.0066035	-0.1096	0.151319	-0.030478	0.0801695	-0.07605	0.168874	-0.061919	0.022993	-0.0169665	0.110244	-0.011929	-0.0411165	-0.0586105	0.039579	-0.042049	-0.0552295	-0.027646	0.074174	-0.011937	-0.0724725	0.40009	0.337509	
0.970681	4.13513	0	0	-0.0155257	0.0036295	-0.0530357	0.0768833	0.00571475	0.0002225	-0.091816	-0.015186	-0.130845	0.00484575	-0.107581	0.145615	-0.0332415	0.0780328	-0.086812	0.168579	-0.062212	0.014087	-0.0246813	0.106088	-0.0079825	-0.0522693	-0.0598368	0.0276835	-0.045262	-0.0606377	-0.0330875	0.0697065	-0.0134035	-0.0798642	0.392883	0.333609	
0.974405	4.1275	0	0	-0.012879	-0.003851	-0.049258	0.066207	0.003366	-0.004835	-0.091816	-0.015186	-0.137264	0.003088	-0.105563	0.13991	-0.036005	0.075896	-0.097574	0.168284	-0.062505	0.005181	-0.032396	0.101931	-0.004036	-0.063422	-0.061063	0.015788	-0.048475	-0.066046	-0.038529	0.065239	-0.01487	-0.087256	0.385676	0.329709	
0.978616	4.11835	0	0	-0.008004	-0.0070365	-0.050202	0.0688747	0.008749	-0.00835225	-0.0976023	-0.011405	-0.136352	0.00050875	-0.114896	0.146009	-0.0350982	0.073333	-0.0905097	0.163668	-0.0658543	0.0146462	-0.0338063	0.105917	-0.00502225	-0.060635	-0.061063	0.015788	-0.0507782	-0.0595367	-0.0376558	0.0726915	-0.014365	-0.0771468	0.385974	0.340995	
0.982411	4.11682	0	0	-0.003129	-0.010222	-0.051146	0.0715425	0.014132	-0.0118695	-0.103388	-0.007624	-0.135439	-0.0020705	-0.124229	0.152107	-0.0341915	0.07077	-0.0834455	0.159052	-0.0692035	0.0241115	-0.0352165	0.109903	-0.0060085	-0.057848	-0.061063	0.015788	-0.0530815	-0.0530275	-0.0367825	0.080144	-0.01386	-0.0670375	0.386273	0.352281	
0.984877	4.11072	0	0	0.001746	-0.0134075	-0.05209	0.0742103	0.019515	-0.0153868	-0.109175	-0.003843	-0.134526	-0.00464975	-0.133562	0.158205	-0.0332848	0.068207	-0.0763812	0.154436	-0.0725527	0.0335767	-0.0366267	0.113889	-0.00699475	-0.055061	-0.061063	0.015788	-0.0553848	-0.0465182	-0.0359092	0.0875965	-0.013355	-0.0569282	0.386572	0.363567	
0.985102	4.10614	0	0	0.006621	-0.016593	-0.053034	0.076878	0.024898	-0.018904	-0.114961	-6.2E-05	-0.133614	-0.007229	-0.142895	0.164304	-0.032378	0.065644	-0.069317	0.14982	-0.075902	0.043042	-0.038037	0.117875	-0.007981	-0.052274	-0.061063	0.015788	-0.057688	-0.040009	-0.035036	0.095049	-0.01285	-0.046819	0.38687	0.374853	
0.982173	4.11835	0	0	0.005272	-0.023372	-0.0526215	0.0663595	0.022546	-0.0239532	-0.102133	-0.011164	-0.138204	-0.014136	-0.140878	0.158603	-0.0333287	0.0583895	-0.0713293	0.140158	-0.0761935	0.0341377	-0.0425943	0.117788	-0.010574	-0.0570055	-0.0581452	0.00754175	-0.0510195	-0.0443663	-0.035036	0.095049	-0.0191215	-0.0406315	0.394078	0.378767	
0.975177	4.11682	0	0	0.003923	-0.030151	-0.052209	0.055841	0.020194	-0.0290025	-0.0893045	-0.022266	-0.142793	-0.021043	-0.13886	0.152902	-0.0342795	0.051135	-0.0733415	0.130497	-0.076485	0.0252335	-0.0471515	0.117702	-0.013167	-0.061737	-0.0552275	-0.0007045	-0.044351	-0.0487235	-0.035036	0.095049	-0.025393	-0.034444	0.401285	0.382681	
0.963201	4.1214	0	0	0.002574	-0.03693	-0.0517965	0.0453225	0.017842	-0.0340517	-0.0764762	-0.033368	-0.147382	-0.02795	-0.136843	0.147201	-0.0352302	0.0438805	-0.0753537	0.120835	-0.0767765	0.0163293	-0.0517087	0.117615	-0.01576	-0.0664685	-0.0523098	-0.00895075	-0.0376825	-0.0530808	-0.035036	0.095049	-0.0316645	-0.0282565	0.408493	0.386595	
0.945938	4.12903	0	0	0.001225	-0.043709	-0.051384	0.034804	0.01549	-0.039101	-0.063648	-0.04447	-0.151972	-0.034857	-0.134826	0.1415	-0.036181	0.036626	-0.077366	0.111173	-0.077068	0.007425	-0.056266	0.117529	-0.018353	-0.0712	-0.049392	-0.017197	-0.031014	-0.057438	-0.035036	0.095049	-0.037936	-0.022069	0.415701	0.390509	
0.926167	4.15344	0	0	0.001225	-0.043709	-0.05327	0.0401343	0.01448	-0.0362465	-0.07069	-0.037149	-0.159289	-0.034034	-0.134826	0.1415	-0.0389432	0.0344962	-0.0844243	0.115785	-0.0787417	0.0121552	-0.0517087	0.117615	-0.013788	-0.0720415	-0.0564562	-0.012581	-0.027798	-0.0520263	-0.0341648	0.102512	-0.0287377	-0.0134332	0.425867	0.398263	
0.907645	4.13666	0	0	0.001225	-0.043709	-0.055156	0.0454645	0.01347	-0.033392	-0.077732	-0.029828	-0.166606	-0.033211	-0.134826	0.1415	-0.0417055	0.0323665	-0.0914825	0.120397	-0.0804155	0.0168855	-0.0471515	0.117702	-0.009223	-0.072883	-0.0635205	-0.007965	-0.024582	-0.0466145	-0.0332935	0.109976	-0.0195395	-0.0047975	0.436033	0.406017	
0.894129	4.12598	0	0	0.001225	-0.043709	-0.057042	0.0507947	0.01246	-0.0305375	-0.084774	-0.022507	-0.173924	-0.032388	-0.134826	0.1415	-0.0444678	0.0302367	-0.0985407	0.12501	-0.0820893	0.0216157	-0.0425943	0.117788	-0.004658	-0.0737245	-0.0705848	-0.003349	-0.021366	-0.0412028	-0.0324222	0.117439	-0.0103412	0.00383825	0.446199	0.413771	
0.889377	4.12292	0	0	0.001225	-0.043709	-0.058928	0.056125	0.01145	-0.027683	-0.091816	-0.015186	-0.181241	-0.031565	-0.134826	0.1415	-0.04723	0.028107	-0.105599	0.129622	-0.083763	0.026346	-0.038037	0.117875	-9.3E-05	-0.074566	-0.077649	0.001267	-0.01815	-0.035791	-0.031551	0.124902	-0.001143	0.012474	0.456365	0.421525	
0.897147	4.12292	0	0	-0.00364725	-0.0405255	-0.057042	0.0507947	0.0070805	-0.0270222	-0.0905642	-0.0187235	-0.18673	-0.0358885	-0.140119	0.136201	-0.0509428	0.018743	-0.107608	0.119975	-0.0876927	0.0180098	-0.0457388	0.113719	0.000265	-0.0876372	-0.0747338	-0.0069715	-0.01815	-0.035791	-0.0342703	0.122661	-0.00838775	0.0213983	0.459315	0.425364	
0.921195	4.11072	0	0	-0.0085195	-0.037342	-0.055156	0.0454645	0.002711	-0.0263615	-0.0893125	-0.022261	-0.192219	-0.040212	-0.145411	0.130902	-0.0546555	0.009379	-0.109617	0.110329	-0.0916225	0.0096735	-0.0534405	0.109562	0.000623	-0.100708	-0.0718185	-0.01521	-0.01815	-0.035791	-0.0369895	0.12042	-0.0156325	0.0303225	0.462266	0.429203	
0.965168	4.11835	0	0	-0.0133917	-0.0341585	-0.05327	0.0401343	-0.0016585	-0.0257008	-0.0880607	-0.0257985	-0.197707	-0.0445355	-0.150703	0.125602	-0.0583682	1.5E-05	-0.111625	0.100683	-0.0955523	0.00133725	-0.0611423	0.105405	0.000981	-0.11378	-0.0689032	-0.0234485	-0.01815	-0.035791	-0.0397088	0.11818	-0.0228772	0.0392467	0.465217	0.433043	
1.02612	4.11529	0	0	-0.018264	-0.030975	-0.051384	0.034804	-0.006028	-0.02504	-0.086809	-0.029336	-0.203196	-0.048859	-0.155996	0.120303	-0.062081	-0.009349	-0.113634	0.091036	-0.099482	-0.006999	-0.068844	0.101249	0.001339	-0.126851	-0.065988	-0.031687	-0.01815	-0.035791	-0.042428	0.115939	-0.030122	0.048171	0.468167	0.436882	
1.09098	4.10766	0	0	-0.0169177	-0.024194	-0.0508525	0.0426548	-0.00469075	-0.0171315	-0.093847	-0.0220175	-0.204106	-0.0462878	-0.155996	0.120303	-0.062081	-0.009349	-0.111954	0.0862895	-0.10199	8.975E-05	-0.0656995	0.105319	-0.00519175	-0.120446	-0.0759618	-0.0188365	-0.0160875	-0.0271083	-0.035192	0.125282	-0.0349488	0.0618115	0.459906	0.448052	
1.1458	4.10461	0	0	-0.0155715	-0.017413	-0.050321	0.0505055	-0.0033535	-0.009223	-0.100885	-0.014699	-0.205015	-0.0437165	-0.155996	0.120303	-0.062081	-0.009349	-0.110275	0.081543	-0.104498	0.0071785	-0.062555	0.109389	-0.0117225	-0.11404	-0.0859355	-0.005986	-0.014025	-0.0184255	-0.027956	0.134626	-0.0397755	0.075452	0.451645	0.459222	
1.17664	4.09851	0	0	-0.0142253	-0.010632	-0.0497895	0.0583562	-0.00201625	-0.0013145	-0.107923	-0.0073805	-0.205925	-0.0411452	-0.155996	0.120303	-0.062081	-0.009349	-0.108595	0.0767965	-0.107007	0.0142673	-0.0594105	0.113459	-0.0182532	-0.107635	-0.0959093	0.0068645	-0.0119625	-0.00974275	-0.02072	0.143969	-0.0446022	0.0890925	0.443383	0.470392	
1.16956	4.09393	0	0	-0.012879	-0.003851	-0.049258	0.066207	-0.000679	0.006594	-0.114961	-6.2E-05	-0.206835	-0.038574	-0.155996	0.120303	-0.062081	-0.009349	-0.106916	0.07205	-0.109515	0.021356	-0.056266	0.117529	-0.024784	-0.10123	-0.105883	0.019715	-0.0099	-0.00106	-0.013484	0.153312	-0.049429	0.102733	0.435122	0.481562	
1.1106	4.10004	0	0	-0.012879	-0.003851	-0.0526188	0.0663528	-0.00169025	0.00945225	-0.113709	-0.00359975	-0.213226	-0.040326	-0.15801	0.125997	-0.0602743	-0.0144552	-0.106916	0.07205	-0.11511	0.0177465	-0.0608197	0.117442	-0.021833	-0.10957	-0.104425	0.0155948	-0.0188898	0.00983475	-0.0162638	0.161168	-0.0532955	0.113661	0.431133	0.492836	
0.985833	4.09851	0	0	-0.012879	-0.003851	-0.0559795	0.0664985	-0.0027015	0.0123105	-0.112457	-0.0071375	-0.219617	-0.042078	-0.160025	0.13169	-0.0584675	-0.0195615	-0.106916	0.07205	-0.120706	0.014137	-0.0653735	0.117354	-0.018882	-0.11791	-0.102967	0.0114745	-0.0278795	0.0207295	-0.0190435	0.169023	-0.057162	0.124588	0.427144	0.504109	
0.787713	4.09546	0	0	-0.012879	-0.003851	-0.0593403	0.0666443	-0.00371275	0.0151688	-0.111206	-0.0106753	-0.226009	-0.04383	-0.16204	0.137384	-0.0566607	-0.0246677	-0.106916	0.07205	-0.126301	0.0105275	-0.0699272	0.117266	-0.015931	-0.12625	-0.101509	0.00735425	-0.0368692	0.0316242	-0.0218232	0.176879	-0.0610285	0.135516	0.423155	0.515383	
0.561185	4.10309	0	0	-0.012879	-0.003851	-0.062701	0.06679	-0.004724	0.018027	-0.109954	-0.014213	-0.2324	-0.045582	-0.164054	0.143078	-0.054854	-0.029774	-0.106916	0.07205	-0.131896	0.006918	-0.074481	0.117179	-0.01298	-0.13459	-0.100051	0.003234	-0.045859	0.042519	-0.024603	0.184735	-0.064895	0.146444	0.419166	0.526657	
0.37691	4.10614	0	0	-0.0115338	0.002939	-0.065533	0.0747935	-0.00776	0.0266072	-0.115736	-0.0104345	-0.23239	-0.0357055	-0.168087	0.154477	-0.052996	-0.0250987	-0.101543	0.0721883	-0.133568	0.011642	-0.0699272	0.117266	-0.014947	-0.129031	-0.102968	0.0114765	-0.0548452	0.053415	-0.027385	0.192598	-0.0634502	0.153911	0.415172	0.537945	
0.294228	4.10919	0	0	-0.0101885	0.009729	-0.068365	0.082797	-0.010796	0.0351875	-0.121519	-0.006656	-0.23238	-0.025829	-0.172121	0.165875	-0.051138	-0.0204235	-0.09617	0.0723265	-0.135239	0.016366	-0.0653735	0.117354	-0.016914	-0.123471	-0.105884	0.019719	-0.0638315	0.064311	-0.030167	0.20046	-0.0620055	0.161378	0.411177	0.549233	
0.306362	4.11682	0	0	-0.00884325	0.016519	-0.071197	0.0908005	-0.013832	0.0437678	-0.127302	-0.0028775	-0.23237	-0.0159525	-0.176154	0.177274	-0.04928	-0.0157482	-0.090797	0.0724647	-0.136911	0.02109	-0.0608197	0.117442	-0.018881	-0.117912	-0.1088	0.0279615	-0.0728178	0.075207	-0.032949	0.208322	-0.0605607	0.168846	0.407183	0.56052	
0.382949	4.1214	0	0	-0.007498	0.023309	-0.074029	0.098804	-0.016868	0.052348	-0.133084	0.000901	-0.23236	-0.006076	-0.180187	0.188672	-0.047422	-0.011073	-0.085424	0.072603	-0.138582	0.025814	-0.056266	0.117529	-0.020848	-0.112353	-0.111717	0.036204	-0.081804	0.086103	-0.035731	0.216185	-0.059116	0.176313	0.403189	0.571808	
0.493594	4.12292	0	0	-0.0106075	0.0215053	-0.0754995	0.0936117	-0.0212353	0.0530023	-0.130582	-0.00617	-0.236009	-0.00566975	-0.17817	0.182971	-0.0528945	-0.005533	-0.090797	0.0724647	-0.141091	0.0329045	-0.06364	0.125412	-0.027375	-0.10595	-0.113176	0.040328	-0.07424	0.0937375	-0.036727	0.228941	-0.072189	0.201709	0.400251	0.567941	
0.607915	4.1336	0	0	-0.013717	0.0197015	-0.07697	0.0884195	-0.0256025	0.0536565	-0.12808	-0.013241	-0.239657	-0.0052635	-0.176152	0.17727	-0.058367	7E-06	-0.09617	0.0723265	-0.143599	0.039995	-0.071014	0.133294	-0.033902	-0.0995475	-0.114636	0.044452	-0.066676	0.101372	-0.037723	0.241697	-0.085262	0.227105	0.397313	0.564074	
0.703175	4.13971	0	0	-0.0168265	0.0178978	-0.0784405	0.0832273	-0.0299697	0.0543107	-0.125578	-0.020312	-0.243306	-0.00485725	-0.174135	0.171569	-0.0638395	0.005547	-0.101543	0.0721883	-0.146108	0.0470855	-0.078388	0.141176	-0.040429	-0.0931447	-0.116095	0.048576	-0.059112	0.109006	-0.038719	0.254453	-0.098335	0.252501	0.394376	0.560207	
0.778074	4.15192	0	0	-0.019936	0.016094	-0.079911	0.078035	-0.034337	0.054965	-0.123076	-0.027383	-0.246954	-0.004451	-0.172118	0.165868	-0.069312	0.011087	-0.106916	0.07205	-0.148617	0.054176	-0.085762	0.149059	-0.046956	-0.086742	-0.117554	0.0527	-0.051548	0.116641	-0.039715	0.267209	-0.111408	0.277897	0.391438	0.55634	
0.835041	4.15802	0	0	-0.0194763	0.0253867	-0.0760255	0.0857542	-0.0383882	0.0664145	-0.124327	-0.0238483	-0.246949	0.00544025	-0.174135	0.171569	-0.0637915	0.015342	-0.096165	0.0723253	-0.147497	0.0607193	-0.0766535	0.14924	-0.0499097	-0.0783945	-0.114877	0.0604715	-0.0561865	0.12975	-0.0315547	0.274004	-0.109977	0.285405	0.370136	0.555814	
0.876504	4.17175	0	0	-0.0190165	0.0346795	-0.07214	0.0934735	-0.0424395	0.077864	-0.125578	-0.0203135	-0.246945	0.0153315	-0.176152	0.17727	-0.058271	0.019597	-0.085414	0.0726005	-0.146377	0.0672625	-0.067545	0.149421	-0.0528635	-0.070047	-0.112201	0.068243	-0.060825	0.14286	-0.0233945	0.280798	-0.108547	0.292912	0.348834	0.555288	
0.904891	4.17633	0	0	-0.0185567	0.0439722	-0.0682545	0.101193	-0.0464907	0.0893135	-0.126828	-0.0167788	-0.24694	0.0252228	-0.17817	0.182971	-0.0527505	0.023852	-0.074663	0.0728757	-0.145257	0.0738058	-0.0584365	0.149603	-0.0558172	-0.0616995	-0.109524	0.0760145	-0.0654635	0.155969	-0.0152342	0.287593	-0.107117	0.30042	0.327531	0.554763	
0.922631	4.18548	0	0	-0.018097	0.053265	-0.064369	0.108912	-0.050542	0.100763	-0.128079	-0.013244	-0.246935	0.035114	-0.180187	0.188672	-0.04723	0.028107	-0.063912	0.073151	-0.144137	0.080349	-0.049328	0.149784	-0.058771	-0.053352	-0.106847	0.083786	-0.070102	0.169078	-0.007074	0.294388	-0.105686	0.307927	0.306229	0.554237	
0.932151	4.19769	0	0	-0.018097	0.053265	-0.0686735	0.111725	-0.0485157	0.0950365	-0.126828	-0.0167788	-0.246024	0.052365	-0.174902	0.193993	-0.047186	0.037919	-0.0689585	0.0874132	-0.143018	0.0869007	-0.056708	0.157675	-0.0561845	-0.0486185	-0.109771	0.092051	-0.0724237	0.17564	-0.00893675	0.299652	-0.0955547	0.31399	0.296662	0.569152	
0.93582	4.20227	0	0	-0.018097	0.053265	-0.072978	0.114537	-0.0464895	0.08931	-0.125578	-0.0203135	-0.245113	0.069616	-0.169618	0.199314	-0.047142	0.047731	-0.074005	0.101676	-0.1419	0.0934525	-0.064088	0.165566	-0.053598	-0.043885	-0.112696	0.100316	-0.0747455	0.182202	-0.0107995	0.304916	-0.0854235	0.320053	0.287096	0.584066	
0.935239	4.21448	0	0	-0.018097	0.053265	-0.0772825	0.117349	-0.0444633	0.0835835	-0.124327	-0.0238483	-0.244203	0.086867	-0.164333	0.204635	-0.047098	0.057543	-0.0790515	0.115938	-0.140781	0.100004	-0.071468	0.173456	-0.0510115	-0.0391515	-0.115621	0.108581	-0.0770673	0.188763	-0.0126622	0.310181	-0.0752923	0.326117	0.277529	0.59898	
0.931493	4.22211	0	0	-0.018097	0.053265	-0.081587	0.120162	-0.042437	0.077857	-0.123076	-0.027383	-0.243292	0.104118	-0.159048	0.209956	-0.047054	0.067355	-0.084098	0.1302	-0.139662	0.106556	-0.078848	0.181347	-0.048425	-0.034418	-0.118545	0.116846	-0.079389	0.195325	-0.014525	0.315445	-0.065161	0.33218	0.267963	0.613895	
0.925656	4.23279	0	0	-0.018981	0.0557627	-0.0801185	0.125365	-0.0380705	0.0772045	-0.118544	-0.0276265	-0.235999	0.12322	-0.15049	0.226349	-0.0387238	0.083611	-0.0750183	0.13525	-0.146087	0.105291	-0.0732025	0.165392	-0.053968	-0.030796	-0.122679	0.113193	-0.079389	0.195325	-0.0181765	0.315807	-0.0704873	0.33566	0.296436	0.618446	
0.918804	4.24194	0	0	-0.019865	0.0582605	-0.07865	0.130568	-0.033704	0.076552	-0.114013	-0.02787	-0.228706	0.142321	-0.141932	0.242741	-0.0303935	0.099867	-0.0659385	0.140299	-0.152512	0.104026	-0.067557	0.149438	-0.059511	-0.027174	-0.126813	0.10954	-0.079389	0.195325	-0.021828	0.316169	-0.0758135	0.33914	0.324909	0.622997	
0.912011	4.2511	0	0	-0.020749	0.0607583	-0.0771815	0.135771	-0.0293375	0.0758995	-0.109481	-0.0281135	-0.221412	0.161423	-0.133374	0.259134	-0.0220632	0.116123	-0.0568587	0.145348	-0.158936	0.102762	-0.0619115	0.133484	-0.065054	-0.023552	-0.130947	0.105887	-0.079389	0.195325	-0.0254795	0.316532	-0.0811397	0.342621	0.353383	0.627548	
0.906352	4.26025	0	0	-0.021633	0.063256	-0.075713	0.140974	-0.024971	0.075247	-0.104949	-0.028357	-0.214119	0.180525	-0.124816	0.275526	-0.013733	0.132379	-0.047779	0.150398	-0.165361	0.101497	-0.056266	0.117529	-0.070597	-0.01993	-0.135081	0.102234	-0.079389	0.195325	-0.029131	0.316894	-0.086466	0.346101	0.381856	0.632099	
0.902883	4.26483	0	0	-0.032289	0.0510408	-0.075819	0.122573	-0.033005	0.062909	-0.110261	-0.0384627	-0.213214	0.187908	-0.12279	0.269799	-0.012787	0.139669	-0.04239	0.150541	-0.165361	0.101497	-0.0565942	0.105499	-0.0816725	-0.012693	-0.132159	0.0939765	-0.0872295	0.202972	-0.0327803	0.317255	-0.0860125	0.356392	0.396011	0.628651	
0.901985	4.27246	0	0	-0.042945	0.0388255	-0.075925	0.104172	-0.041039	0.050571	-0.115573	-0.0485685	-0.212308	0.19529	-0.120763	0.264073	-0.011841	0.146958	-0.037001	0.150684	-0.165361	0.101497	-0.0569225	0.09347	-0.092748	-0.005456	-0.129237	0.085719	-0.09507	0.210618	-0.0364295	0.317616	-0.085559	0.366683	0.410166	0.625203	
0.9032	4.27856	0	0	-0.053601	0.0266103	-0.076031	0.085771	-0.049073	0.038233	-0.120886	-0.0586742	-0.211402	0.202672	-0.118737	0.258347	-0.010895	0.154247	-0.031612	0.150828	-0.165361	0.101497	-0.0572507	0.0814405	-0.103823	0.001781	-0.126315	0.0774615	-0.102911	0.218265	-0.0400788	0.317978	-0.0851055	0.376974	0.424322	0.621755	
0.906019	4.28772	0	0	-0.064257	0.014395	-0.076137	0.06737	-0.057107	0.025895	-0.126198	-0.06878	-0.210497	0.210055	-0.116711	0.25262	-0.009949	0.161537	-0.026223	0.150971	-0.165361	0.101497	-0.057579	0.069411	-0.114899	0.009018	-0.123393	0.069204	-0.110751	0.225912	-0.043728	0.318339	-0.084652	0.387265	0.438477	0.618307	
0.90993	4.28772	0	0	-0.0713385	0.0132792	-0.0828492	0.067658	-0.0648125	0.0243462	-0.136495	-0.0647637	-0.206837	0.209658	-0.126054	0.258725	-0.00627175	0.161112	-0.0228505	0.14144	-0.165361	0.101497	-0.0519537	0.0535132	-0.115885	0.011805	-0.127526	0.0655623	-0.113942	0.220428	-0.0491598	0.313801	-0.0817275	0.379	0.432318	0.599156	
0.914425	4.29535	0	0	-0.07842	0.0121635	-0.0895615	0.067946	-0.072518	0.0227975	-0.146792	-0.0607475	-0.203177	0.209262	-0.135398	0.26483	-0.0025945	0.160688	-0.019478	0.131909	-0.165361	0.101497	-0.0463285	0.0376155	-0.116872	0.014592	-0.13166	0.0619205	-0.117132	0.214944	-0.0545915	0.309264	-0.078803	0.370735	0.42616	0.580004	
0.918991	4.29687	0	0	-0.0855015	0.0110478	-0.0962737	0.068234	-0.0802235	0.0212488	-0.15709	-0.0567312	-0.199517	0.208865	-0.144741	0.270935	0.00108275	0.160264	-0.0161055	0.122378	-0.165361	0.101497	-0.0407032	0.0217178	-0.117858	0.017379	-0.135794	0.0582787	-0.120322	0.209461	-0.0600233	0.304726	-0.0758785	0.362469	0.420001	0.560852	
0.92312	4.29687	0	0	-0.092583	0.009932	-0.102986	0.068522	-0.087929	0.0197	-0.167387	-0.052715	-0.195857	0.208469	-0.154084	0.27704	0.00476	0.159839	-0.012733	0.112847	-0.165361	0.101497	-0.035078	0.00582	-0.118844	0.020166	-0.139927	0.054637	-0.123513	0.203977	-0.065455	0.300188	-0.072954	0.354204	0.413842	0.541701	
0.926425	4.30298	0	0	-0.100536	0.0113025	-0.108749	0.0661455	-0.0922822	0.0203512	-0.169412	-0.0595217	-0.196775	0.211065	-0.150035	0.265598	0.00017225	0.162837	-0.018124	0.112709	-0.162292	0.112245	-0.03052	0.005895	-0.117256	0.0277048	-0.141386	0.058761	-0.132503	0.214896	-0.0618095	0.299827	-0.070549	0.358987	0.415173	0.53794	
0.928974	4.30603	0	0	-0.108489	0.012673	-0.114512	0.063769	-0.0966355	0.0210025	-0.171437	-0.0663285	-0.197694	0.21366	-0.145987	0.254156	-0.0044155	0.165834	-0.023515	0.112571	-0.159222	0.122993	-0.025962	0.00597	-0.115667	0.0352435	-0.142846	0.062885	-0.141493	0.225816	-0.058164	0.299465	-0.068144	0.363769	0.416504	0.534179	
0.930936	4.30755	0	0	-0.116442	0.0140435	-0.120274	0.0613925	-0.100989	0.0216537	-0.173462	-0.0731352	-0.198612	0.216256	-0.141939	0.242714	-0.00900325	0.168832	-0.028906	0.112432	-0.156153	0.13374	-0.021404	0.006045	-0.114078	0.0427822	-0.144305	0.067009	-0.150484	0.236735	-0.0545185	0.299104	-0.065739	0.368552	0.417835	0.530418	
0.932481	4.30603	0	0	-0.124395	0.015414	-0.126037	0.059016	-0.105342	0.022305	-0.175487	-0.079942	-0.199531	0.218852	-0.13789	0.231272	-0.013591	0.17183	-0.034297	0.112294	-0.153084	0.144488	-0.016846	0.00612	-0.11249	0.050321	-0.145764	0.071133	-0.159474	0.247654	-0.050873	0.298743	-0.063334	0.373335	0.419166	0.526657	
0.933778	4.30755	0	0	-0.134098	0.021754	-0.125095	0.0563545	-0.111711	0.0286597	-0.175487	-0.079942	-0.201354	0.214058	-0.133847	0.219844	-0.0108603	0.164112	-0.03093	0.102778	-0.152245	0.142116	-0.0154405	0.00214825	-0.119014	0.0567297	-0.142846	0.062887	-0.157152	0.241092	-0.056303	0.294211	-0.0618438	0.357544	0.417554	0.519043	
0.934999	4.30755	0	0	-0.1438	0.028094	-0.124153	0.053693	-0.11808	0.0350145	-0.175487	-0.079942	-0.203178	0.209265	-0.129803	0.208417	-0.0081295	0.156394	-0.027563	0.0932625	-0.151405	0.139744	-0.014035	-0.0018235	-0.125537	0.0631385	-0.139929	0.054641	-0.15483	0.234531	-0.061733	0.28968	-0.0603535	0.341753	0.415941	0.511429	
0.936312	4.30908	0	0	-0.153503	0.034434	-0.123212	0.0510315	-0.124449	0.0413693	-0.175487	-0.079942	-0.205002	0.204472	-0.125759	0.19699	-0.00539875	0.148677	-0.024196	0.0837468	-0.150566	0.137373	-0.0126295	-0.00579525	-0.132061	0.0695473	-0.137011	0.046395	-0.152509	0.227969	-0.067163	0.285149	-0.0588632	0.325961	0.414329	0.503816	
0.93788	4.31213	0	0	-0.163206	0.040774	-0.12227	0.04837	-0.130818	0.047724	-0.175487	-0.079942	-0.206825	0.199678	-0.121716	0.185562	-0.002668	0.140959	-0.020829	0.074231	-0.149727	0.135001	-0.011224	-0.009767	-0.138584	0.075956	-0.134093	0.038149	-0.150187	0.221407	-0.072593	0.280617	-0.057373	0.31017	0.412717	0.496202	
0.939729	4.31061	0	0	-0.166729	0.0507302	-0.121745	0.056215	-0.127478	0.0499303	-0.175487	-0.079942	-0.205907	0.197084	-0.129029	0.185952	-0.00543425	0.138814	-0.0174655	0.0647252	-0.146093	0.13445	-0.0171875	-0.00587025	-0.14056	0.081541	-0.14114	0.0427535	-0.152509	0.227969	-0.071664	0.277992	-0.057373	0.31017	0.419647	0.488787	
0.941757	4.30603	0	0	-0.170252	0.0606865	-0.12122	0.06406	-0.124138	0.0521365	-0.175487	-0.079942	-0.204989	0.194491	-0.136343	0.186343	-0.0082005	0.136669	-0.014102	0.0552195	-0.14246	0.133899	-0.023151	-0.0019735	-0.142537	0.087126	-0.148186	0.047358	-0.15483	0.234531	-0.070735	0.275366	-0.057373	0.31017	0.426577	0.481372	
0.943861	4.30603	0	0	-0.173775	0.0706428	-0.120695	0.071905	-0.120799	0.0543428	-0.175487	-0.079942	-0.204072	0.191897	-0.143656	0.186733	-0.0109668	0.134524	-0.0107385	0.0457137	-0.138826	0.133348	-0.0291145	0.00192325	-0.144513	0.092711	-0.155233	0.0519625	-0.157152	0.241092	-0.069806	0.27274	-0.057373	0.31017	0.433506	0.473958	
0.945933	4.30145	0	0	-0.177298	0.080599	-0.12017	0.07975	-0.117459	0.056549	-0.175487	-0.079942	-0.203154	0.189304	-0.150969	0.187123	-0.013733	0.132379	-0.007375	0.036208	-0.135192	0.132797	-0.035078	0.00582	-0.146489	0.098296	-0.16228	0.056567	-0.159474	0.247654	-0.068877	0.270115	-0.057373	0.31017	0.440436	0.466543	
0.947871	4.29993	0	0	-0.179061	0.085581	-0.119228	0.0770862	-0.114117	0.0587567	-0.174241	-0.0834643	-0.205887	0.177149	-0.144917	0.17002	-0.0128645	0.119967	-0.00772875	0.0218467	-0.139942	0.126789	-0.0382285	0.0017755	-0.149058	0.0935347	-0.157909	0.044212	-0.163816	0.245446	-0.0697345	0.262607	-0.0655655	0.298628	0.428953	0.462512	
0.949568	4.29687	0	0	-0.180824	0.090563	-0.118285	0.0744225	-0.110775	0.0609645	-0.172994	-0.0869865	-0.20862	0.164994	-0.138866	0.152917	-0.011996	0.107555	-0.0080825	0.0074855	-0.144692	0.12078	-0.041379	-0.002269	-0.151626	0.0887735	-0.153537	0.031857	-0.168157	0.243239	-0.070592	0.255099	-0.073758	0.287086	0.417469	0.458482	
0.950919	4.29687	0	0	-0.182586	0.095545	-0.117343	0.0717588	-0.107434	0.0631722	-0.171748	-0.0905087	-0.211352	0.152838	-0.132814	0.135814	-0.0111275	0.095143	-0.00843625	-0.00687575	-0.149442	0.114772	-0.0445295	-0.0063135	-0.154195	0.0840122	-0.149166	0.019502	-0.172498	0.241031	-0.0714495	0.247592	-0.0819505	0.275544	0.405985	0.454452	
0.951858	4.28772	0	0	-0.184349	0.100527	-0.1164	0.069095	-0.104092	0.06538	-0.170502	-0.094031	-0.214085	0.140683	-0.126762	0.118711	-0.010259	0.082731	-0.00879	-0.021237	-0.154192	0.108764	-0.04768	-0.010358	-0.156763	0.079251	-0.144794	0.007147	-0.17684	0.238823	-0.072307	0.240084	-0.090143	0.264002	0.394502	0.450421	
0.952511	4.28772	0	0	-0.184793	0.112321	-0.11441	0.0821433	-0.103784	0.0761695	-0.171748	-0.0905087	-0.212254	0.135509	-0.126762	0.118711	-0.0130245	0.0805945	-0.00879	-0.021237	-0.156707	0.115873	-0.04768	-0.010358	-0.158739	0.0848342	-0.147708	0.0153817	-0.17684	0.238823	-0.070452	0.234841	-0.087232	0.255775	0.404367	0.446857	
0.953063	4.28772	0	0	-0.185238	0.124116	-0.11242	0.0951915	-0.103476	0.086959	-0.172994	-0.0869865	-0.210423	0.130335	-0.126762	0.118711	-0.01579	0.078458	-0.00879	-0.021237	-0.159223	0.122983	-0.04768	-0.010358	-0.160715	0.0904175	-0.150622	0.0236165	-0.17684	0.238823	-0.068597	0.229599	-0.084321	0.247548	0.414231	0.443292	
0.953699	4.28009	0	0	-0.185683	0.13591	-0.11043	0.10824	-0.103169	0.0977485	-0.174241	-0.0834643	-0.208593	0.125161	-0.126762	0.118711	-0.0185555	0.0763215	-0.00879	-0.021237	-0.161739	0.130092	-0.04768	-0.010358	-0.16269	0.0960007	-0.153535	0.0318512	-0.17684	0.238823	-0.066742	0.224357	-0.08141	0.23932	0.424096	0.439728	
0.954604	4.27551	0	0	-0.186127	0.147704	-0.10844	0.121288	-0.102861	0.108538	-0.175487	-0.079942	-0.206762	0.119987	-0.126762	0.118711	-0.021321	0.074185	-0.00879	-0.021237	-0.164254	0.137202	-0.04768	-0.010358	-0.164666	0.101584	-0.156449	0.040086	-0.17684	0.238823	-0.064887	0.219114	-0.078499	0.231093	0.433961	0.436164	
0.955964	4.27399	0	0	-0.186127	0.147704	-0.107495	0.118619	-0.102861	0.108538	-0.174241	-0.0834643	-0.202189	0.107065	-0.134071	0.119109	-0.0204602	0.0618055	-0.00376225	-0.0354465	-0.162856	0.123542	-0.0508287	-0.014398	-0.170783	0.0948553	-0.156449	0.040086	-0.187831	0.240964	-0.0775872	0.215336	-0.081876	0.229086	0.421443	0.447226	
0.957963	4.27246	0	0	-0.186127	0.147704	-0.106551	0.115951	-0.102861	0.108538	-0.172994	-0.0869865	-0.197617	0.0941425	-0.141379	0.119507	-0.0195995	0.049426	0.0012655	-0.049656	-0.161458	0.109881	-0.0539775	-0.018438	-0.176901	0.0881265	-0.156449	0.040086	-0.198823	0.243105	-0.0902875	0.211558	-0.085253	0.227079	0.408925	0.458289	
0.960786	4.26788	0	0	-0.186127	0.147704	-0.105607	0.113282	-0.102861	0.108538	-0.171748	-0.0905087	-0.193045	0.0812202	-0.148688	0.119905	-0.0187388	0.0370465	0.00629325	-0.0638655	-0.160059	0.0962212	-0.0571263	-0.022478	-0.183018	0.0813977	-0.156449	0.040086	-0.209814	0.245246	-0.102988	0.207779	-0.08863	0.225073	0.396407	0.469352	
0.964485	4.26178	0	0	-0.186127	0.147704	-0.104662	0.110613	-0.102861	0.108538	-0.170502	-0.094031	-0.188472	0.068298	-0.155996	0.120303	-0.017878	0.024667	0.011321	-0.078075	-0.158661	0.082561	-0.060275	-0.026518	-0.189135	0.074669	-0.156449	0.040086	-0.220805	0.247387	-0.115688	0.204001	-0.092007	0.223066	0.383889	0.480414	
0.968854	4.2572	0	0	-0.185693	0.157022	-0.0998383	0.115671	-0.101544	0.116482	-0.165981	-0.094277	-0.186642	0.0730607	-0.146673	0.114211	-0.01969	0.0297878	0.016716	-0.0779608	-0.162012	0.0920315	-0.0571263	-0.022478	-0.191109	0.080247	-0.148185	0.0473655	-0.220805	0.247387	-0.114763	0.201385	-0.0929765	0.225806	0.391096	0.484361	
0.973656	4.26025	0	0	-0.185259	0.16634	-0.0950145	0.120729	-0.100227	0.124427	-0.161461	-0.094523	-0.184811	0.0778235	-0.13735	0.108119	-0.021502	0.0349085	0.022111	-0.0778465	-0.165363	0.101502	-0.0539775	-0.018438	-0.193082	0.085825	-0.139921	0.054645	-0.220805	0.247387	-0.113837	0.19877	-0.093946	0.228546	0.398303	0.488308	
0.978655	4.25567	0	0	-0.184826	0.175657	-0.0901908	0.125788	-0.09891	0.132372	-0.15694	-0.094769	-0.18298	0.0825862	-0.128027	0.102028	-0.023314	0.0400293	0.027506	-0.0777323	-0.168714	0.110973	-0.0508287	-0.014398	-0.195056	0.091403	-0.131657	0.0619245	-0.220805	0.247387	-0.112911	0.196154	-0.0949155	0.231285	0.40551	0.492255	
0.983614	4.2511	0	0	-0.184392	0.184975	-0.085367	0.130846	-0.097593	0.140316	-0.152419	-0.095015	-0.18115	0.087349	-0.118704	0.095936	-0.025126	0.04515	0.032901	-0.077618	-0.172065	0.120443	-0.04768	-0.010358	-0.19703	0.096981	-0.123393	0.069204	-0.220805	0.247387	-0.111986	0.193539	-0.095885	0.234025	0.412717	0.496202	
0.988299	4.24805	0	0	-0.18836	0.185647	-0.078228	0.120023	-0.100936	0.138096	-0.151173	-0.0985373	-0.180235	0.0847645	-0.118704	0.095936	-0.0242197	0.0425893	0.032901	-0.077618	-0.174855	0.118625	-0.053635	-0.00646675	-0.19407	0.0886153	-0.124854	0.0733318	-0.227453	0.251731	-0.119251	0.194266	-0.105538	0.238226	0.412998	0.507577	
0.992471	4.24805	0	0	-0.192329	0.186318	-0.071089	0.1092	-0.104278	0.135877	-0.149927	-0.102059	-0.179321	0.08218	-0.118704	0.095936	-0.0233135	0.0400285	0.032901	-0.077618	-0.177645	0.116807	-0.05959	-0.0025755	-0.19111	0.0802495	-0.126314	0.0774595	-0.234101	0.256074	-0.126516	0.194993	-0.115192	0.242428	0.41328	0.518952	
0.995897	4.24347	0	0	-0.196298	0.18699	-0.06395	0.0983762	-0.107621	0.133657	-0.14868	-0.105582	-0.178407	0.0795955	-0.118704	0.095936	-0.0224073	0.0374678	0.032901	-0.077618	-0.180435	0.114988	-0.065545	0.00131575	-0.18815	0.0718837	-0.127775	0.0815873	-0.240749	0.260418	-0.13378	0.19572	-0.124845	0.246629	0.413561	0.530326	
0.998476	4.23736	0	0	-0.200266	0.187662	-0.056811	0.087553	-0.110964	0.131437	-0.147434	-0.109104	-0.177492	0.077011	-0.118704	0.095936	-0.021501	0.034907	0.032901	-0.077618	-0.183225	0.11317	-0.0715	0.005207	-0.18519	0.063518	-0.129236	0.085715	-0.247397	0.264762	-0.141045	0.196447	-0.134498	0.25083	0.413842	0.541701	
1.00034	4.23889	0	0	-0.195413	0.184491	-0.0577555	0.0902225	-0.106608	0.130792	-0.146188	-0.112625	-0.171081	0.0887335	-0.115419	0.106929	-0.017783	0.044298	0.0420283	-0.072652	-0.184901	0.117906	-0.0697592	0.013226	-0.187163	0.0690942	-0.135085	0.102246	-0.246237	0.261485	-0.144674	0.196809	-0.126282	0.239146	0.412511	0.545463	
1.00164	4.23431	0	0	-0.19056	0.18132	-0.0587	0.092892	-0.102251	0.130147	-0.144943	-0.116146	-0.16467	0.100456	-0.112133	0.117923	-0.014065	0.053689	0.0511555	-0.067686	-0.186577	0.122643	-0.0680185	0.021245	-0.189136	0.0746705	-0.140934	0.118776	-0.245078	0.258209	-0.148303	0.197172	-0.118066	0.227462	0.41118	0.549226	
1.00255	4.23736	0	0	-0.185708	0.178149	-0.0596445	0.0955615	-0.0978952	0.129503	-0.143697	-0.119666	-0.158259	0.112179	-0.108848	0.128916	-0.010347	0.06308	0.0602827	-0.06272	-0.188253	0.127379	-0.0662777	0.029264	-0.191109	0.0802468	-0.146783	0.135306	-0.243919	0.254932	-0.151932	0.197535	-0.109849	0.215778	0.409848	0.552988	
1.0032	4.23431	0	0	-0.180855	0.174978	-0.060589	0.098231	-0.093539	0.128858	-0.142451	-0.123187	-0.151848	0.123901	-0.105563	0.13991	-0.006629	0.072471	0.06941	-0.057754	-0.189929	0.132115	-0.064537	0.037283	-0.193082	0.085823	-0.152632	0.151837	-0.242759	0.251655	-0.155561	0.197897	-0.101633	0.204094	0.408517	0.556751	
1.00376	4.23279	0	0	-0.179525	0.160675	-0.0616475	0.0825218	-0.0938452	0.118057	-0.144483	-0.129973	-0.147265	0.13087	-0.102279	0.15093	0.0016775	0.0788842	0.0677312	-0.05301	-0.190767	0.134484	-0.065943	0.0412565	-0.198604	0.089431	-0.147037	0.151362	-0.248243	0.25272	-0.154637	0.195284	-0.105974	0.204827	0.408517	0.556751	
1.00439	4.23279	0	0	-0.178194	0.146371	-0.062706	0.0668125	-0.0941515	0.107256	-0.146515	-0.136759	-0.142682	0.137839	-0.098995	0.16195	0.009984	0.0852975	0.0660525	-0.048266	-0.191605	0.136854	-0.067349	0.04523	-0.204126	0.093039	-0.141443	0.150888	-0.253726	0.253785	-0.153713	0.192672	-0.110316	0.20556	0.408517	0.556751	
1.00524	4.23431	0	0	-0.176864	0.132068	-0.0637645	0.0511032	-0.0944578	0.096455	-0.148548	-0.143545	-0.1381	0.144808	-0.095711	0.172969	0.0182905	0.0917108	0.0643738	-0.043522	-0.192444	0.139223	-0.068755	0.0492035	-0.209647	0.096647	-0.135849	0.150413	-0.25921	0.25485	-0.152788	0.190059	-0.114657	0.206293	0.408517	0.556751	
1.00639	4.23431	0	0	-0.175534	0.117765	-0.064823	0.035394	-0.094764	0.085654	-0.15058	-0.150331	-0.133517	0.151777	-0.092427	0.183989	0.026597	0.098124	0.062695	-0.038778	-0.193282	0.141592	-0.070161	0.053177	-0.215169	0.100255	-0.130254	0.149938	-0.264694	0.255915	-0.151864	0.187447	-0.118998	0.207026	0.408517	0.556751	
1.00779	4.23431	0	0	-0.17862	0.115948	-0.0629388	0.0300685	-0.092741	0.0799365	-0.15058	-0.150331	-0.124342	0.165752	-0.0818072	0.194643	0.0312715	0.11485	0.0667858	-0.019527	-0.191332	0.145785	-0.0670155	0.0572355	-0.213597	0.10781	-0.124655	0.149461	-0.262377	0.249368	-0.15094	0.184835	-0.115128	0.196088	0.408517	0.556751	
1.00935	4.23889	0	0	-0.181705	0.11413	-0.0610545	0.024743	-0.090718	0.074219	-0.15058	-0.150331	-0.115167	0.179727	-0.0711875	0.205298	0.035946	0.131576	0.0708765	-0.000276	-0.189383	0.149979	-0.06387	0.061294	-0.212026	0.115366	-0.119055	0.148985	-0.260061	0.24282	-0.150015	0.182223	-0.111258	0.18515	0.408517	0.556751	
1.01102	4.23736	0	0	-0.184791	0.112313	-0.0591703	0.0194175	-0.088695	0.0685015	-0.15058	-0.150331	-0.105992	0.193703	-0.0605677	0.215952	0.0406205	0.148302	0.0749672	0.018975	-0.187433	0.154172	-0.0607245	0.0653525	-0.210454	0.122921	-0.113456	0.148508	-0.257744	0.236273	-0.149091	0.179612	-0.107387	0.174213	0.408517	0.556751	
1.0127	4.24042	0	0	-0.187877	0.110496	-0.057286	0.014092	-0.086672	0.062784	-0.15058	-0.150331	-0.096817	0.207678	-0.049948	0.226606	0.045295	0.165028	0.079058	0.038226	-0.185483	0.158365	-0.057579	0.069411	-0.208882	0.130476	-0.107856	0.148032	-0.255427	0.229726	-0.148167	0.177	-0.103517	0.163275	0.408517	0.556751	
1.01433	4.23584	0	0	-0.191401	0.0993985	-0.062654	0.00124775	-0.0903305	0.0498125	-0.152613	-0.157107	-0.0940607	0.209878	-0.049948	0.226606	0.0471565	0.169757	0.0861573	0.033587	-0.189949	0.161283	-0.062131	0.0693277	-0.214404	0.134084	-0.113456	0.148508	-0.254269	0.226454	-0.149948	0.172144	-0.112193	0.164744	0.408517	0.556751	
1.01583	4.23889	0	0	-0.194925	0.088301	-0.068022	-0.0115965	-0.093989	0.036841	-0.154646	-0.163883	-0.0913045	0.212078	-0.049948	0.226606	0.049018	0.174486	0.0932565	0.028948	-0.194415	0.164201	-0.066683	0.0692445	-0.219925	0.137692	-0.119055	0.148985	-0.253112	0.223183	-0.151728	0.167287	-0.12087	0.166212	0.408517	0.556751	
1.01713	4.24194	0	0	-0.19845	0.0772035	-0.07339	-0.0244407	-0.0976475	0.0238695	-0.156679	-0.170659	-0.0885482	0.214278	-0.049948	0.226606	0.0508795	0.179215	0.100356	0.024309	-0.198881	0.167119	-0.071235	0.0691613	-0.225447	0.1413	-0.124655	0.149461	-0.251954	0.219911	-0.153509	0.16243	-0.129546	0.167681	0.408517	0.556751	
1.01815	4.23889	0	0	-0.201974	0.066106	-0.078758	-0.037285	-0.101306	0.010898	-0.158712	-0.177435	-0.085792	0.216478	-0.049948	0.226606	0.052741	0.183944	0.107455	0.01967	-0.203347	0.170037	-0.075787	0.069078	-0.230969	0.144908	-0.130254	0.149938	-0.250796	0.216639	-0.15529	0.157574	-0.138222	0.16915	0.408517	0.556751	
1.01882	4.23889	0	0	-0.196249	0.0604533	-0.0778185	-0.03994	-0.100297	0.008047	-0.154192	-0.177688	-0.083043	0.228704	-0.0426015	0.226211	0.0555498	0.196001	0.10071	0.0387323	-0.201399	0.174236	-0.0771942	0.073055	-0.227424	0.146887	-0.124655	0.149461	-0.253963	0.211168	-0.157993	0.15533	-0.135324	0.160961	0.405578	0.552887	
1.01905	4.24042	0	0	-0.190524	0.0548005	-0.076879	-0.042595	-0.0992885	0.005196	-0.149672	-0.177942	-0.080294	0.240929	-0.035255	0.225816	0.0583585	0.208058	0.0939655	0.0577945	-0.199452	0.178434	-0.0786015	0.077032	-0.223879	0.148865	-0.119055	0.148985	-0.25713	0.205696	-0.160697	0.153086	-0.132427	0.152771	0.402639	0.549023	
1.01877	4.24042	0	0	-0.1848	0.0491477	-0.0759395	-0.04525	-0.0982797	0.002345	-0.145152	-0.178195	-0.077545	0.253155	-0.0279085	0.225421	0.0611673	0.220115	0.0872207	0.0768568	-0.197504	0.182633	-0.0800088	0.081009	-0.220334	0.150844	-0.113456	0.148508	-0.260297	0.200224	-0.1634	0.150842	-0.129529	0.144582	0.3997	0.54516	
1.01789	4.24194	0	0	-0.179075	0.043495	-0.075	-0.047905	-0.097271	-0.000506	-0.140632	-0.178448	-0.074796	0.26538	-0.020562	0.225026	0.063976	0.232172	0.080476	0.095919	-0.195556	0.186832	-0.081416	0.084986	-0.216789	0.152823	-0.107856	0.148032	-0.263464	0.194753	-0.166103	0.148598	-0.126631	0.136392	0.396761	0.541296	
1.01634	4.23889	0	0	-0.181281	0.0392028	-0.0736627	-0.0610138	-0.0975915	-0.011245	-0.14391	-0.181706	-0.076631	0.260566	-0.029936	0.231151	0.0648903	0.229588	0.0767508	0.0910215	-0.199182	0.187377	-0.0905082	0.0848135	-0.215801	0.150029	-0.110528	0.140236	-0.262308	0.191486	-0.172427	0.146719	-0.130966	0.137127	0.403693	0.533877	
1.01404	4.23889	0	0	-0.183486	0.0349105	-0.0723255	-0.0741225	-0.097912	-0.021984	-0.147187	-0.184964	-0.078466	0.255752	-0.03931	0.237277	0.0658045	0.227004	0.0730255	0.086124	-0.202809	0.187922	-0.0996005	0.084641	-0.214812	0.147235	-0.1132	0.132439	-0.261152	0.188219	-0.178751	0.14484	-0.1353	0.137862	0.410624	0.526458	
1.01091	4.23736	0	0	-0.185692	0.0306182	-0.0709883	-0.0872312	-0.0982325	-0.032723	-0.150465	-0.188222	-0.080301	0.250939	-0.048684	0.243402	0.0667187	0.224421	0.0693002	0.0812265	-0.206435	0.188468	-0.108693	0.0844685	-0.213823	0.144442	-0.115873	0.124643	-0.259996	0.184952	-0.185074	0.142961	-0.139634	0.138597	0.417555	0.519038	
1.00695	4.23584	0	0	-0.187898	0.026326	-0.069651	-0.10034	-0.098553	-0.043462	-0.153743	-0.19148	-0.082136	0.246125	-0.058058	0.249527	0.067633	0.221837	0.065575	0.076329	-0.210061	0.189013	-0.117785	0.084296	-0.212835	0.141648	-0.118545	0.116846	-0.25884	0.181685	-0.191398	0.141082	-0.143969	0.139332	0.424487	0.511619	
1.00242	4.23126	0	0	-0.183933	0.0256457	-0.0629373	-0.100651	-0.095208	-0.0412703	-0.144698	-0.19199	-0.0784558	0.245724	-0.058058	0.249527	0.0667187	0.224421	0.0638885	0.081096	-0.210901	0.191386	-0.110428	0.0764337	-0.218357	0.145256	-0.115621	0.108581	-0.264317	0.182753	-0.186854	0.138113	-0.13674	0.130415	0.415947	0.511422	
0.997662	4.23431	0	0	-0.179968	0.0249655	-0.0562235	-0.100962	-0.091863	-0.0390785	-0.135653	-0.192501	-0.0747755	0.245323	-0.058058	0.249527	0.0658045	0.227004	0.062202	0.085863	-0.21174	0.193759	-0.103071	0.0685715	-0.223878	0.148864	-0.112696	0.100316	-0.269794	0.183821	-0.18231	0.135143	-0.12951	0.121499	0.407408	0.511225	
0.992997	4.23126	0	0	-0.176002	0.0242853	-0.0495098	-0.101273	-0.088518	-0.0368867	-0.126609	-0.193011	-0.0710952	0.244922	-0.058058	0.249527	0.0648903	0.229588	0.0605155	0.09063	-0.21258	0.196132	-0.095714	0.0607092	-0.2294	0.152472	-0.109771	0.092051	-0.275271	0.184889	-0.177766	0.132174	-0.122281	0.112582	0.398868	0.511029	
0.988762	4.22974	0	0	-0.172037	0.023605	-0.042796	-0.101584	-0.085173	-0.034695	-0.117564	-0.193521	-0.067415	0.244521	-0.058058	0.249527	0.063976	0.232172	0.058829	0.095397	-0.21342	0.198505	-0.088357	0.052847	-0.234922	0.15608	-0.106847	0.083786	-0.280748	0.185957	-0.173222	0.129205	-0.115051	0.103665	0.390328	0.510832	
0.985288	4.22974	0	0	-0.170279	0.0186352	-0.0433412	-0.109377	-0.088518	-0.0368867	-0.122088	-0.193265	-0.0710885	0.234908	-0.0540042	0.23807	0.0584285	0.227855	0.0622015	0.0858657	-0.215365	0.194305	-0.091498	0.0487937	-0.237476	0.151309	-0.109524	0.0760145	-0.280748	0.185957	-0.173222	0.129205	-0.120351	0.107128	0.392985	0.503324	
0.982908	4.22668	0	0	-0.168521	0.0136655	-0.0438865	-0.11717	-0.091863	-0.0390785	-0.126612	-0.19301	-0.074762	0.225295	-0.0499505	0.226613	0.052881	0.223538	0.065574	0.0763345	-0.217311	0.190105	-0.094639	0.0447405	-0.24003	0.146539	-0.112201	0.068243	-0.280748	0.185957	-0.173222	0.129205	-0.12565	0.110591	0.395641	0.495816	
0.981953	4.22668	0	0	-0.166762	0.00869575	-0.0444318	-0.124964	-0.095208	-0.0412703	-0.131136	-0.192754	-0.0784355	0.215681	-0.0458968	0.215156	0.0473335	0.219221	0.0689465	0.0668033	-0.219257	0.185904	-0.09778	0.0406873	-0.242585	0.141768	-0.114877	0.0604715	-0.280748	0.185957	-0.173222	0.129205	-0.13095	0.114054	0.398297	0.488308	
0.982574	4.22058	0	0	-0.165004	0.003726	-0.044977	-0.132757	-0.098553	-0.043462	-0.13566	-0.192498	-0.082109	0.206068	-0.041843	0.203699	0.041786	0.214904	0.072319	0.057272	-0.221202	0.181704	-0.100921	0.036634	-0.245139	0.136997	-0.117554	0.0527	-0.280748	0.185957	-0.173222	0.129205	-0.13625	0.117517	0.400954	0.4808	
0.984485	4.22211	0	0	-0.163675	0.0105007	-0.0391955	-0.130423	-0.097224	-0.035573	-0.131136	-0.192754	-0.0811883	0.203466	-0.039818	0.197976	0.042699	0.212323	0.072319	0.057272	-0.216738	0.178787	-0.102326	0.040604	-0.238633	0.130601	-0.116095	0.048576	-0.274116	0.181623	-0.173222	0.129205	-0.139618	0.115527	0.398297	0.488308	
0.987332	4.22058	0	0	-0.162345	0.0172755	-0.033414	-0.12809	-0.095895	-0.027684	-0.126612	-0.19301	-0.0802675	0.200865	-0.037793	0.192253	0.043612	0.209742	0.072319	0.057272	-0.212275	0.17587	-0.103731	0.044574	-0.232128	0.124205	-0.114636	0.044452	-0.267483	0.177289	-0.173222	0.129205	-0.142986	0.113537	0.395641	0.495816	
0.990762	4.216	0	0	-0.161016	0.0240503	-0.0276325	-0.125756	-0.094566	-0.019795	-0.122088	-0.193265	-0.0793467	0.198263	-0.035768	0.186531	0.044525	0.207162	0.072319	0.057272	-0.207811	0.172954	-0.105135	0.048544	-0.225623	0.117809	-0.113176	0.040328	-0.26085	0.172956	-0.173222	0.129205	-0.146354	0.111548	0.392985	0.503324	
0.994423	4.21142	0	0	-0.159686	0.030825	-0.021851	-0.123423	-0.093237	-0.011906	-0.117564	-0.193521	-0.078426	0.195661	-0.033743	0.180808	0.045438	0.204581	0.072319	0.057272	-0.203347	0.170037	-0.10654	0.052514	-0.219117	0.111413	-0.111717	0.036204	-0.254218	0.168622	-0.173222	0.129205	-0.149722	0.109558	0.390328	0.510832	
0.997961	4.216	0	0	-0.160566	0.0333123	-0.0252112	-0.123265	-0.093237	-0.011906	-0.123331	-0.189753	-0.0857752	0.186478	-0.041083	0.181207	0.0454022	0.194693	0.0615067	0.0570175	-0.207241	0.161652	-0.103731	0.0445757	-0.217732	0.0955105	-0.115853	0.03257	-0.250754	0.158831	-0.174081	0.121759	-0.153088	0.10757	0.395925	0.507174	
1.00102	4.2099	0	0	-0.161446	0.0357995	-0.0285715	-0.123107	-0.093237	-0.011906	-0.129098	-0.185984	-0.0931245	0.177294	-0.048423	0.181607	0.0453665	0.184805	0.0506945	0.056763	-0.211136	0.153267	-0.100922	0.0366375	-0.216348	0.079608	-0.119989	0.028936	-0.247289	0.14904	-0.17494	0.114314	-0.156453	0.105581	0.401523	0.503517	
1.00326	4.20685	0	0	-0.162326	0.0382868	-0.0319317	-0.122949	-0.093237	-0.011906	-0.134865	-0.182216	-0.100474	0.16811	-0.055763	0.182006	0.0453308	0.174916	0.0398822	0.0565085	-0.215031	0.144882	-0.098113	0.0286993	-0.214964	0.0637055	-0.124125	0.025302	-0.243825	0.13925	-0.175799	0.106868	-0.159819	0.103593	0.40712	0.499859	
1.00445	4.2038	0	0	-0.163206	0.040774	-0.035292	-0.122791	-0.093237	-0.011906	-0.140632	-0.178448	-0.107823	0.158927	-0.063103	0.182405	0.045295	0.165028	0.02907	0.056254	-0.218925	0.136497	-0.095304	0.020761	-0.213579	0.047803	-0.128261	0.021668	-0.240361	0.129459	-0.176658	0.099423	-0.163185	0.101605	0.412717	0.496202	
1.00478	4.20074	0	0	-0.163642	0.0525432	-0.035686	-0.112339	-0.09191	-0.0040045	-0.141875	-0.174934	-0.106904	0.156332	-0.063103	0.182405	0.0462065	0.162452	0.027386	0.061013	-0.214464	0.133582	-0.095304	0.020761	-0.212594	0.0450195	-0.128261	0.021668	-0.239207	0.126198	-0.175737	0.0968212	-0.160296	0.0934405	0.416989	0.496298	
1.00445	4.19769	0	0	-0.164077	0.0643125	-0.03608	-0.101888	-0.090583	0.003897	-0.143119	-0.17142	-0.105986	0.153736	-0.063103	0.182405	0.047118	0.159876	0.025702	0.065772	-0.210003	0.130667	-0.095304	0.020761	-0.211609	0.042236	-0.128261	0.021668	-0.238053	0.122937	-0.174817	0.0942195	-0.157407	0.085276	0.421261	0.496394	
1.00371	4.20074	0	0	-0.164513	0.0760818	-0.036474	-0.0914365	-0.089256	0.0117985	-0.144362	-0.167906	-0.105068	0.151141	-0.063103	0.182405	0.0480295	0.157299	0.024018	0.070531	-0.205541	0.127751	-0.095304	0.020761	-0.210624	0.0394525	-0.128261	0.021668	-0.236899	0.119676	-0.173897	0.0916177	-0.154519	0.0771115	0.425533	0.496491	
1.00276	4.19311	0	0	-0.164949	0.087851	-0.036868	-0.080985	-0.087929	0.0197	-0.145605	-0.164392	-0.104149	0.148545	-0.063103	0.182405	0.048941	0.154723	0.022334	0.07529	-0.20108	0.124836	-0.095304	0.020761	-0.209639	0.036669	-0.128261	0.021668	-0.235745	0.116415	-0.172976	0.089016	-0.15163	0.068947	0.429805	0.496587	
1.00185	4.18854	0	0	-0.159215	0.0821888	-0.03835	-0.0861347	-0.087929	0.0197	-0.150125	-0.16414	-0.104151	0.138577	-0.0724565	0.188517	0.047079	0.150002	0.024018	0.070531	-0.203029	0.120651	-0.0998475	0.0206803	-0.210234	0.0263682	-0.126804	0.0175495	-0.234592	0.113155	-0.175677	0.0867825	-0.152593	0.0716675	0.427145	0.504104	
1.00119	4.18854	0	0	-0.153481	0.0765265	-0.039832	-0.0912845	-0.087929	0.0197	-0.154645	-0.163888	-0.104153	0.128609	-0.08181	0.194629	0.045217	0.14528	0.025702	0.065772	-0.204978	0.116467	-0.104391	0.0205995	-0.210829	0.0160675	-0.125347	0.013431	-0.233438	0.109895	-0.178378	0.084549	-0.153556	0.074388	0.424485	0.511622	
1.00101	4.18396	0	0	-0.147746	0.0708642	-0.041314	-0.0964342	-0.087929	0.0197	-0.159164	-0.163637	-0.104155	0.118641	-0.0911635	0.20074	0.043355	0.140559	0.027386	0.061013	-0.206927	0.112282	-0.108934	0.0205188	-0.211423	0.00576675	-0.12389	0.0093125	-0.232285	0.106635	-0.18108	0.0823155	-0.154518	0.0771085	0.421826	0.51914	
1.00143	4.18548	0	0	-0.142012	0.065202	-0.042796	-0.101584	-0.087929	0.0197	-0.163684	-0.163385	-0.104157	0.108673	-0.100517	0.206852	0.041493	0.135837	0.02907	0.056254	-0.208876	0.108097	-0.113478	0.020438	-0.212018	-0.004534	-0.122433	0.005194	-0.231131	0.103375	-0.183781	0.080082	-0.155481	0.079829	0.419166	0.526657	
1.00227	4.18091	0	0	-0.139802	0.0695055	-0.041314	-0.0964342	-0.0909592	0.0282638	-0.163684	-0.163385	-0.105074	0.111265	-0.0931872	0.20646	0.039671	0.140986	0.025701	0.0657747	-0.205252	0.107548	-0.104388	0.0205985	-0.206504	-0.00813725	-0.118295	0.00882425	-0.231131	0.103375	-0.178319	0.0745148	-0.143929	0.0701887	0.422108	0.530518	
1.00331	4.17786	0	0	-0.137592	0.073809	-0.039832	-0.0912845	-0.0939895	0.0368275	-0.163684	-0.163385	-0.105991	0.113857	-0.0858575	0.206067	0.037849	0.146135	0.022332	0.0752955	-0.201628	0.106998	-0.0952975	0.020759	-0.200989	-0.0117405	-0.114158	0.0124545	-0.231131	0.103375	-0.172858	0.0689475	-0.132376	0.0605485	0.425051	0.53438	
1.00434	4.1748	0	0	-0.135381	0.0781125	-0.03835	-0.0861347	-0.0970198	0.0453913	-0.163684	-0.163385	-0.106908	0.116449	-0.0785277	0.205674	0.036027	0.151283	0.018963	0.0848163	-0.198003	0.106449	-0.0862072	0.0209195	-0.195474	-0.0153437	-0.110021	0.0160847	-0.231131	0.103375	-0.167397	0.0633802	-0.120824	0.0509083	0.427993	0.538241	
1.00512	4.16717	0	0	-0.133171	0.082416	-0.036868	-0.080985	-0.10005	0.053955	-0.163684	-0.163385	-0.107825	0.119041	-0.071198	0.205282	0.034205	0.156432	0.015594	0.094337	-0.194379	0.1059	-0.077117	0.02108	-0.18996	-0.018947	-0.105883	0.019715	-0.231131	0.103375	-0.161935	0.057813	-0.109271	0.041268	0.430936	0.542102	
1.00545	4.16717	0	0	-0.135381	0.0781125	-0.0417078	-0.085979	-0.0980295	0.0482448	-0.165716	-0.170155	-0.109662	0.114265	-0.071198	0.205282	0.0406222	0.14828	0.015594	0.094337	-0.198003	0.106449	-0.0785218	0.02505	-0.187994	-0.0245025	-0.107342	0.0238373	-0.224494	0.099038	-0.162855	0.0604125	-0.109271	0.041268	0.430936	0.542102	
1.00508	4.16717	0	0	-0.137592	0.073809	-0.0465475	-0.090973	-0.096009	0.0425345	-0.167748	-0.176926	-0.1115	0.109489	-0.071198	0.205282	0.0470395	0.140129	0.015594	0.094337	-0.201628	0.106998	-0.0799265	0.02902	-0.186028	-0.030058	-0.1088	0.0279595	-0.217856	0.094701	-0.163774	0.063012	-0.109271	0.041268	0.430936	0.542102	
1.00382	4.16107	0	0	-0.139802	0.0695055	-0.0513872	-0.095967	-0.0939885	0.0368243	-0.16978	-0.183696	-0.113337	0.104714	-0.071198	0.205282	0.0534567	0.131977	0.015594	0.094337	-0.205252	0.107548	-0.0813313	0.03299	-0.184063	-0.0356135	-0.110258	0.0320817	-0.211219	0.090364	-0.164694	0.0656115	-0.109271	0.041268	0.430936	0.542102	
1.00155	4.15802	0	0	-0.142012	0.065202	-0.056227	-0.100961	-0.091968	0.031114	-0.171812	-0.190466	-0.115174	0.099938	-0.071198	0.205282	0.059874	0.123826	0.015594	0.094337	-0.208876	0.108097	-0.082736	0.03696	-0.182097	-0.041169	-0.111717	0.036204	-0.204581	0.086027	-0.165614	0.068211	-0.109271	0.041268	0.430936	0.542102	
0.998499	4.15649	0	0	-0.138038	0.0645205	-0.0528692	-0.101117	-0.0939885	0.0368243	-0.167295	-0.190719	-0.109664	0.104307	-0.0752492	0.216731	0.059915	0.133699	0.0176217	0.104006	-0.203301	0.111733	-0.0764468	0.0450728	-0.179528	-0.03644	-0.107578	0.0398418	-0.199092	0.0849463	-0.157444	0.0648712	-0.109271	0.041268	0.429604	0.545866	
0.994979	4.15649	0	0	-0.134064	0.063839	-0.0495115	-0.101272	-0.096009	0.0425345	-0.162777	-0.190973	-0.104154	0.108676	-0.0793005	0.228181	0.059956	0.143572	0.0196495	0.113675	-0.197726	0.115369	-0.0701575	0.0531855	-0.176959	-0.031711	-0.103438	0.0434795	-0.193603	0.0838655	-0.149273	0.0615315	-0.109271	0.041268	0.428272	0.54963	
0.991286	4.15039	0	0	-0.13009	0.0631575	-0.0461538	-0.101428	-0.0980295	0.0482448	-0.15826	-0.191227	-0.098644	0.113045	-0.0833518	0.23963	0.059997	0.153446	0.0216773	0.123345	-0.192152	0.119005	-0.0638683	0.0612982	-0.17439	-0.026982	-0.0992992	0.0471172	-0.188113	0.0827848	-0.141102	0.0581918	-0.109271	0.041268	0.42694	0.553395	
0.987717	4.14886	0	0	-0.126116	0.062476	-0.042796	-0.101584	-0.10005	0.053955	-0.153743	-0.19148	-0.093134	0.117414	-0.087403	0.251079	0.060038	0.163319	0.023705	0.133014	-0.186577	0.122641	-0.057579	0.069411	-0.171821	-0.022253	-0.09516	0.050755	-0.182624	0.081704	-0.132932	0.054852	-0.109271	0.041268	0.425608	0.557159	
0.984573	4.14886	0	0	-0.128328	0.0581765	-0.047635	-0.106571	-0.0980295	0.0482448	-0.157019	-0.194735	-0.0958897	0.115229	-0.087403	0.251079	0.059126	0.165897	0.0166173	0.137645	-0.184901	0.117906	-0.0589867	0.0733898	-0.169854	-0.0278105	-0.09516	0.050755	-0.181471	0.0784442	-0.136558	0.0552225	-0.110233	0.0439888	0.424275	0.560925	
0.982153	4.14581	0	0	-0.130539	0.053877	-0.052474	-0.111559	-0.096009	0.0425345	-0.160295	-0.19799	-0.0986455	0.113044	-0.087403	0.251079	0.058214	0.168474	0.0095295	0.142277	-0.183226	0.113171	-0.0603945	0.0773685	-0.167888	-0.033368	-0.09516	0.050755	-0.180317	0.0751845	-0.140185	0.055593	-0.111196	0.0467095	0.422943	0.56469	
0.980755	4.14123	0	0	-0.13275	0.0495775	-0.057313	-0.116546	-0.0939885	0.0368243	-0.16357	-0.201245	-0.101401	0.110858	-0.087403	0.251079	0.057302	0.171052	0.00244175	0.146908	-0.181551	0.108436	-0.0618023	0.0813472	-0.165921	-0.0389255	-0.09516	0.050755	-0.179164	0.0719248	-0.143812	0.0559635	-0.112158	0.0494303	0.42161	0.568456	
0.980502	4.13971	0	0	-0.134962	0.045278	-0.062152	-0.121534	-0.091968	0.031114	-0.166846	-0.2045	-0.104157	0.108673	-0.087403	0.251079	0.05639	0.17363	-0.004646	0.151539	-0.179875	0.103701	-0.06321	0.085326	-0.163955	-0.044483	-0.09516	0.050755	-0.17801	0.068665	-0.147438	0.056334	-0.113121	0.052151	0.420278	0.572222	
0.981188	4.13971	0	0	-0.13275	0.0495775	-0.0659027	-0.110934	-0.0939885	0.0368243	-0.169329	-0.197482	-0.100481	0.118236	-0.0894305	0.256809	0.0573393	0.180943	-0.0026265	0.161231	-0.177085	0.105518	-0.0600642	0.0893925	-0.161383	-0.0397538	-0.0910175	0.0543968	-0.171362	0.064321	-0.146518	0.0537345	-0.113121	0.052151	0.433113	0.572528	
0.982567	4.13666	0	0	-0.130539	0.053877	-0.0696535	-0.100334	-0.096009	0.0425345	-0.171812	-0.190464	-0.096804	0.127798	-0.091458	0.26254	0.0582885	0.188256	-0.000607	0.170923	-0.174294	0.107335	-0.0569185	0.093459	-0.158812	-0.0350245	-0.086875	0.0580385	-0.164714	0.059977	-0.145598	0.051135	-0.113121	0.052151	0.445949	0.572833	
0.984396	4.13208	0	0	-0.128328	0.0581765	-0.0734043	-0.089734	-0.0980295	0.0482448	-0.174296	-0.183445	-0.0931275	0.13736	-0.0934855	0.26827	0.0592377	0.195568	0.0014125	0.180615	-0.171504	0.109152	-0.0537728	0.0975255	-0.156241	-0.0302952	-0.0827325	0.0616803	-0.158066	0.055633	-0.144678	0.0485355	-0.113121	0.052151	0.458784	0.573139	
0.98643	4.13055	0	0	-0.126116	0.062476	-0.077155	-0.079134	-0.10005	0.053955	-0.176779	-0.176427	-0.089451	0.146923	-0.095513	0.274	0.060187	0.202881	0.003432	0.190307	-0.168713	0.110969	-0.050627	0.101592	-0.153669	-0.025566	-0.07859	0.065322	-0.151418	0.051289	-0.143758	0.045936	-0.113121	0.052151	0.47162	0.573445	
0.988424	4.1275	0	0	-0.128328	0.0581765	-0.0724672	-0.092382	-0.102383	0.0488953	-0.174296	-0.183445	-0.0958797	0.145139	-0.095513	0.274	0.0564998	0.203306	0.003432	0.190307	-0.171504	0.109152	-0.0537728	0.0975255	-0.151702	-0.031125	-0.0756682	0.0570645	-0.150265	0.0480303	-0.142839	0.0433373	-0.114084	0.0548725	0.46895	0.580991	
0.990133	4.1275	0	0	-0.130539	0.053877	-0.0677795	-0.10563	-0.104715	0.0438355	-0.171812	-0.190464	-0.102308	0.143354	-0.095513	0.274	0.0528125	0.203731	0.003432	0.190307	-0.174294	0.107335	-0.0569185	0.093459	-0.149735	-0.036684	-0.0727465	0.048807	-0.149112	0.0447715	-0.141919	0.0407385	-0.115047	0.057594	0.46628	0.588537	
0.991316	4.12598	0	0	-0.13275	0.0495775	-0.0630918	-0.118878	-0.107048	0.0387758	-0.169329	-0.197482	-0.108737	0.141569	-0.095513	0.274	0.0491252	0.204156	0.003432	0.190307	-0.177085	0.105518	-0.0600642	0.0893925	-0.147768	-0.042243	-0.0698248	0.0405495	-0.147959	0.0415128	-0.140999	0.0381398	-0.11601	0.0603155	0.46361	0.596083	
0.991865	4.12292	0	0	-0.134962	0.045278	-0.058404	-0.132126	-0.10938	0.033716	-0.166846	-0.2045	-0.115166	0.139785	-0.095513	0.274	0.045438	0.204581	0.003432	0.190307	-0.179875	0.103701	-0.06321	0.085326	-0.145801	-0.047802	-0.066903	0.032292	-0.146806	0.038254	-0.14008	0.035541	-0.116973	0.063037	0.46094	0.603629	
0.991884	4.12292	0	0	-0.130988	0.0445955	-0.0636325	-0.126674	-0.11039	0.0365697	-0.168088	-0.200991	-0.11333	0.14457	-0.0975417	0.279734	0.0482117	0.206737	0.003432	0.190307	-0.177085	0.105518	-0.0572467	0.0814295	-0.142242	-0.0458532	-0.0725072	0.0327817	-0.146806	0.038254	-0.143705	0.0359123	-0.112637	0.0622962	0.459329	0.595982	
0.991497	4.12445	0	0	-0.127013	0.043913	-0.068861	-0.121221	-0.1114	0.0394235	-0.169329	-0.197483	-0.111494	0.149356	-0.0995705	0.285468	0.0509855	0.208894	0.003432	0.190307	-0.174294	0.107335	-0.0512835	0.077533	-0.138684	-0.0439045	-0.0781115	0.0332715	-0.146806	0.038254	-0.14733	0.0362835	-0.1083	0.0615555	0.457717	0.588335	
0.990828	4.11987	0	0	-0.123038	0.0432305	-0.0740895	-0.115769	-0.112409	0.0422773	-0.17057	-0.193974	-0.109659	0.154142	-0.101599	0.291202	0.0537593	0.21105	0.003432	0.190307	-0.171504	0.109152	-0.0453203	0.0736365	-0.135125	-0.0419557	-0.0837158	0.0337612	-0.146806	0.038254	-0.150955	0.0366547	-0.103963	0.0608148	0.456105	0.580688	
0.989999	4.11529	0	0	-0.119064	0.042548	-0.079318	-0.110317	-0.113419	0.045131	-0.171812	-0.190466	-0.107823	0.158927	-0.103628	0.296936	0.056533	0.213206	0.003432	0.190307	-0.168713	0.110969	-0.039357	0.06974	-0.131567	-0.040007	-0.08932	0.034251	-0.146806	0.038254	-0.15458	0.037026	-0.099627	0.060074	0.454494	0.573041	
0.989135	4.11529	0	0	-0.121277	0.0382525	-0.0798612	-0.118102	-0.110391	0.0365728	-0.175085	-0.193721	-0.112411	0.151953	-0.108925	0.291583	0.0546722	0.20847	-0.00196525	0.190161	-0.172341	0.111519	-0.0439125	0.0696577	-0.136109	-0.0391765	-0.0864022	0.026005	-0.144501	0.0317403	-0.155447	0.0296093	-0.10059	0.0627972	0.443	0.568968	
0.988359	4.11377	0	0	-0.12349	0.033957	-0.0804045	-0.125887	-0.107362	0.0280145	-0.178358	-0.196976	-0.117	0.14498	-0.114222	0.286231	0.0528115	0.203734	-0.0073625	0.190016	-0.175969	0.11207	-0.048468	0.0695755	-0.140651	-0.038346	-0.0834845	0.017759	-0.142197	0.0252265	-0.156314	0.0221925	-0.101554	0.0655205	0.431505	0.564896	
0.987793	4.11224	0	0	-0.125703	0.0296615	-0.0809477	-0.133671	-0.104334	0.0194562	-0.18163	-0.200231	-0.121589	0.138006	-0.119519	0.280878	0.0509508	0.198997	-0.0127598	0.18987	-0.179597	0.11262	-0.0530235	0.0694933	-0.145192	-0.0375155	-0.0805667	0.009513	-0.139892	0.0187128	-0.157182	0.0147758	-0.102517	0.0682438	0.420011	0.560824	
0.987507	4.10766	0	0	-0.127916	0.025366	-0.081491	-0.141456	-0.101306	0.010898	-0.184903	-0.203486	-0.126177	0.131032	-0.124816	0.275526	0.04909	0.194261	-0.018157	0.189724	-0.183225	0.11317	-0.057579	0.069411	-0.149734	-0.036685	-0.077649	0.001267	-0.137587	0.012199	-0.158049	0.007359	-0.103481	0.070967	0.408517	0.556751	
0.987512	4.10919	0	0	-0.127036	0.022878	-0.0839068	-0.143944	-0.101306	0.010898	-0.190655	-0.199728	-0.12526	0.12844	-0.124816	0.275526	0.0500027	0.191682	-0.0235495	0.189577	-0.178759	0.110252	-0.0561717	0.0654337	-0.144209	-0.0402955	-0.076191	-0.00285325	-0.137587	0.012199	-0.152589	0.00179725	-0.102517	0.0682438	0.40397	0.545271	
0.987812	4.10766	0	0	-0.126156	0.02039	-0.0863225	-0.146431	-0.101306	0.010898	-0.196406	-0.19597	-0.124343	0.125848	-0.124816	0.275526	0.0509155	0.189103	-0.028942	0.18943	-0.174293	0.107333	-0.0547645	0.0614565	-0.138684	-0.043906	-0.074733	-0.0069735	-0.137587	0.012199	-0.147129	-0.0037645	-0.101554	0.0655205	0.399423	0.533791	
0.988412	4.10614	0	0	-0.125275	0.017902	-0.0887382	-0.148919	-0.101306	0.010898	-0.202158	-0.192211	-0.123425	0.123256	-0.124816	0.275526	0.0518283	0.186523	-0.0343345	0.189283	-0.169827	0.104415	-0.0533573	0.0574793	-0.133158	-0.0475165	-0.073275	-0.0110937	-0.137587	0.012199	-0.14167	-0.00932625	-0.10059	0.0627972	0.394875	0.522312	
0.98932	4.10309	0	0	-0.124395	0.015414	-0.091154	-0.151407	-0.101306	0.010898	-0.207909	-0.188453	-0.122508	0.120664	-0.124816	0.275526	0.052741	0.183944	-0.039727	0.189136	-0.165361	0.101497	-0.05195	0.053502	-0.127633	-0.051127	-0.071817	-0.015214	-0.137587	0.012199	-0.13621	-0.014888	-0.099627	0.060074	0.390328	0.510832	
0.990538	4.10614	0	0	-0.12485	0.0061555	-0.0974615	-0.161498	-0.102632	0.00300175	-0.208698	-0.198712	-0.120681	0.105538	-0.120765	0.264077	0.051791	0.176639	-0.04174	0.179451	-0.165361	0.101497	-0.0550967	0.0494472	-0.126649	-0.053906	-0.0759618	-0.0188367	-0.137587	0.012199	-0.14167	-0.00932625	-0.103483	0.0709718	0.379144	0.51814	
0.992074	4.10004	0	0	-0.125304	-0.003103	-0.103769	-0.17159	-0.103958	-0.0048945	-0.209487	-0.208971	-0.118854	0.0904115	-0.116713	0.252628	0.050841	0.169333	-0.043753	0.169767	-0.165361	0.101497	-0.0582435	0.0453925	-0.125666	-0.056685	-0.0801065	-0.0224595	-0.137587	0.012199	-0.147129	-0.0037645	-0.107339	0.0818695	0.36796	0.525447	
0.993928	4.10156	0	0	-0.125759	-0.0123615	-0.110076	-0.181681	-0.105285	-0.0127908	-0.210275	-0.219229	-0.117027	0.0752852	-0.112662	0.241178	0.049891	0.162028	-0.045766	0.160083	-0.165361	0.101497	-0.0613903	0.0413377	-0.124683	-0.059464	-0.0842512	-0.0260823	-0.137587	0.012199	-0.152589	0.00179725	-0.111195	0.0927672	0.356776	0.532755	
0.99598	4.09698	0	0	-0.126214	-0.02162	-0.116384	-0.191772	-0.106611	-0.020687	-0.211064	-0.229488	-0.1152	0.060159	-0.108611	0.229729	0.048941	0.154723	-0.047779	0.150398	-0.165361	0.101497	-0.064537	0.037283	-0.123699	-0.062243	-0.088396	-0.029705	-0.137587	0.012199	-0.158049	0.007359	-0.115051	0.103665	0.345592	0.540063	
0.997987	4.09546	0	0	-0.12312	-0.0198212	-0.114905	-0.186651	-0.103267	-0.0184918	-0.212303	-0.225987	-0.11153	0.0597492	-0.117954	0.235834	0.048941	0.154723	-0.0494658	0.155165	-0.16173	0.100945	-0.065943	0.0412565	-0.113621	-0.0666915	-0.088396	-0.029705	-0.138739	0.0154553	-0.158049	0.007359	-0.116016	0.106391	0.351182	0.53641	
0.999696	4.09698	0	0	-0.120025	-0.0180225	-0.113426	-0.18153	-0.099924	-0.0162965	-0.213542	-0.222485	-0.107859	0.0593395	-0.127298	0.241939	0.048941	0.154723	-0.0511525	0.159932	-0.1581	0.100393	-0.067349	0.04523	-0.103544	-0.07114	-0.088396	-0.029705	-0.139891	0.0187115	-0.158049	0.007359	-0.116981	0.109118	0.356772	0.532757	
1.00086	4.09088	0	0	-0.116931	-0.0162238	-0.111947	-0.176408	-0.0965805	-0.0141012	-0.214781	-0.218983	-0.104189	0.0589298	-0.136641	0.248044	0.048941	0.154723	-0.0528392	0.164698	-0.15447	0.0998418	-0.068755	0.0492035	-0.0934658	-0.0755885	-0.088396	-0.029705	-0.141043	0.0219678	-0.158049	0.007359	-0.117945	0.111844	0.362363	0.529105	
1.00122	4.09241	0	0	-0.113837	-0.014425	-0.110468	-0.171287	-0.093237	-0.011906	-0.21602	-0.215482	-0.100519	0.05852	-0.145984	0.254149	0.048941	0.154723	-0.054526	0.169465	-0.150839	0.09929	-0.070161	0.053177	-0.083388	-0.080037	-0.088396	-0.029705	-0.142195	0.025224	-0.158049	0.007359	-0.11891	0.11457	0.367953	0.525452	
1.00053	4.09546	0	0	-0.112957	-0.0169103	-0.111947	-0.176408	-0.091221	-0.0176033	-0.213542	-0.222484	-0.102359	0.0537585	-0.14396	0.24843	0.0516742	0.146999	-0.0528392	0.164698	-0.148045	0.101107	-0.0642015	0.049283	-0.083388	-0.080037	-0.082794	-0.0302005	-0.136695	0.0241342	-0.158967	0.009954	-0.117469	0.122019	0.373824	0.533174	
0.998546	4.09088	0	0	-0.112078	-0.0193955	-0.113426	-0.18153	-0.089205	-0.0233005	-0.211065	-0.229485	-0.1042	0.048997	-0.141937	0.24271	0.0544075	0.139274	-0.0511525	0.159932	-0.145251	0.102923	-0.058242	0.045389	-0.083388	-0.080037	-0.077192	-0.030696	-0.131194	0.0230445	-0.159886	0.012549	-0.116028	0.129468	0.379695	0.540896	
0.995019	4.09393	0	0	-0.111199	-0.0218807	-0.114905	-0.186651	-0.087189	-0.0289977	-0.208587	-0.236487	-0.106041	0.0442355	-0.139914	0.236991	0.0571407	0.13155	-0.0494658	0.155165	-0.142456	0.104739	-0.0522825	0.041495	-0.083388	-0.080037	-0.07159	-0.0311915	-0.125694	0.0219548	-0.160804	0.015144	-0.114586	0.136918	0.385567	0.548618	
0.989993	4.09393	0	0	-0.110319	-0.024366	-0.116384	-0.191772	-0.085173	-0.034695	-0.20611	-0.243488	-0.107881	0.039474	-0.13789	0.231272	0.059874	0.123826	-0.047779	0.150398	-0.139662	0.106556	-0.046323	0.037601	-0.083388	-0.080037	-0.065988	-0.031687	-0.120194	0.020865	-0.161722	0.017739	-0.113145	0.144367	0.391438	0.55634	
0.983783	4.09851	0	0	-0.104124	-0.0207682	-0.116774	-0.181368	-0.0784772	-0.0303072	-0.20284	-0.240242	-0.103284	0.0464135	-0.141939	0.242714	0.0571407	0.13155	-0.045766	0.160083	-0.137705	0.110744	-0.0445815	0.0456358	-0.0798197	-0.0780937	-0.0632975	-0.0239422	-0.115842	0.023033	-0.159937	0.0225608	-0.105428	0.145625	0.394376	0.560207	
0.976717	4.09698	0	0	-0.0979295	-0.0171705	-0.117165	-0.170964	-0.0717815	-0.0259195	-0.19957	-0.236996	-0.098687	0.053353	-0.145987	0.254156	0.0544075	0.139274	-0.043753	0.169767	-0.135748	0.114933	-0.04284	0.0536705	-0.0762515	-0.0761505	-0.060607	-0.0161975	-0.11149	0.025201	-0.158151	0.0273825	-0.097712	0.146882	0.397313	0.564074	
0.969122	4.09698	0	0	-0.0917348	-0.0135727	-0.117555	-0.16056	-0.0650857	-0.0215317	-0.1963	-0.23375	-0.09409	0.0602925	-0.150035	0.265598	0.0516742	0.146999	-0.04174	0.179451	-0.133792	0.119122	-0.0410985	0.0617052	-0.0726833	-0.0742073	-0.0579165	-0.00845275	-0.107139	0.027369	-0.156365	0.0322043	-0.0899955	0.14814	0.400251	0.567941	
0.961326	4.10004	0	0	-0.08554	-0.009975	-0.117945	-0.150156	-0.05839	-0.017144	-0.19303	-0.230504	-0.089493	0.067232	-0.154084	0.27704	0.048941	0.154723	-0.039727	0.189136	-0.131835	0.12331	-0.039357	0.06974	-0.069115	-0.072264	-0.055226	-0.000708	-0.102787	0.029537	-0.15458	0.037026	-0.082279	0.149398	0.403189	0.571808	
0.953655	4.10156	0	0	-0.08554	-0.009975	-0.113662	-0.152954	-0.0573812	-0.019995	-0.186039	-0.237764	-0.089493	0.067232	-0.15611	0.282767	0.0526273	0.154295	-0.0414163	0.19391	-0.129878	0.127503	-0.036207	0.0738038	-0.0710838	-0.0666998	-0.0596057	0.0116697	-0.10625	0.039324	-0.149168	0.0414825	-0.0784258	0.161602	0.40346	0.583218	
0.946439	4.09851	0	0	-0.08554	-0.009975	-0.109379	-0.155753	-0.0563725	-0.022846	-0.179049	-0.245024	-0.089493	0.067232	-0.158137	0.288494	0.0563135	0.153867	-0.0431055	0.198685	-0.127921	0.131696	-0.033057	0.0778675	-0.0730525	-0.0611355	-0.0639855	0.0240475	-0.109713	0.049111	-0.143756	0.045939	-0.0745725	0.173807	0.403732	0.594629	
0.939978	4.10156	0	0	-0.08554	-0.009975	-0.105096	-0.158552	-0.0553638	-0.025697	-0.172059	-0.252283	-0.089493	0.067232	-0.160164	0.29422	0.0599998	0.153439	-0.0447947	0.20346	-0.125964	0.135888	-0.029907	0.0819312	-0.0750212	-0.0555713	-0.0683653	0.0364252	-0.113176	0.058898	-0.138344	0.0503955	-0.0707192	0.186011	0.404004	0.60604	
0.934451	4.10309	0	0	-0.08554	-0.009975	-0.100813	-0.16135	-0.054355	-0.028548	-0.165068	-0.259543	-0.089493	0.067232	-0.16219	0.299947	0.063686	0.153011	-0.046484	0.208234	-0.124007	0.140081	-0.026757	0.085995	-0.07699	-0.050007	-0.072745	0.048803	-0.116639	0.068685	-0.132932	0.054852	-0.066866	0.198215	0.404275	0.61745	
0.929999	4.10156	0	0	-0.0833207	-0.00568525	-0.104555	-0.150775	-0.058392	-0.0171388	-0.167546	-0.252538	-0.0858103	0.0767765	-0.156903	0.305306	0.0628112	0.165479	-0.0444757	0.217945	-0.113928	0.140797	-0.0218645	0.0981267	-0.0698488	-0.0461098	-0.0659123	0.0602275	-0.105618	0.0665043	-0.128436	0.0619182	-0.067835	0.200954	0.401605	0.624996	
0.926764	4.10614	0	0	-0.0811015	-0.0013955	-0.108297	-0.1402	-0.062429	-0.0057295	-0.170025	-0.245534	-0.0821275	0.086321	-0.151616	0.310665	0.0619365	0.177946	-0.0424675	0.227656	-0.103849	0.141513	-0.016972	0.110259	-0.0627075	-0.0422125	-0.0590795	0.071652	-0.0945965	0.0643235	-0.12394	0.0689845	-0.068804	0.203693	0.398935	0.632542	
0.924886	4.10156	0	0	-0.0788823	0.00289425	-0.112039	-0.129625	-0.066466	0.00567975	-0.172504	-0.23853	-0.0784447	0.0958655	-0.146329	0.316024	0.0610617	0.190414	-0.0404593	0.237368	-0.0937692	0.142229	-0.0120795	0.12239	-0.0555663	-0.0383152	-0.0522468	0.0830765	-0.0835752	0.0621427	-0.119444	0.0760508	-0.069773	0.206432	0.396265	0.640088	
0.924508	4.10309	0	0	-0.076663	0.007184	-0.115781	-0.11905	-0.070503	0.017089	-0.174982	-0.231525	-0.074762	0.10541	-0.141042	0.321383	0.060187	0.202881	-0.038451	0.247079	-0.08369	0.142945	-0.007187	0.134522	-0.048425	-0.034418	-0.045414	0.094501	-0.072554	0.059962	-0.114948	0.083117	-0.070742	0.209171	0.393595	0.647634	
0.92577	4.10309	0	0	-0.0749015	0.002206	-0.117257	-0.124184	-0.0684837	0.0113825	-0.180733	-0.227767	-0.077516	0.113193	-0.131688	0.315271	0.0666537	0.204611	-0.0347505	0.25202	-0.0853717	0.147698	-0.0054475	0.142599	-0.0438643	-0.0352555	-0.0427283	0.102297	-0.0748665	0.0664973	-0.11316	0.0879583	-0.0683317	0.213917	0.396531	0.651522	
0.9288	4.10461	0	0	-0.07314	-0.002772	-0.118733	-0.129318	-0.0664645	0.005676	-0.186485	-0.224009	-0.08027	0.120975	-0.122335	0.309159	0.0731205	0.206341	-0.03105	0.25696	-0.0870535	0.152451	-0.003708	0.150676	-0.0393035	-0.036093	-0.0400425	0.110094	-0.077179	0.0730325	-0.111372	0.0927995	-0.0659215	0.218664	0.399467	0.655409	
0.933434	4.10309	0	0	-0.0713785	-0.00775	-0.120209	-0.134452	-0.0644452	-3.05E-05	-0.192237	-0.220251	-0.083024	0.128757	-0.112981	0.303048	0.0795872	0.208071	-0.0273495	0.2619	-0.0887353	0.157204	-0.0019685	0.158754	-0.0347428	-0.0369305	-0.0373568	0.11789	-0.0794915	0.0795677	-0.109585	0.0976407	-0.0635113	0.22341	0.402403	0.659296	
0.939235	4.10614	0	0	-0.069617	-0.012728	-0.121685	-0.139586	-0.062426	-0.005737	-0.197988	-0.216493	-0.085778	0.13654	-0.103628	0.296936	0.086054	0.209801	-0.023649	0.266841	-0.090417	0.161957	-0.000229	0.166831	-0.030182	-0.037768	-0.034671	0.125687	-0.081804	0.086103	-0.107797	0.102482	-0.061101	0.228156	0.405339	0.663184	
0.945753	4.10461	0	0	-0.0722595	-0.00526	-0.125428	-0.129008	-0.0698115	0.00347575	-0.200468	-0.209483	-0.0885377	0.154325	-0.10769	0.308415	0.0888665	0.221879	-0.0216427	0.276583	-0.083128	0.16085	0.0089135	0.167007	-0.0331422	-0.029402	-0.024892	0.128862	-0.0774445	0.0882825	-0.105086	0.10472	-0.0664205	0.231632	0.412288	0.65574	
0.952538	4.10309	0	0	-0.074902	0.002208	-0.129171	-0.118429	-0.077197	0.0126885	-0.202949	-0.202473	-0.0912975	0.172109	-0.111752	0.319894	0.091679	0.233958	-0.0196365	0.286326	-0.075839	0.159743	0.018056	0.167182	-0.0361025	-0.021036	-0.015113	0.132037	-0.073085	0.090462	-0.102375	0.106958	-0.07174	0.235107	0.419236	0.648296	
0.959141	4.10156	0	0	-0.0775445	0.009676	-0.132914	-0.107851	-0.0845825	0.0219013	-0.205429	-0.195463	-0.0940572	0.189893	-0.115813	0.331373	0.0944915	0.246036	-0.0176303	0.296068	-0.06855	0.158636	0.0271985	0.167357	-0.0390628	-0.01267	-0.005334	0.135211	-0.0687255	0.0926415	-0.099664	0.109196	-0.0770595	0.238583	0.426184	0.640852	
0.965114	4.10004	0	0	-0.080187	0.017144	-0.136657	-0.097273	-0.091968	0.031114	-0.207909	-0.188453	-0.096817	0.207678	-0.119875	0.342852	0.097304	0.258115	-0.015624	0.30581	-0.061261	0.157529	0.036341	0.167533	-0.042023	-0.004304	0.004445	0.138386	-0.064366	0.094821	-0.096953	0.111434	-0.082379	0.242059	0.433133	0.633408	
0.970006	4.10004	0	0	-0.0872638	0.0160267	-0.139066	-0.0997665	-0.0953115	0.0289117	-0.206669	-0.191959	-0.096825	0.21769	-0.121908	0.348597	0.0973335	0.268054	-0.0119205	0.310769	-0.0601395	0.164114	0.0380835	0.175629	-0.0404237	0.003236	3.675E-05	0.150844	-0.0611615	0.100276	-0.0924512	0.118526	-0.07562	0.24608	0.437412	0.633516	
0.973421	4.09851	0	0	-0.0943405	0.0149095	-0.141475	-0.10226	-0.098655	0.0267095	-0.205428	-0.195464	-0.096833	0.227702	-0.123941	0.354342	0.097363	0.277992	-0.008217	0.315728	-0.059018	0.170699	0.039826	0.183725	-0.0388245	0.010776	-0.0043715	0.163303	-0.057957	0.105731	-0.0879495	0.125617	-0.068861	0.250101	0.441692	0.633623	
0.975417	4.09393	0	0	-0.101417	0.0137923	-0.143884	-0.104753	-0.101999	0.0245072	-0.204187	-0.19897	-0.096841	0.237714	-0.125973	0.360087	0.0973925	0.28793	-0.0045135	0.320686	-0.0578965	0.177284	0.0415685	0.19182	-0.0372253	0.018316	-0.00877975	0.175761	-0.0547525	0.111186	-0.0834478	0.132709	-0.062102	0.254121	0.445972	0.63373	
0.976287	4.09546	0	0	-0.108494	0.012675	-0.146293	-0.107247	-0.105342	0.022305	-0.202947	-0.202476	-0.096849	0.247726	-0.128006	0.365832	0.097422	0.297869	-0.00081	0.325645	-0.056775	0.183869	0.043311	0.199916	-0.035626	0.025856	-0.013188	0.188219	-0.051548	0.116641	-0.078946	0.1398	-0.055343	0.258142	0.450251	0.633838	
0.976323	4.09698	0	0	-0.108494	0.012675	-0.146293	-0.107247	-0.106352	0.0251577	-0.204187	-0.19897	-0.0959383	0.255147	-0.132076	0.377333	0.0974475	0.307825	-0.005911	0.340061	-0.0576177	0.18625	0.0404743	0.207933	-0.0320498	0.0278155	-0.00903075	0.191895	-0.0503892	0.113367	-0.0743825	0.136818	-0.0504897	0.244426	0.449978	0.622409	
0.975819	4.09241	0	0	-0.108494	0.012675	-0.146293	-0.107247	-0.107361	0.0280105	-0.205428	-0.195464	-0.0950275	0.262568	-0.136145	0.388834	0.097473	0.31778	-0.011012	0.354476	-0.0584605	0.188631	0.0376375	0.21595	-0.0284735	0.029775	-0.0048735	0.195572	-0.0492305	0.110092	-0.069819	0.133836	-0.0456365	0.23071	0.449704	0.61098	
0.975068	4.09088	0	0	-0.108494	0.012675	-0.146293	-0.107247	-0.108371	0.0308633	-0.206669	-0.191959	-0.0941167	0.269989	-0.140214	0.400335	0.0974985	0.327736	-0.016113	0.368892	-0.0593033	0.191012	0.0348007	0.223966	-0.0248972	0.0317345	-0.00071625	0.199248	-0.0480718	0.106818	-0.0652555	0.130855	-0.0407833	0.216993	0.44943	0.599552	
0.974365	4.08935	0	0	-0.108494	0.012675	-0.146293	-0.107247	-0.10938	0.033716	-0.207909	-0.188453	-0.093206	0.27741	-0.144284	0.411836	0.097524	0.337691	-0.021214	0.383308	-0.060146	0.193393	0.031964	0.231983	-0.021321	0.033694	0.003441	0.202925	-0.046913	0.103544	-0.060692	0.127873	-0.03593	0.203277	0.449157	0.588123	
0.974003	4.0863	0	0	-0.112469	0.0133598	-0.151508	-0.101806	-0.114739	0.037218	-0.214898	-0.181191	-0.0968997	0.287849	-0.146321	0.417592	0.098465	0.345064	-0.024619	0.392931	-0.05734	0.195222	0.0365417	0.232075	-0.017742	0.0356547	0.00196875	0.207086	-0.043706	0.109003	-0.063466	0.135712	-0.0325442	0.205281	0.457722	0.588328	
0.974213	4.0863	0	0	-0.116445	0.0140445	-0.156722	-0.0963655	-0.120099	0.04072	-0.221886	-0.173928	-0.100594	0.298288	-0.148358	0.423348	0.099406	0.352438	-0.028024	0.402555	-0.054534	0.197051	0.0411195	0.232168	-0.014163	0.0376155	0.0004965	0.211246	-0.040499	0.114461	-0.06624	0.143552	-0.0291585	0.207285	0.466287	0.588532	
0.974945	4.09088	0	0	-0.12042	0.0147293	-0.161936	-0.0909247	-0.125459	0.044222	-0.228874	-0.166665	-0.104287	0.308727	-0.150394	0.429104	0.100347	0.359811	-0.031429	0.412179	-0.051728	0.198881	0.0456973	0.232261	-0.010584	0.0395763	-0.00097575	0.215407	-0.037292	0.11992	-0.069014	0.151392	-0.0257728	0.209288	0.474853	0.588737	
0.976071	4.08783	0	0	-0.124395	0.015414	-0.167151	-0.085484	-0.130818	0.047724	-0.235863	-0.159403	-0.107981	0.319166	-0.152431	0.43486	0.101288	0.367184	-0.034834	0.421802	-0.048922	0.20071	0.050275	0.232353	-0.007005	0.041537	-0.002448	0.219567	-0.034085	0.125379	-0.071788	0.159231	-0.022387	0.211292	0.483418	0.588942	
0.977462	4.08935	0	0	-0.134098	0.021754	-0.170492	-0.0853345	-0.136174	0.051224	-0.235863	-0.159403	-0.107981	0.319166	-0.152431	0.43486	0.101288	0.367184	-0.034834	0.421802	-0.0553748	0.199433	0.0425413	0.22816	-0.0060155	0.0387405	0.0004955	0.211248	-0.037292	0.11992	-0.0726533	0.151762	-0.0315693	0.202547	0.477521	0.581198	
0.978988	4.09546	0	0	-0.1438	0.028094	-0.173833	-0.085185	-0.14153	0.054724	-0.235863	-0.159403	-0.107981	0.319166	-0.152431	0.43486	0.101288	0.367184	-0.034834	0.421802	-0.0618275	0.198156	0.0348075	0.223966	-0.005026	0.035944	0.003439	0.202929	-0.040499	0.114461	-0.0735185	0.144292	-0.0407515	0.193802	0.471623	0.573454	
0.980522	4.10004	0	0	-0.153503	0.034434	-0.177173	-0.0850355	-0.146886	0.058224	-0.235863	-0.159403	-0.107981	0.319166	-0.152431	0.43486	0.101288	0.367184	-0.034834	0.421802	-0.0682802	0.196879	0.0270738	0.219772	-0.0040365	0.0331475	0.0063825	0.19461	-0.043706	0.109003	-0.0743837	0.136823	-0.0499337	0.185058	0.465726	0.565709	
0.981935	4.10766	0	0	-0.163206	0.040774	-0.180514	-0.084886	-0.152242	0.061724	-0.235863	-0.159403	-0.107981	0.319166	-0.152431	0.43486	0.101288	0.367184	-0.034834	0.421802	-0.074733	0.195602	0.01934	0.215579	-0.003047	0.030351	0.009326	0.186291	-0.046913	0.103544	-0.075249	0.129354	-0.059116	0.176313	0.459828	0.557965	
0.983097	4.11682	0	0	-0.163206	0.040774	-0.186661	-0.0768023	-0.152242	0.061724	-0.234622	-0.16291	-0.112581	0.322172	-0.159748	0.435216	0.099448	0.372384	-0.033131	0.416989	-0.069967	0.201646	0.0239147	0.215671	-0.00799775	0.0443422	0.009326	0.186291	-0.05155	0.116648	-0.070743	0.136455	-0.0470235	0.176833	0.459828	0.557965	
0.983928	4.12292	0	0	-0.163206	0.040774	-0.192807	-0.0687185	-0.152242	0.061724	-0.233381	-0.166417	-0.117181	0.325178	-0.167065	0.435572	0.097608	0.377584	-0.031428	0.412176	-0.065201	0.207689	0.0284895	0.215762	-0.0129485	0.0583335	0.009326	0.186291	-0.056187	0.129752	-0.066237	0.143555	-0.034931	0.177353	0.459828	0.557965	
0.98449	4.13055	0	0	-0.163206	0.040774	-0.198954	-0.0606348	-0.152242	0.061724	-0.23214	-0.169924	-0.121782	0.328184	-0.174381	0.435927	0.095768	0.382783	-0.029725	0.407363	-0.060435	0.213733	0.0330643	0.215854	-0.0178992	0.0723248	0.009326	0.186291	-0.060824	0.142857	-0.061731	0.150655	-0.0228385	0.177874	0.459828	0.557965	
0.984871	4.14429	0	0	-0.163206	0.040774	-0.2051	-0.052551	-0.152242	0.061724	-0.230899	-0.173431	-0.126382	0.33119	-0.181698	0.436283	0.093928	0.387983	-0.028022	0.40255	-0.055669	0.219777	0.037639	0.215946	-0.02285	0.086316	0.009326	0.186291	-0.065461	0.155961	-0.057225	0.157756	-0.010746	0.178394	0.459828	0.557965	
0.985161	4.15344	0	0	-0.168934	0.0464295	-0.209372	-0.0497595	-0.148906	0.0639322	-0.237883	-0.166171	-0.123611	0.32336	-0.177628	0.424782	0.0911505	0.3858	-0.02632	0.39774	-0.0548255	0.217394	0.0344817	0.211849	-0.0218593	0.083516	0.0036975	0.186773	-0.0631417	0.149406	-0.057225	0.157756	-0.0131645	0.173657	0.458213	0.550335	
0.985449	4.1687	0	0	-0.174661	0.052085	-0.213645	-0.046968	-0.145569	0.0661405	-0.244868	-0.158911	-0.12084	0.315529	-0.173559	0.413281	0.088373	0.383618	-0.024618	0.392929	-0.053982	0.21501	0.0313245	0.207752	-0.0208685	0.080716	-0.001931	0.187255	-0.0608225	0.142852	-0.057225	0.157756	-0.015583	0.16892	0.456599	0.542705	
0.985824	4.17786	0	0	-0.180389	0.0577405	-0.217917	-0.0441765	-0.142233	0.0683487	-0.251852	-0.151651	-0.11807	0.307698	-0.16949	0.40178	0.0855955	0.381435	-0.022916	0.388118	-0.0531385	0.212626	0.0281673	0.203654	-0.0198777	0.077916	-0.0075595	0.187737	-0.0585032	0.136297	-0.057225	0.157756	-0.0180015	0.164183	0.454985	0.535074	
0.986374	4.18701	0	0	-0.186117	0.063396	-0.222189	-0.041385	-0.138897	0.070557	-0.258837	-0.144391	-0.115299	0.299868	-0.16542	0.390279	0.082818	0.379252	-0.021214	0.383308	-0.052295	0.210243	0.02501	0.199557	-0.018887	0.075116	-0.013188	0.188219	-0.056184	0.129743	-0.057225	0.157756	-0.02042	0.159446	0.45337	0.527444	
0.987188	4.19922	0	0	-0.187879	0.068374	-0.225936	-0.0307942	-0.140918	0.076269	-0.264577	-0.140641	-0.119897	0.302872	-0.16542	0.390279	0.0791225	0.379669	-0.026612	0.383139	-0.0520203	0.219231	0.0204383	0.199466	-0.0228518	0.0863213	-0.0146587	0.192376	-0.0585032	0.136297	-0.0545078	0.160003	-0.0180015	0.164183	0.45765	0.527541	
0.988304	4.21753	0	0	-0.18964	0.073352	-0.229684	-0.0202035	-0.142939	0.081981	-0.270317	-0.13689	-0.124495	0.305876	-0.16542	0.390279	0.075427	0.380086	-0.03201	0.38297	-0.0517455	0.22822	0.0158665	0.199375	-0.0268165	0.0975265	-0.0161295	0.196532	-0.0608225	0.142852	-0.0517905	0.162249	-0.015583	0.16892	0.46193	0.527638	
0.989643	4.22516	0	0	-0.191402	0.07833	-0.233432	-0.00961275	-0.14496	0.087693	-0.276057	-0.133139	-0.129092	0.308881	-0.16542	0.390279	0.0717315	0.380503	-0.037408	0.382801	-0.0514707	0.237208	0.0112947	0.199284	-0.0307812	0.108732	-0.0176003	0.200689	-0.0631417	0.149406	-0.0490732	0.164496	-0.0131645	0.173657	0.46621	0.527735	
0.991112	4.23431	0	0	-0.193163	0.083308	-0.237179	0.000978	-0.146981	0.093405	-0.281797	-0.129389	-0.13369	0.311885	-0.16542	0.390279	0.068036	0.38092	-0.042806	0.382632	-0.051196	0.246196	0.006723	0.199193	-0.034746	0.119937	-0.019071	0.204846	-0.065461	0.155961	-0.046356	0.166743	-0.010746	0.178394	0.47049	0.527832	
0.992617	4.24652	0	0	-0.194925	0.0882887	-0.233844	0.000836	-0.147992	0.0962622	-0.276057	-0.133139	-0.135517	0.307064	-0.168669	0.37916	0.068017	0.370951	-0.0431037	0.368062	-0.0559625	0.240143	0.00781275	0.183111	-0.0353482	0.109564	-0.0217543	0.197017	-0.0698205	0.153771	-0.047223	0.159268	-0.0218703	0.175137	0.470202	0.516452	
0.994065	4.25873	0	0	-0.196688	0.0932695	-0.23051	0.000694	-0.149004	0.0991195	-0.270317	-0.13689	-0.137344	0.302243	-0.171918	0.368041	0.067998	0.360983	-0.0434015	0.353491	-0.060729	0.23409	0.0089025	0.167029	-0.0359505	0.099191	-0.0244375	0.189188	-0.07418	0.151581	-0.04809	0.151792	-0.0329945	0.17188	0.469915	0.505072	
0.995361	4.26636	0	0	-0.19845	0.0982502	-0.227175	0.000552	-0.150015	0.101977	-0.264577	-0.140641	-0.139171	0.297423	-0.175166	0.356922	0.067979	0.351015	-0.0436993	0.338921	-0.0654955	0.228036	0.00999225	0.150947	-0.0365528	0.088818	-0.0271207	0.181358	-0.0785395	0.14939	-0.048957	0.144317	-0.0441187	0.168624	0.469627	0.493691	
0.996412	4.28161	0	0	-0.200212	0.103231	-0.22384	0.00041	-0.151026	0.104834	-0.258837	-0.144391	-0.140998	0.292602	-0.178415	0.345803	0.06796	0.341046	-0.043997	0.32435	-0.070262	0.221983	0.011082	0.134865	-0.037155	0.078445	-0.029804	0.173529	-0.082899	0.1472	-0.049824	0.136842	-0.055243	0.165367	0.469339	0.482311	
0.997126	4.29077	0	0	-0.201094	0.105722	-0.225716	0.0057115	-0.152037	0.107692	-0.256356	-0.151403	-0.144669	0.292996	-0.187748	0.351902	0.0614953	0.339289	-0.03891	0.309973	-0.0666137	0.221432	0.00618425	0.12273	-0.042709	0.082074	-0.026867	0.165229	-0.082899	0.1472	-0.0534652	0.137212	-0.0508917	0.164627	0.471998	0.474797	
0.997439	4.2984	0	0	-0.201975	0.108214	-0.227592	0.011013	-0.153048	0.11055	-0.253875	-0.158416	-0.148339	0.293391	-0.197081	0.358	0.0550305	0.337531	-0.033823	0.295596	-0.0629655	0.22088	0.0012865	0.110594	-0.048263	0.085703	-0.02393	0.156929	-0.082899	0.1472	-0.0571065	0.137582	-0.0465405	0.163888	0.474657	0.467283	
0.997357	4.30908	0	0	-0.202856	0.110706	-0.229467	0.0163145	-0.15406	0.113409	-0.251393	-0.165429	-0.15201	0.293785	-0.206415	0.364098	0.0485658	0.335774	-0.028736	0.281218	-0.0593173	0.220329	-0.00361125	0.0984585	-0.053817	0.089332	-0.020993	0.14863	-0.082899	0.1472	-0.0607478	0.137953	-0.0421892	0.163149	0.477315	0.459769	
0.996893	4.31824	0	0	-0.203738	0.113197	-0.231343	0.021616	-0.155071	0.116267	-0.248912	-0.172441	-0.15568	0.29418	-0.215748	0.370197	0.042101	0.334017	-0.023649	0.266841	-0.055669	0.219777	-0.008509	0.086323	-0.059371	0.092961	-0.018056	0.14033	-0.082899	0.1472	-0.064389	0.138323	-0.037838	0.162409	0.479974	0.452255	
0.996061	4.32892	0	0	-0.207701	0.113871	-0.233739	0.0191062	-0.159416	0.116909	-0.247672	-0.175945	-0.15201	0.293785	-0.204386	0.358365	0.0485427	0.325823	-0.0256575	0.257118	-0.0668805	0.212456	-0.00918775	0.0623005	-0.0635435	0.0806427	-0.02636	0.133012	-0.0904507	0.139553	-0.0634103	0.125642	-0.0397697	0.14476	0.463906	0.436818	
0.994873	4.33807	0	0	-0.211664	0.114545	-0.236136	0.0165965	-0.16376	0.117551	-0.246432	-0.17945	-0.148339	0.293391	-0.193024	0.346533	0.0549845	0.317629	-0.027666	0.247395	-0.078092	0.205135	-0.0098665	0.038278	-0.067716	0.0683245	-0.034664	0.125695	-0.0980025	0.131906	-0.0624315	0.11296	-0.0417015	0.127111	0.447837	0.421382	
0.993342	4.34418	0	0	-0.215627	0.115219	-0.238533	0.0140868	-0.168105	0.118192	-0.245192	-0.182954	-0.144669	0.292996	-0.181662	0.3347	0.0614263	0.309435	-0.0296745	0.237673	-0.0893035	0.197814	-0.0105452	0.0142555	-0.0718885	0.0560063	-0.042968	0.118377	-0.105554	0.124258	-0.0614528	0.100279	-0.0436332	0.109463	0.431769	0.405946	
0.991482	4.35333	0	0	-0.21959	0.115893	-0.240929	0.011577	-0.17245	0.118834	-0.243952	-0.186458	-0.140998	0.292602	-0.1703	0.322868	0.067868	0.301241	-0.031683	0.22795	-0.100515	0.190493	-0.011224	-0.009767	-0.076061	0.043688	-0.051272	0.111059	-0.113106	0.116611	-0.060474	0.087598	-0.045565	0.091814	0.415701	0.390509	
0.989306	4.36249	0	0	-0.227509	0.117238	-0.239991	0.00892725	-0.18113	0.120113	-0.251711	-0.189464	-0.140094	0.300032	-0.172329	0.328602	0.0715612	0.30082	-0.0299918	0.22317	-0.0960302	0.187562	-0.0175315	-0.017846	-0.0796287	0.0417267	-0.0498075	0.10692	-0.118612	0.117696	-0.060474	0.087598	-0.038318	0.0828833	0.415402	0.379209	
0.986872	4.36706	0	0	-0.235428	0.118583	-0.239054	0.0062775	-0.189811	0.121393	-0.25947	-0.19247	-0.13919	0.307462	-0.174357	0.334336	0.0752545	0.300399	-0.0283005	0.218391	-0.0915455	0.184632	-0.023839	-0.025925	-0.0831965	0.0397655	-0.048343	0.10278	-0.124119	0.11878	-0.060474	0.087598	-0.031071	0.0739525	0.415102	0.367909	
0.984308	4.37469	0	0	-0.243346	0.119928	-0.238117	0.00362775	-0.198491	0.122672	-0.267229	-0.195476	-0.138287	0.314893	-0.176386	0.340069	0.0789478	0.299978	-0.0266093	0.213612	-0.0870607	0.181702	-0.0301465	-0.034004	-0.0867643	0.0378042	-0.0468785	0.0986405	-0.129626	0.119864	-0.060474	0.087598	-0.023824	0.0650218	0.414803	0.356609	
0.981752	4.37927	0	0	-0.251265	0.121273	-0.237179	0.000978	-0.207172	0.123951	-0.274988	-0.198482	-0.137383	0.322323	-0.178415	0.345803	0.082641	0.299557	-0.024918	0.208832	-0.082576	0.178771	-0.036454	-0.042083	-0.090332	0.035843	-0.045414	0.094501	-0.135132	0.120949	-0.060474	0.087598	-0.016577	0.056091	0.414504	0.345309	
0.979339	4.3869	0	0	-0.2517	0.111993	-0.240098	-0.00932425	-0.209488	0.118881	-0.277008	-0.205229	-0.135537	0.317105	-0.167043	0.333964	0.0807805	0.294798	-0.0215385	0.19928	-0.090136	0.170921	-0.039956	-0.0580548	-0.0964737	0.0291367	-0.0481	0.0867182	-0.142665	0.113318	-0.060424	0.0775465	-0.028185	0.0427373	0.408311	0.326422	
0.977206	4.38843	0	0	-0.252134	0.102714	-0.243016	-0.0196265	-0.211803	0.11381	-0.279027	-0.211975	-0.13369	0.311887	-0.155671	0.322125	0.07892	0.290038	-0.018159	0.189729	-0.097696	0.16307	-0.043458	-0.0740265	-0.102615	0.0224305	-0.050786	0.0789355	-0.150199	0.105686	-0.060374	0.067495	-0.039793	0.0293835	0.402118	0.307535	
0.97549	4.393	0	0	-0.252568	0.0934338	-0.245935	-0.0299288	-0.214119	0.10874	-0.281047	-0.218722	-0.131844	0.306669	-0.144299	0.310286	0.0770595	0.285279	-0.0147795	0.180177	-0.105256	0.15522	-0.04696	-0.0899983	-0.108757	0.0157242	-0.053472	0.0711528	-0.157732	0.0980545	-0.060324	0.0574435	-0.051401	0.0160297	0.395924	0.288648	
0.974326	4.39911	5	0	-0.253003	0.084154	-0.248854	-0.040231	-0.216435	0.103669	-0.283067	-0.225469	-0.129998	0.301451	-0.132927	0.298447	0.075199	0.28052	-0.0114	0.170626	-0.112816	0.147369	-0.050462	-0.10597	-0.114899	0.009018	-0.056158	0.06337	-0.165265	0.090423	-0.060274	0.047392	-0.063009	0.002676	0.389731	0.269761	
0.973846	4.40521	5	0	-0.260909	0.085498	-0.251249	-0.042731	-0.220768	0.104307	-0.287559	-0.22522	-0.131844	0.306669	-0.134956	0.304181	0.0715075	0.280942	-0.0114	0.170626	-0.116454	0.147921	-0.0476655	-0.113873	-0.119446	0.009847	-0.056158	0.06337	-0.162957	0.0838995	-0.0648325	0.0503707	-0.0610852	-0.00276125	0.389731	0.269761	
0.974057	4.40521	5	0	-0.268814	0.086842	-0.253644	-0.045231	-0.225102	0.104945	-0.29205	-0.224972	-0.13369	0.311887	-0.136985	0.309915	0.067816	0.281363	-0.0114	0.170626	-0.120092	0.148472	-0.044869	-0.121777	-0.123993	0.010676	-0.056158	0.06337	-0.160648	0.077376	-0.069391	0.0533495	-0.0591615	-0.0081985	0.389731	0.269761	
0.974845	4.40369	5	0	-0.27672	0.088186	-0.25604	-0.047731	-0.229436	0.105584	-0.296542	-0.224724	-0.135537	0.317105	-0.139013	0.315649	0.0641245	0.281785	-0.0114	0.170626	-0.123729	0.149024	-0.0420725	-0.12968	-0.128539	0.011505	-0.056158	0.06337	-0.15834	0.0708525	-0.0739495	0.0563282	-0.0572378	-0.0136358	0.389731	0.269761	
0.976094	4.40369	5	0	-0.284626	0.08953	-0.258435	-0.050231	-0.233769	0.106222	-0.301034	-0.224475	-0.137383	0.322323	-0.141042	0.321383	0.060433	0.282207	-0.0114	0.170626	-0.127367	0.149575	-0.039276	-0.137583	-0.133086	0.012334	-0.056158	0.06337	-0.156032	0.064329	-0.078508	0.059307	-0.055314	-0.019073	0.389731	0.269761	
0.977685	4.40979	5	0	-0.286818	0.0852332	-0.254696	-0.0607965	-0.236082	0.101158	-0.299798	-0.227968	-0.141055	0.322716	-0.141042	0.321383	0.0631798	0.274445	-0.0097115	0.165854	-0.128484	0.143009	-0.042429	-0.141593	-0.134675	0.00481125	-0.054696	0.0592382	-0.158069	0.0556403	-0.0793802	0.0518725	-0.0635295	-0.0303995	0.392364	0.262319	
0.979501	4.40979	5	0	-0.289009	0.0809365	-0.250958	-0.071362	-0.238395	0.096094	-0.298562	-0.231461	-0.144727	0.32311	-0.141042	0.321383	0.0659265	0.266682	-0.008023	0.161083	-0.129601	0.136443	-0.045582	-0.145603	-0.136263	-0.0027115	-0.053234	0.0551065	-0.160105	0.0469515	-0.0802525	0.044438	-0.071745	-0.041726	0.394998	0.254877	
0.981424	4.40826	5	0	-0.2912	0.0766398	-0.24722	-0.0819275	-0.240708	0.09103	-0.297326	-0.234955	-0.148399	0.323503	-0.141042	0.321383	0.0686732	0.25892	-0.0063345	0.156311	-0.130718	0.129876	-0.048735	-0.149614	-0.137852	-0.0102342	-0.051772	0.0509747	-0.162141	0.0382627	-0.0811247	0.0370035	-0.0799605	-0.0530525	0.397631	0.247434	
0.983337	4.40521	5	0	-0.293392	0.072343	-0.243481	-0.092493	-0.243021	0.085966	-0.29609	-0.238448	-0.152071	0.323896	-0.141042	0.321383	0.07142	0.251158	-0.004646	0.151539	-0.131835	0.12331	-0.051888	-0.153624	-0.13944	-0.017757	-0.05031	0.046843	-0.164178	0.029574	-0.081997	0.029569	-0.088176	-0.064379	0.400264	0.239992	
0.985127	4.40369	5	0	-0.293392	0.072343	-0.239215	-0.0952805	-0.243021	0.085966	-0.292834	-0.235203	-0.149323	0.326113	-0.152416	0.333226	0.0677298	0.251581	0.00075325	0.15168	-0.129039	0.12513	-0.054682	-0.145728	-0.140425	-0.0149745	-0.047622	0.0546203	-0.168517	0.0274052	-0.0829175	0.0321707	-0.0978003	-0.0601745	0.408793	0.240141	
0.986754	4.40369	5	0	-0.293392	0.072343	-0.234949	-0.098068	-0.243021	0.085966	-0.289579	-0.231959	-0.146574	0.328329	-0.163789	0.345069	0.0640395	0.252004	0.0061525	0.15182	-0.126242	0.126949	-0.057476	-0.137831	-0.14141	-0.012192	-0.044934	0.0623975	-0.172857	0.0252365	-0.083838	0.0347725	-0.107425	-0.05597	0.417322	0.240289	
0.98823	4.39758	5	0	-0.293392	0.072343	-0.230683	-0.100856	-0.243021	0.085966	-0.286323	-0.228714	-0.143825	0.330546	-0.175162	0.356911	0.0603493	0.252428	0.0115517	0.151961	-0.123446	0.128769	-0.06027	-0.129935	-0.142394	-0.0094095	-0.042246	0.0701747	-0.177197	0.0230678	-0.0847585	0.0373742	-0.117049	-0.0517655	0.42585	0.240438	
0.989566	4.39758	5	0	-0.293392	0.072343	-0.226417	-0.103643	-0.243021	0.085966	-0.283067	-0.225469	-0.141077	0.332763	-0.186536	0.368754	0.056659	0.252851	0.016951	0.152102	-0.120649	0.130589	-0.063064	-0.122039	-0.143379	-0.006627	-0.039558	0.077952	-0.181536	0.020899	-0.085679	0.039976	-0.126673	-0.047561	0.434379	0.240587	
0.990774	4.39148	5	0	-0.293392	0.072343	-0.229749	-0.103495	-0.243021	0.085966	-0.284304	-0.221973	-0.145672	0.335766	-0.177193	0.362649	0.0529712	0.253273	0.0240445	0.147467	-0.12708	0.129321	-0.057117	-0.125925	-0.14792	-0.00579925	-0.0380948	0.0738165	-0.182423	0.008984	-0.086552	0.032549	-0.130537	-0.0596065	0.428796	0.244235	
0.991864	4.393	5	0	-0.293392	0.072343	-0.233081	-0.103347	-0.243021	0.085966	-0.285541	-0.218477	-0.150267	0.338769	-0.167849	0.356544	0.0492835	0.253695	0.031138	0.142832	-0.13351	0.128053	-0.05117	-0.129811	-0.15246	-0.0049715	-0.0366315	0.069681	-0.18331	-0.002931	-0.087425	0.025122	-0.134401	-0.071652	0.423213	0.247883	
0.992849	4.38537	5	0	-0.293392	0.072343	-0.236413	-0.103199	-0.243021	0.085966	-0.286778	-0.214981	-0.154863	0.341771	-0.158506	0.350438	0.0455958	0.254118	0.0382315	0.138196	-0.13994	0.126785	-0.045223	-0.133697	-0.157	-0.00414375	-0.0351682	0.0655455	-0.184197	-0.014846	-0.088298	0.017695	-0.138265	-0.0836975	0.41763	0.251531	
0.993739	4.38843	5	0	-0.293392	0.072343	-0.239745	-0.103051	-0.243021	0.085966	-0.288015	-0.211485	-0.159458	0.344774	-0.149163	0.344333	0.041908	0.25454	0.045325	0.133561	-0.146371	0.125517	-0.039276	-0.137583	-0.161541	-0.003316	-0.033705	0.06141	-0.185084	-0.026761	-0.089171	0.010268	-0.142129	-0.095743	0.412047	0.255179	
0.994545	4.3808	5	0	-0.29515	0.07731	-0.239216	-0.095276	-0.240708	0.09103	-0.285997	-0.204734	-0.157635	0.349606	-0.160538	0.356179	0.0400783	0.259711	0.0490445	0.138474	-0.14246	0.133906	-0.0389205	-0.125658	-0.154427	0.0005965	-0.0339465	0.0774792	-0.186233	-0.023513	-0.088298	0.017695	-0.144044	-0.090332	0.422214	0.26286	
0.995237	4.37469	5	0	-0.296907	0.082277	-0.238688	-0.087501	-0.238395	0.096094	-0.283979	-0.197984	-0.155812	0.354438	-0.171912	0.368026	0.0382485	0.264882	0.052764	0.143387	-0.138549	0.142294	-0.038565	-0.113733	-0.147313	0.004509	-0.034188	0.0935485	-0.187383	-0.020265	-0.087425	0.025122	-0.145958	-0.084921	0.432381	0.270542	
0.99577	4.36859	5	0	-0.298664	0.087244	-0.23816	-0.079726	-0.236082	0.101158	-0.28196	-0.191233	-0.15399	0.359271	-0.183287	0.379873	0.0364187	0.270053	0.0564835	0.148299	-0.134638	0.150683	-0.0382095	-0.101808	-0.1402	0.0084215	-0.0344295	0.109618	-0.188532	-0.017017	-0.086552	0.032549	-0.147873	-0.07951	0.442547	0.278224	
0.996094	4.36554	5	0	-0.300422	0.092211	-0.237631	-0.071951	-0.233769	0.106222	-0.279942	-0.184482	-0.152167	0.364103	-0.194662	0.391719	0.034589	0.275224	0.060203	0.153212	-0.130727	0.159072	-0.037854	-0.089883	-0.133086	0.012334	-0.034671	0.125687	-0.189681	-0.013769	-0.085679	0.039976	-0.149788	-0.074099	0.452714	0.285905	
0.99616	4.36249	5	0	-0.300422	0.092211	-0.233363	-0.0747397	-0.233769	0.106222	-0.275445	-0.184729	-0.150318	0.358879	-0.194662	0.391719	0.035504	0.272638	0.058512	0.157992	-0.132683	0.154875	-0.0318987	-0.0937743	-0.137629	0.0131615	-0.0275833	0.121056	-0.192867	-0.0191757	-0.088392	0.0377487	-0.149328	-0.0868715	0.455975	0.301003	
0.995922	4.35638	5	0	-0.300422	0.092211	-0.229095	-0.0775285	-0.233769	0.106222	-0.270948	-0.184975	-0.14847	0.353655	-0.194662	0.391719	0.036419	0.270053	0.056821	0.162771	-0.134638	0.150679	-0.0259435	-0.0976655	-0.142173	0.013989	-0.0204955	0.116424	-0.196053	-0.0245825	-0.091105	0.0355215	-0.148868	-0.099644	0.459237	0.316101	
0.99533	4.34875	5	0	-0.300422	0.092211	-0.224826	-0.0803173	-0.233769	0.106222	-0.266451	-0.185221	-0.146622	0.348431	-0.194662	0.391719	0.037334	0.267467	0.05513	0.16755	-0.136594	0.146482	-0.0199882	-0.101557	-0.146716	0.0148165	-0.0134077	0.111793	-0.199239	-0.0299892	-0.093818	0.0332942	-0.148408	-0.112417	0.462499	0.331199	
0.994336	4.35181	5	0	-0.300422	0.092211	-0.220558	-0.083106	-0.233769	0.106222	-0.261954	-0.185468	-0.144773	0.343207	-0.194662	0.391719	0.038249	0.264881	0.053439	0.17233	-0.13855	0.142286	-0.014033	-0.105448	-0.151259	0.015644	-0.00632	0.107162	-0.202425	-0.035396	-0.096531	0.031067	-0.147948	-0.125189	0.46576	0.346297	
0.992897	4.3457	5	0	-0.299112	0.0989982	-0.216694	-0.0754672	-0.231456	0.111292	-0.259934	-0.178706	-0.144773	0.343207	-0.194662	0.391719	0.0327337	0.270473	0.057159	0.177254	-0.14191	0.151782	-0.013679	-0.0935007	-0.152245	0.0184293	-0.00216075	0.110819	-0.204722	-0.0289035	-0.091104	0.035523	-0.145537	-0.120532	0.477883	0.372964	
0.991028	4.34265	5	0	-0.297802	0.105786	-0.212829	-0.0678285	-0.229142	0.116362	-0.257914	-0.171943	-0.144773	0.343207	-0.194662	0.391719	0.0272185	0.276064	0.060879	0.182178	-0.145269	0.161277	-0.013325	-0.0815535	-0.15323	0.0212145	0.0019985	0.114476	-0.207019	-0.022411	-0.085677	0.039979	-0.143125	-0.115874	0.490005	0.399631	
0.988771	4.33655	5	0	-0.296491	0.112573	-0.208964	-0.0601898	-0.226828	0.121432	-0.255894	-0.165181	-0.144773	0.343207	-0.194662	0.391719	0.0217033	0.281656	0.064599	0.187102	-0.148629	0.170772	-0.012971	-0.0696063	-0.154216	0.0239998	0.00615775	0.118133	-0.209317	-0.0159185	-0.08025	0.044435	-0.140713	-0.111217	0.502128	0.426298	
0.986169	4.33197	5	0	-0.295181	0.11936	-0.2051	-0.052551	-0.224515	0.126502	-0.253874	-0.158419	-0.144773	0.343207	-0.194662	0.391719	0.016188	0.287248	0.068319	0.192026	-0.151989	0.180268	-0.012617	-0.057659	-0.155201	0.026785	0.010317	0.12179	-0.211614	-0.009426	-0.074823	0.048891	-0.138302	-0.10656	0.514251	0.452965	
0.983265	4.33044	5	0	-0.288158	0.120509	-0.203636	-0.0474022	-0.225525	0.129358	-0.246107	-0.155402	-0.149345	0.336164	-0.1906	0.38024	0.0106535	0.282915	0.068319	0.192026	-0.150309	0.175519	-0.012617	-0.057659	-0.159741	0.02761	0.0117845	0.117643	-0.217092	-0.0083425	-0.074823	0.048891	-0.142626	-0.105813	0.52313	0.464523	
0.980102	4.32892	5	0	-0.281134	0.121658	-0.202172	-0.0422535	-0.226536	0.132213	-0.23834	-0.152386	-0.153916	0.32912	-0.186538	0.368761	0.005119	0.278583	0.068319	0.192026	-0.148628	0.17077	-0.012617	-0.057659	-0.16428	0.028435	0.013252	0.113496	-0.222571	-0.007259	-0.074823	0.048891	-0.14695	-0.105066	0.53201	0.476081	
0.976724	4.32129	5	0	-0.274111	0.122807	-0.200707	-0.0371047	-0.227546	0.135068	-0.230573	-0.14937	-0.158488	0.322077	-0.182477	0.357282	-0.0004155	0.274251	0.068319	0.192026	-0.146948	0.166021	-0.012617	-0.057659	-0.16882	0.02926	0.0147195	0.109349	-0.22805	-0.0061755	-0.074823	0.048891	-0.151273	-0.104319	0.54089	0.487638	
0.973174	4.31976	5	0	-0.267087	0.123956	-0.199243	-0.031956	-0.228556	0.137924	-0.222806	-0.146353	-0.163059	0.315034	-0.178415	0.345803	-0.00595	0.269918	0.068319	0.192026	-0.145268	0.161272	-0.012617	-0.057659	-0.17336	0.030085	0.016187	0.105202	-0.233528	-0.005092	-0.074823	0.048891	-0.155597	-0.103572	0.549769	0.499196	
0.969511	4.31518	5	0	-0.263582	0.135074	-0.193912	-0.0191307	-0.221905	0.142367	-0.226534	-0.135815	-0.162137	0.312427	-0.185719	0.346168	-0.00503625	0.267335	0.066625	0.196813	-0.138836	0.162546	-0.00946	-0.0536242	-0.167835	0.0264748	0.0147195	0.109349	-0.223716	-0.004012	-0.0739515	0.056333	-0.149819	-0.0969495	0.558661	0.510789	
0.965867	4.31213	5	0	-0.260078	0.146192	-0.188582	-0.0063055	-0.215255	0.146809	-0.230263	-0.125278	-0.161214	0.30982	-0.193024	0.346533	-0.0041225	0.264752	0.064931	0.201601	-0.132404	0.163821	-0.006303	-0.0495895	-0.162309	0.0228645	0.013252	0.113496	-0.213904	-0.002932	-0.07308	0.063775	-0.144041	-0.090327	0.567554	0.522382	
0.962395	4.30603	5	0	-0.256574	0.15731	-0.183252	0.00651975	-0.208604	0.151251	-0.233991	-0.11474	-0.160292	0.307213	-0.200328	0.346897	-0.00320875	0.262169	0.063237	0.206388	-0.125972	0.165096	-0.003146	-0.0455548	-0.156784	0.0192543	0.0117845	0.117643	-0.204092	-0.001852	-0.0722085	0.071217	-0.138263	-0.0837045	0.576447	0.533976	
0.959251	4.30298	5	0	-0.253069	0.168428	-0.177921	0.019345	-0.201953	0.155694	-0.23772	-0.104202	-0.159369	0.304606	-0.207632	0.347262	-0.002295	0.259586	0.061543	0.211175	-0.11954	0.16637	1.1E-05	-0.04152	-0.151259	0.015644	0.010317	0.12179	-0.19428	-0.000772	-0.071337	0.078659	-0.132485	-0.077082	0.585339	0.545569	
0.956587	4.29687	5	0	-0.245148	0.167088	-0.173638	0.0165465	-0.201953	0.155694	-0.228702	-0.104689	-0.15843	0.291979	-0.205605	0.341532	-0.0032345	0.252263	0.0703483	0.201741	-0.123453	0.157977	-0.003146	-0.0455548	-0.158367	0.0117305	0.0147172	0.109355	-0.202943	-0.0050975	-0.0722085	0.071217	-0.140176	-0.078297	0.582373	0.5417	
0.954557	4.29382	5	0	-0.237227	0.165747	-0.169355	0.013748	-0.201953	0.155694	-0.219683	-0.105176	-0.157491	0.279351	-0.203577	0.335801	-0.004174	0.244939	0.0791535	0.192308	-0.127366	0.149583	-0.006303	-0.0495895	-0.165475	0.007817	0.0191175	0.0969195	-0.211607	-0.009423	-0.07308	0.063775	-0.147867	-0.079512	0.579408	0.537832	
0.953315	4.29077	5	0	-0.229306	0.164407	-0.165072	0.0109495	-0.201953	0.155694	-0.210664	-0.105662	-0.156552	0.266724	-0.201549	0.330071	-0.0051135	0.237616	0.0879588	0.182874	-0.131279	0.14119	-0.00946	-0.0536242	-0.172583	0.0039035	0.0235177	0.0844842	-0.220271	-0.0137485	-0.0739515	0.056333	-0.155559	-0.080727	0.576442	0.533964	
0.953013	4.29077	5	0	-0.221385	0.163067	-0.160789	0.008151	-0.201953	0.155694	-0.201646	-0.106149	-0.155613	0.254097	-0.199522	0.324341	-0.006053	0.230293	0.096764	0.17344	-0.135192	0.132797	-0.012617	-0.057659	-0.179691	-1E-05	0.027918	0.072049	-0.228934	-0.018074	-0.074823	0.048891	-0.16325	-0.081942	0.573476	0.530095	
0.953682	4.28467	5	0	-0.218304	0.164892	-0.154096	0.00786075	-0.192256	0.151556	-0.202891	-0.102631	-0.149182	0.245895	-0.199522	0.324341	-0.006053	0.230293	0.0879588	0.182874	-0.138826	0.133348	-0.012617	-0.057659	-0.177723	-0.00557075	0.0237545	0.0684035	-0.226903	-0.0094145	-0.0730295	0.0537267	-0.155559	-0.080727	0.576442	0.533964	
0.955166	4.28314	5	0	-0.215223	0.166716	-0.147402	0.0075705	-0.182559	0.147419	-0.204136	-0.099113	-0.142751	0.237693	-0.199522	0.324341	-0.006053	0.230293	0.0791535	0.192308	-0.14246	0.133899	-0.012617	-0.057659	-0.175756	-0.0111315	0.019591	0.064758	-0.224872	-0.000755	-0.071236	0.0585625	-0.147867	-0.079512	0.579408	0.537832	
0.957294	4.27704	5	0	-0.212142	0.168541	-0.140709	0.00728025	-0.172863	0.143282	-0.205381	-0.095595	-0.136319	0.22949	-0.199522	0.324341	-0.006053	0.230293	0.0703483	0.201741	-0.146093	0.13445	-0.012617	-0.057659	-0.173789	-0.0166922	0.0154275	0.0611125	-0.222841	0.0079045	-0.0694425	0.0633983	-0.140176	-0.078297	0.582373	0.5417	
0.959891	4.27399	5	0	-0.209061	0.170366	-0.134016	0.00699	-0.163166	0.139144	-0.206626	-0.092077	-0.129888	0.221288	-0.199522	0.324341	-0.006053	0.230293	0.061543	0.211175	-0.149727	0.135001	-0.012617	-0.057659	-0.171821	-0.022253	0.011264	0.057467	-0.22081	0.016564	-0.067649	0.068234	-0.132485	-0.077082	0.585339	0.545569	
0.962785	4.27246	5	0	-0.206412	0.162879	-0.12932	-0.006282	-0.154772	0.127064	-0.205381	-0.095595	-0.129881	0.211294	-0.197496	0.318614	-0.004228	0.225135	0.063237	0.206388	-0.147492	0.118971	-0.0157725	-0.0616893	-0.170462	-0.0380827	0.00856625	0.0496917	-0.21966	0.0133148	-0.0658052	0.0630235	-0.135853	-0.0790422	0.588011	0.538017	
0.965804	4.26636	5	0	-0.203763	0.155392	-0.124624	-0.019554	-0.146377	0.114985	-0.204136	-0.099113	-0.129874	0.2013	-0.19547	0.312887	-0.002403	0.219977	0.064931	0.201601	-0.145257	0.102942	-0.018928	-0.0657195	-0.169103	-0.0539125	0.0058685	0.0419165	-0.21851	0.0100655	-0.0639615	0.057813	-0.139221	-0.0810025	0.590684	0.530465	
0.968775	4.26178	5	0	-0.201113	0.147905	-0.119928	-0.032826	-0.137983	0.102905	-0.202891	-0.102631	-0.129866	0.191305	-0.193443	0.307161	-0.000578	0.21482	0.066625	0.196813	-0.143023	0.0869118	-0.0220835	-0.0697497	-0.167744	-0.0697422	0.00317075	0.0341412	-0.217361	0.00681625	-0.0621177	0.0526025	-0.14259	-0.0829628	0.593356	0.522912	
0.971529	4.25567	0	0	-0.198464	0.140418	-0.115232	-0.046098	-0.129588	0.090826	-0.201646	-0.106149	-0.129859	0.181311	-0.191417	0.301434	0.001247	0.209662	0.068319	0.192026	-0.140788	0.070882	-0.025239	-0.07378	-0.166385	-0.085572	0.000473	0.026366	-0.216211	0.003567	-0.060274	0.047392	-0.145958	-0.084923	0.596028	0.51536	
0.973978	4.25567	0	0	-0.198464	0.140418	-0.117643	-0.0485997	-0.123214	0.0844645	-0.206157	-0.105905	-0.125269	0.178312	-0.191417	0.301434	0.0049275	0.209239	0.066625	0.196813	-0.141909	0.0643415	-0.023838	-0.0777395	-0.164423	-0.0911172	0.00339625	0.0181045	-0.216211	0.003567	-0.0547915	0.0418077	-0.140675	-0.0883753	0.597363	0.511586	
0.976099	4.24805	0	0	-0.198464	0.140418	-0.120054	-0.0511015	-0.11684	0.078103	-0.210668	-0.105661	-0.120678	0.175312	-0.191417	0.301434	0.008608	0.208817	0.064931	0.201601	-0.14303	0.057801	-0.022437	-0.081699	-0.162461	-0.0966625	0.0063195	0.009843	-0.216211	0.003567	-0.049309	0.0362235	-0.135391	-0.0918275	0.598699	0.507812	
0.97787	4.24805	0	0	-0.198464	0.140418	-0.122465	-0.0536033	-0.110466	0.0717415	-0.215179	-0.105418	-0.116088	0.172312	-0.191417	0.301434	0.0122885	0.208394	0.063237	0.206388	-0.14415	0.0512605	-0.021036	-0.0856585	-0.160499	-0.102208	0.00924275	0.0015815	-0.216211	0.003567	-0.0438265	0.0306392	-0.130108	-0.0952797	0.600034	0.504039	
0.97927	4.24347	0	0	-0.198464	0.140418	-0.124876	-0.056105	-0.104092	0.06538	-0.21969	-0.105174	-0.111498	0.169313	-0.191417	0.301434	0.015969	0.207972	0.061543	0.211175	-0.145271	0.04472	-0.019635	-0.089618	-0.158537	-0.107753	0.012166	-0.00668	-0.216211	0.003567	-0.038344	0.025055	-0.124824	-0.098732	0.601369	0.500265	
0.980278	4.23584	0	0	-0.194054	0.127954	-0.122602	-0.0718412	-0.100051	0.05396	-0.217203	-0.112203	-0.103232	0.155931	-0.191417	0.301434	0.0177935	0.202816	0.0578248	0.206246	-0.146682	0.0293055	-0.0245452	-0.101609	-0.156215	-0.126296	0.002388	-0.00980675	-0.213913	-0.002928	-0.0437808	0.0206052	-0.134431	-0.0945345	0.591432	0.503858	
0.980874	4.23584	0	0	-0.189644	0.11549	-0.120329	-0.0875775	-0.0960105	0.04254	-0.214716	-0.119232	-0.0949655	0.142548	-0.191417	0.301434	0.019618	0.197659	0.0541065	0.201317	-0.148093	0.013891	-0.0294555	-0.113601	-0.153894	-0.14484	-0.00739	-0.0129335	-0.211614	-0.009423	-0.0492175	0.0161555	-0.144037	-0.090337	0.581495	0.507451	
0.981035	4.22821	0	0	-0.185233	0.103026	-0.118055	-0.103314	-0.0919697	0.03112	-0.212228	-0.126261	-0.0866993	0.129166	-0.191417	0.301434	0.0214425	0.192503	0.0503883	0.196387	-0.149504	-0.0015235	-0.0343658	-0.125592	-0.151572	-0.163383	-0.017168	-0.0160602	-0.209316	-0.015918	-0.0546543	0.0117057	-0.153644	-0.0861395	0.571557	0.511045	
0.980747	4.22668	0	0	-0.180823	0.090562	-0.115781	-0.11905	-0.087929	0.0197	-0.209741	-0.13329	-0.078433	0.115784	-0.191417	0.301434	0.023267	0.187347	0.04667	0.191458	-0.150915	-0.016938	-0.039276	-0.137583	-0.14925	-0.181926	-0.026946	-0.019187	-0.207018	-0.022413	-0.060091	0.007256	-0.16325	-0.081942	0.56162	0.514638	
0.980038	4.22058	0	0	-0.177736	0.0923765	-0.112432	-0.119205	-0.0889387	0.0225535	-0.210985	-0.129776	-0.0692322	0.11975	-0.191417	0.301434	0.023299	0.197241	0.0520823	0.1916	-0.145617	-0.0222125	-0.0378788	-0.141532	-0.148272	-0.184691	-0.0184115	-0.0279327	-0.201535	-0.0235	-0.060091	0.007256	-0.155559	-0.080727	0.56592	0.514729	
0.978964	4.21905	0	0	-0.17465	0.094191	-0.109083	-0.119359	-0.0899485	0.025407	-0.212228	-0.126262	-0.0600315	0.123715	-0.191417	0.301434	0.023331	0.207134	0.0574945	0.191742	-0.140319	-0.027487	-0.0364815	-0.145481	-0.147294	-0.187455	-0.009877	-0.0366785	-0.196051	-0.024587	-0.060091	0.007256	-0.147867	-0.079512	0.570219	0.514819	
0.977582	4.21753	0	0	-0.171563	0.0960055	-0.105734	-0.119513	-0.0909582	0.0282605	-0.213471	-0.122749	-0.0508308	0.127681	-0.191417	0.301434	0.023363	0.217028	0.0629068	0.191884	-0.135021	-0.0327615	-0.0350842	-0.14943	-0.146316	-0.190219	-0.0013425	-0.0454242	-0.190568	-0.025674	-0.060091	0.007256	-0.140176	-0.078297	0.574519	0.51491	
0.975947	4.21295	0	0	-0.168476	0.09782	-0.102385	-0.119668	-0.091968	0.031114	-0.214715	-0.119235	-0.04163	0.131647	-0.191417	0.301434	0.023395	0.226921	0.068319	0.192026	-0.129723	-0.038036	-0.033687	-0.153379	-0.145338	-0.192984	0.007192	-0.05417	-0.185084	-0.026761	-0.060091	0.007256	-0.132485	-0.077082	0.578818	0.515	
0.974114	4.20685	0	0	-0.166713	0.0928363	-0.102927	-0.127446	-0.0889397	0.0225557	-0.213471	-0.122749	-0.0370272	0.128639	-0.193443	0.307161	0.0261655	0.229081	0.068319	0.192026	-0.129185	-0.0492537	-0.0368412	-0.157386	-0.142405	-0.201272	0.00303125	-0.057785	-0.183935	-0.0300077	-0.0628072	0.0050335	-0.133443	-0.0743745	0.573184	0.518682	
0.972141	4.20227	0	0	-0.164949	0.0878525	-0.103469	-0.135224	-0.0859115	0.0139975	-0.212228	-0.126262	-0.0324245	0.125632	-0.19547	0.312887	0.028936	0.23124	0.068319	0.192026	-0.128647	-0.0604715	-0.0399955	-0.161392	-0.139472	-0.20956	-0.0011295	-0.0614	-0.182787	-0.0332545	-0.0655235	0.002811	-0.134401	-0.071667	0.56755	0.522363	
0.970083	4.20227	0	0	-0.163186	0.0828687	-0.104011	-0.143002	-0.0828832	0.00543925	-0.210985	-0.129776	-0.0278217	0.122624	-0.197496	0.318614	0.0317065	0.233399	0.068319	0.192026	-0.12811	-0.0716892	-0.0431498	-0.165399	-0.13654	-0.217849	-0.00529025	-0.065015	-0.181638	-0.0365012	-0.0682398	0.0005885	-0.135359	-0.0689595	0.561915	0.526045	
0.968001	4.19617	5	0	-0.161423	0.077885	-0.104553	-0.15078	-0.079855	-0.003119	-0.209741	-0.13329	-0.023219	0.119617	-0.199522	0.324341	0.034477	0.235559	0.068319	0.192026	-0.127572	-0.082907	-0.046304	-0.169406	-0.133607	-0.226137	-0.009451	-0.06863	-0.180489	-0.039748	-0.070956	-0.001634	-0.136317	-0.066252	0.556281	0.529726	
0.965979	4.19159	5	0	-0.15657	0.0747142	-0.100268	-0.15358	-0.0701283	-0.007282	-0.212228	-0.126261	-0.0204467	0.131799	-0.194245	0.329707	0.0372767	0.247642	0.0703457	0.201749	-0.125608	-0.0787593	-0.045945	-0.1575	-0.12907	-0.226978	-0.00529025	-0.065015	-0.181638	-0.0365012	-0.0646015	0.000211	-0.131989	-0.0669983	0.56058	0.529818	
0.964105	4.19159	5	0	-0.151718	0.0715435	-0.095983	-0.15638	-0.0604015	-0.011445	-0.214716	-0.119232	-0.0176745	0.143981	-0.188968	0.335072	0.0400765	0.259725	0.0723725	0.211472	-0.123644	-0.0746115	-0.045586	-0.145593	-0.124532	-0.22782	-0.0011295	-0.0614	-0.182787	-0.0332545	-0.058247	0.002056	-0.12766	-0.0677445	0.564879	0.52991	
0.962471	4.18701	5	0	-0.146865	0.0683727	-0.091698	-0.15918	-0.0506747	-0.015608	-0.217203	-0.112203	-0.0149023	0.156163	-0.183692	0.340438	0.0428763	0.271808	0.0743993	0.221195	-0.12168	-0.0704637	-0.045227	-0.133686	-0.119995	-0.228662	0.00303125	-0.057785	-0.183935	-0.0300077	-0.0518925	0.003901	-0.123331	-0.0684908	0.569177	0.530003	
0.961167	4.18396	5	0	-0.142012	0.065202	-0.087413	-0.16198	-0.040948	-0.019771	-0.21969	-0.105174	-0.01213	0.168345	-0.178415	0.345803	0.045676	0.283891	0.076426	0.230918	-0.119716	-0.066316	-0.044868	-0.12178	-0.115457	-0.229503	0.007192	-0.05417	-0.185084	-0.026761	-0.045538	0.005746	-0.119003	-0.069237	0.573476	0.530095	
0.960281	4.17786	5	0	-0.138488	0.055243	-0.0888938	-0.167106	-0.0379217	-0.0283238	-0.211448	-0.115964	-0.00752	0.165333	-0.178415	0.345803	0.051224	0.288228	0.0747292	0.235713	-0.123346	-0.0657548	-0.0403155	-0.121716	-0.113503	-0.235026	0.007192	-0.05417	-0.178447	-0.031098	-0.0491763	0.0061235	-0.126207	-0.0603635	0.577778	0.530187	
0.959905	4.17328	5	0	-0.134964	0.045284	-0.0903745	-0.172231	-0.0348955	-0.0368765	-0.203205	-0.126753	-0.00291	0.16232	-0.178415	0.345803	0.056772	0.292566	0.0730325	0.240508	-0.126976	-0.0651935	-0.035763	-0.121652	-0.111548	-0.240548	0.007192	-0.05417	-0.171809	-0.035435	-0.0528145	0.006501	-0.133412	-0.05149	0.582081	0.530278	
0.960127	4.17328	5	0	-0.13144	0.035325	-0.0918552	-0.177357	-0.0318693	-0.0454293	-0.194962	-0.137543	0.0017	0.159308	-0.178415	0.345803	0.06232	0.296903	0.0713358	0.245302	-0.130607	-0.0646323	-0.0312105	-0.121588	-0.109594	-0.246071	0.007192	-0.05417	-0.165171	-0.039772	-0.0564527	0.0068785	-0.140616	-0.0426165	0.586383	0.530369	
0.96096	4.17175	5	0	-0.127916	0.025366	-0.093336	-0.182482	-0.028843	-0.053982	-0.18672	-0.148333	0.00631	0.156296	-0.178415	0.345803	0.067868	0.301241	0.069639	0.250097	-0.134237	-0.064071	-0.026658	-0.121524	-0.10764	-0.251594	0.007192	-0.05417	-0.158534	-0.044109	-0.060091	0.007256	-0.14782	-0.033743	0.590685	0.530461	
0.962278	4.17023	5	0	-0.123061	0.0221933	-0.0909203	-0.179999	-0.0244785	-0.0546428	-0.187964	-0.144819	0.0109293	0.163291	-0.173133	0.351177	0.0715855	0.310773	0.0770833	0.259998	-0.129477	-0.0581225	-0.0263033	-0.109588	-0.105054	-0.246914	0.011356	-0.0505513	-0.15304	-0.0452015	-0.0564527	0.0068785	-0.143492	-0.0344868	0.592315	0.53811	
0.963944	4.16717	5	0	-0.118205	0.0190205	-0.0885045	-0.177516	-0.020114	-0.0553035	-0.189207	-0.141305	0.0155485	0.170285	-0.167852	0.356551	0.075303	0.320306	0.0845275	0.269899	-0.124717	-0.052174	-0.0259485	-0.097652	-0.102468	-0.242234	0.01552	-0.0469325	-0.147547	-0.046294	-0.0528145	0.006501	-0.139164	-0.0352305	0.593946	0.545759	
0.965817	4.16565	5	0	-0.113349	0.0158478	-0.0860887	-0.175033	-0.0157495	-0.0559643	-0.19045	-0.137791	0.0201677	0.177279	-0.162571	0.361925	0.0790205	0.329838	0.0919718	0.2798	-0.119956	-0.0462255	-0.0255938	-0.085716	-0.0998813	-0.237554	0.019684	-0.0433137	-0.142053	-0.0473865	-0.0491763	0.0061235	-0.134837	-0.0359742	0.595577	0.553409	
0.96776	4.16412	5	0	-0.108494	0.012675	-0.083673	-0.17255	-0.011385	-0.056625	-0.191694	-0.134277	0.024787	0.184274	-0.157289	0.367299	0.082738	0.33937	0.099416	0.289701	-0.115196	-0.040277	-0.025239	-0.07378	-0.097295	-0.232874	0.023848	-0.039695	-0.13656	-0.048479	-0.045538	0.005746	-0.130509	-0.036718	0.597207	0.561058	
0.969632	4.15649	5	0	-0.106734	0.00769975	-0.0870232	-0.172392	-0.0137335	-0.0616618	-0.189208	-0.141303	0.024787	0.184274	-0.164601	0.367663	0.0855158	0.341546	0.101116	0.284896	-0.116865	-0.0355593	-0.0206813	-0.0737127	-0.097295	-0.232874	0.023848	-0.039695	-0.131062	-0.0495737	-0.045538	0.005746	-0.132428	-0.031294	0.602853	0.557369	
0.971295	4.15649	5	0	-0.104973	0.0027245	-0.0903735	-0.172234	-0.016082	-0.0666985	-0.186721	-0.14833	0.024787	0.184274	-0.171913	0.368027	0.0882935	0.343723	0.102817	0.280091	-0.118535	-0.0308415	-0.0161235	-0.0736455	-0.097295	-0.232874	0.023848	-0.039695	-0.125563	-0.0506685	-0.045538	0.005746	-0.134348	-0.02587	0.608498	0.553681	
0.972616	4.15344	5	0	-0.103213	-0.00225075	-0.0937237	-0.172076	-0.0184305	-0.0717353	-0.184235	-0.155357	0.024787	0.184274	-0.179224	0.36839	0.0910713	0.3459	0.104518	0.275285	-0.120204	-0.0261238	-0.0115657	-0.0735783	-0.097295	-0.232874	0.023848	-0.039695	-0.120065	-0.0517633	-0.045538	0.005746	-0.136267	-0.020446	0.614144	0.549992	
0.97357	4.15344	5	0	-0.101453	-0.007226	-0.097074	-0.171918	-0.020779	-0.076772	-0.181749	-0.162383	0.024787	0.184274	-0.186536	0.368754	0.093849	0.348076	0.106218	0.27048	-0.121873	-0.021406	-0.007008	-0.073511	-0.097295	-0.232874	0.023848	-0.039695	-0.114567	-0.052858	-0.045538	0.005746	-0.138186	-0.015022	0.619789	0.546303	
0.974248	4.15039	5	0	-0.0974747	-0.00791325	-0.0903715	-0.172235	-0.021787	-0.0739238	-0.182992	-0.15887	0.030333	0.188671	-0.186536	0.368754	0.0984887	0.355034	0.102817	0.280093	-0.119075	-0.0196058	-0.00384975	-0.0694798	-0.0927513	-0.233718	0.0294755	-0.0402002	-0.113417	-0.0561072	-0.0427778	-0.00205475	-0.137226	-0.0177345	0.619491	0.534881	
0.974741	4.14581	5	0	-0.0934965	-0.0086005	-0.083669	-0.172552	-0.022795	-0.0710755	-0.184234	-0.155358	0.035879	0.193068	-0.186536	0.368754	0.103128	0.361992	0.099415	0.289706	-0.116277	-0.0178055	-0.0006915	-0.0654485	-0.0882075	-0.234563	0.035103	-0.0407055	-0.112267	-0.0593565	-0.0400175	-0.0098555	-0.136267	-0.020447	0.619192	0.523459	
0.975143	4.14276	5	0	-0.0895183	-0.00928775	-0.0769665	-0.172869	-0.023803	-0.0682273	-0.185477	-0.151845	0.041425	0.197465	-0.186536	0.368754	0.107768	0.368949	0.0960135	0.299319	-0.113479	-0.0160052	0.00246675	-0.0614172	-0.0836637	-0.235407	0.0407305	-0.0412108	-0.111118	-0.0626058	-0.0372572	-0.0176562	-0.135307	-0.0231595	0.618893	0.512036	
0.975547	4.13971	5	0	-0.08554	-0.009975	-0.070264	-0.173186	-0.024811	-0.065379	-0.18672	-0.148333	0.046971	0.201862	-0.186536	0.368754	0.112408	0.375907	0.092612	0.308932	-0.110681	-0.014205	0.005625	-0.057386	-0.07912	-0.236252	0.046358	-0.041716	-0.109968	-0.065855	-0.034497	-0.025457	-0.134347	-0.025872	0.618595	0.500614	
0.976046	4.14123	5	0	-0.0868793	-0.0167452	-0.074164	-0.180789	-0.019775	-0.079611	-0.187507	-0.158614	0.04512	0.197055	-0.177193	0.362649	0.111488	0.378508	0.092612	0.308932	-0.112352	-0.00948225	-0.00033825	-0.0534895	-0.080098	-0.233487	0.0407305	-0.0412108	-0.116616	-0.061511	-0.038136	-0.0250773	-0.138188	-0.0150172	0.609985	0.500439	
0.976733	4.1336	5	0	-0.0882185	-0.0235155	-0.078064	-0.188393	-0.014739	-0.093843	-0.188294	-0.168895	0.043269	0.192248	-0.167849	0.356544	0.110567	0.381109	0.092612	0.308932	-0.114023	-0.0047595	-0.0063015	-0.049593	-0.081076	-0.230723	0.035103	-0.0407055	-0.123264	-0.057167	-0.041775	-0.0246975	-0.142029	-0.0041625	0.601376	0.500263	
0.977685	4.13818	5	0	-0.0895578	-0.0302858	-0.081964	-0.195997	-0.009703	-0.108075	-0.18908	-0.179177	0.041418	0.187441	-0.158506	0.350438	0.109647	0.38371	0.092612	0.308932	-0.115694	-3.675E-05	-0.0122647	-0.0456965	-0.082054	-0.227959	0.0294755	-0.0402002	-0.129912	-0.052823	-0.045414	-0.0243177	-0.145869	0.00669225	0.592766	0.500088	
0.97882	4.13513	5	0	-0.090897	-0.037056	-0.085864	-0.2036	-0.004667	-0.122307	-0.189867	-0.189458	0.039567	0.182634	-0.149163	0.344333	0.108727	0.386311	0.092612	0.308932	-0.117365	0.004686	-0.018228	-0.0418	-0.083032	-0.225194	0.023848	-0.039695	-0.13656	-0.048479	-0.049053	-0.023938	-0.14971	0.017547	0.584156	0.499912	
