2.88849	0	0	-0.387456	-0.866675	0.193321	0.111926	-0.3419	0.226359	0.587381	-0.142809	-0.702088	0.456457	0.327553	-1.07198	-0.886424	0.497268	-0.219772	-1.1136	-0.274358	-0.882421	-0.011143	-1.14309	-0.457429	-1.19481	-0.204717	-1.13868	-0.330909	-0.729298	-0.10999	-0.728733	-0.331568	-0.329874	-0.30701	-0.91181	
2.88544	0	0	-0.393162	-0.87096	0.189564	0.122543	-0.349625	0.233049	0.586446	-0.140167	-0.72081	0.470335	0.31954	-1.08629	-0.905445	0.51134	-0.229988	-1.13212	-0.279349	-0.8917	-0.015762	-1.15547	-0.462586	-1.21041	-0.206504	-1.1545	-0.339989	-0.73949	-0.115279	-0.734299	-0.341339	-0.334888	-0.310478	-0.93355	
2.88544	0	0	-0.398869	-0.875246	0.185808	0.13316	-0.35735	0.239739	0.585511	-0.137525	-0.739533	0.484214	0.311527	-1.1006	-0.924466	0.525412	-0.240205	-1.15064	-0.28434	-0.90098	-0.020381	-1.16784	-0.467742	-1.22602	-0.208292	-1.17032	-0.349069	-0.749682	-0.120567	-0.739866	-0.35111	-0.339901	-0.313947	-0.95529	
2.88544	0	0	-0.404575	-0.879531	0.182052	0.143777	-0.365075	0.246428	0.584577	-0.134883	-0.758255	0.498092	0.303514	-1.11491	-0.943488	0.539485	-0.250421	-1.16916	-0.289331	-0.910259	-0.025	-1.18021	-0.472899	-1.24162	-0.210079	-1.18614	-0.358148	-0.759874	-0.125856	-0.745432	-0.360881	-0.344915	-0.317416	-0.97703	
2.88391	0	0	-0.410281	-0.883816	0.178295	0.154394	-0.3728	0.253118	0.583642	-0.132241	-0.776977	0.51197	0.295501	-1.12922	-0.962509	0.553557	-0.260638	-1.18768	-0.294322	-0.919538	-0.029619	-1.19259	-0.478056	-1.25723	-0.211866	-1.20195	-0.367228	-0.770066	-0.131144	-0.750999	-0.370652	-0.349929	-0.320884	-0.99877	
2.87933	0	0	-0.420669	-0.885032	0.159202	0.185952	-0.38052	0.259805	0.573152	-0.121323	-0.786703	0.51997	0.290002	-1.13212	-0.972383	0.561652	-0.267442	-1.19998	-0.293498	-0.921866	-0.0343808	-1.19606	-0.487082	-1.26185	-0.218116	-1.20514	-0.365111	-0.77605	-0.132182	-0.748066	-0.374779	-0.349131	-0.324459	-1.00442	
2.88086	0	0	-0.431057	-0.886249	0.140109	0.217511	-0.38824	0.266491	0.562661	-0.110404	-0.796428	0.52797	0.284503	-1.13503	-0.982258	0.569748	-0.274246	-1.21227	-0.292675	-0.924194	-0.0391425	-1.19954	-0.496108	-1.26647	-0.224365	-1.20832	-0.362993	-0.782033	-0.133219	-0.745134	-0.378905	-0.348332	-0.328034	-1.01006	
2.88238	0	0	-0.441446	-0.887466	0.121017	0.249069	-0.395959	0.273178	0.552171	-0.0994862	-0.806154	0.53597	0.279004	-1.13794	-0.992133	0.577843	-0.28105	-1.22457	-0.291851	-0.926521	-0.0439042	-1.20301	-0.505135	-1.27109	-0.230615	-1.2115	-0.360876	-0.788017	-0.134257	-0.742201	-0.383031	-0.347534	-0.331609	-1.01571	
2.88086	0	0	-0.451834	-0.888682	0.101924	0.280628	-0.403679	0.279865	0.541681	-0.088568	-0.81588	0.54397	0.273505	-1.14085	-1.00201	0.585939	-0.287854	-1.23687	-0.291028	-0.928849	-0.048666	-1.20649	-0.514161	-1.27571	-0.236865	-1.21469	-0.358759	-0.794	-0.135295	-0.739269	-0.387158	-0.346736	-0.335184	-1.02136	
2.87781	0	0	-0.453759	-0.893421	0.103306	0.28792	-0.407915	0.284276	0.537937	-0.0779867	-0.824839	0.549824	0.273248	-1.14935	-1.00808	0.589908	-0.291993	-1.24879	-0.301777	-0.921825	-0.0573142	-1.20741	-0.523172	-1.28033	-0.23943	-1.21785	-0.36637	-0.784427	-0.142568	-0.718715	-0.393278	-0.329441	-0.337021	-1.01617	
2.87781	0	0	-0.455685	-0.89816	0.104688	0.295211	-0.41215	0.288686	0.534193	-0.0674055	-0.833798	0.555678	0.272991	-1.15784	-1.01415	0.593876	-0.296131	-1.2607	-0.312526	-0.914802	-0.0659625	-1.20834	-0.532183	-1.28494	-0.241996	-1.22101	-0.37398	-0.774854	-0.14984	-0.698161	-0.399397	-0.312145	-0.338857	-1.01098	
2.87781	0	0	-0.457611	-0.902899	0.106069	0.302503	-0.416386	0.293096	0.530449	-0.0568242	-0.842758	0.561532	0.272735	-1.16633	-1.02023	0.597845	-0.30027	-1.27262	-0.323275	-0.907778	-0.0746108	-1.20927	-0.541195	-1.28956	-0.244562	-1.22418	-0.381591	-0.765281	-0.157113	-0.677608	-0.405517	-0.29485	-0.340694	-1.00579	
2.87781	0	0	-0.459536	-0.907638	0.107451	0.309795	-0.420622	0.297507	0.526705	-0.046243	-0.851717	0.567386	0.272478	-1.17483	-1.0263	0.601813	-0.304409	-1.28453	-0.334024	-0.900754	-0.083259	-1.2102	-0.550206	-1.29417	-0.247127	-1.22734	-0.389202	-0.755708	-0.164386	-0.657054	-0.411637	-0.277555	-0.342531	-1.0006	
2.88238	0	0	-0.450994	-0.90122	0.125831	0.325172	-0.410935	0.29282	0.541332	-0.031338	-0.84726	0.567765	0.274985	-1.16347	-1.01795	0.597998	-0.300048	-1.28112	-0.335672	-0.896098	-0.0822502	-1.21305	-0.552885	-1.29662	-0.254479	-1.22737	-0.387085	-0.761691	-0.160707	-0.657197	-0.410762	-0.280028	-0.340694	-1.00579	
2.87781	0	0	-0.442453	-0.894802	0.144211	0.340548	-0.401247	0.288133	0.555959	-0.016433	-0.842803	0.568145	0.277492	-1.15211	-1.00959	0.594182	-0.295686	-1.27771	-0.337319	-0.891441	-0.0812415	-1.2159	-0.555563	-1.29907	-0.261831	-1.22741	-0.384968	-0.767675	-0.157028	-0.657341	-0.409887	-0.2825	-0.338857	-1.01098	
2.88238	0	0	-0.433911	-0.888383	0.162592	0.355924	-0.39156	0.283446	0.570585	-0.001528	-0.838346	0.568524	0.279998	-1.14075	-1.00123	0.590367	-0.291324	-1.2743	-0.338966	-0.886785	-0.0802328	-1.21875	-0.558241	-1.30151	-0.269183	-1.22744	-0.38285	-0.773659	-0.153349	-0.657485	-0.409012	-0.284973	-0.337021	-1.01617	
2.88238	0	0	-0.425369	-0.881965	0.180972	0.371301	-0.381873	0.278759	0.585212	0.013377	-0.833889	0.568903	0.282505	-1.1294	-0.99288	0.586551	-0.286963	-1.27089	-0.340614	-0.882129	-0.079224	-1.2216	-0.56092	-1.30396	-0.276535	-1.22747	-0.380733	-0.779642	-0.14967	-0.657628	-0.408137	-0.287446	-0.335184	-1.02136	
2.88849	0	0	-0.420507	-0.865096	0.194447	0.412069	-0.364439	0.267367	0.59799	0.0336777	-0.806964	0.55131	0.294018	-1.1065	-0.970049	0.574922	-0.27868	-1.247	-0.335638	-0.872837	-0.0754785	-1.21528	-0.558241	-1.30151	-0.269183	-1.22744	-0.381792	-0.776651	-0.147516	-0.643193	-0.402512	-0.281611	-0.337021	-1.01617	
2.89001	0	0	-0.415646	-0.848226	0.207922	0.452836	-0.347005	0.255976	0.610767	0.0539785	-0.78004	0.533717	0.305532	-1.08361	-0.947218	0.563292	-0.270397	-1.22312	-0.330662	-0.863545	-0.071733	-1.20896	-0.555563	-1.29907	-0.261831	-1.22741	-0.38285	-0.773659	-0.145362	-0.628757	-0.396886	-0.275776	-0.338857	-1.01098	
2.89001	0	0	-0.410784	-0.831356	0.221397	0.493604	-0.32957	0.244584	0.623545	0.0742792	-0.753116	0.516124	0.317045	-1.06071	-0.924387	0.551663	-0.262114	-1.19924	-0.325687	-0.854253	-0.0679875	-1.20263	-0.552885	-1.29662	-0.254479	-1.22737	-0.383908	-0.770668	-0.143207	-0.614321	-0.391261	-0.269941	-0.340694	-1.00579	
2.89307	0	0	-0.405922	-0.814487	0.234872	0.534372	-0.312136	0.233192	0.636323	0.09458	-0.726191	0.498531	0.328558	-1.03782	-0.901556	0.540034	-0.253831	-1.17535	-0.320711	-0.844961	-0.064242	-1.19631	-0.550206	-1.29417	-0.247127	-1.22734	-0.384967	-0.767677	-0.141053	-0.599886	-0.385635	-0.264106	-0.342531	-1.0006	
2.89459	0	0	-0.405844	-0.804493	0.240279	0.552987	-0.305909	0.230767	0.639882	0.112792	-0.705949	0.486951	0.334566	-1.01775	-0.883252	0.528074	-0.242643	-1.15956	-0.323736	-0.828621	-0.0664132	-1.18171	-0.553106	-1.28598	-0.245676	-1.22103	-0.380335	-0.756889	-0.13731	-0.579635	-0.385272	-0.243373	-0.333542	-0.994485	
2.89764	0	0	-0.405767	-0.794499	0.245686	0.571601	-0.299682	0.228341	0.643441	0.131004	-0.685706	0.47537	0.340573	-0.997677	-0.864947	0.516114	-0.231456	-1.14376	-0.326761	-0.812281	-0.0685845	-1.16711	-0.556005	-1.27778	-0.244225	-1.21471	-0.375702	-0.746101	-0.133568	-0.559384	-0.384909	-0.222641	-0.324553	-0.988372	
2.90375	0	0	-0.405689	-0.784505	0.251093	0.590216	-0.293454	0.225915	0.647	0.149217	-0.665464	0.46379	0.346581	-0.977607	-0.846643	0.504153	-0.220268	-1.12796	-0.329785	-0.795941	-0.0707558	-1.15252	-0.558904	-1.26959	-0.242774	-1.2084	-0.37107	-0.735314	-0.129825	-0.539132	-0.384546	-0.201908	-0.315565	-0.98226	
2.90375	0	0	-0.405611	-0.774511	0.2565	0.608831	-0.287227	0.22349	0.650559	0.167429	-0.645222	0.452209	0.352588	-0.957538	-0.828339	0.492193	-0.209081	-1.11217	-0.33281	-0.779601	-0.072927	-1.13792	-0.561804	-1.2614	-0.241323	-1.20209	-0.366438	-0.724526	-0.126082	-0.518881	-0.384183	-0.181175	-0.306576	-0.976148	
2.90527	0	0	-0.398903	-0.762791	0.263275	0.634974	-0.272486	0.212215	0.657508	0.185551	-0.618146	0.434517	0.369408	-0.940063	-0.803872	0.476206	-0.191776	-1.08972	-0.331705	-0.774929	-0.069184	-1.13157	-0.562771	-1.25866	-0.242438	-1.19894	-0.366438	-0.724526	-0.118703	-0.519154	-0.387435	-0.182868	-0.315673	-0.966204	
2.91138	0	0	-0.392196	-0.751071	0.27005	0.661118	-0.257745	0.200939	0.664457	0.203674	-0.591071	0.416826	0.386228	-0.922587	-0.779406	0.460219	-0.174472	-1.06728	-0.3306	-0.770257	-0.065441	-1.12521	-0.563738	-1.25593	-0.243553	-1.19579	-0.366438	-0.724526	-0.111324	-0.519428	-0.390686	-0.184561	-0.324769	-0.95626	
2.90832	0	0	-0.385489	-0.739351	0.276825	0.687261	-0.243004	0.189663	0.671406	0.221796	-0.563995	0.399134	0.403047	-0.905111	-0.75494	0.444232	-0.157167	-1.04484	-0.329495	-0.765584	-0.061698	-1.11886	-0.564705	-1.2532	-0.244668	-1.19263	-0.366438	-0.724526	-0.103945	-0.519701	-0.393938	-0.186253	-0.333865	-0.946317	
2.90985	0	0	-0.378781	-0.727631	0.2836	0.713404	-0.228263	0.178388	0.678355	0.239918	-0.53692	0.381442	0.419867	-0.887636	-0.730473	0.428245	-0.139862	-1.0224	-0.32839	-0.760912	-0.057955	-1.11251	-0.565672	-1.25046	-0.245783	-1.18948	-0.366438	-0.724526	-0.096566	-0.519974	-0.39719	-0.187946	-0.342962	-0.936373	
2.90985	0	0	-0.37964	-0.714968	0.289075	0.743332	-0.221262	0.173814	0.677546	0.261114	-0.509759	0.363694	0.431188	-0.873056	-0.705936	0.412212	-0.131554	-0.998161	-0.322038	-0.763263	-0.0531955	-1.10901	-0.565672	-1.25046	-0.240987	-1.19262	-0.360938	-0.72812	-0.0949687	-0.51419	-0.392181	-0.191219	-0.333865	-0.946317	
2.90527	0	0	-0.380498	-0.702306	0.29455	0.77326	-0.214261	0.169239	0.676737	0.282311	-0.482597	0.345946	0.44251	-0.858476	-0.6814	0.39618	-0.123247	-0.973922	-0.315686	-0.765615	-0.048436	-1.10551	-0.565672	-1.25046	-0.236191	-1.19575	-0.355437	-0.731715	-0.0933715	-0.508405	-0.387173	-0.194491	-0.324769	-0.95626	
2.9068	0	0	-0.381356	-0.689643	0.300024	0.803188	-0.207261	0.164664	0.675927	0.303507	-0.455435	0.328198	0.453831	-0.843896	-0.656864	0.380147	-0.11494	-0.949684	-0.309335	-0.767966	-0.0436765	-1.10201	-0.565672	-1.25046	-0.231395	-1.19889	-0.349936	-0.735309	-0.0917743	-0.502621	-0.382164	-0.197764	-0.315673	-0.966204	
2.90527	0	0	-0.382215	-0.67698	0.305499	0.833116	-0.20026	0.16009	0.675118	0.324704	-0.428274	0.31045	0.465152	-0.829316	-0.632327	0.364114	-0.106632	-0.925445	-0.302983	-0.770317	-0.038917	-1.09852	-0.565672	-1.25046	-0.226599	-1.20202	-0.344436	-0.738903	-0.090177	-0.496836	-0.377155	-0.201037	-0.306576	-0.976148	
2.90527	0	0	-0.382215	-0.67698	0.308154	0.836982	-0.201016	0.162228	0.676613	0.329939	-0.418443	0.30238	0.471715	-0.8292	-0.629255	0.362107	-0.099542	-0.921578	-0.305198	-0.779656	-0.0407905	-1.1017	-0.570057	-1.2581	-0.229165	-1.20519	-0.346558	-0.732905	-0.090679	-0.485113	-0.378912	-0.196072	-0.310259	-0.965739	
2.9068	0	0	-0.382215	-0.67698	0.310808	0.840847	-0.201773	0.164365	0.678109	0.335174	-0.408612	0.294311	0.478278	-0.829085	-0.626183	0.3601	-0.092452	-0.91771	-0.307413	-0.788996	-0.042664	-1.10488	-0.574442	-1.26573	-0.231732	-1.20835	-0.348681	-0.726908	-0.091181	-0.473389	-0.380669	-0.191106	-0.313942	-0.955331	
2.9068	0	0	-0.382215	-0.67698	0.313462	0.844713	-0.20253	0.166503	0.679605	0.34041	-0.398782	0.286241	0.48484	-0.828969	-0.623111	0.358092	-0.085362	-0.913843	-0.309628	-0.798336	-0.0445375	-1.10806	-0.578828	-1.27337	-0.234298	-1.21152	-0.350803	-0.72091	-0.091683	-0.461666	-0.382426	-0.18614	-0.317625	-0.944922	
2.90069	0	0	-0.382215	-0.67698	0.316117	0.848579	-0.203286	0.168641	0.6811	0.345645	-0.388951	0.278171	0.491403	-0.828853	-0.620039	0.356085	-0.078272	-0.909976	-0.311843	-0.807675	-0.046411	-1.11124	-0.583213	-1.281	-0.236865	-1.21469	-0.352925	-0.714912	-0.092185	-0.449942	-0.384183	-0.181175	-0.321308	-0.934513	
2.89917	0	0	-0.377501	-0.68006	0.32667	0.852897	-0.199027	0.164215	0.687909	0.345341	-0.379868	0.272236	0.500001	-0.834471	-0.613135	0.349929	-0.0728873	-0.909241	-0.319296	-0.809987	-0.0443848	-1.11697	-0.587595	-1.28862	-0.238317	-1.221	-0.354183	-0.723309	-0.0937797	-0.45574	-0.383047	-0.19527	-0.317625	-0.944922	
2.89764	0	0	-0.372787	-0.683141	0.337224	0.857215	-0.194768	0.159788	0.694718	0.345036	-0.370786	0.266301	0.508599	-0.840089	-0.60623	0.343772	-0.0675025	-0.908505	-0.326748	-0.812299	-0.0423585	-1.12269	-0.591978	-1.29624	-0.239769	-1.2273	-0.35544	-0.731707	-0.0953745	-0.461537	-0.38191	-0.209365	-0.313942	-0.955331	
2.89764	0	0	-0.368073	-0.686221	0.347778	0.861533	-0.190509	0.155362	0.701526	0.344732	-0.361704	0.260367	0.517198	-0.845708	-0.599325	0.337616	-0.0621177	-0.90777	-0.334201	-0.814611	-0.0403323	-1.12842	-0.596361	-1.30386	-0.241222	-1.23361	-0.356698	-0.740104	-0.0969693	-0.467334	-0.380773	-0.223459	-0.310259	-0.965739	
2.90069	0	0	-0.363359	-0.689301	0.358331	0.865851	-0.18625	0.150935	0.708335	0.344428	-0.352621	0.254432	0.525796	-0.851326	-0.592421	0.33146	-0.056733	-0.907035	-0.341654	-0.816923	-0.038306	-1.13415	-0.600743	-1.31148	-0.242674	-1.23992	-0.357955	-0.748501	-0.098564	-0.473132	-0.379637	-0.237554	-0.306576	-0.976148	
2.90069	0	0	-0.359571	-0.689757	0.366317	0.877488	-0.18199	0.146508	0.715151	0.344121	-0.352621	0.254432	0.530099	-0.854137	-0.587026	0.32958	-0.060405	-0.904636	-0.336418	-0.823932	-0.034405	-1.1367	-0.601488	-1.31937	-0.240449	-1.24621	-0.356895	-0.751496	-0.0959195	-0.470301	-0.373751	-0.243305	-0.304736	-0.981348	
2.89612	0	0	-0.355784	-0.690213	0.374303	0.889126	-0.177729	0.142082	0.721968	0.343815	-0.352621	0.254432	0.534401	-0.856949	-0.581631	0.327699	-0.064077	-0.902236	-0.331183	-0.830942	-0.030504	-1.13925	-0.602234	-1.32726	-0.238224	-1.2525	-0.355835	-0.754491	-0.093275	-0.46747	-0.367866	-0.249056	-0.302897	-0.986548	
2.89764	0	0	-0.351996	-0.690668	0.382289	0.900763	-0.173469	0.137655	0.728784	0.343508	-0.352621	0.254432	0.538704	-0.85976	-0.576237	0.325819	-0.067749	-0.899837	-0.325947	-0.837951	-0.026603	-1.1418	-0.60298	-1.33514	-0.235998	-1.25879	-0.354775	-0.757487	-0.0906305	-0.464639	-0.36198	-0.254807	-0.301057	-0.991747	
2.89307	0	0	-0.348209	-0.691124	0.390275	0.9124	-0.169209	0.133228	0.7356	0.343201	-0.352621	0.254432	0.543006	-0.862571	-0.570842	0.323939	-0.071421	-0.897437	-0.320711	-0.844961	-0.022702	-1.14434	-0.603725	-1.34303	-0.233773	-1.26508	-0.353715	-0.760482	-0.087986	-0.461808	-0.356094	-0.260558	-0.299217	-0.996947	
2.89459	0	0	-0.34921	-0.698542	0.391569	0.908742	-0.172713	0.135518	0.734099	0.337962	-0.365487	0.264485	0.543514	-0.882699	-0.582384	0.329836	-0.0782695	-0.909962	-0.330915	-0.847255	-0.0264535	-1.15069	-0.611737	-1.35034	-0.244801	-1.26512	-0.351395	-0.755087	-0.0874415	-0.453037	-0.36549	-0.244887	-0.301057	-0.991747	
2.89154	0	0	-0.350212	-0.705961	0.392864	0.905085	-0.176217	0.137807	0.732598	0.332722	-0.378352	0.274538	0.544023	-0.902826	-0.593927	0.335734	-0.085118	-0.922486	-0.34112	-0.849549	-0.030205	-1.15703	-0.619749	-1.35765	-0.255829	-1.26516	-0.349075	-0.749692	-0.086897	-0.444265	-0.374885	-0.229216	-0.302897	-0.986548	
2.89764	0	0	-0.351213	-0.71338	0.394158	0.901427	-0.179721	0.140097	0.731097	0.327483	-0.391217	0.284591	0.544531	-0.922954	-0.605469	0.341631	-0.0919665	-0.935011	-0.351324	-0.851843	-0.0339565	-1.16338	-0.627762	-1.36496	-0.266857	-1.2652	-0.346756	-0.744298	-0.0863525	-0.435494	-0.384281	-0.213544	-0.304736	-0.981348	
2.90069	0	0	-0.352214	-0.720798	0.395452	0.897769	-0.183225	0.142386	0.729596	0.322244	-0.404083	0.294644	0.545039	-0.943082	-0.617011	0.347528	-0.098815	-0.947536	-0.361528	-0.854137	-0.037708	-1.16972	-0.635774	-1.37227	-0.277885	-1.26524	-0.344436	-0.738903	-0.085808	-0.426723	-0.393677	-0.197873	-0.306576	-0.976148	
2.89917	0	0	-0.352214	-0.720798	0.398117	0.901653	-0.183981	0.144523	0.73396	0.319393	-0.415416	0.300403	0.537202	-0.948934	-0.629293	0.355553	-0.104683	-0.962776	-0.363741	-0.86343	-0.0394378	-1.18177	-0.641856	-1.38498	-0.277117	-1.2778	-0.346756	-0.744298	-0.0847572	-0.429693	-0.384281	-0.213544	-0.304736	-0.981348	
2.89917	0	0	-0.352214	-0.720798	0.400783	0.905536	-0.184737	0.146661	0.738324	0.316541	-0.42675	0.306162	0.529365	-0.954786	-0.641574	0.363577	-0.110552	-0.978017	-0.365954	-0.872723	-0.0411675	-1.19381	-0.647938	-1.3977	-0.276348	-1.29037	-0.349075	-0.749692	-0.0837065	-0.432662	-0.374885	-0.229216	-0.302897	-0.986548	
2.90069	0	0	-0.352214	-0.720798	0.403448	0.90942	-0.185494	0.148798	0.742687	0.31369	-0.438083	0.311921	0.521527	-0.960638	-0.653855	0.371602	-0.11642	-0.993257	-0.368167	-0.882016	-0.0428972	-1.20586	-0.654021	-1.41042	-0.27558	-1.30293	-0.351395	-0.755087	-0.0826558	-0.435632	-0.36549	-0.244887	-0.301057	-0.991747	
2.9068	0	0	-0.352214	-0.720798	0.406113	0.913304	-0.18625	0.150935	0.747051	0.310839	-0.449416	0.31768	0.51369	-0.96649	-0.666137	0.379627	-0.122289	-1.0085	-0.37038	-0.891309	-0.044627	-1.2179	-0.660103	-1.42313	-0.274812	-1.31549	-0.353715	-0.760482	-0.081605	-0.438601	-0.356094	-0.260558	-0.299217	-0.996947	
2.89917	0	0	-0.360711	-0.717262	0.400929	0.927956	-0.192497	0.153374	0.744594	0.308301	-0.467521	0.32951	0.513173	-0.983672	-0.675337	0.385638	-0.128895	-1.02953	-0.371487	-0.895949	-0.0444853	-1.22676	-0.663517	-1.43339	-0.275158	-1.3249	-0.351596	-0.76647	-0.0805547	-0.44157	-0.363479	-0.261445	-0.29554	-1.00734	
2.90222	0	0	-0.369209	-0.713727	0.395744	0.942608	-0.198745	0.155813	0.742138	0.305762	-0.485625	0.34134	0.512655	-1.00085	-0.684536	0.391649	-0.135502	-1.05056	-0.372594	-0.900589	-0.0443435	-1.23562	-0.666932	-1.44365	-0.275505	-1.3343	-0.349478	-0.772458	-0.0795045	-0.444538	-0.370865	-0.262332	-0.291864	-1.01773	
2.89917	0	0	-0.377706	-0.710191	0.39056	0.957261	-0.204993	0.158253	0.739681	0.303224	-0.50373	0.35317	0.512138	-1.01804	-0.693735	0.397661	-0.142108	-1.0716	-0.373702	-0.905228	-0.0442017	-1.24448	-0.670347	-1.45391	-0.275851	-1.34371	-0.34736	-0.778445	-0.0784543	-0.447507	-0.37825	-0.263219	-0.288188	-1.02812	
2.90527	0	0	-0.386203	-0.706655	0.385375	0.971913	-0.21124	0.160692	0.737224	0.300686	-0.521834	0.365	0.511621	-1.03522	-0.702935	0.403672	-0.148715	-1.09263	-0.374809	-0.909868	-0.04406	-1.25334	-0.673761	-1.46417	-0.276197	-1.35312	-0.345241	-0.784433	-0.077404	-0.450475	-0.385635	-0.264106	-0.284511	-1.03851	
2.90069	0	0	-0.388203	-0.721461	0.3866	0.957035	-0.221735	0.167549	0.738577	0.287386	-0.548919	0.382698	0.50527	-1.0638	-0.733529	0.423663	-0.16216	-1.12589	-0.386377	-0.92372	-0.0485462	-1.27447	-0.685161	-1.48163	-0.286441	-1.36565	-0.346505	-0.792805	-0.0800495	-0.453308	-0.392135	-0.267468	-0.280839	-1.04889	
2.90222	0	0	-0.390202	-0.736266	0.387825	0.942157	-0.23223	0.174407	0.73993	0.274087	-0.576005	0.400396	0.498919	-1.09238	-0.764123	0.443653	-0.175605	-1.15915	-0.397945	-0.937573	-0.0530325	-1.29559	-0.69656	-1.4991	-0.296685	-1.37818	-0.347769	-0.801176	-0.082695	-0.456141	-0.398636	-0.27083	-0.277166	-1.05927	
2.89917	0	0	-0.392202	-0.751072	0.38905	0.927278	-0.242724	0.181264	0.741283	0.260788	-0.60309	0.418094	0.492569	-1.12096	-0.794717	0.463644	-0.18905	-1.19241	-0.409512	-0.951426	-0.0575188	-1.31672	-0.707959	-1.51656	-0.306929	-1.39071	-0.349032	-0.809547	-0.0853405	-0.458975	-0.405137	-0.274193	-0.273494	-1.06964	
2.90069	0	0	-0.394201	-0.765878	0.390275	0.9124	-0.253219	0.188121	0.742636	0.247488	-0.630175	0.435792	0.486218	-1.14954	-0.825311	0.483635	-0.202495	-1.22567	-0.42108	-0.965278	-0.062005	-1.33784	-0.719359	-1.53403	-0.317173	-1.40324	-0.350296	-0.817919	-0.087986	-0.461808	-0.411637	-0.277555	-0.269822	-1.08002	
2.89764	0	0	-0.398136	-0.785399	0.386161	0.889821	-0.266436	0.195115	0.738117	0.231859	-0.663163	0.457347	0.473313	-1.17802	-0.855796	0.503555	-0.217638	-1.26172	-0.42825	-0.983713	-0.073255	-1.35664	-0.729789	-1.5541	-0.326298	-1.41884	-0.356208	-0.836996	-0.0964638	-0.479033	-0.414392	-0.302322	-0.284239	-1.08653	
2.89917	0	0	-0.402071	-0.80492	0.382046	0.867241	-0.279653	0.202109	0.733597	0.216231	-0.696152	0.478903	0.460407	-1.20649	-0.886281	0.523474	-0.232782	-1.29778	-0.43542	-1.00215	-0.084505	-1.37543	-0.740219	-1.57418	-0.335423	-1.43445	-0.36212	-0.856072	-0.104941	-0.496258	-0.417146	-0.32709	-0.298655	-1.09304	
2.90069	0	0	-0.406006	-0.824442	0.377932	0.844661	-0.29287	0.209102	0.729078	0.200603	-0.72914	0.500458	0.447502	-1.23497	-0.916767	0.543394	-0.247925	-1.33384	-0.44259	-1.02058	-0.095755	-1.39423	-0.750648	-1.59425	-0.344548	-1.45005	-0.368031	-0.875148	-0.113419	-0.513483	-0.419901	-0.351857	-0.313072	-1.09955	
2.89612	0	0	-0.409941	-0.843963	0.373818	0.822082	-0.306087	0.216096	0.724559	0.184974	-0.762128	0.522013	0.434597	-1.26344	-0.947252	0.563314	-0.263068	-1.3699	-0.44976	-1.03902	-0.107005	-1.41303	-0.761078	-1.61432	-0.353673	-1.46565	-0.373943	-0.894225	-0.121897	-0.530708	-0.422656	-0.376624	-0.327488	-1.10606	
2.89917	0	0	-0.414806	-0.860807	0.368493	0.814361	-0.316552	0.222934	0.722492	0.171907	-0.79125	0.539396	0.423971	-1.2889	-0.97384	0.579043	-0.276496	-1.40264	-0.455006	-1.05509	-0.111502	-1.43397	-0.767898	-1.63459	-0.354386	-1.4843	-0.375433	-0.913832	-0.123002	-0.548144	-0.421318	-0.402077	-0.32741	-1.122	
2.89612	0	0	-0.419671	-0.877651	0.363169	0.80664	-0.327016	0.229772	0.720425	0.158841	-0.820372	0.556779	0.413346	-1.31436	-1.00043	0.594772	-0.289924	-1.43537	-0.460253	-1.07117	-0.115998	-1.45491	-0.774719	-1.65486	-0.355099	-1.50294	-0.376924	-0.933438	-0.124107	-0.565579	-0.419979	-0.42753	-0.327333	-1.13795	
2.89917	0	0	-0.424535	-0.894495	0.357844	0.79892	-0.337481	0.236609	0.718357	0.145775	-0.849494	0.574162	0.40272	-1.33981	-1.02702	0.6105	-0.303352	-1.46811	-0.465499	-1.08724	-0.120495	-1.47586	-0.781539	-1.67513	-0.355812	-1.52159	-0.378414	-0.953045	-0.125212	-0.583014	-0.418641	-0.452982	-0.327255	-1.15389	
2.89459	0	0	-0.4294	-0.911339	0.352519	0.791199	-0.347946	0.243447	0.71629	0.132708	-0.878616	0.591545	0.392094	-1.36527	-1.0536	0.626229	-0.31678	-1.50084	-0.470745	-1.10332	-0.124991	-1.4968	-0.788359	-1.6954	-0.356525	-1.54023	-0.379904	-0.972651	-0.126317	-0.60045	-0.417303	-0.478435	-0.327177	-1.16984	
2.89917	0	0	-0.436198	-0.93284	0.348294	0.757684	-0.366115	0.256962	0.710253	0.112007	-0.911364	0.612943	0.373286	-1.37665	-1.08691	0.64799	-0.333989	-1.52263	-0.474884	-1.11476	-0.133476	-1.50641	-0.796125	-1.71292	-0.363092	-1.55262	-0.384553	-0.983299	-0.122147	-0.612236	-0.417945	-0.487445	-0.32711	-1.18574	
2.89764	0	0	-0.442995	-0.954341	0.344068	0.72417	-0.384284	0.270477	0.704217	0.091306	-0.944111	0.634341	0.354478	-1.38802	-1.12021	0.669751	-0.351197	-1.54441	-0.479023	-1.12621	-0.141961	-1.51602	-0.80389	-1.73043	-0.36966	-1.56501	-0.389203	-0.993947	-0.117977	-0.624021	-0.418588	-0.496455	-0.327043	-1.20164	
2.89764	0	0	-0.449792	-0.975842	0.339842	0.690655	-0.402453	0.283992	0.69818	0.070605	-0.976859	0.655739	0.33567	-1.3994	-1.15351	0.691511	-0.368406	-1.5662	-0.483162	-1.13765	-0.150447	-1.52563	-0.811655	-1.74794	-0.376227	-1.5774	-0.393852	-1.00459	-0.113806	-0.635806	-0.419231	-0.505464	-0.326977	-1.21754	
2.89764	0	0	-0.45659	-0.997343	0.335617	0.657141	-0.420622	0.297507	0.692144	0.049904	-1.00961	0.677137	0.316862	-1.41077	-1.18681	0.713272	-0.385615	-1.58798	-0.487301	-1.14909	-0.158932	-1.53524	-0.819421	-1.76546	-0.382795	-1.58978	-0.398501	-1.01524	-0.109636	-0.647592	-0.419873	-0.514474	-0.32691	-1.23344	
2.89917	0	0	-0.457704	-1.01452	0.332852	0.64227	-0.431053	0.304323	0.688182	0.0422502	-1.02742	0.688774	0.307835	-1.42203	-1.20794	0.727076	-0.394104	-1.603	-0.490928	-1.16965	-0.161564	-1.55295	-0.830767	-1.7826	-0.382435	-1.6114	-0.405243	-1.01995	-0.114363	-0.644503	-0.428095	-0.51287	-0.334135	-1.22872	
2.89917	0	0	-0.458817	-1.03169	0.330087	0.627399	-0.441484	0.311138	0.684219	0.0345965	-1.04523	0.700412	0.298808	-1.43329	-1.22906	0.74088	-0.402593	-1.61801	-0.494556	-1.19021	-0.164195	-1.57067	-0.842113	-1.79975	-0.382076	-1.63302	-0.411984	-1.02465	-0.11909	-0.641414	-0.436317	-0.511265	-0.34136	-1.22399	
2.89764	0	0	-0.459931	-1.04887	0.327321	0.612528	-0.451915	0.317954	0.680257	0.0269428	-1.06304	0.71205	0.28978	-1.44455	-1.25019	0.754683	-0.411081	-1.63303	-0.498184	-1.21077	-0.166827	-1.58838	-0.85346	-1.81689	-0.381716	-1.65464	-0.418726	-1.02935	-0.123817	-0.638326	-0.444539	-0.509661	-0.348585	-1.21927	
2.90069	0	0	-0.461045	-1.06604	0.324556	0.597657	-0.462346	0.32477	0.676295	0.019289	-1.08085	0.723687	0.280753	-1.45581	-1.27132	0.768487	-0.41957	-1.64804	-0.501811	-1.23133	-0.169459	-1.6061	-0.864806	-1.83403	-0.381356	-1.67626	-0.425468	-1.03406	-0.128544	-0.635237	-0.452761	-0.508057	-0.35581	-1.21455	
2.90069	0	0	-0.456369	-1.0691	0.331162	0.601675	-0.458114	0.320362	0.677804	0.0244465	-1.07567	0.721951	0.283008	-1.453	-1.26529	0.764547	-0.411639	-1.64706	-0.508382	-1.23584	-0.167475	-1.6117	-0.868212	-1.84405	-0.386464	-1.68241	-0.416862	-1.04651	-0.128544	-0.635237	-0.446051	-0.516208	-0.353988	-1.2197	
2.89917	0	0	-0.451694	-1.07215	0.337767	0.605692	-0.453883	0.315955	0.679314	0.029604	-1.0705	0.720216	0.285264	-1.45019	-1.25926	0.760606	-0.403709	-1.64608	-0.514952	-1.24034	-0.16549	-1.61731	-0.871619	-1.85407	-0.391571	-1.68856	-0.408256	-1.05895	-0.128544	-0.635237	-0.439341	-0.524358	-0.352167	-1.22485	
2.90375	0	0	-0.447018	-1.07521	0.344373	0.60971	-0.449651	0.311547	0.680824	0.0347615	-1.06532	0.71848	0.287519	-1.44738	-1.25322	0.756665	-0.395778	-1.6451	-0.521523	-1.24485	-0.163506	-1.62292	-0.875026	-1.86409	-0.396679	-1.6947	-0.39965	-1.0714	-0.128544	-0.635237	-0.432631	-0.532509	-0.350345	-1.23	
2.90375	0	0	-0.442343	-1.07826	0.350979	0.613728	-0.44542	0.307139	0.682333	0.039919	-1.06015	0.716744	0.289775	-1.44457	-1.24719	0.752725	-0.387847	-1.64412	-0.528094	-1.24935	-0.161522	-1.62853	-0.878432	-1.87411	-0.401787	-1.70085	-0.391044	-1.08385	-0.128544	-0.635237	-0.425921	-0.54066	-0.348523	-1.23515	
2.90527	0	0	-0.443156	-1.0658	0.353845	0.639708	-0.435741	0.302457	0.68875	0.0500833	-1.03935	0.703156	0.295837	-1.42491	-1.22681	0.74105	-0.380491	-1.61803	-0.529713	-1.24478	-0.159763	-1.61674	-0.882011	-1.87381	-0.402877	-1.69776	-0.387668	-1.0815	-0.119569	-0.629774	-0.415308	-0.538175	-0.344943	-1.22957	
2.9068	0	0	-0.443968	-1.05334	0.356712	0.665687	-0.426061	0.297775	0.695167	0.0602475	-1.01855	0.689567	0.301899	-1.40525	-1.20643	0.729375	-0.373136	-1.59195	-0.531332	-1.2402	-0.158003	-1.60494	-0.88559	-1.87351	-0.403968	-1.69468	-0.384293	-1.07916	-0.110593	-0.624311	-0.404696	-0.53569	-0.341363	-1.22399	
2.90527	0	0	-0.444781	-1.04088	0.359579	0.691667	-0.416382	0.293094	0.701583	0.0704117	-0.997758	0.675979	0.307962	-1.38559	-1.18604	0.717701	-0.36578	-1.56586	-0.532952	-1.23563	-0.156244	-1.59315	-0.88917	-1.87321	-0.405058	-1.6916	-0.380918	-1.07682	-0.101618	-0.618848	-0.394084	-0.533205	-0.337782	-1.21841	
2.9068	0	0	-0.445594	-1.02842	0.362445	0.717647	-0.406703	0.288412	0.708	0.080576	-0.976962	0.66239	0.314024	-1.36593	-1.16566	0.706026	-0.358424	-1.53977	-0.534571	-1.23105	-0.154484	-1.58136	-0.892749	-1.87291	-0.406149	-1.68852	-0.377542	-1.07448	-0.092643	-0.613385	-0.383471	-0.53072	-0.334202	-1.21283	
2.90375	0	0	-0.437146	-1.03195	0.372919	0.710804	-0.396255	0.281585	0.713858	0.0829105	-0.962077	0.652664	0.318816	-1.35183	-1.15356	0.698117	-0.34556	-1.52129	-0.537812	-1.22189	-0.155596	-1.56983	-0.892749	-1.87291	-0.404688	-1.68236	-0.365306	-1.07336	-0.0810015	-0.605101	-0.38131	-0.515145	-0.317965	-1.21154	
2.90832	0	0	-0.428699	-1.03548	0.383392	0.70396	-0.385807	0.274758	0.719716	0.085245	-0.947191	0.642937	0.323609	-1.33774	-1.14145	0.690209	-0.332695	-1.5028	-0.541053	-1.21273	-0.156708	-1.5583	-0.892749	-1.87291	-0.403227	-1.6762	-0.353069	-1.07225	-0.06936	-0.596818	-0.379149	-0.499569	-0.301729	-1.21026	
2.9068	0	0	-0.420252	-1.03901	0.393865	0.697117	-0.37536	0.267931	0.725574	0.0875795	-0.932306	0.633211	0.328401	-1.32364	-1.12935	0.6823	-0.319831	-1.48432	-0.544294	-1.20357	-0.15782	-1.54677	-0.892749	-1.87291	-0.401767	-1.67004	-0.340832	-1.07114	-0.0577185	-0.588534	-0.376988	-0.483994	-0.285492	-1.20897	
2.90527	0	0	-0.411804	-1.04254	0.404339	0.690273	-0.364912	0.261104	0.731432	0.089914	-0.917421	0.623484	0.333193	-1.30954	-1.11725	0.674391	-0.306966	-1.46584	-0.547535	-1.19441	-0.158932	-1.53524	-0.892749	-1.87291	-0.400306	-1.66388	-0.328596	-1.07003	-0.046077	-0.58025	-0.374827	-0.468419	-0.269255	-1.20768	
2.9068	0	0	-0.408951	-1.04042	0.412255	0.690685	-0.357183	0.254412	0.737296	0.09225	-0.892793	0.605746	0.346489	-1.30096	-1.10058	0.660212	-0.290454	-1.44964	-0.548641	-1.19897	-0.151323	-1.53155	-0.894451	-1.87791	-0.398123	-1.67005	-0.327548	-1.073	-0.0413315	-0.583351	-0.363966	-0.477405	-0.26018	-1.21758	
2.9068	0	0	-0.406099	-1.0383	0.420171	0.691097	-0.349455	0.247719	0.743161	0.094586	-0.868165	0.588008	0.359785	-1.29237	-1.08391	0.646033	-0.273941	-1.43343	-0.549748	-1.20353	-0.143714	-1.52787	-0.896153	-1.88291	-0.39594	-1.67622	-0.326499	-1.07596	-0.036586	-0.586452	-0.353106	-0.486391	-0.251105	-1.22748	
2.9068	0	0	-0.403246	-1.03618	0.428087	0.691508	-0.341727	0.241026	0.749025	0.096922	-0.843537	0.570269	0.37308	-1.28379	-1.06724	0.631854	-0.257429	-1.41723	-0.550854	-1.20809	-0.136106	-1.52419	-0.897855	-1.88791	-0.393757	-1.68239	-0.325451	-1.07892	-0.0318405	-0.589552	-0.342245	-0.495378	-0.242029	-1.23738	
2.90069	0	0	-0.400393	-1.03406	0.436003	0.69192	-0.333998	0.234334	0.754889	0.099258	-0.818909	0.552531	0.386376	-1.2752	-1.05058	0.617675	-0.240916	-1.40102	-0.55196	-1.21265	-0.128497	-1.5205	-0.899557	-1.89291	-0.391574	-1.68856	-0.324403	-1.08188	-0.027095	-0.592653	-0.331384	-0.504364	-0.232954	-1.24727	
2.90375	0	0	-0.387238	-1.04067	0.447897	0.692533	-0.323529	0.227493	0.765119	0.098747	-0.797968	0.538848	0.396438	-1.26663	-1.03311	0.607908	-0.228739	-1.38814	-0.547613	-1.21725	-0.123751	-1.5171	-0.902196	-1.89526	-0.386836	-1.69166	-0.322307	-1.08781	-0.0213013	-0.598711	-0.328776	-0.511734	-0.231129	-1.25243	
2.90222	0	0	-0.374082	-1.04727	0.459792	0.693146	-0.31306	0.220652	0.775348	0.098236	-0.777027	0.525164	0.4065	-1.25805	-1.01565	0.598141	-0.216563	-1.37526	-0.543265	-1.22185	-0.119006	-1.51371	-0.904834	-1.89761	-0.382099	-1.69475	-0.320212	-1.09373	-0.0155075	-0.604769	-0.326168	-0.519103	-0.229304	-1.25759	
2.90222	0	0	-0.360926	-1.05387	0.471686	0.693759	-0.302591	0.213812	0.785578	0.097725	-0.756085	0.511481	0.416561	-1.24948	-0.998186	0.588375	-0.204386	-1.36238	-0.538918	-1.22645	-0.11426	-1.51031	-0.907473	-1.89996	-0.377362	-1.69785	-0.318117	-1.09965	-0.00971375	-0.610828	-0.323561	-0.526473	-0.227479	-1.26275	
2.89764	0	0	-0.347771	-1.06048	0.48358	0.694372	-0.292122	0.206971	0.795808	0.097214	-0.735144	0.497797	0.426623	-1.2409	-0.980723	0.578608	-0.19221	-1.3495	-0.534571	-1.23105	-0.109514	-1.50691	-0.910112	-1.90231	-0.372624	-1.70094	-0.316021	-1.10557	-0.00392	-0.616886	-0.320953	-0.533842	-0.225654	-1.26791	
2.89764	0	0	-0.349714	-1.06518	0.477038	0.701444	-0.295613	0.209252	0.796755	0.0945365	-0.720155	0.488003	0.432433	-1.22952	-0.968555	0.570657	-0.189748	-1.34067	-0.529923	-1.22881	-0.107638	-1.5038	-0.909175	-1.90495	-0.373715	-1.69786	-0.306099	-1.10978	0.00244525	-0.614226	-0.310291	-0.531363	-0.225654	-1.26791	
2.90222	0	0	-0.351658	-1.06989	0.470496	0.708516	-0.299104	0.211533	0.797703	0.091859	-0.705165	0.478209	0.438243	-1.21813	-0.956387	0.562706	-0.187286	-1.33183	-0.525275	-1.22656	-0.105763	-1.50069	-0.908238	-1.9076	-0.374807	-1.69477	-0.296177	-1.11399	0.0088105	-0.611566	-0.29963	-0.528884	-0.225654	-1.26791	
2.89764	0	0	-0.353602	-1.07459	0.463955	0.715587	-0.302596	0.213815	0.798651	0.0891815	-0.690175	0.468414	0.444053	-1.20675	-0.944218	0.554755	-0.184825	-1.323	-0.520626	-1.22432	-0.103888	-1.49758	-0.907302	-1.91025	-0.375898	-1.69169	-0.286256	-1.11819	0.0151758	-0.608906	-0.288969	-0.526405	-0.225654	-1.26791	
2.89917	0	0	-0.355545	-1.0793	0.457413	0.722659	-0.306087	0.216096	0.799598	0.086504	-0.675186	0.45862	0.449863	-1.19536	-0.93205	0.546804	-0.182363	-1.31417	-0.515978	-1.22208	-0.102012	-1.49447	-0.906365	-1.9129	-0.376989	-1.6886	-0.276334	-1.1224	0.021541	-0.606246	-0.278307	-0.523926	-0.225654	-1.26791	
2.89764	0	0	-0.352797	-1.08706	0.459987	0.715384	-0.306843	0.218233	0.801492	0.0811515	-0.672942	0.4588	0.451861	-1.20101	-0.93205	0.546804	-0.182152	-1.32266	-0.520626	-1.22432	-0.10289	-1.5004	-0.91164	-1.91758	-0.374807	-1.69477	-0.275038	-1.11414	0.0189615	-0.588622	-0.280266	-0.507506	-0.22205	-1.26233	
2.89764	0	0	-0.35005	-1.09483	0.462562	0.708108	-0.307599	0.220369	0.803386	0.075799	-0.670699	0.45898	0.453859	-1.20665	-0.93205	0.546804	-0.181941	-1.33115	-0.525275	-1.22656	-0.103768	-1.50633	-0.916915	-1.92227	-0.372625	-1.70094	-0.273742	-1.10587	0.016382	-0.570999	-0.282226	-0.491086	-0.218445	-1.25675	
2.90069	0	0	-0.347303	-1.10259	0.465136	0.700832	-0.308355	0.222506	0.80528	0.0704465	-0.668455	0.45916	0.455857	-1.2123	-0.93205	0.546804	-0.181731	-1.33965	-0.529923	-1.22881	-0.104646	-1.51226	-0.92219	-1.92696	-0.370442	-1.70711	-0.272446	-1.09761	0.0138025	-0.553376	-0.284185	-0.474667	-0.21484	-1.25117	
2.89612	0	0	-0.344555	-1.11036	0.46771	0.693557	-0.309111	0.224643	0.807174	0.065094	-0.666212	0.45934	0.457855	-1.21795	-0.93205	0.546804	-0.18152	-1.34814	-0.534571	-1.23105	-0.105524	-1.51819	-0.927465	-1.93165	-0.36826	-1.71328	-0.27115	-1.08934	0.011223	-0.535752	-0.286144	-0.458247	-0.211236	-1.2456	
2.89917	0	0	-0.342609	-1.10566	0.47436	0.697604	-0.30562	0.222362	0.819318	0.0592157	-0.662452	0.455238	0.467396	-1.22635	-0.92596	0.542824	-0.179394	-1.36204	-0.531033	-1.23336	-0.105407	-1.52692	-0.927297	-1.94191	-0.367169	-1.71636	-0.274542	-1.09168	0.0149323	-0.535896	-0.282877	-0.456592	-0.207585	-1.25591	
2.89917	0	0	-0.340663	-1.10096	0.481009	0.70165	-0.302129	0.220081	0.831462	0.0533375	-0.658693	0.451135	0.476938	-1.23475	-0.919869	0.538844	-0.177267	-1.37594	-0.527494	-1.23567	-0.105291	-1.53566	-0.927129	-1.95218	-0.366078	-1.71944	-0.277934	-1.09402	0.0186415	-0.53604	-0.27961	-0.454937	-0.203933	-1.26623	
2.90527	0	0	-0.338717	-1.09626	0.487659	0.705697	-0.298637	0.217799	0.843606	0.0474593	-0.654934	0.447032	0.486479	-1.24316	-0.913779	0.534865	-0.175141	-1.38985	-0.523956	-1.23799	-0.105174	-1.5444	-0.926961	-1.96244	-0.364988	-1.72252	-0.281327	-1.09636	0.0223507	-0.536184	-0.276342	-0.453281	-0.200282	-1.27655	
2.90527	0	0	-0.336771	-1.09156	0.494309	0.709744	-0.295146	0.215518	0.85575	0.041581	-0.651174	0.44293	0.49602	-1.25156	-0.907688	0.530885	-0.173015	-1.40375	-0.520417	-1.2403	-0.105057	-1.55313	-0.926793	-1.97271	-0.363897	-1.7256	-0.284719	-1.0987	0.02606	-0.536328	-0.273075	-0.451626	-0.196631	-1.28687	
2.91138	0	0	-0.337577	-1.07908	0.501071	0.724946	-0.291654	0.213236	0.856328	0.0494383	-0.651174	0.44293	0.495022	-1.24874	-0.898544	0.52491	-0.180826	-1.41322	-0.516576	-1.23577	-0.107929	-1.55342	-0.926793	-1.97271	-0.364988	-1.72252	-0.280278	-1.09933	0.0334853	-0.536618	-0.266535	-0.448313	-0.19302	-1.2813	
2.91443	0	0	-0.338384	-1.0666	0.507833	0.740149	-0.288161	0.210953	0.856907	0.0572955	-0.651174	0.44293	0.494023	-1.24592	-0.8894	0.518935	-0.188638	-1.42268	-0.512736	-1.23123	-0.1108	-1.55371	-0.926793	-1.97271	-0.366078	-1.71944	-0.275837	-1.09995	0.0409105	-0.536908	-0.259994	-0.445001	-0.18941	-1.27572	
2.9129	0	0	-0.33919	-1.05412	0.514594	0.755351	-0.284668	0.208671	0.857485	0.0651528	-0.651174	0.44293	0.493025	-1.2431	-0.880256	0.512961	-0.196449	-1.43215	-0.508895	-1.2267	-0.113672	-1.554	-0.926793	-1.97271	-0.367169	-1.71636	-0.271395	-1.10058	0.0483357	-0.537197	-0.253453	-0.441688	-0.1858	-1.27015	
2.91748	0	0	-0.339996	-1.04164	0.521356	0.770553	-0.281176	0.206389	0.858063	0.07301	-0.651174	0.44293	0.492026	-1.24027	-0.871112	0.506986	-0.20426	-1.44162	-0.505054	-1.22217	-0.116544	-1.55428	-0.926793	-1.97271	-0.36826	-1.71328	-0.266954	-1.1012	0.055761	-0.537487	-0.246913	-0.438375	-0.182189	-1.26458	
2.9129	0	0	-0.33438	-1.0473	0.529209	0.75981	-0.284668	0.208671	0.861853	0.0622987	-0.666174	0.452731	0.489187	-1.26008	-0.886347	0.516941	-0.214331	-1.46822	-0.510814	-1.22897	-0.119189	-1.57199	-0.936397	-1.98467	-0.377015	-1.71939	-0.268003	-1.09823	0.056324	-0.528722	-0.246263	-0.429305	-0.184016	-1.25941	
2.91595	0	0	-0.328763	-1.05297	0.537062	0.749067	-0.288161	0.210953	0.865643	0.0515875	-0.681174	0.462533	0.486348	-1.27989	-0.901581	0.526895	-0.224403	-1.49483	-0.516574	-1.23576	-0.121834	-1.58971	-0.946001	-1.99664	-0.385771	-1.72551	-0.269052	-1.09527	0.056887	-0.519957	-0.245613	-0.420235	-0.185843	-1.25425	
2.91443	0	0	-0.323147	-1.05863	0.544916	0.738324	-0.291654	0.213236	0.869433	0.0408763	-0.696174	0.472334	0.483508	-1.2997	-0.916816	0.536849	-0.234474	-1.52144	-0.522334	-1.24256	-0.124478	-1.60742	-0.955606	-2.0086	-0.394526	-1.73163	-0.270101	-1.09231	0.05745	-0.511191	-0.244962	-0.411165	-0.18767	-1.24908	
2.91443	0	0	-0.317531	-1.06429	0.552769	0.727581	-0.295146	0.215518	0.873223	0.030165	-0.711174	0.482135	0.480669	-1.31951	-0.93205	0.546804	-0.244545	-1.54804	-0.528094	-1.24935	-0.127123	-1.62513	-0.96521	-2.02057	-0.403281	-1.73775	-0.27115	-1.08934	0.058013	-0.502426	-0.244312	-0.402095	-0.189497	-1.24392	
2.91138	0	0	-0.316613	-1.06689	0.559333	0.720488	-0.297881	0.215662	0.879487	0.0219582	-0.729139	0.493874	0.481087	-1.33923	-0.950296	0.558726	-0.251773	-1.58252	-0.533041	-1.25842	-0.131653	-1.64586	-0.97387	-2.03512	-0.405125	-1.75309	-0.271398	-1.10057	0.05745	-0.511191	-0.243216	-0.4161	-0.19128	-1.25466	
2.91138	0	0	-0.315696	-1.06948	0.565897	0.713394	-0.300617	0.215807	0.88575	0.0137515	-0.747105	0.505613	0.481505	-1.35894	-0.968542	0.570649	-0.259001	-1.61701	-0.537987	-1.26749	-0.136184	-1.66658	-0.98253	-2.04968	-0.406969	-1.76842	-0.271647	-1.11179	0.056887	-0.519957	-0.24212	-0.430106	-0.193064	-1.26539	
2.90832	0	0	-0.314779	-1.07207	0.572462	0.7063	-0.303352	0.215952	0.892014	0.00554475	-0.76507	0.517351	0.481922	-1.37866	-0.986787	0.582571	-0.266229	-1.65149	-0.542933	-1.27656	-0.140714	-1.68731	-0.99119	-2.06423	-0.408812	-1.78376	-0.271896	-1.12302	0.056324	-0.528722	-0.241024	-0.444111	-0.194848	-1.27613	
2.90985	0	0	-0.313861	-1.07467	0.579026	0.699207	-0.306087	0.216096	0.898278	-0.002662	-0.783035	0.52909	0.48234	-1.39837	-1.00503	0.594493	-0.273457	-1.68597	-0.54788	-1.28563	-0.145244	-1.70804	-0.99985	-2.07878	-0.410656	-1.7991	-0.272144	-1.13424	0.055761	-0.537487	-0.239928	-0.458116	-0.196631	-1.28687	
2.90985	0	0	-0.326225	-1.08052	0.56053	0.705688	-0.327004	0.229764	0.897691	-0.0104983	-0.809913	0.546652	0.478484	-1.41524	-1.0293	0.61035	-0.295079	-1.71082	-0.551211	-1.29923	-0.157476	-1.72365	-1.00757	-2.0959	-0.416143	-1.81437	-0.271352	-1.1484	0.0541462	-0.543274	-0.243856	-0.468813	-0.20024	-1.29243	
2.9068	0	0	-0.338589	-1.08638	0.542034	0.712169	-0.34792	0.243431	0.897104	-0.0183345	-0.83679	0.564215	0.474627	-1.4321	-1.05357	0.626206	-0.3167	-1.73567	-0.554542	-1.31283	-0.169708	-1.73926	-1.0153	-2.11301	-0.42163	-1.82964	-0.27056	-1.16256	0.0525315	-0.54906	-0.247783	-0.479511	-0.203848	-1.298	
2.90832	0	0	-0.350954	-1.09224	0.523538	0.71865	-0.368837	0.257099	0.896516	-0.0261708	-0.863668	0.581777	0.47077	-1.44897	-1.07784	0.642063	-0.338321	-1.76053	-0.557872	-1.32644	-0.18194	-1.75487	-1.02302	-2.13013	-0.427117	-1.84491	-0.269769	-1.17672	0.0509167	-0.554847	-0.251711	-0.490208	-0.207457	-1.30357	
2.90832	0	0	-0.363318	-1.0981	0.505042	0.725131	-0.389754	0.270766	0.895929	-0.034007	-0.890545	0.59934	0.466914	-1.46583	-1.1021	0.65792	-0.359943	-1.78538	-0.561203	-1.34004	-0.194172	-1.77049	-1.03075	-2.14725	-0.432604	-1.86018	-0.268977	-1.19087	0.049302	-0.560634	-0.255638	-0.500905	-0.211066	-1.30913	
2.9068	0	0	-0.368234	-1.11474	0.502136	0.699075	-0.40367	0.279859	0.898171	-0.0498333	-0.927009	0.624812	0.459487	-1.49103	-1.13913	0.68376	-0.379612	-1.81536	-0.573803	-1.35803	-0.203433	-1.79436	-1.04817	-2.16597	-0.444267	-1.8784	-0.274717	-1.19847	0.0476865	-0.566414	-0.259566	-0.511577	-0.223737	-1.30481	
2.90375	0	0	-0.37315	-1.13139	0.499229	0.673018	-0.417587	0.288953	0.900413	-0.0656595	-0.963472	0.650284	0.452061	-1.51622	-1.17616	0.7096	-0.399281	-1.84533	-0.586404	-1.37602	-0.212693	-1.81824	-1.06559	-2.1847	-0.455931	-1.89662	-0.280457	-1.20607	0.046071	-0.572193	-0.263493	-0.522249	-0.236408	-1.30049	
2.90375	0	0	-0.378067	-1.14804	0.496323	0.646962	-0.431503	0.298046	0.902654	-0.0814857	-0.999936	0.675756	0.444634	-1.54142	-1.21319	0.735441	-0.418949	-1.87531	-0.599004	-1.39401	-0.221953	-1.84211	-1.08301	-2.20343	-0.467594	-1.91484	-0.286197	-1.21366	0.0444555	-0.577973	-0.267421	-0.53292	-0.249079	-1.29617	
2.90527	0	0	-0.382983	-1.16469	0.493417	0.620906	-0.44542	0.307139	0.904896	-0.097312	-1.0364	0.701228	0.437208	-1.56661	-1.25022	0.761281	-0.438618	-1.90528	-0.611604	-1.412	-0.231214	-1.86598	-1.10043	-2.22215	-0.479257	-1.93306	-0.291937	-1.22126	0.04284	-0.583752	-0.271349	-0.543592	-0.26175	-1.29185	
2.90527	0	0	-0.388813	-1.17871	0.497141	0.598971	-0.455842	0.313949	0.913035	-0.110823	-1.06528	0.718456	0.436285	-1.59166	-1.27957	0.778817	-0.447717	-1.93382	-0.626888	-1.42987	-0.239582	-1.88394	-1.11243	-2.24628	-0.487283	-1.95123	-0.298976	-1.23704	0.0359005	-0.59514	-0.279204	-0.564859	-0.259894	-1.31282	
2.90527	0	0	-0.394643	-1.19272	0.500865	0.577037	-0.466264	0.320759	0.921174	-0.124334	-1.09417	0.735683	0.435363	-1.61671	-1.30893	0.796353	-0.456816	-1.96235	-0.642172	-1.44775	-0.24795	-1.90189	-1.12444	-2.27041	-0.495308	-1.96939	-0.306014	-1.25281	0.028961	-0.606527	-0.28706	-0.586125	-0.258038	-1.33379	
2.90375	0	0	-0.400473	-1.20674	0.50459	0.555102	-0.476687	0.32757	0.929313	-0.137846	-1.12305	0.752911	0.434441	-1.64176	-1.33828	0.813889	-0.465915	-1.99088	-0.657455	-1.46562	-0.256318	-1.91985	-1.13644	-2.29453	-0.503333	-1.98756	-0.313053	-1.26859	0.0220215	-0.617915	-0.294915	-0.607392	-0.256181	-1.35476	
2.90375	0	0	-0.406303	-1.22075	0.508314	0.533168	-0.487109	0.33438	0.937452	-0.151357	-1.15194	0.770139	0.433518	-1.6668	-1.36764	0.831425	-0.475014	-2.01941	-0.672739	-1.48349	-0.264686	-1.9378	-1.14845	-2.31866	-0.511359	-2.00572	-0.320092	-1.28437	0.015082	-0.629302	-0.30277	-0.628659	-0.254325	-1.37573	
2.90222	0	0	-0.411098	-1.2275	0.505626	0.529363	-0.49405	0.338916	0.947137	-0.159732	-1.17043	0.783869	0.434186	-1.6779	-1.38341	0.843375	-0.48011	-2.0282	-0.677175	-1.50142	-0.273133	-1.94714	-1.16318	-2.3349	-0.517911	-2.01778	-0.316972	-1.29319	0.0171728	-0.635211	-0.297577	-0.643335	-0.250695	-1.38599	
2.89917	0	0	-0.415892	-1.23425	0.502938	0.525558	-0.500992	0.343451	0.956822	-0.168107	-1.18893	0.797599	0.434853	-1.68899	-1.39918	0.855325	-0.485207	-2.037	-0.681611	-1.51934	-0.281579	-1.95649	-1.17791	-2.35114	-0.524464	-2.02984	-0.313852	-1.302	0.0192635	-0.641119	-0.292384	-0.658012	-0.247065	-1.39625	
2.90222	0	0	-0.420687	-1.241	0.500249	0.521752	-0.507933	0.347986	0.966507	-0.176483	-1.20742	0.811329	0.435521	-1.70009	-1.41495	0.867276	-0.490304	-2.0458	-0.686046	-1.53726	-0.290025	-1.96583	-1.19264	-2.36739	-0.531017	-2.04189	-0.310732	-1.31082	0.0213542	-0.647027	-0.287191	-0.672689	-0.243434	-1.40651	
2.90375	0	0	-0.425481	-1.24775	0.497561	0.517947	-0.514874	0.352522	0.976192	-0.184858	-1.22591	0.825059	0.436188	-1.71118	-1.43073	0.879226	-0.4954	-2.05459	-0.690482	-1.55518	-0.298472	-1.97518	-1.20737	-2.38363	-0.537569	-2.05395	-0.307612	-1.31964	0.023445	-0.652936	-0.281998	-0.687365	-0.239804	-1.41677	
2.89764	0	0	-0.430399	-1.26426	0.498568	0.492318	-0.52452	0.357182	0.980898	-0.198157	-1.24286	0.834483	0.433594	-1.72226	-1.45095	0.890795	-0.497868	-2.06307	-0.703504	-1.56398	-0.303178	-1.97846	-1.21946	-2.39754	-0.540506	-2.066	-0.307612	-1.31964	0.0298175	-0.650285	-0.277001	-0.69063	-0.236197	-1.41124	
2.90069	0	0	-0.435317	-1.28077	0.499575	0.466688	-0.534165	0.361843	0.985604	-0.211456	-1.2598	0.843908	0.431001	-1.73333	-1.47117	0.902363	-0.500335	-2.07155	-0.716525	-1.57277	-0.307885	-1.98175	-1.23156	-2.41145	-0.543443	-2.07806	-0.307612	-1.31964	0.03619	-0.647635	-0.272004	-0.693895	-0.23259	-1.40571	
2.89917	0	0	-0.440235	-1.29728	0.500582	0.441059	-0.54381	0.366503	0.99031	-0.224756	-1.27674	0.853333	0.428408	-1.74441	-1.49139	0.913932	-0.502803	-2.08003	-0.729546	-1.58157	-0.312591	-1.98503	-1.24365	-2.42535	-0.546381	-2.09011	-0.307612	-1.31964	0.0425625	-0.644984	-0.267006	-0.69716	-0.228983	-1.40018	
2.89917	0	0	-0.445153	-1.31379	0.501589	0.415429	-0.553456	0.371163	0.995016	-0.238055	-1.29368	0.862757	0.425814	-1.75548	-1.51161	0.925501	-0.50527	-2.0885	-0.742568	-1.59036	-0.317297	-1.98832	-1.25575	-2.43926	-0.549318	-2.10217	-0.307612	-1.31964	0.048935	-0.642333	-0.262009	-0.700425	-0.225376	-1.39464	
2.89917	0	0	-0.442435	-1.32148	0.500172	0.408051	-0.554212	0.373299	1.00189	-0.238456	-1.29292	0.860617	0.430048	-1.75825	-1.51385	0.925318	-0.496615	-2.08205	-0.753179	-1.60586	-0.319161	-1.99134	-1.26691	-2.45569	-0.556934	-2.11114	-0.304495	-1.32845	0.0462705	-0.645136	-0.270944	-0.707727	-0.228983	-1.40018	
2.89612	0	0	-0.439717	-1.32916	0.498756	0.400673	-0.554968	0.375436	1.00876	-0.238858	-1.29217	0.858476	0.434283	-1.76102	-1.51608	0.925135	-0.48796	-2.07559	-0.763791	-1.62135	-0.321025	-1.99435	-1.27807	-2.47211	-0.56455	-2.12011	-0.301378	-1.33726	0.043606	-0.647938	-0.279879	-0.715029	-0.23259	-1.40571	
2.89764	0	0	-0.436998	-1.33684	0.497339	0.393295	-0.555724	0.377572	1.01563	-0.239259	-1.29141	0.856336	0.438517	-1.76379	-1.51832	0.924952	-0.479305	-2.06914	-0.774402	-1.63685	-0.32289	-1.99737	-1.28923	-2.48853	-0.572165	-2.12907	-0.298262	-1.34606	0.0409415	-0.650741	-0.288813	-0.722332	-0.236197	-1.41124	
2.89764	0	0	-0.43428	-1.34452	0.495923	0.385917	-0.55648	0.379708	1.0225	-0.23966	-1.29065	0.854196	0.442751	-1.76655	-1.52055	0.924769	-0.47065	-2.06269	-0.785013	-1.65234	-0.324754	-2.00039	-1.30039	-2.50495	-0.579781	-2.13804	-0.295145	-1.35487	0.038277	-0.653544	-0.297748	-0.729634	-0.239804	-1.41677	
2.90069	0	0	-0.43428	-1.34452	0.501161	0.382494	-0.550303	0.377315	1.02749	-0.23474	-1.28256	0.850556	0.449589	-1.75825	-1.51457	0.920857	-0.457803	-2.04477	-0.788334	-1.66566	-0.32289	-1.99737	-1.30636	-2.51682	-0.580182	-2.14706	-0.294107	-1.35781	0.043033	-0.656652	-0.299285	-0.736127	-0.230754	-1.42662	
2.90222	0	0	-0.43428	-1.34452	0.5064	0.379071	-0.544126	0.374922	1.03249	-0.229821	-1.27448	0.846917	0.456428	-1.74995	-1.50858	0.916946	-0.444956	-2.02686	-0.791655	-1.67897	-0.321025	-1.99435	-1.31232	-2.52869	-0.580583	-2.15608	-0.293068	-1.36074	0.047789	-0.65976	-0.300823	-0.742619	-0.221703	-1.43647	
2.89764	0	0	-0.43428	-1.34452	0.511638	0.375648	-0.53795	0.372528	1.03748	-0.224901	-1.26639	0.843278	0.463267	-1.74165	-1.5026	0.913034	-0.432108	-2.00894	-0.794976	-1.69229	-0.319161	-1.99134	-1.31828	-2.54056	-0.580985	-2.1651	-0.29203	-1.36368	0.052545	-0.662867	-0.302361	-0.749112	-0.212652	-1.44633	
2.89917	0	0	-0.43428	-1.34452	0.516876	0.372225	-0.531773	0.370135	1.04248	-0.219981	-1.2583	0.839638	0.470105	-1.73335	-1.49661	0.909123	-0.419261	-1.99103	-0.798297	-1.7056	-0.317297	-1.98832	-1.32425	-2.55243	-0.581386	-2.17412	-0.290992	-1.36661	0.057301	-0.665975	-0.303898	-0.755605	-0.203602	-1.45618	
2.89917	0	0	-0.439073	-1.35122	0.493262	0.382125	-0.53524	0.372401	1.03809	-0.217118	-1.2524	0.835782	0.473687	-1.72503	-1.49437	0.909304	-0.409801	-1.97894	-0.802411	-1.71665	-0.313481	-1.99081	-1.3293	-2.56682	-0.582856	-2.18011	-0.294382	-1.3689	0.058346	-0.668929	-0.306298	-0.759655	-0.216258	-1.45185	
2.90222	0	0	-0.443866	-1.35792	0.469648	0.392025	-0.538707	0.374666	1.03371	-0.214255	-1.2465	0.831925	0.477268	-1.71671	-1.49213	0.909486	-0.400341	-1.96684	-0.806524	-1.7277	-0.309666	-1.9933	-1.33436	-2.58121	-0.584326	-2.1861	-0.297771	-1.3712	0.059391	-0.671882	-0.308698	-0.763704	-0.228913	-1.44752	
2.90527	0	0	-0.448658	-1.36462	0.446034	0.401925	-0.542174	0.376931	1.02933	-0.211392	-1.24059	0.828069	0.480849	-1.70839	-1.48989	0.909668	-0.390881	-1.95475	-0.810638	-1.73874	-0.30585	-1.9958	-1.33941	-2.5956	-0.585797	-2.1921	-0.301161	-1.37349	0.060436	-0.674836	-0.311098	-0.767753	-0.241569	-1.44319	
2.90375	0	0	-0.453451	-1.37132	0.42242	0.411825	-0.545641	0.379197	1.02495	-0.208529	-1.23469	0.824213	0.484431	-1.70007	-1.48766	0.909849	-0.381421	-1.94266	-0.814751	-1.74979	-0.302034	-1.99829	-1.34447	-2.60999	-0.587267	-2.19809	-0.304551	-1.37579	0.061481	-0.67779	-0.313498	-0.771803	-0.254225	-1.43885	
2.89917	0	0	-0.458378	-1.38773	0.419458	0.386176	-0.552571	0.383725	1.02777	-0.216513	-1.23174	0.822284	0.487376	-1.70839	-1.49289	0.911624	-0.378778	-1.94235	-0.823443	-1.76295	-0.302925	-2.00406	-1.3574	-2.62115	-0.592338	-2.20403	-0.306902	-1.38101	0.0567253	-0.674682	-0.312636	-0.774238	-0.252414	-1.44397	
2.90375	0	0	-0.463305	-1.40413	0.416497	0.360526	-0.559501	0.388253	1.0306	-0.224498	-1.22879	0.820354	0.49032	-1.71671	-1.49812	0.913398	-0.376136	-1.94205	-0.832136	-1.77611	-0.303817	-2.00983	-1.37033	-2.6323	-0.59741	-2.20998	-0.309254	-1.38623	0.0519695	-0.671574	-0.311775	-0.776672	-0.250603	-1.44909	
2.90527	0	0	-0.468231	-1.42053	0.413535	0.334876	-0.566431	0.392781	1.03342	-0.232482	-1.22584	0.818425	0.493264	-1.72504	-1.50335	0.915172	-0.373493	-1.94174	-0.840828	-1.78927	-0.304708	-2.01561	-1.38326	-2.64346	-0.602482	-2.21592	-0.311605	-1.39146	0.0472137	-0.668467	-0.310914	-0.779107	-0.248791	-1.45421	
2.90375	0	0	-0.473158	-1.43694	0.410573	0.309227	-0.573361	0.397309	1.03625	-0.240467	-1.22288	0.816496	0.496209	-1.73336	-1.50858	0.916947	-0.37085	-1.94143	-0.84952	-1.80244	-0.305599	-2.02138	-1.39619	-2.65462	-0.607553	-2.22187	-0.313956	-1.39668	0.042458	-0.665359	-0.310052	-0.781541	-0.24698	-1.45933	
2.90069	0	0	-0.470599	-1.45427	0.409008	0.291007	-0.580286	0.401834	1.03813	-0.245786	-1.22584	0.818425	0.500131	-1.74444	-1.51158	0.918902	-0.365399	-1.94906	-0.857416	-1.81777	-0.305518	-2.02989	-1.40123	-2.66892	-0.606897	-2.23386	-0.319692	-1.40418	0.0381745	-0.673903	-0.313991	-0.792054	-0.255996	-1.46523	
2.89612	0	0	-0.46804	-1.4716	0.407442	0.272786	-0.58721	0.406359	1.04001	-0.251105	-1.22879	0.820354	0.504053	-1.75552	-1.51457	0.920858	-0.359947	-1.95669	-0.865312	-1.83311	-0.305437	-2.03841	-1.40628	-2.68322	-0.60624	-2.24584	-0.325427	-1.41168	0.033891	-0.682447	-0.317931	-0.802566	-0.265012	-1.47114	
2.89764	0	0	-0.465482	-1.48892	0.405876	0.254566	-0.594135	0.410883	1.0419	-0.256424	-1.23174	0.822284	0.507974	-1.76661	-1.51756	0.922813	-0.354496	-1.96432	-0.873207	-1.84844	-0.305356	-2.04693	-1.41132	-2.69752	-0.605584	-2.25783	-0.331162	-1.41918	0.0296075	-0.690991	-0.32187	-0.813079	-0.274027	-1.47704	
2.89612	0	0	-0.462923	-1.50625	0.404311	0.236345	-0.601059	0.415408	1.04378	-0.261743	-1.23469	0.824213	0.511896	-1.77769	-1.52055	0.924769	-0.349044	-1.97195	-0.881103	-1.86378	-0.305275	-2.05544	-1.41637	-2.71182	-0.604928	-2.26981	-0.336898	-1.42669	0.025324	-0.699535	-0.325809	-0.823592	-0.283043	-1.48294	
2.89917	0	0	-0.468613	-1.51035	0.404311	0.236345	-0.601059	0.415408	1.04722	-0.261947	-1.23174	0.822284	0.516143	-1.78047	-1.51756	0.922813	-0.344527	-1.97693	-0.880642	-1.8726	-0.303329	-2.06094	-1.41794	-2.7264	-0.606401	-2.27577	-0.33718	-1.43773	0.0237042	-0.705273	-0.327349	-0.830052	-0.281236	-1.48805	
2.89612	0	0	-0.474304	-1.51445	0.404311	0.236345	-0.601059	0.415408	1.05066	-0.262151	-1.22879	0.820354	0.52039	-1.78324	-1.51457	0.920858	-0.34001	-1.98191	-0.880182	-1.88142	-0.301384	-2.06644	-1.41951	-2.74097	-0.607874	-2.28174	-0.337462	-1.44878	0.0220845	-0.711012	-0.328889	-0.836513	-0.279428	-1.49316	
2.89764	0	0	-0.479994	-1.51855	0.404311	0.236345	-0.601059	0.415408	1.0541	-0.262354	-1.22584	0.818425	0.524637	-1.78602	-1.51158	0.918902	-0.335494	-1.9869	-0.879721	-1.89024	-0.299438	-2.07194	-1.42108	-2.75555	-0.609348	-2.2877	-0.337745	-1.45983	0.0204648	-0.71675	-0.330429	-0.842974	-0.277621	-1.49826	
2.89459	0	0	-0.485685	-1.52264	0.404311	0.236345	-0.601059	0.415408	1.05754	-0.262558	-1.22288	0.816496	0.528884	-1.78879	-1.50858	0.916947	-0.330977	-1.99188	-0.879261	-1.89907	-0.297492	-2.07744	-1.42265	-2.77013	-0.610821	-2.29366	-0.338027	-1.47087	0.018845	-0.722488	-0.331969	-0.849434	-0.275814	-1.50337	
2.89612	0	0	-0.482841	-1.52059	0.405876	0.254566	-0.59067	0.40862	1.05095	-0.243922	-1.21182	0.810914	0.529211	-1.78048	-1.49736	0.911257	-0.330977	-1.99188	-0.876258	-1.89251	-0.293755	-2.07142	-1.4296	-2.76948	-0.603622	-2.29375	-0.334642	-1.4686	0.0231283	-0.713955	-0.323907	-0.83976	-0.268595	-1.50809	
2.89459	0	0	-0.479996	-1.51855	0.407442	0.272786	-0.580282	0.401832	1.04435	-0.225287	-1.20076	0.805331	0.529539	-1.77218	-1.48613	0.905566	-0.330977	-1.99188	-0.873256	-1.88595	-0.290017	-2.06541	-1.43655	-2.76884	-0.596424	-2.29384	-0.331257	-1.46632	0.0274115	-0.705423	-0.315846	-0.830086	-0.261377	-1.51281	
2.89459	0	0	-0.477151	-1.5165	0.409008	0.291007	-0.569893	0.395043	1.03776	-0.206651	-1.1897	0.799748	0.529866	-1.76387	-1.47491	0.899876	-0.330977	-1.99188	-0.870254	-1.87939	-0.28628	-2.05939	-1.4435	-2.76819	-0.589225	-2.29392	-0.327873	-1.46404	0.0316948	-0.69689	-0.307784	-0.820412	-0.254158	-1.51752	
2.89154	0	0	-0.474307	-1.51445	0.410573	0.309227	-0.559504	0.388255	1.03116	-0.188015	-1.17863	0.794166	0.530193	-1.75556	-1.46369	0.894186	-0.330977	-1.99188	-0.867251	-1.87283	-0.282543	-2.05337	-1.45045	-2.76755	-0.582027	-2.29401	-0.324488	-1.46176	0.035978	-0.688357	-0.299722	-0.810738	-0.246939	-1.52224	
2.88849	0	0	-0.471461	-1.5124	0.409448	0.323741	-0.558748	0.386118	1.03272	-0.182881	-1.16976	0.788366	0.531823	-1.74169	-1.45469	0.888307	-0.334559	-1.98954	-0.863606	-1.85301	-0.280754	-2.04184	-1.44966	-2.76027	-0.574405	-2.28513	-0.321855	-1.44549	0.0435025	-0.668278	-0.293562	-0.784782	-0.24153	-1.50612	
2.89001	0	0	-0.468615	-1.51035	0.408322	0.338255	-0.557992	0.383981	1.03427	-0.177746	-1.16088	0.782566	0.533452	-1.72782	-1.44569	0.882429	-0.33814	-1.9872	-0.85996	-1.83318	-0.278965	-2.0303	-1.44888	-2.75298	-0.566783	-2.27624	-0.319222	-1.42922	0.051027	-0.6482	-0.287401	-0.758825	-0.23612	-1.49	
2.89001	0	0	-0.465769	-1.5083	0.407197	0.352769	-0.557236	0.381845	1.03582	-0.172612	-1.15201	0.776767	0.535081	-1.71395	-1.4367	0.87655	-0.341722	-1.98486	-0.856314	-1.81336	-0.277177	-2.01876	-1.4481	-2.7457	-0.559161	-2.26736	-0.316589	-1.41295	0.0585515	-0.628121	-0.281241	-0.732868	-0.23071	-1.47388	
2.88849	0	0	-0.462923	-1.50625	0.406071	0.367283	-0.55648	0.379708	1.03738	-0.167478	-1.14313	0.770967	0.536711	-1.70007	-1.4277	0.870671	-0.345303	-1.98252	-0.852669	-1.79354	-0.275388	-2.00722	-1.44731	-2.73842	-0.551539	-2.25847	-0.313956	-1.39668	0.066076	-0.608042	-0.275081	-0.706912	-0.225301	-1.45775	
2.89154	0	0	-0.456179	-1.495	0.418067	0.378781	-0.546079	0.372912	1.04738	-0.157585	-1.13424	0.765161	0.542594	-1.68895	-1.41569	0.862823	-0.343433	-1.9878	-0.852033	-1.78025	-0.272543	-2.00696	-1.45258	-2.73303	-0.553669	-2.25245	-0.321219	-1.37615	0.058242	-0.575551	-0.284812	-0.668554	-0.230741	-1.44238	
2.89154	0	0	-0.449435	-1.48375	0.430063	0.390278	-0.535677	0.366115	1.05737	-0.147693	-1.12536	0.759356	0.548477	-1.67782	-1.40368	0.854975	-0.341564	-1.99309	-0.851398	-1.76696	-0.269698	-2.0067	-1.45785	-2.72764	-0.5558	-2.24643	-0.328482	-1.35562	0.050408	-0.54306	-0.294543	-0.630196	-0.236181	-1.427	
2.89154	0	0	-0.442691	-1.4725	0.442059	0.401776	-0.525276	0.359318	1.06737	-0.1378	-1.11648	0.753551	0.554359	-1.6667	-1.39167	0.847128	-0.339694	-1.99837	-0.850762	-1.75368	-0.266852	-2.00644	-1.46312	-2.72225	-0.55793	-2.24041	-0.335745	-1.3351	0.042574	-0.51057	-0.304273	-0.591838	-0.241622	-1.41163	
2.89612	0	0	-0.435947	-1.46125	0.454055	0.413274	-0.514874	0.352522	1.07737	-0.127907	-1.10759	0.747745	0.560242	-1.65557	-1.37966	0.83928	-0.337824	-2.00366	-0.850127	-1.74039	-0.264007	-2.00618	-1.46838	-2.71686	-0.56006	-2.23439	-0.343008	-1.31457	0.03474	-0.478079	-0.314004	-0.55348	-0.247062	-1.39625	
2.89764	0	0	-0.429057	-1.44023	0.463523	0.432029	-0.50023	0.341311	1.0943	-0.118382	-1.09794	0.739792	0.570397	-1.6472	-1.37064	0.833387	-0.339535	-2.0066	-0.844127	-1.72715	-0.265959	-2.00066	-1.47108	-2.70924	-0.554976	-2.22845	-0.341704	-1.30639	0.0369035	-0.463475	-0.310086	-0.542821	-0.250694	-1.38599	
2.89917	0	0	-0.422167	-1.41922	0.47299	0.450784	-0.485586	0.3301	1.11123	-0.108856	-1.08829	0.73184	0.580551	-1.63883	-1.36162	0.827493	-0.341247	-2.00954	-0.838128	-1.7139	-0.267911	-1.99514	-1.47377	-2.70163	-0.549892	-2.2225	-0.3404	-1.29821	0.039067	-0.448871	-0.306167	-0.532161	-0.254327	-1.37572	
2.89917	0	0	-0.415276	-1.3982	0.482457	0.469539	-0.470942	0.318889	1.12816	-0.0993305	-1.07864	0.723888	0.590706	-1.63047	-1.3526	0.8216	-0.342958	-2.01248	-0.832129	-1.70066	-0.269864	-1.98963	-1.47647	-2.69402	-0.544808	-2.21656	-0.339096	-1.29003	0.0412305	-0.434267	-0.302248	-0.521502	-0.257959	-1.36546	
2.90375	0	0	-0.408386	-1.37718	0.491925	0.488294	-0.456298	0.307678	1.14508	-0.089805	-1.06898	0.715935	0.600861	-1.6221	-1.34358	0.815707	-0.344669	-2.01543	-0.826129	-1.68742	-0.271816	-1.98411	-1.47916	-2.68641	-0.539724	-2.21062	-0.337792	-1.28184	0.043394	-0.419663	-0.29833	-0.510843	-0.261591	-1.35519	
2.90527	0	0	-0.406303	-1.36279	0.486931	0.513804	-0.457054	0.309814	1.14379	-0.07658	-1.05711	0.708177	0.610045	-1.61092	-1.33455	0.809808	-0.349957	-2.01603	-0.817436	-1.67417	-0.269947	-1.98109	-1.47659	-2.68418	-0.542926	-2.20157	-0.337532	-1.2707	0.0476638	-0.410989	-0.301164	-0.491957	-0.25799	-1.34965	
2.90527	0	0	-0.404219	-1.3484	0.481936	0.539314	-0.45781	0.311951	1.1425	-0.063355	-1.04524	0.700419	0.619228	-1.59973	-1.32553	0.803908	-0.355245	-2.01663	-0.808743	-1.66092	-0.268078	-1.97806	-1.47401	-2.68196	-0.546129	-2.19252	-0.337272	-1.25957	0.0519335	-0.402315	-0.303999	-0.47307	-0.254389	-1.3441	
2.9068	0	0	-0.402136	-1.33401	0.476942	0.564823	-0.458566	0.314087	1.14121	-0.05013	-1.03336	0.69266	0.628412	-1.58855	-1.3165	0.798009	-0.360533	-2.01723	-0.80005	-1.64766	-0.266209	-1.97504	-1.47144	-2.67974	-0.549331	-2.18347	-0.337011	-1.24843	0.0562032	-0.393641	-0.306833	-0.454184	-0.250789	-1.33855	
2.90985	0	0	-0.400052	-1.31962	0.471948	0.590333	-0.459322	0.316223	1.13992	-0.036905	-1.02149	0.684902	0.637596	-1.57736	-1.30747	0.79211	-0.365821	-2.01783	-0.791357	-1.63441	-0.26434	-1.97202	-1.46887	-2.67752	-0.552533	-2.17442	-0.336751	-1.23729	0.060473	-0.384967	-0.309667	-0.435297	-0.247188	-1.333	
2.9068	0	0	-0.4055	-1.30422	0.474631	0.594153	-0.459322	0.316223	1.14148	-0.0317235	-1.02149	0.684902	0.638903	-1.57176	-1.31349	0.796044	-0.369239	-2.02371	-0.795634	-1.6299	-0.271897	-1.97556	-1.47144	-2.67974	-0.551465	-2.17743	-0.345344	-1.22488	0.058907	-0.370162	-0.314031	-0.422964	-0.249008	-1.32786	
2.9068	0	0	-0.410949	-1.28882	0.477314	0.597973	-0.459322	0.316223	1.14304	-0.026542	-1.02149	0.684902	0.640211	-1.56616	-1.31951	0.799977	-0.372657	-2.02958	-0.799911	-1.62538	-0.279454	-1.97911	-1.47401	-2.68196	-0.550398	-2.18045	-0.353936	-1.21247	0.057341	-0.355356	-0.318396	-0.410631	-0.250827	-1.32272	
2.90527	0	0	-0.416397	-1.27343	0.479997	0.601792	-0.459322	0.316223	1.1446	-0.0213605	-1.02149	0.684902	0.641518	-1.56056	-1.32553	0.80391	-0.376074	-2.03546	-0.804189	-1.62086	-0.287011	-1.98266	-1.47659	-2.68418	-0.54933	-2.18347	-0.362528	-1.20006	0.055775	-0.34055	-0.32276	-0.398297	-0.252647	-1.31757	
2.90222	0	0	-0.421845	-1.25803	0.48268	0.605612	-0.459322	0.316223	1.14615	-0.016179	-1.02149	0.684902	0.642825	-1.55495	-1.33155	0.807844	-0.379492	-2.04134	-0.808466	-1.61634	-0.294568	-1.98621	-1.47916	-2.68641	-0.548262	-2.18649	-0.371121	-1.18765	0.054209	-0.325745	-0.327124	-0.385964	-0.254467	-1.31243	
2.9068	0	0	-0.41796	-1.24871	0.494592	0.606197	-0.456603	0.316089	1.15906	-0.0142665	-1.01928	0.685102	0.649723	-1.54653	-1.32854	0.805878	-0.379492	-2.04134	-0.810053	-1.61186	-0.299275	-1.98949	-1.4861	-2.68577	-0.546127	-2.19252	-0.371121	-1.18765	0.0494317	-0.322624	-0.331257	-0.385161	-0.259884	-1.31284	
2.9068	0	0	-0.414074	-1.23939	0.506503	0.606781	-0.453883	0.315955	1.17196	-0.012354	-1.01706	0.685302	0.656621	-1.53811	-1.32553	0.803911	-0.379492	-2.04134	-0.81164	-1.60737	-0.303982	-1.99278	-1.49303	-2.68514	-0.543993	-2.19855	-0.371121	-1.18765	0.0446545	-0.319503	-0.335389	-0.384358	-0.265301	-1.31326	
2.90375	0	0	-0.410189	-1.23007	0.518415	0.607366	-0.451163	0.31582	1.18487	-0.0104415	-1.01485	0.685501	0.66352	-1.52969	-1.32252	0.801944	-0.379492	-2.04134	-0.813227	-1.60288	-0.30869	-1.99606	-1.49997	-2.68451	-0.541859	-2.20458	-0.371121	-1.18765	0.0398773	-0.316381	-0.339522	-0.383555	-0.270719	-1.31367	
2.90527	0	0	-0.406303	-1.22075	0.530327	0.60795	-0.448444	0.315686	1.19777	-0.008529	-1.01264	0.685701	0.670418	-1.52126	-1.31951	0.799978	-0.379492	-2.04134	-0.814814	-1.5984	-0.313397	-1.99934	-1.50691	-2.68388	-0.539724	-2.21062	-0.371121	-1.18765	0.0351	-0.31326	-0.343654	-0.382752	-0.276136	-1.31409	
2.9068	0	0	-0.415531	-1.20483	0.52261	0.629758	-0.452676	0.320094	1.19552	0.0074535	-1.00372	0.679873	0.67664	-1.50156	-1.31349	0.796043	-0.380583	-2.03049	-0.812611	-1.58948	-0.318186	-1.99409	-1.50781	-2.68134	-0.542926	-2.20157	-0.368786	-1.18238	0.0420227	-0.301669	-0.348023	-0.370405	-0.270719	-1.31367	
2.90222	0	0	-0.424759	-1.1889	0.514894	0.651567	-0.456908	0.324503	1.19326	0.023436	-0.9948	0.674046	0.682863	-1.48186	-1.30747	0.792108	-0.381675	-2.01964	-0.810407	-1.58057	-0.322975	-1.98884	-1.50871	-2.67881	-0.546129	-2.19252	-0.366451	-1.1771	0.0489455	-0.290079	-0.352391	-0.358058	-0.265301	-1.31326	
2.90832	0	0	-0.433987	-1.17297	0.507177	0.673376	-0.461139	0.328911	1.19101	0.0394185	-0.985881	0.668218	0.689086	-1.46216	-1.30144	0.788173	-0.382767	-2.00879	-0.808204	-1.57165	-0.327765	-1.9836	-1.5096	-2.67627	-0.549331	-2.18347	-0.364115	-1.17183	0.0558683	-0.278488	-0.35676	-0.345711	-0.259884	-1.31284	
2.90527	0	0	-0.443215	-1.15704	0.499461	0.695184	-0.465371	0.333319	1.18875	0.055401	-0.976962	0.66239	0.695308	-1.44246	-1.29542	0.784238	-0.383858	-1.99794	-0.806001	-1.56273	-0.332554	-1.97835	-1.5105	-2.67373	-0.552533	-2.17442	-0.36178	-1.16655	0.062791	-0.266897	-0.361129	-0.333364	-0.254467	-1.31243	
2.9068	0	0	-0.442191	-1.14979	0.502145	0.699028	-0.461139	0.328911	1.1963	0.0629312	-0.971011	0.658502	0.705523	-1.43396	-1.29542	0.784238	-0.377026	-1.98615	-0.810586	-1.56492	-0.338228	-1.97888	-1.51564	-2.67818	-0.559746	-2.17434	-0.371424	-1.15117	0.0505745	-0.242762	-0.372881	-0.321885	-0.268993	-1.2871	
2.90375	0	0	-0.441167	-1.14253	0.50483	0.702872	-0.456908	0.324503	1.20384	0.0704615	-0.96506	0.654613	0.715739	-1.42547	-1.29542	0.784238	-0.370194	-1.97436	-0.815172	-1.5671	-0.343901	-1.97941	-1.52077	-2.68262	-0.56696	-2.17427	-0.381068	-1.13579	0.038358	-0.218628	-0.384633	-0.310405	-0.28352	-1.26177	
2.90375	0	0	-0.440143	-1.13527	0.507514	0.706715	-0.452676	0.320094	1.21139	0.0779917	-0.959109	0.650724	0.725955	-1.41697	-1.29542	0.784238	-0.363362	-1.96258	-0.819758	-1.56929	-0.349575	-1.97994	-1.52591	-2.68706	-0.574173	-2.17419	-0.390712	-1.12041	0.0261415	-0.194493	-0.396385	-0.298925	-0.298046	-1.23644	
2.90375	0	0	-0.439119	-1.12801	0.510198	0.710559	-0.448444	0.315686	1.21893	0.085522	-0.953158	0.646836	0.73617	-1.40848	-1.29542	0.784238	-0.35653	-1.95079	-0.824343	-1.57147	-0.355248	-1.98047	-1.53104	-2.69151	-0.581386	-2.17412	-0.400356	-1.10503	0.013925	-0.170358	-0.408137	-0.287446	-0.312573	-1.21111	
2.90069	0	0	-0.438906	-1.10829	0.515673	0.729419	-0.438009	0.308868	1.22169	0.106622	-0.934522	0.633013	0.752338	-1.38861	-1.27959	0.77225	-0.348321	-1.91945	-0.822448	-1.56925	-0.354363	-1.97469	-1.53451	-2.69119	-0.578848	-2.17114	-0.3957	-1.09443	0.0197627	-0.155667	-0.410763	-0.280025	-0.303571	-1.20509	
2.90527	0	0	-0.438694	-1.08857	0.521148	0.748279	-0.427573	0.302049	1.22445	0.127722	-0.915887	0.61919	0.768506	-1.36874	-1.26376	0.760263	-0.340112	-1.88811	-0.820553	-1.56704	-0.353477	-1.96891	-1.53797	-2.69088	-0.57631	-2.16816	-0.391043	-1.08383	0.0256005	-0.140975	-0.413389	-0.272605	-0.294569	-1.19907	
2.89917	0	0	-0.438482	-1.06884	0.526623	0.767138	-0.417138	0.295231	1.22721	0.148823	-0.897251	0.605368	0.784675	-1.34886	-1.24793	0.748275	-0.331903	-1.85677	-0.818658	-1.56483	-0.352592	-1.96313	-1.54143	-2.69057	-0.573773	-2.16518	-0.386387	-1.07323	0.0314383	-0.126283	-0.416014	-0.265184	-0.285566	-1.19305	
2.89917	0	0	-0.438269	-1.04912	0.532098	0.785998	-0.406703	0.288412	1.22997	0.169923	-0.878616	0.591545	0.800843	-1.32899	-1.2321	0.736287	-0.323694	-1.82543	-0.816763	-1.56261	-0.351706	-1.95736	-1.54489	-2.69025	-0.571235	-2.1622	-0.381731	-1.06264	0.037276	-0.111592	-0.41864	-0.257764	-0.276564	-1.18703	
2.90069	0	0	-0.439185	-1.04653	0.52812	0.785789	-0.406703	0.288412	1.21822	0.183861	-0.869663	0.585695	0.796124	-1.30627	-1.22908	0.734315	-0.31361	-1.79922	-0.820739	-1.55137	-0.353753	-1.94329	-1.55104	-2.68234	-0.567226	-2.15321	-0.374744	-1.04669	0.0495057	-0.0940555	-0.408889	-0.252711	-0.274878	-1.16028	
2.90069	0	0	-0.4401	-1.04395	0.524142	0.785579	-0.406703	0.288412	1.20647	0.197798	-0.86071	0.579845	0.791405	-1.28355	-1.22606	0.732343	-0.303527	-1.77302	-0.824716	-1.54014	-0.355799	-1.92922	-1.5572	-2.67442	-0.563216	-2.14421	-0.367757	-1.03074	0.0617355	-0.076519	-0.399139	-0.247659	-0.273193	-1.13353	
2.89917	0	0	-0.441016	-1.04136	0.520165	0.785369	-0.406703	0.288412	1.19472	0.211736	-0.851758	0.573995	0.786687	-1.26083	-1.22305	0.730371	-0.293443	-1.74682	-0.828693	-1.5289	-0.357845	-1.91515	-1.56335	-2.6665	-0.559207	-2.13522	-0.360771	-1.0148	0.0739652	-0.0589825	-0.389388	-0.242607	-0.271508	-1.10677	
2.90069	0	0	-0.441931	-1.03877	0.516187	0.78516	-0.406703	0.288412	1.18297	0.225674	-0.842805	0.568145	0.781968	-1.2381	-1.22003	0.728399	-0.283359	-1.72062	-0.832669	-1.51766	-0.359892	-1.90109	-1.5695	-2.65858	-0.555197	-2.12623	-0.353784	-0.99885	0.086195	-0.041446	-0.379637	-0.237554	-0.269822	-1.08002	
2.89917	0	0	-0.445596	-1.02841	0.521557	0.792893	-0.399739	0.283861	1.18511	0.238906	-0.824871	0.556427	0.781549	-1.21814	-1.21097	0.722479	-0.271561	-1.69124	-0.834865	-1.52659	-0.357153	-1.89225	-1.57027	-2.66588	-0.555197	-2.12623	-0.350403	-0.996493	0.088858	-0.0385342	-0.381136	-0.244192	-0.260802	-1.07394	
2.89764	0	0	-0.449261	-1.01806	0.526927	0.800625	-0.392775	0.279311	1.18724	0.252137	-0.806937	0.544708	0.78113	-1.19817	-1.20191	0.716559	-0.259764	-1.66187	-0.83706	-1.53552	-0.354413	-1.88341	-1.57103	-2.67317	-0.555197	-2.12623	-0.347021	-0.994136	0.091521	-0.0356225	-0.382636	-0.25083	-0.251783	-1.06787	
2.89764	0	0	-0.452925	-1.0077	0.532298	0.808357	-0.385812	0.274761	1.18938	0.265369	-0.789003	0.53299	0.780712	-1.1782	-1.19285	0.710639	-0.247966	-1.63251	-0.839255	-1.54445	-0.351674	-1.87458	-1.5718	-2.68046	-0.555197	-2.12623	-0.34364	-0.991778	0.094184	-0.0327107	-0.384136	-0.257468	-0.242763	-1.06179	
2.89764	0	0	-0.45659	-0.997343	0.537668	0.81609	-0.378848	0.27021	1.19152	0.2786	-0.771069	0.521271	0.780293	-1.15823	-1.18379	0.704719	-0.236168	-1.60313	-0.841451	-1.55339	-0.348935	-1.86574	-1.57257	-2.68775	-0.555197	-2.12623	-0.340259	-0.989421	0.096847	-0.029799	-0.385635	-0.264106	-0.233743	-1.05571	
2.89764	0	0	-0.457507	-0.994752	0.537763	0.827288	-0.374608	0.265797	1.18573	0.294942	-0.756095	0.511487	0.783901	-1.14962	-1.17472	0.698792	-0.22417	-1.582	-0.846823	-1.55333	-0.347177	-1.85411	-1.57513	-2.68997	-0.556267	-2.12321	-0.343414	-0.980504	0.0973673	-0.0208265	-0.388011	-0.268262	-0.230148	-1.05007	
2.90069	0	0	-0.458424	-0.992161	0.537857	0.838486	-0.370368	0.261383	1.17995	0.311283	-0.741121	0.501703	0.787508	-1.14101	-1.16565	0.692866	-0.212172	-1.56086	-0.852195	-1.55327	-0.345419	-1.84249	-1.57769	-2.69219	-0.557337	-2.12018	-0.346569	-0.971587	0.0978875	-0.011854	-0.390386	-0.272417	-0.226552	-1.04442	
2.90222	0	0	-0.459341	-0.989569	0.537952	0.849685	-0.366128	0.25697	1.17417	0.327624	-0.726148	0.491919	0.791116	-1.1324	-1.15658	0.68694	-0.200173	-1.53972	-0.857568	-1.55321	-0.343662	-1.83086	-1.58025	-2.69441	-0.558407	-2.11716	-0.349725	-0.96267	0.0984078	-0.0028815	-0.392762	-0.276573	-0.222957	-1.03878	
2.90375	0	0	-0.460258	-0.986978	0.538046	0.860883	-0.361888	0.252557	1.16839	0.343966	-0.711174	0.482135	0.794724	-1.1238	-1.14751	0.681013	-0.188175	-1.51858	-0.86294	-1.55315	-0.341904	-1.81924	-1.58281	-2.69663	-0.559477	-2.11414	-0.35288	-0.953753	0.098928	0.006091	-0.395138	-0.280729	-0.219362	-1.03314	
2.90222	0	0	-0.46503	-0.993815	0.528702	0.852917	-0.365372	0.254833	1.15855	0.352488	-0.714171	0.484093	0.793425	-1.12953	-1.15734	0.689078	-0.184744	-1.51252	-0.873179	-1.56197	-0.346704	-1.81397	-1.59138	-2.70076	-0.564155	-2.11108	-0.354985	-0.947803	0.094636	0.018221	-0.399263	-0.279936	-0.224888	-1.01752	
2.89917	0	0	-0.469801	-1.00065	0.519357	0.84495	-0.368856	0.25711	1.14872	0.36101	-0.717167	0.486051	0.792126	-1.13526	-1.16716	0.697142	-0.181312	-1.50646	-0.883417	-1.5708	-0.351504	-1.8087	-1.59995	-2.70488	-0.568833	-2.10802	-0.35709	-0.941853	0.090344	0.030351	-0.403388	-0.279142	-0.230414	-1.0019	
2.89917	0	0	-0.474573	-1.00749	0.510012	0.836984	-0.37234	0.259386	1.13888	0.369532	-0.720164	0.488009	0.790826	-1.14099	-1.17699	0.705207	-0.17788	-1.5004	-0.893655	-1.57962	-0.356304	-1.80344	-1.60852	-2.709	-0.573511	-2.10497	-0.359196	-0.935904	0.086052	0.042481	-0.407512	-0.278348	-0.23594	-0.986284	
2.89764	0	0	-0.479345	-1.01432	0.500668	0.829018	-0.375824	0.261663	1.12905	0.378054	-0.723161	0.489967	0.789527	-1.14673	-1.18681	0.713272	-0.174449	-1.49434	-0.903894	-1.58844	-0.361104	-1.79817	-1.61709	-2.71313	-0.578189	-2.10191	-0.361301	-0.929954	0.08176	0.054611	-0.411637	-0.277555	-0.241466	-0.970666	
2.90069	0	0	-0.488781	-1.0181	0.495309	0.821283	-0.379306	0.263939	1.12809	0.380781	-0.726914	0.494065	0.793562	-1.15813	-1.19286	0.71722	-0.168147	-1.49638	-0.90718	-1.60177	-0.361104	-1.79817	-1.62386	-2.72229	-0.579656	-2.10792	-0.362575	-0.938267	0.0764418	0.0487607	-0.421996	-0.291669	-0.239623	-0.975875	
2.89764	0	0	-0.498217	-1.02187	0.48995	0.813548	-0.382789	0.266215	1.12712	0.383509	-0.730668	0.498164	0.797596	-1.16953	-1.1989	0.721167	-0.161844	-1.49842	-0.910467	-1.6151	-0.361104	-1.79817	-1.63063	-2.73146	-0.581122	-2.11394	-0.363849	-0.946579	0.0711235	0.0429105	-0.432356	-0.305783	-0.23778	-0.981083	
2.89917	0	0	-0.507653	-1.02565	0.48459	0.805813	-0.386271	0.26849	1.12616	0.386236	-0.734421	0.502262	0.80163	-1.18093	-1.20494	0.725114	-0.155541	-1.50047	-0.913753	-1.62843	-0.361104	-1.79817	-1.6374	-2.74063	-0.582589	-2.11995	-0.365122	-0.954892	0.0658052	0.0370603	-0.442715	-0.319897	-0.235937	-0.986292	
2.89764	0	0	-0.517089	-1.02942	0.479231	0.798078	-0.389754	0.270766	1.12519	0.388964	-0.738174	0.506361	0.805665	-1.19233	-1.21098	0.729062	-0.149239	-1.50251	-0.91704	-1.64176	-0.361104	-1.79817	-1.64417	-2.74979	-0.584056	-2.12596	-0.366396	-0.963205	0.060487	0.03121	-0.453075	-0.334011	-0.234094	-0.991501	
2.89764	0	0	-0.526509	-1.03319	0.472678	0.805167	-0.392479	0.270904	1.11786	0.400046	-0.744163	0.510274	0.79903	-1.19238	-1.21702	0.733007	-0.153825	-1.49743	-0.918443	-1.65285	-0.358266	-1.79789	-1.64315	-2.76208	-0.580851	-2.13502	-0.375249	-0.961989	0.0578297	0.0282885	-0.457813	-0.342279	-0.241368	-0.986748	
2.89459	0	0	-0.535929	-1.03696	0.466125	0.812257	-0.395205	0.271043	1.11053	0.411129	-0.750151	0.514187	0.792395	-1.19242	-1.22305	0.736951	-0.158412	-1.49236	-0.919847	-1.66395	-0.355428	-1.79761	-1.64214	-2.77437	-0.577646	-2.14408	-0.384101	-0.960772	0.0551725	0.025367	-0.46255	-0.350548	-0.248642	-0.981995	
2.89612	0	0	-0.545348	-1.04074	0.459572	0.819346	-0.397931	0.271182	1.10321	0.422212	-0.756139	0.5181	0.78576	-1.19246	-1.22909	0.740895	-0.162998	-1.48728	-0.92125	-1.67505	-0.35259	-1.79734	-1.64113	-2.78666	-0.57444	-2.15314	-0.392954	-0.959556	0.0525152	0.0224455	-0.467287	-0.358816	-0.255916	-0.977242	
2.89459	0	0	-0.554768	-1.04451	0.453019	0.826436	-0.400656	0.27132	1.09588	0.433294	-0.762128	0.522013	0.779125	-1.19251	-1.23513	0.74484	-0.167584	-1.48221	-0.922654	-1.68614	-0.349752	-1.79706	-1.64011	-2.79895	-0.571235	-2.1622	-0.401807	-0.958339	0.049858	0.019524	-0.472025	-0.367084	-0.26319	-0.972489	
2.89764	0	0	-0.559616	-1.06115	0.442331	0.810992	-0.411091	0.278139	1.09088	0.428166	-0.774092	0.529831	0.770192	-1.19542	-1.2502	0.75469	-0.173687	-1.4886	-0.926118	-1.68388	-0.347894	-1.79401	-1.64955	-2.80053	-0.572303	-2.15918	-0.402858	-0.955369	0.05037	0.0285082	-0.473768	-0.36216	-0.259603	-0.966821	
2.89612	0	0	-0.564465	-1.07779	0.431642	0.795548	-0.421526	0.284957	1.08589	0.423038	-0.786056	0.537648	0.76126	-1.19833	-1.26527	0.764539	-0.179789	-1.495	-0.929582	-1.68162	-0.346036	-1.79096	-1.65898	-2.8021	-0.573371	-2.15616	-0.403909	-0.952398	0.050882	0.0374925	-0.47551	-0.357235	-0.256016	-0.961153	
2.89917	0	0	-0.569314	-1.09443	0.420953	0.780104	-0.431961	0.291776	1.08089	0.417911	-0.798021	0.545466	0.752328	-1.20125	-1.28035	0.774388	-0.185891	-1.50139	-0.933047	-1.67935	-0.344179	-1.7879	-1.66842	-2.80368	-0.574439	-2.15314	-0.40496	-0.949427	0.051394	0.0464768	-0.477252	-0.35231	-0.25243	-0.955486	
2.89764	0	0	-0.574162	-1.11107	0.410265	0.76466	-0.442396	0.298594	1.0759	0.412783	-0.809985	0.553284	0.743395	-1.20416	-1.29542	0.784238	-0.191994	-1.50779	-0.936511	-1.67709	-0.342321	-1.78485	-1.67786	-2.80525	-0.575507	-2.15012	-0.406011	-0.946457	0.051906	0.055461	-0.478995	-0.347386	-0.248843	-0.949818	
2.89764	0	0	-0.575172	-1.11832	0.402354	0.764234	-0.447383	0.305138	1.0784	0.415346	-0.82269	0.563232	0.739793	-1.21272	-1.30822	0.794244	-0.19809	-1.51417	-0.940588	-1.68813	-0.340358	-1.7904	-1.68372	-2.81687	-0.576977	-2.15612	-0.412535	-0.93991	0.0353637	0.0709343	-0.493054	-0.340093	-0.25623	-0.92894	
2.90222	0	0	-0.576183	-1.12557	0.394444	0.763807	-0.452371	0.311682	1.08089	0.417909	-0.835396	0.57318	0.73619	-1.22129	-1.32102	0.80425	-0.204186	-1.52055	-0.944665	-1.69917	-0.338394	-1.79595	-1.68959	-2.8285	-0.578446	-2.16212	-0.419059	-0.933363	0.0188215	0.0864075	-0.507113	-0.3328	-0.263618	-0.908062	
2.90222	0	0	-0.577194	-1.13281	0.386533	0.763381	-0.457359	0.318226	1.08339	0.420472	-0.848101	0.583129	0.732588	-1.22986	-1.33381	0.814256	-0.210283	-1.52694	-0.948743	-1.71021	-0.336431	-1.8015	-1.69545	-2.84012	-0.579916	-2.16812	-0.425582	-0.926816	0.00227925	0.101881	-0.521172	-0.325507	-0.271005	-0.887184	
2.90527	0	0	-0.578204	-1.14006	0.378622	0.762954	-0.462346	0.32477	1.08589	0.423035	-0.860807	0.593077	0.728986	-1.23843	-1.34661	0.824262	-0.216379	-1.53332	-0.95282	-1.72125	-0.334468	-1.80705	-1.70132	-2.85174	-0.581386	-2.17412	-0.432106	-0.920269	-0.014263	0.117354	-0.535231	-0.318214	-0.278392	-0.866306	
2.90527	0	0	-0.587497	-1.13399	0.377421	0.777736	-0.465064	0.324903	1.08452	0.436527	-0.863034	0.592885	0.730994	-1.2441	-1.34962	0.826227	-0.218852	-1.54206	-0.949671	-1.73015	-0.337308	-1.80732	-1.70464	-2.86114	-0.583922	-2.1771	-0.434422	-0.925607	-0.0169093	0.114419	-0.541687	-0.321563	-0.276544	-0.87153	
2.90527	0	0	-0.59679	-1.12792	0.37622	0.792518	-0.467782	0.325037	1.08315	0.45002	-0.86526	0.592694	0.733003	-1.24978	-1.35262	0.828192	-0.221325	-1.55079	-0.946522	-1.73905	-0.340147	-1.8076	-1.70795	-2.87054	-0.586459	-2.18008	-0.436738	-0.930945	-0.0195555	0.111484	-0.548143	-0.324912	-0.274695	-0.876754	
2.9068	0	0	-0.606082	-1.12184	0.375019	0.8073	-0.4705	0.32517	1.08178	0.463512	-0.867486	0.592503	0.735011	-1.25545	-1.35563	0.830158	-0.223798	-1.55953	-0.943373	-1.74795	-0.342987	-1.80787	-1.71127	-2.87994	-0.588996	-2.18306	-0.439053	-0.936282	-0.0222017	0.108549	-0.554599	-0.328261	-0.272847	-0.881978	
2.90527	0	0	-0.615375	-1.11577	0.373818	0.822082	-0.473218	0.325303	1.08041	0.477004	-0.869713	0.592311	0.737019	-1.26113	-1.35864	0.832123	-0.226271	-1.56826	-0.940224	-1.75685	-0.345827	-1.80815	-1.71459	-2.88934	-0.591532	-2.18603	-0.441369	-0.94162	-0.024848	0.105614	-0.561055	-0.33161	-0.270999	-0.887202	
2.90527	0	0	-0.619108	-1.11531	0.36607	0.84398	-0.476691	0.327572	1.0854	0.482152	-0.872696	0.594261	0.738023	-1.26396	-1.36089	0.831948	-0.227795	-1.57966	-0.94447	-1.75236	-0.342987	-1.80787	-1.71625	-2.89404	-0.591532	-2.18603	-0.444734	-0.943985	-0.0285655	0.105712	-0.569242	-0.330041	-0.278273	-0.882449	
2.9068	0	0	-0.622842	-1.11484	0.358321	0.865877	-0.480164	0.329842	1.0904	0.487301	-0.875679	0.59621	0.739026	-1.2668	-1.36314	0.831774	-0.229318	-1.59107	-0.948716	-1.74788	-0.340147	-1.8076	-1.7179	-2.89873	-0.591532	-2.18603	-0.448099	-0.946349	-0.032283	0.105811	-0.57743	-0.328472	-0.285547	-0.877696	
2.90832	0	0	-0.626575	-1.11438	0.350573	0.887775	-0.483636	0.332111	1.09539	0.492449	-0.878663	0.598159	0.74003	-1.26964	-1.36539	0.831599	-0.230842	-1.60248	-0.952961	-1.7434	-0.337308	-1.80732	-1.71956	-2.90342	-0.591532	-2.18603	-0.451464	-0.948714	-0.0360005	0.105909	-0.585618	-0.326903	-0.292821	-0.872943	
2.90375	0	0	-0.630308	-1.11392	0.342825	0.909673	-0.487109	0.33438	1.10038	0.497598	-0.881646	0.600109	0.741033	-1.27247	-1.36764	0.831425	-0.232366	-1.61388	-0.957207	-1.73891	-0.334468	-1.80705	-1.72122	-2.90811	-0.591532	-2.18603	-0.454829	-0.951079	-0.039718	0.106007	-0.593805	-0.325334	-0.300095	-0.86819	
2.90527	0	0	-0.636956	-1.12536	0.340093	0.894623	-0.497519	0.341182	1.09442	0.495183	-0.896547	0.609846	0.735123	-1.28386	-1.38265	0.841236	-0.244533	-1.62655	-0.96412	-1.73439	-0.340146	-1.8076	-1.72974	-2.91217	-0.598733	-2.18596	-0.46365	-0.949875	-0.0386458	0.102976	-0.601982	-0.32377	-0.298247	-0.873411	
2.89917	0	0	-0.643604	-1.13679	0.337362	0.879573	-0.507929	0.347984	1.08846	0.492769	-0.911448	0.619582	0.729213	-1.29524	-1.39767	0.851048	-0.2567	-1.63922	-0.971033	-1.72988	-0.345824	-1.80815	-1.73825	-2.91622	-0.605934	-2.18589	-0.472472	-0.948672	-0.0375735	0.099945	-0.610159	-0.322205	-0.2964	-0.878632	
2.90222	0	0	-0.650253	-1.14823	0.33463	0.864523	-0.518338	0.354786	1.0825	0.490354	-0.926349	0.629319	0.723304	-1.30662	-1.41268	0.860859	-0.268868	-1.65188	-0.977947	-1.72536	-0.351503	-1.80871	-1.74676	-2.92028	-0.613135	-2.18582	-0.481294	-0.947468	-0.0365012	0.096914	-0.618336	-0.32064	-0.294552	-0.883853	
2.90069	0	0	-0.656901	-1.15967	0.331899	0.849473	-0.528748	0.361588	1.07654	0.48794	-0.94125	0.639055	0.717394	-1.31801	-1.4277	0.870671	-0.281035	-1.66455	-0.98486	-1.72084	-0.357181	-1.80926	-1.75527	-2.92433	-0.620336	-2.18574	-0.490115	-0.946264	-0.035429	0.093883	-0.626513	-0.319076	-0.292705	-0.889074	
2.89917	0	0	-0.661632	-1.16643	0.326587	0.841744	-0.535681	0.366118	1.07501	0.482634	-0.959097	0.650717	0.712487	-1.33218	-1.44568	0.882422	-0.293176	-1.67717	-0.99238	-1.72959	-0.363729	-1.81563	-1.76543	-2.93306	-0.624335	-2.1947	-0.503324	-0.944468	-0.05242	0.100328	-0.63789	-0.319193	-0.305388	-0.884798	
2.90222	0	0	-0.666362	-1.17318	0.321275	0.834014	-0.542614	0.370648	1.07349	0.477329	-0.976943	0.662378	0.70758	-1.34636	-1.46367	0.894173	-0.305318	-1.6898	-0.999899	-1.73835	-0.370277	-1.82199	-1.77558	-2.94178	-0.628333	-2.20366	-0.516532	-0.942673	-0.069411	0.106772	-0.649267	-0.31931	-0.318072	-0.880523	
2.90222	0	0	-0.671093	-1.17994	0.315963	0.826285	-0.549547	0.375178	1.07196	0.472024	-0.99479	0.67404	0.702672	-1.36053	-1.48165	0.905925	-0.317459	-1.70242	-1.00742	-1.7471	-0.376824	-1.82836	-1.78573	-2.95051	-0.632331	-2.21261	-0.529741	-0.940877	-0.086402	0.113216	-0.660645	-0.319427	-0.330755	-0.876247	
2.90527	0	0	-0.675824	-1.18669	0.310651	0.818556	-0.55648	0.379708	1.07043	0.466718	-1.01264	0.685701	0.697765	-1.37471	-1.49964	0.917676	-0.3296	-1.71504	-1.01494	-1.75585	-0.383372	-1.83473	-1.79589	-2.95923	-0.63633	-2.22157	-0.542949	-0.939081	-0.103393	0.119661	-0.672022	-0.319544	-0.343438	-0.871971	
2.9068	0	0	-0.673108	-1.19437	0.318542	0.818998	-0.559944	0.381972	1.0714	0.463987	-1.01561	0.687642	0.692166	-1.37756	-1.50562	0.921588	-0.333775	-1.72667	-1.01603	-1.76026	-0.38327	-1.8433	-1.80437	-2.96327	-0.636735	-2.23054	-0.549645	-0.943809	-0.104957	0.113702	-0.677571	-0.325346	-0.361497	-0.868187	
2.90832	0	0	-0.670392	-1.20204	0.326432	0.81944	-0.563408	0.384235	1.07236	0.461255	-1.01858	0.689584	0.686566	-1.38041	-1.51161	0.925499	-0.33795	-1.73829	-1.01713	-1.76466	-0.383168	-1.85187	-1.81285	-2.96731	-0.637139	-2.23952	-0.556342	-0.948536	-0.106521	0.107743	-0.683119	-0.331147	-0.379556	-0.864403	
2.90832	0	0	-0.667676	-1.20972	0.334322	0.819882	-0.566873	0.386498	1.07333	0.458523	-1.02155	0.691525	0.680967	-1.38325	-1.51759	0.929411	-0.342124	-1.74992	-1.01822	-1.76907	-0.383066	-1.86044	-1.82134	-2.97135	-0.637544	-2.24849	-0.563038	-0.953264	-0.108085	0.101784	-0.688667	-0.336948	-0.397615	-0.860619	
2.91138	0	0	-0.66496	-1.2174	0.342213	0.820324	-0.570337	0.388762	1.0743	0.455792	-1.02452	0.693466	0.675368	-1.3861	-1.52358	0.933322	-0.346299	-1.76154	-1.01931	-1.77347	-0.382964	-1.86902	-1.82982	-2.97539	-0.637949	-2.25747	-0.569734	-0.957991	-0.109649	0.095825	-0.694216	-0.34275	-0.415674	-0.856835	
2.91138	0	0	-0.669488	-1.2046	0.342366	0.842661	-0.567629	0.388635	1.06946	0.469458	-1.02452	0.693466	0.674671	-1.3748	-1.51759	0.929411	-0.348185	-1.75621	-1.01979	-1.76462	-0.388732	-1.861	-1.82894	-2.97788	-0.64473	-2.24842	-0.571828	-0.952073	-0.110229	0.107843	-0.696819	-0.335395	-0.401181	-0.866305	
2.9129	0	0	-0.674016	-1.1918	0.342519	0.864999	-0.56492	0.388509	1.06462	0.483123	-1.02452	0.693466	0.673974	-1.36349	-1.51161	0.925499	-0.350071	-1.75088	-1.02027	-1.75578	-0.394499	-1.85298	-1.82806	-2.98037	-0.651511	-2.23937	-0.573922	-0.946155	-0.110809	0.11986	-0.699422	-0.32804	-0.386688	-0.875775	
2.91138	0	0	-0.678544	-1.17901	0.342672	0.887336	-0.562212	0.388382	1.05979	0.496789	-1.02452	0.693466	0.673278	-1.35219	-1.50562	0.921588	-0.351957	-1.74555	-1.02075	-1.74694	-0.400267	-1.84496	-1.82718	-2.98286	-0.658292	-2.23032	-0.576016	-0.940236	-0.111388	0.131878	-0.702024	-0.320684	-0.372196	-0.885244	
2.91443	0	0	-0.683072	-1.16621	0.342825	0.909673	-0.559504	0.388255	1.05495	0.510455	-1.02452	0.693466	0.672581	-1.34089	-1.49964	0.917676	-0.353843	-1.74022	-1.02122	-1.73809	-0.406034	-1.83694	-1.8263	-2.98535	-0.665073	-2.22127	-0.57811	-0.934318	-0.111968	0.143896	-0.704627	-0.313329	-0.357703	-0.894714	
2.91138	0	0	-0.681162	-1.16155	0.34166	0.935764	-0.559504	0.388255	1.04762	0.521557	-1.01858	0.689583	0.665867	-1.31257	-1.48765	0.909845	-0.355158	-1.72089	-1.01686	-1.72042	-0.403307	-1.82808	-1.82729	-2.9732	-0.661081	-2.21232	-0.576665	-0.914751	-0.10309	0.170789	-0.701965	-0.288618	-0.363379	-0.862908	
2.9129	0	0	-0.679252	-1.15689	0.340495	0.961855	-0.559504	0.388255	1.04029	0.53266	-1.01264	0.6857	0.659153	-1.28426	-1.47567	0.902013	-0.356473	-1.70156	-1.01249	-1.70276	-0.400581	-1.81922	-1.82829	-2.96106	-0.657088	-2.20337	-0.57522	-0.895183	-0.0942125	0.197682	-0.699304	-0.263907	-0.369055	-0.831101	
2.91138	0	0	-0.677341	-1.15223	0.339329	0.987947	-0.559504	0.388255	1.03296	0.543762	-1.00669	0.681816	0.652438	-1.25595	-1.46368	0.894181	-0.357789	-1.68223	-1.00813	-1.68509	-0.397854	-1.81036	-1.82928	-2.94891	-0.653096	-2.19442	-0.573775	-0.875615	-0.0853348	0.224576	-0.696642	-0.239195	-0.374732	-0.799295	
2.91138	0	0	-0.675431	-1.14756	0.338164	1.01404	-0.559504	0.388255	1.02563	0.554864	-1.00075	0.677933	0.645724	-1.22763	-1.45169	0.88635	-0.359104	-1.6629	-1.00376	-1.66742	-0.395128	-1.8015	-1.83028	-2.93676	-0.649104	-2.18547	-0.57233	-0.856048	-0.076457	0.251469	-0.69398	-0.214484	-0.380408	-0.767489	
2.9129	0	0	-0.6697	-1.13355	0.34488	1.04074	-0.553327	0.385862	1.03018	0.570856	-0.982139	0.664127	0.651887	-1.20765	-1.43593	0.874407	-0.34983	-1.6422	-1.00158	-1.65856	-0.399051	-1.79042	-1.83205	-2.93177	-0.647641	-2.17948	-0.574062	-0.827471	-0.0730018	0.293832	-0.693965	-0.182238	-0.378863	-0.740285	
2.91138	0	0	-0.663968	-1.11954	0.351596	1.06743	-0.547151	0.38347	1.03474	0.586847	-0.963529	0.650321	0.65805	-1.18767	-1.42017	0.862464	-0.340557	-1.62149	-0.999402	-1.6497	-0.402974	-1.77933	-1.83381	-2.92678	-0.646178	-2.17349	-0.575794	-0.798895	-0.0695465	0.336196	-0.693949	-0.149991	-0.377319	-0.713082	
2.9129	0	0	-0.658237	-1.10552	0.358313	1.09413	-0.540975	0.381077	1.0393	0.602839	-0.944918	0.636514	0.664214	-1.16768	-1.40441	0.850521	-0.331284	-1.60078	-0.997221	-1.64084	-0.406897	-1.76824	-1.83558	-2.92179	-0.644714	-2.1675	-0.577526	-0.770318	-0.0660912	0.378559	-0.693934	-0.117745	-0.375774	-0.685879	
2.91901	0	0	-0.652505	-1.09151	0.365029	1.12083	-0.534798	0.378684	1.04385	0.618831	-0.926307	0.622708	0.670377	-1.1477	-1.38865	0.838578	-0.32201	-1.58007	-0.995041	-1.63199	-0.41082	-1.75716	-1.83734	-2.9168	-0.643251	-2.16151	-0.579258	-0.741741	-0.062636	0.420923	-0.693919	-0.085499	-0.374229	-0.658675	
2.92358	0	0	-0.644776	-1.06289	0.388969	1.15636	-0.517441	0.367343	1.05393	0.648219	-0.900215	0.607305	0.682418	-1.1161	-1.35554	0.816947	-0.303993	-1.55253	-0.993356	-1.61419	-0.41105	-1.73993	-1.83316	-2.90993	-0.644991	-2.14646	-0.571159	-0.717177	-0.0511547	0.451223	-0.692763	-0.0672095	-0.361869	-0.630306	
2.93274	0	0	-0.637048	-1.03427	0.412909	1.19189	-0.500085	0.356001	1.06401	0.677608	-0.874123	0.591902	0.694458	-1.08449	-1.32244	0.795316	-0.285975	-1.525	-0.991672	-1.5964	-0.411281	-1.7227	-1.82899	-2.90306	-0.646732	-2.13141	-0.56306	-0.692613	-0.0396735	0.481523	-0.691607	-0.04892	-0.34951	-0.601937	
2.93884	0	0	-0.62932	-1.00565	0.43685	1.22742	-0.482728	0.34466	1.07409	0.706996	-0.848031	0.576498	0.706499	-1.05289	-1.28934	0.773686	-0.267958	-1.49746	-0.989987	-1.57861	-0.411512	-1.70547	-1.82481	-2.89619	-0.648472	-2.11636	-0.55496	-0.668049	-0.0281923	0.511823	-0.69045	-0.0306305	-0.337151	-0.573568	
2.9541	0	0	-0.621591	-0.977028	0.46079	1.26295	-0.465371	0.333319	1.08417	0.736384	-0.821939	0.561095	0.71854	-1.02129	-1.25623	0.752055	-0.249941	-1.46992	-0.988302	-1.56082	-0.411742	-1.68824	-1.82063	-2.88932	-0.650212	-2.10131	-0.546861	-0.643485	-0.016711	0.542123	-0.689294	-0.012341	-0.324791	-0.545199	
2.9602	0	0	-0.614029	-0.968057	0.475446	1.27911	-0.454184	0.324366	1.09121	0.75516	-0.806229	0.549184	0.715282	-0.983882	-1.24416	0.744168	-0.248105	-1.43576	-0.985544	-1.5385	-0.411986	-1.67096	-1.82341	-2.87211	-0.644767	-2.08627	-0.527797	-0.625955	0.00490825	0.575544	-0.675871	0.003726	-0.306977	-0.516116	
2.97394	0	0	-0.606467	-0.959086	0.490103	1.29526	-0.442997	0.315413	1.09826	0.773935	-0.790519	0.537272	0.712025	-0.946476	-1.23209	0.736282	-0.246269	-1.4016	-0.982785	-1.51618	-0.412229	-1.65368	-1.82619	-2.8549	-0.639321	-2.07124	-0.508733	-0.608426	0.0265275	0.608965	-0.662447	0.019793	-0.289164	-0.487034	
2.98614	0	0	-0.598904	-0.950114	0.50476	1.31141	-0.431809	0.30646	1.1053	0.792711	-0.774808	0.525361	0.708767	-0.909071	-1.22002	0.728395	-0.244433	-1.36743	-0.980027	-1.49386	-0.412473	-1.6364	-1.82897	-2.8377	-0.633876	-2.0562	-0.489668	-0.590896	0.0481467	0.642385	-0.649024	0.03586	-0.27135	-0.457952	
2.99225	0	0	-0.591342	-0.941143	0.519416	1.32757	-0.420622	0.297507	1.11235	0.811487	-0.759098	0.513449	0.70551	-0.871665	-1.20795	0.720508	-0.242597	-1.33327	-0.977268	-1.47155	-0.412716	-1.61912	-1.83175	-2.82049	-0.62843	-2.04117	-0.470604	-0.573366	0.069766	0.675806	-0.635601	0.051927	-0.253536	-0.428869	
2.99988	0	0	-0.586524	-0.924368	0.534139	1.35528	-0.410179	0.290683	1.12636	0.830064	-0.744877	0.505803	0.718273	-0.851208	-1.18755	0.708818	-0.231607	-1.30909	-0.975099	-1.4626	-0.410007	-1.61016	-1.83352	-2.81548	-0.626972	-2.03513	-0.469211	-0.553439	0.079724	0.700383	-0.638245	0.0593993	-0.24094	-0.416647	
3.0014	0	0	-0.581705	-0.907592	0.548862	1.383	-0.399735	0.283859	1.14037	0.84864	-0.730655	0.498156	0.731035	-0.83075	-1.16714	0.697129	-0.220617	-1.28492	-0.972931	-1.45365	-0.407299	-1.60121	-1.8353	-2.81047	-0.625514	-2.0291	-0.467817	-0.533513	0.089682	0.724959	-0.640889	0.0668715	-0.228345	-0.404425	
3.01056	0	0	-0.576887	-0.890816	0.563584	1.41072	-0.389292	0.277034	1.15438	0.867217	-0.716433	0.490509	0.743798	-0.810293	-1.14673	0.685439	-0.209627	-1.26074	-0.970762	-1.44471	-0.40459	-1.59226	-1.83707	-2.80546	-0.624057	-2.02307	-0.466424	-0.513586	0.09964	0.749536	-0.643533	0.0743438	-0.215749	-0.392204	
3.01361	0	0	-0.572069	-0.874041	0.578307	1.43844	-0.378848	0.27021	1.16839	0.885794	-0.702212	0.482863	0.756561	-0.789836	-1.12633	0.673749	-0.198637	-1.23657	-0.968593	-1.43576	-0.401881	-1.5833	-1.83884	-2.80044	-0.622599	-2.01703	-0.465031	-0.493659	0.109598	0.774112	-0.646177	0.081816	-0.203153	-0.379982	
3.01208	0	0	-0.572849	-0.851548	0.582373	1.48491	-0.372635	0.267793	1.17051	0.918697	-0.681197	0.469131	0.767044	-0.772224	-1.10208	0.657903	-0.18838	-1.21808	-0.963749	-1.42681	-0.403	-1.57183	-1.84403	-2.79513	-0.622216	-2.00796	-0.450344	-0.475375	0.129757	0.8018	-0.632419	0.086249	-0.188839	-0.356484	
3.01208	0	0	-0.573629	-0.829055	0.58644	1.53139	-0.366422	0.265377	1.17262	0.9516	-0.660183	0.4554	0.777527	-0.754613	-1.07783	0.642057	-0.178123	-1.1996	-0.958905	-1.41787	-0.404118	-1.56036	-1.84922	-2.78981	-0.621832	-1.99888	-0.435656	-0.457091	0.149917	0.829488	-0.618661	0.090682	-0.174526	-0.332986	
3.01208	0	0	-0.574408	-0.806563	0.590507	1.57787	-0.360208	0.26296	1.17474	0.984504	-0.639169	0.441669	0.788009	-0.737001	-1.05358	0.626212	-0.167866	-1.18111	-0.95406	-1.40892	-0.405236	-1.54889	-1.85441	-2.78449	-0.621448	-1.98981	-0.420969	-0.438806	0.170076	0.857176	-0.604902	0.095115	-0.160212	-0.309489	
3.01208	0	0	-0.575188	-0.78407	0.594573	1.62434	-0.353995	0.260543	1.17686	1.01741	-0.618154	0.427937	0.798492	-0.71939	-1.02933	0.610366	-0.157609	-1.16263	-0.949216	-1.39998	-0.406355	-1.53742	-1.8596	-2.77917	-0.621065	-1.98073	-0.406281	-0.420522	0.190236	0.884864	-0.591144	0.099548	-0.145898	-0.285991	
3.01208	0	0	-0.575125	-0.774096	0.61198	1.64495	-0.34702	0.255986	1.19089	1.03622	-0.61439	0.423832	0.804126	-0.716385	-1.02022	0.604412	-0.149568	-1.16157	-0.952976	-1.40444	-0.408201	-1.54051	-1.85947	-2.78889	-0.626121	-1.98676	-0.410425	-0.396829	0.190437	0.916144	-0.596132	0.102807	-0.137046	-0.262901	
3.00903	0	0	-0.575062	-0.764121	0.629387	1.66556	-0.340045	0.251428	1.20493	1.05503	-0.610626	0.419727	0.809761	-0.71338	-1.0111	0.598459	-0.141526	-1.16051	-0.956737	-1.40891	-0.410048	-1.5436	-1.85934	-2.79861	-0.631178	-1.99278	-0.41457	-0.373136	0.190638	0.947424	-0.601121	0.106067	-0.128194	-0.239812	
3.00751	0	0	-0.574998	-0.754146	0.646795	1.68617	-0.33307	0.24687	1.21896	1.07385	-0.606863	0.415621	0.815396	-0.710376	-1.00199	0.592505	-0.133485	-1.15946	-0.960498	-1.41338	-0.411894	-1.5467	-1.8592	-2.80832	-0.636235	-1.9988	-0.418714	-0.349442	0.190839	0.978704	-0.60611	0.109327	-0.119341	-0.216722	
3.00751	0	0	-0.574935	-0.744172	0.664202	1.70677	-0.326095	0.242313	1.233	1.09266	-0.603099	0.411516	0.82103	-0.707371	-0.99288	0.586551	-0.125444	-1.1584	-0.964258	-1.41784	-0.41374	-1.54979	-1.85907	-2.81804	-0.641291	-2.00482	-0.422858	-0.325749	0.19104	1.00998	-0.611098	0.112586	-0.110489	-0.193632	
3.0014	0	0	-0.569215	-0.729844	0.676266	1.74274	-0.315621	0.235469	1.24057	1.12015	-0.594831	0.407759	0.831288	-0.698447	-0.980716	0.578603	-0.122986	-1.14947	-0.962378	-1.41561	-0.414729	-1.54699	-1.86501	-2.81993	-0.640219	-2.00785	-0.410452	-0.312805	0.201002	1.03503	-0.611981	0.115083	-0.096134	-0.169864	
3.00751	0	0	-0.563496	-0.715516	0.688331	1.77871	-0.305148	0.228626	1.24813	1.14763	-0.586564	0.404003	0.841546	-0.689523	-0.968552	0.570655	-0.120529	-1.14055	-0.960498	-1.41338	-0.415718	-1.5442	-1.87095	-2.82183	-0.639147	-2.01088	-0.398046	-0.299862	0.210964	1.06008	-0.612865	0.11758	-0.081779	-0.146095	
3.00751	0	0	-0.557777	-0.701188	0.700395	1.81468	-0.294675	0.221782	1.2557	1.17512	-0.578296	0.400247	0.851804	-0.680599	-0.956389	0.562707	-0.118071	-1.13162	-0.958618	-1.41115	-0.416707	-1.5414	-1.87688	-2.82372	-0.638074	-2.01391	-0.385641	-0.286918	0.220926	1.08512	-0.613749	0.120077	-0.067424	-0.122327	
3.01056	0	0	-0.552057	-0.68686	0.71246	1.85065	-0.284201	0.214939	1.26327	1.20261	-0.570028	0.39649	0.862062	-0.671675	-0.944225	0.554759	-0.115614	-1.12269	-0.956738	-1.40891	-0.417696	-1.53861	-1.88282	-2.82561	-0.637002	-2.01694	-0.373235	-0.273974	0.230888	1.11017	-0.614632	0.122574	-0.053069	-0.098559	
3.01208	0	0	-0.552982	-0.684245	0.717832	1.85888	-0.284201	0.214939	1.26629	1.21365	-0.579053	0.402387	0.861808	-0.680443	-0.950309	0.558735	-0.117327	-1.12579	-0.969542	-1.39535	-0.422508	-1.53331	-1.89733	-2.8219	-0.647412	-2.00781	-0.365131	-0.24875	0.246193	1.14165	-0.602624	0.132029	-0.0461237	-0.0697882	
3.01361	0	0	-0.553907	-0.681631	0.723205	1.86711	-0.284201	0.214939	1.26931	1.22469	-0.588078	0.408284	0.861554	-0.689211	-0.956393	0.56271	-0.11904	-1.12888	-0.982347	-1.38179	-0.42732	-1.52802	-1.91184	-2.81819	-0.657822	-1.99868	-0.357027	-0.223525	0.261497	1.17314	-0.590616	0.141485	-0.0391785	-0.0410175	
3.01361	0	0	-0.554833	-0.679016	0.728577	1.87534	-0.284201	0.214939	1.27234	1.23573	-0.597104	0.414182	0.8613	-0.697979	-0.962477	0.566685	-0.120754	-1.13198	-0.995152	-1.36823	-0.432132	-1.52273	-1.92634	-2.81447	-0.668233	-1.98954	-0.348922	-0.1983	0.276801	1.20462	-0.578609	0.15094	-0.0322333	-0.0122468	
3.01361	0	0	-0.555758	-0.676401	0.733949	1.88357	-0.284201	0.214939	1.27536	1.24677	-0.606129	0.420079	0.861046	-0.706747	-0.968561	0.570661	-0.122467	-1.13507	-1.00796	-1.35467	-0.436944	-1.51743	-1.94085	-2.81076	-0.678643	-1.98041	-0.340818	-0.173076	0.292106	1.23611	-0.566601	0.160395	-0.025288	0.016524	
3.01666	0	0	-0.555705	-0.666376	0.736588	1.91129	-0.277212	0.210372	1.28341	1.26326	-0.605372	0.417938	0.864385	-0.706696	-0.968561	0.570661	-0.121498	-1.13781	-1.00716	-1.35692	-0.436944	-1.51743	-1.94588	-2.81515	-0.676499	-1.98647	-0.33514	-0.165011	0.308865	1.24231	-0.563944	0.152887	-0.005116	0.0242435	
3.01666	0	0	-0.555652	-0.656351	0.739227	1.93901	-0.270223	0.205805	1.29146	1.27975	-0.604614	0.415797	0.867723	-0.706645	-0.968561	0.570661	-0.120529	-1.14055	-1.00636	-1.35917	-0.436944	-1.51743	-1.95092	-2.81955	-0.674355	-1.99253	-0.329462	-0.156946	0.325624	1.24852	-0.561287	0.145379	0.015056	0.031963	
3.01666	0	0	-0.555599	-0.646326	0.741866	1.96673	-0.263233	0.201238	1.2995	1.29624	-0.603857	0.413657	0.871061	-0.706594	-0.968561	0.570661	-0.119559	-1.14329	-1.00557	-1.36143	-0.436944	-1.51743	-1.95595	-2.82394	-0.672212	-1.99859	-0.323785	-0.148882	0.342383	1.25472	-0.558631	0.137872	0.035228	0.0396825	
3.01361	0	0	-0.555546	-0.636301	0.744505	1.99444	-0.256244	0.196671	1.30755	1.31273	-0.603099	0.411516	0.8744	-0.706543	-0.968561	0.570661	-0.11859	-1.14603	-1.00477	-1.36368	-0.436944	-1.51743	-1.96098	-2.82833	-0.670068	-2.00465	-0.318107	-0.140817	0.359142	1.26093	-0.555974	0.130364	0.0554	0.047402	
3.01666	0	0	-0.554619	-0.638919	0.739026	2.02167	-0.258983	0.196818	1.31057	1.32383	-0.605348	0.41134	0.871315	-0.697826	-0.967048	0.566385	-0.117621	-1.14877	-1.00317	-1.36818	-0.437933	-1.51464	-1.95997	-2.8405	-0.672591	-2.00765	-0.313511	-0.129664	0.361108	1.27684	-0.559201	0.128628	0.0606857	0.0649125	
3.01361	0	0	-0.553692	-0.641538	0.733547	2.04889	-0.261722	0.196964	1.31359	1.33494	-0.607597	0.411164	0.868231	-0.689109	-0.965535	0.562109	-0.116651	-1.15151	-1.00158	-1.37269	-0.438923	-1.51184	-1.95895	-2.85267	-0.675114	-2.01066	-0.308915	-0.118511	0.363075	1.29275	-0.562428	0.126891	0.0659715	0.082423	
3.01666	0	0	-0.552766	-0.644157	0.728068	2.07612	-0.264461	0.19711	1.31662	1.34605	-0.609845	0.410988	0.865147	-0.680392	-0.964022	0.557833	-0.115682	-1.15425	-0.999988	-1.37719	-0.439913	-1.50904	-1.95794	-2.86484	-0.677637	-2.01367	-0.304319	-0.107358	0.365041	1.30867	-0.565656	0.125155	0.0712572	0.0999335	
3.01208	0	0	-0.551839	-0.646775	0.722589	2.10334	-0.2672	0.197257	1.31964	1.35715	-0.612094	0.410812	0.862062	-0.671675	-0.962509	0.553557	-0.114713	-1.15699	-0.998394	-1.38169	-0.440902	-1.50625	-1.95692	-2.87702	-0.68016	-2.01667	-0.299723	-0.096205	0.367007	1.32458	-0.568883	0.123418	0.076543	0.117444	
3.01056	0	0	-0.562177	-0.648066	0.715823	2.11072	-0.274186	0.201822	1.31311	1.36579	-0.62711	0.420624	0.859498	-0.683396	-0.978457	0.565621	-0.120822	-1.16352	-1.00618	-1.39735	-0.438791	-1.52052	-1.96861	-2.89043	-0.67986	-2.03778	-0.291988	-0.105981	0.369271	1.31818	-0.564161	0.0992217	0.08402	0.112558	
3.00751	0	0	-0.572515	-0.649358	0.709056	2.11811	-0.281173	0.206388	1.30657	1.37442	-0.642126	0.430435	0.856934	-0.695118	-0.994404	0.577685	-0.126931	-1.17004	-1.01396	-1.413	-0.436679	-1.53479	-1.98029	-2.90384	-0.679561	-2.05888	-0.284254	-0.115757	0.371534	1.31179	-0.559439	0.0750255	0.091497	0.107673	
3.00903	0	0	-0.582854	-0.650649	0.70229	2.12549	-0.28816	0.210953	1.30004	1.38306	-0.657141	0.440246	0.854371	-0.70684	-1.01035	0.589749	-0.13304	-1.17657	-1.02175	-1.42865	-0.434567	-1.54906	-1.99198	-2.91725	-0.679261	-2.07998	-0.27652	-0.125532	0.373798	1.30539	-0.554717	0.0508293	0.098974	0.102787	
3.00445	0	0	-0.593192	-0.651941	0.695524	2.13287	-0.295146	0.215518	1.29351	1.39169	-0.672157	0.450058	0.851807	-0.718561	-1.0263	0.601813	-0.139149	-1.1831	-1.02953	-1.4443	-0.432456	-1.56333	-2.00366	-2.93066	-0.678961	-2.10109	-0.268785	-0.135308	0.376061	1.29899	-0.549995	0.026633	0.106451	0.097901	
3.00445	0	0	-0.596993	-0.661509	0.70229	2.12549	-0.298637	0.217799	1.29452	1.38885	-0.688661	0.464134	0.843858	-0.724511	-1.04222	0.61386	-0.145252	-1.18961	-1.03544	-1.45767	-0.437131	-1.56671	-2.01282	-2.94184	-0.687593	-2.10703	-0.276647	-0.137248	0.379453	1.2894	-0.560256	0.0122918	0.108383	0.0924405	
3.00598	0	0	-0.600795	-0.671078	0.709056	2.11811	-0.302129	0.220081	1.29552	1.38601	-0.705166	0.478209	0.835909	-0.730461	-1.05814	0.625907	-0.151355	-1.19613	-1.04134	-1.47105	-0.441806	-1.57009	-2.02198	-2.95303	-0.696225	-2.11298	-0.284508	-0.139188	0.382846	1.27982	-0.570517	-0.0020495	0.110316	0.08698	
2.99835	0	0	-0.604596	-0.680647	0.715823	2.11072	-0.30562	0.222362	1.29652	1.38317	-0.72167	0.492285	0.827961	-0.736411	-1.07406	0.637954	-0.157457	-1.20264	-1.04725	-1.48442	-0.446481	-1.57347	-2.03113	-2.96422	-0.704857	-2.11893	-0.29237	-0.141128	0.386238	1.27023	-0.580778	-0.0163907	0.112248	0.0815195	
2.99988	0	0	-0.608397	-0.690215	0.722589	2.10334	-0.309111	0.224643	1.29753	1.38033	-0.738174	0.506361	0.820012	-0.742361	-1.08998	0.650001	-0.16356	-1.20916	-1.05316	-1.49779	-0.451156	-1.57685	-2.04029	-2.97541	-0.713489	-2.12488	-0.300231	-0.143068	0.389631	1.26064	-0.591039	-0.030732	0.11418	0.076059	
3.0014	0	0	-0.611336	-0.712336	0.717306	2.07136	-0.323061	0.233758	1.29401	1.36084	-0.761345	0.519856	0.805171	-0.757117	-1.12023	0.669766	-0.172111	-1.22453	-1.06596	-1.50662	-0.457668	-1.58331	-2.04768	-2.99151	-0.716399	-2.13685	-0.295759	-0.143632	0.394576	1.25741	-0.588402	-0.0381835	0.117798	0.0820935	
2.99988	0	0	-0.614274	-0.734457	0.712022	2.03937	-0.337012	0.242874	1.29049	1.34134	-0.784517	0.53335	0.790329	-0.771872	-1.15048	0.689531	-0.180662	-1.2399	-1.07876	-1.51544	-0.46418	-1.58976	-2.05508	-3.00761	-0.719309	-2.14883	-0.291287	-0.144197	0.399521	1.25418	-0.585766	-0.045635	0.121416	0.088128	
2.99682	0	0	-0.617212	-0.756579	0.706739	2.00739	-0.350962	0.251989	1.28696	1.32185	-0.807688	0.546845	0.775488	-0.786628	-1.18073	0.709297	-0.189212	-1.25527	-1.09156	-1.52427	-0.470692	-1.59622	-2.06247	-3.02371	-0.722218	-2.16081	-0.286814	-0.144761	0.404467	1.25095	-0.58313	-0.0530865	0.125034	0.0941625	
2.9953	0	0	-0.620151	-0.7787	0.701455	1.97541	-0.364912	0.261104	1.28344	1.30235	-0.830859	0.56034	0.760647	-0.801384	-1.21098	0.729062	-0.197763	-1.27064	-1.10437	-1.53309	-0.477204	-1.60268	-2.06986	-3.03981	-0.725128	-2.17279	-0.282342	-0.145325	0.409412	1.24772	-0.580493	-0.060538	0.128652	0.100197	
2.9953	0	0	-0.62494	-0.795541	0.702836	1.95979	-0.37536	0.267931	1.27691	1.2914	-0.848762	0.572038	0.755789	-0.815939	-1.22531	0.73678	-0.201181	-1.27677	-1.11399	-1.5508	-0.481742	-1.61468	-2.07899	-3.05092	-0.731619	-2.18471	-0.286947	-0.156453	0.401359	1.23826	-0.580801	-0.0813012	0.125034	0.0941625	
2.9892	0	0	-0.62973	-0.812381	0.704218	1.94418	-0.385807	0.274758	1.27039	1.28045	-0.866664	0.583736	0.750931	-0.830494	-1.23963	0.744498	-0.204599	-1.28291	-1.12361	-1.56851	-0.486279	-1.62669	-2.08813	-3.06202	-0.73811	-2.19662	-0.291552	-0.167581	0.393305	1.22881	-0.581108	-0.102065	0.121416	0.088128	
2.9953	0	0	-0.634519	-0.829222	0.705599	1.92856	-0.396255	0.281585	1.26386	1.2695	-0.884567	0.595434	0.746073	-0.84505	-1.25396	0.752216	-0.208016	-1.28904	-1.13323	-1.58622	-0.490817	-1.63869	-2.09726	-3.07313	-0.744601	-2.20854	-0.296157	-0.178708	0.385252	1.21935	-0.581415	-0.122828	0.117798	0.0820935	
2.98614	0	0	-0.639308	-0.846063	0.70698	1.91295	-0.406703	0.288412	1.25733	1.25855	-0.90247	0.607132	0.741215	-0.859605	-1.26829	0.759934	-0.211434	-1.29517	-1.14285	-1.60392	-0.495355	-1.6507	-2.10639	-3.08424	-0.751092	-2.22045	-0.300762	-0.189836	0.377199	1.2099	-0.581723	-0.143591	0.11418	0.076059	
2.98614	0	0	-0.642198	-0.85812	0.70698	1.91295	-0.409427	0.288549	1.25582	1.25303	-0.907672	0.608885	0.735861	-0.853893	-1.27055	0.759765	-0.209725	-1.29211	-1.14501	-1.61277	-0.494372	-1.65348	-2.11052	-3.09102	-0.758243	-2.22039	-0.296432	-0.202074	0.38058	1.20034	-0.586417	-0.151932	0.125524	0.0602582	
2.98767	0	0	-0.645088	-0.870176	0.70698	1.91295	-0.41215	0.288686	1.25431	1.2475	-0.912874	0.610639	0.730507	-0.848181	-1.2728	0.759597	-0.208016	-1.28904	-1.14716	-1.62162	-0.493389	-1.65625	-2.11464	-3.09779	-0.765394	-2.22033	-0.292102	-0.214312	0.383962	1.19078	-0.591112	-0.160272	0.136869	0.0444575	
2.98614	0	0	-0.647977	-0.882232	0.70698	1.91295	-0.414874	0.288823	1.2528	1.24198	-0.918076	0.612393	0.725154	-0.842469	-1.27506	0.759429	-0.206308	-1.28598	-1.14932	-1.63047	-0.492405	-1.65903	-2.11877	-3.10456	-0.772545	-2.22026	-0.287771	-0.22655	0.387344	1.18123	-0.595806	-0.168613	0.148213	0.0286567	
2.98309	0	0	-0.650867	-0.894289	0.70698	1.91295	-0.417598	0.28896	1.25129	1.23645	-0.923278	0.614146	0.7198	-0.836757	-1.27732	0.75926	-0.204599	-1.28291	-1.15148	-1.63932	-0.491422	-1.66181	-2.12289	-3.11134	-0.779696	-2.2202	-0.283441	-0.238788	0.390725	1.17167	-0.6005	-0.176954	0.159557	0.012856	
2.98309	0	0	-0.654751	-0.913608	0.701634	1.89297	-0.427273	0.293639	1.24577	1.22273	-0.932209	0.619982	0.711137	-0.831096	-1.28635	0.765163	-0.209416	-1.2693	-1.15992	-1.63038	-0.494372	-1.65347	-2.13137	-3.1058	-0.776122	-2.22023	-0.284523	-0.23573	0.39341	1.17481	-0.597278	-0.175258	0.155696	0.023767	
2.98309	0	0	-0.658634	-0.932926	0.696289	1.87299	-0.436948	0.298319	1.24024	1.20901	-0.941141	0.625817	0.702473	-0.825435	-1.29539	0.771067	-0.214232	-1.25569	-1.16837	-1.62145	-0.497323	-1.64514	-2.13984	-3.10026	-0.772547	-2.22026	-0.285605	-0.232672	0.396096	1.17795	-0.594056	-0.173563	0.151836	0.034678	
2.98309	0	0	-0.662517	-0.952245	0.690943	1.85301	-0.446623	0.302999	1.23471	1.19529	-0.950072	0.631653	0.693809	-0.819774	-1.30442	0.776971	-0.219049	-1.24208	-1.17681	-1.61251	-0.500273	-1.6368	-2.14832	-3.09472	-0.768973	-2.22029	-0.286687	-0.229614	0.398782	1.1811	-0.590835	-0.171868	0.147975	0.045589	
2.97851	0	0	-0.666401	-0.971564	0.685597	1.83303	-0.456298	0.307678	1.22919	1.18157	-0.959003	0.637489	0.685146	-0.814113	-1.31346	0.782874	-0.223865	-1.22846	-1.18525	-1.60358	-0.503223	-1.62846	-2.15679	-3.08919	-0.765399	-2.22033	-0.287769	-0.226556	0.401467	1.18424	-0.587613	-0.170172	0.144114	0.0565	
2.97546	0	0	-0.664659	-0.986575	0.685609	1.82132	-0.459016	0.307812	1.22967	1.17044	-0.956027	0.635544	0.679798	-0.808404	-1.30744	0.778939	-0.21778	-1.22196	-1.19084	-1.61018	-0.505062	-1.63153	-2.15842	-3.0938	-0.767913	-2.22329	-0.296702	-0.22542	0.393845	1.18432	-0.59902	-0.170318	0.13663	0.0613897	
2.98309	0	0	-0.662917	-1.00158	0.68562	1.8096	-0.461735	0.307947	1.23015	1.15932	-0.953051	0.6336	0.674451	-0.802696	-1.30141	0.775004	-0.211695	-1.21546	-1.19642	-1.61678	-0.5069	-1.63461	-2.16004	-3.09841	-0.770427	-2.22626	-0.305636	-0.224283	0.386223	1.18441	-0.610427	-0.170463	0.129147	0.0662795	
2.98004	0	0	-0.661174	-1.0166	0.685631	1.79789	-0.464453	0.308081	1.23062	1.1482	-0.950075	0.631656	0.669103	-0.796987	-1.29539	0.771069	-0.205609	-1.20895	-1.202	-1.62338	-0.508739	-1.63768	-2.16166	-3.10303	-0.772941	-2.22922	-0.31457	-0.223147	0.3786	1.18449	-0.621834	-0.170609	0.121664	0.0711693	
2.97241	0	0	-0.659432	-1.03161	0.685643	1.78618	-0.467172	0.308215	1.2311	1.13707	-0.947099	0.629711	0.663755	-0.791278	-1.28937	0.767134	-0.199524	-1.20245	-1.20758	-1.62998	-0.510578	-1.64075	-2.16328	-3.10764	-0.775455	-2.23219	-0.323503	-0.222011	0.370978	1.18457	-0.633241	-0.170755	0.11418	0.076059	
2.97699	0	0	-0.6567	-1.03933	0.691019	1.78266	-0.470645	0.310484	1.22709	1.1289	-0.938165	0.623873	0.665024	-0.78546	-1.27807	0.761393	-0.191723	-1.19284	-1.2113	-1.63437	-0.515365	-1.63549	-2.16578	-3.1098	-0.779028	-2.23215	-0.325803	-0.227553	0.369422	1.17825	-0.639669	-0.174145	0.11804	0.0651483	
2.97699	0	0	-0.653968	-1.04705	0.696395	1.77915	-0.474117	0.312754	1.22307	1.12074	-0.929231	0.618035	0.666293	-0.779642	-1.26677	0.755653	-0.183922	-1.18324	-1.21501	-1.63877	-0.520153	-1.63022	-2.16827	-3.11195	-0.782601	-2.23212	-0.328104	-0.233096	0.367866	1.17193	-0.646097	-0.177536	0.121901	0.0542375	
2.97699	0	0	-0.651235	-1.05477	0.701772	1.77564	-0.47759	0.315023	1.21905	1.11257	-0.920296	0.612198	0.667562	-0.773823	-1.25547	0.749912	-0.176121	-1.17364	-1.21873	-1.64316	-0.52494	-1.62496	-2.17076	-3.1141	-0.786173	-2.23209	-0.330404	-0.238638	0.366311	1.1656	-0.652525	-0.180926	0.125761	0.0433267	
2.97546	0	0	-0.648503	-1.06249	0.707148	1.77212	-0.481063	0.317292	1.21503	1.1044	-0.911362	0.60636	0.668831	-0.768005	-1.24417	0.744172	-0.16832	-1.16404	-1.22245	-1.64756	-0.529727	-1.61969	-2.17325	-3.11625	-0.789746	-2.23206	-0.332705	-0.24418	0.364755	1.15928	-0.658953	-0.184316	0.129622	0.032416	
2.97394	0	0	-0.65687	-1.05901	0.696384	1.79086	-0.484534	0.31956	1.20006	1.10771	-0.900192	0.600707	0.664747	-0.756463	-1.22907	0.734309	-0.165869	-1.15512	-1.22402	-1.64312	-0.52789	-1.61662	-2.17325	-3.11625	-0.787233	-2.2291	-0.332705	-0.24418	0.364755	1.15928	-0.653994	-0.187557	0.129622	0.032416	
2.97241	0	0	-0.665238	-1.05552	0.68562	1.8096	-0.488005	0.321829	1.1851	1.11102	-0.889023	0.595054	0.660663	-0.744921	-1.21398	0.724445	-0.163417	-1.1462	-1.22559	-1.63868	-0.526054	-1.61354	-2.17325	-3.11625	-0.784721	-2.22613	-0.332705	-0.24418	0.364755	1.15928	-0.649034	-0.190798	0.129622	0.032416	
2.97699	0	0	-0.673605	-1.05203	0.674856	1.82834	-0.491477	0.324097	1.17013	1.11433	-0.877853	0.589401	0.656579	-0.733379	-1.19888	0.714582	-0.160966	-1.13729	-1.22716	-1.63425	-0.524218	-1.61047	-2.17325	-3.11625	-0.782208	-2.22317	-0.332705	-0.24418	0.364755	1.15928	-0.644074	-0.194038	0.129622	0.032416	
2.97241	0	0	-0.681972	-1.04854	0.664092	1.84708	-0.494948	0.326365	1.15516	1.11764	-0.866683	0.583748	0.652495	-0.721837	-1.18379	0.704719	-0.158515	-1.12837	-1.22873	-1.62981	-0.522381	-1.60739	-2.17325	-3.11625	-0.779696	-2.2202	-0.332705	-0.24418	0.364755	1.15928	-0.639115	-0.197279	0.129622	0.032416	
2.96936	0	0	-0.680152	-1.05368	0.665453	1.83156	-0.492233	0.326233	1.15116	1.10949	-0.863699	0.581798	0.64384	-0.716182	-1.18152	0.704882	-0.163131	-1.12325	-1.23159	-1.61428	-0.529139	-1.59656	-2.17673	-3.10642	-0.782879	-2.21121	-0.330404	-0.238638	0.371248	1.16238	-0.635304	-0.18648	0.127692	0.0378698	
2.97088	0	0	-0.678333	-1.05882	0.666813	1.81604	-0.489517	0.3261	1.14716	1.10134	-0.860715	0.579848	0.635185	-0.710526	-1.17926	0.705046	-0.167747	-1.11812	-1.23445	-1.59875	-0.535896	-1.58573	-2.18021	-3.09658	-0.786061	-2.20221	-0.328104	-0.233096	0.37774	1.16548	-0.631493	-0.175681	0.125762	0.0433235	
2.96783	0	0	-0.676513	-1.06397	0.668173	1.80053	-0.486801	0.325967	1.14316	1.09319	-0.85773	0.577898	0.626531	-0.704871	-1.17699	0.70521	-0.172364	-1.113	-1.2373	-1.58323	-0.542654	-1.57489	-2.18369	-3.08674	-0.789244	-2.19322	-0.325803	-0.227553	0.384232	1.16857	-0.627682	-0.164882	0.123833	0.0487773	
2.96936	0	0	-0.674693	-1.06911	0.669534	1.78501	-0.484086	0.325835	1.13916	1.08504	-0.854746	0.575948	0.617876	-0.699216	-1.17473	0.705373	-0.17698	-1.10788	-1.24016	-1.5677	-0.549412	-1.56406	-2.18718	-3.0769	-0.792427	-2.18422	-0.323503	-0.222011	0.390725	1.17167	-0.623871	-0.154083	0.121903	0.054231	
2.97088	0	0	-0.669967	-1.06231	0.672215	1.7891	-0.470943	0.318889	1.13468	1.08796	-0.846544	0.572235	0.61709	-0.687594	-1.16263	0.697467	-0.172594	-1.10442	-1.23988	-1.56104	-0.550397	-1.56127	-2.18892	-3.07198	-0.787792	-2.18725	-0.321341	-0.228121	0.385788	1.17489	-0.622996	-0.156554	0.133245	0.0384368	
2.97088	0	0	-0.665241	-1.05551	0.674897	1.7932	-0.457799	0.311943	1.13021	1.09089	-0.838342	0.568522	0.616304	-0.675973	-1.15053	0.689561	-0.168207	-1.10097	-1.2396	-1.55439	-0.551382	-1.55849	-2.19066	-3.06705	-0.783157	-2.19028	-0.319179	-0.234232	0.380852	1.17812	-0.622122	-0.159026	0.144587	0.0226425	
2.97088	0	0	-0.660514	-1.04871	0.677578	1.7973	-0.444655	0.304997	1.12573	1.09381	-0.830141	0.564808	0.615518	-0.664351	-1.13843	0.681655	-0.16382	-1.09752	-1.23932	-1.54773	-0.552368	-1.55571	-2.1924	-3.06213	-0.778522	-2.19331	-0.317016	-0.240343	0.375915	1.18135	-0.621247	-0.161498	0.155929	0.00684825	
2.96936	0	0	-0.655788	-1.04191	0.680259	1.80139	-0.431512	0.298051	1.12125	1.09674	-0.821939	0.561095	0.614732	-0.65273	-1.12633	0.673749	-0.159434	-1.09406	-1.23904	-1.54107	-0.553353	-1.55292	-2.19414	-3.05721	-0.773887	-2.19633	-0.314854	-0.246453	0.370978	1.18457	-0.620373	-0.163969	0.167271	-0.008946	
2.96783	0	0	-0.645329	-1.02097	0.686939	1.82928	-0.414106	0.286678	1.12676	1.11038	-0.798002	0.545454	0.623862	-0.640885	-1.10283	0.660042	-0.157959	-1.08236	-1.23054	-1.52778	-0.55448	-1.54147	-2.18916	-3.05289	-0.773498	-2.18736	-0.307001	-0.244537	0.383543	1.18126	-0.61071	-0.158875	0.163413	0.00195825	
2.96478	0	0	-0.634869	-1.00004	0.69362	1.85717	-0.3967	0.275304	1.13226	1.12402	-0.774065	0.529813	0.632991	-0.629041	-1.07934	0.646335	-0.156483	-1.07067	-1.22205	-1.51448	-0.555606	-1.53002	-2.18418	-3.04856	-0.77311	-2.17838	-0.299148	-0.242621	0.396107	1.17795	-0.601048	-0.15378	0.159554	0.0128625	
2.96783	0	0	-0.62441	-0.979114	0.7003	1.88506	-0.379294	0.26393	1.13776	1.13766	-0.750128	0.514172	0.642121	-0.617197	-1.05585	0.632628	-0.155008	-1.05897	-1.21355	-1.50119	-0.556732	-1.51858	-2.1792	-3.04424	-0.772721	-2.1694	-0.291294	-0.240704	0.408671	1.17463	-0.591386	-0.148685	0.155696	0.0237667	
2.96936	0	0	-0.613951	-0.958184	0.70698	1.91295	-0.361888	0.252557	1.14326	1.1513	-0.726191	0.498531	0.651251	-0.605352	-1.03235	0.618921	-0.153533	-1.04728	-1.20506	-1.48789	-0.557859	-1.50713	-2.17422	-3.03992	-0.772332	-2.16043	-0.283441	-0.238788	0.421236	1.17132	-0.581723	-0.143591	0.151838	0.034671	
2.96783	0	0	-0.606387	-0.949202	0.720453	1.91003	-0.348694	0.245578	1.14675	1.15118	-0.717197	0.492654	0.650225	-0.602452	-1.02324	0.612968	-0.15427	-1.05313	-1.20925	-1.46109	-0.560821	-1.49876	-2.17523	-3.02789	-0.774076	-2.14542	-0.280996	-0.221556	0.424787	1.19354	-0.579949	-0.116147	0.159094	0.046727	
2.96478	0	0	-0.598823	-0.94022	0.733926	1.9071	-0.3355	0.2386	1.15024	1.15105	-0.708203	0.486777	0.649199	-0.599552	-1.01413	0.607014	-0.155008	-1.05898	-1.21345	-1.43429	-0.563783	-1.49038	-2.17623	-3.01585	-0.775819	-2.13041	-0.278551	-0.204323	0.428337	1.21576	-0.578175	-0.0887025	0.166349	0.058783	
2.96478	0	0	-0.591258	-0.931238	0.747398	1.90418	-0.322305	0.231622	1.15373	1.15093	-0.69921	0.480901	0.648172	-0.596652	-1.00502	0.60106	-0.155745	-1.06483	-1.21765	-1.40749	-0.566745	-1.48201	-2.17723	-3.00382	-0.777563	-2.1154	-0.276106	-0.187091	0.431887	1.23798	-0.576401	-0.0612583	0.173605	0.070839	
2.96783	0	0	-0.583694	-0.922256	0.760871	1.90126	-0.309111	0.224643	1.15722	1.15081	-0.690216	0.475024	0.647146	-0.593752	-0.995908	0.595107	-0.156482	-1.07068	-1.22184	-1.38068	-0.569707	-1.47364	-2.17823	-2.99178	-0.779307	-2.10039	-0.273661	-0.169859	0.435438	1.26019	-0.574627	-0.033814	0.180861	0.082895	
2.96173	0	0	-0.576965	-0.900718	0.76759	1.91749	-0.291641	0.213228	1.15673	1.16192	-0.675964	0.467357	0.647375	-0.584977	-0.9807	0.58517	-0.158425	-1.06519	-1.216	-1.36726	-0.571683	-1.46806	-2.17836	-2.9822	-0.777861	-2.09439	-0.266877	-0.164857	0.443085	1.26012	-0.568173	-0.0303832	0.184492	0.0889365	
2.96936	0	0	-0.570235	-0.87918	0.774308	1.93372	-0.274171	0.201813	1.15625	1.17303	-0.661711	0.459691	0.647604	-0.576201	-0.965493	0.575233	-0.160367	-1.0597	-1.21017	-1.35384	-0.573659	-1.46247	-2.17849	-2.97262	-0.776415	-2.08839	-0.260093	-0.159856	0.450732	1.26004	-0.561719	-0.0269525	0.188122	0.094978	
2.96478	0	0	-0.563505	-0.857643	0.781027	1.94996	-0.256701	0.190397	1.15576	1.18415	-0.647459	0.452024	0.647834	-0.567425	-0.950286	0.565296	-0.16231	-1.05421	-1.20433	-1.34041	-0.575636	-1.45689	-2.17863	-2.96303	-0.77497	-2.08238	-0.25331	-0.154855	0.458378	1.25996	-0.555265	-0.0235218	0.191753	0.101019	
2.96326	0	0	-0.556776	-0.836105	0.787746	1.96619	-0.239231	0.178982	1.15528	1.19526	-0.633206	0.444357	0.648063	-0.55865	-0.935078	0.555359	-0.164253	-1.04872	-1.19849	-1.32699	-0.577612	-1.4513	-2.17876	-2.95345	-0.773524	-2.07638	-0.246526	-0.149853	0.466025	1.25988	-0.548811	-0.020091	0.195384	0.107061	
2.96478	0	0	-0.555785	-0.828753	0.779622	1.9774	-0.239231	0.178982	1.15179	1.19538	-0.626437	0.438287	0.644979	-0.549933	-0.92594	0.549389	-0.168638	-1.05218	-1.1892	-1.31578	-0.578601	-1.44851	-2.17378	-2.94909	-0.767431	-2.07341	-0.240822	-0.141769	0.470281	1.26941	-0.544113	-0.0116733	0.21041	0.0972425	
2.96326	0	0	-0.554794	-0.821401	0.771498	1.98861	-0.239231	0.178982	1.1483	1.1955	-0.619668	0.432218	0.641895	-0.541216	-0.916803	0.543418	-0.173023	-1.05565	-1.17991	-1.30457	-0.579589	-1.44571	-2.1688	-2.94474	-0.761338	-2.07044	-0.235117	-0.133685	0.474537	1.27894	-0.539415	-0.0032555	0.225437	0.087424	
2.96173	0	0	-0.553803	-0.814049	0.763374	1.99982	-0.239231	0.178982	1.14481	1.19562	-0.612898	0.426148	0.63881	-0.532499	-0.907666	0.537447	-0.177408	-1.05912	-1.17062	-1.29336	-0.580577	-1.44292	-2.16381	-2.94039	-0.755246	-2.06747	-0.229413	-0.125601	0.478792	1.28847	-0.534716	0.00516225	0.240463	0.0776055	
2.96173	0	0	-0.552812	-0.806697	0.75525	2.01104	-0.239231	0.178982	1.14132	1.19574	-0.606129	0.420079	0.635726	-0.523782	-0.898528	0.531477	-0.181793	-1.06258	-1.16133	-1.28215	-0.581566	-1.44013	-2.15883	-2.93604	-0.749153	-2.0645	-0.223709	-0.117517	0.483048	1.298	-0.530018	0.01358	0.255489	0.067787	
2.9602	0	0	-0.551823	-0.799334	0.752531	2.01872	-0.235733	0.176696	1.13434	1.19598	-0.606129	0.420079	0.633445	-0.52676	-0.898528	0.531477	-0.187879	-1.06914	-1.15867	-1.28216	-0.579589	-1.44571	-2.15796	-2.93851	-0.751667	-2.06749	-0.222621	-0.120592	0.481486	1.29163	-0.527373	0.0061055	0.24991	0.0672245	
2.96173	0	0	-0.550833	-0.791972	0.749811	2.02641	-0.232235	0.17441	1.12737	1.19622	-0.606129	0.420079	0.631165	-0.529739	-0.898528	0.531477	-0.193966	-1.0757	-1.15601	-1.28216	-0.577613	-1.4513	-2.15708	-2.94099	-0.754181	-2.07048	-0.221533	-0.123666	0.479925	1.28526	-0.524729	-0.001369	0.24433	0.066662	
2.9602	0	0	-0.549844	-0.784609	0.747092	2.03409	-0.228736	0.172125	1.12039	1.19645	-0.606129	0.420079	0.628884	-0.532717	-0.898528	0.531477	-0.200052	-1.08227	-1.15336	-1.28217	-0.575636	-1.45689	-2.1562	-2.94346	-0.756695	-2.07348	-0.220445	-0.126741	0.478363	1.27889	-0.522085	-0.0088435	0.238751	0.0660995	
2.9602	0	0	-0.548855	-0.777246	0.744373	2.04178	-0.225238	0.169839	1.11342	1.19669	-0.606129	0.420079	0.626603	-0.535695	-0.898528	0.531477	-0.206138	-1.08883	-1.1507	-1.28217	-0.573659	-1.46247	-2.15533	-2.94594	-0.759209	-2.07647	-0.219357	-0.129816	0.476802	1.27253	-0.51944	-0.016318	0.233171	0.065537	
2.96173	0	0	-0.545957	-0.765101	0.748381	2.05395	-0.221739	0.167552	1.11243	1.1995	-0.61214	0.424007	0.629686	-0.544407	-0.89548	0.529485	-0.210515	-1.09228	-1.14432	-1.27768	-0.576475	-1.46278	-2.15284	-2.94376	-0.756695	-2.07348	-0.211467	-0.127877	0.484463	1.27245	-0.511206	-0.017868	0.231234	0.071011	
2.95715	0	0	-0.54306	-0.752955	0.752389	2.06613	-0.218239	0.165266	1.11143	1.20231	-0.618152	0.427936	0.632768	-0.553118	-0.892432	0.527494	-0.214892	-1.09574	-1.13794	-1.2732	-0.579291	-1.46309	-2.15034	-2.94158	-0.754181	-2.07048	-0.203577	-0.125939	0.492124	1.27236	-0.502972	-0.019418	0.229297	0.076485	
2.95868	0	0	-0.540162	-0.74081	0.756397	2.0783	-0.214739	0.162979	1.11044	1.20512	-0.624164	0.431864	0.63585	-0.561829	-0.889384	0.525502	-0.219268	-1.09919	-1.13155	-1.26871	-0.582107	-1.46339	-2.14785	-2.93941	-0.751667	-2.06749	-0.195688	-0.124	0.499784	1.27228	-0.494737	-0.020968	0.227361	0.081959	
2.95715	0	0	-0.537265	-0.728665	0.760405	2.09048	-0.21124	0.160692	1.10944	1.20793	-0.630175	0.435792	0.638933	-0.570541	-0.886336	0.52351	-0.223645	-1.10265	-1.12517	-1.26422	-0.584923	-1.4637	-2.14536	-2.93723	-0.749153	-2.0645	-0.187798	-0.122062	0.507445	1.2722	-0.486503	-0.022518	0.225424	0.087433	
2.95563	0	0	-0.540098	-0.730828	0.765853	2.07508	-0.214739	0.162979	1.10993	1.19682	-0.645185	0.4456	0.631859	-0.588196	-0.900808	0.531322	-0.230455	-1.11501	-1.12651	-1.27547	-0.587591	-1.47268	-2.15034	-2.94158	-0.75418	-2.07048	-0.191067	-0.112825	0.497941	1.28827	-0.500029	-0.006013	0.227123	0.0989633	
2.95715	0	0	-0.542932	-0.73299	0.771301	2.05968	-0.218239	0.165266	1.11042	1.18571	-0.660196	0.455408	0.624785	-0.60585	-0.91528	0.539135	-0.237265	-1.12737	-1.12784	-1.28671	-0.590259	-1.48166	-2.15533	-2.94593	-0.759207	-2.07647	-0.194335	-0.103588	0.488437	1.30435	-0.513555	0.010492	0.228821	0.110493	
2.95715	0	0	-0.545765	-0.735153	0.77675	2.04428	-0.221739	0.167552	1.11091	1.1746	-0.675206	0.465216	0.617712	-0.623505	-0.929753	0.546947	-0.244075	-1.13974	-1.12918	-1.29796	-0.592927	-1.49064	-2.16031	-2.95029	-0.764233	-2.08245	-0.197603	-0.094351	0.478933	1.32042	-0.52708	0.026997	0.23052	0.122024	
2.95715	0	0	-0.548598	-0.737316	0.782198	2.02889	-0.225238	0.169839	1.1114	1.16349	-0.690216	0.475024	0.610638	-0.64116	-0.944225	0.554759	-0.250885	-1.1521	-1.13051	-1.30921	-0.595595	-1.49962	-2.1653	-2.95464	-0.76926	-2.08843	-0.200872	-0.085114	0.469429	1.33649	-0.540606	0.043502	0.232218	0.133554	
2.95563	0	0	-0.55137	-0.729483	0.784889	2.03304	-0.225238	0.169839	1.10692	1.16641	-0.696213	0.478942	0.612685	-0.646944	-0.947267	0.556747	-0.248217	-1.15174	-1.12972	-1.31146	-0.595595	-1.49962	-2.16106	-2.95741	-0.765681	-2.08846	-0.201962	-0.082033	0.470986	1.34288	-0.536492	0.0427317	0.230276	0.139041	
2.9541	0	0	-0.554141	-0.72165	0.787579	2.0372	-0.225238	0.169839	1.10245	1.16934	-0.70221	0.482861	0.614731	-0.652728	-0.95031	0.558735	-0.245548	-1.15139	-1.12892	-1.31371	-0.595595	-1.49962	-2.15681	-2.96018	-0.762102	-2.08848	-0.203052	-0.078952	0.472544	1.34926	-0.532377	0.0419615	0.228335	0.144529	
2.95563	0	0	-0.556912	-0.713818	0.79027	2.04136	-0.225238	0.169839	1.09797	1.17226	-0.708207	0.48678	0.616777	-0.658512	-0.953353	0.560723	-0.24288	-1.15103	-1.12812	-1.31596	-0.595595	-1.49962	-2.15257	-2.96296	-0.758523	-2.0885	-0.204143	-0.075871	0.474101	1.35565	-0.528263	0.0411912	0.226394	0.150016	
2.95257	0	0	-0.559684	-0.705985	0.792961	2.04552	-0.225238	0.169839	1.0935	1.17519	-0.714204	0.490698	0.618824	-0.664296	-0.956395	0.562711	-0.240211	-1.15068	-1.12733	-1.31821	-0.595595	-1.49962	-2.14833	-2.96573	-0.754944	-2.08852	-0.205233	-0.07279	0.475658	1.36204	-0.524149	0.040421	0.224452	0.155503	
2.9541	0	0	-0.558821	-0.718587	0.798425	2.01831	-0.235729	0.176694	1.09596	1.1585	-0.732169	0.502437	0.611984	-0.67315	-0.974628	0.574625	-0.241914	-1.15376	-1.13237	-1.31145	-0.599542	-1.48846	-2.15008	-2.96078	-0.759211	-2.07646	-0.206199	-0.0579287	0.47877	1.37484	-0.514442	0.0455982	0.231726	0.16765	
2.95868	0	0	-0.557959	-0.731189	0.803889	1.99111	-0.246219	0.183548	1.09843	1.14181	-0.750134	0.514176	0.605144	-0.682003	-0.992861	0.586538	-0.243617	-1.15685	-1.13742	-1.30469	-0.60349	-1.4773	-2.15183	-2.95583	-0.763478	-2.0644	-0.207166	-0.0430675	0.481881	1.38764	-0.504736	0.0507755	0.239001	0.179797	
2.95563	0	0	-0.557096	-0.74379	0.809353	1.9639	-0.256709	0.190402	1.1009	1.12512	-0.7681	0.525915	0.598303	-0.690856	-1.01109	0.598452	-0.245319	-1.15993	-1.14247	-1.29793	-0.607437	-1.46615	-2.15358	-2.95088	-0.767746	-2.05234	-0.208132	-0.0282062	0.484992	1.40044	-0.495029	0.0559527	0.246275	0.191945	
