4.05578	0	0	0.136054	0.166506	0.891501	1.04143	0.491557	-0.309707	1.74966	0.709957	-0.030627	0.020999	0.665702	0.075812	0.385457	-0.24891	0.145498	0.261082	0.794219	-0.493998	0.368661	0.403855	1.28611	-0.805348	0.361473	0.484649	0.602735	0.231105	0.550217	0.268639	0.603586	0.106395	0.699651	0.322296	
4.05578	0	0	0.133272	0.164353	0.896762	1.038	0.488121	-0.307461	1.76113	0.709243	-0.037939	0.0290658	0.676647	0.0729365	0.380967	-0.242691	0.143103	0.253395	0.793463	-0.491861	0.37042	0.398885	1.2897	-0.807691	0.364565	0.484567	0.60256	0.220021	0.558754	0.255464	0.60719	0.096209	0.705088	0.306929	
4.05121	0	0	0.130489	0.1622	0.902022	1.03456	0.484684	-0.305216	1.7726	0.708529	-0.045251	0.0371325	0.687593	0.070061	0.376476	-0.236472	0.140709	0.245708	0.792706	-0.489723	0.372178	0.393915	1.29329	-0.810034	0.367657	0.484485	0.602384	0.208937	0.567292	0.242289	0.610794	0.086023	0.710526	0.291563	
4.04816	0	0	0.127707	0.160048	0.907283	1.03112	0.481247	-0.302971	1.78407	0.707815	-0.052563	0.0451993	0.698538	0.0671855	0.371986	-0.230253	0.138314	0.238021	0.79195	-0.487586	0.373937	0.388946	1.29687	-0.812378	0.370749	0.484403	0.602209	0.197853	0.575829	0.229115	0.614399	0.075837	0.715963	0.276196	
4.0451	0	0	0.124924	0.157895	0.912544	1.02768	0.477811	-0.300725	1.79554	0.707101	-0.059875	0.053266	0.709483	0.06431	0.367496	-0.224034	0.135919	0.230334	0.791194	-0.485449	0.375695	0.383976	1.30046	-0.814721	0.373841	0.484321	0.602034	0.186769	0.584366	0.21594	0.618003	0.065651	0.7214	0.260829	
4.0451	0	0	0.120276	0.151015	0.902026	1.03456	0.470942	-0.296237	1.80632	0.697794	-0.0627725	0.0551592	0.720819	0.0697477	0.367496	-0.224034	0.132673	0.225062	0.797372	-0.489486	0.377376	0.386698	1.31123	-0.821757	0.380446	0.491648	0.611666	0.182714	0.592511	0.225819	0.627543	0.0711673	0.724823	0.266466	
4.03747	0	0	0.115627	0.144134	0.891507	1.04143	0.464073	-0.291748	1.8171	0.688488	-0.06567	0.0570525	0.732155	0.0751855	0.367496	-0.224034	0.129428	0.21979	0.803551	-0.493523	0.379057	0.389421	1.32199	-0.828792	0.387052	0.498976	0.621298	0.178658	0.600656	0.235698	0.637082	0.0766835	0.728246	0.272103	
4.039	0	0	0.110979	0.137254	0.880988	1.0483	0.457204	-0.28726	1.82788	0.679181	-0.0685675	0.0589457	0.743492	0.0806233	0.367496	-0.224034	0.126183	0.214518	0.809729	-0.49756	0.380738	0.392143	1.33276	-0.835828	0.393657	0.506304	0.63093	0.174602	0.608801	0.245577	0.646622	0.0821998	0.731669	0.27774	
4.03595	0	0	0.106331	0.130374	0.87047	1.05518	0.450335	-0.282771	1.83867	0.669875	-0.071465	0.060839	0.754828	0.086061	0.367496	-0.224034	0.122937	0.209246	0.815907	-0.501597	0.382419	0.394865	1.34353	-0.842863	0.400263	0.513631	0.640562	0.170547	0.616946	0.255456	0.656162	0.087716	0.735092	0.283377	
4.0329	0	0	0.101728	0.133381	0.873047	1.05932	0.446147	-0.278393	1.84914	0.672084	-0.0685675	0.0589457	0.764827	0.085959	0.36674	-0.221897	0.123787	0.206844	0.815907	-0.501597	0.3841	0.397589	1.34277	-0.840712	0.401572	0.518605	0.637645	0.190385	0.628202	0.278605	0.663478	0.11043	0.743759	0.289541	
4.02984	0	0	0.0971255	0.136389	0.875625	1.06345	0.441959	-0.274015	1.8596	0.674292	-0.06567	0.0570525	0.774826	0.085857	0.365984	-0.219759	0.124637	0.204441	0.815907	-0.501597	0.385781	0.400313	1.342	-0.838561	0.402881	0.523578	0.634728	0.210224	0.639458	0.301753	0.670794	0.133144	0.752427	0.295705	
4.02527	0	0	0.0925228	0.139397	0.878202	1.06759	0.437771	-0.269637	1.87007	0.676501	-0.0627725	0.0551592	0.784825	0.085755	0.365227	-0.217622	0.125487	0.202039	0.815907	-0.501597	0.387462	0.403038	1.34124	-0.836411	0.40419	0.528552	0.63181	0.230062	0.650713	0.324902	0.678111	0.155858	0.761095	0.301869	
4.02527	0	0	0.08792	0.142404	0.88078	1.07173	0.433583	-0.265259	1.88054	0.67871	-0.059875	0.053266	0.794824	0.085653	0.364471	-0.215485	0.126337	0.199637	0.815907	-0.501597	0.389143	0.405762	1.34048	-0.83426	0.405499	0.533526	0.628893	0.2499	0.661969	0.34805	0.685427	0.178572	0.769762	0.308033	
4.02374	0	0	0.0944292	0.154026	0.896373	1.08489	0.443129	-0.269854	1.91592	0.68508	-0.0497893	0.0499665	0.825303	0.0936775	0.371895	-0.217049	0.13616	0.208008	0.818998	-0.503617	0.394189	0.413946	1.35126	-0.841305	0.409012	0.540957	0.635441	0.254606	0.671314	0.354694	0.696375	0.191125	0.776623	0.319351	
4.01916	0	0	0.100939	0.165647	0.911965	1.09804	0.452674	-0.27445	1.95131	0.691451	-0.0397035	0.046667	0.855783	0.101702	0.37932	-0.218612	0.145983	0.216378	0.822089	-0.505637	0.399236	0.422131	1.36204	-0.848349	0.412524	0.548388	0.641988	0.259311	0.680659	0.361337	0.707322	0.203678	0.783485	0.330669	
4.01916	0	0	0.107448	0.177268	0.927558	1.1112	0.46222	-0.279046	1.98669	0.697822	-0.0296177	0.0433675	0.886262	0.109727	0.386744	-0.220176	0.155805	0.224748	0.82518	-0.507656	0.404282	0.430315	1.37282	-0.855394	0.416037	0.555819	0.648535	0.264016	0.690003	0.367981	0.71827	0.216232	0.790347	0.341987	
4.01459	0	0	0.113957	0.18889	0.94315	1.12435	0.471766	-0.283641	2.02208	0.704192	-0.019532	0.040068	0.916742	0.117751	0.394169	-0.22174	0.165628	0.233119	0.828271	-0.509676	0.409328	0.438499	1.3836	-0.862438	0.41955	0.56325	0.655083	0.268722	0.699348	0.374625	0.729217	0.228785	0.797208	0.353305	
4.00085	0	0	0.117721	0.208319	0.957205	1.16504	0.481324	-0.288244	2.06052	0.713259	-0.00134525	0.0265387	0.944018	0.12582	0.409842	-0.233625	0.180434	0.241975	0.836794	-0.513602	0.422001	0.45516	1.3944	-0.869491	0.423064	0.570694	0.674598	0.27172	0.709084	0.391273	0.753914	0.246279	0.816432	0.360547	
3.99017	0	0	0.121484	0.227747	0.97126	1.20572	0.490882	-0.292847	2.09896	0.722325	0.0168415	0.0130095	0.971295	0.133889	0.425515	-0.24551	0.195241	0.250831	0.845317	-0.517527	0.434674	0.471822	1.40519	-0.876545	0.426577	0.578138	0.694113	0.274718	0.718819	0.407921	0.77861	0.263773	0.835657	0.367788	
4.00238	0	0	0.125248	0.247175	0.985315	1.24641	0.500439	-0.29745	2.13741	0.731391	0.0350283	-0.00051975	0.998572	0.141959	0.441188	-0.257395	0.210047	0.259688	0.853839	-0.521452	0.447347	0.488483	1.41599	-0.883598	0.430091	0.585583	0.713628	0.277717	0.728555	0.424569	0.803307	0.281268	0.854881	0.37503	
4.00543	0	0	0.129012	0.266604	0.99937	1.28709	0.509997	-0.302053	2.17585	0.740458	0.053215	-0.014049	1.02585	0.150028	0.456861	-0.26928	0.224854	0.268544	0.862362	-0.525378	0.46002	0.505144	1.42678	-0.890651	0.433605	0.593027	0.733143	0.280715	0.738291	0.441217	0.828003	0.298762	0.874105	0.382272	
4.01001	0	0	1.36595	0.772206	1.03473	1.31422	0.510753	-0.304189	2.19923	0.738903	0.0648545	-0.0216545	1.0306	0.155576	0.457618	-0.271418	0.234721	0.276958	0.870066	-0.533699	0.470143	0.521634	1.43911	-0.902014	0.438018	0.597945	0.753945	0.291945	0.755879	0.457953	0.860181	0.317515	0.893188	0.405593	
4.02069	0	0	2.60288	1.27781	1.07009	1.34135	0.511509	-0.306326	2.22261	0.737348	0.076494	-0.02926	1.03535	0.161124	0.458374	-0.273556	0.244588	0.285371	0.877771	-0.542019	0.480266	0.538123	1.45144	-0.913377	0.442431	0.602863	0.774748	0.303175	0.773467	0.474688	0.892359	0.336269	0.912271	0.428914	
4.00543	0	0	3.83982	1.78341	1.10545	1.36848	0.512265	-0.308462	2.246	0.735792	0.0881335	-0.0368655	1.0401	0.166671	0.45913	-0.275693	0.254456	0.293785	0.885475	-0.55034	0.490388	0.554613	1.46377	-0.924739	0.446845	0.607782	0.795551	0.314405	0.791054	0.491424	0.924536	0.355022	0.931354	0.452235	
4.01611	0	0	5.07675	2.28901	1.14081	1.39561	0.513021	-0.310598	2.26938	0.734237	0.099773	-0.044471	1.04486	0.172219	0.459887	-0.277831	0.264323	0.302198	0.893179	-0.558661	0.500511	0.571103	1.4761	-0.936102	0.451258	0.6127	0.816353	0.325635	0.808642	0.50816	0.956714	0.373775	0.950437	0.475556	
4.01764	0	0	6.79893	2.93831	1.16827	1.43425	0.516461	-0.312846	2.29677	0.732383	0.112185	-0.0542267	1.04723	0.174996	0.462873	-0.279782	0.28341	0.306484	0.893935	-0.560798	0.514209	0.577599	1.48407	-0.942965	0.457956	0.602471	0.831656	0.329213	0.819235	0.511532	0.988605	0.382922	0.967958	0.488071	
4.02527	0	0	8.5211	3.5876	1.19574	1.47288	0.519902	-0.315094	2.32416	0.730528	0.124598	-0.0639825	1.04961	0.177773	0.465859	-0.281734	0.302497	0.310769	0.894691	-0.562935	0.527907	0.584094	1.49205	-0.949828	0.464655	0.592242	0.846959	0.332792	0.829828	0.514903	1.0205	0.39207	0.98548	0.500587	
4.02984	0	0	10.2433	4.2369	1.22321	1.51151	0.523343	-0.317342	2.35155	0.728673	0.137011	-0.0737383	1.05199	0.18055	0.468846	-0.283685	0.321584	0.315055	0.895448	-0.565071	0.541605	0.590589	1.50002	-0.95669	0.471353	0.582012	0.862263	0.33637	0.840421	0.518275	1.05239	0.401217	1.003	0.513103	
4.02832	0	0	11.9654	4.8862	1.25068	1.55015	0.526783	-0.31959	2.37895	0.726819	0.149423	-0.083494	1.05436	0.183327	0.471832	-0.285637	0.340671	0.31934	0.896204	-0.567208	0.555303	0.597085	1.50799	-0.963553	0.478052	0.571783	0.877566	0.339948	0.851014	0.521647	1.08428	0.410364	1.02052	0.525618	
4.02527	0	0	13.7433	5.43306	1.28228	1.58956	0.537869	-0.328476	2.40223	0.736896	0.169101	-0.0947067	1.0605	0.194493	0.480797	-0.291495	0.358102	0.328487	0.893107	-0.565185	0.571625	0.603838	1.51445	-0.96612	0.478949	0.569247	0.891867	0.346478	0.859252	0.531733	1.10705	0.42359	1.0381	0.53818	
4.02679	0	0	15.5211	5.97992	1.31389	1.62898	0.548955	-0.337362	2.42551	0.746973	0.188779	-0.105919	1.06664	0.20566	0.489763	-0.297353	0.375534	0.337633	0.890011	-0.563162	0.587946	0.610592	1.52091	-0.968687	0.479846	0.566711	0.906167	0.353009	0.867491	0.54182	1.12982	0.436816	1.05568	0.550743	
4.02832	0	0	17.2989	6.52678	1.34549	1.6684	0.560042	-0.346248	2.44878	0.75705	0.208456	-0.117132	1.07278	0.216827	0.498728	-0.303212	0.392966	0.34678	0.886915	-0.561138	0.604268	0.617345	1.52737	-0.971255	0.480744	0.564175	0.920467	0.35954	0.87573	0.551906	1.1526	0.450041	1.07326	0.563305	
4.02527	5	0	19.0767	7.07364	1.3771	1.70782	0.571128	-0.355134	2.47206	0.767127	0.228134	-0.128345	1.07892	0.227993	0.507694	-0.30907	0.410397	0.355926	0.883818	-0.559115	0.62059	0.624099	1.53383	-0.973822	0.481641	0.561639	0.934768	0.36607	0.883968	0.561992	1.17537	0.463267	1.09084	0.575867	
4.02374	5	0	20.6335	7.63068	1.38064	1.74483	0.573819	-0.35525	2.46857	0.787859	0.239833	-0.135989	1.08344	0.253319	0.516669	-0.314934	0.418625	0.369273	0.886158	-0.559002	0.633382	0.640979	1.54105	-0.978543	0.485167	0.569089	0.945962	0.381497	0.895339	0.585606	1.20293	0.485611	1.10128	0.593178	
4.01916	5	0	22.1903	8.18771	1.38419	1.78184	0.576509	-0.355366	2.46508	0.80859	0.251532	-0.143633	1.08795	0.278644	0.525643	-0.320798	0.426852	0.38262	0.888498	-0.558888	0.646174	0.657858	1.54828	-0.983264	0.488694	0.576539	0.957156	0.396925	0.906709	0.60922	1.23049	0.507956	1.11172	0.610488	
4.01764	5	0	23.7471	8.74475	1.38774	1.81885	0.579199	-0.355482	2.46159	0.829322	0.263231	-0.151278	1.09247	0.30397	0.534618	-0.326663	0.43508	0.395967	0.890839	-0.558774	0.658967	0.674737	1.5555	-0.987985	0.49222	0.583988	0.968351	0.412353	0.918079	0.632833	1.25804	0.5303	1.12216	0.627799	
4.01153	5	0	25.3039	9.30179	1.39128	1.85586	0.58189	-0.355598	2.4581	0.850054	0.27493	-0.158922	1.09698	0.329296	0.543593	-0.332527	0.443308	0.409314	0.893179	-0.558661	0.671759	0.691617	1.56273	-0.992706	0.495746	0.591438	0.979545	0.42778	0.92945	0.656447	1.2856	0.552644	1.1326	0.64511	
3.99322	5	0	26.7628	9.98592	1.39741	1.89752	0.588786	-0.360104	2.46961	0.86103	0.285888	-0.164437	1.10074	0.337746	0.542837	-0.330389	0.460036	0.413399	0.8808	-0.550572	0.676865	0.69996	1.55474	-0.985835	0.490425	0.589061	0.974298	0.442607	0.921086	0.680086	1.27441	0.584285	1.13051	0.666652	
4.01306	5	0	28.2218	10.6701	1.40353	1.93918	0.595683	-0.364611	2.48113	0.872006	0.296845	-0.169951	1.1045	0.346197	0.54208	-0.328252	0.476764	0.417484	0.868421	-0.542484	0.681971	0.708303	1.54676	-0.978964	0.485104	0.586684	0.969052	0.457434	0.912721	0.703726	1.26321	0.615926	1.12842	0.688195	
4.01764	5	0	29.6808	11.3542	1.40965	1.98084	0.60258	-0.369117	2.49264	0.882983	0.307803	-0.175465	1.10826	0.354648	0.541324	-0.326114	0.493492	0.421569	0.856042	-0.534395	0.687078	0.716647	1.53877	-0.972093	0.479782	0.584307	0.963806	0.472262	0.904357	0.727365	1.25202	0.647566	1.12633	0.709737	
4.02527	5	0	31.1398	12.0383	1.41577	2.0225	0.609476	-0.373623	2.50415	0.893959	0.318761	-0.18098	1.11202	0.363098	0.540568	-0.323976	0.51022	0.425654	0.843663	-0.526306	0.692184	0.72499	1.53079	-0.965222	0.474461	0.58193	0.958559	0.487089	0.895992	0.751004	1.24082	0.679207	1.12423	0.731279	
3.99628	5	0	32.4756	12.7167	1.43012	2.05295	0.619831	-0.380389	2.49669	0.915068	0.333427	-0.190563	1.10562	0.371648	0.543562	-0.325932	0.522818	0.426823	0.830546	-0.516092	0.700885	0.723202	1.5228	-0.958354	0.473148	0.576939	0.952088	0.493599	0.894796	0.754386	1.23288	0.690492	1.12237	0.736537	
4.01764	5	0	33.8115	13.3951	1.44447	2.08339	0.630186	-0.387156	2.48922	0.936177	0.348094	-0.200147	1.09922	0.380198	0.546555	-0.327888	0.535416	0.427993	0.817429	-0.505877	0.709585	0.721415	1.51483	-0.951487	0.471836	0.571948	0.945617	0.50011	0.893599	0.757769	1.22493	0.701777	1.12051	0.741795	
4.01001	5	0	35.1473	14.0735	1.45882	2.11383	0.640542	-0.393923	2.48175	0.957286	0.36276	-0.20973	1.09282	0.388748	0.549548	-0.329844	0.548013	0.429163	0.804311	-0.495663	0.718286	0.719628	1.50684	-0.944619	0.470523	0.566956	0.939147	0.506621	0.892402	0.761151	1.21699	0.713062	1.11865	0.747052	
4.01611	5	0	36.4832	14.7519	1.47317	2.14427	0.650897	-0.400689	2.47428	0.978395	0.377426	-0.219313	1.08642	0.397298	0.552542	-0.3318	0.560611	0.430332	0.791194	-0.485449	0.726987	0.71784	1.49886	-0.937751	0.46921	0.561965	0.932676	0.513131	0.891206	0.764533	1.20905	0.724347	1.11679	0.75231	
4.00543	5	0	37.7523	15.4427	1.45519	2.1714	0.640542	-0.393923	2.45925	0.988213	0.378183	-0.221453	1.08843	0.391617	0.546556	-0.327888	0.558089	0.430098	0.778851	-0.477384	0.720975	0.712028	1.48805	-0.930683	0.460792	0.559674	0.923945	0.514272	0.888461	0.761127	1.21092	0.719061	1.11332	0.746499	
4.00543	5	0	39.0215	16.1334	1.43721	2.19853	0.630186	-0.387156	2.44423	0.998031	0.378941	-0.223594	1.09044	0.385935	0.540569	-0.323977	0.555567	0.429865	0.766507	-0.469318	0.714964	0.706217	1.47723	-0.923615	0.452375	0.557384	0.915215	0.515413	0.885716	0.757721	1.21279	0.713775	1.10984	0.740687	
4.00543	5	0	40.2906	16.8242	1.41922	2.22566	0.619831	-0.380389	2.4292	1.00785	0.379698	-0.225735	1.09245	0.380254	0.534583	-0.320066	0.553046	0.429631	0.754163	-0.461253	0.708952	0.700405	1.46641	-0.916547	0.443957	0.555093	0.906485	0.516554	0.882971	0.754315	1.21466	0.708489	1.10637	0.734876	
4.01764	5	0	41.5597	17.5149	1.40124	2.25278	0.609476	-0.373623	2.41417	1.01767	0.380455	-0.227875	1.09446	0.374573	0.528597	-0.316154	0.550524	0.429398	0.74182	-0.453188	0.70294	0.694593	1.4556	-0.909479	0.435539	0.552802	0.897754	0.517695	0.880226	0.750909	1.21653	0.703203	1.10289	0.729064	
4.02069	5	0	42.8707	18.0272	1.40407	2.24478	0.60258	-0.369117	2.40058	1.01264	0.370895	-0.219983	1.08557	0.352056	0.507678	-0.302485	0.541461	0.41091	0.714113	-0.435083	0.69621	0.67567	1.434	-0.89537	0.420529	0.543171	0.890085	0.515867	0.87474	0.744107	1.2142	0.698635	1.09038	0.733203	
4.02069	5	0	44.1816	18.5395	1.4069	2.23677	0.595683	-0.364611	2.38699	1.0076	0.361335	-0.212091	1.07669	0.32954	0.486758	-0.288816	0.532398	0.392422	0.686405	-0.416978	0.68948	0.656748	1.41241	-0.88126	0.40552	0.53354	0.882416	0.514038	0.869255	0.737304	1.21187	0.694068	1.07787	0.737342	
4.03442	5	0	45.4925	19.0518	1.40974	2.22877	0.588786	-0.360104	2.3734	1.00257	0.351775	-0.204198	1.06781	0.307024	0.465838	-0.275146	0.523335	0.373934	0.658698	-0.398873	0.682751	0.637825	1.39082	-0.867151	0.39051	0.523909	0.874747	0.512209	0.863769	0.730502	1.20954	0.6895	1.06535	0.74148	
4.04663	5	0	46.8034	19.5641	1.41257	2.22076	0.58189	-0.355598	2.35981	0.997541	0.342215	-0.196306	1.05892	0.284507	0.444919	-0.261477	0.514272	0.355446	0.63099	-0.380768	0.676021	0.618902	1.36922	-0.853041	0.3755	0.514278	0.867078	0.510381	0.858283	0.723699	1.2072	0.684932	1.05284	0.745619	
4.06189	5	0	48.106	20.0582	1.41278	2.20833	0.575754	-0.353231	2.36334	0.976731	0.324636	-0.18482	1.05303	0.25366	0.418098	-0.243951	0.501914	0.33173	0.601821	-0.364994	0.665887	0.594553	1.34562	-0.840926	0.369849	0.486982	0.85491	0.497854	0.841856	0.703366	1.19044	0.665511	1.04962	0.723548	
4.07715	5	0	49.4085	20.5524	1.41299	2.1959	0.569619	-0.350864	2.36686	0.95592	0.307058	-0.173334	1.04714	0.222813	0.391276	-0.226426	0.489556	0.308015	0.572651	-0.34922	0.655753	0.570205	1.32202	-0.828811	0.364199	0.459686	0.842742	0.485327	0.825429	0.683033	1.17368	0.646089	1.0464	0.701477	
4.09393	5	0	50.711	21.0466	1.4132	2.18347	0.563484	-0.348497	2.37039	0.93511	0.28948	-0.161847	1.04124	0.191966	0.364455	-0.2089	0.477199	0.284299	0.543481	-0.333446	0.645619	0.545856	1.29842	-0.816695	0.358548	0.43239	0.830574	0.4728	0.809002	0.6627	1.15691	0.626667	1.04318	0.679406	
4.10156	5	0	52.0135	21.5407	1.41341	2.17104	0.557348	-0.34613	2.37392	0.9143	0.271901	-0.150361	1.03535	0.161119	0.337633	-0.191374	0.464841	0.260584	0.514312	-0.317672	0.635485	0.521507	1.27482	-0.80458	0.352898	0.405094	0.818406	0.460273	0.792575	0.642367	1.14015	0.607246	1.03996	0.657335	
4.10309	5	0	53.1902	21.9	1.41079	2.16661	0.553149	-0.341744	2.37031	0.902806	0.255116	-0.141039	1.03121	0.144386	0.320555	-0.181858	0.455859	0.234809	0.492144	-0.301544	0.627056	0.50003	1.2605	-0.795221	0.341913	0.392976	0.810601	0.447221	0.793039	0.618855	1.13921	0.587683	1.03303	0.645791	
4.11224	5	0	54.3668	22.2592	1.40817	2.16218	0.54895	-0.337359	2.36671	0.891312	0.238331	-0.131717	1.02706	0.127653	0.303477	-0.172343	0.446877	0.209034	0.469976	-0.285417	0.618626	0.478552	1.24617	-0.785861	0.330927	0.380857	0.802796	0.43417	0.793503	0.595344	1.13827	0.56812	1.0261	0.634248	
4.1214	5	0	55.5435	22.6184	1.40555	2.15776	0.544751	-0.332973	2.36311	0.879817	0.221545	-0.122394	1.02292	0.11092	0.286399	-0.162828	0.437895	0.183259	0.447808	-0.269289	0.610197	0.457075	1.23185	-0.776502	0.319942	0.368738	0.794991	0.421119	0.793967	0.571832	1.13734	0.548557	1.01918	0.622704	
4.12598	5	0	56.7201	22.9776	1.40293	2.15333	0.540552	-0.328587	2.35951	0.868323	0.20476	-0.113072	1.01878	0.094187	0.269321	-0.153312	0.428913	0.157484	0.42564	-0.253161	0.601768	0.435597	1.21753	-0.767143	0.308957	0.35662	0.787186	0.408067	0.794431	0.54832	1.1364	0.528994	1.01225	0.611161	
4.13818	5	0	57.8641	23.1871	1.3989	2.1529	0.532913	-0.321954	2.35379	0.862845	0.190168	-0.103538	1.02037	0.080217	0.256695	-0.143419	0.415729	0.136449	0.406573	-0.239059	0.589811	0.4242	1.19889	-0.753316	0.302376	0.349368	0.787017	0.396858	0.786594	0.548294	1.13407	0.524473	1.00349	0.60486	
4.14123	5	0	59.0081	23.3965	1.39487	2.15246	0.525275	-0.31532	2.34807	0.857368	0.175577	-0.094003	1.02196	0.066247	0.24407	-0.133525	0.402544	0.115415	0.387506	-0.224957	0.577854	0.412803	1.18026	-0.739489	0.295794	0.342116	0.786847	0.385648	0.778758	0.548268	1.13174	0.519953	0.994723	0.598558	
4.15192	5	0	60.152	23.606	1.39084	2.15203	0.517636	-0.308687	2.34235	0.85189	0.160986	-0.0844685	1.02355	0.052277	0.231444	-0.123632	0.389359	0.0943797	0.368439	-0.210855	0.565897	0.401405	1.16163	-0.725662	0.289213	0.334864	0.786678	0.374439	0.770922	0.548241	1.12942	0.515432	0.985959	0.592257	
4.15954	5	0	61.296	23.8154	1.38681	2.15159	0.509997	-0.302053	2.33663	0.846412	0.146394	-0.074934	1.02514	0.038307	0.218819	-0.113738	0.376175	0.073345	0.349372	-0.196753	0.55394	0.390008	1.143	-0.711835	0.282632	0.327612	0.786508	0.363229	0.763085	0.548215	1.12709	0.510911	0.977196	0.585956	
4.17023	5	0	62.3538	24.0267	1.37635	2.13394	0.492814	-0.290825	2.34118	0.822751	0.123099	-0.0597128	1.01762	0.0217255	0.189975	-0.096534	0.358087	0.0446032	0.321979	-0.178854	0.538624	0.373211	1.12161	-0.697855	0.276942	0.317877	0.774551	0.361999	0.756442	0.544843	1.12199	0.514246	0.968446	0.579667	
4.17786	5	0	63.4117	24.2379	1.3659	2.11629	0.475631	-0.279597	2.34572	0.79909	0.0998045	-0.0444915	1.0101	0.005144	0.16113	-0.07933	0.34	0.0158615	0.294586	-0.160955	0.523308	0.356415	1.10021	-0.683874	0.271253	0.308142	0.762595	0.360769	0.749799	0.541471	1.11688	0.517582	0.959697	0.573377	
4.18243	5	0	64.4695	24.4491	1.35544	2.09863	0.458449	-0.26837	2.35027	0.775429	0.0765098	-0.0292702	1.00258	-0.0114375	0.132286	-0.062126	0.321912	-0.0128802	0.267193	-0.143056	0.507991	0.339618	1.07881	-0.669894	0.265563	0.298407	0.750638	0.359538	0.743155	0.538099	1.11178	0.520917	0.950947	0.567087	
4.18396	5	0	65.5273	24.6603	1.34498	2.08098	0.441266	-0.257142	2.35481	0.751768	0.053215	-0.014049	0.995057	-0.028019	0.103441	-0.044922	0.303824	-0.041622	0.2398	-0.125157	0.492675	0.322821	1.05742	-0.655914	0.259873	0.288672	0.738681	0.358308	0.736512	0.534727	1.10667	0.524252	0.942198	0.560798	
4.18701	5	0	66.5029	24.7744	1.34536	2.05633	0.426789	-0.246039	2.36144	0.722234	0.027084	0.0030255	0.989103	-0.0583827	0.076887	-0.027571	0.286625	-0.072533	0.207195	-0.105495	0.476649	0.293281	1.02897	-0.637328	0.24808	0.261905	0.725544	0.348842	0.71935	0.527978	1.09092	0.524491	0.931852	0.543608	
4.19006	5	0	67.4785	24.8884	1.34575	2.03167	0.412311	-0.234937	2.36807	0.6927	0.000953	0.0201	0.98315	-0.0887465	0.050333	-0.01022	0.269425	-0.103444	0.174589	-0.085833	0.460623	0.263742	1.00053	-0.618742	0.236287	0.235138	0.712407	0.339376	0.702187	0.52123	1.07516	0.524731	0.921507	0.526417	
4.18548	5	0	68.454	25.0025	1.34614	2.00702	0.397833	-0.223834	2.37469	0.663167	-0.025178	0.0371745	0.977197	-0.11911	0.023779	0.007131	0.252225	-0.134355	0.141984	-0.066171	0.444597	0.234202	0.972085	-0.600155	0.224493	0.208372	0.69927	0.32991	0.685025	0.514481	1.0594	0.524971	0.911161	0.509227	
4.19464	5	0	69.4296	25.1165	1.34652	1.98237	0.383356	-0.212732	2.38132	0.633633	-0.051309	0.054249	0.971243	-0.149474	-0.002775	0.024482	0.235026	-0.165266	0.109378	-0.046509	0.428571	0.204662	0.943641	-0.581569	0.2127	0.181605	0.686133	0.320444	0.667863	0.507732	1.04364	0.52521	0.900816	0.492036	
4.19464	5	0	70.1373	25.3832	1.33746	1.96094	0.370413	-0.205917	2.37511	0.608024	-0.0802505	0.07316	0.965266	-0.179653	-0.032183	0.0436978	0.211292	-0.19891	0.0701173	-0.020855	0.41176	0.170203	0.915291	-0.563044	0.200916	0.155004	0.678195	0.2964	0.648858	0.484364	1.03023	0.507895	0.887045	0.46923	
4.19464	5	0	70.845	25.6498	1.3284	1.93951	0.357469	-0.199103	2.3689	0.582415	-0.109192	0.092071	0.959289	-0.209832	-0.061591	0.0629135	0.187559	-0.232554	0.0308565	0.004799	0.394949	0.135744	0.88694	-0.54452	0.189132	0.128404	0.670258	0.272357	0.629852	0.460996	1.01682	0.490579	0.873274	0.446424	
4.20074	5	0	71.5527	25.9165	1.31934	1.91809	0.344526	-0.192288	2.36268	0.556807	-0.138133	0.110982	0.953313	-0.24001	-0.090999	0.0821293	0.163826	-0.266199	-0.00840425	0.030453	0.378139	0.101284	0.858589	-0.525995	0.177349	0.101804	0.662321	0.248313	0.610847	0.437629	1.00341	0.473264	0.859502	0.423618	
4.19769	5	0	72.2603	26.1832	1.31028	1.89666	0.331583	-0.185473	2.35647	0.531198	-0.167075	0.129893	0.947336	-0.270189	-0.120407	0.101345	0.140092	-0.299843	-0.047665	0.056107	0.361328	0.066825	0.830239	-0.50747	0.165565	0.075203	0.654383	0.224269	0.591842	0.414261	0.989995	0.455949	0.845731	0.400812	
4.19311	5	0	72.8624	26.3227	1.30261	1.87141	0.315245	-0.17644	2.35025	0.505725	-0.202433	0.154643	0.940363	-0.297434	-0.156321	0.126455	0.117276	-0.335538	-0.0957407	0.0875205	0.339458	0.032221	0.794932	-0.4844	0.150743	0.048867	0.641115	0.203832	0.584144	0.381155	0.97753	0.436119	0.835619	0.36787	
4.19464	5	0	73.4645	26.4623	1.29495	1.84616	0.298907	-0.167407	2.34402	0.480253	-0.237792	0.179392	0.93339	-0.324678	-0.192234	0.151565	0.0944605	-0.371233	-0.143817	0.118934	0.317589	-0.002383	0.759625	-0.46133	0.13592	0.022531	0.627848	0.183395	0.576446	0.348048	0.965066	0.416289	0.825506	0.334928	
4.19159	5	0	74.0665	26.6018	1.28728	1.82091	0.28257	-0.158373	2.3378	0.454781	-0.27315	0.204142	0.926417	-0.351922	-0.228148	0.176676	0.0716447	-0.406928	-0.191892	0.150347	0.295719	-0.036987	0.724319	-0.43826	0.121098	-0.003805	0.61458	0.162957	0.568748	0.314942	0.952601	0.396459	0.815393	0.301987	
4.19311	5	0	74.6686	26.7414	1.27961	1.79566	0.266232	-0.14934	2.33157	0.429308	-0.308509	0.228891	0.919444	-0.379167	-0.264061	0.201786	0.048829	-0.442623	-0.239968	0.181761	0.27385	-0.071591	0.689012	-0.41519	0.106276	-0.030141	0.601312	0.14252	0.56105	0.281836	0.940137	0.376629	0.805281	0.269045	
4.18854	5	0	75.144	26.9089	1.26273	1.76155	0.243114	-0.135876	2.33156	0.386367	-0.345079	0.251142	0.912027	-0.414391	-0.30414	0.226331	0.018785	-0.485726	-0.284795	0.211052	0.255438	-0.108108	0.65736	-0.394508	0.0914818	-0.0563073	0.596645	0.121037	0.543658	0.265368	0.934134	0.360639	0.798593	0.241939	
4.18243	5	0	75.6194	27.0763	1.24585	1.72744	0.219996	-0.122412	2.33155	0.343426	-0.38165	0.273392	0.90461	-0.449615	-0.344218	0.250875	-0.011259	-0.528829	-0.329622	0.240343	0.237026	-0.144625	0.625708	-0.373826	0.0766875	-0.0824735	0.591977	0.0995545	0.526265	0.2489	0.92813	0.344649	0.791905	0.214832	
4.1748	5	0	76.0948	27.2438	1.22897	1.69333	0.196877	-0.108948	2.33154	0.300485	-0.41822	0.295642	0.897193	-0.48484	-0.384297	0.27542	-0.041303	-0.571932	-0.37445	0.269634	0.218613	-0.181142	0.594056	-0.353143	0.0618932	-0.10864	0.587309	0.0780717	0.508872	0.232433	0.922127	0.32866	0.785216	0.187726	
4.1687	5	0	76.5702	27.4112	1.21209	1.65922	0.173759	-0.095484	2.33154	0.257544	-0.454791	0.317893	0.889776	-0.520064	-0.424376	0.299965	-0.071347	-0.615035	-0.419277	0.298925	0.200201	-0.217659	0.562404	-0.332461	0.047099	-0.134806	0.582642	0.056589	0.49148	0.215965	0.916124	0.31267	0.778528	0.16062	
4.16717	5	0	77.0723	27.3524	1.20181	1.63004	0.155235	-0.080096	2.32732	0.226579	-0.491957	0.342178	0.881887	-0.563105	-0.462121	0.324628	-0.095582	-0.659597	-0.472762	0.333873	0.170012	-0.242444	0.520382	-0.305003	0.0245575	-0.155724	0.571832	0.05253	0.482224	0.209399	0.917039	0.310084	0.761197	0.148431	
4.15802	5	0	77.5743	27.2937	1.19154	1.60085	0.136711	-0.064708	2.32311	0.195615	-0.529123	0.366463	0.873997	-0.606146	-0.499866	0.349291	-0.119817	-0.70416	-0.526247	0.368822	0.139824	-0.267229	0.47836	-0.277545	0.002016	-0.176642	0.561022	0.048471	0.472968	0.202832	0.917954	0.307498	0.743866	0.136243	
4.15039	5	0	78.0764	27.2349	1.18126	1.57166	0.118188	-0.04932	2.3189	0.164651	-0.566289	0.390748	0.866108	-0.649186	-0.537611	0.373955	-0.144052	-0.748722	-0.579732	0.403771	0.109635	-0.292014	0.436338	-0.250087	-0.0205255	-0.197559	0.550212	0.044412	0.463712	0.196266	0.918869	0.304912	0.726536	0.124054	
4.14429	5	0	78.5785	27.1761	1.17099	1.54248	0.099664	-0.033932	2.31469	0.133686	-0.603455	0.415033	0.858219	-0.692227	-0.575356	0.398618	-0.168287	-0.793284	-0.633217	0.438719	0.079447	-0.316799	0.394316	-0.222629	-0.043067	-0.218477	0.539402	0.040353	0.454456	0.1897	0.919784	0.302326	0.709205	0.111865	
4.14123	5	0	78.9689	27.2371	1.17113	1.53046	0.0962655	-0.0317115	2.31309	0.116818	-0.625489	0.427786	0.857833	-0.719067	-0.600634	0.413492	-0.17956	-0.824718	-0.677535	0.467677	0.0644632	-0.340203	0.362934	-0.202124	-0.0564755	-0.239591	0.529635	0.0334122	0.447531	0.176604	0.916563	0.300456	0.690134	0.104793	
4.13513	5	0	79.3594	27.2981	1.17127	1.51845	0.092867	-0.029491	2.31149	0.099951	-0.647523	0.440538	0.857447	-0.745907	-0.625912	0.428366	-0.190833	-0.856152	-0.721852	0.496635	0.0494795	-0.363607	0.331553	-0.181618	-0.069884	-0.260705	0.519867	0.0264715	0.440606	0.163509	0.913342	0.298586	0.671064	0.0977215	
4.13208	5	0	79.7498	27.3591	1.17141	1.50643	0.0894685	-0.0272705	2.30988	0.0830835	-0.669558	0.453291	0.85706	-0.772747	-0.65119	0.44324	-0.202106	-0.887586	-0.766169	0.525593	0.0344958	-0.387012	0.300171	-0.161112	-0.0832925	-0.28182	0.5101	0.0195307	0.433681	0.150413	0.910122	0.296717	0.651994	0.0906498	
4.12292	5	0	80.1403	27.4201	1.17154	1.49442	0.08607	-0.02505	2.30828	0.066216	-0.691592	0.466044	0.856674	-0.799587	-0.676468	0.458114	-0.213379	-0.91902	-0.810487	0.554551	0.019512	-0.410416	0.268789	-0.140607	-0.096701	-0.302934	0.500332	0.01259	0.426756	0.137317	0.906901	0.294847	0.632923	0.083578	
4.12292	5	0	80.5421	27.5268	1.16345	1.50566	0.093624	-0.0316282	2.30233	0.07234	-0.69368	0.465763	0.861411	-0.794357	-0.677844	0.455728	-0.217412	-0.921659	-0.830334	0.565877	0.0103273	-0.413607	0.255639	-0.133667	-0.101461	-0.314713	0.499311	0.015476	0.422907	0.137319	0.907376	0.304477	0.625922	0.0881525	
4.1214	5	0	80.9438	27.6335	1.15537	1.51691	0.101178	-0.0382065	2.29638	0.078464	-0.695767	0.465483	0.866148	-0.789127	-0.679219	0.453342	-0.221444	-0.924298	-0.850181	0.577203	0.0011425	-0.416798	0.242489	-0.126728	-0.106221	-0.326491	0.498289	0.018362	0.419058	0.13732	0.907851	0.314107	0.618922	0.092727	
4.11529	5	0	81.3456	27.7401	1.14728	1.52815	0.108732	-0.0447847	2.29043	0.084588	-0.697855	0.465202	0.870884	-0.783898	-0.680595	0.450956	-0.225476	-0.926937	-0.870029	0.588528	-0.00804225	-0.419988	0.229339	-0.119789	-0.110982	-0.33827	0.497268	0.021248	0.415209	0.137321	0.908326	0.323736	0.611921	0.0973015	
4.11377	5	0	81.7474	27.8468	1.13919	1.5394	0.116286	-0.051363	2.28448	0.090712	-0.699943	0.464921	0.875621	-0.778668	-0.681971	0.44857	-0.229509	-0.929576	-0.889876	0.599854	-0.017227	-0.423179	0.216189	-0.112849	-0.115742	-0.350049	0.496247	0.024134	0.41136	0.137323	0.908801	0.333366	0.60492	0.101876	
4.10919	5	0	82.0961	27.8504	1.15097	1.5526	0.129899	-0.0602575	2.2988	0.103767	-0.682861	0.453759	0.897949	-0.757764	-0.67406	0.445044	-0.224683	-0.915134	-0.895754	0.603695	-0.0155995	-0.41321	0.210003	-0.11046	-0.117454	-0.345211	0.504989	0.0339727	0.418279	0.150416	0.931389	0.346516	0.601327	0.11203	
4.10614	5	0	82.4449	27.854	1.16276	1.5658	0.143511	-0.069152	2.31311	0.116823	-0.665779	0.442597	0.920276	-0.736861	-0.66615	0.441517	-0.219856	-0.900692	-0.901631	0.607535	-0.013972	-0.403242	0.203817	-0.10807	-0.119166	-0.340373	0.513732	0.0438115	0.425199	0.16351	0.953978	0.359666	0.597734	0.122184	
4.10461	5	0	82.7936	27.8575	1.17454	1.579	0.157123	-0.0780465	2.32742	0.129879	-0.648696	0.431436	0.942603	-0.715957	-0.65824	0.437991	-0.215029	-0.88625	-0.907509	0.611375	-0.0123445	-0.393273	0.19763	-0.10568	-0.120877	-0.335536	0.522474	0.0536502	0.432118	0.176603	0.976567	0.372816	0.594141	0.132338	
4.10004	5	0	83.1424	27.8611	1.18633	1.5922	0.170736	-0.086941	2.34174	0.142934	-0.631614	0.420274	0.964931	-0.695053	-0.650329	0.434464	-0.210203	-0.871808	-0.913387	0.615216	-0.010717	-0.383304	0.191444	-0.103291	-0.122589	-0.330698	0.531216	0.063489	0.439037	0.189696	0.999155	0.385966	0.590548	0.142492	
4.10156	5	0	83.2266	27.9648	1.18082	1.60777	0.187026	-0.095943	2.35425	0.150487	-0.606684	0.405629	0.991675	-0.676851	-0.63876	0.426905	-0.196481	-0.854296	-0.916324	0.617135	-0.0141865	-0.358919	0.187212	-0.098873	-0.131598	-0.313642	0.536892	0.0820575	0.433598	0.215964	1.00472	0.414363	0.588549	0.163354	
4.09546	5	0	83.3109	28.0685	1.17531	1.62334	0.203317	-0.104945	2.36676	0.15804	-0.581753	0.390983	1.01842	-0.658648	-0.627192	0.419346	-0.18276	-0.836784	-0.919261	0.619055	-0.017656	-0.334534	0.18298	-0.094455	-0.140606	-0.296585	0.542568	0.100626	0.428158	0.242231	1.01029	0.442761	0.58655	0.184216	
4.09393	5	0	83.3951	28.1722	1.1698	1.63891	0.219607	-0.113947	2.37927	0.165593	-0.556822	0.376337	1.04516	-0.640446	-0.615623	0.411786	-0.169038	-0.819272	-0.922199	0.620974	-0.0211255	-0.310149	0.178749	-0.090037	-0.149615	-0.279528	0.548244	0.119194	0.422719	0.268498	1.01586	0.471158	0.58455	0.205077	
4.09546	5	0	83.4793	28.276	1.16429	1.65448	0.235897	-0.122949	2.39179	0.173146	-0.531892	0.361692	1.07191	-0.622244	-0.604054	0.404227	-0.155316	-0.80176	-0.925136	0.622893	-0.024595	-0.285764	0.174517	-0.085619	-0.158624	-0.262472	0.55392	0.137763	0.41728	0.294766	1.02143	0.499556	0.582551	0.225939	
4.09088	5	0	83.7281	28.276	1.16275	1.67049	0.252977	-0.134109	2.3973	0.189821	-0.498279	0.341374	1.08912	-0.59551	-0.584527	0.39311	-0.139961	-0.774552	-0.917077	0.61927	-0.0180087	-0.267878	0.1807	-0.0880063	-0.158188	-0.2553	0.549809	0.14938	0.421134	0.294776	1.03115	0.505257	0.58595	0.231555	
4.09088	5	0	83.9768	28.2759	1.1612	1.68649	0.270057	-0.14527	2.40281	0.206495	-0.464666	0.321055	1.10632	-0.568775	-0.565	0.381993	-0.124605	-0.747343	-0.909018	0.615647	-0.0114225	-0.249992	0.186884	-0.0903935	-0.157752	-0.248128	0.545698	0.160997	0.424987	0.294786	1.04087	0.510958	0.589349	0.237172	
4.0863	5	0	84.2255	28.2759	1.15966	1.70249	0.287137	-0.156431	2.40832	0.22317	-0.431054	0.300737	1.12353	-0.542041	-0.545473	0.370877	-0.109249	-0.720135	-0.900959	0.612024	-0.00483625	-0.232106	0.193067	-0.0927807	-0.157317	-0.240956	0.541588	0.172614	0.428841	0.294797	1.05059	0.516659	0.592749	0.242788	
4.0863	5	0	84.4742	28.2759	1.15812	1.71849	0.304217	-0.167591	2.41384	0.239845	-0.397441	0.280419	1.14074	-0.515306	-0.525946	0.35976	-0.093894	-0.692927	-0.8929	0.608401	0.00175	-0.21422	0.19925	-0.095168	-0.156881	-0.233784	0.537477	0.184231	0.432695	0.294807	1.06031	0.52236	0.596148	0.248405	
4.0863	5	0	84.5641	28.3836	1.16453	1.73535	0.324002	-0.178876	2.42431	0.253339	-0.357167	0.254103	1.1628	-0.483016	-0.500553	0.344811	-0.0711678	-0.664966	-0.875243	0.596863	0.014172	-0.190778	0.213155	-0.104254	-0.152143	-0.221942	0.541937	0.194735	0.430366	0.301388	1.06217	0.539267	0.590729	0.263719	
4.08172	5	0	84.654	28.4914	1.17094	1.75221	0.343786	-0.190161	2.43478	0.266832	-0.316894	0.227788	1.18487	-0.450726	-0.475161	0.329863	-0.0484415	-0.637004	-0.857587	0.585326	0.026594	-0.167337	0.22706	-0.11334	-0.147405	-0.2101	0.546397	0.20524	0.428038	0.307969	1.06402	0.556173	0.585311	0.279033	
4.08172	5	0	84.7438	28.5991	1.17736	1.76906	0.363571	-0.201447	2.44525	0.280326	-0.27662	0.201472	1.20693	-0.418436	-0.449769	0.314914	-0.0257153	-0.609043	-0.83993	0.573788	0.039016	-0.143896	0.240965	-0.122426	-0.142667	-0.198259	0.550857	0.215744	0.42571	0.31455	1.06587	0.573079	0.579892	0.294347	
4.07715	5	0	84.8337	28.7069	1.18377	1.78592	0.383356	-0.212732	2.45573	0.293819	-0.236347	0.175157	1.22899	-0.386146	-0.424376	0.299965	-0.002989	-0.581082	-0.822273	0.562251	0.051438	-0.120454	0.25487	-0.131512	-0.137929	-0.186417	0.555317	0.226248	0.423381	0.321131	1.06773	0.589986	0.574473	0.309661	
4.07867	5	0	84.9644	28.7062	1.17424	1.80119	0.397833	-0.223834	2.45652	0.302356	-0.199538	0.152751	1.24773	-0.353507	-0.398903	0.284964	0.0083385	-0.549005	-0.798674	0.546831	0.062157	-0.0920143	0.272283	-0.14289	-0.132761	-0.167326	0.557713	0.242615	0.425261	0.337641	1.07514	0.613425	0.583075	0.315833	
4.07867	5	0	85.0951	28.7055	1.16471	1.81645	0.412311	-0.234937	2.45732	0.310893	-0.162728	0.130344	1.26647	-0.320869	-0.373431	0.269964	0.019666	-0.516927	-0.775074	0.531411	0.072876	-0.0635745	0.289696	-0.154268	-0.127593	-0.148235	0.560108	0.258981	0.427141	0.35415	1.08254	0.636864	0.591678	0.322006	
4.0741	5	0	85.2259	28.7049	1.15518	1.83172	0.426789	-0.246039	2.45811	0.319431	-0.125918	0.107937	1.2852	-0.288231	-0.347959	0.254963	0.0309935	-0.484849	-0.751475	0.51599	0.083595	-0.0351348	0.307109	-0.165646	-0.122425	-0.129144	0.562504	0.275348	0.429021	0.370659	1.08995	0.660304	0.60028	0.328179	
4.0741	5	0	85.3566	28.7042	1.14565	1.84699	0.441266	-0.257142	2.45891	0.327968	-0.089109	0.085531	1.30394	-0.255592	-0.322486	0.239962	0.042321	-0.452772	-0.727875	0.50057	0.094314	-0.006695	0.324522	-0.177024	-0.117257	-0.110053	0.5649	0.291715	0.430901	0.387169	1.09736	0.683743	0.608882	0.334351	
4.07562	5	0	85.2972	28.8722	1.14824	1.85133	0.451572	-0.263876	2.45578	0.336815	-0.049225	0.0611157	1.32526	-0.23944	-0.296934	0.224909	0.0553462	-0.432428	-0.710889	0.491114	0.105161	0.00682125	0.337717	-0.183993	-0.117694	-0.100384	0.562833	0.297556	0.418521	0.400335	1.09501	0.701489	0.59304	0.348638	
4.07562	5	0	85.2378	29.0402	1.15083	1.85567	0.461877	-0.27061	2.45265	0.345661	-0.009341	0.0367005	1.34659	-0.223287	-0.271381	0.209857	0.0683715	-0.412083	-0.693903	0.481658	0.116007	0.0203375	0.350912	-0.190961	-0.118132	-0.090715	0.560766	0.303397	0.406141	0.4135	1.09266	0.719236	0.577198	0.362925	
4.07562	5	0	85.1783	29.2081	1.15343	1.86001	0.472182	-0.277344	2.44952	0.354508	0.030543	0.0122852	1.36791	-0.207135	-0.245829	0.194804	0.0813968	-0.391738	-0.676917	0.472203	0.126854	0.0338538	0.364107	-0.197929	-0.118569	-0.081046	0.5587	0.309237	0.39376	0.426666	1.09031	0.736982	0.561357	0.377212	
4.0802	5	0	85.1189	29.3761	1.15602	1.86434	0.482488	-0.284078	2.44639	0.363355	0.070427	-0.01213	1.38923	-0.190983	-0.220276	0.179751	0.094422	-0.371394	-0.659931	0.462747	0.137701	0.04737	0.377302	-0.204898	-0.119006	-0.071377	0.556633	0.315078	0.38138	0.439832	1.08796	0.754729	0.545515	0.391499	
4.08783	5	0	85.0786	29.4899	1.15722	1.87262	0.496248	-0.293069	2.45215	0.368669	0.0988173	-0.0290347	1.40279	-0.171789	-0.196822	0.164426	0.104207	-0.356067	-0.636218	0.447252	0.144302	0.0656045	0.39052	-0.211881	-0.117294	-0.0593375	0.556633	0.315078	0.377531	0.439808	1.08423	0.765292	0.547326	0.38638	
4.09088	5	0	85.0384	29.6036	1.15842	1.88089	0.510008	-0.30206	2.45791	0.373984	0.127208	-0.0459395	1.41635	-0.152595	-0.173368	0.1491	0.113992	-0.340739	-0.612504	0.431757	0.150903	0.083839	0.403737	-0.218863	-0.115582	-0.047298	0.556633	0.315078	0.373682	0.439785	1.08049	0.775854	0.549138	0.381261	
4.09546	5	0	84.9981	29.7174	1.15963	1.88917	0.523768	-0.311051	2.46367	0.379298	0.155598	-0.0628443	1.42991	-0.1334	-0.149913	0.133774	0.123778	-0.325412	-0.58879	0.416262	0.157504	0.102074	0.416955	-0.225846	-0.113869	-0.0352585	0.556633	0.315078	0.369833	0.439762	1.07675	0.786416	0.550949	0.376141	
4.10461	5	0	84.9579	29.8312	1.16083	1.89744	0.537528	-0.320042	2.46943	0.384613	0.183988	-0.079749	1.44347	-0.114206	-0.126459	0.118449	0.133563	-0.310084	-0.565077	0.400767	0.164105	0.120308	0.430172	-0.232829	-0.112157	-0.023219	0.556633	0.315078	0.365984	0.439738	1.07301	0.796979	0.552761	0.371022	
4.10919	5	0	85.1311	29.718	1.15565	1.88875	0.536772	-0.317905	2.46864	0.376052	0.1986	-0.0892962	1.44534	-0.100272	-0.118404	0.11483	0.130223	-0.300646	-0.550223	0.391061	0.168239	0.130794	0.434431	-0.237266	-0.108714	-0.0160542	0.555599	0.318	0.371001	0.43646	1.08463	0.797519	0.554571	0.365905	
4.11072	5	0	85.3042	29.6049	1.15046	1.88006	0.536016	-0.315769	2.46785	0.367491	0.213211	-0.0988435	1.4472	-0.0863385	-0.110349	0.111211	0.126884	-0.291208	-0.535369	0.381354	0.172373	0.14128	0.438691	-0.241703	-0.105272	-0.0088895	0.554566	0.320922	0.376019	0.433181	1.09625	0.798058	0.556381	0.360789	
4.11529	5	0	85.4774	29.4917	1.14528	1.87137	0.53526	-0.313632	2.46705	0.358931	0.227823	-0.108391	1.44907	-0.0724048	-0.102294	0.107592	0.123545	-0.281771	-0.520514	0.371648	0.176507	0.151766	0.442951	-0.24614	-0.101829	-0.00172475	0.553532	0.323843	0.381037	0.429903	1.10786	0.798597	0.558192	0.355673	
4.11682	5	0	85.6506	29.3785	1.1401	1.86268	0.534504	-0.311495	2.46626	0.35037	0.242434	-0.117938	1.45094	-0.058471	-0.094239	0.103973	0.120205	-0.272333	-0.50566	0.361942	0.180641	0.162252	0.44721	-0.250577	-0.098386	0.00544	0.552498	0.326765	0.386054	0.426624	1.11948	0.799137	0.560002	0.350556	
4.11224	5	0	85.6098	29.4938	1.13491	1.85401	0.532574	-0.313519	2.46755	0.335932	0.246874	-0.124132	1.45835	-0.069815	-0.095664	0.101616	0.113687	-0.282578	-0.503392	0.355532	0.183308	0.147322	0.449492	-0.257027	-0.103117	-0.0065255	0.544791	0.313851	0.378826	0.403484	1.11952	0.776778	0.54984	0.333643	
4.11377	5	0	85.5691	29.609	1.12973	1.84534	0.530644	-0.315543	2.46884	0.321493	0.251315	-0.130326	1.46577	-0.081159	-0.097089	0.099259	0.107169	-0.292822	-0.501124	0.349121	0.185974	0.132392	0.451774	-0.263478	-0.107847	-0.018491	0.537084	0.300938	0.371597	0.380344	1.11956	0.75442	0.539678	0.316729	
4.11072	5	0	85.5283	29.7242	1.12455	1.83667	0.528713	-0.317566	2.47013	0.307055	0.255755	-0.136519	1.47319	-0.092503	-0.098514	0.096902	0.100651	-0.303067	-0.498855	0.342711	0.188641	0.117463	0.454057	-0.269929	-0.112578	-0.0304565	0.529376	0.288024	0.364368	0.357203	1.11959	0.732061	0.529517	0.299816	
4.10919	5	0	85.4875	29.8395	1.11937	1.828	0.526783	-0.31959	2.47142	0.292617	0.260196	-0.142713	1.4806	-0.103847	-0.099939	0.094545	0.094133	-0.313312	-0.496587	0.336301	0.191308	0.102533	0.456339	-0.276379	-0.117309	-0.042422	0.521669	0.27511	0.35714	0.334063	1.11963	0.709702	0.519355	0.282903	
4.10614	5	0	85.508	29.7817	1.11558	1.81543	0.519903	-0.315094	2.46382	0.281757	0.249258	-0.137212	1.48613	-0.129075	-0.110926	0.10008	0.0876895	-0.338018	-0.502532	0.340186	0.182103	0.0916302	0.446609	-0.271673	-0.125917	-0.0518207	0.518251	0.261676	0.348747	0.314314	1.1085	0.696734	0.512588	0.271667	
4.10461	5	0	85.5284	29.7239	1.11179	1.80287	0.513023	-0.310599	2.45621	0.270897	0.23832	-0.13171	1.49165	-0.154303	-0.121912	0.105616	0.081246	-0.362724	-0.508476	0.34407	0.172897	0.0807275	0.436879	-0.266968	-0.134525	-0.0612195	0.514833	0.248242	0.340355	0.294566	1.09737	0.683766	0.505822	0.260431	
4.10309	5	0	85.5489	29.6661	1.10799	1.79031	0.506144	-0.306103	2.44861	0.260037	0.227383	-0.126209	1.49718	-0.179531	-0.132899	0.111151	0.0748025	-0.38743	-0.514421	0.347954	0.163692	0.0698248	0.427149	-0.262262	-0.143134	-0.0706183	0.511414	0.234808	0.331963	0.274817	1.08624	0.670798	0.499055	0.249195	
4.10156	5	0	85.5693	29.6083	1.1042	1.77775	0.499264	-0.301608	2.44101	0.249177	0.216445	-0.120707	1.5027	-0.204759	-0.143885	0.116686	0.068359	-0.412136	-0.520366	0.351839	0.154486	0.058922	0.417419	-0.257556	-0.151742	-0.080017	0.507996	0.221374	0.32357	0.255068	1.0751	0.65783	0.492288	0.237959	
4.09546	5	0	85.4367	29.6069	1.09127	1.75622	0.481332	-0.288249	2.43468	0.224012	0.18652	-0.0995077	1.48666	-0.226576	-0.173173	0.135823	0.0431013	-0.433401	-0.53521	0.361538	0.144492	0.04296	0.399203	-0.244001	-0.157328	-0.089486	0.502521	0.213782	0.314387	0.248487	1.07558	0.645406	0.478561	0.231307	
4.09241	5	0	85.304	29.6056	1.07834	1.73469	0.4634	-0.27489	2.42836	0.198848	0.156594	-0.0783085	1.47062	-0.248394	-0.20246	0.154961	0.0178435	-0.454665	-0.550054	0.371238	0.134499	0.026998	0.380987	-0.230446	-0.162913	-0.098955	0.497046	0.20619	0.305204	0.241905	1.07605	0.632981	0.464834	0.224655	
4.08935	5	0	85.1713	29.6043	1.06541	1.71315	0.445469	-0.26153	2.42203	0.173683	0.126669	-0.0571093	1.45458	-0.270211	-0.231748	0.174098	-0.00741425	-0.47593	-0.564898	0.380938	0.124505	0.011036	0.362771	-0.216891	-0.168499	-0.108424	0.49157	0.198599	0.296021	0.235324	1.07652	0.620556	0.451107	0.218002	
4.0863	5	0	85.0386	29.6029	1.05247	1.69162	0.427537	-0.248171	2.41571	0.148518	0.096744	-0.03591	1.43853	-0.292029	-0.261035	0.193235	-0.032672	-0.497194	-0.579742	0.390637	0.114511	-0.004926	0.344555	-0.203336	-0.174085	-0.117893	0.486095	0.191007	0.286838	0.228743	1.07699	0.608132	0.43738	0.21135	
4.08325	5	0	85.0386	29.6029	1.04215	1.67448	0.410396	-0.236971	2.41122	0.129002	0.0611152	-0.0109835	1.42548	-0.322062	-0.297562	0.220389	-0.056993	-0.520648	-0.609353	0.409986	0.101261	-0.0335923	0.320937	-0.189556	-0.18653	-0.141517	0.476183	0.172976	0.279616	0.205863	1.06033	0.588823	0.427268	0.194591	
4.08172	5	0	85.0386	29.6029	1.03182	1.65734	0.393254	-0.22577	2.40672	0.109487	0.0254865	0.013943	1.41244	-0.352095	-0.334088	0.247544	-0.081314	-0.544102	-0.638965	0.429334	0.0880105	-0.0622585	0.297319	-0.175776	-0.198975	-0.16514	0.46627	0.154944	0.272394	0.182984	1.04367	0.569514	0.417156	0.177832	
4.07715	5	0	85.0386	29.6029	1.02149	1.6402	0.376112	-0.214569	2.40223	0.0899708	-0.0101423	0.0388695	1.39939	-0.382128	-0.370614	0.274698	-0.105635	-0.567555	-0.668577	0.448682	0.0747603	-0.0909247	0.273702	-0.161996	-0.21142	-0.188764	0.456357	0.136912	0.265172	0.160104	1.027	0.550205	0.407045	0.161073	
4.07562	5	0	85.0386	29.6029	1.01116	1.62305	0.358971	-0.203369	2.39773	0.070455	-0.045771	0.063796	1.38634	-0.412161	-0.407141	0.301853	-0.129956	-0.591009	-0.698188	0.468031	0.06151	-0.119591	0.250084	-0.148216	-0.223865	-0.212388	0.446445	0.118881	0.25795	0.137224	1.01034	0.530896	0.396933	0.144314	
4.07715	5	0	85.1916	29.5468	1.00995	1.61491	0.348702	-0.196659	2.39302	0.0623383	-0.0776118	0.0846015	1.38154	-0.436744	-0.433308	0.318951	-0.146896	-0.61374	-0.722559	0.485598	0.0490338	-0.135591	0.228483	-0.132449	-0.232866	-0.228835	0.434677	0.11768	0.249944	0.127448	1.00341	0.51737	0.3902	0.13318	
4.06952	5	0	85.3446	29.4907	1.00874	1.60676	0.338434	-0.189949	2.3883	0.0542215	-0.109453	0.105407	1.37675	-0.461328	-0.459475	0.336048	-0.163835	-0.636471	-0.74693	0.503165	0.0365575	-0.151591	0.206881	-0.116682	-0.241866	-0.245281	0.422909	0.116479	0.241939	0.117672	0.996482	0.503843	0.383466	0.122046	
4.07715	5	0	85.4976	29.4346	1.00753	1.59861	0.328165	-0.18324	2.38359	0.0461047	-0.141293	0.126213	1.37196	-0.485911	-0.485641	0.353146	-0.180775	-0.659202	-0.771302	0.520733	0.0240812	-0.167592	0.18528	-0.100915	-0.250867	-0.261728	0.41114	0.115278	0.233933	0.107896	0.989551	0.490317	0.376733	0.110912	
4.07562	5	0	85.6506	29.3785	1.00632	1.59046	0.317897	-0.17653	2.37887	0.037988	-0.173134	0.147018	1.36716	-0.510494	-0.511808	0.370244	-0.197715	-0.681933	-0.795673	0.5383	0.011605	-0.183592	0.163679	-0.085148	-0.259868	-0.278175	0.399372	0.114077	0.225927	0.09812	0.982621	0.476791	0.37	0.099778	
4.0741	5	0	85.6506	29.3785	0.997058	1.59354	0.304225	-0.167596	2.37703	0.0324815	-0.197583	0.159702	1.37013	-0.537917	-0.529835	0.377093	-0.212189	-0.704343	-0.815527	0.549631	0.0041685	-0.199103	0.143649	-0.0737125	-0.269279	-0.285017	0.395114	0.114639	0.220962	0.101364	0.973398	0.480814	0.359709	0.0987493	
4.0741	5	0	85.6506	29.3785	0.987793	1.59662	0.290552	-0.158662	2.37519	0.026975	-0.222032	0.172386	1.3731	-0.565341	-0.547863	0.383942	-0.226664	-0.726754	-0.835382	0.560962	-0.003268	-0.214615	0.12362	-0.062277	-0.278691	-0.291858	0.390856	0.1152	0.215996	0.104609	0.964175	0.484838	0.349417	0.0977205	
4.07867	5	0	85.6506	29.3785	0.978527	1.59969	0.27688	-0.149729	2.37334	0.0214685	-0.246482	0.185071	1.37607	-0.592764	-0.56589	0.390791	-0.241138	-0.749164	-0.855236	0.572293	-0.0107045	-0.230127	0.103591	-0.0508415	-0.288102	-0.2987	0.386597	0.115761	0.211031	0.107854	0.954952	0.488861	0.339126	0.0966917	
4.07562	5	0	85.6506	29.3785	0.969261	1.60277	0.263208	-0.140795	2.3715	0.015962	-0.270931	0.197755	1.37904	-0.620187	-0.583917	0.39764	-0.255612	-0.771574	-0.875091	0.583624	-0.018141	-0.245638	0.083561	-0.039406	-0.297513	-0.305541	0.382339	0.116323	0.206066	0.111098	0.945729	0.492884	0.328835	0.095663	
4.07715	5	0	85.7866	29.3783	0.965318	1.60237	0.259794	-0.138564	2.37849	0.006926	-0.296059	0.212529	1.37663	-0.641889	-0.607055	0.412759	-0.265244	-0.786443	-0.901517	0.600892	-0.0331697	-0.246903	0.062821	-0.0258542	-0.312448	-0.305046	0.380294	0.122101	0.202614	0.120853	0.94711	0.499997	0.328835	0.095663	
4.0741	5	0	85.9226	29.378	0.961374	1.60197	0.256379	-0.136333	2.38548	-0.00211	-0.321188	0.227304	1.37422	-0.663591	-0.630192	0.427877	-0.274876	-0.801313	-0.927944	0.618159	-0.0481985	-0.248169	0.042081	-0.0123025	-0.327384	-0.304551	0.37825	0.12788	0.199163	0.130607	0.948492	0.507111	0.328835	0.095663	
4.07562	5	0	86.0586	29.3777	0.95743	1.60158	0.252964	-0.134102	2.39246	-0.011146	-0.346317	0.242079	1.3718	-0.685293	-0.65333	0.442995	-0.284509	-0.816183	-0.954371	0.635427	-0.0632272	-0.249434	0.021341	0.00124925	-0.342319	-0.304057	0.376206	0.133658	0.195711	0.140362	0.949874	0.514224	0.328835	0.095663	
4.0741	5	0	86.1945	29.3775	0.953487	1.60118	0.24955	-0.131871	2.39945	-0.020182	-0.371445	0.256853	1.36939	-0.706995	-0.676468	0.458114	-0.294141	-0.831052	-0.980797	0.652695	-0.078256	-0.2507	0.000601	0.014801	-0.357254	-0.303562	0.374161	0.139436	0.192259	0.150117	0.951255	0.521338	0.328835	0.095663	
4.07104	5	0	86.1945	29.3775	0.954856	1.59731	0.252964	-0.134102	2.40336	-0.0204993	-0.383682	0.266494	1.36357	-0.709525	-0.685129	0.463773	-0.294935	-0.835814	-0.99837	0.664177	-0.084907	-0.253735	-0.0131977	0.0238175	-0.363644	-0.310488	0.371951	0.134218	0.188088	0.140348	0.946649	0.512327	0.320342	0.089598	
4.07104	5	0	86.1945	29.3775	0.956225	1.59344	0.256379	-0.136333	2.40726	-0.0208165	-0.395919	0.276135	1.35775	-0.712055	-0.693789	0.469432	-0.295729	-0.840576	-1.01594	0.67566	-0.091558	-0.256769	-0.0269965	0.032834	-0.370034	-0.317413	0.36974	0.129	0.183917	0.130579	0.942042	0.503316	0.31185	0.083533	
4.07104	5	0	86.1945	29.3775	0.957593	1.58957	0.259794	-0.138564	2.41117	-0.0211337	-0.408155	0.285775	1.35193	-0.714585	-0.702449	0.475091	-0.296524	-0.845338	-1.03351	0.687142	-0.098209	-0.259804	-0.0407952	0.0418505	-0.376423	-0.324338	0.36753	0.123782	0.179745	0.12081	0.937435	0.494306	0.303358	0.077468	
4.06799	5	0	86.1945	29.3775	0.958962	1.5857	0.263208	-0.140795	2.41507	-0.021451	-0.420392	0.295416	1.3461	-0.717115	-0.71111	0.48075	-0.297318	-0.8501	-1.05109	0.698624	-0.10486	-0.262839	-0.054594	0.050867	-0.382813	-0.331264	0.365319	0.118564	0.175574	0.111041	0.932829	0.485295	0.294865	0.071403	
4.06341	5	0	86.375	29.2595	0.961537	1.58997	0.272704	-0.145357	2.4268	-0.0224083	-0.422503	0.29515	1.35193	-0.714585	-0.710354	0.478613	-0.296524	-0.845338	-1.05618	0.70031	-0.107358	-0.263051	-0.0607248	0.0532212	-0.380262	-0.338475	0.362088	0.116237	0.170257	0.104536	0.931447	0.478196	0.291513	0.0658615	
4.06647	5	0	86.5555	29.1416	0.964112	1.59424	0.2822	-0.149919	2.43854	-0.0233655	-0.424613	0.294884	1.35775	-0.712055	-0.709597	0.476476	-0.295729	-0.840576	-1.06128	0.701997	-0.109856	-0.263262	-0.0668555	0.0555755	-0.377711	-0.345685	0.358857	0.11391	0.16494	0.0980315	0.930065	0.471097	0.288161	0.06032	
4.06494	5	0	86.736	29.0237	0.966686	1.59851	0.291696	-0.154482	2.45027	-0.0243228	-0.426723	0.294618	1.36357	-0.709525	-0.708841	0.47434	-0.294935	-0.835814	-1.06637	0.703683	-0.112354	-0.263474	-0.0729863	0.0579298	-0.375159	-0.352896	0.355625	0.111583	0.159622	0.0915268	0.928683	0.463998	0.284809	0.0547785	
4.06341	5	0	86.9165	28.9058	0.969261	1.60277	0.301192	-0.159044	2.462	-0.02528	-0.428834	0.294352	1.36939	-0.706995	-0.708085	0.472203	-0.294141	-0.831052	-1.07146	0.705369	-0.114852	-0.263686	-0.079117	0.060284	-0.372608	-0.360107	0.352394	0.109256	0.154305	0.085022	0.927301	0.456899	0.281457	0.049237	
4.06036	5	0	86.8959	28.9639	0.963948	1.60624	0.301948	-0.161181	2.45603	-0.01914	-0.425967	0.292478	1.3723	-0.696208	-0.703068	0.470568	-0.29497	-0.8217	-1.07439	0.707279	-0.11655	-0.258888	-0.0825603	0.062534	-0.377288	-0.355202	0.351373	0.112142	0.159259	0.081785	0.930525	0.458792	0.278107	0.0437032	
4.06036	5	0	86.8753	29.0221	0.958635	1.60972	0.302705	-0.163318	2.45005	-0.013	-0.423099	0.290604	1.37521	-0.685422	-0.698052	0.468932	-0.295799	-0.812348	-1.07731	0.70919	-0.118247	-0.254091	-0.0860035	0.064784	-0.381968	-0.350297	0.350352	0.115028	0.164212	0.078548	0.933749	0.460685	0.274757	0.0381695	
4.06189	5	0	86.8547	29.0803	0.953322	1.61319	0.303461	-0.165454	2.44408	-0.00686	-0.420231	0.288731	1.37812	-0.674635	-0.693036	0.467297	-0.296629	-0.802996	-1.08023	0.7111	-0.119944	-0.249294	-0.0894468	0.067034	-0.386647	-0.345391	0.349331	0.117914	0.169166	0.075311	0.936973	0.462578	0.271406	0.0326358	
4.06189	5	0	86.8341	29.1385	0.948009	1.61666	0.304217	-0.167591	2.43811	-0.00072	-0.417364	0.286857	1.38103	-0.663848	-0.688019	0.465662	-0.297458	-0.793644	-1.08316	0.71301	-0.121642	-0.244496	-0.09289	0.069284	-0.391327	-0.340486	0.34831	0.1208	0.17412	0.072074	0.940197	0.464471	0.268056	0.027102	
4.06189	5	0	86.8341	29.1385	0.948174	1.60466	0.307637	-0.169826	2.43626	-0.006221	-0.414496	0.284983	1.37568	-0.658236	-0.687263	0.463525	-0.296646	-0.795937	-1.08316	0.71301	-0.12419	-0.237295	-0.0963323	0.071533	-0.393879	-0.333273	0.352562	0.120241	0.171824	0.078562	0.939736	0.476786	0.271607	0.0170675	
4.05884	5	0	86.8341	29.1385	0.948338	1.59266	0.311057	-0.172061	2.43441	-0.011722	-0.411627	0.283108	1.37033	-0.652624	-0.686507	0.461388	-0.295835	-0.798231	-1.08316	0.71301	-0.126738	-0.230094	-0.0997745	0.073782	-0.396431	-0.32606	0.356815	0.119682	0.169528	0.08505	0.939275	0.489101	0.275157	0.007033	
4.06036	5	0	86.8341	29.1385	0.948503	1.58065	0.314477	-0.174295	2.43256	-0.017223	-0.408758	0.281234	1.36498	-0.647012	-0.68575	0.459252	-0.295023	-0.800524	-1.08316	0.71301	-0.129286	-0.222892	-0.103217	0.076031	-0.398983	-0.318848	0.361067	0.119123	0.167233	0.091538	0.938813	0.501417	0.278707	-0.0030015	
4.05884	5	0	86.8341	29.1385	0.948667	1.56865	0.317897	-0.17653	2.43071	-0.022724	-0.40589	0.27936	1.35963	-0.6414	-0.684994	0.457115	-0.294212	-0.802817	-1.08316	0.71301	-0.131834	-0.215691	-0.106659	0.07828	-0.401535	-0.311635	0.365319	0.118564	0.164937	0.098026	0.938352	0.513732	0.282258	-0.013036	
4.05884	5	0	86.8341	29.1385	0.952767	1.55707	0.328165	-0.18324	2.40177	-0.0372738	-0.396522	0.271594	1.32379	-0.634898	-0.675572	0.449316	-0.293401	-0.80511	-1.08023	0.7111	-0.13518	-0.213505	-0.1101	0.0805282	-0.404512	-0.311539	0.357838	0.116796	0.163426	0.0915327	0.938352	0.513732	0.273783	-0.0190535	
4.05273	5	0	86.8341	29.1385	0.956866	1.54548	0.338434	-0.189949	2.37284	-0.0518235	-0.387153	0.263827	1.28795	-0.628395	-0.66615	0.441517	-0.292589	-0.807402	-1.07731	0.70919	-0.138525	-0.211319	-0.11354	0.0827765	-0.407489	-0.311443	0.350357	0.115028	0.161915	0.0850395	0.938352	0.513732	0.265309	-0.025071	
4.05731	5	0	86.8341	29.1385	0.960965	1.5339	0.348702	-0.196659	2.34391	-0.0663732	-0.377785	0.256061	1.25211	-0.621892	-0.656728	0.433718	-0.291778	-0.809694	-1.07439	0.707279	-0.141871	-0.209134	-0.116981	0.0850248	-0.410466	-0.311346	0.342877	0.113259	0.160405	0.0785463	0.938352	0.513732	0.256834	-0.0310885	
4.05273	5	0	86.8341	29.1385	0.965065	1.52231	0.358971	-0.203369	2.31498	-0.080923	-0.368417	0.248295	1.21627	-0.61539	-0.647306	0.425919	-0.290967	-0.811987	-1.07146	0.705369	-0.145216	-0.206948	-0.120421	0.087273	-0.413443	-0.31125	0.335396	0.111491	0.158894	0.072053	0.938352	0.513732	0.248359	-0.037106	
4.05273	5	0	86.8547	29.0803	0.96643	1.51845	0.370007	-0.212223	2.27804	-0.0723417	-0.354046	0.238904	1.20323	-0.606866	-0.629947	0.414576	-0.288551	-0.811803	-1.06344	0.701771	-0.144421	-0.201927	-0.114298	0.0849243	-0.41302	-0.304128	0.340667	0.108047	0.158894	0.072053	0.934661	0.524165	0.248548	-0.0526065	
4.05273	5	0	86.8753	29.0221	0.967796	1.51459	0.381044	-0.221077	2.2411	-0.0637605	-0.339674	0.229514	1.19018	-0.598342	-0.612588	0.403234	-0.286135	-0.811619	-1.05542	0.698172	-0.143626	-0.196906	-0.108176	0.0825755	-0.412598	-0.297006	0.345937	0.104604	0.158894	0.072053	0.930969	0.534598	0.248736	-0.068107	
4.05121	5	0	86.8959	28.9639	0.969161	1.51073	0.39208	-0.22993	2.20416	-0.0551792	-0.325303	0.220123	1.17714	-0.589819	-0.595229	0.391891	-0.28372	-0.811435	-1.0474	0.694573	-0.14283	-0.191884	-0.102054	0.0802267	-0.412175	-0.289883	0.351208	0.10116	0.158894	0.072053	0.927277	0.54503	0.248925	-0.0836075	
4.05121	5	0	86.9165	28.9058	0.970526	1.50688	0.403117	-0.238784	2.16722	-0.046598	-0.310932	0.210733	1.16409	-0.581295	-0.57787	0.380548	-0.281304	-0.811251	-1.03938	0.690975	-0.142035	-0.186863	-0.095931	0.077878	-0.411752	-0.282761	0.356478	0.097716	0.158894	0.072053	0.923586	0.555463	0.249114	-0.099108	
4.04816	5	0	86.736	29.0237	0.964157	1.49031	0.402361	-0.236648	2.11538	-0.0481448	-0.299418	0.203209	1.12367	-0.561214	-0.572831	0.378898	-0.286135	-0.811619	-1.02767	0.68332	-0.147082	-0.179869	-0.0924878	0.075628	-0.413037	-0.270809	0.352392	0.109262	0.170321	0.0720668	0.931412	0.566419	0.243998	-0.099604	
4.0451	5	0	86.5555	29.1416	0.957788	1.47374	0.401606	-0.234511	2.06353	-0.0496915	-0.287903	0.195686	1.08324	-0.541133	-0.567793	0.377248	-0.290965	-0.811988	-1.01595	0.675666	-0.152128	-0.172876	-0.0890445	0.073378	-0.414322	-0.258856	0.348307	0.120807	0.181748	0.0720805	0.939237	0.577376	0.238882	-0.1001	
4.04358	5	0	86.375	29.2595	0.95142	1.45717	0.40085	-0.232375	2.01168	-0.0512382	-0.276389	0.188162	1.04282	-0.521051	-0.562755	0.375599	-0.295796	-0.812356	-1.00424	0.668011	-0.157174	-0.165882	-0.0856012	0.071128	-0.415607	-0.246903	0.344222	0.132353	0.193175	0.0720942	0.947063	0.588332	0.233767	-0.100596	
4.0451	5	0	86.1945	29.3775	0.945051	1.44061	0.400094	-0.230239	1.95983	-0.052785	-0.264875	0.180638	1.00239	-0.50097	-0.557716	0.373949	-0.300627	-0.812724	-0.992522	0.660356	-0.162221	-0.158888	-0.082158	0.068878	-0.416892	-0.234951	0.340136	0.143899	0.204602	0.072108	0.954889	0.599288	0.228651	-0.101092	
4.04205	5	0	86.375	29.2595	0.946552	1.42486	0.403524	-0.23248	1.91224	-0.0547325	-0.256229	0.174989	0.966604	-0.502857	-0.549017	0.368265	-0.305435	-0.820145	-0.988835	0.656305	-0.162164	-0.166316	-0.082158	0.068878	-0.418163	-0.239679	0.342179	0.138124	0.198129	0.0688573	0.96182	0.590739	0.228831	-0.116544	
4.03747	5	0	86.5555	29.1416	0.948052	1.40911	0.406953	-0.234721	1.86465	-0.05668	-0.247583	0.169339	0.930815	-0.504745	-0.540319	0.362581	-0.310244	-0.827565	-0.985148	0.652254	-0.162106	-0.173744	-0.082158	0.068878	-0.419434	-0.244407	0.344223	0.13235	0.191656	0.0656065	0.968751	0.582189	0.229011	-0.131995	
4.03747	5	0	86.736	29.0237	0.949553	1.39336	0.410383	-0.236963	1.81706	-0.0586275	-0.238937	0.16369	0.895026	-0.506632	-0.531621	0.356897	-0.315053	-0.834986	-0.981462	0.648203	-0.162048	-0.181173	-0.082158	0.068878	-0.420706	-0.249135	0.346267	0.126575	0.185182	0.0623558	0.975681	0.573639	0.229192	-0.147447	
4.0329	5	0	86.9165	28.9058	0.951054	1.37761	0.413813	-0.239204	1.76946	-0.060575	-0.230291	0.158041	0.859236	-0.508519	-0.522922	0.351213	-0.319861	-0.842407	-0.977775	0.644152	-0.161991	-0.188601	-0.082158	0.068878	-0.421977	-0.253863	0.34831	0.1208	0.178709	0.059105	0.982612	0.56509	0.229372	-0.162899	
4.0329	5	0	86.9165	28.9058	0.952411	1.37377	0.417244	-0.241446	1.73837	-0.0665792	-0.222393	0.154525	0.827396	-0.502414	-0.517874	0.349557	-0.321447	-0.851917	-0.971909	0.640319	-0.165277	-0.193836	-0.0856012	0.071128	-0.4241	-0.256179	0.350518	0.126018	0.185182	0.0623558	0.97891	0.575554	0.231134	-0.167878	
4.02984	5	0	86.9165	28.9058	0.953769	1.36994	0.420675	-0.243688	1.70727	-0.0725835	-0.214496	0.151009	0.795557	-0.496309	-0.512827	0.347902	-0.323034	-0.861426	-0.966044	0.636486	-0.168563	-0.199071	-0.0890445	0.073378	-0.426224	-0.258495	0.352726	0.131235	0.191656	0.0656065	0.975207	0.586017	0.232895	-0.172857	
4.0329	5	0	86.9165	28.9058	0.955126	1.3661	0.424106	-0.245929	1.67618	-0.0785877	-0.206598	0.147493	0.763718	-0.490204	-0.507779	0.346247	-0.324621	-0.870936	-0.960178	0.632654	-0.17185	-0.204306	-0.0924878	0.075628	-0.428347	-0.26081	0.354935	0.136453	0.198129	0.0688573	0.971504	0.59648	0.234657	-0.177837	
4.02832	5	0	86.9165	28.9058	0.956484	1.36226	0.427537	-0.248171	1.64508	-0.084592	-0.1987	0.143977	0.731878	-0.484099	-0.502731	0.344591	-0.326207	-0.880446	-0.954313	0.628821	-0.175136	-0.209541	-0.095931	0.077878	-0.430471	-0.263126	0.357143	0.14167	0.204602	0.072108	0.967802	0.606944	0.236419	-0.182816	
4.02984	5	0	86.736	29.0237	0.958094	1.33472	0.424106	-0.245929	1.61717	-0.0991135	-0.197943	0.141838	0.703086	-0.486231	-0.501975	0.342454	-0.332613	-0.890297	-0.952134	0.629039	-0.188318	-0.223028	-0.102814	0.0823752	-0.435149	-0.258218	0.357304	0.15268	0.204968	0.0818555	0.951203	0.609746	0.224442	-0.178816	
4.02679	5	0	86.5555	29.1416	0.959704	1.30717	0.420675	-0.243688	1.58925	-0.113635	-0.197186	0.139699	0.674294	-0.488363	-0.501219	0.340317	-0.33902	-0.900148	-0.949955	0.629258	-0.2015	-0.236515	-0.109697	0.0868725	-0.439828	-0.25331	0.357465	0.163689	0.205334	0.091603	0.934603	0.612548	0.212466	-0.174816	
4.02679	5	0	86.375	29.2595	0.961313	1.27963	0.417244	-0.241446	1.56134	-0.128157	-0.196429	0.137559	0.645502	-0.490494	-0.500462	0.338181	-0.345426	-0.909999	-0.947777	0.629476	-0.214682	-0.250001	-0.116579	0.0913697	-0.444506	-0.248401	0.357627	0.174699	0.2057	0.101351	0.918003	0.615351	0.200489	-0.170816	
4.02679	5	0	86.1945	29.3775	0.962923	1.25209	0.413813	-0.239204	1.53342	-0.142678	-0.195672	0.13542	0.61671	-0.492626	-0.499706	0.336044	-0.351832	-0.91985	-0.945598	0.629695	-0.227864	-0.263488	-0.123462	0.095867	-0.449184	-0.243493	0.357788	0.185709	0.206066	0.111098	0.901404	0.618153	0.188512	-0.166816	
4.02374	5	0	86.5388	29.1973	0.951246	1.23918	0.410383	-0.236963	1.50165	-0.145847	-0.194299	0.137813	0.606824	-0.492437	-0.500462	0.338181	-0.364679	-0.911455	-0.927971	0.618177	-0.236899	-0.274113	-0.123462	0.095867	-0.447916	-0.238765	0.354714	0.194395	0.206066	0.111098	0.879356	0.614494	0.168315	-0.184151	
4.02222	5	0	86.8831	29.017	0.93957	1.22628	0.406953	-0.234721	1.46989	-0.149016	-0.192927	0.140206	0.596938	-0.492248	-0.501219	0.340317	-0.377527	-0.903061	-0.910345	0.60666	-0.245935	-0.284738	-0.123462	0.095867	-0.446647	-0.234036	0.351641	0.20308	0.206066	0.111098	0.857308	0.610836	0.148119	-0.201485	
4.01916	5	0	87.2273	28.8368	0.927893	1.21337	0.403524	-0.23248	1.43812	-0.152186	-0.191554	0.142598	0.587051	-0.49206	-0.501975	0.342454	-0.390375	-0.894666	-0.892718	0.595142	-0.25497	-0.295363	-0.123462	0.095867	-0.445379	-0.229308	0.348568	0.211766	0.206066	0.111098	0.835259	0.607178	0.127922	-0.21882	
4.01916	5	0	87.5716	28.6566	0.916217	1.20047	0.400094	-0.230239	1.40635	-0.155355	-0.190181	0.144991	0.577165	-0.491871	-0.502731	0.344591	-0.403222	-0.886271	-0.875091	0.583624	-0.264005	-0.305988	-0.123462	0.095867	-0.44411	-0.22458	0.345494	0.220452	0.206066	0.111098	0.813211	0.603519	0.107725	-0.236155	
4.01916	5	0	87.6763	28.7701	0.893922	1.20626	0.400094	-0.230239	1.38368	-0.142709	-0.181515	0.139328	0.591724	-0.486743	-0.494017	0.338897	-0.408874	-0.870297	-0.842681	0.562447	-0.264903	-0.296223	-0.109691	0.0868687	-0.436474	-0.212871	0.352106	0.236204	0.205633	0.133904	0.816418	0.605434	0.112811	-0.235669	
4.01916	5	0	87.781	28.8836	0.871627	1.21204	0.400094	-0.230239	1.361	-0.130064	-0.172848	0.133665	0.606283	-0.481615	-0.485304	0.333204	-0.414526	-0.854323	-0.810271	0.541269	-0.265801	-0.286459	-0.09592	0.0778705	-0.428837	-0.201163	0.358719	0.251955	0.2052	0.15671	0.819626	0.607349	0.117896	-0.235183	
4.01306	5	0	87.8857	28.997	0.849333	1.21783	0.400094	-0.230239	1.33833	-0.117419	-0.164182	0.128003	0.620843	-0.476486	-0.476591	0.327511	-0.420178	-0.838349	-0.777861	0.520092	-0.266699	-0.276695	-0.082149	0.0688722	-0.421201	-0.189454	0.365331	0.267707	0.204767	0.179516	0.822833	0.609263	0.122982	-0.234698	
4.01306	5	0	87.9904	29.1105	0.827038	1.22361	0.400094	-0.230239	1.31565	-0.104773	-0.155516	0.12234	0.635402	-0.471358	-0.467877	0.321817	-0.42583	-0.822375	-0.745451	0.498914	-0.267597	-0.26693	-0.068378	0.059874	-0.413565	-0.177746	0.371943	0.283459	0.204334	0.202322	0.82604	0.611178	0.128068	-0.234212	
4.01459	5	0	87.9261	29.2922	0.819218	1.22288	0.406955	-0.234722	1.30893	-0.0960358	-0.146841	0.116672	0.638149	-0.460578	-0.464971	0.319918	-0.423507	-0.801028	-0.722559	0.485598	-0.258566	-0.256281	-0.056106	0.05516	-0.40719	-0.170757	0.374148	0.288722	0.213125	0.199085	0.823314	0.596932	0.122982	-0.234698	
4.02069	5	0	87.8618	29.4738	0.811397	1.22214	0.413816	-0.239205	1.3022	-0.0872985	-0.138166	0.111003	0.640896	-0.449798	-0.462064	0.318018	-0.421183	-0.77968	-0.699666	0.472283	-0.249534	-0.245631	-0.043834	0.050446	-0.400815	-0.163768	0.376352	0.293986	0.221916	0.195848	0.820587	0.582686	0.117896	-0.235183	
4.02527	5	0	87.7975	29.6554	0.803577	1.2214	0.420676	-0.243688	1.29548	-0.0785612	-0.129491	0.105334	0.643642	-0.439018	-0.459158	0.316119	-0.418859	-0.758333	-0.676774	0.458967	-0.240503	-0.234982	-0.031562	0.045732	-0.394439	-0.156778	0.378557	0.299249	0.230707	0.192611	0.81786	0.56844	0.112811	-0.235669	
4.03747	5	0	87.7333	29.8371	0.795757	1.22066	0.427537	-0.248171	1.28875	-0.069824	-0.120816	0.099666	0.646389	-0.428238	-0.456252	0.31422	-0.416536	-0.736986	-0.653882	0.445651	-0.231472	-0.224332	-0.01929	0.041018	-0.388064	-0.149789	0.380761	0.304512	0.239498	0.189374	0.815134	0.554194	0.107725	-0.236155	
4.05578	5	0	87.8381	29.9593	0.800884	1.22901	0.437838	-0.254902	1.29493	-0.0564647	-0.10054	0.0864173	0.658497	-0.406718	-0.438793	0.302812	-0.401443	-0.702661	-0.62423	0.426276	-0.215923	-0.195718	-0.00125675	0.027582	-0.377011	-0.130913	0.385171	0.315058	0.243678	0.199192	0.820184	0.550894	0.112811	-0.235669	
4.07715	5	0	87.943	30.0815	0.80601	1.23736	0.44814	-0.261634	1.30111	-0.0431055	-0.0802635	0.0731685	0.670604	-0.385199	-0.421334	0.291404	-0.38635	-0.668335	-0.594577	0.4069	-0.200374	-0.167104	0.0167765	0.014146	-0.365958	-0.112037	0.389581	0.325603	0.247859	0.209009	0.825234	0.547594	0.117896	-0.235183	
4.09851	5	0	88.0479	30.2037	0.811136	1.24572	0.458441	-0.268365	1.30729	-0.0297463	-0.0599872	0.0599198	0.682711	-0.36368	-0.403874	0.279996	-0.371257	-0.63401	-0.564925	0.387524	-0.184825	-0.13849	0.0348098	0.00071	-0.354905	-0.0931603	0.393991	0.336149	0.252039	0.218827	0.830284	0.544295	0.122982	-0.234698	
4.12598	5	0	88.1527	30.3259	0.816263	1.25407	0.468742	-0.275096	1.31347	-0.016387	-0.039711	0.046671	0.694819	-0.34216	-0.386415	0.268588	-0.356164	-0.599685	-0.535273	0.368149	-0.169276	-0.109876	0.052843	-0.012726	-0.343852	-0.074284	0.398401	0.346695	0.25622	0.228645	0.835334	0.540995	0.128068	-0.234212	
4.15192	5	0	88.1527	30.3259	0.821524	1.25063	0.471422	-0.275205	1.31821	-0.0194807	-0.025956	0.0393287	0.708489	-0.334218	-0.381344	0.266917	-0.336131	-0.579002	-0.523383	0.36038	-0.15692	-0.0938363	0.059762	-0.017247	-0.344303	-0.0646445	0.395307	0.35544	0.255416	0.241743	0.832087	0.56115	0.122803	-0.219332	
4.17175	5	0	88.1527	30.3259	0.826785	1.24719	0.474103	-0.275313	1.32294	-0.0225745	-0.012201	0.0319865	0.722159	-0.326276	-0.376272	0.265246	-0.316098	-0.558318	-0.511494	0.352611	-0.144564	-0.0777965	0.066681	-0.021768	-0.344754	-0.055005	0.392212	0.364185	0.254612	0.254841	0.82884	0.581305	0.117537	-0.204452	
4.19464	5	0	88.1527	30.3259	0.832045	1.24376	0.476784	-0.275422	1.32768	-0.0256683	0.001554	0.0246442	0.735829	-0.318334	-0.3712	0.263576	-0.296066	-0.537635	-0.499604	0.344842	-0.132208	-0.0617568	0.0736	-0.026289	-0.345205	-0.0453655	0.389118	0.372931	0.253808	0.267938	0.825593	0.60146	0.112272	-0.189571	
4.2099	5	0	88.1527	30.3259	0.837306	1.24032	0.479464	-0.275531	1.33241	-0.028762	0.015309	0.017302	0.749499	-0.310392	-0.366129	0.261905	-0.276033	-0.516951	-0.487714	0.337073	-0.119852	-0.045717	0.080519	-0.03081	-0.345656	-0.035726	0.386023	0.381676	0.253004	0.281036	0.822346	0.621615	0.107007	-0.174691	
4.23126	5	0	88.305	30.3238	0.838653	1.23651	0.489782	-0.282273	1.34363	-0.0295525	0.029846	0.007803	0.764584	-0.296978	-0.35738	0.256188	-0.259964	-0.498881	-0.469849	0.325399	-0.112481	-0.0300635	0.0909077	-0.037598	-0.335407	-0.031192	0.386023	0.381676	0.247672	0.27446	0.814089	0.622999	0.108939	-0.195009	
4.24499	5	0	88.4572	30.3217	0.84	1.2327	0.5001	-0.289015	1.35484	-0.030343	0.044383	-0.001696	0.779668	-0.283564	-0.348631	0.250472	-0.243894	-0.480811	-0.451983	0.313725	-0.10511	-0.01441	0.101296	-0.044386	-0.325157	-0.026658	0.386023	0.381676	0.242339	0.267884	0.805832	0.624383	0.110871	-0.215327	
4.25567	5	0	88.6095	30.3196	0.841348	1.2289	0.510418	-0.295756	1.36605	-0.0311335	0.05892	-0.011195	0.794753	-0.270151	-0.339883	0.244755	-0.227825	-0.46274	-0.434118	0.302052	-0.097739	0.0012435	0.111685	-0.051174	-0.314908	-0.022124	0.386023	0.381676	0.237007	0.261309	0.797576	0.625766	0.112802	-0.235645	
4.26636	5	0	88.7617	30.3175	0.842695	1.22509	0.520736	-0.302498	1.37726	-0.031924	0.073457	-0.020694	0.809838	-0.256737	-0.331134	0.239038	-0.211756	-0.44467	-0.416253	0.290378	-0.090368	0.016897	0.122074	-0.057962	-0.304659	-0.01759	0.386023	0.381676	0.231675	0.254733	0.789319	0.62715	0.114734	-0.255963	
4.28161	5	0	88.7617	30.3175	0.834994	1.21258	0.513856	-0.298003	1.38328	-0.0489185	0.0742142	-0.0228343	0.823174	-0.256969	-0.334051	0.240944	-0.211799	-0.43748	-0.400581	0.278495	-0.0829205	0.0250887	0.129767	-0.0646412	-0.299119	-0.0080845	0.390148	0.370017	0.237453	0.238403	0.790726	0.612209	0.108233	-0.282094	
4.29077	5	0	88.7617	30.3175	0.827292	1.20008	0.506976	-0.293507	1.38929	-0.065913	0.0749715	-0.0249745	0.83651	-0.257202	-0.336969	0.24285	-0.211842	-0.430291	-0.384908	0.266613	-0.075473	0.0332805	0.137461	-0.0713205	-0.293578	0.001421	0.394273	0.358359	0.243231	0.222074	0.792133	0.597268	0.101731	-0.308225	
4.2984	5	0	88.7617	30.3175	0.819591	1.18757	0.500096	-0.289011	1.3953	-0.0829075	0.0757287	-0.0271147	0.849846	-0.257435	-0.339886	0.244757	-0.211886	-0.423102	-0.369235	0.25473	-0.0680255	0.0414723	0.145154	-0.0779998	-0.288038	0.0109265	0.398399	0.3467	0.249009	0.205744	0.793539	0.582326	0.0952295	-0.334357	
4.2984	5	0	88.7617	30.3175	0.81189	1.17507	0.493216	-0.284516	1.40132	-0.099902	0.076486	-0.029255	0.863182	-0.257667	-0.342803	0.246663	-0.211929	-0.415912	-0.353563	0.242847	-0.060578	0.049664	0.152847	-0.084679	-0.282497	0.020432	0.402524	0.335041	0.254787	0.189415	0.794946	0.567385	0.088728	-0.360488	
4.2923	5	0	88.918	30.3142	0.817369	1.14817	0.486341	-0.280024	1.41781	-0.125891	0.0656117	-0.0237945	0.863748	-0.268637	-0.350793	0.25024	-0.209457	-0.422899	-0.353563	0.242847	-0.056351	0.045035	0.152087	-0.08253	-0.284632	0.0180743	0.398988	0.310532	0.252168	0.153602	0.782641	0.525579	0.0806173	-0.396742	
4.29077	5	0	89.0742	30.3109	0.822848	1.12128	0.479467	-0.275532	1.43431	-0.151881	0.0547375	-0.018334	0.864313	-0.279607	-0.358783	0.253818	-0.206985	-0.429886	-0.353563	0.242847	-0.052124	0.040406	0.151326	-0.080381	-0.286767	0.0157165	0.395452	0.286023	0.249549	0.117788	0.770336	0.483773	0.0725065	-0.432996	
4.28772	5	0	89.2305	30.3076	0.828327	1.09439	0.472593	-0.271041	1.4508	-0.17787	0.0438632	-0.0128735	0.864879	-0.290577	-0.366772	0.257395	-0.204512	-0.436873	-0.353563	0.242847	-0.047897	0.035777	0.150565	-0.078232	-0.288902	0.0133587	0.391916	0.261515	0.246931	0.0819745	0.758031	0.441967	0.0643958	-0.46925	
4.27856	5	0	89.3867	30.3043	0.833806	1.06749	0.465718	-0.266549	1.46729	-0.203859	0.032989	-0.007413	0.865445	-0.301547	-0.374762	0.260973	-0.20204	-0.44386	-0.353563	0.242847	-0.04367	0.031148	0.149805	-0.076083	-0.291037	0.011001	0.38838	0.237006	0.244312	0.046161	0.745726	0.400161	0.056285	-0.505504	
4.27093	5	0	89.5933	30.1693	0.830001	1.05545	0.455417	-0.259818	1.44882	-0.21346	0.027179	-0.00361675	0.859749	-0.304177	-0.383499	0.266682	-0.200393	-0.448515	-0.360289	0.248884	-0.0385832	0.0240917	0.146338	-0.0738175	-0.285448	0.0035985	0.384825	0.212614	0.24699	0.0170225	0.732955	0.370864	0.0497518	-0.531299	
4.26636	5	0	89.7999	30.0344	0.826196	1.0434	0.445115	-0.253086	1.43035	-0.223062	0.021369	0.0001795	0.854052	-0.306808	-0.392236	0.272391	-0.198746	-0.45317	-0.367015	0.254921	-0.0334965	0.0170355	0.142871	-0.071552	-0.27986	-0.003804	0.381271	0.188221	0.249668	-0.012116	0.720183	0.341566	0.0432185	-0.557093	
4.2633	5	0	90.0064	29.8994	0.822391	1.03136	0.434814	-0.246355	1.41187	-0.232663	0.015559	0.00397575	0.848356	-0.309438	-0.400973	0.2781	-0.197098	-0.457825	-0.37374	0.260958	-0.0284098	0.00997925	0.139404	-0.0692865	-0.274272	-0.0112065	0.377716	0.163828	0.252346	-0.0412545	0.707412	0.312269	0.0366853	-0.582888	
4.26025	5	0	90.213	29.7644	0.818586	1.01932	0.424512	-0.239624	1.3934	-0.242264	0.009749	0.007772	0.84266	-0.312068	-0.40971	0.283809	-0.195451	-0.46248	-0.380466	0.266995	-0.023323	0.002923	0.135937	-0.067021	-0.268683	-0.018609	0.374161	0.139436	0.255024	-0.070393	0.694641	0.282972	0.030152	-0.608683	
4.25262	5	0	90.213	29.7644	0.812303	0.991562	0.400524	-0.223949	1.37076	-0.27061	0.0002845	0.0156015	0.840024	-0.342019	-0.430062	0.297107	-0.199376	-0.486696	-0.404303	0.282571	-0.0265035	-0.0173508	0.121322	-0.0558185	-0.276779	-0.0376488	0.360057	0.122041	0.240531	-0.083251	0.686435	0.262697	0.020278	-0.639626	
4.25415	5	0	90.213	29.7644	0.806019	0.963808	0.376535	-0.208275	1.34812	-0.298957	-0.00918	0.023431	0.837388	-0.37197	-0.450414	0.310406	-0.203302	-0.510913	-0.428141	0.298146	-0.029684	-0.0376245	0.106707	-0.044616	-0.284876	-0.0566885	0.345952	0.104646	0.226039	-0.096109	0.678228	0.242422	0.010404	-0.67057	
4.2511	5	0	90.213	29.7644	0.799736	0.936053	0.352546	-0.192601	1.32548	-0.327303	-0.0186445	0.0312605	0.834752	-0.401922	-0.470765	0.323704	-0.207227	-0.53513	-0.451978	0.313721	-0.0328645	-0.0578982	0.0920912	-0.0334135	-0.292972	-0.0757282	0.331848	0.0872503	0.211546	-0.108967	0.670022	0.222147	0.00053	-0.701514	
4.2511	5	0	90.213	29.7644	0.793453	0.908299	0.328558	-0.176926	1.30283	-0.355649	-0.028109	0.03909	0.832116	-0.431873	-0.491117	0.337002	-0.211152	-0.559346	-0.475815	0.329297	-0.036045	-0.078172	0.077476	-0.022211	-0.301068	-0.094768	0.317743	0.069855	0.197054	-0.121825	0.661816	0.201872	-0.009344	-0.732457	
4.2511	5	0	90.213	29.7644	0.784584	0.876631	0.312221	-0.167893	1.29238	-0.387416	-0.0476348	0.0502035	0.819052	-0.469529	-0.519351	0.353808	-0.225545	-0.596116	-0.49883	0.342693	-0.043343	-0.108646	0.0617105	-0.0152143	-0.30958	-0.120893	0.31399	0.0347833	0.191677	-0.160289	0.654463	0.157642	-0.022642	-0.753538	
4.2511	5	0	90.213	29.7644	0.775714	0.844963	0.295883	-0.158861	1.28193	-0.419184	-0.0671605	0.061317	0.805987	-0.507184	-0.547586	0.370615	-0.239937	-0.632887	-0.521845	0.35609	-0.050641	-0.13912	0.045945	-0.0082175	-0.318092	-0.147018	0.310237	-0.0002885	0.1863	-0.198753	0.64711	0.113412	-0.03594	-0.77462	
4.25415	5	0	90.213	29.7644	0.766845	0.813296	0.279546	-0.149828	1.27148	-0.450952	-0.0866863	0.0724305	0.792923	-0.54484	-0.57582	0.387421	-0.254329	-0.669657	-0.54486	0.369486	-0.057939	-0.169593	0.0301795	-0.00122075	-0.326604	-0.173143	0.306483	-0.0353602	0.180923	-0.237217	0.639756	0.0691828	-0.049238	-0.795701	
4.26178	5	0	90.213	29.7644	0.757976	0.781628	0.263208	-0.140795	1.26103	-0.482719	-0.106212	0.083544	0.779859	-0.582495	-0.604054	0.404227	-0.268722	-0.706427	-0.567875	0.382883	-0.065237	-0.200067	0.014414	0.005776	-0.335116	-0.199268	0.30273	-0.070432	0.175546	-0.275681	0.632403	0.024953	-0.062536	-0.816782	
4.26483	5	0	90.213	29.7644	0.749026	0.76166	0.246904	-0.131784	1.25232	-0.509024	-0.137232	0.102168	0.756873	-0.619592	-0.635075	0.422854	-0.28712	-0.745544	-0.588621	0.396439	-0.0725975	-0.222953	-0.002838	0.0170488	-0.340225	-0.218209	0.293892	-0.0910215	0.170534	-0.304335	0.625487	-0.00950525	-0.0657665	-0.836915	
4.26636	5	0	90.213	29.7644	0.740076	0.741691	0.2306	-0.122774	1.24361	-0.535328	-0.168251	0.120792	0.733887	-0.656689	-0.666095	0.441481	-0.305519	-0.78466	-0.609367	0.409994	-0.079958	-0.24584	-0.02009	0.0283215	-0.345334	-0.237151	0.285053	-0.111611	0.165523	-0.332988	0.618572	-0.0439635	-0.068997	-0.857047	
4.26941	5	0	90.213	29.7644	0.731126	0.721723	0.214297	-0.113763	1.23489	-0.561632	-0.199271	0.139417	0.710901	-0.693786	-0.697116	0.460109	-0.323917	-0.823777	-0.630113	0.42355	-0.0873185	-0.268726	-0.037342	0.0395943	-0.350442	-0.256092	0.276215	-0.1322	0.160511	-0.361642	0.611656	-0.0784217	-0.0722275	-0.87718	
4.27093	5	0	90.213	29.7644	0.722176	0.701755	0.197993	-0.104752	1.22618	-0.587937	-0.230291	0.158041	0.687915	-0.730883	-0.728137	0.478736	-0.342315	-0.862894	-0.650859	0.437106	-0.094679	-0.291613	-0.054594	0.050867	-0.355551	-0.275033	0.267377	-0.15279	0.155499	-0.390295	0.60474	-0.11288	-0.075458	-0.897312	
4.26483	5	0	90.0064	29.8994	0.710727	0.666423	0.185125	-0.097986	1.21474	-0.61655	-0.273434	0.186231	0.66077	-0.76487	-0.77128	0.506926	-0.367888	-0.895201	-0.671554	0.450629	-0.108763	-0.30265	-0.071811	0.062117	-0.364069	-0.28428	0.269199	-0.169313	0.156213	-0.403002	0.602359	-0.138477	-0.0736783	-0.916956	
4.2633	5	0	89.7999	30.0344	0.699278	0.63109	0.172258	-0.09122	1.2033	-0.645162	-0.316576	0.214421	0.633625	-0.798856	-0.814423	0.535116	-0.393461	-0.927508	-0.69225	0.464152	-0.122847	-0.313686	-0.089028	0.073367	-0.372587	-0.293528	0.271021	-0.185837	0.156927	-0.41571	0.599978	-0.164073	-0.0718985	-0.9366	
4.26941	5	0	89.5933	30.1693	0.687829	0.595758	0.15939	-0.084454	1.19187	-0.673774	-0.359719	0.242612	0.606481	-0.832843	-0.857565	0.563307	-0.419034	-0.959814	-0.712946	0.477675	-0.136931	-0.324723	-0.106245	0.084617	-0.381104	-0.302775	0.272843	-0.20236	0.157641	-0.428417	0.597596	-0.18967	-0.0701187	-0.956245	
4.26178	5	0	89.3867	30.3043	0.67638	0.560426	0.146523	-0.077688	1.18043	-0.702387	-0.402862	0.270802	0.579336	-0.86683	-0.900708	0.591497	-0.444607	-0.992121	-0.733641	0.491198	-0.151015	-0.33576	-0.123462	0.095867	-0.389622	-0.312022	0.274665	-0.218883	0.158355	-0.441124	0.595215	-0.215267	-0.068339	-0.975889	
4.25262	5	0	89.5933	30.1693	0.673868	0.545017	0.13632	-0.071021	1.17986	-0.721042	-0.431504	0.289517	0.564453	-0.898205	-0.92935	0.610212	-0.455749	-1.01617	-0.75134	0.502763	-0.153423	-0.350702	-0.137971	0.107	-0.390476	-0.326245	0.267224	-0.220581	0.145864	-0.437852	0.578483	-0.221732	-0.0833933	-0.977117	
4.24499	5	0	89.7999	30.0344	0.671356	0.529607	0.126116	-0.064354	1.17929	-0.739696	-0.460145	0.308233	0.549569	-0.92958	-0.957991	0.628928	-0.466892	-1.04021	-0.76904	0.514328	-0.15583	-0.365644	-0.152481	0.118133	-0.391331	-0.340468	0.259783	-0.22228	0.133373	-0.434581	0.561751	-0.228198	-0.0984475	-0.978345	
4.24194	5	0	90.0064	29.8994	0.668845	0.514197	0.115913	-0.057687	1.17872	-0.758351	-0.488787	0.326948	0.534685	-0.960956	-0.986633	0.647643	-0.478034	-1.06426	-0.78674	0.525894	-0.158238	-0.380586	-0.16699	0.129266	-0.392185	-0.35469	0.252342	-0.223978	0.120881	-0.431309	0.545018	-0.234663	-0.113502	-0.979574	
4.23736	5	0	90.213	29.7644	0.666333	0.498788	0.10571	-0.05102	1.17815	-0.777006	-0.517429	0.345663	0.519802	-0.992331	-1.01527	0.666358	-0.489177	-1.08831	-0.804439	0.537459	-0.160645	-0.395528	-0.1815	0.140399	-0.393039	-0.368913	0.244901	-0.225677	0.10839	-0.428037	0.528286	-0.241129	-0.128556	-0.980802	
4.23126	5	0	90.19	29.8293	0.661158	0.50217	0.103067	-0.0509345	1.17912	-0.779752	-0.531714	0.354997	0.518908	-1.00812	-1.03166	0.675421	-0.489966	-1.09993	-0.815463	0.54302	-0.158115	-0.402677	-0.186845	0.140588	-0.391773	-0.380806	0.243697	-0.233628	0.110224	-0.443885	0.520076	-0.260819	-0.123471	-0.995171	
4.22974	5	0	90.1671	29.8943	0.655983	0.505551	0.100424	-0.050849	1.18009	-0.782498	-0.545999	0.364331	0.518014	-1.02391	-1.04804	0.684484	-0.490755	-1.11156	-0.826487	0.548581	-0.155585	-0.409826	-0.192191	0.140776	-0.390506	-0.392698	0.242493	-0.24158	0.112059	-0.459733	0.511867	-0.280508	-0.118387	-1.00954	
4.22058	5	0	90.1441	29.9592	0.650808	0.508933	0.097781	-0.0507635	1.18106	-0.785243	-0.560284	0.373665	0.51712	-1.03969	-1.06443	0.693548	-0.491544	-1.12319	-0.83751	0.554142	-0.153056	-0.416976	-0.197537	0.140965	-0.38924	-0.40459	0.241289	-0.249531	0.113893	-0.475581	0.503657	-0.300198	-0.113303	-1.02391	
4.21905	5	0	90.1211	30.0242	0.645633	0.512314	0.095138	-0.050678	1.18203	-0.787989	-0.574569	0.382999	0.516226	-1.05548	-1.08081	0.702611	-0.492333	-1.13482	-0.848534	0.559703	-0.150526	-0.424125	-0.202882	0.141154	-0.387973	-0.416483	0.240085	-0.257482	0.115727	-0.491429	0.495447	-0.319888	-0.108218	-1.03828	
4.21753	5	0	90.1211	30.0242	0.648194	0.516319	0.104582	-0.0552072	1.1902	-0.780647	-0.570957	0.378995	0.521832	-1.05301	-1.08291	0.70234	-0.489148	-1.12996	-0.845591	0.55778	-0.144734	-0.418746	-0.19945	0.138911	-0.382864	-0.414291	0.23908	-0.254642	0.119512	-0.491463	0.498987	-0.329892	-0.114923	-1.0339	
4.216	5	0	90.1211	30.0242	0.650756	0.520325	0.114026	-0.0597365	1.19836	-0.773305	-0.567345	0.374991	0.527437	-1.05054	-1.085	0.70207	-0.485962	-1.12511	-0.842647	0.555856	-0.138943	-0.413368	-0.196017	0.136668	-0.377756	-0.412099	0.238075	-0.251802	0.123298	-0.491498	0.502526	-0.339895	-0.121628	-1.02952	
4.2099	5	0	90.1211	30.0242	0.653317	0.52433	0.123469	-0.0642657	1.20652	-0.765963	-0.563733	0.370986	0.533042	-1.04806	-1.0871	0.701799	-0.482776	-1.12025	-0.839704	0.553933	-0.133152	-0.40799	-0.192584	0.134426	-0.372648	-0.409907	0.23707	-0.248962	0.127084	-0.491532	0.506066	-0.349899	-0.128333	-1.02514	
4.2099	5	0	90.1211	30.0242	0.655878	0.528335	0.132913	-0.068795	1.21468	-0.758621	-0.560121	0.366982	0.538648	-1.04559	-1.0892	0.701528	-0.479591	-1.1154	-0.836761	0.55201	-0.12736	-0.402611	-0.189152	0.132183	-0.367539	-0.407715	0.236065	-0.246122	0.130869	-0.491566	0.509606	-0.359902	-0.135038	-1.02075	
4.20227	5	0	90.0979	30.0896	0.650579	0.55456	0.139719	-0.0732422	1.21623	-0.742696	-0.542971	0.355775	0.548438	-1.0274	-1.07568	0.694335	-0.466833	-1.09592	-0.822029	0.542384	-0.114105	-0.389231	-0.185718	0.129939	-0.362843	-0.396014	0.242497	-0.241584	0.133949	-0.478924	0.521377	-0.350278	-0.128404	-1.01036	
4.20227	5	0	90.0748	30.155	0.645281	0.580785	0.146526	-0.0776895	1.21778	-0.72677	-0.52582	0.344568	0.558228	-1.0092	-1.06216	0.687142	-0.454075	-1.07643	-0.807297	0.532758	-0.100851	-0.37585	-0.182284	0.127695	-0.358147	-0.384314	0.248928	-0.237046	0.13703	-0.466282	0.533148	-0.340653	-0.12177	-0.999957	
4.19922	5	0	90.0516	30.2205	0.639983	0.607009	0.153332	-0.0821367	1.21933	-0.710845	-0.508669	0.333362	0.568018	-0.991001	-1.04864	0.67995	-0.441318	-1.05695	-0.792565	0.523132	-0.0875958	-0.36247	-0.178851	0.125452	-0.35345	-0.372613	0.25536	-0.232507	0.14011	-0.453639	0.544919	-0.331029	-0.115135	-0.989559	
4.19769	5	0	90.0285	30.2859	0.634684	0.633234	0.160138	-0.086584	1.22087	-0.69492	-0.491519	0.322155	0.577808	-0.972804	-1.03512	0.672757	-0.42856	-1.03747	-0.777833	0.513506	-0.074341	-0.34909	-0.175417	0.123208	-0.348754	-0.360913	0.261791	-0.227969	0.14319	-0.440997	0.55669	-0.321404	-0.108501	-0.979161	
4.19311	5	0	90.0285	30.2859	0.629433	0.648075	0.170357	-0.0932618	1.22067	-0.684178	-0.468598	0.307178	0.589001	-0.949251	-1.02082	0.663414	-0.414984	-1.01316	-0.760877	0.504069	-0.06611	-0.328664	-0.162428	0.116373	-0.338934	-0.34697	0.267222	-0.220576	0.153859	-0.428379	0.568102	-0.299904	-0.0984605	-0.978343	
4.19006	5	0	90.0285	30.2859	0.624181	0.662916	0.180577	-0.0999395	1.22046	-0.673436	-0.445677	0.292201	0.600195	-0.925698	-1.00652	0.65407	-0.401409	-0.988851	-0.743922	0.494631	-0.057879	-0.308238	-0.14944	0.109537	-0.329114	-0.333028	0.272653	-0.213183	0.164527	-0.415762	0.579515	-0.278404	-0.08842	-0.977525	
4.18548	5	0	90.0285	30.2859	0.61893	0.677757	0.190797	-0.106617	1.22026	-0.662695	-0.422756	0.277224	0.611389	-0.902146	-0.992221	0.644726	-0.387833	-0.964541	-0.726966	0.485193	-0.049648	-0.287812	-0.136451	0.102702	-0.319293	-0.319085	0.278084	-0.205791	0.175196	-0.403145	0.590928	-0.256904	-0.0783795	-0.976707	
4.18243	5	0	90.0285	30.2859	0.613679	0.692598	0.201016	-0.113295	1.22005	-0.651953	-0.399835	0.262247	0.622582	-0.878593	-0.977922	0.635383	-0.374257	-0.940231	-0.71001	0.475756	-0.041417	-0.267386	-0.123462	0.095867	-0.309473	-0.305142	0.283515	-0.198398	0.185864	-0.390527	0.60234	-0.235404	-0.068339	-0.975889	
4.17938	5	0	90.0052	30.3518	0.62653	0.701351	0.213905	-0.120075	1.23095	-0.642071	-0.368975	0.243727	0.649859	-0.863338	-0.952879	0.620661	-0.352608	-0.917516	-0.692262	0.464159	-0.0348403	-0.249488	-0.109691	0.0868687	-0.308192	-0.283699	0.288951	-0.190991	0.187813	-0.374615	0.603733	-0.228572	-0.068339	-0.975889	
4.1748	5	0	89.9819	30.4177	0.63938	0.710105	0.226795	-0.126856	1.24185	-0.632189	-0.338115	0.225207	0.677136	-0.848083	-0.927836	0.605939	-0.330958	-0.894802	-0.674513	0.452562	-0.0282635	-0.23159	-0.09592	0.0778705	-0.306911	-0.262257	0.294387	-0.183584	0.189763	-0.358703	0.605126	-0.221739	-0.068339	-0.975889	
4.1748	5	0	89.9585	30.4836	0.652231	0.718858	0.239684	-0.133636	1.25275	-0.622306	-0.307255	0.206686	0.704412	-0.832828	-0.902792	0.591217	-0.309308	-0.872087	-0.656764	0.440965	-0.0216867	-0.213692	-0.082149	0.0688722	-0.30563	-0.240814	0.299823	-0.176177	0.191712	-0.34279	0.606519	-0.214907	-0.068339	-0.975889	
4.17175	5	0	89.9352	30.5495	0.665082	0.727611	0.252573	-0.140416	1.26365	-0.612424	-0.276395	0.188166	0.731689	-0.817573	-0.877749	0.576495	-0.287659	-0.849372	-0.639016	0.429368	-0.01511	-0.195794	-0.068378	0.059874	-0.304349	-0.219371	0.305259	-0.16877	0.193661	-0.326878	0.607912	-0.208074	-0.068339	-0.975889	
4.1687	5	0	89.9585	30.4836	0.661128	0.738786	0.259404	-0.144879	1.27086	-0.60222	-0.248308	0.171458	0.755781	-0.802159	-0.849748	0.559841	-0.274806	-0.829552	-0.61605	0.416004	-0.009285	-0.190331	-0.054585	0.0508612	-0.290661	-0.207828	0.304053	-0.176751	0.199313	-0.342851	0.59067	-0.223869	-0.0665767	-0.995472	
4.17175	5	0	89.9819	30.4177	0.657173	0.749961	0.266234	-0.149342	1.27807	-0.592016	-0.22022	0.15475	0.779873	-0.786745	-0.821746	0.543187	-0.261954	-0.809732	-0.593085	0.40264	-0.00346	-0.184868	-0.040792	0.0418485	-0.276973	-0.196286	0.302847	-0.184731	0.204965	-0.358824	0.573429	-0.239664	-0.0648145	-1.01506	
4.17328	5	0	90.0052	30.3518	0.653219	0.761135	0.273065	-0.153806	1.28528	-0.581812	-0.192133	0.138042	0.803966	-0.771332	-0.793745	0.526533	-0.249101	-0.789913	-0.570119	0.389275	0.002365	-0.179404	-0.026999	0.0328357	-0.263286	-0.184744	0.301642	-0.192712	0.210617	-0.374797	0.556187	-0.255459	-0.0630523	-1.03464	
4.17175	5	0	90.0285	30.2859	0.649265	0.77231	0.279896	-0.158269	1.29249	-0.571608	-0.164046	0.121334	0.828058	-0.755918	-0.765744	0.509879	-0.236248	-0.770093	-0.547153	0.375911	0.00819	-0.173941	-0.013206	0.023823	-0.249598	-0.173201	0.300436	-0.200693	0.216269	-0.39077	0.538945	-0.271254	-0.06129	-1.05422	
4.1748	5	0	89.8451	30.3554	0.645393	0.771975	0.286732	-0.162736	1.29445	-0.577155	-0.140901	0.10621	0.84655	-0.742974	-0.741913	0.492665	-0.232259	-0.753232	-0.517408	0.356475	0.013216	-0.173514	0.00330625	0.0146858	-0.236737	-0.159186	0.306685	-0.206967	0.210507	-0.406608	0.51545	-0.290539	-0.0729082	-1.07968	
4.17633	5	0	89.6616	30.425	0.641521	0.77164	0.293568	-0.167202	1.29641	-0.582702	-0.117755	0.0910865	0.865042	-0.730031	-0.718082	0.47545	-0.228269	-0.736371	-0.487663	0.337039	0.018242	-0.173087	0.0198185	0.0055485	-0.223876	-0.14517	0.312935	-0.213241	0.204744	-0.422445	0.491955	-0.309824	-0.0845265	-1.10514	
4.18243	5	0	89.4782	30.4946	0.637649	0.771306	0.300404	-0.171669	1.29837	-0.588249	-0.0946103	0.0759627	0.883535	-0.717087	-0.694251	0.458236	-0.22428	-0.719511	-0.457918	0.317604	0.023268	-0.17266	0.0363307	-0.00358875	-0.211015	-0.131155	0.319184	-0.219515	0.198982	-0.438283	0.468461	-0.329109	-0.0961448	-1.13061	
4.18243	5	0	89.2948	30.5641	0.633777	0.770971	0.30724	-0.176136	1.30034	-0.593796	-0.071465	0.060839	0.902027	-0.704143	-0.67042	0.441022	-0.22029	-0.70265	-0.428173	0.298168	0.028294	-0.172233	0.052843	-0.012726	-0.198154	-0.11714	0.325434	-0.225789	0.19322	-0.45412	0.444966	-0.348394	-0.107763	-1.15607	
4.18854	5	0	89.3178	30.4992	0.636413	0.763523	0.30724	-0.176136	1.29858	-0.599043	-0.054065	0.0494695	0.910557	-0.690886	-0.654585	0.43396	-0.221131	-0.693234	-0.398325	0.278664	0.0324695	-0.169391	0.0736165	-0.0262997	-0.186128	-0.100628	0.327449	-0.231484	0.195471	-0.460483	0.446732	-0.353386	-0.11773	-1.1715	
4.19006	5	0	89.3408	30.4342	0.639048	0.756074	0.30724	-0.176136	1.29683	-0.604291	-0.036665	0.0381	0.919087	-0.677629	-0.638749	0.426898	-0.221971	-0.683817	-0.368476	0.259161	0.036645	-0.166548	0.09439	-0.0398735	-0.174102	-0.0841155	0.329464	-0.23718	0.197723	-0.466846	0.448499	-0.358378	-0.127697	-1.18694	
4.19006	5	0	89.3637	30.3693	0.641683	0.748626	0.30724	-0.176136	1.29508	-0.609538	-0.019265	0.0267305	0.927617	-0.664372	-0.622914	0.419836	-0.222812	-0.674401	-0.338628	0.239657	0.0408205	-0.163706	0.115164	-0.0534473	-0.162077	-0.0676033	0.33148	-0.242875	0.199974	-0.473209	0.450265	-0.363369	-0.137664	-1.20237	
4.19311	5	0	89.3867	30.3043	0.644319	0.741178	0.30724	-0.176136	1.29333	-0.614785	-0.001865	0.015361	0.936147	-0.651115	-0.607078	0.412774	-0.223653	-0.664985	-0.30878	0.220153	0.044996	-0.160864	0.135937	-0.067021	-0.150051	-0.051091	0.333495	-0.248571	0.202226	-0.479572	0.452032	-0.368361	-0.147631	-1.2178	
4.19769	5	0	89.2078	30.3716	0.640365	0.752353	0.30724	-0.176136	1.29256	-0.622793	0.0148135	0.006108	0.950414	-0.63525	-0.580991	0.395728	-0.216401	-0.65729	-0.27358	0.198795	0.0550202	-0.152537	0.159476	-0.080749	-0.141474	-0.024696	0.34218	-0.238908	0.214477	-0.460629	0.461114	-0.351237	-0.135939	-1.22179	
4.19922	5	0	89.0289	30.439	0.63641	0.763528	0.30724	-0.176136	1.29178	-0.630801	0.031492	-0.003145	0.964681	-0.619384	-0.554905	0.378682	-0.20915	-0.649595	-0.23838	0.177438	0.0650445	-0.14421	0.183014	-0.094477	-0.132897	0.001699	0.350865	-0.229245	0.226729	-0.441686	0.470197	-0.334113	-0.124247	-1.22578	
4.19769	5	0	88.85	30.5063	0.632456	0.774702	0.30724	-0.176136	1.29101	-0.638809	0.0481705	-0.012398	0.978947	-0.603518	-0.528818	0.361637	-0.201898	-0.6419	-0.203181	0.156081	0.0750688	-0.135883	0.206553	-0.108205	-0.124319	0.028094	0.359549	-0.219582	0.238981	-0.422742	0.47928	-0.316989	-0.112554	-1.22976	
4.20685	5	0	88.6711	30.5736	0.628502	0.785877	0.30724	-0.176136	1.29024	-0.646817	0.064849	-0.021651	0.993214	-0.587653	-0.502731	0.344591	-0.194647	-0.634205	-0.167981	0.134723	0.085093	-0.127556	0.230092	-0.121933	-0.115742	0.054489	0.368234	-0.209919	0.251232	-0.403799	0.488362	-0.299865	-0.100862	-1.23375	
4.21905	5	0	88.8955	30.3778	0.634927	0.790281	0.31066	-0.178371	1.29044	-0.657576	0.0794057	-0.0311625	0.994538	-0.563237	-0.485296	0.333198	-0.198741	-0.622635	-0.134888	0.1131	0.0950843	-0.111708	0.25446	-0.137856	-0.100239	0.078404	0.382599	-0.181914	0.270837	-0.362393	0.51825	-0.276917	-0.0841987	-1.208	
4.22516	5	0	89.1199	30.182	0.641353	0.794684	0.31408	-0.180605	1.29064	-0.668335	0.0939625	-0.040674	0.995861	-0.538821	-0.46786	0.321805	-0.202834	-0.611066	-0.101796	0.0914765	0.105076	-0.09586	0.278828	-0.153779	-0.0847355	0.102319	0.396964	-0.153908	0.290442	-0.320986	0.548137	-0.25397	-0.0675355	-1.18225	
4.22974	5	0	89.3442	29.9861	0.647779	0.799087	0.3175	-0.18284	1.29085	-0.679094	0.108519	-0.0501855	0.997185	-0.514406	-0.450425	0.310413	-0.206928	-0.599496	-0.0687035	0.0698533	0.115067	-0.080012	0.303197	-0.169701	-0.0692322	0.126234	0.411328	-0.125903	0.310046	-0.279579	0.578025	-0.231022	-0.0508723	-1.15651	
4.23889	5	0	89.5686	29.7903	0.654204	0.803491	0.32092	-0.185075	1.29105	-0.689853	0.123076	-0.059697	0.998509	-0.48999	-0.432989	0.29902	-0.211022	-0.587926	-0.035611	0.04823	0.125058	-0.064164	0.327565	-0.185624	-0.053729	0.150149	0.425693	-0.097897	0.329651	-0.238173	0.607912	-0.208074	-0.034209	-1.13076	
4.2511	5	0	89.3894	29.8586	0.665662	0.827638	0.330433	-0.189648	1.30023	-0.685226	0.137658	-0.069225	1.00035	-0.476404	-0.412602	0.285699	-0.208595	-0.587732	0.00139225	0.0224085	0.134257	-0.0533445	0.352764	-0.203742	-0.0455538	0.169501	0.43887	-0.0777755	0.350036	-0.209303	0.622522	-0.184617	-0.0107573	-1.10925	
4.25873	5	0	89.2102	29.9268	0.677119	0.851784	0.339946	-0.194222	1.30941	-0.680599	0.152239	-0.078753	1.00219	-0.462819	-0.392216	0.272378	-0.206168	-0.587538	0.0383955	-0.003413	0.143456	-0.042525	0.377962	-0.22186	-0.0373785	0.188853	0.452047	-0.057654	0.37042	-0.180432	0.637132	-0.161159	0.0126945	-1.08774	
4.26941	5	0	89.0309	29.995	0.688577	0.87593	0.349458	-0.198795	1.31859	-0.675972	0.166821	-0.088281	1.00404	-0.449233	-0.37183	0.259057	-0.203741	-0.587343	0.0753988	-0.0292345	0.152654	-0.0317055	0.40316	-0.239978	-0.0292033	0.208204	0.465225	-0.0375325	0.390804	-0.151561	0.651742	-0.137702	0.0361463	-1.06623	
4.27551	5	0	88.8517	30.0633	0.700034	0.900077	0.358971	-0.203369	1.32778	-0.671345	0.181402	-0.097809	1.00588	-0.435647	-0.351443	0.245736	-0.201314	-0.587149	0.112402	-0.055056	0.161853	-0.020886	0.428359	-0.258096	-0.021028	0.227556	0.478402	-0.017411	0.411189	-0.122691	0.666352	-0.114244	0.059598	-1.04472	
4.28619	5	0	89.0309	29.995	0.728229	0.94536	0.379545	-0.216812	1.34029	-0.645405	0.19969	-0.111404	1.01865	-0.405815	-0.322235	0.226651	-0.190083	-0.562363	0.157172	-0.0826668	0.176828	0.0106437	0.459121	-0.276544	-0.00506925	0.259121	0.502778	0.0289563	0.444413	-0.0642735	0.709803	-0.0741825	0.093184	-0.992396	
4.28924	5	0	89.2102	29.9268	0.756424	0.990644	0.400118	-0.230256	1.3528	-0.619465	0.217977	-0.124998	1.03143	-0.375982	-0.293027	0.207566	-0.178852	-0.537577	0.201941	-0.110278	0.191804	0.0421735	0.489884	-0.294992	0.0108895	0.290686	0.527154	0.0753235	0.477637	-0.005856	0.753254	-0.034121	0.12677	-0.940076	
4.29687	5	0	89.3894	29.8586	0.784619	1.03593	0.420692	-0.243699	1.36531	-0.593525	0.236265	-0.138593	1.0442	-0.346149	-0.26382	0.188482	-0.167621	-0.51279	0.246711	-0.137888	0.20678	0.0737032	0.520646	-0.31344	0.0268483	0.322251	0.551531	0.121691	0.51086	0.0525615	0.796704	0.0059405	0.160356	-0.887757	
4.30298	5	0	89.5686	29.7903	0.812814	1.08121	0.441266	-0.257142	1.37783	-0.567585	0.254553	-0.152188	1.05697	-0.316317	-0.234612	0.169397	-0.15639	-0.488004	0.291481	-0.165499	0.221755	0.105233	0.551408	-0.331888	0.042807	0.353816	0.575907	0.168058	0.544084	0.110979	0.840155	0.046002	0.193942	-0.835437	
4.30145	5	0	89.5001	29.9838	0.835712	1.14231	0.468775	-0.275117	1.39189	-0.525281	0.292659	-0.177088	1.07594	-0.275331	-0.201612	0.146191	-0.129746	-0.449733	0.334947	-0.195543	0.246075	0.140388	0.591615	-0.361465	0.0587922	0.385622	0.593798	0.210217	0.569285	0.16031	0.864148	0.0875645	0.227694	-0.782414	
4.29993	5	0	89.4317	30.1772	0.85861	1.20341	0.496284	-0.293092	1.40595	-0.482978	0.330765	-0.201987	1.09491	-0.234345	-0.168612	0.122985	-0.103102	-0.411462	0.378412	-0.225587	0.270396	0.175544	0.631822	-0.391042	0.0747775	0.417428	0.611689	0.252376	0.594487	0.209642	0.88814	0.129127	0.261447	-0.729391	
4.29535	5	0	89.3632	30.3707	0.881507	1.2645	0.523793	-0.311067	1.42002	-0.440674	0.368872	-0.226886	1.11388	-0.193359	-0.135613	0.0997798	-0.076458	-0.37319	0.421878	-0.255632	0.294716	0.210699	0.672029	-0.420619	0.0907628	0.449234	0.629581	0.294535	0.619688	0.258973	0.912133	0.170689	0.295199	-0.676367	
4.29535	5	0	89.2948	30.5641	0.904405	1.3256	0.551302	-0.329042	1.43408	-0.39837	0.406978	-0.251786	1.13285	-0.152373	-0.102613	0.076574	-0.049814	-0.334919	0.465344	-0.285676	0.319036	0.245855	0.712236	-0.450196	0.106748	0.48104	0.647472	0.336694	0.64489	0.308305	0.936126	0.212252	0.328951	-0.623344	
4.28924	5	0	89.2483	30.6954	0.93642	1.39648	0.581599	-0.347196	1.45165	-0.344931	0.448206	-0.278725	1.15465	-0.0998475	-0.0613992	0.0496443	-0.020649	-0.288743	0.517494	-0.319751	0.344892	0.307209	0.753879	-0.475754	0.126613	0.52804	0.673149	0.392379	0.670885	0.378326	0.973643	0.271492	0.376484	-0.547896	
4.28161	5	0	89.2019	30.8268	0.968435	1.46737	0.611896	-0.365351	1.46921	-0.291492	0.489434	-0.305664	1.17646	-0.047322	-0.0201855	0.0227145	0.008516	-0.242566	0.569643	-0.353827	0.370748	0.368563	0.795521	-0.501312	0.146478	0.575041	0.698826	0.448064	0.69688	0.448348	1.01116	0.330732	0.424017	-0.472448	
4.27704	5	0	89.1554	30.9581	1.00045	1.53825	0.642194	-0.383505	1.48677	-0.238054	0.530662	-0.332603	1.19827	0.0052035	0.0210283	-0.00421525	0.037681	-0.19639	0.621793	-0.387903	0.396605	0.429916	0.837164	-0.52687	0.166343	0.622041	0.724503	0.503749	0.722875	0.518369	1.04868	0.389972	0.47155	-0.396999	
4.27093	5	0	89.1089	31.0894	1.03246	1.60913	0.672491	-0.401659	1.50434	-0.184615	0.57189	-0.359542	1.22007	0.057729	0.062242	-0.031145	0.066846	-0.150213	0.673943	-0.421978	0.422461	0.49127	0.878807	-0.552428	0.186208	0.669041	0.75018	0.559434	0.74887	0.58839	1.08619	0.449212	0.519083	-0.321551	
4.26636	5	0	89.0617	31.2227	1.0552	1.6843	0.709842	-0.424422	1.52188	-0.130543	0.610352	-0.384674	1.2415	0.102416	0.094764	-0.0523955	0.0944418	-0.0987078	0.726412	-0.456262	0.451032	0.545929	0.928543	-0.584927	0.205713	0.708967	0.776838	0.60146	0.780513	0.632401	1.11971	0.487768	0.563661	-0.26582	
4.26025	5	0	89.0146	31.356	1.07794	1.75946	0.747193	-0.447185	1.53942	-0.076471	0.648813	-0.409805	1.26293	0.147104	0.127286	-0.073646	0.122037	-0.0472025	0.77888	-0.490546	0.479602	0.600589	0.97828	-0.617426	0.225218	0.748893	0.803495	0.643485	0.812156	0.676411	1.15323	0.526324	0.608239	-0.210089	
4.2511	5	0	88.9674	31.4893	1.10068	1.83463	0.784545	-0.469948	1.55696	-0.022399	0.687275	-0.434937	1.28437	0.191792	0.159808	-0.0948965	0.149633	0.00430275	0.831349	-0.524831	0.508173	0.655249	1.02802	-0.649925	0.244724	0.78882	0.830153	0.685511	0.843798	0.720422	1.18674	0.56488	0.652817	-0.154359	
4.25262	5	0	88.9203	31.6226	1.12342	1.9098	0.821896	-0.492711	1.5745	0.031673	0.725736	-0.460069	1.3058	0.236479	0.19233	-0.116147	0.177229	0.055808	0.883818	-0.559115	0.536744	0.709908	1.07775	-0.682424	0.264229	0.828746	0.856811	0.727537	0.875441	0.764433	1.22026	0.603436	0.697395	-0.098628	
4.24805	5	0	89.0789	31.623	1.15291	1.97869	0.863662	-0.520002	1.60063	0.0829852	0.766593	-0.485121	1.33413	0.281568	0.230168	-0.139229	0.214103	0.10382	0.940573	-0.591271	0.568005	0.765563	1.13343	-0.715498	0.288155	0.874089	0.871606	0.78015	0.900864	0.815748	1.2535	0.654976	0.733429	-0.032321	
4.24194	5	0	89.2376	31.6233	1.18241	2.04758	0.905428	-0.547292	1.62675	0.134297	0.80745	-0.510172	1.36247	0.326657	0.268007	-0.162311	0.250978	0.151833	0.997329	-0.623427	0.599266	0.821217	1.18911	-0.748573	0.312081	0.919433	0.886402	0.832763	0.926287	0.867063	1.28673	0.706517	0.769462	0.033986	
4.24194	5	0	89.3963	31.6236	1.2119	2.11647	0.947194	-0.574583	1.65288	0.18561	0.848306	-0.535223	1.3908	0.371745	0.305845	-0.185393	0.287852	0.199845	1.05408	-0.655583	0.630528	0.876872	1.24478	-0.781647	0.336007	0.964776	0.901197	0.885375	0.951709	0.918378	1.31997	0.758058	0.805496	0.100293	
4.23736	5	0	89.555	31.624	1.24139	2.18536	0.98896	-0.601874	1.679	0.236922	0.889163	-0.560275	1.41914	0.416834	0.343684	-0.208475	0.324726	0.247857	1.11084	-0.687739	0.661789	0.932527	1.30046	-0.814721	0.359933	1.01012	0.915992	0.937988	0.977132	0.969693	1.3532	0.809598	0.84153	0.1666	
4.22821	5	0	89.5064	31.7614	1.25768	2.24545	1.02743	-0.627008	1.70169	0.277748	0.93098	-0.587599	1.44171	0.459614	0.378709	-0.229717	0.356881	0.288457	1.16011	-0.718286	0.6908	0.972674	1.34645	-0.843122	0.383188	1.04052	0.931622	0.96495	0.988488	0.993851	1.37388	0.841242	0.879931	0.196782	
4.22974	5	0	89.4578	31.8988	1.27397	2.30554	1.06589	-0.652141	1.72437	0.318574	0.972797	-0.614923	1.46428	0.502393	0.413733	-0.25096	0.389037	0.329056	1.20937	-0.748833	0.71981	1.01282	1.39245	-0.871522	0.406444	1.07092	0.947253	0.991912	0.999845	1.01801	1.39456	0.872885	0.918333	0.226963	
4.22974	5	0	89.4092	32.0362	1.29026	2.36563	1.10436	-0.677275	1.74705	0.359399	1.01461	-0.642247	1.48685	0.545173	0.448757	-0.272203	0.421192	0.369655	1.25863	-0.779379	0.748821	1.05297	1.43844	-0.899922	0.429699	1.10131	0.962883	1.01887	1.0112	1.04217	1.41524	0.904529	0.956735	0.257145	
4.22363	5	0	89.3606	32.1735	1.30655	2.42572	1.14282	-0.702409	1.76974	0.400225	1.05643	-0.669571	1.50942	0.587953	0.483782	-0.293445	0.453347	0.410255	1.3079	-0.809926	0.777832	1.09312	1.48444	-0.928323	0.452954	1.13171	0.978513	1.04584	1.02256	1.06633	1.43592	0.936173	0.995136	0.287327	
4.22363	5	0	89.336	32.243	1.32046	2.46938	1.17015	-0.718622	1.78307	0.43636	1.09769	-0.694889	1.53308	0.628266	0.519713	-0.316923	0.474708	0.452791	1.35431	-0.838604	0.797258	1.13804	1.53203	-0.952804	0.470403	1.17021	0.985362	1.07405	1.03393	1.09062	1.45526	0.960705	1.007	0.3313	
4.22211	5	0	89.3114	32.3125	1.33436	2.51305	1.19748	-0.734834	1.7964	0.472496	1.13896	-0.720206	1.55675	0.66858	0.555643	-0.3404	0.496069	0.495327	1.40071	-0.867282	0.816684	1.18297	1.57962	-0.977285	0.487851	1.20872	0.99221	1.10227	1.04529	1.11492	1.4746	0.985237	1.01887	0.375274	
4.22058	5	0	89.2868	32.382	1.34827	2.55672	1.2248	-0.751046	1.80973	0.508632	1.18022	-0.745524	1.58041	0.708893	0.591574	-0.363878	0.517429	0.537862	1.44712	-0.89596	0.83611	1.2279	1.62722	-1.00177	0.5053	1.24722	0.999059	1.13049	1.05666	1.13922	1.49394	1.00977	1.03074	0.419247	
4.22058	5	0	89.2622	32.4515	1.36217	2.60039	1.25213	-0.767259	1.82306	0.544767	1.22149	-0.770842	1.60407	0.749207	0.627505	-0.387356	0.53879	0.580398	1.49352	-0.924638	0.855536	1.27283	1.67481	-1.02625	0.522749	1.28572	1.00591	1.15871	1.06803	1.16351	1.51328	1.0343	1.0426	0.463221	
4.22058	5	0	89.2622	32.4515	1.3671	2.62214	1.26621	-0.776457	1.82832	0.561601	1.28188	-0.810303	1.64317	0.795717	0.660574	-0.408964	0.581383	0.622888	1.52752	-0.945206	0.887797	1.28976	1.72423	-1.05522	0.538219	1.30372	1.00384	1.17647	1.0607	1.18422	1.50373	1.06127	1.04586	0.485096	
4.21753	5	0	89.2622	32.4515	1.37202	2.64389	1.28028	-0.785655	1.83359	0.578436	1.34227	-0.849764	1.68227	0.842226	0.693643	-0.430573	0.623976	0.665378	1.56151	-0.965774	0.920057	1.3067	1.77364	-1.0842	0.553689	1.32172	1.00177	1.19423	1.05338	1.20492	1.49419	1.08825	1.04913	0.50697	
4.21753	5	0	89.2622	32.4515	1.37695	2.66563	1.29436	-0.794852	1.83886	0.595271	1.40266	-0.889224	1.72137	0.888736	0.726713	-0.452181	0.666568	0.707869	1.5955	-0.986341	0.952318	1.32363	1.82306	-1.11318	0.56916	1.33971	0.999705	1.21198	1.04605	1.22563	1.48464	1.11522	1.05239	0.528844	
4.21448	5	0	89.2622	32.4515	1.38187	2.68738	1.30843	-0.80405	1.84413	0.612105	1.46305	-0.928685	1.76047	0.935246	0.759782	-0.473789	0.709161	0.750359	1.6295	-1.00691	0.984579	1.34057	1.87247	-1.14216	0.58463	1.35771	0.997637	1.22974	1.03873	1.24633	1.4751	1.14219	1.05565	0.550719	
4.21448	5	0	89.4739	32.3132	1.37871	2.70824	1.31271	-0.80849	1.8438	0.623607	1.52998	-0.972415	1.8171	0.973356	0.799029	-0.499434	0.746168	0.787583	1.66439	-1.02971	1.00469	1.35356	1.917	-1.16463	0.600141	1.3758	0.992154	1.23332	1.03475	1.24628	1.46945	1.13551	1.04665	0.560611	
4.2099	5	0	89.6856	32.1749	1.37554	2.72909	1.31699	-0.81293	1.84348	0.63511	1.5969	-1.01615	1.87372	1.01147	0.838276	-0.525079	0.783175	0.824807	1.69928	-1.05251	1.0248	1.36655	1.96152	-1.18709	0.615653	1.39388	0.986671	1.23691	1.03077	1.24622	1.46379	1.12883	1.03764	0.570504	
4.20685	5	0	89.8972	32.0366	1.37238	2.74994	1.32127	-0.817369	1.84315	0.646613	1.66383	-1.05988	1.93035	1.04958	0.877523	-0.550724	0.820182	0.862031	1.73418	-1.07531	1.04492	1.37954	2.00605	-1.20956	0.631165	1.41197	0.981189	1.24049	1.02679	1.24616	1.45814	1.12214	1.02864	0.580396	
4.20685	5	0	90.1089	31.8983	1.36921	2.7708	1.32555	-0.821809	1.84283	0.658115	1.73075	-1.10361	1.98698	1.08769	0.91677	-0.576369	0.857189	0.899255	1.76907	-1.09811	1.06503	1.39253	2.05057	-1.23202	0.646676	1.43005	0.975706	1.24407	1.02281	1.24611	1.45249	1.11546	1.01964	0.590289	
4.2038	5	0	89.8972	32.0366	1.36546	2.75759	1.31147	-0.812608	1.8414	0.640994	1.75522	-1.11959	2.01175	1.08754	0.920553	-0.580484	0.874353	0.895754	1.78255	-1.10856	1.07139	1.38234	2.07706	-1.25099	0.652976	1.42998	0.974544	1.23545	1.01731	1.23909	1.44068	1.11489	1.02517	0.574653	
4.20227	5	0	89.6856	32.1749	1.36171	2.74438	1.29739	-0.803406	1.83997	0.623873	1.77969	-1.13558	2.03651	1.0874	0.924335	-0.584599	0.891517	0.892253	1.79603	-1.11901	1.07775	1.37214	2.10355	-1.26995	0.659277	1.4299	0.973381	1.22683	1.0118	1.23208	1.42888	1.11431	1.0307	0.559018	
4.19922	5	0	89.4739	32.3132	1.35796	2.73117	1.2833	-0.794204	1.83854	0.606752	1.80415	-1.15157	2.06128	1.08725	0.928118	-0.588713	0.908681	0.888751	1.80951	-1.12947	1.0841	1.36195	2.13004	-1.28892	0.665577	1.42983	0.972218	1.21821	1.00629	1.22507	1.41708	1.11373	1.03623	0.543382	
4.19464	5	0	89.2622	32.4515	1.35421	2.71796	1.26922	-0.785003	1.8371	0.589631	1.82862	-1.16755	2.08605	1.08711	0.931901	-0.592828	0.925845	0.88525	1.82299	-1.13992	1.09046	1.35175	2.15653	-1.30789	0.671877	1.42975	0.971056	1.20959	1.00079	1.21805	1.40527	1.11316	1.04177	0.527747	
4.18854	5	0	89.4491	32.3833	1.34671	2.69166	1.2489	-0.773366	1.83008	0.567226	1.81332	-1.15756	2.08031	1.06339	0.919801	-0.584922	0.912415	0.86322	1.82693	-1.14414	1.09082	1.32741	2.16465	-1.31485	0.668365	1.42195	0.965406	1.18989	0.993435	1.19376	1.39218	1.08247	1.02606	0.510041	
4.18701	5	0	89.636	32.315	1.3392	2.66536	1.22858	-0.761729	1.82305	0.544822	1.79802	-1.14756	2.07457	1.03966	0.907702	-0.577016	0.898985	0.84119	1.83087	-1.14836	1.09119	1.30307	2.17278	-1.32182	0.664852	1.41414	0.959755	1.17019	0.986084	1.16947	1.37908	1.05179	1.01036	0.492335	
4.18701	5	0	89.8229	32.2467	1.3317	2.63905	1.20825	-0.750093	1.81603	0.522417	1.78272	-1.13756	2.06882	1.01594	0.895603	-0.56911	0.885554	0.81916	1.83481	-1.15258	1.09155	1.27873	2.18091	-1.32879	0.661339	1.40634	0.954105	1.15049	0.978732	1.14517	1.36599	1.02111	0.994656	0.47463	
4.18548	5	0	90.0098	32.1785	1.32419	2.61275	1.18793	-0.738456	1.809	0.500012	1.76742	-1.12756	2.06308	0.992224	0.883503	-0.561204	0.872124	0.79713	1.83875	-1.1568	1.09191	1.25439	2.18904	-1.33576	0.657827	1.39854	0.948454	1.13079	0.97138	1.12088	1.35289	0.990424	0.978953	0.456924	
4.18396	5	0	90.0098	32.1785	1.29492	2.60081	1.15367	-0.717711	1.78981	0.470028	1.72548	-1.10181	2.05052	0.948081	0.856342	-0.543456	0.84701	0.756149	1.83314	-1.15477	1.08349	1.22389	2.19056	-1.34007	0.658949	1.37765	0.938414	1.11171	0.965559	1.1036	1.33698	0.967951	0.968576	0.439824	
4.18243	5	0	90.0098	32.1785	1.26565	2.58887	1.1194	-0.696966	1.77061	0.440043	1.68355	-1.07605	2.03796	0.903938	0.82918	-0.525708	0.821897	0.715168	1.82753	-1.15275	1.07508	1.19339	2.19209	-1.34437	0.660072	1.35677	0.928374	1.09263	0.959739	1.08631	1.32107	0.945478	0.958198	0.422724	
4.17633	5	0	90.0098	32.1785	1.23638	2.57693	1.08514	-0.676221	1.75142	0.410058	1.64161	-1.05029	2.0254	0.859795	0.802018	-0.50796	0.796783	0.674188	1.82192	-1.15073	1.06666	1.16289	2.19361	-1.34868	0.661194	1.33588	0.918335	1.07355	0.953918	1.06903	1.30516	0.923005	0.94782	0.405623	
4.17633	5	0	90.0098	32.1785	1.20711	2.56499	1.05088	-0.655476	1.73222	0.380074	1.59967	-1.02454	2.01284	0.815652	0.774857	-0.490212	0.77167	0.633207	1.81631	-1.14871	1.05824	1.1324	2.19514	-1.35299	0.662316	1.315	0.908295	1.05447	0.948097	1.05175	1.28925	0.900532	0.937443	0.388523	
4.17786	5	0	90.2018	32.1072	1.19448	2.52998	1.01676	-0.634824	1.71892	0.344286	1.53602	-0.982948	1.97735	0.757698	0.726781	-0.458798	0.736589	0.584117	1.79089	-1.1321	1.04544	1.099	2.18853	-1.35033	0.654908	1.29172	0.901466	1.02643	0.928892	1.02756	1.27573	0.860351	0.928902	0.366347	
4.17633	5	0	90.3939	32.036	1.18186	2.49497	0.982639	-0.614171	1.70561	0.308498	1.47238	-0.941361	1.94186	0.699744	0.678706	-0.427385	0.701507	0.535027	1.76547	-1.11549	1.03264	1.0656	2.18193	-1.34768	0.6475	1.26845	0.894637	0.998401	0.909687	1.00336	1.26222	0.820169	0.920362	0.344171	
4.17328	5	0	90.5859	31.9648	1.16924	2.45995	0.948519	-0.593519	1.69231	0.27271	1.40873	-0.899774	1.90636	0.64179	0.630631	-0.395971	0.666426	0.485938	1.74006	-1.09888	1.01984	1.0322	2.17533	-1.34502	0.640091	1.24518	0.887807	0.970368	0.890482	0.979167	1.2487	0.779988	0.911821	0.321996	
4.1748	5	0	90.778	31.8936	1.15661	2.42494	0.914399	-0.572867	1.679	0.236922	1.34509	-0.858186	1.87087	0.583836	0.582555	-0.364558	0.631345	0.436848	1.71464	-1.08227	1.00704	0.998802	2.16872	-1.34236	0.632683	1.22191	0.880978	0.942335	0.871277	0.954972	1.23519	0.739807	0.90328	0.29982	
4.17023	5	0	90.803	31.823	1.14515	2.39863	0.883132	-0.552436	1.66921	0.212355	1.28191	-0.816905	1.84701	0.523659	0.537728	-0.335267	0.600626	0.391255	1.68929	-1.06571	0.998602	0.968722	2.15186	-1.33465	0.628408	1.1987	0.869888	0.926465	0.861531	0.937823	1.21794	0.710498	0.894741	0.277755	
4.16717	5	0	90.828	31.7524	1.13369	2.37232	0.851865	-0.532006	1.65942	0.187787	1.21873	-0.775624	1.82315	0.463482	0.492901	-0.305976	0.569907	0.345661	1.66395	-1.04915	0.990162	0.938642	2.135	-1.32695	0.624132	1.17549	0.858798	0.910594	0.851785	0.920674	1.2007	0.681188	0.886201	0.25569	
4.16717	5	0	90.8529	31.6818	1.12223	2.34601	0.820597	-0.511575	1.64962	0.163219	1.15556	-0.734342	1.79929	0.403305	0.448073	-0.276685	0.539187	0.300067	1.63861	-1.03259	0.981723	0.908562	2.11814	-1.31924	0.619857	1.15228	0.847707	0.894724	0.842039	0.903524	1.18345	0.651879	0.877662	0.233624	
4.16412	0	5	90.8779	31.6112	1.11077	2.3197	0.78933	-0.491144	1.63983	0.138652	1.09238	-0.693061	1.77543	0.343128	0.403246	-0.247394	0.508468	0.254474	1.61326	-1.01603	0.973283	0.878482	2.10128	-1.31153	0.615581	1.12907	0.836617	0.878853	0.832293	0.886375	1.1662	0.622569	0.869123	0.211559	
4.16107	0	5	90.9027	31.5412	1.08997	2.29661	0.753966	-0.466394	1.62828	0.108781	1.02296	-0.646054	1.73819	0.292524	0.346043	-0.208373	0.469493	0.218598	1.58484	-0.997461	0.96212	0.856254	2.08737	-1.30409	0.611291	1.10597	0.828842	0.865496	0.826488	0.869331	1.15457	0.599893	0.85516	0.204935	
4.15954	0	5	90.9275	31.4711	1.06917	2.27352	0.718602	-0.441644	1.61674	0.0789095	0.953538	-0.599048	1.70094	0.241921	0.28884	-0.169352	0.430517	0.182722	1.55642	-0.978889	0.950957	0.834027	2.07345	-1.29665	0.607001	1.08286	0.821067	0.852139	0.820683	0.852287	1.14294	0.577216	0.841198	0.198312	
4.15954	0	5	90.9523	31.4011	1.04838	2.25042	0.683238	-0.416894	1.60519	0.0490383	0.884117	-0.552042	1.6637	0.191318	0.231637	-0.130331	0.391541	0.146846	1.528	-0.960318	0.939794	0.811799	2.05953	-1.28922	0.602712	1.05976	0.813291	0.838781	0.814879	0.835243	1.13131	0.554539	0.827236	0.191688	
4.15497	0	5	90.9771	31.331	1.02758	2.22733	0.647874	-0.392144	1.59364	0.019167	0.814696	-0.505035	1.62645	0.140714	0.174434	-0.09131	0.352566	0.11097	1.49958	-0.941746	0.928631	0.789571	2.04561	-1.28178	0.598422	1.03666	0.805516	0.825424	0.809074	0.818199	1.11968	0.531863	0.813273	0.185064	
4.15344	0	5	91.0016	31.2615	1.00825	2.20044	0.616845	-0.371869	1.58863	-0.00821825	0.746578	-0.460525	1.59541	0.0738653	0.112475	-0.0508248	0.319717	0.0661333	1.45944	-0.917166	0.915761	0.764675	2.02075	-1.26718	0.589684	1.00864	0.792345	0.815642	0.786399	0.804468	1.09973	0.510743	0.802956	0.168252	
4.15344	0	5	91.0262	31.192	0.988924	2.17355	0.585817	-0.351595	1.58362	-0.0356035	0.67846	-0.416015	1.56437	0.0070165	0.0505155	-0.0103395	0.286868	0.0212965	1.41931	-0.892586	0.902891	0.73978	1.99588	-1.25259	0.580946	0.980622	0.779174	0.805859	0.763723	0.790736	1.07978	0.489623	0.792638	0.151441	
4.15344	0	5	91.0508	31.1225	0.969597	2.14666	0.554789	-0.33132	1.57861	-0.0629887	0.610342	-0.371506	1.53333	-0.0598322	-0.0114438	0.0301457	0.254019	-0.0235402	1.37918	-0.868007	0.890021	0.714884	1.97102	-1.23799	0.572208	0.952603	0.766004	0.796077	0.741048	0.777004	1.05984	0.468504	0.78232	0.134629	
4.14886	0	5	91.0754	31.053	0.95027	2.11977	0.52376	-0.311045	1.57359	-0.090374	0.542224	-0.326996	1.50229	-0.126681	-0.073403	0.070631	0.22117	-0.068377	1.33905	-0.843427	0.877151	0.689988	1.94615	-1.2234	0.56347	0.924584	0.752833	0.786294	0.718373	0.763273	1.03989	0.447384	0.772003	0.117817	
4.15039	0	5	91.1481	30.8477	0.934941	2.0935	0.495517	-0.290948	1.56656	-0.111948	0.477571	-0.28475	1.47081	-0.18145	-0.129078	0.10701	0.196681	-0.107141	1.30223	-0.821014	0.868703	0.660419	1.925	-1.21124	0.560061	0.899159	0.743906	0.764637	0.69866	0.719411	0.994692	0.399203	0.751413	0.0844053	
4.15039	0	5	91.2207	30.6424	0.919612	2.06724	0.467274	-0.27085	1.55952	-0.133523	0.412917	-0.242504	1.43932	-0.236218	-0.184753	0.14339	0.172191	-0.145905	1.26542	-0.798602	0.860255	0.63085	1.90386	-1.19908	0.556652	0.873733	0.73498	0.742979	0.678948	0.67555	0.949493	0.351022	0.730824	0.0509935	
4.15192	0	5	91.2934	30.4371	0.904283	2.04098	0.439031	-0.250753	1.55249	-0.155097	0.348264	-0.200258	1.40783	-0.290987	-0.240428	0.179769	0.147702	-0.184669	1.2286	-0.77619	0.851806	0.601281	1.88271	-1.18691	0.553242	0.848308	0.726053	0.721321	0.659235	0.631688	0.904293	0.302841	0.710234	0.0175817	
4.15039	0	5	91.366	30.2318	0.888954	2.01472	0.410788	-0.230656	1.54545	-0.176672	0.28361	-0.158012	1.37635	-0.345756	-0.296103	0.216148	0.123213	-0.223433	1.19179	-0.753777	0.843358	0.571712	1.86157	-1.17475	0.549833	0.822883	0.717126	0.699664	0.639522	0.587827	0.859093	0.25466	0.689644	-0.01583	
4.15649	0	5	91.149	30.3736	0.878966	1.98516	0.394409	-0.221597	1.54017	-0.192786	0.233982	-0.125584	1.35993	-0.375588	-0.331081	0.239003	0.10277	-0.237295	1.17306	-0.741542	0.835592	0.563189	1.85504	-1.17214	0.551647	0.817756	0.721196	0.676458	0.621372	0.551056	0.830205	0.216313	0.669114	-0.0489632	
4.15649	0	5	90.9319	30.5154	0.868977	1.95559	0.378031	-0.212537	1.53489	-0.2089	0.184354	-0.093156	1.34352	-0.40542	-0.366059	0.261858	0.082327	-0.251158	1.15434	-0.729308	0.827826	0.554666	1.84851	-1.16952	0.553461	0.81263	0.725266	0.653253	0.603222	0.514285	0.801316	0.177965	0.648585	-0.0820965	
4.15802	0	5	90.7149	30.6572	0.858989	1.92603	0.361653	-0.203478	1.52961	-0.225015	0.134726	-0.060728	1.32711	-0.435252	-0.401036	0.284714	0.061884	-0.26502	1.13561	-0.717074	0.820059	0.546143	1.84198	-1.16691	0.555275	0.807504	0.729335	0.630047	0.585073	0.477515	0.772428	0.139618	0.628055	-0.11523	
4.15954	0	5	90.4979	30.7991	0.849001	1.89647	0.345274	-0.194419	1.52433	-0.241129	0.085098	-0.0283	1.3107	-0.465084	-0.436014	0.307569	0.041441	-0.278882	1.11689	-0.704839	0.812293	0.53762	1.83546	-1.1643	0.557089	0.802377	0.733405	0.606842	0.566923	0.440744	0.74354	0.101271	0.607525	-0.148363	
4.1687	0	5	90.5217	30.7317	0.834677	1.89085	0.334254	-0.185575	1.52257	-0.246488	0.0589405	-0.011208	1.30782	-0.475963	-0.447642	0.315167	0.033241	-0.277145	1.12388	-0.711051	0.807004	0.544959	1.84275	-1.16906	0.559708	0.812496	0.727884	0.599062	0.562684	0.430774	0.737152	0.097589	0.604244	-0.169375	
4.17938	0	5	90.5456	30.6643	0.820353	1.88523	0.323233	-0.176731	1.52081	-0.251847	0.032783	0.005884	1.30495	-0.486842	-0.459269	0.322765	0.025041	-0.275408	1.13088	-0.717263	0.801714	0.552297	1.85004	-1.17383	0.562327	0.822615	0.722363	0.591282	0.558445	0.420803	0.730765	0.093907	0.600963	-0.190387	
4.19922	0	5	90.5694	30.5969	0.806029	1.87961	0.312213	-0.167888	1.51905	-0.257205	0.0066255	0.022976	1.30207	-0.49772	-0.470896	0.330362	0.016841	-0.273671	1.13787	-0.723475	0.796425	0.559635	1.85732	-1.17859	0.564947	0.832735	0.716841	0.583502	0.554205	0.410832	0.724378	0.090225	0.597681	-0.211399	
4.216	0	5	90.5933	30.5295	0.791705	1.87398	0.301192	-0.159044	1.51729	-0.262564	-0.019532	0.040068	1.29919	-0.508599	-0.482524	0.33796	0.008641	-0.271934	1.14486	-0.729687	0.791136	0.566974	1.86461	-1.18335	0.567566	0.842854	0.71132	0.575722	0.549966	0.400862	0.71799	0.086543	0.5944	-0.232411	
4.23279	0	5	90.5694	30.5969	0.773292	1.88003	0.294356	-0.154577	1.50954	-0.250992	-0.0166297	0.0381715	1.30253	-0.4895	-0.470896	0.330362	0.0134065	-0.24966	1.17223	-0.745926	0.794332	0.596023	1.89597	-1.20054	0.583904	0.875733	0.708038	0.573317	0.550326	0.410817	0.723473	0.0927812	0.5944	-0.232411	
4.25262	0	5	90.5456	30.6643	0.754879	1.88608	0.28752	-0.15011	1.50179	-0.23942	-0.0137275	0.036275	1.30586	-0.470401	-0.459269	0.322765	0.018172	-0.227385	1.19959	-0.762164	0.797528	0.625072	1.92733	-1.21772	0.600242	0.908613	0.704755	0.570912	0.550685	0.420772	0.728956	0.0990195	0.5944	-0.232411	
4.26941	0	5	90.5217	30.7317	0.736467	1.89213	0.280684	-0.145644	1.49405	-0.227847	-0.0108252	0.0343785	1.30919	-0.451302	-0.447642	0.315167	0.0229375	-0.205111	1.22696	-0.778402	0.800724	0.654121	1.95869	-1.2349	0.61658	0.941492	0.701473	0.568506	0.551045	0.430728	0.734439	0.105258	0.5944	-0.232411	
4.28772	0	5	90.4979	30.7991	0.718054	1.89818	0.273848	-0.141177	1.4863	-0.216275	-0.007923	0.032482	1.31252	-0.432203	-0.436014	0.307569	0.027703	-0.182836	1.25432	-0.794641	0.80392	0.68317	1.99004	-1.25208	0.632918	0.974371	0.698191	0.566101	0.551405	0.440683	0.739922	0.111496	0.5944	-0.232411	
4.2984	0	5	90.6909	30.7252	0.71277	1.90163	0.277265	-0.14341	1.49156	-0.200151	0.0153322	0.0172865	1.32785	-0.38014	-0.404713	0.28876	0.0478422	-0.13211	1.30064	-0.823264	0.820895	0.726911	2.0375	-1.26653	0.651362	1.02817	0.695049	0.57498	0.561409	0.46737	0.739531	0.145248	0.604659	-0.215959	
4.31213	0	5	90.8839	30.6513	0.707487	1.90508	0.280683	-0.145643	1.49682	-0.184026	0.0385875	0.002091	1.34317	-0.328076	-0.373412	0.26995	0.0679815	-0.081384	1.34696	-0.851887	0.83787	0.770652	2.08496	-1.28099	0.669806	1.08198	0.691908	0.583859	0.571412	0.494057	0.73914	0.178999	0.614919	-0.199507	
4.32739	0	5	91.0769	30.5773	0.702203	1.90853	0.2841	-0.147876	1.50209	-0.167901	0.0618427	-0.0131045	1.35849	-0.276012	-0.34211	0.251141	0.0881207	-0.030658	1.39328	-0.88051	0.854844	0.814392	2.13242	-1.29544	0.688249	1.13578	0.688767	0.592737	0.581416	0.520744	0.73875	0.212751	0.625178	-0.183054	
4.33655	0	5	91.2699	30.5034	0.69692	1.91199	0.287517	-0.150109	1.50735	-0.151777	0.085098	-0.0283	1.37382	-0.223949	-0.310809	0.232332	0.10826	0.020068	1.4396	-0.909133	0.871819	0.858133	2.17988	-1.30989	0.706693	1.18958	0.685625	0.601616	0.59142	0.547431	0.738359	0.246503	0.635437	-0.166602	
4.34723	0	5	91.0286	30.7137	0.704512	1.92499	0.291692	-0.154479	1.51888	-0.122203	0.134726	-0.060728	1.40182	-0.168746	-0.261029	0.199804	0.140823	0.0725377	1.49341	-0.937715	0.890412	0.913161	2.22514	-1.30122	0.726792	1.25713	0.673835	0.611597	0.610752	0.581068	0.747055	0.276467	0.659582	-0.143611	
4.35791	0	5	90.7874	30.9239	0.712104	1.93799	0.295867	-0.15885	1.53041	-0.09263	0.184354	-0.093156	1.42982	-0.113543	-0.211249	0.167277	0.173385	0.125007	1.54722	-0.966298	0.909005	0.968189	2.27039	-1.29255	0.746891	1.32468	0.662044	0.621578	0.630085	0.614704	0.755752	0.30643	0.683727	-0.120619	
4.36859	0	5	90.5461	31.1342	0.719695	1.951	0.300042	-0.16322	1.54193	-0.0630565	0.233982	-0.125584	1.45782	-0.0583393	-0.161468	0.13475	0.205948	0.177477	1.60102	-0.994881	0.927598	1.02322	2.31565	-1.28388	0.766989	1.39222	0.650254	0.631558	0.649417	0.648341	0.764448	0.336394	0.707871	-0.0976275	
4.37622	0	5	90.3049	31.3444	0.727287	1.96401	0.304217	-0.167591	1.55346	-0.033483	0.28361	-0.158012	1.48583	-0.003136	-0.111688	0.102222	0.238511	0.229947	1.65483	-1.02346	0.946191	1.07824	2.36091	-1.27521	0.787088	1.45977	0.638463	0.641539	0.66875	0.681978	0.773145	0.366357	0.732016	-0.074636	
4.393	0	5	90.4975	31.2716	0.743642	1.99844	0.317906	-0.176535	1.57505	0.00955075	0.344557	-0.19619	1.51576	0.0669975	-0.0446312	0.0600495	0.274505	0.288475	1.71739	-1.04127	0.979048	1.12461	2.41829	-1.25915	0.824608	1.51484	0.630877	0.639668	0.674859	0.709006	0.769487	0.376694	0.758065	-0.0565777	
4.39911	0	5	90.6902	31.1987	0.759997	2.03287	0.331594	-0.18548	1.59665	0.0525845	0.405504	-0.234368	1.54569	0.137131	0.0224255	0.017877	0.310499	0.347002	1.77995	-1.05908	1.0119	1.17099	2.47567	-1.24308	0.862127	1.56991	0.62329	0.637797	0.680968	0.736034	0.76583	0.38703	0.784114	-0.0385195	
4.41131	0	5	90.8828	31.1259	0.776352	2.06731	0.345282	-0.194425	1.61824	0.0956183	0.46645	-0.272546	1.57563	0.207264	0.0894822	-0.0242955	0.346494	0.40553	1.8425	-1.07689	1.04476	1.21736	2.53305	-1.22701	0.899647	1.62498	0.615704	0.635926	0.687078	0.763063	0.762173	0.397366	0.810163	-0.0204613	
4.41742	0	5	91.0754	31.053	0.792707	2.10174	0.358971	-0.203369	1.63983	0.138652	0.527397	-0.310724	1.60556	0.277398	0.156539	-0.066468	0.382488	0.464058	1.90506	-1.0947	1.07762	1.26373	2.59044	-1.21095	0.937167	1.68005	0.608118	0.634055	0.693187	0.790091	0.758515	0.407703	0.836212	-0.002403	
4.42657	0	5	90.8828	31.1259	0.799553	2.1518	0.352124	-0.198895	1.65284	0.185547	0.594734	-0.353077	1.64782	0.363012	0.230106	-0.112894	0.41769	0.533596	1.96474	-1.08899	1.10224	1.33441	2.63749	-1.16396	0.967925	1.77378	0.595189	0.635681	0.711043	0.817397	0.748016	0.404631	0.858769	0.0259773	
4.43268	0	5	90.6902	31.1987	0.806399	2.20187	0.345277	-0.194421	1.66585	0.232442	0.662071	-0.39543	1.69009	0.448627	0.303673	-0.15932	0.452892	0.603135	2.02441	-1.08327	1.12687	1.40508	2.68454	-1.11697	0.998682	1.86751	0.582261	0.637308	0.728899	0.844703	0.737517	0.40156	0.881326	0.0543575	
4.44488	0	5	90.4975	31.2716	0.813244	2.25194	0.33843	-0.189947	1.67886	0.279338	0.729407	-0.437783	1.73235	0.534242	0.37724	-0.205746	0.488094	0.672673	2.08409	-1.07756	1.1515	1.47576	2.73159	-1.06998	1.02944	1.96124	0.569332	0.638934	0.746754	0.872009	0.727017	0.398489	0.903883	0.0827377	
4.45404	0	5	90.3049	31.3444	0.82009	2.302	0.331583	-0.185473	1.69187	0.326233	0.796744	-0.480136	1.77461	0.619856	0.450807	-0.252172	0.523296	0.742211	2.14376	-1.07184	1.17613	1.54644	2.77863	-1.02299	1.0602	2.05498	0.556403	0.64056	0.76461	0.899315	0.716518	0.395417	0.92644	0.111118	
4.46167	0	5	90.5461	31.1342	0.831365	2.32818	0.317149	-0.174399	1.69548	0.368516	0.862388	-0.523029	1.81068	0.695501	0.517506	-0.297399	0.554551	0.802113	2.20063	-1.07069	1.20939	1.5859	2.82411	-0.994676	1.09772	2.10389	0.544546	0.639223	0.775845	0.923313	0.694668	0.391854	0.966975	0.120114	
4.46777	0	5	90.7874	30.9239	0.842641	2.35435	0.302716	-0.163325	1.69909	0.410799	0.928031	-0.565922	1.84675	0.771146	0.584206	-0.342626	0.585807	0.862014	2.2575	-1.06953	1.24265	1.62536	2.86958	-0.966364	1.13523	2.15281	0.532689	0.637886	0.787079	0.94731	0.672818	0.38829	1.00751	0.129109	
4.47235	0	5	91.0286	30.7137	0.853916	2.38053	0.288282	-0.152251	1.70269	0.453083	0.993675	-0.608815	1.88281	0.84679	0.650905	-0.387852	0.617062	0.921916	2.31437	-1.06838	1.27591	1.66481	2.91506	-0.938053	1.17275	2.20172	0.520832	0.636549	0.798314	0.971308	0.650969	0.384726	1.04805	0.138105	
