4.46014	0	0	1.40526	1.32919	0.951503	2.22541	1.36538	1.42477	0.988803	0.606174	1.77667	-0.261509	2.51378	0.11835	0.65483	-0.770315	1.08163	-0.180231	1.72961	-0.372618	1.69925	-0.257258	1.67803	-0.951506	2.33037	0.096425	2.42683	1.45629	1.80658	0.326994	2.04046	1.42613	0.745536	0.359109	
4.4693	0	0	1.40393	1.35532	0.950209	2.25652	1.36516	1.4343	0.984836	0.617386	1.78371	-0.258499	2.51551	0.113458	0.655715	-0.772815	1.08843	-0.188094	1.73248	-0.372501	1.70276	-0.25638	1.67524	-0.954401	2.32903	0.0875543	2.42401	1.46428	1.81913	0.327501	2.046	1.44282	0.745536	0.359109	
4.46777	0	0	1.4026	1.38145	0.948915	2.28762	1.36494	1.44383	0.980868	0.628599	1.79075	-0.255489	2.51724	0.108565	0.6566	-0.775316	1.09523	-0.195957	1.73535	-0.372385	1.70626	-0.255502	1.67245	-0.957296	2.32768	0.0786835	2.42118	1.47226	1.83169	0.328008	2.05153	1.4595	0.745536	0.359109	
4.47082	0	0	1.40127	1.40758	0.947621	2.31873	1.36472	1.45337	0.976901	0.639811	1.79778	-0.25248	2.51897	0.103673	0.657484	-0.777817	1.10203	-0.20382	1.73823	-0.372268	1.70977	-0.254625	1.66966	-0.960192	2.32634	0.0698128	2.41836	1.48025	1.84424	0.328515	2.05707	1.47619	0.745536	0.359109	
4.47082	0	0	1.39994	1.43372	0.946327	2.34984	1.3645	1.4629	0.972934	0.651023	1.80482	-0.24947	2.5207	0.098781	0.658369	-0.780317	1.10883	-0.211683	1.7411	-0.372151	1.71327	-0.253747	1.66688	-0.963087	2.32499	0.060942	2.41553	1.48823	1.8568	0.329022	2.0626	1.49287	0.745536	0.359109	
4.46777	0	0	1.38238	1.44979	0.938262	2.3589	1.35243	1.4614	0.958824	0.645882	1.80043	-0.244698	2.50529	0.101338	0.648767	-0.775965	1.10153	-0.213747	1.74512	-0.358816	1.71532	-0.248745	1.66966	-0.960192	2.33082	0.0571303	2.42147	1.51513	1.86419	0.356227	2.07677	1.52849	0.749704	0.368484	
4.46472	0	0	1.36482	1.46587	0.930198	2.36796	1.34035	1.4599	0.944715	0.64074	1.79604	-0.239926	2.48987	0.103896	0.639166	-0.771613	1.09423	-0.215811	1.74915	-0.345481	1.71736	-0.243744	1.67245	-0.957296	2.33666	0.0533185	2.42741	1.54202	1.87159	0.383432	2.09093	1.56411	0.753872	0.377859	
4.46319	0	0	1.34726	1.48195	0.922133	2.37703	1.32827	1.4584	0.930605	0.635599	1.79165	-0.235155	2.47446	0.106453	0.629565	-0.767261	1.08692	-0.217874	1.75318	-0.332146	1.71941	-0.238742	1.67524	-0.954401	2.34249	0.0495068	2.43334	1.56892	1.87898	0.410637	2.10509	1.59973	0.758039	0.387234	
4.45862	0	0	1.3297	1.49803	0.914068	2.38609	1.3162	1.4569	0.916496	0.630458	1.78726	-0.230383	2.45904	0.10901	0.619963	-0.762909	1.07962	-0.219938	1.75721	-0.318811	1.72146	-0.23374	1.67803	-0.951506	2.34832	0.045695	2.43928	1.59582	1.88637	0.437842	2.11926	1.63535	0.762207	0.396609	
4.45709	0	0	1.32439	1.51301	0.911646	2.40666	1.3106	1.45493	0.912644	0.630106	1.78812	-0.240459	2.45683	0.0879525	0.613951	-0.776253	1.08069	-0.234282	1.75605	-0.332029	1.72643	-0.236986	1.67292	-0.969367	2.3383	0.0360253	2.43644	1.60384	1.88519	0.453226	2.11077	1.65934	0.764992	0.388737	
4.44946	0	0	1.31909	1.528	0.909224	2.42724	1.305	1.45296	0.908793	0.629754	1.78899	-0.250534	2.45463	0.066895	0.607939	-0.789597	1.08175	-0.248626	1.7549	-0.345248	1.7314	-0.240233	1.66781	-0.987229	2.32828	0.0263555	2.43359	1.61187	1.88401	0.468609	2.10228	1.68333	0.767778	0.380865	
4.44794	0	0	1.31379	1.54299	0.906803	2.44781	1.29941	1.45099	0.904941	0.629403	1.78985	-0.26061	2.45242	0.0458375	0.601927	-0.802941	1.08281	-0.262971	1.75374	-0.358466	1.73636	-0.243479	1.66269	-1.00509	2.31825	0.0166857	2.43075	1.6199	1.88282	0.483992	2.09379	1.70732	0.770563	0.372994	
4.44488	0	0	1.30849	1.55797	0.904381	2.46839	1.29381	1.44902	0.901089	0.629051	1.79072	-0.270686	2.45022	0.02478	0.595915	-0.816285	1.08387	-0.277315	1.75259	-0.371684	1.74133	-0.246725	1.65758	-1.02295	2.30823	0.007016	2.42791	1.62793	1.88164	0.499376	2.0853	1.73131	0.773348	0.365122	
4.44183	0	0	1.30814	1.5813	0.905812	2.5056	1.29208	1.4539	0.903506	0.644701	1.79071	-0.278276	2.44001	0.0127542	0.597717	-0.828953	1.08544	-0.281748	1.75155	-0.376985	1.74192	-0.23759	1.64259	-1.03429	2.30688	-0.00181475	2.4328	1.64328	1.89306	0.515357	2.09296	1.75303	0.767775	0.380873	
4.44336	0	0	1.3078	1.60462	0.907243	2.5428	1.29036	1.45878	0.905923	0.660351	1.79069	-0.285867	2.42981	0.0007285	0.599519	-0.841622	1.08701	-0.286181	1.75051	-0.382286	1.74251	-0.228454	1.62759	-1.04563	2.30553	-0.0106455	2.43769	1.65863	1.90448	0.531339	2.10062	1.77475	0.762202	0.396624	
4.44641	0	0	1.30746	1.62795	0.908674	2.58001	1.28863	1.46366	0.908341	0.676	1.79068	-0.293457	2.41961	-0.0112972	0.60132	-0.85429	1.08858	-0.290615	1.74947	-0.387588	1.7431	-0.219318	1.61259	-1.05696	2.30418	-0.0194763	2.44258	1.67399	1.9159	0.54732	2.10828	1.79647	0.756629	0.412374	
4.44794	0	0	1.30712	1.65127	0.910105	2.61722	1.2869	1.46854	0.910758	0.69165	1.79066	-0.301047	2.40941	-0.023323	0.603122	-0.866958	1.09015	-0.295048	1.74843	-0.392889	1.74369	-0.210183	1.59759	-1.0683	2.30282	-0.028307	2.44747	1.68934	1.92732	0.563301	2.11594	1.8182	0.751056	0.428125	
4.45709	0	0	1.30109	1.64596	0.910105	2.61722	1.27359	1.45289	0.90966	0.672271	1.77924	-0.306861	2.38905	-0.0472575	0.58751	-0.868229	1.07921	-0.298116	1.73616	-0.382873	1.74135	-0.192756	1.58648	-1.07977	2.29268	-0.0249142	2.46011	1.71211	1.94599	0.595272	2.1298	1.84425	0.771952	0.432674	
4.45099	0	0	1.29505	1.64066	0.910105	2.61722	1.26028	1.43723	0.908563	0.652891	1.76782	-0.312675	2.3687	-0.071192	0.571899	-0.869499	1.06828	-0.301183	1.72388	-0.372857	1.739	-0.175328	1.57538	-1.09125	2.28254	-0.0215215	2.47274	1.73488	1.96467	0.627242	2.14367	1.87029	0.792847	0.437224	
4.45404	0	0	1.28902	1.63535	0.910105	2.61722	1.24697	1.42158	0.907465	0.633512	1.7564	-0.31849	2.34835	-0.0951265	0.556287	-0.870769	1.05734	-0.304251	1.7116	-0.362841	1.73666	-0.157901	1.56427	-1.10272	2.2724	-0.0181287	2.48538	1.75764	1.98334	0.659212	2.15754	1.89634	0.813743	0.441774	
4.45709	0	0	1.28299	1.63004	0.910105	2.61722	1.23367	1.40592	0.906368	0.614133	1.74497	-0.324304	2.328	-0.119061	0.540675	-0.87204	1.0464	-0.307319	1.69932	-0.352825	1.73432	-0.140474	1.55316	-1.1142	2.26225	-0.014736	2.49802	1.78041	2.00201	0.691183	2.17141	1.92239	0.834639	0.446323	
4.45099	0	0	1.27164	1.63976	0.90129	2.64213	1.22831	1.39448	0.898671	0.613431	1.73968	-0.339771	2.31562	-0.151701	0.536432	-0.89025	1.04901	-0.326017	1.68385	-0.366594	1.7273	-0.142253	1.53378	-1.13419	2.25092	-0.0331557	2.49128	1.78481	2.01047	0.691569	2.17522	1.91162	0.82487	0.452707	
4.45099	0	0	1.2603	1.64949	0.892476	2.66704	1.22296	1.38304	0.890975	0.612729	1.73439	-0.355237	2.30325	-0.184341	0.53219	-0.908459	1.05163	-0.344715	1.66839	-0.380364	1.72029	-0.144031	1.51439	-1.15419	2.23959	-0.0515755	2.48454	1.78922	2.01892	0.691955	2.17903	1.90086	0.815101	0.45909	
4.44946	0	0	1.24896	1.65921	0.883662	2.69195	1.2176	1.3716	0.883278	0.612027	1.7291	-0.370704	2.29088	-0.216982	0.527948	-0.926669	1.05424	-0.363413	1.65293	-0.394134	1.71327	-0.145809	1.49501	-1.17418	2.22826	-0.0699952	2.4778	1.79362	2.02738	0.69234	2.18283	1.89009	0.805332	0.465474	
4.45099	0	0	1.23761	1.66893	0.874847	2.71686	1.21225	1.36015	0.875581	0.611325	1.72381	-0.386171	2.27851	-0.249622	0.523705	-0.944879	1.05685	-0.382111	1.63746	-0.407903	1.70625	-0.147588	1.47562	-1.19418	2.21693	-0.088415	2.47107	1.79802	2.03584	0.692726	2.18664	1.87932	0.795563	0.471857	
4.44641	0	0	1.23549	1.67495	0.872346	2.7377	1.20518	1.35358	0.871736	0.610974	1.71502	-0.399304	2.25657	-0.268429	0.522019	-0.955195	1.04957	-0.384138	1.62671	-0.42665	1.69778	-0.145233	1.46012	-1.21424	2.20266	-0.0983958	2.47494	1.80171	2.04445	0.70486	2.19071	1.87874	0.802535	0.47338	
4.44183	0	0	1.23336	1.68097	0.869846	2.75854	1.19811	1.34702	0.867892	0.610622	1.70624	-0.412437	2.23463	-0.287236	0.520332	-0.96551	1.04229	-0.386165	1.61597	-0.445398	1.68931	-0.142877	1.44463	-1.2343	2.18839	-0.108377	2.47881	1.8054	2.05307	0.716993	2.19477	1.87815	0.809506	0.474904	
4.44336	0	0	1.23123	1.68698	0.867345	2.77938	1.19105	1.34045	0.864047	0.61027	1.69746	-0.42557	2.21269	-0.306043	0.518646	-0.975826	1.03501	-0.388191	1.60522	-0.464145	1.68084	-0.140522	1.42913	-1.25437	2.17413	-0.118357	2.48269	1.80909	2.06169	0.729127	2.19883	1.87756	0.816477	0.476427	
4.44031	0	0	1.2291	1.693	0.864844	2.80022	1.18398	1.33388	0.860202	0.609919	1.68867	-0.438703	2.19076	-0.32485	0.51696	-0.986142	1.02773	-0.390218	1.59447	-0.482892	1.67237	-0.138167	1.41363	-1.27443	2.15986	-0.128338	2.48656	1.81278	2.0703	0.741261	2.20289	1.87698	0.823449	0.47795	
4.43573	0	0	1.22327	1.67602	0.860275	2.79936	1.18056	1.30824	0.846274	0.593301	1.68163	-0.45668	2.17227	-0.353061	0.505809	-1.00732	1.01631	-0.403069	1.57351	-0.488955	1.66741	-0.134925	1.39499	-1.28538	2.14415	-0.134121	2.48569	1.84455	2.06797	0.784415	2.21249	1.8935	0.819203	0.511198	
4.43268	0	0	1.21745	1.65904	0.855707	2.7985	1.17713	1.28259	0.832345	0.576682	1.67459	-0.474657	2.15378	-0.381271	0.494658	-1.02849	1.00489	-0.41592	1.55255	-0.495017	1.66245	-0.131682	1.37635	-1.29633	2.12845	-0.139903	2.48482	1.87631	2.06563	0.82757	2.22209	1.91002	0.814958	0.544446	
4.4281	0	0	1.21162	1.64206	0.851139	2.79764	1.1737	1.25695	0.818416	0.560063	1.66754	-0.492634	2.1353	-0.409482	0.483507	-1.04967	0.99347	-0.428771	1.53159	-0.50108	1.65749	-0.12844	1.3577	-1.30728	2.11274	-0.145685	2.48396	1.90807	2.0633	0.870725	2.23169	1.92654	0.810713	0.577694	
4.4281	0	0	1.20579	1.62508	0.84657	2.79678	1.17028	1.2313	0.804488	0.543445	1.6605	-0.510611	2.11681	-0.437693	0.472356	-1.07084	0.98205	-0.441622	1.51063	-0.507143	1.65252	-0.125197	1.33906	-1.31823	2.09703	-0.151468	2.48309	1.93983	2.06096	0.913879	2.24128	1.94306	0.806467	0.610942	
4.42657	0	0	1.20385	1.61943	0.849368	2.80264	1.16813	1.21973	0.805901	0.528274	1.66047	-0.518104	2.1129	-0.453371	0.470664	-1.08109	0.983606	-0.446018	1.49892	-0.530983	1.64204	-0.127876	1.32577	-1.3441	2.09154	-0.173471	2.47922	1.93611	2.06096	0.913879	2.2348	1.92865	0.809277	0.603	
4.42352	0	0	1.20191	1.61378	0.852166	2.80851	1.16599	1.20816	0.807314	0.513103	1.66045	-0.525596	2.10898	-0.469048	0.468973	-1.09133	0.985161	-0.450414	1.48721	-0.554823	1.63156	-0.130555	1.31248	-1.36997	2.08604	-0.195473	2.47535	1.93239	2.06096	0.913879	2.22831	1.91423	0.812088	0.595058	
4.41894	0	0	1.19996	1.60814	0.854963	2.81437	1.16384	1.19659	0.808728	0.497932	1.66042	-0.533088	2.10507	-0.484726	0.467282	-1.10158	0.986716	-0.45481	1.47549	-0.578663	1.62107	-0.133233	1.29919	-1.39585	2.08054	-0.217476	2.47148	1.92867	2.06096	0.913879	2.22183	1.89981	0.814898	0.587117	
4.41894	0	0	1.19802	1.60249	0.857761	2.82024	1.16169	1.18502	0.810141	0.482761	1.6604	-0.540581	2.10115	-0.500404	0.46559	-1.11183	0.988272	-0.459206	1.46378	-0.602503	1.61059	-0.135912	1.28591	-1.42172	2.07504	-0.239479	2.46761	1.92494	2.06096	0.913879	2.21535	1.8854	0.817708	0.579175	
4.42047	0	0	1.20297	1.61079	0.853458	2.84618	1.16254	1.18261	0.810141	0.482761	1.66131	-0.528032	2.09668	-0.501123	0.468126	-1.09645	0.999175	-0.456186	1.45889	-0.613043	1.61465	-0.125857	1.276	-1.4359	2.07076	-0.239874	2.47391	1.93646	2.07394	0.938284	2.22972	1.88843	0.821877	0.588668	
4.41742	0	0	1.20792	1.61909	0.849155	2.87212	1.1634	1.1802	0.810141	0.482761	1.66223	-0.515482	2.09221	-0.501843	0.470662	-1.08107	1.01008	-0.453167	1.454	-0.623583	1.61871	-0.115803	1.2661	-1.45007	2.06648	-0.240268	2.48021	1.94798	2.08692	0.962689	2.2441	1.89147	0.826045	0.59816	
4.41589	0	0	1.21286	1.62738	0.844853	2.89806	1.16425	1.17779	0.810141	0.482761	1.66314	-0.502933	2.08774	-0.502563	0.473199	-1.0657	1.02098	-0.450148	1.44912	-0.634123	1.62277	-0.105748	1.2562	-1.46425	2.0622	-0.240663	2.48652	1.9595	2.0999	0.987095	2.25848	1.8945	0.830214	0.607653	
4.41284	0	0	1.21781	1.63568	0.84055	2.92401	1.1651	1.17539	0.810141	0.482761	1.66406	-0.490384	2.08327	-0.503282	0.475735	-1.05032	1.03189	-0.447128	1.44423	-0.644663	1.62683	-0.095693	1.2463	-1.47843	2.05792	-0.241058	2.49282	1.97101	2.11288	1.0115	2.27286	1.89754	0.834383	0.617146	
4.41437	0	0	1.22276	1.64399	0.842327	2.91898	1.16766	1.16817	0.811544	0.467627	1.6693	-0.490048	2.07322	-0.514894	0.472303	-1.05565	1.03553	-0.446121	1.43279	-0.65285	1.62593	-0.0823725	1.23431	-1.48662	2.03789	-0.23435	2.50399	1.99824	2.12321	1.05589	2.27482	1.93577	0.837071	0.65217	
4.40826	0	0	1.22771	1.65231	0.844104	2.91396	1.17021	1.16094	0.812947	0.452492	1.67454	-0.489711	2.06317	-0.526505	0.468871	-1.06099	1.03916	-0.445115	1.42135	-0.661037	1.62503	-0.069052	1.22232	-1.4948	2.01786	-0.227643	2.51517	2.02546	2.13353	1.10028	2.27678	1.974	0.839759	0.687195	
4.41437	0	0	1.23266	1.66062	0.84588	2.90894	1.17277	1.15372	0.814349	0.437358	1.67978	-0.489375	2.05312	-0.538116	0.465439	-1.06632	1.0428	-0.444108	1.40991	-0.669224	1.62413	-0.0557315	1.21033	-1.50298	1.99783	-0.220936	2.52634	2.05269	2.14386	1.14467	2.27874	2.01223	0.842447	0.72222	
4.41742	0	0	1.23761	1.66893	0.847657	2.90392	1.17532	1.1465	0.815752	0.422223	1.68502	-0.489039	2.04307	-0.549728	0.462007	-1.07165	1.04644	-0.443101	1.39847	-0.677411	1.62323	-0.042411	1.19834	-1.51116	1.97779	-0.214228	2.53751	2.07991	2.15418	1.18906	2.2807	2.05046	0.845135	0.757244	
4.41894	0	0	1.25249	1.69398	0.849681	2.92579	1.18239	1.15299	0.828568	0.419532	1.69207	-0.471036	2.0414	-0.545004	0.466283	-1.06118	1.06155	-0.429232	1.3927	-0.685361	1.63723	-0.0388002	1.1912	-1.52248	1.98073	-0.22252	2.5385	2.09187	2.16709	1.20179	2.28984	2.04658	0.85346	0.776435	
4.41589	0	0	1.26736	1.71902	0.851706	2.94766	1.18946	1.15948	0.841384	0.416841	1.69912	-0.453033	2.03973	-0.54028	0.470558	-1.05071	1.07665	-0.415363	1.38692	-0.693311	1.65122	-0.0351895	1.18406	-1.5338	1.98366	-0.230813	2.53948	2.10382	2.18	1.21453	2.29897	2.0427	0.861785	0.795626	
4.42505	0	0	1.28224	1.74407	0.85373	2.96954	1.19652	1.16597	0.854201	0.414151	1.70617	-0.435029	2.03806	-0.535557	0.474834	-1.04024	1.09176	-0.401495	1.38115	-0.701262	1.66522	-0.0315788	1.17693	-1.54511	1.9866	-0.239105	2.54046	2.11578	2.1929	1.22726	2.3081	2.03882	0.870111	0.814816	
4.42505	0	0	1.29711	1.76911	0.855754	2.99141	1.20359	1.17246	0.867017	0.41146	1.71322	-0.417026	2.03638	-0.530833	0.47911	-1.02977	1.10687	-0.387626	1.37537	-0.709212	1.67921	-0.027968	1.16979	-1.55643	1.98953	-0.247397	2.54144	2.12774	2.20581	1.23999	2.31723	2.03494	0.878436	0.834007	
4.42963	0	0	1.30684	1.79769	0.855972	3.01843	1.20725	1.18862	0.868239	0.419196	1.72203	-0.39631	2.0375	-0.520654	0.484194	-1.00649	1.1173	-0.360389	1.37448	-0.706672	1.68588	-0.00353475	1.16916	-1.56513	1.99233	-0.242853	2.54775	2.13939	2.21883	1.26488	2.32879	2.04618	0.889614	0.845234	
4.42963	0	0	1.31657	1.82628	0.856191	3.04545	1.21091	1.20478	0.869461	0.426932	1.73084	-0.375594	2.03861	-0.510475	0.489278	-0.983209	1.12774	-0.333153	1.37358	-0.704133	1.69254	0.0208985	1.16853	-1.57383	1.99513	-0.238309	2.55406	2.15105	2.23186	1.28976	2.34036	2.05743	0.900792	0.856461	
4.43115	0	0	1.3263	1.85486	0.856409	3.07246	1.21457	1.22094	0.870684	0.434667	1.73965	-0.354878	2.03973	-0.500297	0.494362	-0.959926	1.13818	-0.305916	1.37268	-0.701593	1.6992	0.0453317	1.1679	-1.58254	1.99794	-0.233764	2.56038	2.1627	2.24488	1.31465	2.35192	2.06867	0.91197	0.867689	
4.42963	0	0	1.33604	1.88344	0.856627	3.09948	1.21823	1.2371	0.871906	0.442403	1.74846	-0.334162	2.04084	-0.490118	0.499446	-0.936644	1.14862	-0.278679	1.37178	-0.699054	1.70587	0.069765	1.16727	-1.59124	2.00074	-0.22922	2.56669	2.17436	2.25791	1.33953	2.36349	2.07992	0.923148	0.878916	
4.42963	0	0	1.33583	1.89526	0.854837	3.10454	1.2223	1.23444	0.874525	0.435001	1.75373	-0.333812	2.02914	-0.497013	0.500322	-0.93912	1.15228	-0.277656	1.36409	-0.709634	1.7079	0.07485	1.1526	-1.60212	1.99367	-0.234162	2.56863	2.19841	2.26243	1.37626	2.35697	2.10933	0.931492	0.89825	
4.4281	0	0	1.33562	1.90708	0.853047	3.1096	1.22637	1.23178	0.877144	0.427598	1.75899	-0.333462	2.01744	-0.503907	0.501198	-0.941596	1.15594	-0.276633	1.3564	-0.720215	1.70993	0.079935	1.13793	-1.613	1.9866	-0.239104	2.57057	2.22247	2.26695	1.41298	2.35046	2.13873	0.939836	0.917584	
4.42963	0	0	1.33541	1.9189	0.851257	3.11466	1.23044	1.22912	0.879763	0.420196	1.76426	-0.333113	2.00575	-0.510802	0.502075	-0.944073	1.1596	-0.275609	1.34872	-0.730796	1.71197	0.08502	1.12326	-1.62388	1.97953	-0.244045	2.57251	2.24652	2.27147	1.4497	2.34395	2.16814	0.948181	0.936918	
4.42963	0	0	1.33521	1.93073	0.849467	3.11971	1.2345	1.22646	0.882382	0.412794	1.76952	-0.332763	1.99405	-0.517697	0.502951	-0.946549	1.16326	-0.274586	1.34103	-0.741376	1.714	0.090105	1.10859	-1.63476	1.97247	-0.248987	2.57445	2.27058	2.276	1.48643	2.33743	2.19754	0.956525	0.956252	
4.42505	0	0	1.34643	1.93276	0.858622	3.12152	1.24179	1.22356	0.897851	0.402686	1.77128	-0.330122	1.98849	-0.528571	0.502075	-0.944073	1.16692	-0.273562	1.3409	-0.749081	1.71253	0.094279	1.10733	-1.65207	1.96967	-0.253525	2.5798	2.27026	2.28318	1.49092	2.3454	2.18604	0.980519	0.953	
4.42047	0	0	1.35766	1.93478	0.867777	3.12332	1.24908	1.22065	0.91332	0.392578	1.77304	-0.32748	1.98293	-0.539446	0.501198	-0.941596	1.17058	-0.272539	1.34077	-0.756785	1.71105	0.098453	1.10606	-1.66938	1.96687	-0.258062	2.58515	2.26993	2.29037	1.49541	2.35336	2.17454	1.00451	0.949748	
4.422	0	0	1.36888	1.93681	0.876932	3.12512	1.25637	1.21775	0.92879	0.382471	1.77481	-0.324839	1.97737	-0.55032	0.500322	-0.93912	1.17424	-0.271516	1.34064	-0.76449	1.70957	0.102627	1.10479	-1.6867	1.96407	-0.2626	2.59049	2.26961	2.29755	1.49991	2.36132	2.16304	1.02851	0.946497	
4.41894	0	0	1.38011	1.93884	0.886087	3.12692	1.26366	1.21484	0.944259	0.372363	1.77657	-0.322198	1.97181	-0.561195	0.499446	-0.936644	1.17791	-0.270492	1.34051	-0.772195	1.70809	0.106801	1.10353	-1.70401	1.96127	-0.267138	2.59584	2.26929	2.30474	1.5044	2.36929	2.15155	1.0525	0.943245	
4.41742	0	0	1.38184	1.95647	0.891666	3.13887	1.25938	1.22693	0.945492	0.380095	1.77219	-0.317439	1.96292	-0.562631	0.50288	-0.931268	1.18	-0.26502	1.34525	-0.769451	1.71512	0.108634	1.10561	-1.7099	1.967	-0.270881	2.60216	2.28105	2.3192	1.52567	2.37967	2.15526	1.06377	0.954565	
4.41894	0	0	1.38358	1.9741	0.897245	3.15082	1.25511	1.23903	0.946725	0.387827	1.76781	-0.312681	1.95403	-0.564066	0.506314	-0.925892	1.18209	-0.259547	1.34999	-0.766708	1.72214	0.110467	1.10769	-1.71578	1.97273	-0.274624	2.60848	2.2928	2.33367	1.54694	2.39005	2.15897	1.07504	0.965884	
4.41589	0	0	1.38531	1.99174	0.902824	3.16277	1.25083	1.25112	0.947958	0.395559	1.76343	-0.307922	1.94515	-0.565501	0.509748	-0.920515	1.18418	-0.254075	1.35473	-0.763965	1.72916	0.112301	1.10978	-1.72167	1.97846	-0.278367	2.61479	2.30455	2.34813	1.56821	2.40043	2.16268	1.08631	0.977204	
4.41589	0	0	1.38705	2.00937	0.908403	3.17472	1.24655	1.26321	0.949191	0.403291	1.75905	-0.303163	1.93626	-0.566937	0.513182	-0.915139	1.18627	-0.248603	1.35947	-0.761221	1.73619	0.114134	1.11186	-1.72756	1.98419	-0.28211	2.62111	2.3163	2.3626	1.58947	2.41081	2.1664	1.09757	0.988523	
4.41437	0	0	1.38294	2.0097	0.911994	3.16458	1.24761	1.25136	0.951811	0.395886	1.74677	-0.306514	1.92185	-0.579203	0.500223	-0.916195	1.17371	-0.247236	1.35229	-0.74093	1.74026	0.124338	1.0985	-1.72109	1.98406	-0.269287	2.63767	2.34375	2.38152	1.63586	2.42484	2.19304	1.11729	1.01943	
4.41131	0	0	1.37883	2.01004	0.915585	3.15443	1.24867	1.23952	0.954431	0.388481	1.73449	-0.309864	1.90744	-0.59147	0.487264	-0.917251	1.16115	-0.245869	1.34511	-0.720639	1.74433	0.134541	1.08514	-1.71463	1.98393	-0.256463	2.65422	2.3712	2.40045	1.68224	2.43886	2.21968	1.13701	1.05034	
4.41437	0	0	1.37473	2.01037	0.919175	3.14428	1.24973	1.22767	0.957052	0.381076	1.72221	-0.313215	1.89303	-0.603736	0.474304	-0.918307	1.1486	-0.244502	1.33793	-0.700348	1.7484	0.144744	1.07178	-1.70816	1.9838	-0.24364	2.67078	2.39865	2.41938	1.72862	2.45289	2.24633	1.15673	1.08125	
4.42657	0	0	1.37062	2.01071	0.922766	3.13413	1.25079	1.21582	0.959672	0.373671	1.70993	-0.316566	1.87862	-0.616002	0.461345	-0.919363	1.13604	-0.243135	1.33075	-0.680057	1.75247	0.154948	1.05841	-1.70169	1.98367	-0.230816	2.68733	2.42611	2.4383	1.775	2.46692	2.27297	1.17644	1.11215	
4.43573	0	0	1.3797	2.01888	0.932952	3.147	1.25466	1.22259	0.968624	0.382063	1.70905	-0.321668	1.86811	-0.612743	0.462221	-0.921839	1.13761	-0.247579	1.32986	-0.677517	1.75302	0.16425	1.05299	-1.70719	1.98647	-0.226268	2.68829	2.43828	2.45427	1.79257	2.47832	2.27397	1.20203	1.12689	
4.45557	0	0	1.38878	2.02705	0.943137	3.15986	1.25853	1.22935	0.977575	0.390455	1.70817	-0.32677	1.85761	-0.609484	0.463097	-0.924314	1.13918	-0.252023	1.32896	-0.674978	1.75358	0.173552	1.04756	-1.71268	1.98927	-0.22172	2.68924	2.45046	2.47023	1.81015	2.48972	2.27497	1.22761	1.14162	
4.47693	0	0	1.39786	2.03521	0.953323	3.17273	1.2624	1.23612	0.986527	0.398847	1.70728	-0.331872	1.8471	-0.606224	0.463973	-0.92679	1.14076	-0.256467	1.32806	-0.672439	1.75413	0.182855	1.04213	-1.71818	1.99207	-0.217173	2.6902	2.46264	2.4862	1.82772	2.50113	2.27597	1.25319	1.15636	
4.49524	0	0	1.40695	2.04338	0.963509	3.1856	1.26627	1.24288	0.995479	0.407239	1.7064	-0.336974	1.83659	-0.602965	0.464849	-0.929265	1.14233	-0.260911	1.32716	-0.669899	1.75468	0.192157	1.03671	-1.72368	1.99487	-0.212625	2.69116	2.47482	2.50216	1.84529	2.51253	2.27698	1.27877	1.17109	
4.5105	0	0	1.41147	2.07581	0.980311	3.2217	1.26973	1.26858	1.00683	0.442724	1.70729	-0.324299	1.84045	-0.587433	0.471664	-0.910845	1.15016	-0.24893	1.33574	-0.661822	1.76282	0.212675	1.03878	-1.72955	1.99753	-0.195194	2.70923	2.49834	2.52259	1.8883	2.52443	2.29887	1.29572	1.21064	
4.52423	0	0	1.41599	2.10825	0.997112	3.2578	1.27318	1.29429	1.01818	0.47821	1.70819	-0.311623	1.84431	-0.5719	0.47848	-0.892425	1.158	-0.23695	1.34432	-0.653744	1.77096	0.233193	1.04086	-1.73543	2.00019	-0.177764	2.7273	2.52187	2.54302	1.9313	2.53633	2.32076	1.31267	1.25019	
4.53338	0	0	1.42051	2.14068	1.01391	3.2939	1.27663	1.31999	1.02953	0.513695	1.70908	-0.298948	1.84817	-0.556368	0.485295	-0.874005	1.16583	-0.224969	1.3529	-0.645667	1.7791	0.25371	1.04294	-1.7413	2.00285	-0.160333	2.74537	2.5454	2.56346	1.9743	2.54822	2.34266	1.32962	1.28974	
4.54407	0	0	1.42503	2.17311	1.03072	3.33	1.28008	1.34569	1.04089	0.54918	1.70998	-0.286273	1.85203	-0.540836	0.49211	-0.855585	1.17367	-0.212988	1.36148	-0.63759	1.78723	0.274228	1.04502	-1.74718	2.00551	-0.142902	2.76344	2.56892	2.58389	2.01731	2.56012	2.36455	1.34656	1.32929	
4.54559	0	0	1.42588	2.18202	1.02989	3.34631	1.27987	1.35518	1.04467	0.56107	1.70823	-0.281339	1.84703	-0.526717	0.485953	-0.838184	1.17418	-0.20304	1.35991	-0.61697	1.79185	0.293901	1.03919	-1.74111	2.01672	-0.124585	2.77261	2.61789	2.60729	2.07788	2.57346	2.40485	1.38513	1.37431	
4.55322	0	0	1.42674	2.19093	1.02906	3.36261	1.27965	1.36467	1.04845	0.57296	1.70649	-0.276405	1.84203	-0.512597	0.479795	-0.820782	1.17469	-0.193093	1.35833	-0.596349	1.79646	0.313574	1.03336	-1.73504	2.02793	-0.106269	2.78178	2.66687	2.63069	2.13846	2.5868	2.44515	1.4237	1.41933	
4.55475	0	0	1.42759	2.19983	1.02823	3.37892	1.27944	1.37415	1.05223	0.584849	1.70474	-0.271471	1.83704	-0.498478	0.473638	-0.803381	1.1752	-0.183145	1.35676	-0.575729	1.80107	0.333247	1.02753	-1.72898	2.03914	-0.0879517	2.79095	2.71584	2.65409	2.19904	2.60014	2.48546	1.46227	1.46436	
4.55627	0	0	1.42844	2.20874	1.02741	3.39522	1.27922	1.38364	1.05601	0.596739	1.703	-0.266537	1.83204	-0.484358	0.467481	-0.78598	1.17571	-0.173197	1.35519	-0.555109	1.80568	0.35292	1.0217	-1.72291	2.05036	-0.069635	2.80012	2.76481	2.67748	2.25961	2.61348	2.52576	1.50084	1.50938	
4.55932	0	0	1.42383	2.23311	1.03861	3.41954	1.27791	1.4051	1.06357	0.620611	1.70037	-0.259131	1.83204	-0.484358	0.470023	-0.778069	1.18146	-0.166661	1.3411	-0.555703	1.7966	0.345882	1.00713	-1.73368	2.04047	-0.0792142	2.80347	2.78538	2.68332	2.29405	2.62201	2.53517	1.51363	1.53963	
4.55627	0	0	1.41922	2.25747	1.04981	3.44387	1.27661	1.42655	1.07113	0.644483	1.69775	-0.251725	1.83204	-0.484358	0.472564	-0.770158	1.18722	-0.160125	1.327	-0.556297	1.78752	0.338843	0.992561	-1.74446	2.03059	-0.0887935	2.80682	2.80596	2.68915	2.32849	2.63054	2.54458	1.52642	1.56988	
4.5517	0	0	1.4146	2.28183	1.06101	3.46819	1.2753	1.44801	1.07869	0.668356	1.69513	-0.244319	1.83204	-0.484358	0.475105	-0.762247	1.19297	-0.153588	1.31291	-0.556891	1.77843	0.331805	0.977991	-1.75524	2.0207	-0.0983728	2.81017	2.82653	2.69499	2.36293	2.63908	2.554	1.53921	1.60012	
4.54864	0	0	1.40999	2.30619	1.07221	3.49251	1.27399	1.46947	1.08625	0.692228	1.69251	-0.236913	1.83204	-0.484358	0.477647	-0.754336	1.19872	-0.147052	1.29881	-0.557485	1.76935	0.324767	0.96342	-1.76601	2.01082	-0.107952	2.81352	2.8471	2.70082	2.39736	2.64761	2.56341	1.55201	1.63037	
4.54712	0	0	1.41856	2.33871	1.08622	3.52311	1.28149	1.49277	1.09113	0.723771	1.69427	-0.23426	1.81987	-0.476407	0.487924	-0.738024	1.20131	-0.131551	1.28756	-0.557966	1.75677	0.316806	0.946821	-1.77091	1.99816	-0.122069	2.81536	2.87201	2.70954	2.43656	2.65319	2.58123	1.58961	1.65762	
4.54254	0	0	1.42713	2.37123	1.10024	3.5537	1.28899	1.51607	1.09601	0.755314	1.69602	-0.231606	1.80771	-0.468456	0.4982	-0.721712	1.20391	-0.116049	1.27631	-0.558447	1.74419	0.308846	0.930222	-1.77581	1.98549	-0.136185	2.81719	2.89691	2.71827	2.47575	2.65877	2.59906	1.62721	1.68487	
4.53644	0	0	1.4357	2.40375	1.11425	3.5843	1.29648	1.53936	1.1009	0.786857	1.69777	-0.228953	1.79554	-0.460506	0.508476	-0.705401	1.2065	-0.100548	1.26506	-0.558929	1.73161	0.300885	0.913623	-1.78071	1.97283	-0.150302	2.81902	2.92182	2.72699	2.51495	2.66435	2.61688	1.66481	1.71212	
4.53186	0	0	1.44426	2.43627	1.12827	3.6149	1.30398	1.56266	1.10578	0.8184	1.69952	-0.2263	1.78337	-0.452555	0.518753	-0.689089	1.20909	-0.085047	1.25381	-0.55941	1.71903	0.292925	0.897024	-1.78561	1.96017	-0.164418	2.82086	2.94673	2.73572	2.55414	2.66993	2.6347	1.70242	1.73936	
4.52576	0	0	1.43656	2.45804	1.12187	3.64704	1.29381	1.58251	1.0991	0.837293	1.68902	-0.21944	1.76515	-0.44065	0.519463	-0.668377	1.20116	-0.0626252	1.23998	-0.544499	1.70605	0.30787	0.880062	-1.77901	1.94577	-0.148618	2.829	2.98404	2.74286	2.61088	2.68107	2.67056	1.72088	1.7992	
4.52118	0	0	1.42885	2.47982	1.11548	3.67919	1.28363	1.60235	1.09241	0.856186	1.67853	-0.21258	1.74693	-0.428744	0.520173	-0.647665	1.19322	-0.0402035	1.22615	-0.529589	1.69308	0.322816	0.863101	-1.77242	1.93137	-0.132818	2.83714	3.02136	2.74999	2.66762	2.69222	2.70642	1.73933	1.85903	
4.5166	0	0	1.42115	2.5016	1.10908	3.71134	1.27346	1.6222	1.08573	0.875078	1.66803	-0.205719	1.72871	-0.416839	0.520883	-0.626953	1.18529	-0.0177817	1.21232	-0.514679	1.6801	0.337761	0.84614	-1.76583	1.91697	-0.117018	2.84529	3.05867	2.75713	2.72436	2.70337	2.74227	1.75779	1.91886	
4.51507	0	0	1.41344	2.52338	1.10269	3.74348	1.26329	1.64204	1.07904	0.893971	1.65753	-0.198859	1.71049	-0.404934	0.521593	-0.606241	1.17735	0.00464	1.19849	-0.499768	1.66713	0.352707	0.829178	-1.75924	1.90257	-0.101218	2.85343	3.09599	2.76427	2.7811	2.71452	2.77813	1.77625	1.97869	
4.50897	0	0	1.41176	2.55087	1.11292	3.75684	1.26689	1.65859	1.07877	0.917452	1.65928	-0.196201	1.70003	-0.40172	0.523242	-0.595741	1.18151	0.015745	1.18628	-0.50549	1.66012	0.350818	0.818447	-1.77017	1.89553	-0.106204	2.83738	3.12624	2.76263	2.81145	2.70854	2.79503	1.78305	2.02701	
4.50592	0	0	1.41008	2.57836	1.12316	3.7702	1.27049	1.67513	1.0785	0.940932	1.66103	-0.193544	1.68957	-0.398506	0.524892	-0.58524	1.18567	0.02685	1.17408	-0.511213	1.65311	0.34893	0.807717	-1.78109	1.8885	-0.111189	2.82133	3.15649	2.76098	2.8418	2.70256	2.81194	1.78984	2.07534	
4.50439	0	0	1.4084	2.60585	1.13339	3.78356	1.2741	1.69167	1.07823	0.964413	1.66277	-0.190886	1.67911	-0.395292	0.526541	-0.57474	1.18983	0.037955	1.16187	-0.516935	1.6461	0.347042	0.796986	-1.79202	1.88146	-0.116175	2.80529	3.18674	2.75934	2.87215	2.69658	2.82884	1.79663	2.12366	
4.49829	0	0	1.40672	2.63334	1.14363	3.79691	1.2777	1.70822	1.07796	0.987894	1.66452	-0.188228	1.66865	-0.392078	0.52819	-0.564239	1.19398	0.04906	1.14966	-0.522657	1.6391	0.345153	0.786256	-1.80295	1.87443	-0.121161	2.78924	3.217	2.7577	2.90251	2.69059	2.84574	1.80343	2.17199	
4.49371	0	0	1.4171	2.67238	1.14088	3.84706	1.27666	1.74685	1.07869	1.03132	1.66802	-0.167662	1.67244	-0.376431	0.539296	-0.542465	1.20806	0.0780175	1.14876	-0.520114	1.64215	0.369063	0.776778	-1.79675	1.87279	-0.104116	2.7925	3.238	2.75591	2.94619	2.69096	2.86722	1.83531	2.21769	
4.49371	0	0	1.42749	2.71143	1.13813	3.89721	1.27563	1.78548	1.07943	1.07475	1.67151	-0.147095	1.67623	-0.360784	0.550403	-0.520692	1.22213	0.106975	1.14786	-0.517571	1.64521	0.392974	0.767301	-1.79056	1.87116	-0.0870705	2.79575	3.25901	2.75412	2.98987	2.69133	2.88869	1.86718	2.26339	
4.49676	0	0	1.43787	2.75047	1.13538	3.94735	1.27459	1.82411	1.08017	1.11817	1.675	-0.126528	1.68001	-0.345137	0.561509	-0.498918	1.2362	0.135933	1.14696	-0.515027	1.64827	0.416884	0.757823	-1.78437	1.86953	-0.0700252	2.79901	3.28001	2.75234	3.03355	2.69169	2.91017	1.89906	2.30909	
4.50134	0	0	1.44826	2.78951	1.13263	3.9975	1.27355	1.86274	1.08091	1.1616	1.67849	-0.105962	1.68379	-0.32949	0.572615	-0.477144	1.25027	0.16489	1.14606	-0.512484	1.65133	0.440795	0.748346	-1.77818	1.86789	-0.05298	2.80227	3.30102	2.75055	3.07723	2.69206	2.93164	1.93094	2.35479	
4.50897	0	0	1.44762	2.81417	1.12983	4.01958	1.27065	1.87988	1.08328	1.17769	1.68021	-0.080332	1.66873	-0.286907	0.569705	-0.446088	1.25584	0.206615	1.15186	-0.496686	1.66391	0.481418	0.74422	-1.76652	1.88031	-0.0258132	2.80483	3.33918	2.77237	3.11896	2.70514	2.96235	1.95675	2.41862	
4.51813	0	0	1.44698	2.83883	1.12702	4.04166	1.26775	1.89702	1.08565	1.19378	1.68193	-0.054702	1.65366	-0.244324	0.566794	-0.415033	1.26142	0.24834	1.15765	-0.480889	1.67649	0.522042	0.740095	-1.75486	1.89274	0.0013535	2.8074	3.37735	2.79419	3.1607	2.71823	2.99306	1.98257	2.48244	
4.52728	0	0	1.44634	2.8635	1.12421	4.06375	1.26484	1.91415	1.08803	1.20987	1.68364	-0.029072	1.63859	-0.201741	0.563883	-0.383977	1.26699	0.290065	1.16344	-0.465091	1.68907	0.562665	0.73597	-1.7432	1.90516	0.0285202	2.80996	3.41551	2.81601	3.20243	2.73131	3.02376	2.00838	2.54627	
4.53796	0	0	1.4457	2.88816	1.1214	4.08583	1.26194	1.93129	1.0904	1.22597	1.68536	-0.003442	1.62353	-0.159158	0.560973	-0.352921	1.27256	0.33179	1.16924	-0.449293	1.70165	0.603288	0.731844	-1.73154	1.91758	0.055687	2.81252	3.45368	2.83783	3.24417	2.7444	3.05447	2.0342	2.6101	
4.54101	0	0	1.44089	2.91319	1.11206	4.11224	1.26226	1.94827	1.0809	1.25281	1.69147	0.00981725	1.63231	-0.157602	0.562685	-0.350143	1.28779	0.346389	1.17194	-0.456942	1.7112	0.619959	0.728563	-1.74284	1.92463	0.060736	2.80318	3.4498	2.83187	3.24807	2.74204	3.03853	2.04281	2.63158	
4.54407	0	0	1.43608	2.93823	1.10271	4.13865	1.26259	1.96524	1.0714	1.27966	1.69759	0.0230765	1.64109	-0.156045	0.564397	-0.347365	1.30302	0.360988	1.17465	-0.464591	1.72076	0.636629	0.725282	-1.75413	1.93167	0.065785	2.79383	3.44593	2.8259	3.25196	2.73969	3.0226	2.05142	2.65307	
4.5517	0	0	1.43126	2.96327	1.09337	4.16507	1.26291	1.98222	1.0619	1.30651	1.7037	0.0363357	1.64988	-0.154489	0.566109	-0.344587	1.31825	0.375588	1.17735	-0.472241	1.73031	0.6533	0.722001	-1.76543	1.93872	0.070834	2.78449	3.44205	2.81994	3.25586	2.73734	3.00666	2.06003	2.67455	
4.5517	0	0	1.42645	2.98831	1.08402	4.19148	1.26323	1.99919	1.0524	1.33336	1.70981	0.049595	1.65866	-0.152932	0.567821	-0.341809	1.33348	0.390187	1.18006	-0.47989	1.73987	0.669971	0.71872	-1.77673	1.94577	0.075883	2.77514	3.43818	2.81398	3.25976	2.73498	2.99072	2.06864	2.69604	
4.5517	0	0	1.42688	3.00999	1.08768	4.20946	1.26265	2.01871	1.05338	1.35342	1.71331	0.0549903	1.65427	-0.15371	0.576551	-0.343615	1.34135	0.402641	1.17996	-0.487659	1.74893	0.677176	0.714409	-1.78509	1.94281	0.0842645	2.7782	3.42953	2.81245	3.26406	2.72743	2.97822	2.08784	2.71071	
4.55017	0	0	1.42731	3.03167	1.09135	4.22743	1.26208	2.03824	1.05435	1.37348	1.71681	0.0603855	1.64987	-0.154489	0.585282	-0.345421	1.34921	0.415094	1.17986	-0.495428	1.75799	0.684381	0.710098	-1.79345	1.93984	0.092646	2.78126	3.42089	2.81093	3.26836	2.71988	2.96572	2.10705	2.72538	
4.54559	0	0	1.42774	3.05335	1.09501	4.2454	1.26151	2.05776	1.05533	1.39355	1.72031	0.0657807	1.64548	-0.155267	0.594012	-0.347226	1.35707	0.427547	1.17977	-0.503196	1.76706	0.691587	0.705787	-1.80182	1.93687	0.101028	2.78432	3.41224	2.80941	3.27267	2.71233	2.95323	2.12625	2.74005	
4.54864	0	0	1.42817	3.07504	1.09867	4.26337	1.26093	2.07728	1.05631	1.41361	1.72381	0.071176	1.64109	-0.156045	0.602742	-0.349032	1.36493	0.440001	1.17967	-0.510965	1.77612	0.698792	0.701476	-1.81018	1.93391	0.109409	2.78738	3.4036	2.80789	3.27697	2.70479	2.94073	2.14545	2.75472	
4.54254	0	0	1.43042	3.06868	1.08199	4.25391	1.25622	2.07269	1.05261	1.40123	1.7089	0.0674765	1.61647	-0.165448	0.587981	-0.353023	1.3506	0.445848	1.16657	-0.514142	1.76605	0.705374	0.68507	-1.81508	1.91964	0.112287	2.78042	3.40814	2.81829	3.27348	2.70997	2.93734	2.15094	2.78531	
4.53949	0	0	1.43267	3.06232	1.06531	4.24444	1.25151	2.0681	1.04892	1.38885	1.694	0.063777	1.59185	-0.174852	0.573221	-0.357015	1.33626	0.451694	1.15348	-0.517318	1.75597	0.711956	0.668664	-1.81998	1.90538	0.115164	2.77346	3.41269	2.8287	3.26999	2.71516	2.93395	2.15643	2.81589	
4.53033	0	0	1.43492	3.05597	1.04863	4.23497	1.2468	2.06352	1.04522	1.37648	1.6791	0.0600775	1.56723	-0.184255	0.55846	-0.361006	1.32192	0.457541	1.14038	-0.520494	1.7459	0.718539	0.652257	-1.82488	1.89111	0.118041	2.7665	3.41724	2.83911	3.26649	2.72035	2.93056	2.16192	2.84648	
4.52576	0	0	1.43717	3.04961	1.03195	4.22551	1.24209	2.05893	1.04152	1.3641	1.66419	0.056378	1.54262	-0.193659	0.543699	-0.364997	1.30758	0.463388	1.12729	-0.523671	1.73583	0.725121	0.635851	-1.82979	1.87685	0.120919	2.75954	3.42179	2.84952	3.263	2.72553	2.92717	2.16741	2.87707	
4.51813	0	0	1.43302	3.04988	1.01994	4.21711	1.24062	2.05415	1.02734	1.3586	1.652	0.0299085	1.52705	-0.2414	0.537084	-0.399487	1.2956	0.439601	1.10467	-0.54786	1.71875	0.696968	0.614605	-1.85148	1.85746	0.088651	2.73633	3.42699	2.8182	3.28678	2.69429	2.93671	2.16857	2.8969	
4.5166	0	0	1.42887	3.05014	1.00792	4.2087	1.23914	2.04937	1.01317	1.3531	1.63982	0.003439	1.51149	-0.289141	0.53047	-0.433976	1.28362	0.415814	1.08206	-0.572048	1.70168	0.668816	0.593359	-1.87317	1.83807	0.056383	2.71313	3.4322	2.78688	3.31056	2.66305	2.94625	2.16972	2.91674	
4.51355	0	0	1.42473	3.05041	0.995913	4.2003	1.23767	2.04459	0.998988	1.3476	1.62763	-0.0230305	1.49593	-0.336881	0.523856	-0.468466	1.27164	0.392028	1.05944	-0.596237	1.68461	0.640663	0.572113	-1.89486	1.81868	0.024115	2.68992	3.4374	2.75556	3.33433	2.63181	2.9558	2.17088	2.93657	
4.5105	0	0	1.42058	3.05068	0.983902	4.1919	1.2362	2.03981	0.98481	1.34211	1.61544	-0.0495	1.48037	-0.384622	0.517241	-0.502955	1.25966	0.368241	1.03683	-0.620426	1.66754	0.61251	0.550867	-1.91655	1.79929	-0.008153	2.66672	3.44261	2.72424	3.35811	2.60056	2.96534	2.17203	2.9564	
4.50439	0	0	1.42853	3.0626	0.983902	4.1919	1.23679	2.04708	0.982094	1.34978	1.59803	-0.0685865	1.45057	-0.404683	0.513955	-0.52399	1.24769	0.344589	1.02084	-0.63906	1.64951	0.598205	0.532342	-1.93542	1.78547	-0.0310435	2.66741	3.42559	2.72438	3.34478	2.59705	2.94161	2.16886	2.96535	
4.50134	0	0	1.43647	3.07452	0.983902	4.1919	1.23738	2.05435	0.979378	1.35746	1.58061	-0.087673	1.42077	-0.424743	0.510668	-0.545025	1.23573	0.320937	1.00485	-0.657695	1.63149	0.583901	0.513818	-1.9543	1.77165	-0.053934	2.6681	3.40858	2.72452	3.33145	2.59354	2.91788	2.1657	2.97429	
4.49676	0	0	1.44442	3.08644	0.983902	4.1919	1.23797	2.06162	0.976662	1.36513	1.5632	-0.10676	1.39098	-0.444804	0.507382	-0.56606	1.22376	0.297286	0.988868	-0.676329	1.61347	0.569597	0.495293	-1.97317	1.75784	-0.0768245	2.66879	3.39156	2.72467	3.31812	2.59003	2.89415	2.16253	2.98323	
4.49676	0	0	1.45236	3.09836	0.983902	4.1919	1.23856	2.0689	0.973946	1.37281	1.54579	-0.125846	1.36118	-0.464865	0.504096	-0.587095	1.2118	0.273634	0.972882	-0.694963	1.59545	0.555292	0.476768	-1.99204	1.74402	-0.099715	2.66948	3.37455	2.72481	3.30479	2.58652	2.87042	2.15937	2.99218	
4.49524	0	0	1.45769	3.12923	0.976423	4.21304	1.23797	2.08847	0.967146	1.39203	1.53537	-0.141799	1.35045	-0.486462	0.505046	-0.597352	1.20558	0.256792	0.963674	-0.692815	1.58846	0.553356	0.462153	-1.99132	1.73135	-0.100986	2.67337	3.37863	2.74545	3.31117	2.60319	2.86819	2.16798	3.01413	
4.49219	0	0	1.46302	3.16011	0.968943	4.23417	1.23738	2.10804	0.960346	1.41125	1.52496	-0.157753	1.33972	-0.508059	0.505995	-0.607608	1.19937	0.239951	0.954466	-0.690667	1.58146	0.551419	0.447539	-1.99059	1.71869	-0.102257	2.67725	3.38271	2.76608	3.31755	2.61986	2.86597	2.17658	3.03608	
4.49219	0	0	1.46835	3.19098	0.961464	4.25531	1.23679	2.1276	0.953546	1.43046	1.51454	-0.173706	1.32899	-0.529656	0.506944	-0.617865	1.19316	0.223109	0.945259	-0.688518	1.57447	0.549482	0.432924	-1.98987	1.70602	-0.103527	2.68114	3.38679	2.78672	3.32393	2.63653	2.86374	2.18519	3.05802	
4.49676	0	0	1.47368	3.22185	0.953985	4.27645	1.2362	2.14717	0.946746	1.44968	1.50412	-0.189659	1.31827	-0.551253	0.507894	-0.628121	1.18695	0.206267	0.936051	-0.68637	1.56748	0.547546	0.418309	-1.98914	1.69336	-0.104798	2.68502	3.39087	2.80735	3.33031	2.6532	2.86151	2.1938	3.07997	
4.49524	0	0	1.48466	3.23685	0.953985	4.27645	1.24415	2.15159	0.950622	1.45011	1.48766	-0.20347	1.29566	-0.56497	0.495037	-0.644711	1.16975	0.186274	0.916879	-0.671909	1.55103	0.561548	0.402716	-1.98556	1.68054	-0.0932415	2.70212	3.40293	2.82931	3.35919	2.66828	2.88642	2.21742	3.10611	
4.49676	0	0	1.49565	3.25184	0.953985	4.27645	1.2521	2.15601	0.954499	1.45053	1.47119	-0.217282	1.27305	-0.578688	0.482181	-0.661302	1.15255	0.166281	0.897707	-0.657447	1.53458	0.57555	0.387123	-1.98199	1.66772	-0.081685	2.71922	3.41498	2.85128	3.38808	2.68335	2.91133	2.24105	3.13224	
4.49982	0	0	1.50664	3.26684	0.953985	4.27645	1.26005	2.16043	0.958376	1.45096	1.45472	-0.231093	1.25044	-0.592405	0.469324	-0.677893	1.13535	0.146289	0.878535	-0.642986	1.51812	0.589553	0.37153	-1.97841	1.6549	-0.0701285	2.73632	3.42703	2.87324	3.41696	2.69843	2.93624	2.26467	3.15837	
4.49676	0	0	1.51762	3.28184	0.953985	4.27645	1.268	2.16485	0.962252	1.45138	1.43826	-0.244904	1.22784	-0.606122	0.456468	-0.694483	1.11815	0.126296	0.859363	-0.628525	1.50167	0.603555	0.355937	-1.97483	1.64208	-0.058572	2.75342	3.43908	2.8952	3.44584	2.71351	2.96115	2.28829	3.18451	
4.49829	0	0	1.53357	3.30606	0.962223	4.29551	1.27477	2.18161	0.970955	1.47238	1.4348	-0.257725	1.22413	-0.621446	0.458288	-0.707176	1.1172	0.106175	0.850102	-0.634068	1.49272	0.596405	0.350087	-1.98861	1.62673	-0.0644312	2.74646	3.44362	2.90105	3.45538	2.71451	2.95832	2.30014	3.19764	
4.49524	0	0	1.54951	3.33027	0.970461	4.31458	1.28154	2.19838	0.979658	1.49338	1.43135	-0.270545	1.22043	-0.636771	0.460109	-0.719869	1.11625	0.086055	0.84084	-0.639611	1.48377	0.589255	0.344237	-2.00238	1.61138	-0.0702905	2.73951	3.44817	2.9069	3.46491	2.71552	2.95549	2.31199	3.21078	
4.49524	0	0	1.56546	3.35449	0.978699	4.33364	1.28831	2.21515	0.988361	1.51438	1.42789	-0.283365	1.21672	-0.652095	0.461929	-0.732563	1.11529	0.0659345	0.831579	-0.645153	1.47483	0.582104	0.338386	-2.01616	1.59603	-0.0761498	2.73255	3.45271	2.91275	3.47445	2.71652	2.95265	2.32384	3.22392	
4.49676	0	0	1.5814	3.37871	0.986937	4.35271	1.29508	2.23192	0.997064	1.53538	1.42444	-0.296186	1.21301	-0.667419	0.46375	-0.745256	1.11434	0.045814	0.822318	-0.650696	1.46588	0.574954	0.332536	-2.02994	1.58068	-0.082009	2.7256	3.45725	2.9186	3.48398	2.71752	2.94982	2.33568	3.23705	
4.49219	0	0	1.60119	3.41557	0.996039	4.3836	1.31131	2.25808	1.01081	1.56513	1.42531	-0.298635	1.20279	-0.664281	0.469765	-0.739601	1.11386	0.0357813	0.818581	-0.655973	1.46042	0.56879	0.320032	-2.03494	1.57941	-0.0906908	2.72949	3.46136	2.93047	3.48961	2.72909	2.95098	2.34756	3.25024	
4.49066	0	0	1.62098	3.45243	1.00514	4.41449	1.32754	2.28424	1.02456	1.59488	1.42617	-0.301083	1.19256	-0.661142	0.47578	-0.733947	1.11338	0.0257485	0.814844	-0.66125	1.45496	0.562626	0.307528	-2.03994	1.57813	-0.0993725	2.73339	3.46546	2.94234	3.49524	2.74066	2.95213	2.35943	3.26342	
4.49371	0	0	1.64077	3.48929	1.01424	4.44537	1.34376	2.3104	1.03831	1.62463	1.42704	-0.303531	1.18234	-0.658004	0.481796	-0.728292	1.11289	0.0157158	0.811107	-0.666527	1.4495	0.556462	0.295024	-2.04493	1.57685	-0.108054	2.73728	3.46957	2.95421	3.50087	2.75223	2.95329	2.3713	3.27661	
4.49066	0	0	1.66055	3.52615	1.02335	4.47626	1.35999	2.33656	1.05206	1.65437	1.42791	-0.30598	1.17211	-0.654866	0.487811	-0.722637	1.11241	0.005683	0.80737	-0.671804	1.44404	0.550298	0.28252	-2.04993	1.57557	-0.116736	2.74118	3.47367	2.96608	3.5065	2.7638	2.95444	2.38318	3.28979	
4.48608	0	0	1.65019	3.55545	1.00653	4.49546	1.35699	2.35406	1.0399	1.67727	1.41839	-0.301645	1.1619	-0.651736	0.479916	-0.70788	1.09987	0.0069895	0.800087	-0.667045	1.43709	0.548356	0.271649	-2.04941	1.56992	-0.113042	2.74437	3.49491	2.97024	3.53398	2.77558	2.9664	2.39942	3.31423	
4.48608	0	0	1.63982	3.58474	0.989712	4.51467	1.35399	2.37155	1.02775	1.70017	1.40888	-0.29731	1.15169	-0.648606	0.472021	-0.693123	1.08733	0.008296	0.792803	-0.662285	1.43015	0.546413	0.260778	-2.04888	1.56427	-0.109349	2.74756	3.51615	2.9744	3.56147	2.78735	2.97836	2.41565	3.33867	
4.48913	0	0	1.62945	3.61404	0.972894	4.53387	1.35099	2.38905	1.0156	1.72306	1.39936	-0.292975	1.14148	-0.645477	0.464127	-0.678366	1.07478	0.0096025	0.78552	-0.657526	1.4232	0.544471	0.249907	-2.04835	1.55862	-0.105655	2.75075	3.53739	2.97856	3.58896	2.79913	2.99031	2.43189	3.36311	
4.48761	0	0	1.61909	3.64333	0.956076	4.55307	1.34799	2.40655	1.00344	1.74596	1.38985	-0.28864	1.13127	-0.642347	0.456232	-0.663609	1.06224	0.010909	0.778237	-0.652767	1.41626	0.542529	0.239036	-2.04782	1.55296	-0.101961	2.75395	3.55863	2.98272	3.61645	2.8109	3.00227	2.44813	3.38754	
4.48608	0	0	1.62287	3.65592	0.960701	4.55416	1.35093	2.41631	1.00709	1.75856	1.39072	-0.298609	1.12861	-0.647689	0.459767	-0.673598	1.05653	0.004318	0.769805	-0.668439	1.40042	0.533474	0.223979	-2.05549	1.54477	-0.115599	2.74626	3.58036	2.96429	3.65546	2.7894	3.04042	2.45357	3.41922	
4.48456	0	0	1.62665	3.66851	0.965326	4.55525	1.35386	2.42607	1.01074	1.77117	1.39159	-0.308579	1.12596	-0.653031	0.463302	-0.683588	1.05082	-0.002273	0.761372	-0.684111	1.38458	0.524419	0.208923	-2.06315	1.53657	-0.129237	2.73856	3.6021	2.94585	3.69447	2.76789	3.07856	2.459	3.4509	
4.48303	0	0	1.63043	3.6811	0.96995	4.55633	1.3568	2.43582	1.01438	1.78377	1.39246	-0.318549	1.1233	-0.658374	0.466836	-0.693578	1.04511	-0.008864	0.752939	-0.699783	1.36874	0.515364	0.193866	-2.07082	1.52838	-0.142875	2.73087	3.62383	2.92742	3.73348	2.74639	3.11671	2.46443	3.48257	
4.48456	0	0	1.6342	3.69368	0.974575	4.55742	1.35974	2.44558	1.01803	1.79638	1.39333	-0.328518	1.12064	-0.663716	0.470371	-0.703567	1.0394	-0.015455	0.744507	-0.715455	1.35291	0.506309	0.17881	-2.07848	1.52018	-0.156513	2.72318	3.64557	2.90898	3.7725	2.72488	3.15485	2.46987	3.51425	
4.48303	0	0	1.63218	3.72269	0.980045	4.57031	1.36381	2.47024	1.01613	1.82468	1.39765	-0.325702	1.11902	-0.659114	0.476387	-0.697897	1.04669	-0.0133417	0.734411	-0.718465	1.34402	0.499211	0.172598	-2.08098	1.5091	-0.1619	2.72318	3.64557	2.90898	3.7725	2.72892	3.14345	2.46662	3.52344	
4.47998	0	0	1.63016	3.75171	0.985515	4.5832	1.36788	2.49491	1.01423	1.85298	1.40197	-0.322886	1.11739	-0.654512	0.482403	-0.692227	1.05399	-0.0112285	0.724316	-0.721475	1.33513	0.492112	0.166386	-2.08347	1.49801	-0.167287	2.72318	3.64557	2.90898	3.7725	2.73295	3.13204	2.46336	3.53263	
4.48303	0	0	1.62814	3.78072	0.990985	4.59609	1.37195	2.51957	1.01234	1.88128	1.40629	-0.32007	1.11576	-0.64991	0.488419	-0.686557	1.06128	-0.00911525	0.71422	-0.724484	1.32624	0.485013	0.160174	-2.08596	1.48692	-0.172674	2.72318	3.64557	2.90898	3.7725	2.73699	3.12063	2.46011	3.54183	
4.48303	0	0	1.62612	3.80973	0.996455	4.60898	1.37602	2.54423	1.01044	1.90958	1.41061	-0.317254	1.11413	-0.645308	0.494435	-0.680887	1.06858	-0.007002	0.704124	-0.727494	1.31736	0.477915	0.153962	-2.08846	1.47583	-0.178061	2.72318	3.64557	2.90898	3.7725	2.74103	3.10922	2.45686	3.55102	
4.47845	0	0	1.62664	3.85494	0.992406	4.64882	1.37882	2.58163	1.01463	1.95521	1.41838	-0.294067	1.12312	-0.619255	0.508079	-0.651263	1.07525	0.0196822	0.707046	-0.712102	1.30993	0.498903	0.156148	-2.07459	1.47419	-0.161196	2.71936	3.67153	2.92669	3.78799	2.75598	3.1236	2.46985	3.58509	
4.48151	0	0	1.62715	3.90015	0.988356	4.68866	1.38162	2.61902	1.01881	2.00085	1.42615	-0.270879	1.13211	-0.593201	0.521723	-0.621638	1.08192	0.0463665	0.709969	-0.696711	1.3025	0.519891	0.158335	-2.06072	1.47255	-0.144331	2.71553	3.69749	2.94441	3.80349	2.77093	3.13798	2.48283	3.61916	
4.47388	0	0	1.62767	3.94537	0.984307	4.72849	1.38442	2.65641	1.023	2.04649	1.43393	-0.247692	1.14109	-0.567147	0.535367	-0.592014	1.08859	0.0730508	0.712892	-0.681319	1.29508	0.54088	0.160521	-2.04685	1.47091	-0.127465	2.71171	3.72345	2.96212	3.81898	2.78588	3.15236	2.49582	3.65323	
4.47693	0	0	1.62819	3.99058	0.980258	4.76833	1.38722	2.6938	1.02719	2.09212	1.4417	-0.224505	1.15008	-0.541094	0.549011	-0.56239	1.09526	0.099735	0.715814	-0.665927	1.28765	0.561868	0.162708	-2.03298	1.46928	-0.1106	2.70788	3.74941	2.97984	3.83448	2.80083	3.16674	2.50881	3.6873	
4.47388	0	0	1.63333	4.02287	0.97725	4.79104	1.38524	2.72663	1.0252	2.12078	1.45116	-0.18332	1.15248	-0.496284	0.550208	-0.504954	1.10444	0.142307	0.721718	-0.627308	1.29794	0.597277	0.16504	-1.9994	1.47578	-0.0799762	2.73358	3.78316	2.9909	3.8954	2.81947	3.21641	2.54472	3.72817	
4.47998	0	0	1.63846	4.05515	0.974241	4.81376	1.38326	2.75947	1.02321	2.14944	1.46063	-0.142134	1.15488	-0.451474	0.551405	-0.447518	1.11362	0.184878	0.727621	-0.588688	1.30823	0.632686	0.167372	-1.96583	1.48229	-0.0493525	2.75929	3.81691	3.00195	3.95632	2.83812	3.26608	2.58063	3.76903	
4.48151	0	0	1.6436	4.08743	0.971233	4.83647	1.38128	2.7923	1.02122	2.1781	1.47009	-0.100949	1.15728	-0.406664	0.552602	-0.390083	1.12281	0.22745	0.733525	-0.550069	1.31852	0.668094	0.169703	-1.93226	1.4888	-0.0187288	2.78499	3.85067	3.01301	4.01724	2.85677	3.31575	2.61655	3.8099	
4.49982	0	0	1.64874	4.11972	0.968225	4.85919	1.3793	2.82513	1.01923	2.20676	1.47956	-0.059764	1.15968	-0.361854	0.553799	-0.332647	1.13199	0.270021	0.739429	-0.51145	1.3288	0.703503	0.172035	-1.89868	1.49531	0.011895	2.81069	3.88442	3.02407	4.07816	2.87542	3.36542	2.65246	3.85077	
4.51355	0	0	1.65756	4.16519	0.977178	4.89084	1.38672	2.86787	1.02861	2.24955	1.49945	-0.017396	1.17228	-0.319784	0.568126	-0.289187	1.15009	0.310618	0.747908	-0.487877	1.33215	0.737172	0.182012	-1.87656	1.4907	0.0371925	2.80204	3.95463	3.03025	4.15334	2.87515	3.43473	2.65985	3.9254	
4.52576	0	0	1.66639	4.21066	0.986131	4.9225	1.39414	2.9106	1.03798	2.29233	1.51933	0.024972	1.18487	-0.277714	0.582453	-0.245728	1.16819	0.351214	0.756387	-0.464305	1.33549	0.770841	0.191989	-1.85443	1.48609	0.06249	2.7934	4.02484	3.03642	4.22852	2.87488	3.50404	2.66724	4.00003	
4.54559	0	0	1.67522	4.25613	0.995084	4.95416	1.40157	2.95334	1.04736	2.33511	1.53922	0.06734	1.19746	-0.235643	0.596781	-0.202268	1.18629	0.391811	0.764865	-0.440732	1.33883	0.804509	0.201966	-1.8323	1.48148	0.0877875	2.78476	4.09505	3.0426	4.3037	2.87462	3.57335	2.67463	4.07465	
4.56085	0	0	1.68405	4.30159	1.00404	4.98581	1.40899	2.99607	1.05673	2.3779	1.5591	0.109708	1.21006	-0.193573	0.611108	-0.158808	1.20439	0.432408	0.773344	-0.417159	1.34217	0.838178	0.211943	-1.81017	1.47687	0.113085	2.77611	4.16527	3.04877	4.37888	2.87435	3.64266	2.68202	4.14928	
4.57153	0	0	1.71047	4.35671	1.01453	5.04193	1.41884	3.05962	1.07072	2.44278	1.58861	0.16365	1.22961	-0.14477	0.640177	-0.102766	1.2336	0.476765	0.786571	-0.375045	1.35588	0.875123	0.224082	-1.77379	1.48332	0.144041	2.78927	4.20463	3.0644	4.42782	2.8875	3.68582	2.71043	4.18909	
4.57916	0	0	1.7369	4.41182	1.02502	5.09804	1.42869	3.12317	1.0847	2.50767	1.61813	0.217592	1.24916	-0.095968	0.669246	-0.0467235	1.2628	0.521122	0.799797	-0.332931	1.36959	0.912067	0.236222	-1.73741	1.48977	0.174996	2.80243	4.244	3.08002	4.47675	2.90064	3.72898	2.73883	4.2289	
4.58221	0	0	1.76332	4.46694	1.03551	5.15416	1.43854	3.18672	1.09869	2.57256	1.64764	0.271534	1.2687	-0.0471655	0.698315	0.00931875	1.29201	0.56548	0.813024	-0.290817	1.3833	0.949012	0.248361	-1.70103	1.49621	0.205952	2.81559	4.28337	3.09565	4.52568	2.91379	3.77215	2.76724	4.26871	
4.58679	0	0	1.78975	4.52205	1.04601	5.21027	1.44839	3.25027	1.11267	2.63745	1.67715	0.325476	1.28825	0.001637	0.727384	0.065361	1.32122	0.609837	0.826251	-0.248703	1.39701	0.985956	0.2605	-1.66466	1.50266	0.236907	2.82875	4.32273	3.11128	4.57461	2.92693	3.81531	2.79564	4.30852	
4.58526	0	0	1.79423	4.56868	1.04169	5.25115	1.45238	3.29405	1.11014	2.67953	1.69173	0.384089	1.28804	0.067587	0.737775	0.136445	1.33241	0.659413	0.844148	-0.195431	1.41116	1.03287	0.276832	-1.61953	1.51303	0.281608	2.84261	4.37584	3.1311	4.63896	2.94867	3.86919	2.83195	4.35107	
4.58069	0	0	1.79872	4.6153	1.03737	5.29204	1.45637	3.33783	1.10761	2.72162	1.70632	0.442702	1.28782	0.133537	0.748166	0.20753	1.3436	0.708989	0.862046	-0.142158	1.4253	1.07978	0.293164	-1.57441	1.5234	0.32631	2.85647	4.42895	3.15093	4.70331	2.97041	3.92308	2.86824	4.39361	
4.58069	0	0	1.8032	4.66192	1.03305	5.33292	1.46036	3.38161	1.10508	2.76371	1.7209	0.501316	1.2876	0.199487	0.758556	0.278614	1.3548	0.758564	0.879943	-0.0888855	1.43944	1.1267	0.309496	-1.52929	1.53377	0.371011	2.87033	4.48206	3.17076	4.76765	2.99215	3.97696	2.90454	4.43616	
4.57306	0	0	1.80769	4.70854	1.02873	5.3738	1.46435	3.42538	1.10255	2.80579	1.73548	0.559929	1.28738	0.265437	0.768947	0.349698	1.36599	0.80814	0.89784	-0.035613	1.45359	1.17361	0.325828	-1.48417	1.54414	0.415712	2.88419	4.53517	3.19059	4.832	3.0139	4.03085	2.94084	4.47871	
4.57916	0	0	1.81758	4.75199	1.03095	5.41063	1.46639	3.47482	1.10781	2.84931	1.75552	0.595927	1.3006	0.293631	0.786002	0.386919	1.37796	0.832525	0.901695	-0.00641025	1.45291	1.19731	0.331675	-1.44979	1.54511	0.437726	2.8888	4.553	3.19936	4.8475	3.02576	4.04365	2.94958	4.50266	
4.57458	0	0	1.82747	4.79544	1.03317	5.44745	1.46843	3.52426	1.11306	2.89283	1.77556	0.631925	1.31382	0.321826	0.803057	0.42414	1.38994	0.85691	0.90555	0.0227925	1.45223	1.22101	0.337522	-1.41541	1.54607	0.45974	2.89341	4.57084	3.20814	4.863	3.03762	4.05646	2.95831	4.52661	
4.57611	0	0	1.83737	4.83889	1.03539	5.48427	1.47048	3.5737	1.11832	2.93634	1.7956	0.667922	1.32704	0.350021	0.820112	0.461361	1.40191	0.881295	0.909406	0.0519952	1.45155	1.24471	0.343369	-1.38104	1.54703	0.481755	2.89802	4.58867	3.21691	4.8785	3.04948	4.06927	2.96704	4.55056	
4.57306	0	0	1.84726	4.88234	1.03761	5.52109	1.47252	3.62314	1.12357	2.97986	1.81563	0.70392	1.34026	0.378215	0.837167	0.498582	1.41388	0.90568	0.913261	0.081198	1.45087	1.26841	0.349216	-1.34666	1.54799	0.503769	2.90263	4.60651	3.22569	4.894	3.06134	4.08208	2.97577	4.57451	
4.57153	0	0	1.85527	4.91943	1.04373	5.54702	1.48156	3.66223	1.12482	3.02316	1.82248	0.731047	1.34308	0.409693	0.849075	0.5273	1.41636	0.922021	0.916141	0.105198	1.44474	1.28575	0.350835	-1.32062	1.54623	0.521143	2.90333	4.61999	3.23447	4.90956	3.07429	4.09195	2.99137	4.5792	
4.57001	0	0	1.86328	4.95651	1.04984	5.57294	1.49059	3.70133	1.12607	3.06645	1.82933	0.758174	1.3459	0.44117	0.860982	0.556018	1.41884	0.938362	0.919022	0.129198	1.43861	1.30308	0.352453	-1.29459	1.54446	0.538518	2.90402	4.63346	3.24326	4.92512	3.08723	4.10182	3.00696	4.58389	
4.56543	0	0	1.87128	4.99359	1.05595	5.59886	1.49962	3.74042	1.12732	3.10975	1.83618	0.785302	1.34872	0.472648	0.87289	0.584735	1.42131	0.954702	0.921903	0.153199	1.43248	1.32041	0.354071	-1.26855	1.54269	0.555893	2.90472	4.64694	3.25204	4.94068	3.10017	4.11169	3.02256	4.58858	
4.56238	0	0	1.87929	5.03068	1.06206	5.62478	1.50866	3.77951	1.12857	3.15305	1.84303	0.812429	1.35154	0.504125	0.884798	0.613453	1.42379	0.971043	0.924783	0.177199	1.42634	1.33774	0.35569	-1.24252	1.54093	0.573267	2.90542	4.66042	3.26083	4.95624	3.11311	4.12156	3.03815	4.59326	
4.56238	0	0	1.88298	5.04421	1.0574	5.62355	1.5115	3.78997	1.1242	3.16539	1.84045	0.804226	1.34796	0.487933	0.881499	0.599363	1.41223	0.957048	0.904459	0.194469	1.40243	1.34004	0.342128	-1.2246	1.51546	0.583413	2.91002	4.67837	3.26012	4.98521	3.11007	4.15344	3.06162	4.6003	
4.5578	0	0	1.88666	5.05774	1.05274	5.62231	1.51435	3.80044	1.11983	3.17773	1.83786	0.796024	1.34438	0.47174	0.8782	0.585273	1.40068	0.943053	0.884135	0.21174	1.37852	1.34234	0.328566	-1.20668	1.49	0.593558	2.91461	4.69632	3.25942	5.01417	3.10702	4.18531	3.0851	4.60734	
4.55322	0	0	1.89034	5.07126	1.04808	5.62107	1.5172	3.8109	1.11547	3.19008	1.83528	0.787821	1.34081	0.455547	0.874901	0.571183	1.38912	0.929058	0.863812	0.229011	1.35461	1.34464	0.315004	-1.18877	1.46454	0.603704	2.91921	4.71427	3.25872	5.04313	3.10397	4.21719	3.10857	4.61438	
4.55627	0	0	1.89403	5.08479	1.04342	5.61984	1.52004	3.82136	1.1111	3.20242	1.83269	0.779619	1.33723	0.439355	0.871602	0.557093	1.37757	0.915063	0.843488	0.246281	1.3307	1.34694	0.301442	-1.17085	1.43907	0.61385	2.92381	4.73222	3.25801	5.0721	3.10093	4.24907	3.13204	4.62142	
4.5578	0	0	1.90016	5.09143	1.04342	5.61984	1.52241	3.82393	1.11898	3.2036	1.81956	0.762546	1.31893	0.425449	0.871227	0.526981	1.35658	0.893018	0.83236	0.229644	1.30913	1.32121	0.293619	-1.17931	1.4283	0.594978	2.91049	4.72345	3.25544	5.05239	3.09757	4.22367	3.12077	4.62878	
4.5578	0	0	1.9063	5.09807	1.04342	5.61984	1.52478	3.82649	1.12686	3.20479	1.80644	0.745473	1.30064	0.411542	0.870852	0.496869	1.33559	0.870972	0.821232	0.213006	1.28756	1.29548	0.285795	-1.18778	1.41753	0.576107	2.89718	4.71468	3.25287	5.03268	3.09421	4.19827	3.1095	4.63615	
4.55932	0	0	1.91243	5.1047	1.04342	5.61984	1.52715	3.82906	1.13474	3.20597	1.79331	0.7284	1.28235	0.397635	0.870476	0.466757	1.31461	0.848926	0.810104	0.196369	1.266	1.26975	0.277972	-1.19625	1.40677	0.557235	2.88387	4.70592	3.2503	5.01297	3.09085	4.17288	3.09823	4.64351	
4.56238	0	0	1.91856	5.11134	1.04342	5.61984	1.52952	3.83162	1.14263	3.20716	1.78018	0.711327	1.26405	0.383729	0.870101	0.436645	1.29362	0.826881	0.798976	0.179731	1.24443	1.24402	0.270149	-1.20471	1.396	0.538363	2.87055	4.69715	3.24773	4.99326	3.08749	4.14748	3.08695	4.65088	
4.5639	0	0	1.91795	5.12507	1.03679	5.62417	1.52762	3.83697	1.13285	3.22306	1.76708	0.694331	1.25615	0.366803	0.864928	0.42792	1.27802	0.801496	0.786978	0.173663	1.22831	1.22484	0.258697	-1.21304	1.37811	0.527459	2.87216	4.69261	3.2523	4.99384	3.08855	4.1445	3.09823	4.64351	
4.56695	0	0	1.91734	5.1388	1.03016	5.6285	1.52573	3.84233	1.12307	3.23896	1.75398	0.677336	1.24825	0.349877	0.859754	0.419195	1.26243	0.776112	0.774979	0.167595	1.21218	1.20567	0.247244	-1.22136	1.36023	0.516556	2.87377	4.68808	3.25686	4.99441	3.0896	4.14151	3.1095	4.63615	
4.56543	0	0	1.91672	5.15253	1.02353	5.63283	1.52384	3.84768	1.11329	3.25486	1.74087	0.66034	1.24035	0.33295	0.854581	0.410469	1.24684	0.750727	0.762981	0.161526	1.19606	1.18649	0.235792	-1.22968	1.34234	0.505653	2.87537	4.68354	3.26143	4.99499	3.09066	4.13853	3.12077	4.62878	
4.56695	0	0	1.91611	5.16626	1.01691	5.63716	1.52194	3.85303	1.10351	3.27076	1.72777	0.643344	1.23245	0.316024	0.849408	0.401744	1.23124	0.725343	0.750983	0.155458	1.17993	1.16731	0.22434	-1.23801	1.32445	0.494749	2.87698	4.679	3.266	4.99557	3.09172	4.13554	3.13204	4.62142	
4.56238	0	0	1.91427	5.15946	1.0135	5.61802	1.52193	3.83454	1.10002	3.2572	1.70871	0.60497	1.21404	0.276791	0.831515	0.359224	1.20629	0.692148	0.729794	0.135643	1.15357	1.14511	0.205132	-1.25472	1.30396	0.479208	2.86666	4.69272	3.25615	5.0234	3.08003	4.15696	3.13644	4.6335	
4.56543	0	0	1.91243	5.15266	1.0101	5.59887	1.52193	3.81604	1.09652	3.24364	1.68965	0.566596	1.19563	0.237557	0.813621	0.316704	1.18135	0.658953	0.708604	0.115827	1.12721	1.12292	0.185924	-1.27142	1.28346	0.463666	2.85634	4.70644	3.2463	5.05124	3.06834	4.17837	3.14085	4.64558	
4.5639	0	0	1.91059	5.14586	1.00669	5.57973	1.52192	3.79755	1.09302	3.23008	1.67059	0.528223	1.17722	0.198324	0.795728	0.274185	1.1564	0.625758	0.687415	0.0960123	1.10085	1.10072	0.166715	-1.28813	1.26296	0.448125	2.84603	4.72016	3.23645	5.07907	3.05665	4.19978	3.14525	4.65766	
4.56695	0	0	1.90875	5.13907	1.00329	5.56058	1.52191	3.77906	1.08953	3.21652	1.65153	0.489849	1.1588	0.15909	0.777834	0.231665	1.13145	0.592563	0.666226	0.076197	1.07448	1.07853	0.147507	-1.30484	1.24246	0.432584	2.83571	4.73388	3.2266	5.10691	3.04497	4.2212	3.14965	4.66974	
4.56543	0	0	1.90998	5.1356	1.00256	5.54827	1.52332	3.76584	1.08953	3.21652	1.63592	0.465078	1.144	0.136008	0.768549	0.203817	1.11434	0.572113	0.648763	0.054111	1.05507	1.05854	0.125783	-1.32425	1.22498	0.408806	2.82085	4.72964	3.22696	5.0924	3.03418	4.2053	3.13837	4.67712	
4.57001	0	0	1.91121	5.13213	1.00184	5.53595	1.52472	3.75261	1.08953	3.21652	1.62031	0.440307	1.1292	0.112927	0.759265	0.175969	1.09723	0.551664	0.631301	0.032025	1.03565	1.03855	0.10406	-1.34366	1.20749	0.385028	2.80599	4.7254	3.22733	5.07788	3.02339	4.18941	3.12708	4.6845	
4.56695	0	0	1.91243	5.12867	1.00111	5.52364	1.52613	3.73939	1.08953	3.21652	1.6047	0.415537	1.11439	0.0898448	0.74998	0.148121	1.08011	0.531215	0.613838	0.009939	1.01623	1.01855	0.0823365	-1.36308	1.19001	0.361251	2.79113	4.72117	3.22769	5.06337	3.0126	4.17351	3.11579	4.69187	
4.56848	0	0	1.91366	5.1252	1.00039	5.51132	1.52753	3.72617	1.08953	3.21652	1.58909	0.390766	1.09959	0.066763	0.740695	0.120273	1.063	0.510765	0.596375	-0.012147	0.996815	0.998563	0.060613	-1.38249	1.17253	0.337473	2.77627	4.71693	3.22806	5.04886	3.00181	4.15761	3.1045	4.69925	
4.56848	0	0	1.90263	5.13241	0.982541	5.51872	1.52137	3.71587	1.07482	3.22296	1.57085	0.373676	1.09172	0.0501538	0.73119	0.108596	1.05001	0.501743	0.590803	-0.0359693	0.987673	0.981754	0.0507947	-1.40506	1.16893	0.311157	2.77559	4.70345	3.22058	5.04306	2.9911	4.15317	3.11139	4.67979	
4.56848	0	0	1.89159	5.13962	0.964695	5.52613	1.5152	3.70557	1.06012	3.2294	1.55262	0.356587	1.08385	0.0335445	0.721686	0.096919	1.03702	0.492721	0.58523	-0.0597915	0.978531	0.964944	0.0409765	-1.42764	1.16533	0.28484	2.77492	4.68997	3.2131	5.03726	2.98039	4.14872	3.11827	4.66033	
4.56238	0	0	1.88056	5.14683	0.94685	5.53353	1.50904	3.69527	1.04542	3.23584	1.53438	0.339497	1.07598	0.0169353	0.712182	0.085242	1.02403	0.483699	0.579658	-0.0836138	0.969389	0.948135	0.0311582	-1.45022	1.16174	0.258524	2.77424	4.67649	3.20562	5.03146	2.96968	4.14427	3.12516	4.64088	
4.56238	0	0	1.86953	5.15404	0.929004	5.54093	1.50287	3.68498	1.03072	3.24229	1.51614	0.322407	1.06812	0.000326	0.702677	0.073565	1.01104	0.474677	0.574086	-0.107436	0.960247	0.931326	0.02134	-1.4728	1.15814	0.232208	2.77357	4.66302	3.19814	5.02566	2.95897	4.13983	3.13204	4.62142	
4.55932	0	0	1.85974	5.13384	0.915627	5.50724	1.4943	3.65387	1.01838	3.21878	1.49545	0.289771	1.04978	-0.0381772	0.687447	0.032102	0.995616	0.449866	0.55298	-0.142415	0.943901	0.903125	0.0048295	-1.50638	1.13804	0.204139	2.74623	4.66352	3.17087	5.02216	2.93551	4.13688	3.09734	4.62172	
4.5578	0	0	1.84996	5.11364	0.902249	5.47355	1.48573	3.62276	1.00604	3.19527	1.47476	0.257136	1.03145	-0.0766805	0.672217	-0.009361	0.980195	0.425056	0.531875	-0.177393	0.927555	0.874924	-0.011681	-1.53995	1.11795	0.17607	2.7189	4.66401	3.1436	5.01865	2.91205	4.13394	3.06264	4.62202	
4.55475	0	0	1.84017	5.09344	0.888872	5.43985	1.47716	3.59166	0.993708	3.17177	1.45406	0.2245	1.01311	-0.115184	0.656987	-0.050824	0.964774	0.400245	0.510769	-0.212372	0.91121	0.846724	-0.0281915	-1.57353	1.09786	0.148002	2.69157	4.66451	3.11633	5.01515	2.88859	4.13099	3.02794	4.62231	
4.55627	0	0	1.83039	5.07325	0.875494	5.40616	1.46859	3.56055	0.981372	3.14826	1.43337	0.191864	0.994775	-0.153687	0.641757	-0.092287	0.949353	0.375434	0.489663	-0.247351	0.894864	0.818523	-0.044702	-1.60711	1.07776	0.119933	2.66424	4.66501	3.08906	5.01165	2.86513	4.12805	2.99324	4.62261	
4.55627	0	0	1.8261	5.04956	0.866733	5.37392	1.4666	3.52939	0.975846	3.11731	1.42053	0.160124	0.976471	-0.191842	0.62905	-0.125232	0.935997	0.356379	0.477654	-0.284069	0.885325	0.792522	-0.0642203	-1.63185	1.06472	0.0843617	2.64974	4.62955	3.07202	4.96624	2.85424	4.07838	2.97577	4.57471	
4.5517	0	0	1.82181	5.02587	0.857973	5.34168	1.46461	3.49823	0.97032	3.08637	1.40768	0.128384	0.958166	-0.229997	0.616343	-0.158177	0.92264	0.337323	0.465646	-0.320786	0.875787	0.766521	-0.0837385	-1.65658	1.05168	0.0487905	2.63525	4.59409	3.05498	4.92084	2.84335	4.02871	2.95831	4.5268	
4.55017	0	0	1.81752	5.00219	0.849212	5.30943	1.46262	3.46707	0.964793	3.05542	1.39483	0.096644	0.939862	-0.268152	0.603637	-0.191122	0.909284	0.318268	0.453638	-0.357504	0.866248	0.74052	-0.103257	-1.68132	1.03864	0.0132193	2.62075	4.55864	3.03794	4.87544	2.83245	3.97903	2.94084	4.4789	
4.55017	0	0	1.81323	4.9785	0.840451	5.27719	1.46062	3.43591	0.959267	3.02448	1.38199	0.064904	0.921558	-0.306307	0.59093	-0.224067	0.895927	0.299213	0.441629	-0.394222	0.856709	0.714519	-0.122775	-1.70605	1.0256	-0.022352	2.60625	4.52318	3.0209	4.83003	2.82156	3.92936	2.92338	4.431	
4.54864	0	0	1.8065	4.96178	0.827072	5.24399	1.45437	3.40769	0.948378	2.99721	1.36307	0.0430495	0.900024	-0.334903	0.582461	-0.245894	0.891425	0.277937	0.429726	-0.415353	0.847603	0.697995	-0.13712	-1.72521	1.01521	-0.0531332	2.59718	4.48789	3.01126	4.79074	2.80967	3.89429	2.88036	4.40762	
4.54864	0	0	1.79978	4.94506	0.813694	5.21079	1.44812	3.37946	0.937489	2.96994	1.34415	0.021195	0.87849	-0.363499	0.573991	-0.267722	0.886924	0.25666	0.417824	-0.436484	0.838497	0.681471	-0.151465	-1.74436	1.00482	-0.0839145	2.58812	4.4526	3.00162	4.75144	2.79778	3.85921	2.83735	4.38424	
4.54254	0	0	1.79305	4.92834	0.800315	5.17759	1.44188	3.35123	0.926601	2.94267	1.32524	-0.0006595	0.856956	-0.392095	0.565522	-0.28955	0.882422	0.235383	0.405921	-0.457616	0.829391	0.664947	-0.16581	-1.76352	0.994436	-0.114696	2.57905	4.41731	2.99198	4.71214	2.78588	3.82413	2.79433	4.36086	
4.54254	0	0	1.78632	4.91162	0.786937	5.14439	1.43563	3.32301	0.915712	2.9154	1.30632	-0.022514	0.835422	-0.420691	0.557053	-0.311377	0.877921	0.214107	0.394018	-0.478747	0.820285	0.648423	-0.180155	-1.78268	0.984047	-0.145477	2.56998	4.38202	2.98233	4.67285	2.77399	3.78905	2.75131	4.33749	
4.54254	0	0	1.78073	4.86799	0.775843	5.07679	1.43108	3.2718	0.904557	2.85444	1.28399	-0.0344168	0.806504	-0.440675	0.53452	-0.316131	0.85421	0.202026	0.38766	-0.484202	0.813526	0.646432	-0.185806	-1.79648	0.976092	-0.158987	2.57243	4.3599	2.98296	4.64453	2.777	3.76913	2.74167	4.29269	
4.54407	0	0	1.77515	4.82436	0.764749	5.00918	1.42654	3.22058	0.893401	2.79347	1.26166	-0.0463195	0.777586	-0.460659	0.511988	-0.320885	0.8305	0.189946	0.381302	-0.489656	0.806766	0.644441	-0.191458	-1.81029	0.968137	-0.172497	2.57487	4.33779	2.98359	4.61621	2.78001	3.7492	2.73203	4.24789	
4.53796	0	0	1.76956	4.78073	0.753654	4.94157	1.42199	3.16937	0.882246	2.7325	1.23933	-0.0582223	0.748669	-0.480644	0.489455	-0.325639	0.806789	0.177865	0.374944	-0.495111	0.800007	0.64245	-0.197109	-1.82409	0.960183	-0.186007	2.57732	4.31567	2.98421	4.58789	2.78302	3.72927	2.72239	4.20309	
4.53644	0	0	1.76398	4.7371	0.74256	4.87397	1.41745	3.11816	0.871091	2.67154	1.217	-0.070125	0.719751	-0.500628	0.466922	-0.330393	0.783079	0.165785	0.368586	-0.500565	0.793248	0.640459	-0.20276	-1.8379	0.952228	-0.199517	2.57977	4.29356	2.98484	4.55957	2.78603	3.70934	2.71274	4.15829	
4.53491	0	0	1.76324	4.70365	0.732935	4.8308	1.41625	3.08505	0.863365	2.62431	1.20503	-0.0811678	0.706803	-0.527323	0.456712	-0.347022	0.771832	0.152526	0.359416	-0.521408	0.789006	0.620851	-0.209959	-1.85718	0.938989	-0.221933	2.5651	4.2895	2.96077	4.56139	2.76916	3.71141	2.67445	4.14704	
4.53491	0	0	1.76249	4.67019	0.723311	4.78764	1.41505	3.05194	0.855638	2.57707	1.19306	-0.0922105	0.693855	-0.554018	0.446502	-0.36365	0.760585	0.139267	0.350245	-0.54225	0.784765	0.601243	-0.217159	-1.87646	0.92575	-0.244349	2.55042	4.28545	2.93669	4.56321	2.75228	3.71347	2.63615	4.13579	
4.53491	0	0	1.76175	4.63673	0.713687	4.74447	1.41385	3.01883	0.847912	2.52984	1.1811	-0.103253	0.680907	-0.580712	0.436292	-0.380279	0.749339	0.126009	0.341075	-0.563092	0.780524	0.581635	-0.224358	-1.89575	0.912511	-0.266766	2.53575	4.28139	2.91262	4.56502	2.73541	3.71553	2.59786	4.12454	
4.53338	0	0	1.76101	4.60327	0.704062	4.70131	1.41265	2.98572	0.840186	2.48261	1.16913	-0.114296	0.667959	-0.607407	0.426082	-0.396908	0.738092	0.11275	0.331905	-0.583935	0.776282	0.562027	-0.231557	-1.91503	0.899272	-0.289182	2.52108	4.27734	2.88855	4.56684	2.71854	3.71759	2.55957	4.1133	
4.53491	0	0	1.76155	4.58991	0.699773	4.67134	1.41066	2.97311	0.838405	2.4532	1.17257	-0.116542	0.666983	-0.617281	0.430459	-0.401706	0.742824	0.0993775	0.329143	-0.591688	0.775844	0.552744	-0.233106	-1.92054	0.89683	-0.306159	2.52279	4.24223	2.88786	4.52917	2.71517	3.69297	2.54236	4.06691	
4.53491	0	0	1.76209	4.57654	0.695483	4.64137	1.40868	2.9605	0.836623	2.4238	1.176	-0.118788	0.666007	-0.627155	0.434837	-0.406505	0.747556	0.086005	0.32638	-0.599442	0.775406	0.543461	-0.234656	-1.92606	0.894388	-0.323136	2.52449	4.20713	2.88717	4.49151	2.71179	3.66836	2.52515	4.02052	
4.53491	0	0	1.76263	4.56318	0.691194	4.6114	1.40669	2.94789	0.834842	2.39439	1.17944	-0.121035	0.665031	-0.637028	0.439215	-0.411304	0.752287	0.0726325	0.323618	-0.607195	0.774969	0.534177	-0.236206	-1.93157	0.891945	-0.340113	2.52619	4.17203	2.88648	4.45385	2.70842	3.64374	2.50794	3.97413	
4.53644	0	0	1.76317	4.54981	0.686905	4.58143	1.4047	2.93528	0.833061	2.36498	1.18288	-0.123281	0.664055	-0.646902	0.443592	-0.416102	0.757019	0.05926	0.320856	-0.614949	0.774531	0.524894	-0.237755	-1.93709	0.889503	-0.35709	2.5279	4.13692	2.88579	4.41618	2.70505	3.61912	2.49072	3.92774	
4.53796	0	0	1.76676	4.53968	0.687153	4.55272	1.40981	2.92996	0.833721	2.3402	1.19057	-0.115109	0.665031	-0.637028	0.448701	-0.407803	0.759043	0.0647893	0.324499	-0.609684	0.779373	0.52173	-0.235204	-1.9344	0.890926	-0.36111	2.53725	4.1105	2.89083	4.38874	2.71325	3.59594	2.47453	3.90254	
4.53796	0	0	1.77035	4.52954	0.687401	4.52401	1.41492	2.92463	0.834381	2.31541	1.19826	-0.106936	0.666007	-0.627155	0.45381	-0.399505	0.761068	0.0703185	0.328141	-0.604418	0.784215	0.518566	-0.232652	-1.93172	0.892348	-0.365131	2.5466	4.08408	2.89588	4.3613	2.72146	3.57276	2.45834	3.87734	
4.54254	0	0	1.77393	4.5194	0.68765	4.4953	1.42002	2.91931	0.835041	2.29062	1.20595	-0.0987635	0.666983	-0.617281	0.458919	-0.391206	0.763093	0.0758478	0.331784	-0.599152	0.789057	0.515403	-0.230101	-1.92904	0.893771	-0.369151	2.55595	4.05766	2.90092	4.33386	2.72966	3.54958	2.44215	3.85214	
4.53796	0	0	1.77752	4.50926	0.687898	4.46659	1.42513	2.91399	0.835701	2.26583	1.21365	-0.090591	0.667959	-0.607407	0.464028	-0.382907	0.765117	0.081377	0.335427	-0.593887	0.793899	0.512239	-0.22755	-1.92635	0.895193	-0.373171	2.56529	4.03124	2.90596	4.30642	2.73786	3.5264	2.42596	3.82694	
4.55017	0	0	1.77007	4.48304	0.673598	4.42323	1.42259	2.89386	0.82504	2.22736	1.21358	-0.0754338	0.670547	-0.602082	0.456962	-0.370522	0.765117	0.081377	0.337309	-0.583632	0.797276	0.51322	-0.224998	-1.92367	0.900686	-0.37676	2.563	4.0226	2.90913	4.29747	2.74207	3.52587	2.42391	3.7856	
4.55627	0	0	1.76262	4.45681	0.659299	4.37987	1.42004	2.87373	0.814379	2.18888	1.21351	-0.0602765	0.673135	-0.596756	0.449897	-0.358136	0.765117	0.081377	0.33919	-0.573378	0.800653	0.514202	-0.222446	-1.92098	0.90618	-0.38035	2.5607	4.01397	2.9123	4.28852	2.74628	3.52535	2.42185	3.74425	
4.56543	0	0	1.75518	4.43059	0.645	4.33651	1.4175	2.8536	0.803717	2.15041	1.21345	-0.0451192	0.675724	-0.59143	0.442831	-0.345751	0.765117	0.081377	0.341072	-0.563123	0.80403	0.515184	-0.219893	-1.9183	0.911674	-0.383939	2.5584	4.00534	2.91547	4.27956	2.75049	3.52482	2.4198	3.7029	
4.57458	0	0	1.74773	4.40437	0.6307	4.29315	1.41496	2.83346	0.793056	2.11194	1.21338	-0.029962	0.678312	-0.586105	0.435766	-0.333365	0.765117	0.081377	0.342954	-0.552868	0.807407	0.516165	-0.217341	-1.91561	0.917167	-0.387529	2.55611	3.9967	2.91864	4.27061	2.75471	3.52429	2.41775	3.66156	
4.58526	0	0	1.74756	4.38125	0.633714	4.24288	1.41659	2.81068	0.791466	2.07084	1.21941	-0.0320078	0.677337	-0.59599	0.434153	-0.343961	0.761068	0.0703253	0.333968	-0.550826	0.803586	0.505918	-0.223446	-1.91815	0.910447	-0.392402	2.56307	3.99216	2.91705	4.27509	2.76109	3.52903	2.39507	3.65513	
4.59289	0	0	1.74739	4.35813	0.636728	4.19262	1.41821	2.78789	0.789875	2.02974	1.22544	-0.0340535	0.676362	-0.605876	0.432539	-0.354557	0.757019	0.0592735	0.324981	-0.548785	0.799765	0.495671	-0.22955	-1.92069	0.903728	-0.397274	2.57003	3.98761	2.91547	4.27956	2.76747	3.53377	2.3724	3.6487	
4.59747	0	0	1.74722	4.33502	0.639742	4.14236	1.41984	2.7651	0.788285	1.98864	1.23146	-0.0360992	0.675387	-0.615761	0.430926	-0.365153	0.75297	0.0482218	0.315995	-0.546744	0.795944	0.485423	-0.235654	-1.92323	0.897008	-0.402147	2.57699	3.98306	2.91389	4.28404	2.77385	3.53851	2.34973	3.64227	
4.599	0	0	1.74705	4.3119	0.642756	4.09209	1.42147	2.74232	0.786695	1.94754	1.23749	-0.038145	0.674412	-0.625646	0.429313	-0.375749	0.748921	0.03717	0.307009	-0.544702	0.792123	0.475176	-0.241759	-1.92577	0.890288	-0.407019	2.58395	3.97851	2.9123	4.28851	2.78023	3.54325	2.32705	3.63584	
4.60358	0	0	1.75179	4.29851	0.638317	4.06298	1.4251	2.73206	0.787251	1.92321	1.24439	-0.042655	0.677636	-0.634759	0.433775	-0.388358	0.753641	0.0238308	0.301612	-0.545004	0.786392	0.45985	-0.246857	-1.93114	0.891895	-0.423481	2.57934	3.9613	2.91282	4.26069	2.7727	3.53036	2.33249	3.59702	
4.60358	0	0	1.75653	4.28511	0.633879	4.03388	1.42872	2.72181	0.787807	1.89888	1.25129	-0.047165	0.680861	-0.643872	0.438236	-0.400966	0.758361	0.0104915	0.296215	-0.545305	0.78066	0.444523	-0.251955	-1.9365	0.893501	-0.439942	2.57473	3.94409	2.91334	4.23288	2.76518	3.51747	2.33793	3.5582	
4.60358	0	0	1.76127	4.27172	0.62944	4.00477	1.43235	2.71156	0.788364	1.87455	1.25819	-0.051675	0.684086	-0.652985	0.442697	-0.413574	0.763081	-0.00284775	0.290819	-0.545607	0.774929	0.429196	-0.257053	-1.94187	0.895108	-0.456403	2.57013	3.92687	2.91386	4.20506	2.75766	3.50458	2.34337	3.51938	
4.60052	0	0	1.76601	4.25833	0.625001	3.97566	1.43598	2.7013	0.78892	1.85023	1.2651	-0.056185	0.68731	-0.662098	0.447159	-0.426183	0.767801	-0.016187	0.285422	-0.545909	0.769198	0.41387	-0.262151	-1.94723	0.896715	-0.472865	2.56552	3.90966	2.91439	4.17724	2.75014	3.49169	2.34882	3.48056	
4.60052	0	0	1.77519	4.26778	0.628673	3.96528	1.44491	2.70335	0.792778	1.85069	1.26936	-0.045714	0.692497	-0.651468	0.452186	-0.410067	0.772976	-0.0195685	0.294457	-0.540322	0.77257	0.414841	-0.264698	-1.94991	0.896715	-0.472865	2.57247	3.90512	2.91887	4.17774	2.76496	3.49536	2.34451	3.46932	
4.59595	0	0	1.78437	4.27723	0.632346	3.9549	1.45384	2.7054	0.796637	1.85116	1.27362	-0.035243	0.697685	-0.640838	0.457213	-0.393952	0.778151	-0.02295	0.303492	-0.534734	0.775942	0.415813	-0.267245	-1.95259	0.896715	-0.472865	2.57943	3.90057	2.92335	4.17824	2.77977	3.49903	2.3402	3.45808	
4.59442	0	0	1.79355	4.28668	0.636018	3.94453	1.46278	2.70744	0.800496	1.85163	1.27788	-0.024772	0.702872	-0.630209	0.46224	-0.377836	0.783326	-0.0263315	0.312526	-0.529146	0.779315	0.416784	-0.269792	-1.95527	0.896715	-0.472865	2.58638	3.89603	2.92783	4.17874	2.79459	3.50269	2.33589	3.44684	
4.59289	0	0	1.80273	4.29614	0.63969	3.93415	1.47171	2.70949	0.804354	1.8521	1.28215	-0.014301	0.708059	-0.619579	0.467267	-0.36172	0.788501	-0.029713	0.321561	-0.523559	0.782687	0.417755	-0.272339	-1.95795	0.896715	-0.472865	2.59334	3.89148	2.93232	4.17924	2.80941	3.50636	2.33159	3.4356	
4.58679	0	0	1.80292	4.31926	0.63969	3.93415	1.46717	2.72232	0.797742	1.85942	1.28725	0.00134775	0.704182	-0.595963	0.473905	-0.334902	0.79099	-0.014239	0.328944	-0.497647	0.788423	0.433088	-0.271792	-1.94962	0.904671	-0.459566	2.60182	3.91292	2.95453	4.19566	2.83298	3.53116	2.33589	3.44684	
4.58526	0	0	1.8031	4.34239	0.63969	3.93415	1.46263	2.73515	0.79113	1.86673	1.29235	0.0169965	0.700304	-0.572348	0.480542	-0.308084	0.793479	0.001235	0.336328	-0.471735	0.794158	0.44842	-0.271246	-1.94128	0.912627	-0.446267	2.61031	3.93435	2.97675	4.21208	2.85655	3.55597	2.3402	3.45808	
4.58069	0	0	1.80328	4.36551	0.63969	3.93415	1.45809	2.74799	0.784517	1.87404	1.29745	0.0326452	0.696426	-0.548732	0.487179	-0.281267	0.795968	0.016709	0.343711	-0.445822	0.799894	0.463753	-0.270699	-1.93295	0.920583	-0.432967	2.61879	3.95579	2.99896	4.2285	2.88012	3.58077	2.34451	3.46932	
4.57458	0	0	1.80346	4.38864	0.63969	3.93415	1.45355	2.76082	0.777905	1.88136	1.30255	0.048294	0.692549	-0.525116	0.493817	-0.254449	0.798457	0.032183	0.351094	-0.41991	0.805629	0.479086	-0.270153	-1.92462	0.928539	-0.419668	2.62727	3.97722	3.02118	4.24492	2.90369	3.60557	2.34882	3.48056	
4.57153	0	0	1.81265	4.39817	0.635144	3.93313	1.46522	2.75517	0.780659	1.87357	1.30685	0.051188	0.696758	-0.524347	0.495521	-0.251658	0.79891	0.042168	0.345729	-0.412553	0.799321	0.486393	-0.273699	-1.92447	0.921624	-0.412062	2.63033	3.99892	3.02357	4.27789	2.90308	3.65317	2.3348	3.49676	
4.56848	0	0	1.82184	4.4077	0.630597	3.93212	1.47689	2.74952	0.783412	1.86579	1.31115	0.054082	0.700968	-0.523577	0.497225	-0.248867	0.799362	0.052153	0.340364	-0.405196	0.793014	0.4937	-0.277245	-1.92433	0.91471	-0.404456	2.63339	4.02061	3.02595	4.31087	2.90246	3.70077	2.32078	3.51295	
4.56695	0	0	1.83103	4.41724	0.626051	3.9311	1.48856	2.74387	0.786166	1.85801	1.31545	0.056976	0.705178	-0.522807	0.498929	-0.246076	0.799815	0.062138	0.334999	-0.397838	0.786706	0.501007	-0.280791	-1.92419	0.907795	-0.39685	2.63644	4.04231	3.02834	4.34384	2.90185	3.74838	2.30677	3.52915	
4.56238	0	0	1.84023	4.42677	0.621505	3.93009	1.50022	2.73822	0.78892	1.85023	1.31976	0.05987	0.709387	-0.522038	0.500633	-0.243285	0.800268	0.072123	0.329634	-0.390481	0.780398	0.508314	-0.284337	-1.92404	0.90088	-0.389244	2.6395	4.064	3.03073	4.37682	2.90124	3.79598	2.29275	3.54535	
4.56238	0	0	1.85438	4.4461	0.624216	3.93629	1.50974	2.74782	0.792504	1.86285	1.32837	0.0656657	0.717162	-0.50596	0.511862	-0.23694	0.809969	0.0898325	0.329677	-0.3828	0.785682	0.514426	-0.283337	-1.92687	0.902106	-0.380773	2.63794	4.06841	3.02782	4.3718	2.90558	3.80669	2.29599	3.53619	
4.5578	0	0	1.86854	4.46543	0.626926	3.94249	1.51926	2.75742	0.796089	1.87548	1.33698	0.0714615	0.724936	-0.489882	0.523092	-0.230595	0.81967	0.107542	0.329721	-0.375118	0.790967	0.520538	-0.282337	-1.9297	0.903332	-0.372302	2.63638	4.07282	3.02491	4.36678	2.90993	3.8174	2.29923	3.52704	
4.5578	0	0	1.88269	4.48476	0.629636	3.94869	1.52878	2.76702	0.799674	1.8881	1.3456	0.0772572	0.732711	-0.473805	0.534322	-0.22425	0.82937	0.125252	0.329765	-0.367436	0.796251	0.526649	-0.281337	-1.93252	0.904558	-0.363832	2.63482	4.07723	3.02199	4.36177	2.91427	3.82811	2.30247	3.51788	
4.5578	0	0	1.89685	4.50409	0.632347	3.9549	1.5383	2.77662	0.803258	1.90073	1.35421	0.083053	0.740486	-0.457727	0.545551	-0.217905	0.839071	0.142961	0.329808	-0.359755	0.801535	0.532761	-0.280337	-1.93535	0.905784	-0.355361	2.63326	4.08165	3.01908	4.35675	2.91861	3.83882	2.30571	3.50873	
4.55475	0	0	1.88538	4.52462	0.62326	3.95286	1.53648	2.78177	0.788932	1.90709	1.35501	0.095883	0.740782	-0.433153	0.546966	-0.191382	0.845163	0.159661	0.337082	-0.349062	0.801974	0.542052	-0.278792	-1.92984	0.912508	-0.350471	2.63482	4.07723	3.02067	4.35225	2.92825	3.84609	2.30142	3.49748	
4.5517	0	0	1.87392	4.54514	0.614174	3.95082	1.53466	2.78692	0.774605	1.91346	1.35581	0.108713	0.741078	-0.408579	0.54838	-0.164859	0.851255	0.17636	0.344356	-0.338369	0.802413	0.551343	-0.277247	-1.92433	0.919233	-0.34558	2.63638	4.07282	3.02226	4.34775	2.9379	3.85336	2.29712	3.48623	
4.55475	0	0	1.86245	4.56566	0.605088	3.94879	1.53283	2.79207	0.760278	1.91982	1.35661	0.121543	0.741374	-0.384006	0.549795	-0.138336	0.857347	0.193059	0.351631	-0.327676	0.802852	0.560634	-0.275701	-1.91882	0.925957	-0.340689	2.63794	4.06841	3.02385	4.34325	2.94754	3.86063	2.29283	3.47498	
4.5517	0	0	1.85098	4.58619	0.596001	3.94675	1.53101	2.79722	0.745952	1.92619	1.3574	0.134373	0.74167	-0.359432	0.55121	-0.111813	0.863439	0.209759	0.358905	-0.316983	0.803291	0.569925	-0.274156	-1.9133	0.932681	-0.335799	2.6395	4.064	3.02544	4.33876	2.95718	3.86791	2.28853	3.46373	
4.55627	0	0	1.84672	4.58636	0.583357	3.92718	1.52625	2.79242	0.739912	1.9092	1.3531	0.131463	0.743301	-0.364041	0.5486	-0.112072	0.86185	0.21425	0.350743	-0.325167	0.798007	0.5638	-0.276248	-1.92714	0.925957	-0.340689	2.62251	4.05141	2.99874	4.32172	2.93488	3.87343	2.26495	3.43715	
4.5517	0	0	1.84245	4.58654	0.570712	3.9076	1.52149	2.78761	0.733872	1.89221	1.34879	0.128553	0.744932	-0.36865	0.54599	-0.11233	0.86026	0.218741	0.342581	-0.333351	0.792724	0.557674	-0.27834	-1.94098	0.919233	-0.34558	2.60551	4.03883	2.97204	4.30468	2.91258	3.87895	2.24136	3.41057	
4.5517	0	0	1.83819	4.58672	0.558067	3.88803	1.51673	2.7828	0.727831	1.87522	1.34448	0.125644	0.746563	-0.37326	0.54338	-0.112589	0.858671	0.223232	0.334419	-0.341535	0.78744	0.551548	-0.280431	-1.95482	0.912508	-0.350471	2.58851	4.02624	2.94534	4.28765	2.89028	3.88447	2.21777	3.38399	
4.54712	0	0	1.83392	4.5869	0.545423	3.86845	1.51197	2.77799	0.721791	1.85823	1.34017	0.122734	0.748194	-0.377869	0.54077	-0.112848	0.857082	0.227723	0.326257	-0.349719	0.782157	0.545423	-0.282523	-1.96866	0.905784	-0.355361	2.57152	4.01365	2.91864	4.27061	2.86798	3.88998	2.19418	3.35741	
4.55017	0	0	1.8266	4.58387	0.534621	3.84383	1.51141	2.77044	0.714379	1.84518	1.33327	0.119613	0.745604	-0.383258	0.54338	-0.112589	0.851876	0.231125	0.322624	-0.355057	0.773508	0.538325	-0.283072	-1.97698	0.904558	-0.363832	2.55922	3.98798	2.90597	4.22748	2.8551	3.86907	2.17388	3.32201	
4.5517	0	0	1.81928	4.58083	0.523819	3.81922	1.51086	2.7629	0.706967	1.83212	1.32638	0.116492	0.743013	-0.388648	0.54599	-0.11233	0.846669	0.234527	0.318991	-0.360395	0.764858	0.531227	-0.283621	-1.98529	0.903332	-0.372302	2.54692	3.96231	2.8933	4.18436	2.84221	3.84815	2.15357	3.28661	
4.55017	0	0	1.81196	4.5778	0.513017	3.7946	1.5103	2.75535	0.699556	1.81907	1.31948	0.113371	0.740423	-0.394037	0.5486	-0.112072	0.841463	0.237929	0.315358	-0.365734	0.756209	0.524128	-0.284171	-1.99361	0.902106	-0.380773	2.53463	3.93664	2.88064	4.14123	2.82933	3.82723	2.13327	3.2512	
4.54712	0	0	1.80464	4.57476	0.502215	3.76998	1.50974	2.74781	0.692144	1.80602	1.31259	0.11025	0.737833	-0.399426	0.55121	-0.111813	0.836257	0.241331	0.311725	-0.371072	0.74756	0.51703	-0.28472	-2.00192	0.90088	-0.389244	2.52233	3.91097	2.86797	4.0981	2.81645	3.80631	2.11297	3.2158	
4.54712	0	0	1.78153	4.56905	0.470733	3.73547	1.49548	2.73345	0.671053	1.77527	1.29966	0.109179	0.717731	-0.393366	0.54147	-0.0995525	0.817052	0.250427	0.312654	-0.365896	0.740826	0.515065	-0.285718	-1.99911	0.89539	-0.385657	2.51389	3.88964	2.85952	4.06957	2.81109	3.79856	2.09699	3.19169	
4.54407	0	0	1.75843	4.56334	0.439252	3.70095	1.48123	2.71909	0.649961	1.74451	1.28672	0.108108	0.697629	-0.387305	0.531729	-0.087292	0.797847	0.259524	0.313582	-0.360719	0.734091	0.513099	-0.286716	-1.99629	0.8899	-0.382069	2.50544	3.86831	2.85106	4.04104	2.80574	3.79081	2.081	3.16758	
4.54712	0	0	1.73533	4.55763	0.40777	3.66644	1.46697	2.70473	0.62887	1.71376	1.27379	0.107037	0.677527	-0.381244	0.521989	-0.0750315	0.778641	0.26862	0.314511	-0.355542	0.727356	0.511133	-0.287713	-1.99347	0.884411	-0.378482	2.497	3.84699	2.84261	4.01251	2.80039	3.78306	2.06502	3.14347	
4.54407	0	0	1.71223	4.55192	0.376288	3.63193	1.45272	2.69037	0.607779	1.68301	1.26086	0.105966	0.657425	-0.375184	0.512249	-0.062771	0.759436	0.277717	0.31544	-0.350366	0.720622	0.509168	-0.288711	-1.99065	0.878921	-0.374895	2.48856	3.82566	2.83415	3.98398	2.79503	3.7753	2.04903	3.11937	
4.53949	0	0	1.70363	4.52904	0.363758	3.58547	1.44685	2.67061	0.589211	1.65677	1.25232	0.092539	0.649696	-0.391313	0.509854	-0.0788785	0.74821	0.264372	0.308136	-0.368698	0.714477	0.484609	-0.293354	-2.0071	0.873824	-0.396228	2.46862	3.79196	2.80369	3.93963	2.77366	3.74445	2.02032	3.06272	
4.54254	0	0	1.69503	4.50615	0.351227	3.53901	1.44098	2.65085	0.570643	1.63054	1.24379	0.079112	0.641967	-0.407443	0.507459	-0.094986	0.736984	0.251028	0.300832	-0.387029	0.708332	0.46005	-0.297998	-2.02355	0.868727	-0.417562	2.44868	3.75826	2.77322	3.89529	2.7523	3.7136	1.99161	3.00607	
4.54407	0	0	1.68644	4.48326	0.338697	3.49255	1.43512	2.63109	0.552075	1.60431	1.23526	0.065685	0.634238	-0.423573	0.505063	-0.111094	0.725758	0.237683	0.293528	-0.405361	0.702187	0.43549	-0.302641	-2.04	0.86363	-0.438895	2.42874	3.72456	2.74276	3.85095	2.73093	3.68275	1.96289	2.94942	
4.54407	0	0	1.67784	4.46037	0.326166	3.4461	1.42925	2.61133	0.533507	1.57808	1.22672	0.052258	0.626509	-0.439702	0.502668	-0.127201	0.714532	0.224338	0.286224	-0.423692	0.696042	0.410931	-0.307284	-2.05645	0.858533	-0.460228	2.4088	3.69085	2.7123	3.80661	2.70956	3.65189	1.93418	2.89277	
4.55017	0	0	1.66991	4.44748	0.314513	3.41108	1.42631	2.60148	0.540511	1.54707	1.22244	0.049366	0.629752	-0.448866	0.502769	-0.135107	0.708927	0.217684	0.284363	-0.433999	0.690782	0.40487	-0.309827	-2.05911	0.853245	-0.469072	2.38892	3.65744	2.6908	3.76368	2.69664	3.62025	1.89311	2.87204	
4.5578	0	0	1.66198	4.43458	0.30286	3.37606	1.42338	2.59163	0.547516	1.51605	1.21816	0.046474	0.632995	-0.458031	0.502871	-0.143014	0.703322	0.211029	0.282501	-0.444306	0.685521	0.398809	-0.31237	-2.06177	0.847957	-0.477916	2.36903	3.62402	2.6693	3.72075	2.68373	3.5886	1.85205	2.85131	
4.56238	0	0	1.65405	4.42169	0.291206	3.34104	1.42044	2.58178	0.55452	1.48504	1.21388	0.043582	0.636237	-0.467195	0.502973	-0.15092	0.697717	0.204375	0.28064	-0.454613	0.680261	0.392747	-0.314913	-2.06443	0.84267	-0.486759	2.34915	3.5906	2.6478	3.67782	2.67082	3.55695	1.81098	2.83058	
4.56848	0	0	1.64612	4.40879	0.279553	3.30602	1.41751	2.57193	0.561524	1.45403	1.20959	0.04069	0.63948	-0.476359	0.503074	-0.158826	0.692112	0.19772	0.278779	-0.46492	0.675	0.386686	-0.317456	-2.06709	0.837382	-0.495603	2.32926	3.55718	2.6263	3.6349	2.6579	3.5253	1.76992	2.80986	
4.58069	0	0	1.63568	4.3796	0.258074	3.25852	1.406	2.55012	0.545647	1.42057	1.20187	0.0400522	0.632706	-0.482487	0.489166	-0.157569	0.681347	0.194453	0.276965	-0.467571	0.677911	0.378459	-0.316462	-2.0699	0.834739	-0.500018	2.31856	3.52792	2.61059	3.60191	2.64828	3.50721	1.76344	2.76013	
4.58984	0	0	1.62523	4.35041	0.236596	3.21101	1.39449	2.52831	0.529771	1.38711	1.19414	0.0394145	0.625932	-0.488616	0.475257	-0.156311	0.670581	0.191186	0.27515	-0.470222	0.680822	0.370232	-0.315468	-2.07271	0.832097	-0.504432	2.30785	3.49867	2.59488	3.56892	2.63866	3.48911	1.75697	2.7104	
4.59747	0	0	1.61479	4.32122	0.215117	3.1635	1.38299	2.5065	0.513894	1.35365	1.18641	0.0387767	0.619158	-0.494745	0.461348	-0.155054	0.659816	0.187919	0.273336	-0.472874	0.683734	0.362005	-0.314473	-2.07552	0.829454	-0.508846	2.29715	3.46942	2.57916	3.53593	2.62903	3.47102	1.7505	2.66068	
4.6112	0	0	1.60435	4.29202	0.193638	3.11599	1.37148	2.48469	0.498017	1.32019	1.17869	0.038139	0.612384	-0.500873	0.44744	-0.153797	0.649051	0.184652	0.271522	-0.475525	0.686645	0.353778	-0.313479	-2.07833	0.826812	-0.513261	2.28644	3.44016	2.56345	3.50294	2.61941	3.45293	1.74403	2.61095	
4.61731	0	0	1.59273	4.26634	0.185485	3.07172	1.36829	2.45757	0.489739	1.28784	1.17362	0.0225282	0.600474	-0.517655	0.43915	-0.183509	0.639455	0.166946	0.261473	-0.501485	0.675679	0.332553	-0.321659	-2.09455	0.820472	-0.542797	2.25674	3.39089	2.5321	3.43773	2.59477	3.39859	1.70525	2.56278	
4.62189	0	0	1.58112	4.24066	0.177333	3.02745	1.3651	2.43045	0.481462	1.25548	1.16856	0.0069175	0.588564	-0.534438	0.430861	-0.213222	0.629858	0.14924	0.251425	-0.527444	0.664713	0.311327	-0.329839	-2.11076	0.814132	-0.572332	2.22705	3.34162	2.50074	3.37252	2.57013	3.34425	1.66648	2.51462	
4.63104	0	0	1.5695	4.21498	0.169181	2.98317	1.36192	2.40333	0.473185	1.22313	1.1635	-0.00869325	0.576654	-0.55122	0.422571	-0.242934	0.620262	0.131535	0.241376	-0.553404	0.653747	0.290102	-0.338018	-2.12698	0.807791	-0.601867	2.19735	3.29235	2.46939	3.30731	2.54548	3.28991	1.6277	2.46645	
4.63257	0	0	1.55788	4.1893	0.161028	2.9389	1.35873	2.37621	0.464907	1.19077	1.15844	-0.024304	0.564744	-0.568002	0.414282	-0.272647	0.610665	0.113829	0.231328	-0.579364	0.642781	0.268877	-0.346198	-2.1432	0.801451	-0.631403	2.16765	3.24308	2.43803	3.2421	2.52084	3.23557	1.58893	2.41828	
4.63257	0	0	1.55583	4.16006	0.149347	2.90484	1.35551	2.34923	0.459068	1.16279	1.1534	-0.0474152	0.56185	-0.597565	0.409543	-0.312244	0.607788	0.0884092	0.221219	-0.612726	0.639501	0.236479	-0.355919	-2.16478	0.789653	-0.657208	2.15008	3.18979	2.4126	3.17407	2.50138	3.17855	1.56485	2.37446	
4.63867	0	0	1.55378	4.13083	0.137665	2.87078	1.3523	2.32225	0.453229	1.13482	1.14837	-0.0705265	0.558957	-0.627129	0.404805	-0.351841	0.604912	0.0629895	0.211111	-0.646088	0.636221	0.204082	-0.365641	-2.18636	0.777856	-0.683013	2.13251	3.1365	2.38717	3.10604	2.48193	3.12154	1.54078	2.33063	
4.63409	0	0	1.55174	4.1016	0.125984	2.83672	1.34909	2.29527	0.44739	1.10684	1.14334	-0.0936377	0.556063	-0.656693	0.400066	-0.391437	0.602035	0.0375697	0.201002	-0.67945	0.63294	0.171684	-0.375362	-2.20794	0.766058	-0.708818	2.11494	3.08321	2.36174	3.03802	2.46247	3.06453	1.5167	2.2868	
4.63409	0	0	1.54969	4.07237	0.114303	2.80266	1.34587	2.26829	0.441551	1.07886	1.13831	-0.116749	0.553169	-0.686256	0.395327	-0.431034	0.599158	0.01215	0.190893	-0.712812	0.62966	0.139287	-0.385084	-2.22952	0.75426	-0.734623	2.09737	3.02991	2.3363	2.96999	2.44301	3.00752	1.49263	2.24297	
4.63257	0	0	1.53155	4.05378	0.099934	2.76311	1.33201	2.24454	0.429461	1.04651	1.12471	-0.137915	0.546071	-0.716399	0.384412	-0.46056	0.58756	-0.010854	0.180843	-0.73843	0.6206	0.123316	-0.394798	-2.25099	0.746501	-0.759879	2.08209	2.98532	2.3151	2.91624	2.42387	2.97249	1.46863	2.19961	
4.63257	0	0	1.51341	4.0352	0.085565	2.72355	1.31814	2.22079	0.417371	1.01416	1.11112	-0.159082	0.538973	-0.746542	0.373497	-0.490086	0.575962	-0.033858	0.170793	-0.764048	0.611541	0.107345	-0.404512	-2.27246	0.738743	-0.785135	2.06681	2.94073	2.29389	2.86248	2.40473	2.93747	1.44462	2.15625	
4.62952	0	0	1.49527	4.01661	0.071196	2.68399	1.30427	2.19705	0.405281	0.981805	1.09753	-0.180248	0.531874	-0.776685	0.362581	-0.519613	0.564364	-0.056862	0.160743	-0.789666	0.602481	0.0913748	-0.414227	-2.29393	0.730984	-0.810392	2.05152	2.89614	2.27269	2.80873	2.38559	2.90245	1.42062	2.11288	
4.62341	0	0	1.47713	3.99803	0.056827	2.64443	1.2904	2.1733	0.393191	0.949453	1.08394	-0.201414	0.524776	-0.806828	0.351666	-0.549139	0.552766	-0.079866	0.150693	-0.815284	0.593421	0.075404	-0.423941	-2.3154	0.723225	-0.835648	2.03624	2.85154	2.25148	2.75497	2.36645	2.86743	1.39662	2.06952	
4.62189	0	0	1.47737	3.96254	0.0397757	2.59953	1.28833	2.13434	0.382414	0.913629	1.06787	-0.237599	0.511518	-0.856892	0.338367	-0.601751	0.538723	-0.117994	0.124712	-0.834101	0.574375	0.0566977	-0.441636	-2.33367	0.70465	-0.853703	2.01886	2.82781	2.23882	2.71536	2.35475	2.84499	1.37687	2.03685	
4.61426	0	0	1.47761	3.92705	0.0227245	2.55462	1.28625	2.09539	0.371636	0.877804	1.05179	-0.273783	0.49826	-0.906955	0.325068	-0.654364	0.52468	-0.156122	0.09873	-0.852918	0.555329	0.0379915	-0.459331	-2.35194	0.686074	-0.871758	2.00149	2.80408	2.22615	2.67574	2.34306	2.82256	1.35712	2.00417	
4.61578	0	0	1.47784	3.89155	0.00567325	2.50971	1.28417	2.05643	0.360858	0.84198	1.03572	-0.309968	0.485002	-0.957018	0.311769	-0.706976	0.510637	-0.19425	0.0727485	-0.871735	0.536282	0.0192852	-0.477026	-2.37021	0.667499	-0.889814	1.98411	2.78035	2.21349	2.63613	2.33137	2.80013	1.33738	1.9715	
4.60968	0	0	1.47808	3.85606	-0.011378	2.46481	1.28209	2.01747	0.350081	0.806156	1.01965	-0.346152	0.471744	-1.00708	0.29847	-0.759588	0.496594	-0.232378	0.046767	-0.890552	0.517236	0.000579	-0.494721	-2.38848	0.648924	-0.907869	1.96673	2.75661	2.20082	2.59651	2.31967	2.77769	1.31763	1.93883	
4.6051	0	0	1.48502	3.83643	-0.00820375	2.42932	1.28353	1.99551	0.359246	0.780254	1.00612	-0.374437	0.457877	-1.04259	0.287591	-0.796205	0.485021	-0.255054	0.0332473	-0.913586	0.508216	-0.015249	-0.507895	-2.40958	0.637173	-0.93325	1.95959	2.70425	2.17963	2.54387	2.31272	2.73098	1.29376	1.89626	
4.60358	0	0	1.49197	3.8168	-0.0050295	2.39384	1.28497	1.97355	0.368411	0.754352	0.992598	-0.402723	0.44401	-1.0781	0.276712	-0.832822	0.473448	-0.27773	0.0197275	-0.936621	0.499195	-0.031077	-0.521069	-2.43067	0.625423	-0.958631	1.95244	2.65189	2.15843	2.49123	2.30577	2.68427	1.26989	1.8537	
4.60052	0	0	1.49891	3.79718	-0.00185525	2.35835	1.28641	1.95159	0.377576	0.72845	0.979073	-0.431009	0.430142	-1.11362	0.265833	-0.869438	0.461874	-0.300407	0.00620775	-0.959655	0.490175	-0.046905	-0.534242	-2.45177	0.613672	-0.984013	1.94529	2.59953	2.13723	2.43859	2.29881	2.63756	1.24603	1.81114	
4.59442	0	0	1.50586	3.77755	0.001319	2.32287	1.28784	1.92963	0.386741	0.702548	0.965549	-0.459294	0.416275	-1.14913	0.254954	-0.906055	0.450301	-0.323083	-0.007312	-0.982689	0.481154	-0.062733	-0.547416	-2.47287	0.601922	-1.00939	1.93815	2.54717	2.11604	2.38595	2.29186	2.59085	1.22216	1.76858	
4.59442	0	0	1.52377	3.77339	0.004726	2.31324	1.29696	1.92176	0.391818	0.699231	0.957938	-0.467266	0.40956	-1.15498	0.252438	-0.91388	0.450301	-0.323083	-0.00652775	-0.992546	0.485905	-0.0658372	-0.550504	-2.48354	0.600676	-1.01757	1.93266	2.51928	2.10764	2.34747	2.29245	2.5671	1.20669	1.74659	
4.58984	0	0	1.54167	3.76923	0.008133	2.30361	1.30608	1.9139	0.396895	0.695913	0.950327	-0.475239	0.402845	-1.16084	0.249922	-0.921704	0.450301	-0.323083	-0.0057435	-1.0024	0.490655	-0.0689415	-0.553593	-2.49421	0.59943	-1.02574	1.92717	2.49138	2.09923	2.30899	2.29305	2.54335	1.19123	1.72459	
4.58832	0	0	1.55958	3.76507	0.01154	2.29398	1.31519	1.90603	0.401972	0.692596	0.942715	-0.483211	0.396131	-1.1667	0.247405	-0.929528	0.450301	-0.323083	-0.00495925	-1.01226	0.495406	-0.0720457	-0.556682	-2.50488	0.598184	-1.03392	1.92169	2.46349	2.09083	2.27051	2.29365	2.51959	1.17576	1.7026	
4.58374	0	0	1.57749	3.76091	0.014947	2.28436	1.32431	1.89817	0.407049	0.689279	0.935104	-0.491183	0.389416	-1.17256	0.244889	-0.937353	0.450301	-0.323083	-0.004175	-1.02212	0.500156	-0.07515	-0.55977	-2.51556	0.596938	-1.04209	1.9162	2.43559	2.08242	2.23203	2.29424	2.49584	1.1603	1.68061	
4.58374	0	0	1.57473	3.78034	0.00983525	2.2988	1.32492	1.9054	0.403124	0.700371	0.932552	-0.48397	0.390414	-1.16296	0.248227	-0.924378	0.462963	-0.314574	0.001218	-1.01443	0.507756	-0.055285	-0.556279	-2.51572	0.60219	-1.03354	1.91476	2.43968	2.08959	2.22422	2.30577	2.50741	1.15319	1.67885	
4.58374	0	0	1.57197	3.79977	0.0047235	2.31325	1.32553	1.91264	0.3992	0.711462	0.93	-0.476758	0.391412	-1.15337	0.251565	-0.911403	0.475626	-0.306065	0.006611	-1.00674	0.515356	-0.03542	-0.552789	-2.51589	0.607442	-1.02498	1.91331	2.44376	2.09675	2.21642	2.3173	2.51899	1.14608	1.67709	
4.57764	0	0	1.56921	3.8192	-0.00038825	2.3277	1.32614	1.91988	0.395276	0.722553	0.927448	-0.469545	0.39241	-1.14378	0.254903	-0.898428	0.488288	-0.297556	0.012004	-0.999045	0.522957	-0.015555	-0.549298	-2.51606	0.612695	-1.01642	1.91186	2.44785	2.10391	2.20861	2.32883	2.53057	1.13897	1.67534	
4.57611	0	0	1.56645	3.83863	-0.0055	2.34214	1.32674	1.92712	0.391351	0.733645	0.924896	-0.462332	0.393408	-1.13418	0.258241	-0.885453	0.50095	-0.289047	0.017397	-0.991353	0.530557	0.00431	-0.545807	-2.51623	0.617947	-1.00787	1.91042	2.45194	2.11107	2.2008	2.34036	2.54214	1.13186	1.67358	
4.57458	0	0	1.57252	3.84476	0.002304	2.33334	1.33236	1.92918	0.400205	0.730704	0.926584	-0.459736	0.393408	-1.13418	0.256495	-0.880518	0.504968	-0.278217	0.010569	-0.964405	0.53195	0.0314427	-0.550675	-2.50247	0.615043	-0.987951	1.91794	2.4596	2.11247	2.20928	2.35014	2.56986	1.13186	1.67358	
4.57458	0	0	1.57859	3.85088	0.010108	2.32454	1.33797	1.93125	0.409058	0.727764	0.928272	-0.457139	0.393408	-1.13418	0.254748	-0.875582	0.508987	-0.267386	0.003741	-0.937457	0.533343	0.0585755	-0.555543	-2.48871	0.612139	-0.968033	1.92546	2.46727	2.11387	2.21776	2.35992	2.59757	1.13186	1.67358	
4.57306	0	0	1.58466	3.85701	0.017912	2.31573	1.34358	1.93331	0.417911	0.724824	0.929959	-0.454543	0.393408	-1.13418	0.253002	-0.870646	0.513005	-0.256556	-0.003087	-0.910509	0.534735	0.0857082	-0.560412	-2.47495	0.609235	-0.948115	1.93298	2.47493	2.11527	2.22623	2.3697	2.62529	1.13186	1.67358	
4.57306	0	0	1.59073	3.86314	0.025716	2.30693	1.34919	1.93538	0.426765	0.721883	0.931647	-0.451946	0.393408	-1.13418	0.251256	-0.865711	0.517023	-0.245726	-0.009915	-0.883561	0.536128	0.112841	-0.56528	-2.46119	0.606331	-0.928197	1.9405	2.4826	2.11667	2.23471	2.37948	2.653	1.13186	1.67358	
4.57001	0	0	1.60101	3.86906	0.028409	2.31258	1.35454	1.94719	0.425297	0.737084	0.942636	-0.438746	0.402696	-1.12314	0.259727	-0.852243	0.536863	-0.235079	-0.00546075	-0.880839	0.546597	0.124759	-0.563739	-2.45585	0.612965	-0.923504	1.93443	2.47085	2.11818	2.20558	2.38439	2.63912	1.12354	1.65347	
4.56695	0	0	1.61129	3.87497	0.031102	2.31823	1.35988	1.95901	0.423828	0.752286	0.953626	-0.425545	0.411984	-1.1121	0.268198	-0.838776	0.556704	-0.224432	-0.0010065	-0.878116	0.557066	0.136678	-0.562197	-2.4505	0.6196	-0.918812	1.92835	2.45909	2.11969	2.17645	2.38931	2.62523	1.11523	1.63336	
4.56695	0	0	1.62157	3.88089	0.033795	2.32388	1.36523	1.97082	0.422359	0.767487	0.964616	-0.412345	0.421271	-1.10106	0.276669	-0.825308	0.576544	-0.213785	0.00344775	-0.875393	0.567535	0.148596	-0.560655	-2.44515	0.626235	-0.914119	1.92228	2.44734	2.1212	2.14732	2.39422	2.61134	1.10691	1.61325	
4.56543	0	0	1.63186	3.88681	0.036488	2.32953	1.37058	1.98264	0.420891	0.782688	0.975605	-0.399144	0.430559	-1.09002	0.28514	-0.81184	0.596384	-0.203138	0.007902	-0.872671	0.578004	0.160514	-0.559114	-2.4398	0.632869	-0.909426	1.9162	2.43559	2.12271	2.11819	2.39913	2.59746	1.09859	1.59313	
4.5639	0	0	1.63328	3.90615	0.0391815	2.33519	1.3783	1.99678	0.424504	0.794598	0.985737	-0.37601	0.435115	-1.06554	0.295195	-0.780245	0.604905	-0.171438	0.0177537	-0.862181	0.588492	0.172471	-0.550582	-2.43478	0.638124	-0.900804	1.91244	2.43177	2.11988	2.10134	2.40836	2.59356	1.09736	1.57484	
4.56085	0	0	1.6347	3.92549	0.041875	2.34085	1.38601	2.01092	0.428117	0.806509	0.99587	-0.352877	0.439672	-1.04105	0.305249	-0.74865	0.613426	-0.139738	0.0276055	-0.851692	0.59898	0.184428	-0.542051	-2.42975	0.643379	-0.892181	1.90869	2.42794	2.11706	2.08448	2.41759	2.58966	1.09613	1.55654	
4.55932	0	0	1.63612	3.94483	0.0445685	2.34651	1.39373	2.02506	0.431729	0.818419	1.006	-0.329743	0.444229	-1.01657	0.315303	-0.717056	0.621948	-0.108037	0.0374572	-0.841202	0.609469	0.196385	-0.53352	-2.42472	0.648633	-0.883559	1.90493	2.42412	2.11424	2.06763	2.42682	2.58577	1.0949	1.53825	
4.55932	0	0	1.63754	3.96417	0.047262	2.35217	1.40145	2.03919	0.435342	0.830329	1.01613	-0.306609	0.448785	-0.99208	0.325358	-0.685461	0.630469	-0.076337	0.047309	-0.830712	0.619957	0.208342	-0.524988	-2.41969	0.653888	-0.874937	1.90117	2.4203	2.11141	2.05077	2.43605	2.58187	1.09367	1.51996	
4.5578	0	0	1.63052	3.98399	0.0455535	2.35699	1.39349	2.06171	0.431395	0.841485	1.02455	-0.278479	0.459077	-0.971232	0.340573	-0.653175	0.648846	-0.0611133	0.0555005	-0.80776	0.627565	0.228532	-0.515876	-2.40652	0.668586	-0.869441	1.90637	2.42004	2.10713	2.05046	2.44254	2.59687	1.07951	1.51651	
4.5578	0	0	1.62351	4.00382	0.043845	2.36182	1.38552	2.08423	0.427447	0.852642	1.03296	-0.25035	0.469368	-0.950383	0.355788	-0.620889	0.667223	-0.0458895	0.063692	-0.784808	0.635174	0.248721	-0.506765	-2.39334	0.683284	-0.863946	1.91158	2.41978	2.10286	2.05014	2.44902	2.61186	1.06535	1.51306	
4.55475	0	0	1.6165	4.02364	0.0421365	2.36665	1.37755	2.10675	0.423499	0.863798	1.04138	-0.222221	0.47966	-0.929534	0.371003	-0.588604	0.685599	-0.0306657	0.0718835	-0.761856	0.642782	0.268911	-0.497653	-2.38017	0.697982	-0.85845	1.91678	2.41951	2.09858	2.04982	2.45551	2.62686	1.05119	1.5096	
4.5517	0	0	1.60948	4.04346	0.040428	2.37148	1.36959	2.12926	0.419552	0.874954	1.0498	-0.194091	0.489952	-0.908686	0.386218	-0.556318	0.703976	-0.015442	0.080075	-0.738904	0.65039	0.289101	-0.488541	-2.367	0.71268	-0.852954	1.92198	2.41925	2.0943	2.04951	2.462	2.64186	1.03703	1.50615	
4.55322	0	0	1.61299	4.03355	0.03675	2.35534	1.36633	2.12946	0.419722	0.863409	1.05485	-0.178638	0.48518	-0.895199	0.387767	-0.538049	0.702853	-0.00105175	0.0758747	-0.703939	0.651287	0.307446	-0.486856	-2.34251	0.706949	-0.824981	1.92661	2.43509	2.10143	2.05419	2.4667	2.67312	1.05286	1.48313	
4.55017	0	0	1.6165	4.02363	0.033072	2.3392	1.36308	2.12966	0.419893	0.851865	1.0599	-0.163185	0.480407	-0.881712	0.389315	-0.51978	0.701731	0.0133385	0.0716745	-0.668974	0.652184	0.325792	-0.485171	-2.31802	0.701218	-0.797007	1.93124	2.45093	2.10855	2.05887	2.47139	2.70438	1.0687	1.4601	
4.54712	0	0	1.62001	4.01371	0.029394	2.32307	1.35982	2.12987	0.420063	0.84032	1.06495	-0.147732	0.475635	-0.868225	0.390863	-0.501512	0.700608	0.0277287	0.0674742	-0.634009	0.653081	0.344137	-0.483487	-2.29354	0.695488	-0.769034	1.93587	2.46676	2.11567	2.06356	2.47609	2.73564	1.08453	1.43708	
4.54864	0	0	1.62352	4.0038	0.025716	2.30693	1.35657	2.13007	0.420233	0.828775	1.07	-0.132279	0.470863	-0.854738	0.392412	-0.483243	0.699485	0.042119	0.063274	-0.599044	0.653978	0.362482	-0.481802	-2.26905	0.689757	-0.741061	1.9405	2.4826	2.1228	2.06824	2.48078	2.7669	1.10036	1.41406	
4.54712	0	0	1.62235	4.0071	0.0369287	2.2885	1.35716	2.13738	0.415144	0.8321	1.07844	-0.111453	0.480171	-0.843504	0.401637	-0.456369	0.70554	0.0586985	0.0731395	-0.588371	0.654422	0.371677	-0.474224	-2.26117	0.697814	-0.740255	1.93963	2.47059	2.11997	2.05143	2.49105	2.76019	1.09202	1.39422	
4.54559	0	0	1.62118	4.0104	0.0481415	2.27007	1.35776	2.1447	0.410055	0.835426	1.08689	-0.0906275	0.489479	-0.832269	0.410863	-0.429496	0.711595	0.075278	0.083005	-0.577698	0.654865	0.380873	-0.466647	-2.2533	0.705871	-0.739449	1.93877	2.45857	2.11714	2.03461	2.50132	2.75348	1.08367	1.37438	
4.54864	0	0	1.62001	4.01371	0.0593542	2.25165	1.35835	2.15202	0.404966	0.838751	1.09533	-0.0698017	0.498786	-0.821035	0.420088	-0.402622	0.717649	0.0918575	0.0928705	-0.567025	0.655309	0.390068	-0.45907	-2.24542	0.713929	-0.738644	1.9379	2.44656	2.1143	2.0178	2.51158	2.74677	1.07533	1.35455	
4.54559	0	0	1.61884	4.01701	0.070567	2.23322	1.35894	2.15934	0.399877	0.842076	1.10377	-0.048976	0.508094	-0.809801	0.429313	-0.375749	0.723704	0.108437	0.102736	-0.556352	0.655753	0.399263	-0.451492	-2.23754	0.721986	-0.737838	1.93703	2.43455	2.11147	2.00098	2.52185	2.74006	1.06699	1.33471	
4.53949	0	0	1.62562	4.03294	0.077678	2.23967	1.36486	2.17864	0.412354	0.85108	1.11644	-0.0175502	0.517758	-0.774378	0.446149	-0.332213	0.73538	0.131727	0.116267	-0.53274	0.67255	0.404125	-0.440817	-2.21878	0.729892	-0.72476	1.94079	2.43837	2.11147	2.00098	2.53033	2.74959	1.05992	1.33302	
4.53949	0	0	1.6324	4.04887	0.084789	2.24613	1.37078	2.19794	0.424832	0.860085	1.12911	0.0138755	0.527421	-0.738955	0.462985	-0.288677	0.747056	0.155017	0.129799	-0.509128	0.689348	0.408988	-0.430142	-2.20003	0.737797	-0.711682	1.94456	2.4422	2.11147	2.00098	2.53882	2.75912	1.05285	1.33133	
4.54254	0	0	1.63918	4.0648	0.0919	2.25258	1.3767	2.21724	0.43731	0.869089	1.14177	0.0453013	0.537084	-0.703532	0.47982	-0.24514	0.758732	0.178307	0.14333	-0.485517	0.706145	0.413851	-0.419466	-2.18127	0.745703	-0.698604	1.94832	2.44603	2.11147	2.00098	2.5473	2.76865	1.04578	1.32965	
4.54254	0	0	1.64596	4.08073	0.099011	2.25904	1.38261	2.23655	0.449787	0.878093	1.15444	0.076727	0.546748	-0.668109	0.496656	-0.201604	0.770408	0.201597	0.156862	-0.461905	0.722942	0.418713	-0.408791	-2.16252	0.753609	-0.685526	1.95209	2.44986	2.11147	2.00098	2.55579	2.77818	1.0387	1.32796	
4.53949	0	0	1.65252	4.07389	0.10412	2.2446	1.38439	2.23152	0.44864	0.870259	1.15604	0.0946687	0.541927	-0.654485	0.49375	-0.17816	0.767237	0.210559	0.15881	-0.428648	0.723826	0.437189	-0.406147	-2.14057	0.757305	-0.660484	1.95382	2.47393	2.11859	2.01811	2.56365	2.81196	1.04995	1.33955	
4.53949	0	0	1.65908	4.06705	0.109229	2.23016	1.38617	2.22649	0.447492	0.862424	1.15764	0.112611	0.537106	-0.640861	0.490843	-0.154717	0.764066	0.219521	0.160758	-0.39539	0.72471	0.455666	-0.403502	-2.11863	0.761002	-0.635442	1.95555	2.49801	2.1257	2.03525	2.5715	2.84573	1.06119	1.35115	
4.53949	0	0	1.66564	4.06022	0.114338	2.21572	1.38795	2.22146	0.446345	0.85459	1.15924	0.130552	0.532286	-0.627237	0.487936	-0.131273	0.760894	0.228482	0.162706	-0.362132	0.725594	0.474142	-0.400858	-2.09669	0.764699	-0.610401	1.95728	2.52209	2.13282	2.05238	2.57936	2.87951	1.07243	1.36274	
4.53644	0	0	1.67221	4.05338	0.119447	2.20128	1.38973	2.21643	0.445198	0.846756	1.16084	0.148494	0.527465	-0.613613	0.48503	-0.10783	0.757723	0.237444	0.164654	-0.328875	0.726478	0.492618	-0.398214	-2.07474	0.768395	-0.585359	1.95901	2.54616	2.13993	2.06951	2.58722	2.91329	1.08367	1.37434	
4.53796	0	0	1.68253	4.05939	0.128279	2.20291	1.39774	2.22087	0.455232	0.851647	1.17021	0.159503	0.526812	-0.599196	0.493537	-0.0937443	0.761756	0.248609	0.168258	-0.323533	0.72838	0.497738	-0.393147	-2.06943	0.771031	-0.580965	1.95525	2.54231	2.12709	2.06856	2.58405	2.91102	1.0766	1.37264	
4.53796	0	0	1.69285	4.06539	0.137112	2.20453	1.40574	2.22531	0.465267	0.856538	1.17959	0.170512	0.52616	-0.584779	0.502044	-0.0796585	0.765789	0.259775	0.171863	-0.318191	0.730282	0.502858	-0.38808	-2.06411	0.773667	-0.576572	1.95148	2.53846	2.11425	2.0676	2.58089	2.90876	1.06952	1.37095	
4.53491	0	0	1.70317	4.0714	0.145945	2.20616	1.41375	2.22975	0.475301	0.861429	1.18896	0.181521	0.525507	-0.570362	0.510551	-0.0655727	0.769822	0.270941	0.175467	-0.312849	0.732185	0.507979	-0.383014	-2.05879	0.776304	-0.572178	1.94772	2.53461	2.10141	2.06665	2.57772	2.90649	1.06244	1.36925	
4.53796	0	0	1.71349	4.0774	0.154777	2.20779	1.42176	2.23419	0.485336	0.86632	1.19833	0.19253	0.524854	-0.555945	0.519058	-0.051487	0.773855	0.282106	0.179071	-0.307507	0.734087	0.513099	-0.377947	-2.05347	0.77894	-0.567784	1.94395	2.53076	2.08858	2.0657	2.57456	2.90422	1.05537	1.36756	
4.53644	0	0	1.71066	4.09714	0.155788	2.21824	1.41967	2.24912	0.480058	0.881235	1.20086	0.200418	0.531601	-0.549842	0.524963	-0.0376172	0.775871	0.287699	0.187142	-0.307003	0.735989	0.518225	-0.371881	-2.05096	0.787036	-0.566952	1.93729	2.53511	2.08146	2.06101	2.57673	2.90931	1.05537	1.36756	
4.54101	0	0	1.70783	4.11688	0.156799	2.22869	1.41758	2.26404	0.474781	0.896151	1.20338	0.208306	0.538347	-0.543739	0.530868	-0.0237475	0.777887	0.293293	0.195214	-0.306499	0.737892	0.523351	-0.365815	-2.04845	0.795131	-0.56612	1.93063	2.53947	2.07435	2.05633	2.57889	2.9144	1.05537	1.36756	
4.54254	0	0	1.705	4.13662	0.157809	2.23915	1.4155	2.27897	0.469504	0.911066	1.2059	0.216194	0.545094	-0.537635	0.536774	-0.00987775	0.779904	0.298886	0.203286	-0.305994	0.739794	0.528477	-0.35975	-2.04593	0.803227	-0.565288	1.92396	2.54382	2.06724	2.05165	2.58106	2.91948	1.05537	1.36756	
4.54712	0	0	1.70217	4.15636	0.15882	2.2496	1.41341	2.29389	0.464226	0.925981	1.20843	0.224082	0.55184	-0.531532	0.542679	0.003992	0.78192	0.304479	0.211357	-0.30549	0.741696	0.533603	-0.353684	-2.04342	0.811323	-0.564456	1.9173	2.54818	2.06012	2.04696	2.58323	2.92457	1.05537	1.36756	
4.54712	0	0	1.69677	4.15989	0.149984	2.24796	1.4152	2.28885	0.465546	0.92225	1.20766	0.211237	0.548315	-0.546739	0.543803	-0.0144708	0.776299	0.297789	0.210367	-0.326007	0.739355	0.519221	-0.362284	-2.04859	0.806042	-0.573244	1.89505	2.55326	2.03879	2.0578	2.55132	2.94759	1.0483	1.36586	
4.54712	0	0	1.69137	4.16342	0.141149	2.24632	1.41698	2.28381	0.466866	0.918519	1.20689	0.198391	0.54479	-0.561945	0.544928	-0.0329335	0.770678	0.291098	0.209376	-0.346523	0.737013	0.504839	-0.370884	-2.05376	0.800762	-0.582032	1.8728	2.55834	2.01745	2.06863	2.51941	2.97061	1.04123	1.36417	
4.54712	0	0	1.68596	4.16695	0.132313	2.24469	1.41877	2.27876	0.468186	0.914787	1.20612	0.185546	0.541264	-0.577152	0.546052	-0.0513962	0.765057	0.284407	0.208386	-0.36704	0.734672	0.490458	-0.379483	-2.05894	0.795482	-0.59082	1.85055	2.56343	1.99611	2.07947	2.4875	2.99363	1.03416	1.36247	
4.55322	0	0	1.68056	4.17048	0.123477	2.24305	1.42055	2.27372	0.469506	0.911056	1.20535	0.172701	0.537739	-0.592359	0.547176	-0.069859	0.759436	0.277717	0.207396	-0.387557	0.732331	0.476076	-0.388083	-2.06411	0.790201	-0.599608	1.8283	2.56851	1.97477	2.09031	2.45559	3.01665	1.02709	1.36078	
4.55017	0	0	1.68361	4.17361	0.123477	2.24305	1.42144	2.2712	0.470651	0.918917	1.202	0.159668	0.538385	-0.606757	0.544772	-0.0859712	0.755834	0.27662	0.209079	-0.40784	0.731889	0.466836	-0.38665	-2.07798	0.790372	-0.611936	1.81335	2.55313	1.96066	2.06853	2.44685	2.98558	1.01298	1.35739	
4.55017	0	0	1.68665	4.17674	0.123477	2.24305	1.42233	2.26867	0.471796	0.926778	1.19864	0.146636	0.539031	-0.621156	0.542369	-0.102084	0.752231	0.275523	0.210761	-0.428123	0.731446	0.457596	-0.385217	-2.09185	0.790544	-0.624265	1.79841	2.53774	1.94655	2.04675	2.4381	2.95452	0.998874	1.354	
4.5517	0	0	1.6897	4.17987	0.123477	2.24305	1.42323	2.26615	0.472941	0.93464	1.19529	0.133603	0.539678	-0.635555	0.539965	-0.118196	0.748628	0.274425	0.212444	-0.448406	0.731004	0.448356	-0.383783	-2.10571	0.790715	-0.636594	1.78346	2.52236	1.93244	2.02497	2.42935	2.92345	0.984765	1.35061	
4.54864	0	0	1.69275	4.183	0.123477	2.24305	1.42412	2.26363	0.474086	0.942501	1.19194	0.12057	0.540324	-0.649953	0.537562	-0.134308	0.745026	0.273328	0.214126	-0.468689	0.730562	0.439116	-0.38235	-2.11958	0.790886	-0.648922	1.76852	2.50697	1.91833	2.0032	2.42061	2.89239	0.970656	1.34722	
4.54712	0	0	1.67419	4.20025	0.106844	2.25021	1.41344	2.26674	0.460095	0.948772	1.18252	0.117229	0.531974	-0.651474	0.531444	-0.132272	0.739838	0.276718	0.214126	-0.468689	0.731004	0.448356	-0.381359	-2.12238	0.790886	-0.648922	1.76767	2.49499	1.91693	1.99484	2.41433	2.88787	0.963615	1.34552	
4.54407	0	0	1.65563	4.2175	0.0902115	2.25738	1.40276	2.26984	0.446103	0.955043	1.17309	0.113888	0.523624	-0.652996	0.525326	-0.130237	0.734651	0.280108	0.214126	-0.468689	0.731446	0.457596	-0.380368	-2.12518	0.790886	-0.648922	1.76683	2.483	1.91554	1.98648	2.40805	2.88334	0.956573	1.34383	
4.54864	0	0	1.63707	4.23475	0.0735787	2.26455	1.39208	2.27294	0.432112	0.961315	1.16367	0.110547	0.515275	-0.654518	0.519208	-0.128201	0.729464	0.283497	0.214126	-0.468689	0.731889	0.466836	-0.379378	-2.12798	0.790886	-0.648922	1.76598	2.47101	1.91414	1.97812	2.40177	2.87882	0.949531	1.34213	
4.54712	0	0	1.61851	4.252	0.056946	2.27171	1.3814	2.27605	0.418121	0.967586	1.15425	0.107206	0.506925	-0.656039	0.51309	-0.126165	0.724276	0.286887	0.214126	-0.468689	0.732331	0.476076	-0.378387	-2.13078	0.790886	-0.648922	1.76514	2.45902	1.91274	1.96976	2.39549	2.8743	0.94249	1.34044	
4.54254	0	0	1.61009	4.25238	0.0498495	2.26526	1.37756	2.26888	0.410569	0.966782	1.14664	0.0913333	0.500827	-0.67642	0.508178	-0.150364	0.717085	0.284689	0.206848	-0.486883	0.728524	0.465861	-0.383023	-2.14709	0.784368	-0.66599	1.73645	2.46838	1.89297	1.97651	2.3729	2.8826	0.928434	1.33705	
4.54407	0	0	1.60166	4.25276	0.042753	2.2588	1.37371	2.26172	0.403017	0.965979	1.13902	0.0754605	0.494729	-0.696801	0.503266	-0.174563	0.709893	0.282492	0.19957	-0.505077	0.724716	0.455647	-0.387659	-2.16341	0.77785	-0.683059	1.70776	2.47773	1.87319	1.98326	2.35031	2.8909	0.914378	1.33366	
4.54101	0	0	1.59324	4.25314	0.0356565	2.25234	1.36987	2.25455	0.395465	0.965175	1.13141	0.0595878	0.488631	-0.717181	0.498353	-0.198761	0.702701	0.280294	0.192291	-0.523271	0.720909	0.445432	-0.392296	-2.17972	0.771332	-0.700127	1.67908	2.48709	1.85341	1.99001	2.32772	2.8992	0.900322	1.33027	
4.53949	0	0	1.58482	4.25352	0.02856	2.24588	1.36602	2.24739	0.387913	0.964372	1.12379	0.043715	0.482533	-0.737562	0.493441	-0.22296	0.69551	0.278096	0.185013	-0.541465	0.717102	0.435217	-0.396932	-2.19603	0.764814	-0.717195	1.65039	2.49644	1.83363	1.99675	2.30512	2.9075	0.886266	1.32688	
4.53949	0	0	1.58128	4.26352	0.026859	2.25069	1.36424	2.25242	0.390367	0.968506	1.12379	0.043715	0.484132	-0.742081	0.491738	-0.225753	0.707889	0.276904	0.184963	-0.549065	0.723834	0.437167	-0.398478	-2.20146	0.766214	-0.721151	1.64956	2.48449	1.82522	1.98376	2.29561	2.89008	0.882138	1.31702	
4.54101	0	0	1.57774	4.27352	0.025158	2.2555	1.36246	2.25745	0.392821	0.972641	1.12379	0.043715	0.48573	-0.746599	0.490035	-0.228547	0.720268	0.275712	0.184912	-0.556665	0.730565	0.439116	-0.400025	-2.20688	0.767614	-0.725106	1.64872	2.47253	1.81681	1.97077	2.28609	2.87265	0.878011	1.30717	
4.53644	0	0	1.5742	4.28352	0.023457	2.26031	1.36068	2.26249	0.395275	0.976776	1.12379	0.043715	0.487329	-0.751117	0.488332	-0.231341	0.732647	0.27452	0.184862	-0.564264	0.737297	0.441065	-0.401571	-2.21231	0.769014	-0.729062	1.64789	2.46057	1.80839	1.95778	2.27657	2.85523	0.873883	1.29731	
4.54101	0	0	1.57066	4.29352	0.021756	2.26511	1.3589	2.26752	0.397729	0.98091	1.12379	0.043715	0.488928	-0.755636	0.486629	-0.234134	0.745026	0.273328	0.184811	-0.571864	0.744029	0.443015	-0.403117	-2.21773	0.770414	-0.733018	1.64706	2.44862	1.79998	1.94479	2.26706	2.83781	0.869755	1.28746	
4.53949	0	0	1.55451	4.30407	0.00348425	2.27705	1.34646	2.27564	0.380008	0.986751	1.12118	0.0511027	0.484129	-0.742074	0.489136	-0.226002	0.747461	0.28901	0.191994	-0.568924	0.753121	0.45934	-0.400583	-2.2151	0.773055	-0.72866	1.64478	2.44074	1.80422	1.93279	2.271	2.82665	0.875521	1.27116	
4.53796	0	0	1.53836	4.31462	-0.0147875	2.28899	1.33403	2.28377	0.362287	0.992592	1.11856	0.0584905	0.47933	-0.728512	0.491642	-0.217869	0.749896	0.304691	0.199176	-0.565985	0.762214	0.475665	-0.398049	-2.21247	0.775696	-0.724301	1.64251	2.43287	1.80847	1.92079	2.27495	2.81549	0.881288	1.25486	
4.53949	0	0	1.52222	4.32518	-0.0330592	2.30093	1.3216	2.29189	0.344565	0.998434	1.11595	0.0658782	0.474532	-0.71495	0.494149	-0.209736	0.752331	0.320373	0.206359	-0.563045	0.771306	0.491989	-0.395515	-2.20983	0.778336	-0.719943	1.64024	2.42499	1.81271	1.90879	2.2789	2.80434	0.887054	1.23857	
4.54254	0	0	1.50607	4.33573	-0.051331	2.31287	1.30917	2.30002	0.326844	1.00428	1.11333	0.073266	0.469733	-0.701388	0.496656	-0.201604	0.754766	0.336054	0.213541	-0.560105	0.780398	0.508314	-0.392981	-2.2072	0.780977	-0.715585	1.63796	2.41712	1.81696	1.89679	2.28285	2.79318	0.892821	1.22227	
4.54254	0	0	1.49466	4.33293	-0.0549938	2.2968	1.30445	2.29536	0.321957	0.996007	1.11508	0.06834	0.470367	-0.7157	0.492447	-0.212529	0.754766	0.336054	0.207182	-0.573112	0.77849	0.503192	-0.396076	-2.21804	0.77166	-0.724697	1.61516	2.41023	1.7931	1.8909	2.25597	2.78081	0.868931	1.22538	
4.53949	0	0	1.48326	4.33013	-0.0586565	2.28073	1.29973	2.29071	0.317069	0.987738	1.11682	0.063414	0.471001	-0.730012	0.488237	-0.223453	0.754766	0.336054	0.200823	-0.586119	0.776582	0.498069	-0.39917	-2.22888	0.762343	-0.733809	1.59236	2.40334	1.76923	1.88501	2.2291	2.76843	0.845042	1.22848	
4.54712	0	0	1.47186	4.32734	-0.0623192	2.26467	1.29501	2.28606	0.312182	0.979469	1.11856	0.058488	0.471634	-0.744325	0.484027	-0.234377	0.754766	0.336054	0.194464	-0.599127	0.774675	0.492947	-0.402265	-2.23972	0.753026	-0.74292	1.56955	2.39644	1.74537	1.87913	2.20222	2.75606	0.821152	1.23158	
4.54864	0	0	1.46046	4.32454	-0.065982	2.2486	1.29029	2.2814	0.307294	0.971201	1.12031	0.053562	0.472268	-0.758637	0.479818	-0.245302	0.754766	0.336054	0.188105	-0.612134	0.772767	0.487824	-0.40536	-2.25055	0.743709	-0.752032	1.54675	2.38955	1.72151	1.87324	2.17535	2.74368	0.797262	1.23469	
4.54712	0	0	1.45745	4.32139	-0.0625895	2.23901	1.28705	2.28159	0.30241	0.96295	1.11943	0.0560247	0.463947	-0.760139	0.484216	-0.250127	0.758371	0.337158	0.188049	-0.619711	0.772767	0.487824	-0.404374	-2.25334	0.747899	-0.763874	1.53854	2.3701	1.71875	1.84447	2.16571	2.71593	0.79476	1.19894	
4.55017	0	0	1.45444	4.31824	-0.059197	2.22942	1.2838	2.28178	0.297525	0.954698	1.11856	0.0584875	0.455626	-0.76164	0.488614	-0.254951	0.761976	0.338263	0.187992	-0.627288	0.772767	0.487824	-0.403389	-2.25613	0.752089	-0.775716	1.53032	2.35065	1.71599	1.81571	2.15607	2.68817	0.792258	1.16319	
4.55322	0	0	1.45143	4.31509	-0.0558045	2.21984	1.28055	2.28197	0.292641	0.946446	1.11769	0.0609502	0.447305	-0.763142	0.493011	-0.259776	0.76558	0.339367	0.187935	-0.634865	0.772767	0.487824	-0.402404	-2.25891	0.756279	-0.787557	1.5221	2.3312	1.71324	1.78694	2.14644	2.66042	0.789757	1.12745	
4.5517	0	0	1.44842	4.31194	-0.052412	2.21025	1.27731	2.28216	0.287757	0.938195	1.11682	0.063413	0.438984	-0.764644	0.497409	-0.264601	0.769185	0.340471	0.187879	-0.642442	0.772767	0.487824	-0.401418	-2.2617	0.760469	-0.799399	1.51389	2.31175	1.71048	1.75817	2.1368	2.63266	0.787255	1.0917	
4.54864	0	0	1.43351	4.31912	-0.0672303	2.21257	1.26491	2.29026	0.270121	0.944004	1.11764	0.0685575	0.444739	-0.768404	0.49902	-0.253937	0.774806	0.347187	0.187935	-0.634865	0.774675	0.492947	-0.400856	-2.25349	0.757676	-0.791506	1.51447	2.2959	1.71329	1.73806	2.13955	2.6139	0.773308	1.0884	
4.55017	0	0	1.41861	4.3263	-0.0820485	2.21489	1.25251	2.29836	0.252485	0.949813	1.11847	0.073702	0.450495	-0.772165	0.500632	-0.243274	0.780428	0.353904	0.187992	-0.627288	0.776582	0.498069	-0.400294	-2.24529	0.754884	-0.783613	1.51505	2.28005	1.7161	1.71794	2.14231	2.59514	0.75936	1.08509	
4.54864	0	0	1.40371	4.33347	-0.0968668	2.21721	1.24012	2.30646	0.23485	0.955623	1.11929	0.0788465	0.45625	-0.775926	0.502243	-0.23261	0.78605	0.36062	0.188049	-0.619711	0.77849	0.503192	-0.399732	-2.23709	0.752091	-0.775721	1.51563	2.2642	1.71891	1.69783	2.14506	2.57637	0.745413	1.08179	
4.55017	0	0	1.38881	4.34065	-0.111685	2.21953	1.22772	2.31456	0.217214	0.961432	1.12012	0.083991	0.462005	-0.779686	0.503854	-0.221947	0.791671	0.367336	0.188105	-0.612134	0.780398	0.508314	-0.39917	-2.22889	0.749298	-0.767828	1.51622	2.24836	1.72172	1.67772	2.14782	2.55761	0.731466	1.07849	
4.54559	0	0	1.38634	4.32439	-0.118022	2.19796	1.22568	2.30238	0.218907	0.93467	1.11929	0.0788465	0.446977	-0.787182	0.505744	-0.234898	0.78605	0.36062	0.182841	-0.597258	0.775996	0.520755	-0.404107	-2.21494	0.739673	-0.752427	1.51991	2.25213	1.72172	1.6899	2.15322	2.57529	0.73717	1.06237	
4.54712	0	0	1.38386	4.30814	-0.124358	2.17639	1.22365	2.29019	0.2206	0.907907	1.11847	0.073702	0.431949	-0.794679	0.507634	-0.24785	0.780428	0.353904	0.177577	-0.582382	0.771594	0.533196	-0.409044	-2.20099	0.730049	-0.737027	1.5236	2.2559	1.72172	1.70208	2.15863	2.59297	0.742874	1.04625	
4.54407	0	0	1.38139	4.29188	-0.130694	2.15483	1.22161	2.27801	0.222293	0.881145	1.11764	0.0685575	0.416921	-0.802175	0.509524	-0.260801	0.774806	0.347187	0.172314	-0.567506	0.767192	0.545637	-0.41398	-2.18703	0.720425	-0.721626	1.52729	2.25967	1.72171	1.71426	2.16403	2.61065	0.748578	1.03013	
4.54559	0	0	1.37891	4.27562	-0.137031	2.13326	1.21958	2.26582	0.223986	0.854383	1.11682	0.063413	0.401893	-0.809671	0.511414	-0.273752	0.769185	0.340471	0.16705	-0.55263	0.76279	0.558078	-0.418917	-2.17308	0.7108	-0.706225	1.53098	2.26344	1.72171	1.72644	2.16944	2.62832	0.754282	1.01401	
4.54101	0	0	1.38543	4.2688	-0.127607	2.11977	1.22606	2.26545	0.222676	0.858085	1.12191	0.071458	0.404451	-0.804422	0.515634	-0.262838	0.772792	0.341576	0.167977	-0.54751	0.767632	0.554914	-0.412864	-2.17059	0.7108	-0.706225	1.52729	2.25967	1.72031	1.71822	2.16128	2.62941	0.754282	1.01401	
4.53644	0	0	1.39196	4.26199	-0.118182	2.10629	1.23254	2.26507	0.221366	0.861787	1.127	0.079503	0.40701	-0.799172	0.519853	-0.251924	0.776399	0.34268	0.168905	-0.54239	0.772474	0.551751	-0.40681	-2.1681	0.7108	-0.706225	1.5236	2.2559	1.71891	1.71	2.15312	2.63049	0.754282	1.01401	
4.53491	0	0	1.39848	4.25518	-0.108758	2.0928	1.23902	2.2647	0.220057	0.865489	1.13209	0.087548	0.409568	-0.793922	0.524073	-0.241011	0.780006	0.343784	0.169832	-0.537271	0.777315	0.548587	-0.400757	-2.16562	0.7108	-0.706225	1.51991	2.25213	1.71752	1.70177	2.14496	2.63158	0.754282	1.01401	
4.53186	0	0	1.405	4.24837	-0.099334	2.07932	1.24549	2.26432	0.218747	0.869191	1.13718	0.095593	0.412126	-0.788673	0.528293	-0.230097	0.783613	0.344889	0.170759	-0.532151	0.782157	0.545423	-0.394704	-2.16313	0.7108	-0.706225	1.51622	2.24836	1.71612	1.69355	2.1368	2.63266	0.754282	1.01401	
4.53491	0	0	1.41703	4.26093	-0.0956552	2.09525	1.25135	2.28369	0.226053	0.881517	1.14989	0.119606	0.422365	-0.767609	0.543569	-0.196935	0.796887	0.36397	0.185173	-0.51862	0.792729	0.557684	-0.385552	-2.14974	0.718698	-0.693126	1.51991	2.25213	1.72172	1.70208	2.14922	2.64156	0.751431	1.02207	
4.53186	0	0	1.42906	4.2735	-0.0919765	2.11118	1.25721	2.30306	0.23336	0.893843	1.1626	0.143618	0.432604	-0.746545	0.558844	-0.163772	0.810161	0.383051	0.199588	-0.505089	0.803301	0.569945	-0.376399	-2.13635	0.726596	-0.680027	1.5236	2.2559	1.72732	1.7106	2.16163	2.65045	0.74858	1.03012	
4.52881	0	0	1.44109	4.28606	-0.0882978	2.1271	1.26307	2.32243	0.240667	0.906169	1.17531	0.167631	0.442843	-0.725481	0.57412	-0.130609	0.823435	0.402132	0.214002	-0.491557	0.813873	0.582207	-0.367247	-2.12297	0.734495	-0.666928	1.52729	2.25967	1.73292	1.71913	2.17405	2.65934	0.74573	1.03818	
4.53033	0	0	1.45312	4.29863	-0.084619	2.14303	1.26893	2.34179	0.247973	0.918495	1.18802	0.191643	0.453082	-0.704417	0.589396	-0.097447	0.836709	0.421213	0.228416	-0.478026	0.824445	0.594468	-0.358095	-2.10958	0.742393	-0.653829	1.53098	2.26344	1.73852	1.72765	2.18646	2.66823	0.742879	1.04624	
4.52728	0	0	1.45443	4.31826	-0.0843363	2.1686	1.26974	2.36648	0.250216	0.934172	1.20069	0.223499	0.46846	-0.672622	0.605379	-0.0506015	0.853639	0.441509	0.244767	-0.446435	0.83547	0.616119	-0.343844	-2.09082	0.755576	-0.631902	1.5509	2.27832	1.75534	1.75334	2.20645	2.70001	0.753973	1.0576	
4.52728	0	0	1.45574	4.3379	-0.0840535	2.19416	1.27055	2.39116	0.252459	0.94985	1.21336	0.255355	0.483838	-0.640826	0.621363	-0.003756	0.870569	0.461806	0.261119	-0.414845	0.846495	0.637769	-0.329593	-2.07206	0.76876	-0.609974	1.57082	2.29319	1.77216	1.77904	2.22644	2.73179	0.765067	1.06897	
4.52576	0	0	1.45704	4.35753	-0.0837708	2.21973	1.27137	2.41585	0.254701	0.965527	1.22603	0.28721	0.499216	-0.609031	0.637346	0.0430895	0.887499	0.482103	0.27747	-0.383254	0.85752	0.65942	-0.315342	-2.0533	0.781943	-0.588047	1.59074	2.30806	1.78898	1.80473	2.24643	2.76357	0.776161	1.08033	
4.52118	0	0	1.45835	4.37716	-0.083488	2.24529	1.27218	2.44053	0.256944	0.981205	1.2387	0.319066	0.514594	-0.577236	0.653329	0.089935	0.904429	0.502399	0.293821	-0.351664	0.868545	0.681071	-0.301091	-2.03454	0.795126	-0.566119	1.61066	2.32294	1.8058	1.83042	2.26642	2.79534	0.787255	1.0917	
4.52423	0	0	1.46018	4.38367	-0.0764298	2.25174	1.2751	2.4503	0.261818	0.989473	1.2464	0.327468	0.519725	-0.566584	0.663725	0.099031	0.910083	0.509189	0.294819	-0.331081	0.867494	0.694621	-0.30553	-2.01214	0.796169	-0.54534	1.61605	2.35054	1.82125	1.86029	2.28036	2.83352	0.805373	1.10476	
4.51813	0	0	1.46201	4.39017	-0.0693715	2.2582	1.27802	2.46006	0.266692	0.99774	1.25409	0.33587	0.524855	-0.555932	0.67412	0.108127	0.915737	0.51598	0.295817	-0.310497	0.866443	0.708171	-0.309969	-1.98973	0.797212	-0.524562	1.62144	2.37814	1.8367	1.89016	2.29431	2.8717	0.823491	1.11782	
4.52118	0	0	1.46384	4.39667	-0.0623133	2.26465	1.28094	2.46982	0.271566	1.00601	1.26179	0.344272	0.529986	-0.54528	0.684515	0.117223	0.921391	0.52277	0.296815	-0.289914	0.865392	0.721721	-0.314408	-1.96733	0.798256	-0.503783	1.62683	2.40574	1.85214	1.92002	2.30825	2.90989	0.841608	1.13088	
4.51813	0	0	1.46567	4.40318	-0.055255	2.2711	1.28386	2.47958	0.27644	1.01428	1.26948	0.352674	0.535117	-0.534628	0.694911	0.126319	0.927045	0.52956	0.297813	-0.269331	0.864341	0.735271	-0.318847	-1.94493	0.799299	-0.483004	1.63222	2.43335	1.86759	1.94989	2.32219	2.94807	0.859726	1.14394	
4.52576	0	0	1.47288	4.40617	-0.04989	2.28238	1.29093	2.48665	0.2864	1.01924	1.27719	0.361095	0.54025	-0.523949	0.705326	0.135439	0.934316	0.531807	0.299658	-0.258926	0.866249	0.740465	-0.309219	-1.94253	0.804575	-0.474158	1.63737	2.4331	1.86898	1.95824	2.32333	2.95596	0.866736	1.1456	
4.52118	0	0	1.48009	4.40917	-0.044525	2.29365	1.298	2.49372	0.29636	1.0242	1.2849	0.369517	0.545384	-0.51327	0.715741	0.144558	0.941588	0.534055	0.301503	-0.24852	0.868156	0.74566	-0.299592	-1.94014	0.809851	-0.465313	1.64251	2.43286	1.87037	1.96658	2.32447	2.96384	0.873746	1.14725	
4.52118	0	0	1.48729	4.41217	-0.03916	2.30493	1.30507	2.50079	0.30632	1.02917	1.2926	0.377938	0.550517	-0.502591	0.726156	0.153678	0.948859	0.536302	0.303347	-0.238115	0.870064	0.750854	-0.289965	-1.93774	0.815128	-0.456467	1.64766	2.43262	1.87177	1.97493	2.32561	2.97173	0.880757	1.14891	
4.52423	0	0	1.4945	4.41516	-0.033795	2.3162	1.31214	2.50786	0.31628	1.03413	1.30031	0.386359	0.555651	-0.491912	0.736571	0.162798	0.956131	0.538549	0.305192	-0.22771	0.871972	0.756048	-0.280337	-1.93535	0.820404	-0.447621	1.6528	2.43238	1.87316	1.98327	2.32675	2.97962	0.887767	1.15057	
