5.82275	0	0	1.6936	1.97506	0.584058	1.52638	-0.052897	0.117094	0.565816	0.743861	-0.516907	-0.154325	-0.679129	-1.04764	-0.259855	-0.10244	-0.207346	-1.48934	-0.362302	-0.215095	0.256339	-0.240392	-0.019085	-0.012241	-0.245902	-0.293577	0.450273	0.902967	0.422394	1.1286	0.780981	0.994251	0.482843	0.806162	
5.82733	0	0	2.5968	1.38489	0.575252	1.53904	-0.0546917	0.122167	0.565565	0.754966	-0.522131	-0.165886	-0.686767	-1.05664	-0.265538	-0.108074	-0.219165	-1.50214	-0.37688	-0.226078	0.245214	-0.247001	-0.0287668	-0.02264	-0.256284	-0.30477	0.444939	0.877652	0.41018	1.10298	0.77624	0.982995	0.468376	0.786412	
5.81817	0	0	3.49999	0.794722	0.566446	1.5517	-0.0564865	0.12724	0.565314	0.766072	-0.527356	-0.177447	-0.694404	-1.06565	-0.271222	-0.113708	-0.230984	-1.51494	-0.391458	-0.237061	0.234089	-0.253611	-0.0384485	-0.033039	-0.266667	-0.315962	0.439605	0.852338	0.397966	1.07736	0.7715	0.971739	0.453909	0.766661	
5.82428	0	0	4.40319	0.204554	0.557641	1.56436	-0.0582812	0.132312	0.565064	0.777177	-0.532581	-0.189007	-0.702042	-1.07466	-0.276905	-0.119342	-0.242804	-1.52775	-0.406036	-0.248044	0.222964	-0.260221	-0.0481302	-0.043438	-0.277049	-0.327155	0.434272	0.827024	0.385752	1.05173	0.76676	0.960483	0.439441	0.746911	
5.82123	0	0	5.30639	-0.385615	0.548835	1.57702	-0.060076	0.137385	0.564813	0.788282	-0.537805	-0.200568	-0.70968	-1.08367	-0.282588	-0.124976	-0.254623	-1.54055	-0.420614	-0.259027	0.211839	-0.26683	-0.057812	-0.053837	-0.287431	-0.338348	0.428938	0.801709	0.373538	1.02611	0.762019	0.949227	0.424974	0.72716	
5.82123	0	0	4.40319	0.204554	0.541621	1.58519	-0.0651142	0.142628	0.555246	0.794534	-0.530984	-0.206687	-0.718232	-1.06968	-0.290216	-0.110644	-0.25887	-1.53777	-0.424038	-0.264232	0.209286	-0.259613	-0.0592695	-0.0591463	-0.289729	-0.341974	0.425395	0.798279	0.363978	1.01714	0.765657	0.963599	0.41178	0.724135	
5.82428	0	0	3.49999	0.794722	0.534407	1.59336	-0.0701525	0.147871	0.545678	0.800786	-0.524163	-0.212805	-0.726784	-1.0557	-0.297844	-0.096312	-0.263117	-1.535	-0.427462	-0.269437	0.206732	-0.252397	-0.060727	-0.0644555	-0.292026	-0.3456	0.421852	0.794849	0.354418	1.00816	0.769296	0.97797	0.398585	0.72111	
5.82428	0	0	2.5968	1.38489	0.527193	1.60153	-0.0751908	0.153113	0.53611	0.807037	-0.517342	-0.218924	-0.735337	-1.04172	-0.305472	-0.08198	-0.267364	-1.53222	-0.430887	-0.274643	0.204178	-0.24518	-0.0621845	-0.0697648	-0.294324	-0.349227	0.41831	0.791418	0.344858	0.999189	0.772934	0.992341	0.385391	0.718084	
5.81817	0	0	1.6936	1.97506	0.519979	1.6097	-0.080229	0.158356	0.526543	0.813289	-0.510521	-0.225043	-0.743889	-1.02773	-0.3131	-0.067648	-0.271611	-1.52945	-0.434311	-0.279848	0.201625	-0.237963	-0.063642	-0.075074	-0.296622	-0.352853	0.414767	0.787988	0.335298	0.990216	0.776572	1.00671	0.372196	0.715059	
5.81817	0	0	2.5968	1.38489	0.516795	1.6187	-0.0843673	0.16106	0.527803	0.809729	-0.501429	-0.230984	-0.741313	-1.03501	-0.315446	-0.075463	-0.268543	-1.52889	-0.44799	-0.278344	0.200348	-0.234353	-0.071354	-0.0721207	-0.308222	-0.350397	0.411226	0.784561	0.32707	0.989514	0.774524	1.02484	0.356358	0.719592	
5.81512	0	0	3.49999	0.794722	0.513611	1.6277	-0.0885055	0.163764	0.529062	0.806169	-0.492337	-0.236925	-0.738736	-1.04229	-0.317792	-0.083278	-0.265476	-1.52833	-0.461669	-0.276841	0.19907	-0.230742	-0.079066	-0.0691675	-0.319821	-0.347942	0.407686	0.781134	0.318842	0.988811	0.772475	1.04297	0.340519	0.724125	
5.81207	0	0	4.40319	0.204554	0.510428	1.6367	-0.0926437	0.166468	0.530322	0.802608	-0.483244	-0.242866	-0.736159	-1.04958	-0.320137	-0.091093	-0.262408	-1.52777	-0.475347	-0.275338	0.197792	-0.227131	-0.086778	-0.0662143	-0.331421	-0.345486	0.404145	0.777706	0.310614	0.988109	0.770427	1.0611	0.324681	0.728658	
5.81207	0	0	5.30639	-0.385615	0.507244	1.64569	-0.096782	0.169172	0.531582	0.799048	-0.474152	-0.248807	-0.733583	-1.05686	-0.322483	-0.098908	-0.259341	-1.52722	-0.489026	-0.273834	0.196515	-0.223521	-0.09449	-0.063261	-0.343021	-0.34303	0.400604	0.774279	0.302386	0.987407	0.768378	1.07923	0.308843	0.733191	
5.80902	0	0	5.1719	-0.00553275	0.505651	1.6502	-0.0953387	0.174085	0.525543	0.805732	-0.460507	-0.254399	-0.732295	-1.0605	-0.31916	-0.101079	-0.254381	-1.52276	-0.493291	-0.284038	0.195237	-0.219909	-0.0935303	-0.0659732	-0.351068	-0.350564	0.389995	0.764018	0.290227	0.962016	0.762545	1.07104	0.29183	0.721093	
5.80597	0	0	5.03742	0.37455	0.504058	1.6547	-0.0938955	0.178997	0.519503	0.812415	-0.446862	-0.259991	-0.731008	-1.06413	-0.315836	-0.103251	-0.249421	-1.51831	-0.497556	-0.294243	0.193959	-0.216297	-0.0925705	-0.0686855	-0.359116	-0.358098	0.379387	0.753757	0.278068	0.936624	0.756713	1.06285	0.274817	0.708995	
5.80597	0	0	4.90293	0.754632	0.502464	1.6592	-0.0924523	0.18391	0.513463	0.819098	-0.433216	-0.265583	-0.72972	-1.06777	-0.312512	-0.105423	-0.244462	-1.51386	-0.50182	-0.304447	0.192681	-0.212685	-0.0916107	-0.0713977	-0.367163	-0.365633	0.368779	0.743495	0.265909	0.911233	0.75088	1.05467	0.257803	0.696897	
5.80292	0	0	4.76844	1.13471	0.500871	1.6637	-0.091009	0.188823	0.507424	0.825782	-0.419571	-0.271175	-0.728433	-1.07141	-0.309189	-0.107594	-0.239502	-1.50941	-0.506085	-0.314651	0.191403	-0.209073	-0.090651	-0.07411	-0.37521	-0.373167	0.35817	0.733234	0.25375	0.885841	0.745047	1.04648	0.24079	0.684799	
5.80597	0	0	4.76844	1.13471	0.499277	1.66821	-0.0886668	0.191199	0.507424	0.825782	-0.404408	-0.267771	-0.724207	-1.06298	-0.306098	-0.0946517	-0.230753	-1.49714	-0.501818	-0.311874	0.198876	-0.211178	-0.0901567	-0.066088	-0.376323	-0.380104	0.344056	0.719599	0.241604	0.860602	0.738118	1.04143	0.226487	0.665237	
5.79834	0	0	4.76844	1.13471	0.497683	1.67271	-0.0863245	0.193575	0.507424	0.825782	-0.389244	-0.264367	-0.719981	-1.05454	-0.303006	-0.0817095	-0.222004	-1.48488	-0.497552	-0.309098	0.206349	-0.213284	-0.0896625	-0.058066	-0.377436	-0.387041	0.329943	0.705963	0.229459	0.835363	0.731189	1.03637	0.212183	0.645674	
5.79986	0	0	4.76844	1.13471	0.49609	1.67722	-0.0839823	0.195951	0.507424	0.825782	-0.37408	-0.260963	-0.715755	-1.04611	-0.299915	-0.0687673	-0.213256	-1.47261	-0.493285	-0.306322	0.213823	-0.215389	-0.0891683	-0.050044	-0.378548	-0.393978	0.315829	0.692328	0.217313	0.810123	0.72426	1.03132	0.19788	0.626112	
5.79681	0	0	4.76844	1.13471	0.494496	1.68172	-0.08164	0.198327	0.507424	0.825782	-0.358917	-0.257559	-0.711529	-1.03767	-0.296824	-0.055825	-0.204507	-1.46034	-0.489018	-0.303545	0.221296	-0.217494	-0.088674	-0.042022	-0.379661	-0.400915	0.301716	0.678693	0.205168	0.784884	0.717331	1.02626	0.183577	0.606549	
5.79986	0	0	4.76844	1.13471	0.491306	1.69074	-0.0926175	0.211364	0.50238	0.840037	-0.345249	-0.249813	-0.705186	-1.02499	-0.285585	-0.0369063	-0.198827	-1.4486	-0.482189	-0.285703	0.222375	-0.201507	-0.0809345	-0.0261725	-0.379725	-0.390653	0.298193	0.675292	0.203847	0.776727	0.734511	1.02702	0.177048	0.605048	
5.79224	0	0	4.76844	1.13471	0.488115	1.69975	-0.103595	0.224401	0.497336	0.854291	-0.331581	-0.242067	-0.698843	-1.01231	-0.274346	-0.0179875	-0.193147	-1.43686	-0.475361	-0.267861	0.223453	-0.18552	-0.073195	-0.010323	-0.379789	-0.38039	0.294671	0.671891	0.202526	0.76857	0.751691	1.02777	0.170519	0.603547	
5.79224	0	0	4.76844	1.13471	0.484924	1.70877	-0.114572	0.237438	0.492292	0.868545	-0.317913	-0.234322	-0.6925	-0.999624	-0.263107	0.00093125	-0.187468	-1.42512	-0.468533	-0.25002	0.224531	-0.169534	-0.0654555	0.0055265	-0.379853	-0.370127	0.291148	0.668491	0.201206	0.760413	0.76887	1.02853	0.163991	0.602046	
5.78918	0	0	4.76844	1.13471	0.481734	1.71779	-0.12555	0.250475	0.487248	0.8828	-0.304245	-0.226576	-0.686157	-0.986941	-0.251868	0.01985	-0.181788	-1.41338	-0.461704	-0.232178	0.22561	-0.153547	-0.057716	0.021376	-0.379917	-0.359865	0.287625	0.66509	0.199885	0.752256	0.78605	1.02928	0.157462	0.600545	
5.78918	0	0	4.76844	1.13471	0.479305	1.71244	-0.133456	0.24587	0.489771	0.87567	-0.295143	-0.212457	-0.691812	-0.960744	-0.250776	0.0530513	-0.18227	-1.40274	-0.451466	-0.201533	0.226679	-0.137513	-0.052872	0.045485	-0.378879	-0.34262	0.291148	0.668491	0.198502	0.756165	0.805822	1.04761	0.163991	0.602046	
5.79224	0	0	4.76844	1.13471	0.476876	1.7071	-0.141362	0.241266	0.492294	0.86854	-0.286042	-0.198339	-0.697468	-0.934547	-0.249685	0.0862525	-0.182752	-1.39211	-0.441229	-0.170888	0.227747	-0.121479	-0.048028	0.069594	-0.37784	-0.325376	0.294671	0.671891	0.197119	0.760074	0.825594	1.06594	0.170519	0.603547	
5.78308	0	0	4.76844	1.13471	0.474447	1.70175	-0.149268	0.236662	0.494817	0.86141	-0.27694	-0.184221	-0.703123	-0.90835	-0.248593	0.119454	-0.183233	-1.38147	-0.430992	-0.140244	0.228816	-0.105445	-0.043184	0.093703	-0.376802	-0.308132	0.298193	0.675292	0.195735	0.763984	0.845366	1.08426	0.177048	0.605048	
5.2475	0	0	4.76844	1.13471	0.472018	1.69641	-0.157174	0.232057	0.49734	0.85428	-0.267838	-0.170102	-0.708778	-0.882153	-0.247502	0.152655	-0.183715	-1.37084	-0.420754	-0.109599	0.229885	-0.089411	-0.03834	0.117812	-0.375763	-0.290887	0.301716	0.678693	0.194352	0.767893	0.865138	1.10259	0.183577	0.606549	
5.79681	0	0	4.76844	1.13471	0.468752	1.68124	-0.154479	0.22444	0.496343	0.846717	-0.259448	-0.167207	-0.700665	-0.884636	-0.240209	0.161124	-0.17755	-1.3697	-0.422493	-0.0972222	0.228068	-0.0938058	-0.0388265	0.128649	-0.383871	-0.288153	0.281974	0.694446	0.175187	0.78643	0.841518	1.14457	0.170527	0.603547	
5.80139	0	0	4.76844	1.13471	0.465485	1.66608	-0.151784	0.216824	0.495347	0.839153	-0.251058	-0.164311	-0.692552	-0.88712	-0.232916	0.169593	-0.171385	-1.36856	-0.424233	-0.0848455	0.226251	-0.0982005	-0.039313	0.139486	-0.391979	-0.285418	0.262232	0.710198	0.156023	0.804967	0.817899	1.18656	0.157477	0.600545	
5.79834	0	0	4.76844	1.13471	0.462219	1.65092	-0.149088	0.209207	0.494351	0.83159	-0.242667	-0.161415	-0.684439	-0.889603	-0.225624	0.178062	-0.165221	-1.36742	-0.425972	-0.0724687	0.224434	-0.102595	-0.0397995	0.150323	-0.400086	-0.282683	0.242491	0.725951	0.136858	0.823504	0.79428	1.22854	0.144427	0.597542	
5.79376	0	0	4.76844	1.13471	0.458953	1.63575	-0.146393	0.20159	0.493354	0.824027	-0.234277	-0.15852	-0.676326	-0.892087	-0.218331	0.186531	-0.159056	-1.36629	-0.427711	-0.060092	0.222617	-0.10699	-0.040286	0.16116	-0.408194	-0.279949	0.222749	0.741704	0.117694	0.842041	0.77066	1.27053	0.131377	0.59454	
5.79529	0	0	4.76844	1.13471	0.448494	1.62878	-0.144956	0.206506	0.492094	0.827587	-0.221281	-0.155266	-0.668685	-0.882973	-0.207811	0.200506	-0.154075	-1.36178	-0.420873	-0.0495447	0.219517	-0.107754	-0.0388373	0.166533	-0.408194	-0.279949	0.21354	0.727775	0.109627	0.829284	0.775109	1.25795	0.114502	0.582565	
5.79529	0	0	4.76844	1.13471	0.438034	1.62181	-0.143519	0.211423	0.490835	0.831147	-0.208285	-0.152011	-0.661043	-0.87386	-0.197292	0.214481	-0.149093	-1.35728	-0.414035	-0.0389975	0.216417	-0.108518	-0.0373885	0.171905	-0.408194	-0.279949	0.204331	0.713846	0.101559	0.816527	0.779558	1.24538	0.097627	0.570591	
5.78918	0	0	4.76844	1.13471	0.427575	1.61483	-0.142082	0.21634	0.489575	0.834707	-0.195288	-0.148756	-0.653401	-0.864746	-0.186772	0.228455	-0.144112	-1.35278	-0.407197	-0.0284502	0.213317	-0.109281	-0.0359397	0.177278	-0.408194	-0.279949	0.195122	0.699917	0.0934922	0.80377	0.784007	1.23281	0.080752	0.558616	
5.79834	0	0	4.76844	1.13471	0.417116	1.60786	-0.140645	0.221256	0.488316	0.838267	-0.182292	-0.145502	-0.64576	-0.855632	-0.176252	0.24243	-0.139131	-1.34828	-0.400359	-0.017903	0.210217	-0.110045	-0.034491	0.182651	-0.408194	-0.279949	0.185913	0.685988	0.085425	0.791013	0.788456	1.22023	0.063877	0.546642	
5.79224	0	0	4.76844	1.13471	0.411425	1.58748	-0.149806	0.229195	0.481289	0.837386	-0.179994	-0.145324	-0.643644	-0.851364	-0.167326	0.253702	-0.147196	-1.35335	-0.39436	-0.0124217	0.20349	-0.119579	-0.0354612	0.185393	-0.411655	-0.28025	0.182829	0.668115	0.0773672	0.778297	0.774718	1.22197	0.0496865	0.527271	
5.79834	0	0	4.76844	1.13471	0.405734	1.5671	-0.158967	0.237134	0.474262	0.836505	-0.177697	-0.145145	-0.641528	-0.847096	-0.158399	0.264975	-0.15526	-1.35842	-0.38836	-0.0069405	0.196763	-0.129113	-0.0364315	0.188134	-0.415115	-0.280551	0.179745	0.650242	0.0693095	0.765581	0.76098	1.2237	0.035496	0.5079	
5.79834	0	0	4.76844	1.13471	0.400043	1.54672	-0.168129	0.245074	0.467234	0.835624	-0.175399	-0.144967	-0.639413	-0.842827	-0.149473	0.276247	-0.163325	-1.36349	-0.382361	-0.00145925	0.190037	-0.138646	-0.0374018	0.190876	-0.418576	-0.280852	0.176661	0.632368	0.0612518	0.752866	0.747242	1.22544	0.0213055	0.488529	
5.80292	0	0	4.76844	1.13471	0.394352	1.52635	-0.17729	0.253013	0.460207	0.834743	-0.173101	-0.144789	-0.637297	-0.838559	-0.140547	0.28752	-0.171389	-1.36856	-0.376362	0.004022	0.18331	-0.14818	-0.038372	0.193617	-0.422037	-0.281153	0.173577	0.614495	0.053194	0.74015	0.733504	1.22717	0.007115	0.469158	
5.79986	0	0	4.76844	1.13471	0.380658	1.50444	-0.184814	0.238424	0.451202	0.818779	-0.182246	-0.158943	-0.646576	-0.863518	-0.148464	0.266103	-0.187709	-1.39653	-0.396975	0.009969	0.162433	-0.165084	-0.0499708	0.18856	-0.43931	-0.282664	0.163078	0.604353	0.0478273	0.731695	0.734614	1.22404	-0.00966425	0.457293	
5.78766	0	0	4.76844	1.13471	0.366965	1.48253	-0.192338	0.223836	0.442197	0.802814	-0.19139	-0.173098	-0.655855	-0.888477	-0.156381	0.244687	-0.204028	-1.42451	-0.417588	0.015916	0.141555	-0.181987	-0.0615695	0.183502	-0.456582	-0.284176	0.15258	0.594212	0.0424605	0.72324	0.735724	1.2209	-0.0264435	0.445428	
5.78766	0	0	4.76844	1.13471	0.353271	1.46062	-0.199863	0.209248	0.433192	0.78685	-0.200535	-0.187252	-0.665134	-0.913436	-0.164297	0.223271	-0.220348	-1.45248	-0.438201	0.021863	0.120677	-0.198891	-0.0731682	0.178445	-0.473854	-0.285687	0.142081	0.584071	0.0370937	0.714786	0.736834	1.21776	-0.0432228	0.433563	
5.78918	0	0	4.76844	1.13471	0.339577	1.43871	-0.207387	0.194659	0.424187	0.770886	-0.209679	-0.201406	-0.674413	-0.938395	-0.172214	0.201854	-0.236667	-1.48046	-0.458814	0.02781	0.0998	-0.215795	-0.084767	0.173387	-0.491127	-0.287198	0.131582	0.573929	0.031727	0.706331	0.737944	1.21463	-0.060002	0.421698	
5.78766	0	0	4.76844	1.13471	0.331464	1.41329	-0.209357	0.182326	0.422193	0.755848	-0.221869	-0.213511	-0.680288	-0.962637	-0.179262	0.178084	-0.257188	-1.50547	-0.469012	0.004467	0.081004	-0.247702	-0.0992235	0.15763	-0.503577	-0.312225	0.118017	0.5461	0.01702	0.67721	0.726173	1.18624	-0.0779455	0.393654	
5.78766	0	0	4.76844	1.13471	0.323351	1.38787	-0.211327	0.169992	0.4202	0.74081	-0.234059	-0.225616	-0.686163	-0.986879	-0.18631	0.154314	-0.277708	-1.53048	-0.479209	-0.018876	0.062208	-0.279609	-0.11368	0.141873	-0.516027	-0.337252	0.104453	0.518271	0.002313	0.648089	0.714402	1.15785	-0.095889	0.36561	
5.78613	0	0	4.76844	1.13471	0.315238	1.36245	-0.213296	0.157659	0.418206	0.725772	-0.246248	-0.237722	-0.692038	-1.01112	-0.193357	0.130545	-0.298229	-1.55549	-0.489406	-0.042219	0.043412	-0.311516	-0.128136	0.126115	-0.528477	-0.362278	0.0908878	0.490441	-0.012394	0.618968	0.702631	1.12946	-0.113833	0.337566	
5.78766	0	0	4.76844	1.13471	0.307125	1.33704	-0.215266	0.145325	0.416213	0.710734	-0.258438	-0.249827	-0.697913	-1.03536	-0.200405	0.106775	-0.318749	-1.58051	-0.499604	-0.065562	0.024616	-0.343423	-0.142593	0.110358	-0.540927	-0.387305	0.077323	0.462612	-0.027101	0.589847	0.69086	1.10108	-0.131776	0.309522	
5.78613	0	0	4.76844	1.13471	0.307835	1.32296	-0.212583	0.137743	0.417465	0.707197	-0.272135	-0.257558	-0.710229	-1.04131	-0.207708	0.0983452	-0.33849	-1.59819	-0.512368	-0.0815058	0.0064085	-0.367221	-0.154612	0.0972792	-0.549996	-0.401707	0.069451	0.445273	-0.0324015	0.569584	0.681599	1.09035	-0.139431	0.291902	
5.78613	0	0	4.76844	1.13471	0.308544	1.30889	-0.2099	0.130161	0.418716	0.703659	-0.285832	-0.26529	-0.722544	-1.04726	-0.21501	0.0899155	-0.358231	-1.61587	-0.525132	-0.0974495	-0.011799	-0.391018	-0.166631	0.0842005	-0.559066	-0.416108	0.061579	0.427933	-0.037702	0.549322	0.672338	1.07963	-0.147085	0.274281	
5.78918	0	0	4.76844	1.13471	0.309254	1.29482	-0.207218	0.122578	0.419968	0.700121	-0.299528	-0.273021	-0.73486	-1.05321	-0.222313	0.0814857	-0.377971	-1.63356	-0.537896	-0.113393	-0.0300065	-0.414816	-0.178649	0.0711217	-0.568136	-0.43051	0.053707	0.410594	-0.0430025	0.529059	0.663076	1.06891	-0.15474	0.256661	
5.79224	0	0	4.76844	1.13471	0.309964	1.28074	-0.204535	0.114996	0.42122	0.696584	-0.313225	-0.280752	-0.747176	-1.05916	-0.229616	0.073056	-0.397712	-1.65124	-0.55066	-0.129337	-0.048214	-0.438614	-0.190668	0.058043	-0.577205	-0.444912	0.045835	0.393254	-0.048303	0.508796	0.653815	1.05819	-0.162394	0.23904	
5.79224	0	0	4.76844	1.13471	0.296451	1.28278	-0.217772	0.125588	0.410465	0.706332	-0.325375	-0.286129	-0.753966	-1.06032	-0.239507	0.0719865	-0.42088	-1.65895	-0.55574	-0.144639	-0.0597232	-0.452968	-0.197387	0.0394815	-0.582834	-0.458971	0.042352	0.389921	-0.0509788	0.504626	0.644856	1.07123	-0.177825	0.243479	
5.79681	0	0	4.76844	1.13471	0.282938	1.28481	-0.231009	0.13618	0.399709	0.716079	-0.337524	-0.291505	-0.760757	-1.06147	-0.249398	0.070917	-0.444048	-1.66666	-0.56082	-0.159942	-0.0712325	-0.467322	-0.204107	0.02092	-0.588464	-0.473031	0.038869	0.386587	-0.0536545	0.500455	0.635898	1.08427	-0.193256	0.247918	
5.79681	0	0	4.76844	1.13471	0.269424	1.28685	-0.244247	0.146772	0.388953	0.725826	-0.349673	-0.296882	-0.767547	-1.06263	-0.25929	0.0698475	-0.467215	-1.67437	-0.565899	-0.175244	-0.0827418	-0.481676	-0.210827	0.0023585	-0.594093	-0.48709	0.035386	0.383253	-0.0563302	0.496285	0.626939	1.0973	-0.208686	0.252356	
5.79834	0	0	4.76844	1.13471	0.255911	1.28889	-0.257484	0.157364	0.378198	0.735574	-0.361823	-0.302258	-0.774338	-1.06378	-0.269181	0.068778	-0.490383	-1.68208	-0.570979	-0.190546	-0.094251	-0.49603	-0.217546	-0.016203	-0.599722	-0.50115	0.031903	0.37992	-0.059006	0.492114	0.61798	1.11034	-0.224117	0.256795	
5.79681	0	0	4.76844	1.13471	0.25264	1.27407	-0.261236	0.150108	0.378454	0.724534	-0.383815	-0.299518	-0.791635	-1.08593	-0.282745	0.0419745	-0.505781	-1.70236	-0.596446	-0.199891	-0.114332	-0.504714	-0.232877	-0.0290607	-0.619099	-0.506181	0.0258425	0.38388	-0.067074	0.491472	0.612462	1.12593	-0.230522	0.255341	
5.80139	0	0	4.76844	1.13471	0.249369	1.25925	-0.264987	0.142852	0.378709	0.713495	-0.405807	-0.296778	-0.808931	-1.10808	-0.296309	0.015171	-0.52118	-1.72265	-0.621913	-0.209236	-0.134412	-0.513397	-0.248208	-0.0419185	-0.638477	-0.511211	0.019782	0.38784	-0.075142	0.490831	0.606944	1.14153	-0.236926	0.253887	
5.79834	0	0	4.76844	1.13471	0.246098	1.24443	-0.268738	0.135597	0.378965	0.702456	-0.427798	-0.294038	-0.826228	-1.13023	-0.309873	-0.0116325	-0.536578	-1.74293	-0.64738	-0.218581	-0.154493	-0.522081	-0.26354	-0.0547762	-0.657854	-0.516242	0.0137215	0.3918	-0.08321	0.490189	0.601427	1.15712	-0.243331	0.252432	
5.79986	0	0	4.76844	1.13471	0.242827	1.22961	-0.27249	0.128341	0.379221	0.691416	-0.44979	-0.291298	-0.843525	-1.15238	-0.323437	-0.038436	-0.551976	-1.76322	-0.672847	-0.227926	-0.174574	-0.530764	-0.278871	-0.067634	-0.677231	-0.521273	0.007661	0.39576	-0.091278	0.489547	0.595909	1.17272	-0.249735	0.250978	
5.79681	0	0	4.76844	1.13471	0.23247	1.22284	-0.277131	0.123618	0.374729	0.683496	-0.472467	-0.286434	-0.856127	-1.17743	-0.336124	-0.0674905	-0.568492	-1.78012	-0.688027	-0.258644	-0.190838	-0.550006	-0.294642	-0.0884008	-0.689596	-0.54593	0.003667	0.3676	-0.109949	0.460493	0.58876	1.14387	-0.252179	0.218836	
5.79681	0	0	4.76844	1.13471	0.222113	1.21607	-0.281773	0.118895	0.370237	0.675577	-0.495144	-0.281569	-0.868729	-1.20248	-0.348811	-0.096545	-0.585008	-1.79703	-0.703207	-0.289362	-0.207102	-0.569248	-0.310412	-0.109168	-0.701961	-0.570586	-0.000327	0.339441	-0.128619	0.431439	0.581611	1.11503	-0.254622	0.186694	
5.79681	0	0	4.76844	1.13471	0.211756	1.2093	-0.286415	0.114172	0.365745	0.667657	-0.51782	-0.276705	-0.881332	-1.22754	-0.361498	-0.1256	-0.601523	-1.81394	-0.718387	-0.32008	-0.223366	-0.588489	-0.326182	-0.129934	-0.714326	-0.595243	-0.004321	0.311281	-0.147289	0.402384	0.574463	1.08618	-0.257066	0.154552	
5.79224	0	0	4.76844	1.13471	0.201399	1.20254	-0.291056	0.109449	0.361253	0.659737	-0.540497	-0.27184	-0.893934	-1.25259	-0.374185	-0.154654	-0.618039	-1.83085	-0.733567	-0.350798	-0.23963	-0.607731	-0.341953	-0.150701	-0.726691	-0.6199	-0.008315	0.283121	-0.16596	0.37333	0.567314	1.05734	-0.259509	0.12241	
5.79376	0	0	4.76844	1.13471	0.199681	1.18341	-0.288031	0.0919875	0.360499	0.641274	-0.563856	-0.26486	-0.911149	-1.27447	-0.38697	-0.17603	-0.636362	-1.85147	-0.742827	-0.383314	-0.250341	-0.633169	-0.351515	-0.179499	-0.742438	-0.644691	-0.0136127	0.25873	-0.177889	0.337198	0.561244	1.02558	-0.270944	0.096308	
5.78766	0	0	4.76844	1.13471	0.197962	1.16428	-0.285007	0.074526	0.359746	0.622812	-0.587214	-0.25788	-0.928365	-1.29635	-0.399755	-0.197406	-0.654684	-1.87209	-0.752087	-0.41583	-0.261053	-0.658607	-0.361077	-0.208296	-0.758185	-0.669482	-0.0189105	0.234339	-0.189819	0.301065	0.555173	0.993816	-0.282378	0.070206	
5.78766	0	0	4.76844	1.13471	0.196244	1.14515	-0.281982	0.0570645	0.358992	0.604349	-0.610573	-0.2509	-0.94558	-1.31823	-0.412541	-0.218782	-0.673006	-1.89271	-0.761347	-0.448346	-0.271764	-0.684045	-0.370639	-0.237093	-0.773933	-0.694273	-0.0242083	0.209947	-0.201748	0.264933	0.549102	0.962055	-0.293812	0.044104	
5.78613	0	0	4.76844	1.13471	0.194526	1.12602	-0.278958	0.039603	0.358239	0.585886	-0.633932	-0.24392	-0.962795	-1.34011	-0.425326	-0.240158	-0.691329	-1.91333	-0.770607	-0.480862	-0.282475	-0.709483	-0.380201	-0.265891	-0.78968	-0.719064	-0.029506	0.185556	-0.213677	0.228801	0.543032	0.930293	-0.305247	0.018002	
5.78308	0	0	4.76844	1.13471	0.179374	1.109	-0.292872	0.0255322	0.34229	0.569319	-0.660975	-0.232869	-0.9787	-1.36543	-0.438938	-0.259019	-0.718573	-1.93543	-0.786596	-0.501478	-0.300449	-0.732706	-0.396856	-0.283735	-0.800859	-0.746662	-0.0386423	0.172096	-0.224293	0.200797	0.523707	0.923941	-0.325589	-0.0021165	
5.78613	0	0	4.76844	1.13471	0.164223	1.09199	-0.306786	0.0114615	0.326342	0.552752	-0.688017	-0.221818	-0.994605	-1.39074	-0.45255	-0.27788	-0.745817	-1.95753	-0.802585	-0.522093	-0.318424	-0.755929	-0.413511	-0.30158	-0.812039	-0.77426	-0.0477785	0.158635	-0.234908	0.172793	0.504382	0.91759	-0.34593	-0.022235	
5.78308	0	0	4.76844	1.13471	0.149072	1.07498	-0.3207	-0.00260925	0.310393	0.536185	-0.71506	-0.210766	-1.01051	-1.41606	-0.466163	-0.29674	-0.773061	-1.97963	-0.818573	-0.542709	-0.336398	-0.779151	-0.430166	-0.319425	-0.823218	-0.801857	-0.0569148	0.145174	-0.245524	0.14479	0.485056	0.911238	-0.366271	-0.0423535	
5.77698	0	0	4.76844	1.13471	0.13392	1.05797	-0.334614	-0.01668	0.294445	0.519618	-0.742103	-0.199715	-1.02642	-1.44138	-0.479775	-0.315601	-0.800305	-2.00173	-0.834562	-0.563324	-0.354373	-0.802374	-0.446821	-0.337269	-0.834397	-0.829455	-0.066051	0.131714	-0.25614	0.116786	0.465731	0.904886	-0.386613	-0.062472	
5.78461	0	0	4.76844	1.13471	0.117075	1.02214	-0.347272	-0.0430072	0.281238	0.485286	-0.778779	-0.18071	-1.05688	-1.46517	-0.504788	-0.330578	-0.828114	-2.03065	-0.852177	-0.571839	-0.369289	-0.824748	-0.465305	-0.349719	-0.848989	-0.84722	-0.0751745	0.1183	-0.258779	0.089529	0.471178	0.889491	-0.400548	-0.0810852	
5.7785	0	0	4.76844	1.13471	0.100229	0.986299	-0.35993	-0.0693345	0.268031	0.450954	-0.815455	-0.161706	-1.08734	-1.48896	-0.529802	-0.345556	-0.855924	-2.05956	-0.869791	-0.580355	-0.384205	-0.847123	-0.483789	-0.36217	-0.863581	-0.864984	-0.084298	0.104886	-0.261419	0.062272	0.476626	0.874096	-0.414482	-0.0996985	
5.78003	0	0	4.76844	1.13471	0.0833843	0.950464	-0.372588	-0.0956618	0.254824	0.416622	-0.852131	-0.142701	-1.11781	-1.51275	-0.554815	-0.360533	-0.883733	-2.08848	-0.887406	-0.58887	-0.39912	-0.869498	-0.502272	-0.37462	-0.878173	-0.882749	-0.0934215	0.0914728	-0.264058	0.035015	0.482073	0.858701	-0.428416	-0.118312	
5.77698	0	0	4.76844	1.13471	0.066539	0.914628	-0.385246	-0.121989	0.241617	0.38229	-0.888807	-0.123696	-1.14827	-1.53654	-0.579828	-0.37551	-0.911542	-2.11739	-0.90502	-0.597385	-0.414036	-0.891872	-0.520756	-0.38707	-0.892765	-0.900513	-0.102545	0.078059	-0.266698	0.007758	0.48752	0.843306	-0.442351	-0.136925	
5.7785	0	0	4.76844	1.13471	0.064559	0.872709	-0.388327	-0.148675	0.234112	0.352485	-0.910413	-0.114535	-1.16032	-1.57209	-0.587652	-0.396085	-0.932164	-2.14823	-0.918409	-0.617659	-0.43491	-0.915518	-0.535436	-0.410046	-0.907286	-0.928077	-0.112008	0.0787165	-0.282637	0.006614	0.473054	0.859857	-0.452469	-0.146891	
5.77698	0	0	4.76844	1.13471	0.062579	0.83079	-0.391408	-0.175361	0.226608	0.322679	-0.932019	-0.105374	-1.17236	-1.60764	-0.595476	-0.41666	-0.952786	-2.17906	-0.931798	-0.637934	-0.455783	-0.939164	-0.550117	-0.433022	-0.921808	-0.955641	-0.121471	0.079374	-0.298575	0.00547	0.458589	0.876408	-0.462588	-0.156857	
5.77392	0	0	4.76844	1.13471	0.060599	0.788872	-0.394489	-0.202047	0.219103	0.292874	-0.953624	-0.096213	-1.18441	-1.64319	-0.6033	-0.437234	-0.973409	-2.2099	-0.945188	-0.658208	-0.476656	-0.96281	-0.564797	-0.455997	-0.936329	-0.983205	-0.130934	0.0800315	-0.314514	0.004326	0.444123	0.89296	-0.472707	-0.166822	
5.77087	0	0	4.76844	1.13471	0.058619	0.746953	-0.39757	-0.228733	0.211598	0.263068	-0.97523	-0.087052	-1.19645	-1.67874	-0.611124	-0.457809	-0.994031	-2.24074	-0.958577	-0.678482	-0.49753	-0.986456	-0.579477	-0.478973	-0.95085	-1.01077	-0.140397	0.080689	-0.330453	0.003182	0.429657	0.909511	-0.482825	-0.176788	
5.76935	0	0	4.76844	1.13471	0.0622977	0.724696	-0.398124	-0.236004	0.216497	0.249222	-0.97371	-0.0913478	-1.20517	-1.68386	-0.60468	-0.45469	-0.999109	-2.26191	-0.965255	-0.681355	-0.506387	-1.00718	-0.588917	-0.489031	-0.957522	-1.031	-0.143501	0.063412	-0.337074	-0.0126725	0.432924	0.900277	-0.503008	-0.196636	
5.76935	0	0	4.76844	1.13471	0.0659765	0.702439	-0.398679	-0.243274	0.221396	0.235376	-0.97219	-0.0956435	-1.21388	-1.68897	-0.598235	-0.451572	-1.00419	-2.28309	-0.971933	-0.684229	-0.515243	-1.0279	-0.598357	-0.499089	-0.964195	-1.05123	-0.146605	0.046135	-0.343695	-0.028527	0.436192	0.891043	-0.52319	-0.216483	
5.76935	0	0	4.76844	1.13471	0.0696553	0.680183	-0.399233	-0.250545	0.226296	0.22153	-0.97067	-0.0999392	-1.22259	-1.69409	-0.591791	-0.448453	-1.00927	-2.30427	-0.978611	-0.687102	-0.5241	-1.04862	-0.607797	-0.509147	-0.970867	-1.07146	-0.149709	0.028858	-0.350316	-0.0443815	0.439459	0.88181	-0.543373	-0.23633	
5.7663	0	0	4.76844	1.13471	0.073334	0.657926	-0.399788	-0.257815	0.231195	0.207684	-0.96915	-0.104235	-1.23131	-1.69921	-0.585347	-0.445334	-1.01434	-2.32544	-0.985289	-0.689975	-0.532957	-1.06934	-0.617237	-0.519205	-0.977539	-1.09169	-0.152813	0.011581	-0.356937	-0.060236	0.442726	0.872576	-0.563555	-0.256178	
5.7663	0	0	4.76844	1.13471	0.0615385	0.655729	-0.398355	-0.253028	0.233437	0.211539	-0.954989	-0.111837	-1.22633	-1.68353	-0.57773	-0.409859	-1.01618	-2.32913	-0.981109	-0.672787	-0.534728	-1.07348	-0.61817	-0.51657	-0.984262	-1.09221	-0.145553	0.00408375	-0.348989	-0.0711847	0.439459	0.88181	-0.564804	-0.27182	
5.7663	0	0	4.76844	1.13471	0.049743	0.653531	-0.396921	-0.248241	0.235679	0.215394	-0.940827	-0.11944	-1.22135	-1.66785	-0.570112	-0.374385	-1.01801	-2.33282	-0.97693	-0.655598	-0.536498	-1.07761	-0.619103	-0.513934	-0.990984	-1.09272	-0.138294	-0.0034135	-0.34104	-0.0821335	0.436192	0.891043	-0.566053	-0.287462	
5.7663	0	0	4.76844	1.13471	0.0379475	0.651334	-0.395488	-0.243453	0.237922	0.21925	-0.926665	-0.127043	-1.21638	-1.65217	-0.562494	-0.338911	-1.01984	-2.33651	-0.97275	-0.63841	-0.538269	-1.08174	-0.620035	-0.511298	-0.997707	-1.09324	-0.131034	-0.0109108	-0.333091	-0.0930823	0.432924	0.900277	-0.567302	-0.303103	
5.76172	0	0	4.76844	1.13471	0.026152	0.649136	-0.394055	-0.238666	0.240164	0.223105	-0.912504	-0.134645	-1.2114	-1.63649	-0.554877	-0.303436	-1.02168	-2.34021	-0.96857	-0.621222	-0.54004	-1.08587	-0.620968	-0.508663	-1.00443	-1.09375	-0.123774	-0.018408	-0.325143	-0.104031	0.429657	0.909511	-0.568551	-0.318745	
5.76324	0	0	4.76844	1.13471	0.0252595	0.639829	-0.39988	-0.231041	0.234248	0.229632	-0.889382	-0.141492	-1.20811	-1.60606	-0.549852	-0.26046	-1.0221	-2.33015	-0.961893	-0.596509	-0.53528	-1.08105	-0.625635	-0.495474	-0.999967	-1.08685	-0.122849	-0.00799175	-0.319832	-0.084452	0.449099	0.927654	-0.573599	-0.304479	
5.76019	0	0	4.76844	1.13471	0.024367	0.630521	-0.405705	-0.223416	0.228332	0.236159	-0.866259	-0.14834	-1.20481	-1.57564	-0.544826	-0.217484	-1.02251	-2.3201	-0.955215	-0.571795	-0.53052	-1.07622	-0.630301	-0.482284	-0.995505	-1.07995	-0.121924	0.0024245	-0.314522	-0.064873	0.468542	0.945796	-0.578647	-0.290213	
5.75867	0	0	4.76844	1.13471	0.0234745	0.621213	-0.41153	-0.215791	0.222416	0.242687	-0.843136	-0.155188	-1.20152	-1.54521	-0.539801	-0.174509	-1.02293	-2.31004	-0.948538	-0.547081	-0.525759	-1.0714	-0.634968	-0.469094	-0.991043	-1.07304	-0.121	0.0128407	-0.309211	-0.045294	0.487984	0.963939	-0.583695	-0.275947	
5.76019	0	0	4.76844	1.13471	0.022582	0.611906	-0.417355	-0.208166	0.2165	0.249214	-0.820014	-0.162035	-1.19823	-1.51478	-0.534776	-0.131533	-1.02335	-2.29999	-0.94186	-0.522368	-0.520999	-1.06657	-0.639635	-0.455905	-0.986581	-1.06614	-0.120075	0.023257	-0.3039	-0.025715	0.507426	0.982082	-0.588743	-0.261681	
5.76019	0	0	4.76844	1.13471	0.0210655	0.616192	-0.412736	-0.203541	0.222206	0.253476	-0.794567	-0.168736	-1.19119	-1.49485	-0.524527	-0.110324	-1.01263	-2.29475	-0.939357	-0.514892	-0.520999	-1.06657	-0.639635	-0.455905	-0.987683	-1.07279	-0.119154	0.0336938	-0.314527	-0.00721725	0.495363	1.01617	-0.600085	-0.248779	
5.76172	0	0	4.76844	1.13471	0.019549	0.620478	-0.408117	-0.198915	0.227913	0.257739	-0.76912	-0.175438	-1.18416	-1.47491	-0.514278	-0.0891155	-1.00192	-2.2895	-0.936853	-0.507416	-0.520999	-1.06657	-0.639635	-0.455905	-0.988784	-1.07943	-0.118233	0.0441305	-0.325155	0.0112805	0.4833	1.05027	-0.611426	-0.235878	
5.75714	0	0	4.76844	1.13471	0.0180325	0.624765	-0.403498	-0.19429	0.233619	0.262001	-0.743673	-0.182139	-1.17712	-1.45497	-0.504028	-0.0679068	-0.991202	-2.28426	-0.934349	-0.49994	-0.520999	-1.06657	-0.639635	-0.455905	-0.989886	-1.08608	-0.117313	0.0545673	-0.335782	0.0297783	0.471237	1.08436	-0.622768	-0.222977	
5.75867	0	0	4.76844	1.13471	0.016516	0.629051	-0.398879	-0.189665	0.239325	0.266264	-0.718226	-0.18884	-1.17009	-1.43503	-0.493779	-0.046698	-0.980486	-2.27902	-0.931846	-0.492464	-0.520999	-1.06657	-0.639635	-0.455905	-0.990988	-1.09272	-0.116392	0.065004	-0.346409	0.048276	0.459174	1.11845	-0.63411	-0.210075	
5.76019	0	0	4.76844	1.13471	0.0198142	0.643396	-0.394925	-0.165429	0.243592	0.284832	-0.688205	-0.18856	-1.14843	-1.41633	-0.476163	-0.0245715	-0.963097	-2.26582	-0.922643	-0.482046	-0.513241	-1.06104	-0.640085	-0.445456	-0.987626	-1.09246	-0.114202	0.0718635	-0.339781	0.0526227	0.462716	1.13287	-0.625295	-0.215835	
5.76019	0	0	4.76844	1.13471	0.0231125	0.657741	-0.390972	-0.141193	0.247859	0.303399	-0.658184	-0.188281	-1.12678	-1.39762	-0.458546	-0.002445	-0.945707	-2.25263	-0.913439	-0.471627	-0.505483	-1.05552	-0.640535	-0.435007	-0.984263	-1.09221	-0.112013	0.078723	-0.333152	0.0569695	0.466258	1.14728	-0.61648	-0.221595	
5.75561	0	0	4.76844	1.13471	0.0264108	0.672087	-0.387018	-0.116957	0.252125	0.321966	-0.628164	-0.188001	-1.10513	-1.37892	-0.440929	0.0196815	-0.928318	-2.23944	-0.904236	-0.461209	-0.497726	-1.04999	-0.640985	-0.424559	-0.980901	-1.09195	-0.109823	0.0855825	-0.326523	0.0613163	0.4698	1.1617	-0.607666	-0.227355	
5.75256	0	0	4.76844	1.13471	0.029709	0.686432	-0.383064	-0.092721	0.256392	0.340534	-0.598143	-0.187721	-1.08348	-1.36022	-0.423313	0.041808	-0.910929	-2.22625	-0.895033	-0.450791	-0.489968	-1.04447	-0.641435	-0.41411	-0.977539	-1.09169	-0.107634	0.092442	-0.319895	0.065663	0.473342	1.17612	-0.598851	-0.233115	
5.75409	0	0	4.76844	1.13471	0.030595	0.695772	-0.383405	-0.0828945	0.258634	0.344419	-0.582361	-0.179744	-1.08484	-1.32632	-0.423863	0.0722065	-0.904697	-2.20814	-0.887502	-0.435575	-0.480422	-1.03478	-0.634369	-0.406521	-0.974203	-1.08159	-0.101981	0.102587	-0.314592	0.0737862	0.4792	1.19626	-0.595087	-0.22458	
5.75561	0	0	4.76844	1.13471	0.031481	0.705113	-0.383746	-0.073068	0.260876	0.348303	-0.56658	-0.171767	-1.0862	-1.29242	-0.424413	0.102605	-0.898465	-2.19004	-0.879971	-0.420358	-0.470876	-1.02509	-0.627302	-0.398933	-0.970866	-1.07148	-0.096327	0.112733	-0.30929	0.0819095	0.485058	1.21641	-0.591323	-0.216046	
5.75409	0	0	4.76844	1.13471	0.032367	0.714453	-0.384087	-0.0632415	0.263117	0.352187	-0.550798	-0.16379	-1.08756	-1.25852	-0.424964	0.133003	-0.892234	-2.17193	-0.872441	-0.405142	-0.46133	-1.01541	-0.620235	-0.391344	-0.967529	-1.06138	-0.0906735	0.122879	-0.303987	0.0900327	0.490916	1.23655	-0.587559	-0.207511	
5.75104	0	0	4.76844	1.13471	0.033253	0.723793	-0.384428	-0.053415	0.265359	0.356072	-0.535017	-0.155813	-1.08893	-1.22463	-0.425514	0.163402	-0.886002	-2.15383	-0.86491	-0.389926	-0.451784	-1.00572	-0.613169	-0.383756	-0.964193	-1.05128	-0.08502	0.133024	-0.298685	0.098156	0.496774	1.2567	-0.583795	-0.198976	
5.75256	0	0	4.62797	1.53169	0.0411192	0.725274	-0.376605	-0.0489093	0.271078	0.360367	-0.521391	-0.161386	-1.07426	-1.22593	-0.421326	0.158784	-0.875217	-2.14853	-0.861536	-0.399459	-0.448783	-1.00503	-0.612232	-0.386404	-0.965296	-1.05793	-0.0802777	0.132696	-0.30532	0.0937987	0.494563	1.26295	-0.583795	-0.198976	
5.75104	0	0	4.48751	1.92867	0.0489855	0.726755	-0.368782	-0.0444035	0.276796	0.364663	-0.507764	-0.166959	-1.05959	-1.22724	-0.417138	0.154166	-0.864432	-2.14322	-0.858163	-0.408993	-0.445782	-1.00433	-0.611295	-0.389052	-0.966399	-1.06458	-0.0755355	0.132369	-0.311955	0.0894415	0.492351	1.2692	-0.583795	-0.198976	
5.75104	0	0	4.34704	2.32565	0.0568517	0.728236	-0.360959	-0.0398977	0.282515	0.368958	-0.494138	-0.172533	-1.04493	-1.22854	-0.41295	0.149549	-0.853646	-2.13792	-0.854789	-0.418527	-0.442781	-1.00363	-0.610358	-0.3917	-0.967502	-1.07123	-0.0707933	0.132042	-0.31859	0.0850843	0.49014	1.27545	-0.583795	-0.198976	
5.74646	0	0	4.20657	2.72263	0.064718	0.729717	-0.353136	-0.035392	0.288233	0.373253	-0.480512	-0.178106	-1.03026	-1.22985	-0.408762	0.144931	-0.842861	-2.13262	-0.851416	-0.42806	-0.43978	-1.00293	-0.609421	-0.394348	-0.968605	-1.07789	-0.066051	0.131714	-0.325225	0.080727	0.487929	1.2817	-0.583795	-0.198976	
5.75104	0	0	4.20657	2.72263	0.069542	0.739826	-0.348852	-0.020846	0.291488	0.384533	-0.469132	-0.183876	-1.0261	-1.22152	-0.407171	0.147654	-0.836183	-2.12461	-0.851416	-0.42806	-0.433774	-1.00154	-0.611295	-0.389051	-0.967475	-1.08108	-0.066051	0.131714	-0.319898	0.0656732	0.493567	1.27801	-0.592619	-0.19321	
5.74493	0	0	4.20657	2.72263	0.074366	0.749934	-0.344568	-0.0063	0.294743	0.395814	-0.457753	-0.189646	-1.02193	-1.21319	-0.405579	0.150378	-0.829504	-2.1166	-0.851416	-0.42806	-0.427767	-1.00015	-0.613169	-0.383754	-0.966344	-1.08428	-0.066051	0.131714	-0.314572	0.0506195	0.499205	1.27433	-0.601443	-0.187445	
5.74493	0	0	4.20657	2.72263	0.07919	0.760042	-0.340285	0.008246	0.297997	0.407094	-0.446373	-0.195416	-1.01776	-1.20486	-0.403988	0.153102	-0.822826	-2.10859	-0.851416	-0.42806	-0.421761	-0.998754	-0.615044	-0.378457	-0.965214	-1.08747	-0.066051	0.131714	-0.309245	0.0355658	0.504842	1.27064	-0.610267	-0.181679	
5.74188	0	0	4.20657	2.72263	0.084014	0.770151	-0.336001	0.022792	0.301252	0.418374	-0.434993	-0.201186	-1.0136	-1.19653	-0.402397	0.155825	-0.816148	-2.10058	-0.851416	-0.42806	-0.415755	-0.997361	-0.616918	-0.37316	-0.964083	-1.09066	-0.066051	0.131714	-0.303918	0.020512	0.51048	1.26696	-0.619091	-0.175913	
5.74646	0	0	4.34704	2.32565	0.087067	0.761522	-0.339743	0.0155958	0.301476	0.4075	-0.441805	-0.201731	-1.02077	-1.18631	-0.420586	0.163946	-0.818429	-2.09413	-0.85227	-0.418339	-0.41342	-0.985573	-0.616437	-0.365322	-0.96411	-1.08082	-0.057832	0.134664	-0.298602	0.0170382	0.518447	1.26897	-0.607736	-0.188832	
5.74188	0	0	4.48751	1.92867	0.09012	0.752894	-0.343485	0.0083995	0.301699	0.396626	-0.448616	-0.202276	-1.02795	-1.17609	-0.438774	0.172068	-0.820709	-2.08769	-0.853123	-0.408619	-0.411085	-0.973785	-0.615957	-0.357484	-0.964138	-1.07097	-0.049613	0.137614	-0.293285	0.0135645	0.526415	1.27097	-0.596381	-0.20175	
5.74493	0	0	4.62797	1.53169	0.093173	0.744266	-0.347228	0.00120325	0.301923	0.385753	-0.455428	-0.202822	-1.03512	-1.16587	-0.456962	0.18019	-0.82299	-2.08124	-0.853976	-0.398899	-0.40875	-0.961997	-0.615476	-0.349647	-0.964166	-1.06112	-0.041394	0.140564	-0.287969	0.0100907	0.534382	1.27298	-0.585026	-0.214669	
5.74188	0	0	4.76844	1.13471	0.096226	0.735637	-0.35097	-0.005993	0.302146	0.374879	-0.46224	-0.203367	-1.04229	-1.15565	-0.475151	0.188311	-0.825271	-2.0748	-0.85483	-0.389178	-0.406415	-0.950209	-0.614996	-0.341809	-0.964193	-1.05128	-0.033175	0.143514	-0.282653	0.006617	0.542349	1.27499	-0.573671	-0.227588	
5.74341	0	0	4.76844	1.13471	0.0992763	0.727017	-0.350083	-0.00849925	0.304612	0.36791	-0.466748	-0.210403	-1.04645	-1.16399	-0.478034	0.167659	-0.826412	-2.07157	-0.858173	-0.401649	-0.409421	-0.95091	-0.620644	-0.344233	-0.972021	-1.05845	-0.0388435	0.133356	-0.27868	-0.0277048	0.53758	1.25169	-0.583729	-0.237487	
5.74188	0	0	4.76844	1.13471	0.102327	0.718396	-0.349197	-0.0110055	0.307078	0.360942	-0.471256	-0.21744	-1.05061	-1.17234	-0.480916	0.147008	-0.827553	-2.06835	-0.861515	-0.414119	-0.412427	-0.95161	-0.626292	-0.346657	-0.97985	-1.06561	-0.044512	0.123199	-0.274708	-0.0620265	0.532811	1.2284	-0.593786	-0.247387	
5.73883	0	0	4.76844	1.13471	0.105377	0.709776	-0.34831	-0.0135118	0.309543	0.353973	-0.475764	-0.224476	-1.05476	-1.18068	-0.483799	0.126356	-0.828694	-2.06512	-0.864857	-0.42659	-0.415432	-0.952311	-0.631941	-0.349082	-0.987678	-1.07278	-0.0501805	0.113041	-0.270735	-0.0963483	0.528042	1.2051	-0.603844	-0.257286	
5.73883	0	0	4.76844	1.13471	0.108427	0.701156	-0.347423	-0.016018	0.312009	0.347004	-0.480272	-0.231512	-1.05892	-1.18903	-0.486682	0.105704	-0.829835	-2.0619	-0.8682	-0.439061	-0.418438	-0.953012	-0.637589	-0.351506	-0.995506	-1.07995	-0.055849	0.102883	-0.266763	-0.13067	0.523273	1.18181	-0.613902	-0.267185	
5.74036	0	0	4.76844	1.13471	0.105377	0.709776	-0.344221	-0.0161835	0.318974	0.34781	-0.482511	-0.238356	-1.05638	-1.19621	-0.486543	0.0981178	-0.826848	-2.06137	-0.870727	-0.431917	-0.417887	-0.945375	-0.642755	-0.346093	-0.998866	-1.08021	-0.0593185	0.099613	-0.272086	-0.138692	0.52425	1.16681	-0.617664	-0.275686	
5.73578	0	0	4.76844	1.13471	0.102327	0.718396	-0.341019	-0.016349	0.325939	0.348617	-0.48475	-0.2452	-1.05384	-1.2034	-0.486403	0.0905315	-0.823861	-2.06084	-0.873255	-0.424774	-0.417335	-0.937738	-0.64792	-0.34068	-1.00223	-1.08047	-0.062788	0.096343	-0.277408	-0.146715	0.525226	1.1518	-0.621426	-0.284187	
5.7373	0	0	4.76844	1.13471	0.0992763	0.727017	-0.337816	-0.0165145	0.332903	0.349423	-0.486989	-0.252044	-1.0513	-1.21058	-0.486264	0.0829452	-0.820874	-2.06031	-0.875783	-0.417631	-0.416784	-0.930101	-0.653086	-0.335266	-1.00559	-1.08073	-0.0662575	0.093073	-0.282731	-0.154738	0.526202	1.1368	-0.625188	-0.292688	
5.73425	0	0	4.76844	1.13471	0.096226	0.735637	-0.334614	-0.01668	0.339868	0.35023	-0.489228	-0.258888	-1.04875	-1.21777	-0.486125	0.075359	-0.817887	-2.05979	-0.87831	-0.410487	-0.416233	-0.922464	-0.658252	-0.329853	-1.00895	-1.08099	-0.069727	0.089803	-0.288054	-0.16276	0.527179	1.1218	-0.62895	-0.301189	
5.73425	0	0	4.76844	1.13471	0.0944405	0.716941	-0.342102	-0.0310302	0.335578	0.331628	-0.511875	-0.254045	-1.06123	-1.24266	-0.500384	0.0510477	-0.831667	-2.06565	-0.892584	-0.399328	-0.425923	-0.913464	-0.666702	-0.324332	-1.02014	-1.07858	-0.071001	0.0934032	-0.282748	-0.166227	0.535147	1.12377	-0.626431	-0.308308	
5.73578	0	0	4.76844	1.13471	0.092655	0.698246	-0.349589	-0.0453805	0.331288	0.313026	-0.534521	-0.249202	-1.0737	-1.26756	-0.514644	0.0267365	-0.845446	-2.07151	-0.906859	-0.38817	-0.435613	-0.904465	-0.675152	-0.31881	-1.03134	-1.07617	-0.072275	0.0970035	-0.277442	-0.169694	0.543116	1.12574	-0.623912	-0.315426	
5.73883	0	0	4.76844	1.13471	0.0908695	0.67955	-0.357077	-0.0597307	0.326997	0.294424	-0.557168	-0.24436	-1.08617	-1.29246	-0.528903	0.00242525	-0.859225	-2.07737	-0.921133	-0.377011	-0.445304	-0.895465	-0.683602	-0.313289	-1.04253	-1.07376	-0.073549	0.100604	-0.272135	-0.173162	0.551084	1.12771	-0.621393	-0.322545	
5.73578	0	0	4.76844	1.13471	0.089084	0.660854	-0.364565	-0.074081	0.322707	0.275822	-0.579815	-0.239517	-1.09864	-1.31736	-0.543162	-0.021886	-0.873005	-2.08324	-0.935407	-0.365853	-0.454994	-0.886465	-0.692052	-0.307768	-1.05373	-1.07135	-0.074823	0.104204	-0.266829	-0.176629	0.559053	1.12969	-0.618874	-0.329664	
5.73273	0	0	4.76844	1.13471	0.086667	0.655825	-0.369735	-0.086058	0.319434	0.264616	-0.594106	-0.238464	-1.11028	-1.33444	-0.54778	-0.0374802	-0.878527	-2.09446	-0.945429	-0.373944	-0.462763	-0.892053	-0.700025	-0.31274	-1.06262	-1.08513	-0.0826743	0.0872223	-0.277475	-0.192616	0.545192	1.10769	-0.617615	-0.352335	
5.73273	0	0	4.76844	1.13471	0.08425	0.650796	-0.374906	-0.098035	0.316161	0.25341	-0.608397	-0.237411	-1.12192	-1.35151	-0.552397	-0.0530745	-0.884049	-2.10569	-0.95545	-0.382034	-0.470533	-0.897642	-0.707998	-0.317712	-1.07151	-1.09891	-0.0905255	0.0702405	-0.288121	-0.208603	0.53133	1.0857	-0.616356	-0.375005	
5.73425	0	0	4.76844	1.13471	0.081833	0.645768	-0.380076	-0.110012	0.312887	0.242205	-0.622689	-0.236358	-1.13356	-1.36859	-0.557014	-0.0686688	-0.88957	-2.11691	-0.965472	-0.390125	-0.478302	-0.903231	-0.715971	-0.322685	-1.0804	-1.11269	-0.0983767	0.0532587	-0.298767	-0.22459	0.517468	1.06371	-0.615098	-0.397676	
5.73273	0	0	4.76844	1.13471	0.079416	0.640739	-0.385246	-0.121989	0.309614	0.230999	-0.63698	-0.235305	-1.14521	-1.38566	-0.561632	-0.084263	-0.895092	-2.12814	-0.975494	-0.398216	-0.486071	-0.908819	-0.723944	-0.327657	-1.08929	-1.12647	-0.106228	0.036277	-0.309413	-0.240577	0.503607	1.04171	-0.613839	-0.420347	
5.73273	0	0	4.62797	1.53169	0.071548	0.639278	-0.388986	-0.129125	0.297964	0.233281	-0.649752	-0.231926	-1.1535	-1.40211	-0.561505	-0.0917768	-0.904717	-2.13665	-0.983011	-0.398786	-0.495054	-0.910938	-0.731905	-0.332622	-1.09371	-1.14312	-0.11534	0.0229412	-0.305495	-0.26315	0.503321	1.01811	-0.623885	-0.430123	
5.7312	0	0	4.48751	1.92867	0.06368	0.637818	-0.392725	-0.136262	0.286315	0.235563	-0.662524	-0.228546	-1.16179	-1.41856	-0.561378	-0.0992905	-0.914343	-2.14517	-0.990528	-0.399355	-0.504036	-0.913057	-0.739866	-0.337587	-1.09812	-1.15976	-0.124452	0.0096055	-0.301578	-0.285722	0.503035	0.994506	-0.63393	-0.4399	
5.7312	0	0	4.34704	2.32565	0.055812	0.636358	-0.396465	-0.143398	0.274665	0.237844	-0.675297	-0.225166	-1.17008	-1.435	-0.56125	-0.106804	-0.923968	-2.15368	-0.998045	-0.399925	-0.513019	-0.915175	-0.747828	-0.342552	-1.10254	-1.17641	-0.133565	-0.00373025	-0.29766	-0.308295	0.50275	0.970903	-0.643976	-0.449677	
5.73273	0	0	4.20657	2.72263	0.047944	0.634897	-0.400205	-0.150534	0.263015	0.240126	-0.688069	-0.221787	-1.17838	-1.45145	-0.561123	-0.114318	-0.933593	-2.16219	-1.00556	-0.400495	-0.522002	-0.917294	-0.755789	-0.347517	-1.10695	-1.19306	-0.142677	-0.017066	-0.293743	-0.330867	0.502464	0.9473	-0.654022	-0.459453	
5.7312	0	0	4.34704	2.32565	0.040708	0.619858	-0.410537	-0.174348	0.258927	0.2109	-0.715061	-0.210766	-1.1995	-1.48117	-0.579487	-0.133809	-0.954624	-2.18286	-1.02556	-0.402025	-0.537481	-0.928436	-0.770276	-0.35226	-1.12473	-1.20092	-0.148323	-0.0271218	-0.297757	-0.342503	0.503403	0.932452	-0.657788	-0.467865	
5.7312	0	0	4.48751	1.92867	0.033472	0.604819	-0.420868	-0.198163	0.254839	0.181675	-0.742052	-0.199745	-1.22063	-1.51089	-0.597851	-0.1533	-0.975656	-2.20354	-1.04556	-0.403554	-0.552961	-0.939577	-0.784763	-0.357002	-1.14252	-1.20877	-0.15397	-0.0371775	-0.301771	-0.35414	0.504343	0.917604	-0.661554	-0.476276	
5.72967	0	0	4.62797	1.53169	0.026236	0.58978	-0.4312	-0.221977	0.250751	0.152449	-0.769043	-0.188724	-1.24176	-1.54061	-0.616214	-0.17279	-0.996688	-2.22421	-1.06556	-0.405083	-0.568441	-0.950719	-0.79925	-0.361745	-1.1603	-1.21663	-0.159616	-0.0472332	-0.305785	-0.365776	0.505282	0.902755	-0.665319	-0.484687	
5.73273	0	0	4.76844	1.13471	0.019	0.574741	-0.441532	-0.245791	0.246663	0.123223	-0.796035	-0.177703	-1.26289	-1.57033	-0.634578	-0.192281	-1.01772	-2.24488	-1.08555	-0.406613	-0.58392	-0.961861	-0.813737	-0.366487	-1.17808	-1.22449	-0.165263	-0.057289	-0.309799	-0.377412	0.506221	0.887907	-0.669085	-0.493099	
5.73273	0	0	4.76844	1.13471	0.0172	0.556207	-0.445502	-0.269831	0.240117	0.101032	-0.817707	-0.1685	-1.27816	-1.60629	-0.643923	-0.215681	-1.0346	-2.2681	-1.09711	-0.439044	-0.599226	-0.991539	-0.819815	-0.394882	-1.18578	-1.26067	-0.175285	-0.0808838	-0.328366	-0.39371	0.484444	0.864322	-0.682866	-0.5112	
5.7312	0	0	4.76844	1.13471	0.0154	0.537672	-0.449472	-0.29387	0.233572	0.078841	-0.839379	-0.159297	-1.29344	-1.64225	-0.653268	-0.239082	-1.05148	-2.29131	-1.10866	-0.471474	-0.614532	-1.02122	-0.825893	-0.423277	-1.19348	-1.29684	-0.185306	-0.104479	-0.346934	-0.410007	0.462666	0.840736	-0.696646	-0.529301	
5.7312	0	0	4.76844	1.13471	0.0136	0.519138	-0.453442	-0.31791	0.227027	0.05665	-0.861051	-0.150094	-1.30871	-1.67821	-0.662613	-0.262483	-1.06836	-2.31452	-1.12022	-0.503904	-0.629837	-1.05089	-0.831971	-0.451673	-1.20118	-1.33302	-0.195328	-0.128073	-0.365501	-0.426304	0.440889	0.817151	-0.710427	-0.547402	
5.7312	0	0	4.76844	1.13471	0.0118	0.500604	-0.457412	-0.34195	0.220481	0.034459	-0.882723	-0.140891	-1.32399	-1.71417	-0.671958	-0.285883	-1.08524	-2.33773	-1.13177	-0.536335	-0.645143	-1.08057	-0.838049	-0.480068	-1.20887	-1.3692	-0.20535	-0.151668	-0.384068	-0.442602	0.419111	0.793566	-0.724207	-0.565503	
5.73273	0	0	4.76844	1.13471	0.00848175	0.48639	-0.462579	-0.353746	0.212536	0.0264547	-0.893155	-0.137378	-1.3343	-1.73432	-0.675841	-0.296215	-1.09843	-2.35347	-1.13754	-0.563303	-0.655699	-1.10525	-0.843666	-0.500574	-1.21218	-1.39838	-0.210669	-0.175481	-0.393375	-0.462008	0.406384	0.768964	-0.720515	-0.594915	
5.73273	0	0	4.76844	1.13471	0.0051635	0.472176	-0.467747	-0.365543	0.204591	0.0184505	-0.903586	-0.133865	-1.34461	-1.75446	-0.679725	-0.306546	-1.11162	-2.36921	-1.14331	-0.59027	-0.666255	-1.12994	-0.849282	-0.521079	-1.21548	-1.42757	-0.215987	-0.199294	-0.402681	-0.481413	0.393656	0.744363	-0.716823	-0.624326	
5.72967	0	0	4.76844	1.13471	0.00184525	0.457962	-0.472915	-0.377339	0.196645	0.0104462	-0.914017	-0.130353	-1.35492	-1.77461	-0.683608	-0.316878	-1.12481	-2.38495	-1.14907	-0.617237	-0.676811	-1.15462	-0.854899	-0.541585	-1.21879	-1.45676	-0.221305	-0.223108	-0.411988	-0.500819	0.380929	0.719761	-0.71313	-0.653737	
5.7312	0	0	4.76844	1.13471	-0.001473	0.443748	-0.478082	-0.389136	0.1887	0.002442	-0.924449	-0.12684	-1.36523	-1.79475	-0.687491	-0.32721	-1.138	-2.40068	-1.15484	-0.644205	-0.687367	-1.1793	-0.860515	-0.56209	-1.22209	-1.48594	-0.226624	-0.246921	-0.421294	-0.520224	0.368202	0.695159	-0.709438	-0.683149	
5.72662	0	0	4.76844	1.13471	-0.00930625	0.442325	-0.488472	-0.386135	0.17713	0.00473075	-0.931882	-0.125285	-1.37059	-1.7993	-0.693294	-0.317906	-1.14641	-2.41219	-1.16228	-0.651957	-0.691437	-1.19499	-0.871677	-0.566852	-1.22541	-1.49579	-0.234764	-0.249768	-0.417394	-0.531247	0.366042	0.701263	-0.715684	-0.684455	
5.72815	0	0	4.76844	1.13471	-0.0171395	0.440901	-0.498862	-0.383134	0.16556	0.0070195	-0.939316	-0.123729	-1.37594	-1.80384	-0.699098	-0.308601	-1.15481	-2.42369	-1.16973	-0.65971	-0.695507	-1.21069	-0.882839	-0.571615	-1.22873	-1.50564	-0.242903	-0.252614	-0.413494	-0.54227	0.363882	0.707367	-0.72193	-0.68576	
5.72662	0	0	4.76844	1.13471	-0.0249727	0.439477	-0.509253	-0.380132	0.153991	0.00930825	-0.94675	-0.122174	-1.3813	-1.80839	-0.704902	-0.299297	-1.16322	-2.4352	-1.17717	-0.667463	-0.699577	-1.22638	-0.894	-0.576377	-1.23205	-1.51549	-0.251043	-0.255461	-0.409593	-0.553294	0.361722	0.713472	-0.728175	-0.687066	
5.72357	0	0	4.76844	1.13471	-0.032806	0.438054	-0.519643	-0.377131	0.142421	0.011597	-0.954183	-0.120618	-1.38665	-1.81293	-0.710705	-0.289992	-1.17162	-2.4467	-1.18461	-0.675215	-0.703647	-1.24208	-0.905162	-0.58114	-1.23537	-1.52534	-0.259183	-0.258308	-0.405693	-0.564317	0.359562	0.719576	-0.734421	-0.688372	
5.72357	0	0	4.76844	1.13471	-0.036122	0.423893	-0.522498	-0.386617	0.13916	0.00056725	-0.956406	-0.120816	-1.39489	-1.82896	-0.713736	-0.302702	-1.17597	-2.46082	-1.19618	-0.671254	-0.714288	-1.2482	-0.910734	-0.583519	-1.24311	-1.52268	-0.255741	-0.255114	-0.399082	-0.560163	0.362048	0.736756	-0.734421	-0.688372	
5.72662	0	0	4.76844	1.13471	-0.039438	0.409732	-0.525353	-0.396103	0.1359	-0.0104625	-0.958628	-0.121013	-1.40312	-1.84498	-0.716766	-0.315412	-1.18032	-2.47493	-1.20776	-0.667293	-0.72493	-1.25433	-0.916307	-0.585897	-1.25084	-1.52003	-0.252299	-0.251921	-0.39247	-0.556008	0.364533	0.753935	-0.734421	-0.688372	
5.72357	0	0	4.76844	1.13471	-0.042754	0.395571	-0.528208	-0.405589	0.132639	-0.0214923	-0.960851	-0.121211	-1.41135	-1.86101	-0.719796	-0.328122	-1.18466	-2.48905	-1.21933	-0.663332	-0.735572	-1.26046	-0.921879	-0.588276	-1.25858	-1.51737	-0.248857	-0.248727	-0.385858	-0.551853	0.367019	0.771115	-0.734421	-0.688372	
5.7251	0	0	4.76844	1.13471	-0.04607	0.38141	-0.531063	-0.415075	0.129378	-0.032522	-0.963074	-0.121409	-1.41959	-1.87704	-0.722827	-0.340832	-1.18901	-2.50316	-1.2309	-0.659371	-0.746213	-1.26659	-0.927451	-0.590655	-1.26632	-1.51472	-0.245415	-0.245534	-0.379247	-0.547699	0.369505	0.788295	-0.734421	-0.688372	
5.72357	0	0	4.76844	1.13471	-0.0391555	0.373631	-0.527894	-0.415255	0.132825	-0.0321445	-0.957868	-0.123161	-1.41753	-1.87304	-0.721253	-0.338191	-1.18608	-2.50266	-1.23007	-0.668909	-0.743808	-1.27338	-0.928851	-0.595755	-1.26411	-1.52096	-0.247605	-0.252265	-0.385858	-0.551853	0.370588	0.785234	-0.729468	-0.70237	
5.72662	0	0	4.76844	1.13471	-0.032241	0.365852	-0.524725	-0.415435	0.136272	-0.031767	-0.952662	-0.124912	-1.41547	-1.86904	-0.71968	-0.33555	-1.18314	-2.50216	-1.22923	-0.678447	-0.741403	-1.28018	-0.930252	-0.600855	-1.2619	-1.5272	-0.249796	-0.258997	-0.39247	-0.556008	0.371671	0.782172	-0.724515	-0.716368	
5.72815	0	0	4.76844	1.13471	-0.0253265	0.358073	-0.521557	-0.415615	0.13972	-0.0313895	-0.947456	-0.126664	-1.41341	-1.86503	-0.718106	-0.332908	-1.18021	-2.50166	-1.2284	-0.687985	-0.738999	-1.28697	-0.931652	-0.605954	-1.25969	-1.53345	-0.251986	-0.265728	-0.399082	-0.560163	0.372754	0.779111	-0.719562	-0.730365	
5.72357	0	0	4.76844	1.13471	-0.018412	0.350294	-0.518388	-0.415795	0.143167	-0.031012	-0.94225	-0.128415	-1.41135	-1.86103	-0.716532	-0.330267	-1.17727	-2.50116	-1.22756	-0.697523	-0.736594	-1.29377	-0.933052	-0.611054	-1.25748	-1.53969	-0.254176	-0.272459	-0.405693	-0.564317	0.373837	0.77605	-0.714609	-0.744363	
5.72204	0	0	4.76844	1.13471	-0.0214143	0.358779	-0.514102	-0.401556	0.153336	-0.0192182	-0.919866	-0.13974	-1.40106	-1.84097	-0.707083	-0.314383	-1.16481	-2.49234	-1.21848	-0.694467	-0.728912	-1.28834	-0.921905	-0.606303	-1.24974	-1.53274	-0.250733	-0.269268	-0.405693	-0.564317	0.376162	0.781593	-0.714609	-0.744363	
5.72357	0	0	4.76844	1.13471	-0.0244165	0.367264	-0.509817	-0.387317	0.163506	-0.0074245	-0.897482	-0.151064	-1.39076	-1.82091	-0.697634	-0.298498	-1.15234	-2.48352	-1.20939	-0.69141	-0.72123	-1.2829	-0.910757	-0.601552	-1.242	-1.5258	-0.24729	-0.266077	-0.405693	-0.564317	0.378487	0.787137	-0.714609	-0.744363	
5.72357	0	0	4.76844	1.13471	-0.0274187	0.375749	-0.505531	-0.373079	0.173676	0.00436925	-0.875097	-0.162388	-1.38047	-1.80085	-0.688185	-0.282613	-1.13988	-2.4747	-1.20031	-0.688354	-0.713549	-1.27747	-0.89961	-0.596802	-1.23426	-1.51885	-0.243847	-0.262887	-0.405693	-0.564317	0.380813	0.79268	-0.714609	-0.744363	
5.72357	0	0	4.76844	1.13471	-0.030421	0.384234	-0.501245	-0.35884	0.183845	0.016163	-0.852713	-0.173713	-1.37017	-1.78079	-0.678736	-0.266729	-1.12742	-2.46589	-1.19122	-0.685298	-0.705867	-1.27203	-0.888463	-0.592051	-1.22652	-1.5119	-0.240404	-0.259696	-0.405693	-0.564317	0.383138	0.798223	-0.714609	-0.744363	
5.72204	0	0	4.76844	1.13471	-0.0358347	0.387772	-0.507908	-0.348797	0.177963	0.0226445	-0.837783	-0.176861	-1.36565	-1.75416	-0.679954	-0.241956	-1.11899	-2.45439	-1.18213	-0.667801	-0.689264	-1.26455	-0.885181	-0.574091	-1.2232	-1.49241	-0.236021	-0.246213	-0.396424	-0.556244	0.386851	0.824119	-0.70836	-0.743068	
5.71899	0	0	4.76844	1.13471	-0.0412485	0.391309	-0.514571	-0.338754	0.172081	0.029126	-0.822852	-0.180009	-1.36112	-1.72753	-0.681172	-0.217183	-1.11057	-2.44289	-1.17305	-0.650303	-0.67266	-1.25706	-0.881898	-0.556131	-1.21988	-1.47291	-0.231639	-0.232729	-0.387154	-0.548171	0.390564	0.850015	-0.70211	-0.741773	
5.72357	0	0	4.76844	1.13471	-0.0466623	0.394846	-0.521234	-0.328712	0.166199	0.0356075	-0.807922	-0.183156	-1.3566	-1.7009	-0.682389	-0.192409	-1.10214	-2.43139	-1.16396	-0.632805	-0.656057	-1.24958	-0.878615	-0.538171	-1.21657	-1.45342	-0.227257	-0.219245	-0.377885	-0.540097	0.394278	0.875911	-0.69586	-0.740479	
5.71899	0	0	4.76844	1.13471	-0.052076	0.398384	-0.527897	-0.318669	0.160317	0.042089	-0.792992	-0.186304	-1.35207	-1.67426	-0.683607	-0.167636	-1.09371	-2.41989	-1.15487	-0.615308	-0.639453	-1.24209	-0.875333	-0.520211	-1.21325	-1.43392	-0.222874	-0.205762	-0.368615	-0.532024	0.397991	0.901807	-0.689611	-0.739184	
5.72357	0	0	4.76844	1.13471	-0.0559845	0.397676	-0.5233	-0.31408	0.159102	0.045522	-0.776505	-0.193771	-1.34465	-1.66562	-0.679608	-0.164704	-1.08416	-2.41153	-1.14492	-0.614582	-0.634713	-1.23732	-0.868344	-0.512687	-1.2066	-1.43345	-0.226643	-0.195111	-0.377784	-0.517541	0.391453	0.920284	-0.698336	-0.733483	
5.71747	0	0	4.76844	1.13471	-0.059893	0.396967	-0.518704	-0.309491	0.157888	0.048955	-0.760017	-0.201238	-1.33723	-1.65698	-0.675609	-0.161772	-1.0746	-2.40317	-1.13497	-0.613855	-0.629973	-1.23255	-0.861355	-0.505162	-1.19995	-1.43297	-0.230411	-0.18446	-0.386954	-0.503057	0.384915	0.938761	-0.707061	-0.727781	
5.72662	0	0	4.76844	1.13471	-0.0638015	0.396259	-0.514108	-0.304901	0.156673	0.052388	-0.743529	-0.208705	-1.32981	-1.64834	-0.671609	-0.158841	-1.06504	-2.39481	-1.12502	-0.613129	-0.625232	-1.22777	-0.854365	-0.497638	-1.1933	-1.43249	-0.23418	-0.17381	-0.396123	-0.488573	0.378377	0.957238	-0.715786	-0.72208	
5.72052	0	0	4.76844	1.13471	-0.06771	0.39555	-0.509511	-0.300312	0.155458	0.055821	-0.727042	-0.216172	-1.32238	-1.6397	-0.66761	-0.155909	-1.05548	-2.38645	-1.11507	-0.612403	-0.620492	-1.223	-0.847376	-0.490114	-1.18665	-1.43201	-0.237949	-0.163159	-0.405292	-0.47409	0.371839	0.975715	-0.724511	-0.716379	
5.71442	0	0	4.76844	1.13471	-0.0638015	0.396259	-0.507537	-0.288294	0.158716	0.0669032	-0.708267	-0.223477	-1.30833	-1.62995	-0.65632	-0.152182	-1.03886	-2.38022	-1.10429	-0.599537	-0.608018	-1.21274	-0.839905	-0.474796	-1.18221	-1.42525	-0.234505	-0.159945	-0.401335	-0.473842	0.368565	0.984968	-0.71331	-0.729076	
5.71899	0	0	4.76844	1.13471	-0.059893	0.396967	-0.505564	-0.276276	0.161973	0.0779855	-0.689493	-0.230783	-1.29427	-1.6202	-0.645031	-0.148455	-1.02224	-2.374	-1.0935	-0.586671	-0.595544	-1.20249	-0.832434	-0.459479	-1.17778	-1.41849	-0.23106	-0.156732	-0.397378	-0.473595	0.365291	0.994221	-0.70211	-0.741773	
5.71899	0	0	4.76844	1.13471	-0.0559845	0.397676	-0.50359	-0.264258	0.165231	0.0890678	-0.670718	-0.238088	-1.28022	-1.61045	-0.633741	-0.144729	-1.00562	-2.36778	-1.08271	-0.573804	-0.58307	-1.19224	-0.824963	-0.444161	-1.17335	-1.41173	-0.227615	-0.153519	-0.393422	-0.473348	0.362017	1.00347	-0.69091	-0.754471	
5.71747	0	0	4.76844	1.13471	-0.052076	0.398384	-0.501616	-0.25224	0.168489	0.10015	-0.651943	-0.245393	-1.26616	-1.6007	-0.622451	-0.141002	-0.989004	-2.36155	-1.07193	-0.560938	-0.570596	-1.18199	-0.817492	-0.428843	-1.16891	-1.40498	-0.224171	-0.150305	-0.389465	-0.4731	0.358743	1.01273	-0.679709	-0.767168	
5.71747	0	0	4.76844	1.13471	-0.0457542	0.40405	-0.500524	-0.237713	0.172965	0.107813	-0.639187	-0.242135	-1.25833	-1.57325	-0.613106	-0.11741	-0.97459	-2.34895	-1.05865	-0.533261	-0.56174	-1.1614	-0.806276	-0.405761	-1.16671	-1.38221	-0.213825	-0.140647	-0.381498	-0.461283	0.372378	1.02282	-0.675928	-0.758877	
5.71136	0	0	4.76844	1.13471	-0.0394325	0.409716	-0.499432	-0.223187	0.177441	0.115476	-0.626431	-0.238876	-1.25049	-1.54579	-0.603762	-0.0938185	-0.960176	-2.33634	-1.04537	-0.505583	-0.552885	-1.14081	-0.79506	-0.382679	-1.16452	-1.35944	-0.203479	-0.130988	-0.37353	-0.449466	0.386013	1.03292	-0.672146	-0.750587	
5.71289	0	0	4.76844	1.13471	-0.0331108	0.415381	-0.49834	-0.20866	0.181916	0.123138	-0.613675	-0.235618	-1.24266	-1.51833	-0.594417	-0.0702268	-0.945762	-2.32373	-1.03208	-0.477906	-0.54403	-1.12021	-0.783843	-0.359597	-1.16232	-1.33668	-0.193133	-0.12133	-0.365563	-0.43765	0.399648	1.04302	-0.668365	-0.742296	
5.71594	0	0	4.76844	1.13471	-0.026789	0.421047	-0.497248	-0.194133	0.186392	0.130801	-0.600919	-0.232359	-1.23482	-1.49087	-0.585072	-0.046635	-0.931348	-2.31113	-1.0188	-0.450229	-0.535174	-1.09963	-0.772627	-0.336515	-1.16012	-1.31391	-0.182787	-0.111671	-0.357596	-0.425833	0.413283	1.05311	-0.664584	-0.734005	
5.70831	0	0	4.76844	1.13471	-0.0135268	0.41892	-0.49089	-0.194472	0.193311	0.13158	-0.590363	-0.23594	-1.2236	-1.49276	-0.581055	-0.043677	-0.919457	-2.30908	-1.01633	-0.435419	-0.529858	-1.08722	-0.76842	-0.320952	-1.15457	-1.31026	-0.17967	-0.0945025	-0.354866	-0.399152	0.41133	1.08299	-0.66577	-0.711656	
5.70831	0	0	4.76844	1.13471	-0.0002645	0.416794	-0.484532	-0.194811	0.200231	0.132358	-0.579807	-0.239522	-1.21238	-1.49465	-0.577038	-0.040719	-0.907566	-2.30704	-1.01386	-0.42061	-0.524543	-1.07482	-0.764214	-0.305389	-1.14902	-1.30662	-0.176554	-0.077334	-0.352137	-0.372471	0.409376	1.11288	-0.666957	-0.689307	
5.70679	0	0	4.76844	1.13471	0.0129977	0.414667	-0.478174	-0.19515	0.20715	0.133136	-0.569251	-0.243104	-1.20116	-1.49653	-0.57302	-0.037761	-0.895676	-2.305	-1.01139	-0.405801	-0.519227	-1.06242	-0.760007	-0.289827	-1.14347	-1.30297	-0.173437	-0.0601655	-0.349407	-0.345789	0.407423	1.14276	-0.668144	-0.666959	
5.70831	0	0	4.76844	1.13471	0.02626	0.41254	-0.471816	-0.195489	0.214069	0.133915	-0.558695	-0.246685	-1.18994	-1.49842	-0.569003	-0.034803	-0.883785	-2.30296	-1.00893	-0.390991	-0.513911	-1.05002	-0.755801	-0.274264	-1.13791	-1.29932	-0.17032	-0.042997	-0.346677	-0.319108	0.405469	1.17265	-0.66933	-0.64461	
5.70831	0	0	4.76844	1.13471	0.0250582	0.439543	-0.46436	-0.181252	0.224265	0.145834	-0.540591	-0.245234	-1.17957	-1.47791	-0.549733	-0.0175432	-0.866316	-2.28978	-0.993942	-0.367817	-0.50205	-1.02857	-0.745033	-0.258852	-1.13683	-1.28302	-0.164676	-0.032934	-0.33341	-0.310641	0.423539	1.1704	-0.665554	-0.636265	
5.70831	0	0	4.76844	1.13471	0.0238565	0.466546	-0.456904	-0.167015	0.234461	0.157753	-0.522487	-0.243784	-1.1692	-1.45739	-0.530463	-0.0002835	-0.848847	-2.2766	-0.978959	-0.344642	-0.490189	-1.00712	-0.734266	-0.243441	-1.13575	-1.26671	-0.159032	-0.022871	-0.320144	-0.302173	0.441608	1.16816	-0.661779	-0.627919	
5.70679	0	0	4.76844	1.13471	0.0226548	0.493549	-0.449447	-0.152779	0.244657	0.169672	-0.504383	-0.242334	-1.15883	-1.43688	-0.511193	0.0169762	-0.831377	-2.26343	-0.963975	-0.321468	-0.478328	-0.985673	-0.723499	-0.228029	-1.13467	-1.25041	-0.153388	-0.012808	-0.306877	-0.293706	0.459677	1.16591	-0.658003	-0.619574	
5.70373	0	0	4.76844	1.13471	0.021453	0.520552	-0.441991	-0.138542	0.254853	0.181591	-0.486279	-0.240883	-1.14847	-1.41637	-0.491923	0.034236	-0.813908	-2.25025	-0.948992	-0.298294	-0.466467	-0.964224	-0.712731	-0.212617	-1.13358	-1.23411	-0.147744	-0.002745	-0.29361	-0.285239	0.477747	1.16367	-0.654227	-0.611229	
5.70831	0	0	4.76844	1.13471	0.0241458	0.548408	-0.450811	-0.113617	0.248517	0.209696	-0.476496	-0.228973	-1.1352	-1.3839	-0.481961	0.0708665	-0.80393	-2.22467	-0.927262	-0.271987	-0.451582	-0.941955	-0.704778	-0.189138	-1.11801	-1.21991	-0.138635	0.0106005	-0.284272	-0.265557	0.482504	1.18693	-0.629106	-0.605968	
5.70679	0	0	4.76844	1.13471	0.0268385	0.576264	-0.45963	-0.088692	0.24218	0.2378	-0.466712	-0.217064	-1.12193	-1.35143	-0.471999	0.107497	-0.793953	-2.19909	-0.905532	-0.245679	-0.436697	-0.919685	-0.696825	-0.165659	-1.10244	-1.20571	-0.129526	0.023946	-0.274933	-0.245874	0.48726	1.21018	-0.603986	-0.600707	
5.70679	0	0	4.76844	1.13471	0.0295313	0.604119	-0.46845	-0.063767	0.235844	0.265905	-0.456929	-0.205155	-1.10866	-1.31896	-0.462037	0.144127	-0.783975	-2.17351	-0.883803	-0.219371	-0.421811	-0.897415	-0.688872	-0.14218	-1.08687	-1.19151	-0.120418	0.0372915	-0.265594	-0.226192	0.492017	1.23344	-0.578865	-0.595445	
5.70221	0	0	4.76844	1.13471	0.032224	0.631975	-0.477269	-0.038842	0.229508	0.29401	-0.447146	-0.193245	-1.09539	-1.28649	-0.452075	0.180758	-0.773997	-2.14793	-0.862073	-0.193064	-0.406926	-0.875146	-0.680919	-0.118701	-1.0713	-1.17732	-0.111309	0.050637	-0.256256	-0.20651	0.496774	1.2567	-0.553744	-0.590184	
5.70526	0	0	4.76844	1.13471	0.0379363	0.651365	-0.471782	-0.036668	0.237459	0.302164	-0.441068	-0.197216	-1.08997	-1.28178	-0.446445	0.186494	-0.764298	-2.1394	-0.862101	-0.185655	-0.403371	-0.86677	-0.67528	-0.116226	-1.07577	-1.1744	-0.119852	0.061743	-0.256235	-0.195033	0.488928	1.26663	-0.563752	-0.5619	
5.70373	0	0	4.76844	1.13471	0.0436485	0.670755	-0.466296	-0.034494	0.245411	0.310318	-0.434991	-0.201188	-1.08455	-1.27707	-0.440816	0.192229	-0.754599	-2.13087	-0.86213	-0.178246	-0.399816	-0.858395	-0.66964	-0.11375	-1.08024	-1.17147	-0.128395	0.072849	-0.256214	-0.183555	0.481083	1.27656	-0.57376	-0.533617	
5.70068	0	0	4.76844	1.13471	0.0493607	0.690145	-0.460809	-0.03232	0.253362	0.318472	-0.428913	-0.205159	-1.07913	-1.27235	-0.435187	0.197965	-0.7449	-2.12234	-0.862159	-0.170836	-0.396261	-0.850019	-0.664	-0.111274	-1.08471	-1.16855	-0.136939	0.083955	-0.256193	-0.172078	0.473237	1.28649	-0.583768	-0.505333	
5.70221	0	0	4.76844	1.13471	0.055073	0.709535	-0.455323	-0.030146	0.261313	0.326626	-0.422835	-0.20913	-1.07371	-1.26764	-0.429557	0.203701	-0.735201	-2.11381	-0.862187	-0.163427	-0.392706	-0.841644	-0.658361	-0.108799	-1.08918	-1.16563	-0.145482	0.095061	-0.256172	-0.160601	0.465392	1.29642	-0.593776	-0.477049	
5.69916	0	0	4.76844	1.13471	0.063835	0.720374	-0.450716	-0.0254702	0.268043	0.338283	-0.415987	-0.215271	-1.07036	-1.26707	-0.421463	0.209727	-0.727344	-2.10902	-0.857139	-0.163027	-0.386683	-0.840224	-0.656012	-0.106224	-1.08471	-1.16855	-0.145482	0.095061	-0.261482	-0.157131	0.472132	1.28962	-0.587486	-0.475712	
5.69916	0	0	4.76844	1.13471	0.072597	0.731213	-0.446109	-0.0207945	0.274773	0.34994	-0.409138	-0.221412	-1.06701	-1.2665	-0.41337	0.215753	-0.719487	-2.10422	-0.852092	-0.162627	-0.380661	-0.838804	-0.653663	-0.103649	-1.08024	-1.17147	-0.145482	0.095061	-0.266792	-0.153662	0.478872	1.28281	-0.581196	-0.474375	
5.69763	0	0	4.76844	1.13471	0.081359	0.742051	-0.441501	-0.0161188	0.281503	0.361596	-0.402289	-0.227552	-1.06366	-1.26594	-0.405277	0.221778	-0.71163	-2.09943	-0.847044	-0.162228	-0.374638	-0.837383	-0.651313	-0.101074	-1.07577	-1.1744	-0.145482	0.095061	-0.272101	-0.150193	0.485612	1.276	-0.574906	-0.473038	
5.6961	0	0	4.76844	1.13471	0.090121	0.75289	-0.436894	-0.011443	0.288233	0.373253	-0.395441	-0.233693	-1.06032	-1.26537	-0.397183	0.227804	-0.703773	-2.09463	-0.841996	-0.161828	-0.368615	-0.835963	-0.648964	-0.098499	-1.0713	-1.17732	-0.145482	0.095061	-0.277411	-0.146723	0.492352	1.2692	-0.568616	-0.471701	
5.69763	0	0	4.76844	1.13471	0.0995355	0.750056	-0.442385	-0.0136203	0.289466	0.369769	-0.401497	-0.236395	-1.06954	-1.25934	-0.39979	0.235172	-0.706774	-2.09516	-0.840322	-0.159222	-0.368615	-0.835963	-0.647072	-0.103845	-1.0657	-1.18341	-0.138209	0.0875468	-0.272101	-0.150193	0.486718	1.27288	-0.550995	-0.483215	
5.69763	0	0	4.76844	1.13471	0.10895	0.747222	-0.447877	-0.0157975	0.290698	0.366286	-0.407554	-0.239098	-1.07877	-1.25331	-0.402397	0.242539	-0.709776	-2.09568	-0.838648	-0.156615	-0.368615	-0.835963	-0.645181	-0.109191	-1.06011	-1.18951	-0.130937	0.0800325	-0.266792	-0.153662	0.481083	1.27656	-0.533375	-0.494729	
5.70068	0	0	4.76844	1.13471	0.118365	0.744389	-0.453368	-0.0179747	0.29193	0.362802	-0.41361	-0.2418	-1.088	-1.24728	-0.405004	0.249907	-0.712777	-2.0962	-0.836974	-0.154008	-0.368615	-0.835963	-0.64329	-0.114537	-1.05451	-1.19561	-0.123664	0.0725183	-0.261482	-0.157131	0.475449	1.28024	-0.515755	-0.506242	
5.6961	0	0	4.76844	1.13471	0.127779	0.741555	-0.458859	-0.020152	0.293163	0.359318	-0.419666	-0.244502	-1.09723	-1.24125	-0.407611	0.257274	-0.715778	-2.09673	-0.8353	-0.151402	-0.368615	-0.835963	-0.641398	-0.119883	-1.04891	-1.20171	-0.116392	0.065004	-0.256172	-0.160601	0.469815	1.28392	-0.498134	-0.517756	
5.6961	0	0	4.76844	1.13471	0.12536	0.736502	-0.460813	-0.0323092	0.295627	0.352355	-0.435555	-0.245758	-1.10507	-1.26911	-0.415407	0.235976	-0.724345	-2.10849	-0.84529	-0.181788	-0.381747	-0.854118	-0.647022	-0.140817	-1.06004	-1.2188	-0.130218	0.0519798	-0.268142	-0.172876	0.459454	1.26432	-0.510743	-0.520406	
5.69458	0	0	4.76844	1.13471	0.122941	0.731449	-0.462767	-0.0444665	0.298091	0.345391	-0.451443	-0.247014	-1.11292	-1.29696	-0.423204	0.214678	-0.732913	-2.12025	-0.855279	-0.212173	-0.39488	-0.872273	-0.652645	-0.16175	-1.07117	-1.23589	-0.144045	0.0389555	-0.280111	-0.185151	0.449093	1.24471	-0.523351	-0.523057	
5.69458	0	0	4.76844	1.13471	0.120521	0.726396	-0.464721	-0.0566238	0.300555	0.338427	-0.467332	-0.248271	-1.12076	-1.32482	-0.431001	0.19338	-0.74148	-2.13201	-0.865268	-0.242559	-0.408012	-0.890428	-0.658269	-0.182684	-1.0823	-1.25299	-0.157871	0.0259313	-0.29208	-0.197427	0.438732	1.22511	-0.53596	-0.525707	
5.69458	0	0	4.76844	1.13471	0.118102	0.721343	-0.466675	-0.068781	0.303019	0.331464	-0.483221	-0.249527	-1.12861	-1.35267	-0.438797	0.172082	-0.750047	-2.14377	-0.875258	-0.272944	-0.421144	-0.908583	-0.663893	-0.203618	-1.09342	-1.27008	-0.171698	0.012907	-0.30405	-0.209702	0.428371	1.2055	-0.548569	-0.528358	
5.69916	0	0	4.76844	1.13471	0.121152	0.712723	-0.463147	-0.078751	0.307731	0.328385	-0.492253	-0.256902	-1.12898	-1.3716	-0.436786	0.151979	-0.757466	-2.15871	-0.881082	-0.293025	-0.422801	-0.931474	-0.669056	-0.216602	-1.09564	-1.28321	-0.171353	-0.001069	-0.305418	-0.228846	0.420334	1.19164	-0.549863	-0.543814	
5.70221	0	0	4.76844	1.13471	0.124202	0.704102	-0.45962	-0.088721	0.312442	0.325307	-0.501286	-0.264277	-1.12935	-1.39052	-0.434776	0.131875	-0.764884	-2.17365	-0.886907	-0.313107	-0.424458	-0.954365	-0.674218	-0.229585	-1.09785	-1.29634	-0.171009	-0.015045	-0.306785	-0.247991	0.412297	1.17777	-0.551157	-0.559271	
5.70526	0	0	4.76844	1.13471	0.127252	0.695482	-0.456092	-0.098691	0.317153	0.322228	-0.510318	-0.271652	-1.12972	-1.40945	-0.432766	0.111771	-0.772303	-2.18859	-0.892732	-0.333188	-0.426114	-0.977257	-0.67938	-0.242569	-1.10006	-1.30948	-0.170664	-0.029021	-0.308152	-0.267135	0.40426	1.1639	-0.55245	-0.574728	
5.71442	0	0	4.76844	1.13471	0.130302	0.686862	-0.452564	-0.108661	0.321865	0.31915	-0.51935	-0.279027	-1.1301	-1.42837	-0.430755	0.091668	-0.779721	-2.20353	-0.898556	-0.35327	-0.427771	-1.00015	-0.684543	-0.255553	-1.10227	-1.32261	-0.17032	-0.042997	-0.30952	-0.286279	0.396223	1.15004	-0.553744	-0.590184	
5.72052	0	0	4.76844	1.13471	0.126077	0.663177	-0.457377	-0.130368	0.318802	0.297112	-0.545743	-0.270066	-1.15214	-1.4358	-0.452798	0.0892042	-0.802044	-2.22097	-0.912791	-0.356797	-0.439105	-1.01398	-0.692519	-0.260545	-1.11006	-1.31994	-0.172509	-0.049804	-0.30689	-0.293712	0.402929	1.14327	-0.548752	-0.604292	
5.72967	0	0	4.76844	1.13471	0.121853	0.639493	-0.46219	-0.152075	0.31574	0.275074	-0.572135	-0.261105	-1.17419	-1.44324	-0.47484	0.0867405	-0.824367	-2.23842	-0.927026	-0.360324	-0.450438	-1.02782	-0.700494	-0.265536	-1.11786	-1.31728	-0.174698	-0.056611	-0.30426	-0.301145	0.409636	1.1365	-0.54376	-0.618401	
5.74036	0	0	4.76844	1.13471	0.117628	0.615808	-0.467003	-0.173782	0.312677	0.253037	-0.598528	-0.252145	-1.19623	-1.45067	-0.496883	0.0842767	-0.846691	-2.25586	-0.94126	-0.363851	-0.461772	-1.04165	-0.708469	-0.270528	-1.12565	-1.31461	-0.176886	-0.063418	-0.30163	-0.308577	0.416343	1.12973	-0.538768	-0.632509	
5.75256	0	0	4.76844	1.13471	0.113403	0.592124	-0.471816	-0.195489	0.309614	0.230999	-0.624921	-0.243184	-1.21828	-1.4581	-0.518926	0.081813	-0.869014	-2.27331	-0.955495	-0.367378	-0.473105	-1.05549	-0.716445	-0.27552	-1.13345	-1.31194	-0.179075	-0.070225	-0.299	-0.31601	0.423049	1.12296	-0.533776	-0.646617	
5.76477	0	0	4.76844	1.13471	0.106136	0.577105	-0.47609	-0.209849	0.305114	0.223282	-0.642193	-0.240173	-1.21948	-1.48452	-0.524127	0.0534645	-0.880807	-2.30237	-0.963799	-0.394829	-0.48675	-1.08094	-0.72207	-0.296271	-1.13676	-1.33158	-0.178418	-0.098041	-0.300434	-0.346417	0.417064	1.09118	-0.538897	-0.670312	
5.77698	0	0	4.76844	1.13471	0.098869	0.562086	-0.480363	-0.224209	0.300615	0.215566	-0.659466	-0.237162	-1.22068	-1.51094	-0.529329	0.025116	-0.8926	-2.33144	-0.972103	-0.42228	-0.500395	-1.1064	-0.727694	-0.317022	-1.14008	-1.35121	-0.177761	-0.125857	-0.301868	-0.376825	0.41108	1.0594	-0.544018	-0.694008	
5.78766	0	0	4.76844	1.13471	0.091602	0.547068	-0.484637	-0.238569	0.296115	0.207849	-0.676739	-0.23415	-1.22188	-1.53736	-0.534531	-0.0032325	-0.904393	-2.36051	-0.980407	-0.44973	-0.514039	-1.13186	-0.733318	-0.337773	-1.14339	-1.37084	-0.177104	-0.153673	-0.303302	-0.407232	0.405095	1.02762	-0.549138	-0.717704	
5.79834	0	0	4.76844	1.13471	0.084335	0.532049	-0.488911	-0.252929	0.291615	0.200132	-0.694011	-0.231139	-1.22308	-1.56378	-0.539732	-0.031581	-0.916186	-2.38958	-0.988711	-0.477181	-0.527684	-1.15732	-0.738943	-0.358524	-1.14671	-1.39048	-0.176447	-0.181489	-0.304736	-0.437639	0.39911	0.995841	-0.554259	-0.741399	
5.81055	0	0	4.76844	1.13471	0.0825142	0.513529	-0.485409	-0.262827	0.29284	0.19667	-0.709756	-0.225811	-1.2326	-1.57653	-0.542642	-0.0520015	-0.930935	-2.41895	-1.00204	-0.490306	-0.537118	-1.18536	-0.744099	-0.371391	-1.15226	-1.40376	-0.182094	-0.191451	-0.307452	-0.452901	0.396653	0.978487	-0.561868	-0.757984	
5.8197	0	0	4.76844	1.13471	0.0806935	0.495008	-0.481907	-0.272725	0.294065	0.193208	-0.725502	-0.220483	-1.24213	-1.58928	-0.545551	-0.072422	-0.945685	-2.44833	-1.01536	-0.50343	-0.546551	-1.2134	-0.749254	-0.384259	-1.1578	-1.41704	-0.187742	-0.201413	-0.310168	-0.468163	0.394195	0.961133	-0.569477	-0.774568	
5.83343	0	0	4.76844	1.13471	0.0788727	0.476488	-0.478404	-0.282623	0.29529	0.189746	-0.741247	-0.215155	-1.25165	-1.60204	-0.548461	-0.0928425	-0.960434	-2.4777	-1.02868	-0.516555	-0.555984	-1.24144	-0.75441	-0.397126	-1.16335	-1.43033	-0.193389	-0.211375	-0.312884	-0.483425	0.391738	0.94378	-0.577086	-0.791153	
5.83954	0	0	4.76844	1.13471	0.077052	0.457967	-0.474902	-0.292521	0.296515	0.186284	-0.756992	-0.209827	-1.26118	-1.61479	-0.551371	-0.113263	-0.975183	-2.50707	-1.04201	-0.529679	-0.565418	-1.26948	-0.759566	-0.409993	-1.1689	-1.44361	-0.199037	-0.221337	-0.3156	-0.498687	0.38928	0.926426	-0.584695	-0.807737	
5.84564	0	0	4.76844	1.13471	0.0649427	0.433154	-0.478872	-0.316495	0.295871	0.157494	-0.788425	-0.192593	-1.28018	-1.64017	-0.567073	-0.147429	-0.999484	-2.54447	-1.05946	-0.538227	-0.58441	-1.2885	-0.773117	-0.417336	-1.18441	-1.44793	-0.201232	-0.228081	-0.318265	-0.502615	0.391458	0.920271	-0.588498	-0.816005	
5.84869	0	0	4.76844	1.13471	0.0528335	0.408341	-0.482841	-0.340468	0.295227	0.128704	-0.819858	-0.175359	-1.29919	-1.66555	-0.582776	-0.181596	-1.02378	-2.58187	-1.07691	-0.546776	-0.603401	-1.30751	-0.786667	-0.424679	-1.19992	-1.45226	-0.203427	-0.234825	-0.320929	-0.506544	0.393636	0.914116	-0.592301	-0.824273	
5.85022	0	0	4.76844	1.13471	0.0407243	0.383528	-0.48681	-0.364442	0.294584	0.099914	-0.85129	-0.158125	-1.31819	-1.69093	-0.598478	-0.215763	-1.04809	-2.61928	-1.09436	-0.555324	-0.622392	-1.32652	-0.800218	-0.432023	-1.21544	-1.45658	-0.205623	-0.241569	-0.323593	-0.510472	0.395813	0.907962	-0.596103	-0.832542	
5.85327	0	0	4.76844	1.13471	0.028615	0.358715	-0.49078	-0.388416	0.29394	0.071124	-0.882723	-0.140891	-1.33719	-1.71632	-0.61418	-0.249929	-1.07239	-2.65668	-1.11181	-0.563872	-0.641384	-1.34553	-0.813769	-0.439366	-1.23095	-1.4609	-0.207818	-0.248313	-0.326258	-0.514401	0.397991	0.901807	-0.599906	-0.84081	
5.85327	0	0	4.76844	1.13471	0.0243518	0.335432	-0.498242	-0.402454	0.283718	0.0592795	-0.908071	-0.127631	-1.34833	-1.74396	-0.625016	-0.283322	-1.08963	-2.69588	-1.12091	-0.588647	-0.656722	-1.37459	-0.824501	-0.454563	-1.23648	-1.48372	-0.209708	-0.26884	-0.330344	-0.537186	0.382046	0.886259	-0.607508	-0.857298	
5.85632	0	0	4.76844	1.13471	0.0200885	0.312149	-0.505703	-0.416493	0.273496	0.047435	-0.933419	-0.114372	-1.35946	-1.7716	-0.635852	-0.316715	-1.10687	-2.73509	-1.13001	-0.613422	-0.67206	-1.40364	-0.835234	-0.469759	-1.24201	-1.50654	-0.211598	-0.289366	-0.33443	-0.559972	0.366101	0.870712	-0.615111	-0.873787	
5.85174	0	0	4.76844	1.13471	0.0158252	0.288867	-0.513165	-0.430532	0.263273	0.0355905	-0.958767	-0.101112	-1.37059	-1.79923	-0.646689	-0.350108	-1.12412	-2.7743	-1.1391	-0.638197	-0.687399	-1.4327	-0.845966	-0.484956	-1.24754	-1.52935	-0.213489	-0.309893	-0.338516	-0.582757	0.350156	0.855164	-0.622713	-0.890275	
5.85937	0	0	4.76844	1.13471	0.011562	0.265584	-0.520627	-0.44457	0.253051	0.023746	-0.984115	-0.087853	-1.38172	-1.82688	-0.657525	-0.383501	-1.14136	-2.81351	-1.1482	-0.662972	-0.702737	-1.46175	-0.856699	-0.500153	-1.25307	-1.55217	-0.215379	-0.330419	-0.342602	-0.605542	0.334211	0.839616	-0.630315	-0.906763	
5.86243	0	0	4.76844	1.13471	0.00914075	0.260664	-0.51802	-0.451937	0.254267	0.020309	-0.997486	-0.0824177	-1.38913	-1.83541	-0.662999	-0.396413	-1.15638	-2.83237	-1.15316	-0.677736	-0.713948	-1.47518	-0.863685	-0.507672	-1.25859	-1.56532	-0.218827	-0.333596	-0.345265	-0.609446	0.340711	0.821246	-0.636576	-0.908025	
5.86395	0	0	4.76844	1.13471	0.0067195	0.255744	-0.515413	-0.459305	0.255483	0.016872	-1.01086	-0.0769825	-1.39654	-1.84395	-0.668473	-0.409326	-1.1714	-2.85123	-1.15812	-0.6925	-0.725159	-1.4886	-0.870672	-0.515192	-1.26412	-1.57848	-0.222275	-0.336773	-0.347928	-0.613349	0.34721	0.802877	-0.642837	-0.909288	
5.86395	0	0	4.76844	1.13471	0.00429825	0.250825	-0.512806	-0.466672	0.2567	0.013435	-1.02423	-0.0715473	-1.40395	-1.85249	-0.673946	-0.422238	-1.18642	-2.8701	-1.16309	-0.707263	-0.736371	-1.50203	-0.877658	-0.522711	-1.26965	-1.59163	-0.225723	-0.339949	-0.350592	-0.617252	0.35371	0.784508	-0.649098	-0.91055	
5.867	0	0	4.76844	1.13471	0.001877	0.245905	-0.510199	-0.474039	0.257916	0.009998	-1.0376	-0.066112	-1.41135	-1.86103	-0.67942	-0.43515	-1.20144	-2.88896	-1.16805	-0.722027	-0.747582	-1.51545	-0.884644	-0.53023	-1.27518	-1.60478	-0.229171	-0.343126	-0.353255	-0.621156	0.36021	0.766138	-0.655359	-0.911812	
5.87463	0	0	4.76844	1.13471	0.00095	0.23677	-0.513064	-0.483482	0.259309	-0.00410775	-1.05467	-0.056605	-1.42449	-1.86313	-0.700437	-0.432388	-1.21678	-2.89798	-1.17384	-0.712845	-0.75292	-1.50937	-0.883718	-0.532847	-1.27628	-1.60167	-0.224776	-0.329696	-0.353133	-0.598632	0.366096	0.785845	-0.654031	-0.896607	
5.87311	0	0	4.76844	1.13471	2.3E-05	0.227635	-0.515929	-0.492924	0.260702	-0.0182135	-1.07175	-0.047098	-1.43763	-1.86524	-0.721453	-0.429625	-1.23213	-2.90701	-1.17963	-0.703662	-0.758259	-1.50329	-0.882792	-0.535464	-1.27739	-1.59856	-0.220381	-0.316266	-0.353012	-0.576108	0.371982	0.805552	-0.652704	-0.881401	
5.86853	0	0	4.76844	1.13471	-0.000904	0.218499	-0.518793	-0.502366	0.262094	-0.0323193	-1.08882	-0.037591	-1.45077	-1.86734	-0.74247	-0.426863	-1.24747	-2.91603	-1.18543	-0.69448	-0.763597	-1.49722	-0.881866	-0.538081	-1.27849	-1.59545	-0.215986	-0.302836	-0.35289	-0.553584	0.377869	0.825259	-0.651377	-0.866196	
5.87463	0	0	4.76844	1.13471	-0.001831	0.209364	-0.521658	-0.511809	0.263487	-0.046425	-1.1059	-0.028084	-1.46391	-1.86944	-0.763487	-0.424101	-1.26282	-2.92506	-1.19122	-0.685298	-0.768936	-1.49114	-0.88094	-0.540698	-1.27959	-1.59233	-0.211591	-0.289406	-0.352768	-0.53106	0.383755	0.844966	-0.650049	-0.850991	
5.87311	0	0	4.76844	1.13471	2E-05	0.22765	-0.518793	-0.502366	0.271463	-0.038441	-1.09623	-0.0360538	-1.45857	-1.86491	-0.755404	-0.425728	-1.25333	-2.91698	-1.19039	-0.687639	-0.766609	-1.47969	-0.88094	-0.540698	-1.284	-1.58945	-0.215349	-0.278785	-0.346141	-0.526895	0.37709	0.851681	-0.646256	-0.842733	
5.87158	0	0	4.76844	1.13471	0.001871	0.245937	-0.515929	-0.492924	0.279439	-0.030457	-1.08655	-0.0440235	-1.45324	-1.86038	-0.747321	-0.427355	-1.24383	-2.9089	-1.18956	-0.689979	-0.764282	-1.46824	-0.88094	-0.540698	-1.28841	-1.58657	-0.219108	-0.268163	-0.339513	-0.52273	0.370425	0.858396	-0.642464	-0.834475	
5.87158	0	0	4.76844	1.13471	0.003722	0.264224	-0.513064	-0.483482	0.287415	-0.022473	-1.07688	-0.0519933	-1.4479	-1.85586	-0.739237	-0.428982	-1.23434	-2.90082	-1.18874	-0.69232	-0.761956	-1.4568	-0.88094	-0.540698	-1.29282	-1.58369	-0.222866	-0.257542	-0.332886	-0.518566	0.363759	0.865111	-0.638671	-0.826217	
5.86548	0	0	4.76844	1.13471	0.005573	0.28251	-0.510199	-0.474039	0.295391	-0.014489	-1.06721	-0.059963	-1.44257	-1.85133	-0.731154	-0.430609	-1.22484	-2.89274	-1.18791	-0.694661	-0.759629	-1.44535	-0.88094	-0.540698	-1.29723	-1.58081	-0.226624	-0.246921	-0.326258	-0.514401	0.357094	0.871826	-0.634878	-0.817959	
5.86853	0	0	4.76844	1.13471	0.013163	0.319982	-0.500738	-0.448063	0.295869	0.024939	-1.04047	-0.070832	-1.42241	-1.82967	-0.716239	-0.40186	-1.19737	-2.86526	-1.17633	-0.67699	-0.740175	-1.41902	-0.871621	-0.530675	-1.2884	-1.56741	-0.212822	-0.234117	-0.323495	-0.487812	0.366371	0.894146	-0.618528	-0.807119	
5.85937	0	0	4.76844	1.13471	0.020753	0.357455	-0.491277	-0.422087	0.296347	0.064367	-1.01374	-0.081701	-1.40225	-1.80801	-0.701324	-0.373111	-1.16989	-2.83779	-1.16475	-0.659319	-0.720722	-1.39268	-0.862302	-0.520652	-1.27956	-1.55401	-0.19902	-0.221313	-0.320733	-0.461222	0.375647	0.916465	-0.602178	-0.79628	
5.85327	0	0	4.76844	1.13471	0.028343	0.394927	-0.481817	-0.39611	0.296824	0.103795	-0.986999	-0.09257	-1.38209	-1.78635	-0.686409	-0.344362	-1.14241	-2.81031	-1.15318	-0.641648	-0.701268	-1.36634	-0.852982	-0.51063	-1.27073	-1.54061	-0.185218	-0.20851	-0.31797	-0.434632	0.384923	0.938784	-0.585829	-0.78544	
5.8548	0	0	4.76844	1.13471	0.035933	0.432399	-0.472356	-0.370134	0.297302	0.143223	-0.960261	-0.103439	-1.36193	-1.76469	-0.671494	-0.315613	-1.11493	-2.78284	-1.1416	-0.623977	-0.681814	-1.34001	-0.843663	-0.500607	-1.2619	-1.52721	-0.171416	-0.195706	-0.315208	-0.408043	0.3942	0.961104	-0.569479	-0.7746	
5.84869	0	0	4.76844	1.13471	0.0425855	0.460871	-0.465757	-0.353557	0.311022	0.155548	-0.938647	-0.112607	-1.36319	-1.73156	-0.669547	-0.285564	-1.10173	-2.7409	-1.13419	-0.587157	-0.672532	-1.29366	-0.839915	-0.474769	-1.25971	-1.49496	-0.163894	-0.165012	-0.29786	-0.376565	0.407025	0.997902	-0.563048	-0.735553	
5.84869	0	0	4.76844	1.13471	0.049238	0.489344	-0.459159	-0.336979	0.324742	0.167872	-0.917032	-0.121775	-1.36445	-1.69843	-0.6676	-0.255515	-1.08854	-2.69896	-1.12679	-0.550337	-0.663249	-1.24732	-0.836167	-0.44893	-1.25751	-1.46271	-0.156371	-0.134318	-0.280512	-0.345088	0.419849	1.0347	-0.556617	-0.696506	
5.83954	0	0	4.76844	1.13471	0.0558905	0.517817	-0.452561	-0.320402	0.338462	0.180196	-0.895417	-0.130943	-1.36571	-1.6653	-0.665653	-0.225466	-1.07534	-2.65702	-1.11938	-0.513516	-0.653967	-1.20097	-0.832418	-0.423092	-1.25532	-1.43047	-0.148848	-0.103624	-0.263164	-0.313611	0.432673	1.0715	-0.550187	-0.657459	
5.83496	0	0	4.76844	1.13471	0.062543	0.546289	-0.445962	-0.303825	0.352182	0.192521	-0.873803	-0.140111	-1.36697	-1.63216	-0.663706	-0.195417	-1.06214	-2.61508	-1.11197	-0.476696	-0.644684	-1.15463	-0.82867	-0.397253	-1.25313	-1.39822	-0.141326	-0.07293	-0.245816	-0.282133	0.445498	1.1083	-0.543756	-0.618412	
5.83343	0	0	4.76844	1.13471	0.0676565	0.579231	-0.43881	-0.27991	0.358753	0.214932	-0.844687	-0.144248	-1.34882	-1.61427	-0.64793	-0.168693	-1.03263	-2.58342	-1.10121	-0.456419	-0.626379	-1.12437	-0.817932	-0.381962	-1.2454	-1.38153	-0.133476	-0.0560535	-0.244438	-0.262962	0.447937	1.12581	-0.529844	-0.600333	
5.8258	0	0	4.76844	1.13471	0.07277	0.612173	-0.431659	-0.255995	0.365323	0.237344	-0.81557	-0.148386	-1.33067	-1.59638	-0.632155	-0.141968	-1.00312	-2.55177	-1.09046	-0.436142	-0.608073	-1.09411	-0.807193	-0.366671	-1.23768	-1.36484	-0.125627	-0.039177	-0.243059	-0.243791	0.450376	1.14333	-0.515931	-0.582254	
5.82428	0	0	4.76844	1.13471	0.0778835	0.645115	-0.424507	-0.232081	0.371893	0.259756	-0.786454	-0.152523	-1.31252	-1.57849	-0.61638	-0.115244	-0.973612	-2.52011	-1.0797	-0.415866	-0.589768	-1.06385	-0.796454	-0.35138	-1.22995	-1.34815	-0.117777	-0.0223005	-0.241681	-0.224621	0.452815	1.16085	-0.502019	-0.564175	
5.82123	0	0	4.76844	1.13471	0.082997	0.678057	-0.417355	-0.208166	0.378464	0.282167	-0.757338	-0.15666	-1.29437	-1.56059	-0.600604	-0.08852	-0.944102	-2.48845	-1.06894	-0.395589	-0.571462	-1.0336	-0.785716	-0.336089	-1.22223	-1.33146	-0.109927	-0.005424	-0.240303	-0.20545	0.455254	1.17837	-0.488106	-0.546096	
5.81665	0	0	4.76844	1.13471	0.0880772	0.711214	-0.411093	-0.181633	0.386049	0.312083	-0.72889	-0.152025	-1.27535	-1.53497	-0.580769	-0.0586448	-0.919678	-2.45064	-1.05232	-0.377204	-0.55733	-1.00035	-0.778237	-0.320633	-1.21562	-1.31154	-0.108081	0.0154468	-0.229622	-0.189418	0.472377	1.19114	-0.476678	-0.520817	
5.81665	0	0	4.76844	1.13471	0.0931575	0.74437	-0.404831	-0.155099	0.393634	0.341998	-0.700441	-0.147391	-1.25633	-1.50935	-0.560935	-0.0287695	-0.895255	-2.41283	-1.03569	-0.358819	-0.543198	-0.967106	-0.770758	-0.305177	-1.209	-1.29163	-0.106236	0.0363175	-0.218941	-0.173387	0.4895	1.20392	-0.465251	-0.495538	
5.81207	0	0	4.76844	1.13471	0.0982377	0.777527	-0.398569	-0.128565	0.40122	0.371914	-0.671993	-0.142757	-1.2373	-1.48373	-0.5411	0.00110575	-0.870831	-2.37501	-1.01907	-0.340434	-0.529066	-0.933861	-0.76328	-0.28972	-1.20239	-1.27171	-0.10439	0.0571883	-0.20826	-0.157356	0.506623	1.21669	-0.453823	-0.470258	
5.81207	0	0	4.76844	1.13471	0.103318	0.810683	-0.392307	-0.102032	0.408805	0.40183	-0.643545	-0.138122	-1.21828	-1.4581	-0.521265	0.030981	-0.846407	-2.3372	-1.00245	-0.322049	-0.514934	-0.900615	-0.755801	-0.274264	-1.19578	-1.2518	-0.102545	0.078059	-0.197579	-0.141324	0.523746	1.22947	-0.442395	-0.444979	
5.80902	0	0	4.76844	1.13471	0.115162	0.812926	-0.388568	-0.0948765	0.409824	0.409237	-0.624692	-0.145454	-1.20956	-1.45289	-0.510756	0.0372045	-0.835296	-2.31495	-1.00005	-0.292401	-0.508558	-0.872748	-0.750198	-0.253433	-1.19362	-1.22889	-0.095974	0.0986865	-0.194879	-0.114216	0.530829	1.25853	-0.439827	-0.413754	
5.80597	0	0	4.76844	1.13471	0.127006	0.815168	-0.38483	-0.087721	0.410844	0.416643	-0.605839	-0.152786	-1.20084	-1.44768	-0.500248	0.043428	-0.824185	-2.2927	-0.997657	-0.262752	-0.502182	-0.844882	-0.744595	-0.232602	-1.19147	-1.20597	-0.089403	0.119314	-0.192179	-0.0871085	0.537911	1.2876	-0.437259	-0.382528	
5.80292	0	0	4.76844	1.13471	0.13885	0.817411	-0.381091	-0.0805655	0.411863	0.42405	-0.586986	-0.160119	-1.19212	-1.44246	-0.489739	0.0496515	-0.813074	-2.27045	-0.995263	-0.233104	-0.495805	-0.817015	-0.738993	-0.211772	-1.18931	-1.18306	-0.082832	0.139941	-0.189479	-0.0600008	0.544994	1.31666	-0.434691	-0.351303	
5.80292	0	0	4.76844	1.13471	0.150694	0.819654	-0.377352	-0.07341	0.412882	0.431456	-0.568133	-0.167451	-1.1834	-1.43725	-0.479231	0.055875	-0.801963	-2.2482	-0.992869	-0.203456	-0.489429	-0.789148	-0.73339	-0.190941	-1.18716	-1.16015	-0.076261	0.160569	-0.186779	-0.032893	0.552076	1.34572	-0.432123	-0.320078	
5.79834	0	0	4.76844	1.13471	0.146093	0.832657	-0.377695	-0.0635742	0.411417	0.445889	-0.549262	-0.168132	-1.17593	-1.42847	-0.467976	0.0672642	-0.784428	-2.23497	-0.983676	-0.200256	-0.479893	-0.779306	-0.728706	-0.185818	-1.17828	-1.1562	-0.077538	0.164178	-0.188111	-0.0291287	0.546423	1.34942	-0.416906	-0.324522	
5.79681	0	0	4.76844	1.13471	0.141492	0.845659	-0.378038	-0.0537385	0.409953	0.460321	-0.53039	-0.168814	-1.16845	-1.41969	-0.45672	0.0786535	-0.766892	-2.22174	-0.974482	-0.197056	-0.470357	-0.769464	-0.724023	-0.180695	-1.16939	-1.15225	-0.078815	0.167787	-0.189443	-0.0253645	0.54077	1.35311	-0.401689	-0.328966	
5.79834	0	0	4.76844	1.13471	0.136892	0.858661	-0.37838	-0.0439028	0.408489	0.474754	-0.511519	-0.169495	-1.16098	-1.41091	-0.445465	0.0900428	-0.749356	-2.20851	-0.965288	-0.193857	-0.460822	-0.759622	-0.71934	-0.175572	-1.16051	-1.1483	-0.080092	0.171396	-0.190774	-0.0216003	0.535117	1.3568	-0.386471	-0.333411	
5.79986	5	0	4.76844	1.13471	0.132291	0.871664	-0.378723	-0.034067	0.407024	0.489187	-0.492648	-0.170176	-1.1535	-1.40214	-0.43421	0.101432	-0.731821	-2.19528	-0.956095	-0.190657	-0.451286	-0.74978	-0.714656	-0.170449	-1.15163	-1.14435	-0.081369	0.175005	-0.192106	-0.017836	0.529464	1.3605	-0.371254	-0.337855	
5.79529	5	0	4.62797	1.53169	0.127684	0.884686	-0.381731	-0.0166945	0.404305	0.507169	-0.479799	-0.166903	-1.13726	-1.38809	-0.421481	0.123211	-0.723242	-2.18355	-0.945251	-0.177443	-0.445979	-0.737137	-0.705277	-0.160181	-1.15058	-1.12794	-0.0731547	0.177968	-0.188099	-0.00596675	0.539765	1.36826	-0.37251	-0.314993	
5.79376	5	0	4.48751	1.92867	0.123076	0.897707	-0.384739	0.000678	0.401587	0.525151	-0.46695	-0.163629	-1.12102	-1.37404	-0.408751	0.14499	-0.714663	-2.17182	-0.934408	-0.164229	-0.440672	-0.724494	-0.695898	-0.149913	-1.14952	-1.11153	-0.0649405	0.180931	-0.184091	0.0059025	0.550066	1.37602	-0.373767	-0.292131	
5.79376	5	0	4.34704	2.32565	0.118469	0.910728	-0.387747	0.0180505	0.398869	0.543133	-0.454101	-0.160355	-1.10477	-1.35999	-0.396022	0.166769	-0.706084	-2.16009	-0.923564	-0.151015	-0.435365	-0.711851	-0.68652	-0.139646	-1.14847	-1.09512	-0.0567262	0.183895	-0.180084	0.0177718	0.560366	1.38378	-0.375024	-0.269269	
5.79224	5	0	4.20657	2.72263	0.113861	0.92375	-0.390755	0.035423	0.39615	0.561115	-0.441252	-0.157082	-1.08853	-1.34594	-0.383293	0.188548	-0.697505	-2.14837	-0.91272	-0.137801	-0.430058	-0.699208	-0.677141	-0.129378	-1.14741	-1.07871	-0.048512	0.186858	-0.176076	0.029641	0.570667	1.39153	-0.37628	-0.246407	
5.79071	5	0	4.34704	2.32565	0.116933	0.915067	-0.392177	0.0305705	0.389161	0.560276	-0.435141	-0.167745	-1.08474	-1.35664	-0.378958	0.176296	-0.698226	-2.15533	-0.910139	-0.152412	-0.429356	-0.710411	-0.675253	-0.134714	-1.14629	-1.08189	-0.0643992	0.20558	-0.188098	0.0520145	0.548129	1.41836	-0.368654	-0.229278	
5.78918	5	0	4.48751	1.92867	0.120006	0.906384	-0.393599	0.025718	0.382171	0.559437	-0.42903	-0.178409	-1.08095	-1.36735	-0.374622	0.164044	-0.698947	-2.16229	-0.907558	-0.167023	-0.428653	-0.721615	-0.673364	-0.140051	-1.14516	-1.08507	-0.0802865	0.224301	-0.20012	0.074388	0.525591	1.44518	-0.361027	-0.212149	
5.78613	5	0	4.62797	1.53169	0.123078	0.897701	-0.395022	0.0208655	0.375182	0.558597	-0.42292	-0.189073	-1.07717	-1.37806	-0.370287	0.151792	-0.699667	-2.16926	-0.904978	-0.181635	-0.427951	-0.732819	-0.671476	-0.145388	-1.14404	-1.08825	-0.0961738	0.243023	-0.212141	0.0967615	0.503053	1.47201	-0.353401	-0.195021	
5.78613	5	0	4.76844	1.13471	0.12615	0.889018	-0.396444	0.016013	0.368192	0.557758	-0.416809	-0.199736	-1.07338	-1.38876	-0.365952	0.13954	-0.700388	-2.17622	-0.902397	-0.196246	-0.427248	-0.744022	-0.669588	-0.150724	-1.14291	-1.09143	-0.112061	0.261745	-0.224163	0.119135	0.480515	1.49883	-0.345774	-0.177892	
5.78461	5	0	4.76844	1.13471	0.120667	0.892601	-0.398752	0.0136697	0.37293	0.554662	-0.409191	-0.208047	-1.07464	-1.3852	-0.361027	0.140088	-0.70411	-2.18369	-0.89818	-0.200846	-0.429557	-0.755921	-0.665351	-0.153492	-1.14179	-1.09461	-0.110781	0.258127	-0.224163	0.119135	0.477095	1.49623	-0.341959	-0.169302	
5.78461	5	0	4.76844	1.13471	0.115185	0.896183	-0.401061	0.0113265	0.377667	0.551567	-0.401573	-0.216357	-1.0759	-1.38163	-0.356102	0.140636	-0.707831	-2.19116	-0.893964	-0.205445	-0.431865	-0.767819	-0.661115	-0.15626	-1.14066	-1.09779	-0.109501	0.254509	-0.224163	0.119135	0.473674	1.49362	-0.338144	-0.160712	
5.78308	5	0	4.76844	1.13471	0.109702	0.899765	-0.403369	0.00898325	0.382404	0.548472	-0.393955	-0.224668	-1.07716	-1.37806	-0.351178	0.141185	-0.711553	-2.19862	-0.889747	-0.210044	-0.434173	-0.779718	-0.656879	-0.159029	-1.13954	-1.10097	-0.10822	0.250892	-0.224163	0.119135	0.470253	1.49101	-0.334329	-0.152122	
5.78155	5	0	4.76844	1.13471	0.104219	0.903348	-0.405677	0.00664	0.387142	0.545376	-0.386337	-0.232979	-1.07843	-1.37449	-0.346253	0.141733	-0.715275	-2.20609	-0.88553	-0.214644	-0.436482	-0.791617	-0.652642	-0.161797	-1.13841	-1.10415	-0.10694	0.247274	-0.224163	0.119135	0.466833	1.48841	-0.330514	-0.143532	
5.78003	5	0	4.76844	1.13471	0.100932	0.888836	-0.411366	-0.012708	0.373414	0.532764	-0.403015	-0.23207	-1.09179	-1.37673	-0.36188	0.142533	-0.734679	-2.22303	-0.888049	-0.214842	-0.437564	-0.806964	-0.655935	-0.161696	-1.13507	-1.10389	-0.10694	0.247274	-0.225501	0.122917	0.472482	1.48472	-0.326698	-0.134925	
5.78003	5	0	4.76844	1.13471	0.0976445	0.874323	-0.417056	-0.032056	0.359686	0.520153	-0.419693	-0.231161	-1.10515	-1.37896	-0.377507	0.143332	-0.754084	-2.23996	-0.890569	-0.21504	-0.438646	-0.822312	-0.659228	-0.161595	-1.13173	-1.10363	-0.10694	0.247274	-0.226839	0.126698	0.478131	1.48103	-0.322882	-0.126317	
5.78003	5	0	4.76844	1.13471	0.0943573	0.859811	-0.422745	-0.051404	0.345958	0.507541	-0.436371	-0.230253	-1.11851	-1.3812	-0.393135	0.144131	-0.773488	-2.2569	-0.893088	-0.215238	-0.439728	-0.837659	-0.66252	-0.161494	-1.12839	-1.10336	-0.10694	0.247274	-0.228177	0.13048	0.48378	1.47733	-0.319067	-0.117709	
5.7785	5	0	4.76844	1.13471	0.09107	0.845298	-0.428434	-0.070752	0.33223	0.494929	-0.453049	-0.229344	-1.13187	-1.38343	-0.408762	0.144931	-0.792892	-2.27384	-0.895607	-0.215436	-0.44081	-0.853006	-0.665813	-0.161393	-1.12505	-1.1031	-0.10694	0.247274	-0.229515	0.134262	0.489429	1.47364	-0.315251	-0.109102	
5.78308	5	0	4.76844	1.13471	0.0831907	0.843793	-0.435009	-0.0875315	0.325494	0.483188	-0.471944	-0.228633	-1.14224	-1.40398	-0.421481	0.123211	-0.808844	-2.30025	-0.903083	-0.23815	-0.45689	-0.871834	-0.669088	-0.179723	-1.13724	-1.11711	-0.117311	0.237386	-0.229502	0.122631	0.476864	1.46011	-0.324176	-0.10327	
5.78766	5	0	4.76844	1.13471	0.0753115	0.842289	-0.441583	-0.104311	0.318758	0.471448	-0.490839	-0.227922	-1.15261	-1.42454	-0.434199	0.10149	-0.824796	-2.32667	-0.910559	-0.260865	-0.472971	-0.890661	-0.672364	-0.198053	-1.14944	-1.13111	-0.127683	0.227498	-0.229489	0.111001	0.464299	1.44657	-0.333101	-0.0974385	
5.79986	5	0	4.76844	1.13471	0.0674322	0.840785	-0.448157	-0.12109	0.312022	0.459707	-0.509734	-0.227211	-1.16298	-1.44509	-0.446917	0.0797702	-0.840748	-2.35309	-0.918034	-0.283579	-0.489052	-0.909489	-0.675639	-0.216384	-1.16163	-1.14511	-0.138054	0.21761	-0.229476	0.0993705	0.451734	1.43304	-0.342026	-0.0916068	
5.81207	5	0	4.76844	1.13471	0.059553	0.83928	-0.454732	-0.13787	0.305286	0.447966	-0.528629	-0.2265	-1.17335	-1.46565	-0.459636	0.05805	-0.8567	-2.3795	-0.92551	-0.306294	-0.505132	-0.928317	-0.678914	-0.234714	-1.17383	-1.15911	-0.148425	0.207722	-0.229463	0.08774	0.439169	1.4195	-0.350951	-0.085775	
5.8258	5	0	4.90293	0.754632	0.0698432	0.845869	-0.4567	-0.149962	0.308768	0.448379	-0.540663	-0.231911	-1.17957	-1.47793	-0.463408	0.0399445	-0.870769	-2.40208	-0.930496	-0.321374	-0.510986	-0.9484	-0.688297	-0.244916	-1.17601	-1.17229	-0.150602	0.200828	-0.23346	0.0874493	0.441389	1.41323	-0.344584	-0.0843785	
5.84106	5	0	5.03742	0.374549	0.0801335	0.852457	-0.458669	-0.162054	0.31225	0.448791	-0.552696	-0.237322	-1.18579	-1.49022	-0.467179	0.021839	-0.884839	-2.42466	-0.935482	-0.336454	-0.516841	-0.968484	-0.69768	-0.255117	-1.17819	-1.18547	-0.15278	0.193933	-0.237457	0.0871585	0.443608	1.40695	-0.338216	-0.082982	
5.85785	5	0	5.1719	-0.00553275	0.0904237	0.859046	-0.460637	-0.174146	0.315732	0.449203	-0.564729	-0.242732	-1.19201	-1.5025	-0.470951	0.0037335	-0.898908	-2.44723	-0.940467	-0.351535	-0.522695	-0.988567	-0.707062	-0.265319	-1.18037	-1.19866	-0.154957	0.187039	-0.241454	0.0868677	0.445828	1.40068	-0.331848	-0.0815855	
5.867	5	0	5.30639	-0.385615	0.100714	0.865634	-0.462605	-0.186238	0.319214	0.449616	-0.576763	-0.248143	-1.19823	-1.51478	-0.474723	-0.014372	-0.912977	-2.46981	-0.945453	-0.366615	-0.528549	-1.00865	-0.716445	-0.27552	-1.18256	-1.21184	-0.157134	0.180145	-0.245451	0.086577	0.448048	1.3944	-0.325481	-0.080189	
5.87768	5	0	5.30639	-0.385615	0.096111	0.878643	-0.47411	-0.197787	0.313488	0.445298	-0.600855	-0.239028	-1.21482	-1.51753	-0.489392	-0.0159815	-0.93333	-2.48328	-0.948806	-0.364424	-0.536293	-1.01419	-0.721131	-0.28061	-1.19146	-1.20602	-0.15278	0.193944	-0.240146	0.106364	0.450439	1.41216	-0.31404	-0.0542277	
5.88531	5	0	5.30639	-0.385615	0.091508	0.891652	-0.485615	-0.209336	0.307762	0.440979	-0.624947	-0.229913	-1.23142	-1.52028	-0.504061	-0.017591	-0.953682	-2.49675	-0.95216	-0.362233	-0.544036	-1.01973	-0.725816	-0.2857	-1.20035	-1.20021	-0.148425	0.207743	-0.23484	0.126151	0.452829	1.42991	-0.302598	-0.0282665	
5.89142	5	0	5.30639	-0.385615	0.086905	0.904661	-0.49712	-0.220884	0.302036	0.436661	-0.64904	-0.220797	-1.24802	-1.52303	-0.518729	-0.0192005	-0.974035	-2.51021	-0.955513	-0.360041	-0.551779	-1.02527	-0.730502	-0.29079	-1.20925	-1.1944	-0.144071	0.221543	-0.229535	0.145939	0.45522	1.44766	-0.291157	-0.00230525	
5.90057	5	0	5.30639	-0.385615	0.082302	0.91767	-0.508625	-0.232433	0.29631	0.432342	-0.673132	-0.211682	-1.26462	-1.52578	-0.533398	-0.02081	-0.994388	-2.52368	-0.958866	-0.35785	-0.559523	-1.03081	-0.735188	-0.29588	-1.21815	-1.18858	-0.139717	0.235342	-0.224229	0.165726	0.457611	1.46541	-0.279716	0.023656	
5.90515	5	0	5.30639	-0.385615	0.0871163	0.927882	-0.510923	-0.234738	0.303273	0.433164	-0.686609	-0.212805	-1.27081	-1.53801	-0.537162	-0.0388257	-0.99952	-2.54457	-0.967195	-0.370697	-0.566589	-1.04734	-0.743613	-0.308681	-1.22365	-1.20199	-0.14996	0.26429	-0.23097	0.196387	0.447581	1.49375	-0.286219	0.061506	
5.90973	5	0	5.30639	-0.385615	0.0919305	0.938093	-0.513221	-0.237044	0.310236	0.433986	-0.700087	-0.213927	-1.277	-1.55024	-0.540927	-0.0568415	-1.00465	-2.56546	-0.975523	-0.383545	-0.573655	-1.06387	-0.752037	-0.321483	-1.22915	-1.2154	-0.160203	0.293238	-0.237711	0.227047	0.437551	1.5221	-0.292721	0.099356	
5.91888	5	0	5.30639	-0.385615	0.0967447	0.948305	-0.515519	-0.239349	0.317199	0.434809	-0.713564	-0.21505	-1.28319	-1.56246	-0.544692	-0.0748573	-1.00978	-2.58635	-0.983852	-0.396392	-0.580722	-1.08041	-0.760462	-0.334284	-1.23465	-1.22881	-0.170446	0.322187	-0.244453	0.257707	0.427521	1.55045	-0.299223	0.137206	
5.92804	5	0	5.30639	-0.385615	0.101559	0.958517	-0.517817	-0.241654	0.324162	0.435631	-0.727042	-0.216172	-1.28938	-1.57469	-0.548456	-0.092873	-1.01492	-2.60724	-0.992181	-0.409239	-0.587788	-1.09694	-0.768887	-0.347085	-1.24016	-1.24222	-0.180689	0.351135	-0.251194	0.288368	0.417491	1.57879	-0.305726	0.175056	
5.94025	5	0	5.30639	-0.385615	0.114281	0.970289	-0.51092	-0.234734	0.327185	0.457883	-0.734529	-0.214586	-1.28814	-1.57822	-0.544306	-0.0974432	-1.01564	-2.61402	-0.99134	-0.411614	-0.589554	-1.10106	-0.773562	-0.35215	-1.23792	-1.24853	-0.169054	0.357479	-0.243227	0.300722	0.4232	1.5872	-0.286544	0.179384	
5.96161	5	0	5.30639	-0.385615	0.127004	0.982061	-0.504023	-0.227814	0.330207	0.480136	-0.742017	-0.213	-1.28689	-1.58174	-0.540155	-0.102014	-1.01637	-2.62081	-0.990499	-0.41399	-0.59132	-1.10519	-0.778237	-0.357216	-1.23569	-1.25483	-0.157419	0.363823	-0.235261	0.313076	0.428908	1.59561	-0.267362	0.183712	
5.97992	5	0	5.30639	-0.385615	0.139727	0.993833	-0.497125	-0.220893	0.33323	0.502389	-0.749505	-0.211413	-1.28564	-1.58527	-0.536004	-0.106584	-1.0171	-2.62759	-0.989659	-0.416365	-0.593087	-1.10931	-0.782912	-0.362281	-1.23346	-1.26114	-0.145785	0.370167	-0.227294	0.32543	0.434617	1.60401	-0.248179	0.18804	
5.99213	5	0	5.30639	-0.385615	0.152449	1.00561	-0.490228	-0.213973	0.336253	0.524641	-0.756992	-0.209827	-1.2844	-1.58879	-0.531854	-0.111154	-1.01783	-2.63437	-0.988818	-0.418741	-0.594853	-1.11343	-0.787587	-0.367347	-1.23123	-1.26745	-0.13415	0.376511	-0.219328	0.337784	0.440325	1.61242	-0.228997	0.192368	
6.01044	5	0	4.40319	0.204554	0.151085	1.03337	-0.495496	-0.199084	0.338259	0.539529	-0.761472	-0.210205	-1.28689	-1.58174	-0.526367	-0.097996	-1.02005	-2.62808	-0.985525	-0.398946	-0.594302	-1.10588	-0.789455	-0.362067	-1.23569	-1.25483	-0.109456	0.424896	-0.200703	0.366762	0.455277	1.65631	-0.251869	0.140111	
6.02417	5	0	3.49999	0.794722	0.149722	1.06113	-0.500764	-0.184196	0.340265	0.554418	-0.765952	-0.210582	-1.28939	-1.57469	-0.52088	-0.084838	-1.02228	-2.62178	-0.982231	-0.37915	-0.593751	-1.09832	-0.791324	-0.356787	-1.24016	-1.24221	-0.0847615	0.47328	-0.182078	0.39574	0.470229	1.7002	-0.274741	0.087854	
6.0379	5	0	2.5968	1.38489	0.148359	1.08889	-0.506032	-0.169307	0.342271	0.569307	-0.770432	-0.210959	-1.29188	-1.56764	-0.515392	-0.07168	-1.0245	-2.61549	-0.978938	-0.359355	-0.5932	-1.09076	-0.793192	-0.351508	-1.24463	-1.22958	-0.0600673	0.521665	-0.163453	0.424717	0.48518	1.74408	-0.297614	0.035597	
6.05163	5	0	1.6936	1.97506	0.146995	1.11666	-0.5113	-0.154419	0.344277	0.584195	-0.774912	-0.211337	-1.29437	-1.56059	-0.509905	-0.058522	-1.02673	-2.6092	-0.975645	-0.33956	-0.592649	-1.0832	-0.79506	-0.346228	-1.24909	-1.21696	-0.035373	0.57005	-0.144828	0.453695	0.500132	1.78797	-0.320486	-0.01666	
6.05926	5	0	2.46231	1.76497	0.169231	1.12573	-0.509002	-0.152101	0.35126	0.58504	-0.770392	-0.217594	-1.28981	-1.56357	-0.506603	-0.0606792	-1.01825	-2.59779	-0.97145	-0.344132	-0.592649	-1.0832	-0.797395	-0.348761	-1.25241	-1.21722	-0.0127858	0.611893	-0.13968	0.497661	0.515073	1.83229	-0.380108	-0.0221403	
6.06537	5	0	3.23102	1.55489	0.191468	1.1348	-0.506704	-0.149783	0.358243	0.585886	-0.765872	-0.223851	-1.28526	-1.56655	-0.503302	-0.0628365	-1.00977	-2.58637	-0.967256	-0.348705	-0.592649	-1.0832	-0.79973	-0.351294	-1.25574	-1.21748	0.0098015	0.653736	-0.134531	0.541627	0.530015	1.87661	-0.439731	-0.0276205	
6.06537	5	0	3.99973	1.3448	0.213705	1.14387	-0.504406	-0.147465	0.365227	0.586731	-0.761351	-0.230108	-1.2807	-1.56953	-0.500001	-0.0649938	-1.0013	-2.57495	-0.963061	-0.353278	-0.592649	-1.0832	-0.802065	-0.353828	-1.25906	-1.21773	0.0323887	0.69558	-0.129383	0.585593	0.544957	1.92093	-0.499353	-0.0331007	
6.06384	5	0	4.76844	1.13471	0.235941	1.15294	-0.502108	-0.145147	0.37221	0.587576	-0.756831	-0.236365	-1.27614	-1.57251	-0.496699	-0.067151	-0.992818	-2.56354	-0.958866	-0.35785	-0.592649	-1.0832	-0.8044	-0.356361	-1.26238	-1.21799	0.054976	0.737423	-0.124235	0.629559	0.559898	1.96524	-0.558975	-0.038581	
6.06384	5	0	4.76844	1.13471	0.248738	1.16487	-0.49927	-0.13553	0.374213	0.602517	-0.750068	-0.242435	-1.26701	-1.57847	-0.48936	-0.0663565	-0.985054	-2.5589	-0.957199	-0.355276	-0.5921	-1.07563	-0.803466	-0.359	-1.25906	-1.21773	0.0710952	0.758221	-0.104124	0.643185	0.573643	1.97604	-0.564076	-0.0241652	
6.05774	5	0	4.76844	1.13471	0.261535	1.1768	-0.496432	-0.125912	0.376217	0.617459	-0.743305	-0.248505	-1.25789	-1.58443	-0.48202	-0.065562	-0.977291	-2.55427	-0.955532	-0.352702	-0.591552	-1.06807	-0.802533	-0.361638	-1.25574	-1.21748	0.0872145	0.779019	-0.084013	0.656812	0.587387	1.98683	-0.569177	-0.0097495	
6.05469	5	0	4.76844	1.13471	0.274332	1.18873	-0.493594	-0.116295	0.378221	0.6324	-0.736542	-0.254575	-1.24877	-1.5904	-0.474681	-0.0647675	-0.969527	-2.54963	-0.953865	-0.350127	-0.591003	-1.0605	-0.8016	-0.364277	-1.25241	-1.21722	0.103334	0.799818	-0.063902	0.670439	0.601131	1.99762	-0.574278	0.00466625	
6.04553	0	5	4.76844	1.13471	0.287129	1.20066	-0.490756	-0.106678	0.380224	0.647341	-0.729779	-0.260645	-1.23964	-1.59636	-0.467341	-0.063973	-0.961763	-2.545	-0.952198	-0.347553	-0.590454	-1.05293	-0.800666	-0.366916	-1.24909	-1.21696	0.119453	0.820616	-0.043791	0.684065	0.614876	2.00841	-0.579379	0.019082	
6.04553	0	5	4.76844	1.13471	0.287287	1.22431	-0.491983	-0.0943855	0.378723	0.661893	-0.727536	-0.26046	-1.23882	-1.58876	-0.460118	-0.0556307	-0.963999	-2.53868	-0.950552	-0.337626	-0.588144	-1.04121	-0.800199	-0.359103	-1.24692	-1.2038	0.136935	0.8378	-0.0209227	0.70198	0.638989	2.01496	-0.546565	0.0421513	
6.03943	0	5	4.76844	1.13471	0.287446	1.24796	-0.49321	-0.082093	0.377222	0.676446	-0.725292	-0.260275	-1.238	-1.58116	-0.452896	-0.0472885	-0.966236	-2.53236	-0.948905	-0.327699	-0.585833	-1.02949	-0.799732	-0.35129	-1.24475	-1.19064	0.154417	0.854985	0.0019455	0.719895	0.663102	2.02152	-0.51375	0.0652205	
6.0318	0	5	4.76844	1.13471	0.287604	1.2716	-0.494437	-0.0698005	0.375721	0.690998	-0.723049	-0.260089	-1.23718	-1.57356	-0.445674	-0.0389463	-0.968472	-2.52604	-0.947259	-0.317771	-0.583522	-1.01777	-0.799265	-0.343477	-1.24258	-1.17747	0.1719	0.872169	0.0248137	0.73781	0.687214	2.02808	-0.480936	0.0882898	
6.0318	0	5	4.76844	1.13471	0.287762	1.29525	-0.495664	-0.057508	0.37422	0.70555	-0.720806	-0.259904	-1.23636	-1.56596	-0.438451	-0.030604	-0.970708	-2.51972	-0.945613	-0.307844	-0.581212	-1.00604	-0.798798	-0.335664	-1.24041	-1.16431	0.189382	0.889353	0.047682	0.755725	0.711327	2.03463	-0.448122	0.111359	
6.02112	0	5	4.76844	1.13471	0.296592	1.3065	-0.494248	-0.0526805	0.379965	0.709952	-0.716282	-0.266162	-1.23843	-1.57003	-0.43575	-0.0454305	-0.971433	-2.52653	-0.955704	-0.293905	-0.584332	-0.988094	-0.803474	-0.322447	-1.24713	-1.1453	0.202942	0.917862	0.0623275	0.797247	0.721745	2.06767	-0.42429	0.18003	
6.02264	0	5	4.76844	1.13471	0.305423	1.31774	-0.492831	-0.047853	0.38571	0.714354	-0.711758	-0.27242	-1.24049	-1.57411	-0.433049	-0.060257	-0.972158	-2.53335	-0.965795	-0.279967	-0.587452	-0.970144	-0.808151	-0.309231	-1.25386	-1.12629	0.216502	0.946371	0.076973	0.838769	0.732163	2.10071	-0.400458	0.248702	
6.01959	0	5	4.76844	1.13471	0.314253	1.32899	-0.491415	-0.0430255	0.391455	0.718755	-0.707235	-0.278677	-1.24256	-1.57818	-0.430347	-0.0750835	-0.972884	-2.54016	-0.975885	-0.266028	-0.590572	-0.952194	-0.812828	-0.296014	-1.26058	-1.10729	0.230061	0.974879	0.0916185	0.880291	0.742582	2.13374	-0.376625	0.317373	
6.01349	0	5	4.76844	1.13471	0.323083	1.34023	-0.489999	-0.038198	0.3972	0.723157	-0.702711	-0.284935	-1.24463	-1.58225	-0.427646	-0.08991	-0.973609	-2.54697	-0.985976	-0.252089	-0.593692	-0.934244	-0.817504	-0.282797	-1.26731	-1.08828	0.243621	1.00339	0.106264	0.921813	0.753	2.16678	-0.352793	0.386044	
6.00891	0	5	4.76844	1.13471	0.333627	1.37093	-0.483452	-0.0213418	0.403684	0.746176	-0.68247	-0.283291	-1.23178	-1.56892	-0.419673	-0.076453	-0.961025	-2.53818	-0.983496	-0.244517	-0.589102	-0.910642	-0.810503	-0.275159	-1.26628	-1.07186	0.256346	1.02106	0.121106	0.939318	0.766866	2.17773	-0.318466	0.426057	
6.00433	0	5	4.76844	1.13471	0.344171	1.40162	-0.476905	-0.0044855	0.410168	0.769196	-0.662228	-0.281647	-1.21892	-1.5556	-0.411699	-0.062996	-0.948441	-2.52939	-0.981017	-0.236945	-0.584512	-0.88704	-0.803503	-0.26752	-1.26525	-1.05544	0.26907	1.03874	0.135947	0.956824	0.780732	2.18868	-0.284139	0.466069	
5.99975	0	5	4.76844	1.13471	0.354715	1.43232	-0.470358	0.0123707	0.416653	0.792215	-0.641987	-0.280003	-1.20607	-1.54227	-0.403726	-0.049539	-0.935857	-2.52059	-0.978537	-0.229373	-0.579921	-0.863438	-0.796502	-0.259881	-1.26423	-1.03903	0.281795	1.05642	0.150788	0.97433	0.794597	2.19963	-0.249812	0.506081	
5.9967	0	5	4.76844	1.13471	0.365259	1.46301	-0.463811	0.029227	0.423137	0.815234	-0.621746	-0.278359	-1.19322	-1.52894	-0.395752	-0.036082	-0.923273	-2.5118	-0.976058	-0.221801	-0.575331	-0.839836	-0.789501	-0.252243	-1.2632	-1.02261	0.294519	1.07409	0.16563	0.991835	0.808463	2.21058	-0.215485	0.546094	
5.99518	0	5	4.76844	1.13471	0.380649	1.50454	-0.456214	0.0609215	0.442411	0.843728	-0.597	-0.256381	-1.17959	-1.47774	-0.38251	0.005922	-0.90663	-2.47873	-0.961925	-0.195992	-0.559493	-0.802042	-0.78252	-0.226177	-1.25338	-0.992262	0.312985	1.10265	0.181702	1.02996	0.824693	2.24017	-0.170671	0.597114	
5.99213	0	5	4.76844	1.13471	0.396038	1.54607	-0.448616	0.092616	0.461684	0.872222	-0.572254	-0.234402	-1.16596	-1.42653	-0.369268	0.047926	-0.889987	-2.44565	-0.947793	-0.170183	-0.543654	-0.764247	-0.775538	-0.20011	-1.24357	-0.961913	0.33145	1.13121	0.197775	1.06809	0.840923	2.26976	-0.125858	0.648135	
5.98907	0	5	4.76844	1.13471	0.411428	1.58759	-0.441019	0.124311	0.480958	0.900716	-0.547509	-0.212424	-1.15234	-1.37533	-0.356027	0.08993	-0.873343	-2.41258	-0.93366	-0.144373	-0.527815	-0.726453	-0.768556	-0.174044	-1.23376	-0.931565	0.349916	1.15977	0.213848	1.10622	0.857153	2.29935	-0.0810437	0.699155	
5.99365	0	5	4.76844	1.13471	0.426817	1.62912	-0.433422	0.156005	0.500232	0.92921	-0.522763	-0.190445	-1.13871	-1.32413	-0.342785	0.131934	-0.8567	-2.3795	-0.919527	-0.118564	-0.511977	-0.688659	-0.761575	-0.147978	-1.22394	-0.901216	0.368382	1.18833	0.22992	1.14434	0.873383	2.32894	-0.03623	0.750176	
5.99518	0	5	4.76844	1.13471	0.43818	1.67019	-0.42368	0.172894	0.505448	0.95609	-0.49941	-0.170687	-1.12211	-1.29093	-0.335807	0.155679	-0.836626	-2.35578	-0.914695	-0.0809197	-0.49737	-0.647016	-0.753212	-0.116508	-1.21641	-0.864235	0.385551	1.22091	0.248709	1.18719	0.89197	2.36483	-0.00296725	0.815535	
5.99518	0	5	4.76844	1.13471	0.449543	1.71127	-0.413938	0.189782	0.510665	0.98297	-0.476057	-0.15093	-1.10551	-1.25773	-0.328828	0.179424	-0.816551	-2.33206	-0.909863	-0.0432755	-0.482763	-0.605374	-0.744849	-0.0850375	-1.20888	-0.827254	0.402719	1.25349	0.267498	1.23003	0.910556	2.40073	0.0302955	0.880894	
5.99975	0	5	4.76844	1.13471	0.460905	1.75234	-0.404196	0.206671	0.515881	1.00985	-0.452704	-0.131172	-1.08892	-1.22453	-0.32185	0.203168	-0.796477	-2.30834	-0.905031	-0.00563125	-0.468156	-0.563731	-0.736486	-0.0535673	-1.20135	-0.790272	0.419887	1.28607	0.286288	1.27288	0.929143	2.43662	0.0635582	0.946253	
5.99823	0	5	4.76844	1.13471	0.472268	1.79341	-0.394454	0.223559	0.521097	1.03673	-0.429351	-0.111415	-1.07232	-1.19132	-0.314872	0.226913	-0.776403	-2.28461	-0.900199	0.032013	-0.453549	-0.522088	-0.728123	-0.022097	-1.19382	-0.753291	0.437056	1.31864	0.305077	1.31572	0.94773	2.47252	0.096821	1.01161	
5.99975	0	5	4.76844	1.13471	0.487642	1.83571	-0.38739	0.248122	0.528548	1.06783	-0.403651	-0.084605	-1.05489	-1.15004	-0.298003	0.251912	-0.753676	-2.25003	-0.883474	0.0509115	-0.434678	-0.482847	-0.716922	0.0015155	-1.18289	-0.725732	0.444976	1.33694	0.310354	1.33692	0.952379	2.48472	0.115975	1.05778	
5.99518	0	5	4.76844	1.13471	0.503016	1.87801	-0.380326	0.272686	0.535999	1.09893	-0.37795	-0.057795	-1.03746	-1.10875	-0.281135	0.276911	-0.730949	-2.21545	-0.86675	0.06981	-0.415807	-0.443606	-0.70572	0.025128	-1.17196	-0.698174	0.452897	1.35524	0.315631	1.35811	0.957027	2.49692	0.13513	1.10394	
5.99518	0	5	4.76844	1.13471	0.51839	1.92031	-0.373262	0.297249	0.543451	1.13003	-0.35225	-0.030985	-1.02004	-1.06746	-0.264267	0.30191	-0.708221	-2.18087	-0.850025	0.0887085	-0.396937	-0.404365	-0.694519	0.0487405	-1.16103	-0.670615	0.460817	1.37354	0.320909	1.3793	0.961676	2.50913	0.154284	1.15011	
5.99213	0	5	4.76844	1.13471	0.533764	1.96261	-0.366198	0.321812	0.550902	1.16113	-0.32655	-0.004175	-1.00261	-1.02617	-0.247398	0.326909	-0.685494	-2.14629	-0.8333	0.107607	-0.378066	-0.365124	-0.683318	0.072353	-1.1501	-0.643056	0.468738	1.39183	0.326186	1.4005	0.966325	2.52133	0.173438	1.19628	
5.9906	0	5	4.76844	1.13471	0.549135	2.00531	-0.356831	0.348911	0.561872	1.19291	-0.299215	0.0252325	-0.979711	-0.979632	-0.231522	0.362307	-0.660822	-2.10763	-0.814041	0.134369	-0.363453	-0.32271	-0.669758	0.0987175	-1.13811	-0.608516	0.476662	1.41021	0.33416	1.42621	0.975646	2.53306	0.195345	1.23521	
5.99213	0	5	4.76844	1.13471	0.564507	2.04801	-0.347463	0.37601	0.572843	1.22468	-0.271879	0.05464	-0.956811	-0.933094	-0.215645	0.397705	-0.636149	-2.06896	-0.794782	0.16113	-0.348841	-0.280296	-0.656197	0.125082	-1.12612	-0.573976	0.484587	1.42858	0.342135	1.45193	0.984968	2.54479	0.217251	1.27414	
5.98755	0	5	4.76844	1.13471	0.579878	2.09071	-0.338095	0.403109	0.583813	1.25646	-0.244544	0.0840475	-0.93391	-0.886556	-0.199769	0.433103	-0.611476	-2.0303	-0.775523	0.187891	-0.334229	-0.237882	-0.642636	0.151446	-1.11413	-0.539436	0.492511	1.44696	0.350109	1.47765	0.99429	2.55653	0.239158	1.31307	
5.9845	0	5	4.76844	1.13471	0.59525	2.13341	-0.328728	0.430208	0.594784	1.28824	-0.217209	0.113455	-0.911009	-0.840018	-0.183893	0.468501	-0.586804	-1.99163	-0.756264	0.214653	-0.319616	-0.195468	-0.629076	0.177811	-1.10214	-0.504896	0.500436	1.46534	0.358083	1.50336	1.00361	2.56826	0.261064	1.35201	
5.9845	0	5	3.86524	1.72488	0.600905	2.15447	-0.329122	0.440267	0.590608	1.31053	-0.205103	0.139509	-0.903695	-0.79972	-0.189513	0.499015	-0.571849	-1.96128	-0.742975	0.251214	-0.305012	-0.152652	-0.615495	0.204344	-1.097	-0.460587	0.505639	1.49149	0.363183	1.53733	1.0012	2.60049	0.280275	1.3991	
5.98755	0	5	2.96204	2.31505	0.60656	2.17553	-0.329517	0.450326	0.586433	1.33281	-0.192997	0.165563	-0.896382	-0.759421	-0.195133	0.529529	-0.556894	-1.93093	-0.729687	0.287775	-0.290408	-0.109837	-0.601914	0.230877	-1.09185	-0.416278	0.510842	1.51765	0.368283	1.57129	0.998792	2.63273	0.299486	1.4462	
5.98144	0	5	2.05885	2.90522	0.612215	2.19659	-0.329912	0.460386	0.582257	1.3551	-0.180892	0.191616	-0.889068	-0.719123	-0.200753	0.560044	-0.541939	-1.90058	-0.716398	0.324336	-0.275804	-0.0670207	-0.588334	0.25741	-1.08671	-0.37197	0.516045	1.5438	0.373384	1.60526	0.996382	2.66497	0.318698	1.4933	
5.98144	0	5	1.15565	3.49539	0.61787	2.21765	-0.330306	0.470445	0.578082	1.37738	-0.168786	0.21767	-0.881755	-0.678825	-0.206373	0.590558	-0.526984	-1.87023	-0.703109	0.360897	-0.2612	-0.024205	-0.574753	0.283943	-1.08156	-0.327661	0.521248	1.56996	0.378484	1.63922	0.993973	2.6972	0.337909	1.5404	
5.97992	0	5	2.05885	2.90522	0.612126	2.24625	-0.329298	0.485498	0.583548	1.39342	-0.150422	0.232963	-0.864551	-0.656063	-0.194107	0.599854	-0.509679	-1.84624	-0.692167	0.374584	-0.248059	-0.00507375	-0.567259	0.299959	-1.07507	-0.306682	0.519885	1.57381	0.374178	1.65139	0.991615	2.70387	0.338989	1.55769	
5.97992	0	5	2.96204	2.31505	0.606382	2.27485	-0.328291	0.500551	0.589014	1.40946	-0.132058	0.248256	-0.847347	-0.633301	-0.18184	0.60915	-0.492374	-1.82225	-0.681224	0.388271	-0.234918	0.0140575	-0.559765	0.315976	-1.06857	-0.285702	0.518521	1.57767	0.369872	1.66356	0.989257	2.71053	0.34007	1.57498	
5.97534	0	5	3.86524	1.72488	0.600638	2.30344	-0.327284	0.515603	0.594481	1.42551	-0.113695	0.26355	-0.830144	-0.610539	-0.169573	0.618446	-0.475069	-1.79826	-0.670281	0.401958	-0.221776	0.0331887	-0.552272	0.331993	-1.06208	-0.264723	0.517157	1.58152	0.365565	1.67573	0.986899	2.7172	0.341151	1.59227	
5.97534	0	5	4.76844	1.13471	0.594894	2.33204	-0.326276	0.530656	0.599947	1.44155	-0.095331	0.278843	-0.81294	-0.587777	-0.157307	0.627742	-0.457764	-1.77426	-0.659339	0.415645	-0.208635	0.05232	-0.544778	0.348009	-1.05558	-0.243744	0.515794	1.58537	0.361259	1.6879	0.984541	2.72386	0.342231	1.60956	
5.97534	0	5	4.76844	1.13471	0.602154	2.34866	-0.323873	0.550747	0.606368	1.46547	-0.078435	0.291773	-0.803036	-0.554364	-0.146964	0.649933	-0.440411	-1.75012	-0.643257	0.429844	-0.196751	0.0751742	-0.538246	0.366819	-1.04572	-0.222337	0.505427	1.60104	0.356947	1.70009	0.982181	2.73053	0.349911	1.62861	
5.96924	0	5	4.76844	1.13471	0.609413	2.36529	-0.321469	0.570839	0.61279	1.48938	-0.061539	0.304704	-0.793132	-0.520952	-0.136621	0.672124	-0.423059	-1.72598	-0.627174	0.444043	-0.184866	0.0980285	-0.531714	0.38563	-1.03585	-0.20093	0.495059	1.61671	0.352635	1.71227	0.979821	2.7372	0.357592	1.64766	
5.97076	0	5	4.76844	1.13471	0.616673	2.38191	-0.319066	0.59093	0.619212	1.5133	-0.044643	0.317634	-0.783228	-0.487539	-0.126278	0.694315	-0.405706	-1.70183	-0.611092	0.458241	-0.172982	0.120883	-0.525183	0.40444	-1.02599	-0.179523	0.484692	1.63238	0.348323	1.72446	0.977461	2.74387	0.365272	1.66671	
5.96619	0	5	4.76844	1.13471	0.623932	2.39853	-0.316663	0.611021	0.625633	1.53722	-0.027747	0.330564	-0.773324	-0.454126	-0.115935	0.716506	-0.388353	-1.67769	-0.59501	0.47244	-0.161098	0.143737	-0.518651	0.42325	-1.01612	-0.158116	0.474325	1.64805	0.344011	1.73665	0.975101	2.75054	0.372952	1.68576	
5.96619	0	5	4.76844	1.13471	0.612533	2.40598	-0.319881	0.611152	0.615947	1.54355	-0.0332237	0.33929	-0.779906	-0.435524	-0.124665	0.733824	-0.393034	-1.66446	-0.586654	0.493688	-0.155793	0.157031	-0.512541	0.433984	-1.01301	-0.137276	0.477866	1.65167	0.346709	1.74114	0.973868	2.76675	0.376793	1.69532	
5.97534	0	5	4.76844	1.13471	0.601133	2.41343	-0.3231	0.611284	0.60626	1.54988	-0.0387005	0.348016	-0.786488	-0.416923	-0.133396	0.751143	-0.397715	-1.65123	-0.578298	0.514935	-0.150488	0.170324	-0.506431	0.444719	-1.0099	-0.116436	0.481406	1.6553	0.349407	1.74563	0.972635	2.78296	0.380634	1.70488	
5.96313	0	5	4.76844	1.13471	0.589734	2.42088	-0.326319	0.611415	0.596574	1.55621	-0.0441773	0.356742	-0.793069	-0.398321	-0.142126	0.768462	-0.402397	-1.638	-0.569942	0.536183	-0.145184	0.183617	-0.500322	0.455454	-1.00678	-0.0955968	0.484947	1.65892	0.352104	1.75012	0.971402	2.79917	0.384474	1.71443	
5.96771	0	5	4.76844	1.13471	0.578334	2.42833	-0.329537	0.611546	0.586888	1.56254	-0.049654	0.365468	-0.799651	-0.37972	-0.150856	0.78578	-0.407078	-1.62477	-0.561586	0.557431	-0.139879	0.196911	-0.494212	0.466188	-1.00367	-0.074757	0.488488	1.66254	0.354802	1.75461	0.970169	2.81539	0.388315	1.72399	
5.96466	0	5	3.86524	1.72488	0.57187	2.42186	-0.335063	0.609244	0.5811	1.55788	-0.0533952	0.349058	-0.804582	-0.39651	-0.152099	0.767247	-0.41083	-1.63249	-0.562322	0.544545	-0.139076	0.185209	-0.493667	0.45531	-1.00016	-0.0846853	0.475144	1.65939	0.341147	1.74479	0.955033	2.80731	0.365716	1.72669	
5.96771	0	5	2.96204	2.31505	0.565407	2.41539	-0.340588	0.606941	0.575312	1.55321	-0.0571365	0.332647	-0.809513	-0.413301	-0.153342	0.748713	-0.414582	-1.64021	-0.563059	0.531659	-0.138273	0.173507	-0.493123	0.444431	-0.996646	-0.0946135	0.461801	1.65624	0.327492	1.73497	0.939898	2.79923	0.343117	1.72939	
5.96466	0	5	2.05885	2.90522	0.558944	2.40892	-0.346113	0.604638	0.569524	1.54855	-0.0608777	0.316237	-0.814445	-0.430092	-0.154585	0.730179	-0.418334	-1.64793	-0.563795	0.518774	-0.137471	0.161804	-0.492578	0.433553	-0.993133	-0.104542	0.448457	1.6531	0.313838	1.72515	0.924762	2.79115	0.320518	1.73209	
5.96466	5	0	1.15565	3.49539	0.55248	2.40245	-0.351639	0.602336	0.563736	1.54388	-0.064619	0.299827	-0.819376	-0.446882	-0.155828	0.711646	-0.422086	-1.65565	-0.564531	0.505888	-0.136668	0.150102	-0.492033	0.422675	-0.98962	-0.11447	0.435113	1.64995	0.300183	1.71533	0.909627	2.78307	0.297919	1.73479	
5.96008	5	0	2.05885	2.90522	0.54766	2.39137	-0.358065	0.602596	0.560197	1.54338	-0.0768237	0.280468	-0.823001	-0.467314	-0.16046	0.695381	-0.432625	-1.67159	-0.569523	0.490099	-0.140697	0.133218	-0.497181	0.409237	-0.994038	-0.121748	0.427245	1.63141	0.282447	1.70512	0.889885	2.77549	0.299633	1.7096	
5.95856	5	0	2.96204	2.31505	0.542839	2.38029	-0.36449	0.602855	0.556658	1.54288	-0.0890285	0.261109	-0.826626	-0.487746	-0.165092	0.679116	-0.443164	-1.68754	-0.574515	0.47431	-0.144726	0.116333	-0.502329	0.395799	-0.998455	-0.129025	0.419377	1.61288	0.264712	1.6949	0.870143	2.76791	0.301347	1.68441	
5.95856	5	0	3.86524	1.72488	0.538019	2.36921	-0.370916	0.603115	0.55312	1.54238	-0.101233	0.241751	-0.830251	-0.508178	-0.169723	0.662851	-0.453703	-1.70348	-0.579506	0.458522	-0.148754	0.0994485	-0.507477	0.38236	-1.00287	-0.136303	0.411508	1.59435	0.246976	1.68469	0.850401	2.76033	0.303062	1.65922	
5.95398	5	0	4.76844	1.13471	0.533199	2.35813	-0.377342	0.603375	0.549581	1.54188	-0.113438	0.222392	-0.833876	-0.52861	-0.174355	0.646586	-0.464242	-1.71943	-0.584498	0.442733	-0.152783	0.082564	-0.512625	0.368922	-1.00729	-0.143581	0.40364	1.57581	0.229241	1.67448	0.830659	2.75275	0.304776	1.63403	
5.95093	5	0	4.76844	1.13471	0.517041	2.35449	-0.390173	0.603888	0.534155	1.54352	-0.126361	0.198519	-0.845591	-0.546515	-0.176504	0.630675	-0.480826	-1.73639	-0.585247	0.429918	-0.162422	0.0721775	-0.519699	0.36097	-1.01404	-0.144247	0.396587	1.56861	0.223878	1.66556	0.821372	2.75371	0.282271	1.63674	
5.9494	5	0	4.76844	1.13471	0.500884	2.35085	-0.403004	0.604401	0.518729	1.54517	-0.139285	0.174646	-0.857307	-0.56442	-0.178654	0.614763	-0.497409	-1.75336	-0.585996	0.417103	-0.172061	0.061791	-0.526774	0.353017	-1.02079	-0.144913	0.389534	1.56141	0.218515	1.65664	0.812084	2.75466	0.259765	1.63944	
5.9494	5	0	4.76844	1.13471	0.484726	2.34721	-0.415835	0.604913	0.503303	1.54682	-0.152208	0.150772	-0.869023	-0.582325	-0.180803	0.598851	-0.513993	-1.77032	-0.586744	0.404289	-0.1817	0.0514045	-0.533848	0.345065	-1.02754	-0.145579	0.382481	1.55422	0.213151	1.64771	0.802797	2.75562	0.23726	1.64214	
5.94025	5	0	4.76844	1.13471	0.468568	2.34356	-0.428666	0.605426	0.487877	1.54846	-0.165131	0.126899	-0.880738	-0.60023	-0.182952	0.58294	-0.530576	-1.78729	-0.587493	0.391474	-0.191339	0.041018	-0.540922	0.337113	-1.03429	-0.146245	0.375428	1.54702	0.207788	1.63879	0.793509	2.75658	0.214755	1.64484	
5.9433	5	0	3.86524	1.72488	0.467022	2.32333	-0.435147	0.588061	0.481173	1.53601	-0.188766	0.106799	-0.89607	-0.638235	-0.19792	0.544848	-0.549682	-1.81504	-0.612108	0.379136	-0.211352	0.0319113	-0.553654	0.326614	-1.0466	-0.150877	0.364316	1.55133	0.200823	1.64645	0.785343	2.76703	0.208191	1.64314	
5.93567	5	0	2.96204	2.31505	0.465476	2.30309	-0.441628	0.570696	0.474469	1.52356	-0.2124	0.086699	-0.911402	-0.676239	-0.212888	0.506757	-0.568788	-1.8428	-0.636723	0.366798	-0.231365	0.0228045	-0.566387	0.316114	-1.05891	-0.155508	0.353204	1.55564	0.193858	1.6541	0.777178	2.77747	0.201626	1.64143	
5.93414	5	0	2.05885	2.90522	0.46393	2.28286	-0.448109	0.553331	0.467766	1.5111	-0.236035	0.066599	-0.926734	-0.714244	-0.227856	0.468665	-0.587894	-1.87055	-0.661338	0.35446	-0.251377	0.0136977	-0.579119	0.305615	-1.07121	-0.160139	0.342092	1.55995	0.186893	1.66176	0.769012	2.78792	0.195061	1.63973	
5.93414	5	0	1.15565	3.49539	0.462384	2.26262	-0.45459	0.535966	0.461062	1.49865	-0.25967	0.046499	-0.942066	-0.752248	-0.242824	0.430573	-0.607	-1.89831	-0.685953	0.342122	-0.27139	0.004591	-0.591851	0.295115	-1.08352	-0.164771	0.33098	1.56427	0.179928	1.66941	0.760846	2.79836	0.188497	1.63803	
5.93109	5	0	2.05885	2.90522	0.454327	2.26082	-0.455083	0.528451	0.462352	1.495	-0.273294	0.0250815	-0.953741	-0.769908	-0.243093	0.402185	-0.620472	-1.91454	-0.697695	0.323373	-0.279705	-0.00932725	-0.601249	0.284571	-1.08792	-0.17202	0.320441	1.55349	0.167808	1.65563	0.756343	2.77325	0.171599	1.62514	
5.92804	5	0	2.96204	2.31505	0.446271	2.25902	-0.455577	0.520935	0.463641	1.49136	-0.286918	0.003664	-0.965415	-0.787567	-0.243362	0.373797	-0.633944	-1.93076	-0.709437	0.304624	-0.288021	-0.0232455	-0.610646	0.274027	-1.09232	-0.179269	0.309901	1.54271	0.155689	1.64185	0.751839	2.74813	0.154701	1.61226	
5.92499	5	0	3.86524	1.72488	0.438214	2.25722	-0.456071	0.51342	0.464931	1.48771	-0.300543	-0.0177535	-0.97709	-0.805227	-0.24363	0.345409	-0.647417	-1.94699	-0.721179	0.285875	-0.296337	-0.0371638	-0.620043	0.263482	-1.09672	-0.186518	0.299362	1.53193	0.14357	1.62806	0.747336	2.72301	0.137804	1.59938	
5.92193	0	5	4.76844	1.13471	0.430157	2.25541	-0.456564	0.505905	0.46622	1.48407	-0.314167	-0.039171	-0.988765	-0.822887	-0.243899	0.317021	-0.660889	-1.96322	-0.732921	0.267126	-0.304652	-0.051082	-0.629441	0.252938	-1.10112	-0.193767	0.288823	1.52115	0.13145	1.61428	0.742833	2.69789	0.120906	1.5865	
5.91888	0	5	4.76844	1.13471	0.426133	2.25451	-0.458367	0.511001	0.461059	1.49866	-0.319441	-0.0508345	-0.992129	-0.823493	-0.24725	0.31921	-0.664608	-1.97077	-0.737947	0.259118	-0.307682	-0.0518622	-0.634134	0.247677	-1.10448	-0.194099	0.288017	1.50993	0.133047	1.59778	0.732473	2.68941	0.119856	1.5693	
5.91736	0	5	4.76844	1.13471	0.422109	2.25361	-0.46017	0.516096	0.455898	1.51324	-0.324716	-0.062498	-0.995494	-0.824099	-0.250601	0.3214	-0.668326	-1.97833	-0.742973	0.25111	-0.310712	-0.0526425	-0.638827	0.242416	-1.10784	-0.194431	0.287212	1.4987	0.134645	1.58127	0.722112	2.68092	0.118807	1.5521	
5.91583	0	5	4.76844	1.13471	0.418085	2.25271	-0.461973	0.521192	0.450736	1.52783	-0.32999	-0.0741615	-0.998859	-0.824704	-0.253951	0.323589	-0.672044	-1.98589	-0.748	0.243102	-0.313742	-0.0534228	-0.64352	0.237156	-1.1112	-0.194763	0.286407	1.48748	0.136242	1.56477	0.711752	2.67243	0.117757	1.5349	
